
6.15755 0 1
6.2731 0 1
6.3887 0 1
6.50437 0 1
6.62009 0 1
6.73587 0 1
6.8517 0 1
6.96759 0 1
7.08353 0 1
7.19952 0 1
7.31557 0 1
7.43166 0 1
7.54781 0 1
7.664 0 1
7.78024 0 1
7.89653 0 1
8.01286 0 1
8.12924 0 1
8.24567 0 1
8.36213 0 1
8.47864 0 1
8.59519 0 1
8.71178 0 1
8.82841 0 1
8.94508 0 1
9.06179 0 1
9.17853 0 1
9.29531 0 1
9.41212 0 1
9.52897 0 1
9.64584 0 1
9.76276 0 1
9.8797 0 1
9.99667 0 1
10.1137 0 1
10.2307 0 1
10.3478 0 1
10.4648 0 1
10.5819 0 1
10.6991 0 1
10.8162 0 1
10.9334 0 1
11.0506 0 1
11.1678 0 1
11.285 0 1
11.4023 0 1
11.5196 0 1
11.6369 0 1
11.7542 0 1
11.8715 0 1
11.9888 0 1
12.1062 0 1
12.2235 0 1
12.3409 0 1
12.4582 0 1
12.5756 0 1
12.693 0 1
12.8104 0 1
12.9278 0 1
13.0452 0 1
13.1626 0 1
13.28 0 1
13.3974 0 1
13.5149 0 1
13.6323 0 1
13.7497 0 1
13.8671 0 1
13.9845 0 1
14.1019 0 1
14.2193 0 1
14.3367 0 1
14.4541 0 1
14.5714 0 1
14.6888 0 1
14.8062 0 1
14.9235 0 1
15.0408 49685 222.901
15.1581 51756 227.499
15.2755 54777 234.045
15.3927 56752 238.227
15.51 56422 237.533
15.6273 57054 238.86
15.7445 58114 241.068
15.8617 58312 241.479
15.9789 58048 240.932
16.0961 57422 239.629
16.2132 56850 238.432
16.3304 56486 237.668
16.4475 55791 236.201
16.5646 55593 235.782
16.6816 55118 234.772
16.7986 54865 234.233
16.9156 54868 234.239
17.0326 53962 232.297
17.1496 53352 230.981
17.2665 53419 231.126
17.3833 53768 231.879
17.5002 53139 230.519
17.617 53854 232.065
17.7338 54476 233.401
17.8505 54936 234.384
17.9672 55623 235.845
18.0839 55204 234.955
18.2005 54245 232.906
18.3171 51477 226.885
18.4337 49962 223.522
18.5502 50720 225.211
18.6666 52200 228.473
18.7831 54300 233.024
18.8994 54877 234.258
19.0158 54456 233.358
19.1321 54120 232.637
19.2483 54090 232.573
19.3645 54084 232.56
19.4806 53991 232.36
19.5967 51951 227.928
19.7128 49003 221.366
19.8288 43593 208.789
19.9447 37033 192.44
20.0606 0 1
20.1764 0 1
20.2922 0 1
20.4079 0 1
20.5236 0 1
20.6392 0 1
20.7548 0 1
20.8702 0 1
23.3078 0 1
23.4233 0 1
23.539 0 1
23.6547 0 1
23.7704 0 1
23.8862 0 1
24.0021 0 1
24.118 0 1
24.234 0 1
24.35 0 1
24.4661 20206 142.148
24.5822 23368 152.866
24.6984 27186 164.882
24.8146 32691 180.807
24.9309 39337 198.336
25.0472 45660 213.682
25.1636 52050 228.145
25.28 56492 237.68
25.3965 59249 243.411
25.513 61294 247.576
25.6296 61945 248.888
25.7462 62446 249.892
25.8628 62322 249.644
25.9795 62725 250.45
26.0962 62644 250.288
26.213 62703 250.406
26.3298 61774 248.544
26.4466 61548 248.089
26.5635 61174 247.334
26.6804 60102 245.157
26.7973 58842 242.574
26.9143 55787 236.193
27.0313 53352 230.981
27.1483 53552 231.413
27.2653 54848 234.196
27.3824 56586 237.878
27.4996 57388 239.558
27.6167 56502 237.701
27.7339 56490 237.676
27.8511 56435 237.561
27.9683 57183 239.13
28.0855 58112 241.064
28.2028 59639 244.211
28.3201 58988 242.874
28.4374 59620 244.172
28.5547 59709 244.354
28.6721 60204 245.365
28.7894 60284 245.528
28.9068 60261 245.481
29.0242 60601 246.173
29.1416 60371 245.705
29.259 60505 245.978
29.3764 60277 245.514
29.4939 60125 245.204
29.6113 60253 245.465
29.7288 60292 245.544
29.8463 59996 244.941
29.9638 60052 245.055
30.0812 59012 242.924
30.1987 58559 241.99
30.3162 55932 236.499
30.4337 52712 229.591
30.5512 51502 226.941
30.6687 51268 226.424
30.7862 52285 228.659
30.9037 54749 233.985
31.0212 56253 237.177
31.1387 56828 238.386
31.2562 56459 237.611
31.3737 55961 236.561
31.4912 56769 238.262
31.6087 57307 239.389
31.7262 58111 241.062
31.8436 58524 241.917
31.9611 58381 241.622
32.0785 58492 241.851
32.1959 58444 241.752
32.3134 59461 243.846
32.4308 59684 244.303
32.5482 59546 244.02
32.6655 59030 242.961
32.7829 59271 243.456
32.9002 59472 243.869
33.0176 59011 242.922
33.1349 58988 242.874
33.2522 59214 243.339
33.3694 59150 243.208
33.4867 59451 243.826
33.6039 58146 241.135
33.7211 58049 240.934
33.8383 56462 237.617
33.9554 54135 232.669
34.0725 51088 226.027
34.1896 50046 223.71
34.3067 50077 223.779
34.4237 51779 227.55
34.5407 54084 232.56
34.6577 55254 235.062
34.7746 55345 235.255
34.8915 54901 234.31
35.0084 54402 233.242
35.1252 54374 233.182
35.242 54573 233.609
35.3587 55666 235.936
35.4755 56604 237.916
35.5921 57637 240.077
35.7088 57910 240.645
35.8254 58007 240.846
35.9419 58419 241.7
36.0584 58640 242.157
36.1749 58719 242.32
36.2913 57442 239.671
36.4077 55795 236.21
36.524 52821 229.828
36.6403 50006 223.62
36.7565 46589 215.845
36.8727 42677 206.584
36.9889 39197 197.982
37.1049 35428 188.223
37.221 0 1
37.3369 0 1
37.4529 0 1
37.5687 0 1
37.6845 0 1
37.8003 0 1
37.916 0 1
38.0316 0 1
38.1472 0 1
40.5851 0 1
40.7008 0 1
40.8164 0 1
40.9322 0 1
41.048 0 1
41.1639 0 1
41.2798 0 1
41.3958 0 1
41.5118 0 1
41.6279 0 1
41.744 24294 155.865
41.8602 29842 172.748
41.9765 35037 187.182
42.0928 39383 198.452
42.2091 42395 205.9
42.3255 44958 212.033
42.4419 46789 216.308
42.5584 47006 216.809
42.675 46062 214.621
42.7915 43719 209.091
42.9081 42229 205.497
43.0248 42107 205.2
43.1415 43703 209.053
43.2582 45717 213.815
43.375 47656 218.303
43.4918 48972 221.296
43.6087 49475 222.43
43.7256 48747 220.787
43.8425 48319 219.816
43.9595 47660 218.312
44.0765 47648 218.284
44.1935 47607 218.19
44.3106 48498 220.223
44.4277 49510 222.508
44.5448 49753 223.054
44.6619 50064 223.75
44.7791 50046 223.71
44.8963 50105 223.841
45.0136 50512 224.749
45.1308 50598 224.94
45.2481 50061 223.743
45.3654 50153 223.949
45.4827 50315 224.31
45.6001 50903 225.617
45.7174 50662 225.082
45.8348 50496 224.713
45.9522 50477 224.671
46.0697 49494 222.472
46.1871 48127 219.379
46.3046 46399 215.404
46.422 44012 209.79
46.5395 43132 207.682
46.657 44620 211.234
46.7745 47076 216.97
46.892 48611 220.479
47.0096 50761 225.302
47.1271 51515 226.969
47.2446 52095 228.243
47.3622 51154 226.173
47.4797 50726 225.224
47.5973 49340 222.126
47.7149 49073 221.524
47.8324 48972 221.296
47.95 49874 223.325
48.0675 51219 226.316
48.1851 50706 225.18
48.3027 51523 226.987
48.4202 51492 226.918
48.5378 51880 227.772
48.6554 51838 227.68
48.7729 51798 227.592
48.8904 51843 227.691
49.008 51515 226.969
49.1255 51446 226.817
49.243 51290 226.473
49.3605 51210 226.296
49.478 50541 224.813
49.5955 49219 221.854
49.713 46782 216.291
49.8304 44431 210.787
49.9479 41918 204.739
50.0653 41827 204.517
50.1827 43396 208.317
50.3001 45774 213.949
50.4175 47870 218.792
50.5348 49556 222.612
50.6521 51184 226.239
50.7694 51860 227.728
50.8867 51169 226.206
51.004 50692 225.149
51.1212 50313 224.306
51.2384 49342 222.131
51.3556 50021 223.654
51.4727 49798 223.155
51.5899 50318 224.317
51.707 51329 226.559
51.824 52425 228.965
51.9411 52729 229.628
52.0581 52607 229.362
52.175 52179 228.427
52.2919 52044 228.132
52.4088 52364 228.832
52.5257 52164 228.394
52.6425 51995 228.024
52.7593 51401 226.718
52.876 51168 226.203
52.9927 51226 226.332
53.1094 51127 226.113
53.226 49586 222.679
53.3426 46805 216.345
53.4591 43777 209.23
53.5756 40645 201.606
53.692 38829 197.051
53.8084 37889 194.651
53.9248 36177 190.203
54.0411 34175 184.865
54.1573 31489 177.451
54.2735 0 1
54.3896 0 1
54.5057 0 1
54.6217 0 1
54.7377 0 1
54.8537 0 1
54.9695 0 1
55.0853 0 1
55.2011 0 1
55.3168 0 1
55.4324 0 1
57.824 0 1
57.9396 0 1
58.0553 0 1
58.1711 0 1
58.2869 0 1
58.4028 0 1
58.5187 0 1
58.6347 0 1
58.7508 0 1
58.8669 0 1
58.983 31244 176.76
59.0992 38363 195.865
59.2155 44604 211.197
59.3318 50353 224.395
59.4482 55185 234.915
59.5646 58395 241.651
59.681 60998 246.978
59.7975 62091 249.181
59.9141 63034 251.066
60.0306 62513 250.026
60.1473 62058 249.114
60.2639 62940 250.878
60.3807 63768 252.523
60.4974 65076 255.1
60.6142 65391 255.717
60.731 65968 256.842
60.8479 66420 257.721
60.9648 66342 257.569
61.0818 66728 258.318
61.1987 66404 257.69
61.3158 66312 257.511
61.4328 65240 255.421
61.5499 65055 255.059
61.667 64470 253.909
61.7841 63543 252.077
61.9013 60843 246.664
62.0185 57330 239.437
62.1357 55899 236.43
62.253 55867 236.362
62.3702 57054 238.86
62.4875 60543 246.055
62.6049 62875 250.749
62.7222 65613 256.15
62.8396 67089 259.015
62.9569 68957 262.597
63.0743 68635 261.983
63.1918 68173 261.1
63.3092 67355 259.528
63.4267 66098 257.095
63.5441 64956 254.865
63.6616 63596 252.182
63.7791 63560 252.111
63.8966 63714 252.416
64.0142 65022 254.994
64.1317 65186 255.315
64.2492 65423 255.779
64.3668 65206 255.355
64.4843 65993 256.891
64.6019 65890 256.69
64.7195 65494 255.918
64.837 65534 255.996
64.9546 65400 255.734
65.0722 65539 256.006
65.1898 64783 254.525
65.3074 63385 251.764
65.4249 61273 247.534
65.5425 58690 242.26
65.6601 55771 236.159
65.7777 54484 233.418
65.8952 55940 236.516
66.0128 57918 240.662
66.1304 61246 247.479
66.2479 64047 253.075
66.3655 66399 257.68
66.483 68260 261.266
66.6005 68802 262.301
66.718 68338 261.415
66.8355 67204 259.237
66.953 66416 257.713
67.0705 65727 256.373
67.1879 64417 253.805
67.3054 62334 249.668
67.4228 61845 248.687
67.5402 62010 249.018
67.6576 62005 249.008
67.7749 63224 251.444
67.8923 63621 252.232
68.0096 64402 253.775
68.1269 65491 255.912
68.2442 65671 256.264
68.3614 65797 256.509
68.4787 65751 256.42
68.5958 65456 255.844
68.713 64596 254.157
68.8302 64321 253.616
68.9473 63084 251.165
69.0643 60803 246.583
69.1814 57291 239.355
69.2984 54470 233.388
69.4154 53306 230.881
69.5323 53785 231.916
69.6492 57458 239.704
69.7661 60244 245.447
69.8829 62713 250.426
69.9997 64152 253.282
70.1165 64524 254.016
70.2332 62435 249.87
70.3499 60058 245.067
70.4665 56781 238.288
70.5831 52665 229.489
70.6996 48857 221.036
70.8161 44909 211.917
70.9326 40851 202.116
71.049 36507 191.068
71.1653 33298 182.477
71.2817 30972 175.989
71.3979 28983 170.244
71.5141 27544 165.964
71.6303 25764 160.512
71.7464 22994 151.638
71.8624 0 1
71.9784 0 1
72.0944 0 1
72.2102 0 1
72.3261 0 1
72.4418 0 1
72.5575 0 1
72.6732 0 1
75.1054 0 1
75.2209 0 1
75.3365 0 1
75.4521 0 1
75.5678 0 1
75.6835 0 1
75.7993 0 1
75.9151 0 1
76.031 0 1
76.147 41278 203.17
76.263 45464 213.223
76.3791 47654 218.298
76.4952 49202 221.815
76.6113 50836 225.468
76.7276 52173 228.414
76.8438 55479 235.54
76.9601 57851 240.522
77.0765 59414 243.75
77.1929 61462 247.915
77.3093 63061 251.119
77.4258 63538 252.067
77.5423 64244 253.464
77.6589 64341 253.655
77.7755 64635 254.234
77.8921 64574 254.114
78.0088 62765 250.529
78.1256 60530 246.028
78.2423 57605 240.01
78.3591 56036 236.719
78.4759 56596 237.899
78.5928 59623 244.178
78.7097 63290 251.575
78.8266 66454 257.787
78.9436 71206 266.845
79.0606 72512 269.281
79.1776 75522 274.813
79.2946 77333 278.088
79.4117 77744 278.826
79.5288 78035 279.347
79.6459 77459 278.315
79.7631 76160 275.971
79.8802 74779 273.457
79.9974 72542 269.336
80.1147 70362 265.258
80.2319 68799 262.296
80.3491 68967 262.616
80.4664 71138 266.717
80.5837 74184 272.367
80.701 76897 277.303
80.8183 79158 281.35
80.9357 82003 286.362
81.053 82060 286.461
81.1704 82200 286.705
81.2877 81879 286.145
81.4051 82329 286.93
81.5225 79632 282.191
81.6399 78376 279.957
81.7573 73054 270.285
81.8747 70458 265.439
81.9922 65519 255.967
82.1096 65199 255.341
82.227 66779 258.416
82.3444 71016 266.488
82.4619 75862 275.431
82.5793 79279 281.565
82.6967 79891 282.65
82.8142 82222 286.744
82.9316 82958 288.024
83.049 82205 286.714
83.1664 81142 284.854
83.2838 79397 281.775
83.4012 76938 277.377
83.5186 74690 273.295
83.636 71866 268.078
83.7534 70163 264.883
83.8708 67372 259.561
83.9881 66876 258.604
84.1055 67513 259.833
84.2228 68623 261.96
84.3401 70400 265.33
84.4575 71759 267.879
84.5747 73679 271.439
84.692 73550 271.201
84.8093 73633 271.354
84.9265 72154 268.615
85.0437 70949 266.363
85.1609 68308 261.358
85.2781 64944 254.841
85.3952 60743 246.461
85.5123 56620 237.95
85.6294 53242 230.742
85.7465 52544 229.225
85.8636 54180 232.766
85.9806 56789 238.304
86.0976 59983 244.914
86.2145 61790 248.576
86.3315 62916 250.831
86.4484 64834 254.625
86.5652 64994 254.939
86.682 63711 252.41
86.7988 62784 250.567
86.9156 61248 247.483
87.0323 59291 243.497
87.149 58040 240.915
87.2657 56822 238.374
87.3823 54930 234.371
87.4988 52323 228.742
87.6154 50215 224.087
87.7318 48797 220.9
87.8483 47381 217.672
87.9647 46472 215.574
88.081 45526 213.368
88.1973 43793 209.268
88.3136 41241 203.079
88.4298 38058 195.085
88.546 34610 186.038
88.6621 31120 176.409
88.7781 27646 166.271
88.8942 0 1
89.0101 0 1
89.126 0 1
89.2419 0 1
89.3577 0 1
89.4734 0 1
89.5891 0 1
89.7047 0 1
89.8203 0 1
89.9358 0 1
92.3269 0 1
92.4424 0 1
92.558 0 1
92.6736 0 1
92.7893 0 1
92.905 0 1
93.0208 0 1
93.1366 0 1
93.2525 0 1
93.3685 0 1
93.4845 0 1
93.6005 41945 204.805
93.7167 46163 214.856
93.8328 49647 222.816
93.949 52985 230.185
94.0653 54696 233.872
94.1816 55863 236.354
94.2979 57357 239.493
94.4143 57707 240.223
94.5307 57329 239.435
94.6472 54710 233.902
94.7637 52003 228.042
94.8803 49858 223.289
94.9969 49743 223.031
95.1135 51460 226.848
95.2302 53481 231.26
95.3469 57062 238.877
95.4637 59530 243.988
95.5805 60455 245.876
95.6973 61983 248.964
95.8142 62134 249.267
95.9311 61167 247.32
96.048 60373 245.709
96.1649 59748 244.434
96.2819 58720 242.322
96.3989 56634 237.979
96.516 55463 235.506
96.633 54652 233.778
96.7501 53685 231.7
96.8673 53350 230.976
96.9844 54248 232.912
97.1016 55243 235.038
97.2188 56145 236.949
97.336 57975 240.78
97.4532 59620 244.172
97.5704 60613 246.197
97.6877 61056 247.095
97.805 61232 247.451
97.9223 60181 245.318
98.0396 59887 244.718
98.1569 57604 240.008
98.2743 55953 236.544
98.3916 52333 228.764
98.509 49859 223.291
98.6264 49604 222.72
98.7438 50402 224.504
98.8612 53294 230.855
98.9786 56544 237.79
99.096 59168 243.245
99.2134 61478 247.948
99.3308 63204 251.404
99.4482 64252 253.48
99.5656 64679 254.321
99.6831 63220 251.436
99.8005 63255 251.505
99.9179 60754 246.483
100.035 59288 243.491
100.153 57904 240.632
100.27 56389 237.464
100.388 56236 237.141
100.505 55758 236.131
100.622 56848 238.428
100.74 57967 240.763
100.857 59170 243.249
100.975 60340 245.642
101.092 61624 248.242
101.209 62359 249.718
101.327 61969 248.936
101.444 61780 248.556
101.561 61483 247.958
101.679 60881 246.741
101.796 59132 243.171
101.913 56399 237.485
102.03 53670 231.668
102.148 51667 227.304
102.265 51375 226.661
102.382 55330 235.223
102.499 57964 240.757
102.616 60774 246.524
102.733 63621 252.232
102.851 65513 255.955
102.968 65762 256.441
103.085 66528 257.93
103.202 66272 257.433
103.319 65237 255.415
103.436 62915 250.829
103.552 61559 248.111
103.669 59895 244.735
103.786 58344 241.545
103.903 57863 240.547
104.02 57565 239.927
104.137 58590 242.054
104.253 59203 243.317
104.37 61636 248.266
104.487 62855 250.709
104.603 63867 252.719
104.72 63796 252.579
104.836 63215 251.426
104.953 61472 247.935
105.069 58371 241.601
105.186 55260 235.074
105.302 50822 225.437
105.418 46549 215.752
105.535 41774 204.387
105.651 37718 194.211
105.767 34978 187.024
105.883 33576 183.238
105.999 32120 179.221
106.115 0 1
106.231 0 1
106.347 0 1
106.463 0 1
106.579 0 1
106.694 0 1
106.81 0 1
106.926 0 1
107.041 0 1
107.157 0 1
109.576 0 1
109.692 0 1
109.807 0 1
109.923 0 1
110.039 0 1
110.155 0 1
110.27 0 1
110.386 0 1
110.502 0 1
110.618 26412 162.518
110.735 29821 172.688
110.851 33473 182.956
110.967 38569 196.39
111.083 43674 208.983
111.199 48197 219.538
111.316 52500 229.129
111.432 55228 235.006
111.549 56171 237.004
111.665 56431 237.552
111.782 56456 237.605
111.898 55711 236.032
112.015 54378 233.191
112.132 52769 229.715
112.248 51040 225.92
112.365 50200 224.054
112.482 49089 221.56
112.599 51272 226.433
112.716 51276 226.442
112.832 52655 229.467
112.949 52711 229.589
113.066 53405 231.095
113.183 54801 234.096
113.3 54321 233.069
113.417 54422 233.285
113.534 54194 232.796
113.652 54213 232.837
113.769 53898 232.159
113.886 53641 231.605
114.003 51804 227.605
114.12 49461 222.398
114.238 47154 217.15
114.355 46207 214.958
114.472 45569 213.469
114.589 52770 229.717
114.707 53518 231.34
114.824 56166 236.994
114.942 57288 239.349
115.059 58640 242.157
115.176 58446 241.756
115.294 57357 239.493
115.411 56415 237.518
115.529 55285 235.128
115.646 53079 230.389
115.764 51373 226.656
115.881 49971 223.542
115.999 49456 222.387
116.116 49503 222.493
116.234 49768 223.087
116.351 50480 224.678
116.469 51503 226.943
116.586 51911 227.84
116.704 52575 229.292
116.821 53402 231.089
116.939 53276 230.816
117.056 53355 230.987
117.174 53119 230.476
117.291 53239 230.736
117.409 52211 228.497
117.526 51988 228.009
117.644 50444 224.597
117.761 48267 219.698
117.879 47130 217.094
117.996 46327 215.237
118.114 48234 219.622
118.231 51787 227.568
118.349 53641 231.605
118.466 55386 235.342
118.584 56378 237.441
118.701 56461 237.615
118.819 55929 236.493
118.936 54505 233.463
119.053 53804 231.957
119.171 51550 227.046
119.288 50165 223.975
119.405 48391 219.98
119.523 47421 217.764
119.64 47857 218.762
119.757 47468 217.872
119.875 47871 218.794
119.992 48217 219.584
120.109 48737 220.765
120.226 48646 220.558
120.343 49399 222.259
120.46 50266 224.201
120.578 50319 224.319
120.695 50094 223.817
120.812 50178 224.004
120.929 49912 223.41
121.046 49708 222.953
121.163 48881 221.09
121.279 48368 219.927
121.396 46372 215.342
121.513 45054 212.259
121.63 43568 208.729
121.747 43011 207.391
121.863 42671 206.57
121.98 43910 209.547
122.097 43869 209.449
122.213 43078 207.552
122.33 41657 204.1
122.446 39767 199.417
122.563 37463 193.554
122.679 34988 187.051
122.795 32175 179.374
122.912 28978 170.229
123.028 26423 162.552
123.144 24175 155.483
123.26 22740 150.798
123.377 0 1
123.493 0 1
123.609 0 1
123.725 0 1
123.84 0 1
123.956 0 1
124.072 0 1
124.188 0 1
124.303 0 1
124.419 0 1
126.852 0 1
126.968 0 1
127.083 0 1
127.199 0 1
127.315 0 1
127.431 0 1
127.547 0 1
127.663 0 1
127.779 0 1
127.895 0 1
128.011 0 1
128.127 0 1
128.243 0 1
128.359 50338 224.361
128.476 51013 225.861
128.592 50935 225.688
128.708 51699 227.374
128.825 51956 227.939
128.941 52663 229.484
129.058 52702 229.569
129.174 53759 231.86
129.291 53956 232.284
129.408 54859 234.22
129.524 54702 233.885
129.641 55721 236.053
129.758 55769 236.155
129.875 55565 235.722
129.992 55855 236.337
130.108 55762 236.14
130.225 55371 235.31
130.342 54881 234.267
130.459 53131 230.502
130.576 52615 229.38
130.693 49972 223.544
130.81 48895 221.122
130.928 49097 221.578
131.045 51319 226.537
131.162 53867 232.093
131.279 55039 234.604
131.396 55825 236.273
131.513 55399 235.37
131.631 54908 234.325
131.748 53486 231.27
131.865 52769 229.715
131.983 51486 226.905
132.1 51202 226.279
132.217 51464 226.857
132.335 51359 226.625
132.452 52050 228.145
132.57 52538 229.212
132.687 53360 230.998
132.804 52463 229.048
132.922 53192 230.634
133.039 53801 231.95
133.157 54339 233.107
133.274 54838 234.175
133.392 54644 233.761
133.509 55363 235.293
133.627 55241 235.034
133.744 54964 234.444
133.862 54284 232.989
133.979 53764 231.871
134.097 52303 228.698
134.214 50755 225.289
134.332 48333 219.848
134.449 47910 218.884
134.567 49419 222.304
134.684 51289 226.471
134.802 53369 231.017
134.919 54176 232.757
135.037 54034 232.452
135.154 53489 231.277
135.272 52425 228.965
135.389 52064 228.175
135.507 51059 225.962
135.624 51020 225.876
135.742 50970 225.765
135.859 51638 227.24
135.977 51633 227.229
136.094 52279 228.646
136.211 52676 229.513
136.329 53020 230.261
136.446 53196 230.643
136.564 52836 229.861
136.681 53819 231.989
136.798 53598 231.512
136.915 53831 232.015
137.033 54603 233.673
137.15 54542 233.542
137.267 54631 233.733
137.384 54683 233.844
137.502 53582 231.478
137.619 52322 228.74
137.736 52104 228.263
137.853 47910 218.884
137.97 47779 218.584
138.087 45694 213.762
138.204 46557 215.771
138.321 48849 221.018
138.438 50624 224.998
138.555 52093 228.239
138.672 52101 228.256
138.788 51006 225.845
138.905 49919 223.426
139.022 48479 220.179
139.139 46252 215.063
139.255 43982 209.719
139.372 42440 206.01
139.488 40387 200.965
139.605 38303 195.712
139.721 35974 189.668
139.838 33414 182.795
139.954 31598 177.758
140.071 30124 173.563
140.187 28452 168.677
140.303 26773 163.625
140.419 25404 159.386
140.535 24523 156.598
140.652 23403 152.98
140.768 0 1
140.884 0 1
141 0 1
141.115 0 1
141.231 0 1
141.347 0 1
141.463 0 1
141.578 0 1
141.694 0 1
144.104 0 1
144.219 0 1
144.335 0 1
144.45 0 1
144.566 0 1
144.682 0 1
144.798 0 1
144.914 0 1
145.03 0 1
145.146 36716 191.614
145.262 39247 198.109
145.378 39954 199.885
145.494 40406 201.012
145.61 40908 202.257
145.726 41271 203.153
145.842 41394 203.455
145.959 41211 203.005
146.075 41511 203.742
146.192 40986 202.45
146.308 40885 202.2
146.425 40707 201.76
146.541 40138 200.345
146.658 39135 197.826
146.774 37798 194.417
146.891 36538 191.149
147.008 36255 190.407
147.125 36631 191.392
147.241 37856 194.566
147.358 39394 198.479
147.475 39761 199.402
147.592 39004 197.494
147.709 38843 197.086
147.826 38312 195.735
147.943 37878 194.623
148.06 38579 196.415
148.177 39104 197.747
148.294 39671 199.176
148.411 39576 198.937
148.528 40035 200.087
148.645 39993 199.982
148.762 40112 200.28
148.88 40016 200.04
148.997 40870 202.163
149.114 39090 197.712
149.231 40631 201.571
149.349 40655 201.631
149.466 40105 200.262
149.583 40456 201.137
149.701 40052 200.13
149.818 39821 199.552
149.935 39613 199.03
150.053 39410 198.52
150.17 39426 198.56
150.287 38867 197.147
150.405 38676 196.662
150.522 37081 192.564
150.64 36128 190.074
150.757 36318 190.573
150.875 37311 193.161
150.992 37868 194.597
151.11 38678 196.667
151.227 38173 195.379
151.344 37901 194.682
151.462 37272 193.06
151.579 38042 195.044
151.697 37815 194.461
151.814 38517 196.257
151.932 38907 197.249
152.049 38611 196.497
152.167 38921 197.284
152.284 38955 197.37
152.402 39197 197.982
152.519 38905 197.244
152.636 38320 195.755
152.754 38380 195.908
152.871 38807 196.995
152.989 38856 197.119
153.106 39335 198.331
153.223 39227 198.058
153.341 38399 195.957
153.458 38652 196.601
153.575 38540 196.316
153.693 38136 195.284
153.81 38043 195.046
153.927 37788 194.391
154.044 37723 194.224
154.162 36779 191.779
154.279 35657 188.831
154.396 36006 189.752
154.513 36879 192.039
154.63 37755 194.306
154.747 37905 194.692
154.864 37388 193.36
154.981 36867 192.008
155.098 36856 191.979
155.215 37161 192.772
155.332 36475 190.984
155.449 37181 192.824
155.566 37111 192.642
155.683 36608 191.332
155.8 36459 190.942
155.917 35865 189.381
156.033 35551 188.55
156.15 0 1
156.267 0 1
156.383 0 1
156.5 0 1
156.617 0 1
156.733 0 1
156.85 0 1
156.966 0 1
157.082 0 1
157.199 0 1
157.315 0 1
157.431 0 1
157.547 0 1
157.664 0 1
157.78 0 1
157.896 0 1
158.012 0 1
158.128 0 1
158.244 0 1
158.359 0 1
158.475 0 1
158.591 0 1
158.706 0 1
