
6.15755 0 1
6.2731 0 1
6.3887 0 1
6.50437 0 1
6.62009 0 1
6.73587 0 1
6.8517 0 1
6.96759 0 1
7.08353 0 1
7.19952 0 1
7.31557 0 1
7.43166 0 1
7.54781 0 1
7.664 0 1
7.78024 0 1
7.89653 0 1
8.01286 0 1
8.12924 0 1
8.24567 0 1
8.36213 0 1
8.47864 0 1
8.59519 0 1
8.71178 0 1
8.82841 0 1
8.94508 0 1
9.06179 0 1
9.17853 0 1
9.29531 0 1
9.41212 0 1
9.52897 0 1
9.64584 0 1
9.76276 0 1
9.8797 0 1
9.99667 0 1
10.1137 0 1
10.2307 0 1
10.3478 0 1
10.4648 0 1
10.5819 0 1
10.6991 0 1
10.8162 0 1
10.9334 0 1
11.0506 0 1
11.1678 0 1
11.285 0 1
11.4023 0 1
11.5196 0 1
11.6369 0 1
11.7542 0 1
11.8715 0 1
11.9888 0 1
12.1062 0 1
12.2235 0 1
12.3409 0 1
12.4582 0 1
12.5756 0 1
12.693 0 1
12.8104 0 1
12.9278 0 1
13.0452 0 1
13.1626 0 1
13.28 0 1
13.3974 0 1
13.5149 0 1
13.6323 0 1
13.7497 0 1
13.8671 0 1
13.9845 0 1
14.1019 0 1
14.2193 0 1
14.3367 0 1
14.4541 0 1
14.5714 0 1
14.6888 0 1
14.8062 0 1
14.9235 0 1
15.0408 0 0
15.1581 0 0
15.2755 0 0
15.3927 0 0
15.51 0 0
15.6273 0 0
15.7445 0 0
15.8617 0 0
15.9789 0 0
16.0961 0 0
16.2132 0 0
16.3304 0 0
16.4475 0 0
16.5646 0 0
16.6816 0 0
16.7986 0 0
16.9156 0 0
17.0326 0 0
17.1496 0 0
17.2665 0 0
17.3833 0 0
17.5002 0 0
17.617 0 0
17.7338 0 0
17.8505 0 0
17.9672 0 0
18.0839 0 0
18.2005 0 0
18.3171 0 0
18.4337 0 0
18.5502 0 0
18.6666 0 0
18.7831 0 0
18.8994 0 0
19.0158 0 0
19.1321 0 0
19.2483 0 0
19.3645 0 0
19.4806 0 0
19.5967 0 0
19.7128 0 0
19.8288 0 0
19.9447 0 0
20.0606 0 1
20.1764 0 1
20.2922 0 1
20.4079 0 1
20.5236 0 1
20.6392 0 1
20.7548 0 1
20.8702 0 1
23.3078 0 1
23.4233 0 1
23.539 0 1
23.6547 0 1
23.7704 0 1
23.8862 0 1
24.0021 0 1
24.118 0 1
24.234 0 1
24.35 0 1
24.4661 1311 36.2077
24.5822 1420 37.6829
24.6984 1588 39.8497
24.8146 1760 41.9524
24.9309 1956 44.2267
25.0472 2259 47.5289
25.1636 2508 50.0799
25.28 2628 51.264
25.3965 2677 51.7397
25.513 2759 52.5262
25.6296 2782 52.7447
25.7462 2744 52.3832
25.8628 2638 51.3615
25.9795 2620 51.1859
26.0962 2724 52.192
26.213 2833 53.2259
26.3298 2831 53.2071
26.4466 2757 52.5071
26.5635 2832 53.2165
26.6804 2666 51.6333
26.7973 2646 51.4393
26.9143 2670 51.672
27.0313 2520 50.1996
27.1483 2562 50.6162
27.2653 2552 50.5173
27.3824 2400 48.9898
27.4996 2326 48.2286
27.6167 2262 47.5605
27.7339 2210 47.0106
27.8511 2328 48.2494
27.9683 2446 49.4571
28.0855 2538 50.3786
28.2028 2591 50.9019
28.3201 2579 50.7839
28.4374 2596 50.951
28.5547 2563 50.6261
28.6721 2606 51.049
28.7894 2559 50.5866
28.9068 2553 50.5272
29.0242 2581 50.8035
29.1416 2606 51.049
29.259 2630 51.2835
29.3764 2652 51.4976
29.4939 2476 49.7594
29.6113 2397 48.9592
29.7288 2350 48.4768
29.8463 2306 48.0208
29.9638 2362 48.6004
30.0812 2390 48.8876
30.1987 2393 48.9183
30.3162 2507 50.07
30.4337 2456 49.558
30.5512 2507 50.07
30.6687 2562 50.6162
30.7862 2496 49.96
30.9037 2344 48.4149
31.0212 2296 47.9166
31.1387 2347 48.4458
31.2562 2342 48.3942
31.3737 2442 49.4166
31.4912 2603 51.0196
31.6087 2611 51.0979
31.7262 2580 50.7937
31.8436 2628 51.264
31.9611 2520 50.1996
32.0785 2541 50.4083
32.1959 2507 50.07
32.3134 2549 50.4876
32.4308 2452 49.5177
32.5482 2402 49.0102
32.6655 2319 48.156
32.7829 2238 47.3075
32.9002 2337 48.3425
33.0176 2281 47.7598
33.1349 2279 47.7389
33.2522 2214 47.0532
33.3694 2243 47.3603
33.4867 2228 47.2017
33.6039 2223 47.1487
33.7211 2252 47.4552
33.8383 2359 48.5695
33.9554 2344 48.4149
34.0725 2318 48.1456
34.1896 2362 48.6004
34.3067 2406 49.051
34.4237 2457 49.5681
34.5407 2243 47.3603
34.6577 2311 48.0729
34.7746 2230 47.2229
34.8915 2305 48.0104
35.0084 2456 49.558
35.1252 2461 49.6085
35.242 2682 51.788
35.3587 2526 50.2593
35.4755 2606 51.049
35.5921 2457 49.5681
35.7088 2447 49.4672
35.8254 2254 47.4763
35.9419 2250 47.4342
36.0584 2189 46.7868
36.1749 2049 45.2659
36.2913 2127 46.1194
36.4077 2100 45.8258
36.524 1906 43.6578
36.6403 1744 41.7612
36.7565 1521 39
36.8727 1449 38.0657
36.9889 1493 38.6394
37.1049 1475 38.4057
37.221 0 1
37.3369 0 1
37.4529 0 1
37.5687 0 1
37.6845 0 1
37.8003 0 1
37.916 0 1
38.0316 0 1
38.1472 0 1
40.5851 0 1
40.7008 0 1
40.8164 0 1
40.9322 0 1
41.048 0 1
41.1639 0 1
41.2798 0 1
41.3958 0 1
41.5118 0 1
41.6279 0 1
41.744 1890 43.4741
41.8602 2422 49.2138
41.9765 2944 54.2586
42.0928 3266 57.1489
42.2091 3364 58
42.3255 3251 57.0175
42.4419 3328 57.6888
42.5584 3416 58.4466
42.675 3376 58.1034
42.7915 3478 58.9746
42.9081 3477 58.9661
43.0248 3589 59.9083
43.1415 3572 59.7662
43.2582 3467 58.8812
43.375 3196 56.5332
43.4918 3193 56.5066
43.6087 3392 58.2409
43.7256 3322 57.6368
43.8425 3479 58.983
43.9595 3450 58.7367
44.0765 3502 59.1777
44.1935 3446 58.7026
44.3106 3239 56.9122
44.4277 3313 57.5587
44.5448 3181 56.4004
44.6619 3098 55.6597
44.7791 3014 54.8999
44.8963 2845 53.3385
45.0136 2655 51.5267
45.1308 2662 51.5946
45.2481 2431 49.3052
45.3654 2328 48.2494
45.4827 2282 47.7703
45.6001 2143 46.2925
45.7174 2056 45.3431
45.8348 2154 46.4112
45.9522 1975 44.441
46.0697 2087 45.6837
46.1871 2066 45.4533
46.3046 2139 46.2493
46.422 2178 46.669
46.5395 2110 45.9347
46.657 2171 46.594
46.7745 2102 45.8476
46.892 2032 45.0777
47.0096 1922 43.8406
47.1271 1972 44.4072
47.2446 2016 44.8999
47.3622 2138 46.2385
47.4797 2109 45.9239
47.5973 2185 46.744
47.7149 2073 45.5302
47.8324 2051 45.288
47.95 2108 45.913
48.0675 2021 44.9555
48.1851 2133 46.1844
48.3027 2004 44.7661
48.4202 2033 45.0888
48.5378 1979 44.486
48.6554 1855 43.0697
48.7729 1924 43.8634
48.8904 1871 43.2551
49.008 1759 41.9404
49.1255 1858 43.1045
49.243 1840 42.8952
49.3605 1857 43.0929
49.478 1950 44.1588
49.5955 2061 45.3982
49.713 1978 44.4747
49.8304 2068 45.4753
49.9479 2068 45.4753
50.0653 2033 45.0888
50.1827 2050 45.2769
50.3001 1988 44.587
50.4175 1683 41.0244
50.5348 1544 39.2938
50.6521 1636 40.4475
50.7694 1841 42.9069
50.8867 2063 45.4203
51.004 2107 45.9021
51.1212 2137 46.2277
51.2384 2080 45.607
51.3556 2200 46.9042
51.4727 2055 45.3321
51.5899 2104 45.8694
51.707 1967 44.3509
51.824 1954 44.2041
51.9411 1943 44.0795
52.0581 2005 44.7772
52.175 1969 44.3734
52.2919 1921 43.8292
52.4088 1792 42.332
52.5257 1881 43.3705
52.6425 1859 43.1161
52.7593 1829 42.7668
52.876 1829 42.7668
52.9927 1848 42.9884
53.1094 1802 42.45
53.226 1911 43.715
53.3426 1826 42.7317
53.4591 1830 42.7785
53.5756 1652 40.6448
53.692 1456 38.1576
53.8084 1278 35.7491
53.9248 1221 34.9428
54.0411 1069 32.6956
54.1573 1025 32.0156
54.2735 0 1
54.3896 0 1
54.5057 0 1
54.6217 0 1
54.7377 0 1
54.8537 0 1
54.9695 0 1
55.0853 0 1
55.2011 0 1
55.3168 0 1
55.4324 0 1
57.824 0 1
57.9396 0 1
58.0553 0 1
58.1711 0 1
58.2869 0 1
58.4028 0 1
58.5187 0 1
58.6347 0 1
58.7508 0 1
58.8669 0 1
58.983 1688 41.0853
59.0992 1788 42.2847
59.2155 1686 41.0609
59.3318 1778 42.1663
59.4482 1993 44.643
59.5646 2242 47.3498
59.681 2318 48.1456
59.7975 2448 49.4773
59.9141 2458 49.5782
60.0306 2388 48.8672
60.1473 2366 48.6415
60.2639 2431 49.3052
60.3807 2433 49.3254
60.4974 2283 47.7807
60.6142 2496 49.96
60.731 2336 48.3322
60.8479 2399 48.9796
60.9648 2409 49.0816
61.0818 2411 49.1019
61.1987 2394 48.9285
61.3158 2269 47.634
61.4328 2364 48.621
61.5499 2306 48.0208
61.667 2315 48.1144
61.7841 2273 47.676
61.9013 2403 49.0204
62.0185 2407 49.0612
62.1357 2399 48.9796
62.253 2436 49.3559
62.3702 2445 49.4469
62.4875 2239 47.3181
62.6049 2133 46.1844
62.7222 2055 45.3321
62.8396 2186 46.7547
62.9569 2363 48.6107
63.0743 2547 50.4678
63.1918 2541 50.4083
63.3092 2557 50.5668
63.4267 2482 49.8197
63.5441 2464 49.6387
63.6616 2524 50.2394
63.7791 2499 49.99
63.8966 2451 49.5076
64.0142 2411 49.1019
64.1317 2493 49.93
64.2492 2431 49.3052
64.3668 2460 49.5984
64.4843 2400 48.9898
64.6019 2420 49.1935
64.7195 2301 47.9687
64.837 2477 49.7695
64.9546 2336 48.3322
65.0722 2301 47.9687
65.1898 2276 47.7074
65.3074 2344 48.4149
65.4249 2315 48.1144
65.5425 2358 48.5592
65.6601 2327 48.239
65.7777 2411 49.1019
65.8952 2301 47.9687
66.0128 2271 47.655
66.1304 2100 45.8258
66.2479 1920 43.8178
66.3655 2035 45.111
66.483 2204 46.9468
66.6005 2328 48.2494
66.718 2442 49.4166
66.8355 2408 49.0714
66.953 2464 49.6387
67.0705 2447 49.4672
67.1879 2469 49.689
67.3054 2419 49.1833
67.4228 2414 49.1325
67.5402 2424 49.2341
67.6576 2443 49.4267
67.7749 2331 48.2804
67.8923 2489 49.8899
68.0096 2353 48.5077
68.1269 2393 48.9183
68.2442 2353 48.5077
68.3614 2329 48.2597
68.4787 2351 48.4871
68.5958 2268 47.6235
68.713 2196 46.8615
68.8302 2179 46.6798
68.9473 2165 46.5296
69.0643 2266 47.6025
69.1814 2162 46.4973
69.2984 2371 48.6929
69.4154 2310 48.0625
69.5323 2323 48.1975
69.6492 2096 45.7821
69.7661 1913 43.7379
69.8829 1751 41.845
69.9997 1909 43.6921
70.1165 2021 44.9555
70.2332 2062 45.4093
70.3499 1904 43.6348
70.4665 1748 41.8091
70.5831 1585 39.8121
70.6996 1622 40.2741
70.8161 1611 40.1373
70.9326 1424 37.7359
71.049 1401 37.4299
71.1653 1376 37.0945
71.2817 1238 35.1852
71.3979 1236 35.1568
71.5141 1255 35.426
71.6303 1185 34.4238
71.7464 1106 33.2566
71.8624 0 1
71.9784 0 1
72.0944 0 1
72.2102 0 1
72.3261 0 1
72.4418 0 1
72.5575 0 1
72.6732 0 1
75.1054 0 1
75.2209 0 1
75.3365 0 1
75.4521 0 1
75.5678 0 1
75.6835 0 1
75.7993 0 1
75.9151 0 1
76.031 0 1
76.147 1857 43.0929
76.263 2024 44.9889
76.3791 2140 46.2601
76.4952 2122 46.0652
76.6113 2141 46.2709
76.7276 2169 46.5725
76.8438 2207 46.9787
76.9601 2234 47.2652
77.0765 2274 47.6865
77.1929 2336 48.3322
77.3093 2166 46.5403
77.4258 2283 47.7807
77.5423 2182 46.7119
77.6589 2115 45.9891
77.7755 2145 46.3141
77.8921 2135 46.2061
78.0088 2119 46.0326
78.1256 2198 46.8828
78.2423 2230 47.2229
78.3591 2257 47.5079
78.4759 2231 47.2335
78.5928 2162 46.4973
78.7097 1935 43.9886
78.8266 1701 41.2432
78.9436 1432 37.8418
79.0606 1688 41.0853
79.1776 1979 44.486
79.2946 2184 46.7333
79.4117 2306 48.0208
79.5288 2286 47.8121
79.6459 2317 48.1352
79.7631 2298 47.9375
79.8802 2195 46.8508
79.9974 2276 47.7074
80.1147 2389 48.8774
80.2319 2318 48.1456
80.3491 2274 47.6865
80.4664 2304 48
80.5837 2264 47.5815
80.701 2310 48.0625
80.8183 2516 50.1597
80.9357 2358 48.5592
81.053 2386 48.8467
81.1704 2360 48.5798
81.2877 2307 48.0312
81.4051 2243 47.3603
81.5225 2244 47.3709
81.6399 2367 48.6518
81.7573 2415 49.1426
81.8747 2425 49.2443
81.9922 2501 50.01
82.1096 2632 51.303
82.227 2716 52.1153
82.3444 2424 49.2341
82.4619 2206 46.9681
82.5793 2082 45.6289
82.6967 2122 46.0652
82.8142 2662 51.5946
82.9316 3145 56.0803
83.049 3411 58.4038
83.1664 3462 58.8388
83.2838 3753 61.2617
83.4012 3841 61.9758
83.5186 3910 62.53
83.636 3953 62.8729
83.7534 3934 62.7216
83.8708 4130 64.2651
83.9881 4165 64.5368
84.1055 4220 64.9615
84.2228 4221 64.9692
84.3401 4292 65.5134
84.4575 4318 65.7115
84.5747 4410 66.4078
84.692 4329 65.7951
84.8093 4329 65.7951
84.9265 4212 64.8999
85.0437 4181 64.6607
85.1609 4077 63.8514
85.2781 4122 64.2028
85.3952 4219 64.9538
85.5123 4175 64.6142
85.6294 4196 64.7765
85.7465 4095 63.9922
85.8636 3720 60.9918
85.9806 3106 55.7315
86.0976 2822 53.1225
86.2145 2714 52.0961
86.3315 2988 54.6626
86.4484 3757 61.2944
86.5652 3916 62.578
86.682 4237 65.0922
86.7988 4073 63.8201
86.9156 4104 64.0625
87.0323 4248 65.1767
87.149 4057 63.6946
87.2657 3997 63.2218
87.3823 4078 63.8592
87.4988 3876 62.2575
87.6154 3611 60.0916
87.7318 3267 57.1577
87.8483 3065 55.3624
87.9647 3032 55.0636
88.081 2853 53.4135
88.1973 2853 53.4135
88.3136 2729 52.2398
88.4298 2682 51.788
88.546 2491 49.9099
88.6621 2358 48.5592
88.7781 2383 48.816
88.8942 0 1
89.0101 0 1
89.126 0 1
89.2419 0 1
89.3577 0 1
89.4734 0 1
89.5891 0 1
89.7047 0 1
89.8203 0 1
89.9358 0 1
92.3269 0 1
92.4424 0 1
92.558 0 1
92.6736 0 1
92.7893 0 1
92.905 0 1
93.0208 0 1
93.1366 0 1
93.2525 0 1
93.3685 0 1
93.4845 0 1
93.6005 4366 66.0757
93.7167 4208 64.8691
93.8328 4372 66.1211
93.949 4255 65.2304
94.0653 4326 65.7723
94.1816 4147 64.3972
94.2979 4130 64.2651
94.4143 4268 65.3299
94.5307 4188 64.7148
94.6472 4207 64.8614
94.7637 4061 63.726
94.8803 3731 61.0819
94.9969 3206 56.6216
95.1135 2998 54.754
95.2302 3170 56.3028
95.3469 3735 61.1146
95.4637 4160 64.4981
95.5805 4326 65.7723
95.6973 4411 66.4154
95.8142 4277 65.3988
95.9311 4399 66.325
96.048 4369 66.0984
96.1649 4462 66.7982
96.2819 4325 65.7647
96.3989 4387 66.2344
96.516 4529 67.2978
96.633 4571 67.6092
96.7501 4555 67.4907
96.8673 4436 66.6033
96.9844 4602 67.838
97.1016 4673 68.3593
97.2188 4599 67.8159
97.336 4531 67.3127
97.4532 4504 67.1118
97.5704 4278 65.4064
97.6877 4296 65.5439
97.805 4495 67.0448
97.9223 4402 66.3476
98.0396 4336 65.8483
98.1569 4345 65.9166
98.2743 4298 65.5591
98.3916 3952 62.8649
98.509 3332 57.7235
98.6264 3103 55.7046
98.7438 3118 55.8391
98.8612 3529 59.4054
98.9786 4073 63.8201
99.096 4221 64.9692
99.2134 4219 64.9538
99.3308 4128 64.2495
99.4482 4024 63.435
99.5656 3977 63.0635
99.6831 3801 61.6523
99.8005 3834 61.9193
99.9179 3716 60.959
100.035 3567 59.7244
100.153 3549 59.5735
100.27 3454 58.7707
100.388 3475 58.9491
100.505 3522 59.3464
100.622 3449 58.7282
100.74 3347 57.8533
100.857 3303 57.4717
100.975 3105 55.7225
101.092 3150 56.1249
101.209 3076 55.4617
101.327 3043 55.1634
101.444 2949 54.3047
101.561 2989 54.6717
101.679 3024 54.9909
101.796 2919 54.0278
101.913 2868 53.5537
102.03 2636 51.342
102.148 2336 48.3322
102.265 2117 46.0109
102.382 2313 48.0937
102.499 2611 51.0979
102.616 2800 52.915
102.733 2708 52.0384
102.851 2780 52.7257
102.968 2824 53.1413
103.085 2783 52.7541
103.202 2811 53.0189
103.319 2677 51.7397
103.436 2818 53.0848
103.552 2656 51.5364
103.669 2729 52.2398
103.786 2630 51.2835
103.903 2741 52.3546
104.02 2791 52.8299
104.137 2783 52.7541
104.253 2795 52.8678
104.37 2713 52.0865
104.487 2776 52.6878
104.603 2604 51.0294
104.72 2536 50.3587
104.836 2435 49.3457
104.953 2113 45.9674
105.069 1917 43.7836
105.186 1738 41.6893
105.302 1683 41.0244
105.418 1492 38.6264
105.535 1423 37.7227
105.651 1193 34.5398
105.767 1006 31.7175
105.883 874 29.5635
105.999 850 29.1548
106.115 0 1
106.231 0 1
106.347 0 1
106.463 0 1
106.579 0 1
106.694 0 1
106.81 0 1
106.926 0 1
107.041 0 1
107.157 0 1
109.576 0 1
109.692 0 1
109.807 0 1
109.923 0 1
110.039 0 1
110.155 0 1
110.27 0 1
110.386 0 1
110.502 0 1
110.618 2720 52.1536
110.735 2859 53.4696
110.851 2599 50.9804
110.967 2426 49.2544
111.083 2386 48.8467
111.199 2566 50.6557
111.316 2796 52.8772
111.432 2966 54.461
111.549 2987 54.6535
111.665 3148 56.107
111.782 3009 54.8544
111.898 2983 54.6168
112.015 3035 55.0908
112.132 2987 54.6535
112.248 3045 55.1815
112.365 2989 54.6717
112.482 3001 54.7814
112.599 3130 55.9464
112.716 3220 56.745
112.832 3167 56.2761
112.949 3292 57.376
113.066 3316 57.5847
113.183 3441 58.66
113.3 3291 57.3672
113.417 3269 57.1752
113.534 3365 58.0086
113.652 3297 57.4195
113.769 3275 57.2276
113.886 3328 57.6888
114.003 3279 57.2626
114.12 3468 58.8897
114.238 3268 57.1664
114.355 2975 54.5436
114.472 2597 50.9608
114.589 2565 50.6458
114.707 2624 51.225
114.824 2733 52.2781
114.942 3112 55.7853
115.059 3136 56
115.176 3080 55.4977
115.294 3074 55.4437
115.411 3116 55.8211
115.529 3154 56.1605
115.646 3084 55.5338
115.764 3028 55.0273
115.881 3003 54.7996
115.999 3091 55.5968
116.116 3050 55.2268
116.234 3230 56.8331
116.351 3268 57.1664
116.469 3241 56.9298
116.586 3407 58.3695
116.704 3248 56.9912
116.821 3454 58.7707
116.939 3388 58.2065
117.056 3501 59.1692
117.174 3391 58.2323
117.291 3293 57.3847
117.409 3316 57.5847
117.526 3357 57.9396
117.644 3410 58.3952
117.761 3288 57.3411
117.879 3246 56.9737
117.996 2873 53.6004
118.114 2670 51.672
118.231 2603 51.0196
118.349 2829 53.1883
118.466 3051 55.2359
118.584 3165 56.2583
118.701 3139 56.0268
118.819 3178 56.3738
118.936 3047 55.1996
119.053 2995 54.7266
119.171 3052 55.2449
119.288 2977 54.5619
119.405 3017 54.9272
119.523 3010 54.8635
119.64 2882 53.6843
119.757 2908 53.9259
119.875 3014 54.8999
119.992 3020 54.9545
120.109 3025 55
120.226 3157 56.1872
120.343 3207 56.6304
120.46 3233 56.8595
120.578 3223 56.7715
120.695 3152 56.1427
120.812 3080 55.4977
120.929 3151 56.1338
121.046 3039 55.1271
121.163 3062 55.3353
121.279 3060 55.3173
121.396 3133 55.9732
121.513 2931 54.1387
121.63 2673 51.7011
121.747 2396 48.949
121.863 2132 46.1736
121.98 2105 45.8803
122.097 2104 45.8694
122.213 2198 46.8828
122.33 2172 46.6047
122.446 2101 45.8367
122.563 2099 45.8148
122.679 2000 44.7214
122.795 1903 43.6234
122.912 1850 43.0116
123.028 1833 42.8135
123.144 1839 42.8836
123.26 1815 42.6028
123.377 0 1
123.493 0 1
123.609 0 1
123.725 0 1
123.84 0 1
123.956 0 1
124.072 0 1
124.188 0 1
124.303 0 1
124.419 0 1
126.852 0 1
126.968 0 1
127.083 0 1
127.199 0 1
127.315 0 1
127.431 0 1
127.547 0 1
127.663 0 1
127.779 0 1
127.895 0 1
128.011 0 1
128.127 0 1
128.243 0 1
128.359 3510 59.2453
128.476 3557 59.6406
128.592 3433 58.5918
128.708 3585 59.8749
128.825 3448 58.7197
128.941 3579 59.8247
129.058 3624 60.1997
129.174 3739 61.1474
129.291 3831 61.8951
129.408 3802 61.6604
129.524 4028 63.4665
129.641 4044 63.5925
129.758 4024 63.435
129.875 4265 65.307
129.992 4209 64.8768
130.108 4270 65.3452
130.225 4304 65.6049
130.342 4236 65.0846
130.459 4133 64.2884
130.576 4137 64.3195
130.693 3705 60.8687
130.81 3680 60.663
130.928 3718 60.9754
131.045 3833 61.9112
131.162 4024 63.435
131.279 4053 63.6632
131.396 4025 63.4429
131.513 4106 64.0781
131.631 4074 63.8279
131.748 4041 63.5689
131.865 4032 63.498
131.983 3957 62.9047
132.1 3978 63.0714
132.217 3877 62.2656
132.335 4014 63.3561
132.452 3895 62.4099
132.57 3931 62.6977
132.687 3799 61.636
132.804 4061 63.726
132.922 4001 63.2535
133.039 4024 63.435
133.157 4043 63.5846
133.274 4162 64.5136
133.392 4204 64.8383
133.509 4443 66.6558
133.627 4495 67.0448
133.744 4453 66.7308
133.862 4433 66.5808
133.979 4402 66.3476
134.097 4414 66.4379
134.214 4221 64.9692
134.332 4200 64.8074
134.449 4189 64.7225
134.567 4276 65.3911
134.684 4256 65.238
134.802 4404 66.3626
134.919 4425 66.5207
135.037 4448 66.6933
135.154 4474 66.888
135.272 4312 65.6658
135.389 4328 65.7875
135.507 4275 65.3835
135.624 4222 64.9769
135.742 4075 63.8357
135.859 4190 64.7302
135.977 4100 64.0312
136.094 3966 62.9762
136.211 4090 63.9531
136.329 4175 64.6142
136.446 4240 65.1153
136.564 4159 64.4903
136.681 4088 63.9375
136.798 4306 65.6201
136.915 4289 65.4905
137.033 4218 64.9461
137.15 4366 66.0757
137.267 4295 65.5362
137.384 4240 65.1153
137.502 4401 66.34
137.619 4405 66.3702
137.736 4218 64.9461
137.853 3973 63.0317
137.97 3865 62.1691
138.087 3860 62.1289
138.204 4061 63.726
138.321 4118 64.1716
138.438 4145 64.3817
138.555 4230 65.0385
138.672 4154 64.4515
138.788 4211 64.8922
138.905 4078 63.8592
139.022 3905 62.49
139.139 3714 60.9426
139.255 3600 60
139.372 3421 58.4893
139.488 3243 56.9473
139.605 3232 56.8507
139.721 3076 55.4617
139.838 3052 55.2449
139.954 3014 54.8999
140.071 2896 53.8145
140.187 2893 53.7866
140.303 2890 53.7587
140.419 2860 53.479
140.535 2989 54.6717
140.652 2951 54.3231
140.768 0 1
140.884 0 1
141 0 1
141.115 0 1
141.231 0 1
141.347 0 1
141.463 0 1
141.578 0 1
141.694 0 1
144.104 0 1
144.219 0 1
144.335 0 1
144.45 0 1
144.566 0 1
144.682 0 1
144.798 0 1
144.914 0 1
145.03 0 1
145.146 8104 90.0222
145.262 8675 93.1397
145.378 8685 93.1933
145.494 8765 93.6216
145.61 8794 93.7763
145.726 8786 93.7337
145.842 8738 93.4773
145.959 8816 93.8936
146.075 9075 95.2628
146.192 9025 95
146.308 8750 93.5414
146.425 8605 92.7631
146.541 7731 87.9261
146.658 6834 82.668
146.774 5833 76.3741
146.891 5818 76.2758
147.008 6425 80.1561
147.125 7649 87.4586
147.241 8224 90.6863
147.358 8468 92.0217
147.475 8845 94.0479
147.592 8827 93.9521
147.709 8819 93.9095
147.826 8902 94.3504
147.943 8715 93.3542
148.06 8758 93.5842
148.177 8757 93.5788
148.294 8791 93.7603
148.411 8639 92.9462
148.528 8942 94.5621
148.645 8856 94.1063
148.762 8860 94.1276
148.88 8849 94.0691
148.997 8660 93.0591
149.114 9189 95.8593
149.231 9044 95.0999
149.349 9155 95.6818
149.466 8933 94.5145
149.583 8995 94.842
149.701 8852 94.0851
149.818 9246 96.1561
149.935 9148 95.6452
150.053 9065 95.2103
150.17 8530 92.358
150.287 7690 87.6926
150.405 6585 81.148
150.522 5944 77.0973
150.64 6413 80.0812
150.757 7555 86.9195
150.875 8447 91.9076
150.992 8900 94.3398
151.11 8682 93.1773
151.227 8604 92.7577
151.344 8677 93.1504
151.462 8583 92.6445
151.579 8626 92.8763
151.697 8721 93.3863
151.814 8844 94.0425
151.932 8649 93
152.049 8733 93.4505
152.167 8944 94.5727
152.284 8754 93.5628
152.402 8877 94.2178
152.519 9025 95
152.636 9100 95.3939
152.754 9000 94.8683
152.871 9117 95.483
152.989 9224 96.0417
153.106 9057 95.1683
153.223 9219 96.0156
153.341 9453 97.2265
153.458 9271 96.286
153.575 9453 97.2265
153.693 9253 96.1925
153.81 8639 92.9462
153.927 8040 89.666
154.044 6759 82.2131
154.162 6246 79.0316
154.279 6793 82.4197
154.396 7743 87.9943
154.513 8651 93.0108
154.63 9079 95.2838
154.747 9309 96.4832
154.864 8886 94.2656
154.981 8890 94.2868
155.098 8812 93.8723
155.215 8767 93.6323
155.332 8620 92.844
155.449 8331 91.2743
155.566 8147 90.2607
155.683 8160 90.3327
155.8 7924 89.0169
155.917 7831 88.4929
156.033 7641 87.4128
156.15 0 1
156.267 0 1
156.383 0 1
156.5 0 1
156.617 0 1
156.733 0 1
156.85 0 1
156.966 0 1
157.082 0 1
157.199 0 1
157.315 0 1
157.431 0 1
157.547 0 1
157.664 0 1
157.78 0 1
157.896 0 1
158.012 0 1
158.128 0 1
158.244 0 1
158.359 0 1
158.475 0 1
158.591 0 1
158.706 0 1
