
6.15755 0 1
6.2731 0 1
6.3887 0 1
6.50437 0 1
6.62009 0 1
6.73587 0 1
6.8517 0 1
6.96759 0 1
7.08353 0 1
7.19952 0 1
7.31557 0 1
7.43166 0 1
7.54781 0 1
7.664 0 1
7.78024 0 1
7.89653 0 1
8.01286 0 1
8.12924 0 1
8.24567 0 1
8.36213 0 1
8.47864 0 1
8.59519 0 1
8.71178 0 1
8.82841 0 1
8.94508 0 1
9.06179 0 1
9.17853 0 1
9.29531 0 1
9.41212 0 1
9.52897 0 1
9.64584 0 1
9.76276 0 1
9.8797 0 1
9.99667 0 1
10.1137 0 1
10.2307 0 1
10.3478 0 1
10.4648 0 1
10.5819 0 1
10.6991 0 1
10.8162 0 1
10.9334 0 1
11.0506 0 1
11.1678 0 1
11.285 0 1
11.4023 0 1
11.5196 0 1
11.6369 0 1
11.7542 0 1
11.8715 0 1
11.9888 0 1
12.1062 0 1
12.2235 0 1
12.3409 0 1
12.4582 0 1
12.5756 0 1
12.693 0 1
12.8104 0 1
12.9278 0 1
13.0452 0 1
13.1626 0 1
13.28 0 1
13.3974 0 1
13.5149 0 1
13.6323 0 1
13.7497 0 1
13.8671 0 1
13.9845 0 1
14.1019 0 1
14.2193 0 1
14.3367 0 1
14.4541 0 1
14.5714 0 1
14.6888 0 1
14.8062 0 1
14.9235 0 1
15.0408 2295 47.9062
15.1581 2403 49.0204
15.2755 2496 49.96
15.3927 2416 49.1528
15.51 2479 49.7896
15.6273 2446 49.4571
15.7445 2408 49.0714
15.8617 2228 47.2017
15.9789 2240 47.3286
16.0961 2219 47.1063
16.2132 2255 47.4868
16.3304 2327 48.239
16.4475 2265 47.592
16.5646 2251 47.4447
16.6816 2222 47.1381
16.7986 2142 46.2817
16.9156 2117 46.0109
17.0326 2103 45.8585
17.1496 2052 45.299
17.2665 2019 44.9333
17.3833 1852 43.0349
17.5002 2008 44.8107
17.617 1927 43.8976
17.7338 1990 44.6094
17.8505 2104 45.8694
17.9672 2215 47.0638
18.0839 2254 47.4763
18.2005 2349 48.4665
18.3171 2350 48.4768
18.4337 2377 48.7545
18.5502 2454 49.5379
18.6666 2460 49.5984
18.7831 2508 50.0799
18.8994 2334 48.3115
19.0158 2282 47.7703
19.1321 2208 46.9894
19.2483 2185 46.744
19.3645 2087 45.6837
19.4806 1986 44.5646
19.5967 2002 44.7437
19.7128 1915 43.7607
19.8288 1945 44.1022
19.9447 1811 42.5558
20.0606 0 1
20.1764 0 1
20.2922 0 1
20.4079 0 1
20.5236 0 1
20.6392 0 1
20.7548 0 1
20.8702 0 1
23.3078 0 1
23.4233 0 1
23.539 0 1
23.6547 0 1
23.7704 0 1
23.8862 0 1
24.0021 0 1
24.118 0 1
24.234 0 1
24.35 0 1
24.4661 1913 43.7379
24.5822 1958 44.2493
24.6984 1886 43.4281
24.8146 1909 43.6921
24.9309 2023 44.9778
25.0472 2050 45.2769
25.1636 2109 45.9239
25.28 2090 45.7165
25.3965 2099 45.8148
25.513 2207 46.9787
25.6296 2208 46.9894
25.7462 2182 46.7119
25.8628 2012 44.8553
25.9795 2082 45.6289
26.0962 1976 44.4522
26.213 1955 44.2154
26.3298 1869 43.2319
26.4466 1939 44.0341
26.5635 1919 43.8064
26.6804 2100 45.8258
26.7973 2032 45.0777
26.9143 2063 45.4203
27.0313 2177 46.6583
27.1483 2118 46.0217
27.2653 2159 46.465
27.3824 2209 47
27.4996 2229 47.2123
27.6167 2213 47.0425
27.7339 2099 45.8148
27.8511 2013 44.8665
27.9683 2102 45.8476
28.0855 1964 44.317
28.2028 1933 43.9659
28.3201 1871 43.2551
28.4374 1823 42.6966
28.5547 1935 43.9886
28.6721 2006 44.7884
28.7894 2076 45.5631
28.9068 1976 44.4522
29.0242 1931 43.9431
29.1416 1953 44.1928
29.259 1953 44.1928
29.3764 1851 43.0232
29.4939 1873 43.2782
29.6113 1785 42.2493
29.7288 1783 42.2256
29.8463 1798 42.4028
29.9638 1787 42.2729
30.0812 1854 43.0581
30.1987 1808 42.5206
30.3162 1861 43.1393
30.4337 1980 44.4972
30.5512 1985 44.5533
30.6687 2034 45.0999
30.7862 2171 46.594
30.9037 2096 45.7821
31.0212 2078 45.5851
31.1387 2163 46.5081
31.2562 2085 45.6618
31.3737 2055 45.3321
31.4912 1979 44.486
31.6087 2009 44.8219
31.7262 1883 43.3935
31.8436 1889 43.4626
31.9611 1850 43.0116
32.0785 1872 43.2666
32.1959 1849 43
32.3134 1985 44.5533
32.4308 1952 44.1814
32.5482 1908 43.6807
32.6655 1944 44.0908
32.7829 1966 44.3396
32.9002 1906 43.6578
33.0176 1823 42.6966
33.1349 1871 43.2551
33.2522 1907 43.6692
33.3694 1745 41.7732
33.4867 1737 41.6773
33.6039 1737 41.6773
33.7211 1766 42.0238
33.8383 1929 43.9204
33.9554 1903 43.6234
34.0725 1823 42.6966
34.1896 1972 44.4072
34.3067 1980 44.4972
34.4237 2002 44.7437
34.5407 2072 45.5192
34.6577 2072 45.5192
34.7746 2037 45.1331
34.8915 1996 44.6766
35.0084 2032 45.0777
35.1252 1892 43.4971
35.242 1975 44.441
35.3587 1909 43.6921
35.4755 1885 43.4166
35.5921 1779 42.1782
35.7088 1776 42.1426
35.8254 1861 43.1393
35.9419 1893 43.5086
36.0584 1937 44.0114
36.1749 1882 43.382
36.2913 1887 43.4396
36.4077 1918 43.795
36.524 1788 42.2847
36.6403 1853 43.0465
36.7565 1765 42.0119
36.8727 1764 42
36.9889 1660 40.7431
37.1049 1643 40.5339
37.221 0 1
37.3369 0 1
37.4529 0 1
37.5687 0 1
37.6845 0 1
37.8003 0 1
37.916 0 1
38.0316 0 1
38.1472 0 1
40.5851 0 1
40.7008 0 1
40.8164 0 1
40.9322 0 1
41.048 0 1
41.1639 0 1
41.2798 0 1
41.3958 0 1
41.5118 0 1
41.6279 0 1
41.744 1416 37.6298
41.8602 1495 38.6652
41.9765 1434 37.8682
42.0928 1480 38.4708
42.2091 1481 38.4838
42.3255 1354 36.7967
42.4419 1391 37.2961
42.5584 1414 37.6032
42.675 1452 38.1051
42.7915 1524 39.0384
42.9081 1559 39.4842
43.0248 1530 39.1152
43.1415 1565 39.5601
43.2582 1591 39.8873
43.375 1533 39.1535
43.4918 1515 38.923
43.6087 1646 40.5709
43.7256 1549 39.3573
43.8425 1578 39.724
43.9595 1553 39.4081
44.0765 1526 39.064
44.1935 1427 37.7757
44.3106 1377 37.108
44.4277 1320 36.3318
44.5448 1228 35.0428
44.6619 1261 35.5106
44.7791 1356 36.8239
44.8963 1370 37.0135
45.0136 1282 35.805
45.1308 1292 35.9444
45.2481 1277 35.7351
45.3654 1247 35.3129
45.4827 1225 35
45.6001 1161 34.0735
45.7174 1182 34.3802
45.8348 1135 33.6898
45.9522 1085 32.9393
46.0697 1119 33.4515
46.1871 1129 33.6006
46.3046 1175 34.2783
46.422 1200 34.641
46.5395 1202 34.6699
46.657 1200 34.641
46.7745 1170 34.2053
46.892 1189 34.4819
47.0096 1224 34.9857
47.1271 1229 35.0571
47.2446 1227 35.0286
47.3622 1209 34.7707
47.4797 1165 34.1321
47.5973 1098 33.1361
47.7149 1159 34.0441
47.8324 1125 33.541
47.95 1029 32.078
48.0675 1044 32.311
48.1851 966 31.0805
48.3027 993 31.5119
48.4202 1017 31.8904
48.5378 1079 32.8481
48.6554 1056 32.4962
48.7729 1002 31.6544
48.8904 1038 32.218
49.008 1033 32.1403
49.1255 1051 32.4191
49.243 1042 32.28
49.3605 1005 31.7017
49.478 968 31.1127
49.5955 1007 31.7333
49.713 1022 31.9687
49.8304 1040 32.249
49.9479 1019 31.9218
50.0653 1145 33.8378
50.1827 1206 34.7275
50.3001 1227 35.0286
50.4175 1176 34.2929
50.5348 1252 35.3836
50.6521 1285 35.8469
50.7694 1295 35.9861
50.8867 1299 36.0416
51.004 1343 36.647
51.1212 1425 37.7492
51.2384 1341 36.6197
51.3556 1297 36.0139
51.4727 1278 35.7491
51.5899 1345 36.6742
51.707 1327 36.428
51.824 1339 36.5923
51.9411 1503 38.7685
52.0581 1478 38.4448
52.175 1470 38.3406
52.2919 1505 38.7943
52.4088 1456 38.1576
52.5257 1557 39.4588
52.6425 1436 37.8946
52.7593 1379 37.1349
52.876 1542 39.2683
52.9927 1467 38.3014
53.1094 1483 38.5097
53.226 1475 38.4057
53.3426 1498 38.704
53.4591 1651 40.6325
53.5756 1645 40.5586
53.692 1689 41.0974
53.8084 1808 42.5206
53.9248 1690 41.1096
54.0411 1819 42.6497
54.1573 1767 42.0357
54.2735 0 1
54.3896 0 1
54.5057 0 1
54.6217 0 1
54.7377 0 1
54.8537 0 1
54.9695 0 1
55.0853 0 1
55.2011 0 1
55.3168 0 1
55.4324 0 1
57.824 0 1
57.9396 0 1
58.0553 0 1
58.1711 0 1
58.2869 0 1
58.4028 0 1
58.5187 0 1
58.6347 0 1
58.7508 0 1
58.8669 0 1
58.983 2099 45.8148
59.0992 2239 47.3181
59.2155 2314 48.1041
59.3318 2335 48.3218
59.4482 2259 47.5289
59.5646 2340 48.3735
59.681 2374 48.7237
59.7975 2185 46.744
59.9141 2348 48.4562
60.0306 2245 47.3814
60.1473 2274 47.6865
60.2639 2113 45.9674
60.3807 2035 45.111
60.4974 2080 45.607
60.6142 2059 45.3762
60.731 2016 44.8999
60.8479 2146 46.3249
60.9648 2108 45.913
61.0818 2172 46.6047
61.1987 2102 45.8476
61.3158 2127 46.1194
61.4328 2093 45.7493
61.5499 2034 45.0999
61.667 1988 44.587
61.7841 1929 43.9204
61.9013 1892 43.4971
62.0185 1895 43.5316
62.1357 1986 44.5646
62.253 2030 45.0555
62.3702 1989 44.5982
62.4875 2077 45.5741
62.6049 2081 45.618
62.7222 2095 45.7712
62.8396 2098 45.8039
62.9569 2176 46.6476
63.0743 2055 45.3321
63.1918 2155 46.422
63.3092 2173 46.6154
63.4267 2013 44.8665
63.5441 2033 45.0888
63.6616 1946 44.1135
63.7791 1908 43.6807
63.8966 1856 43.0813
64.0142 1836 42.8486
64.1317 1785 42.2493
64.2492 1902 43.6119
64.3668 1918 43.795
64.4843 2004 44.7661
64.6019 1950 44.1588
64.7195 1941 44.0568
64.837 1879 43.3474
64.9546 1863 43.1625
65.0722 1917 43.7836
65.1898 1841 42.9069
65.3074 1773 42.107
65.4249 1781 42.2019
65.5425 1727 41.5572
65.6601 1688 41.0853
65.7777 1821 42.6732
65.8952 1866 43.1972
66.0128 1956 44.2267
66.1304 1861 43.1393
66.2479 1941 44.0568
66.3655 2019 44.9333
66.483 1955 44.2154
66.6005 2037 45.1331
66.718 2072 45.5192
66.8355 2033 45.0888
66.953 2026 45.0111
67.0705 1946 44.1135
67.1879 1981 44.5084
67.3054 1946 44.1135
67.4228 2041 45.1774
67.5402 1893 43.5086
67.6576 1744 41.7612
67.7749 1717 41.4367
67.8923 1836 42.8486
68.0096 2061 45.3982
68.1269 2013 44.8665
68.2442 1979 44.486
68.3614 2040 45.1664
68.4787 2035 45.111
68.5958 2035 45.111
68.713 2119 46.0326
68.8302 1896 43.5431
68.9473 1977 44.4635
69.0643 1952 44.1814
69.1814 1874 43.2897
69.2984 1916 43.7721
69.4154 1956 44.2267
69.5323 1958 44.2493
69.6492 2000 44.7214
69.7661 2066 45.4533
69.8829 2024 44.9889
69.9997 2104 45.8694
70.1165 2091 45.7275
70.2332 2196 46.8615
70.3499 2287 47.8226
70.4665 2251 47.4447
70.5831 2277 47.7179
70.6996 2170 46.5833
70.8161 2301 47.9687
70.9326 2202 46.9255
71.049 2131 46.1628
71.1653 2091 45.7275
71.2817 2027 45.0222
71.3979 1876 43.3128
71.5141 1936 44
71.6303 2000 44.7214
71.7464 1872 43.2666
71.8624 0 1
71.9784 0 1
72.0944 0 1
72.2102 0 1
72.3261 0 1
72.4418 0 1
72.5575 0 1
72.6732 0 1
75.1054 0 1
75.2209 0 1
75.3365 0 1
75.4521 0 1
75.5678 0 1
75.6835 0 1
75.7993 0 1
75.9151 0 1
76.031 0 1
76.147 2154 46.4112
76.263 2263 47.571
76.3791 2392 48.9081
76.4952 2080 45.607
76.6113 2081 45.618
76.7276 2102 45.8476
76.8438 2150 46.3681
76.9601 2359 48.5695
77.0765 2307 48.0312
77.1929 2331 48.2804
77.3093 2298 47.9375
77.4258 2209 47
77.5423 2259 47.5289
77.6589 2372 48.7032
77.7755 2188 46.7761
77.8921 2190 46.7974
78.0088 2093 45.7493
78.1256 2164 46.5188
78.2423 2069 45.4863
78.3591 2052 45.299
78.4759 2110 45.9347
78.5928 2186 46.7547
78.7097 2183 46.7226
78.8266 2151 46.3789
78.9436 2253 47.4658
79.0606 2348 48.4562
79.1776 2243 47.3603
79.2946 2340 48.3735
79.4117 2378 48.7647
79.5288 2345 48.4252
79.6459 2297 47.927
79.7631 2264 47.5815
79.8802 2189 46.7868
79.9974 2326 48.2286
80.1147 2230 47.2229
80.2319 2079 45.5961
80.3491 2040 45.1664
80.4664 2005 44.7772
80.5837 2135 46.2061
80.701 2262 47.5605
80.8183 2250 47.4342
80.9357 2166 46.5403
81.053 2117 46.0109
81.1704 2164 46.5188
81.2877 2164 46.5188
81.4051 2215 47.0638
81.5225 2153 46.4004
81.6399 1952 44.1814
81.7573 2128 46.1303
81.8747 1919 43.8064
81.9922 1825 42.72
82.1096 1960 44.2719
82.227 2055 45.3321
82.3444 2040 45.1664
82.4619 2161 46.4866
82.5793 2290 47.8539
82.6967 2156 46.4327
82.8142 2263 47.571
82.9316 2243 47.3603
83.049 2227 47.1911
83.1664 2231 47.2335
83.2838 2254 47.4763
83.4012 2219 47.1063
83.5186 2201 46.9148
83.636 2188 46.7761
83.7534 2085 45.6618
83.8708 2019 44.9333
83.9881 1981 44.5084
84.1055 1986 44.5646
84.2228 2036 45.1221
84.3401 2216 47.0744
84.4575 2257 47.5079
84.5747 2195 46.8508
84.692 2244 47.3709
84.8093 2199 46.8935
84.9265 2335 48.3218
85.0437 2203 46.9361
85.1609 2093 45.7493
85.2781 2106 45.8912
85.3952 2108 45.913
85.5123 1973 44.4185
85.6294 1985 44.5533
85.7465 2094 45.7602
85.8636 2158 46.4543
85.9806 2198 46.8828
86.0976 2281 47.7598
86.2145 2301 47.9687
86.3315 2229 47.2123
86.4484 2471 49.7092
86.5652 2473 49.7293
86.682 2394 48.9285
86.7988 2409 49.0816
86.9156 2362 48.6004
87.0323 2446 49.4571
87.149 2352 48.4974
87.2657 2337 48.3425
87.3823 2254 47.4763
87.4988 2094 45.7602
87.6154 2138 46.2385
87.7318 2199 46.8935
87.8483 2292 47.8748
87.9647 2325 48.2183
88.081 2315 48.1144
88.1973 2263 47.571
88.3136 2245 47.3814
88.4298 2397 48.9592
88.546 2396 48.949
88.6621 2436 49.3559
88.7781 2216 47.0744
88.8942 0 1
89.0101 0 1
89.126 0 1
89.2419 0 1
89.3577 0 1
89.4734 0 1
89.5891 0 1
89.7047 0 1
89.8203 0 1
89.9358 0 1
92.3269 0 1
92.4424 0 1
92.558 0 1
92.6736 0 1
92.7893 0 1
92.905 0 1
93.0208 0 1
93.1366 0 1
93.2525 0 1
93.3685 0 1
93.4845 0 1
93.6005 2255 47.4868
93.7167 2271 47.655
93.8328 2305 48.0104
93.949 2202 46.9255
94.0653 2210 47.0106
94.1816 2152 46.3897
94.2979 2022 44.9667
94.4143 2000 44.7214
94.5307 2013 44.8665
94.6472 1962 44.2945
94.7637 2063 45.4203
94.8803 2119 46.0326
94.9969 2209 47
95.1135 2244 47.3709
95.2302 2202 46.9255
95.3469 2338 48.3529
95.4637 2311 48.0729
95.5805 2322 48.1871
95.6973 2405 49.0408
95.8142 2364 48.621
95.9311 2420 49.1935
96.048 2255 47.4868
96.1649 2382 48.8057
96.2819 2276 47.7074
96.3989 2215 47.0638
96.516 2153 46.4004
96.633 2095 45.7712
96.7501 2034 45.0999
96.8673 2089 45.7056
96.9844 2201 46.9148
97.1016 2243 47.3603
97.2188 2176 46.6476
97.336 2290 47.8539
97.4532 2211 47.0213
97.5704 2242 47.3498
97.6877 2240 47.3286
97.805 2209 47
97.9223 2044 45.2106
98.0396 1957 44.238
98.1569 1990 44.6094
98.2743 1954 44.2041
98.3916 1946 44.1135
98.509 2046 45.2327
98.6264 2185 46.744
98.7438 2207 46.9787
98.8612 2205 46.9574
98.9786 2150 46.3681
99.096 2187 46.7654
99.2134 2189 46.7868
99.3308 2322 48.1871
99.4482 2324 48.2079
99.5656 2233 47.2546
99.6831 2220 47.1169
99.8005 2218 47.0956
99.9179 2138 46.2385
100.035 2086 45.6727
100.153 2141 46.2709
100.27 2051 45.288
100.388 2034 45.0999
100.505 1971 44.3959
100.622 2130 46.1519
100.74 2262 47.5605
100.857 2106 45.8912
100.975 2119 46.0326
101.092 2290 47.8539
101.209 2303 47.9896
101.327 2195 46.8508
101.444 2116 46
101.561 2093 45.7493
101.679 2091 45.7275
101.796 2049 45.2659
101.913 1926 43.8862
102.03 2067 45.4643
102.148 2108 45.913
102.265 1974 44.4297
102.382 2405 49.0408
102.499 2279 47.7389
102.616 2365 48.6313
102.733 2346 48.4355
102.851 2322 48.1871
102.968 2383 48.816
103.085 2298 47.9375
103.202 2363 48.6107
103.319 2343 48.4045
103.436 2434 49.3356
103.552 2302 47.9792
103.669 2259 47.5289
103.786 2109 45.9239
103.903 2091 45.7275
104.02 2176 46.6476
104.137 2278 47.7284
104.253 2348 48.4562
104.37 2309 48.0521
104.487 2376 48.7442
104.603 2379 48.775
104.72 2379 48.775
104.836 2461 49.6085
104.953 2263 47.571
105.069 2231 47.2335
105.186 2154 46.4112
105.302 2076 45.5631
105.418 2029 45.0444
105.535 2169 46.5725
105.651 2337 48.3425
105.767 2379 48.775
105.883 2234 47.2652
105.999 2345 48.4252
106.115 0 1
106.231 0 1
106.347 0 1
106.463 0 1
106.579 0 1
106.694 0 1
106.81 0 1
106.926 0 1
107.041 0 1
107.157 0 1
109.576 0 1
109.692 0 1
109.807 0 1
109.923 0 1
110.039 0 1
110.155 0 1
110.27 0 1
110.386 0 1
110.502 0 1
110.618 1908 43.6807
110.735 2128 46.1303
110.851 2039 45.1553
110.967 2040 45.1664
111.083 2103 45.8585
111.199 2154 46.4112
111.316 2173 46.6154
111.432 2300 47.9583
111.549 2239 47.3181
111.665 2237 47.2969
111.782 2227 47.1911
111.898 2164 46.5188
112.015 2139 46.2493
112.132 1998 44.699
112.248 2007 44.7996
112.365 1872 43.2666
112.482 1864 43.1741
112.599 1887 43.4396
112.716 1899 43.5775
112.832 1952 44.1814
112.949 2031 45.0666
113.066 1936 44
113.183 1978 44.4747
113.3 2035 45.111
113.417 1988 44.587
113.534 1959 44.2606
113.652 1883 43.3935
113.769 1800 42.4264
113.886 1645 40.5586
114.003 1728 41.5692
114.12 1704 41.2795
114.238 1794 42.3556
114.355 1781 42.2019
114.472 1842 42.9185
114.589 1857 43.0929
114.707 1870 43.2435
114.824 1915 43.7607
114.942 1863 43.1625
115.059 1861 43.1393
115.176 1838 42.8719
115.294 1757 41.9166
115.411 1805 42.4853
115.529 1775 42.1307
115.646 1707 41.3159
115.764 1674 40.9145
115.881 1528 39.0896
115.999 1497 38.6911
116.116 1528 39.0896
116.234 1527 39.0768
116.351 1605 40.0625
116.469 1524 39.0384
116.586 1570 39.6232
116.704 1611 40.1373
116.821 1660 40.7431
116.939 1597 39.9625
117.056 1595 39.9375
117.174 1608 40.0999
117.291 1517 38.9487
117.409 1469 38.3275
117.526 1408 37.5233
117.644 1304 36.1109
117.761 1396 37.3631
117.879 1496 38.6782
117.996 1491 38.6135
118.114 1676 40.939
118.231 1655 40.6817
118.349 1618 40.2244
118.466 1656 40.694
118.584 1622 40.2741
118.701 1695 41.1704
118.819 1637 40.4599
118.936 1691 41.1218
119.053 1634 40.4228
119.171 1580 39.7492
119.288 1473 38.3797
119.405 1593 39.9124
119.523 1448 38.0526
119.64 1444 38
119.757 1456 38.1576
119.875 1479 38.4578
119.992 1592 39.8999
120.109 1566 39.5727
120.226 1634 40.4228
120.343 1701 41.2432
120.46 1687 41.0731
120.578 1668 40.8412
120.695 1737 41.6773
120.812 1718 41.4488
120.929 1629 40.3609
121.046 1656 40.694
121.163 1595 39.9375
121.279 1586 39.8246
121.396 1623 40.2865
121.513 1711 41.3642
121.63 1798 42.4028
121.747 1816 42.6146
121.863 1799 42.4146
121.98 1960 44.2719
122.097 1936 44
122.213 1925 43.8748
122.33 2018 44.9222
122.446 1943 44.0795
122.563 1927 43.8976
122.679 1864 43.1741
122.795 1938 44.0227
122.912 1893 43.5086
123.028 1919 43.8064
123.144 1817 42.6263
123.26 1645 40.5586
123.377 0 1
123.493 0 1
123.609 0 1
123.725 0 1
123.84 0 1
123.956 0 1
124.072 0 1
124.188 0 1
124.303 0 1
124.419 0 1
126.852 0 1
126.968 0 1
127.083 0 1
127.199 0 1
127.315 0 1
127.431 0 1
127.547 0 1
127.663 0 1
127.779 0 1
127.895 0 1
128.011 0 1
128.127 0 1
128.243 0 1
128.359 2235 47.2758
128.476 2140 46.2601
128.592 2067 45.4643
128.708 2087 45.6837
128.825 2033 45.0888
128.941 2000 44.7214
129.058 2085 45.6618
129.174 2099 45.8148
129.291 2175 46.6369
129.408 2235 47.2758
129.524 2189 46.7868
129.641 2139 46.2493
129.758 2275 47.697
129.875 2218 47.0956
129.992 2175 46.6369
130.108 2072 45.5192
130.225 1913 43.7379
130.342 1926 43.8862
130.459 1894 43.5201
130.576 2020 44.9444
130.693 2147 46.3357
130.81 2122 46.0652
130.928 2196 46.8615
131.045 2169 46.5725
131.162 2236 47.2864
131.279 2197 46.8722
131.396 2306 48.0208
131.513 2164 46.5188
131.631 2279 47.7389
131.748 2143 46.2925
131.865 2206 46.9681
131.983 2007 44.7996
132.1 2015 44.8888
132.217 1942 44.0681
132.335 1853 43.0465
132.452 1895 43.5316
132.57 1878 43.3359
132.687 1955 44.2154
132.804 2193 46.8295
132.922 2144 46.3033
133.039 2123 46.076
133.157 2201 46.9148
133.274 2222 47.1381
133.392 2135 46.2061
133.509 2119 46.0326
133.627 2023 44.9778
133.744 1824 42.7083
133.862 1878 43.3359
133.979 1831 42.7902
134.097 2005 44.7772
134.214 2004 44.7661
134.332 2051 45.288
134.449 2149 46.3573
134.567 2067 45.4643
134.684 2142 46.2817
134.802 2011 44.8442
134.919 2112 45.9565
135.037 2077 45.5741
135.154 2024 44.9889
135.272 2054 45.3211
135.389 1927 43.8976
135.507 1897 43.5546
135.624 1780 42.19
135.742 1776 42.1426
135.859 1631 40.3856
135.977 1659 40.7308
136.094 1681 41
136.211 1774 42.1189
136.329 1698 41.2068
136.446 1719 41.4608
136.564 1900 43.589
136.681 1808 42.5206
136.798 1818 42.638
136.915 1946 44.1135
137.033 1796 42.3792
137.15 1760 41.9524
137.267 1680 40.9878
137.384 1680 40.9878
137.502 1570 39.6232
137.619 1594 39.9249
137.736 1601 40.0125
137.853 1740 41.7133
137.97 1774 42.1189
138.087 1896 43.5431
138.204 1948 44.1362
138.321 1901 43.6005
138.438 1962 44.2945
138.555 2019 44.9333
138.672 1980 44.4972
138.788 1988 44.587
138.905 1958 44.2493
139.022 1885 43.4166
139.139 1903 43.6234
139.255 1878 43.3359
139.372 1925 43.8748
139.488 1842 42.9185
139.605 1860 43.1277
139.721 1887 43.4396
139.838 1880 43.359
139.954 1921 43.8292
140.071 2055 45.3321
140.187 2154 46.4112
140.303 2069 45.4863
140.419 2075 45.5522
140.535 2093 45.7493
140.652 2226 47.1805
140.768 0 1
140.884 0 1
141 0 1
141.115 0 1
141.231 0 1
141.347 0 1
141.463 0 1
141.578 0 1
141.694 0 1
144.104 0 1
144.219 0 1
144.335 0 1
144.45 0 1
144.566 0 1
144.682 0 1
144.798 0 1
144.914 0 1
145.03 0 1
145.146 2960 54.4059
145.262 3189 56.4712
145.378 3364 58
145.494 3505 59.203
145.61 3692 60.7618
145.726 3777 61.4573
145.842 3869 62.2013
145.959 3814 61.7576
146.075 3972 63.0238
146.192 3827 61.8628
146.308 3894 62.4019
146.425 4045 63.6003
146.541 4366 66.0757
146.658 4748 68.9057
146.774 5151 71.7705
146.891 5462 73.9053
147.008 5690 75.4321
147.125 6020 77.5887
147.241 6378 79.8624
147.358 6344 79.6492
147.475 6702 81.8657
147.592 6564 81.0185
147.709 6665 81.6395
147.826 6498 80.6102
147.943 6642 81.4985
148.06 6490 80.5605
148.177 6212 78.8162
148.294 6168 78.5366
148.411 6208 78.7909
148.528 6230 78.9303
148.645 6677 81.7129
148.762 6569 81.0494
148.88 7018 83.7735
148.997 7440 86.2554
149.114 6714 81.939
149.231 7092 84.214
149.349 6921 83.1925
149.466 6899 83.0602
149.583 6529 80.8022
149.701 6122 78.2432
149.818 5853 76.5049
149.935 5570 74.6324
150.053 5628 75.02
150.17 5677 75.3459
150.287 6339 79.6178
150.405 6413 80.0812
150.522 6550 80.9321
150.64 6599 81.2342
150.757 6680 81.7313
150.875 6915 83.1565
150.992 6934 83.2706
151.11 6743 82.1158
151.227 6855 82.7949
151.344 6655 81.5782
151.462 6544 80.895
151.579 6527 80.7899
151.697 6370 79.8123
151.814 6138 78.3454
151.932 6159 78.4793
152.049 6177 78.5939
152.167 6473 80.455
152.284 6646 81.523
152.402 7086 84.1784
152.519 7248 85.1352
152.636 7450 86.3134
152.754 7596 87.155
152.871 7583 87.0804
152.989 7383 85.9244
153.106 7441 86.2612
153.223 7047 83.9464
153.341 6525 80.7775
153.458 6372 79.8248
153.575 6132 78.3071
153.693 6142 78.3709
153.81 6605 81.2712
153.927 6813 82.5409
154.044 7248 85.1352
154.162 7382 85.9186
154.279 7689 87.6869
154.396 8007 89.4818
154.513 7980 89.3308
154.63 8156 90.3106
154.747 8196 90.5318
154.864 8333 91.2853
154.981 7941 89.1123
155.098 7991 89.3924
155.215 7776 88.1816
155.332 7862 88.6679
155.449 7710 87.8066
155.566 7556 86.9253
155.683 7744 88
155.8 7900 88.8819
155.917 8210 90.6091
156.033 8451 91.9293
156.15 0 1
156.267 0 1
156.383 0 1
156.5 0 1
156.617 0 1
156.733 0 1
156.85 0 1
156.966 0 1
157.082 0 1
157.199 0 1
157.315 0 1
157.431 0 1
157.547 0 1
157.664 0 1
157.78 0 1
157.896 0 1
158.012 0 1
158.128 0 1
158.244 0 1
158.359 0 1
158.475 0 1
158.591 0 1
158.706 0 1
