
6.15755 0 1
6.2731 0 1
6.3887 0 1
6.50437 0 1
6.62009 0 1
6.73587 0 1
6.8517 0 1
6.96759 0 1
7.08353 0 1
7.19952 0 1
7.31557 0 1
7.43166 0 1
7.54781 0 1
7.664 0 1
7.78024 0 1
7.89653 0 1
8.01286 0 1
8.12924 0 1
8.24567 0 1
8.36213 0 1
8.47864 0 1
8.59519 0 1
8.71178 0 1
8.82841 0 1
8.94508 0 1
9.06179 0 1
9.17853 0 1
9.29531 0 1
9.41212 0 1
9.52897 0 1
9.64584 0 1
9.76276 0 1
9.8797 0 1
9.99667 0 1
10.1137 0 1
10.2307 0 1
10.3478 0 1
10.4648 0 1
10.5819 0 1
10.6991 0 1
10.8162 0 1
10.9334 0 1
11.0506 0 1
11.1678 0 1
11.285 0 1
11.4023 0 1
11.5196 0 1
11.6369 0 1
11.7542 0 1
11.8715 0 1
11.9888 0 1
12.1062 0 1
12.2235 0 1
12.3409 0 1
12.4582 0 1
12.5756 0 1
12.693 0 1
12.8104 0 1
12.9278 0 1
13.0452 0 1
13.1626 0 1
13.28 0 1
13.3974 0 1
13.5149 0 1
13.6323 0 1
13.7497 0 1
13.8671 0 1
13.9845 0 1
14.1019 0 1
14.2193 0 1
14.3367 0 1
14.4541 0 1
14.5714 0 1
14.6888 0 1
14.8062 0 1
14.9235 0 1
15.0408 1320 36.3318
15.1581 1391 37.2961
15.2755 1466 38.2884
15.3927 1456 38.1576
15.51 1426 37.7624
15.6273 1450 38.0789
15.7445 1492 38.6264
15.8617 1404 37.47
15.9789 1409 37.5366
16.0961 1424 37.7359
16.2132 1421 37.6962
16.3304 1497 38.6911
16.4475 1462 38.2361
16.5646 1565 39.5601
16.6816 1609 40.1123
16.7986 1740 41.7133
16.9156 1706 41.3038
17.0326 1767 42.0357
17.1496 1648 40.5956
17.2665 1700 41.2311
17.3833 1701 41.2432
17.5002 1639 40.4846
17.617 1534 39.1663
17.7338 1519 38.9744
17.8505 1455 38.1445
17.9672 1522 39.0128
18.0839 1549 39.3573
18.2005 1589 39.8623
18.3171 1541 39.2556
18.4337 1627 40.3361
18.5502 1679 40.9756
18.6666 1682 41.0122
18.7831 1646 40.5709
18.8994 1739 41.7013
19.0158 1747 41.7971
19.1321 1571 39.6358
19.2483 1544 39.2938
19.3645 1474 38.3927
19.4806 1416 37.6298
19.5967 1302 36.0832
19.7128 1213 34.8281
19.8288 1088 32.9848
19.9447 996 31.5595
20.0606 0 1
20.1764 0 1
20.2922 0 1
20.4079 0 1
20.5236 0 1
20.6392 0 1
20.7548 0 1
20.8702 0 1
23.3078 0 1
23.4233 0 1
23.539 0 1
23.6547 0 1
23.7704 0 1
23.8862 0 1
24.0021 0 1
24.118 0 1
24.234 0 1
24.35 0 1
24.4661 691 26.2869
24.5822 857 29.2746
24.6984 934 30.5614
24.8146 1047 32.3574
24.9309 1108 33.2866
25.0472 1256 35.4401
25.1636 1313 36.2353
25.28 1426 37.7624
25.3965 1522 39.0128
25.513 1613 40.1622
25.6296 1728 41.5692
25.7462 1816 42.6146
25.8628 1802 42.45
25.9795 1789 42.2966
26.0962 1764 42
26.213 1798 42.4028
26.3298 1694 41.1582
26.4466 1649 40.6079
26.5635 1596 39.95
26.6804 1506 38.8072
26.7973 1681 41
26.9143 1688 41.0853
27.0313 1605 40.0625
27.1483 1693 41.1461
27.2653 1776 42.1426
27.3824 1657 40.7063
27.4996 1790 42.3084
27.6167 1751 41.845
27.7339 1683 41.0244
27.8511 1668 40.8412
27.9683 1657 40.7063
28.0855 1548 39.3446
28.2028 1500 38.7298
28.3201 1417 37.6431
28.4374 1470 38.3406
28.5547 1479 38.4578
28.6721 1581 39.7618
28.7894 1656 40.694
28.9068 1757 41.9166
29.0242 1804 42.4735
29.1416 1707 41.3159
29.259 1816 42.6146
29.3764 1816 42.6146
29.4939 1700 41.2311
29.6113 1756 41.9047
29.7288 1649 40.6079
29.8463 1560 39.4968
29.9638 1481 38.4838
30.0812 1503 38.7685
30.1987 1475 38.4057
30.3162 1528 39.0896
30.4337 1595 39.9375
30.5512 1642 40.5216
30.6687 1594 39.9249
30.7862 1684 41.0366
30.9037 1650 40.6202
31.0212 1725 41.5331
31.1387 1722 41.497
31.2562 1763 41.9881
31.3737 1682 41.0122
31.4912 1623 40.2865
31.6087 1556 39.4462
31.7262 1516 38.9358
31.8436 1500 38.7298
31.9611 1424 37.7359
32.0785 1393 37.3229
32.1959 1431 37.8286
32.3134 1541 39.2556
32.4308 1601 40.0125
32.5482 1682 41.0122
32.6655 1745 41.7732
32.7829 1727 41.5572
32.9002 1723 41.509
33.0176 1754 41.8808
33.1349 1712 41.3763
33.2522 1676 40.939
33.3694 1594 39.9249
33.4867 1539 39.2301
33.6039 1484 38.5227
33.7211 1402 37.4433
33.8383 1390 37.2827
33.9554 1403 37.4566
34.0725 1562 39.5221
34.1896 1593 39.9124
34.3067 1572 39.6485
34.4237 1617 40.2119
34.5407 1565 39.5601
34.6577 1613 40.1622
34.7746 1670 40.8656
34.8915 1635 40.4351
35.0084 1593 39.9124
35.1252 1552 39.3954
35.242 1595 39.9375
35.3587 1426 37.7624
35.4755 1430 37.8153
35.5921 1433 37.855
35.7088 1348 36.7151
35.8254 1316 36.2767
35.9419 1378 37.1214
36.0584 1490 38.6005
36.1749 1425 37.7492
36.2913 1494 38.6523
36.4077 1537 39.2046
36.524 1452 38.1051
36.6403 1372 37.0405
36.7565 1386 37.229
36.8727 1357 36.8375
36.9889 1245 35.2846
37.1049 1182 34.3802
37.221 0 1
37.3369 0 1
37.4529 0 1
37.5687 0 1
37.6845 0 1
37.8003 0 1
37.916 0 1
38.0316 0 1
38.1472 0 1
40.5851 0 1
40.7008 0 1
40.8164 0 1
40.9322 0 1
41.048 0 1
41.1639 0 1
41.2798 0 1
41.3958 0 1
41.5118 0 1
41.6279 0 1
41.744 761 27.5862
41.8602 926 30.4302
41.9765 926 30.4302
42.0928 1020 31.9374
42.2091 962 31.0161
42.3255 977 31.257
42.4419 931 30.5123
42.5584 966 31.0805
42.675 1053 32.45
42.7915 1126 33.5559
42.9081 1141 33.7787
43.0248 1229 35.0571
43.1415 1278 35.7491
43.2582 1316 36.2767
43.375 1301 36.0694
43.4918 1386 37.229
43.6087 1355 36.8103
43.7256 1289 35.9026
43.8425 1332 36.4966
43.9595 1261 35.5106
44.0765 1322 36.3593
44.1935 1182 34.3802
44.3106 1159 34.0441
44.4277 1138 33.7343
44.5448 1097 33.121
44.6619 1152 33.9411
44.7791 1212 34.8138
44.8963 1234 35.1283
45.0136 1373 37.054
45.1308 1365 36.9459
45.2481 1392 37.3095
45.3654 1342 36.6333
45.4827 1437 37.9078
45.6001 1374 37.0675
45.7174 1342 36.6333
45.8348 1248 35.327
45.9522 1134 33.6749
46.0697 1151 33.9264
46.1871 1115 33.3916
46.3046 1118 33.4365
46.422 1208 34.7563
46.5395 1292 35.9444
46.657 1359 36.8646
46.7745 1282 35.805
46.892 1361 36.8917
47.0096 1346 36.6879
47.1271 1461 38.223
47.2446 1416 37.6298
47.3622 1377 37.108
47.4797 1312 36.2215
47.5973 1307 36.1525
47.7149 1293 35.9583
47.8324 1239 35.1994
47.95 1172 34.2345
48.0675 1209 34.7707
48.1851 1147 33.8674
48.3027 1155 33.9853
48.4202 1269 35.623
48.5378 1360 36.8782
48.6554 1362 36.9053
48.7729 1360 36.8782
48.8904 1385 37.2156
49.008 1370 37.0135
49.1255 1439 37.9342
49.243 1325 36.4005
49.3605 1298 36.0278
49.478 1181 34.3657
49.5955 1133 33.6601
49.713 1073 32.7567
49.8304 1151 33.9264
49.9479 1184 34.4093
50.0653 1244 35.2704
50.1827 1335 36.5377
50.3001 1387 37.2424
50.4175 1419 37.6696
50.5348 1409 37.5366
50.6521 1495 38.6652
50.7694 1457 38.1707
50.8867 1455 38.1445
51.004 1426 37.7624
51.1212 1507 38.8201
51.2384 1401 37.4299
51.3556 1447 38.0395
51.4727 1372 37.0405
51.5899 1266 35.5809
51.707 1270 35.6371
51.824 1374 37.0675
51.9411 1492 38.6264
52.0581 1518 38.9615
52.175 1720 41.4729
52.2919 1826 42.7317
52.4088 1770 42.0714
52.5257 1873 43.2782
52.6425 1973 44.4185
52.7593 1957 44.238
52.876 1832 42.8019
52.9927 1751 41.845
53.1094 1625 40.3113
53.226 1591 39.8873
53.3426 1596 39.95
53.4591 1507 38.8201
53.5756 1584 39.7995
53.692 1580 39.7492
53.8084 1612 40.1497
53.9248 1566 39.5727
54.0411 1543 39.281
54.1573 1424 37.7359
54.2735 0 1
54.3896 0 1
54.5057 0 1
54.6217 0 1
54.7377 0 1
54.8537 0 1
54.9695 0 1
55.0853 0 1
55.2011 0 1
55.3168 0 1
55.4324 0 1
57.824 0 1
57.9396 0 1
58.0553 0 1
58.1711 0 1
58.2869 0 1
58.4028 0 1
58.5187 0 1
58.6347 0 1
58.7508 0 1
58.8669 0 1
58.983 1122 33.4963
59.0992 1202 34.6699
59.2155 1313 36.2353
59.3318 1476 38.4187
59.4482 1508 38.833
59.5646 1521 39
59.681 1547 39.3319
59.7975 1588 39.8497
59.9141 1649 40.6079
60.0306 1646 40.5709
60.1473 1559 39.4842
60.2639 1539 39.2301
60.3807 1416 37.6298
60.4974 1509 38.8458
60.6142 1561 39.5095
60.731 1659 40.7308
60.8479 1679 40.9756
60.9648 1682 41.0122
61.0818 1801 42.4382
61.1987 1790 42.3084
61.3158 1787 42.2729
61.4328 1650 40.6202
61.5499 1671 40.8779
61.667 1421 37.6962
61.7841 1386 37.229
61.9013 1371 37.027
62.0185 1368 36.9865
62.1357 1388 37.2559
62.253 1487 38.5616
62.3702 1614 40.1746
62.4875 1637 40.4599
62.6049 1711 41.3642
62.7222 1795 42.3674
62.8396 1692 41.1339
62.9569 1806 42.4971
63.0743 1764 42
63.1918 1689 41.0974
63.3092 1612 40.1497
63.4267 1714 41.4005
63.5441 1624 40.2989
63.6616 1535 39.1791
63.7791 1454 38.1314
63.8966 1398 37.3898
64.0142 1401 37.4299
64.1317 1434 37.8682
64.2492 1622 40.2741
64.3668 1689 41.0974
64.4843 1659 40.7308
64.6019 1714 41.4005
64.7195 1747 41.7971
64.837 1720 41.4729
64.9546 1704 41.2795
65.0722 1756 41.9047
65.1898 1595 39.9375
65.3074 1373 37.054
65.4249 1360 36.8782
65.5425 1280 35.7771
65.6601 1292 35.9444
65.7777 1379 37.1349
65.8952 1544 39.2938
66.0128 1594 39.9249
66.1304 1565 39.5601
66.2479 1623 40.2865
66.3655 1717 41.4367
66.483 1700 41.2311
66.6005 1684 41.0366
66.718 1678 40.9634
66.8355 1714 41.4005
66.953 1542 39.2683
67.0705 1629 40.3609
67.1879 1595 39.9375
67.3054 1486 38.5487
67.4228 1336 36.5513
67.5402 1361 36.8917
67.6576 1332 36.4966
67.7749 1396 37.3631
67.8923 1476 38.4187
68.0096 1588 39.8497
68.1269 1628 40.3485
68.2442 1651 40.6325
68.3614 1638 40.4722
68.4787 1653 40.6571
68.5958 1623 40.2865
68.713 1597 39.9625
68.8302 1488 38.5746
68.9473 1317 36.2905
69.0643 1268 35.609
69.1814 1285 35.8469
69.2984 1262 35.5246
69.4154 1302 36.0832
69.5323 1399 37.4032
69.6492 1406 37.4967
69.7661 1616 40.1995
69.8829 1556 39.4462
69.9997 1556 39.4462
70.1165 1504 38.7814
70.2332 1513 38.8973
70.3499 1424 37.7359
70.4665 1370 37.0135
70.5831 1232 35.0999
70.6996 1219 34.9142
70.8161 1102 33.1964
70.9326 1059 32.5423
71.049 910 30.1662
71.1653 747 27.3313
71.2817 680 26.0768
71.3979 628 25.0599
71.5141 585 24.1868
71.6303 576 24
71.7464 542 23.2809
71.8624 0 1
71.9784 0 1
72.0944 0 1
72.2102 0 1
72.3261 0 1
72.4418 0 1
72.5575 0 1
72.6732 0 1
75.1054 0 1
75.2209 0 1
75.3365 0 1
75.4521 0 1
75.5678 0 1
75.6835 0 1
75.7993 0 1
75.9151 0 1
76.031 0 1
76.147 985 31.3847
76.263 1014 31.8434
76.3791 987 31.4166
76.4952 1021 31.9531
76.6113 1098 33.1361
76.7276 1088 32.9848
76.8438 1209 34.7707
76.9601 1341 36.6197
77.0765 1396 37.3631
77.1929 1423 37.7227
77.3093 1482 38.4968
77.4258 1467 38.3014
77.5423 1462 38.2361
77.6589 1407 37.51
77.7755 1286 35.8608
77.8921 1194 34.5543
78.0088 1099 33.1512
78.1256 1114 33.3766
78.2423 1036 32.187
78.3591 1102 33.1964
78.4759 1225 35
78.5928 1402 37.4433
78.7097 1338 36.5787
78.8266 1339 36.5923
78.9436 1468 38.3145
79.0606 1413 37.5899
79.1776 1502 38.7556
79.2946 1472 38.3667
79.4117 1423 37.7227
79.5288 1453 38.1182
79.6459 1478 38.4448
79.7631 1412 37.5766
79.8802 1436 37.8946
79.9974 1292 35.9444
80.1147 1169 34.1906
80.2319 1114 33.3766
80.3491 1125 33.541
80.4664 1218 34.8999
80.5837 1250 35.3553
80.701 1422 37.7094
80.8183 1487 38.5616
80.9357 1496 38.6782
81.053 1471 38.3536
81.1704 1489 38.5876
81.2877 1513 38.8973
81.4051 1464 38.2623
81.5225 1344 36.6606
81.6399 1284 35.8329
81.7573 1163 34.1028
81.8747 1140 33.7639
81.9922 1080 32.8634
82.1096 1165 34.1321
82.227 1281 35.7911
82.3444 1302 36.0832
82.4619 1408 37.5233
82.5793 1471 38.3536
82.6967 1448 38.0526
82.8142 1568 39.598
82.9316 1533 39.1535
83.049 1533 39.1535
83.1664 1532 39.1408
83.2838 1511 38.8716
83.4012 1457 38.1707
83.5186 1482 38.4968
83.636 1375 37.081
83.7534 1306 36.1386
83.8708 1152 33.9411
83.9881 1135 33.6898
84.1055 1215 34.8569
84.2228 1257 35.4542
84.3401 1393 37.3229
84.4575 1519 38.9744
84.5747 1585 39.8121
84.692 1475 38.4057
84.8093 1521 39
84.9265 1555 39.4335
85.0437 1410 37.55
85.1609 1336 36.5513
85.2781 1198 34.6121
85.3952 1121 33.4813
85.5123 1027 32.0468
85.6294 1086 32.9545
85.7465 1227 35.0286
85.8636 1380 37.1484
85.9806 1427 37.7757
86.0976 1415 37.6165
86.2145 1458 38.1838
86.3315 1510 38.8587
86.4484 1556 39.4462
86.5652 1547 39.3319
86.682 1590 39.8748
86.7988 1582 39.7744
86.9156 1557 39.4588
87.0323 1477 38.4318
87.149 1447 38.0395
87.2657 1308 36.1663
87.3823 1243 35.2562
87.4988 1147 33.8674
87.6154 1031 32.1092
87.7318 1027 32.0468
87.8483 1065 32.6343
87.9647 1111 33.3317
88.081 1206 34.7275
88.1973 1230 35.0714
88.3136 1114 33.3766
88.4298 1142 33.7935
88.546 1038 32.218
88.6621 910 30.1662
88.7781 737 27.1477
88.8942 0 1
89.0101 0 1
89.126 0 1
89.2419 0 1
89.3577 0 1
89.4734 0 1
89.5891 0 1
89.7047 0 1
89.8203 0 1
89.9358 0 1
92.3269 0 1
92.4424 0 1
92.558 0 1
92.6736 0 1
92.7893 0 1
92.905 0 1
93.0208 0 1
93.1366 0 1
93.2525 0 1
93.3685 0 1
93.4845 0 1
93.6005 1175 34.2783
93.7167 1205 34.7131
93.8328 1219 34.9142
93.949 1299 36.0416
94.0653 1414 37.6032
94.1816 1315 36.2629
94.2979 1331 36.4829
94.4143 1220 34.9285
94.5307 1179 34.3366
94.6472 1140 33.7639
94.7637 1168 34.176
94.8803 1158 34.0294
94.9969 1340 36.606
95.1135 1367 36.973
95.2302 1487 38.5616
95.3469 1565 39.5601
95.4637 1599 39.9875
95.5805 1508 38.833
95.6973 1569 39.6106
95.8142 1607 40.0874
95.9311 1548 39.3446
96.048 1599 39.9875
96.1649 1505 38.7943
96.2819 1550 39.37
96.3989 1418 37.6563
96.516 1427 37.7757
96.633 1335 36.5377
96.7501 1188 34.4674
96.8673 1228 35.0428
96.9844 1319 36.318
97.1016 1387 37.2424
97.2188 1467 38.3014
97.336 1549 39.3573
97.4532 1555 39.4335
97.5704 1533 39.1535
97.6877 1634 40.4228
97.805 1573 39.6611
97.9223 1531 39.128
98.0396 1341 36.6197
98.1569 1230 35.0714
98.2743 1174 34.2637
98.3916 1152 33.9411
98.509 1210 34.7851
98.6264 1291 35.9305
98.7438 1344 36.6606
98.8612 1461 38.223
98.9786 1607 40.0874
99.096 1567 39.5854
99.2134 1600 40
99.3308 1679 40.9756
99.4482 1646 40.5709
99.5656 1656 40.694
99.6831 1699 41.2189
99.8005 1671 40.8779
99.9179 1624 40.2989
100.035 1557 39.4588
100.153 1524 39.0384
100.27 1379 37.1349
100.388 1335 36.5377
100.505 1387 37.2424
100.622 1431 37.8286
100.74 1559 39.4842
100.857 1642 40.5216
100.975 1614 40.1746
101.092 1743 41.7493
101.209 1655 40.6817
101.327 1738 41.6893
101.444 1617 40.2119
101.561 1416 37.6298
101.679 1366 36.9594
101.796 1269 35.623
101.913 1250 35.3553
102.03 1277 35.7351
102.148 1326 36.4143
102.265 1492 38.6264
102.382 1616 40.1995
102.499 1693 41.1461
102.616 1611 40.1373
102.733 1695 41.1704
102.851 1744 41.7612
102.968 1776 42.1426
103.085 1703 41.2674
103.202 1699 41.2189
103.319 1738 41.6893
103.436 1669 40.8534
103.552 1613 40.1622
103.669 1561 39.5095
103.786 1449 38.0657
103.903 1426 37.7624
104.02 1424 37.7359
104.137 1485 38.5357
104.253 1608 40.0999
104.37 1809 42.5323
104.487 1727 41.5572
104.603 1713 41.3884
104.72 1720 41.4729
104.836 1603 40.0375
104.953 1581 39.7618
105.069 1460 38.2099
105.186 1269 35.623
105.302 1189 34.4819
105.418 1112 33.3467
105.535 1136 33.7046
105.651 1119 33.4515
105.767 1085 32.9393
105.883 1110 33.3167
105.999 1091 33.0303
106.115 0 1
106.231 0 1
106.347 0 1
106.463 0 1
106.579 0 1
106.694 0 1
106.81 0 1
106.926 0 1
107.041 0 1
107.157 0 1
109.576 0 1
109.692 0 1
109.807 0 1
109.923 0 1
110.039 0 1
110.155 0 1
110.27 0 1
110.386 0 1
110.502 0 1
110.618 694 26.3439
110.735 897 29.95
110.851 1057 32.5115
110.967 1244 35.2704
111.083 1340 36.606
111.199 1413 37.5899
111.316 1493 38.6394
111.432 1556 39.4462
111.549 1637 40.4599
111.665 1580 39.7492
111.782 1616 40.1995
111.898 1643 40.5339
112.015 1583 39.7869
112.132 1522 39.0128
112.248 1414 37.6032
112.365 1297 36.0139
112.482 1302 36.0832
112.599 1376 37.0945
112.716 1507 38.8201
112.832 1557 39.4588
112.949 1614 40.1746
113.066 1727 41.5572
113.183 1681 41
113.3 1640 40.4969
113.417 1735 41.6533
113.534 1567 39.5854
113.652 1468 38.3145
113.769 1281 35.7911
113.886 1249 35.3412
114.003 1172 34.2345
114.12 1227 35.0286
114.238 1351 36.756
114.355 1451 38.092
114.472 1477 38.4318
114.589 1588 39.8497
114.707 1650 40.6202
114.824 1643 40.5339
114.942 1700 41.2311
115.059 1653 40.6571
115.176 1666 40.8167
115.294 1641 40.5093
115.411 1608 40.0999
115.529 1617 40.2119
115.646 1625 40.3113
115.764 1440 37.9473
115.881 1474 38.3927
115.999 1350 36.7423
116.116 1364 36.9324
116.234 1452 38.1051
116.351 1526 39.064
116.469 1646 40.5709
116.586 1549 39.3573
116.704 1733 41.6293
116.821 1615 40.1871
116.939 1637 40.4599
117.056 1595 39.9375
117.174 1470 38.3406
117.291 1443 37.9868
117.409 1350 36.7423
117.526 1204 34.6987
117.644 1149 33.8969
117.761 1262 35.5246
117.879 1473 38.3797
117.996 1488 38.5746
118.114 1453 38.1182
118.231 1633 40.4104
118.349 1632 40.398
118.466 1588 39.8497
118.584 1576 39.6989
118.701 1680 40.9878
118.819 1632 40.398
118.936 1601 40.0125
119.053 1613 40.1622
119.171 1563 39.5348
119.288 1364 36.9324
119.405 1380 37.1484
119.523 1298 36.0278
119.64 1312 36.2215
119.757 1349 36.7287
119.875 1380 37.1484
119.992 1468 38.3145
120.109 1511 38.8716
120.226 1551 39.3827
120.343 1594 39.9249
120.46 1595 39.9375
120.578 1557 39.4588
120.695 1457 38.1707
120.812 1483 38.5097
120.929 1382 37.1753
121.046 1266 35.5809
121.163 1152 33.9411
121.279 1092 33.0454
121.396 1119 33.4515
121.513 1184 34.4093
121.63 1192 34.5254
121.747 1277 35.7351
121.863 1248 35.327
121.98 1240 35.2136
122.097 1282 35.805
122.213 1220 34.9285
122.33 1267 35.5949
122.446 1170 34.2053
122.563 1228 35.0428
122.679 1062 32.5883
122.795 977 31.257
122.912 898 29.9666
123.028 772 27.7849
123.144 678 26.0384
123.26 597 24.4336
123.377 0 1
123.493 0 1
123.609 0 1
123.725 0 1
123.84 0 1
123.956 0 1
124.072 0 1
124.188 0 1
124.303 0 1
124.419 0 1
126.852 0 1
126.968 0 1
127.083 0 1
127.199 0 1
127.315 0 1
127.431 0 1
127.547 0 1
127.663 0 1
127.779 0 1
127.895 0 1
128.011 0 1
128.127 0 1
128.243 0 1
128.359 1415 37.6165
128.476 1463 38.2492
128.592 1472 38.3667
128.708 1379 37.1349
128.825 1376 37.0945
128.941 1495 38.6652
129.058 1558 39.4715
129.174 1642 40.5216
129.291 1719 41.4608
129.408 1693 41.1461
129.524 1623 40.2865
129.641 1680 40.9878
129.758 1666 40.8167
129.875 1612 40.1497
129.992 1392 37.3095
130.108 1319 36.318
130.225 1268 35.609
130.342 1273 35.6791
130.459 1237 35.171
130.576 1450 38.0789
130.693 1447 38.0395
130.81 1550 39.37
130.928 1524 39.0384
131.045 1664 40.7922
131.162 1749 41.821
131.279 1669 40.8534
131.396 1725 41.5331
131.513 1676 40.939
131.631 1696 41.1825
131.748 1664 40.7922
131.865 1609 40.1123
131.983 1514 38.9102
132.1 1525 39.0512
132.217 1479 38.4578
132.335 1411 37.5633
132.452 1450 38.0789
132.57 1665 40.8044
132.687 1720 41.4729
132.804 1624 40.2989
132.922 1624 40.2989
133.039 1685 41.0488
133.157 1669 40.8534
133.274 1730 41.5933
133.392 1560 39.4968
133.509 1560 39.4968
133.627 1450 38.0789
133.744 1320 36.3318
133.862 1192 34.5254
133.979 1262 35.5246
134.097 1363 36.9188
134.214 1517 38.9487
134.332 1469 38.3275
134.449 1560 39.4968
134.567 1571 39.6358
134.684 1643 40.5339
134.802 1664 40.7922
134.919 1661 40.7554
135.037 1690 41.1096
135.154 1663 40.7799
135.272 1561 39.5095
135.389 1618 40.2244
135.507 1535 39.1791
135.624 1518 38.9615
135.742 1469 38.3275
135.859 1435 37.8814
135.977 1428 37.7889
136.094 1574 39.6737
136.211 1643 40.5339
136.329 1673 40.9023
136.446 1737 41.6773
136.564 1754 41.8808
136.681 1721 41.4849
136.798 1705 41.2916
136.915 1675 40.9268
137.033 1690 41.1096
137.15 1528 39.0896
137.267 1414 37.6032
137.384 1334 36.524
137.502 1284 35.8329
137.619 1328 36.4417
137.736 1403 37.4566
137.853 1438 37.921
137.97 1535 39.1791
138.087 1580 39.7492
138.204 1648 40.5956
138.321 1681 41
138.438 1724 41.5211
138.555 1641 40.5093
138.672 1689 41.0974
138.788 1648 40.5956
138.905 1529 39.1024
139.022 1533 39.1535
139.139 1425 37.7492
139.255 1283 35.819
139.372 1197 34.5977
139.488 1109 33.3017
139.605 1113 33.3617
139.721 1062 32.5883
139.838 1134 33.6749
139.954 1161 34.0735
140.071 1097 33.121
140.187 979 31.289
140.303 892 29.8664
140.419 870 29.4958
140.535 796 28.2135
140.652 756 27.4955
140.768 0 1
140.884 0 1
141 0 1
141.115 0 1
141.231 0 1
141.347 0 1
141.463 0 1
141.578 0 1
141.694 0 1
144.104 0 1
144.219 0 1
144.335 0 1
144.45 0 1
144.566 0 1
144.682 0 1
144.798 0 1
144.914 0 1
145.03 0 1
145.146 1241 35.2278
145.262 1297 36.0139
145.378 1301 36.0694
145.494 1308 36.1663
145.61 1358 36.8511
145.726 1276 35.7211
145.842 1279 35.7631
145.959 1155 33.9853
146.075 1174 34.2637
146.192 1094 33.0757
146.308 1071 32.7261
146.425 1051 32.4191
146.541 1167 34.1614
146.658 1243 35.2562
146.774 1183 34.3948
146.891 1222 34.9571
147.008 1276 35.7211
147.125 1204 34.6987
147.241 1288 35.8887
147.358 1311 36.2077
147.475 1320 36.3318
147.592 1338 36.5787
147.709 1288 35.8887
147.826 1297 36.0139
147.943 1156 34
148.06 1197 34.5977
148.177 1131 33.6303
148.294 1134 33.6749
148.411 1203 34.6843
148.528 1198 34.6121
148.645 1237 35.171
148.762 1304 36.1109
148.88 1343 36.647
148.997 1425 37.7492
149.114 1351 36.756
149.231 1364 36.9324
149.349 1317 36.2905
149.466 1212 34.8138
149.583 1218 34.8999
149.701 1164 34.1174
149.818 1101 33.1813
149.935 1105 33.2415
150.053 1014 31.8434
150.17 1097 33.121
150.287 1170 34.2053
150.405 1179 34.3366
150.522 1207 34.7419
150.64 1200 34.641
150.757 1250 35.3553
150.875 1320 36.3318
150.992 1273 35.6791
151.11 1324 36.3868
151.227 1247 35.3129
151.344 1258 35.4683
151.462 1214 34.8425
151.579 1220 34.9285
151.697 1162 34.0881
151.814 1085 32.9393
151.932 1118 33.4365
152.049 1099 33.1512
152.167 1184 34.4093
152.284 1135 33.6898
152.402 1179 34.3366
152.519 1304 36.1109
152.636 1237 35.171
152.754 1251 35.3695
152.871 1219 34.9142
152.989 1264 35.5528
153.106 1196 34.5832
153.223 1130 33.6155
153.341 1099 33.1512
153.458 1056 32.4962
153.575 913 30.2159
153.693 1028 32.0624
153.81 1067 32.665
153.927 1097 33.121
154.044 1073 32.7567
154.162 1148 33.8821
154.279 1111 33.3317
154.396 1203 34.6843
154.513 1216 34.8712
154.63 1243 35.2562
154.747 1183 34.3948
154.864 1141 33.7787
154.981 1184 34.4093
155.098 1190 34.4964
155.215 1062 32.5883
155.332 1073 32.7567
155.449 1069 32.6956
155.566 1024 32
155.683 1062 32.5883
155.8 1041 32.2645
155.917 1062 32.5883
156.033 1027 32.0468
156.15 0 1
156.267 0 1
156.383 0 1
156.5 0 1
156.617 0 1
156.733 0 1
156.85 0 1
156.966 0 1
157.082 0 1
157.199 0 1
157.315 0 1
157.431 0 1
157.547 0 1
157.664 0 1
157.78 0 1
157.896 0 1
158.012 0 1
158.128 0 1
158.244 0 1
158.359 0 1
158.475 0 1
158.591 0 1
158.706 0 1
