
6.15755 0 1
6.2731 0 1
6.3887 0 1
6.50437 0 1
6.62009 0 1
6.73587 0 1
6.8517 0 1
6.96759 0 1
7.08353 0 1
7.19952 0 1
7.31557 0 1
7.43166 0 1
7.54781 0 1
7.664 0 1
7.78024 0 1
7.89653 0 1
8.01286 0 1
8.12924 0 1
8.24567 0 1
8.36213 0 1
8.47864 0 1
8.59519 0 1
8.71178 0 1
8.82841 0 1
8.94508 0 1
9.06179 0 1
9.17853 0 1
9.29531 0 1
9.41212 0 1
9.52897 0 1
9.64584 0 1
9.76276 0 1
9.8797 0 1
9.99667 0 1
10.1137 0 1
10.2307 0 1
10.3478 0 1
10.4648 0 1
10.5819 0 1
10.6991 0 1
10.8162 0 1
10.9334 0 1
11.0506 0 1
11.1678 0 1
11.285 0 1
11.4023 0 1
11.5196 0 1
11.6369 0 1
11.7542 0 1
11.8715 0 1
11.9888 0 1
12.1062 0 1
12.2235 0 1
12.3409 0 1
12.4582 0 1
12.5756 0 1
12.693 0 1
12.8104 0 1
12.9278 0 1
13.0452 0 1
13.1626 0 1
13.28 0 1
13.3974 0 1
13.5149 0 1
13.6323 0 1
13.7497 0 1
13.8671 0 1
13.9845 0 1
14.1019 0 1
14.2193 0 1
14.3367 0 1
14.4541 0 1
14.5714 0 1
14.6888 0 1
14.8062 0 1
14.9235 0 1
15.0408 907 30.1164
15.1581 925 30.4138
15.2755 964 31.0483
15.3927 1025 32.0156
15.51 935 30.5778
15.6273 972 31.1769
15.7445 931 30.5123
15.8617 906 30.0998
15.9789 886 29.7658
16.0961 897 29.95
16.2132 876 29.5973
16.3304 837 28.931
16.4475 863 29.3769
16.5646 784 28
16.6816 867 29.4449
16.7986 857 29.2746
16.9156 847 29.1033
17.0326 809 28.4429
17.1496 813 28.5132
17.2665 789 28.0891
17.3833 824 28.7054
17.5002 832 28.8444
17.617 801 28.3019
17.7338 851 29.1719
17.8505 822 28.6705
17.9672 810 28.4605
18.0839 753 27.4408
18.2005 748 27.3496
18.3171 763 27.6225
18.4337 796 28.2135
18.5502 873 29.5466
18.6666 820 28.6356
18.7831 786 28.0357
18.8994 769 27.7308
19.0158 773 27.8029
19.1321 722 26.8701
19.2483 718 26.7955
19.3645 647 25.4362
19.4806 671 25.9037
19.5967 660 25.6905
19.7128 567 23.8118
19.8288 566 23.7908
19.9447 524 22.891
20.0606 0 1
20.1764 0 1
20.2922 0 1
20.4079 0 1
20.5236 0 1
20.6392 0 1
20.7548 0 1
20.8702 0 1
23.3078 0 1
23.4233 0 1
23.539 0 1
23.6547 0 1
23.7704 0 1
23.8862 0 1
24.0021 0 1
24.118 0 1
24.234 0 1
24.35 0 1
24.4661 540 23.2379
24.5822 605 24.5967
24.6984 718 26.7955
24.8146 832 28.8444
24.9309 849 29.1376
25.0472 745 27.2947
25.1636 782 27.9643
25.28 767 27.6948
25.3965 853 29.2062
25.513 869 29.4788
25.6296 840 28.9828
25.7462 866 29.4279
25.8628 869 29.4788
25.9795 883 29.7153
26.0962 888 29.7993
26.213 837 28.931
26.3298 819 28.6182
26.4466 721 26.8514
26.5635 770 27.7489
26.6804 686 26.1916
26.7973 657 25.632
26.9143 677 26.0192
27.0313 636 25.219
27.1483 709 26.6271
27.2653 732 27.0555
27.3824 760 27.5681
27.4996 748 27.3496
27.6167 762 27.6043
27.7339 683 26.1343
27.8511 662 25.7294
27.9683 701 26.4764
28.0855 709 26.6271
28.2028 694 26.3439
28.3201 664 25.7682
28.4374 733 27.074
28.5547 749 27.3679
28.6721 757 27.5136
28.7894 742 27.2397
28.9068 809 28.4429
29.0242 734 27.0924
29.1416 763 27.6225
29.259 738 27.1662
29.3764 730 27.0185
29.4939 754 27.4591
29.6113 698 26.4197
29.7288 742 27.2397
29.8463 749 27.3679
29.9638 677 26.0192
30.0812 633 25.1595
30.1987 648 25.4558
30.3162 592 24.3311
30.4337 588 24.2487
30.5512 635 25.1992
30.6687 712 26.6833
30.7862 672 25.923
30.9037 722 26.8701
31.0212 727 26.9629
31.1387 703 26.5141
31.2562 763 27.6225
31.3737 668 25.8457
31.4912 689 26.2488
31.6087 719 26.8142
31.7262 713 26.7021
31.8436 708 26.6083
31.9611 679 26.0576
32.0785 683 26.1343
32.1959 701 26.4764
32.3134 714 26.7208
32.4308 647 25.4362
32.5482 658 25.6515
32.6655 655 25.593
32.7829 631 25.1197
32.9002 653 25.5539
33.0176 637 25.2389
33.1349 613 24.7588
33.2522 643 25.3574
33.3694 651 25.5147
33.4867 640 25.2982
33.6039 624 24.98
33.7211 660 25.6905
33.8383 591 24.3105
33.9554 575 23.9792
34.0725 588 24.2487
34.1896 662 25.7294
34.3067 647 25.4362
34.4237 667 25.8263
34.5407 671 25.9037
34.6577 690 26.2679
34.7746 658 25.6515
34.8915 650 25.4951
35.0084 668 25.8457
35.1252 631 25.1197
35.242 585 24.1868
35.3587 612 24.7386
35.4755 657 25.632
35.5921 619 24.8797
35.7088 649 25.4755
35.8254 648 25.4558
35.9419 629 25.0799
36.0584 626 25.02
36.1749 642 25.3377
36.2913 586 24.2074
36.4077 607 24.6374
36.524 589 24.2693
36.6403 555 23.5584
36.7565 541 23.2594
36.8727 517 22.7376
36.9889 446 21.1187
37.1049 383 19.5704
37.221 0 1
37.3369 0 1
37.4529 0 1
37.5687 0 1
37.6845 0 1
37.8003 0 1
37.916 0 1
38.0316 0 1
38.1472 0 1
40.5851 0 1
40.7008 0 1
40.8164 0 1
40.9322 0 1
41.048 0 1
41.1639 0 1
41.2798 0 1
41.3958 0 1
41.5118 0 1
41.6279 0 1
41.744 285 16.8819
41.8602 319 17.8606
41.9765 368 19.1833
42.0928 441 21
42.2091 458 21.4009
42.3255 433 20.8087
42.4419 470 21.6795
42.5584 520 22.8035
42.675 499 22.3383
42.7915 488 22.0907
42.9081 519 22.7816
43.0248 512 22.6274
43.1415 485 22.0227
43.2582 537 23.1733
43.375 516 22.7156
43.4918 504 22.4499
43.6087 543 23.3024
43.7256 476 21.8174
43.8425 478 21.8632
43.9595 438 20.9284
44.0765 474 21.7715
44.1935 460 21.4476
44.3106 455 21.3307
44.4277 453 21.2838
44.5448 498 22.3159
44.6619 507 22.5167
44.7791 485 22.0227
44.8963 536 23.1517
45.0136 507 22.5167
45.1308 561 23.6854
45.2481 519 22.7816
45.3654 510 22.5832
45.4827 531 23.0434
45.6001 575 23.9792
45.7174 541 23.2594
45.8348 552 23.4947
45.9522 499 22.3383
46.0697 521 22.8254
46.1871 500 22.3607
46.3046 459 21.4243
46.422 464 21.5407
46.5395 506 22.4944
46.657 537 23.1733
46.7745 511 22.6053
46.892 496 22.2711
47.0096 507 22.5167
47.1271 489 22.1133
47.2446 479 21.8861
47.3622 515 22.6936
47.4797 478 21.8632
47.5973 503 22.4277
47.7149 482 21.9545
47.8324 452 21.2603
47.95 480 21.9089
48.0675 498 22.3159
48.1851 580 24.0832
48.3027 499 22.3383
48.4202 525 22.9129
48.5378 550 23.4521
48.6554 526 22.9347
48.7729 538 23.1948
48.8904 570 23.8747
49.008 585 24.1868
49.1255 543 23.3024
49.243 569 23.8537
49.3605 560 23.6643
49.478 545 23.3452
49.5955 511 22.6053
49.713 505 22.4722
49.8304 484 22
49.9479 461 21.4709
50.0653 494 22.2261
50.1827 563 23.7276
50.3001 553 23.516
50.4175 500 22.3607
50.5348 517 22.7376
50.6521 501 22.383
50.7694 546 23.3666
50.8867 467 21.6102
51.004 434 20.8327
51.1212 500 22.3607
51.2384 467 21.6102
51.3556 487 22.0681
51.4727 465 21.5639
51.5899 519 22.7816
51.707 524 22.891
51.824 583 24.1454
51.9411 570 23.8747
52.0581 648 25.4558
52.175 700 26.4575
52.2919 703 26.5141
52.4088 714 26.7208
52.5257 725 26.9258
52.6425 651 25.5147
52.7593 653 25.5539
52.876 735 27.1109
52.9927 684 26.1534
53.1094 598 24.454
53.226 642 25.3377
53.3426 616 24.8193
53.4591 819 28.6182
53.5756 1123 33.5112
53.692 1730 41.5933
53.8084 2398 48.9694
53.9248 3237 56.8946
54.0411 4061 63.726
54.1573 4237 65.0922
54.2735 0 1
54.3896 0 1
54.5057 0 1
54.6217 0 1
54.7377 0 1
54.8537 0 1
54.9695 0 1
55.0853 0 1
55.2011 0 1
55.3168 0 1
55.4324 0 1
57.824 0 1
57.9396 0 1
58.0553 0 1
58.1711 0 1
58.2869 0 1
58.4028 0 1
58.5187 0 1
58.6347 0 1
58.7508 0 1
58.8669 0 1
58.983 3096 55.6417
59.0992 3569 59.7411
59.2155 3789 61.5549
59.3318 4050 63.6396
59.4482 4291 65.5057
59.5646 4437 66.6108
59.681 4521 67.2384
59.7975 4421 66.4906
59.9141 3983 63.111
60.0306 3428 58.5491
60.1473 2735 52.2972
60.2639 2224 47.1593
60.3807 1839 42.8836
60.4974 1810 42.5441
60.6142 1777 42.1545
60.731 1681 41
60.8479 1647 40.5832
60.9648 1498 38.704
61.0818 1380 37.1484
61.1987 1294 35.9722
61.3158 1192 34.5254
61.4328 1100 33.1662
61.5499 1019 31.9218
61.667 1001 31.6386
61.7841 932 30.5287
61.9013 835 28.8964
62.0185 832 28.8444
62.1357 748 27.3496
62.253 753 27.4408
62.3702 755 27.4773
62.4875 730 27.0185
62.6049 704 26.533
62.7222 791 28.1247
62.8396 711 26.6646
62.9569 644 25.3772
63.0743 667 25.8263
63.1918 630 25.0998
63.3092 649 25.4755
63.4267 590 24.2899
63.5441 549 23.4307
63.6616 615 24.7992
63.7791 558 23.622
63.8966 606 24.6171
64.0142 563 23.7276
64.1317 556 23.5797
64.2492 577 24.0208
64.3668 574 23.9583
64.4843 553 23.516
64.6019 573 23.9374
64.7195 586 24.2074
64.837 531 23.0434
64.9546 564 23.7487
65.0722 574 23.9583
65.1898 598 24.454
65.3074 518 22.7596
65.4249 544 23.3238
65.5425 498 22.3159
65.6601 518 22.7596
65.7777 549 23.4307
65.8952 515 22.6936
66.0128 537 23.1733
66.1304 550 23.4521
66.2479 551 23.4734
66.3655 512 22.6274
66.483 519 22.7816
66.6005 540 23.2379
66.718 547 23.388
66.8355 501 22.383
66.953 479 21.8861
67.0705 520 22.8035
67.1879 529 23
67.3054 507 22.5167
67.4228 526 22.9347
67.5402 542 23.2809
67.6576 533 23.0868
67.7749 501 22.383
67.8923 517 22.7376
68.0096 539 23.2164
68.1269 535 23.1301
68.2442 536 23.1517
68.3614 517 22.7376
68.4787 551 23.4734
68.5958 520 22.8035
68.713 518 22.7596
68.8302 500 22.3607
68.9473 491 22.1585
69.0643 481 21.9317
69.1814 501 22.383
69.2984 478 21.8632
69.4154 536 23.1517
69.5323 482 21.9545
69.6492 464 21.5407
69.7661 521 22.8254
69.8829 527 22.9565
69.9997 510 22.5832
70.1165 509 22.561
70.2332 487 22.0681
70.3499 472 21.7256
70.4665 483 21.9773
70.5831 436 20.8806
70.6996 411 20.2731
70.8161 390 19.7484
70.9326 371 19.2614
71.049 342 18.4932
71.1653 269 16.4012
71.2817 271 16.4621
71.3979 264 16.2481
71.5141 220 14.8324
71.6303 211 14.5258
71.7464 195 13.9642
71.8624 0 1
71.9784 0 1
72.0944 0 1
72.2102 0 1
72.3261 0 1
72.4418 0 1
72.5575 0 1
72.6732 0 1
75.1054 0 1
75.2209 0 1
75.3365 0 1
75.4521 0 1
75.5678 0 1
75.6835 0 1
75.7993 0 1
75.9151 0 1
76.031 0 1
76.147 306 17.4929
76.263 369 19.2094
76.3791 411 20.2731
76.4952 381 19.5192
76.6113 414 20.347
76.7276 380 19.4936
76.8438 430 20.7364
76.9601 413 20.3224
77.0765 447 21.1424
77.1929 417 20.4206
77.3093 420 20.4939
77.4258 449 21.1896
77.5423 453 21.2838
77.6589 474 21.7715
77.7755 515 22.6936
77.8921 452 21.2603
78.0088 428 20.6882
78.1256 426 20.6398
78.2423 434 20.8327
78.3591 416 20.3961
78.4759 395 19.8746
78.5928 419 20.4695
78.7097 391 19.7737
78.8266 412 20.2978
78.9436 427 20.664
79.0606 448 21.166
79.1776 434 20.8327
79.2946 458 21.4009
79.4117 432 20.7846
79.5288 459 21.4243
79.6459 451 21.2368
79.7631 451 21.2368
79.8802 474 21.7715
79.9974 454 21.3073
80.1147 460 21.4476
80.2319 432 20.7846
80.3491 437 20.9045
80.4664 414 20.347
80.5837 469 21.6564
80.701 396 19.8997
80.8183 431 20.7605
80.9357 408 20.199
81.053 426 20.6398
81.1704 441 21
81.2877 438 20.9284
81.4051 367 19.1572
81.5225 482 21.9545
81.6399 459 21.4243
81.7573 446 21.1187
81.8747 402 20.0499
81.9922 399 19.975
82.1096 450 21.2132
82.227 431 20.7605
82.3444 446 21.1187
82.4619 448 21.166
82.5793 418 20.445
82.6967 448 21.166
82.8142 438 20.9284
82.9316 453 21.2838
83.049 463 21.5174
83.1664 497 22.2935
83.2838 445 21.095
83.4012 489 22.1133
83.5186 472 21.7256
83.636 454 21.3073
83.7534 425 20.6155
83.8708 432 20.7846
83.9881 411 20.2731
84.1055 448 21.166
84.2228 462 21.4942
84.3401 450 21.2132
84.4575 426 20.6398
84.5747 422 20.5426
84.692 488 22.0907
84.8093 437 20.9045
84.9265 495 22.2486
85.0437 443 21.0476
85.1609 479 21.8861
85.2781 474 21.7715
85.3952 488 22.0907
85.5123 473 21.7486
85.6294 447 21.1424
85.7465 435 20.8567
85.8636 420 20.4939
85.9806 463 21.5174
86.0976 418 20.445
86.2145 427 20.664
86.3315 466 21.587
86.4484 440 20.9762
86.5652 441 21
86.682 447 21.1424
86.7988 473 21.7486
86.9156 477 21.8403
87.0323 455 21.3307
87.149 489 22.1133
87.2657 483 21.9773
87.3823 435 20.8567
87.4988 433 20.8087
87.6154 391 19.7737
87.7318 394 19.8494
87.8483 401 20.025
87.9647 362 19.0263
88.081 352 18.7617
88.1973 341 18.4662
88.3136 305 17.4642
88.4298 308 17.5499
88.546 303 17.4069
88.6621 275 16.5831
88.7781 269 16.4012
88.8942 0 1
89.0101 0 1
89.126 0 1
89.2419 0 1
89.3577 0 1
89.4734 0 1
89.5891 0 1
89.7047 0 1
89.8203 0 1
89.9358 0 1
92.3269 0 1
92.4424 0 1
92.558 0 1
92.6736 0 1
92.7893 0 1
92.905 0 1
93.0208 0 1
93.1366 0 1
93.2525 0 1
93.3685 0 1
93.4845 0 1
93.6005 357 18.8944
93.7167 380 19.4936
93.8328 409 20.2237
93.949 446 21.1187
94.0653 448 21.166
94.1816 424 20.5913
94.2979 444 21.0713
94.4143 465 21.5639
94.5307 453 21.2838
94.6472 448 21.166
94.7637 469 21.6564
94.8803 471 21.7025
94.9969 426 20.6398
95.1135 409 20.2237
95.2302 420 20.4939
95.3469 487 22.0681
95.4637 480 21.9089
95.5805 446 21.1187
95.6973 465 21.5639
95.8142 460 21.4476
95.9311 428 20.6882
96.048 492 22.1811
96.1649 493 22.2036
96.2819 519 22.7816
96.3989 487 22.0681
96.516 448 21.166
96.633 469 21.6564
96.7501 460 21.4476
96.8673 454 21.3073
96.9844 431 20.7605
97.1016 413 20.3224
97.2188 465 21.5639
97.336 455 21.3307
97.4532 450 21.2132
97.5704 483 21.9773
97.6877 498 22.3159
97.805 479 21.8861
97.9223 499 22.3383
98.0396 502 22.4054
98.1569 509 22.561
98.2743 505 22.4722
98.3916 486 22.0454
98.509 498 22.3159
98.6264 483 21.9773
98.7438 445 21.095
98.8612 455 21.3307
98.9786 500 22.3607
99.096 494 22.2261
99.2134 512 22.6274
99.3308 478 21.8632
99.4482 546 23.3666
99.5656 504 22.4499
99.6831 522 22.8473
99.8005 513 22.6495
99.9179 477 21.8403
100.035 496 22.2711
100.153 479 21.8861
100.27 479 21.8861
100.388 483 21.9773
100.505 466 21.587
100.622 481 21.9317
100.74 427 20.664
100.857 432 20.7846
100.975 499 22.3383
101.092 529 23
101.209 488 22.0907
101.327 527 22.9565
101.444 580 24.0832
101.561 601 24.5153
101.679 573 23.9374
101.796 617 24.8395
101.913 578 24.0416
102.03 579 24.0624
102.148 538 23.1948
102.265 493 22.2036
102.382 481 21.9317
102.499 542 23.2809
102.616 570 23.8747
102.733 553 23.516
102.851 572 23.9165
102.968 595 24.3926
103.085 562 23.7065
103.202 590 24.2899
103.319 646 25.4165
103.436 537 23.1733
103.552 621 24.9199
103.669 593 24.3516
103.786 606 24.6171
103.903 595 24.3926
104.02 636 25.219
104.137 651 25.5147
104.253 652 25.5343
104.37 712 26.6833
104.487 765 27.6586
104.603 775 27.8388
104.72 860 29.3258
104.836 837 28.931
104.953 816 28.5657
105.069 842 29.0172
105.186 840 28.9828
105.302 799 28.2666
105.418 811 28.4781
105.535 766 27.6767
105.651 637 25.2389
105.767 614 24.779
105.883 545 23.3452
105.999 564 23.7487
106.115 0 1
106.231 0 1
106.347 0 1
106.463 0 1
106.579 0 1
106.694 0 1
106.81 0 1
106.926 0 1
107.041 0 1
107.157 0 1
109.576 0 1
109.692 0 1
109.807 0 1
109.923 0 1
110.039 0 1
110.155 0 1
110.27 0 1
110.386 0 1
110.502 0 1
110.618 432 20.7846
110.735 507 22.5167
110.851 522 22.8473
110.967 520 22.8035
111.083 536 23.1517
111.199 610 24.6982
111.316 671 25.9037
111.432 656 25.6125
111.549 711 26.6646
111.665 789 28.0891
111.782 787 28.0535
111.898 876 29.5973
112.015 855 29.2404
112.132 905 30.0832
112.248 908 30.133
112.365 806 28.3901
112.482 724 26.9072
112.599 653 25.5539
112.716 688 26.2298
112.832 782 27.9643
112.949 1001 31.6386
113.066 1145 33.8378
113.183 1345 36.6742
113.3 1309 36.1801
113.417 1430 37.8153
113.534 1533 39.1535
113.652 1614 40.1746
113.769 1627 40.3361
113.886 1761 41.9643
114.003 1733 41.6293
114.12 1818 42.638
114.238 1813 42.5793
114.355 1652 40.6448
114.472 1550 39.37
114.589 1212 34.8138
114.707 1247 35.3129
114.824 1446 38.0263
114.942 1503 38.7685
115.059 1506 38.8072
115.176 1537 39.2046
115.294 1512 38.8844
115.411 1460 38.2099
115.529 1302 36.0832
115.646 1048 32.3728
115.764 954 30.8869
115.881 822 28.6705
115.999 698 26.4197
116.116 551 23.4734
116.234 479 21.8861
116.351 475 21.7945
116.469 447 21.1424
116.586 409 20.2237
116.704 432 20.7846
116.821 418 20.445
116.939 444 21.0713
117.056 410 20.2485
117.174 430 20.7364
117.291 421 20.5183
117.409 434 20.8327
117.526 461 21.4709
117.644 429 20.7123
117.761 428 20.6882
117.879 385 19.6214
117.996 356 18.868
118.114 415 20.3715
118.231 422 20.5426
118.349 387 19.6723
118.466 367 19.1572
118.584 428 20.6882
118.701 443 21.0476
118.819 429 20.7123
118.936 462 21.4942
119.053 413 20.3224
119.171 410 20.2485
119.288 441 21
119.405 396 19.8997
119.523 398 19.9499
119.64 374 19.3391
119.757 357 18.8944
119.875 332 18.2209
119.992 369 19.2094
120.109 390 19.7484
120.226 392 19.799
120.343 391 19.7737
120.46 376 19.3907
120.578 358 18.9209
120.695 405 20.1246
120.812 367 19.1572
120.929 467 21.6102
121.046 419 20.4695
121.163 408 20.199
121.279 395 19.8746
121.396 405 20.1246
121.513 351 18.735
121.63 363 19.0526
121.747 358 18.9209
121.863 332 18.2209
121.98 344 18.5472
122.097 340 18.4391
122.213 319 17.8606
122.33 295 17.1756
122.446 283 16.8226
122.563 316 17.7764
122.679 310 17.6068
122.795 302 17.3781
122.912 278 16.6733
123.028 253 15.906
123.144 186 13.6382
123.26 185 13.6015
123.377 0 1
123.493 0 1
123.609 0 1
123.725 0 1
123.84 0 1
123.956 0 1
124.072 0 1
124.188 0 1
124.303 0 1
124.419 0 1
126.852 0 1
126.968 0 1
127.083 0 1
127.199 0 1
127.315 0 1
127.431 0 1
127.547 0 1
127.663 0 1
127.779 0 1
127.895 0 1
128.011 0 1
128.127 0 1
128.243 0 1
128.359 429 20.7123
128.476 415 20.3715
128.592 378 19.4422
128.708 386 19.6469
128.825 389 19.7231
128.941 432 20.7846
129.058 408 20.199
129.174 424 20.5913
129.291 435 20.8567
129.408 443 21.0476
129.524 424 20.5913
129.641 451 21.2368
129.758 468 21.6333
129.875 439 20.9523
129.992 517 22.7376
130.108 503 22.4277
130.225 477 21.8403
130.342 550 23.4521
130.459 517 22.7376
130.576 479 21.8861
130.693 480 21.9089
130.81 467 21.6102
130.928 506 22.4944
131.045 538 23.1948
131.162 542 23.2809
131.279 591 24.3105
131.396 611 24.7184
131.513 708 26.6083
131.631 721 26.8514
131.748 739 27.1846
131.865 747 27.3313
131.983 771 27.7669
132.1 764 27.6405
132.217 779 27.9106
132.335 736 27.1293
132.452 805 28.3725
132.57 910 30.1662
132.687 917 30.282
132.804 985 31.3847
132.922 982 31.3369
133.039 1000 31.6228
133.157 1099 33.1512
133.274 1063 32.6037
133.392 1110 33.3167
133.509 1127 33.5708
133.627 1152 33.9411
133.744 1138 33.7343
133.862 1130 33.6155
133.979 1105 33.2415
134.097 1054 32.4654
134.214 918 30.2985
134.332 854 29.2233
134.449 883 29.7153
134.567 951 30.8383
134.684 1017 31.8904
134.802 1080 32.8634
134.919 1085 32.9393
135.037 1118 33.4365
135.154 1082 32.8938
135.272 1093 33.0606
135.389 1077 32.8177
135.507 1119 33.4515
135.624 1133 33.6601
135.742 1029 32.078
135.859 1015 31.8591
135.977 994 31.5278
136.094 1112 33.3467
136.211 1127 33.5708
136.329 1098 33.1361
136.446 1113 33.3617
136.564 1098 33.1361
136.681 1059 32.5423
136.798 1156 34
136.915 1109 33.3017
137.033 1113 33.3617
137.15 1128 33.5857
137.267 1080 32.8634
137.384 1089 33
137.502 1072 32.7414
137.619 1029 32.078
137.736 1040 32.249
137.853 899 29.9833
137.97 845 29.0689
138.087 858 29.2916
138.204 983 31.3528
138.321 925 30.4138
138.438 1016 31.8748
138.555 1063 32.6037
138.672 1007 31.7333
138.788 1017 31.8904
138.905 1032 32.1248
139.022 1013 31.8277
139.139 934 30.5614
139.255 921 30.348
139.372 841 29
139.488 786 28.0357
139.605 722 26.8701
139.721 735 27.1109
139.838 699 26.4386
139.954 739 27.1846
140.071 646 25.4165
140.187 645 25.3969
140.303 623 24.96
140.419 549 23.4307
140.535 514 22.6716
140.652 533 23.0868
140.768 0 1
140.884 0 1
141 0 1
141.115 0 1
141.231 0 1
141.347 0 1
141.463 0 1
141.578 0 1
141.694 0 1
144.104 0 1
144.219 0 1
144.335 0 1
144.45 0 1
144.566 0 1
144.682 0 1
144.798 0 1
144.914 0 1
145.03 0 1
145.146 816 28.5657
145.262 857 29.2746
145.378 908 30.133
145.494 888 29.7993
145.61 979 31.289
145.726 982 31.3369
145.842 936 30.5941
145.959 944 30.7246
146.075 964 31.0483
146.192 1023 31.9844
146.308 1009 31.7648
146.425 911 30.1828
146.541 879 29.6479
146.658 833 28.8617
146.774 866 29.4279
146.891 872 29.5296
147.008 931 30.5123
147.125 978 31.273
147.241 948 30.7896
147.358 1019 31.9218
147.475 986 31.4006
147.592 964 31.0483
147.709 936 30.5941
147.826 966 31.0805
147.943 959 30.9677
148.06 932 30.5287
148.177 935 30.5778
148.294 944 30.7246
148.411 957 30.9354
148.528 946 30.7571
148.645 923 30.3809
148.762 970 31.1448
148.88 962 31.0161
148.997 996 31.5595
149.114 996 31.5595
149.231 1019 31.9218
149.349 1051 32.4191
149.466 993 31.5119
149.583 1056 32.4962
149.701 994 31.5278
149.818 1003 31.6702
149.935 992 31.496
150.053 1001 31.6386
150.17 913 30.2159
150.287 885 29.7489
150.405 894 29.8998
150.522 852 29.189
150.64 871 29.5127
150.757 998 31.5911
150.875 976 31.241
150.992 991 31.4802
151.11 956 30.9192
151.227 916 30.2655
151.344 958 30.9516
151.462 959 30.9677
151.579 1021 31.9531
151.697 994 31.5278
151.814 955 30.9031
151.932 998 31.5911
152.049 1010 31.7805
152.167 1009 31.7648
152.284 1004 31.686
152.402 984 31.3688
152.519 1019 31.9218
152.636 1073 32.7567
152.754 1067 32.665
152.871 1012 31.8119
152.989 1021 31.9531
153.106 1072 32.7414
153.223 1051 32.4191
153.341 995 31.5436
153.458 986 31.4006
153.575 990 31.4643
153.693 993 31.5119
153.81 979 31.289
153.927 965 31.0644
154.044 955 30.9031
154.162 992 31.496
154.279 1086 32.9545
154.396 1169 34.1906
154.513 1201 34.6554
154.63 1262 35.5246
154.747 1284 35.8329
154.864 1397 37.3765
154.981 1423 37.7227
155.098 1503 38.7685
155.215 1735 41.6533
155.332 1900 43.589
155.449 2057 45.3542
155.566 2243 47.3603
155.683 2394 48.9285
155.8 2429 49.2849
155.917 2647 51.449
156.033 2805 52.9623
156.15 0 1
156.267 0 1
156.383 0 1
156.5 0 1
156.617 0 1
156.733 0 1
156.85 0 1
156.966 0 1
157.082 0 1
157.199 0 1
157.315 0 1
157.431 0 1
157.547 0 1
157.664 0 1
157.78 0 1
157.896 0 1
158.012 0 1
158.128 0 1
158.244 0 1
158.359 0 1
158.475 0 1
158.591 0 1
158.706 0 1
