
6.15755 0 1
6.2731 0 1
6.3887 0 1
6.50437 0 1
6.62009 0 1
6.73587 0 1
6.8517 0 1
6.96759 0 1
7.08353 0 1
7.19952 0 1
7.31557 0 1
7.43166 0 1
7.54781 0 1
7.664 0 1
7.78024 0 1
7.89653 0 1
8.01286 0 1
8.12924 0 1
8.24567 0 1
8.36213 0 1
8.47864 0 1
8.59519 0 1
8.71178 0 1
8.82841 0 1
8.94508 0 1
9.06179 0 1
9.17853 0 1
9.29531 0 1
9.41212 0 1
9.52897 0 1
9.64584 0 1
9.76276 0 1
9.8797 0 1
9.99667 0 1
10.1137 0 1
10.2307 0 1
10.3478 0 1
10.4648 0 1
10.5819 0 1
10.6991 0 1
10.8162 0 1
10.9334 0 1
11.0506 0 1
11.1678 0 1
11.285 0 1
11.4023 0 1
11.5196 0 1
11.6369 0 1
11.7542 0 1
11.8715 0 1
11.9888 0 1
12.1062 0 1
12.2235 0 1
12.3409 0 1
12.4582 0 1
12.5756 0 1
12.693 0 1
12.8104 0 1
12.9278 0 1
13.0452 0 1
13.1626 0 1
13.28 0 1
13.3974 0 1
13.5149 0 1
13.6323 0 1
13.7497 0 1
13.8671 0 1
13.9845 0 1
14.1019 0 1
14.2193 0 1
14.3367 0 1
14.4541 0 1
14.5714 0 1
14.6888 0 1
14.8062 0 1
14.9235 0 1
15.0408 1583 39.7869
15.1581 1660 40.7431
15.2755 1721 41.4849
15.3927 1694 41.1582
15.51 1725 41.5331
15.6273 1645 40.5586
15.7445 1687 41.0731
15.8617 1570 39.6232
15.9789 1638 40.4722
16.0961 1655 40.6817
16.2132 1608 40.0999
16.3304 1719 41.4608
16.4475 1690 41.1096
16.5646 1755 41.8927
16.6816 1875 43.3013
16.7986 1979 44.486
16.9156 2091 45.7275
17.0326 2258 47.5184
17.1496 2179 46.6798
17.2665 2326 48.2286
17.3833 2287 47.8226
17.5002 2231 47.2335
17.617 2340 48.3735
17.7338 2272 47.6655
17.8505 2319 48.156
17.9672 2359 48.5695
18.0839 2408 49.0714
18.2005 2509 50.0899
18.3171 2420 49.1935
18.4337 2438 49.3761
18.5502 2532 50.319
18.6666 2515 50.1498
18.7831 2372 48.7032
18.8994 2456 49.558
19.0158 2415 49.1426
19.1321 2352 48.4974
19.2483 2235 47.2758
19.3645 2213 47.0425
19.4806 2198 46.8828
19.5967 2132 46.1736
19.7128 1889 43.4626
19.8288 1681 41
19.9447 1460 38.2099
20.0606 0 1
20.1764 0 1
20.2922 0 1
20.4079 0 1
20.5236 0 1
20.6392 0 1
20.7548 0 1
20.8702 0 1
23.3078 0 1
23.4233 0 1
23.539 0 1
23.6547 0 1
23.7704 0 1
23.8862 0 1
24.0021 0 1
24.118 0 1
24.234 0 1
24.35 0 1
24.4661 2148 46.3465
24.5822 2210 47.0106
24.6984 2127 46.1194
24.8146 2213 47.0425
24.9309 2201 46.9148
25.0472 1934 43.9773
25.1636 1723 41.509
25.28 1802 42.45
25.3965 1834 42.8252
25.513 2026 45.0111
25.6296 2189 46.7868
25.7462 2368 48.6621
25.8628 2514 50.1398
25.9795 2540 50.3984
26.0962 2493 49.93
26.213 2572 50.7149
26.3298 2552 50.5173
26.4466 2507 50.07
26.5635 2505 50.05
26.6804 2552 50.5173
26.7973 2582 50.8134
26.9143 2593 50.9215
27.0313 2647 51.449
27.1483 2456 49.558
27.2653 2556 50.5569
27.3824 2658 51.5558
27.4996 2449 49.4874
27.6167 2558 50.5767
27.7339 2489 49.8899
27.8511 2342 48.3942
27.9683 2324 48.2079
28.0855 2356 48.5386
28.2028 2399 48.9796
28.3201 2307 48.0312
28.4374 2227 47.1911
28.5547 1974 44.4297
28.6721 1817 42.6263
28.7894 1632 40.398
28.9068 1768 42.0476
29.0242 1778 42.1663
29.1416 1915 43.7607
29.259 2107 45.9021
29.3764 2286 47.8121
29.4939 2376 48.7442
29.6113 2385 48.8365
29.7288 2421 49.2037
29.8463 2484 49.8397
29.9638 2415 49.1426
30.0812 2409 49.0816
30.1987 2544 50.4381
30.3162 2459 49.5883
30.4337 2448 49.4773
30.5512 2448 49.4773
30.6687 2429 49.2849
30.7862 2401 49
30.9037 2404 49.0306
31.0212 2399 48.9796
31.1387 2353 48.5077
31.2562 2407 49.0612
31.3737 2266 47.6025
31.4912 2243 47.3603
31.6087 2279 47.7389
31.7262 2343 48.4045
31.8436 2303 47.9896
31.9611 2197 46.8722
32.0785 2010 44.833
32.1959 1779 42.1782
32.3134 1667 40.8289
32.4308 1696 41.1825
32.5482 1755 41.8927
32.6655 1851 43.0232
32.7829 1977 44.4635
32.9002 2259 47.5289
33.0176 2362 48.6004
33.1349 2382 48.8057
33.2522 2359 48.5695
33.3694 2392 48.9081
33.4867 2391 48.8979
33.6039 2389 48.8774
33.7211 2436 49.3559
33.8383 2389 48.8774
33.9554 2421 49.2037
34.0725 2425 49.2443
34.1896 2286 47.8121
34.3067 2342 48.3942
34.4237 2246 47.392
34.5407 2291 47.8644
34.6577 2272 47.6655
34.7746 2349 48.4665
34.8915 2236 47.2864
35.0084 2229 47.2123
35.1252 2301 47.9687
35.242 2247 47.4025
35.3587 2314 48.1041
35.4755 2348 48.4562
35.5921 2155 46.422
35.7088 2094 45.7602
35.8254 1892 43.4971
35.9419 1694 41.1582
36.0584 1562 39.5221
36.1749 1715 41.4126
36.2913 1630 40.3733
36.4077 1786 42.2611
36.524 1963 44.3058
36.6403 2097 45.793
36.7565 2190 46.7974
36.8727 2234 47.2652
36.9889 2258 47.5184
37.1049 2156 46.4327
37.221 0 1
37.3369 0 1
37.4529 0 1
37.5687 0 1
37.6845 0 1
37.8003 0 1
37.916 0 1
38.0316 0 1
38.1472 0 1
40.5851 0 1
40.7008 0 1
40.8164 0 1
40.9322 0 1
41.048 0 1
41.1639 0 1
41.2798 0 1
41.3958 0 1
41.5118 0 1
41.6279 0 1
41.744 1485 38.5357
41.8602 1694 41.1582
41.9765 1731 41.6053
42.0928 1866 43.1972
42.2091 1908 43.6807
42.3255 1898 43.566
42.4419 1827 42.7434
42.5584 1841 42.9069
42.675 1868 43.2204
42.7915 1938 44.0227
42.9081 1793 42.3438
43.0248 1739 41.7013
43.1415 1672 40.8901
43.2582 1719 41.4608
43.375 1722 41.497
43.4918 1756 41.9047
43.6087 1754 41.8808
43.7256 1796 42.3792
43.8425 1699 41.2189
43.9595 1706 41.3038
44.0765 1653 40.6571
44.1935 1600 40
44.3106 1623 40.2865
44.4277 1569 39.6106
44.5448 1355 36.8103
44.6619 1283 35.819
44.7791 1112 33.3467
44.8963 1037 32.2025
45.0136 1064 32.619
45.1308 1066 32.6497
45.2481 1142 33.7935
45.3654 1235 35.1426
45.4827 1392 37.3095
45.6001 1343 36.647
45.7174 1396 37.3631
45.8348 1338 36.5787
45.9522 1297 36.0139
46.0697 1370 37.0135
46.1871 1350 36.7423
46.3046 1369 37
46.422 1316 36.2767
46.5395 1273 35.6791
46.657 1265 35.5668
46.7745 1234 35.1283
46.892 1233 35.1141
47.0096 1286 35.8608
47.1271 1286 35.8608
47.2446 1312 36.2215
47.3622 1275 35.7071
47.4797 1193 34.5398
47.5973 1203 34.6843
47.7149 1192 34.5254
47.8324 1110 33.3167
47.95 1148 33.8821
48.0675 1046 32.3419
48.1851 983 31.3528
48.3027 891 29.8496
48.4202 788 28.0713
48.5378 784 28
48.6554 769 27.7308
48.7729 866 29.4279
48.8904 901 30.0167
49.008 999 31.607
49.1255 987 31.4166
49.243 1036 32.187
49.3605 1076 32.8024
49.478 1052 32.4345
49.5955 1094 33.0757
49.713 1084 32.9242
49.8304 1078 32.8329
49.9479 1006 31.7175
50.0653 1029 32.078
50.1827 1037 32.2025
50.3001 1126 33.5559
50.4175 1116 33.4066
50.5348 1172 34.2345
50.6521 1235 35.1426
50.7694 1298 36.0278
50.8867 1250 35.3553
51.004 1274 35.6931
51.1212 1280 35.7771
51.2384 1398 37.3898
51.3556 1361 36.8917
51.4727 1321 36.3456
51.5899 1272 35.6651
51.707 1229 35.0571
51.824 1098 33.1361
51.9411 1100 33.1662
52.0581 1096 33.1059
52.175 1199 34.6266
52.2919 1261 35.5106
52.4088 1383 37.1887
52.5257 1554 39.4208
52.6425 1673 40.9023
52.7593 1627 40.3361
52.876 1752 41.8569
52.9927 1767 42.0357
53.1094 1754 41.8808
53.226 1734 41.6413
53.3426 1756 41.9047
53.4591 1808 42.5206
53.5756 1712 41.3763
53.692 1601 40.0125
53.8084 1736 41.6653
53.9248 1731 41.6053
54.0411 1888 43.4511
54.1573 1920 43.8178
54.2735 0 1
54.3896 0 1
54.5057 0 1
54.6217 0 1
54.7377 0 1
54.8537 0 1
54.9695 0 1
55.0853 0 1
55.2011 0 1
55.3168 0 1
55.4324 0 1
57.824 0 1
57.9396 0 1
58.0553 0 1
58.1711 0 1
58.2869 0 1
58.4028 0 1
58.5187 0 1
58.6347 0 1
58.7508 0 1
58.8669 0 1
58.983 1822 42.6849
59.0992 2053 45.31
59.2155 2118 46.0217
59.3318 2265 47.592
59.4482 2258 47.5184
59.5646 2216 47.0744
59.681 2267 47.613
59.7975 2326 48.2286
59.9141 2328 48.2494
60.0306 2131 46.1628
60.1473 2142 46.2817
60.2639 1975 44.441
60.3807 1860 43.1277
60.4974 1828 42.7551
60.6142 1714 41.4005
60.731 1616 40.1995
60.8479 1719 41.4608
60.9648 1736 41.6653
61.0818 1834 42.8252
61.1987 1882 43.382
61.3158 1980 44.4972
61.4328 2016 44.8999
61.5499 1994 44.6542
61.667 1957 44.238
61.7841 1928 43.909
61.9013 2000 44.7214
62.0185 1859 43.1161
62.1357 1880 43.359
62.253 1876 43.3128
62.3702 1790 42.3084
62.4875 1886 43.4281
62.6049 1918 43.795
62.7222 1994 44.6542
62.8396 1998 44.699
62.9569 2042 45.1885
63.0743 2096 45.7821
63.1918 1924 43.8634
63.3092 2002 44.7437
63.4267 1993 44.643
63.5441 1891 43.4856
63.6616 1865 43.1856
63.7791 1772 42.0951
63.8966 1682 41.0122
64.0142 1643 40.5339
64.1317 1541 39.2556
64.2492 1499 38.7169
64.3668 1501 38.7427
64.4843 1578 39.724
64.6019 1672 40.8901
64.7195 1724 41.5211
64.837 1752 41.8569
64.9546 1745 41.7732
65.0722 1839 42.8836
65.1898 1792 42.332
65.3074 1887 43.4396
65.4249 1717 41.4367
65.5425 1710 41.3521
65.6601 1635 40.4351
65.7777 1617 40.2119
65.8952 1742 41.7373
66.0128 1729 41.5812
66.1304 1754 41.8808
66.2479 1804 42.4735
66.3655 1859 43.1161
66.483 1886 43.4281
66.6005 1960 44.2719
66.718 1966 44.3396
66.8355 1978 44.4747
66.953 2011 44.8442
67.0705 1862 43.1509
67.1879 1762 41.9762
67.3054 1764 42
67.4228 1653 40.6571
67.5402 1536 39.1918
67.6576 1489 38.5876
67.7749 1453 38.1182
67.8923 1507 38.8201
68.0096 1547 39.3319
68.1269 1631 40.3856
68.2442 1647 40.5832
68.3614 1748 41.8091
68.4787 1823 42.6966
68.5958 1840 42.8952
68.713 1897 43.5546
68.8302 1876 43.3128
68.9473 1796 42.3792
69.0643 1837 42.8602
69.1814 1745 41.7732
69.2984 1672 40.8901
69.4154 1742 41.7373
69.5323 1730 41.5933
69.6492 1841 42.9069
69.7661 1935 43.9886
69.8829 2028 45.0333
69.9997 2127 46.1194
70.1165 2130 46.1519
70.2332 2278 47.7284
70.3499 2203 46.9361
70.4665 2167 46.551
70.5831 2204 46.9468
70.6996 1995 44.6654
70.8161 2035 45.111
70.9326 1978 44.4747
71.049 1901 43.6005
71.1653 1768 42.0476
71.2817 1679 40.9756
71.3979 1597 39.9625
71.5141 1541 39.2556
71.6303 1458 38.1838
71.7464 1302 36.0832
71.8624 0 1
71.9784 0 1
72.0944 0 1
72.2102 0 1
72.3261 0 1
72.4418 0 1
72.5575 0 1
72.6732 0 1
75.1054 0 1
75.2209 0 1
75.3365 0 1
75.4521 0 1
75.5678 0 1
75.6835 0 1
75.7993 0 1
75.9151 0 1
76.031 0 1
76.147 1738 41.6893
76.263 1933 43.9659
76.3791 1863 43.1625
76.4952 1826 42.7317
76.6113 1719 41.4608
76.7276 1672 40.8901
76.8438 1598 39.975
76.9601 1656 40.694
77.0765 1668 40.8412
77.1929 1830 42.7785
77.3093 1859 43.1161
77.4258 2067 45.4643
77.5423 2037 45.1331
77.6589 2040 45.1664
77.7755 1960 44.2719
77.8921 1923 43.852
78.0088 1877 43.3244
78.1256 1824 42.7083
78.2423 1758 41.9285
78.3591 1645 40.5586
78.4759 1590 39.8748
78.5928 1594 39.9249
78.7097 1835 42.8369
78.8266 1918 43.795
78.9436 2166 46.5403
79.0606 2129 46.1411
79.1776 2108 45.913
79.2946 2082 45.6289
79.4117 2145 46.3141
79.5288 2116 46
79.6459 2031 45.0666
79.7631 2057 45.3542
79.8802 1946 44.1135
79.9974 1967 44.3509
80.1147 1720 41.4729
80.2319 1647 40.5832
80.3491 1551 39.3827
80.4664 1437 37.9078
80.5837 1575 39.6863
80.701 1586 39.8246
80.8183 1650 40.6202
80.9357 1727 41.5572
81.053 1831 42.7902
81.1704 1854 43.0581
81.2877 1838 42.8719
81.4051 1761 41.9643
81.5225 1732 41.6173
81.6399 1700 41.2311
81.7573 1584 39.7995
81.8747 1465 38.2753
81.9922 1446 38.0263
82.1096 1350 36.7423
82.227 1471 38.3536
82.3444 1577 39.7115
82.4619 1584 39.7995
82.5793 1799 42.4146
82.6967 1814 42.5911
82.8142 1837 42.8602
82.9316 1856 43.0813
83.049 1832 42.8019
83.1664 1821 42.6732
83.2838 1650 40.6202
83.4012 1743 41.7493
83.5186 1590 39.8748
83.636 1562 39.5221
83.7534 1445 38.0132
83.8708 1427 37.7757
83.9881 1292 35.9444
84.1055 1286 35.8608
84.2228 1320 36.3318
84.3401 1388 37.2559
84.4575 1438 37.921
84.5747 1588 39.8497
84.692 1612 40.1497
84.8093 1637 40.4599
84.9265 1648 40.5956
85.0437 1585 39.8121
85.1609 1575 39.6863
85.2781 1479 38.4578
85.3952 1469 38.3275
85.5123 1342 36.6333
85.6294 1300 36.0555
85.7465 1376 37.0945
85.8636 1479 38.4578
85.9806 1635 40.4351
86.0976 1742 41.7373
86.2145 1916 43.7721
86.3315 2020 44.9444
86.4484 1874 43.2897
86.5652 1925 43.8748
86.682 1987 44.5758
86.7988 2006 44.7884
86.9156 1937 44.0114
87.0323 2032 45.0777
87.149 1837 42.8602
87.2657 1775 42.1307
87.3823 1766 42.0238
87.4988 1616 40.1995
87.6154 1634 40.4228
87.7318 1659 40.7308
87.8483 1657 40.7063
87.9647 1751 41.845
88.081 1855 43.0697
88.1973 2025 45
88.3136 2079 45.5961
88.4298 2077 45.5741
88.546 1900 43.589
88.6621 2059 45.3762
88.7781 1873 43.2782
88.8942 0 1
89.0101 0 1
89.126 0 1
89.2419 0 1
89.3577 0 1
89.4734 0 1
89.5891 0 1
89.7047 0 1
89.8203 0 1
89.9358 0 1
92.3269 0 1
92.4424 0 1
92.558 0 1
92.6736 0 1
92.7893 0 1
92.905 0 1
93.0208 0 1
93.1366 0 1
93.2525 0 1
93.3685 0 1
93.4845 0 1
93.6005 1948 44.1362
93.7167 2040 45.1664
93.8328 1959 44.2606
93.949 1917 43.7836
94.0653 1948 44.1362
94.1816 1946 44.1135
94.2979 1837 42.8602
94.4143 1675 40.9268
94.5307 1518 38.9615
94.6472 1465 38.2753
94.7637 1495 38.6652
94.8803 1653 40.6571
94.9969 1869 43.2319
95.1135 1962 44.2945
95.2302 2068 45.4753
95.3469 2137 46.2277
95.4637 2137 46.2277
95.5805 2194 46.8402
95.6973 2238 47.3075
95.8142 2120 46.0435
95.9311 2170 46.5833
96.048 2127 46.1194
96.1649 2148 46.3465
96.2819 2003 44.7549
96.3989 1949 44.1475
96.516 1762 41.9762
96.633 1732 41.6173
96.7501 1763 41.9881
96.8673 1718 41.4488
96.9844 1752 41.8569
97.1016 1804 42.4735
97.2188 1895 43.5316
97.336 2066 45.4533
97.4532 2080 45.607
97.5704 2021 44.9555
97.6877 2023 44.9778
97.805 1924 43.8634
97.9223 1876 43.3128
98.0396 1706 41.3038
98.1569 1537 39.2046
98.2743 1389 37.2693
98.3916 1352 36.7696
98.509 1541 39.2556
98.6264 1704 41.2795
98.7438 1953 44.1928
98.8612 1994 44.6542
98.9786 2161 46.4866
99.096 2045 45.2217
99.2134 2113 45.9674
99.3308 2218 47.0956
99.4482 2146 46.3249
99.5656 2105 45.8803
99.6831 2108 45.913
99.8005 2025 45
99.9179 2024 44.9889
100.035 1852 43.0349
100.153 1832 42.8019
100.27 1788 42.2847
100.388 1826 42.7317
100.505 1796 42.3792
100.622 1879 43.3474
100.74 1924 43.8634
100.857 1921 43.8292
100.975 1993 44.643
101.092 1960 44.2719
101.209 1986 44.5646
101.327 2002 44.7437
101.444 1895 43.5316
101.561 1861 43.1393
101.679 1549 39.3573
101.796 1397 37.3765
101.913 1370 37.0135
102.03 1470 38.3406
102.148 1729 41.5812
102.265 1975 44.441
102.382 2203 46.9361
102.499 2152 46.3897
102.616 2173 46.6154
102.733 2251 47.4447
102.851 2343 48.4045
102.968 2215 47.0638
103.085 2256 47.4974
103.202 2217 47.085
103.319 2186 46.7547
103.436 2109 45.9239
103.552 1991 44.6206
103.669 2024 44.9889
103.786 1915 43.7607
103.903 1846 42.9651
104.02 1911 43.715
104.137 2038 45.1442
104.253 2108 45.913
104.37 2129 46.1411
104.487 2168 46.5618
104.603 2191 46.8081
104.72 2207 46.9787
104.836 2137 46.2277
104.953 2049 45.2659
105.069 1874 43.2897
105.186 1761 41.9643
105.302 1563 39.5348
105.418 1551 39.3827
105.535 1700 41.2311
105.651 2087 45.6837
105.767 2360 48.5798
105.883 2454 49.5379
105.999 2525 50.2494
106.115 0 1
106.231 0 1
106.347 0 1
106.463 0 1
106.579 0 1
106.694 0 1
106.81 0 1
106.926 0 1
107.041 0 1
107.157 0 1
109.576 0 1
109.692 0 1
109.807 0 1
109.923 0 1
110.039 0 1
110.155 0 1
110.27 0 1
110.386 0 1
110.502 0 1
110.618 1658 40.7185
110.735 1963 44.3058
110.851 2227 47.1911
110.967 2330 48.2701
111.083 2368 48.6621
111.199 2386 48.8467
111.316 2468 49.679
111.432 2463 49.6286
111.549 2436 49.3559
111.665 2426 49.2544
111.782 2295 47.9062
111.898 2161 46.4866
112.015 2146 46.3249
112.132 2111 45.9456
112.248 2008 44.8107
112.365 2099 45.8148
112.482 2047 45.2438
112.599 2169 46.5725
112.716 2129 46.1411
112.832 2162 46.4973
112.949 2188 46.7761
113.066 2146 46.3249
113.183 2100 45.8258
113.3 2122 46.0652
113.417 2137 46.2277
113.534 1991 44.6206
113.652 1766 42.0238
113.769 1522 39.0128
113.886 1467 38.3014
114.003 1463 38.2492
114.12 1545 39.3065
114.238 1972 44.4072
114.355 2206 46.9681
114.472 2292 47.8748
114.589 2374 48.7237
114.707 2283 47.7807
114.824 2449 49.4874
114.942 2486 49.8598
115.059 2512 50.1199
115.176 2377 48.7545
115.294 2439 49.3862
115.411 2385 48.8365
115.529 2278 47.7284
115.646 2208 46.9894
115.764 2199 46.8935
115.881 2125 46.0977
115.999 2207 46.9787
116.116 2236 47.2864
116.234 2279 47.7389
116.351 2283 47.7807
116.469 2357 48.5489
116.586 2272 47.6655
116.704 2296 47.9166
116.821 2259 47.5289
116.939 2308 48.0416
117.056 2212 47.0319
117.174 2179 46.6798
117.291 1854 43.0581
117.409 1682 41.0122
117.526 1522 39.0128
117.644 1589 39.8623
117.761 1886 43.4281
117.879 2209 47
117.996 2325 48.2183
118.114 2414 49.1325
118.231 2441 49.4065
118.349 2558 50.5767
118.466 2568 50.6754
118.584 2657 51.5461
118.701 2562 50.6162
118.819 2592 50.9117
118.936 2403 49.0204
119.053 2409 49.0816
119.171 2276 47.7074
119.288 2221 47.1275
119.405 2255 47.4868
119.523 2270 47.6445
119.64 2253 47.4658
119.757 2267 47.613
119.875 2371 48.6929
119.992 2243 47.3603
120.109 2275 47.697
120.226 2282 47.7703
120.343 2338 48.3529
120.46 2206 46.9681
120.578 2330 48.2701
120.695 2171 46.594
120.812 2221 47.1275
120.929 1838 42.8719
121.046 1716 41.4246
121.163 1609 40.1123
121.279 1612 40.1497
121.396 1604 40.05
121.513 1920 43.8178
121.63 2197 46.8722
121.747 2349 48.4665
121.863 2386 48.8467
121.98 2456 49.558
122.097 2563 50.6261
122.213 2473 49.7293
122.33 2548 50.4777
122.446 2408 49.0714
122.563 2477 49.7695
122.679 2320 48.1664
122.795 2340 48.3735
122.912 2292 47.8748
123.028 2278 47.7284
123.144 2264 47.5815
123.26 2162 46.4973
123.377 0 1
123.493 0 1
123.609 0 1
123.725 0 1
123.84 0 1
123.956 0 1
124.072 0 1
124.188 0 1
124.303 0 1
124.419 0 1
126.852 0 1
126.968 0 1
127.083 0 1
127.199 0 1
127.315 0 1
127.431 0 1
127.547 0 1
127.663 0 1
127.779 0 1
127.895 0 1
128.011 0 1
128.127 0 1
128.243 0 1
128.359 2490 49.8999
128.476 2531 50.309
128.592 2570 50.6952
128.708 2469 49.689
128.825 2376 48.7442
128.941 2497 49.97
129.058 2318 48.1456
129.174 2534 50.3389
129.291 2470 49.6991
129.408 2417 49.163
129.524 2468 49.679
129.641 2475 49.7494
129.758 2340 48.3735
129.875 2082 45.6289
129.992 1961 44.2832
130.108 1744 41.7612
130.225 1678 40.9634
130.342 1803 42.4617
130.459 2101 45.8367
130.576 2470 49.6991
130.693 2664 51.614
130.81 2673 51.7011
130.928 2795 52.8678
131.045 2690 51.8652
131.162 2642 51.4004
131.279 2724 52.192
131.396 2784 52.7636
131.513 2771 52.6403
131.631 2670 51.672
131.748 2630 51.2835
131.865 2613 51.1175
131.983 2683 51.7977
132.1 2576 50.7543
132.217 2639 51.3712
132.335 2727 52.2207
132.452 2686 51.8266
132.57 2678 51.7494
132.687 2612 51.1077
132.804 2599 50.9804
132.922 2578 50.774
133.039 2586 50.8527
133.157 2517 50.1697
133.274 2498 49.98
133.392 2187 46.7654
133.509 1945 44.1022
133.627 1810 42.5441
133.744 1609 40.1123
133.862 1739 41.7013
133.979 1996 44.6766
134.097 2237 47.2969
134.214 2506 50.06
134.332 2662 51.5946
134.449 2647 51.449
134.567 2695 51.9134
134.684 2722 52.1728
134.802 2782 52.7447
134.919 2750 52.4404
135.037 2707 52.0288
135.154 2715 52.1057
135.272 2619 51.1762
135.389 2706 52.0192
135.507 2668 51.6527
135.624 2660 51.5752
135.742 2806 52.9717
135.859 2621 51.1957
135.977 2533 50.3289
136.094 2675 51.7204
136.211 2732 52.2685
136.329 2578 50.774
136.446 2634 51.3225
136.564 2652 51.4976
136.681 2617 51.1566
136.798 2594 50.9313
136.915 2337 48.3425
137.033 2109 45.9239
137.15 1908 43.6807
137.267 1712 41.3763
137.384 1657 40.7063
137.502 1776 42.1426
137.619 2061 45.3982
137.736 2193 46.8295
137.853 2519 50.1896
137.97 2600 50.9902
138.087 2630 51.2835
138.204 2574 50.7346
138.321 2789 52.811
138.438 2705 52.0096
138.555 2827 53.1695
138.672 2853 53.4135
138.788 2769 52.6213
138.905 2741 52.3546
139.022 2691 51.8748
139.139 2816 53.066
139.255 2601 51
139.372 2674 51.7107
139.488 2702 51.9808
139.605 2745 52.3927
139.721 2783 52.7541
139.838 2756 52.4976
139.954 2665 51.6236
140.071 2497 49.97
140.187 2754 52.4786
140.303 2591 50.9019
140.419 2525 50.2494
140.535 2437 49.366
140.652 2157 46.4435
140.768 0 1
140.884 0 1
141 0 1
141.115 0 1
141.231 0 1
141.347 0 1
141.463 0 1
141.578 0 1
141.694 0 1
144.104 0 1
144.219 0 1
144.335 0 1
144.45 0 1
144.566 0 1
144.682 0 1
144.798 0 1
144.914 0 1
145.03 0 1
145.146 1750 41.833
145.262 1983 44.5309
145.378 1996 44.6766
145.494 2005 44.7772
145.61 1941 44.0568
145.726 1836 42.8486
145.842 1719 41.4608
145.959 1525 39.0512
146.075 1464 38.2623
146.192 1454 38.1314
146.308 1408 37.5233
146.425 1504 38.7814
146.541 1737 41.6773
146.658 1905 43.6463
146.774 2041 45.1774
146.891 2073 45.5302
147.008 2228 47.2017
147.125 2180 46.6905
147.241 2249 47.4236
147.358 2193 46.8295
147.475 2281 47.7598
147.592 2229 47.2123
147.709 2274 47.6865
147.826 2336 48.3322
147.943 2301 47.9687
148.06 2363 48.6107
148.177 2300 47.9583
148.294 2247 47.4025
148.411 2247 47.4025
148.528 2244 47.3709
148.645 2235 47.2758
148.762 2338 48.3529
148.88 2249 47.4236
148.997 2233 47.2546
149.114 2154 46.4112
149.231 2313 48.0937
149.349 2292 47.8748
149.466 2246 47.392
149.583 2011 44.8442
149.701 1709 41.3401
149.818 1643 40.5339
149.935 1578 39.724
150.053 1492 38.6264
150.17 1504 38.7814
150.287 1710 41.3521
150.405 1842 42.9185
150.522 2021 44.9555
150.64 2120 46.0435
150.757 2130 46.1519
150.875 2227 47.1911
150.992 2386 48.8467
151.11 2350 48.4768
151.227 2383 48.816
151.344 2340 48.3735
151.462 2321 48.1768
151.579 2462 49.6185
151.697 2507 50.07
151.814 2395 48.9387
151.932 2364 48.621
152.049 2464 49.6387
152.167 2340 48.3735
152.284 2363 48.6107
152.402 2380 48.7852
152.519 2319 48.156
152.636 2271 47.655
152.754 2298 47.9375
152.871 2442 49.4166
152.989 2325 48.2183
153.106 2096 45.7821
153.223 1967 44.3509
153.341 1901 43.6005
153.458 1755 41.8927
153.575 1571 39.6358
153.693 1564 39.5474
153.81 1696 41.1825
153.927 1806 42.4971
154.044 1952 44.1814
154.162 2038 45.1442
154.279 2226 47.1805
154.396 2369 48.6724
154.513 2343 48.4045
154.63 2500 50
154.747 2430 49.295
154.864 2500 50
154.981 2564 50.636
155.098 2556 50.5569
155.215 2482 49.8197
155.332 2596 50.951
155.449 2566 50.6557
155.566 2463 49.6286
155.683 2572 50.7149
155.8 2472 49.7192
155.917 2517 50.1697
156.033 2390 48.8876
156.15 0 1
156.267 0 1
156.383 0 1
156.5 0 1
156.617 0 1
156.733 0 1
156.85 0 1
156.966 0 1
157.082 0 1
157.199 0 1
157.315 0 1
157.431 0 1
157.547 0 1
157.664 0 1
157.78 0 1
157.896 0 1
158.012 0 1
158.128 0 1
158.244 0 1
158.359 0 1
158.475 0 1
158.591 0 1
158.706 0 1
