
6.15755 0 1
6.2731 0 1
6.3887 0 1
6.50437 0 1
6.62009 0 1
6.73587 0 1
6.8517 0 1
6.96759 0 1
7.08353 0 1
7.19952 0 1
7.31557 0 1
7.43166 0 1
7.54781 0 1
7.664 0 1
7.78024 0 1
7.89653 0 1
8.01286 0 1
8.12924 0 1
8.24567 0 1
8.36213 0 1
8.47864 0 1
8.59519 0 1
8.71178 0 1
8.82841 0 1
8.94508 0 1
9.06179 0 1
9.17853 0 1
9.29531 0 1
9.41212 0 1
9.52897 0 1
9.64584 0 1
9.76276 0 1
9.8797 0 1
9.99667 0 1
10.1137 0 1
10.2307 0 1
10.3478 0 1
10.4648 0 1
10.5819 0 1
10.6991 0 1
10.8162 0 1
10.9334 0 1
11.0506 0 1
11.1678 0 1
11.285 0 1
11.4023 0 1
11.5196 0 1
11.6369 0 1
11.7542 0 1
11.8715 0 1
11.9888 0 1
12.1062 0 1
12.2235 0 1
12.3409 0 1
12.4582 0 1
12.5756 0 1
12.693 0 1
12.8104 0 1
12.9278 0 1
13.0452 0 1
13.1626 0 1
13.28 0 1
13.3974 0 1
13.5149 0 1
13.6323 0 1
13.7497 0 1
13.8671 0 1
13.9845 0 1
14.1019 0 1
14.2193 0 1
14.3367 0 1
14.4541 0 1
14.5714 0 1
14.6888 0 1
14.8062 0 1
14.9235 0 1
15.0408 0 0
15.1581 0 0
15.2755 0 0
15.3927 0 0
15.51 0 0
15.6273 0 0
15.7445 0 0
15.8617 0 0
15.9789 0 0
16.0961 0 0
16.2132 0 0
16.3304 0 0
16.4475 0 0
16.5646 0 0
16.6816 0 0
16.7986 0 0
16.9156 0 0
17.0326 0 0
17.1496 0 0
17.2665 0 0
17.3833 0 0
17.5002 0 0
17.617 0 0
17.7338 0 0
17.8505 0 0
17.9672 0 0
18.0839 0 0
18.2005 0 0
18.3171 0 0
18.4337 0 0
18.5502 0 0
18.6666 0 0
18.7831 0 0
18.8994 0 0
19.0158 0 0
19.1321 0 0
19.2483 0 0
19.3645 0 0
19.4806 0 0
19.5967 0 0
19.7128 0 0
19.8288 0 0
19.9447 0 0
20.0606 0 1
20.1764 0 1
20.2922 0 1
20.4079 0 1
20.5236 0 1
20.6392 0 1
20.7548 0 1
20.8702 0 1
23.3078 0 1
23.4233 0 1
23.539 0 1
23.6547 0 1
23.7704 0 1
23.8862 0 1
24.0021 0 1
24.118 0 1
24.234 0 1
24.35 0 1
24.4661 41 6.40312
24.5822 52 7.2111
24.6984 42 6.48074
24.8146 56 7.48331
24.9309 41 6.40312
25.0472 38 6.16441
25.1636 41 6.40312
25.28 51 7.14143
25.3965 44 6.63325
25.513 53 7.28011
25.6296 49 7
25.7462 43 6.55744
25.8628 52 7.2111
25.9795 45 6.7082
26.0962 63 7.93725
26.213 51 7.14143
26.3298 46 6.78233
26.4466 45 6.7082
26.5635 40 6.32456
26.6804 47 6.85565
26.7973 46 6.78233
26.9143 54 7.34847
27.0313 49 7
27.1483 42 6.48074
27.2653 53 7.28011
27.3824 44 6.63325
27.4996 40 6.32456
27.6167 52 7.2111
27.7339 27 5.19615
27.8511 38 6.16441
27.9683 29 5.38516
28.0855 30 5.47723
28.2028 39 6.245
28.3201 65 8.06226
28.4374 43 6.55744
28.5547 47 6.85565
28.6721 39 6.245
28.7894 37 6.08276
28.9068 49 7
29.0242 39 6.245
29.1416 47 6.85565
29.259 32 5.65685
29.3764 50 7.07107
29.4939 43 6.55744
29.6113 37 6.08276
29.7288 44 6.63325
29.8463 43 6.55744
29.9638 41 6.40312
30.0812 43 6.55744
30.1987 46 6.78233
30.3162 52 7.2111
30.4337 45 6.7082
30.5512 39 6.245
30.6687 41 6.40312
30.7862 40 6.32456
30.9037 36 6
31.0212 36 6
31.1387 35 5.91608
31.2562 34 5.83095
31.3737 30 5.47723
31.4912 33 5.74456
31.6087 33 5.74456
31.7262 41 6.40312
31.8436 39 6.245
31.9611 43 6.55744
32.0785 36 6
32.1959 45 6.7082
32.3134 32 5.65685
32.4308 41 6.40312
32.5482 41 6.40312
32.6655 35 5.91608
32.7829 44 6.63325
32.9002 40 6.32456
33.0176 41 6.40312
33.1349 36 6
33.2522 43 6.55744
33.3694 30 5.47723
33.4867 40 6.32456
33.6039 46 6.78233
33.7211 35 5.91608
33.8383 37 6.08276
33.9554 49 7
34.0725 32 5.65685
34.1896 34 5.83095
34.3067 34 5.83095
34.4237 36 6
34.5407 37 6.08276
34.6577 32 5.65685
34.7746 40 6.32456
34.8915 51 7.14143
35.0084 33 5.74456
35.1252 38 6.16441
35.242 34 5.83095
35.3587 36 6
35.4755 33 5.74456
35.5921 56 7.48331
35.7088 46 6.78233
35.8254 33 5.74456
35.9419 29 5.38516
36.0584 40 6.32456
36.1749 30 5.47723
36.2913 39 6.245
36.4077 46 6.78233
36.524 46 6.78233
36.6403 50 7.07107
36.7565 51 7.14143
36.8727 51 7.14143
36.9889 41 6.40312
37.1049 37 6.08276
37.221 0 1
37.3369 0 1
37.4529 0 1
37.5687 0 1
37.6845 0 1
37.8003 0 1
37.916 0 1
38.0316 0 1
38.1472 0 1
40.5851 0 1
40.7008 0 1
40.8164 0 1
40.9322 0 1
41.048 0 1
41.1639 0 1
41.2798 0 1
41.3958 0 1
41.5118 0 1
41.6279 0 1
41.744 34 5.83095
41.8602 47 6.85565
41.9765 28 5.2915
42.0928 49 7
42.2091 37 6.08276
42.3255 33 5.74456
42.4419 34 5.83095
42.5584 47 6.85565
42.675 33 5.74456
42.7915 35 5.91608
42.9081 32 5.65685
43.0248 29 5.38516
43.1415 23 4.79583
43.2582 43 6.55744
43.375 36 6
43.4918 33 5.74456
43.6087 26 5.09902
43.7256 38 6.16441
43.8425 24 4.89898
43.9595 29 5.38516
44.0765 41 6.40312
44.1935 28 5.2915
44.3106 40 6.32456
44.4277 32 5.65685
44.5448 28 5.2915
44.6619 35 5.91608
44.7791 33 5.74456
44.8963 39 6.245
45.0136 35 5.91608
45.1308 26 5.09902
45.2481 32 5.65685
45.3654 41 6.40312
45.4827 29 5.38516
45.6001 31 5.56776
45.7174 27 5.19615
45.8348 23 4.79583
45.9522 38 6.16441
46.0697 40 6.32456
46.1871 35 5.91608
46.3046 29 5.38516
46.422 28 5.2915
46.5395 31 5.56776
46.657 23 4.79583
46.7745 22 4.69042
46.892 19 4.3589
47.0096 16 4
47.1271 14 3.74166
47.2446 28 5.2915
47.3622 23 4.79583
47.4797 25 5
47.5973 24 4.89898
47.7149 23 4.79583
47.8324 27 5.19615
47.95 17 4.12311
48.0675 30 5.47723
48.1851 18 4.24264
48.3027 36 6
48.4202 24 4.89898
48.5378 14 3.74166
48.6554 13 3.60555
48.7729 19 4.3589
48.8904 26 5.09902
49.008 20 4.47214
49.1255 21 4.58258
49.243 27 5.19615
49.3605 25 5
49.478 22 4.69042
49.5955 18 4.24264
49.713 15 3.87298
49.8304 25 5
49.9479 21 4.58258
50.0653 22 4.69042
50.1827 23 4.79583
50.3001 17 4.12311
50.4175 19 4.3589
50.5348 14 3.74166
50.6521 26 5.09902
50.7694 17 4.12311
50.8867 26 5.09902
51.004 23 4.79583
51.1212 23 4.79583
51.2384 18 4.24264
51.3556 22 4.69042
51.4727 28 5.2915
51.5899 25 5
51.707 29 5.38516
51.824 31 5.56776
51.9411 31 5.56776
52.0581 33 5.74456
52.175 29 5.38516
52.2919 34 5.83095
52.4088 42 6.48074
52.5257 20 4.47214
52.6425 34 5.83095
52.7593 29 5.38516
52.876 17 4.12311
52.9927 32 5.65685
53.1094 38 6.16441
53.226 33 5.74456
53.3426 35 5.91608
53.4591 31 5.56776
53.5756 37 6.08276
53.692 40 6.32456
53.8084 36 6
53.9248 37 6.08276
54.0411 25 5
54.1573 23 4.79583
54.2735 0 1
54.3896 0 1
54.5057 0 1
54.6217 0 1
54.7377 0 1
54.8537 0 1
54.9695 0 1
55.0853 0 1
55.2011 0 1
55.3168 0 1
55.4324 0 1
57.824 0 1
57.9396 0 1
58.0553 0 1
58.1711 0 1
58.2869 0 1
58.4028 0 1
58.5187 0 1
58.6347 0 1
58.7508 0 1
58.8669 0 1
58.983 26 5.09902
59.0992 43 6.55744
59.2155 37 6.08276
59.3318 24 4.89898
59.4482 41 6.40312
59.5646 30 5.47723
59.681 19 4.3589
59.7975 32 5.65685
59.9141 34 5.83095
60.0306 36 6
60.1473 28 5.2915
60.2639 23 4.79583
60.3807 41 6.40312
60.4974 33 5.74456
60.6142 48 6.9282
60.731 36 6
60.8479 34 5.83095
60.9648 23 4.79583
61.0818 33 5.74456
61.1987 33 5.74456
61.3158 41 6.40312
61.4328 33 5.74456
61.5499 32 5.65685
61.667 34 5.83095
61.7841 30 5.47723
61.9013 44 6.63325
62.0185 28 5.2915
62.1357 26 5.09902
62.253 28 5.2915
62.3702 35 5.91608
62.4875 25 5
62.6049 26 5.09902
62.7222 26 5.09902
62.8396 39 6.245
62.9569 36 6
63.0743 23 4.79583
63.1918 27 5.19615
63.3092 24 4.89898
63.4267 19 4.3589
63.5441 22 4.69042
63.6616 22 4.69042
63.7791 26 5.09902
63.8966 26 5.09902
64.0142 27 5.19615
64.1317 30 5.47723
64.2492 32 5.65685
64.3668 27 5.19615
64.4843 35 5.91608
64.6019 30 5.47723
64.7195 34 5.83095
64.837 24 4.89898
64.9546 27 5.19615
65.0722 20 4.47214
65.1898 20 4.47214
65.3074 33 5.74456
65.4249 22 4.69042
65.5425 24 4.89898
65.6601 23 4.79583
65.7777 25 5
65.8952 30 5.47723
66.0128 27 5.19615
66.1304 16 4
66.2479 30 5.47723
66.3655 18 4.24264
66.483 27 5.19615
66.6005 23 4.79583
66.718 21 4.58258
66.8355 28 5.2915
66.953 26 5.09902
67.0705 25 5
67.1879 30 5.47723
67.3054 24 4.89898
67.4228 31 5.56776
67.5402 28 5.2915
67.6576 24 4.89898
67.7749 19 4.3589
67.8923 25 5
68.0096 27 5.19615
68.1269 23 4.79583
68.2442 32 5.65685
68.3614 27 5.19615
68.4787 19 4.3589
68.5958 24 4.89898
68.713 26 5.09902
68.8302 20 4.47214
68.9473 31 5.56776
69.0643 17 4.12311
69.1814 22 4.69042
69.2984 20 4.47214
69.4154 17 4.12311
69.5323 34 5.83095
69.6492 26 5.09902
69.7661 19 4.3589
69.8829 23 4.79583
69.9997 21 4.58258
70.1165 21 4.58258
70.2332 13 3.60555
70.3499 24 4.89898
70.4665 15 3.87298
70.5831 23 4.79583
70.6996 25 5
70.8161 22 4.69042
70.9326 28 5.2915
71.049 23 4.79583
71.1653 29 5.38516
71.2817 18 4.24264
71.3979 24 4.89898
71.5141 29 5.38516
71.6303 22 4.69042
71.7464 16 4
71.8624 0 1
71.9784 0 1
72.0944 0 1
72.2102 0 1
72.3261 0 1
72.4418 0 1
72.5575 0 1
72.6732 0 1
75.1054 0 1
75.2209 0 1
75.3365 0 1
75.4521 0 1
75.5678 0 1
75.6835 0 1
75.7993 0 1
75.9151 0 1
76.031 0 1
76.147 11 3.31662
76.263 20 4.47214
76.3791 23 4.79583
76.4952 27 5.19615
76.6113 21 4.58258
76.7276 22 4.69042
76.8438 15 3.87298
76.9601 25 5
77.0765 14 3.74166
77.1929 18 4.24264
77.3093 23 4.79583
77.4258 20 4.47214
77.5423 20 4.47214
77.6589 17 4.12311
77.7755 13 3.60555
77.8921 20 4.47214
78.0088 15 3.87298
78.1256 10 3.16228
78.2423 16 4
78.3591 18 4.24264
78.4759 21 4.58258
78.5928 15 3.87298
78.7097 21 4.58258
78.8266 12 3.4641
78.9436 16 4
79.0606 12 3.4641
79.1776 13 3.60555
79.2946 10 3.16228
79.4117 10 3.16228
79.5288 15 3.87298
79.6459 10 3.16228
79.7631 16 4
79.8802 16 4
79.9974 17 4.12311
80.1147 11 3.31662
80.2319 7 2.64575
80.3491 8 2.82843
80.4664 9 3
80.5837 11 3.31662
80.701 8 2.82843
80.8183 8 2.82843
80.9357 15 3.87298
81.053 11 3.31662
81.1704 9 3
81.2877 11 3.31662
81.4051 12 3.4641
81.5225 11 3.31662
81.6399 8 2.82843
81.7573 17 4.12311
81.8747 11 3.31662
81.9922 7 2.64575
82.1096 3 1.73205
82.227 5 2.23607
82.3444 7 2.64575
82.4619 11 3.31662
82.5793 7 2.64575
82.6967 8 2.82843
82.8142 2 1.41421
82.9316 5 2.23607
83.049 7 2.64575
83.1664 3 1.73205
83.2838 5 2.23607
83.4012 16 4
83.5186 1 1
83.636 9 3
83.7534 7 2.64575
83.8708 6 2.44949
83.9881 3 1.73205
84.1055 0 0
84.2228 4 2
84.3401 2 1.41421
84.4575 1 1
84.5747 1 1
84.692 3 1.73205
84.8093 3 1.73205
84.9265 2 1.41421
85.0437 7 2.64575
85.1609 3 1.73205
85.2781 3 1.73205
85.3952 1 1
85.5123 4 2
85.6294 4 2
85.7465 3 1.73205
85.8636 1 1
85.9806 2 1.41421
86.0976 1 1
86.2145 5 2.23607
86.3315 4 2
86.4484 2 1.41421
86.5652 5 2.23607
86.682 5 2.23607
86.7988 2 1.41421
86.9156 4 2
87.0323 4 2
87.149 3 1.73205
87.2657 2 1.41421
87.3823 4 2
87.4988 8 2.82843
87.6154 6 2.44949
87.7318 5 2.23607
87.8483 7 2.64575
87.9647 9 3
88.081 12 3.4641
88.1973 7 2.64575
88.3136 7 2.64575
88.4298 10 3.16228
88.546 13 3.60555
88.6621 7 2.64575
88.7781 8 2.82843
88.8942 0 1
89.0101 0 1
89.126 0 1
89.2419 0 1
89.3577 0 1
89.4734 0 1
89.5891 0 1
89.7047 0 1
89.8203 0 1
89.9358 0 1
92.3269 0 1
92.4424 0 1
92.558 0 1
92.6736 0 1
92.7893 0 1
92.905 0 1
93.0208 0 1
93.1366 0 1
93.2525 0 1
93.3685 0 1
93.4845 0 1
93.6005 10 3.16228
93.7167 21 4.58258
93.8328 11 3.31662
93.949 15 3.87298
94.0653 13 3.60555
94.1816 10 3.16228
94.2979 13 3.60555
94.4143 8 2.82843
94.5307 12 3.4641
94.6472 24 4.89898
94.7637 14 3.74166
94.8803 8 2.82843
94.9969 13 3.60555
95.1135 5 2.23607
95.2302 16 4
95.3469 7 2.64575
95.4637 4 2
95.5805 3 1.73205
95.6973 7 2.64575
95.8142 13 3.60555
95.9311 15 3.87298
96.048 14 3.74166
96.1649 12 3.4641
96.2819 13 3.60555
96.3989 7 2.64575
96.516 15 3.87298
96.633 17 4.12311
96.7501 11 3.31662
96.8673 16 4
96.9844 15 3.87298
97.1016 15 3.87298
97.2188 13 3.60555
97.336 19 4.3589
97.4532 10 3.16228
97.5704 12 3.4641
97.6877 18 4.24264
97.805 14 3.74166
97.9223 29 5.38516
98.0396 13 3.60555
98.1569 21 4.58258
98.2743 18 4.24264
98.3916 23 4.79583
98.509 16 4
98.6264 16 4
98.7438 25 5
98.8612 20 4.47214
98.9786 15 3.87298
99.096 13 3.60555
99.2134 9 3
99.3308 17 4.12311
99.4482 17 4.12311
99.5656 18 4.24264
99.6831 20 4.47214
99.8005 17 4.12311
99.9179 22 4.69042
100.035 22 4.69042
100.153 28 5.2915
100.27 23 4.79583
100.388 23 4.79583
100.505 32 5.65685
100.622 24 4.89898
100.74 27 5.19615
100.857 23 4.79583
100.975 18 4.24264
101.092 27 5.19615
101.209 24 4.89898
101.327 21 4.58258
101.444 22 4.69042
101.561 31 5.56776
101.679 20 4.47214
101.796 16 4
101.913 26 5.09902
102.03 20 4.47214
102.148 25 5
102.265 24 4.89898
102.382 30 5.47723
102.499 27 5.19615
102.616 21 4.58258
102.733 13 3.60555
102.851 25 5
102.968 24 4.89898
103.085 31 5.56776
103.202 27 5.19615
103.319 26 5.09902
103.436 25 5
103.552 23 4.79583
103.669 27 5.19615
103.786 22 4.69042
103.903 30 5.47723
104.02 21 4.58258
104.137 39 6.245
104.253 38 6.16441
104.37 22 4.69042
104.487 26 5.09902
104.603 34 5.83095
104.72 27 5.19615
104.836 31 5.56776
104.953 31 5.56776
105.069 25 5
105.186 30 5.47723
105.302 38 6.16441
105.418 36 6
105.535 31 5.56776
105.651 23 4.79583
105.767 26 5.09902
105.883 30 5.47723
105.999 21 4.58258
106.115 0 1
106.231 0 1
106.347 0 1
106.463 0 1
106.579 0 1
106.694 0 1
106.81 0 1
106.926 0 1
107.041 0 1
107.157 0 1
109.576 0 1
109.692 0 1
109.807 0 1
109.923 0 1
110.039 0 1
110.155 0 1
110.27 0 1
110.386 0 1
110.502 0 1
110.618 23 4.79583
110.735 16 4
110.851 34 5.83095
110.967 21 4.58258
111.083 14 3.74166
111.199 15 3.87298
111.316 17 4.12311
111.432 27 5.19615
111.549 22 4.69042
111.665 17 4.12311
111.782 33 5.74456
111.898 13 3.60555
112.015 25 5
112.132 30 5.47723
112.248 22 4.69042
112.365 19 4.3589
112.482 15 3.87298
112.599 15 3.87298
112.716 17 4.12311
112.832 15 3.87298
112.949 21 4.58258
113.066 13 3.60555
113.183 15 3.87298
113.3 21 4.58258
113.417 15 3.87298
113.534 21 4.58258
113.652 13 3.60555
113.769 12 3.4641
113.886 23 4.79583
114.003 21 4.58258
114.12 25 5
114.238 8 2.82843
114.355 22 4.69042
114.472 16 4
114.589 14 3.74166
114.707 11 3.31662
114.824 13 3.60555
114.942 10 3.16228
115.059 18 4.24264
115.176 11 3.31662
115.294 17 4.12311
115.411 16 4
115.529 19 4.3589
115.646 14 3.74166
115.764 11 3.31662
115.881 9 3
115.999 13 3.60555
116.116 18 4.24264
116.234 14 3.74166
116.351 12 3.4641
116.469 16 4
116.586 13 3.60555
116.704 14 3.74166
116.821 15 3.87298
116.939 12 3.4641
117.056 13 3.60555
117.174 16 4
117.291 13 3.60555
117.409 7 2.64575
117.526 21 4.58258
117.644 12 3.4641
117.761 15 3.87298
117.879 8 2.82843
117.996 6 2.44949
118.114 14 3.74166
118.231 15 3.87298
118.349 19 4.3589
118.466 11 3.31662
118.584 13 3.60555
118.701 10 3.16228
118.819 17 4.12311
118.936 17 4.12311
119.053 15 3.87298
119.171 18 4.24264
119.288 14 3.74166
119.405 11 3.31662
119.523 17 4.12311
119.64 17 4.12311
119.757 10 3.16228
119.875 20 4.47214
119.992 16 4
120.109 13 3.60555
120.226 19 4.3589
120.343 9 3
120.46 25 5
120.578 14 3.74166
120.695 10 3.16228
120.812 19 4.3589
120.929 25 5
121.046 11 3.31662
121.163 15 3.87298
121.279 19 4.3589
121.396 18 4.24264
121.513 13 3.60555
121.63 13 3.60555
121.747 11 3.31662
121.863 11 3.31662
121.98 13 3.60555
122.097 19 4.3589
122.213 19 4.3589
122.33 19 4.3589
122.446 21 4.58258
122.563 12 3.4641
122.679 11 3.31662
122.795 17 4.12311
122.912 23 4.79583
123.028 27 5.19615
123.144 16 4
123.26 17 4.12311
123.377 0 1
123.493 0 1
123.609 0 1
123.725 0 1
123.84 0 1
123.956 0 1
124.072 0 1
124.188 0 1
124.303 0 1
124.419 0 1
126.852 0 1
126.968 0 1
127.083 0 1
127.199 0 1
127.315 0 1
127.431 0 1
127.547 0 1
127.663 0 1
127.779 0 1
127.895 0 1
128.011 0 1
128.127 0 1
128.243 0 1
128.359 17 4.12311
128.476 24 4.89898
128.592 20 4.47214
128.708 22 4.69042
128.825 19 4.3589
128.941 22 4.69042
129.058 20 4.47214
129.174 25 5
129.291 25 5
129.408 17 4.12311
129.524 16 4
129.641 21 4.58258
129.758 25 5
129.875 32 5.65685
129.992 22 4.69042
130.108 16 4
130.225 23 4.79583
130.342 21 4.58258
130.459 20 4.47214
130.576 12 3.4641
130.693 14 3.74166
130.81 17 4.12311
130.928 6 2.44949
131.045 17 4.12311
131.162 21 4.58258
131.279 30 5.47723
131.396 28 5.2915
131.513 21 4.58258
131.631 18 4.24264
131.748 21 4.58258
131.865 26 5.09902
131.983 24 4.89898
132.1 24 4.89898
132.217 19 4.3589
132.335 18 4.24264
132.452 18 4.24264
132.57 19 4.3589
132.687 25 5
132.804 22 4.69042
132.922 22 4.69042
133.039 29 5.38516
133.157 28 5.2915
133.274 30 5.47723
133.392 26 5.09902
133.509 28 5.2915
133.627 24 4.89898
133.744 23 4.79583
133.862 31 5.56776
133.979 15 3.87298
134.097 19 4.3589
134.214 20 4.47214
134.332 20 4.47214
134.449 14 3.74166
134.567 14 3.74166
134.684 21 4.58258
134.802 19 4.3589
134.919 38 6.16441
135.037 17 4.12311
135.154 28 5.2915
135.272 28 5.2915
135.389 34 5.83095
135.507 23 4.79583
135.624 33 5.74456
135.742 26 5.09902
135.859 25 5
135.977 18 4.24264
136.094 28 5.2915
136.211 20 4.47214
136.329 17 4.12311
136.446 28 5.2915
136.564 30 5.47723
136.681 30 5.47723
136.798 22 4.69042
136.915 23 4.79583
137.033 32 5.65685
137.15 23 4.79583
137.267 25 5
137.384 22 4.69042
137.502 19 4.3589
137.619 27 5.19615
137.736 18 4.24264
137.853 9 3
137.97 22 4.69042
138.087 18 4.24264
138.204 28 5.2915
138.321 17 4.12311
138.438 26 5.09902
138.555 20 4.47214
138.672 25 5
138.788 43 6.55744
138.905 30 5.47723
139.022 37 6.08276
139.139 25 5
139.255 29 5.38516
139.372 42 6.48074
139.488 26 5.09902
139.605 32 5.65685
139.721 31 5.56776
139.838 16 4
139.954 28 5.2915
140.071 32 5.65685
140.187 38 6.16441
140.303 38 6.16441
140.419 34 5.83095
140.535 40 6.32456
140.652 34 5.83095
140.768 0 1
140.884 0 1
141 0 1
141.115 0 1
141.231 0 1
141.347 0 1
141.463 0 1
141.578 0 1
141.694 0 1
144.104 0 1
144.219 0 1
144.335 0 1
144.45 0 1
144.566 0 1
144.682 0 1
144.798 0 1
144.914 0 1
145.03 0 1
145.146 32 5.65685
145.262 40 6.32456
145.378 33 5.74456
145.494 40 6.32456
145.61 25 5
145.726 36 6
145.842 17 4.12311
145.959 22 4.69042
146.075 28 5.2915
146.192 30 5.47723
146.308 25 5
146.425 23 4.79583
146.541 16 4
146.658 23 4.79583
146.774 21 4.58258
146.891 20 4.47214
147.008 40 6.32456
147.125 27 5.19615
147.241 36 6
147.358 31 5.56776
147.475 29 5.38516
147.592 21 4.58258
147.709 25 5
147.826 25 5
147.943 29 5.38516
148.06 30 5.47723
148.177 29 5.38516
148.294 20 4.47214
148.411 27 5.19615
148.528 33 5.74456
148.645 27 5.19615
148.762 36 6
148.88 32 5.65685
148.997 27 5.19615
149.114 36 6
149.231 33 5.74456
149.349 22 4.69042
149.466 23 4.79583
149.583 28 5.2915
149.701 25 5
149.818 28 5.2915
149.935 21 4.58258
150.053 20 4.47214
150.17 25 5
150.287 22 4.69042
150.405 22 4.69042
150.522 17 4.12311
150.64 23 4.79583
150.757 24 4.89898
150.875 36 6
150.992 27 5.19615
151.11 34 5.83095
151.227 19 4.3589
151.344 28 5.2915
151.462 20 4.47214
151.579 29 5.38516
151.697 18 4.24264
151.814 23 4.79583
151.932 25 5
152.049 25 5
152.167 29 5.38516
152.284 35 5.91608
152.402 28 5.2915
152.519 28 5.2915
152.636 31 5.56776
152.754 34 5.83095
152.871 25 5
152.989 32 5.65685
153.106 41 6.40312
153.223 24 4.89898
153.341 28 5.2915
153.458 22 4.69042
153.575 26 5.09902
153.693 26 5.09902
153.81 28 5.2915
153.927 27 5.19615
154.044 31 5.56776
154.162 28 5.2915
154.279 33 5.74456
154.396 29 5.38516
154.513 38 6.16441
154.63 33 5.74456
154.747 29 5.38516
154.864 36 6
154.981 34 5.83095
155.098 28 5.2915
155.215 39 6.245
155.332 29 5.38516
155.449 35 5.91608
155.566 34 5.83095
155.683 22 4.69042
155.8 45 6.7082
155.917 39 6.245
156.033 38 6.16441
156.15 0 1
156.267 0 1
156.383 0 1
156.5 0 1
156.617 0 1
156.733 0 1
156.85 0 1
156.966 0 1
157.082 0 1
157.199 0 1
157.315 0 1
157.431 0 1
157.547 0 1
157.664 0 1
157.78 0 1
157.896 0 1
158.012 0 1
158.128 0 1
158.244 0 1
158.359 0 1
158.475 0 1
158.591 0 1
158.706 0 1
