
6.15755 0 1
6.2731 0 1
6.3887 0 1
6.50437 0 1
6.62009 0 1
6.73587 0 1
6.8517 0 1
6.96759 0 1
7.08353 0 1
7.19952 0 1
7.31557 0 1
7.43166 0 1
7.54781 0 1
7.664 0 1
7.78024 0 1
7.89653 0 1
8.01286 0 1
8.12924 0 1
8.24567 0 1
8.36213 0 1
8.47864 0 1
8.59519 0 1
8.71178 0 1
8.82841 0 1
8.94508 0 1
9.06179 0 1
9.17853 0 1
9.29531 0 1
9.41212 0 1
9.52897 0 1
9.64584 0 1
9.76276 0 1
9.8797 0 1
9.99667 0 1
10.1137 0 1
10.2307 0 1
10.3478 0 1
10.4648 0 1
10.5819 0 1
10.6991 0 1
10.8162 0 1
10.9334 0 1
11.0506 0 1
11.1678 0 1
11.285 0 1
11.4023 0 1
11.5196 0 1
11.6369 0 1
11.7542 0 1
11.8715 0 1
11.9888 0 1
12.1062 0 1
12.2235 0 1
12.3409 0 1
12.4582 0 1
12.5756 0 1
12.693 0 1
12.8104 0 1
12.9278 0 1
13.0452 0 1
13.1626 0 1
13.28 0 1
13.3974 0 1
13.5149 0 1
13.6323 0 1
13.7497 0 1
13.8671 0 1
13.9845 0 1
14.1019 0 1
14.2193 0 1
14.3367 0 1
14.4541 0 1
14.5714 0 1
14.6888 0 1
14.8062 0 1
14.9235 0 1
15.0408 940 30.6594
15.1581 988 31.4325
15.2755 993 31.5119
15.3927 1085 32.9393
15.51 1034 32.1559
15.6273 999 31.607
15.7445 985 31.3847
15.8617 914 30.2324
15.9789 945 30.7409
16.0961 876 29.5973
16.2132 887 29.7825
16.3304 883 29.7153
16.4475 890 29.8329
16.5646 920 30.3315
16.6816 877 29.6142
16.7986 878 29.6311
16.9156 881 29.6816
17.0326 831 28.8271
17.1496 826 28.7402
17.2665 824 28.7054
17.3833 884 29.7321
17.5002 841 29
17.617 879 29.6479
17.7338 831 28.8271
17.8505 906 30.0998
17.9672 917 30.282
18.0839 764 27.6405
18.2005 780 27.9285
18.3171 805 28.3725
18.4337 791 28.1247
18.5502 868 29.4618
18.6666 886 29.7658
18.7831 882 29.6985
18.8994 838 28.9482
19.0158 801 28.3019
19.1321 810 28.4605
19.2483 742 27.2397
19.3645 686 26.1916
19.4806 661 25.7099
19.5967 591 24.3105
19.7128 672 25.923
19.8288 577 24.0208
19.9447 548 23.4094
20.0606 0 1
20.1764 0 1
20.2922 0 1
20.4079 0 1
20.5236 0 1
20.6392 0 1
20.7548 0 1
20.8702 0 1
23.3078 0 1
23.4233 0 1
23.539 0 1
23.6547 0 1
23.7704 0 1
23.8862 0 1
24.0021 0 1
24.118 0 1
24.234 0 1
24.35 0 1
24.4661 365 19.105
24.5822 369 19.2094
24.6984 463 21.5174
24.8146 556 23.5797
24.9309 689 26.2488
25.0472 718 26.7955
25.1636 836 28.9137
25.28 864 29.3939
25.3965 964 31.0483
25.513 1032 32.1248
25.6296 1155 33.9853
25.7462 1146 33.8526
25.8628 1125 33.541
25.9795 1125 33.541
26.0962 1195 34.5688
26.213 1254 35.4119
26.3298 1285 35.8469
26.4466 1494 38.6523
26.5635 1594 39.9249
26.6804 1463 38.2492
26.7973 1103 33.2114
26.9143 926 30.4302
27.0313 1186 34.4384
27.1483 1644 40.5463
27.2653 1776 42.1426
27.3824 1792 42.332
27.4996 1842 42.9185
27.6167 1775 42.1307
27.7339 1915 43.7607
27.8511 2011 44.8442
27.9683 1989 44.5982
28.0855 1986 44.5646
28.2028 2084 45.6508
28.3201 2058 45.3652
28.4374 1974 44.4297
28.5547 1866 43.1972
28.6721 1888 43.4511
28.7894 1879 43.3474
28.9068 1838 42.8719
29.0242 1784 42.2374
29.1416 1487 38.5616
29.259 1287 35.8748
29.3764 1166 34.1467
29.4939 1078 32.8329
29.6113 1008 31.749
29.7288 975 31.225
29.8463 948 30.7896
29.9638 973 31.1929
30.0812 997 31.5753
30.1987 1054 32.4654
30.3162 832 28.8444
30.4337 750 27.3861
30.5512 948 30.7896
30.6687 1232 35.0999
30.7862 1283 35.819
30.9037 1178 34.322
31.0212 1115 33.3916
31.1387 1001 31.6386
31.2562 916 30.2655
31.3737 846 29.0861
31.4912 819 28.6182
31.6087 810 28.4605
31.7262 827 28.7576
31.8436 857 29.2746
31.9611 783 27.9821
32.0785 870 29.4958
32.1959 822 28.6705
32.3134 818 28.6007
32.4308 792 28.1425
32.5482 771 27.7669
32.6655 786 28.0357
32.7829 796 28.2135
32.9002 791 28.1247
33.0176 749 27.3679
33.1349 781 27.9464
33.2522 738 27.1662
33.3694 755 27.4773
33.4867 775 27.8388
33.6039 742 27.2397
33.7211 768 27.7128
33.8383 721 26.8514
33.9554 662 25.7294
34.0725 659 25.671
34.1896 703 26.5141
34.3067 772 27.7849
34.4237 819 28.6182
34.5407 784 28
34.6577 760 27.5681
34.7746 798 28.2489
34.8915 780 27.9285
35.0084 727 26.9629
35.1252 711 26.6646
35.242 686 26.1916
35.3587 687 26.2107
35.4755 706 26.5707
35.5921 708 26.6083
35.7088 746 27.313
35.8254 724 26.9072
35.9419 732 27.0555
36.0584 743 27.258
36.1749 756 27.4955
36.2913 747 27.3313
36.4077 713 26.7021
36.524 616 24.8193
36.6403 621 24.9199
36.7565 571 23.8956
36.8727 548 23.4094
36.9889 546 23.3666
37.1049 467 21.6102
37.221 0 1
37.3369 0 1
37.4529 0 1
37.5687 0 1
37.6845 0 1
37.8003 0 1
37.916 0 1
38.0316 0 1
38.1472 0 1
40.5851 0 1
40.7008 0 1
40.8164 0 1
40.9322 0 1
41.048 0 1
41.1639 0 1
41.2798 0 1
41.3958 0 1
41.5118 0 1
41.6279 0 1
41.744 322 17.9444
41.8602 363 19.0526
41.9765 426 20.6398
42.0928 469 21.6564
42.2091 453 21.2838
42.3255 495 22.2486
42.4419 596 24.4131
42.5584 561 23.6854
42.675 522 22.8473
42.7915 536 23.1517
42.9081 505 22.4722
43.0248 521 22.8254
43.1415 563 23.7276
43.2582 562 23.7065
43.375 570 23.8747
43.4918 598 24.454
43.6087 564 23.7487
43.7256 524 22.891
43.8425 578 24.0416
43.9595 486 22.0454
44.0765 501 22.383
44.1935 547 23.388
44.3106 525 22.9129
44.4277 547 23.388
44.5448 564 23.7487
44.6619 525 22.9129
44.7791 563 23.7276
44.8963 544 23.3238
45.0136 597 24.4336
45.1308 582 24.1247
45.2481 586 24.2074
45.3654 585 24.1868
45.4827 632 25.1396
45.6001 614 24.779
45.7174 580 24.0832
45.8348 620 24.8998
45.9522 608 24.6577
46.0697 603 24.5561
46.1871 544 23.3238
46.3046 493 22.2036
46.422 502 22.4054
46.5395 482 21.9545
46.657 534 23.1084
46.7745 567 23.8118
46.892 601 24.5153
47.0096 546 23.3666
47.1271 539 23.2164
47.2446 554 23.5372
47.3622 566 23.7908
47.4797 560 23.6643
47.5973 503 22.4277
47.7149 530 23.0217
47.8324 543 23.3024
47.95 585 24.1868
48.0675 540 23.2379
48.1851 566 23.7908
48.3027 587 24.2281
48.4202 555 23.5584
48.5378 567 23.8118
48.6554 538 23.1948
48.7729 505 22.4722
48.8904 549 23.4307
49.008 600 24.4949
49.1255 585 24.1868
49.243 572 23.9165
49.3605 531 23.0434
49.478 564 23.7487
49.5955 496 22.2711
49.713 498 22.3159
49.8304 495 22.2486
49.9479 457 21.3776
50.0653 545 23.3452
50.1827 496 22.2711
50.3001 524 22.891
50.4175 512 22.6274
50.5348 495 22.2486
50.6521 543 23.3024
50.7694 536 23.1517
50.8867 536 23.1517
51.004 511 22.6053
51.1212 493 22.2036
51.2384 501 22.383
51.3556 529 23
51.4727 492 22.1811
51.5899 548 23.4094
51.707 546 23.3666
51.824 578 24.0416
51.9411 536 23.1517
52.0581 564 23.7487
52.175 528 22.9783
52.2919 535 23.1301
52.4088 567 23.8118
52.5257 516 22.7156
52.6425 533 23.0868
52.7593 553 23.516
52.876 524 22.891
52.9927 508 22.5389
53.1094 563 23.7276
53.226 511 22.6053
53.3426 469 21.6564
53.4591 468 21.6333
53.5756 472 21.7256
53.692 487 22.0681
53.8084 488 22.0907
53.9248 458 21.4009
54.0411 397 19.9249
54.1573 400 20
54.2735 0 1
54.3896 0 1
54.5057 0 1
54.6217 0 1
54.7377 0 1
54.8537 0 1
54.9695 0 1
55.0853 0 1
55.2011 0 1
55.3168 0 1
55.4324 0 1
57.824 0 1
57.9396 0 1
58.0553 0 1
58.1711 0 1
58.2869 0 1
58.4028 0 1
58.5187 0 1
58.6347 0 1
58.7508 0 1
58.8669 0 1
58.983 733 27.074
59.0992 963 31.0322
59.2155 1176 34.2929
59.3318 1295 35.9861
59.4482 1329 36.4555
59.5646 1384 37.2022
59.681 1308 36.1663
59.7975 1275 35.7071
59.9141 1332 36.4966
60.0306 1280 35.7771
60.1473 1343 36.647
60.2639 1325 36.4005
60.3807 1290 35.9166
60.4974 1393 37.3229
60.6142 1281 35.7911
60.731 1320 36.3318
60.8479 1327 36.428
60.9648 1283 35.819
61.0818 1235 35.1426
61.1987 1185 34.4238
61.3158 1283 35.819
61.4328 1221 34.9428
61.5499 1243 35.2562
61.667 1169 34.1906
61.7841 1185 34.4238
61.9013 1096 33.1059
62.0185 1095 33.0908
62.1357 1007 31.7333
62.253 1017 31.8904
62.3702 1051 32.4191
62.4875 1036 32.187
62.6049 945 30.7409
62.7222 942 30.692
62.8396 908 30.133
62.9569 917 30.282
63.0743 801 28.3019
63.1918 716 26.7582
63.3092 704 26.533
63.4267 691 26.2869
63.5441 690 26.2679
63.6616 632 25.1396
63.7791 635 25.1992
63.8966 670 25.8844
64.0142 670 25.8844
64.1317 653 25.5539
64.2492 632 25.1396
64.3668 686 26.1916
64.4843 641 25.318
64.6019 664 25.7682
64.7195 646 25.4165
64.837 665 25.7876
64.9546 661 25.7099
65.0722 618 24.8596
65.1898 652 25.5343
65.3074 660 25.6905
65.4249 673 25.9422
65.5425 618 24.8596
65.6601 579 24.0624
65.7777 570 23.8747
65.8952 590 24.2899
66.0128 630 25.0998
66.1304 659 25.671
66.2479 677 26.0192
66.3655 680 26.0768
66.483 656 25.6125
66.6005 641 25.318
66.718 670 25.8844
66.8355 625 25
66.953 624 24.98
67.0705 602 24.5357
67.1879 627 25.04
67.3054 635 25.1992
67.4228 642 25.3377
67.5402 659 25.671
67.6576 651 25.5147
67.7749 657 25.632
67.8923 640 25.2982
68.0096 629 25.0799
68.1269 641 25.318
68.2442 717 26.7769
68.3614 648 25.4558
68.4787 646 25.4165
68.5958 640 25.2982
68.713 653 25.5539
68.8302 644 25.3772
68.9473 668 25.8457
69.0643 580 24.0832
69.1814 638 25.2587
69.2984 614 24.779
69.4154 599 24.4745
69.5323 611 24.7184
69.6492 685 26.1725
69.7661 617 24.8395
69.8829 636 25.219
69.9997 658 25.6515
70.1165 633 25.1595
70.2332 591 24.3105
70.3499 586 24.2074
70.4665 574 23.9583
70.5831 538 23.1948
70.6996 526 22.9347
70.8161 426 20.6398
70.9326 404 20.0998
71.049 371 19.2614
71.1653 347 18.6279
71.2817 341 18.4662
71.3979 344 18.5472
71.5141 286 16.9115
71.6303 275 16.5831
71.7464 216 14.6969
71.8624 0 1
71.9784 0 1
72.0944 0 1
72.2102 0 1
72.3261 0 1
72.4418 0 1
72.5575 0 1
72.6732 0 1
75.1054 0 1
75.2209 0 1
75.3365 0 1
75.4521 0 1
75.5678 0 1
75.6835 0 1
75.7993 0 1
75.9151 0 1
76.031 0 1
76.147 330 18.1659
76.263 372 19.2873
76.3791 448 21.166
76.4952 455 21.3307
76.6113 487 22.0681
76.7276 525 22.9129
76.8438 502 22.4054
76.9601 547 23.388
77.0765 516 22.7156
77.1929 532 23.0651
77.3093 600 24.4949
77.4258 544 23.3238
77.5423 570 23.8747
77.6589 576 24
77.7755 559 23.6432
77.8921 583 24.1454
78.0088 554 23.5372
78.1256 519 22.7816
78.2423 539 23.2164
78.3591 524 22.891
78.4759 513 22.6495
78.5928 508 22.5389
78.7097 543 23.3024
78.8266 523 22.8692
78.9436 553 23.516
79.0606 546 23.3666
79.1776 507 22.5167
79.2946 550 23.4521
79.4117 526 22.9347
79.5288 557 23.6008
79.6459 562 23.7065
79.7631 544 23.3238
79.8802 563 23.7276
79.9974 555 23.5584
80.1147 521 22.8254
80.2319 546 23.3666
80.3491 530 23.0217
80.4664 571 23.8956
80.5837 564 23.7487
80.701 555 23.5584
80.8183 553 23.516
80.9357 573 23.9374
81.053 552 23.4947
81.1704 554 23.5372
81.2877 538 23.1948
81.4051 593 24.3516
81.5225 572 23.9165
81.6399 577 24.0208
81.7573 577 24.0208
81.8747 553 23.516
81.9922 534 23.1084
82.1096 517 22.7376
82.227 512 22.6274
82.3444 527 22.9565
82.4619 552 23.4947
82.5793 543 23.3024
82.6967 569 23.8537
82.8142 522 22.8473
82.9316 543 23.3024
83.049 510 22.5832
83.1664 581 24.1039
83.2838 559 23.6432
83.4012 542 23.2809
83.5186 530 23.0217
83.636 521 22.8254
83.7534 531 23.0434
83.8708 556 23.5797
83.9881 526 22.9347
84.1055 557 23.6008
84.2228 525 22.9129
84.3401 555 23.5584
84.4575 565 23.7697
84.5747 558 23.622
84.692 587 24.2281
84.8093 581 24.1039
84.9265 599 24.4745
85.0437 560 23.6643
85.1609 586 24.2074
85.2781 573 23.9374
85.3952 570 23.8747
85.5123 528 22.9783
85.6294 558 23.622
85.7465 534 23.1084
85.8636 578 24.0416
85.9806 599 24.4745
86.0976 522 22.8473
86.2145 555 23.5584
86.3315 599 24.4745
86.4484 560 23.6643
86.5652 572 23.9165
86.682 573 23.9374
86.7988 558 23.622
86.9156 521 22.8254
87.0323 562 23.7065
87.149 554 23.5372
87.2657 529 23
87.3823 507 22.5167
87.4988 545 23.3452
87.6154 499 22.3383
87.7318 512 22.6274
87.8483 534 23.1084
87.9647 489 22.1133
88.081 443 21.0476
88.1973 414 20.347
88.3136 369 19.2094
88.4298 366 19.1311
88.546 341 18.4662
88.6621 365 19.105
88.7781 344 18.5472
88.8942 0 1
89.0101 0 1
89.126 0 1
89.2419 0 1
89.3577 0 1
89.4734 0 1
89.5891 0 1
89.7047 0 1
89.8203 0 1
89.9358 0 1
92.3269 0 1
92.4424 0 1
92.558 0 1
92.6736 0 1
92.7893 0 1
92.905 0 1
93.0208 0 1
93.1366 0 1
93.2525 0 1
93.3685 0 1
93.4845 0 1
93.6005 406 20.1494
93.7167 469 21.6564
93.8328 500 22.3607
93.949 555 23.5584
94.0653 503 22.4277
94.1816 554 23.5372
94.2979 569 23.8537
94.4143 568 23.8328
94.5307 575 23.9792
94.6472 563 23.7276
94.7637 527 22.9565
94.8803 586 24.2074
94.9969 552 23.4947
95.1135 517 22.7376
95.2302 525 22.9129
95.3469 532 23.0651
95.4637 535 23.1301
95.5805 571 23.8956
95.6973 544 23.3238
95.8142 562 23.7065
95.9311 578 24.0416
96.048 560 23.6643
96.1649 530 23.0217
96.2819 597 24.4336
96.3989 566 23.7908
96.516 529 23
96.633 533 23.0868
96.7501 560 23.6643
96.8673 580 24.0832
96.9844 558 23.622
97.1016 573 23.9374
97.2188 545 23.3452
97.336 540 23.2379
97.4532 533 23.0868
97.5704 527 22.9565
97.6877 579 24.0624
97.805 588 24.2487
97.9223 590 24.2899
98.0396 635 25.1992
98.1569 643 25.3574
98.2743 570 23.8747
98.3916 608 24.6577
98.509 578 24.0416
98.6264 560 23.6643
98.7438 568 23.8328
98.8612 588 24.2487
98.9786 563 23.7276
99.096 589 24.2693
99.2134 576 24
99.3308 597 24.4336
99.4482 579 24.0624
99.5656 611 24.7184
99.6831 613 24.7588
99.8005 634 25.1794
99.9179 631 25.1197
100.035 609 24.6779
100.153 604 24.5764
100.27 591 24.3105
100.388 557 23.6008
100.505 537 23.1733
100.622 554 23.5372
100.74 587 24.2281
100.857 589 24.2693
100.975 594 24.3721
101.092 628 25.0599
101.209 583 24.1454
101.327 613 24.7588
101.444 652 25.5343
101.561 613 24.7588
101.679 652 25.5343
101.796 616 24.8193
101.913 592 24.3311
102.03 595 24.3926
102.148 628 25.0599
102.265 604 24.5764
102.382 535 23.1301
102.499 594 24.3721
102.616 568 23.8328
102.733 614 24.779
102.851 657 25.632
102.968 647 25.4362
103.085 633 25.1595
103.202 619 24.8797
103.319 636 25.219
103.436 605 24.5967
103.552 642 25.3377
103.669 584 24.1661
103.786 598 24.454
103.903 598 24.454
104.02 593 24.3516
104.137 610 24.6982
104.253 636 25.219
104.37 597 24.4336
104.487 570 23.8747
104.603 585 24.1868
104.72 664 25.7682
104.836 622 24.9399
104.953 623 24.96
105.069 597 24.4336
105.186 545 23.3452
105.302 566 23.7908
105.418 488 22.0907
105.535 443 21.0476
105.651 423 20.567
105.767 400 20
105.883 361 19
105.999 371 19.2614
106.115 0 1
106.231 0 1
106.347 0 1
106.463 0 1
106.579 0 1
106.694 0 1
106.81 0 1
106.926 0 1
107.041 0 1
107.157 0 1
109.576 0 1
109.692 0 1
109.807 0 1
109.923 0 1
110.039 0 1
110.155 0 1
110.27 0 1
110.386 0 1
110.502 0 1
110.618 302 17.3781
110.735 357 18.8944
110.851 393 19.8242
110.967 430 20.7364
111.083 444 21.0713
111.199 480 21.9089
111.316 520 22.8035
111.432 565 23.7697
111.549 552 23.4947
111.665 573 23.9374
111.782 589 24.2693
111.898 621 24.9199
112.015 639 25.2784
112.132 623 24.96
112.248 648 25.4558
112.365 548 23.4094
112.482 542 23.2809
112.599 532 23.0651
112.716 542 23.2809
112.832 561 23.6854
112.949 515 22.6936
113.066 466 21.587
113.183 520 22.8035
113.3 543 23.3024
113.417 535 23.1301
113.534 582 24.1247
113.652 527 22.9565
113.769 537 23.1733
113.886 583 24.1454
114.003 487 22.0681
114.12 580 24.0832
114.238 553 23.516
114.355 550 23.4521
114.472 533 23.0868
114.589 479 21.8861
114.707 471 21.7025
114.824 523 22.8692
114.942 535 23.1301
115.059 508 22.5389
115.176 521 22.8254
115.294 517 22.7376
115.411 515 22.6936
115.529 555 23.5584
115.646 488 22.0907
115.764 512 22.6274
115.881 472 21.7256
115.999 444 21.0713
116.116 457 21.3776
116.234 471 21.7025
116.351 452 21.2603
116.469 450 21.2132
116.586 469 21.6564
116.704 480 21.9089
116.821 512 22.6274
116.939 497 22.2935
117.056 522 22.8473
117.174 525 22.9129
117.291 539 23.2164
117.409 490 22.1359
117.526 466 21.587
117.644 529 23
117.761 516 22.7156
117.879 487 22.0681
117.996 496 22.2711
118.114 434 20.8327
118.231 412 20.2978
118.349 480 21.9089
118.466 464 21.5407
118.584 470 21.6795
118.701 495 22.2486
118.819 443 21.0476
118.936 484 22
119.053 506 22.4944
119.171 478 21.8632
119.288 476 21.8174
119.405 501 22.383
119.523 459 21.4243
119.64 464 21.5407
119.757 424 20.5913
119.875 408 20.199
119.992 440 20.9762
120.109 400 20
120.226 440 20.9762
120.343 440 20.9762
120.46 394 19.8494
120.578 499 22.3383
120.695 479 21.8861
120.812 465 21.5639
120.929 477 21.8403
121.046 489 22.1133
121.163 491 22.1585
121.279 428 20.6882
121.396 424 20.5913
121.513 460 21.4476
121.63 398 19.9499
121.747 426 20.6398
121.863 381 19.5192
121.98 403 20.0749
122.097 378 19.4422
122.213 424 20.5913
122.33 352 18.7617
122.446 377 19.4165
122.563 358 18.9209
122.679 333 18.2483
122.795 321 17.9165
122.912 321 17.9165
123.028 282 16.7929
123.144 270 16.4317
123.26 233 15.2643
123.377 0 1
123.493 0 1
123.609 0 1
123.725 0 1
123.84 0 1
123.956 0 1
124.072 0 1
124.188 0 1
124.303 0 1
124.419 0 1
126.852 0 1
126.968 0 1
127.083 0 1
127.199 0 1
127.315 0 1
127.431 0 1
127.547 0 1
127.663 0 1
127.779 0 1
127.895 0 1
128.011 0 1
128.127 0 1
128.243 0 1
128.359 508 22.5389
128.476 544 23.3238
128.592 515 22.6936
128.708 498 22.3159
128.825 495 22.2486
128.941 490 22.1359
129.058 482 21.9545
129.174 487 22.0681
129.291 506 22.4944
129.408 516 22.7156
129.524 527 22.9565
129.641 550 23.4521
129.758 525 22.9129
129.875 535 23.1301
129.992 573 23.9374
130.108 545 23.3452
130.225 584 24.1661
130.342 573 23.9374
130.459 540 23.2379
130.576 539 23.2164
130.693 558 23.622
130.81 517 22.7376
130.928 536 23.1517
131.045 580 24.0832
131.162 594 24.3721
131.279 646 25.4165
131.396 658 25.6515
131.513 702 26.4953
131.631 693 26.3249
131.748 702 26.4953
131.865 740 27.2029
131.983 720 26.8328
132.1 778 27.8927
132.217 792 28.1425
132.335 790 28.1069
132.452 807 28.4077
132.57 795 28.1957
132.687 885 29.7489
132.804 942 30.692
132.922 923 30.3809
133.039 929 30.4795
133.157 981 31.3209
133.274 1062 32.5883
133.392 1039 32.2335
133.509 993 31.5119
133.627 996 31.5595
133.744 1084 32.9242
133.862 1056 32.4962
133.979 1092 33.0454
134.097 988 31.4325
134.214 933 30.545
134.332 877 29.6142
134.449 829 28.7924
134.567 930 30.4959
134.684 929 30.4795
134.802 1004 31.686
134.919 1006 31.7175
135.037 1121 33.4813
135.154 1077 32.8177
135.272 1086 32.9545
135.389 1117 33.4215
135.507 1043 32.2955
135.624 1136 33.7046
135.742 1129 33.6006
135.859 1092 33.0454
135.977 1130 33.6155
136.094 1094 33.0757
136.211 1151 33.9264
136.329 1131 33.6303
136.446 1208 34.7563
136.564 1145 33.8378
136.681 1198 34.6121
136.798 1205 34.7131
136.915 1242 35.242
137.033 1281 35.7911
137.15 1254 35.4119
137.267 1206 34.7275
137.384 1253 35.3977
137.502 1228 35.0428
137.619 1302 36.0832
137.736 1244 35.2704
137.853 1072 32.7414
137.97 995 31.5436
138.087 1050 32.4037
138.204 1128 33.5857
138.321 1103 33.2114
138.438 1148 33.8821
138.555 1277 35.7351
138.672 1256 35.4401
138.788 1334 36.524
138.905 1339 36.5923
139.022 1288 35.8887
139.139 1222 34.9571
139.255 1231 35.0856
139.372 1156 34
139.488 1022 31.9687
139.605 896 29.9333
139.721 915 30.249
139.838 882 29.6985
139.954 880 29.6648
140.071 852 29.189
140.187 860 29.3258
140.303 733 27.074
140.419 742 27.2397
140.535 732 27.0555
140.652 674 25.9615
140.768 0 1
140.884 0 1
141 0 1
141.115 0 1
141.231 0 1
141.347 0 1
141.463 0 1
141.578 0 1
141.694 0 1
144.104 0 1
144.219 0 1
144.335 0 1
144.45 0 1
144.566 0 1
144.682 0 1
144.798 0 1
144.914 0 1
145.03 0 1
145.146 1133 33.6601
145.262 1168 34.176
145.378 1184 34.4093
145.494 1232 35.0999
145.61 1223 34.9714
145.726 1250 35.3553
145.842 1310 36.1939
145.959 1283 35.819
146.075 1311 36.2077
146.192 1318 36.3043
146.308 1283 35.819
146.425 1266 35.5809
146.541 1252 35.3836
146.658 1151 33.9264
146.774 1034 32.1559
146.891 1058 32.5269
147.008 1088 32.9848
147.125 1136 33.7046
147.241 1185 34.4238
147.358 1225 35
147.475 1216 34.8712
147.592 1279 35.7631
147.709 1270 35.6371
147.826 1335 36.5377
147.943 1281 35.7911
148.06 1337 36.565
148.177 1267 35.5949
148.294 1189 34.4819
148.411 1194 34.5543
148.528 1202 34.6699
148.645 1265 35.5668
148.762 1272 35.6651
148.88 1244 35.2704
148.997 1269 35.623
149.114 1241 35.2278
149.231 1258 35.4683
149.349 1351 36.756
149.466 1317 36.2905
149.583 1276 35.7211
149.701 1292 35.9444
149.818 1267 35.5949
149.935 1292 35.9444
150.053 1220 34.9285
150.17 1177 34.3074
150.287 1091 33.0303
150.405 1083 32.909
150.522 1109 33.3017
150.64 1050 32.4037
150.757 1068 32.6803
150.875 1017 31.8904
150.992 1093 33.0606
151.11 1087 32.9697
151.227 1122 33.4963
151.344 1134 33.6749
151.462 1198 34.6121
151.579 1111 33.3317
151.697 1082 32.8938
151.814 1045 32.3265
151.932 1050 32.4037
152.049 999 31.607
152.167 993 31.5119
152.284 1047 32.3574
152.402 1121 33.4813
152.519 1092 33.0454
152.636 1122 33.4963
152.754 1117 33.4215
152.871 1167 34.1614
152.989 1138 33.7343
153.106 1158 34.0294
153.223 1132 33.6452
153.341 1153 33.9559
153.458 1090 33.0151
153.575 1119 33.4515
153.693 1071 32.7261
153.81 1033 32.1403
153.927 957 30.9354
154.044 944 30.7246
154.162 898 29.9666
154.279 939 30.6431
154.396 1020 31.9374
154.513 1050 32.4037
154.63 1005 31.7017
154.747 1007 31.7333
154.864 1006 31.7175
154.981 1037 32.2025
155.098 1074 32.7719
155.215 1114 33.3766
155.332 1068 32.6803
155.449 975 31.225
155.566 1051 32.4191
155.683 1007 31.7333
155.8 975 31.225
155.917 1056 32.4962
156.033 977 31.257
156.15 0 1
156.267 0 1
156.383 0 1
156.5 0 1
156.617 0 1
156.733 0 1
156.85 0 1
156.966 0 1
157.082 0 1
157.199 0 1
157.315 0 1
157.431 0 1
157.547 0 1
157.664 0 1
157.78 0 1
157.896 0 1
158.012 0 1
158.128 0 1
158.244 0 1
158.359 0 1
158.475 0 1
158.591 0 1
158.706 0 1
