
6.15755 0 1
6.2731 0 1
6.3887 0 1
6.50437 0 1
6.62009 0 1
6.73587 0 1
6.8517 0 1
6.96759 0 1
7.08353 0 1
7.19952 0 1
7.31557 0 1
7.43166 0 1
7.54781 0 1
7.664 0 1
7.78024 0 1
7.89653 0 1
8.01286 0 1
8.12924 0 1
8.24567 0 1
8.36213 0 1
8.47864 0 1
8.59519 0 1
8.71178 0 1
8.82841 0 1
8.94508 0 1
9.06179 0 1
9.17853 0 1
9.29531 0 1
9.41212 0 1
9.52897 0 1
9.64584 0 1
9.76276 0 1
9.8797 0 1
9.99667 0 1
10.1137 0 1
10.2307 0 1
10.3478 0 1
10.4648 0 1
10.5819 0 1
10.6991 0 1
10.8162 0 1
10.9334 0 1
11.0506 0 1
11.1678 0 1
11.285 0 1
11.4023 0 1
11.5196 0 1
11.6369 0 1
11.7542 0 1
11.8715 0 1
11.9888 0 1
12.1062 0 1
12.2235 0 1
12.3409 0 1
12.4582 0 1
12.5756 0 1
12.693 0 1
12.8104 0 1
12.9278 0 1
13.0452 0 1
13.1626 0 1
13.28 0 1
13.3974 0 1
13.5149 0 1
13.6323 0 1
13.7497 0 1
13.8671 0 1
13.9845 0 1
14.1019 0 1
14.2193 0 1
14.3367 0 1
14.4541 0 1
14.5714 0 1
14.6888 0 1
14.8062 0 1
14.9235 0 1
15.0408 0 0
15.1581 0 0
15.2755 0 0
15.3927 0 0
15.51 0 0
15.6273 0 0
15.7445 0 0
15.8617 0 0
15.9789 0 0
16.0961 0 0
16.2132 0 0
16.3304 0 0
16.4475 0 0
16.5646 0 0
16.6816 0 0
16.7986 0 0
16.9156 0 0
17.0326 0 0
17.1496 0 0
17.2665 0 0
17.3833 0 0
17.5002 0 0
17.617 0 0
17.7338 0 0
17.8505 0 0
17.9672 0 0
18.0839 0 0
18.2005 0 0
18.3171 0 0
18.4337 0 0
18.5502 0 0
18.6666 0 0
18.7831 0 0
18.8994 0 0
19.0158 0 0
19.1321 0 0
19.2483 0 0
19.3645 0 0
19.4806 0 0
19.5967 0 0
19.7128 0 0
19.8288 0 0
19.9447 0 0
20.0606 0 1
20.1764 0 1
20.2922 0 1
20.4079 0 1
20.5236 0 1
20.6392 0 1
20.7548 0 1
20.8702 0 1
23.3078 0 1
23.4233 0 1
23.539 0 1
23.6547 0 1
23.7704 0 1
23.8862 0 1
24.0021 0 1
24.118 0 1
24.234 0 1
24.35 0 1
24.4661 1449 38.0657
24.5822 1433 37.855
24.6984 1360 36.8782
24.8146 1451 38.092
24.9309 1382 37.1753
25.0472 1442 37.9737
25.1636 1361 36.8917
25.28 1432 37.8418
25.3965 1471 38.3536
25.513 1447 38.0395
25.6296 1368 36.9865
25.7462 1472 38.3667
25.8628 1394 37.3363
25.9795 1421 37.6962
26.0962 1382 37.1753
26.213 1539 39.2301
26.3298 1467 38.3014
26.4466 1460 38.2099
26.5635 1349 36.7287
26.6804 1345 36.6742
26.7973 1263 35.5387
26.9143 1303 36.0971
27.0313 1298 36.0278
27.1483 1342 36.6333
27.2653 1429 37.8021
27.3824 1472 38.3667
27.4996 1408 37.5233
27.6167 1432 37.8418
27.7339 1438 37.921
27.8511 1462 38.2361
27.9683 1405 37.4833
28.0855 1432 37.8418
28.2028 1399 37.4032
28.3201 1322 36.3593
28.4374 1398 37.3898
28.5547 1354 36.7967
28.6721 1427 37.7757
28.7894 1333 36.5103
28.9068 1363 36.9188
29.0242 1374 37.0675
29.1416 1414 37.6032
29.259 1327 36.428
29.3764 1326 36.4143
29.4939 1336 36.5513
29.6113 1401 37.4299
29.7288 1366 36.9594
29.8463 1288 35.8887
29.9638 1261 35.5106
30.0812 1242 35.242
30.1987 1171 34.2199
30.3162 1097 33.121
30.4337 1196 34.5832
30.5512 1240 35.2136
30.6687 1295 35.9861
30.7862 1304 36.1109
30.9037 1304 36.1109
31.0212 1359 36.8646
31.1387 1440 37.9473
31.2562 1382 37.1753
31.3737 1476 38.4187
31.4912 1445 38.0132
31.6087 1396 37.3631
31.7262 1360 36.8782
31.8436 1378 37.1214
31.9611 1343 36.647
32.0785 1234 35.1283
32.1959 1295 35.9861
32.3134 1264 35.5528
32.4308 1293 35.9583
32.5482 1258 35.4683
32.6655 1382 37.1753
32.7829 1296 36
32.9002 1305 36.1248
33.0176 1314 36.2491
33.1349 1356 36.8239
33.2522 1340 36.606
33.3694 1299 36.0416
33.4867 1291 35.9305
33.6039 1262 35.5246
33.7211 1241 35.2278
33.8383 1198 34.6121
33.9554 1088 32.9848
34.0725 1155 33.9853
34.1896 1194 34.5543
34.3067 1251 35.3695
34.4237 1274 35.6931
34.5407 1300 36.0555
34.6577 1308 36.1663
34.7746 1298 36.0278
34.8915 1312 36.2215
35.0084 1346 36.6879
35.1252 1352 36.7696
35.242 1341 36.6197
35.3587 1370 37.0135
35.4755 1316 36.2767
35.5921 1317 36.2905
35.7088 1235 35.1426
35.8254 1253 35.3977
35.9419 1252 35.3836
36.0584 1221 34.9428
36.1749 1254 35.4119
36.2913 1235 35.1426
36.4077 1298 36.0278
36.524 1163 34.1028
36.6403 1196 34.5832
36.7565 1251 35.3695
36.8727 1249 35.3412
36.9889 1297 36.0139
37.1049 1217 34.8855
37.221 0 1
37.3369 0 1
37.4529 0 1
37.5687 0 1
37.6845 0 1
37.8003 0 1
37.916 0 1
38.0316 0 1
38.1472 0 1
40.5851 0 1
40.7008 0 1
40.8164 0 1
40.9322 0 1
41.048 0 1
41.1639 0 1
41.2798 0 1
41.3958 0 1
41.5118 0 1
41.6279 0 1
41.744 923 30.3809
41.8602 911 30.1828
41.9765 996 31.5595
42.0928 1039 32.2335
42.2091 971 31.1609
42.3255 1029 32.078
42.4419 1012 31.8119
42.5584 943 30.7083
42.675 821 28.6531
42.7915 770 27.7489
42.9081 817 28.5832
43.0248 851 29.1719
43.1415 906 30.0998
43.2582 896 29.9333
43.375 965 31.0644
43.4918 987 31.4166
43.6087 973 31.1929
43.7256 977 31.257
43.8425 988 31.4325
43.9595 931 30.5123
44.0765 945 30.7409
44.1935 952 30.8545
44.3106 914 30.2324
44.4277 828 28.775
44.5448 833 28.8617
44.6619 780 27.9285
44.7791 833 28.8617
44.8963 773 27.8029
45.0136 765 27.6586
45.1308 778 27.8927
45.2481 766 27.6767
45.3654 779 27.9106
45.4827 753 27.4408
45.6001 724 26.9072
45.7174 742 27.2397
45.8348 724 26.9072
45.9522 746 27.313
46.0697 673 25.9422
46.1871 628 25.0599
46.3046 550 23.4521
46.422 560 23.6643
46.5395 648 25.4558
46.657 654 25.5734
46.7745 707 26.5895
46.892 695 26.3629
47.0096 734 27.0924
47.1271 690 26.2679
47.2446 668 25.8457
47.3622 711 26.6646
47.4797 672 25.923
47.5973 658 25.6515
47.7149 706 26.5707
47.8324 607 24.6374
47.95 654 25.5734
48.0675 598 24.454
48.1851 577 24.0208
48.3027 536 23.1517
48.4202 563 23.7276
48.5378 501 22.383
48.6554 505 22.4722
48.7729 520 22.8035
48.8904 559 23.6432
49.008 599 24.4745
49.1255 564 23.7487
49.243 558 23.622
49.3605 565 23.7697
49.478 532 23.0651
49.5955 452 21.2603
49.713 473 21.7486
49.8304 433 20.8087
49.9479 445 21.095
50.0653 564 23.7487
50.1827 538 23.1948
50.3001 593 24.3516
50.4175 657 25.632
50.5348 639 25.2784
50.6521 722 26.8701
50.7694 699 26.4386
50.8867 694 26.3439
51.004 689 26.2488
51.1212 707 26.5895
51.2384 802 28.3196
51.3556 719 26.8142
51.4727 792 28.1425
51.5899 722 26.8701
51.707 804 28.3549
51.824 709 26.6271
51.9411 731 27.037
52.0581 794 28.178
52.175 786 28.0357
52.2919 816 28.5657
52.4088 817 28.5832
52.5257 844 29.0517
52.6425 890 29.8329
52.7593 920 30.3315
52.876 952 30.8545
52.9927 966 31.0805
53.1094 813 28.5132
53.226 783 27.9821
53.3426 736 27.1293
53.4591 703 26.5141
53.5756 751 27.4044
53.692 883 29.7153
53.8084 969 31.1288
53.9248 1010 31.7805
54.0411 1041 32.2645
54.1573 1075 32.7872
54.2735 0 1
54.3896 0 1
54.5057 0 1
54.6217 0 1
54.7377 0 1
54.8537 0 1
54.9695 0 1
55.0853 0 1
55.2011 0 1
55.3168 0 1
55.4324 0 1
57.824 0 1
57.9396 0 1
58.0553 0 1
58.1711 0 1
58.2869 0 1
58.4028 0 1
58.5187 0 1
58.6347 0 1
58.7508 0 1
58.8669 0 1
58.983 1107 33.2716
59.0992 1189 34.4819
59.2155 1263 35.5387
59.3318 1315 36.2629
59.4482 1308 36.1663
59.5646 1268 35.609
59.681 1297 36.0139
59.7975 1203 34.6843
59.9141 1316 36.2767
60.0306 1216 34.8712
60.1473 1213 34.8281
60.2639 1189 34.4819
60.3807 1099 33.1512
60.4974 1084 32.9242
60.6142 1033 32.1403
60.731 1036 32.187
60.8479 1044 32.311
60.9648 1083 32.909
61.0818 1097 33.121
61.1987 1100 33.1662
61.3158 1066 32.6497
61.4328 1061 32.573
61.5499 1055 32.4808
61.667 962 31.0161
61.7841 840 28.9828
61.9013 822 28.6705
62.0185 821 28.6531
62.1357 881 29.6816
62.253 951 30.8383
62.3702 1060 32.5576
62.4875 1129 33.6006
62.6049 1191 34.5109
62.7222 1265 35.5668
62.8396 1197 34.5977
62.9569 1204 34.6987
63.0743 1226 35.0143
63.1918 1212 34.8138
63.3092 1217 34.8855
63.4267 1275 35.7071
63.5441 1174 34.2637
63.6616 1180 34.3511
63.7791 1095 33.0908
63.8966 1114 33.3766
64.0142 1048 32.3728
64.1317 1080 32.8634
64.2492 1033 32.1403
64.3668 1097 33.121
64.4843 1108 33.2866
64.6019 1122 33.4963
64.7195 1122 33.4963
64.837 1184 34.4093
64.9546 1161 34.0735
65.0722 1106 33.2566
65.1898 1048 32.3728
65.3074 1001 31.6386
65.4249 829 28.7924
65.5425 824 28.7054
65.6601 875 29.5804
65.7777 921 30.348
65.8952 1017 31.8904
66.0128 1148 33.8821
66.1304 1229 35.0571
66.2479 1261 35.5106
66.3655 1267 35.5949
66.483 1302 36.0832
66.6005 1332 36.4966
66.718 1265 35.5668
66.8355 1253 35.3977
66.953 1286 35.8608
67.0705 1234 35.1283
67.1879 1174 34.2637
67.3054 1123 33.5112
67.4228 1070 32.7109
67.5402 1060 32.5576
67.6576 1060 32.5576
67.7749 979 31.289
67.8923 994 31.5278
68.0096 1048 32.3728
68.1269 1053 32.45
68.2442 1090 33.0151
68.3614 1090 33.0151
68.4787 1089 33
68.5958 1144 33.8231
68.713 1058 32.5269
68.8302 979 31.289
68.9473 891 29.8496
69.0643 759 27.55
69.1814 751 27.4044
69.2984 775 27.8388
69.4154 931 30.5123
69.5323 1042 32.28
69.6492 1089 33
69.7661 1103 33.2114
69.8829 1230 35.0714
69.9997 1236 35.1568
70.1165 1239 35.1994
70.2332 1221 34.9428
70.3499 1307 36.1525
70.4665 1205 34.7131
70.5831 1233 35.1141
70.6996 1221 34.9428
70.8161 1100 33.1662
70.9326 1093 33.0606
71.049 1017 31.8904
71.1653 1013 31.8277
71.2817 988 31.4325
71.3979 935 30.5778
71.5141 903 30.05
71.6303 952 30.8545
71.7464 857 29.2746
71.8624 0 1
71.9784 0 1
72.0944 0 1
72.2102 0 1
72.3261 0 1
72.4418 0 1
72.5575 0 1
72.6732 0 1
75.1054 0 1
75.2209 0 1
75.3365 0 1
75.4521 0 1
75.5678 0 1
75.6835 0 1
75.7993 0 1
75.9151 0 1
76.031 0 1
76.147 993 31.5119
76.263 1036 32.187
76.3791 1041 32.2645
76.4952 1011 31.7962
76.6113 955 30.9031
76.7276 900 30
76.8438 1017 31.8904
76.9601 1020 31.9374
77.0765 1050 32.4037
77.1929 957 30.9354
77.3093 1048 32.3728
77.4258 1132 33.6452
77.5423 1070 32.7109
77.6589 1094 33.0757
77.7755 977 31.257
77.8921 862 29.3598
78.0088 741 27.2213
78.1256 737 27.1477
78.2423 699 26.4386
78.3591 693 26.3249
78.4759 808 28.4253
78.5928 1033 32.1403
78.7097 1105 33.2415
78.8266 1094 33.0757
78.9436 1159 34.0441
79.0606 1126 33.5559
79.1776 1157 34.0147
79.2946 1179 34.3366
79.4117 1170 34.2053
79.5288 1131 33.6303
79.6459 1175 34.2783
79.7631 1077 32.8177
79.8802 1032 32.1248
79.9974 970 31.1448
80.1147 900 30
80.2319 884 29.7321
80.3491 861 29.3428
80.4664 843 29.0345
80.5837 918 30.2985
80.701 939 30.6431
80.8183 913 30.2159
80.9357 875 29.5804
81.053 946 30.7571
81.1704 986 31.4006
81.2877 898 29.9666
81.4051 847 29.1033
81.5225 807 28.4077
81.6399 705 26.5518
81.7573 644 25.3772
81.8747 636 25.219
81.9922 616 24.8193
82.1096 820 28.6356
82.227 836 28.9137
82.3444 925 30.4138
82.4619 996 31.5595
82.5793 1088 32.9848
82.6967 994 31.5278
82.8142 1016 31.8748
82.9316 1035 32.1714
83.049 1015 31.8591
83.1664 1039 32.2335
83.2838 935 30.5778
83.4012 875 29.5804
83.5186 851 29.1719
83.636 810 28.4605
83.7534 739 27.1846
83.8708 750 27.3861
83.9881 757 27.5136
84.1055 771 27.7669
84.2228 766 27.6767
84.3401 774 27.8209
84.4575 823 28.688
84.5747 893 29.8831
84.692 891 29.8496
84.8093 913 30.2159
84.9265 842 29.0172
85.0437 738 27.1662
85.1609 667 25.8263
85.2781 597 24.4336
85.3952 564 23.7487
85.5123 577 24.0208
85.6294 681 26.096
85.7465 807 28.4077
85.8636 916 30.2655
85.9806 1048 32.3728
86.0976 1030 32.0936
86.2145 1073 32.7567
86.3315 1115 33.3916
86.4484 1075 32.7872
86.5652 1101 33.1813
86.682 1110 33.3167
86.7988 1135 33.6898
86.9156 1027 32.0468
87.0323 960 30.9839
87.149 983 31.3528
87.2657 946 30.7571
87.3823 954 30.8869
87.4988 916 30.2655
87.6154 880 29.6648
87.7318 875 29.5804
87.8483 981 31.3209
87.9647 1022 31.9687
88.081 999 31.607
88.1973 1092 33.0454
88.3136 1044 32.311
88.4298 1079 32.8481
88.546 958 30.9516
88.6621 890 29.8329
88.7781 768 27.7128
88.8942 0 1
89.0101 0 1
89.126 0 1
89.2419 0 1
89.3577 0 1
89.4734 0 1
89.5891 0 1
89.7047 0 1
89.8203 0 1
89.9358 0 1
92.3269 0 1
92.4424 0 1
92.558 0 1
92.6736 0 1
92.7893 0 1
92.905 0 1
93.0208 0 1
93.1366 0 1
93.2525 0 1
93.3685 0 1
93.4845 0 1
93.6005 1019 31.9218
93.7167 1034 32.1559
93.8328 1035 32.1714
93.949 1059 32.5423
94.0653 951 30.8383
94.1816 862 29.3598
94.2979 778 27.8927
94.4143 758 27.5318
94.5307 728 26.9815
94.6472 756 27.4955
94.7637 884 29.7321
94.8803 967 31.0966
94.9969 1075 32.7872
95.1135 1113 33.3617
95.2302 1165 34.1321
95.3469 1244 35.2704
95.4637 1207 34.7419
95.5805 1221 34.9428
95.6973 1311 36.2077
95.8142 1247 35.3129
95.9311 1294 35.9722
96.048 1186 34.4384
96.1649 1183 34.3948
96.2819 1065 32.6343
96.3989 1032 32.1248
96.516 1007 31.7333
96.633 988 31.4325
96.7501 980 31.305
96.8673 1012 31.8119
96.9844 984 31.3688
97.1016 1063 32.6037
97.2188 1091 33.0303
97.336 1093 33.0606
97.4532 1176 34.2929
97.5704 1087 32.9697
97.6877 1059 32.5423
97.805 905 30.0832
97.9223 830 28.8097
98.0396 746 27.313
98.1569 725 26.9258
98.2743 778 27.8927
98.3916 830 28.8097
98.509 992 31.496
98.6264 1136 33.7046
98.7438 1151 33.9264
98.8612 1154 33.9706
98.9786 1218 34.8999
99.096 1210 34.7851
99.2134 1270 35.6371
99.3308 1296 36
99.4482 1216 34.8712
99.5656 1224 34.9857
99.6831 1209 34.7707
99.8005 1142 33.7935
99.9179 1105 33.2415
100.035 1029 32.078
100.153 1025 32.0156
100.27 984 31.3688
100.388 1020 31.9374
100.505 943 30.7083
100.622 1079 32.8481
100.74 1078 32.8329
100.857 1148 33.8821
100.975 1124 33.5261
101.092 1139 33.7491
101.209 1103 33.2114
101.327 1048 32.3728
101.444 976 31.241
101.561 829 28.7924
101.679 825 28.7228
101.796 823 28.688
101.913 856 29.2575
102.03 950 30.8221
102.148 1058 32.5269
102.265 1145 33.8378
102.382 1290 35.9166
102.499 1263 35.5387
102.616 1377 37.108
102.733 1361 36.8917
102.851 1385 37.2156
102.968 1439 37.9342
103.085 1343 36.647
103.202 1345 36.6742
103.319 1184 34.4093
103.436 1228 35.0428
103.552 1171 34.2199
103.669 1061 32.573
103.786 1031 32.1092
103.903 1092 33.0454
104.02 1136 33.7046
104.137 1143 33.8083
104.253 1183 34.3948
104.37 1210 34.7851
104.487 1250 35.3553
104.603 1305 36.1248
104.72 1217 34.8855
104.836 1111 33.3317
104.953 945 30.7409
105.069 921 30.348
105.186 893 29.8831
105.302 886 29.7658
105.418 956 30.9192
105.535 1175 34.2783
105.651 1293 35.9583
105.767 1357 36.8375
105.883 1446 38.0263
105.999 1528 39.0896
106.115 0 1
106.231 0 1
106.347 0 1
106.463 0 1
106.579 0 1
106.694 0 1
106.81 0 1
106.926 0 1
107.041 0 1
107.157 0 1
109.576 0 1
109.692 0 1
109.807 0 1
109.923 0 1
110.039 0 1
110.155 0 1
110.27 0 1
110.386 0 1
110.502 0 1
110.618 1115 33.3916
110.735 1196 34.5832
110.851 1311 36.2077
110.967 1385 37.2156
111.083 1393 37.3229
111.199 1429 37.8021
111.316 1373 37.054
111.432 1421 37.6962
111.549 1360 36.8782
111.665 1332 36.4966
111.782 1315 36.2629
111.898 1317 36.2905
112.015 1168 34.176
112.132 1118 33.4365
112.248 1127 33.5708
112.365 1045 32.3265
112.482 1035 32.1714
112.599 1136 33.7046
112.716 1192 34.5254
112.832 1177 34.3074
112.949 1228 35.0428
113.066 1182 34.3802
113.183 1163 34.1028
113.3 1137 33.7194
113.417 1039 32.2335
113.534 955 30.9031
113.652 854 29.2233
113.769 867 29.4449
113.886 843 29.0345
114.003 904 30.0666
114.12 1051 32.4191
114.238 1188 34.4674
114.355 1235 35.1426
114.472 1238 35.1852
114.589 1269 35.623
114.707 1300 36.0555
114.824 1386 37.229
114.942 1336 36.5513
115.059 1434 37.8682
115.176 1378 37.1214
115.294 1366 36.9594
115.411 1315 36.2629
115.529 1235 35.1426
115.646 1162 34.0881
115.764 1099 33.1512
115.881 1079 32.8481
115.999 1145 33.8378
116.116 1112 33.3467
116.234 1170 34.2053
116.351 1188 34.4674
116.469 1270 35.6371
116.586 1158 34.0294
116.704 1209 34.7707
116.821 1165 34.1321
116.939 1163 34.1028
117.056 1026 32.0312
117.174 960 30.9839
117.291 995 31.5436
117.409 914 30.2324
117.526 987 31.4166
117.644 1034 32.1559
117.761 1161 34.0735
117.879 1278 35.7491
117.996 1338 36.5787
118.114 1359 36.8646
118.231 1365 36.9459
118.349 1416 37.6298
118.466 1450 38.0789
118.584 1532 39.1408
118.701 1426 37.7624
118.819 1420 37.6829
118.936 1349 36.7287
119.053 1363 36.9188
119.171 1231 35.0856
119.288 1206 34.7275
119.405 1157 34.0147
119.523 1082 32.8938
119.64 1141 33.7787
119.757 1187 34.4529
119.875 1239 35.1994
119.992 1200 34.641
120.109 1238 35.1852
120.226 1252 35.3836
120.343 1282 35.805
120.46 1118 33.4365
120.578 1122 33.4963
120.695 1146 33.8526
120.812 1073 32.7567
120.929 946 30.7571
121.046 992 31.496
121.163 937 30.6105
121.279 986 31.4006
121.396 1109 33.3017
121.513 1209 34.7707
121.63 1335 36.5377
121.747 1320 36.3318
121.863 1342 36.6333
121.98 1404 37.47
122.097 1410 37.55
122.213 1432 37.8418
122.33 1409 37.5366
122.446 1377 37.108
122.563 1326 36.4143
122.679 1304 36.1109
122.795 1295 35.9861
122.912 1228 35.0428
123.028 1200 34.641
123.144 1156 34
123.26 1133 33.6601
123.377 0 1
123.493 0 1
123.609 0 1
123.725 0 1
123.84 0 1
123.956 0 1
124.072 0 1
124.188 0 1
124.303 0 1
124.419 0 1
126.852 0 1
126.968 0 1
127.083 0 1
127.199 0 1
127.315 0 1
127.431 0 1
127.547 0 1
127.663 0 1
127.779 0 1
127.895 0 1
128.011 0 1
128.127 0 1
128.243 0 1
128.359 1301 36.0694
128.476 1204 34.6987
128.592 1187 34.4529
128.708 1195 34.5688
128.825 1291 35.9305
128.941 1351 36.756
129.058 1246 35.2987
129.174 1354 36.7967
129.291 1294 35.9722
129.408 1320 36.3318
129.524 1244 35.2704
129.641 1270 35.6371
129.758 1158 34.0294
129.875 1149 33.8969
129.992 1111 33.3317
130.108 1080 32.8634
130.225 1128 33.5857
130.342 1200 34.641
130.459 1216 34.8712
130.576 1352 36.7696
130.693 1381 37.1618
130.81 1374 37.0675
130.928 1411 37.5633
131.045 1481 38.4838
131.162 1502 38.7556
131.279 1453 38.1182
131.396 1461 38.223
131.513 1459 38.1969
131.631 1343 36.647
131.748 1365 36.9459
131.865 1363 36.9188
131.983 1227 35.0286
132.1 1235 35.1426
132.217 1236 35.1568
132.335 1304 36.1109
132.452 1322 36.3593
132.57 1285 35.8469
132.687 1282 35.805
132.804 1346 36.6879
132.922 1341 36.6197
133.039 1311 36.2077
133.157 1308 36.1663
133.274 1204 34.6987
133.392 1174 34.2637
133.509 1136 33.7046
133.627 1047 32.3574
133.744 1096 33.1059
133.862 1185 34.4238
133.979 1242 35.242
134.097 1227 35.0286
134.214 1369 37
134.332 1382 37.1753
134.449 1468 38.3145
134.567 1428 37.7889
134.684 1432 37.8418
134.802 1483 38.5097
134.919 1444 38
135.037 1491 38.6135
135.154 1394 37.3363
135.272 1417 37.6431
135.389 1334 36.524
135.507 1304 36.1109
135.624 1227 35.0286
135.742 1290 35.9166
135.859 1345 36.6742
135.977 1300 36.0555
136.094 1415 37.6165
136.211 1437 37.9078
136.329 1366 36.9594
136.446 1365 36.9459
136.564 1320 36.3318
136.681 1312 36.2215
136.798 1336 36.5513
136.915 1266 35.5809
137.033 1196 34.5832
137.15 1160 34.0588
137.267 1185 34.4238
137.384 1088 32.9848
137.502 1161 34.0735
137.619 1287 35.8748
137.736 1261 35.5106
137.853 1332 36.4966
137.97 1339 36.5923
138.087 1388 37.2559
138.204 1377 37.108
138.321 1445 38.0132
138.438 1416 37.6298
138.555 1467 38.3014
138.672 1407 37.51
138.788 1445 38.0132
138.905 1409 37.5366
139.022 1380 37.1484
139.139 1264 35.5528
139.255 1283 35.819
139.372 1196 34.5832
139.488 1299 36.0416
139.605 1421 37.6962
139.721 1438 37.921
139.838 1366 36.9594
139.954 1320 36.3318
140.071 1331 36.4829
140.187 1365 36.9459
140.303 1309 36.1801
140.419 1280 35.7771
140.535 1183 34.3948
140.652 1159 34.0441
140.768 0 1
140.884 0 1
141 0 1
141.115 0 1
141.231 0 1
141.347 0 1
141.463 0 1
141.578 0 1
141.694 0 1
144.104 0 1
144.219 0 1
144.335 0 1
144.45 0 1
144.566 0 1
144.682 0 1
144.798 0 1
144.914 0 1
145.03 0 1
145.146 913 30.2159
145.262 947 30.7734
145.378 1027 32.0468
145.494 1049 32.3883
145.61 1003 31.6702
145.726 1000 31.6228
145.842 949 30.8058
145.959 912 30.1993
146.075 938 30.6268
146.192 883 29.7153
146.308 953 30.8707
146.425 889 29.8161
146.541 938 30.6268
146.658 996 31.5595
146.774 1001 31.6386
146.891 1014 31.8434
147.008 1122 33.4963
147.125 1078 32.8329
147.241 1091 33.0303
147.358 1198 34.6121
147.475 1111 33.3317
147.592 1129 33.6006
147.709 1048 32.3728
147.826 1086 32.9545
147.943 1065 32.6343
148.06 1024 32
148.177 975 31.225
148.294 1029 32.078
148.411 1038 32.218
148.528 1122 33.4963
148.645 1113 33.3617
148.762 1085 32.9393
148.88 1024 32
148.997 1064 32.619
149.114 1064 32.619
149.231 1024 32
149.349 1035 32.1714
149.466 1003 31.6702
149.583 1044 32.311
149.701 1035 32.1714
149.818 1018 31.9061
149.935 962 31.0161
150.053 976 31.241
150.17 967 31.0966
150.287 953 30.8707
150.405 955 30.9031
150.522 1040 32.249
150.64 1127 33.5708
150.757 1093 33.0606
150.875 1123 33.5112
150.992 1107 33.2716
151.11 1159 34.0441
151.227 1084 32.9242
151.344 1142 33.7935
151.462 1102 33.1964
151.579 1167 34.1614
151.697 1057 32.5115
151.814 942 30.692
151.932 1031 32.1092
152.049 1063 32.6037
152.167 1027 32.0468
152.284 1106 33.2566
152.402 1122 33.4963
152.519 1100 33.1662
152.636 1103 33.2114
152.754 1093 33.0606
152.871 1131 33.6303
152.989 1114 33.3766
153.106 1098 33.1361
153.223 1058 32.5269
153.341 1079 32.8481
153.458 1104 33.2265
153.575 1070 32.7109
153.693 1053 32.45
153.81 1059 32.5423
153.927 993 31.5119
154.044 1115 33.3916
154.162 1157 34.0147
154.279 1171 34.2199
154.396 1239 35.1994
154.513 1216 34.8712
154.63 1272 35.6651
154.747 1298 36.0278
154.864 1289 35.9026
154.981 1327 36.428
155.098 1316 36.2767
155.215 1225 35
155.332 1206 34.7275
155.449 1105 33.2415
155.566 1138 33.7343
155.683 1245 35.2846
155.8 1237 35.171
155.917 1263 35.5387
156.033 1277 35.7351
156.15 0 1
156.267 0 1
156.383 0 1
156.5 0 1
156.617 0 1
156.733 0 1
156.85 0 1
156.966 0 1
157.082 0 1
157.199 0 1
157.315 0 1
157.431 0 1
157.547 0 1
157.664 0 1
157.78 0 1
157.896 0 1
158.012 0 1
158.128 0 1
158.244 0 1
158.359 0 1
158.475 0 1
158.591 0 1
158.706 0 1
