
6.15755 0 1
6.2731 0 1
6.3887 0 1
6.50437 0 1
6.62009 0 1
6.73587 0 1
6.8517 0 1
6.96759 0 1
7.08353 0 1
7.19952 0 1
7.31557 0 1
7.43166 0 1
7.54781 0 1
7.664 0 1
7.78024 0 1
7.89653 0 1
8.01286 0 1
8.12924 0 1
8.24567 0 1
8.36213 0 1
8.47864 0 1
8.59519 0 1
8.71178 0 1
8.82841 0 1
8.94508 0 1
9.06179 0 1
9.17853 0 1
9.29531 0 1
9.41212 0 1
9.52897 0 1
9.64584 0 1
9.76276 0 1
9.8797 0 1
9.99667 0 1
10.1137 0 1
10.2307 0 1
10.3478 0 1
10.4648 0 1
10.5819 0 1
10.6991 0 1
10.8162 0 1
10.9334 0 1
11.0506 0 1
11.1678 0 1
11.285 0 1
11.4023 0 1
11.5196 0 1
11.6369 0 1
11.7542 0 1
11.8715 0 1
11.9888 0 1
12.1062 0 1
12.2235 0 1
12.3409 0 1
12.4582 0 1
12.5756 0 1
12.693 0 1
12.8104 0 1
12.9278 0 1
13.0452 0 1
13.1626 0 1
13.28 0 1
13.3974 0 1
13.5149 0 1
13.6323 0 1
13.7497 0 1
13.8671 0 1
13.9845 0 1
14.1019 0 1
14.2193 0 1
14.3367 0 1
14.4541 0 1
14.5714 0 1
14.6888 0 1
14.8062 0 1
14.9235 0 1
15.0408 0 0
15.1581 0 0
15.2755 0 0
15.3927 0 0
15.51 0 0
15.6273 0 0
15.7445 0 0
15.8617 0 0
15.9789 0 0
16.0961 0 0
16.2132 0 0
16.3304 0 0
16.4475 0 0
16.5646 0 0
16.6816 0 0
16.7986 0 0
16.9156 0 0
17.0326 0 0
17.1496 0 0
17.2665 0 0
17.3833 0 0
17.5002 0 0
17.617 0 0
17.7338 0 0
17.8505 0 0
17.9672 0 0
18.0839 0 0
18.2005 0 0
18.3171 0 0
18.4337 0 0
18.5502 0 0
18.6666 0 0
18.7831 0 0
18.8994 0 0
19.0158 0 0
19.1321 0 0
19.2483 0 0
19.3645 0 0
19.4806 0 0
19.5967 0 0
19.7128 0 0
19.8288 0 0
19.9447 0 0
20.0606 0 1
20.1764 0 1
20.2922 0 1
20.4079 0 1
20.5236 0 1
20.6392 0 1
20.7548 0 1
20.8702 0 1
23.3078 0 1
23.4233 0 1
23.539 0 1
23.6547 0 1
23.7704 0 1
23.8862 0 1
24.0021 0 1
24.118 0 1
24.234 0 1
24.35 0 1
24.4661 1167 34.1614
24.5822 1284 35.8329
24.6984 1295 35.9861
24.8146 1299 36.0416
24.9309 1435 37.8814
25.0472 1605 40.0625
25.1636 1825 42.72
25.28 2008 44.8107
25.3965 2187 46.7654
25.513 2363 48.6107
25.6296 2486 49.8598
25.7462 2543 50.4282
25.8628 2810 53.0094
25.9795 2748 52.4214
26.0962 2796 52.8772
26.213 2669 51.6624
26.3298 2754 52.4786
26.4466 2671 51.6817
26.5635 2603 51.0196
26.6804 2667 51.643
26.7973 2597 50.9608
26.9143 2611 51.0979
27.0313 2643 51.4101
27.1483 2612 51.1077
27.2653 2763 52.5642
27.3824 2662 51.5946
27.4996 2629 51.2738
27.6167 2656 51.5364
27.7339 2532 50.319
27.8511 2427 49.2646
27.9683 2370 48.6826
28.0855 2312 48.0833
28.2028 2217 47.085
28.3201 2018 44.9222
28.4374 1928 43.909
28.5547 2001 44.7325
28.6721 2161 46.4866
28.7894 2325 48.2183
28.9068 2409 49.0816
29.0242 2378 48.7647
29.1416 2375 48.734
29.259 2524 50.2394
29.3764 2359 48.5695
29.4939 2377 48.7545
29.6113 2368 48.6621
29.7288 2425 49.2443
29.8463 2442 49.4166
29.9638 2425 49.2443
30.0812 2469 49.689
30.1987 2503 50.03
30.3162 2398 48.9694
30.4337 2456 49.558
30.5512 2377 48.7545
30.6687 2510 50.0999
30.7862 2566 50.6557
30.9037 2502 50.02
31.0212 2679 51.7591
31.1387 2524 50.2394
31.2562 2457 49.5681
31.3737 2512 50.1199
31.4912 2389 48.8774
31.6087 2210 47.0106
31.7262 2146 46.3249
31.8436 1965 44.3283
31.9611 1872 43.2666
32.0785 1948 44.1362
32.1959 2118 46.0217
32.3134 2211 47.0213
32.4308 2283 47.7807
32.5482 2308 48.0416
32.6655 2275 47.697
32.7829 2267 47.613
32.9002 2330 48.2701
33.0176 2316 48.1248
33.1349 2280 47.7493
33.2522 2331 48.2804
33.3694 2409 49.0816
33.4867 2340 48.3735
33.6039 2387 48.8569
33.7211 2327 48.239
33.8383 2358 48.5592
33.9554 2351 48.4871
34.0725 2263 47.571
34.1896 2445 49.4469
34.3067 2342 48.3942
34.4237 2455 49.548
34.5407 2534 50.3389
34.6577 2358 48.5592
34.7746 2495 49.95
34.8915 2404 49.0306
35.0084 2294 47.8957
35.1252 2263 47.571
35.242 2204 46.9468
35.3587 2164 46.5188
35.4755 1862 43.1509
35.5921 1847 42.9767
35.7088 1683 41.0244
35.8254 1847 42.9767
35.9419 2005 44.7772
36.0584 2109 45.9239
36.1749 2189 46.7868
36.2913 2063 45.4203
36.4077 2145 46.3141
36.524 2055 45.3321
36.6403 1988 44.587
36.7565 1954 44.2041
36.8727 1776 42.1426
36.9889 1817 42.6263
37.1049 1726 41.5452
37.221 0 1
37.3369 0 1
37.4529 0 1
37.5687 0 1
37.6845 0 1
37.8003 0 1
37.916 0 1
38.0316 0 1
38.1472 0 1
40.5851 0 1
40.7008 0 1
40.8164 0 1
40.9322 0 1
41.048 0 1
41.1639 0 1
41.2798 0 1
41.3958 0 1
41.5118 0 1
41.6279 0 1
41.744 1065 32.6343
41.8602 1181 34.3657
41.9765 1279 35.7631
42.0928 1341 36.6197
42.2091 1370 37.0135
42.3255 1408 37.5233
42.4419 1565 39.5601
42.5584 1620 40.2492
42.675 1693 41.1461
42.7915 1898 43.566
42.9081 1936 44
43.0248 1963 44.3058
43.1415 2003 44.7549
43.2582 2034 45.0999
43.375 2107 45.9021
43.4918 2073 45.5302
43.6087 2050 45.2769
43.7256 2033 45.0888
43.8425 2180 46.6905
43.9595 2044 45.2106
44.0765 2077 45.5741
44.1935 1954 44.2041
44.3106 1798 42.4028
44.4277 1713 41.3884
44.5448 1714 41.4005
44.6619 1799 42.4146
44.7791 1823 42.6966
44.8963 1944 44.0908
45.0136 1961 44.2832
45.1308 2007 44.7996
45.2481 1972 44.4072
45.3654 1966 44.3396
45.4827 1905 43.6463
45.6001 1803 42.4617
45.7174 1897 43.5546
45.8348 1901 43.6005
45.9522 1934 43.9773
46.0697 1970 44.3847
46.1871 1986 44.5646
46.3046 2053 45.31
46.422 2112 45.9565
46.5395 2064 45.4313
46.657 2164 46.5188
46.7745 2162 46.4973
46.892 2189 46.7868
47.0096 2188 46.7761
47.1271 2240 47.3286
47.2446 2192 46.8188
47.3622 2157 46.4435
47.4797 2197 46.8722
47.5973 2212 47.0319
47.7149 2049 45.2659
47.8324 1988 44.587
47.95 1855 43.0697
48.0675 1722 41.497
48.1851 1850 43.0116
48.3027 1878 43.3359
48.4202 2018 44.9222
48.5378 2059 45.3762
48.6554 1990 44.6094
48.7729 1934 43.9773
48.8904 1993 44.643
49.008 1971 44.3959
49.1255 1888 43.4511
49.243 1758 41.9285
49.3605 1826 42.7317
49.478 1840 42.8952
49.5955 1948 44.1362
49.713 1926 43.8862
49.8304 2092 45.7384
49.9479 2068 45.4753
50.0653 2096 45.7821
50.1827 2167 46.551
50.3001 2203 46.9361
50.4175 2265 47.592
50.5348 2236 47.2864
50.6521 2310 48.0625
50.7694 2279 47.7389
50.8867 2315 48.1144
51.004 2322 48.1871
51.1212 2255 47.4868
51.2384 2214 47.0532
51.3556 1989 44.5982
51.4727 1846 42.9651
51.5899 1793 42.3438
51.707 1763 41.9881
51.824 1886 43.4281
51.9411 1913 43.7379
52.0581 1932 43.9545
52.175 1983 44.5309
52.2919 1876 43.3128
52.4088 1833 42.8135
52.5257 1774 42.1189
52.6425 1781 42.2019
52.7593 1708 41.328
52.876 1675 40.9268
52.9927 1671 40.8779
53.1094 1628 40.3485
53.226 1788 42.2847
53.3426 1710 41.3521
53.4591 1726 41.5452
53.5756 1749 41.821
53.692 1763 41.9881
53.8084 1870 43.2435
53.9248 1783 42.2256
54.0411 1759 41.9404
54.1573 1773 42.107
54.2735 0 1
54.3896 0 1
54.5057 0 1
54.6217 0 1
54.7377 0 1
54.8537 0 1
54.9695 0 1
55.0853 0 1
55.2011 0 1
55.3168 0 1
55.4324 0 1
57.824 0 1
57.9396 0 1
58.0553 0 1
58.1711 0 1
58.2869 0 1
58.4028 0 1
58.5187 0 1
58.6347 0 1
58.7508 0 1
58.8669 0 1
58.983 1298 36.0278
59.0992 1485 38.5357
59.2155 1681 41
59.3318 1859 43.1161
59.4482 2000 44.7214
59.5646 2174 46.6262
59.681 2292 47.8748
59.7975 2336 48.3322
59.9141 2303 47.9896
60.0306 2362 48.6004
60.1473 2150 46.3681
60.2639 2151 46.3789
60.3807 2174 46.6262
60.4974 2059 45.3762
60.6142 2072 45.5192
60.731 2221 47.1275
60.8479 2177 46.6583
60.9648 2250 47.4342
61.0818 2280 47.7493
61.1987 2242 47.3498
61.3158 2196 46.8615
61.4328 2081 45.618
61.5499 2105 45.8803
61.667 2038 45.1442
61.7841 2138 46.2385
61.9013 2144 46.3033
62.0185 2259 47.5289
62.1357 2226 47.1805
62.253 2419 49.1833
62.3702 2482 49.8197
62.4875 2822 53.1225
62.6049 2652 51.4976
62.7222 2779 52.7162
62.8396 3014 54.8999
62.9569 2963 54.4334
63.0743 3073 55.4346
63.1918 3018 54.9363
63.3092 2891 53.768
63.4267 2821 53.1131
63.5441 2684 51.8073
63.6616 2540 50.3984
63.7791 2491 49.9099
63.8966 2248 47.4131
64.0142 2245 47.3814
64.1317 2261 47.55
64.2492 2149 46.3573
64.3668 2190 46.7974
64.4843 2126 46.1086
64.6019 2207 46.9787
64.7195 2132 46.1736
64.837 2085 45.6618
64.9546 2035 45.111
65.0722 2033 45.0888
65.1898 2009 44.8219
65.3074 2017 44.911
65.4249 1980 44.4972
65.5425 2037 45.1331
65.6601 2066 45.4533
65.7777 2249 47.4236
65.8952 2289 47.8435
66.0128 2471 49.7092
66.1304 2573 50.7247
66.2479 2677 51.7397
66.3655 2849 53.376
66.483 2879 53.6563
66.6005 3058 55.2992
66.718 2966 54.461
66.8355 2949 54.3047
66.953 2851 53.3948
67.0705 2709 52.0481
67.1879 2572 50.7149
67.3054 2470 49.6991
67.4228 2239 47.3181
67.5402 2116 46
67.6576 2024 44.9889
67.7749 2017 44.911
67.8923 1910 43.7035
68.0096 2003 44.7549
68.1269 1987 44.5758
68.2442 2155 46.422
68.3614 2153 46.4004
68.4787 2041 45.1774
68.5958 2017 44.911
68.713 1928 43.909
68.8302 2011 44.8442
68.9473 1938 44.0227
69.0643 1827 42.7434
69.1814 1806 42.4971
69.2984 1871 43.2551
69.4154 1867 43.2088
69.5323 1947 44.1248
69.6492 2147 46.3357
69.7661 2319 48.156
69.8829 2405 49.0408
69.9997 2560 50.5964
70.1165 2591 50.9019
70.2332 2493 49.93
70.3499 2527 50.2693
70.4665 2419 49.1833
70.5831 2170 46.5833
70.6996 2132 46.1736
70.8161 2019 44.9333
70.9326 1801 42.4382
71.049 1637 40.4599
71.1653 1423 37.7227
71.2817 1289 35.9026
71.3979 1254 35.4119
71.5141 1129 33.6006
71.6303 1114 33.3766
71.7464 998 31.5911
71.8624 0 1
71.9784 0 1
72.0944 0 1
72.2102 0 1
72.3261 0 1
72.4418 0 1
72.5575 0 1
72.6732 0 1
75.1054 0 1
75.2209 0 1
75.3365 0 1
75.4521 0 1
75.5678 0 1
75.6835 0 1
75.7993 0 1
75.9151 0 1
76.031 0 1
76.147 1475 38.4057
76.263 1496 38.6782
76.3791 1482 38.4968
76.4952 1370 37.0135
76.6113 1325 36.4005
76.7276 1361 36.8917
76.8438 1349 36.7287
76.9601 1512 38.8844
77.0765 1536 39.1918
77.1929 1597 39.9625
77.3093 1747 41.7971
77.4258 1728 41.5692
77.5423 1807 42.5088
77.6589 1722 41.497
77.7755 1686 41.0609
77.8921 1744 41.7612
78.0088 1715 41.4126
78.1256 1665 40.8044
78.2423 1730 41.5933
78.3591 1753 41.8688
78.4759 1829 42.7668
78.5928 2018 44.9222
78.7097 2118 46.0217
78.8266 2469 49.689
78.9436 2456 49.558
79.0606 2519 50.1896
79.1776 2640 51.3809
79.2946 2660 51.5752
79.4117 2588 50.8724
79.5288 2628 51.264
79.6459 2466 49.6588
79.7631 2424 49.2341
79.8802 2220 47.1169
79.9974 2073 45.5302
80.1147 1900 43.589
80.2319 1814 42.5911
80.3491 1701 41.2432
80.4664 1732 41.6173
80.5837 1678 40.9634
80.701 1707 41.3159
80.8183 1733 41.6293
80.9357 1988 44.587
81.053 2031 45.0666
81.1704 1915 43.7607
81.2877 1815 42.6028
81.4051 1894 43.5201
81.5225 1773 42.107
81.6399 1733 41.6293
81.7573 1764 42
81.8747 1735 41.6533
81.9922 1727 41.5572
82.1096 1803 42.4617
82.227 2019 44.9333
82.3444 2126 46.1086
82.4619 2464 49.6387
82.5793 2550 50.4975
82.6967 2647 51.449
82.8142 2708 52.0384
82.9316 2632 51.303
83.049 2717 52.1249
83.1664 2642 51.4004
83.2838 2503 50.03
83.4012 2319 48.156
83.5186 2266 47.6025
83.636 2032 45.0777
83.7534 2004 44.7661
83.8708 1805 42.4853
83.9881 1780 42.19
84.1055 1671 40.8779
84.2228 1731 41.6053
84.3401 1628 40.3485
84.4575 1847 42.9767
84.5747 1932 43.9545
84.692 2170 46.5833
84.8093 2077 45.5741
84.9265 1922 43.8406
85.0437 1953 44.1928
85.1609 1875 43.3013
85.2781 1755 41.8927
85.3952 1690 41.1096
85.5123 1770 42.0714
85.6294 1711 41.3642
85.7465 1850 43.0116
85.8636 2014 44.8776
85.9806 2158 46.4543
86.0976 2437 49.366
86.2145 2565 50.6458
86.3315 2553 50.5272
86.4484 2584 50.8331
86.5652 2589 50.8822
86.682 2597 50.9608
86.7988 2528 50.2792
86.9156 2422 49.2138
87.0323 2330 48.2701
87.149 2242 47.3498
87.2657 2052 45.299
87.3823 1873 43.2782
87.4988 1821 42.6732
87.6154 1578 39.724
87.7318 1584 39.7995
87.8483 1628 40.3485
87.9647 1558 39.4715
88.081 1578 39.724
88.1973 1660 40.7431
88.3136 1621 40.2616
88.4298 1405 37.4833
88.546 1256 35.4401
88.6621 1058 32.5269
88.7781 920 30.3315
88.8942 0 1
89.0101 0 1
89.126 0 1
89.2419 0 1
89.3577 0 1
89.4734 0 1
89.5891 0 1
89.7047 0 1
89.8203 0 1
89.9358 0 1
92.3269 0 1
92.4424 0 1
92.558 0 1
92.6736 0 1
92.7893 0 1
92.905 0 1
93.0208 0 1
93.1366 0 1
93.2525 0 1
93.3685 0 1
93.4845 0 1
93.6005 1192 34.5254
93.7167 1414 37.6032
93.8328 1712 41.3763
93.949 1674 40.9145
94.0653 1797 42.391
94.1816 1883 43.3935
94.2979 1908 43.6807
94.4143 1718 41.4488
94.5307 1812 42.5676
94.6472 1790 42.3084
94.7637 1828 42.7551
94.8803 1881 43.3705
94.9969 2153 46.4004
95.1135 2177 46.6583
95.2302 2431 49.3052
95.3469 2594 50.9313
95.4637 2791 52.8299
95.5805 2916 54
95.6973 2845 53.3385
95.8142 2863 53.507
95.9311 2879 53.6563
96.048 2795 52.8678
96.1649 2566 50.6557
96.2819 2412 49.1121
96.3989 2315 48.1144
96.516 2070 45.4973
96.633 2048 45.2548
96.7501 1835 42.8369
96.8673 1705 41.2916
96.9844 1610 40.1248
97.1016 1760 41.9524
97.2188 1725 41.5331
97.336 1819 42.6497
97.4532 2040 45.1664
97.5704 2211 47.0213
97.6877 2286 47.8121
97.805 2087 45.6837
97.9223 2002 44.7437
98.0396 1967 44.3509
98.1569 1873 43.2782
98.2743 1812 42.5676
98.3916 1715 41.4126
98.509 1833 42.8135
98.6264 1951 44.1701
98.7438 2190 46.7974
98.8612 2330 48.2701
98.9786 2463 49.6286
99.096 2732 52.2685
99.2134 2796 52.8772
99.3308 2786 52.7826
99.4482 2763 52.5642
99.5656 2926 54.0925
99.6831 2847 53.3573
99.8005 2696 51.923
99.9179 2485 49.8498
100.035 2433 49.3254
100.153 2256 47.4974
100.27 2064 45.4313
100.388 1894 43.5201
100.505 1877 43.3244
100.622 1731 41.6053
100.74 1815 42.6028
100.857 1938 44.0227
100.975 2023 44.9778
101.092 2207 46.9787
101.209 2250 47.4342
101.327 2210 47.0106
101.444 2140 46.2601
101.561 2014 44.8776
101.679 1988 44.587
101.796 1853 43.0465
101.913 1958 44.2493
102.03 1960 44.2719
102.148 2079 45.5961
102.265 2185 46.744
102.382 2559 50.5866
102.499 2729 52.2398
102.616 2880 53.6656
102.733 2873 53.6004
102.851 3016 54.9181
102.968 2964 54.4426
103.085 3072 55.4256
103.202 3081 55.5068
103.319 2909 53.9351
103.436 2709 52.0481
103.552 2491 49.9099
103.669 2431 49.3052
103.786 2313 48.0937
103.903 1996 44.6766
104.02 1943 44.0795
104.137 1911 43.715
104.253 1870 43.2435
104.37 1925 43.8748
104.487 2125 46.0977
104.603 2298 47.9375
104.72 2209 47
104.836 1997 44.6878
104.953 1879 43.3474
105.069 1754 41.8808
105.186 1621 40.2616
105.302 1567 39.5854
105.418 1453 38.1182
105.535 1446 38.0263
105.651 1377 37.108
105.767 1519 38.9744
105.883 1582 39.7744
105.999 1589 39.8623
106.115 0 1
106.231 0 1
106.347 0 1
106.463 0 1
106.579 0 1
106.694 0 1
106.81 0 1
106.926 0 1
107.041 0 1
107.157 0 1
109.576 0 1
109.692 0 1
109.807 0 1
109.923 0 1
110.039 0 1
110.155 0 1
110.27 0 1
110.386 0 1
110.502 0 1
110.618 1158 34.0294
110.735 1364 36.9324
110.851 1519 38.9744
110.967 1696 41.1825
111.083 1895 43.5316
111.199 2066 45.4533
111.316 2139 46.2493
111.432 2253 47.4658
111.549 2290 47.8539
111.665 2423 49.224
111.782 2465 49.6488
111.898 2368 48.6621
112.015 2280 47.7493
112.132 1992 44.6318
112.248 2053 45.31
112.365 1929 43.9204
112.482 1796 42.3792
112.599 1732 41.6173
112.716 1718 41.4488
112.832 1636 40.4475
112.949 1774 42.1189
113.066 1803 42.4617
113.183 1864 43.1741
113.3 2012 44.8553
113.417 2003 44.7549
113.534 2017 44.911
113.652 1946 44.1135
113.769 1872 43.2666
113.886 1837 42.8602
114.003 1829 42.7668
114.12 1794 42.3556
114.238 1970 44.3847
114.355 2188 46.7761
114.472 2368 48.6621
114.589 2486 49.8598
114.707 2708 52.0384
114.824 2837 53.2635
114.942 2943 54.2494
115.059 2969 54.4885
115.176 2952 54.3323
115.294 2924 54.074
115.411 2815 53.0566
115.529 2738 52.3259
115.646 2445 49.4469
115.764 2323 48.1975
115.881 2176 46.6476
115.999 2050 45.2769
116.116 1987 44.5758
116.234 1853 43.0465
116.351 1828 42.7551
116.469 1755 41.8927
116.586 1776 42.1426
116.704 1858 43.1045
116.821 1976 44.4522
116.939 2048 45.2548
117.056 2088 45.6946
117.174 2040 45.1664
117.291 2109 45.9239
117.409 2088 45.6946
117.526 2087 45.6837
117.644 2058 45.3652
117.761 2113 45.9674
117.879 2363 48.6107
117.996 2377 48.7545
118.114 2599 50.9804
118.231 2791 52.8299
118.349 3057 55.2901
118.466 2967 54.4702
118.584 2882 53.6843
118.701 3037 55.109
118.819 3036 55.0999
118.936 2998 54.754
119.053 2915 53.9907
119.171 2538 50.3786
119.288 2470 49.6991
119.405 2320 48.1664
119.523 2117 46.0109
119.64 2063 45.4203
119.757 1933 43.9659
119.875 1919 43.8064
119.992 1778 42.1663
120.109 1745 41.7732
120.226 1787 42.2729
120.343 1850 43.0116
120.46 1974 44.4297
120.578 1979 44.486
120.695 1921 43.8292
120.812 1905 43.6463
120.929 1811 42.5558
121.046 1915 43.7607
121.163 1878 43.3359
121.279 1808 42.5206
121.396 1774 42.1189
121.513 1935 43.9886
121.63 2009 44.8219
121.747 2203 46.9361
121.863 2277 47.7179
121.98 2354 48.518
122.097 2435 49.3457
122.213 2272 47.6655
122.33 2259 47.5289
122.446 2245 47.3814
122.563 2165 46.5296
122.679 1940 44.0454
122.795 1807 42.5088
122.912 1771 42.0833
123.028 1503 38.7685
123.144 1376 37.0945
123.26 1293 35.9583
123.377 0 1
123.493 0 1
123.609 0 1
123.725 0 1
123.84 0 1
123.956 0 1
124.072 0 1
124.188 0 1
124.303 0 1
124.419 0 1
126.852 0 1
126.968 0 1
127.083 0 1
127.199 0 1
127.315 0 1
127.431 0 1
127.547 0 1
127.663 0 1
127.779 0 1
127.895 0 1
128.011 0 1
128.127 0 1
128.243 0 1
128.359 2222 47.1381
128.476 2280 47.7493
128.592 2269 47.634
128.708 2138 46.2385
128.825 2159 46.465
128.941 2025 45
129.058 2017 44.911
129.174 2021 44.9555
129.291 2030 45.0555
129.408 2026 45.0111
129.524 2158 46.4543
129.641 2212 47.0319
129.758 2229 47.2123
129.875 2155 46.422
129.992 2319 48.156
130.108 2322 48.1871
130.225 2246 47.392
130.342 2195 46.8508
130.459 2290 47.8539
130.576 2189 46.7868
130.693 2492 49.9199
130.81 2668 51.6527
130.928 2687 51.8363
131.045 2736 52.3068
131.162 2702 51.9808
131.279 2737 52.3163
131.396 2757 52.5071
131.513 2727 52.2207
131.631 2639 51.3712
131.748 2519 50.1896
131.865 2499 49.99
131.983 2433 49.3254
132.1 2377 48.7545
132.217 2267 47.613
132.335 2232 47.244
132.452 2156 46.4327
132.57 2064 45.4313
132.687 2018 44.9222
132.804 1970 44.3847
132.922 1920 43.8178
133.039 2052 45.299
133.157 2107 45.9021
133.274 2118 46.0217
133.392 2248 47.4131
133.509 2255 47.4868
133.627 2198 46.8828
133.744 2245 47.3814
133.862 2219 47.1063
133.979 2166 46.5403
134.097 2214 47.0532
134.214 2292 47.8748
134.332 2371 48.6929
134.449 2482 49.8197
134.567 2555 50.547
134.684 2487 49.8698
134.802 2623 51.2152
134.919 2557 50.5668
135.037 2555 50.547
135.154 2588 50.8724
135.272 2586 50.8527
135.389 2530 50.2991
135.507 2542 50.4183
135.624 2393 48.9183
135.742 2383 48.816
135.859 2345 48.4252
135.977 2240 47.3286
136.094 2173 46.6154
136.211 2042 45.1885
136.329 2130 46.1519
136.446 2086 45.6727
136.564 2024 44.9889
136.681 2164 46.5188
136.798 2212 47.0319
136.915 2227 47.1911
137.033 2236 47.2864
137.15 2375 48.734
137.267 2364 48.621
137.384 2299 47.9479
137.502 2171 46.594
137.619 2217 47.085
137.736 2214 47.0532
137.853 2233 47.2546
137.97 2409 49.0816
138.087 2400 48.9898
138.204 2339 48.3632
138.321 2337 48.3425
138.438 2367 48.6518
138.555 2554 50.5371
138.672 2377 48.7545
138.788 2284 47.7912
138.905 2231 47.2335
139.022 2189 46.7868
139.139 1986 44.5646
139.255 2040 45.1664
139.372 1884 43.4051
139.488 1772 42.0951
139.605 1713 41.3884
139.721 1530 39.1152
139.838 1444 38
139.954 1470 38.3406
140.071 1335 36.5377
140.187 1250 35.3553
140.303 1232 35.0999
140.419 1209 34.7707
140.535 1128 33.5857
140.652 1136 33.7046
140.768 0 1
140.884 0 1
141 0 1
141.115 0 1
141.231 0 1
141.347 0 1
141.463 0 1
141.578 0 1
141.694 0 1
144.104 0 1
144.219 0 1
144.335 0 1
144.45 0 1
144.566 0 1
144.682 0 1
144.798 0 1
144.914 0 1
145.03 0 1
145.146 1519 38.9744
145.262 1582 39.7744
145.378 1618 40.2244
145.494 1666 40.8167
145.61 1745 41.7732
145.726 1743 41.7493
145.842 1915 43.7607
145.959 1921 43.8292
146.075 1835 42.8369
146.192 1793 42.3438
146.308 1756 41.9047
146.425 1736 41.6653
146.541 1826 42.7317
146.658 1809 42.5323
146.774 1899 43.5775
146.891 1950 44.1588
147.008 2020 44.9444
147.125 2027 45.0222
147.241 2073 45.5302
147.358 2037 45.1331
147.475 2078 45.5851
147.592 1991 44.6206
147.709 2015 44.8888
147.826 2036 45.1221
147.943 2005 44.7772
148.06 1991 44.6206
148.177 1867 43.2088
148.294 1902 43.6119
148.411 1890 43.4741
148.528 1840 42.8952
148.645 1854 43.0581
148.762 1895 43.5316
148.88 1844 42.9418
148.997 1785 42.2493
149.114 1705 41.2916
149.231 1833 42.8135
149.349 1876 43.3128
149.466 1861 43.1393
149.583 1932 43.9545
149.701 1903 43.6234
149.818 1806 42.4971
149.935 1763 41.9881
150.053 1800 42.4264
150.17 1786 42.2611
150.287 1828 42.7551
150.405 1859 43.1161
150.522 2013 44.8665
150.64 2045 45.2217
150.757 2089 45.7056
150.875 2092 45.7384
150.992 2093 45.7493
151.11 2068 45.4753
151.227 2150 46.3681
151.344 2075 45.5522
151.462 2073 45.5302
151.579 2014 44.8776
151.697 2037 45.1331
151.814 2022 44.9667
151.932 1901 43.6005
152.049 2006 44.7884
152.167 1926 43.8862
152.284 1861 43.1393
152.402 1906 43.6578
152.519 1889 43.4626
152.636 1863 43.1625
152.754 1914 43.7493
152.871 1962 44.2945
152.989 2010 44.833
153.106 1932 43.9545
153.223 1916 43.7721
153.341 1977 44.4635
153.458 1932 43.9545
153.575 1966 44.3396
153.693 1922 43.8406
153.81 1966 44.3396
153.927 2032 45.0777
154.044 2158 46.4543
154.162 2141 46.2709
154.279 2250 47.4342
154.396 2319 48.156
154.513 2358 48.5592
154.63 2392 48.9081
154.747 2400 48.9898
154.864 2376 48.7442
154.981 2276 47.7074
155.098 2335 48.3218
155.215 2308 48.0416
155.332 2184 46.7333
155.449 2224 47.1593
155.566 2075 45.5522
155.683 1984 44.5421
155.8 2048 45.2548
155.917 1916 43.7721
156.033 1809 42.5323
156.15 0 1
156.267 0 1
156.383 0 1
156.5 0 1
156.617 0 1
156.733 0 1
156.85 0 1
156.966 0 1
157.082 0 1
157.199 0 1
157.315 0 1
157.431 0 1
157.547 0 1
157.664 0 1
157.78 0 1
157.896 0 1
158.012 0 1
158.128 0 1
158.244 0 1
158.359 0 1
158.475 0 1
158.591 0 1
158.706 0 1
