
6.15755 0 1
6.2731 0 1
6.3887 0 1
6.50437 0 1
6.62009 0 1
6.73587 0 1
6.8517 0 1
6.96759 0 1
7.08353 0 1
7.19952 0 1
7.31557 0 1
7.43166 0 1
7.54781 0 1
7.664 0 1
7.78024 0 1
7.89653 0 1
8.01286 0 1
8.12924 0 1
8.24567 0 1
8.36213 0 1
8.47864 0 1
8.59519 0 1
8.71178 0 1
8.82841 0 1
8.94508 0 1
9.06179 0 1
9.17853 0 1
9.29531 0 1
9.41212 0 1
9.52897 0 1
9.64584 0 1
9.76276 0 1
9.8797 0 1
9.99667 0 1
10.1137 0 1
10.2307 0 1
10.3478 0 1
10.4648 0 1
10.5819 0 1
10.6991 0 1
10.8162 0 1
10.9334 0 1
11.0506 0 1
11.1678 0 1
11.285 0 1
11.4023 0 1
11.5196 0 1
11.6369 0 1
11.7542 0 1
11.8715 0 1
11.9888 0 1
12.1062 0 1
12.2235 0 1
12.3409 0 1
12.4582 0 1
12.5756 0 1
12.693 0 1
12.8104 0 1
12.9278 0 1
13.0452 0 1
13.1626 0 1
13.28 0 1
13.3974 0 1
13.5149 0 1
13.6323 0 1
13.7497 0 1
13.8671 0 1
13.9845 0 1
14.1019 0 1
14.2193 0 1
14.3367 0 1
14.4541 0 1
14.5714 0 1
14.6888 0 1
14.8062 0 1
14.9235 0 1
15.0408 0 0
15.1581 0 0
15.2755 0 0
15.3927 0 0
15.51 0 0
15.6273 0 0
15.7445 0 0
15.8617 0 0
15.9789 0 0
16.0961 0 0
16.2132 0 0
16.3304 0 0
16.4475 0 0
16.5646 0 0
16.6816 0 0
16.7986 0 0
16.9156 0 0
17.0326 0 0
17.1496 0 0
17.2665 0 0
17.3833 0 0
17.5002 0 0
17.617 0 0
17.7338 0 0
17.8505 0 0
17.9672 0 0
18.0839 0 0
18.2005 0 0
18.3171 0 0
18.4337 0 0
18.5502 0 0
18.6666 0 0
18.7831 0 0
18.8994 0 0
19.0158 0 0
19.1321 0 0
19.2483 0 0
19.3645 0 0
19.4806 0 0
19.5967 0 0
19.7128 0 0
19.8288 0 0
19.9447 0 0
20.0606 0 1
20.1764 0 1
20.2922 0 1
20.4079 0 1
20.5236 0 1
20.6392 0 1
20.7548 0 1
20.8702 0 1
23.3078 0 1
23.4233 0 1
23.539 0 1
23.6547 0 1
23.7704 0 1
23.8862 0 1
24.0021 0 1
24.118 0 1
24.234 0 1
24.35 0 1
24.4661 1138 33.7343
24.5822 1091 33.0303
24.6984 1173 34.2491
24.8146 1116 33.4066
24.9309 1131 33.6303
25.0472 1159 34.0441
25.1636 1165 34.1321
25.28 1112 33.3467
25.3965 1175 34.2783
25.513 1213 34.8281
25.6296 1219 34.9142
25.7462 1315 36.2629
25.8628 1262 35.5246
25.9795 1285 35.8469
26.0962 1357 36.8375
26.213 1306 36.1386
26.3298 1362 36.9053
26.4466 1299 36.0416
26.5635 1280 35.7771
26.6804 1308 36.1663
26.7973 1220 34.9285
26.9143 1215 34.8569
27.0313 1240 35.2136
27.1483 1287 35.8748
27.2653 1351 36.756
27.3824 1350 36.7423
27.4996 1344 36.6606
27.6167 1332 36.4966
27.7339 1298 36.0278
27.8511 1316 36.2767
27.9683 1381 37.1618
28.0855 1285 35.8469
28.2028 1309 36.1801
28.3201 1276 35.7211
28.4374 1282 35.805
28.5547 1300 36.0555
28.6721 1264 35.5528
28.7894 1231 35.0856
28.9068 1360 36.8782
29.0242 1251 35.3695
29.1416 1336 36.5513
29.259 1397 37.3765
29.3764 1427 37.7757
29.4939 1414 37.6032
29.6113 1438 37.921
29.7288 1454 38.1314
29.8463 1470 38.3406
29.9638 1327 36.428
30.0812 1420 37.6829
30.1987 1341 36.6197
30.3162 1260 35.4965
30.4337 1229 35.0571
30.5512 1251 35.3695
30.6687 1262 35.5246
30.7862 1316 36.2767
30.9037 1281 35.7911
31.0212 1317 36.2905
31.1387 1337 36.565
31.2562 1238 35.1852
31.3737 1231 35.0856
31.4912 1249 35.3412
31.6087 1279 35.7631
31.7262 1282 35.805
31.8436 1274 35.6931
31.9611 1141 33.7787
32.0785 1179 34.3366
32.1959 1164 34.1174
32.3134 1183 34.3948
32.4308 1183 34.3948
32.5482 1125 33.541
32.6655 1169 34.1906
32.7829 1220 34.9285
32.9002 1181 34.3657
33.0176 1214 34.8425
33.1349 1235 35.1426
33.2522 1251 35.3695
33.3694 1255 35.426
33.4867 1211 34.7994
33.6039 1247 35.3129
33.7211 1258 35.4683
33.8383 1184 34.4093
33.9554 1117 33.4215
34.0725 1043 32.2955
34.1896 1097 33.121
34.3067 1109 33.3017
34.4237 1152 33.9411
34.5407 1118 33.4365
34.6577 1167 34.1614
34.7746 1166 34.1467
34.8915 1097 33.121
35.0084 1081 32.8786
35.1252 1053 32.45
35.242 1094 33.0757
35.3587 1171 34.2199
35.4755 1150 33.9116
35.5921 1164 34.1174
35.7088 1083 32.909
35.8254 1115 33.3916
35.9419 1069 32.6956
36.0584 1059 32.5423
36.1749 1116 33.4066
36.2913 1146 33.8526
36.4077 1093 33.0606
36.524 1099 33.1512
36.6403 1234 35.1283
36.7565 1180 34.3511
36.8727 1168 34.176
36.9889 1199 34.6266
37.1049 1172 34.2345
37.221 0 1
37.3369 0 1
37.4529 0 1
37.5687 0 1
37.6845 0 1
37.8003 0 1
37.916 0 1
38.0316 0 1
38.1472 0 1
40.5851 0 1
40.7008 0 1
40.8164 0 1
40.9322 0 1
41.048 0 1
41.1639 0 1
41.2798 0 1
41.3958 0 1
41.5118 0 1
41.6279 0 1
41.744 936 30.5941
41.8602 946 30.7571
41.9765 1001 31.6386
42.0928 967 31.0966
42.2091 993 31.5119
42.3255 1017 31.8904
42.4419 991 31.4802
42.5584 938 30.6268
42.675 939 30.6431
42.7915 940 30.6594
42.9081 849 29.1376
43.0248 841 29
43.1415 828 28.775
43.2582 873 29.5466
43.375 961 31
43.4918 964 31.0483
43.6087 933 30.545
43.7256 905 30.0832
43.8425 891 29.8496
43.9595 836 28.9137
44.0765 853 29.2062
44.1935 868 29.4618
44.3106 798 28.2489
44.4277 784 28
44.5448 754 27.4591
44.6619 787 28.0535
44.7791 760 27.5681
44.8963 712 26.6833
45.0136 769 27.7308
45.1308 727 26.9629
45.2481 726 26.9444
45.3654 740 27.2029
45.4827 813 28.5132
45.6001 757 27.5136
45.7174 811 28.4781
45.8348 796 28.2135
45.9522 745 27.2947
46.0697 774 27.8209
46.1871 757 27.5136
46.3046 737 27.1477
46.422 661 25.7099
46.5395 591 24.3105
46.657 651 25.5147
46.7745 685 26.1725
46.892 724 26.9072
47.0096 691 26.2869
47.1271 679 26.0576
47.2446 704 26.533
47.3622 670 25.8844
47.4797 668 25.8457
47.5973 679 26.0576
47.7149 649 25.4755
47.8324 661 25.7099
47.95 646 25.4165
48.0675 608 24.6577
48.1851 547 23.388
48.3027 606 24.6171
48.4202 590 24.2899
48.5378 606 24.6171
48.6554 609 24.6779
48.7729 641 25.318
48.8904 550 23.4521
49.008 574 23.9583
49.1255 605 24.5967
49.243 578 24.0416
49.3605 652 25.5343
49.478 671 25.9037
49.5955 662 25.7294
49.713 637 25.2389
49.8304 569 23.8537
49.9479 564 23.7487
50.0653 517 22.7376
50.1827 515 22.6936
50.3001 649 25.4755
50.4175 653 25.5539
50.5348 630 25.0998
50.6521 670 25.8844
50.7694 672 25.923
50.8867 668 25.8457
51.004 645 25.3969
51.1212 671 25.9037
51.2384 696 26.3818
51.3556 727 26.9629
51.4727 759 27.55
51.5899 663 25.7488
51.707 694 26.3439
51.824 778 27.8927
51.9411 798 28.2489
52.0581 742 27.2397
52.175 805 28.3725
52.2919 822 28.6705
52.4088 885 29.7489
52.5257 840 28.9828
52.6425 869 29.4788
52.7593 894 29.8998
52.876 863 29.3769
52.9927 850 29.1548
53.1094 898 29.9666
53.226 936 30.5941
53.3426 969 31.1288
53.4591 943 30.7083
53.5756 758 27.5318
53.692 804 28.3549
53.8084 858 29.2916
53.9248 932 30.5287
54.0411 964 31.0483
54.1573 981 31.3209
54.2735 0 1
54.3896 0 1
54.5057 0 1
54.6217 0 1
54.7377 0 1
54.8537 0 1
54.9695 0 1
55.0853 0 1
55.2011 0 1
55.3168 0 1
55.4324 0 1
57.824 0 1
57.9396 0 1
58.0553 0 1
58.1711 0 1
58.2869 0 1
58.4028 0 1
58.5187 0 1
58.6347 0 1
58.7508 0 1
58.8669 0 1
58.983 952 30.8545
59.0992 1007 31.7333
59.2155 1050 32.4037
59.3318 1073 32.7567
59.4482 1121 33.4813
59.5646 1057 32.5115
59.681 1112 33.3467
59.7975 975 31.225
59.9141 1015 31.8591
60.0306 992 31.496
60.1473 960 30.9839
60.2639 1063 32.6037
60.3807 966 31.0805
60.4974 969 31.1288
60.6142 957 30.9354
60.731 922 30.3645
60.8479 962 31.0161
60.9648 986 31.4006
61.0818 1073 32.7567
61.1987 1008 31.749
61.3158 1048 32.3728
61.4328 987 31.4166
61.5499 956 30.9192
61.667 997 31.5753
61.7841 997 31.5753
61.9013 957 30.9354
62.0185 954 30.8869
62.1357 888 29.7993
62.253 915 30.249
62.3702 885 29.7489
62.4875 994 31.5278
62.6049 984 31.3688
62.7222 993 31.5119
62.8396 952 30.8545
62.9569 1078 32.8329
63.0743 988 31.4325
63.1918 988 31.4325
63.3092 940 30.6594
63.4267 862 29.3598
63.5441 878 29.6311
63.6616 917 30.282
63.7791 889 29.8161
63.8966 909 30.1496
64.0142 854 29.2233
64.1317 873 29.5466
64.2492 872 29.5296
64.3668 913 30.2159
64.4843 879 29.6479
64.6019 916 30.2655
64.7195 946 30.7571
64.837 889 29.8161
64.9546 879 29.6479
65.0722 955 30.9031
65.1898 925 30.4138
65.3074 930 30.4959
65.4249 932 30.5287
65.5425 908 30.133
65.6601 856 29.2575
65.7777 827 28.7576
65.8952 781 27.9464
66.0128 801 28.3019
66.1304 877 29.6142
66.2479 911 30.1828
66.3655 949 30.8058
66.483 932 30.5287
66.6005 957 30.9354
66.718 904 30.0666
66.8355 860 29.3258
66.953 877 29.6142
67.0705 849 29.1376
67.1879 848 29.1204
67.3054 839 28.9655
67.4228 820 28.6356
67.5402 856 29.2575
67.6576 878 29.6311
67.7749 918 30.2985
67.8923 898 29.9666
68.0096 944 30.7246
68.1269 894 29.8998
68.2442 960 30.9839
68.3614 971 31.1609
68.4787 930 30.4959
68.5958 956 30.9192
68.713 1007 31.7333
68.8302 936 30.5941
68.9473 1012 31.8119
69.0643 963 31.0322
69.1814 922 30.3645
69.2984 914 30.2324
69.4154 872 29.5296
69.5323 849 29.1376
69.6492 910 30.1662
69.7661 869 29.4788
69.8829 1001 31.6386
69.9997 1031 32.1092
70.1165 1058 32.5269
70.2332 1055 32.4808
70.3499 999 31.607
70.4665 1008 31.749
70.5831 1062 32.5883
70.6996 883 29.7153
70.8161 922 30.3645
70.9326 872 29.5296
71.049 913 30.2159
71.1653 895 29.9166
71.2817 893 29.8831
71.3979 943 30.7083
71.5141 924 30.3974
71.6303 904 30.0666
71.7464 836 28.9137
71.8624 0 1
71.9784 0 1
72.0944 0 1
72.2102 0 1
72.3261 0 1
72.4418 0 1
72.5575 0 1
72.6732 0 1
75.1054 0 1
75.2209 0 1
75.3365 0 1
75.4521 0 1
75.5678 0 1
75.6835 0 1
75.7993 0 1
75.9151 0 1
76.031 0 1
76.147 834 28.8791
76.263 843 29.0345
76.3791 837 28.931
76.4952 920 30.3315
76.6113 897 29.95
76.7276 910 30.1662
76.8438 939 30.6431
76.9601 935 30.5778
77.0765 973 31.1929
77.1929 1004 31.686
77.3093 1027 32.0468
77.4258 1067 32.665
77.5423 1025 32.0156
77.6589 1032 32.1248
77.7755 986 31.4006
77.8921 1003 31.6702
78.0088 1039 32.2335
78.1256 956 30.9192
78.2423 883 29.7153
78.3591 891 29.8496
78.4759 829 28.7924
78.5928 841 29
78.7097 856 29.2575
78.8266 879 29.6479
78.9436 1024 32
79.0606 1024 32
79.1776 1018 31.9061
79.2946 1007 31.7333
79.4117 1002 31.6544
79.5288 993 31.5119
79.6459 991 31.4802
79.7631 877 29.6142
79.8802 781 27.9464
79.9974 808 28.4253
80.1147 847 29.1033
80.2319 847 29.1033
80.3491 900 30
80.4664 952 30.8545
80.5837 945 30.7409
80.701 867 29.4449
80.8183 934 30.5614
80.9357 908 30.133
81.053 944 30.7246
81.1704 952 30.8545
81.2877 922 30.3645
81.4051 936 30.5941
81.5225 889 29.8161
81.6399 957 30.9354
81.7573 875 29.5804
81.8747 766 27.6767
81.9922 834 28.8791
82.1096 762 27.6043
82.227 790 28.1069
82.3444 821 28.6531
82.4619 839 28.9655
82.5793 883 29.7153
82.6967 867 29.4449
82.8142 903 30.05
82.9316 916 30.2655
83.049 976 31.241
83.1664 840 28.9828
83.2838 876 29.5973
83.4012 783 27.9821
83.5186 672 25.923
83.636 708 26.6083
83.7534 698 26.4197
83.8708 802 28.3196
83.9881 809 28.4429
84.1055 815 28.5482
84.2228 904 30.0666
84.3401 872 29.5296
84.4575 862 29.3598
84.5747 879 29.6479
84.692 833 28.8617
84.8093 878 29.6311
84.9265 868 29.4618
85.0437 938 30.6268
85.1609 934 30.5614
85.2781 890 29.8329
85.3952 807 28.4077
85.5123 774 27.8209
85.6294 784 28
85.7465 784 28
85.8636 851 29.1719
85.9806 817 28.5832
86.0976 882 29.6985
86.2145 1000 31.6228
86.3315 1057 32.5115
86.4484 902 30.0333
86.5652 1017 31.8904
86.682 1070 32.7109
86.7988 1050 32.4037
86.9156 975 31.225
87.0323 875 29.5804
87.149 850 29.1548
87.2657 794 28.178
87.3823 860 29.3258
87.4988 927 30.4467
87.6154 976 31.241
87.7318 1003 31.6702
87.8483 1026 32.0312
87.9647 1041 32.2645
88.081 1047 32.3574
88.1973 1070 32.7109
88.3136 1123 33.5112
88.4298 1085 32.9393
88.546 1112 33.3467
88.6621 1083 32.909
88.7781 1024 32
88.8942 0 1
89.0101 0 1
89.126 0 1
89.2419 0 1
89.3577 0 1
89.4734 0 1
89.5891 0 1
89.7047 0 1
89.8203 0 1
89.9358 0 1
92.3269 0 1
92.4424 0 1
92.558 0 1
92.6736 0 1
92.7893 0 1
92.905 0 1
93.0208 0 1
93.1366 0 1
93.2525 0 1
93.3685 0 1
93.4845 0 1
93.6005 1012 31.8119
93.7167 1064 32.619
93.8328 1053 32.45
93.949 1052 32.4345
94.0653 1036 32.187
94.1816 1012 31.8119
94.2979 977 31.257
94.4143 1004 31.686
94.5307 899 29.9833
94.6472 855 29.2404
94.7637 896 29.9333
94.8803 929 30.4795
94.9969 964 31.0483
95.1135 1041 32.2645
95.2302 1007 31.7333
95.3469 1049 32.3883
95.4637 1092 33.0454
95.5805 1107 33.2716
95.6973 1194 34.5543
95.8142 1175 34.2783
95.9311 1091 33.0303
96.048 1109 33.3017
96.1649 950 30.8221
96.2819 912 30.1993
96.3989 838 28.9482
96.516 857 29.2746
96.633 918 30.2985
96.7501 969 31.1288
96.8673 1041 32.2645
96.9844 1104 33.2265
97.1016 1117 33.4215
97.2188 1147 33.8674
97.336 1162 34.0881
97.4532 1118 33.4365
97.5704 1106 33.2566
97.6877 1081 32.8786
97.805 1069 32.6956
97.9223 1035 32.1714
98.0396 978 31.273
98.1569 936 30.5941
98.2743 959 30.9677
98.3916 940 30.6594
98.509 928 30.4631
98.6264 1011 31.7962
98.7438 1071 32.7261
98.8612 1007 31.7333
98.9786 1100 33.1662
99.096 1120 33.4664
99.2134 1172 34.2345
99.3308 1193 34.5398
99.4482 1163 34.1028
99.5656 1126 33.5559
99.6831 1061 32.573
99.8005 1088 32.9848
99.9179 946 30.7571
100.035 874 29.5635
100.153 902 30.0333
100.27 965 31.0644
100.388 1002 31.6544
100.505 1036 32.187
100.622 1113 33.3617
100.74 1151 33.9264
100.857 1096 33.1059
100.975 1103 33.2114
101.092 1084 32.9242
101.209 1144 33.8231
101.327 1069 32.6956
101.444 1064 32.619
101.561 1020 31.9374
101.679 1046 32.3419
101.796 969 31.1288
101.913 922 30.3645
102.03 945 30.7409
102.148 1074 32.7719
102.265 1118 33.4365
102.382 1146 33.8526
102.499 1070 32.7109
102.616 1151 33.9264
102.733 1161 34.0735
102.851 1165 34.1321
102.968 1223 34.9714
103.085 1158 34.0294
103.202 1164 34.1174
103.319 1116 33.4066
103.436 1008 31.749
103.552 961 31
103.669 854 29.2233
103.786 1046 32.3419
103.903 1089 33
104.02 1143 33.8083
104.137 1142 33.7935
104.253 1094 33.0757
104.37 1179 34.3366
104.487 1190 34.4964
104.603 1164 34.1174
104.72 1151 33.9264
104.836 1190 34.4964
104.953 1098 33.1361
105.069 1046 32.3419
105.186 1050 32.4037
105.302 1044 32.311
105.418 1034 32.1559
105.535 1109 33.3017
105.651 1107 33.2716
105.767 1214 34.8425
105.883 1209 34.7707
105.999 1249 35.3412
106.115 0 1
106.231 0 1
106.347 0 1
106.463 0 1
106.579 0 1
106.694 0 1
106.81 0 1
106.926 0 1
107.041 0 1
107.157 0 1
109.576 0 1
109.692 0 1
109.807 0 1
109.923 0 1
110.039 0 1
110.155 0 1
110.27 0 1
110.386 0 1
110.502 0 1
110.618 965 31.0644
110.735 1071 32.7261
110.851 1145 33.8378
110.967 1106 33.2566
111.083 1209 34.7707
111.199 1199 34.6266
111.316 1163 34.1028
111.432 1263 35.5387
111.549 1140 33.7639
111.665 1235 35.1426
111.782 1141 33.7787
111.898 1114 33.3766
112.015 1019 31.9218
112.132 858 29.2916
112.248 924 30.3974
112.365 1030 32.0936
112.482 1016 31.8748
112.599 1139 33.7491
112.716 1169 34.1906
112.832 1103 33.2114
112.949 1152 33.9411
113.066 1160 34.0588
113.183 1149 33.8969
113.3 1169 34.1906
113.417 1133 33.6601
113.534 1071 32.7261
113.652 974 31.209
113.769 930 30.4959
113.886 931 30.5123
114.003 994 31.5278
114.12 924 30.3974
114.238 1066 32.6497
114.355 1133 33.6601
114.472 1160 34.0588
114.589 1144 33.8231
114.707 1109 33.3017
114.824 1225 35
114.942 1139 33.7491
115.059 1220 34.9285
115.176 1179 34.3366
115.294 1175 34.2783
115.411 1067 32.665
115.529 1016 31.8748
115.646 944 30.7246
115.764 851 29.1719
115.881 992 31.496
115.999 1017 31.8904
116.116 1018 31.9061
116.234 1130 33.6155
116.351 1142 33.7935
116.469 1116 33.4066
116.586 1117 33.4215
116.704 1183 34.3948
116.821 1163 34.1028
116.939 1119 33.4515
117.056 1004 31.686
117.174 1039 32.2335
117.291 952 30.8545
117.409 935 30.5778
117.526 933 30.545
117.644 982 31.3369
117.761 988 31.4325
117.879 1134 33.6749
117.996 1103 33.2114
118.114 1166 34.1467
118.231 1167 34.1614
118.349 1175 34.2783
118.466 1140 33.7639
118.584 1187 34.4529
118.701 1224 34.9857
118.819 1214 34.8425
118.936 1134 33.6749
119.053 1073 32.7567
119.171 973 31.1929
119.288 908 30.133
119.405 817 28.5832
119.523 914 30.2324
119.64 1026 32.0312
119.757 1071 32.7261
119.875 1124 33.5261
119.992 1074 32.7719
120.109 1058 32.5269
120.226 1071 32.7261
120.343 1104 33.2265
120.46 1090 33.0151
120.578 1067 32.665
120.695 1083 32.909
120.812 1020 31.9374
120.929 1016 31.8748
121.046 909 30.1496
121.163 944 30.7246
121.279 929 30.4795
121.396 1013 31.8277
121.513 1105 33.2415
121.63 1140 33.7639
121.747 1153 33.9559
121.863 1163 34.1028
121.98 1105 33.2415
122.097 1139 33.7491
122.213 1152 33.9411
122.33 1159 34.0441
122.446 1103 33.2114
122.563 1119 33.4515
122.679 1059 32.5423
122.795 1000 31.6228
122.912 987 31.4166
123.028 870 29.4958
123.144 818 28.6007
123.26 882 29.6985
123.377 0 1
123.493 0 1
123.609 0 1
123.725 0 1
123.84 0 1
123.956 0 1
124.072 0 1
124.188 0 1
124.303 0 1
124.419 0 1
126.852 0 1
126.968 0 1
127.083 0 1
127.199 0 1
127.315 0 1
127.431 0 1
127.547 0 1
127.663 0 1
127.779 0 1
127.895 0 1
128.011 0 1
128.127 0 1
128.243 0 1
128.359 913 30.2159
128.476 949 30.8058
128.592 1010 31.7805
128.708 1093 33.0606
128.825 1224 34.9857
128.941 1246 35.2987
129.058 1160 34.0588
129.174 1142 33.7935
129.291 1131 33.6303
129.408 1207 34.7419
129.524 1112 33.3467
129.641 1157 34.0147
129.758 1071 32.7261
129.875 1071 32.7261
129.992 968 31.1127
130.108 954 30.8869
130.225 1112 33.3467
130.342 1079 32.8481
130.459 1105 33.2415
130.576 1190 34.4964
130.693 1170 34.2053
130.81 1139 33.7491
130.928 1220 34.9285
131.045 1200 34.641
131.162 1217 34.8855
131.279 1200 34.641
131.396 1189 34.4819
131.513 1199 34.6266
131.631 1128 33.5857
131.748 1059 32.5423
131.865 998 31.5911
131.983 898 29.9666
132.1 1012 31.8119
132.217 1074 32.7719
132.335 1154 33.9706
132.452 1197 34.5977
132.57 1200 34.641
132.687 1112 33.3467
132.804 1159 34.0441
132.922 1191 34.5109
133.039 1251 35.3695
133.157 1151 33.9264
133.274 1098 33.1361
133.392 1043 32.2955
133.509 1053 32.45
133.627 1008 31.749
133.744 1020 31.9374
133.862 1036 32.187
133.979 1056 32.4962
134.097 1175 34.2783
134.214 1181 34.3657
134.332 1213 34.8281
134.449 1234 35.1283
134.567 1201 34.6554
134.684 1231 35.0856
134.802 1205 34.7131
134.919 1308 36.1663
135.037 1143 33.8083
135.154 1188 34.4674
135.272 1137 33.7194
135.389 1050 32.4037
135.507 955 30.9031
135.624 935 30.5778
135.742 1033 32.1403
135.859 1151 33.9264
135.977 1194 34.5543
136.094 1229 35.0571
136.211 1201 34.6554
136.329 1200 34.641
136.446 1216 34.8712
136.564 1170 34.2053
136.681 1161 34.0735
136.798 1082 32.8938
136.915 1058 32.5269
137.033 1061 32.573
137.15 1011 31.7962
137.267 965 31.0644
137.384 966 31.0805
137.502 1033 32.1403
137.619 1136 33.7046
137.736 1188 34.4674
137.853 1149 33.8969
137.97 1176 34.2929
138.087 1185 34.4238
138.204 1200 34.641
138.321 1243 35.2562
138.438 1239 35.1994
138.555 1158 34.0294
138.672 1190 34.4964
138.788 1258 35.4683
138.905 1129 33.6006
139.022 1067 32.665
139.139 896 29.9333
139.255 939 30.6431
139.372 1034 32.1559
139.488 1137 33.7194
139.605 1224 34.9857
139.721 1184 34.4093
139.838 1216 34.8712
139.954 1230 35.0714
140.071 1224 34.9857
140.187 1189 34.4819
140.303 1186 34.4384
140.419 1095 33.0908
140.535 1018 31.9061
140.652 1124 33.5261
140.768 0 1
140.884 0 1
141 0 1
141.115 0 1
141.231 0 1
141.347 0 1
141.463 0 1
141.578 0 1
141.694 0 1
144.104 0 1
144.219 0 1
144.335 0 1
144.45 0 1
144.566 0 1
144.682 0 1
144.798 0 1
144.914 0 1
145.03 0 1
145.146 891 29.8496
145.262 925 30.4138
145.378 914 30.2324
145.494 910 30.1662
145.61 902 30.0333
145.726 828 28.775
145.842 850 29.1548
145.959 860 29.3258
146.075 821 28.6531
146.192 865 29.4109
146.308 803 28.3373
146.425 851 29.1719
146.541 904 30.0666
146.658 880 29.6648
146.774 952 30.8545
146.891 1031 32.1092
147.008 931 30.5123
147.125 956 30.9192
147.241 972 31.1769
147.358 978 31.273
147.475 982 31.3369
147.592 957 30.9354
147.709 920 30.3315
147.826 853 29.2062
147.943 835 28.8964
148.06 773 27.8029
148.177 817 28.5832
148.294 809 28.4429
148.411 897 29.95
148.528 936 30.5941
148.645 1005 31.7017
148.762 964 31.0483
148.88 980 31.305
148.997 946 30.7571
149.114 977 31.257
149.231 939 30.6431
149.349 912 30.1993
149.466 874 29.5635
149.583 859 29.3087
149.701 809 28.4429
149.818 918 30.2985
149.935 782 27.9643
150.053 802 28.3196
150.17 898 29.9666
150.287 896 29.9333
150.405 935 30.5778
150.522 953 30.8707
150.64 960 30.9839
150.757 1001 31.6386
150.875 994 31.5278
150.992 988 31.4325
151.11 1062 32.5883
151.227 994 31.5278
151.344 954 30.8869
151.462 928 30.4631
151.579 903 30.05
151.697 857 29.2746
151.814 774 27.8209
151.932 846 29.0861
152.049 883 29.7153
152.167 873 29.5466
152.284 953 30.8707
152.402 1023 31.9844
152.519 970 31.1448
152.636 971 31.1609
152.754 947 30.7734
152.871 1022 31.9687
152.989 964 31.0483
153.106 930 30.4959
153.223 956 30.9192
153.341 869 29.4788
153.458 879 29.6479
153.575 822 28.6705
153.693 898 29.9666
153.81 896 29.9333
153.927 974 31.209
154.044 1003 31.6702
154.162 1036 32.187
154.279 1027 32.0468
154.396 987 31.4166
154.513 1074 32.7719
154.63 946 30.7571
154.747 1099 33.1512
154.864 1053 32.45
154.981 1073 32.7567
155.098 1006 31.7175
155.215 944 30.7246
155.332 866 29.4279
155.449 875 29.5804
155.566 982 31.3369
155.683 1038 32.218
155.8 1112 33.3467
155.917 1059 32.5423
156.033 1089 33
156.15 0 1
156.267 0 1
156.383 0 1
156.5 0 1
156.617 0 1
156.733 0 1
156.85 0 1
156.966 0 1
157.082 0 1
157.199 0 1
157.315 0 1
157.431 0 1
157.547 0 1
157.664 0 1
157.78 0 1
157.896 0 1
158.012 0 1
158.128 0 1
158.244 0 1
158.359 0 1
158.475 0 1
158.591 0 1
158.706 0 1
