
6.15755 0 1
6.2731 0 1
6.3887 0 1
6.50437 0 1
6.62009 0 1
6.73587 0 1
6.8517 0 1
6.96759 0 1
7.08353 0 1
7.19952 0 1
7.31557 0 1
7.43166 0 1
7.54781 0 1
7.664 0 1
7.78024 0 1
7.89653 0 1
8.01286 0 1
8.12924 0 1
8.24567 0 1
8.36213 0 1
8.47864 0 1
8.59519 0 1
8.71178 0 1
8.82841 0 1
8.94508 0 1
9.06179 0 1
9.17853 0 1
9.29531 0 1
9.41212 0 1
9.52897 0 1
9.64584 0 1
9.76276 0 1
9.8797 0 1
9.99667 0 1
10.1137 0 1
10.2307 0 1
10.3478 0 1
10.4648 0 1
10.5819 0 1
10.6991 0 1
10.8162 0 1
10.9334 0 1
11.0506 0 1
11.1678 0 1
11.285 0 1
11.4023 0 1
11.5196 0 1
11.6369 0 1
11.7542 0 1
11.8715 0 1
11.9888 0 1
12.1062 0 1
12.2235 0 1
12.3409 0 1
12.4582 0 1
12.5756 0 1
12.693 0 1
12.8104 0 1
12.9278 0 1
13.0452 0 1
13.1626 0 1
13.28 0 1
13.3974 0 1
13.5149 0 1
13.6323 0 1
13.7497 0 1
13.8671 0 1
13.9845 0 1
14.1019 0 1
14.2193 0 1
14.3367 0 1
14.4541 0 1
14.5714 0 1
14.6888 0 1
14.8062 0 1
14.9235 0 1
15.0408 0 0
15.1581 0 0
15.2755 0 0
15.3927 0 0
15.51 0 0
15.6273 0 0
15.7445 0 0
15.8617 0 0
15.9789 0 0
16.0961 0 0
16.2132 0 0
16.3304 0 0
16.4475 0 0
16.5646 0 0
16.6816 0 0
16.7986 0 0
16.9156 0 0
17.0326 0 0
17.1496 0 0
17.2665 0 0
17.3833 0 0
17.5002 0 0
17.617 0 0
17.7338 0 0
17.8505 0 0
17.9672 0 0
18.0839 0 0
18.2005 0 0
18.3171 0 0
18.4337 0 0
18.5502 0 0
18.6666 0 0
18.7831 0 0
18.8994 0 0
19.0158 0 0
19.1321 0 0
19.2483 0 0
19.3645 0 0
19.4806 0 0
19.5967 0 0
19.7128 0 0
19.8288 0 0
19.9447 0 0
20.0606 0 1
20.1764 0 1
20.2922 0 1
20.4079 0 1
20.5236 0 1
20.6392 0 1
20.7548 0 1
20.8702 0 1
23.3078 0 1
23.4233 0 1
23.539 0 1
23.6547 0 1
23.7704 0 1
23.8862 0 1
24.0021 0 1
24.118 0 1
24.234 0 1
24.35 0 1
24.4661 1510 38.8587
24.5822 1449 38.0657
24.6984 1421 37.6962
24.8146 1385 37.2156
24.9309 1328 36.4417
25.0472 1277 35.7351
25.1636 1360 36.8782
25.28 1405 37.4833
25.3965 1494 38.6523
25.513 1532 39.1408
25.6296 1730 41.5933
25.7462 1755 41.8927
25.8628 1770 42.0714
25.9795 1708 41.328
26.0962 1755 41.8927
26.213 1764 42
26.3298 1684 41.0366
26.4466 1707 41.3159
26.5635 1599 39.9875
26.6804 1566 39.5727
26.7973 1522 39.0128
26.9143 1527 39.0768
27.0313 1590 39.8748
27.1483 1619 40.2368
27.2653 1654 40.6694
27.3824 1662 40.7676
27.4996 1666 40.8167
27.6167 1716 41.4246
27.7339 1674 40.9145
27.8511 1648 40.5956
27.9683 1571 39.6358
28.0855 1573 39.6611
28.2028 1476 38.4187
28.3201 1418 37.6563
28.4374 1362 36.9053
28.5547 1187 34.4529
28.6721 1250 35.3553
28.7894 1286 35.8608
28.9068 1396 37.3631
29.0242 1452 38.1051
29.1416 1599 39.9875
29.259 1587 39.8372
29.3764 1635 40.4351
29.4939 1632 40.398
29.6113 1640 40.4969
29.7288 1581 39.7618
29.8463 1588 39.8497
29.9638 1575 39.6863
30.0812 1540 39.2428
30.1987 1540 39.2428
30.3162 1485 38.5357
30.4337 1607 40.0874
30.5512 1525 39.0512
30.6687 1567 39.5854
30.7862 1650 40.6202
30.9037 1606 40.0749
31.0212 1608 40.0999
31.1387 1677 40.9512
31.2562 1698 41.2068
31.3737 1633 40.4104
31.4912 1588 39.8497
31.6087 1642 40.5216
31.7262 1499 38.7169
31.8436 1368 36.9865
31.9611 1378 37.1214
32.0785 1295 35.9861
32.1959 1268 35.609
32.3134 1325 36.4005
32.4308 1454 38.1314
32.5482 1543 39.281
32.6655 1534 39.1663
32.7829 1597 39.9625
32.9002 1704 41.2795
33.0176 1672 40.8901
33.1349 1620 40.2492
33.2522 1581 39.7618
33.3694 1655 40.6817
33.4867 1641 40.5093
33.6039 1669 40.8534
33.7211 1600 40
33.8383 1531 39.128
33.9554 1543 39.281
34.0725 1509 38.8458
34.1896 1630 40.3733
34.3067 1618 40.2244
34.4237 1555 39.4335
34.5407 1614 40.1746
34.6577 1688 41.0853
34.7746 1587 39.8372
34.8915 1730 41.5933
35.0084 1608 40.0999
35.1252 1656 40.694
35.242 1647 40.5832
35.3587 1630 40.3733
35.4755 1490 38.6005
35.5921 1420 37.6829
35.7088 1325 36.4005
35.8254 1249 35.3412
35.9419 1206 34.7275
36.0584 1244 35.2704
36.1749 1450 38.0789
36.2913 1502 38.7556
36.4077 1646 40.5709
36.524 1620 40.2492
36.6403 1655 40.6817
36.7565 1666 40.8167
36.8727 1758 41.9285
36.9889 1637 40.4599
37.1049 1670 40.8656
37.221 0 1
37.3369 0 1
37.4529 0 1
37.5687 0 1
37.6845 0 1
37.8003 0 1
37.916 0 1
38.0316 0 1
38.1472 0 1
40.5851 0 1
40.7008 0 1
40.8164 0 1
40.9322 0 1
41.048 0 1
41.1639 0 1
41.2798 0 1
41.3958 0 1
41.5118 0 1
41.6279 0 1
41.744 1422 37.7094
41.8602 1431 37.8286
41.9765 1533 39.1535
42.0928 1473 38.3797
42.2091 1389 37.2693
42.3255 1504 38.7814
42.4419 1520 38.9872
42.5584 1462 38.2361
42.675 1414 37.6032
42.7915 1404 37.47
42.9081 1436 37.8946
43.0248 1424 37.7359
43.1415 1503 38.7685
43.2582 1473 38.3797
43.375 1491 38.6135
43.4918 1545 39.3065
43.6087 1524 39.0384
43.7256 1494 38.6523
43.8425 1431 37.8286
43.9595 1451 38.092
44.0765 1324 36.3868
44.1935 1350 36.7423
44.3106 1224 34.9857
44.4277 1082 32.8938
44.5448 970 31.1448
44.6619 988 31.4325
44.7791 979 31.289
44.8963 1102 33.1964
45.0136 1134 33.6749
45.1308 1285 35.8469
45.2481 1371 37.027
45.3654 1289 35.9026
45.4827 1280 35.7771
45.6001 1336 36.5513
45.7174 1301 36.0694
45.8348 1333 36.5103
45.9522 1391 37.2961
46.0697 1292 35.9444
46.1871 1175 34.2783
46.3046 1232 35.0999
46.422 1188 34.4674
46.5395 1188 34.4674
46.657 1197 34.5977
46.7745 1228 35.0428
46.892 1193 34.5398
47.0096 1182 34.3802
47.1271 1206 34.7275
47.2446 1255 35.426
47.3622 1125 33.541
47.4797 1150 33.9116
47.5973 1073 32.7567
47.7149 1106 33.2566
47.8324 1093 33.0606
47.95 947 30.7734
48.0675 842 29.0172
48.1851 787 28.0535
48.3027 794 28.178
48.4202 850 29.1548
48.5378 965 31.0644
48.6554 1031 32.1092
48.7729 1087 32.9697
48.8904 1127 33.5708
49.008 1121 33.4813
49.1255 1127 33.5708
49.243 1154 33.9706
49.3605 1134 33.6749
49.478 1188 34.4674
49.5955 1096 33.1059
49.713 1174 34.2637
49.8304 1178 34.322
49.9479 1146 33.8526
50.0653 1201 34.6554
50.1827 1215 34.8569
50.3001 1261 35.5106
50.4175 1305 36.1248
50.5348 1310 36.1939
50.6521 1389 37.2693
50.7694 1363 36.9188
50.8867 1397 37.3765
51.004 1409 37.5366
51.1212 1503 38.7685
51.2384 1466 38.2884
51.3556 1393 37.3229
51.4727 1350 36.7423
51.5899 1154 33.9706
51.707 1175 34.2783
51.824 1135 33.6898
51.9411 1317 36.2905
52.0581 1455 38.1445
52.175 1512 38.8844
52.2919 1835 42.8369
52.4088 1721 41.4849
52.5257 1764 42
52.6425 1899 43.5775
52.7593 1839 42.8836
52.876 1945 44.1022
52.9927 1927 43.8976
53.1094 1848 42.9884
53.226 1974 44.4297
53.3426 1868 43.2204
53.4591 1927 43.8976
53.5756 1894 43.5201
53.692 1977 44.4635
53.8084 1982 44.5197
53.9248 1964 44.317
54.0411 2061 45.3982
54.1573 2123 46.076
54.2735 0 1
54.3896 0 1
54.5057 0 1
54.6217 0 1
54.7377 0 1
54.8537 0 1
54.9695 0 1
55.0853 0 1
55.2011 0 1
55.3168 0 1
55.4324 0 1
57.824 0 1
57.9396 0 1
58.0553 0 1
58.1711 0 1
58.2869 0 1
58.4028 0 1
58.5187 0 1
58.6347 0 1
58.7508 0 1
58.8669 0 1
58.983 2839 53.2823
59.0992 2861 53.4883
59.2155 2958 54.3875
59.3318 3015 54.909
59.4482 3038 55.1181
59.5646 2976 54.5527
59.681 2893 53.7866
59.7975 2878 53.647
59.9141 2873 53.6004
60.0306 2735 52.2972
60.1473 2426 49.2544
60.2639 2218 47.0956
60.3807 2027 45.0222
60.4974 2167 46.551
60.6142 2320 48.1664
60.731 2528 50.2792
60.8479 2790 52.8205
60.9648 2892 53.7773
61.0818 2987 54.6535
61.1987 3136 56
61.3158 3076 55.4617
61.4328 2998 54.754
61.5499 3057 55.2901
61.667 3096 55.6417
61.7841 3114 55.8032
61.9013 3060 55.3173
62.0185 3050 55.2268
62.1357 3017 54.9272
62.253 3084 55.5338
62.3702 3126 55.9106
62.4875 3160 56.2139
62.6049 3208 56.6392
62.7222 3235 56.8771
62.8396 3355 57.9224
62.9569 3245 56.9649
63.0743 3372 58.0689
63.1918 3232 56.8507
63.3092 3147 56.0981
63.4267 2923 54.0648
63.5441 2916 54
63.6616 2735 52.2972
63.7791 2380 48.7852
63.8966 2115 45.9891
64.0142 2254 47.4763
64.1317 2430 49.295
64.2492 2740 52.345
64.3668 3046 55.1906
64.4843 3173 56.3294
64.6019 3315 57.576
64.7195 3290 57.3585
64.837 3364 58
64.9546 3458 58.8048
65.0722 3500 59.1608
65.1898 3365 58.0086
65.3074 3390 58.2237
65.4249 3289 57.3498
65.5425 3406 58.3609
65.6601 3347 57.8533
65.7777 3240 56.921
65.8952 3414 58.4294
66.0128 3312 57.55
66.1304 3373 58.0775
66.2479 3521 59.338
66.3655 3641 60.3407
66.483 3688 60.7289
66.6005 3699 60.8194
66.718 3576 59.7997
66.8355 3489 59.0678
66.953 3439 58.643
67.0705 3308 57.5152
67.1879 3225 56.7891
67.3054 2805 52.9623
67.4228 2457 49.5681
67.5402 2306 48.0208
67.6576 2465 49.6488
67.7749 2614 51.1273
67.8923 3142 56.0535
68.0096 3395 58.2666
68.1269 3639 60.3241
68.2442 3804 61.6766
68.3614 3749 61.2291
68.4787 3751 61.2454
68.5958 3910 62.53
68.713 4021 63.4114
68.8302 3837 61.9435
68.9473 3977 63.0635
69.0643 3873 62.2334
69.1814 3915 62.57
69.2984 3908 62.514
69.4154 3925 62.6498
69.5323 3828 61.8708
69.6492 3972 63.0238
69.7661 4120 64.1872
69.8829 3982 63.1031
69.9997 4065 63.7574
70.1165 4228 65.0231
70.2332 4345 65.9166
70.3499 4175 64.6142
70.4665 4161 64.5058
70.5831 3934 62.7216
70.6996 3837 61.9435
70.8161 3807 61.7009
70.9326 3649 60.407
71.049 3172 56.3205
71.1653 2840 53.2917
71.2817 2570 50.6952
71.3979 2784 52.7636
71.5141 3003 54.7996
71.6303 3331 57.7148
71.7464 3407 58.3695
71.8624 0 1
71.9784 0 1
72.0944 0 1
72.2102 0 1
72.3261 0 1
72.4418 0 1
72.5575 0 1
72.6732 0 1
75.1054 0 1
75.2209 0 1
75.3365 0 1
75.4521 0 1
75.5678 0 1
75.6835 0 1
75.7993 0 1
75.9151 0 1
76.031 0 1
76.147 3497 59.1354
76.263 3684 60.696
76.3791 3369 58.0431
76.4952 2968 54.4794
76.6113 2960 54.4059
76.7276 3217 56.7186
76.8438 3302 57.463
76.9601 3921 62.6179
77.0765 4355 65.9924
77.1929 4488 66.9925
77.3093 4594 67.7791
77.4258 4659 68.2569
77.5423 4616 67.9412
77.6589 4640 68.1175
77.7755 4575 67.6387
77.8921 4619 67.9632
78.0088 4543 67.4018
78.1256 4474 66.888
78.2423 4479 66.9253
78.3591 4442 66.6483
78.4759 4305 65.6125
78.5928 4460 66.7832
78.7097 4455 66.7458
78.8266 4688 68.469
78.9436 4225 65
79.0606 4543 67.4018
79.1776 4516 67.2012
79.2946 4526 67.2756
79.4117 4589 67.7422
79.5288 4435 66.5958
79.6459 4220 64.9615
79.7631 4061 63.726
79.8802 3872 62.2254
79.9974 3547 59.5567
80.1147 3082 55.5158
80.2319 2895 53.8052
80.3491 3074 55.4437
80.4664 3364 58
80.5837 3815 61.7657
80.701 4218 64.9461
80.8183 4349 65.9469
80.9357 4472 66.873
81.053 4448 66.6933
81.1704 4440 66.6333
81.2877 4413 66.4304
81.4051 4509 67.1491
81.5225 4707 68.6076
81.6399 4251 65.1997
81.7573 4292 65.5134
81.8747 4235 65.0769
81.9922 4263 65.2917
82.1096 4250 65.192
82.227 4255 65.2304
82.3444 4207 64.8614
82.4619 4266 65.3146
82.5793 4123 64.2106
82.6967 4230 65.0385
82.8142 4269 65.3376
82.9316 4271 65.3529
83.049 4391 66.2646
83.1664 4197 64.7843
83.2838 3967 62.9841
83.4012 3656 60.4649
83.5186 3482 59.0085
83.636 3258 57.0789
83.7534 2954 54.3507
83.8708 2633 51.3128
83.9881 2677 51.7397
84.1055 3052 55.2449
84.2228 3384 58.1722
84.3401 3807 61.7009
84.4575 4055 63.6789
84.5747 4229 65.0308
84.692 4167 64.5523
84.8093 4427 66.5357
84.9265 4322 65.7419
85.0437 4364 66.0606
85.1609 4339 65.8711
85.2781 4300 65.5744
85.3952 4305 65.6125
85.5123 4252 65.2074
85.6294 4280 65.4217
85.7465 4409 66.4003
85.8636 4275 65.3835
85.9806 4329 65.7951
86.0976 4389 66.2495
86.2145 4582 67.6905
86.3315 4370 66.106
86.4484 4749 68.913
86.5652 4740 68.8477
86.682 4682 68.4251
86.7988 4491 67.0149
86.9156 4357 66.0076
87.0323 4117 64.1639
87.149 3884 62.3217
87.2657 3640 60.3324
87.3823 3339 57.7841
87.4988 3156 56.1783
87.6154 3325 57.6628
87.7318 3868 62.1932
87.8483 4415 66.4455
87.9647 4730 68.775
88.081 4869 69.7782
88.1973 4959 70.4202
88.3136 4902 70.0143
88.4298 4970 70.4982
88.546 4934 70.2424
88.6621 4998 70.6965
88.7781 4892 69.9428
88.8942 0 1
89.0101 0 1
89.126 0 1
89.2419 0 1
89.3577 0 1
89.4734 0 1
89.5891 0 1
89.7047 0 1
89.8203 0 1
89.9358 0 1
92.3269 0 1
92.4424 0 1
92.558 0 1
92.6736 0 1
92.7893 0 1
92.905 0 1
93.0208 0 1
93.1366 0 1
93.2525 0 1
93.3685 0 1
93.4845 0 1
93.6005 4681 68.4178
93.7167 4959 70.4202
93.8328 4911 70.0785
93.949 4892 69.9428
94.0653 4885 69.8928
94.1816 4892 69.9428
94.2979 4969 70.4911
94.4143 5025 70.8872
94.5307 5024 70.8802
94.6472 4853 69.6635
94.7637 4895 69.9643
94.8803 4931 70.2211
94.9969 4842 69.5845
95.1135 4934 70.2424
95.2302 5057 71.1126
95.3469 4935 70.2496
95.4637 4969 70.4911
95.5805 5045 71.0282
95.6973 5088 71.3302
95.8142 5070 71.2039
95.9311 4999 70.7036
96.048 4863 69.7352
96.1649 4553 67.4759
96.2819 4391 66.2646
96.3989 3905 62.49
96.516 3553 59.607
96.633 3286 57.3236
96.7501 3454 58.7707
96.8673 3874 62.2415
96.9844 4359 66.0227
97.1016 4777 69.1158
97.2188 5114 71.5122
97.336 5332 73.0205
97.4532 5372 73.2939
97.5704 5343 73.0958
97.6877 5319 72.9315
97.805 5286 72.7049
97.9223 5290 72.7324
98.0396 5189 72.0347
98.1569 5283 72.6842
98.2743 5271 72.6017
98.3916 5268 72.581
98.509 5257 72.5052
98.6264 5210 72.1803
98.7438 5191 72.0486
98.8612 5215 72.215
98.9786 5148 71.7496
99.096 5170 71.9027
99.2134 5306 72.8423
99.3308 5261 72.5328
99.4482 5283 72.6842
99.5656 5352 73.1574
99.6831 5361 73.2189
99.8005 5018 70.8378
99.9179 4607 67.8749
100.035 4217 64.9384
100.153 3858 62.1128
100.27 3718 60.9754
100.388 3950 62.849
100.505 4311 65.6582
100.622 4907 70.05
100.74 5151 71.7705
100.857 5359 73.2052
100.975 5440 73.7564
101.092 5519 74.29
101.209 5440 73.7564
101.327 5439 73.7496
101.444 5460 73.8918
101.561 5613 74.92
101.679 5593 74.7864
101.796 5466 73.9324
101.913 5504 74.1889
102.03 5625 75
102.148 5584 74.7262
102.265 5849 76.4788
102.382 5325 72.9726
102.499 5658 75.2197
102.616 5659 75.2263
102.733 5614 74.9266
102.851 5687 75.4122
102.968 5821 76.2955
103.085 5705 75.5315
103.202 5635 75.0666
103.319 5374 73.3076
103.436 5024 70.8802
103.552 4601 67.8307
103.669 4117 64.1639
103.786 3891 62.3779
103.903 4187 64.707
104.02 4684 68.4398
104.137 5324 72.9657
104.253 5849 76.4788
104.37 5653 75.1864
104.487 6030 77.6531
104.603 6013 77.5435
104.72 6130 78.2943
104.836 5959 77.1946
104.953 6047 77.7625
105.069 6099 78.0961
105.186 6047 77.7625
105.302 6238 78.981
105.418 6072 77.923
105.535 6027 77.6338
105.651 5955 77.1686
105.767 6044 77.7432
105.883 6051 77.7882
105.999 6088 78.0256
106.115 0 1
106.231 0 1
106.347 0 1
106.463 0 1
106.579 0 1
106.694 0 1
106.81 0 1
106.926 0 1
107.041 0 1
107.157 0 1
109.576 0 1
109.692 0 1
109.807 0 1
109.923 0 1
110.039 0 1
110.155 0 1
110.27 0 1
110.386 0 1
110.502 0 1
110.618 5658 75.2197
110.735 5684 75.3923
110.851 5806 76.1971
110.967 5868 76.6029
111.083 5699 75.4917
111.199 5687 75.4122
111.316 5894 76.7724
111.432 5990 77.3951
111.549 5696 75.4718
111.665 5523 74.3169
111.782 5372 73.2939
111.898 5073 71.225
112.015 4637 68.0955
112.132 4029 63.4744
112.248 3780 61.4817
112.365 3971 63.0159
112.482 4289 65.4905
112.599 4681 68.4178
112.716 5241 72.3948
112.832 5359 73.2052
112.949 5431 73.6953
113.066 5360 73.212
113.183 5394 73.4439
113.3 5235 72.3533
113.417 5335 73.0411
113.534 5326 72.9794
113.652 5269 72.5879
113.769 5255 72.4914
113.886 5190 72.0417
114.003 5165 71.8679
114.12 5167 71.8818
114.238 5012 70.7955
114.355 5102 71.4283
114.472 5016 70.8237
114.589 5029 70.9154
114.707 4966 70.4699
114.824 5068 71.1899
114.942 5159 71.8262
115.059 5054 71.0915
115.176 5119 71.5472
115.294 4951 70.3633
115.411 4795 69.2459
115.529 4368 66.0908
115.646 3956 62.8967
115.764 3545 59.5399
115.881 3580 59.8331
115.999 3821 61.8142
116.116 4268 65.3299
116.234 4638 68.1029
116.351 4968 70.484
116.469 5053 71.0845
116.586 5045 71.0282
116.704 5208 72.1665
116.821 5142 71.7077
116.939 4987 70.6187
117.056 5258 72.5121
117.174 5188 72.0278
117.291 5212 72.1942
117.409 5086 71.3162
117.526 5082 71.2881
117.644 5037 70.9718
117.761 5186 72.0139
117.879 5186 72.0139
117.996 4938 70.2709
118.114 5116 71.5262
118.231 5068 71.1899
118.349 5175 71.9375
118.466 5190 72.0417
118.584 5158 71.8192
118.701 5188 72.0278
118.819 5025 70.8872
118.936 5028 70.9084
119.053 4568 67.587
119.171 4399 66.325
119.288 4001 63.2535
119.405 3528 59.397
119.523 3575 59.7913
119.64 3893 62.3939
119.757 4301 65.582
119.875 4666 68.3081
119.992 5015 70.8167
120.109 4906 70.0428
120.226 5046 71.0352
120.343 4990 70.6399
120.46 5118 71.5402
120.578 5237 72.3671
120.695 5027 70.9013
120.812 5038 70.9789
120.929 5061 71.1407
121.046 5078 71.2601
121.163 5053 71.0845
121.279 5115 71.5192
121.396 5088 71.3302
121.513 4936 70.2567
121.63 5132 71.638
121.747 5043 71.0141
121.863 4933 70.2353
121.98 4964 70.4557
122.097 4927 70.1926
122.213 5020 70.852
122.33 4914 70.0999
122.446 4988 70.6258
122.563 4931 70.2211
122.679 4752 68.9348
122.795 4547 67.4314
122.912 4384 66.2118
123.028 3984 63.1189
123.144 3645 60.3738
123.26 3495 59.1185
123.377 0 1
123.493 0 1
123.609 0 1
123.725 0 1
123.84 0 1
123.956 0 1
124.072 0 1
124.188 0 1
124.303 0 1
124.419 0 1
126.852 0 1
126.968 0 1
127.083 0 1
127.199 0 1
127.315 0 1
127.431 0 1
127.547 0 1
127.663 0 1
127.779 0 1
127.895 0 1
128.011 0 1
128.127 0 1
128.243 0 1
128.359 4102 64.0469
128.476 3896 62.4179
128.592 4322 65.7419
128.708 4759 68.9855
128.825 5338 73.0616
128.941 5481 74.0338
129.058 5424 73.6478
129.174 5771 75.9671
129.291 5545 74.4648
129.408 5652 75.1798
129.524 5585 74.7329
129.641 5788 76.0789
129.758 5601 74.8398
129.875 5671 75.306
129.992 5717 75.6108
130.108 5515 74.263
130.225 5507 74.2092
130.342 5517 74.2765
130.459 5288 72.7186
130.576 5664 75.2596
130.693 5398 73.4711
130.81 5478 74.0135
130.928 5405 73.5187
131.045 5398 73.4711
131.162 5363 73.2325
131.279 5462 73.9053
131.396 5410 73.5527
131.513 5237 72.3671
131.631 4973 70.5195
131.748 4714 68.6586
131.865 4257 65.2457
131.983 3872 62.2254
132.1 4014 63.3561
132.217 4444 66.6633
132.335 4881 69.8642
132.452 5286 72.7049
132.57 5430 73.6885
132.687 5259 72.519
132.804 5673 75.3193
132.922 5477 74.0068
133.039 5446 73.797
133.157 5587 74.7462
133.274 5499 74.1552
133.392 5330 73.0068
133.509 5415 73.5867
133.627 5430 73.6885
133.744 5194 72.0694
133.862 5238 72.374
133.979 5392 73.4302
134.097 5175 71.9375
134.214 5414 73.5799
134.332 5168 71.8888
134.449 5170 71.9027
134.567 5262 72.5396
134.684 5275 72.6292
134.802 5296 72.7736
134.919 5408 73.5391
135.037 5082 71.2881
135.154 4967 70.4769
135.272 4679 68.4032
135.389 4328 65.7875
135.507 4094 63.9844
135.624 3804 61.6766
135.742 4107 64.0859
135.859 4489 67
135.977 4962 70.4415
136.094 5220 72.2496
136.211 5293 72.753
136.329 5287 72.7118
136.446 5235 72.3533
136.564 5316 72.9109
136.681 5458 73.8783
136.798 5238 72.374
136.915 5355 73.1779
137.033 5322 72.952
137.15 5252 72.4707
137.267 5151 71.7705
137.384 5094 71.3723
137.502 5145 71.7287
137.619 5246 72.4293
137.736 5052 71.0774
137.853 4915 70.1071
137.97 4974 70.5266
138.087 5294 72.7599
138.204 5112 71.4983
138.321 5151 71.7705
138.438 5282 72.6774
138.555 5093 71.3653
138.672 5210 72.1803
138.788 4996 70.6824
138.905 4772 69.0797
139.022 4511 67.164
139.139 4177 64.6297
139.255 4080 63.8749
139.372 4065 63.7574
139.488 4470 66.8581
139.605 4950 70.3562
139.721 5344 73.1027
139.838 5284 72.6911
139.954 5211 72.1873
140.071 5300 72.8011
140.187 5464 73.9189
140.303 5364 73.2393
140.419 5321 72.9452
140.535 5200 72.111
140.652 5146 71.7356
140.768 0 1
140.884 0 1
141 0 1
141.115 0 1
141.231 0 1
141.347 0 1
141.463 0 1
141.578 0 1
141.694 0 1
144.104 0 1
144.219 0 1
144.335 0 1
144.45 0 1
144.566 0 1
144.682 0 1
144.798 0 1
144.914 0 1
145.03 0 1
145.146 4494 67.0373
145.262 4516 67.2012
145.378 4660 68.2642
145.494 4609 67.8896
145.61 4572 67.6166
145.726 4383 66.2042
145.842 4393 66.2797
145.959 4454 66.7383
146.075 4273 65.3682
146.192 4229 65.0308
146.308 4298 65.5591
146.425 4288 65.4828
146.541 4239 65.1076
146.658 4266 65.3146
146.774 4370 66.106
146.891 4455 66.7458
147.008 4355 65.9924
147.125 4460 66.7832
147.241 4359 66.0227
147.358 4231 65.0461
147.475 4136 64.3117
147.592 3723 61.0164
147.709 3537 59.4727
147.826 3194 56.5155
147.943 3335 57.7495
148.06 3573 59.7746
148.177 4050 63.6396
148.294 4249 65.1844
148.411 4249 65.1844
148.528 4311 65.6582
148.645 4288 65.4828
148.762 4239 65.1076
148.88 4201 64.8151
148.997 4041 63.5689
149.114 4311 65.6582
149.231 4272 65.3605
149.349 4214 64.9153
149.466 4131 64.2729
149.583 3986 63.1348
149.701 3992 63.1823
149.818 4001 63.2535
149.935 3950 62.849
150.053 3869 62.2013
150.17 4004 63.2772
150.287 3902 62.466
150.405 4037 63.5374
150.522 4071 63.8044
150.64 4052 63.6553
150.757 4139 64.3351
150.875 4110 64.1093
150.992 4042 63.5767
151.11 3770 61.4003
151.227 3655 60.4566
151.344 3340 57.7927
151.462 3134 55.9821
151.579 3248 56.9912
151.697 3489 59.0678
151.814 3784 61.5142
151.932 4104 64.0625
152.049 4144 64.3739
152.167 4259 65.261
152.284 4119 64.1794
152.402 4160 64.4981
152.519 4181 64.6607
152.636 4140 64.3428
152.754 4122 64.2028
152.871 4148 64.405
152.989 4039 63.5531
153.106 3870 62.2093
153.223 3908 62.514
153.341 3879 62.2816
153.458 3807 61.7009
153.575 3892 62.3859
153.693 3931 62.6977
153.81 3818 61.79
153.927 3932 62.7057
154.044 3994 63.1981
154.162 4110 64.1093
154.279 4127 64.2417
154.396 4093 63.9766
154.513 4141 64.3506
154.63 4084 63.9062
154.747 4041 63.5689
154.864 3853 62.0725
154.981 3580 59.8331
155.098 3350 57.8792
155.215 3379 58.1292
155.332 3767 61.3759
155.449 3891 62.3779
155.566 4143 64.3661
155.683 4187 64.707
155.8 4224 64.9923
155.917 4233 65.0615
156.033 4105 64.0703
156.15 0 1
156.267 0 1
156.383 0 1
156.5 0 1
156.617 0 1
156.733 0 1
156.85 0 1
156.966 0 1
157.082 0 1
157.199 0 1
157.315 0 1
157.431 0 1
157.547 0 1
157.664 0 1
157.78 0 1
157.896 0 1
158.012 0 1
158.128 0 1
158.244 0 1
158.359 0 1
158.475 0 1
158.591 0 1
158.706 0 1
