
6.15755 0 1
6.2731 0 1
6.3887 0 1
6.50437 0 1
6.62009 0 1
6.73587 0 1
6.8517 0 1
6.96759 0 1
7.08353 0 1
7.19952 0 1
7.31557 0 1
7.43166 0 1
7.54781 0 1
7.664 0 1
7.78024 0 1
7.89653 0 1
8.01286 0 1
8.12924 0 1
8.24567 0 1
8.36213 0 1
8.47864 0 1
8.59519 0 1
8.71178 0 1
8.82841 0 1
8.94508 0 1
9.06179 0 1
9.17853 0 1
9.29531 0 1
9.41212 0 1
9.52897 0 1
9.64584 0 1
9.76276 0 1
9.8797 0 1
9.99667 0 1
10.1137 0 1
10.2307 0 1
10.3478 0 1
10.4648 0 1
10.5819 0 1
10.6991 0 1
10.8162 0 1
10.9334 0 1
11.0506 0 1
11.1678 0 1
11.285 0 1
11.4023 0 1
11.5196 0 1
11.6369 0 1
11.7542 0 1
11.8715 0 1
11.9888 0 1
12.1062 0 1
12.2235 0 1
12.3409 0 1
12.4582 0 1
12.5756 0 1
12.693 0 1
12.8104 0 1
12.9278 0 1
13.0452 0 1
13.1626 0 1
13.28 0 1
13.3974 0 1
13.5149 0 1
13.6323 0 1
13.7497 0 1
13.8671 0 1
13.9845 0 1
14.1019 0 1
14.2193 0 1
14.3367 0 1
14.4541 0 1
14.5714 0 1
14.6888 0 1
14.8062 0 1
14.9235 0 1
15.0408 0 0
15.1581 0 0
15.2755 0 0
15.3927 0 0
15.51 0 0
15.6273 0 0
15.7445 0 0
15.8617 0 0
15.9789 0 0
16.0961 0 0
16.2132 0 0
16.3304 0 0
16.4475 0 0
16.5646 0 0
16.6816 0 0
16.7986 0 0
16.9156 0 0
17.0326 0 0
17.1496 0 0
17.2665 0 0
17.3833 0 0
17.5002 0 0
17.617 0 0
17.7338 0 0
17.8505 0 0
17.9672 0 0
18.0839 0 0
18.2005 0 0
18.3171 0 0
18.4337 0 0
18.5502 0 0
18.6666 0 0
18.7831 0 0
18.8994 0 0
19.0158 0 0
19.1321 0 0
19.2483 0 0
19.3645 0 0
19.4806 0 0
19.5967 0 0
19.7128 0 0
19.8288 0 0
19.9447 0 0
20.0606 0 1
20.1764 0 1
20.2922 0 1
20.4079 0 1
20.5236 0 1
20.6392 0 1
20.7548 0 1
20.8702 0 1
23.3078 0 1
23.4233 0 1
23.539 0 1
23.6547 0 1
23.7704 0 1
23.8862 0 1
24.0021 0 1
24.118 0 1
24.234 0 1
24.35 0 1
24.4661 622 24.9399
24.5822 740 27.2029
24.6984 720 26.8328
24.8146 867 29.4449
24.9309 942 30.692
25.0472 949 30.8058
25.1636 984 31.3688
25.28 1019 31.9218
25.3965 1088 32.9848
25.513 1084 32.9242
25.6296 1236 35.1568
25.7462 1333 36.5103
25.8628 1262 35.5246
25.9795 1285 35.8469
26.0962 1329 36.4555
26.213 1312 36.2215
26.3298 1287 35.8748
26.4466 1277 35.7351
26.5635 1305 36.1248
26.6804 1208 34.7563
26.7973 1105 33.2415
26.9143 1119 33.4515
27.0313 1128 33.5857
27.1483 1168 34.176
27.2653 1251 35.3695
27.3824 1259 35.4824
27.4996 1258 35.4683
27.6167 1268 35.609
27.7339 1281 35.7911
27.8511 1114 33.3766
27.9683 1153 33.9559
28.0855 1145 33.8378
28.2028 1138 33.7343
28.3201 1129 33.6006
28.4374 1056 32.4962
28.5547 1072 32.7414
28.6721 1015 31.8591
28.7894 1033 32.1403
28.9068 1062 32.5883
29.0242 1107 33.2716
29.1416 1051 32.4191
29.259 1232 35.0999
29.3764 1153 33.9559
29.4939 1232 35.0999
29.6113 1150 33.9116
29.7288 1232 35.0999
29.8463 1182 34.3802
29.9638 1221 34.9428
30.0812 1140 33.7639
30.1987 1045 32.3265
30.3162 1109 33.3017
30.4337 975 31.225
30.5512 1038 32.218
30.6687 1108 33.2866
30.7862 1184 34.4093
30.9037 1237 35.171
31.0212 1209 34.7707
31.1387 1233 35.1141
31.2562 1135 33.6898
31.3737 1190 34.4964
31.4912 1145 33.8378
31.6087 1041 32.2645
31.7262 1078 32.8329
31.8436 1033 32.1403
31.9611 1031 32.1092
32.0785 1073 32.7567
32.1959 987 31.4166
32.3134 1023 31.9844
32.4308 963 31.0322
32.5482 984 31.3688
32.6655 1043 32.2955
32.7829 1103 33.2114
32.9002 1081 32.8786
33.0176 1092 33.0454
33.1349 1143 33.8083
33.2522 1209 34.7707
33.3694 1211 34.7994
33.4867 1204 34.6987
33.6039 1130 33.6155
33.7211 1116 33.4066
33.8383 993 31.5119
33.9554 993 31.5119
34.0725 1007 31.7333
34.1896 974 31.209
34.3067 1042 32.28
34.4237 1123 33.5112
34.5407 1108 33.2866
34.6577 1117 33.4215
34.7746 1136 33.7046
34.8915 1131 33.6303
35.0084 1109 33.3017
35.1252 1088 32.9848
35.242 1014 31.8434
35.3587 1087 32.9697
35.4755 1060 32.5576
35.5921 1020 31.9374
35.7088 980 31.305
35.8254 937 30.6105
35.9419 945 30.7409
36.0584 915 30.249
36.1749 844 29.0517
36.2913 828 28.775
36.4077 841 29
36.524 899 29.9833
36.6403 845 29.0689
36.7565 849 29.1376
36.8727 808 28.4253
36.9889 749 27.3679
37.1049 692 26.3059
37.221 0 1
37.3369 0 1
37.4529 0 1
37.5687 0 1
37.6845 0 1
37.8003 0 1
37.916 0 1
38.0316 0 1
38.1472 0 1
40.5851 0 1
40.7008 0 1
40.8164 0 1
40.9322 0 1
41.048 0 1
41.1639 0 1
41.2798 0 1
41.3958 0 1
41.5118 0 1
41.6279 0 1
41.744 583 24.1454
41.8602 646 25.4165
41.9765 751 27.4044
42.0928 751 27.4044
42.2091 822 28.6705
42.3255 872 29.5296
42.4419 830 28.8097
42.5584 849 29.1376
42.675 786 28.0357
42.7915 760 27.5681
42.9081 764 27.6405
43.0248 865 29.4109
43.1415 886 29.7658
43.2582 922 30.3645
43.375 874 29.5635
43.4918 974 31.209
43.6087 928 30.4631
43.7256 982 31.3369
43.8425 993 31.5119
43.9595 911 30.1828
44.0765 914 30.2324
44.1935 975 31.225
44.3106 893 29.8831
44.4277 866 29.4279
44.5448 850 29.1548
44.6619 834 28.8791
44.7791 763 27.6225
44.8963 791 28.1247
45.0136 841 29
45.1308 899 29.9833
45.2481 943 30.7083
45.3654 906 30.0998
45.4827 968 31.1127
45.6001 985 31.3847
45.7174 984 31.3688
45.8348 975 31.225
45.9522 935 30.5778
46.0697 912 30.1993
46.1871 906 30.0998
46.3046 845 29.0689
46.422 813 28.5132
46.5395 803 28.3373
46.657 893 29.8831
46.7745 924 30.3974
46.892 937 30.6105
47.0096 961 31
47.1271 967 31.0966
47.2446 994 31.5278
47.3622 1010 31.7805
47.4797 1071 32.7261
47.5973 956 30.9192
47.7149 897 29.95
47.8324 902 30.0333
47.95 969 31.1288
48.0675 823 28.688
48.1851 799 28.2666
48.3027 794 28.178
48.4202 747 27.3313
48.5378 810 28.4605
48.6554 838 28.9482
48.7729 888 29.7993
48.8904 947 30.7734
49.008 929 30.4795
49.1255 948 30.7896
49.243 964 31.0483
49.3605 930 30.4959
49.478 946 30.7571
49.5955 920 30.3315
49.713 837 28.931
49.8304 792 28.1425
49.9479 778 27.8927
50.0653 812 28.4956
50.1827 876 29.5973
50.3001 934 30.5614
50.4175 928 30.4631
50.5348 905 30.0832
50.6521 972 31.1769
50.7694 926 30.4302
50.8867 1005 31.7017
51.004 992 31.496
51.1212 970 31.1448
51.2384 966 31.0805
51.3556 919 30.315
51.4727 914 30.2324
51.5899 819 28.6182
51.707 806 28.3901
51.824 821 28.6531
51.9411 811 28.4781
52.0581 822 28.6705
52.175 851 29.1719
52.2919 872 29.5296
52.4088 921 30.348
52.5257 936 30.5941
52.6425 932 30.5287
52.7593 947 30.7734
52.876 948 30.7896
52.9927 950 30.8221
53.1094 893 29.8831
53.226 789 28.0891
53.3426 749 27.3679
53.4591 780 27.9285
53.5756 675 25.9808
53.692 677 26.0192
53.8084 653 25.5539
53.9248 652 25.5343
54.0411 614 24.779
54.1573 546 23.3666
54.2735 0 1
54.3896 0 1
54.5057 0 1
54.6217 0 1
54.7377 0 1
54.8537 0 1
54.9695 0 1
55.0853 0 1
55.2011 0 1
55.3168 0 1
55.4324 0 1
57.824 0 1
57.9396 0 1
58.0553 0 1
58.1711 0 1
58.2869 0 1
58.4028 0 1
58.5187 0 1
58.6347 0 1
58.7508 0 1
58.8669 0 1
58.983 674 25.9615
59.0992 740 27.2029
59.2155 841 29
59.3318 918 30.2985
59.4482 966 31.0805
59.5646 1007 31.7333
59.681 1036 32.187
59.7975 1093 33.0606
59.9141 1044 32.311
60.0306 1096 33.1059
60.1473 1026 32.0312
60.2639 975 31.225
60.3807 957 30.9354
60.4974 920 30.3315
60.6142 936 30.5941
60.731 985 31.3847
60.8479 993 31.5119
60.9648 1054 32.4654
61.0818 1087 32.9697
61.1987 1118 33.4365
61.3158 1112 33.3467
61.4328 1111 33.3317
61.5499 1074 32.7719
61.667 1099 33.1512
61.7841 1111 33.3317
61.9013 1073 32.7567
62.0185 935 30.5778
62.1357 913 30.2159
62.253 987 31.4166
62.3702 1034 32.1559
62.4875 1095 33.0908
62.6049 1111 33.3317
62.7222 1159 34.0441
62.8396 1167 34.1614
62.9569 1159 34.0441
63.0743 1190 34.4964
63.1918 1154 33.9706
63.3092 1039 32.2335
63.4267 1181 34.3657
63.5441 1068 32.6803
63.6616 987 31.4166
63.7791 926 30.4302
63.8966 937 30.6105
64.0142 901 30.0167
64.1317 877 29.6142
64.2492 954 30.8869
64.3668 1003 31.6702
64.4843 1054 32.4654
64.6019 1077 32.8177
64.7195 1092 33.0454
64.837 1145 33.8378
64.9546 1138 33.7343
65.0722 1127 33.5708
65.1898 1088 32.9848
65.3074 1047 32.3574
65.4249 1040 32.249
65.5425 962 31.0161
65.6601 937 30.6105
65.7777 861 29.3428
65.8952 951 30.8383
66.0128 993 31.5119
66.1304 1032 32.1248
66.2479 1088 32.9848
66.3655 1078 32.8329
66.483 1173 34.2491
66.6005 1158 34.0294
66.718 1167 34.1614
66.8355 1151 33.9264
66.953 1176 34.2929
67.0705 1101 33.1813
67.1879 992 31.496
67.3054 977 31.257
67.4228 889 29.8161
67.5402 927 30.4467
67.6576 805 28.3725
67.7749 860 29.3258
67.8923 848 29.1204
68.0096 957 30.9354
68.1269 1052 32.4345
68.2442 1032 32.1248
68.3614 1116 33.4066
68.4787 1114 33.3766
68.5958 1071 32.7261
68.713 1078 32.8329
68.8302 1086 32.9545
68.9473 985 31.3847
69.0643 950 30.8221
69.1814 905 30.0832
69.2984 835 28.8964
69.4154 880 29.6648
69.5323 871 29.5127
69.6492 934 30.5614
69.7661 979 31.289
69.8829 1026 32.0312
69.9997 976 31.241
70.1165 980 31.305
70.2332 910 30.1662
70.3499 909 30.1496
70.4665 850 29.1548
70.5831 856 29.2575
70.6996 765 27.6586
70.8161 672 25.923
70.9326 659 25.671
71.049 551 23.4734
71.1653 519 22.7816
71.2817 431 20.7605
71.3979 371 19.2614
71.5141 333 18.2483
71.6303 326 18.0555
71.7464 334 18.2757
71.8624 0 1
71.9784 0 1
72.0944 0 1
72.2102 0 1
72.3261 0 1
72.4418 0 1
72.5575 0 1
72.6732 0 1
75.1054 0 1
75.2209 0 1
75.3365 0 1
75.4521 0 1
75.5678 0 1
75.6835 0 1
75.7993 0 1
75.9151 0 1
76.031 0 1
76.147 731 27.037
76.263 734 27.0924
76.3791 800 28.2843
76.4952 798 28.2489
76.6113 785 28.0179
76.7276 744 27.2764
76.8438 823 28.688
76.9601 782 27.9643
77.0765 894 29.8998
77.1929 949 30.8058
77.3093 1021 31.9531
77.4258 1080 32.8634
77.5423 977 31.257
77.6589 1021 31.9531
77.7755 968 31.1127
77.8921 999 31.607
78.0088 929 30.4795
78.1256 873 29.5466
78.2423 785 28.0179
78.3591 837 28.931
78.4759 814 28.5307
78.5928 852 29.189
78.7097 917 30.282
78.8266 964 31.0483
78.9436 1040 32.249
79.0606 1026 32.0312
79.1776 1107 33.2716
79.2946 1043 32.2955
79.4117 1119 33.4515
79.5288 1035 32.1714
79.6459 1038 32.218
79.7631 1001 31.6386
79.8802 1002 31.6544
79.9974 957 30.9354
80.1147 890 29.8329
80.2319 810 28.4605
80.3491 813 28.5132
80.4664 839 28.9655
80.5837 937 30.6105
80.701 889 29.8161
80.8183 1034 32.1559
80.9357 1069 32.6956
81.053 1042 32.28
81.1704 1079 32.8481
81.2877 1067 32.665
81.4051 1059 32.5423
81.5225 1048 32.3728
81.6399 1009 31.7648
81.7573 955 30.9031
81.8747 914 30.2324
81.9922 836 28.9137
82.1096 849 29.1376
82.227 927 30.4467
82.3444 950 30.8221
82.4619 1072 32.7414
82.5793 1098 33.1361
82.6967 1069 32.6956
82.8142 1084 32.9242
82.9316 1146 33.8526
83.049 1098 33.1361
83.1664 1086 32.9545
83.2838 1070 32.7109
83.4012 1038 32.218
83.5186 983 31.3528
83.636 958 30.9516
83.7534 905 30.0832
83.8708 886 29.7658
83.9881 818 28.6007
84.1055 844 29.0517
84.2228 926 30.4302
84.3401 973 31.1929
84.4575 1039 32.2335
84.5747 1105 33.2415
84.692 1107 33.2716
84.8093 1152 33.9411
84.9265 1131 33.6303
85.0437 1134 33.6749
85.1609 1022 31.9687
85.2781 1046 32.3419
85.3952 917 30.282
85.5123 902 30.0333
85.6294 835 28.8964
85.7465 864 29.3939
85.8636 957 30.9354
85.9806 1050 32.4037
86.0976 1026 32.0312
86.2145 1101 33.1813
86.3315 1107 33.2716
86.4484 1157 34.0147
86.5652 1124 33.5261
86.682 1110 33.3167
86.7988 1146 33.8526
86.9156 1061 32.573
87.0323 1038 32.218
87.149 1045 32.3265
87.2657 863 29.3769
87.3823 807 28.4077
87.4988 723 26.8887
87.6154 709 26.6271
87.7318 663 25.7488
87.8483 750 27.3861
87.9647 791 28.1247
88.081 801 28.3019
88.1973 807 28.4077
88.3136 752 27.4226
88.4298 689 26.2488
88.546 600 24.4949
88.6621 516 22.7156
88.7781 466 21.587
88.8942 0 1
89.0101 0 1
89.126 0 1
89.2419 0 1
89.3577 0 1
89.4734 0 1
89.5891 0 1
89.7047 0 1
89.8203 0 1
89.9358 0 1
92.3269 0 1
92.4424 0 1
92.558 0 1
92.6736 0 1
92.7893 0 1
92.905 0 1
93.0208 0 1
93.1366 0 1
93.2525 0 1
93.3685 0 1
93.4845 0 1
93.6005 1016 31.8748
93.7167 1068 32.6803
93.8328 1139 33.7491
93.949 1110 33.3167
94.0653 1117 33.4215
94.1816 999 31.607
94.2979 988 31.4325
94.4143 987 31.4166
94.5307 937 30.6105
94.6472 1072 32.7414
94.7637 1145 33.8378
94.8803 1142 33.7935
94.9969 1184 34.4093
95.1135 1211 34.7994
95.2302 1245 35.2846
95.3469 1247 35.3129
95.4637 1216 34.8712
95.5805 1285 35.8469
95.6973 1175 34.2783
95.8142 1195 34.5688
95.9311 1086 32.9545
96.048 1071 32.7261
96.1649 955 30.9031
96.2819 954 30.8869
96.3989 1011 31.7962
96.516 1028 32.0624
96.633 1116 33.4066
96.7501 1190 34.4964
96.8673 1208 34.7563
96.9844 1166 34.1467
97.1016 1144 33.8231
97.2188 1099 33.1512
97.336 1131 33.6303
97.4532 1072 32.7414
97.5704 945 30.7409
97.6877 997 31.5753
97.805 906 30.0998
97.9223 975 31.225
98.0396 1026 32.0312
98.1569 1113 33.3617
98.2743 1130 33.6155
98.3916 1194 34.5543
98.509 1175 34.2783
98.6264 1232 35.0999
98.7438 1250 35.3553
98.8612 1242 35.242
98.9786 1175 34.2783
99.096 1094 33.0757
99.2134 1132 33.6452
99.3308 1103 33.2114
99.4482 1041 32.2645
99.5656 966 31.0805
99.6831 912 30.1993
99.8005 955 30.9031
99.9179 920 30.3315
100.035 1042 32.28
100.153 1112 33.3467
100.27 1134 33.6749
100.388 1134 33.6749
100.505 1114 33.3766
100.622 1214 34.8425
100.74 1132 33.6452
100.857 1088 32.9848
100.975 1051 32.4191
101.092 971 31.1609
101.209 937 30.6105
101.327 853 29.2062
101.444 880 29.6648
101.561 975 31.225
101.679 1036 32.187
101.796 1042 32.28
101.913 1120 33.4664
102.03 1204 34.6987
102.148 1197 34.5977
102.265 1127 33.5708
102.382 1244 35.2704
102.499 1184 34.4093
102.616 1227 35.0286
102.733 1199 34.6266
102.851 1171 34.2199
102.968 1178 34.322
103.085 1089 33
103.202 1043 32.2955
103.319 972 31.1769
103.436 992 31.496
103.552 1076 32.8024
103.669 1107 33.2716
103.786 1212 34.8138
103.903 1288 35.8887
104.02 1317 36.2905
104.137 1412 37.5766
104.253 1445 38.0132
104.37 1318 36.3043
104.487 1270 35.6371
104.603 1286 35.8608
104.72 1226 35.0143
104.836 1230 35.0714
104.953 1158 34.0294
105.069 1153 33.9559
105.186 1102 33.1964
105.302 1136 33.7046
105.418 1178 34.322
105.535 1141 33.7787
105.651 1112 33.3467
105.767 965 31.0644
105.883 885 29.7489
105.999 809 28.4429
106.115 0 1
106.231 0 1
106.347 0 1
106.463 0 1
106.579 0 1
106.694 0 1
106.81 0 1
106.926 0 1
107.041 0 1
107.157 0 1
109.576 0 1
109.692 0 1
109.807 0 1
109.923 0 1
110.039 0 1
110.155 0 1
110.27 0 1
110.386 0 1
110.502 0 1
110.618 1406 37.4967
110.735 1737 41.6773
110.851 1983 44.5309
110.967 2231 47.2335
111.083 2349 48.4665
111.199 2456 49.558
111.316 2708 52.0384
111.432 2713 52.0865
111.549 2783 52.7541
111.665 2777 52.6972
111.782 2767 52.6023
111.898 2754 52.4786
112.015 2536 50.3587
112.132 2433 49.3254
112.248 2224 47.1593
112.365 2227 47.1911
112.482 2263 47.571
112.599 2532 50.319
112.716 2589 50.8822
112.832 2791 52.8299
112.949 2737 52.3163
113.066 2634 51.3225
113.183 2808 52.9906
113.3 2655 51.5267
113.417 2596 50.951
113.534 2503 50.03
113.652 2466 49.6588
113.769 2306 48.0208
113.886 2194 46.8402
114.003 2133 46.1844
114.12 2179 46.6798
114.238 2396 48.949
114.355 2355 48.5283
114.472 2509 50.0899
114.589 2573 50.7247
114.707 2522 50.2195
114.824 2620 51.1859
114.942 2565 50.6458
115.059 2652 51.4976
115.176 2496 49.96
115.294 2630 51.2835
115.411 2433 49.3254
115.529 2398 48.9694
115.646 2302 47.9792
115.764 2106 45.8912
115.881 1991 44.6206
115.999 2062 45.4093
116.116 2153 46.4004
116.234 2244 47.3709
116.351 2389 48.8774
116.469 2358 48.5592
116.586 2291 47.8644
116.704 2368 48.6621
116.821 2294 47.8957
116.939 2275 47.697
117.056 2033 45.0888
117.174 1935 43.9886
117.291 1770 42.0714
117.409 1736 41.6653
117.526 1596 39.95
117.644 1548 39.3446
117.761 1593 39.9124
117.879 1685 41.0488
117.996 1732 41.6173
118.114 1716 41.4246
118.231 1723 41.509
118.349 1740 41.7133
118.466 1719 41.4608
118.584 1622 40.2741
118.701 1588 39.8497
118.819 1591 39.8873
118.936 1492 38.6264
119.053 1443 37.9868
119.171 1389 37.2693
119.288 1321 36.3456
119.405 1208 34.7563
119.523 1105 33.2415
119.64 1108 33.2866
119.757 1159 34.0441
119.875 1135 33.6898
119.992 1122 33.4963
120.109 1286 35.8608
120.226 1243 35.2562
120.343 1200 34.641
120.46 1185 34.4238
120.578 1121 33.4813
120.695 1060 32.5576
120.812 1059 32.5423
120.929 1005 31.7017
121.046 933 30.545
121.163 921 30.348
121.279 898 29.9666
121.396 882 29.6985
121.513 890 29.8329
121.63 897 29.95
121.747 935 30.5778
121.863 883 29.7153
121.98 963 31.0322
122.097 910 30.1662
122.213 853 29.2062
122.33 883 29.7153
122.446 852 29.189
122.563 759 27.55
122.679 704 26.533
122.795 654 25.5734
122.912 550 23.4521
123.028 540 23.2379
123.144 439 20.9523
123.26 407 20.1742
123.377 0 1
123.493 0 1
123.609 0 1
123.725 0 1
123.84 0 1
123.956 0 1
124.072 0 1
124.188 0 1
124.303 0 1
124.419 0 1
126.852 0 1
126.968 0 1
127.083 0 1
127.199 0 1
127.315 0 1
127.431 0 1
127.547 0 1
127.663 0 1
127.779 0 1
127.895 0 1
128.011 0 1
128.127 0 1
128.243 0 1
128.359 878 29.6311
128.476 895 29.9166
128.592 898 29.9666
128.708 959 30.9677
128.825 977 31.257
128.941 1117 33.4215
129.058 1078 32.8329
129.174 1127 33.5708
129.291 1146 33.8526
129.408 1061 32.573
129.524 1107 33.2716
129.641 1027 32.0468
129.758 1045 32.3265
129.875 951 30.8383
129.992 961 31
130.108 900 30
130.225 878 29.6311
130.342 981 31.3209
130.459 927 30.4467
130.576 1075 32.7872
130.693 1071 32.7261
130.81 1066 32.6497
130.928 1083 32.909
131.045 1042 32.28
131.162 1055 32.4808
131.279 1095 33.0908
131.396 1121 33.4813
131.513 1155 33.9853
131.631 1075 32.7872
131.748 1038 32.218
131.865 970 31.1448
131.983 913 30.2159
132.1 898 29.9666
132.217 942 30.692
132.335 1011 31.7962
132.452 1064 32.619
132.57 1013 31.8277
132.687 1006 31.7175
132.804 1152 33.9411
132.922 1076 32.8024
133.039 1071 32.7261
133.157 1068 32.6803
133.274 979 31.289
133.392 962 31.0161
133.509 943 30.7083
133.627 960 30.9839
133.744 926 30.4302
133.862 907 30.1164
133.979 986 31.4006
134.097 999 31.607
134.214 1080 32.8634
134.332 1029 32.078
134.449 972 31.1769
134.567 1042 32.28
134.684 1120 33.4664
134.802 1103 33.2114
134.919 1118 33.4365
135.037 1104 33.2265
135.154 1057 32.5115
135.272 1016 31.8748
135.389 1030 32.0936
135.507 980 31.305
135.624 967 31.0966
135.742 945 30.7409
135.859 969 31.1288
135.977 967 31.0966
136.094 1071 32.7261
136.211 1066 32.6497
136.329 1044 32.311
136.446 998 31.5911
136.564 1069 32.6956
136.681 1008 31.749
136.798 1029 32.078
136.915 950 30.8221
137.033 951 30.8383
137.15 839 28.9655
137.267 856 29.2575
137.384 873 29.5466
137.502 906 30.0998
137.619 957 30.9354
137.736 1024 32
137.853 982 31.3369
137.97 1075 32.7872
138.087 973 31.1929
138.204 1058 32.5269
138.321 1049 32.3883
138.438 1081 32.8786
138.555 1016 31.8748
138.672 1052 32.4345
138.788 1010 31.7805
138.905 909 30.1496
139.022 879 29.6479
139.139 808 28.4253
139.255 707 26.5895
139.372 757 27.5136
139.488 738 27.1662
139.605 783 27.9821
139.721 739 27.1846
139.838 739 27.1846
139.954 695 26.3629
140.071 582 24.1247
140.187 511 22.6053
140.303 508 22.5389
140.419 499 22.3383
140.535 494 22.2261
140.652 397 19.9249
140.768 0 1
140.884 0 1
141 0 1
141.115 0 1
141.231 0 1
141.347 0 1
141.463 0 1
141.578 0 1
141.694 0 1
144.104 0 1
144.219 0 1
144.335 0 1
144.45 0 1
144.566 0 1
144.682 0 1
144.798 0 1
144.914 0 1
145.03 0 1
145.146 776 27.8568
145.262 846 29.0861
145.378 895 29.9166
145.494 836 28.9137
145.61 788 28.0713
145.726 770 27.7489
145.842 755 27.4773
145.959 733 27.074
146.075 759 27.55
146.192 795 28.1957
146.308 794 28.178
146.425 794 28.178
146.541 798 28.2489
146.658 870 29.4958
146.774 837 28.931
146.891 938 30.6268
147.008 890 29.8329
147.125 870 29.4958
147.241 924 30.3974
147.358 941 30.6757
147.475 863 29.3769
147.592 886 29.7658
147.709 894 29.8998
147.826 785 28.0179
147.943 792 28.1425
148.06 791 28.1247
148.177 842 29.0172
148.294 864 29.3939
148.411 873 29.5466
148.528 856 29.2575
148.645 890 29.8329
148.762 934 30.5614
148.88 911 30.1828
148.997 850 29.1548
149.114 891 29.8496
149.231 871 29.5127
149.349 892 29.8664
149.466 814 28.5307
149.583 813 28.5132
149.701 753 27.4408
149.818 724 26.9072
149.935 800 28.2843
150.053 799 28.2666
150.17 811 28.4781
150.287 841 29
150.405 837 28.931
150.522 902 30.0333
150.64 820 28.6356
150.757 929 30.4795
150.875 836 28.9137
150.992 878 29.6311
151.11 878 29.6311
151.227 876 29.5973
151.344 841 29
151.462 783 27.9821
151.579 820 28.6356
151.697 743 27.258
151.814 739 27.1846
151.932 743 27.258
152.049 867 29.4449
152.167 871 29.5127
152.284 893 29.8831
152.402 894 29.8998
152.519 865 29.4109
152.636 916 30.2655
152.754 842 29.0172
152.871 830 28.8097
152.989 786 28.0357
153.106 808 28.4253
153.223 756 27.4955
153.341 726 26.9444
153.458 779 27.9106
153.575 825 28.7228
153.693 759 27.55
153.81 816 28.5657
153.927 785 28.0179
154.044 842 29.0172
154.162 843 29.0345
154.279 786 28.0357
154.396 844 29.0517
154.513 914 30.2324
154.63 916 30.2655
154.747 888 29.7993
154.864 867 29.4449
154.981 822 28.6705
155.098 814 28.5307
155.215 735 27.1109
155.332 777 27.8747
155.449 754 27.4591
155.566 843 29.0345
155.683 840 28.9828
155.8 821 28.6531
155.917 854 29.2233
156.033 761 27.5862
156.15 0 1
156.267 0 1
156.383 0 1
156.5 0 1
156.617 0 1
156.733 0 1
156.85 0 1
156.966 0 1
157.082 0 1
157.199 0 1
157.315 0 1
157.431 0 1
157.547 0 1
157.664 0 1
157.78 0 1
157.896 0 1
158.012 0 1
158.128 0 1
158.244 0 1
158.359 0 1
158.475 0 1
158.591 0 1
158.706 0 1
