
6.15755 0 1
6.2731 0 1
6.3887 0 1
6.50437 0 1
6.62009 0 1
6.73587 0 1
6.8517 0 1
6.96759 0 1
7.08353 0 1
7.19952 0 1
7.31557 0 1
7.43166 0 1
7.54781 0 1
7.664 0 1
7.78024 0 1
7.89653 0 1
8.01286 0 1
8.12924 0 1
8.24567 0 1
8.36213 0 1
8.47864 0 1
8.59519 0 1
8.71178 0 1
8.82841 0 1
8.94508 0 1
9.06179 0 1
9.17853 0 1
9.29531 0 1
9.41212 0 1
9.52897 0 1
9.64584 0 1
9.76276 0 1
9.8797 0 1
9.99667 0 1
10.1137 0 1
10.2307 0 1
10.3478 0 1
10.4648 0 1
10.5819 0 1
10.6991 0 1
10.8162 0 1
10.9334 0 1
11.0506 0 1
11.1678 0 1
11.285 0 1
11.4023 0 1
11.5196 0 1
11.6369 0 1
11.7542 0 1
11.8715 0 1
11.9888 0 1
12.1062 0 1
12.2235 0 1
12.3409 0 1
12.4582 0 1
12.5756 0 1
12.693 0 1
12.8104 0 1
12.9278 0 1
13.0452 0 1
13.1626 0 1
13.28 0 1
13.3974 0 1
13.5149 0 1
13.6323 0 1
13.7497 0 1
13.8671 0 1
13.9845 0 1
14.1019 0 1
14.2193 0 1
14.3367 0 1
14.4541 0 1
14.5714 0 1
14.6888 0 1
14.8062 0 1
14.9235 0 1
15.0408 1773 42.107
15.1581 1721 41.4849
15.2755 1855 43.0697
15.3927 1808 42.5206
15.51 1832 42.8019
15.6273 1815 42.6028
15.7445 1787 42.2729
15.8617 1689 41.0974
15.9789 1732 41.6173
16.0961 1673 40.9023
16.2132 1736 41.6653
16.3304 1808 42.5206
16.4475 1878 43.3359
16.5646 1924 43.8634
16.6816 1971 44.3959
16.7986 2206 46.9681
16.9156 2237 47.2969
17.0326 2468 49.679
17.1496 2397 48.9592
17.2665 2488 49.8799
17.3833 2465 49.6488
17.5002 2414 49.1325
17.617 2515 50.1498
17.7338 2475 49.7494
17.8505 2499 49.99
17.9672 2626 51.2445
18.0839 2612 51.1077
18.2005 2554 50.5371
18.3171 2572 50.7149
18.4337 2644 51.4198
18.5502 2650 51.4782
18.6666 2658 51.5558
18.7831 2668 51.6527
18.8994 2644 51.4198
19.0158 2519 50.1896
19.1321 2535 50.3488
19.2483 2420 49.1935
19.3645 2343 48.4045
19.4806 2319 48.156
19.5967 2343 48.4045
19.7128 2104 45.8694
19.8288 1920 43.8178
19.9447 1652 40.6448
20.0606 0 1
20.1764 0 1
20.2922 0 1
20.4079 0 1
20.5236 0 1
20.6392 0 1
20.7548 0 1
20.8702 0 1
23.3078 0 1
23.4233 0 1
23.539 0 1
23.6547 0 1
23.7704 0 1
23.8862 0 1
24.0021 0 1
24.118 0 1
24.234 0 1
24.35 0 1
24.4661 2285 47.8017
24.5822 2288 47.833
24.6984 2352 48.4974
24.8146 2359 48.5695
24.9309 2282 47.7703
25.0472 2107 45.9021
25.1636 1979 44.486
25.28 1990 44.6094
25.3965 2019 44.9333
25.513 2128 46.1303
25.6296 2325 48.2183
25.7462 2499 49.99
25.8628 2671 51.6817
25.9795 2797 52.8867
26.0962 2735 52.2972
26.213 2761 52.5452
26.3298 2841 53.301
26.4466 2819 53.0943
26.5635 2834 53.2353
26.6804 2839 53.2823
26.7973 2773 52.6593
26.9143 2838 53.2729
27.0313 2731 52.259
27.1483 2774 52.6688
27.2653 2741 52.3546
27.3824 2757 52.5071
27.4996 2689 51.8556
27.6167 2767 52.6023
27.7339 2686 51.8266
27.8511 2587 50.8626
27.9683 2545 50.448
28.0855 2503 50.03
28.2028 2678 51.7494
28.3201 2428 49.2747
28.4374 2431 49.3052
28.5547 2117 46.0109
28.6721 1995 44.6654
28.7894 1890 43.4741
28.9068 1859 43.1161
29.0242 2031 45.0666
29.1416 2058 45.3652
29.259 2259 47.5289
29.3764 2429 49.2849
29.4939 2673 51.7011
29.6113 2583 50.8232
29.7288 2727 52.2207
29.8463 2717 52.1249
29.9638 2587 50.8626
30.0812 2664 51.614
30.1987 2680 51.7687
30.3162 2749 52.4309
30.4337 2671 51.6817
30.5512 2603 51.0196
30.6687 2607 51.0588
30.7862 2628 51.264
30.9037 2637 51.3517
31.0212 2665 51.6236
31.1387 2654 51.517
31.2562 2654 51.517
31.3737 2517 50.1697
31.4912 2583 50.8232
31.6087 2466 49.6588
31.7262 2545 50.448
31.8436 2373 48.7134
31.9611 2475 49.7494
32.0785 2250 47.4342
32.1959 1921 43.8292
32.3134 1843 42.9302
32.4308 1850 43.0116
32.5482 1936 44
32.6655 2086 45.6727
32.7829 2218 47.0956
32.9002 2414 49.1325
33.0176 2531 50.309
33.1349 2523 50.2295
33.2522 2760 52.5357
33.3694 2546 50.4579
33.4867 2662 51.5946
33.6039 2608 51.0686
33.7211 2710 52.0577
33.8383 2665 51.6236
33.9554 2604 51.0294
34.0725 2651 51.4879
34.1896 2598 50.9706
34.3067 2553 50.5272
34.4237 2558 50.5767
34.5407 2597 50.9608
34.6577 2556 50.5569
34.7746 2607 51.0588
34.8915 2581 50.8035
35.0084 2493 49.93
35.1252 2465 49.6488
35.242 2434 49.3356
35.3587 2502 50.02
35.4755 2565 50.6458
35.5921 2473 49.7293
35.7088 2415 49.1426
35.8254 2098 45.8039
35.9419 1906 43.6578
36.0584 1764 42
36.1749 1823 42.6966
36.2913 1874 43.2897
36.4077 1976 44.4522
36.524 2005 44.7772
36.6403 2324 48.2079
36.7565 2453 49.5278
36.8727 2549 50.4876
36.9889 2405 49.0408
37.1049 2520 50.1996
37.221 0 1
37.3369 0 1
37.4529 0 1
37.5687 0 1
37.6845 0 1
37.8003 0 1
37.916 0 1
38.0316 0 1
38.1472 0 1
40.5851 0 1
40.7008 0 1
40.8164 0 1
40.9322 0 1
41.048 0 1
41.1639 0 1
41.2798 0 1
41.3958 0 1
41.5118 0 1
41.6279 0 1
41.744 1737 41.6773
41.8602 1933 43.9659
41.9765 2079 45.5961
42.0928 2015 44.8888
42.2091 2145 46.3141
42.3255 2129 46.1411
42.4419 2232 47.244
42.5584 2195 46.8508
42.675 2094 45.7602
42.7915 2171 46.594
42.9081 2076 45.5631
43.0248 1961 44.2832
43.1415 1983 44.5309
43.2582 1965 44.3283
43.375 1964 44.317
43.4918 1985 44.5533
43.6087 1980 44.4972
43.7256 2029 45.0444
43.8425 1986 44.5646
43.9595 2034 45.0999
44.0765 1973 44.4185
44.1935 1871 43.2551
44.3106 1844 42.9418
44.4277 1769 42.0595
44.5448 1707 41.3159
44.6619 1472 38.3667
44.7791 1354 36.7967
44.8963 1249 35.3412
45.0136 1310 36.1939
45.1308 1230 35.0714
45.2481 1307 36.1525
45.3654 1460 38.2099
45.4827 1556 39.4462
45.6001 1600 40
45.7174 1651 40.6325
45.8348 1563 39.5348
45.9522 1613 40.1622
46.0697 1598 39.975
46.1871 1532 39.1408
46.3046 1554 39.4208
46.422 1482 38.4968
46.5395 1494 38.6523
46.657 1448 38.0526
46.7745 1430 37.8153
46.892 1478 38.4448
47.0096 1496 38.6782
47.1271 1543 39.281
47.2446 1559 39.4842
47.3622 1504 38.7814
47.4797 1468 38.3145
47.5973 1433 37.855
47.7149 1360 36.8782
47.8324 1300 36.0555
47.95 1346 36.6879
48.0675 1225 35
48.1851 1200 34.641
48.3027 996 31.5595
48.4202 913 30.2159
48.5378 986 31.4006
48.6554 892 29.8664
48.7729 1031 32.1092
48.8904 1039 32.2335
49.008 1140 33.7639
49.1255 1257 35.4542
49.243 1223 34.9714
49.3605 1295 35.9861
49.478 1233 35.1141
49.5955 1318 36.3043
49.713 1312 36.2215
49.8304 1237 35.171
49.9479 1229 35.0571
50.0653 1280 35.7771
50.1827 1272 35.6651
50.3001 1270 35.6371
50.4175 1316 36.2767
50.5348 1358 36.8511
50.6521 1362 36.9053
50.7694 1496 38.6782
50.8867 1524 39.0384
51.004 1602 40.025
51.1212 1581 39.7618
51.2384 1651 40.6325
51.3556 1547 39.3319
51.4727 1659 40.7308
51.5899 1558 39.4715
51.707 1449 38.0657
51.824 1280 35.7771
51.9411 1328 36.4417
52.0581 1311 36.2077
52.175 1389 37.2693
52.2919 1470 38.3406
52.4088 1710 41.3521
52.5257 1818 42.638
52.6425 1885 43.4166
52.7593 1918 43.795
52.876 1979 44.486
52.9927 2029 45.0444
53.1094 2113 45.9674
53.226 2036 45.1221
53.3426 2025 45
53.4591 1979 44.486
53.5756 2071 45.5082
53.692 1925 43.8748
53.8084 2058 45.3652
53.9248 2087 45.6837
54.0411 2116 46
54.1573 2350 48.4768
54.2735 0 1
54.3896 0 1
54.5057 0 1
54.6217 0 1
54.7377 0 1
54.8537 0 1
54.9695 0 1
55.0853 0 1
55.2011 0 1
55.3168 0 1
55.4324 0 1
57.824 0 1
57.9396 0 1
58.0553 0 1
58.1711 0 1
58.2869 0 1
58.4028 0 1
58.5187 0 1
58.6347 0 1
58.7508 0 1
58.8669 0 1
58.983 2154 46.4112
59.0992 2384 48.8262
59.2155 2439 49.3862
59.3318 2603 51.0196
59.4482 2566 50.6557
59.5646 2774 52.6688
59.681 2725 52.2015
59.7975 2701 51.9711
59.9141 2527 50.2693
60.0306 2450 49.4975
60.1473 2361 48.5901
60.2639 2455 49.548
60.3807 2214 47.0532
60.4974 2117 46.0109
60.6142 1987 44.5758
60.731 2022 44.9667
60.8479 1947 44.1248
60.9648 1987 44.5758
61.0818 2146 46.3249
61.1987 2210 47.0106
61.3158 2223 47.1487
61.4328 2350 48.4768
61.5499 2372 48.7032
61.667 2437 49.366
61.7841 2265 47.592
61.9013 2163 46.5081
62.0185 2129 46.1411
62.1357 2098 45.8039
62.253 2146 46.3249
62.3702 2139 46.2493
62.4875 2202 46.9255
62.6049 2309 48.0521
62.7222 2329 48.2597
62.8396 2418 49.1732
62.9569 2389 48.8774
63.0743 2435 49.3457
63.1918 2456 49.558
63.3092 2390 48.8876
63.4267 2257 47.5079
63.5441 2221 47.1275
63.6616 2137 46.2277
63.7791 2058 45.3652
63.8966 2045 45.2217
64.0142 1845 42.9535
64.1317 1818 42.638
64.2492 1740 41.7133
64.3668 1746 41.7852
64.4843 1813 42.5793
64.6019 1932 43.9545
64.7195 1956 44.2267
64.837 2006 44.7884
64.9546 2071 45.5082
65.0722 2123 46.076
65.1898 2098 45.8039
65.3074 2244 47.3709
65.4249 2063 45.4203
65.5425 1955 44.2154
65.6601 1899 43.5775
65.7777 1883 43.3935
65.8952 1894 43.5201
66.0128 1875 43.3013
66.1304 2098 45.8039
66.2479 2149 46.3573
66.3655 2167 46.551
66.483 2228 47.2017
66.6005 2268 47.6235
66.718 2338 48.3529
66.8355 2247 47.4025
66.953 2224 47.1593
67.0705 2219 47.1063
67.1879 2154 46.4112
67.3054 2079 45.5961
67.4228 1952 44.1814
67.5402 1981 44.5084
67.6576 1743 41.7493
67.7749 1684 41.0366
67.8923 1661 40.7554
68.0096 1704 41.2795
68.1269 1843 42.9302
68.2442 1875 43.3013
68.3614 2000 44.7214
68.4787 2162 46.4973
68.5958 2119 46.0326
68.713 2153 46.4004
68.8302 2183 46.7226
68.9473 2082 45.6289
69.0643 2099 45.8148
69.1814 2075 45.5522
69.2984 1909 43.6921
69.4154 1988 44.587
69.5323 1979 44.486
69.6492 2030 45.0555
69.7661 2225 47.1699
69.8829 2325 48.2183
69.9997 2501 50.01
70.1165 2500 50
70.2332 2513 50.1298
70.3499 2549 50.4876
70.4665 2546 50.4579
70.5831 2580 50.7937
70.6996 2428 49.2747
70.8161 2433 49.3254
70.9326 2341 48.3839
71.049 2235 47.2758
71.1653 2181 46.7012
71.2817 1975 44.441
71.3979 1816 42.6146
71.5141 1806 42.4971
71.6303 1685 41.0488
71.7464 1496 38.6782
71.8624 0 1
71.9784 0 1
72.0944 0 1
72.2102 0 1
72.3261 0 1
72.4418 0 1
72.5575 0 1
72.6732 0 1
75.1054 0 1
75.2209 0 1
75.3365 0 1
75.4521 0 1
75.5678 0 1
75.6835 0 1
75.7993 0 1
75.9151 0 1
76.031 0 1
76.147 2124 46.0869
76.263 2286 47.8121
76.3791 2288 47.833
76.4952 2119 46.0326
76.6113 2110 45.9347
76.7276 1882 43.382
76.8438 1873 43.2782
76.9601 1892 43.4971
77.0765 1958 44.2493
77.1929 2037 45.1331
77.3093 2285 47.8017
77.4258 2423 49.224
77.5423 2275 47.697
77.6589 2256 47.4974
77.7755 2292 47.8748
77.8921 2297 47.927
78.0088 2260 47.5395
78.1256 1993 44.643
78.2423 1997 44.6878
78.3591 1867 43.2088
78.4759 1782 42.2137
78.5928 1856 43.0813
78.7097 2175 46.6369
78.8266 2240 47.3286
78.9436 2500 50
79.0606 2535 50.3488
79.1776 2452 49.5177
79.2946 2446 49.4571
79.4117 2496 49.96
79.5288 2401 49
79.6459 2422 49.2138
79.7631 2351 48.4871
79.8802 2211 47.0213
79.9974 2207 46.9787
80.1147 2068 45.4753
80.2319 1891 43.4856
80.3491 1801 42.4382
80.4664 1777 42.1545
80.5837 1773 42.107
80.701 1826 42.7317
80.8183 1886 43.4281
80.9357 2071 45.5082
81.053 2163 46.5081
81.1704 2091 45.7275
81.2877 2070 45.4973
81.4051 2072 45.5192
81.5225 2094 45.7602
81.6399 2022 44.9667
81.7573 1923 43.852
81.8747 1698 41.2068
81.9922 1641 40.5093
82.1096 1542 39.2683
82.227 1660 40.7431
82.3444 1792 42.332
82.4619 2107 45.9021
82.5793 2135 46.2061
82.6967 2179 46.6798
82.8142 2268 47.6235
82.9316 2192 46.8188
83.049 2169 46.5725
83.1664 2139 46.2493
83.2838 2136 46.2169
83.4012 2003 44.7549
83.5186 1951 44.1701
83.636 1873 43.2782
83.7534 1829 42.7668
83.8708 1659 40.7308
83.9881 1581 39.7618
84.1055 1541 39.2556
84.2228 1574 39.6737
84.3401 1655 40.6817
84.4575 1774 42.1189
84.5747 1831 42.7902
84.692 1913 43.7379
84.8093 1966 44.3396
84.9265 1954 44.2041
85.0437 1985 44.5533
85.1609 1832 42.8019
85.2781 1842 42.9185
85.3952 1684 41.0366
85.5123 1548 39.3446
85.6294 1523 39.0256
85.7465 1623 40.2865
85.8636 1784 42.2374
85.9806 2057 45.3542
86.0976 2138 46.2385
86.2145 2342 48.3942
86.3315 2342 48.3942
86.4484 2323 48.1975
86.5652 2368 48.6621
86.682 2456 49.558
86.7988 2433 49.3254
86.9156 2380 48.7852
87.0323 2268 47.6235
87.149 2260 47.5395
87.2657 2094 45.7602
87.3823 2034 45.0999
87.4988 1974 44.4297
87.6154 1868 43.2204
87.7318 1825 42.72
87.8483 2047 45.2438
87.9647 2102 45.8476
88.081 2285 47.8017
88.1973 2373 48.7134
88.3136 2426 49.2544
88.4298 2343 48.4045
88.546 2384 48.8262
88.6621 2427 49.2646
88.7781 2254 47.4763
88.8942 0 1
89.0101 0 1
89.126 0 1
89.2419 0 1
89.3577 0 1
89.4734 0 1
89.5891 0 1
89.7047 0 1
89.8203 0 1
89.9358 0 1
92.3269 0 1
92.4424 0 1
92.558 0 1
92.6736 0 1
92.7893 0 1
92.905 0 1
93.0208 0 1
93.1366 0 1
93.2525 0 1
93.3685 0 1
93.4845 0 1
93.6005 2212 47.0319
93.7167 2289 47.8435
93.8328 2328 48.2494
93.949 2375 48.734
94.0653 2318 48.1456
94.1816 2275 47.697
94.2979 2108 45.913
94.4143 1953 44.1928
94.5307 1796 42.3792
94.6472 1714 41.4005
94.7637 1754 41.8808
94.8803 1874 43.2897
94.9969 2155 46.422
95.1135 2418 49.1732
95.2302 2469 49.689
95.3469 2493 49.93
95.4637 2539 50.3885
95.5805 2667 51.643
95.6973 2617 51.1566
95.8142 2651 51.4879
95.9311 2652 51.4976
96.048 2505 50.05
96.1649 2440 49.3964
96.2819 2298 47.9375
96.3989 2342 48.3942
96.516 2210 47.0106
96.633 2081 45.618
96.7501 2090 45.7165
96.8673 2130 46.1519
96.9844 2104 45.8694
97.1016 2181 46.7012
97.2188 2168 46.5618
97.336 2341 48.3839
97.4532 2415 49.1426
97.5704 2366 48.6415
97.6877 2298 47.9375
97.805 2155 46.422
97.9223 2111 45.9456
98.0396 1904 43.6348
98.1569 1824 42.7083
98.2743 1712 41.3763
98.3916 1686 41.0609
98.509 1761 41.9643
98.6264 2068 45.4753
98.7438 2284 47.7912
98.8612 2355 48.5283
98.9786 2537 50.3686
99.096 2468 49.679
99.2134 2551 50.5074
99.3308 2659 51.5655
99.4482 2535 50.3488
99.5656 2479 49.7896
99.6831 2518 50.1797
99.8005 2315 48.1144
99.9179 2339 48.3632
100.035 2221 47.1275
100.153 2117 46.0109
100.27 2073 45.5302
100.388 2044 45.2106
100.505 2086 45.6727
100.622 2116 46
100.74 2206 46.9681
100.857 2354 48.518
100.975 2408 49.0714
101.092 2359 48.5695
101.209 2362 48.6004
101.327 2324 48.2079
101.444 2368 48.6621
101.561 2129 46.1411
101.679 1875 43.3013
101.796 1659 40.7308
101.913 1593 39.9124
102.03 1756 41.9047
102.148 2088 45.6946
102.265 2239 47.3181
102.382 2617 51.1566
102.499 2597 50.9608
102.616 2631 51.2933
102.733 2775 52.6783
102.851 2813 53.0377
102.968 2700 51.9615
103.085 2725 52.2015
103.202 2739 52.3355
103.319 2494 49.94
103.436 2440 49.3964
103.552 2323 48.1975
103.669 2322 48.1871
103.786 2228 47.2017
103.903 2298 47.9375
104.02 2294 47.8957
104.137 2277 47.7179
104.253 2463 49.6286
104.37 2501 50.01
104.487 2599 50.9804
104.603 2615 51.1371
104.72 2530 50.2991
104.836 2642 51.4004
104.953 2436 49.3559
105.069 2227 47.1911
105.186 1958 44.2493
105.302 1866 43.1972
105.418 1826 42.7317
105.535 2022 44.9667
105.651 2501 50.01
105.767 2642 51.4004
105.883 2836 53.2541
105.999 2829 53.1883
106.115 0 1
106.231 0 1
106.347 0 1
106.463 0 1
106.579 0 1
106.694 0 1
106.81 0 1
106.926 0 1
107.041 0 1
107.157 0 1
109.576 0 1
109.692 0 1
109.807 0 1
109.923 0 1
110.039 0 1
110.155 0 1
110.27 0 1
110.386 0 1
110.502 0 1
110.618 1946 44.1135
110.735 2331 48.2804
110.851 2611 51.0979
110.967 2837 53.2635
111.083 2852 53.4041
111.199 2931 54.1387
111.316 2900 53.8516
111.432 2871 53.5817
111.549 2857 53.4509
111.665 2837 53.2635
111.782 2636 51.342
111.898 2693 51.8941
112.015 2503 50.03
112.132 2534 50.3389
112.248 2512 50.1199
112.365 2330 48.2701
112.482 2473 49.7293
112.599 2485 49.8498
112.716 2511 50.1099
112.832 2474 49.7393
112.949 2661 51.5849
113.066 2531 50.309
113.183 2566 50.6557
113.3 2483 49.8297
113.417 2591 50.9019
113.534 2335 48.3218
113.652 2121 46.0543
113.769 1905 43.6463
113.886 1814 42.5911
114.003 1759 41.9404
114.12 1974 44.4297
114.238 2340 48.3735
114.355 2583 50.8232
114.472 2698 51.9423
114.589 2876 53.6284
114.707 2841 53.301
114.824 2987 54.6535
114.942 2982 54.6077
115.059 2899 53.8424
115.176 2913 53.9722
115.294 2752 52.4595
115.411 2748 52.4214
115.529 2667 51.643
115.646 2587 50.8626
115.764 2649 51.4684
115.881 2531 50.309
115.999 2534 50.3389
116.116 2625 51.2348
116.234 2569 50.6853
116.351 2623 51.2152
116.469 2698 51.9423
116.586 2689 51.8556
116.704 2711 52.0673
116.821 2624 51.225
116.939 2508 50.0799
117.056 2669 51.6624
117.174 2310 48.0625
117.291 2011 44.8442
117.409 1902 43.6119
117.526 1745 41.7732
117.644 1922 43.8406
117.761 2281 47.7598
117.879 2510 50.0999
117.996 2796 52.8772
118.114 2906 53.9073
118.231 2856 53.4416
118.349 3010 54.8635
118.466 2965 54.4518
118.584 3052 55.2449
118.701 3038 55.1181
118.819 2910 53.9444
118.936 2896 53.8145
119.053 2846 53.3479
119.171 2649 51.4684
119.288 2727 52.2207
119.405 2611 51.0979
119.523 2633 51.3128
119.64 2573 50.7247
119.757 2560 50.5964
119.875 2614 51.1273
119.992 2571 50.705
120.109 2566 50.6557
120.226 2595 50.9411
120.343 2526 50.2593
120.46 2557 50.5668
120.578 2626 51.2445
120.695 2487 49.8698
120.812 2392 48.9081
120.929 2206 46.9681
121.046 1960 44.2719
121.163 1897 43.5546
121.279 1885 43.4166
121.396 1994 44.6542
121.513 2335 48.3218
121.63 2611 51.0979
121.747 2780 52.7257
121.863 2842 53.3104
121.98 2850 53.3854
122.097 2911 53.9537
122.213 2872 53.591
122.33 2982 54.6077
122.446 2899 53.8424
122.563 2844 53.3292
122.679 2761 52.5452
122.795 2718 52.1344
122.912 2673 51.7011
123.028 2632 51.303
123.144 2593 50.9215
123.26 2475 49.7494
123.377 0 1
123.493 0 1
123.609 0 1
123.725 0 1
123.84 0 1
123.956 0 1
124.072 0 1
124.188 0 1
124.303 0 1
124.419 0 1
126.852 0 1
126.968 0 1
127.083 0 1
127.199 0 1
127.315 0 1
127.431 0 1
127.547 0 1
127.663 0 1
127.779 0 1
127.895 0 1
128.011 0 1
128.127 0 1
128.243 0 1
128.359 2934 54.1664
128.476 2885 53.7122
128.592 2887 53.7308
128.708 2828 53.1789
128.825 2828 53.1789
128.941 2801 52.9245
129.058 2870 53.5724
129.174 2889 53.7494
129.291 2922 54.0555
129.408 2848 53.3667
129.524 2827 53.1695
129.641 2874 53.6097
129.758 2594 50.9313
129.875 2290 47.8539
129.992 2222 47.1381
130.108 2009 44.8219
130.225 1927 43.8976
130.342 2241 47.3392
130.459 2540 50.3984
130.576 2952 54.3323
130.693 3013 54.8908
130.81 3145 56.0803
130.928 3121 55.8659
131.045 3079 55.4887
131.162 3176 56.356
131.279 3188 56.4624
131.396 3226 56.7979
131.513 3205 56.6127
131.631 3088 55.5698
131.748 3095 55.6327
131.865 3031 55.0545
131.983 3145 56.0803
132.1 3058 55.2992
132.217 3115 55.8122
132.335 3016 54.9181
132.452 3026 55.0091
132.57 3058 55.2992
132.687 3006 54.827
132.804 3006 54.827
132.922 3058 55.2992
133.039 2973 54.5252
133.157 2972 54.5161
133.274 2852 53.4041
133.392 2558 50.5767
133.509 2313 48.0937
133.627 2114 45.9783
133.744 2044 45.2106
133.862 2113 45.9674
133.979 2464 49.6387
134.097 2784 52.7636
134.214 3025 55
134.332 3196 56.5332
134.449 3207 56.6304
134.567 3177 56.3649
134.684 3224 56.7803
134.802 3181 56.4004
134.919 3278 57.2538
135.037 3256 57.0614
135.154 3115 55.8122
135.272 3038 55.1181
135.389 3132 55.9643
135.507 3222 56.7627
135.624 3040 55.1362
135.742 3070 55.4076
135.859 3047 55.1996
135.977 3043 55.1634
136.094 3064 55.3534
136.211 3000 54.7723
136.329 3035 55.0908
136.446 3016 54.9181
136.564 3081 55.5068
136.681 3046 55.1906
136.798 3046 55.1906
136.915 2753 52.469
137.033 2375 48.734
137.15 2217 47.085
137.267 2110 45.9347
137.384 1936 44
137.502 2151 46.3789
137.619 2434 49.3356
137.736 2695 51.9134
137.853 2828 53.1789
137.97 3022 54.9727
138.087 2999 54.7631
138.204 3069 55.3986
138.321 3174 56.3383
138.438 3284 57.3062
138.555 3202 56.5862
138.672 3166 56.2672
138.788 3202 56.5862
138.905 3246 56.9737
139.022 3138 56.0179
139.139 3105 55.7225
139.255 3098 55.6597
139.372 3133 55.9732
139.488 3089 55.5788
139.605 3006 54.827
139.721 3158 56.1961
139.838 3127 55.9196
139.954 3003 54.7996
140.071 3034 55.0818
140.187 3114 55.8032
140.303 2980 54.5894
140.419 3008 54.8452
140.535 2773 52.6593
140.652 2462 49.6185
140.768 0 1
140.884 0 1
141 0 1
141.115 0 1
141.231 0 1
141.347 0 1
141.463 0 1
141.578 0 1
141.694 0 1
144.104 0 1
144.219 0 1
144.335 0 1
144.45 0 1
144.566 0 1
144.682 0 1
144.798 0 1
144.914 0 1
145.03 0 1
145.146 2163 46.5081
145.262 2354 48.518
145.378 2488 49.8799
145.494 2374 48.7237
145.61 2299 47.9479
145.726 2237 47.2969
145.842 2167 46.551
145.959 1908 43.6807
146.075 1819 42.6497
146.192 1728 41.5692
146.308 1824 42.7083
146.425 1913 43.7379
146.541 2067 45.4643
146.658 2204 46.9468
146.774 2462 49.6185
146.891 2550 50.4975
147.008 2520 50.1996
147.125 2446 49.4571
147.241 2536 50.3587
147.358 2792 52.8394
147.475 2777 52.6972
147.592 2669 51.6624
147.709 2715 52.1057
147.826 2733 52.2781
147.943 2770 52.6308
148.06 2744 52.3832
148.177 2697 51.9326
148.294 2690 51.8652
148.411 2556 50.5569
148.528 2694 51.9038
148.645 2643 51.4101
148.762 2773 52.6593
148.88 2686 51.8266
148.997 2611 51.0979
149.114 2685 51.817
149.231 2591 50.9019
149.349 2667 51.643
149.466 2578 50.774
149.583 2455 49.548
149.701 2121 46.0543
149.818 1927 43.8976
149.935 1872 43.2666
150.053 1804 42.4735
150.17 1971 44.3959
150.287 2080 45.607
150.405 2197 46.8722
150.522 2387 48.8569
150.64 2510 50.0999
150.757 2553 50.5272
150.875 2658 51.5558
150.992 2783 52.7541
151.11 2815 53.0566
151.227 2809 53
151.344 2789 52.811
151.462 2847 53.3573
151.579 2786 52.7826
151.697 2795 52.8678
151.814 2869 53.563
151.932 2833 53.2259
152.049 2844 53.3292
152.167 2801 52.9245
152.284 2744 52.3832
152.402 2776 52.6878
152.519 2841 53.301
152.636 2720 52.1536
152.754 2825 53.1507
152.871 2827 53.1695
152.989 2717 52.1249
153.106 2606 51.049
153.223 2430 49.295
153.341 2138 46.2385
153.458 2183 46.7226
153.575 1973 44.4185
153.693 1947 44.1248
153.81 2138 46.2385
153.927 2272 47.6655
154.044 2429 49.2849
154.162 2542 50.4183
154.279 2703 51.9904
154.396 2734 52.2877
154.513 2827 53.1695
154.63 2881 53.6749
154.747 3014 54.8999
154.864 3062 55.3353
154.981 3094 55.6237
155.098 3053 55.254
155.215 3019 54.9454
155.332 3112 55.7853
155.449 2851 53.3948
155.566 2863 53.507
155.683 2886 53.7215
155.8 2914 53.9815
155.917 2858 53.4603
156.033 2814 53.0471
156.15 0 1
156.267 0 1
156.383 0 1
156.5 0 1
156.617 0 1
156.733 0 1
156.85 0 1
156.966 0 1
157.082 0 1
157.199 0 1
157.315 0 1
157.431 0 1
157.547 0 1
157.664 0 1
157.78 0 1
157.896 0 1
158.012 0 1
158.128 0 1
158.244 0 1
158.359 0 1
158.475 0 1
158.591 0 1
158.706 0 1
