
6.15755 0 1
6.2731 0 1
6.3887 0 1
6.50437 0 1
6.62009 0 1
6.73587 0 1
6.8517 0 1
6.96759 0 1
7.08353 0 1
7.19952 0 1
7.31557 0 1
7.43166 0 1
7.54781 0 1
7.664 0 1
7.78024 0 1
7.89653 0 1
8.01286 0 1
8.12924 0 1
8.24567 0 1
8.36213 0 1
8.47864 0 1
8.59519 0 1
8.71178 0 1
8.82841 0 1
8.94508 0 1
9.06179 0 1
9.17853 0 1
9.29531 0 1
9.41212 0 1
9.52897 0 1
9.64584 0 1
9.76276 0 1
9.8797 0 1
9.99667 0 1
10.1137 0 1
10.2307 0 1
10.3478 0 1
10.4648 0 1
10.5819 0 1
10.6991 0 1
10.8162 0 1
10.9334 0 1
11.0506 0 1
11.1678 0 1
11.285 0 1
11.4023 0 1
11.5196 0 1
11.6369 0 1
11.7542 0 1
11.8715 0 1
11.9888 0 1
12.1062 0 1
12.2235 0 1
12.3409 0 1
12.4582 0 1
12.5756 0 1
12.693 0 1
12.8104 0 1
12.9278 0 1
13.0452 0 1
13.1626 0 1
13.28 0 1
13.3974 0 1
13.5149 0 1
13.6323 0 1
13.7497 0 1
13.8671 0 1
13.9845 0 1
14.1019 0 1
14.2193 0 1
14.3367 0 1
14.4541 0 1
14.5714 0 1
14.6888 0 1
14.8062 0 1
14.9235 0 1
15.0408 0 0
15.1581 0 0
15.2755 0 0
15.3927 0 0
15.51 0 0
15.6273 0 0
15.7445 0 0
15.8617 0 0
15.9789 0 0
16.0961 0 0
16.2132 0 0
16.3304 0 0
16.4475 0 0
16.5646 0 0
16.6816 0 0
16.7986 0 0
16.9156 0 0
17.0326 0 0
17.1496 0 0
17.2665 0 0
17.3833 0 0
17.5002 0 0
17.617 0 0
17.7338 0 0
17.8505 0 0
17.9672 0 0
18.0839 0 0
18.2005 0 0
18.3171 0 0
18.4337 0 0
18.5502 0 0
18.6666 0 0
18.7831 0 0
18.8994 0 0
19.0158 0 0
19.1321 0 0
19.2483 0 0
19.3645 0 0
19.4806 0 0
19.5967 0 0
19.7128 0 0
19.8288 0 0
19.9447 0 0
20.0606 0 1
20.1764 0 1
20.2922 0 1
20.4079 0 1
20.5236 0 1
20.6392 0 1
20.7548 0 1
20.8702 0 1
23.3078 0 1
23.4233 0 1
23.539 0 1
23.6547 0 1
23.7704 0 1
23.8862 0 1
24.0021 0 1
24.118 0 1
24.234 0 1
24.35 0 1
24.4661 1803 42.4617
24.5822 1840 42.8952
24.6984 1808 42.5206
24.8146 1851 43.0232
24.9309 1818 42.638
25.0472 1757 41.9166
25.1636 1873 43.2782
25.28 1831 42.7902
25.3965 1876 43.3128
25.513 1930 43.9318
25.6296 1924 43.8634
25.7462 2024 44.9889
25.8628 1948 44.1362
25.9795 1987 44.5758
26.0962 1944 44.0908
26.213 1929 43.9204
26.3298 1897 43.5546
26.4466 1926 43.8862
26.5635 1780 42.19
26.6804 1634 40.4228
26.7973 1534 39.1663
26.9143 1590 39.8748
27.0313 1685 41.0488
27.1483 1781 42.2019
27.2653 1820 42.6615
27.3824 1909 43.6921
27.4996 1848 42.9884
27.6167 1926 43.8862
27.7339 1935 43.9886
27.8511 1795 42.3674
27.9683 1819 42.6497
28.0855 1761 41.9643
28.2028 1836 42.8486
28.3201 1812 42.5676
28.4374 1817 42.6263
28.5547 1813 42.5793
28.6721 1801 42.4382
28.7894 1930 43.9318
28.9068 1858 43.1045
29.0242 1830 42.7785
29.1416 1889 43.4626
29.259 1780 42.19
29.3764 1888 43.4511
29.4939 1834 42.8252
29.6113 1836 42.8486
29.7288 1907 43.6692
29.8463 1820 42.6615
29.9638 1729 41.5812
30.0812 1544 39.2938
30.1987 1535 39.1791
30.3162 1414 37.6032
30.4337 1539 39.2301
30.5512 1652 40.6448
30.6687 1701 41.2432
30.7862 1875 43.3013
30.9037 1854 43.0581
31.0212 1832 42.8019
31.1387 1865 43.1856
31.2562 1856 43.0813
31.3737 1782 42.2137
31.4912 1796 42.3792
31.6087 1836 42.8486
31.7262 1868 43.2204
31.8436 1826 42.7317
31.9611 1830 42.7785
32.0785 1906 43.6578
32.1959 1862 43.1509
32.3134 1839 42.8836
32.4308 1833 42.8135
32.5482 1843 42.9302
32.6655 1903 43.6234
32.7829 1833 42.8135
32.9002 1856 43.0813
33.0176 1876 43.3128
33.1349 1917 43.7836
33.2522 1821 42.6732
33.3694 1813 42.5793
33.4867 1802 42.45
33.6039 1800 42.4264
33.7211 1669 40.8534
33.8383 1590 39.8748
33.9554 1489 38.5876
34.0725 1512 38.8844
34.1896 1554 39.4208
34.3067 1722 41.497
34.4237 1824 42.7083
34.5407 1780 42.19
34.6577 1901 43.6005
34.7746 1878 43.3359
34.8915 2010 44.833
35.0084 1853 43.0465
35.1252 1860 43.1277
35.242 1905 43.6463
35.3587 1788 42.2847
35.4755 1855 43.0697
35.5921 1932 43.9545
35.7088 1873 43.2782
35.8254 1949 44.1475
35.9419 1860 43.1277
36.0584 1946 44.1135
36.1749 1896 43.5431
36.2913 1872 43.2666
36.4077 1901 43.6005
36.524 1883 43.3935
36.6403 1873 43.2782
36.7565 1909 43.6921
36.8727 1887 43.4396
36.9889 1888 43.4511
37.1049 1906 43.6578
37.221 0 1
37.3369 0 1
37.4529 0 1
37.5687 0 1
37.6845 0 1
37.8003 0 1
37.916 0 1
38.0316 0 1
38.1472 0 1
40.5851 0 1
40.7008 0 1
40.8164 0 1
40.9322 0 1
41.048 0 1
41.1639 0 1
41.2798 0 1
41.3958 0 1
41.5118 0 1
41.6279 0 1
41.744 1573 39.6611
41.8602 1596 39.95
41.9765 1689 41.0974
42.0928 1687 41.0731
42.2091 1690 41.1096
42.3255 1678 40.9634
42.4419 1664 40.7922
42.5584 1447 38.0395
42.675 1323 36.3731
42.7915 1329 36.4555
42.9081 1399 37.4032
43.0248 1445 38.0132
43.1415 1552 39.3954
43.2582 1698 41.2068
43.375 1629 40.3609
43.4918 1687 41.0731
43.6087 1644 40.5463
43.7256 1690 41.1096
43.8425 1602 40.025
43.9595 1627 40.3361
44.0765 1511 38.8716
44.1935 1503 38.7685
44.3106 1486 38.5487
44.4277 1470 38.3406
44.5448 1484 38.5227
44.6619 1497 38.6911
44.7791 1484 38.5227
44.8963 1492 38.6264
45.0136 1504 38.7814
45.1308 1476 38.4187
45.2481 1507 38.8201
45.3654 1385 37.2156
45.4827 1470 38.3406
45.6001 1485 38.5357
45.7174 1454 38.1314
45.8348 1487 38.5616
45.9522 1379 37.1349
46.0697 1312 36.2215
46.1871 1224 34.9857
46.3046 1150 33.9116
46.422 1117 33.4215
46.5395 1206 34.7275
46.657 1268 35.609
46.7745 1274 35.6931
46.892 1402 37.4433
47.0096 1444 38
47.1271 1390 37.2827
47.2446 1410 37.55
47.3622 1357 36.8375
47.4797 1391 37.2961
47.5973 1318 36.3043
47.7149 1280 35.7771
47.8324 1264 35.5528
47.95 1206 34.7275
48.0675 1169 34.1906
48.1851 1179 34.3366
48.3027 1160 34.0588
48.4202 1260 35.4965
48.5378 1247 35.3129
48.6554 1210 34.7851
48.7729 1240 35.2136
48.8904 1277 35.7351
49.008 1248 35.327
49.1255 1360 36.8782
49.243 1325 36.4005
49.3605 1319 36.318
49.478 1345 36.6742
49.5955 1180 34.3511
49.713 1142 33.7935
49.8304 1039 32.2335
49.9479 1085 32.9393
50.0653 1255 35.426
50.1827 1387 37.2424
50.3001 1448 38.0526
50.4175 1510 38.8587
50.5348 1615 40.1871
50.6521 1701 41.2432
50.7694 1651 40.6325
50.8867 1642 40.5216
51.004 1735 41.6533
51.1212 1751 41.845
51.2384 1732 41.6173
51.3556 1753 41.8688
51.4727 1777 42.1545
51.5899 1775 42.1307
51.707 1711 41.3642
51.824 1823 42.6966
51.9411 1872 43.2666
52.0581 1919 43.8064
52.175 2018 44.9222
52.2919 1941 44.0568
52.4088 2027 45.0222
52.5257 2181 46.7012
52.6425 2093 45.7493
52.7593 2052 45.299
52.876 2161 46.4866
52.9927 2178 46.669
53.1094 2087 45.6837
53.226 1982 44.5197
53.3426 1823 42.6966
53.4591 1634 40.4228
53.5756 1654 40.6694
53.692 1908 43.6807
53.8084 2094 45.7602
53.9248 2223 47.1487
54.0411 2381 48.7955
54.1573 2464 49.6387
54.2735 0 1
54.3896 0 1
54.5057 0 1
54.6217 0 1
54.7377 0 1
54.8537 0 1
54.9695 0 1
55.0853 0 1
55.2011 0 1
55.3168 0 1
55.4324 0 1
57.824 0 1
57.9396 0 1
58.0553 0 1
58.1711 0 1
58.2869 0 1
58.4028 0 1
58.5187 0 1
58.6347 0 1
58.7508 0 1
58.8669 0 1
58.983 2908 53.9259
59.0992 3213 56.6833
59.2155 3377 58.112
59.3318 3335 57.7495
59.4482 3445 58.6941
59.5646 3619 60.1581
59.681 3327 57.6802
59.7975 3378 58.1206
59.9141 3244 56.9561
60.0306 3187 56.4535
60.1473 3135 55.9911
60.2639 3097 55.6507
60.3807 3093 55.6147
60.4974 3121 55.8659
60.6142 3087 55.5608
60.731 3338 57.7754
60.8479 3485 59.0339
60.9648 3444 58.6856
61.0818 3449 58.7282
61.1987 3407 58.3695
61.3158 3503 59.1861
61.4328 3493 59.1016
61.5499 3426 58.532
61.667 3180 56.3915
61.7841 3023 54.9818
61.9013 2787 52.792
62.0185 2685 51.817
62.1357 2675 51.7204
62.253 2914 53.9815
62.3702 3316 57.5847
62.4875 3446 58.7026
62.6049 3588 59.8999
62.7222 3772 61.4166
62.8396 3748 61.2209
62.9569 3717 60.9672
63.0743 3762 61.3351
63.1918 3797 61.6198
63.3092 3647 60.3904
63.4267 3486 59.0424
63.5441 3492 59.0931
63.6616 3418 58.4637
63.7791 3307 57.5065
63.8966 3378 58.1206
64.0142 3487 59.0508
64.1317 3446 58.7026
64.2492 3636 60.2993
64.3668 3737 61.131
64.4843 3674 60.6135
64.6019 3752 61.2536
64.7195 3667 60.5558
64.837 3884 62.3217
64.9546 3913 62.554
65.0722 3833 61.9112
65.1898 3654 60.4483
65.3074 3413 58.4209
65.4249 3177 56.3649
65.5425 2941 54.231
65.6601 2759 52.5262
65.7777 2936 54.1849
65.8952 3315 57.576
66.0128 3542 59.5147
66.1304 3862 62.145
66.2479 3900 62.45
66.3655 4106 64.0781
66.483 4102 64.0469
66.6005 4237 65.0922
66.718 4147 64.3972
66.8355 4037 63.5374
66.953 4070 63.7966
67.0705 3906 62.498
67.1879 3719 60.9836
67.3054 3661 60.5062
67.4228 3623 60.1914
67.5402 3534 59.4475
67.6576 3624 60.1997
67.7749 3752 61.2536
67.8923 4044 63.5925
68.0096 4136 64.3117
68.1269 4248 65.1767
68.2442 4334 65.8331
68.3614 4355 65.9924
68.4787 4329 65.7951
68.5958 4446 66.6783
68.713 4394 66.2873
68.8302 4276 65.3911
68.9473 4151 64.4283
69.0643 3771 61.4085
69.1814 3423 58.5064
69.2984 3197 56.542
69.4154 3427 58.5406
69.5323 3736 61.1228
69.6492 4164 64.5291
69.7661 4421 66.4906
69.8829 4646 68.1616
69.9997 4753 68.942
70.1165 4882 69.8713
70.2332 4913 70.0928
70.3499 4868 69.7711
70.4665 4692 68.4982
70.5831 4766 69.0362
70.6996 4637 68.0955
70.8161 4383 66.2042
70.9326 4353 65.9773
71.049 4033 63.5059
71.1653 3975 63.0476
71.2817 4076 63.8436
71.3979 3988 63.1506
71.5141 4146 64.3894
71.6303 4228 65.0231
71.7464 4026 63.4508
71.8624 0 1
71.9784 0 1
72.0944 0 1
72.2102 0 1
72.3261 0 1
72.4418 0 1
72.5575 0 1
72.6732 0 1
75.1054 0 1
75.2209 0 1
75.3365 0 1
75.4521 0 1
75.5678 0 1
75.6835 0 1
75.7993 0 1
75.9151 0 1
76.031 0 1
76.147 4294 65.5286
76.263 4391 66.2646
76.3791 4415 66.4455
76.4952 4148 64.405
76.6113 4151 64.4283
76.7276 4459 66.7757
76.8438 4552 67.4685
76.9601 4875 69.8212
77.0765 5115 71.5192
77.1929 5125 71.5891
77.3093 5146 71.7356
77.4258 5166 71.8749
77.5423 5297 72.7805
77.6589 5223 72.2703
77.7755 5165 71.8679
77.8921 4846 69.6132
78.0088 4531 67.3127
78.1256 3969 63
78.2423 3755 61.2781
78.3591 3600 60
78.4759 3750 61.2372
78.5928 4226 65.0077
78.7097 4578 67.6609
78.8266 5110 71.4843
78.9436 4962 70.4415
79.0606 5141 71.7008
79.1776 5181 71.9792
79.2946 5224 72.2772
79.4117 5301 72.808
79.5288 5202 72.1249
79.6459 5080 71.2741
79.7631 4895 69.9643
79.8802 4604 67.8528
79.9974 4481 66.9403
80.1147 4326 65.7723
80.2319 4268 65.3299
80.3491 4267 65.3223
80.4664 4469 66.8506
80.5837 4707 68.6076
80.701 4809 69.347
80.8183 5066 71.1758
80.9357 5142 71.7077
81.053 5031 70.9295
81.1704 5063 71.1548
81.2877 5015 70.8167
81.4051 5017 70.8308
81.5225 4849 69.6348
81.6399 4537 67.3573
81.7573 4267 65.3223
81.8747 3804 61.6766
81.9922 3641 60.3407
82.1096 3589 59.9083
82.227 3956 62.8967
82.3444 4276 65.3911
82.4619 4643 68.1396
82.5793 4703 68.5784
82.6967 4916 70.1142
82.8142 4879 69.8498
82.9316 4837 69.5485
83.049 5090 71.3442
83.1664 4707 68.6076
83.2838 4911 70.0785
83.4012 4642 68.1322
83.5186 4556 67.4981
83.636 4232 65.0538
83.7534 4052 63.6553
83.8708 3885 62.3298
83.9881 3893 62.3939
84.1055 4018 63.3877
84.2228 4247 65.169
84.3401 4549 67.4463
84.4575 4721 68.7095
84.5747 4675 68.374
84.692 4890 69.9285
84.8093 4883 69.8785
84.9265 4888 69.9142
85.0437 4821 69.4334
85.1609 4599 67.8159
85.2781 4092 63.9687
85.3952 4060 63.7181
85.5123 3883 62.3137
85.6294 3702 60.8441
85.7465 3860 62.1289
85.8636 4193 64.7534
85.9806 4579 67.6683
86.0976 4812 69.3686
86.2145 5019 70.8449
86.3315 5138 71.6798
86.4484 5432 73.7021
86.5652 5318 72.9246
86.682 5370 73.2803
86.7988 5206 72.1526
86.9156 5148 71.7496
87.0323 5032 70.9366
87.149 4896 69.9714
87.2657 4780 69.1375
87.3823 4482 66.9477
87.4988 4291 65.5057
87.6154 4462 66.7982
87.7318 4732 68.7895
87.8483 5064 71.1618
87.9647 5500 74.162
88.081 5628 75.02
88.1973 5634 75.06
88.3136 5702 75.5116
88.4298 5628 75.02
88.546 5616 74.94
88.6621 5407 73.5323
88.7781 5258 72.5121
88.8942 0 1
89.0101 0 1
89.126 0 1
89.2419 0 1
89.3577 0 1
89.4734 0 1
89.5891 0 1
89.7047 0 1
89.8203 0 1
89.9358 0 1
92.3269 0 1
92.4424 0 1
92.558 0 1
92.6736 0 1
92.7893 0 1
92.905 0 1
93.0208 0 1
93.1366 0 1
93.2525 0 1
93.3685 0 1
93.4845 0 1
93.6005 5476 74
93.7167 5600 74.8331
93.8328 5466 73.9324
93.949 5536 74.4043
94.0653 5503 74.1822
94.1816 5334 73.0342
94.2979 5299 72.7942
94.4143 4706 68.6003
94.5307 4661 68.2715
94.6472 4298 65.5591
94.7637 4305 65.6125
94.8803 4622 67.9853
94.9969 4836 69.5414
95.1135 5085 71.3092
95.2302 5439 73.7496
95.3469 5636 75.0733
95.4637 5738 75.7496
95.5805 5757 75.8749
95.6973 5832 76.3675
95.8142 5993 77.4145
95.9311 5881 76.6877
96.048 5702 75.5116
96.1649 5668 75.2861
96.2819 5412 73.5663
96.3989 5150 71.7635
96.516 4906 70.0428
96.633 4747 68.8985
96.7501 4607 67.8749
96.8673 4814 69.383
96.9844 5023 70.8731
97.1016 5518 74.2832
97.2188 5689 75.4255
97.336 5897 76.7919
97.4532 6095 78.0705
97.5704 5845 76.4526
97.6877 5898 76.7984
97.805 5860 76.5506
97.9223 5712 75.5778
98.0396 5430 73.6885
98.1569 4960 70.4273
98.2743 4590 67.7495
98.3916 4573 67.624
98.509 4706 68.6003
98.6264 5061 71.1407
98.7438 5123 71.5751
98.8612 5572 74.6458
98.9786 5885 76.7138
99.096 5848 76.4722
99.2134 6038 77.7046
99.3308 6095 78.0705
99.4482 6093 78.0577
99.5656 6077 77.9551
99.6831 6106 78.1409
99.8005 5874 76.642
99.9179 5687 75.4122
100.035 5544 74.458
100.153 5119 71.5472
100.27 4814 69.383
100.388 4770 69.0652
100.505 5292 72.7461
100.622 5566 74.6056
100.74 5941 77.0779
100.857 6072 77.923
100.975 6318 79.4858
101.092 6280 79.2465
101.209 6457 80.3555
101.327 6270 79.1833
101.444 6199 78.7337
101.561 5959 77.1946
101.679 5516 74.2698
101.796 5076 71.2461
101.913 4813 69.3758
102.03 4783 69.1592
102.148 5179 71.9653
102.265 5887 76.7268
102.382 5623 74.9867
102.499 5958 77.1881
102.616 6187 78.6575
102.733 6303 79.3914
102.851 6518 80.7341
102.968 6525 80.7775
103.085 6642 81.4985
103.202 6549 80.9259
103.319 6234 78.9557
103.436 6196 78.7147
103.552 5796 76.1315
103.669 5422 73.6342
103.786 5094 71.3723
103.903 4987 70.6187
104.02 5575 74.6659
104.137 5976 77.3046
104.253 6613 81.3204
104.37 6616 81.3388
104.487 6752 82.1706
104.603 6685 81.7618
104.72 6760 82.2192
104.836 6703 81.8719
104.953 6735 82.067
105.069 6364 79.7747
105.186 5971 77.2722
105.302 5585 74.7329
105.418 5361 73.2189
105.535 5439 73.7496
105.651 5767 75.9408
105.767 6126 78.2688
105.883 6336 79.599
105.999 6566 81.0309
106.115 0 1
106.231 0 1
106.347 0 1
106.463 0 1
106.579 0 1
106.694 0 1
106.81 0 1
106.926 0 1
107.041 0 1
107.157 0 1
109.576 0 1
109.692 0 1
109.807 0 1
109.923 0 1
110.039 0 1
110.155 0 1
110.27 0 1
110.386 0 1
110.502 0 1
110.618 5211 72.1873
110.735 5791 76.0986
110.851 5946 77.1103
110.967 6205 78.7718
111.083 6306 79.4103
111.199 6547 80.9135
111.316 6410 80.0625
111.432 6578 81.1049
111.549 6447 80.2932
111.665 6484 80.5233
111.782 6269 79.177
111.898 6010 77.5242
112.015 5714 75.591
112.132 5194 72.0694
112.248 4961 70.4344
112.365 4836 69.5414
112.482 5048 71.0493
112.599 5388 73.403
112.716 5827 76.3348
112.832 6076 77.9487
112.949 6051 77.7882
113.066 6031 77.6595
113.183 6047 77.7625
113.3 6007 77.5048
113.417 5914 76.9025
113.534 5690 75.4321
113.652 5491 74.1013
113.769 5397 73.4643
113.886 4951 70.3633
114.003 4612 67.9117
114.12 4820 69.4262
114.238 5107 71.4633
114.355 5051 71.0704
114.472 5409 73.5459
114.589 5363 73.2325
114.707 5554 74.5252
114.824 5632 75.0467
114.942 5836 76.3937
115.059 5866 76.5898
115.176 5873 76.6355
115.294 5847 76.4657
115.411 5549 74.4916
115.529 5414 73.5799
115.646 5019 70.8449
115.764 4724 68.7314
115.881 4382 66.1967
115.999 4321 65.7343
116.116 4688 68.469
116.234 5227 72.298
116.351 5619 74.96
116.469 5724 75.6571
116.586 5744 75.7892
116.704 5773 75.9803
116.821 5742 75.776
116.939 5813 76.243
117.056 5724 75.6571
117.174 5536 74.4043
117.291 5558 74.552
117.409 5171 71.9097
117.526 4911 70.0785
117.644 4849 69.6348
117.761 4828 69.4838
117.879 5022 70.8661
117.996 5309 72.8629
118.114 5564 74.5922
118.231 5710 75.5645
118.349 5531 74.3707
118.466 5819 76.2824
118.584 5880 76.6812
118.701 5967 77.2464
118.819 5869 76.6094
118.936 5857 76.531
119.053 5520 74.2967
119.171 5535 74.3976
119.288 5056 71.1056
119.405 4531 67.3127
119.523 4158 64.4826
119.64 4442 66.6483
119.757 4823 69.4478
119.875 5373 73.3008
119.992 5570 74.6324
120.109 5629 75.0267
120.226 5719 75.6241
120.343 5609 74.8933
120.46 5672 75.3127
120.578 5680 75.3658
120.695 5696 75.4718
120.812 5769 75.9539
120.929 5511 74.2361
121.046 5272 72.6085
121.163 5095 71.3793
121.279 4909 70.0643
121.396 4812 69.3686
121.513 4902 70.0143
121.63 5216 72.2219
121.747 5239 72.3809
121.863 5277 72.643
121.98 5514 74.2563
122.097 5571 74.6391
122.213 5630 75.0333
122.33 5674 75.326
122.446 5770 75.9605
122.563 5735 75.7298
122.679 5673 75.3193
122.795 5488 74.081
122.912 5250 72.4569
123.028 4982 70.5833
123.144 4430 66.5582
123.26 4271 65.3529
123.377 0 1
123.493 0 1
123.609 0 1
123.725 0 1
123.84 0 1
123.956 0 1
124.072 0 1
124.188 0 1
124.303 0 1
124.419 0 1
126.852 0 1
126.968 0 1
127.083 0 1
127.199 0 1
127.315 0 1
127.431 0 1
127.547 0 1
127.663 0 1
127.779 0 1
127.895 0 1
128.011 0 1
128.127 0 1
128.243 0 1
128.359 4957 70.406
128.476 4688 68.469
128.592 4833 69.5198
128.708 5254 72.4845
128.825 5770 75.9605
128.941 6210 78.8036
129.058 6345 79.6555
129.174 6601 81.2465
129.291 6521 80.7527
129.408 6504 80.6474
129.524 6463 80.3928
129.641 6285 79.278
129.758 6167 78.5302
129.875 6102 78.1153
129.992 5984 77.3563
130.108 5655 75.1997
130.225 5761 75.9013
130.342 5538 74.4177
130.459 5350 73.1437
130.576 5630 75.0333
130.693 5982 77.3434
130.81 5983 77.3499
130.928 6044 77.7432
131.045 5998 77.4468
131.162 6295 79.341
131.279 6344 79.6492
131.396 6210 78.8036
131.513 6237 78.9747
131.631 6177 78.5939
131.748 5752 75.8419
131.865 5194 72.0694
131.983 4802 69.2965
132.1 4709 68.6222
132.217 4967 70.4769
132.335 5528 74.3505
132.452 5837 76.4003
132.57 6100 78.1025
132.687 6020 77.5887
132.804 6414 80.0875
132.922 6142 78.3709
133.039 6080 77.9744
133.157 6151 78.4283
133.274 6241 79
133.392 5887 76.7268
133.509 5889 76.7398
133.627 5696 75.4718
133.744 5706 75.5381
133.862 5313 72.8903
133.979 5473 73.9797
134.097 5404 73.5119
134.214 5633 75.0533
134.332 5684 75.3923
134.449 5790 76.092
134.567 5975 77.2981
134.684 5877 76.6616
134.802 5980 77.3305
134.919 6101 78.1089
135.037 6000 77.4597
135.154 5985 77.3628
135.272 5994 77.4209
135.389 5530 74.364
135.507 4924 70.1712
135.624 4414 66.4379
135.742 4629 68.0368
135.859 4994 70.6682
135.977 5504 74.1889
136.094 5919 76.935
136.211 6035 77.6853
136.329 5982 77.3434
136.446 6091 78.0449
136.564 6183 78.6321
136.681 6146 78.3964
136.798 5981 77.3369
136.915 6177 78.5939
137.033 5937 77.0519
137.15 5853 76.5049
137.267 5857 76.531
137.384 5600 74.8331
137.502 5477 74.0068
137.619 5241 72.3948
137.736 5279 72.6567
137.853 5513 74.2496
137.97 5642 75.1132
138.087 5889 76.7398
138.204 6013 77.5435
138.321 5830 76.3544
138.438 6035 77.6853
138.555 5956 77.1751
138.672 5985 77.3628
138.788 5853 76.5049
138.905 5773 75.9803
139.022 5346 73.1163
139.139 4974 70.5266
139.255 4742 68.8622
139.372 4731 68.7823
139.488 5039 70.9859
139.605 5297 72.7805
139.721 5773 75.9803
139.838 5951 77.1427
139.954 6148 78.4092
140.071 5889 76.7398
140.187 6068 77.8974
140.303 5896 76.7854
140.419 6084 78
140.535 5865 76.5833
140.652 5681 75.3724
140.768 0 1
140.884 0 1
141 0 1
141.115 0 1
141.231 0 1
141.347 0 1
141.463 0 1
141.578 0 1
141.694 0 1
144.104 0 1
144.219 0 1
144.335 0 1
144.45 0 1
144.566 0 1
144.682 0 1
144.798 0 1
144.914 0 1
145.03 0 1
145.146 5300 72.8011
145.262 5292 72.7461
145.378 5433 73.7089
145.494 5343 73.0958
145.61 5295 72.7668
145.726 5104 71.4423
145.842 5099 71.4073
145.959 4865 69.7496
146.075 4903 70.0214
146.192 4782 69.152
146.308 4623 67.9926
146.425 4659 68.2569
146.541 4783 69.1592
146.658 4809 69.347
146.774 4907 70.05
146.891 5144 71.7217
147.008 4930 70.214
147.125 5055 71.0985
147.241 4815 69.3902
147.358 4867 69.7639
147.475 4772 69.0797
147.592 4586 67.72
147.709 4155 64.4593
147.826 3770 61.4003
147.943 3830 61.887
148.06 4145 64.3817
148.177 4432 66.5733
148.294 4794 69.2387
148.411 4862 69.728
148.528 4989 70.6329
148.645 4974 70.5266
148.762 4970 70.4982
148.88 4976 70.5408
148.997 4655 68.2276
149.114 4958 70.4131
149.231 4924 70.1712
149.349 4857 69.6922
149.466 4728 68.7605
149.583 4620 67.9706
149.701 4555 67.4907
149.818 4539 67.3721
149.935 4498 67.0671
150.053 4466 66.8281
150.17 4397 66.3099
150.287 4516 67.2012
150.405 4541 67.3869
150.522 4650 68.1909
150.64 4784 69.1665
150.757 4781 69.1448
150.875 4722 68.7168
150.992 4648 68.1762
151.11 4339 65.8711
151.227 4220 64.9615
151.344 3893 62.3939
151.462 3676 60.63
151.579 3632 60.2661
151.697 3878 62.2736
151.814 4210 64.8845
151.932 4565 67.5648
152.049 4768 69.0507
152.167 4871 69.7925
152.284 4838 69.5557
152.402 4753 68.942
152.519 4789 69.2026
152.636 4785 69.1737
152.754 4785 69.1737
152.871 4795 69.2459
152.989 4719 68.695
153.106 4692 68.4982
153.223 4743 68.8694
153.341 4551 67.4611
153.458 4429 66.5507
153.575 4391 66.2646
153.693 4400 66.3325
153.81 4513 67.1789
153.927 4496 67.0522
154.044 4501 67.0895
154.162 4731 68.7823
154.279 4755 68.9565
154.396 4772 69.0797
154.513 4986 70.6116
154.63 4716 68.6731
154.747 4579 67.6683
154.864 4307 65.6277
154.981 4268 65.3299
155.098 3915 62.57
155.215 3864 62.1611
155.332 4143 64.3661
155.449 4444 66.6633
155.566 4570 67.6018
155.683 4614 67.9264
155.8 4799 69.2748
155.917 4703 68.5784
156.033 4710 68.6294
156.15 0 1
156.267 0 1
156.383 0 1
156.5 0 1
156.617 0 1
156.733 0 1
156.85 0 1
156.966 0 1
157.082 0 1
157.199 0 1
157.315 0 1
157.431 0 1
157.547 0 1
157.664 0 1
157.78 0 1
157.896 0 1
158.012 0 1
158.128 0 1
158.244 0 1
158.359 0 1
158.475 0 1
158.591 0 1
158.706 0 1
