
6.15755 0 1
6.2731 0 1
6.3887 0 1
6.50437 0 1
6.62009 0 1
6.73587 0 1
6.8517 0 1
6.96759 0 1
7.08353 0 1
7.19952 0 1
7.31557 0 1
7.43166 0 1
7.54781 0 1
7.664 0 1
7.78024 0 1
7.89653 0 1
8.01286 0 1
8.12924 0 1
8.24567 0 1
8.36213 0 1
8.47864 0 1
8.59519 0 1
8.71178 0 1
8.82841 0 1
8.94508 0 1
9.06179 0 1
9.17853 0 1
9.29531 0 1
9.41212 0 1
9.52897 0 1
9.64584 0 1
9.76276 0 1
9.8797 0 1
9.99667 0 1
10.1137 0 1
10.2307 0 1
10.3478 0 1
10.4648 0 1
10.5819 0 1
10.6991 0 1
10.8162 0 1
10.9334 0 1
11.0506 0 1
11.1678 0 1
11.285 0 1
11.4023 0 1
11.5196 0 1
11.6369 0 1
11.7542 0 1
11.8715 0 1
11.9888 0 1
12.1062 0 1
12.2235 0 1
12.3409 0 1
12.4582 0 1
12.5756 0 1
12.693 0 1
12.8104 0 1
12.9278 0 1
13.0452 0 1
13.1626 0 1
13.28 0 1
13.3974 0 1
13.5149 0 1
13.6323 0 1
13.7497 0 1
13.8671 0 1
13.9845 0 1
14.1019 0 1
14.2193 0 1
14.3367 0 1
14.4541 0 1
14.5714 0 1
14.6888 0 1
14.8062 0 1
14.9235 0 1
15.0408 0 0
15.1581 0 0
15.2755 0 0
15.3927 0 0
15.51 0 0
15.6273 0 0
15.7445 0 0
15.8617 0 0
15.9789 0 0
16.0961 0 0
16.2132 0 0
16.3304 0 0
16.4475 0 0
16.5646 0 0
16.6816 0 0
16.7986 0 0
16.9156 0 0
17.0326 0 0
17.1496 0 0
17.2665 0 0
17.3833 0 0
17.5002 0 0
17.617 0 0
17.7338 0 0
17.8505 0 0
17.9672 0 0
18.0839 0 0
18.2005 0 0
18.3171 0 0
18.4337 0 0
18.5502 0 0
18.6666 0 0
18.7831 0 0
18.8994 0 0
19.0158 0 0
19.1321 0 0
19.2483 0 0
19.3645 0 0
19.4806 0 0
19.5967 0 0
19.7128 0 0
19.8288 0 0
19.9447 0 0
20.0606 0 1
20.1764 0 1
20.2922 0 1
20.4079 0 1
20.5236 0 1
20.6392 0 1
20.7548 0 1
20.8702 0 1
23.3078 0 1
23.4233 0 1
23.539 0 1
23.6547 0 1
23.7704 0 1
23.8862 0 1
24.0021 0 1
24.118 0 1
24.234 0 1
24.35 0 1
24.4661 1828 42.7551
24.5822 1760 41.9524
24.6984 1833 42.8135
24.8146 1839 42.8836
24.9309 1861 43.1393
25.0472 1785 42.2493
25.1636 1808 42.5206
25.28 1859 43.1161
25.3965 1870 43.2435
25.513 1833 42.8135
25.6296 1897 43.5546
25.7462 1892 43.4971
25.8628 1904 43.6348
25.9795 1900 43.589
26.0962 1903 43.6234
26.213 1973 44.4185
26.3298 1815 42.6028
26.4466 1847 42.9767
26.5635 1689 41.0974
26.6804 1597 39.9625
26.7973 1574 39.6737
26.9143 1555 39.4335
27.0313 1645 40.5586
27.1483 1752 41.8569
27.2653 1868 43.2204
27.3824 1942 44.0681
27.4996 1869 43.2319
27.6167 1852 43.0349
27.7339 1784 42.2374
27.8511 1834 42.8252
27.9683 1765 42.0119
28.0855 1841 42.9069
28.2028 1863 43.1625
28.3201 1699 41.2189
28.4374 1734 41.6413
28.5547 1833 42.8135
28.6721 1828 42.7551
28.7894 1918 43.795
28.9068 1812 42.5676
29.0242 1804 42.4735
29.1416 1839 42.8836
29.259 1792 42.332
29.3764 1850 43.0116
29.4939 1827 42.7434
29.6113 1741 41.7253
29.7288 1732 41.6173
29.8463 1868 43.2204
29.9638 1799 42.4146
30.0812 1609 40.1123
30.1987 1565 39.5601
30.3162 1412 37.5766
30.4337 1491 38.6135
30.5512 1498 38.704
30.6687 1612 40.1497
30.7862 1724 41.5211
30.9037 1825 42.72
31.0212 1824 42.7083
31.1387 1910 43.7035
31.2562 1882 43.382
31.3737 1830 42.7785
31.4912 1863 43.1625
31.6087 1786 42.2611
31.7262 1795 42.3674
31.8436 1867 43.2088
31.9611 1767 42.0357
32.0785 1822 42.6849
32.1959 1837 42.8602
32.3134 1927 43.8976
32.4308 1867 43.2088
32.5482 1909 43.6921
32.6655 1905 43.6463
32.7829 1815 42.6028
32.9002 1849 43
33.0176 1834 42.8252
33.1349 1861 43.1393
33.2522 1815 42.6028
33.3694 1787 42.2729
33.4867 1934 43.9773
33.6039 1794 42.3556
33.7211 1707 41.3159
33.8383 1565 39.5601
33.9554 1473 38.3797
34.0725 1432 37.8418
34.1896 1604 40.05
34.3067 1651 40.6325
34.4237 1719 41.4608
34.5407 1925 43.8748
34.6577 1854 43.0581
34.7746 1885 43.4166
34.8915 1926 43.8862
35.0084 1955 44.2154
35.1252 1818 42.638
35.242 1808 42.5206
35.3587 1824 42.7083
35.4755 1860 43.1277
35.5921 1837 42.8602
35.7088 1808 42.5206
35.8254 1883 43.3935
35.9419 1939 44.0341
36.0584 1875 43.3013
36.1749 1838 42.8719
36.2913 1859 43.1161
36.4077 1820 42.6615
36.524 1876 43.3128
36.6403 1867 43.2088
36.7565 1925 43.8748
36.8727 1858 43.1045
36.9889 1883 43.3935
37.1049 1783 42.2256
37.221 0 1
37.3369 0 1
37.4529 0 1
37.5687 0 1
37.6845 0 1
37.8003 0 1
37.916 0 1
38.0316 0 1
38.1472 0 1
40.5851 0 1
40.7008 0 1
40.8164 0 1
40.9322 0 1
41.048 0 1
41.1639 0 1
41.2798 0 1
41.3958 0 1
41.5118 0 1
41.6279 0 1
41.744 1595 39.9375
41.8602 1667 40.8289
41.9765 1676 40.939
42.0928 1553 39.4081
42.2091 1644 40.5463
42.3255 1679 40.9756
42.4419 1506 38.8072
42.5584 1376 37.0945
42.675 1322 36.3593
42.7915 1263 35.5387
42.9081 1353 36.7831
43.0248 1434 37.8682
43.1415 1513 38.8973
43.2582 1643 40.5339
43.375 1621 40.2616
43.4918 1594 39.9249
43.6087 1705 41.2916
43.7256 1563 39.5348
43.8425 1632 40.398
43.9595 1585 39.8121
44.0765 1591 39.8873
44.1935 1455 38.1445
44.3106 1461 38.223
44.4277 1456 38.1576
44.5448 1401 37.4299
44.6619 1476 38.4187
44.7791 1480 38.4708
44.8963 1533 39.1535
45.0136 1407 37.51
45.1308 1513 38.8973
45.2481 1457 38.1707
45.3654 1451 38.092
45.4827 1458 38.1838
45.6001 1455 38.1445
45.7174 1425 37.7492
45.8348 1426 37.7624
45.9522 1467 38.3014
46.0697 1280 35.7771
46.1871 1235 35.1426
46.3046 1070 32.7109
46.422 1046 32.3419
46.5395 1168 34.176
46.657 1349 36.7287
46.7745 1361 36.8917
46.892 1383 37.1887
47.0096 1420 37.6829
47.1271 1386 37.229
47.2446 1343 36.647
47.3622 1320 36.3318
47.4797 1303 36.0971
47.5973 1316 36.2767
47.7149 1230 35.0714
47.8324 1292 35.9444
47.95 1263 35.5387
48.0675 1167 34.1614
48.1851 1187 34.4529
48.3027 1213 34.8281
48.4202 1281 35.7911
48.5378 1234 35.1283
48.6554 1302 36.0832
48.7729 1298 36.0278
48.8904 1327 36.428
49.008 1268 35.609
49.1255 1336 36.5513
49.243 1349 36.7287
49.3605 1316 36.2767
49.478 1321 36.3456
49.5955 1218 34.8999
49.713 1127 33.5708
49.8304 970 31.1448
49.9479 983 31.3528
50.0653 1147 33.8674
50.1827 1371 37.027
50.3001 1366 36.9594
50.4175 1488 38.5746
50.5348 1574 39.6737
50.6521 1626 40.3237
50.7694 1697 41.1947
50.8867 1681 41
51.004 1699 41.2189
51.1212 1740 41.7133
51.2384 1734 41.6413
51.3556 1722 41.497
51.4727 1734 41.6413
51.5899 1688 41.0853
51.707 1760 41.9524
51.824 1752 41.8569
51.9411 1821 42.6732
52.0581 1935 43.9886
52.175 2053 45.31
52.2919 1997 44.6878
52.4088 2060 45.3872
52.5257 2097 45.793
52.6425 2160 46.4758
52.7593 2206 46.9681
52.876 2210 47.0106
52.9927 2162 46.4973
53.1094 2012 44.8553
53.226 1877 43.3244
53.3426 1838 42.8719
53.4591 1613 40.1622
53.5756 1716 41.4246
53.692 1834 42.8252
53.8084 2152 46.3897
53.9248 2254 47.4763
54.0411 2385 48.8365
54.1573 2451 49.5076
54.2735 0 1
54.3896 0 1
54.5057 0 1
54.6217 0 1
54.7377 0 1
54.8537 0 1
54.9695 0 1
55.0853 0 1
55.2011 0 1
55.3168 0 1
55.4324 0 1
57.824 0 1
57.9396 0 1
58.0553 0 1
58.1711 0 1
58.2869 0 1
58.4028 0 1
58.5187 0 1
58.6347 0 1
58.7508 0 1
58.8669 0 1
58.983 2927 54.1018
59.0992 3161 56.2228
59.2155 3258 57.0789
59.3318 3326 57.6715
59.4482 3414 58.4294
59.5646 3392 58.2409
59.681 3477 58.9661
59.7975 3346 57.8446
59.9141 3291 57.3672
60.0306 3226 56.7979
60.1473 3040 55.1362
60.2639 3129 55.9375
60.3807 3114 55.8032
60.4974 3156 56.1783
60.6142 3199 56.5597
60.731 3198 56.5509
60.8479 3327 57.6802
60.9648 3384 58.1722
61.0818 3489 59.0678
61.1987 3413 58.4209
61.3158 3517 59.3043
61.4328 3446 58.7026
61.5499 3394 58.258
61.667 3202 56.5862
61.7841 2983 54.6168
61.9013 2809 53
62.0185 2623 51.2152
62.1357 2640 51.3809
62.253 2964 54.4426
62.3702 3168 56.285
62.4875 3410 58.3952
62.6049 3545 59.5399
62.7222 3699 60.8194
62.8396 3679 60.6548
62.9569 3686 60.7124
63.0743 3702 60.8441
63.1918 3718 60.9754
63.3092 3604 60.0333
63.4267 3451 58.7452
63.5441 3435 58.6089
63.6616 3359 57.9569
63.7791 3311 57.5413
63.8966 3369 58.0431
64.0142 3212 56.6745
64.1317 3537 59.4727
64.2492 3618 60.1498
64.3668 3640 60.3324
64.4843 3732 61.0901
64.6019 3832 61.9032
64.7195 3681 60.6712
64.837 3779 61.4736
64.9546 3878 62.2736
65.0722 3863 62.153
65.1898 3652 60.4318
65.3074 3478 58.9746
65.4249 3177 56.3649
65.5425 2883 53.6936
65.6601 2741 52.3546
65.7777 2937 54.1941
65.8952 3238 56.9034
66.0128 3538 59.4811
66.1304 3742 61.1719
66.2479 3960 62.9285
66.3655 4025 63.4429
66.483 4033 63.5059
66.6005 4123 64.2106
66.718 4087 63.9296
66.8355 4027 63.4586
66.953 3999 63.2376
67.0705 3866 62.1772
67.1879 3816 61.7738
67.3054 3694 60.7783
67.4228 3577 59.808
67.5402 3500 59.1608
67.6576 3693 60.7701
67.7749 3782 61.498
67.8923 4039 63.5531
68.0096 4080 63.8749
68.1269 4154 64.4515
68.2442 4211 64.8922
68.3614 4466 66.8281
68.4787 4359 66.0227
68.5958 4397 66.3099
68.713 4337 65.8559
68.8302 4229 65.0308
68.9473 4000 63.2456
69.0643 3789 61.5549
69.1814 3452 58.7537
69.2984 3219 56.7362
69.4154 3402 58.3267
69.5323 3752 61.2536
69.6492 4218 64.9461
69.7661 4430 66.5582
69.8829 4585 67.7126
69.9997 4700 68.5565
70.1165 4704 68.5857
70.2332 4949 70.3491
70.3499 4872 69.7997
70.4665 4847 69.6204
70.5831 4750 68.9202
70.6996 4532 67.3201
70.8161 4514 67.1863
70.9326 4209 64.8768
71.049 4204 64.8383
71.1653 3905 62.49
71.2817 4115 64.1483
71.3979 4026 63.4508
71.5141 4195 64.7688
71.6303 4259 65.261
71.7464 4147 64.3972
71.8624 0 1
71.9784 0 1
72.0944 0 1
72.2102 0 1
72.3261 0 1
72.4418 0 1
72.5575 0 1
72.6732 0 1
75.1054 0 1
75.2209 0 1
75.3365 0 1
75.4521 0 1
75.5678 0 1
75.6835 0 1
75.7993 0 1
75.9151 0 1
76.031 0 1
76.147 4243 65.1383
76.263 4355 65.9924
76.3791 4335 65.8407
76.4952 4214 64.9153
76.6113 4266 65.3146
76.7276 4515 67.1937
76.8438 4491 67.0149
76.9601 4972 70.5124
77.0765 5023 70.8731
77.1929 5195 72.0763
77.3093 5192 72.0555
77.4258 5210 72.1803
77.5423 5152 71.7774
77.6589 5153 71.7844
77.7755 5134 71.6519
77.8921 4766 69.0362
78.0088 4348 65.9394
78.1256 4008 63.3088
78.2423 3748 61.2209
78.3591 3560 59.6657
78.4759 3768 61.384
78.5928 4189 64.7225
78.7097 4593 67.7717
78.8266 5129 71.617
78.9436 5061 71.1407
79.0606 5186 72.0139
79.1776 5126 71.5961
79.2946 5231 72.3257
79.4117 5291 72.7393
79.5288 5126 71.5961
79.6459 4885 69.8928
79.7631 4910 70.0714
79.8802 4844 69.5989
79.9974 4627 68.0221
80.1147 4200 64.8074
80.2319 4140 64.3428
80.3491 4297 65.5515
80.4664 4505 67.1193
80.5837 4679 68.4032
80.701 4905 70.0357
80.8183 4959 70.4202
80.9357 5057 71.1126
81.053 5016 70.8237
81.1704 5065 71.1688
81.2877 5212 72.1942
81.4051 5107 71.4633
81.5225 4877 69.8355
81.6399 4507 67.1342
81.7573 4104 64.0625
81.8747 3807 61.7009
81.9922 3624 60.1997
82.1096 3669 60.5723
82.227 3928 62.6738
82.3444 4262 65.284
82.4619 4629 68.0368
82.5793 4622 67.9853
82.6967 5102 71.4283
82.8142 5011 70.7884
82.9316 4718 68.6877
83.049 4890 69.9285
83.1664 4759 68.9855
83.2838 4681 68.4178
83.4012 4614 67.9264
83.5186 4429 66.5507
83.636 4137 64.3195
83.7534 3967 62.9841
83.8708 3835 61.9274
83.9881 3869 62.2013
84.1055 4091 63.9609
84.2228 4187 64.707
84.3401 4545 67.4166
84.4575 4648 68.1762
84.5747 4713 68.6513
84.692 4849 69.6348
84.8093 4949 70.3491
84.9265 4958 70.4131
85.0437 4937 70.2638
85.1609 4604 67.8528
85.2781 4265 65.307
85.3952 4028 63.4665
85.5123 3861 62.1369
85.6294 3592 59.9333
85.7465 3957 62.9047
85.8636 4211 64.8922
85.9806 4445 66.6708
86.0976 4834 69.527
86.2145 5060 71.1337
86.3315 5068 71.1899
86.4484 5508 74.2159
86.5652 5360 73.212
86.682 5338 73.0616
86.7988 5333 73.0274
86.9156 5188 72.0278
87.0323 4957 70.406
87.149 4938 70.2709
87.2657 4742 68.8622
87.3823 4463 66.8057
87.4988 4286 65.4675
87.6154 4529 67.2978
87.7318 4790 69.2098
87.8483 5178 71.9583
87.9647 5457 73.8715
88.081 5534 74.3909
88.1973 5823 76.3086
88.3136 5822 76.302
88.4298 5676 75.3392
88.546 5578 74.686
88.6621 5460 73.8918
88.7781 5150 71.7635
88.8942 0 1
89.0101 0 1
89.126 0 1
89.2419 0 1
89.3577 0 1
89.4734 0 1
89.5891 0 1
89.7047 0 1
89.8203 0 1
89.9358 0 1
92.3269 0 1
92.4424 0 1
92.558 0 1
92.6736 0 1
92.7893 0 1
92.905 0 1
93.0208 0 1
93.1366 0 1
93.2525 0 1
93.3685 0 1
93.4845 0 1
93.6005 5477 74.0068
93.7167 5614 74.9266
93.8328 5701 75.505
93.949 5547 74.4782
94.0653 5497 74.1418
94.1816 5358 73.1984
94.2979 5175 71.9375
94.4143 4804 69.3109
94.5307 4534 67.335
94.6472 4403 66.3551
94.7637 4449 66.7008
94.8803 4604 67.8528
94.9969 4850 69.6419
95.1135 5098 71.4003
95.2302 5510 74.2294
95.3469 5423 73.641
95.4637 5718 75.6175
95.5805 5853 76.5049
95.6973 5741 75.7694
95.8142 5869 76.6094
95.9311 5852 76.4984
96.048 5721 75.6373
96.1649 5615 74.9333
96.2819 5418 73.6071
96.3989 5229 72.3118
96.516 4870 69.7854
96.633 4503 67.1044
96.7501 4569 67.5944
96.8673 4791 69.217
96.9844 5122 71.5681
97.1016 5500 74.162
97.2188 5785 76.0592
97.336 5994 77.4209
97.4532 5990 77.3951
97.5704 5978 77.3175
97.6877 5951 77.1427
97.805 5832 76.3675
97.9223 5697 75.4785
98.0396 5163 71.854
98.1569 4848 69.6276
98.2743 4562 67.5426
98.3916 4512 67.1714
98.509 4707 68.6076
98.6264 4901 70.0071
98.7438 5371 73.2871
98.8612 5423 73.641
98.9786 5727 75.6769
99.096 5752 75.8419
99.2134 6102 78.1153
99.3308 5979 77.324
99.4482 6123 78.2496
99.5656 6164 78.5111
99.6831 6124 78.256
99.8005 5913 76.896
99.9179 5728 75.6836
100.035 5494 74.1215
100.153 5146 71.7356
100.27 4814 69.383
100.388 4825 69.4622
100.505 5168 71.8888
100.622 5621 74.9733
100.74 5837 76.4003
100.857 6112 78.1793
100.975 6218 78.8543
101.092 6324 79.5236
101.209 6340 79.6241
101.327 6200 78.7401
101.444 6218 78.8543
101.561 5849 76.4788
101.679 5494 74.1215
101.796 5109 71.4773
101.913 4898 69.9857
102.03 4885 69.8928
102.148 5296 72.7736
102.265 5847 76.4657
102.382 5536 74.4043
102.499 6053 77.801
102.616 6161 78.492
102.733 6433 80.206
102.851 6439 80.2434
102.968 6590 81.1788
103.085 6528 80.796
103.202 6506 80.6598
103.319 6271 79.1896
103.436 6117 78.2113
103.552 5912 76.8895
103.669 5470 73.9594
103.786 5176 71.9444
103.903 5137 71.6729
104.02 5446 73.797
104.137 5967 77.2464
104.253 6451 80.3181
104.37 6462 80.3866
104.487 6665 81.6395
104.603 6641 81.4923
104.72 6641 81.4923
104.836 6718 81.9634
104.953 6688 81.7802
105.069 6266 79.1581
105.186 5995 77.4274
105.302 5518 74.2832
105.418 5338 73.0616
105.535 5371 73.2871
105.651 5794 76.1183
105.767 6064 77.8717
105.883 6192 78.6893
105.999 6514 80.7094
106.115 0 1
106.231 0 1
106.347 0 1
106.463 0 1
106.579 0 1
106.694 0 1
106.81 0 1
106.926 0 1
107.041 0 1
107.157 0 1
109.576 0 1
109.692 0 1
109.807 0 1
109.923 0 1
110.039 0 1
110.155 0 1
110.27 0 1
110.386 0 1
110.502 0 1
110.618 5103 71.4353
110.735 5599 74.8265
110.851 5973 77.2852
110.967 6051 77.7882
111.083 6090 78.0385
111.199 6219 78.8606
111.316 6527 80.7899
111.432 6474 80.4612
111.549 6427 80.1686
111.665 6379 79.8686
111.782 6286 79.2843
111.898 5851 76.4918
112.015 5644 75.1266
112.132 5351 73.1505
112.248 4837 69.5485
112.365 4693 68.5055
112.482 5039 70.9859
112.599 5389 73.4098
112.716 5800 76.1577
112.832 5875 76.6485
112.949 5971 77.2722
113.066 6046 77.756
113.183 5977 77.3111
113.3 5922 76.9545
113.417 5925 76.974
113.534 5852 76.4984
113.652 5419 73.6139
113.769 5083 71.2952
113.886 4840 69.5701
114.003 4716 68.6731
114.12 4877 69.8355
114.238 4945 70.3207
114.355 5353 73.1642
114.472 5240 72.3878
114.589 5370 73.2803
114.707 5500 74.162
114.824 5593 74.7864
114.942 5700 75.4983
115.059 5843 76.4395
115.176 5719 75.6241
115.294 5698 75.4851
115.411 5357 73.1915
115.529 5388 73.403
115.646 5064 71.1618
115.764 4496 67.0522
115.881 4235 65.0769
115.999 4519 67.2235
116.116 4868 69.7711
116.234 5276 72.6361
116.351 5588 74.7529
116.469 5885 76.7138
116.586 5852 76.4984
116.704 5844 76.4461
116.821 5777 76.0066
116.939 5838 76.4068
117.056 5686 75.4056
117.174 5708 75.5513
117.291 5386 73.3894
117.409 5078 71.2601
117.526 4913 70.0928
117.644 4862 69.728
117.761 4919 70.1356
117.879 5124 71.5821
117.996 5168 71.8888
118.114 5469 73.9527
118.231 5592 74.7797
118.349 5618 74.9533
118.466 5723 75.6505
118.584 5950 77.1362
118.701 6042 77.7303
118.819 5899 76.8049
118.936 5758 75.8815
119.053 5618 74.9533
119.171 5342 73.089
119.288 5105 71.4493
119.405 4594 67.7791
119.523 4367 66.0833
119.64 4404 66.3626
119.757 4697 68.5347
119.875 5236 72.3602
119.992 5463 73.9121
120.109 5648 75.1532
120.226 5774 75.9868
120.343 5770 75.9605
120.46 6024 77.6144
120.578 5801 76.1643
120.695 5644 75.1266
120.812 5652 75.1798
120.929 5478 74.0135
121.046 5343 73.0958
121.163 5070 71.2039
121.279 4927 70.1926
121.396 4810 69.3542
121.513 4928 70.1997
121.63 5226 72.2911
121.747 5396 73.4575
121.863 5248 72.4431
121.98 5606 74.8732
122.097 5475 73.9932
122.213 5651 75.1731
122.33 5601 74.8398
122.446 5728 75.6836
122.563 5629 75.0267
122.679 5616 74.94
122.795 5570 74.6324
122.912 5349 73.1369
123.028 4980 70.5691
123.144 4552 67.4685
123.26 4344 65.909
123.377 0 1
123.493 0 1
123.609 0 1
123.725 0 1
123.84 0 1
123.956 0 1
124.072 0 1
124.188 0 1
124.303 0 1
124.419 0 1
126.852 0 1
126.968 0 1
127.083 0 1
127.199 0 1
127.315 0 1
127.431 0 1
127.547 0 1
127.663 0 1
127.779 0 1
127.895 0 1
128.011 0 1
128.127 0 1
128.243 0 1
128.359 4946 70.3278
128.476 4756 68.9638
128.592 4840 69.5701
128.708 5223 72.2703
128.825 5738 75.7496
128.941 6194 78.702
129.058 6312 79.4481
129.174 6356 79.7245
129.291 6439 80.2434
129.408 6342 79.6367
129.524 6290 79.3095
129.641 6314 79.4607
129.758 6384 79.8999
129.875 6129 78.2879
129.992 5934 77.0325
130.108 5772 75.9737
130.225 5577 74.6793
130.342 5404 73.5119
130.459 5228 72.3049
130.576 5815 76.2561
130.693 5781 76.0329
130.81 6009 77.5177
130.928 6016 77.5629
131.045 6060 77.846
131.162 6138 78.3454
131.279 6300 79.3725
131.396 6268 79.1707
131.513 6132 78.3071
131.631 6116 78.2049
131.748 5972 77.2787
131.865 5298 72.7874
131.983 4630 68.0441
132.1 4577 67.6535
132.217 4999 70.7036
132.335 5573 74.6525
132.452 5857 76.531
132.57 6058 77.8332
132.687 5899 76.8049
132.804 6396 79.975
132.922 6180 78.613
133.039 6224 78.8923
133.157 6137 78.339
133.274 6096 78.0769
133.392 5951 77.1427
133.509 5778 76.0132
133.627 5845 76.4526
133.744 5576 74.6726
133.862 5507 74.2092
133.979 5323 72.9589
134.097 5366 73.253
134.214 5684 75.3923
134.332 5619 74.96
134.449 5814 76.2496
134.567 5749 75.8222
134.684 5834 76.3806
134.802 5917 76.922
134.919 6149 78.4156
135.037 6059 77.8396
135.154 6084 78
135.272 5781 76.0329
135.389 5379 73.3417
135.507 4820 69.4262
135.624 4454 66.7383
135.742 4607 67.8749
135.859 5120 71.5542
135.977 5409 73.5459
136.094 5948 77.1233
136.211 5917 76.922
136.329 5999 77.4532
136.446 6033 77.6724
136.564 5969 77.2593
136.681 6136 78.3326
136.798 5901 76.818
136.915 6217 78.848
137.033 6119 78.224
137.15 5801 76.1643
137.267 5700 75.4983
137.384 5519 74.29
137.502 5357 73.1915
137.619 5318 72.9246
137.736 5341 73.0821
137.853 5382 73.3621
137.97 5551 74.505
138.087 5773 75.9803
138.204 5693 75.452
138.321 5916 76.9155
138.438 6005 77.4919
138.555 5955 77.1686
138.672 6025 77.6209
138.788 5930 77.0065
138.905 5661 75.2396
139.022 5396 73.4575
139.139 5080 71.2741
139.255 4539 67.3721
139.372 4613 67.9191
139.488 4931 70.2211
139.605 5332 73.0205
139.721 5742 75.776
139.838 5946 77.1103
139.954 5943 77.0909
140.071 5964 77.2269
140.187 6198 78.7274
140.303 5958 77.1881
140.419 5911 76.883
140.535 5858 76.5376
140.652 5843 76.4395
140.768 0 1
140.884 0 1
141 0 1
141.115 0 1
141.231 0 1
141.347 0 1
141.463 0 1
141.578 0 1
141.694 0 1
144.104 0 1
144.219 0 1
144.335 0 1
144.45 0 1
144.566 0 1
144.682 0 1
144.798 0 1
144.914 0 1
145.03 0 1
145.146 5201 72.118
145.262 5114 71.5122
145.378 5322 72.952
145.494 5330 73.0068
145.61 5139 71.6868
145.726 5062 71.1477
145.842 5077 71.2531
145.959 5049 71.0563
146.075 4867 69.7639
146.192 4728 68.7605
146.308 4499 67.0746
146.425 4806 69.3253
146.541 4711 68.6367
146.658 4887 69.9071
146.774 4891 69.9357
146.891 5020 70.852
147.008 4974 70.5266
147.125 4921 70.1498
147.241 4960 70.4273
147.358 4928 70.1997
147.475 4725 68.7386
147.592 4557 67.5056
147.709 4066 63.7652
147.826 3819 61.7981
147.943 3786 61.5305
148.06 4045 63.6003
148.177 4250 65.192
148.294 4760 68.9928
148.411 4882 69.8713
148.528 4863 69.7352
148.645 4900 70
148.762 4898 69.9857
148.88 4843 69.5917
148.997 4703 68.5784
149.114 5022 70.8661
149.231 4907 70.05
149.349 4729 68.7677
149.466 4722 68.7168
149.583 4498 67.0671
149.701 4492 67.0224
149.818 4490 67.0075
149.935 4325 65.7647
150.053 4355 65.9924
150.17 4386 66.2269
150.287 4454 66.7383
150.405 4566 67.5722
150.522 4628 68.0294
150.64 4681 68.4178
150.757 4736 68.8186
150.875 4611 67.9043
150.992 4598 67.8086
151.11 4323 65.7495
151.227 4272 65.3605
151.344 3954 62.8808
151.462 3519 59.3212
151.579 3574 59.7829
151.697 3786 61.5305
151.814 4246 65.1613
151.932 4500 67.082
152.049 4656 68.2349
152.167 4769 69.0579
152.284 4776 69.1086
152.402 4820 69.4262
152.519 4924 70.1712
152.636 4751 68.9275
152.754 4790 69.2098
152.871 4794 69.2387
152.989 4656 68.2349
153.106 4689 68.4763
153.223 4604 67.8528
153.341 4567 67.5796
153.458 4252 65.2074
153.575 4376 66.1513
153.693 4337 65.8559
153.81 4357 66.0076
153.927 4316 65.6963
154.044 4556 67.4981
154.162 4579 67.6683
154.279 4797 69.2604
154.396 4942 70.2994
154.513 4688 68.469
154.63 4682 68.4251
154.747 4553 67.4759
154.864 4542 67.3944
154.981 4133 64.2884
155.098 3903 62.474
155.215 3814 61.7576
155.332 4096 64
155.449 4355 65.9924
155.566 4605 67.8602
155.683 4863 69.7352
155.8 4798 69.2676
155.917 4807 69.3325
156.033 4766 69.0362
156.15 0 1
156.267 0 1
156.383 0 1
156.5 0 1
156.617 0 1
156.733 0 1
156.85 0 1
156.966 0 1
157.082 0 1
157.199 0 1
157.315 0 1
157.431 0 1
157.547 0 1
157.664 0 1
157.78 0 1
157.896 0 1
158.012 0 1
158.128 0 1
158.244 0 1
158.359 0 1
158.475 0 1
158.591 0 1
158.706 0 1
