
6.15755 0 1
6.2731 0 1
6.3887 0 1
6.50437 0 1
6.62009 0 1
6.73587 0 1
6.8517 0 1
6.96759 0 1
7.08353 0 1
7.19952 0 1
7.31557 0 1
7.43166 0 1
7.54781 0 1
7.664 0 1
7.78024 0 1
7.89653 0 1
8.01286 0 1
8.12924 0 1
8.24567 0 1
8.36213 0 1
8.47864 0 1
8.59519 0 1
8.71178 0 1
8.82841 0 1
8.94508 0 1
9.06179 0 1
9.17853 0 1
9.29531 0 1
9.41212 0 1
9.52897 0 1
9.64584 0 1
9.76276 0 1
9.8797 0 1
9.99667 0 1
10.1137 0 1
10.2307 0 1
10.3478 0 1
10.4648 0 1
10.5819 0 1
10.6991 0 1
10.8162 0 1
10.9334 0 1
11.0506 0 1
11.1678 0 1
11.285 0 1
11.4023 0 1
11.5196 0 1
11.6369 0 1
11.7542 0 1
11.8715 0 1
11.9888 0 1
12.1062 0 1
12.2235 0 1
12.3409 0 1
12.4582 0 1
12.5756 0 1
12.693 0 1
12.8104 0 1
12.9278 0 1
13.0452 0 1
13.1626 0 1
13.28 0 1
13.3974 0 1
13.5149 0 1
13.6323 0 1
13.7497 0 1
13.8671 0 1
13.9845 0 1
14.1019 0 1
14.2193 0 1
14.3367 0 1
14.4541 0 1
14.5714 0 1
14.6888 0 1
14.8062 0 1
14.9235 0 1
15.0408 0 0
15.1581 0 0
15.2755 0 0
15.3927 0 0
15.51 0 0
15.6273 0 0
15.7445 0 0
15.8617 0 0
15.9789 0 0
16.0961 0 0
16.2132 0 0
16.3304 0 0
16.4475 0 0
16.5646 0 0
16.6816 0 0
16.7986 0 0
16.9156 0 0
17.0326 0 0
17.1496 0 0
17.2665 0 0
17.3833 0 0
17.5002 0 0
17.617 0 0
17.7338 0 0
17.8505 0 0
17.9672 0 0
18.0839 0 0
18.2005 0 0
18.3171 0 0
18.4337 0 0
18.5502 0 0
18.6666 0 0
18.7831 0 0
18.8994 0 0
19.0158 0 0
19.1321 0 0
19.2483 0 0
19.3645 0 0
19.4806 0 0
19.5967 0 0
19.7128 0 0
19.8288 0 0
19.9447 0 0
20.0606 0 1
20.1764 0 1
20.2922 0 1
20.4079 0 1
20.5236 0 1
20.6392 0 1
20.7548 0 1
20.8702 0 1
23.3078 0 1
23.4233 0 1
23.539 0 1
23.6547 0 1
23.7704 0 1
23.8862 0 1
24.0021 0 1
24.118 0 1
24.234 0 1
24.35 0 1
24.4661 1428 37.7889
24.5822 1441 37.9605
24.6984 1425 37.7492
24.8146 1560 39.4968
24.9309 1469 38.3275
25.0472 1460 38.2099
25.1636 1524 39.0384
25.28 1487 38.5616
25.3965 1499 38.7169
25.513 1465 38.2753
25.6296 1480 38.4708
25.7462 1504 38.7814
25.8628 1504 38.7814
25.9795 1507 38.8201
26.0962 1587 39.8372
26.213 1573 39.6611
26.3298 1560 39.4968
26.4466 1478 38.4448
26.5635 1321 36.3456
26.6804 1270 35.6371
26.7973 1233 35.1141
26.9143 1309 36.1801
27.0313 1353 36.7831
27.1483 1498 38.704
27.2653 1430 37.8153
27.3824 1543 39.281
27.4996 1583 39.7869
27.6167 1496 38.6782
27.7339 1499 38.7169
27.8511 1453 38.1182
27.9683 1474 38.3927
28.0855 1462 38.2361
28.2028 1474 38.3927
28.3201 1416 37.6298
28.4374 1438 37.921
28.5547 1379 37.1349
28.6721 1437 37.9078
28.7894 1400 37.4166
28.9068 1388 37.2559
29.0242 1382 37.1753
29.1416 1474 38.3927
29.259 1406 37.4967
29.3764 1527 39.0768
29.4939 1408 37.5233
29.6113 1441 37.9605
29.7288 1438 37.921
29.8463 1415 37.6165
29.9638 1352 36.7696
30.0812 1295 35.9861
30.1987 1226 35.0143
30.3162 1169 34.1906
30.4337 1194 34.5543
30.5512 1340 36.606
30.6687 1389 37.2693
30.7862 1427 37.7757
30.9037 1459 38.1969
31.0212 1509 38.8458
31.1387 1494 38.6523
31.2562 1432 37.8418
31.3737 1458 38.1838
31.4912 1368 36.9865
31.6087 1466 38.2884
31.7262 1430 37.8153
31.8436 1425 37.7492
31.9611 1411 37.5633
32.0785 1394 37.3363
32.1959 1401 37.4299
32.3134 1370 37.0135
32.4308 1388 37.2559
32.5482 1393 37.3229
32.6655 1394 37.3363
32.7829 1350 36.7423
32.9002 1380 37.1484
33.0176 1439 37.9342
33.1349 1398 37.3898
33.2522 1373 37.054
33.3694 1414 37.6032
33.4867 1446 38.0263
33.6039 1281 35.7911
33.7211 1271 35.6511
33.8383 1143 33.8083
33.9554 1132 33.6452
34.0725 1173 34.2491
34.1896 1252 35.3836
34.3067 1261 35.5106
34.4237 1381 37.1618
34.5407 1347 36.7015
34.6577 1437 37.9078
34.7746 1419 37.6696
34.8915 1325 36.4005
35.0084 1319 36.318
35.1252 1315 36.2629
35.242 1350 36.7423
35.3587 1329 36.4555
35.4755 1283 35.819
35.5921 1367 36.973
35.7088 1353 36.7831
35.8254 1368 36.9865
35.9419 1289 35.9026
36.0584 1298 36.0278
36.1749 1279 35.7631
36.2913 1235 35.1426
36.4077 1325 36.4005
36.524 1285 35.8469
36.6403 1324 36.3868
36.7565 1354 36.7967
36.8727 1329 36.4555
36.9889 1385 37.2156
37.1049 1346 36.6879
37.221 0 1
37.3369 0 1
37.4529 0 1
37.5687 0 1
37.6845 0 1
37.8003 0 1
37.916 0 1
38.0316 0 1
38.1472 0 1
40.5851 0 1
40.7008 0 1
40.8164 0 1
40.9322 0 1
41.048 0 1
41.1639 0 1
41.2798 0 1
41.3958 0 1
41.5118 0 1
41.6279 0 1
41.744 964 31.0483
41.8602 1036 32.187
41.9765 1040 32.249
42.0928 1069 32.6956
42.2091 1103 33.2114
42.3255 1092 33.0454
42.4419 1054 32.4654
42.5584 909 30.1496
42.675 854 29.2233
42.7915 850 29.1548
42.9081 859 29.3087
43.0248 938 30.6268
43.1415 951 30.8383
43.2582 973 31.1929
43.375 971 31.1609
43.4918 1045 32.3265
43.6087 1047 32.3574
43.7256 987 31.4166
43.8425 999 31.607
43.9595 928 30.4631
44.0765 966 31.0805
44.1935 968 31.1127
44.3106 878 29.6311
44.4277 958 30.9516
44.5448 826 28.7402
44.6619 822 28.6705
44.7791 895 29.9166
44.8963 790 28.1069
45.0136 780 27.9285
45.1308 769 27.7308
45.2481 787 28.0535
45.3654 779 27.9106
45.4827 741 27.2213
45.6001 791 28.1247
45.7174 771 27.7669
45.8348 834 28.8791
45.9522 710 26.6458
46.0697 648 25.4558
46.1871 541 23.2594
46.3046 586 24.2074
46.422 578 24.0416
46.5395 598 24.454
46.657 703 26.5141
46.7745 672 25.923
46.892 719 26.8142
47.0096 751 27.4044
47.1271 714 26.7208
47.2446 697 26.4008
47.3622 681 26.096
47.4797 667 25.8263
47.5973 682 26.1151
47.7149 640 25.2982
47.8324 623 24.96
47.95 597 24.4336
48.0675 608 24.6577
48.1851 628 25.0599
48.3027 552 23.4947
48.4202 570 23.8747
48.5378 558 23.622
48.6554 570 23.8747
48.7729 619 24.8797
48.8904 575 23.9792
49.008 612 24.7386
49.1255 577 24.0208
49.243 565 23.7697
49.3605 569 23.8537
49.478 541 23.2594
49.5955 479 21.8861
49.713 433 20.8087
49.8304 448 21.166
49.9479 480 21.9089
50.0653 536 23.1517
50.1827 547 23.388
50.3001 558 23.622
50.4175 641 25.318
50.5348 663 25.7488
50.6521 704 26.533
50.7694 732 27.0555
50.8867 767 27.6948
51.004 717 26.7769
51.1212 765 27.6586
51.2384 728 26.9815
51.3556 798 28.2489
51.4727 769 27.7308
51.5899 747 27.3313
51.707 811 28.4781
51.824 818 28.6007
51.9411 810 28.4605
52.0581 827 28.7576
52.175 850 29.1548
52.2919 832 28.8444
52.4088 882 29.6985
52.5257 884 29.7321
52.6425 946 30.7571
52.7593 969 31.1288
52.876 942 30.692
52.9927 965 31.0644
53.1094 938 30.6268
53.226 782 27.9643
53.3426 783 27.9821
53.4591 737 27.1477
53.5756 894 29.8998
53.692 930 30.4959
53.8084 997 31.5753
53.9248 1023 31.9844
54.0411 1045 32.3265
54.1573 1137 33.7194
54.2735 0 1
54.3896 0 1
54.5057 0 1
54.6217 0 1
54.7377 0 1
54.8537 0 1
54.9695 0 1
55.0853 0 1
55.2011 0 1
55.3168 0 1
55.4324 0 1
57.824 0 1
57.9396 0 1
58.0553 0 1
58.1711 0 1
58.2869 0 1
58.4028 0 1
58.5187 0 1
58.6347 0 1
58.7508 0 1
58.8669 0 1
58.983 1180 34.3511
59.0992 1203 34.6843
59.2155 1252 35.3836
59.3318 1297 36.0139
59.4482 1343 36.647
59.5646 1342 36.6333
59.681 1341 36.6197
59.7975 1270 35.6371
59.9141 1261 35.5106
60.0306 1256 35.4401
60.1473 1250 35.3553
60.2639 1196 34.5832
60.3807 1129 33.6006
60.4974 1194 34.5543
60.6142 1170 34.2053
60.731 1146 33.8526
60.8479 1164 34.1174
60.9648 1146 33.8526
61.0818 1098 33.1361
61.1987 1171 34.2199
61.3158 1130 33.6155
61.4328 1144 33.8231
61.5499 1117 33.4215
61.667 1029 32.078
61.7841 930 30.4959
61.9013 888 29.7993
62.0185 893 29.8831
62.1357 910 30.1662
62.253 994 31.5278
62.3702 1052 32.4345
62.4875 1170 34.2053
62.6049 1219 34.9142
62.7222 1196 34.5832
62.8396 1322 36.3593
62.9569 1291 35.9305
63.0743 1344 36.6606
63.1918 1283 35.819
63.3092 1261 35.5106
63.4267 1259 35.4824
63.5441 1248 35.327
63.6616 1325 36.4005
63.7791 1218 34.8999
63.8966 1210 34.7851
64.0142 1220 34.9285
64.1317 1221 34.9428
64.2492 1220 34.9285
64.3668 1232 35.0999
64.4843 1208 34.7563
64.6019 1259 35.4824
64.7195 1255 35.426
64.837 1207 34.7419
64.9546 1257 35.4542
65.0722 1219 34.9142
65.1898 1173 34.2491
65.3074 1093 33.0606
65.4249 925 30.4138
65.5425 939 30.6431
65.6601 899 29.9833
65.7777 1016 31.8748
65.8952 1110 33.3167
66.0128 1211 34.7994
66.1304 1224 34.9857
66.2479 1329 36.4555
66.3655 1322 36.3593
66.483 1337 36.565
66.6005 1437 37.9078
66.718 1357 36.8375
66.8355 1312 36.2215
66.953 1313 36.2353
67.0705 1345 36.6742
67.1879 1255 35.426
67.3054 1187 34.4529
67.4228 1239 35.1994
67.5402 1167 34.1614
67.6576 1108 33.2866
67.7749 1137 33.7194
67.8923 1150 33.9116
68.0096 1056 32.4962
68.1269 1131 33.6303
68.2442 1129 33.6006
68.3614 1169 34.1906
68.4787 1098 33.1361
68.5958 1222 34.9571
68.713 1093 33.0606
68.8302 1076 32.8024
68.9473 1002 31.6544
69.0643 890 29.8329
69.1814 844 29.0517
69.2984 849 29.1376
69.4154 905 30.0832
69.5323 1033 32.1403
69.6492 1066 32.6497
69.7661 1194 34.5543
69.8829 1254 35.4119
69.9997 1176 34.2929
70.1165 1335 36.5377
70.2332 1277 35.7351
70.3499 1277 35.7351
70.4665 1312 36.2215
70.5831 1271 35.6511
70.6996 1242 35.242
70.8161 1137 33.7194
70.9326 1116 33.4066
71.049 1062 32.5883
71.1653 1073 32.7567
71.2817 1069 32.6956
71.3979 1005 31.7017
71.5141 1031 32.1092
71.6303 1054 32.4654
71.7464 966 31.0805
71.8624 0 1
71.9784 0 1
72.0944 0 1
72.2102 0 1
72.3261 0 1
72.4418 0 1
72.5575 0 1
72.6732 0 1
75.1054 0 1
75.2209 0 1
75.3365 0 1
75.4521 0 1
75.5678 0 1
75.6835 0 1
75.7993 0 1
75.9151 0 1
76.031 0 1
76.147 1092 33.0454
76.263 1170 34.2053
76.3791 1125 33.541
76.4952 1135 33.6898
76.6113 1045 32.3265
76.7276 1092 33.0454
76.8438 1088 32.9848
76.9601 1059 32.5423
77.0765 1139 33.7491
77.1929 1129 33.6006
77.3093 1181 34.3657
77.4258 1213 34.8281
77.5423 1167 34.1614
77.6589 1156 34
77.7755 1175 34.2783
77.8921 972 31.1769
78.0088 860 29.3258
78.1256 810 28.4605
78.2423 729 27
78.3591 728 26.9815
78.4759 774 27.8209
78.5928 974 31.209
78.7097 1036 32.187
78.8266 1061 32.573
78.9436 1229 35.0571
79.0606 1215 34.8569
79.1776 1261 35.5106
79.2946 1255 35.426
79.4117 1205 34.7131
79.5288 1254 35.4119
79.6459 1192 34.5254
79.7631 1176 34.2929
79.8802 1070 32.7109
79.9974 1016 31.8748
80.1147 1009 31.7648
80.2319 926 30.4302
80.3491 963 31.0322
80.4664 989 31.4484
80.5837 930 30.4959
80.701 944 30.7246
80.8183 981 31.3209
80.9357 973 31.1929
81.053 1002 31.6544
81.1704 998 31.5911
81.2877 991 31.4802
81.4051 954 30.8869
81.5225 896 29.9333
81.6399 799 28.2666
81.7573 774 27.8209
81.8747 687 26.2107
81.9922 672 25.923
82.1096 757 27.5136
82.227 839 28.9655
82.3444 892 29.8664
82.4619 926 30.4302
82.5793 1047 32.3574
82.6967 957 30.9354
82.8142 1006 31.7175
82.9316 1044 32.311
83.049 1068 32.6803
83.1664 1026 32.0312
83.2838 1041 32.2645
83.4012 958 30.9516
83.5186 874 29.5635
83.636 849 29.1376
83.7534 867 29.4449
83.8708 812 28.4956
83.9881 817 28.5832
84.1055 824 28.7054
84.2228 849 29.1376
84.3401 841 29
84.4575 892 29.8664
84.5747 935 30.5778
84.692 931 30.5123
84.8093 889 29.8161
84.9265 889 29.8161
85.0437 869 29.4788
85.1609 740 27.2029
85.2781 707 26.5895
85.3952 685 26.1725
85.5123 621 24.9199
85.6294 689 26.2488
85.7465 754 27.4591
85.8636 893 29.8831
85.9806 970 31.1448
86.0976 1043 32.2955
86.2145 1113 33.3617
86.3315 1174 34.2637
86.4484 1084 32.9242
86.5652 1202 34.6699
86.682 1136 33.7046
86.7988 1142 33.7935
86.9156 1080 32.8634
87.0323 1094 33.0757
87.149 1048 32.3728
87.2657 1027 32.0468
87.3823 976 31.241
87.4988 1015 31.8591
87.6154 1018 31.9061
87.7318 1019 31.9218
87.8483 1022 31.9687
87.9647 1080 32.8634
88.081 1054 32.4654
88.1973 1133 33.6601
88.3136 1175 34.2783
88.4298 1057 32.5115
88.546 1030 32.0936
88.6621 947 30.7734
88.7781 935 30.5778
88.8942 0 1
89.0101 0 1
89.126 0 1
89.2419 0 1
89.3577 0 1
89.4734 0 1
89.5891 0 1
89.7047 0 1
89.8203 0 1
89.9358 0 1
92.3269 0 1
92.4424 0 1
92.558 0 1
92.6736 0 1
92.7893 0 1
92.905 0 1
93.0208 0 1
93.1366 0 1
93.2525 0 1
93.3685 0 1
93.4845 0 1
93.6005 1033 32.1403
93.7167 1128 33.5857
93.8328 1127 33.5708
93.949 1066 32.6497
94.0653 1006 31.7175
94.1816 976 31.241
94.2979 927 30.4467
94.4143 838 28.9482
94.5307 853 29.2062
94.6472 807 28.4077
94.7637 843 29.0345
94.8803 976 31.241
94.9969 1118 33.4365
95.1135 1172 34.2345
95.2302 1150 33.9116
95.3469 1285 35.8469
95.4637 1242 35.242
95.5805 1275 35.7071
95.6973 1356 36.8239
95.8142 1264 35.5528
95.9311 1312 36.2215
96.048 1253 35.3977
96.1649 1172 34.2345
96.2819 1151 33.9264
96.3989 1115 33.3916
96.516 1121 33.4813
96.633 1104 33.2265
96.7501 1122 33.4963
96.8673 1118 33.4365
96.9844 1067 32.665
97.1016 1156 34
97.2188 1158 34.0294
97.336 1199 34.6266
97.4532 1260 35.4965
97.5704 1184 34.4093
97.6877 1021 31.9531
97.805 1030 32.0936
97.9223 941 30.6757
98.0396 860 29.3258
98.1569 828 28.775
98.2743 785 28.0179
98.3916 862 29.3598
98.509 976 31.241
98.6264 1050 32.4037
98.7438 1069 32.6956
98.8612 1178 34.322
98.9786 1305 36.1248
99.096 1328 36.4417
99.2134 1348 36.7151
99.3308 1302 36.0832
99.4482 1331 36.4829
99.5656 1248 35.327
99.6831 1253 35.3977
99.8005 1196 34.5832
99.9179 1153 33.9559
100.035 1222 34.9571
100.153 1174 34.2637
100.27 1046 32.3419
100.388 1094 33.0757
100.505 1108 33.2866
100.622 1188 34.4674
100.74 1136 33.7046
100.857 1194 34.5543
100.975 1229 35.0571
101.092 1226 35.0143
101.209 1124 33.5261
101.327 1122 33.4963
101.444 1034 32.1559
101.561 955 30.9031
101.679 835 28.8964
101.796 788 28.0713
101.913 895 29.9166
102.03 995 31.5436
102.148 1118 33.4365
102.265 1143 33.8083
102.382 1230 35.0714
102.499 1316 36.2767
102.616 1365 36.9459
102.733 1414 37.6032
102.851 1390 37.2827
102.968 1469 38.3275
103.085 1339 36.5923
103.202 1378 37.1214
103.319 1347 36.7015
103.436 1232 35.0999
103.552 1217 34.8855
103.669 1189 34.4819
103.786 1175 34.2783
103.903 1198 34.6121
104.02 1162 34.0881
104.137 1180 34.3511
104.253 1262 35.5246
104.37 1273 35.6791
104.487 1297 36.0139
104.603 1295 35.9861
104.72 1252 35.3836
104.836 1170 34.2053
104.953 1115 33.3916
105.069 1072 32.7414
105.186 902 30.0333
105.302 947 30.7734
105.418 1035 32.1714
105.535 1107 33.2716
105.651 1268 35.609
105.767 1328 36.4417
105.883 1446 38.0263
105.999 1456 38.1576
106.115 0 1
106.231 0 1
106.347 0 1
106.463 0 1
106.579 0 1
106.694 0 1
106.81 0 1
106.926 0 1
107.041 0 1
107.157 0 1
109.576 0 1
109.692 0 1
109.807 0 1
109.923 0 1
110.039 0 1
110.155 0 1
110.27 0 1
110.386 0 1
110.502 0 1
110.618 1057 32.5115
110.735 1205 34.7131
110.851 1291 35.9305
110.967 1373 37.054
111.083 1466 38.2884
111.199 1451 38.092
111.316 1432 37.8418
111.432 1455 38.1445
111.549 1444 38
111.665 1408 37.5233
111.782 1361 36.8917
111.898 1406 37.4967
112.015 1223 34.9714
112.132 1217 34.8855
112.248 1226 35.0143
112.365 1187 34.4529
112.482 1146 33.8526
112.599 1251 35.3695
112.716 1232 35.0999
112.832 1201 34.6554
112.949 1197 34.5977
113.066 1296 36
113.183 1190 34.4964
113.3 1139 33.7491
113.417 1106 33.2566
113.534 934 30.5614
113.652 931 30.5123
113.769 885 29.7489
113.886 904 30.0666
114.003 905 30.0832
114.12 1048 32.3728
114.238 1152 33.9411
114.355 1272 35.6651
114.472 1287 35.8748
114.589 1304 36.1109
114.707 1275 35.7071
114.824 1335 36.5377
114.942 1322 36.3593
115.059 1360 36.8782
115.176 1293 35.9583
115.294 1313 36.2353
115.411 1286 35.8608
115.529 1261 35.5106
115.646 1240 35.2136
115.764 1232 35.0999
115.881 1088 32.9848
115.999 1204 34.6987
116.116 1133 33.6601
116.234 1232 35.0999
116.351 1249 35.3412
116.469 1188 34.4674
116.586 1216 34.8712
116.704 1268 35.609
116.821 1224 34.9857
116.939 1219 34.9142
117.056 1110 33.3167
117.174 1044 32.311
117.291 948 30.7896
117.409 947 30.7734
117.526 958 30.9516
117.644 1034 32.1559
117.761 1188 34.4674
117.879 1291 35.9305
117.996 1379 37.1349
118.114 1314 36.2491
118.231 1367 36.973
118.349 1416 37.6298
118.466 1409 37.5366
118.584 1379 37.1349
118.701 1458 38.1838
118.819 1435 37.8814
118.936 1373 37.054
119.053 1317 36.2905
119.171 1329 36.4555
119.288 1338 36.5787
119.405 1243 35.2562
119.523 1153 33.9559
119.64 1191 34.5109
119.757 1172 34.2345
119.875 1256 35.4401
119.992 1228 35.0428
120.109 1247 35.3129
120.226 1196 34.5832
120.343 1274 35.6931
120.46 1272 35.6651
120.578 1227 35.0286
120.695 1130 33.6155
120.812 1018 31.9061
120.929 967 31.0966
121.046 973 31.1929
121.163 935 30.5778
121.279 1018 31.9061
121.396 1089 33
121.513 1223 34.9714
121.63 1372 37.0405
121.747 1301 36.0694
121.863 1380 37.1484
121.98 1413 37.5899
122.097 1408 37.5233
122.213 1389 37.2693
122.33 1399 37.4032
122.446 1395 37.3497
122.563 1324 36.3868
122.679 1320 36.3318
122.795 1290 35.9166
122.912 1250 35.3553
123.028 1151 33.9264
123.144 1270 35.6371
123.26 1099 33.1512
123.377 0 1
123.493 0 1
123.609 0 1
123.725 0 1
123.84 0 1
123.956 0 1
124.072 0 1
124.188 0 1
124.303 0 1
124.419 0 1
126.852 0 1
126.968 0 1
127.083 0 1
127.199 0 1
127.315 0 1
127.431 0 1
127.547 0 1
127.663 0 1
127.779 0 1
127.895 0 1
128.011 0 1
128.127 0 1
128.243 0 1
128.359 1296 36
128.476 1298 36.0278
128.592 1252 35.3836
128.708 1272 35.6651
128.825 1310 36.1939
128.941 1370 37.0135
129.058 1414 37.6032
129.174 1320 36.3318
129.291 1335 36.5377
129.408 1382 37.1753
129.524 1272 35.6651
129.641 1236 35.1568
129.758 1180 34.3511
129.875 1082 32.8938
129.992 1111 33.3317
130.108 1067 32.665
130.225 1170 34.2053
130.342 1317 36.2905
130.459 1346 36.6879
130.576 1397 37.3765
130.693 1442 37.9737
130.81 1464 38.2623
130.928 1516 38.9358
131.045 1490 38.6005
131.162 1507 38.8201
131.279 1510 38.8587
131.396 1536 39.1918
131.513 1454 38.1314
131.631 1434 37.8682
131.748 1383 37.1887
131.865 1376 37.0945
131.983 1333 36.5103
132.1 1373 37.054
132.217 1287 35.8748
132.335 1357 36.8375
132.452 1388 37.2559
132.57 1439 37.9342
132.687 1444 38
132.804 1449 38.0657
132.922 1431 37.8286
133.039 1360 36.8782
133.157 1318 36.3043
133.274 1267 35.5949
133.392 1124 33.5261
133.509 1109 33.3017
133.627 1157 34.0147
133.744 1139 33.7491
133.862 1247 35.3129
133.979 1311 36.2077
134.097 1401 37.4299
134.214 1415 37.6165
134.332 1467 38.3014
134.449 1502 38.7556
134.567 1543 39.281
134.684 1470 38.3406
134.802 1480 38.4708
134.919 1457 38.1707
135.037 1543 39.281
135.154 1503 38.7685
135.272 1478 38.4448
135.389 1368 36.9865
135.507 1354 36.7967
135.624 1339 36.5923
135.742 1320 36.3318
135.859 1331 36.4829
135.977 1362 36.9053
136.094 1431 37.8286
136.211 1400 37.4166
136.329 1454 38.1314
136.446 1342 36.6333
136.564 1452 38.1051
136.681 1379 37.1349
136.798 1238 35.1852
136.915 1182 34.3802
137.033 1136 33.7046
137.15 1180 34.3511
137.267 1102 33.1964
137.384 1200 34.641
137.502 1296 36
137.619 1305 36.1248
137.736 1362 36.9053
137.853 1353 36.7831
137.97 1436 37.8946
138.087 1378 37.1214
138.204 1501 38.7427
138.321 1421 37.6962
138.438 1447 38.0395
138.555 1505 38.7943
138.672 1524 39.0384
138.788 1495 38.6652
138.905 1444 38
139.022 1369 37
139.139 1326 36.4143
139.255 1319 36.318
139.372 1350 36.7423
139.488 1305 36.1248
139.605 1357 36.8375
139.721 1415 37.6165
139.838 1360 36.8782
139.954 1341 36.6197
140.071 1399 37.4032
140.187 1426 37.7624
140.303 1326 36.4143
140.419 1302 36.0832
140.535 1212 34.8138
140.652 1128 33.5857
140.768 0 1
140.884 0 1
141 0 1
141.115 0 1
141.231 0 1
141.347 0 1
141.463 0 1
141.578 0 1
141.694 0 1
144.104 0 1
144.219 0 1
144.335 0 1
144.45 0 1
144.566 0 1
144.682 0 1
144.798 0 1
144.914 0 1
145.03 0 1
145.146 1019 31.9218
145.262 1068 32.6803
145.378 1009 31.7648
145.494 989 31.4484
145.61 935 30.5778
145.726 877 29.6142
145.842 904 30.0666
145.959 866 29.4279
146.075 908 30.133
146.192 898 29.9666
146.308 951 30.8383
146.425 966 31.0805
146.541 1038 32.218
146.658 1084 32.9242
146.774 1055 32.4808
146.891 1078 32.8329
147.008 1137 33.7194
147.125 1085 32.9393
147.241 1143 33.8083
147.358 1215 34.8569
147.475 1118 33.4365
147.592 1094 33.0757
147.709 1127 33.5708
147.826 1054 32.4654
147.943 949 30.8058
148.06 973 31.1929
148.177 935 30.5778
148.294 987 31.4166
148.411 1069 32.6956
148.528 1037 32.2025
148.645 1097 33.121
148.762 1138 33.7343
148.88 1116 33.4066
148.997 1030 32.0936
149.114 1141 33.7787
149.231 1055 32.4808
149.349 1023 31.9844
149.466 1034 32.1559
149.583 982 31.3369
149.701 962 31.0161
149.818 910 30.1662
149.935 910 30.1662
150.053 967 31.0966
150.17 967 31.0966
150.287 1004 31.686
150.405 1091 33.0303
150.522 1030 32.0936
150.64 1129 33.6006
150.757 1153 33.9559
150.875 1152 33.9411
150.992 1204 34.6987
151.11 1205 34.7131
151.227 1152 33.9411
151.344 1081 32.8786
151.462 1166 34.1467
151.579 1077 32.8177
151.697 1056 32.4962
151.814 1082 32.8938
151.932 1004 31.686
152.049 1032 32.1248
152.167 1143 33.8083
152.284 1095 33.0908
152.402 1125 33.541
152.519 1118 33.4365
152.636 1048 32.3728
152.754 1148 33.8821
152.871 1132 33.6452
152.989 1016 31.8748
153.106 1034 32.1559
153.223 997 31.5753
153.341 1007 31.7333
153.458 991 31.4802
153.575 985 31.3847
153.693 1014 31.8434
153.81 1027 32.0468
153.927 1103 33.2114
154.044 1164 34.1174
154.162 1134 33.6749
154.279 1225 35
154.396 1235 35.1426
154.513 1231 35.0856
154.63 1252 35.3836
154.747 1286 35.8608
154.864 1190 34.4964
154.981 1313 36.2353
155.098 1237 35.171
155.215 1202 34.6699
155.332 1217 34.8855
155.449 1058 32.5269
155.566 1116 33.4066
155.683 1244 35.2704
155.8 1252 35.3836
155.917 1221 34.9428
156.033 1189 34.4819
156.15 0 1
156.267 0 1
156.383 0 1
156.5 0 1
156.617 0 1
156.733 0 1
156.85 0 1
156.966 0 1
157.082 0 1
157.199 0 1
157.315 0 1
157.431 0 1
157.547 0 1
157.664 0 1
157.78 0 1
157.896 0 1
158.012 0 1
158.128 0 1
158.244 0 1
158.359 0 1
158.475 0 1
158.591 0 1
158.706 0 1
