
6.15755 0 1
6.2731 0 1
6.3887 0 1
6.50437 0 1
6.62009 0 1
6.73587 0 1
6.8517 0 1
6.96759 0 1
7.08353 0 1
7.19952 0 1
7.31557 0 1
7.43166 0 1
7.54781 0 1
7.664 0 1
7.78024 0 1
7.89653 0 1
8.01286 0 1
8.12924 0 1
8.24567 0 1
8.36213 0 1
8.47864 0 1
8.59519 0 1
8.71178 0 1
8.82841 0 1
8.94508 0 1
9.06179 0 1
9.17853 0 1
9.29531 0 1
9.41212 0 1
9.52897 0 1
9.64584 0 1
9.76276 0 1
9.8797 0 1
9.99667 0 1
10.1137 0 1
10.2307 0 1
10.3478 0 1
10.4648 0 1
10.5819 0 1
10.6991 0 1
10.8162 0 1
10.9334 0 1
11.0506 0 1
11.1678 0 1
11.285 0 1
11.4023 0 1
11.5196 0 1
11.6369 0 1
11.7542 0 1
11.8715 0 1
11.9888 0 1
12.1062 0 1
12.2235 0 1
12.3409 0 1
12.4582 0 1
12.5756 0 1
12.693 0 1
12.8104 0 1
12.9278 0 1
13.0452 0 1
13.1626 0 1
13.28 0 1
13.3974 0 1
13.5149 0 1
13.6323 0 1
13.7497 0 1
13.8671 0 1
13.9845 0 1
14.1019 0 1
14.2193 0 1
14.3367 0 1
14.4541 0 1
14.5714 0 1
14.6888 0 1
14.8062 0 1
14.9235 0 1
15.0408 0 0
15.1581 0 0
15.2755 0 0
15.3927 0 0
15.51 0 0
15.6273 0 0
15.7445 0 0
15.8617 0 0
15.9789 0 0
16.0961 0 0
16.2132 0 0
16.3304 0 0
16.4475 0 0
16.5646 0 0
16.6816 0 0
16.7986 0 0
16.9156 0 0
17.0326 0 0
17.1496 0 0
17.2665 0 0
17.3833 0 0
17.5002 0 0
17.617 0 0
17.7338 0 0
17.8505 0 0
17.9672 0 0
18.0839 0 0
18.2005 0 0
18.3171 0 0
18.4337 0 0
18.5502 0 0
18.6666 0 0
18.7831 0 0
18.8994 0 0
19.0158 0 0
19.1321 0 0
19.2483 0 0
19.3645 0 0
19.4806 0 0
19.5967 0 0
19.7128 0 0
19.8288 0 0
19.9447 0 0
20.0606 0 1
20.1764 0 1
20.2922 0 1
20.4079 0 1
20.5236 0 1
20.6392 0 1
20.7548 0 1
20.8702 0 1
23.3078 0 1
23.4233 0 1
23.539 0 1
23.6547 0 1
23.7704 0 1
23.8862 0 1
24.0021 0 1
24.118 0 1
24.234 0 1
24.35 0 1
24.4661 13109 114.495
24.5822 13158 114.708
24.6984 13337 115.486
24.8146 13500 116.19
24.9309 13900 117.898
25.0472 13936 118.051
25.1636 14504 120.433
25.28 14885 122.004
25.3965 15178 123.199
25.513 15709 125.336
25.6296 16411 128.105
25.7462 16430 128.18
25.8628 16492 128.421
25.9795 16534 128.585
26.0962 16736 129.368
26.213 16422 128.148
26.3298 16561 128.69
26.4466 16529 128.565
26.5635 16245 127.456
26.6804 15944 126.27
26.7973 15575 124.8
26.9143 15076 122.784
27.0313 14588 120.781
27.1483 14421 120.087
27.2653 14247 119.361
27.3824 14267 119.445
27.4996 13920 117.983
27.6167 13633 116.76
27.7339 12919 113.662
27.8511 12265 110.747
27.9683 12101 110.005
28.0855 11568 107.555
28.2028 11723 108.273
28.3201 11412 106.827
28.4374 11487 107.177
28.5547 11488 107.182
28.6721 11728 108.296
28.7894 11916 109.16
28.9068 12119 110.086
29.0242 12051 109.777
29.1416 12120 110.091
29.259 12135 110.159
29.3764 12095 109.977
29.4939 12003 109.558
29.6113 11975 109.43
29.7288 11754 108.416
29.8463 11901 109.092
29.9638 11627 107.829
30.0812 11477 107.131
30.1987 11525 107.355
30.3162 11156 105.622
30.4337 10961 104.695
30.5512 10779 103.822
30.6687 10549 102.708
30.7862 10411 102.034
30.9037 10577 102.845
31.0212 10832 104.077
31.1387 10684 103.363
31.2562 10181 100.901
31.3737 9895 99.4736
31.4912 9814 99.0656
31.6087 9579 97.8724
31.7262 9567 97.811
31.8436 9590 97.9285
31.9611 9740 98.6914
32.0785 9640 98.1835
32.1959 10025 100.125
32.3134 10421 102.083
32.4308 10345 101.71
32.5482 10610 103.005
32.6655 10965 104.714
32.7829 10912 104.461
32.9002 10971 104.743
33.0176 10927 104.532
33.1349 11201 105.835
33.2522 10734 103.605
33.3694 11125 105.475
33.4867 10979 104.781
33.6039 10857 104.197
33.7211 10903 104.417
33.8383 11075 105.238
33.9554 10895 104.379
34.0725 10620 103.053
34.1896 10234 101.163
34.3067 9926 99.6293
34.4237 10142 100.707
34.5407 10000 100
34.6577 10287 101.425
34.7746 9956 99.7798
34.8915 9850 99.2472
35.0084 9491 97.4218
35.1252 9373 96.8143
35.242 9055 95.1578
35.3587 9103 95.4096
35.4755 9214 95.9896
35.5921 9500 97.4679
35.7088 9428 97.0979
35.8254 9573 97.8417
35.9419 10005 100.025
36.0584 10221 101.099
36.1749 10229 101.139
36.2913 10328 101.627
36.4077 10503 102.484
36.524 10644 103.17
36.6403 10686 103.373
36.7565 10605 102.981
36.8727 10576 102.84
36.9889 10664 103.267
37.1049 10277 101.376
37.221 0 1
37.3369 0 1
37.4529 0 1
37.5687 0 1
37.6845 0 1
37.8003 0 1
37.916 0 1
38.0316 0 1
38.1472 0 1
40.5851 0 1
40.7008 0 1
40.8164 0 1
40.9322 0 1
41.048 0 1
41.1639 0 1
41.2798 0 1
41.3958 0 1
41.5118 0 1
41.6279 0 1
41.744 8458 91.9674
41.8602 8558 92.5095
41.9765 8755 93.5682
42.0928 8763 93.6109
42.2091 8856 94.1063
42.3255 8657 93.043
42.4419 8845 94.0479
42.5584 8940 94.5516
42.675 8822 93.9255
42.7915 8718 93.3702
42.9081 8395 91.6242
43.0248 8098 89.9889
43.1415 8071 89.8387
43.2582 8170 90.3881
43.375 8110 90.0555
43.4918 8409 91.7006
43.6087 8289 91.0439
43.7256 8004 89.4651
43.8425 7702 87.761
43.9595 7313 85.5161
44.0765 7174 84.6995
44.1935 7125 84.4097
44.3106 7116 84.3564
44.4277 7221 84.9765
44.5448 7299 85.4342
44.6619 7412 86.093
44.7791 7545 86.862
44.8963 7798 88.3063
45.0136 7591 87.1263
45.1308 7643 87.4243
45.2481 7648 87.4528
45.3654 7481 86.4928
45.4827 7474 86.4523
45.6001 7469 86.4234
45.7174 7396 86
45.8348 7202 84.8646
45.9522 7311 85.5044
46.0697 7279 85.3171
46.1871 7223 84.9882
46.3046 7072 84.0952
46.422 6843 82.7224
46.5395 6513 80.7032
46.657 6108 78.1537
46.7745 6042 77.7303
46.892 6089 78.032
47.0096 6233 78.9494
47.1271 6306 79.4103
47.2446 6109 78.1601
47.3622 5880 76.6812
47.4797 5658 75.2197
47.5973 5505 74.1957
47.7149 5575 74.6659
47.8324 5305 72.8354
47.95 5381 73.3553
48.0675 5508 74.2159
48.1851 5752 75.8419
48.3027 5772 75.9737
48.4202 5894 76.7724
48.5378 5834 76.3806
48.6554 5757 75.8749
48.7729 5921 76.948
48.8904 5756 75.8683
49.008 5769 75.9539
49.1255 5937 77.0519
49.243 6156 78.4602
49.3605 6209 78.7972
49.478 6218 78.8543
49.5955 6269 79.177
49.713 6197 78.721
49.8304 6264 79.1454
49.9479 6105 78.1345
50.0653 6125 78.2624
50.1827 5937 77.0519
50.3001 5834 76.3806
50.4175 6100 78.1025
50.5348 6066 77.8845
50.6521 6522 80.7589
50.7694 6626 81.4002
50.8867 6667 81.6517
51.004 6660 81.6088
51.1212 6607 81.2835
51.2384 6820 82.5833
51.3556 6998 83.654
51.4727 7046 83.9405
51.5899 7413 86.0988
51.707 7676 87.6128
51.824 8073 89.8499
51.9411 8120 90.111
52.0581 8371 91.4932
52.175 8362 91.444
52.2919 8489 92.1358
52.4088 8646 92.9839
52.5257 8794 93.7763
52.6425 8719 93.3756
52.7593 8762 93.6056
52.876 8923 94.4616
52.9927 9022 94.9842
53.1094 9027 95.0105
53.226 9187 95.8488
53.3426 9325 96.566
53.4591 9324 96.5609
53.5756 9098 95.3834
53.692 8926 94.4775
53.8084 8747 93.5254
53.9248 8490 92.1412
54.0411 8413 91.7224
54.1573 8681 93.1719
54.2735 0 1
54.3896 0 1
54.5057 0 1
54.6217 0 1
54.7377 0 1
54.8537 0 1
54.9695 0 1
55.0853 0 1
55.2011 0 1
55.3168 0 1
55.4324 0 1
57.824 0 1
57.9396 0 1
58.0553 0 1
58.1711 0 1
58.2869 0 1
58.4028 0 1
58.5187 0 1
58.6347 0 1
58.7508 0 1
58.8669 0 1
58.983 9974 99.8699
59.0992 9883 99.4133
59.2155 10030 100.15
59.3318 10039 100.195
59.4482 10105 100.524
59.5646 10246 101.223
59.681 10290 101.44
59.7975 10077 100.384
59.9141 9998 99.99
60.0306 10367 101.818
60.1473 10598 102.947
60.2639 10772 103.788
60.3807 10704 103.46
60.4974 10903 104.417
60.6142 10993 104.848
60.731 11002 104.89
60.8479 11274 106.179
60.9648 10649 103.194
61.0818 10919 104.494
61.1987 10750 103.682
61.3158 10839 104.111
61.4328 10834 104.087
61.5499 10759 103.726
61.667 10612 103.015
61.7841 10445 102.201
61.9013 10611 103.01
62.0185 10502 102.479
62.1357 10375 101.858
62.253 10034 100.17
62.3702 9800 98.9949
62.4875 9345 96.6695
62.6049 9477 97.3499
62.7222 9517 97.5551
62.8396 9584 97.8979
62.9569 9717 98.5748
63.0743 9430 97.1082
63.1918 9422 97.067
63.3092 9292 96.395
63.4267 9407 96.9897
63.5441 9755 98.7674
63.6616 9756 98.7725
63.7791 10132 100.658
63.8966 10156 100.777
64.0142 10226 101.124
64.1317 10034 100.17
64.2492 10073 100.364
64.3668 10041 100.205
64.4843 10047 100.235
64.6019 10102 100.509
64.7195 9854 99.2673
64.837 10042 100.21
64.9546 9843 99.2119
65.0722 9905 99.5239
65.1898 9746 98.7218
65.3074 9999 99.995
65.4249 9632 98.1428
65.5425 9756 98.7725
65.6601 9769 98.8383
65.7777 9641 98.1886
65.8952 9245 96.1509
66.0128 8894 94.308
66.1304 8659 93.0537
66.2479 8651 93.0108
66.3655 8564 92.5419
66.483 8794 93.7763
66.6005 8882 94.2444
66.718 8976 94.7418
66.8355 8914 94.414
66.953 8940 94.5516
67.0705 9225 96.0469
67.1879 9397 96.9381
67.3054 9606 98.0102
67.4228 9706 98.519
67.5402 9747 98.7269
67.6576 9673 98.3514
67.7749 9535 97.6473
67.8923 9720 98.5901
68.0096 9631 98.1377
68.1269 9746 98.7218
68.2442 9878 99.3881
68.3614 9778 98.8838
68.4787 9783 98.909
68.5958 9841 99.2018
68.713 9837 99.1817
68.8302 9939 99.6945
68.9473 9785 98.9192
69.0643 9792 98.9545
69.1814 9891 99.4535
69.2984 9893 99.4636
69.4154 9924 99.6193
69.5323 9861 99.3026
69.6492 9496 97.4474
69.7661 9156 95.687
69.8829 8797 93.7923
69.9997 8913 94.4087
70.1165 8977 94.747
70.2332 9262 96.2393
70.3499 9276 96.312
70.4665 9305 96.4624
70.5831 9318 96.5298
70.6996 9366 96.7781
70.8161 9670 98.3362
70.9326 9949 99.7447
71.049 10018 100.09
71.1653 9875 99.373
71.2817 9780 98.8939
71.3979 9799 98.9899
71.5141 9611 98.0357
71.6303 9322 96.5505
71.7464 8529 92.3526
71.8624 0 1
71.9784 0 1
72.0944 0 1
72.2102 0 1
72.3261 0 1
72.4418 0 1
72.5575 0 1
72.6732 0 1
75.1054 0 1
75.2209 0 1
75.3365 0 1
75.4521 0 1
75.5678 0 1
75.6835 0 1
75.7993 0 1
75.9151 0 1
76.031 0 1
76.147 8531 92.3634
76.263 9459 97.2574
76.3791 9621 98.0867
76.4952 9720 98.5901
76.6113 9556 97.7548
76.7276 9894 99.4686
76.8438 9770 98.8433
76.9601 9533 97.6371
77.0765 9625 98.1071
77.1929 9721 98.5951
77.3093 9723 98.6053
77.4258 9539 97.6678
77.5423 9659 98.2802
77.6589 9667 98.3209
77.7755 9737 98.6762
77.8921 9735 98.6661
78.0088 9657 98.27
78.1256 9532 97.632
78.2423 9544 97.6934
78.3591 9515 97.5449
78.4759 9541 97.678
78.5928 9334 96.6126
78.7097 8757 93.5788
78.8266 8469 92.0272
78.9436 7247 85.1293
79.0606 7445 86.2844
79.1776 7589 87.1149
79.2946 8221 90.6697
79.4117 8548 92.4554
79.5288 8806 93.8403
79.6459 9017 94.9579
79.7631 9225 96.0469
79.8802 9038 95.0684
79.9974 9243 96.1405
80.1147 9090 95.3415
80.2319 8979 94.7576
80.3491 9181 95.8175
80.4664 9174 95.781
80.5837 8782 93.7123
80.701 8744 93.5094
80.8183 8912 94.4034
80.9357 8918 94.4352
81.053 8979 94.7576
81.1704 8782 93.7123
81.2877 8644 92.9731
81.4051 8802 93.819
81.5225 8742 93.4987
81.6399 8485 92.1141
81.7573 8826 93.9468
81.8747 8684 93.188
81.9922 8620 92.844
82.1096 8342 91.3345
82.227 8401 91.657
82.3444 8366 91.4658
82.4619 7865 88.6848
82.5793 7059 84.0179
82.6967 6784 82.365
82.8142 6625 81.3941
82.9316 7151 84.5636
83.049 7584 87.0862
83.1664 7618 87.2812
83.2838 7915 88.9663
83.4012 8049 89.7162
83.5186 8076 89.8666
83.636 8006 89.4763
83.7534 7865 88.6848
83.8708 7931 89.0562
83.9881 7915 88.9663
84.1055 8154 90.2995
84.2228 7661 87.5271
84.3401 7939 89.1011
84.4575 7782 88.2156
84.5747 7826 88.4647
84.692 7882 88.7806
84.8093 7815 88.4025
84.9265 7870 88.713
85.0437 7753 88.0511
85.1609 7932 89.0618
85.2781 7656 87.4986
85.3952 7863 88.6736
85.5123 7882 88.7806
85.6294 7812 88.3855
85.7465 7936 89.0842
85.8636 8040 89.666
85.9806 7869 88.7074
86.0976 7320 85.557
86.2145 6264 79.1454
86.3315 5889 76.7398
86.4484 6634 81.4494
86.5652 7332 85.6271
86.682 7831 88.4929
86.7988 8071 89.8387
86.9156 7982 89.342
87.0323 8111 90.0611
87.149 7973 89.2917
87.2657 7969 89.2693
87.3823 8035 89.6382
87.4988 7926 89.0281
87.6154 8119 90.1055
87.7318 7957 89.202
87.8483 7911 88.9438
87.9647 7886 88.8032
88.081 8074 89.8554
88.1973 8290 91.0494
88.3136 8092 89.9555
88.4298 7901 88.8876
88.546 7915 88.9663
88.6621 7680 87.6356
88.7781 7711 87.8123
88.8942 0 1
89.0101 0 1
89.126 0 1
89.2419 0 1
89.3577 0 1
89.4734 0 1
89.5891 0 1
89.7047 0 1
89.8203 0 1
89.9358 0 1
92.3269 0 1
92.4424 0 1
92.558 0 1
92.6736 0 1
92.7893 0 1
92.905 0 1
93.0208 0 1
93.1366 0 1
93.2525 0 1
93.3685 0 1
93.4845 0 1
93.6005 6236 78.9683
93.7167 6101 78.1089
93.8328 6100 78.1025
93.949 6114 78.1921
94.0653 6048 77.7689
94.1816 5843 76.4395
94.2979 5763 75.9144
94.4143 5817 76.2693
94.5307 5835 76.3872
94.6472 5650 75.1665
94.7637 5462 73.9053
94.8803 5584 74.7262
94.9969 5452 73.8377
95.1135 5200 72.111
95.2302 5145 71.7287
95.3469 4545 67.4166
95.4637 3912 62.546
95.5805 3711 60.918
95.6973 4602 67.838
95.8142 5158 71.8192
95.9311 5067 71.1829
96.048 5117 71.5332
96.1649 4947 70.3349
96.2819 4917 70.1213
96.3989 4841 69.5773
96.516 4654 68.2202
96.633 4659 68.2569
96.7501 4508 67.1416
96.8673 4408 66.3928
96.9844 4291 65.5057
97.1016 4210 64.8845
97.2188 4139 64.3351
97.336 4029 63.4744
97.4532 4033 63.5059
97.5704 4006 63.293
97.6877 3752 61.2536
97.805 3766 61.3677
97.9223 3572 59.7662
98.0396 3427 58.5406
98.1569 3482 59.0085
98.2743 3198 56.5509
98.3916 3142 56.0535
98.509 3003 54.7996
98.6264 3000 54.7723
98.7438 2938 54.2033
98.8612 2787 52.792
98.9786 2527 50.2693
99.096 2022 44.9667
99.2134 1876 43.3128
99.3308 2168 46.5618
99.4482 2477 49.7695
99.5656 2467 49.6689
99.6831 2412 49.1121
99.8005 2233 47.2546
99.9179 2231 47.2335
100.035 2155 46.422
100.153 2147 46.3357
100.27 2092 45.7384
100.388 2070 45.4973
100.505 2071 45.5082
100.622 2126 46.1086
100.74 2078 45.5851
100.857 2286 47.8121
100.975 2319 48.156
101.092 2386 48.8467
101.209 2392 48.9081
101.327 2605 51.0392
101.444 2608 51.0686
101.561 2702 51.9808
101.679 2852 53.4041
101.796 2790 52.8205
101.913 2905 53.8981
102.03 2994 54.7175
102.148 3185 56.4358
102.265 3426 58.532
102.382 3122 55.8749
102.499 3224 56.7803
102.616 2570 50.6952
102.733 2371 48.6929
102.851 3239 56.9122
102.968 3944 62.8013
103.085 4182 64.6684
103.202 4122 64.2028
103.319 4183 64.6761
103.436 4358 66.0151
103.552 4459 66.7757
103.669 4432 66.5733
103.786 4579 67.6683
103.903 4636 68.0882
104.02 4677 68.3886
104.137 4754 68.9493
104.253 5058 71.1196
104.37 4923 70.1641
104.487 5243 72.4086
104.603 5244 72.4155
104.72 5347 73.1232
104.836 5533 74.3841
104.953 5495 74.1283
105.069 5529 74.3572
105.186 5626 75.0067
105.302 5840 76.4199
105.418 5723 75.6505
105.535 5998 77.4468
105.651 6012 77.5371
105.767 6090 78.0385
105.883 5586 74.7395
105.999 4470 66.8581
106.115 0 1
106.231 0 1
106.347 0 1
106.463 0 1
106.579 0 1
106.694 0 1
106.81 0 1
106.926 0 1
107.041 0 1
107.157 0 1
109.576 0 1
109.692 0 1
109.807 0 1
109.923 0 1
110.039 0 1
110.155 0 1
110.27 0 1
110.386 0 1
110.502 0 1
110.618 5788 76.0789
110.735 5842 76.433
110.851 5667 75.2795
110.967 5126 71.5961
111.083 4464 66.8132
111.199 4322 65.7419
111.316 4934 70.2424
111.432 5704 75.5248
111.549 6110 78.1665
111.665 6160 78.4857
111.782 6111 78.1729
111.898 6064 77.8717
112.015 5976 77.3046
112.132 5777 76.0066
112.248 6072 77.923
112.365 5902 76.8245
112.482 5765 75.9276
112.599 5500 74.162
112.716 5554 74.5252
112.832 5510 74.2294
112.949 5468 73.9459
113.066 5478 74.0135
113.183 5387 73.3962
113.3 5339 73.0685
113.417 5268 72.581
113.534 5153 71.7844
113.652 5053 71.0845
113.769 5169 71.8958
113.886 4866 69.7567
114.003 4915 70.1071
114.12 4909 70.0643
114.238 4731 68.7823
114.355 4559 67.5204
114.472 4311 65.6582
114.589 3676 60.63
114.707 3225 56.7891
114.824 3286 57.3236
114.942 3738 61.1392
115.059 4271 65.3529
115.176 4371 66.1135
115.294 4423 66.5056
115.411 4380 66.1816
115.529 4275 65.3835
115.646 4179 64.6452
115.764 4104 64.0625
115.881 4017 63.3798
115.999 4003 63.2693
116.116 3987 63.1427
116.234 3890 62.3699
116.351 3799 61.636
116.469 3915 62.57
116.586 3635 60.291
116.704 3709 60.9016
116.821 3690 60.7454
116.939 3709 60.9016
117.056 3468 58.8897
117.174 3472 58.9237
117.291 3532 59.4306
117.409 3361 57.9741
117.526 3422 58.4979
117.644 3241 56.9298
117.761 3432 58.5833
117.879 3156 56.1783
117.996 3169 56.2939
118.114 3331 57.7148
118.231 3108 55.7494
118.349 2716 52.1153
118.466 2550 50.4975
118.584 2673 51.7011
118.701 2981 54.5985
118.819 3152 56.1427
118.936 3082 55.5158
119.053 3082 55.5158
119.171 2988 54.6626
119.288 3040 55.1362
119.405 2933 54.1572
119.523 2934 54.1664
119.64 2821 53.1131
119.757 3028 55.0273
119.875 2918 54.0185
119.992 2764 52.5738
120.109 2879 53.6563
120.226 2822 53.1225
120.343 2833 53.2259
120.46 2794 52.8583
120.578 2803 52.9434
120.695 2770 52.6308
120.812 2753 52.469
120.929 2850 53.3854
121.046 2879 53.6563
121.163 2807 52.9811
121.279 2727 52.2207
121.396 2574 50.7346
121.513 2303 47.9896
121.63 2078 45.5851
121.747 2167 46.551
121.863 2535 50.3488
121.98 2748 52.4214
122.097 2737 52.3163
122.213 2624 51.225
122.33 2608 51.0686
122.446 2759 52.5262
122.563 2896 53.8145
122.679 2891 53.768
122.795 2809 53
122.912 3037 55.109
123.028 2935 54.1756
123.144 2808 52.9906
123.26 2874 53.6097
123.377 0 1
123.493 0 1
123.609 0 1
123.725 0 1
123.84 0 1
123.956 0 1
124.072 0 1
124.188 0 1
124.303 0 1
124.419 0 1
126.852 0 1
126.968 0 1
127.083 0 1
127.199 0 1
127.315 0 1
127.431 0 1
127.547 0 1
127.663 0 1
127.779 0 1
127.895 0 1
128.011 0 1
128.127 0 1
128.243 0 1
128.359 4185 64.6916
128.476 4140 64.3428
128.592 4238 65.0999
128.708 4353 65.9773
128.825 4254 65.2227
128.941 4295 65.5362
129.058 4370 66.106
129.174 4393 66.2797
129.291 4376 66.1513
129.408 4407 66.3852
129.524 4563 67.55
129.641 4515 67.1937
129.758 4558 67.513
129.875 4657 68.2422
129.992 4604 67.8528
130.108 4276 65.3911
130.225 4057 63.6946
130.342 3638 60.3158
130.459 3017 54.9272
130.576 2705 52.0096
130.693 2554 50.5371
130.81 3314 57.5674
130.928 4293 65.521
131.045 4817 69.4046
131.162 4968 70.484
131.279 5027 70.9013
131.396 5074 71.232
131.513 5065 71.1688
131.631 5032 70.9366
131.748 5199 72.1041
131.865 5096 71.3863
131.983 5296 72.7736
132.1 5240 72.3878
132.217 5390 73.4166
132.335 5283 72.6842
132.452 5182 71.9861
132.57 5394 73.4439
132.687 5241 72.3948
132.804 5473 73.9797
132.922 5339 73.0685
133.039 5396 73.4575
133.157 5559 74.5587
133.274 5625 75
133.392 5531 74.3707
133.509 5465 73.9256
133.627 5248 72.4431
133.744 5100 71.4143
133.862 4441 66.6408
133.979 4043 63.5846
134.097 3496 59.127
134.214 3344 57.8273
134.332 3266 57.1489
134.449 4066 63.7652
134.567 5144 71.7217
134.684 5674 75.326
134.802 5879 76.6746
134.919 5872 76.629
135.037 6168 78.5366
135.154 5978 77.3175
135.272 6102 78.1153
135.389 5967 77.2464
135.507 6171 78.5557
135.624 6251 79.0633
135.742 6237 78.9747
135.859 6247 79.038
135.977 6232 78.943
136.094 6351 79.6932
136.211 6326 79.5362
136.329 6386 79.9125
136.446 6389 79.9312
136.564 6236 78.9683
136.681 6469 80.4301
136.798 6502 80.635
136.915 6406 80.0375
137.033 6419 80.1187
137.15 6248 79.0443
137.267 6100 78.1025
137.384 5648 75.1532
137.502 5299 72.7942
137.619 4689 68.4763
137.736 4336 65.8483
137.853 4004 63.2772
137.97 4007 63.3009
138.087 4665 68.3008
138.204 5504 74.1889
138.321 6262 79.1328
138.438 6853 82.7828
138.555 6980 83.5464
138.672 7086 84.1784
138.788 7116 84.3564
138.905 7166 84.6522
139.022 6999 83.66
139.139 7149 84.5518
139.255 7153 84.5754
139.372 7196 84.8292
139.488 7212 84.9235
139.605 7192 84.8057
139.721 7115 84.3505
139.838 7170 84.6759
139.954 7394 85.9884
140.071 7112 84.3327
140.187 7194 84.8175
140.303 7276 85.2995
140.419 7325 85.5862
140.535 7248 85.1352
140.652 7041 83.9107
140.768 0 1
140.884 0 1
141 0 1
141.115 0 1
141.231 0 1
141.347 0 1
141.463 0 1
141.578 0 1
141.694 0 1
144.104 0 1
144.219 0 1
144.335 0 1
144.45 0 1
144.566 0 1
144.682 0 1
144.798 0 1
144.914 0 1
145.03 0 1
145.146 6979 83.5404
145.262 7117 84.3623
145.378 7161 84.6227
145.494 7197 84.8351
145.61 6966 83.4626
145.726 6954 83.3906
145.842 6539 80.8641
145.959 6124 78.256
146.075 5822 76.302
146.192 5520 74.2967
146.308 5343 73.0958
146.425 5087 71.3232
146.541 5057 71.1126
146.658 5211 72.1873
146.774 5535 74.3976
146.891 5959 77.1946
147.008 6605 81.2712
147.125 7152 84.5695
147.241 7241 85.0941
147.358 7358 85.7788
147.475 7306 85.4751
147.592 7363 85.8079
147.709 7311 85.5044
147.826 7170 84.6759
147.943 7222 84.9824
148.06 7197 84.8351
148.177 7105 84.2912
148.294 7199 84.8469
148.411 7357 85.773
148.528 7386 85.9418
148.645 7440 86.2554
148.762 7223 84.9882
148.88 7261 85.2115
148.997 6790 82.4015
149.114 7362 85.8021
149.231 7039 83.8987
149.349 6841 82.7103
149.466 6706 81.8902
149.583 6101 78.1089
149.701 5865 76.5833
149.818 5690 75.4321
149.935 5511 74.2361
150.053 5433 73.7089
150.17 5535 74.3976
150.287 5535 74.3976
150.405 5883 76.7007
150.522 6219 78.8606
150.64 6562 81.0062
150.757 7043 83.9226
150.875 7435 86.2264
150.992 7560 86.9483
151.11 7365 85.8196
151.227 7387 85.9477
151.344 7406 86.0581
151.462 7398 86.0116
151.579 7334 85.6388
151.697 7556 86.9253
151.814 7486 86.5217
151.932 7514 86.6833
152.049 7455 86.3423
152.167 7465 86.4002
152.284 7456 86.3481
152.402 7700 87.7496
152.519 7531 86.7813
152.636 7375 85.8778
152.754 7254 85.1704
152.871 7348 85.7205
152.989 6946 83.3427
153.106 6699 81.8474
153.223 6513 80.7032
153.341 6228 78.9177
153.458 5913 76.896
153.575 5660 75.233
153.693 5635 75.0666
153.81 5876 76.6551
153.927 6050 77.7817
154.044 6293 79.3284
154.162 6798 82.45
154.279 7066 84.0595
154.396 7614 87.2582
154.513 7607 87.2181
154.63 7762 88.1022
154.747 7725 87.892
154.864 7964 89.2412
154.981 7998 89.4315
155.098 7832 88.4986
155.215 7838 88.5325
155.332 7763 88.1079
155.449 7778 88.193
155.566 7902 88.8932
155.683 7774 88.1703
155.8 7784 88.227
155.917 8024 89.5768
156.033 7798 88.3063
156.15 0 1
156.267 0 1
156.383 0 1
156.5 0 1
156.617 0 1
156.733 0 1
156.85 0 1
156.966 0 1
157.082 0 1
157.199 0 1
157.315 0 1
157.431 0 1
157.547 0 1
157.664 0 1
157.78 0 1
157.896 0 1
158.012 0 1
158.128 0 1
158.244 0 1
158.359 0 1
158.475 0 1
158.591 0 1
158.706 0 1
