
6.15755 0 1
6.2731 0 1
6.3887 0 1
6.50437 0 1
6.62009 0 1
6.73587 0 1
6.8517 0 1
6.96759 0 1
7.08353 0 1
7.19952 0 1
7.31557 0 1
7.43166 0 1
7.54781 0 1
7.664 0 1
7.78024 0 1
7.89653 0 1
8.01286 0 1
8.12924 0 1
8.24567 0 1
8.36213 0 1
8.47864 0 1
8.59519 0 1
8.71178 0 1
8.82841 0 1
8.94508 0 1
9.06179 0 1
9.17853 0 1
9.29531 0 1
9.41212 0 1
9.52897 0 1
9.64584 0 1
9.76276 0 1
9.8797 0 1
9.99667 0 1
10.1137 0 1
10.2307 0 1
10.3478 0 1
10.4648 0 1
10.5819 0 1
10.6991 0 1
10.8162 0 1
10.9334 0 1
11.0506 0 1
11.1678 0 1
11.285 0 1
11.4023 0 1
11.5196 0 1
11.6369 0 1
11.7542 0 1
11.8715 0 1
11.9888 0 1
12.1062 0 1
12.2235 0 1
12.3409 0 1
12.4582 0 1
12.5756 0 1
12.693 0 1
12.8104 0 1
12.9278 0 1
13.0452 0 1
13.1626 0 1
13.28 0 1
13.3974 0 1
13.5149 0 1
13.6323 0 1
13.7497 0 1
13.8671 0 1
13.9845 0 1
14.1019 0 1
14.2193 0 1
14.3367 0 1
14.4541 0 1
14.5714 0 1
14.6888 0 1
14.8062 0 1
14.9235 0 1
15.0408 709 26.6271
15.1581 828 28.775
15.2755 802 28.3196
15.3927 814 28.5307
15.51 817 28.5832
15.6273 816 28.5657
15.7445 798 28.2489
15.8617 829 28.7924
15.9789 830 28.8097
16.0961 811 28.4781
16.2132 820 28.6356
16.3304 772 27.7849
16.4475 804 28.3549
16.5646 887 29.7825
16.6816 921 30.348
16.7986 936 30.5941
16.9156 976 31.241
17.0326 921 30.348
17.1496 968 31.1127
17.2665 932 30.5287
17.3833 917 30.282
17.5002 920 30.3315
17.617 875 29.5804
17.7338 892 29.8664
17.8505 814 28.5307
17.9672 738 27.1662
18.0839 816 28.5657
18.2005 837 28.931
18.3171 841 29
18.4337 918 30.2985
18.5502 911 30.1828
18.6666 936 30.5941
18.7831 964 31.0483
18.8994 896 29.9333
19.0158 940 30.6594
19.1321 866 29.4279
19.2483 851 29.1719
19.3645 782 27.9643
19.4806 794 28.178
19.5967 687 26.2107
19.7128 690 26.2679
19.8288 646 25.4165
19.9447 574 23.9583
20.0606 0 1
20.1764 0 1
20.2922 0 1
20.4079 0 1
20.5236 0 1
20.6392 0 1
20.7548 0 1
20.8702 0 1
23.3078 0 1
23.4233 0 1
23.539 0 1
23.6547 0 1
23.7704 0 1
23.8862 0 1
24.0021 0 1
24.118 0 1
24.234 0 1
24.35 0 1
24.4661 375 19.3649
24.5822 429 20.7123
24.6984 510 22.5832
24.8146 565 23.7697
24.9309 582 24.1247
25.0472 692 26.3059
25.1636 762 27.6043
25.28 810 28.4605
25.3965 819 28.6182
25.513 904 30.0666
25.6296 958 30.9516
25.7462 963 31.0322
25.8628 962 31.0161
25.9795 1017 31.8904
26.0962 1013 31.8277
26.213 1005 31.7017
26.3298 874 29.5635
26.4466 868 29.4618
26.5635 816 28.5657
26.6804 915 30.249
26.7973 871 29.5127
26.9143 859 29.3087
27.0313 848 29.1204
27.1483 957 30.9354
27.2653 933 30.545
27.3824 945 30.7409
27.4996 970 31.1448
27.6167 967 31.0966
27.7339 1038 32.218
27.8511 943 30.7083
27.9683 861 29.3428
28.0855 911 30.1828
28.2028 896 29.9333
28.3201 807 28.4077
28.4374 813 28.5132
28.5547 850 29.1548
28.6721 865 29.4109
28.7894 880 29.6648
28.9068 908 30.133
29.0242 1004 31.686
29.1416 995 31.5436
29.259 920 30.3315
29.3764 1054 32.4654
29.4939 956 30.9192
29.6113 967 31.0966
29.7288 896 29.9333
29.8463 891 29.8496
29.9638 862 29.3598
30.0812 788 28.0713
30.1987 863 29.3769
30.3162 857 29.2746
30.4337 843 29.0345
30.5512 872 29.5296
30.6687 877 29.6142
30.7862 939 30.6431
30.9037 935 30.5778
31.0212 908 30.133
31.1387 942 30.692
31.2562 928 30.4631
31.3737 907 30.1164
31.4912 871 29.5127
31.6087 901 30.0167
31.7262 851 29.1719
31.8436 813 28.5132
31.9611 763 27.6225
32.0785 811 28.4781
32.1959 809 28.4429
32.3134 897 29.95
32.4308 929 30.4795
32.5482 962 31.0161
32.6655 922 30.3645
32.7829 936 30.5941
32.9002 933 30.545
33.0176 934 30.5614
33.1349 887 29.7825
33.2522 902 30.0333
33.3694 910 30.1662
33.4867 844 29.0517
33.6039 745 27.2947
33.7211 750 27.3861
33.8383 788 28.0713
33.9554 774 27.8209
34.0725 795 28.1957
34.1896 837 28.931
34.3067 838 28.9482
34.4237 958 30.9516
34.5407 914 30.2324
34.6577 853 29.2062
34.7746 894 29.8998
34.8915 868 29.4618
35.0084 838 28.9482
35.1252 900 30
35.242 819 28.6182
35.3587 812 28.4956
35.4755 798 28.2489
35.5921 786 28.0357
35.7088 735 27.1109
35.8254 758 27.5318
35.9419 771 27.7669
36.0584 822 28.6705
36.1749 860 29.3258
36.2913 790 28.1069
36.4077 875 29.5804
36.524 821 28.6531
36.6403 784 28
36.7565 728 26.9815
36.8727 701 26.4764
36.9889 655 25.593
37.1049 605 24.5967
37.221 0 1
37.3369 0 1
37.4529 0 1
37.5687 0 1
37.6845 0 1
37.8003 0 1
37.916 0 1
38.0316 0 1
38.1472 0 1
40.5851 0 1
40.7008 0 1
40.8164 0 1
40.9322 0 1
41.048 0 1
41.1639 0 1
41.2798 0 1
41.3958 0 1
41.5118 0 1
41.6279 0 1
41.744 422 20.5426
41.8602 538 23.1948
41.9765 544 23.3238
42.0928 549 23.4307
42.2091 546 23.3666
42.3255 566 23.7908
42.4419 540 23.2379
42.5584 557 23.6008
42.675 580 24.0832
42.7915 595 24.3926
42.9081 657 25.632
43.0248 715 26.7395
43.1415 715 26.7395
43.2582 720 26.8328
43.375 703 26.5141
43.4918 753 27.4408
43.6087 785 28.0179
43.7256 733 27.074
43.8425 727 26.9629
43.9595 703 26.5141
44.0765 700 26.4575
44.1935 701 26.4764
44.3106 674 25.9615
44.4277 655 25.593
44.5448 588 24.2487
44.6619 661 25.7099
44.7791 653 25.5539
44.8963 696 26.3818
45.0136 749 27.3679
45.1308 782 27.9643
45.2481 766 27.6767
45.3654 736 27.1293
45.4827 787 28.0535
45.6001 776 27.8568
45.7174 697 26.4008
45.8348 671 25.9037
45.9522 630 25.0998
46.0697 646 25.4165
46.1871 631 25.1197
46.3046 675 25.9808
46.422 611 24.7184
46.5395 702 26.4953
46.657 722 26.8701
46.7745 772 27.7849
46.892 743 27.258
47.0096 800 28.2843
47.1271 801 28.3019
47.2446 793 28.1603
47.3622 740 27.2029
47.4797 762 27.6043
47.5973 726 26.9444
47.7149 714 26.7208
47.8324 707 26.5895
47.95 642 25.3377
48.0675 623 24.96
48.1851 660 25.6905
48.3027 706 26.5707
48.4202 718 26.7955
48.5378 756 27.4955
48.6554 763 27.6225
48.7729 763 27.6225
48.8904 833 28.8617
49.008 817 28.5832
49.1255 770 27.7489
49.243 787 28.0535
49.3605 646 25.4165
49.478 656 25.6125
49.5955 662 25.7294
49.713 619 24.8797
49.8304 619 24.8797
49.9479 633 25.1595
50.0653 680 26.0768
50.1827 771 27.7669
50.3001 790 28.1069
50.4175 780 27.9285
50.5348 807 28.4077
50.6521 776 27.8568
50.7694 836 28.9137
50.8867 926 30.4302
51.004 840 28.9828
51.1212 793 28.1603
51.2384 801 28.3019
51.3556 839 28.9655
51.4727 747 27.3313
51.5899 745 27.2947
51.707 824 28.7054
51.824 783 27.9821
51.9411 871 29.5127
52.0581 889 29.8161
52.175 918 30.2985
52.2919 1001 31.6386
52.4088 987 31.4166
52.5257 1103 33.2114
52.6425 1087 32.9697
52.7593 1065 32.6343
52.876 1080 32.8634
52.9927 929 30.4795
53.1094 866 29.4279
53.226 845 29.0689
53.3426 817 28.5832
53.4591 788 28.0713
53.5756 797 28.2312
53.692 716 26.7582
53.8084 823 28.688
53.9248 727 26.9629
54.0411 746 27.313
54.1573 682 26.1151
54.2735 0 1
54.3896 0 1
54.5057 0 1
54.6217 0 1
54.7377 0 1
54.8537 0 1
54.9695 0 1
55.0853 0 1
55.2011 0 1
55.3168 0 1
55.4324 0 1
57.824 0 1
57.9396 0 1
58.0553 0 1
58.1711 0 1
58.2869 0 1
58.4028 0 1
58.5187 0 1
58.6347 0 1
58.7508 0 1
58.8669 0 1
58.983 601 24.5153
59.0992 593 24.3516
59.2155 745 27.2947
59.3318 803 28.3373
59.4482 800 28.2843
59.5646 832 28.8444
59.681 850 29.1548
59.7975 900 30
59.9141 863 29.3769
60.0306 855 29.2404
60.1473 851 29.1719
60.2639 786 28.0357
60.3807 813 28.5132
60.4974 773 27.8029
60.6142 825 28.7228
60.731 901 30.0167
60.8479 960 30.9839
60.9648 960 30.9839
61.0818 938 30.6268
61.1987 958 30.9516
61.3158 954 30.8869
61.4328 918 30.2985
61.5499 871 29.5127
61.667 807 28.4077
61.7841 773 27.8029
61.9013 722 26.8701
62.0185 732 27.0555
62.1357 751 27.4044
62.253 830 28.8097
62.3702 881 29.6816
62.4875 869 29.4788
62.6049 935 30.5778
62.7222 953 30.8707
62.8396 937 30.6105
62.9569 973 31.1929
63.0743 953 30.8707
63.1918 883 29.7153
63.3092 906 30.0998
63.4267 961 31
63.5441 888 29.7993
63.6616 861 29.3428
63.7791 773 27.8029
63.8966 752 27.4226
64.0142 795 28.1957
64.1317 819 28.6182
64.2492 855 29.2404
64.3668 908 30.133
64.4843 967 31.0966
64.6019 948 30.7896
64.7195 959 30.9677
64.837 939 30.6431
64.9546 884 29.7321
65.0722 872 29.5296
65.1898 811 28.4781
65.3074 734 27.0924
65.4249 690 26.2679
65.5425 725 26.9258
65.6601 683 26.1343
65.7777 745 27.2947
65.8952 901 30.0167
66.0128 859 29.3087
66.1304 923 30.3809
66.2479 970 31.1448
66.3655 900 30
66.483 896 29.9333
66.6005 976 31.241
66.718 921 30.348
66.8355 902 30.0333
66.953 896 29.9333
67.0705 893 29.8831
67.1879 879 29.6479
67.3054 812 28.4956
67.4228 762 27.6043
67.5402 751 27.4044
67.6576 735 27.1109
67.7749 747 27.3313
67.8923 769 27.7308
68.0096 882 29.6985
68.1269 920 30.3315
68.2442 937 30.6105
68.3614 990 31.4643
68.4787 903 30.05
68.5958 880 29.6648
68.713 877 29.6142
68.8302 830 28.8097
68.9473 775 27.8388
69.0643 722 26.8701
69.1814 658 25.6515
69.2984 725 26.9258
69.4154 782 27.9643
69.5323 756 27.4955
69.6492 785 28.0179
69.7661 854 29.2233
69.8829 848 29.1204
69.9997 857 29.2746
70.1165 837 28.931
70.2332 788 28.0713
70.3499 777 27.8747
70.4665 746 27.313
70.5831 685 26.1725
70.6996 689 26.2488
70.8161 607 24.6374
70.9326 532 23.0651
71.049 512 22.6274
71.1653 450 21.2132
71.2817 369 19.2094
71.3979 349 18.6815
71.5141 342 18.4932
71.6303 348 18.6548
71.7464 341 18.4662
71.8624 0 1
71.9784 0 1
72.0944 0 1
72.2102 0 1
72.3261 0 1
72.4418 0 1
72.5575 0 1
72.6732 0 1
75.1054 0 1
75.2209 0 1
75.3365 0 1
75.4521 0 1
75.5678 0 1
75.6835 0 1
75.7993 0 1
75.9151 0 1
76.031 0 1
76.147 565 23.7697
76.263 561 23.6854
76.3791 578 24.0416
76.4952 640 25.2982
76.6113 579 24.0624
76.7276 626 25.02
76.8438 670 25.8844
76.9601 772 27.7849
77.0765 776 27.8568
77.1929 810 28.4605
77.3093 800 28.2843
77.4258 781 27.9464
77.5423 796 28.2135
77.6589 791 28.1247
77.7755 735 27.1109
77.8921 561 23.6854
78.0088 563 23.7276
78.1256 517 22.7376
78.2423 540 23.2379
78.3591 601 24.5153
78.4759 641 25.318
78.5928 679 26.0576
78.7097 731 27.037
78.8266 739 27.1846
78.9436 734 27.0924
79.0606 746 27.313
79.1776 791 28.1247
79.2946 765 27.6586
79.4117 844 29.0517
79.5288 773 27.8029
79.6459 806 28.3901
79.7631 771 27.7669
79.8802 754 27.4591
79.9974 741 27.2213
80.1147 638 25.2587
80.2319 662 25.7294
80.3491 646 25.4165
80.4664 711 26.6646
80.5837 757 27.5136
80.701 825 28.7228
80.8183 854 29.2233
80.9357 786 28.0357
81.053 858 29.2916
81.1704 828 28.775
81.2877 759 27.55
81.4051 820 28.6356
81.5225 683 26.1343
81.6399 652 25.5343
81.7573 608 24.6577
81.8747 569 23.8537
81.9922 576 24
82.1096 679 26.0576
82.227 655 25.593
82.3444 745 27.2947
82.4619 816 28.5657
82.5793 819 28.6182
82.6967 831 28.8271
82.8142 855 29.2404
82.9316 840 28.9828
83.049 883 29.7153
83.1664 863 29.3769
83.2838 794 28.178
83.4012 796 28.2135
83.5186 854 29.2233
83.636 752 27.4226
83.7534 662 25.7294
83.8708 660 25.6905
83.9881 683 26.1343
84.1055 702 26.4953
84.2228 705 26.5518
84.3401 791 28.1247
84.4575 855 29.2404
84.5747 806 28.3901
84.692 850 29.1548
84.8093 842 29.0172
84.9265 776 27.8568
85.0437 780 27.9285
85.1609 665 25.7876
85.2781 597 24.4336
85.3952 600 24.4949
85.5123 545 23.3452
85.6294 590 24.2899
85.7465 707 26.5895
85.8636 731 27.037
85.9806 772 27.7849
86.0976 827 28.7576
86.2145 780 27.9285
86.3315 866 29.4279
86.4484 836 28.9137
86.5652 860 29.3258
86.682 939 30.6431
86.7988 825 28.7228
86.9156 826 28.7402
87.0323 796 28.2135
87.149 760 27.5681
87.2657 734 27.0924
87.3823 663 25.7488
87.4988 616 24.8193
87.6154 534 23.1084
87.7318 605 24.5967
87.8483 610 24.6982
87.9647 641 25.318
88.081 656 25.6125
88.1973 689 26.2488
88.3136 638 25.2587
88.4298 613 24.7588
88.546 520 22.8035
88.6621 431 20.7605
88.7781 361 19
88.8942 0 1
89.0101 0 1
89.126 0 1
89.2419 0 1
89.3577 0 1
89.4734 0 1
89.5891 0 1
89.7047 0 1
89.8203 0 1
89.9358 0 1
92.3269 0 1
92.4424 0 1
92.558 0 1
92.6736 0 1
92.7893 0 1
92.905 0 1
93.0208 0 1
93.1366 0 1
93.2525 0 1
93.3685 0 1
93.4845 0 1
93.6005 654 25.5734
93.7167 701 26.4764
93.8328 715 26.7395
93.949 720 26.8328
94.0653 707 26.5895
94.1816 764 27.6405
94.2979 677 26.0192
94.4143 623 24.96
94.5307 596 24.4131
94.6472 577 24.0208
94.7637 641 25.318
94.8803 694 26.3439
94.9969 736 27.1293
95.1135 788 28.0713
95.2302 854 29.2233
95.3469 832 28.8444
95.4637 839 28.9655
95.5805 867 29.4449
95.6973 849 29.1376
95.8142 853 29.2062
95.9311 840 28.9828
96.048 866 29.4279
96.1649 853 29.2062
96.2819 838 28.9482
96.3989 808 28.4253
96.516 746 27.313
96.633 705 26.5518
96.7501 777 27.8747
96.8673 682 26.1151
96.9844 736 27.1293
97.1016 783 27.9821
97.2188 871 29.5127
97.336 852 29.189
97.4532 859 29.3087
97.5704 859 29.3087
97.6877 870 29.4958
97.805 890 29.8329
97.9223 715 26.7395
98.0396 737 27.1477
98.1569 662 25.7294
98.2743 632 25.1396
98.3916 589 24.2693
98.509 657 25.632
98.6264 764 27.6405
98.7438 850 29.1548
98.8612 804 28.3549
98.9786 876 29.5973
99.096 885 29.7489
99.2134 907 30.1164
99.3308 936 30.5941
99.4482 886 29.7658
99.5656 887 29.7825
99.6831 899 29.9833
99.8005 916 30.2655
99.9179 875 29.5804
100.035 811 28.4781
100.153 768 27.7128
100.27 781 27.9464
100.388 728 26.9815
100.505 731 27.037
100.622 808 28.4253
100.74 924 30.3974
100.857 925 30.4138
100.975 925 30.4138
101.092 909 30.1496
101.209 957 30.9354
101.327 889 29.8161
101.444 874 29.5635
101.561 784 28
101.679 735 27.1109
101.796 668 25.8457
101.913 634 25.1794
102.03 635 25.1992
102.148 718 26.7955
102.265 805 28.3725
102.382 867 29.4449
102.499 881 29.6816
102.616 877 29.6142
102.733 907 30.1164
102.851 909 30.1496
102.968 941 30.6757
103.085 927 30.4467
103.202 944 30.7246
103.319 993 31.5119
103.436 875 29.5804
103.552 871 29.5127
103.669 894 29.8998
103.786 815 28.5482
103.903 762 27.6043
104.02 800 28.2843
104.137 863 29.3769
104.253 925 30.4138
104.37 996 31.5595
104.487 1008 31.749
104.603 961 31
104.72 979 31.289
104.836 902 30.0333
104.953 884 29.7321
105.069 749 27.3679
105.186 656 25.6125
105.302 631 25.1197
105.418 590 24.2899
105.535 588 24.2487
105.651 635 25.1992
105.767 645 25.3969
105.883 588 24.2487
105.999 547 23.388
106.115 0 1
106.231 0 1
106.347 0 1
106.463 0 1
106.579 0 1
106.694 0 1
106.81 0 1
106.926 0 1
107.041 0 1
107.157 0 1
109.576 0 1
109.692 0 1
109.807 0 1
109.923 0 1
110.039 0 1
110.155 0 1
110.27 0 1
110.386 0 1
110.502 0 1
110.618 414 20.347
110.735 572 23.9165
110.851 598 24.454
110.967 739 27.1846
111.083 728 26.9815
111.199 769 27.7308
111.316 864 29.3939
111.432 865 29.4109
111.549 899 29.9833
111.665 884 29.7321
111.782 912 30.1993
111.898 918 30.2985
112.015 861 29.3428
112.132 794 28.178
112.248 857 29.2746
112.365 780 27.9285
112.482 717 26.7769
112.599 847 29.1033
112.716 910 30.1662
112.832 876 29.5973
112.949 946 30.7571
113.066 941 30.6757
113.183 931 30.5123
113.3 921 30.348
113.417 899 29.9833
113.534 852 29.189
113.652 728 26.9815
113.769 701 26.4764
113.886 662 25.7294
114.003 678 26.0384
114.12 692 26.3059
114.238 795 28.1957
114.355 858 29.2916
114.472 824 28.7054
114.589 932 30.5287
114.707 874 29.5635
114.824 959 30.9677
114.942 911 30.1828
115.059 1003 31.6702
115.176 921 30.348
115.294 925 30.4138
115.411 901 30.0167
115.529 874 29.5635
115.646 866 29.4279
115.764 830 28.8097
115.881 765 27.6586
115.999 707 26.5895
116.116 809 28.4429
116.234 863 29.3769
116.351 835 28.8964
116.469 957 30.9354
116.586 841 29
116.704 928 30.4631
116.821 912 30.1993
116.939 911 30.1828
117.056 871 29.5127
117.174 797 28.2312
117.291 743 27.258
117.409 627 25.04
117.526 586 24.2074
117.644 658 25.6515
117.761 699 26.4386
117.879 725 26.9258
117.996 792 28.1425
118.114 842 29.0172
118.231 875 29.5804
118.349 798 28.2489
118.466 843 29.0345
118.584 859 29.3087
118.701 834 28.8791
118.819 895 29.9166
118.936 808 28.4253
119.053 809 28.4429
119.171 780 27.9285
119.288 768 27.7128
119.405 758 27.5318
119.523 719 26.8142
119.64 693 26.3249
119.757 700 26.4575
119.875 704 26.533
119.992 765 27.6586
120.109 751 27.4044
120.226 811 28.4781
120.343 842 29.0172
120.46 811 28.4781
120.578 818 28.6007
120.695 788 28.0713
120.812 723 26.8887
120.929 656 25.6125
121.046 601 24.5153
121.163 620 24.8998
121.279 546 23.3666
121.396 556 23.5797
121.513 570 23.8747
121.63 624 24.98
121.747 612 24.7386
121.863 654 25.5734
121.98 641 25.318
122.097 622 24.9399
122.213 605 24.5967
122.33 630 25.0998
122.446 636 25.219
122.563 571 23.8956
122.679 544 23.3238
122.795 557 23.6008
122.912 464 21.5407
123.028 436 20.8806
123.144 361 19
123.26 372 19.2873
123.377 0 1
123.493 0 1
123.609 0 1
123.725 0 1
123.84 0 1
123.956 0 1
124.072 0 1
124.188 0 1
124.303 0 1
124.419 0 1
126.852 0 1
126.968 0 1
127.083 0 1
127.199 0 1
127.315 0 1
127.431 0 1
127.547 0 1
127.663 0 1
127.779 0 1
127.895 0 1
128.011 0 1
128.127 0 1
128.243 0 1
128.359 824 28.7054
128.476 779 27.9106
128.592 805 28.3725
128.708 801 28.3019
128.825 839 28.9655
128.941 896 29.9333
129.058 906 30.0998
129.174 968 31.1127
129.291 931 30.5123
129.408 940 30.6594
129.524 974 31.209
129.641 900 30
129.758 912 30.1993
129.875 855 29.2404
129.992 758 27.5318
130.108 714 26.7208
130.225 685 26.1725
130.342 678 26.0384
130.459 770 27.7489
130.576 845 29.0689
130.693 827 28.7576
130.81 867 29.4449
130.928 883 29.7153
131.045 885 29.7489
131.162 971 31.1609
131.279 926 30.4302
131.396 930 30.4959
131.513 907 30.1164
131.631 944 30.7246
131.748 903 30.05
131.865 896 29.9333
131.983 826 28.7402
132.1 807 28.4077
132.217 800 28.2843
132.335 833 28.8617
132.452 823 28.688
132.57 913 30.2159
132.687 941 30.6757
132.804 963 31.0322
132.922 923 30.3809
133.039 985 31.3847
133.157 992 31.496
133.274 965 31.0644
133.392 881 29.6816
133.509 778 27.8927
133.627 721 26.8514
133.744 703 26.5141
133.862 637 25.2389
133.979 695 26.3629
134.097 739 27.1846
134.214 818 28.6007
134.332 831 28.8271
134.449 855 29.2404
134.567 901 30.0167
134.684 854 29.2233
134.802 927 30.4467
134.919 914 30.2324
135.037 907 30.1164
135.154 850 29.1548
135.272 925 30.4138
135.389 909 30.1496
135.507 839 28.9655
135.624 852 29.189
135.742 777 27.8747
135.859 815 28.5482
135.977 834 28.8791
136.094 888 29.7993
136.211 958 30.9516
136.329 941 30.6757
136.446 909 30.1496
136.564 939 30.6431
136.681 988 31.4325
136.798 945 30.7409
136.915 943 30.7083
137.033 902 30.0333
137.15 798 28.2489
137.267 691 26.2869
137.384 688 26.2298
137.502 697 26.4008
137.619 688 26.2298
137.736 765 27.6586
137.853 810 28.4605
137.97 828 28.775
138.087 833 28.8617
138.204 865 29.4109
138.321 913 30.2159
138.438 967 31.0966
138.555 961 31
138.672 901 30.0167
138.788 779 27.9106
138.905 869 29.4788
139.022 849 29.1376
139.139 767 27.6948
139.255 726 26.9444
139.372 667 25.8263
139.488 611 24.7184
139.605 649 25.4755
139.721 624 24.98
139.838 598 24.454
139.954 600 24.4949
140.071 569 23.8537
140.187 509 22.561
140.303 531 23.0434
140.419 478 21.8632
140.535 467 21.6102
140.652 432 20.7846
140.768 0 1
140.884 0 1
141 0 1
141.115 0 1
141.231 0 1
141.347 0 1
141.463 0 1
141.578 0 1
141.694 0 1
144.104 0 1
144.219 0 1
144.335 0 1
144.45 0 1
144.566 0 1
144.682 0 1
144.798 0 1
144.914 0 1
145.03 0 1
145.146 633 25.1595
145.262 783 27.9821
145.378 727 26.9629
145.494 753 27.4408
145.61 737 27.1477
145.726 749 27.3679
145.842 684 26.1534
145.959 612 24.7386
146.075 620 24.8998
146.192 626 25.02
146.308 632 25.1396
146.425 607 24.6374
146.541 621 24.9199
146.658 650 25.4951
146.774 587 24.2281
146.891 633 25.1595
147.008 669 25.865
147.125 693 26.3249
147.241 741 27.2213
147.358 743 27.258
147.475 746 27.313
147.592 720 26.8328
147.709 729 27
147.826 658 25.6515
147.943 720 26.8328
148.06 658 25.6515
148.177 604 24.5764
148.294 631 25.1197
148.411 677 26.0192
148.528 665 25.7876
148.645 721 26.8514
148.762 771 27.7669
148.88 710 26.6458
148.997 727 26.9629
149.114 744 27.2764
149.231 735 27.1109
149.349 761 27.5862
149.466 711 26.6646
149.583 644 25.3772
149.701 604 24.5764
149.818 540 23.2379
149.935 635 25.1992
150.053 605 24.5967
150.17 587 24.2281
150.287 609 24.6779
150.405 675 25.9808
150.522 693 26.3249
150.64 658 25.6515
150.757 666 25.807
150.875 704 26.533
150.992 723 26.8887
151.11 692 26.3059
151.227 651 25.5147
151.344 676 26
151.462 649 25.4755
151.579 635 25.1992
151.697 633 25.1595
151.814 582 24.1247
151.932 639 25.2784
152.049 642 25.3377
152.167 662 25.7294
152.284 683 26.1343
152.402 674 25.9615
152.519 649 25.4755
152.636 699 26.4386
152.754 661 25.7099
152.871 665 25.7876
152.989 654 25.5734
153.106 690 26.2679
153.223 622 24.9399
153.341 605 24.5967
153.458 580 24.0832
153.575 544 23.3238
153.693 565 23.7697
153.81 532 23.0651
153.927 584 24.1661
154.044 659 25.671
154.162 623 24.96
154.279 598 24.454
154.396 658 25.6515
154.513 644 25.3772
154.63 627 25.04
154.747 585 24.1868
154.864 661 25.7099
154.981 593 24.3516
155.098 598 24.454
155.215 634 25.1794
155.332 555 23.5584
155.449 582 24.1247
155.566 591 24.3105
155.683 619 24.8797
155.8 580 24.0832
155.917 620 24.8998
156.033 606 24.6171
156.15 0 1
156.267 0 1
156.383 0 1
156.5 0 1
156.617 0 1
156.733 0 1
156.85 0 1
156.966 0 1
157.082 0 1
157.199 0 1
157.315 0 1
157.431 0 1
157.547 0 1
157.664 0 1
157.78 0 1
157.896 0 1
158.012 0 1
158.128 0 1
158.244 0 1
158.359 0 1
158.475 0 1
158.591 0 1
158.706 0 1
