
6.15755 0 1
6.2731 0 1
6.3887 0 1
6.50437 0 1
6.62009 0 1
6.73587 0 1
6.8517 0 1
6.96759 0 1
7.08353 0 1
7.19952 0 1
7.31557 0 1
7.43166 0 1
7.54781 0 1
7.664 0 1
7.78024 0 1
7.89653 0 1
8.01286 0 1
8.12924 0 1
8.24567 0 1
8.36213 0 1
8.47864 0 1
8.59519 0 1
8.71178 0 1
8.82841 0 1
8.94508 0 1
9.06179 0 1
9.17853 0 1
9.29531 0 1
9.41212 0 1
9.52897 0 1
9.64584 0 1
9.76276 0 1
9.8797 0 1
9.99667 0 1
10.1137 0 1
10.2307 0 1
10.3478 0 1
10.4648 0 1
10.5819 0 1
10.6991 0 1
10.8162 0 1
10.9334 0 1
11.0506 0 1
11.1678 0 1
11.285 0 1
11.4023 0 1
11.5196 0 1
11.6369 0 1
11.7542 0 1
11.8715 0 1
11.9888 0 1
12.1062 0 1
12.2235 0 1
12.3409 0 1
12.4582 0 1
12.5756 0 1
12.693 0 1
12.8104 0 1
12.9278 0 1
13.0452 0 1
13.1626 0 1
13.28 0 1
13.3974 0 1
13.5149 0 1
13.6323 0 1
13.7497 0 1
13.8671 0 1
13.9845 0 1
14.1019 0 1
14.2193 0 1
14.3367 0 1
14.4541 0 1
14.5714 0 1
14.6888 0 1
14.8062 0 1
14.9235 0 1
15.0408 2939 54.2125
15.1581 3016 54.9181
15.2755 3150 56.1249
15.3927 3227 56.8067
15.51 3152 56.1427
15.6273 3166 56.2672
15.7445 3171 56.3116
15.8617 2994 54.7175
15.9789 3045 55.1815
16.0961 2885 53.7122
16.2132 2985 54.6352
16.3304 3000 54.7723
16.4475 3007 54.8361
16.5646 3153 56.1516
16.6816 3163 56.2406
16.7986 3186 56.4447
16.9156 3217 56.7186
17.0326 3154 56.1605
17.1496 3198 56.5509
17.2665 3111 55.7763
17.3833 3171 56.3116
17.5002 2923 54.0648
17.617 2961 54.4151
17.7338 2960 54.4059
17.8505 3013 54.8908
17.9672 3123 55.8838
18.0839 3255 57.0526
18.2005 3383 58.1636
18.3171 3252 57.0263
18.4337 3482 59.0085
18.5502 3536 59.4643
18.6666 3581 59.8415
18.7831 3533 59.439
18.8994 3534 59.4475
19.0158 3426 58.532
19.1321 3393 58.2495
19.2483 3279 57.2626
19.3645 3289 57.3498
19.4806 3044 55.1725
19.5967 2855 53.4322
19.7128 2827 53.1695
19.8288 2868 53.5537
19.9447 2645 51.4296
20.0606 0 1
20.1764 0 1
20.2922 0 1
20.4079 0 1
20.5236 0 1
20.6392 0 1
20.7548 0 1
20.8702 0 1
23.3078 0 1
23.4233 0 1
23.539 0 1
23.6547 0 1
23.7704 0 1
23.8862 0 1
24.0021 0 1
24.118 0 1
24.234 0 1
24.35 0 1
24.4661 2892 53.7773
24.5822 3026 55.0091
24.6984 2849 53.376
24.8146 2898 53.8331
24.9309 2805 52.9623
25.0472 2884 53.7029
25.1636 2996 54.7357
25.28 3181 56.4004
25.3965 3222 56.7627
25.513 3325 57.6628
25.6296 3366 58.0172
25.7462 3306 57.4978
25.8628 3422 58.4979
25.9795 3351 57.8878
26.0962 3142 56.0535
26.213 3193 56.5066
26.3298 2975 54.5436
26.4466 2980 54.5894
26.5635 3007 54.8361
26.6804 3066 55.3715
26.7973 3111 55.7763
26.9143 3178 56.3738
27.0313 3237 56.8946
27.1483 3367 58.0259
27.2653 3360 57.9655
27.3824 3425 58.5235
27.4996 3404 58.3438
27.6167 3338 57.7754
27.7339 3186 56.4447
27.8511 3282 57.2887
27.9683 3214 56.6922
28.0855 3115 55.8122
28.2028 3015 54.909
28.3201 2971 54.5069
28.4374 2967 54.4702
28.5547 2988 54.6626
28.6721 2836 53.2541
28.7894 3087 55.5608
28.9068 3114 55.8032
29.0242 3173 56.3294
29.1416 3241 56.9298
29.259 3085 55.5428
29.3764 3173 56.3294
29.4939 3156 56.1783
29.6113 2962 54.4243
29.7288 2936 54.1849
29.8463 2854 53.4228
29.9638 2821 53.1131
30.0812 2870 53.5724
30.1987 2958 54.3875
30.3162 3066 55.3715
30.4337 3120 55.857
30.5512 3009 54.8544
30.6687 3172 56.3205
30.7862 3218 56.7274
30.9037 3241 56.9298
31.0212 3209 56.648
31.1387 3311 57.5413
31.2562 3261 57.1052
31.3737 3174 56.3383
31.4912 3148 56.107
31.6087 3121 55.8659
31.7262 2966 54.461
31.8436 2963 54.4334
31.9611 2813 53.0377
32.0785 2727 52.2207
32.1959 2846 53.3479
32.3134 2911 53.9537
32.4308 2912 53.963
32.5482 3121 55.8659
32.6655 3093 55.6147
32.7829 3143 56.0625
32.9002 3103 55.7046
33.0176 3139 56.0268
33.1349 3165 56.2583
33.2522 3160 56.2139
33.3694 2945 54.2679
33.4867 2819 53.0943
33.6039 2656 51.5364
33.7211 2722 52.1728
33.8383 2780 52.7257
33.9554 2837 53.2635
34.0725 3012 54.8817
34.1896 2901 53.8609
34.3067 3042 55.1543
34.4237 3081 55.5068
34.5407 3229 56.8243
34.6577 3117 55.8301
34.7746 3223 56.7715
34.8915 3115 55.8122
35.0084 3025 55
35.1252 2994 54.7175
35.242 3018 54.9363
35.3587 2836 53.2541
35.4755 2773 52.6593
35.5921 2665 51.6236
35.7088 2574 50.7346
35.8254 2754 52.4786
35.9419 2667 51.643
36.0584 2648 51.4587
36.1749 2814 53.0471
36.2913 2964 54.4426
36.4077 2830 53.1977
36.524 2948 54.2955
36.6403 2976 54.5527
36.7565 2910 53.9444
36.8727 2945 54.2679
36.9889 2826 53.1601
37.1049 2602 51.0098
37.221 0 1
37.3369 0 1
37.4529 0 1
37.5687 0 1
37.6845 0 1
37.8003 0 1
37.916 0 1
38.0316 0 1
38.1472 0 1
40.5851 0 1
40.7008 0 1
40.8164 0 1
40.9322 0 1
41.048 0 1
41.1639 0 1
41.2798 0 1
41.3958 0 1
41.5118 0 1
41.6279 0 1
41.744 2252 47.4552
41.8602 2490 49.8999
41.9765 2552 50.5173
42.0928 2556 50.5569
42.2091 2475 49.7494
42.3255 2445 49.4469
42.4419 2359 48.5695
42.5584 2389 48.8774
42.675 2227 47.1911
42.7915 2271 47.655
42.9081 2400 48.9898
43.0248 2390 48.8876
43.1415 2388 48.8672
43.2582 2405 49.0408
43.375 2502 50.02
43.4918 2483 49.8297
43.6087 2537 50.3686
43.7256 2514 50.1398
43.8425 2588 50.8724
43.9595 2529 50.2892
44.0765 2345 48.4252
44.1935 2293 47.8853
44.3106 2245 47.3814
44.4277 2185 46.744
44.5448 2136 46.2169
44.6619 1922 43.8406
44.7791 1909 43.6921
44.8963 1936 44
45.0136 2013 44.8665
45.1308 1973 44.4185
45.2481 2052 45.299
45.3654 1913 43.7379
45.4827 2066 45.4533
45.6001 1971 44.3959
45.7174 1992 44.6318
45.8348 2046 45.2327
45.9522 1994 44.6542
46.0697 1838 42.8719
46.1871 1810 42.5441
46.3046 1743 41.7493
46.422 1708 41.328
46.5395 1871 43.2551
46.657 1874 43.2897
46.7745 1868 43.2204
46.892 1884 43.4051
47.0096 1955 44.2154
47.1271 1962 44.2945
47.2446 1878 43.3359
47.3622 1832 42.8019
47.4797 1878 43.3359
47.5973 1787 42.2729
47.7149 1796 42.3792
47.8324 1804 42.4735
47.95 1718 41.4488
48.0675 1592 39.8999
48.1851 1611 40.1373
48.3027 1445 38.0132
48.4202 1535 39.1791
48.5378 1579 39.7366
48.6554 1691 41.1218
48.7729 1642 40.5216
48.8904 1636 40.4475
49.008 1705 41.2916
49.1255 1776 42.1426
49.243 1755 41.8927
49.3605 1723 41.509
49.478 1660 40.7431
49.5955 1718 41.4488
49.713 1628 40.3485
49.8304 1618 40.2244
49.9479 1607 40.0874
50.0653 1706 41.3038
50.1827 1741 41.7253
50.3001 1853 43.0465
50.4175 1968 44.3621
50.5348 2026 45.0111
50.6521 2101 45.8367
50.7694 2110 45.9347
50.8867 2146 46.3249
51.004 2055 45.3321
51.1212 2109 45.9239
51.2384 2160 46.4758
51.3556 2156 46.4327
51.4727 2197 46.8722
51.5899 2230 47.2229
51.707 2119 46.0326
51.824 2086 45.6727
51.9411 1990 44.6094
52.0581 2087 45.6837
52.175 2249 47.4236
52.2919 2364 48.621
52.4088 2392 48.9081
52.5257 2531 50.309
52.6425 2551 50.5074
52.7593 2554 50.5371
52.876 2641 51.3907
52.9927 2629 51.2738
53.1094 2438 49.3761
53.226 2412 49.1121
53.3426 2425 49.2443
53.4591 2359 48.5695
53.5756 2396 48.949
53.692 2604 51.0294
53.8084 2656 51.5364
53.9248 2754 52.4786
54.0411 2754 52.4786
54.1573 2860 53.479
54.2735 0 1
54.3896 0 1
54.5057 0 1
54.6217 0 1
54.7377 0 1
54.8537 0 1
54.9695 0 1
55.0853 0 1
55.2011 0 1
55.3168 0 1
55.4324 0 1
57.824 0 1
57.9396 0 1
58.0553 0 1
58.1711 0 1
58.2869 0 1
58.4028 0 1
58.5187 0 1
58.6347 0 1
58.7508 0 1
58.8669 0 1
58.983 3281 57.28
59.0992 3356 57.931
59.2155 3553 59.607
59.3318 3539 59.4895
59.4482 3633 60.2744
59.5646 3622 60.1831
59.681 3785 61.5224
59.7975 3540 59.4979
59.9141 3571 59.7578
60.0306 3748 61.2209
60.1473 3484 59.0254
60.2639 3424 58.515
60.3807 3333 57.7321
60.4974 3266 57.1489
60.6142 3055 55.2721
60.731 3048 55.2087
60.8479 3054 55.263
60.9648 3155 56.1694
61.0818 3252 57.0263
61.1987 3334 57.7408
61.3158 3339 57.7841
61.4328 3392 58.2409
61.5499 3436 58.6174
61.667 3465 58.8643
61.7841 3233 56.8595
61.9013 3153 56.1516
62.0185 3147 56.0981
62.1357 2997 54.7449
62.253 2962 54.4243
62.3702 3055 55.2721
62.4875 3033 55.0727
62.6049 3177 56.3649
62.7222 3180 56.3915
62.8396 3254 57.0438
62.9569 3356 57.931
63.0743 3413 58.4209
63.1918 3417 58.4551
63.3092 3373 58.0775
63.4267 3391 58.2323
63.5441 3228 56.8155
63.6616 3262 57.1139
63.7791 3196 56.5332
63.8966 3154 56.1605
64.0142 2983 54.6168
64.1317 2889 53.7494
64.2492 2733 52.2781
64.3668 2794 52.8583
64.4843 2956 54.3691
64.6019 2782 52.7447
64.7195 3124 55.8928
64.837 3209 56.648
64.9546 3102 55.6956
65.0722 3152 56.1427
65.1898 3120 55.857
65.3074 3159 56.205
65.4249 3127 55.9196
65.5425 2965 54.4518
65.6601 2844 53.3292
65.7777 2785 52.7731
65.8952 2733 52.2781
66.0128 2975 54.5436
66.1304 3035 55.0908
66.2479 3203 56.5951
66.3655 3196 56.5332
66.483 3189 56.4712
66.6005 3236 56.8859
66.718 3258 57.0789
66.8355 3346 57.8446
66.953 3261 57.1052
67.0705 3376 58.1034
67.1879 3371 58.0603
67.3054 3279 57.2626
67.4228 3228 56.8155
67.5402 3226 56.7979
67.6576 3040 55.1362
67.7749 2781 52.7352
67.8923 2907 53.9166
68.0096 2874 53.6097
68.1269 2906 53.9073
68.2442 3047 55.1996
68.3614 3223 56.7715
68.4787 3283 57.2975
68.5958 3409 58.3866
68.713 3390 58.2237
68.8302 3308 57.5152
68.9473 3510 59.2453
69.0643 3382 58.155
69.1814 3259 57.0877
69.2984 3043 55.1634
69.4154 2960 54.4059
69.5323 2875 53.619
69.6492 3048 55.2087
69.7661 3166 56.2672
69.8829 3341 57.8014
69.9997 3433 58.5918
70.1165 3489 59.0678
70.2332 3610 60.0833
70.3499 3710 60.9098
70.4665 3547 59.5567
70.5831 3525 59.3717
70.6996 3569 59.7411
70.8161 3582 59.8498
70.9326 3482 59.0085
71.049 3589 59.9083
71.1653 3440 58.6515
71.2817 3288 57.3411
71.3979 3127 55.9196
71.5141 2892 53.7773
71.6303 2733 52.2781
71.7464 2766 52.5928
71.8624 0 1
71.9784 0 1
72.0944 0 1
72.2102 0 1
72.3261 0 1
72.4418 0 1
72.5575 0 1
72.6732 0 1
75.1054 0 1
75.2209 0 1
75.3365 0 1
75.4521 0 1
75.5678 0 1
75.6835 0 1
75.7993 0 1
75.9151 0 1
76.031 0 1
76.147 3155 56.1694
76.263 3503 59.1861
76.3791 3563 59.6909
76.4952 3285 57.3149
76.6113 3180 56.3915
76.7276 2980 54.5894
76.8438 2951 54.3231
76.9601 3031 55.0545
77.0765 3111 55.7763
77.1929 3180 56.3915
77.3093 3333 57.7321
77.4258 3457 58.7963
77.5423 3452 58.7537
77.6589 3492 59.0931
77.7755 3676 60.63
77.8921 3497 59.1354
78.0088 3446 58.7026
78.1256 3193 56.5066
78.2423 3126 55.9106
78.3591 2889 53.7494
78.4759 2853 53.4135
78.5928 2933 54.1572
78.7097 3124 55.8928
78.8266 3200 56.5685
78.9436 3389 58.2151
79.0606 3403 58.3352
79.1776 3494 59.1101
79.2946 3464 58.8558
79.4117 3589 59.9083
79.5288 3537 59.4727
79.6459 3616 60.1332
79.7631 3569 59.7411
79.8802 3542 59.5147
79.9974 3467 58.8812
80.1147 3398 58.2924
80.2319 3331 57.7148
80.3491 3034 55.0818
80.4664 2999 54.7631
80.5837 2934 54.1664
80.701 3081 55.5068
80.8183 3096 55.6417
80.9357 3328 57.6888
81.053 3242 56.9386
81.1704 3385 58.1808
81.2877 3455 58.7792
81.4051 3663 60.5227
81.5225 3645 60.3738
81.6399 3559 59.6574
81.7573 3470 58.9067
81.8747 3232 56.8507
81.9922 2928 54.111
82.1096 2951 54.3231
82.227 2909 53.9351
82.3444 3177 56.3649
82.4619 3286 57.3236
82.5793 3387 58.1979
82.6967 3386 58.1893
82.8142 3568 59.7327
82.9316 3647 60.3904
83.049 3561 59.6741
83.1664 3604 60.0333
83.2838 3608 60.0666
83.4012 3578 59.8164
83.5186 3538 59.4811
83.636 3596 59.9667
83.7534 3458 58.8048
83.8708 3261 57.1052
83.9881 3197 56.542
84.1055 3014 54.8999
84.2228 3037 55.109
84.3401 3051 55.2359
84.4575 3117 55.8301
84.5747 3275 57.2276
84.692 3486 59.0424
84.8093 3506 59.2115
84.9265 3751 61.2454
85.0437 3749 61.2291
85.1609 3820 61.8061
85.2781 3535 59.4559
85.3952 3471 58.9152
85.5123 3161 56.2228
85.6294 3048 55.2087
85.7465 3036 55.0999
85.8636 3122 55.8749
85.9806 3210 56.6569
86.0976 3535 59.4559
86.2145 3668 60.564
86.3315 3703 60.8523
86.4484 3666 60.5475
86.5652 3882 62.3057
86.682 3757 61.2944
86.7988 4006 63.293
86.9156 3873 62.2334
87.0323 3859 62.1208
87.149 3810 61.7252
87.2657 3740 61.1555
87.3823 3772 61.4166
87.4988 3502 59.1777
87.6154 3392 58.2409
87.7318 3260 57.0964
87.8483 3248 56.9912
87.9647 3202 56.5862
88.081 3441 58.66
88.1973 3524 59.3633
88.3136 3746 61.2046
88.4298 3771 61.4085
88.546 3888 62.3538
88.6621 3902 62.466
88.7781 3818 61.79
88.8942 0 1
89.0101 0 1
89.126 0 1
89.2419 0 1
89.3577 0 1
89.4734 0 1
89.5891 0 1
89.7047 0 1
89.8203 0 1
89.9358 0 1
92.3269 0 1
92.4424 0 1
92.558 0 1
92.6736 0 1
92.7893 0 1
92.905 0 1
93.0208 0 1
93.1366 0 1
93.2525 0 1
93.3685 0 1
93.4845 0 1
93.6005 3481 59
93.7167 3647 60.3904
93.8328 3618 60.1498
93.949 3730 61.0737
94.0653 3693 60.7701
94.1816 3622 60.1831
94.2979 3343 57.8187
94.4143 3252 57.0263
94.5307 3088 55.5698
94.6472 2913 53.9722
94.7637 2971 54.5069
94.8803 3251 57.0175
94.9969 3382 58.155
95.1135 3503 59.1861
95.2302 3540 59.4979
95.3469 3608 60.0666
95.4637 3631 60.2578
95.5805 3638 60.3158
95.6973 3750 61.2372
95.8142 3682 60.6795
95.9311 3734 61.1065
96.048 3778 61.4654
96.1649 3648 60.3987
96.2819 3687 60.7207
96.3989 3587 59.8916
96.516 3441 58.66
96.633 3222 56.7627
96.7501 3222 56.7627
96.8673 3146 56.0892
96.9844 3013 54.8908
97.1016 3176 56.356
97.2188 3369 58.0431
97.336 3518 59.3127
97.4532 3498 59.1439
97.5704 3665 60.5392
97.6877 3672 60.597
97.805 3766 61.3677
97.9223 3500 59.1608
98.0396 3462 58.8388
98.1569 3060 55.3173
98.2743 2990 54.6809
98.3916 2859 53.4696
98.509 3111 55.7763
98.6264 3146 56.0892
98.7438 3360 57.9655
98.8612 3409 58.3866
98.9786 3552 59.5987
99.096 3501 59.1692
99.2134 3581 59.8415
99.3308 3664 60.531
99.4482 3575 59.7913
99.5656 3547 59.5567
99.6831 3493 59.1016
99.8005 3667 60.5558
99.9179 3471 58.9152
100.035 3455 58.7792
100.153 3342 57.81
100.27 3125 55.9017
100.388 3101 55.6866
100.505 3027 55.0182
100.622 2994 54.7175
100.74 3232 56.8507
100.857 3257 57.0701
100.975 3570 59.7495
101.092 3564 59.6992
101.209 3544 59.5315
101.327 3604 60.0333
101.444 3781 61.4898
101.561 3408 58.3781
101.679 3360 57.9655
101.796 3163 56.2406
101.913 2996 54.7357
102.03 2908 53.9259
102.148 3185 56.4358
102.265 3118 55.8391
102.382 3729 61.0655
102.499 3707 60.8851
102.616 3677 60.6383
102.733 3798 61.6279
102.851 3749 61.2291
102.968 3902 62.466
103.085 3716 60.959
103.202 3692 60.7618
103.319 3744 61.1882
103.436 3843 61.9919
103.552 3677 60.6383
103.669 3525 59.3717
103.786 3387 58.1979
103.903 3273 57.2101
104.02 3307 57.5065
104.137 3370 58.0517
104.253 3447 58.7112
104.37 3575 59.7913
104.487 3774 61.4329
104.603 3768 61.384
104.72 3886 62.3378
104.836 3945 62.8092
104.953 3987 63.1427
105.069 3724 61.0246
105.186 3491 59.0847
105.302 3403 58.3352
105.418 3107 55.7405
105.535 3139 56.0268
105.651 3315 57.576
105.767 3544 59.5315
105.883 3685 60.7042
105.999 3649 60.407
106.115 0 1
106.231 0 1
106.347 0 1
106.463 0 1
106.579 0 1
106.694 0 1
106.81 0 1
106.926 0 1
107.041 0 1
107.157 0 1
109.576 0 1
109.692 0 1
109.807 0 1
109.923 0 1
110.039 0 1
110.155 0 1
110.27 0 1
110.386 0 1
110.502 0 1
110.618 2815 53.0566
110.735 3006 54.827
110.851 3214 56.6922
110.967 3338 57.7754
111.083 3445 58.6941
111.199 3469 58.8982
111.316 3502 59.1777
111.432 3576 59.7997
111.549 3538 59.4811
111.665 3481 59
111.782 3366 58.0172
111.898 3338 57.7754
112.015 3306 57.4978
112.132 3298 57.4282
112.248 3163 56.2406
112.365 2955 54.3599
112.482 2787 52.792
112.599 2796 52.8772
112.716 2825 53.1507
112.832 2901 53.8609
112.949 2966 54.461
113.066 3113 55.7943
113.183 3182 56.4092
113.3 3293 57.3847
113.417 3208 56.6392
113.534 3160 56.2139
113.652 3132 55.9643
113.769 2907 53.9166
113.886 2624 51.225
114.003 2577 50.7642
114.12 2482 49.8197
114.238 2722 52.1728
114.355 2838 53.2729
114.472 2955 54.3599
114.589 2943 54.2494
114.707 2907 53.9166
114.824 2883 53.6936
114.942 2954 54.3507
115.059 2873 53.6004
115.176 2959 54.3967
115.294 2940 54.2218
115.411 2817 53.0754
115.529 2800 52.915
115.646 2654 51.517
115.764 2621 51.1957
115.881 2432 49.3153
115.999 2361 48.5901
116.116 2233 47.2546
116.234 2283 47.7807
116.351 2400 48.9898
116.469 2370 48.6826
116.586 2439 49.3862
116.704 2654 51.517
116.821 2551 50.5074
116.939 2620 51.1859
117.056 2542 50.4183
117.174 2451 49.5076
117.291 2408 49.0714
117.409 2281 47.7598
117.526 2250 47.4342
117.644 2057 45.3542
117.761 2098 45.8039
117.879 2337 48.3425
117.996 2376 48.7442
118.114 2447 49.4672
118.231 2514 50.1398
118.349 2579 50.7839
118.466 2599 50.9804
118.584 2560 50.5964
118.701 2566 50.6557
118.819 2559 50.5866
118.936 2540 50.3984
119.053 2452 49.5177
119.171 2588 50.8724
119.288 2532 50.319
119.405 2490 49.8999
119.523 2341 48.3839
119.64 2231 47.2335
119.757 2310 48.0625
119.875 2288 47.833
119.992 2391 48.8979
120.109 2514 50.1398
120.226 2462 49.6185
120.343 2580 50.7937
120.46 2715 52.1057
120.578 2726 52.2111
120.695 2776 52.6878
120.812 2825 53.1507
120.929 2635 51.3323
121.046 2558 50.5767
121.163 2377 48.7545
121.279 2344 48.4149
121.396 2361 48.5901
121.513 2538 50.3786
121.63 2724 52.192
121.747 2704 52
121.863 2879 53.6563
121.98 2934 54.1664
122.097 3027 55.0182
122.213 2919 54.0278
122.33 3072 55.4256
122.446 3059 55.3082
122.563 3045 55.1815
122.679 2991 54.69
122.795 2949 54.3047
122.912 2901 53.8609
123.028 2867 53.5444
123.144 2924 54.074
123.26 2733 52.2781
123.377 0 1
123.493 0 1
123.609 0 1
123.725 0 1
123.84 0 1
123.956 0 1
124.072 0 1
124.188 0 1
124.303 0 1
124.419 0 1
126.852 0 1
126.968 0 1
127.083 0 1
127.199 0 1
127.315 0 1
127.431 0 1
127.547 0 1
127.663 0 1
127.779 0 1
127.895 0 1
128.011 0 1
128.127 0 1
128.243 0 1
128.359 3468 58.8897
128.476 3423 58.5064
128.592 3203 56.5951
128.708 3002 54.7905
128.825 3100 55.6776
128.941 3131 55.9553
129.058 3281 57.28
129.174 3217 56.7186
129.291 3459 58.8133
129.408 3438 58.6345
129.524 3471 58.9152
129.641 3480 58.9915
129.758 3499 59.1523
129.875 3525 59.3717
129.992 3403 58.3352
130.108 3108 55.7494
130.225 3002 54.7905
130.342 2935 54.1756
130.459 2951 54.3231
130.576 3098 55.6597
130.693 3142 56.0535
130.81 3321 57.6281
130.928 3402 58.3267
131.045 3335 57.7495
131.162 3414 58.4294
131.279 3533 59.439
131.396 3468 58.8897
131.513 3400 58.3095
131.631 3353 57.9051
131.748 3346 57.8446
131.865 3408 58.3781
131.983 3176 56.356
132.1 3143 56.0625
132.217 3093 55.6147
132.335 2933 54.1572
132.452 2918 54.0185
132.57 3030 55.0454
132.687 2987 54.6535
132.804 3276 57.2364
132.922 3380 58.1378
133.039 3315 57.576
133.157 3354 57.9137
133.274 3433 58.5918
133.392 3405 58.3524
133.509 3330 57.7062
133.627 3167 56.2761
133.744 2975 54.5436
133.862 2888 53.7401
133.979 2744 52.3832
134.097 2784 52.7636
134.214 3130 55.9464
134.332 3070 55.4076
134.449 3162 56.2317
134.567 3208 56.6392
134.684 3202 56.5862
134.802 3219 56.7362
134.919 3189 56.4712
135.037 3135 55.9911
135.154 3166 56.2672
135.272 2978 54.5711
135.389 3003 54.7996
135.507 2882 53.6843
135.624 2712 52.0769
135.742 2628 51.264
135.859 2575 50.7445
135.977 2540 50.3984
136.094 2508 50.0799
136.211 2652 51.4976
136.329 2567 50.6656
136.446 2720 52.1536
136.564 2721 52.1632
136.681 2738 52.3259
136.798 2759 52.5262
136.915 2683 51.7977
137.033 2791 52.8299
137.15 2469 49.689
137.267 2548 50.4777
137.384 2402 49.0102
137.502 2342 48.3942
137.619 2326 48.2286
137.736 2416 49.1528
137.853 2492 49.9199
137.97 2640 51.3809
138.087 2770 52.6308
138.204 2716 52.1153
138.321 2917 54.0093
138.438 2954 54.3507
138.555 3056 55.2811
138.672 2996 54.7357
138.788 3000 54.7723
138.905 3073 55.4346
139.022 2917 54.0093
139.139 2940 54.2218
139.255 2909 53.9351
139.372 2832 53.2165
139.488 2830 53.1977
139.605 2729 52.2398
139.721 2800 52.915
139.838 2913 53.9722
139.954 3025 55
140.071 3155 56.1694
140.187 3121 55.8659
140.303 3197 56.542
140.419 3307 57.5065
140.535 3236 56.8859
140.652 3327 57.6802
140.768 0 1
140.884 0 1
141 0 1
141.115 0 1
141.231 0 1
141.347 0 1
141.463 0 1
141.578 0 1
141.694 0 1
144.104 0 1
144.219 0 1
144.335 0 1
144.45 0 1
144.566 0 1
144.682 0 1
144.798 0 1
144.914 0 1
145.03 0 1
145.146 5089 71.3372
145.262 5613 74.92
145.378 5792 76.1052
145.494 6333 79.5801
145.61 6523 80.7651
145.726 6635 81.4555
145.842 6653 81.5659
145.959 6708 81.9024
146.075 6503 80.6412
146.192 6330 79.5613
146.308 6224 78.8923
146.425 6686 81.768
146.541 7159 84.6109
146.658 7575 87.0345
146.774 7965 89.2468
146.891 8532 92.3688
147.008 8817 93.8989
147.125 9042 95.0894
147.241 9228 96.0625
147.358 9595 97.9541
147.475 9693 98.453
147.592 9367 96.7833
147.709 9403 96.9691
147.826 9127 95.5353
147.943 9058 95.1735
148.06 8768 93.6376
148.177 8441 91.8749
148.294 8397 91.6351
148.411 8384 91.5642
148.528 8606 92.7685
148.645 8919 94.4405
148.762 8959 94.652
148.88 9177 95.7967
148.997 9436 97.1391
149.114 8688 93.2094
149.231 9068 95.226
149.349 8870 94.1807
149.466 9038 95.0684
149.583 8299 91.0988
149.701 7977 89.3141
149.818 7366 85.8254
149.935 7359 85.7846
150.053 7109 84.3149
150.17 7633 87.367
150.287 7983 89.3476
150.405 8337 91.3072
150.522 8608 92.7793
150.64 8770 93.6483
150.757 8887 94.2709
150.875 8970 94.7101
150.992 8879 94.2284
151.11 8876 94.2125
151.227 8783 93.7177
151.344 8681 93.1719
151.462 8629 92.8924
151.579 8518 92.293
151.697 8280 90.9945
151.814 8208 90.598
151.932 8320 91.214
152.049 8121 90.1166
152.167 8533 92.3742
152.284 8731 93.4398
152.402 9185 95.8384
152.519 9382 96.8607
152.636 9586 97.9081
152.754 9646 98.2141
152.871 9636 98.1631
152.989 9592 97.9388
153.106 9359 96.7419
153.223 8799 93.803
153.341 8329 91.2634
153.458 8071 89.8387
153.575 7945 89.1347
153.693 8205 90.5815
153.81 8689 93.2148
153.927 9203 95.9323
154.044 9398 96.9433
154.162 9512 97.5295
154.279 9910 99.549
154.396 10338 101.676
154.513 10410 102.029
154.63 10369 101.828
154.747 10412 102.039
154.864 10527 102.601
154.981 10301 101.494
155.098 10449 102.22
155.215 10122 100.608
155.332 9870 99.3479
155.449 9966 99.8299
155.566 9754 98.7623
155.683 10207 101.03
155.8 10281 101.395
155.917 10686 103.373
156.033 11181 105.74
156.15 0 1
156.267 0 1
156.383 0 1
156.5 0 1
156.617 0 1
156.733 0 1
156.85 0 1
156.966 0 1
157.082 0 1
157.199 0 1
157.315 0 1
157.431 0 1
157.547 0 1
157.664 0 1
157.78 0 1
157.896 0 1
158.012 0 1
158.128 0 1
158.244 0 1
158.359 0 1
158.475 0 1
158.591 0 1
158.706 0 1
