
6.15755 0 1
6.2731 0 1
6.3887 0 1
6.50437 0 1
6.62009 0 1
6.73587 0 1
6.8517 0 1
6.96759 0 1
7.08353 0 1
7.19952 0 1
7.31557 0 1
7.43166 0 1
7.54781 0 1
7.664 0 1
7.78024 0 1
7.89653 0 1
8.01286 0 1
8.12924 0 1
8.24567 0 1
8.36213 0 1
8.47864 0 1
8.59519 0 1
8.71178 0 1
8.82841 0 1
8.94508 0 1
9.06179 0 1
9.17853 0 1
9.29531 0 1
9.41212 0 1
9.52897 0 1
9.64584 0 1
9.76276 0 1
9.8797 0 1
9.99667 0 1
10.1137 0 1
10.2307 0 1
10.3478 0 1
10.4648 0 1
10.5819 0 1
10.6991 0 1
10.8162 0 1
10.9334 0 1
11.0506 0 1
11.1678 0 1
11.285 0 1
11.4023 0 1
11.5196 0 1
11.6369 0 1
11.7542 0 1
11.8715 0 1
11.9888 0 1
12.1062 0 1
12.2235 0 1
12.3409 0 1
12.4582 0 1
12.5756 0 1
12.693 0 1
12.8104 0 1
12.9278 0 1
13.0452 0 1
13.1626 0 1
13.28 0 1
13.3974 0 1
13.5149 0 1
13.6323 0 1
13.7497 0 1
13.8671 0 1
13.9845 0 1
14.1019 0 1
14.2193 0 1
14.3367 0 1
14.4541 0 1
14.5714 0 1
14.6888 0 1
14.8062 0 1
14.9235 0 1
15.0408 45459 213.211
15.1581 47146 217.131
15.2755 48976 221.305
15.3927 50018 223.647
15.51 48427 220.061
15.6273 47789 218.607
15.7445 47654 218.298
15.8617 47640 218.266
15.9789 48499 220.225
16.0961 48509 220.248
16.2132 48436 220.082
16.3304 48105 219.329
16.4475 48258 219.677
16.5646 48173 219.483
16.6816 47268 217.412
16.7986 46771 216.266
16.9156 46665 216.021
17.0326 46038 214.565
17.1496 45952 214.364
17.2665 45818 214.051
17.3833 45672 213.71
17.5002 45505 213.319
17.617 46047 214.586
17.7338 46677 216.049
17.8505 46996 216.786
17.9672 46765 216.252
18.0839 47173 217.193
18.2005 46288 215.146
18.3171 45425 213.131
18.4337 44948 212.009
18.5502 45075 212.309
18.6666 46088 214.681
18.7831 47488 217.917
18.8994 47294 217.472
19.0158 46008 214.495
19.1321 44554 211.078
19.2483 43451 208.449
19.3645 42725 206.7
19.4806 42385 205.876
19.5967 42094 205.168
19.7128 40788 201.96
19.8288 38116 195.233
19.9447 32967 181.568
20.0606 0 1
20.1764 0 1
20.2922 0 1
20.4079 0 1
20.5236 0 1
20.6392 0 1
20.7548 0 1
20.8702 0 1
23.3078 0 1
23.4233 0 1
23.539 0 1
23.6547 0 1
23.7704 0 1
23.8862 0 1
24.0021 0 1
24.118 0 1
24.234 0 1
24.35 0 1
24.4661 16777 129.526
24.5822 19495 139.624
24.6984 22277 149.255
24.8146 26826 163.786
24.9309 31322 176.98
25.0472 35742 189.056
25.1636 39796 199.489
25.28 43777 209.23
25.3965 46636 215.954
25.513 48948 221.242
25.6296 50509 224.742
25.7462 51881 227.774
25.8628 51858 227.724
25.9795 51744 227.473
26.0962 51536 227.015
26.213 51529 227
26.3298 50959 225.741
26.4466 50215 224.087
26.5635 50063 223.748
26.6804 49457 222.389
26.7973 48292 219.754
26.9143 46983 216.756
27.0313 45479 213.258
27.1483 45887 214.213
27.2653 46885 216.529
27.3824 47743 218.502
27.4996 48615 220.488
27.6167 47546 218.05
27.7339 46082 214.667
27.8511 45091 212.346
27.9683 43897 209.516
28.0855 43688 209.017
28.2028 45191 212.582
28.3201 45708 213.794
28.4374 47135 217.106
28.5547 48207 219.561
28.6721 48956 221.26
28.7894 49040 221.45
28.9068 49145 221.687
29.0242 49458 222.392
29.1416 49513 222.515
29.259 49409 222.281
29.3764 49015 221.393
29.4939 49143 221.682
29.6113 49288 222.009
29.7288 49425 222.317
29.8463 49036 221.441
29.9638 49024 221.414
30.0812 49058 221.49
30.1987 47940 218.952
30.3162 46805 216.345
30.4337 44749 211.54
30.5512 43483 208.526
30.6687 43917 209.564
30.7862 44749 211.54
30.9037 46502 215.643
31.0212 47826 218.692
31.1387 46803 216.34
31.2562 45833 214.086
31.3737 44961 212.04
31.4912 44015 209.798
31.6087 43668 208.969
31.7262 44356 210.609
31.8436 45331 212.911
31.9611 45988 214.448
32.0785 47085 216.991
32.1959 47395 217.704
32.3134 48166 219.468
32.4308 48032 219.162
32.5482 48081 219.274
32.6655 48134 219.395
32.7829 48069 219.246
32.9002 48250 219.659
33.0176 48122 219.367
33.1349 47884 218.824
33.2522 48540 220.318
33.3694 48277 219.72
33.4867 48288 219.745
33.6039 47906 218.874
33.7211 47414 217.748
33.8383 46663 216.016
33.9554 45364 212.988
34.0725 43570 208.734
34.1896 43028 207.432
34.3067 42935 207.208
34.4237 44102 210.005
34.5407 45225 212.662
34.6577 46415 215.441
34.7746 46001 214.478
34.8915 45198 212.598
35.0084 43838 209.375
35.1252 43151 207.728
35.242 42510 206.18
35.3587 42562 206.306
35.4755 43578 208.753
35.5921 44184 210.2
35.7088 45030 212.203
35.8254 46030 214.546
35.9419 46737 216.187
36.0584 46901 216.566
36.1749 47047 216.903
36.2913 46890 216.541
36.4077 45467 213.23
36.524 43797 209.277
36.6403 41946 204.807
36.7565 39497 198.739
36.8727 36849 191.961
36.9889 34162 184.83
37.1049 31229 176.717
37.221 0 1
37.3369 0 1
37.4529 0 1
37.5687 0 1
37.6845 0 1
37.8003 0 1
37.916 0 1
38.0316 0 1
38.1472 0 1
40.5851 0 1
40.7008 0 1
40.8164 0 1
40.9322 0 1
41.048 0 1
41.1639 0 1
41.2798 0 1
41.3958 0 1
41.5118 0 1
41.6279 0 1
41.744 20144 141.93
41.8602 24123 155.316
41.9765 27537 165.943
42.0928 30554 174.797
42.2091 32696 180.82
42.3255 34902 186.821
42.4419 36699 191.57
42.5584 37800 194.422
42.675 38067 195.108
42.7915 36577 191.251
42.9081 35773 189.138
43.0248 36187 190.229
43.1415 37151 192.746
43.2582 38101 195.195
43.375 39486 198.711
43.4918 40612 201.524
43.6087 41004 202.494
43.7256 40166 200.415
43.8425 39659 199.146
43.9595 38317 195.747
44.0765 38017 194.979
44.1935 37731 194.245
44.3106 38257 195.594
44.4277 38733 196.807
44.5448 39475 198.683
44.6619 39769 199.422
44.7791 40560 201.395
44.8963 41148 202.85
45.0136 41012 202.514
45.1308 41445 203.58
45.2481 41297 203.217
45.3654 41547 203.831
45.4827 41114 202.766
45.6001 41457 203.61
45.7174 41347 203.34
45.8348 41494 203.701
45.9522 41103 202.739
46.0697 40958 202.381
46.1871 40067 200.167
46.3046 38898 197.226
46.422 37853 194.558
46.5395 37400 193.391
46.657 38279 195.65
46.7745 38800 196.977
46.892 40488 201.216
47.0096 42008 204.959
47.1271 42505 206.167
47.2446 42774 206.819
47.3622 42292 205.65
47.4797 41548 203.833
47.5973 40390 200.973
47.7149 39462 198.65
47.8324 39216 198.03
47.95 39718 199.294
48.0675 41153 202.862
48.1851 40758 201.886
48.3027 41482 203.671
48.4202 42212 205.456
48.5378 42413 205.944
48.6554 41756 204.343
48.7729 42472 206.087
48.8904 42767 206.802
49.008 42529 206.226
49.1255 42693 206.623
49.243 42304 205.679
49.3605 42001 204.941
49.478 41820 204.499
49.5955 41103 202.739
49.713 39510 198.771
49.8304 38020 194.987
49.9479 37099 192.611
50.0653 36697 191.565
50.1827 37297 193.124
50.3001 39062 197.641
50.4175 40383 200.955
50.5348 41793 204.433
50.6521 42633 206.478
50.7694 42803 206.889
50.8867 42302 205.675
51.004 41788 204.421
51.1212 40866 202.153
51.2384 39744 199.359
51.3556 40568 201.415
51.4727 40539 201.343
51.5899 41050 202.608
51.707 41278 203.17
51.824 42327 205.735
51.9411 42987 207.333
52.0581 43229 207.916
52.175 43365 208.243
52.2919 42947 207.237
52.4088 43199 207.844
52.5257 43516 208.605
52.6425 42700 206.64
52.7593 42404 205.922
52.876 42821 206.932
52.9927 42528 206.223
53.1094 42490 206.131
53.226 41085 202.694
53.3426 39926 199.815
53.4591 38124 195.254
53.5756 36390 190.762
53.692 34708 186.301
53.8084 33266 182.39
53.9248 31878 178.544
54.0411 30341 174.187
54.1573 28316 168.274
54.2735 0 1
54.3896 0 1
54.5057 0 1
54.6217 0 1
54.7377 0 1
54.8537 0 1
54.9695 0 1
55.0853 0 1
55.2011 0 1
55.3168 0 1
55.4324 0 1
57.824 0 1
57.9396 0 1
58.0553 0 1
58.1711 0 1
58.2869 0 1
58.4028 0 1
58.5187 0 1
58.6347 0 1
58.7508 0 1
58.8669 0 1
58.983 26448 162.628
59.0992 31588 177.73
59.2155 37023 192.414
59.3318 41329 203.295
59.4482 44911 211.922
59.5646 48080 219.272
59.681 49415 222.295
59.7975 50228 224.116
59.9141 50623 224.996
60.0306 50272 224.214
60.1473 50643 225.04
60.2639 51345 226.594
60.3807 52443 229.004
60.4974 53108 230.452
60.6142 53777 231.899
60.731 54624 233.718
60.8479 54327 233.082
60.9648 54434 233.311
61.0818 54525 233.506
61.1987 54375 233.184
61.3158 54220 232.852
61.4328 53852 232.06
61.5499 53558 231.426
61.667 53231 230.718
61.7841 52533 229.201
61.9013 51388 226.689
62.0185 48654 220.577
62.1357 48272 219.709
62.253 47819 218.676
62.3702 48891 221.113
62.4875 50703 225.173
62.6049 52594 229.334
62.7222 54353 233.137
62.8396 55869 236.366
62.9569 57623 240.048
63.0743 56810 238.348
63.1918 56416 237.521
63.3092 55387 235.344
63.4267 54297 233.017
63.5441 52375 228.856
63.6616 51987 228.007
63.7791 52428 228.972
63.8966 52760 229.695
64.0142 52751 229.676
64.1317 53469 231.234
64.2492 53491 231.281
64.3668 53209 230.671
64.4843 53694 231.72
64.6019 53240 230.738
64.7195 53532 231.37
64.837 53588 231.491
64.9546 53101 230.437
65.0722 52993 230.202
65.1898 52867 229.928
65.3074 51538 227.02
65.4249 51498 226.932
65.5425 49090 221.563
65.6601 47545 218.048
65.7777 46982 216.753
65.8952 47263 217.401
66.0128 48655 220.579
66.1304 50620 224.989
66.2479 52263 228.611
66.3655 54280 232.981
66.483 56259 237.19
66.6005 56198 237.061
66.718 56056 236.761
66.8355 54943 234.399
66.953 53618 231.556
67.0705 52019 228.077
67.1879 51034 225.907
67.3054 50759 225.298
67.4228 50864 225.53
67.5402 50693 225.151
67.6576 50793 225.373
67.7749 50841 225.479
67.8923 51476 226.883
68.0096 51495 226.925
68.1269 52234 228.548
68.2442 52820 229.826
68.3614 53035 230.293
68.4787 52479 229.083
68.5958 52270 228.626
68.713 52347 228.795
68.8302 51938 227.899
68.9473 51414 226.747
69.0643 50033 223.681
69.1814 48413 220.03
69.2984 46239 215.033
69.4154 45334 212.918
69.5323 45433 213.15
69.6492 46759 216.238
69.7661 48619 220.497
69.8829 50892 225.593
69.9997 52481 229.087
70.1165 52693 229.55
70.2332 51503 226.943
70.3499 49601 222.713
70.4665 46629 215.937
70.5831 42801 206.884
70.6996 39630 199.073
70.8161 36330 190.604
70.9326 33351 182.623
71.049 30402 174.362
71.1653 27938 167.147
71.2817 26114 161.598
71.3979 24513 156.566
71.5141 23401 152.974
71.6303 21832 147.757
71.7464 19044 138
71.8624 0 1
71.9784 0 1
72.0944 0 1
72.2102 0 1
72.3261 0 1
72.4418 0 1
72.5575 0 1
72.6732 0 1
75.1054 0 1
75.2209 0 1
75.3365 0 1
75.4521 0 1
75.5678 0 1
75.6835 0 1
75.7993 0 1
75.9151 0 1
76.031 0 1
76.147 31711 178.076
76.263 34868 186.73
76.3791 37105 192.627
76.4952 39207 198.008
76.6113 40751 201.869
76.7276 42008 204.959
76.8438 44155 210.131
76.9601 44962 212.042
77.0765 45427 213.136
77.1929 46679 216.053
77.3093 47848 218.742
77.4258 48833 220.982
77.5423 49218 221.851
77.6589 49633 222.785
77.7755 50031 223.676
77.8921 49308 222.054
78.0088 48413 220.03
78.1256 47040 216.887
78.2423 45122 212.419
78.3591 43813 209.316
78.4759 43525 208.626
78.5928 44615 211.223
78.7097 47216 217.292
78.8266 49255 221.935
78.9436 53394 231.071
79.0606 54181 232.768
79.1776 55578 235.75
79.2946 56784 238.294
79.4117 57600 240
79.5288 57234 239.236
79.6459 56390 237.466
79.7631 55113 234.762
79.8802 53319 230.909
79.9974 52444 229.007
80.1147 51783 227.559
80.2319 51746 227.477
80.3491 51463 226.855
80.4664 52431 228.978
80.5837 52954 230.117
80.701 54192 232.792
80.8183 54822 234.141
80.9357 57212 239.19
81.053 58075 240.988
81.1704 58258 241.367
81.2877 58490 241.847
81.4051 58082 241.002
81.5225 56939 238.619
81.6399 56643 237.998
81.7573 53619 231.558
81.8747 52581 229.305
81.9922 49422 222.311
82.1096 48421 220.048
82.227 49171 221.745
82.3444 51051 225.945
82.4619 54041 232.467
82.5793 57501 239.794
82.6967 57917 240.66
82.8142 59436 243.795
82.9316 60192 245.341
83.049 59705 244.346
83.1664 59360 243.639
83.2838 57028 238.805
83.4012 55060 234.649
83.5186 53423 231.134
83.636 51829 227.66
83.7534 51321 226.541
83.8708 51549 227.044
83.9881 50934 225.686
84.1055 51187 226.245
84.2228 51411 226.74
84.3401 52082 228.215
84.4575 52397 228.904
84.5747 53741 231.821
84.692 54422 233.285
84.8093 54668 233.812
84.9265 53667 231.661
85.0437 52767 229.711
85.1609 51975 227.98
85.2781 50064 223.75
85.3952 47851 218.749
85.5123 45851 214.128
85.6294 43443 208.43
85.7465 42638 206.49
85.8636 42981 207.319
85.9806 44051 209.883
86.0976 46347 215.284
86.2145 48117 219.356
86.3315 49350 222.149
86.4484 50825 225.444
86.5652 50587 224.916
86.682 50197 224.047
86.7988 48886 221.102
86.9156 47573 218.112
87.0323 45930 214.313
87.149 44770 211.589
87.2657 44553 211.076
87.3823 44452 210.836
87.4988 43946 209.633
87.6154 42831 206.957
87.7318 41618 204.005
87.8483 39859 199.647
87.9647 37856 194.566
88.081 36437 190.885
88.1973 34959 186.973
88.3136 32954 181.532
88.4298 30054 173.361
88.546 26617 163.147
88.6621 24654 157.016
88.7781 22415 149.716
88.8942 0 1
89.0101 0 1
89.126 0 1
89.2419 0 1
89.3577 0 1
89.4734 0 1
89.5891 0 1
89.7047 0 1
89.8203 0 1
89.9358 0 1
92.3269 0 1
92.4424 0 1
92.558 0 1
92.6736 0 1
92.7893 0 1
92.905 0 1
93.0208 0 1
93.1366 0 1
93.2525 0 1
93.3685 0 1
93.4845 0 1
93.6005 32109 179.19
93.7167 35936 189.568
93.8328 39691 199.226
93.949 42270 205.597
94.0653 44032 209.838
94.1816 45394 213.059
94.2979 46121 214.758
94.4143 46237 215.028
94.5307 45914 214.276
94.6472 45485 213.272
94.7637 43661 208.952
94.8803 42451 206.036
94.9969 41955 204.829
95.1135 42676 206.582
95.2302 43438 208.418
95.3469 45465 213.225
95.4637 47827 218.694
95.5805 49263 221.953
95.6973 50257 224.181
95.8142 50012 223.634
95.9311 48899 221.131
96.048 47608 218.193
96.1649 46834 216.412
96.2819 45192 212.584
96.3989 44183 210.198
96.516 43673 208.981
96.633 44452 210.836
96.7501 44841 211.757
96.8673 44801 211.662
96.9844 44952 212.019
97.1016 45136 212.452
97.2188 44956 212.028
97.336 45728 213.841
97.4532 46843 216.432
97.5704 47971 219.023
97.6877 48154 219.44
97.805 47822 218.682
97.9223 47401 217.718
98.0396 47128 217.09
98.1569 46471 215.571
98.2743 45677 213.722
98.3916 44334 210.556
98.509 42048 205.056
98.6264 42003 204.946
98.7438 41711 204.233
98.8612 43074 207.543
98.9786 45290 212.814
99.096 47081 216.982
99.2134 49213 221.84
99.3308 50255 224.176
99.4482 51497 226.93
99.5656 51520 226.98
99.6831 50439 224.586
99.8005 49380 222.216
99.9179 47808 218.65
100.035 46897 216.557
100.153 46756 216.231
100.27 47521 217.993
100.388 47252 217.375
100.505 46372 215.342
100.622 46466 215.56
100.74 45744 213.878
100.857 46570 215.801
100.975 47047 216.903
101.092 48734 220.758
101.209 49374 222.203
101.327 49018 221.4
101.444 48885 221.1
101.561 48400 220
101.679 47973 219.027
101.796 47833 218.708
101.913 46369 215.335
102.03 44958 212.033
102.148 44335 210.559
102.265 42953 207.251
102.382 45104 212.377
102.499 46644 215.972
102.616 48740 220.771
102.733 50143 223.926
102.851 52197 228.467
102.968 52920 230.043
103.085 53191 230.632
103.202 52901 230.002
103.319 51038 225.916
103.436 49555 222.61
103.552 48809 220.928
103.669 48146 219.422
103.786 48944 221.233
103.903 48760 220.817
104.02 47941 218.954
104.137 48417 220.039
104.253 47302 217.49
104.37 48710 220.703
104.487 49524 222.54
104.603 49974 223.549
104.72 50635 225.022
104.836 49861 223.296
104.953 48463 220.143
105.069 46799 216.331
105.186 44224 210.295
105.302 41449 203.59
105.418 38516 196.255
105.535 34667 186.191
105.651 31118 176.403
105.767 27463 165.72
105.883 25242 158.877
105.999 23888 154.557
106.115 0 1
106.231 0 1
106.347 0 1
106.463 0 1
106.579 0 1
106.694 0 1
106.81 0 1
106.926 0 1
107.041 0 1
107.157 0 1
109.576 0 1
109.692 0 1
109.807 0 1
109.923 0 1
110.039 0 1
110.155 0 1
110.27 0 1
110.386 0 1
110.502 0 1
110.618 24769 157.382
110.735 28268 168.131
110.851 30649 175.069
110.967 33161 182.102
111.083 36276 190.463
111.199 39085 197.699
111.316 42695 206.628
111.432 44656 211.32
111.549 45524 213.364
111.665 44714 211.457
111.782 44314 210.509
111.898 43413 208.358
112.015 42716 206.678
112.132 42392 205.893
112.248 42234 205.509
112.365 42470 206.083
112.482 41693 204.189
112.599 42846 206.993
112.716 42081 205.137
112.832 42068 205.105
112.949 41554 203.848
113.066 41909 204.717
113.183 42819 206.928
113.3 43375 208.267
113.417 42764 206.795
113.534 42705 206.652
113.652 42861 207.029
113.769 43002 207.369
113.886 42553 206.284
114.003 42065 205.098
114.12 41419 203.517
114.238 40963 202.393
114.355 40285 200.711
114.472 38137 195.287
114.589 42271 205.599
114.707 42523 206.211
114.824 44450 210.832
114.942 46341 215.27
115.059 47438 217.803
115.176 47080 216.979
115.294 45929 214.311
115.411 45012 212.16
115.529 44476 210.893
115.646 43498 208.562
115.764 42973 207.299
115.881 42516 206.194
115.999 42654 206.528
116.116 41607 203.978
116.234 41255 203.113
116.351 41748 204.323
116.469 41035 202.571
116.586 41061 202.635
116.704 41851 204.575
116.821 42287 205.638
116.939 43117 207.646
117.056 42697 206.633
117.174 42321 205.721
117.291 42442 206.015
117.409 42131 205.258
117.526 42355 205.803
117.644 42157 205.322
117.761 41698 204.201
117.879 40976 202.425
117.996 40223 200.557
118.114 40588 201.465
118.231 42000 204.939
118.349 42883 207.082
118.466 44550 211.069
118.584 45655 213.67
118.701 46028 214.541
118.819 45184 212.565
118.936 43898 209.518
119.053 42739 206.734
119.171 42409 205.934
119.288 41851 204.575
119.405 41690 204.181
119.523 41142 202.835
119.64 41310 203.249
119.757 40167 200.417
119.875 39954 199.885
119.992 39518 198.791
120.109 38900 197.231
120.226 39023 197.542
120.343 39545 198.859
120.46 39785 199.462
120.578 40230 200.574
120.695 40091 200.227
120.812 40046 200.115
120.929 39814 199.534
121.046 39917 199.792
121.163 39888 199.72
121.279 39347 198.361
121.396 39246 198.106
121.513 38730 196.799
121.63 38699 196.721
121.747 36799 191.831
121.863 36184 190.221
121.98 36055 189.882
122.097 35584 188.637
122.213 34564 185.914
122.33 33310 182.51
122.446 31055 176.224
122.563 28147 167.771
122.679 26556 162.96
122.795 24626 156.927
122.912 23478 153.225
123.028 22624 150.413
123.144 21275 145.86
123.26 19764 140.584
123.377 0 1
123.493 0 1
123.609 0 1
123.725 0 1
123.84 0 1
123.956 0 1
124.072 0 1
124.188 0 1
124.303 0 1
124.419 0 1
126.852 0 1
126.968 0 1
127.083 0 1
127.199 0 1
127.315 0 1
127.431 0 1
127.547 0 1
127.663 0 1
127.779 0 1
127.895 0 1
128.011 0 1
128.127 0 1
128.243 0 1
128.359 43083 207.564
128.476 44023 209.817
128.592 44465 210.867
128.708 44028 209.829
128.825 43536 208.653
128.941 43604 208.816
129.058 43112 207.634
129.174 43141 207.704
129.291 43339 208.18
129.408 43798 209.28
129.524 43854 209.413
129.641 44039 209.855
129.758 44737 211.511
129.875 44533 211.028
129.992 45018 212.174
130.108 44874 211.835
130.225 44300 210.476
130.342 44644 211.291
130.459 44515 210.986
130.576 45306 212.852
130.693 44285 210.44
130.81 43034 207.446
130.928 41188 202.948
131.045 41215 203.015
131.162 41768 204.372
131.279 43457 208.463
131.396 44347 210.587
131.513 44055 209.893
131.631 43559 208.708
131.748 43710 209.069
131.865 43630 208.878
131.983 43911 209.55
132.1 43639 208.899
132.217 43745 209.153
132.335 43409 208.348
132.452 42593 206.381
132.57 42245 205.536
132.687 43088 207.576
132.804 41838 204.543
132.922 42559 206.298
133.039 42841 206.981
133.157 42997 207.357
133.274 43275 208.026
133.392 43984 209.724
133.509 44049 209.879
133.627 44143 210.102
133.744 44062 209.91
133.862 43615 208.842
133.979 44187 210.207
134.097 43959 209.664
134.214 44397 210.706
134.332 42621 206.449
134.449 41388 203.44
134.567 40446 201.112
134.684 40214 200.534
134.802 41571 203.89
134.919 42513 206.187
135.037 42599 206.395
135.154 41785 204.414
135.272 41987 204.907
135.389 43662 208.955
135.507 43288 208.058
135.624 43841 209.382
135.742 43750 209.165
135.859 43259 207.988
135.977 42715 206.676
136.094 42407 205.93
136.211 42153 205.312
136.329 42128 205.251
136.446 41776 204.392
136.564 42399 205.91
136.681 42698 206.635
136.798 42676 206.582
136.915 43223 207.901
137.033 43343 208.19
137.15 43674 208.983
137.267 43250 207.966
137.384 43741 209.143
137.502 42835 206.966
137.619 42575 206.337
137.736 43340 208.183
137.853 41057 202.625
137.97 41583 203.919
138.087 40184 200.459
138.204 38331 195.783
138.321 37589 193.879
138.438 38578 196.413
138.555 40336 200.838
138.672 40001 200.002
138.788 39883 199.707
138.905 39913 199.782
139.022 40698 201.737
139.139 40561 201.398
139.255 39386 198.459
139.372 36547 191.173
139.488 32730 180.914
139.605 29373 171.386
139.721 26827 163.789
139.838 25136 158.543
139.954 24643 156.981
140.071 23496 153.284
140.187 22310 149.365
140.303 21494 146.608
140.419 20501 143.182
140.535 19710 140.392
140.652 18733 136.869
140.768 0 1
140.884 0 1
141 0 1
141.115 0 1
141.231 0 1
141.347 0 1
141.463 0 1
141.578 0 1
141.694 0 1
144.104 0 1
144.219 0 1
144.335 0 1
144.45 0 1
144.566 0 1
144.682 0 1
144.798 0 1
144.914 0 1
145.03 0 1
145.146 29305 171.187
145.262 30628 175.009
145.378 30973 175.991
145.494 31790 178.298
145.61 31693 178.025
145.726 31898 178.6
145.842 32478 180.217
145.959 32442 180.117
146.075 32485 180.236
146.192 32126 179.237
146.308 32202 179.449
146.425 32180 179.388
146.541 32067 179.073
146.658 32689 180.801
146.774 32265 179.625
146.891 31059 176.236
147.008 30627 175.006
147.125 29082 170.534
147.241 29034 170.394
147.358 29481 171.7
147.475 29980 173.147
147.592 30708 175.237
147.709 31518 177.533
147.826 32284 179.677
147.943 31697 178.037
148.06 31909 178.631
148.177 31253 176.785
148.294 31301 176.921
148.411 31667 177.952
148.528 31251 176.78
148.645 30968 175.977
148.762 30887 175.747
148.88 30794 175.482
148.997 31770 178.241
149.114 30569 174.84
149.231 30877 175.719
149.349 31298 176.912
149.466 30961 175.957
149.583 31281 176.864
149.701 30609 174.954
149.818 30345 174.198
149.935 30573 174.851
150.053 30331 174.158
150.17 30578 174.866
150.287 30950 175.926
150.405 30786 175.459
150.522 30514 174.683
150.64 29790 172.598
150.757 28685 169.366
150.875 28077 167.562
150.992 27811 166.766
151.11 28166 167.827
151.227 28986 170.253
151.344 29795 172.612
151.462 29901 172.919
151.579 29980 173.147
151.697 29882 172.864
151.814 30126 173.568
151.932 29449 171.607
152.049 29167 170.783
152.167 28899 169.997
152.284 28626 169.192
152.402 28370 168.434
152.519 28351 168.378
152.636 28408 168.547
152.754 28425 168.597
152.871 28361 168.407
152.989 28166 167.827
153.106 28597 169.106
153.223 28043 167.46
153.341 27481 165.774
153.458 27345 165.363
153.575 27033 164.417
153.693 27185 164.879
153.81 27408 165.554
153.927 27494 165.813
154.044 27484 165.783
154.162 27274 165.148
154.279 26515 162.834
154.396 26008 161.27
154.513 25888 160.897
154.63 25932 161.034
154.747 26108 161.58
154.864 26360 162.358
154.981 26161 161.744
155.098 25942 161.065
155.215 25095 158.414
155.332 24540 156.652
155.449 24069 155.142
155.566 23251 152.483
155.683 22453 149.843
155.8 21886 147.939
155.917 21204 145.616
156.033 20287 142.432
156.15 0 1
156.267 0 1
156.383 0 1
156.5 0 1
156.617 0 1
156.733 0 1
156.85 0 1
156.966 0 1
157.082 0 1
157.199 0 1
157.315 0 1
157.431 0 1
157.547 0 1
157.664 0 1
157.78 0 1
157.896 0 1
158.012 0 1
158.128 0 1
158.244 0 1
158.359 0 1
158.475 0 1
158.591 0 1
158.706 0 1
