
6.15755 0 1
6.2731 0 1
6.3887 0 1
6.50437 0 1
6.62009 0 1
6.73587 0 1
6.8517 0 1
6.96759 0 1
7.08353 0 1
7.19952 0 1
7.31557 0 1
7.43166 0 1
7.54781 0 1
7.664 0 1
7.78024 0 1
7.89653 0 1
8.01286 0 1
8.12924 0 1
8.24567 0 1
8.36213 0 1
8.47864 0 1
8.59519 0 1
8.71178 0 1
8.82841 0 1
8.94508 0 1
9.06179 0 1
9.17853 0 1
9.29531 0 1
9.41212 0 1
9.52897 0 1
9.64584 0 1
9.76276 0 1
9.8797 0 1
9.99667 0 1
10.1137 0 1
10.2307 0 1
10.3478 0 1
10.4648 0 1
10.5819 0 1
10.6991 0 1
10.8162 0 1
10.9334 0 1
11.0506 0 1
11.1678 0 1
11.285 0 1
11.4023 0 1
11.5196 0 1
11.6369 0 1
11.7542 0 1
11.8715 0 1
11.9888 0 1
12.1062 0 1
12.2235 0 1
12.3409 0 1
12.4582 0 1
12.5756 0 1
12.693 0 1
12.8104 0 1
12.9278 0 1
13.0452 0 1
13.1626 0 1
13.28 0 1
13.3974 0 1
13.5149 0 1
13.6323 0 1
13.7497 0 1
13.8671 0 1
13.9845 0 1
14.1019 0 1
14.2193 0 1
14.3367 0 1
14.4541 0 1
14.5714 0 1
14.6888 0 1
14.8062 0 1
14.9235 0 1
15.0408 9672 98.3463
15.1581 9917 99.5841
15.2755 9911 99.554
15.3927 9986 99.93
15.51 9940 99.6995
15.6273 9443 97.1751
15.7445 9582 97.8877
15.8617 9499 97.4628
15.9789 9837 99.1817
16.0961 9830 99.1464
16.2132 10713 103.504
16.3304 10889 104.35
16.4475 11210 105.877
16.5646 11282 106.217
16.6816 11388 106.715
16.7986 11140 105.546
16.9156 11191 105.788
17.0326 11272 106.17
17.1496 11109 105.399
17.2665 10966 104.719
17.3833 11048 105.109
17.5002 10876 104.288
17.617 11188 105.773
17.7338 11232 105.981
17.8505 11385 106.701
17.9672 11669 108.023
18.0839 12084 109.927
18.2005 12337 111.072
18.3171 12526 111.92
18.4337 12648 112.463
18.5502 13067 114.311
18.6666 13187 114.835
18.7831 12979 113.925
18.8994 12876 113.472
19.0158 12656 112.499
19.1321 12370 111.221
19.2483 11944 109.289
19.3645 11899 109.083
19.4806 11836 108.793
19.5967 12149 110.223
19.7128 12488 111.75
19.8288 12932 113.719
19.9447 11764 108.462
20.0606 0 1
20.1764 0 1
20.2922 0 1
20.4079 0 1
20.5236 0 1
20.6392 0 1
20.7548 0 1
20.8702 0 1
23.3078 0 1
23.4233 0 1
23.539 0 1
23.6547 0 1
23.7704 0 1
23.8862 0 1
24.0021 0 1
24.118 0 1
24.234 0 1
24.35 0 1
24.4661 12114 110.064
24.5822 12181 110.368
24.6984 12334 111.059
24.8146 12869 113.442
24.9309 13178 114.795
25.0472 13691 117.009
25.1636 13877 117.801
25.28 13987 118.267
25.3965 13861 117.733
25.513 13840 117.644
25.6296 13861 117.733
25.7462 13896 117.881
25.8628 13439 115.927
25.9795 13390 115.715
26.0962 13504 116.207
26.213 13621 116.709
26.3298 13862 117.737
26.4466 14151 118.958
26.5635 14498 120.408
26.6804 14799 121.651
26.7973 15307 123.721
26.9143 15502 124.507
27.0313 15681 125.224
27.1483 15557 124.728
27.2653 16051 126.693
27.3824 15997 126.479
27.4996 15492 124.467
27.6167 15533 124.631
27.7339 14942 122.237
27.8511 14495 120.395
27.9683 14223 119.26
28.0855 13538 116.353
28.2028 13527 116.306
28.3201 13290 115.282
28.4374 13764 117.32
28.5547 14299 119.578
28.6721 14894 122.041
28.7894 15165 123.146
28.9068 14840 121.82
29.0242 14519 120.495
29.1416 14287 119.528
29.259 13796 117.456
29.3764 13544 116.379
29.4939 13553 116.417
29.6113 13223 114.991
29.7288 13474 116.078
29.8463 13720 117.132
29.9638 14140 118.912
30.0812 14484 120.349
30.1987 14799 121.651
30.3162 15310 123.734
30.4337 15656 125.124
30.5512 16010 126.531
30.6687 15923 126.186
30.7862 16356 127.891
30.9037 16001 126.495
31.0212 16259 127.511
31.1387 16029 126.606
31.2562 15282 123.62
31.3737 15161 123.13
31.4912 14759 121.487
31.6087 14193 119.134
31.7262 13885 117.835
31.8436 13900 117.898
31.9611 14234 119.306
32.0785 14703 121.256
32.1959 15339 123.851
32.3134 15715 125.359
32.4308 15551 124.704
32.5482 15714 125.355
32.6655 15230 123.41
32.7829 14511 120.462
32.9002 14181 119.084
33.0176 13987 118.267
33.1349 13752 117.269
33.2522 13927 118.013
33.3694 13861 117.733
33.4867 14375 119.896
33.6039 14700 121.244
33.7211 15160 123.126
33.8383 15482 124.427
33.9554 15830 125.817
34.0725 16185 127.22
34.1896 16423 128.152
34.3067 16578 128.756
34.4237 16651 129.039
34.5407 17253 131.351
34.6577 17084 130.706
34.7746 16874 129.9
34.8915 16007 126.519
35.0084 15829 125.813
35.1252 15379 124.012
35.242 15209 123.325
35.3587 14679 121.157
35.4755 14466 120.275
35.5921 14648 121.029
35.7088 15006 122.499
35.8254 15496 124.483
35.9419 15718 125.371
36.0584 15873 125.988
36.1749 16108 126.917
36.2913 15793 125.67
36.4077 15356 123.919
36.524 14618 120.905
36.6403 14116 118.811
36.7565 13847 117.673
36.8727 13836 117.627
36.9889 13955 118.131
37.1049 14061 118.579
37.221 0 1
37.3369 0 1
37.4529 0 1
37.5687 0 1
37.6845 0 1
37.8003 0 1
37.916 0 1
38.0316 0 1
38.1472 0 1
40.5851 0 1
40.7008 0 1
40.8164 0 1
40.9322 0 1
41.048 0 1
41.1639 0 1
41.2798 0 1
41.3958 0 1
41.5118 0 1
41.6279 0 1
41.744 11801 108.632
41.8602 12205 110.476
41.9765 12159 110.268
42.0928 12253 110.693
42.2091 12352 111.14
42.3255 12973 113.899
42.4419 13284 115.256
42.5584 13844 117.661
42.675 14241 119.336
42.7915 14930 122.188
42.9081 15084 122.817
43.0248 15209 123.325
43.1415 15252 123.499
43.2582 15311 123.738
43.375 15324 123.79
43.4918 15369 123.972
43.6087 15138 123.037
43.7256 14724 121.342
43.8425 14224 119.264
43.9595 13925 118.004
44.0765 13500 116.19
44.1935 13140 114.63
44.3106 12777 113.035
44.4277 12874 113.464
44.5448 12929 113.706
44.6619 13328 115.447
44.7791 13417 115.832
44.8963 13500 116.19
45.0136 13152 114.682
45.1308 12685 112.628
45.2481 11862 108.913
45.3654 11560 107.517
45.4827 10766 103.759
45.6001 10775 103.803
45.7174 10540 102.665
45.8348 10999 104.876
45.9522 11316 106.377
46.0697 11797 108.614
46.1871 11985 109.476
46.3046 12585 112.183
46.422 12688 112.641
46.5395 13109 114.495
46.657 13309 115.365
46.7745 13207 114.922
46.892 13225 115
47.0096 13089 114.407
47.1271 13188 114.839
47.2446 12835 113.292
47.3622 12481 111.718
47.4797 12187 110.395
47.5973 11792 108.591
47.7149 11285 106.231
47.8324 10939 104.59
47.95 10843 104.13
48.0675 10651 103.204
48.1851 11081 105.266
48.3027 11153 105.608
48.4202 11229 105.967
48.5378 11123 105.466
48.6554 10474 102.343
48.7729 9969 99.8449
48.8904 9640 98.1835
49.008 9157 95.6922
49.1255 8920 94.4458
49.243 9005 94.8947
49.3605 9213 95.9844
49.478 9676 98.3667
49.5955 10135 100.673
49.713 10835 104.091
49.8304 10983 104.8
49.9479 11641 107.893
50.0653 11972 109.417
50.1827 12080 109.909
50.3001 12235 110.612
50.4175 12357 111.162
50.5348 12732 112.836
50.6521 12611 112.299
50.7694 12691 112.654
50.8867 12261 110.729
51.004 12493 111.772
51.1212 12296 110.887
51.2384 12044 109.745
51.3556 12015 109.613
51.4727 12216 110.526
51.5899 12618 112.33
51.707 13251 115.113
51.824 13704 117.064
51.9411 14265 119.436
52.0581 14190 119.122
52.175 13844 117.661
52.2919 13394 115.732
52.4088 12853 113.371
52.5257 12390 111.31
52.6425 12289 110.856
52.7593 12080 109.909
52.876 12376 111.247
52.9927 13154 114.691
53.1094 14302 119.591
53.226 15161 123.13
53.3426 16089 126.842
53.4591 16861 129.85
53.5756 17522 132.371
53.692 18023 134.25
53.8084 18136 134.67
53.9248 18352 135.47
54.0411 19206 138.586
54.1573 19059 138.054
54.2735 0 1
54.3896 0 1
54.5057 0 1
54.6217 0 1
54.7377 0 1
54.8537 0 1
54.9695 0 1
55.0853 0 1
55.2011 0 1
55.3168 0 1
55.4324 0 1
57.824 0 1
57.9396 0 1
58.0553 0 1
58.1711 0 1
58.2869 0 1
58.4028 0 1
58.5187 0 1
58.6347 0 1
58.7508 0 1
58.8669 0 1
58.983 21344 146.096
59.0992 22323 149.409
59.2155 22923 151.403
59.3318 23235 152.43
59.4482 22901 151.331
59.5646 22503 150.01
59.681 22203 149.007
59.7975 21838 147.777
59.9141 21654 147.153
60.0306 21333 146.058
60.1473 21376 146.205
60.2639 21211 145.64
60.3807 20926 144.658
60.4974 21341 146.086
60.6142 21164 145.479
60.731 20523 143.259
60.8479 19302 138.932
60.9648 18244 135.07
61.0818 17207 131.175
61.1987 16965 130.25
61.3158 16403 128.074
61.4328 16569 128.721
61.5499 17023 130.472
61.667 18153 134.733
61.7841 18900 137.477
61.9013 19851 140.894
62.0185 20502 143.185
62.1357 21370 146.185
62.253 21880 147.919
62.3702 22051 148.496
62.4875 22388 149.626
62.6049 22774 150.911
62.7222 22491 149.97
62.8396 22343 149.476
62.9569 22268 149.225
63.0743 21596 146.956
63.1918 21447 146.448
63.3092 20987 144.869
63.4267 20619 143.593
63.5441 20038 141.556
63.6616 20067 141.658
63.7791 20415 142.881
63.8966 20225 142.215
64.0142 20640 143.666
64.1317 20262 142.345
64.2492 19950 141.244
64.3668 18979 137.764
64.4843 17933 133.914
64.6019 17053 130.587
64.7195 16202 127.287
64.837 15547 124.688
64.9546 15662 125.148
65.0722 16030 126.61
65.1898 16685 129.17
65.3074 17851 133.608
65.4249 18831 137.226
65.5425 19736 140.485
65.6601 20849 144.392
65.7777 21144 145.41
65.8952 22044 148.472
66.0128 21976 148.243
66.1304 22607 150.356
66.2479 22560 150.2
66.3655 22587 150.29
66.483 22776 150.917
66.6005 22246 149.151
66.718 22105 148.678
66.8355 21659 147.17
66.953 21804 147.662
67.0705 21073 145.165
67.1879 20648 143.694
67.3054 20940 144.707
67.4228 21317 146.003
67.5402 21627 147.061
67.6576 21830 147.75
67.7749 21196 145.588
67.8923 21323 146.024
68.0096 20430 142.934
68.1269 19244 138.723
68.2442 18036 134.298
68.3614 17434 132.038
68.4787 16910 130.038
68.5958 16466 128.32
68.713 17517 132.352
68.8302 18105 134.555
68.9473 19479 139.567
69.0643 21107 145.282
69.1814 22291 149.302
69.2984 23424 153.049
69.4154 24612 156.882
69.5323 25156 158.606
69.6492 25769 160.527
69.7661 26608 163.12
69.8829 26578 163.028
69.9997 26937 164.125
70.1165 27127 164.703
70.2332 27277 165.158
70.3499 26958 164.189
70.4665 26571 163.006
70.5831 26229 161.954
70.6996 26142 161.685
70.8161 25568 159.9
70.9326 25249 158.899
71.049 25498 159.681
71.1653 25693 160.29
71.2817 26039 161.366
71.3979 25879 160.87
71.5141 25117 158.483
71.6303 22861 151.199
71.7464 19877 140.986
71.8624 0 1
71.9784 0 1
72.0944 0 1
72.2102 0 1
72.3261 0 1
72.4418 0 1
72.5575 0 1
72.6732 0 1
75.1054 0 1
75.2209 0 1
75.3365 0 1
75.4521 0 1
75.5678 0 1
75.6835 0 1
75.7993 0 1
75.9151 0 1
76.031 0 1
76.147 25749 160.465
76.263 27177 164.854
76.3791 27793 166.712
76.4952 29286 171.132
76.6113 29754 172.493
76.7276 30404 174.367
76.8438 29254 171.038
76.9601 27907 167.054
77.0765 25821 160.689
77.1929 23596 153.61
77.3093 21483 146.571
77.4258 20678 143.798
77.5423 20031 141.531
77.6589 20549 143.349
77.7755 21861 147.855
77.8921 23874 154.512
78.0088 26148 161.703
78.1256 28407 168.544
78.2423 30347 174.204
78.3591 31320 176.975
78.4759 32413 180.036
78.5928 32740 180.942
78.7097 33196 182.198
78.8266 31757 178.205
78.9436 34588 185.978
79.0606 32583 180.508
79.1776 32494 180.261
79.2946 31848 178.46
79.4117 32092 179.142
79.5288 31525 177.553
79.6459 31136 176.454
79.7631 30325 174.141
79.8802 30058 173.372
79.9974 29770 172.54
80.1147 30722 175.277
80.2319 30988 176.034
80.3491 31848 178.46
80.4664 31469 177.395
80.5837 30145 173.623
80.701 27799 166.73
80.8183 25367 159.27
80.9357 22578 150.26
81.053 21030 145.017
81.1704 20505 143.196
81.2877 20149 141.947
81.4051 20764 144.097
81.5225 22649 150.496
81.6399 25598 159.994
81.7573 28218 167.982
81.8747 29062 170.476
81.9922 31029 176.151
82.1096 32021 178.944
82.227 32121 179.223
82.3444 32413 180.036
82.4619 32933 181.475
82.5793 33278 182.423
82.6967 31838 178.432
82.8142 31869 178.519
82.9316 31562 177.657
83.049 30965 175.969
83.1664 30735 175.314
83.2838 29965 173.104
83.4012 29554 171.913
83.5186 29160 170.763
83.636 28501 168.822
83.7534 29247 171.018
83.8708 29728 172.418
83.9881 30461 174.531
84.1055 30099 173.491
84.2228 28465 168.716
84.3401 26932 164.11
84.4575 24337 156.003
84.5747 22626 150.419
84.692 20700 143.875
84.8093 19944 141.223
84.9265 19942 141.216
85.0437 21300 145.945
85.1609 23426 153.056
85.2781 26133 161.657
85.3952 28717 169.461
85.5123 30982 176.017
85.6294 33052 181.802
85.7465 34355 185.351
85.8636 35499 188.412
85.9806 36368 190.704
86.0976 36776 191.771
86.2145 37356 193.277
86.3315 38942 197.337
86.4484 36378 190.73
86.5652 37691 194.142
86.682 37958 194.828
86.7988 37831 194.502
86.9156 37903 194.687
87.0323 37500 193.649
87.149 37331 193.212
87.2657 37562 193.809
87.3823 38466 196.128
87.4988 39026 197.55
87.6154 39970 199.925
87.7318 39344 198.353
87.8483 37671 194.09
87.9647 34443 185.588
88.081 31758 178.208
88.1973 28982 170.241
88.3136 26801 163.71
88.4298 26586 163.052
88.546 26944 164.146
88.6621 29335 171.275
88.7781 32723 180.895
88.8942 0 1
89.0101 0 1
89.126 0 1
89.2419 0 1
89.3577 0 1
89.4734 0 1
89.5891 0 1
89.7047 0 1
89.8203 0 1
89.9358 0 1
92.3269 0 1
92.4424 0 1
92.558 0 1
92.6736 0 1
92.7893 0 1
92.905 0 1
93.0208 0 1
93.1366 0 1
93.2525 0 1
93.3685 0 1
93.4845 0 1
93.6005 30501 174.645
93.7167 29437 171.572
93.8328 29301 171.175
93.949 30397 174.347
94.0653 32603 180.563
94.1816 35869 189.391
94.2979 39113 197.77
94.4143 42269 205.594
94.5307 45047 212.243
94.6472 46881 216.52
94.7637 48504 220.236
94.8803 49227 221.872
94.9969 49452 222.378
95.1135 49686 222.904
95.2302 50225 224.109
95.3469 49798 223.155
95.4637 49848 223.267
95.5805 49466 222.41
95.6973 49796 223.15
95.8142 49346 222.14
95.9311 48879 221.086
96.048 48711 220.706
96.1649 47475 217.888
96.2819 47038 216.882
96.3989 47047 216.903
96.516 48441 220.093
96.633 48963 221.276
96.7501 48428 220.064
96.8673 46907 216.58
96.9844 44316 210.514
97.1016 40892 202.218
97.2188 37625 193.972
97.336 34786 186.51
97.4532 31953 178.754
97.5704 30727 175.291
97.6877 31527 177.558
97.805 33374 182.686
97.9223 36725 191.638
98.0396 40248 200.619
98.1569 43383 208.286
98.2743 45956 214.374
98.3916 48453 220.12
98.509 50491 224.702
98.6264 51813 227.625
98.7438 51271 226.431
98.8612 51574 227.099
98.9786 51862 227.732
99.096 51274 226.438
99.2134 51032 225.903
99.3308 51641 227.247
99.4482 51584 227.121
99.5656 50953 225.728
99.6831 50879 225.564
99.8005 49444 222.36
99.9179 49620 222.755
100.035 48841 221
100.153 50444 224.597
100.27 50839 225.475
100.388 51056 225.956
100.505 48794 220.894
100.622 45566 213.462
100.74 41939 204.79
100.857 38635 196.558
100.975 35237 187.715
101.092 32927 181.458
101.209 32224 179.51
101.327 33378 182.696
101.444 35919 189.523
101.561 40504 201.256
101.679 43914 209.557
101.796 47186 217.223
101.913 50169 223.984
102.03 51967 227.963
102.148 53100 230.434
102.265 52382 228.871
102.382 55255 235.064
102.499 53676 231.681
102.616 53622 231.564
102.733 53541 231.389
102.851 53272 230.807
102.968 53665 231.657
103.085 53507 231.316
103.202 53189 230.627
103.319 51993 228.02
103.436 51467 226.863
103.552 51085 226.02
103.669 52413 228.939
103.786 53695 231.722
103.903 53426 231.141
104.02 52767 229.711
104.137 49660 222.845
104.253 45931 214.315
104.37 42063 205.093
104.487 38610 196.494
104.603 35944 189.589
104.72 34859 186.706
104.836 36124 190.063
104.953 38352 195.837
105.069 42378 205.859
105.186 46230 215.012
105.302 50236 224.134
105.418 54016 232.413
105.535 55593 235.782
105.651 56705 238.128
105.767 57896 240.616
105.883 58078 240.994
105.999 57518 239.829
106.115 0 1
106.231 0 1
106.347 0 1
106.463 0 1
106.579 0 1
106.694 0 1
106.81 0 1
106.926 0 1
107.041 0 1
107.157 0 1
109.576 0 1
109.692 0 1
109.807 0 1
109.923 0 1
110.039 0 1
110.155 0 1
110.27 0 1
110.386 0 1
110.502 0 1
110.618 50389 224.475
110.735 52236 228.552
110.851 52887 229.972
110.967 53199 230.649
111.083 53340 230.955
111.199 52513 229.157
111.316 53135 230.51
111.432 53557 231.424
111.549 53132 230.504
111.665 51674 227.319
111.782 50869 225.542
111.898 50255 224.176
112.015 50035 223.685
112.132 51206 226.287
112.248 51499 226.934
112.365 51559 227.066
112.482 48264 219.691
112.599 48185 219.511
112.716 43692 209.026
112.832 40780 201.941
112.949 36964 192.26
113.066 34354 185.348
113.183 33300 182.483
113.3 33742 183.69
113.417 34809 186.572
113.534 37321 193.186
113.652 40140 200.35
113.769 43316 208.125
113.886 46529 215.706
114.003 47662 218.316
114.12 48997 221.353
114.238 49671 222.87
114.355 49817 223.197
114.472 49638 222.796
114.589 49958 223.513
114.707 48664 220.599
114.824 48260 219.682
114.942 49190 221.788
115.059 49314 222.068
115.176 49408 222.279
115.294 48936 221.215
115.411 47653 218.296
115.529 47093 217.009
115.646 48104 219.326
115.764 48832 220.98
115.881 48910 221.156
115.999 48275 219.716
116.116 46586 215.838
116.234 44456 210.846
116.351 41467 203.634
116.469 38980 197.434
116.586 36230 190.342
116.704 33613 183.338
116.821 33098 181.929
116.939 33356 182.636
117.056 34321 185.259
117.174 37143 192.725
117.291 39764 199.409
117.409 42532 206.233
117.526 44979 212.083
117.644 47310 217.509
117.761 47385 217.681
117.879 48494 220.214
117.996 48028 219.153
118.114 48198 219.54
118.231 48277 219.72
118.349 47390 217.692
118.466 46909 216.585
118.584 48204 219.554
118.701 47917 218.9
118.819 47742 218.499
118.936 46880 216.518
119.053 45555 213.436
119.171 45179 212.554
119.288 45879 214.194
119.405 46286 215.142
119.523 46763 216.248
119.64 46261 215.084
119.757 45427 213.136
119.875 43179 207.796
119.992 40885 202.2
120.109 38913 197.264
120.226 35600 188.68
120.343 34051 184.529
120.46 32683 180.784
120.578 32462 180.172
120.695 33255 182.36
120.812 34534 185.833
120.929 36663 191.476
121.046 39115 197.775
121.163 41814 204.485
121.279 43466 208.485
121.396 44893 211.88
121.513 45251 212.723
121.63 46435 215.488
121.747 46081 214.665
121.863 46084 214.672
121.98 45332 212.913
122.097 44756 211.556
122.213 44746 211.533
122.33 45018 212.174
122.446 45154 212.495
122.563 43947 209.635
122.679 44238 210.328
122.795 43054 207.495
122.912 42450 206.034
123.028 42673 206.574
123.144 43076 207.548
123.26 43314 208.12
123.377 0 1
123.493 0 1
123.609 0 1
123.725 0 1
123.84 0 1
123.956 0 1
124.072 0 1
124.188 0 1
124.303 0 1
124.419 0 1
126.852 0 1
126.968 0 1
127.083 0 1
127.199 0 1
127.315 0 1
127.431 0 1
127.547 0 1
127.663 0 1
127.779 0 1
127.895 0 1
128.011 0 1
128.127 0 1
128.243 0 1
128.359 45994 214.462
128.476 46346 215.281
128.592 46259 215.079
128.708 44495 210.938
128.825 42607 206.415
128.941 41131 202.808
129.058 38369 195.88
129.174 36868 192.01
129.291 35629 188.756
129.408 35104 187.361
129.524 35007 187.102
129.641 36352 190.662
129.758 38276 195.643
129.875 40355 200.886
129.992 42232 205.504
130.108 44032 209.838
130.225 44928 211.962
130.342 45643 213.642
130.459 45027 212.196
130.576 47209 217.276
130.693 45674 213.715
130.81 44341 210.573
130.928 44399 210.711
131.045 45224 212.659
131.162 45347 212.948
131.279 46163 214.856
131.396 45703 213.783
131.513 45229 212.671
131.631 44940 211.991
131.748 44932 211.972
131.865 45882 214.201
131.983 45985 214.441
132.1 45547 213.417
132.217 44099 209.998
132.335 42935 207.208
132.452 41427 203.536
132.57 39272 198.172
132.687 36254 190.405
132.804 36461 190.948
132.922 35114 187.387
133.039 34356 185.354
133.157 35322 187.941
133.274 36273 190.455
133.392 37743 194.276
133.509 40223 200.557
133.627 41552 203.843
133.744 42529 206.226
133.862 43539 208.66
133.979 43713 209.077
134.097 43908 209.542
134.214 42784 206.843
134.332 43640 208.902
134.449 41977 204.883
134.567 42290 205.645
134.684 43107 207.622
134.802 43999 209.759
134.919 44263 210.388
135.037 43180 207.798
135.154 42835 206.966
135.272 43125 207.666
135.389 43595 208.794
135.507 44181 210.193
135.624 43657 208.943
135.742 43318 208.13
135.859 42777 206.826
135.977 40721 201.794
136.094 39273 198.174
136.211 37635 193.997
136.329 35815 189.249
136.446 34325 185.27
136.564 34152 184.803
136.681 33603 183.311
136.798 34448 185.602
136.915 35504 188.425
137.033 37095 192.601
137.15 38312 195.735
137.267 39707 199.266
137.384 40477 201.189
137.502 40774 201.926
137.619 41125 202.793
137.736 41717 204.247
137.853 40930 202.312
137.97 40409 201.02
138.087 38908 197.251
138.204 39648 199.118
138.321 40635 201.581
138.438 41624 204.02
138.555 42416 205.951
138.672 42143 205.288
138.788 41326 203.288
138.905 41500 203.715
139.022 41957 204.834
139.139 42818 206.925
139.255 42157 205.322
139.372 41765 204.365
139.488 41456 203.607
139.605 40369 200.92
139.721 38750 196.85
139.838 37491 193.626
139.954 35969 189.655
140.071 34071 184.583
140.187 34047 184.518
140.303 33034 181.753
140.419 33343 182.601
140.535 33508 183.052
140.652 34123 184.724
140.768 0 1
140.884 0 1
141 0 1
141.115 0 1
141.231 0 1
141.347 0 1
141.463 0 1
141.578 0 1
141.694 0 1
144.104 0 1
144.219 0 1
144.335 0 1
144.45 0 1
144.566 0 1
144.682 0 1
144.798 0 1
144.914 0 1
145.03 0 1
145.146 23784 154.221
145.262 25446 159.518
145.378 26251 162.022
145.494 26526 162.868
145.61 27179 164.861
145.726 27827 166.814
145.842 28577 169.047
145.959 30067 173.398
146.075 30121 173.554
146.192 30612 174.963
146.308 31011 176.099
146.425 31155 176.508
146.541 30695 175.2
146.658 30261 173.957
146.774 30028 173.286
146.891 29833 172.722
147.008 30103 173.502
147.125 30176 173.712
147.241 31479 177.423
147.358 31768 178.236
147.475 31768 178.236
147.592 31939 178.715
147.709 31734 178.14
147.826 31885 178.564
147.943 32230 179.527
148.06 32353 179.869
148.177 31778 178.264
148.294 31413 177.237
148.411 31043 176.19
148.528 30467 174.548
148.645 29198 170.874
148.762 28570 169.027
148.88 28054 167.493
148.997 27268 165.13
149.114 27969 167.239
149.231 27711 166.466
149.349 27662 166.319
149.466 28468 168.725
149.583 29407 171.485
149.701 29889 172.884
149.818 30594 174.911
149.935 30784 175.454
150.053 31136 176.454
150.17 31112 176.386
150.287 31203 176.644
150.405 30688 175.18
150.522 30045 173.335
150.64 30279 174.009
150.757 30507 174.663
150.875 31136 176.454
150.992 31617 177.812
151.11 32142 179.282
151.227 32532 180.366
151.344 31604 177.775
151.462 31933 178.698
151.579 32535 180.375
151.697 32410 180.028
151.814 32399 179.997
151.932 31959 178.771
152.049 31272 176.839
152.167 30499 174.64
152.284 30403 174.365
152.402 29452 171.616
152.519 28854 169.865
152.636 28489 168.787
152.754 28503 168.828
152.871 28171 167.842
152.989 28784 169.658
153.106 28698 169.405
153.223 30081 173.439
153.341 30386 174.316
153.458 30711 175.246
153.575 31445 177.327
153.693 31093 176.332
153.81 31794 178.309
153.927 31367 177.107
154.044 30865 175.684
154.162 30575 174.857
154.279 30504 174.654
154.396 31172 176.556
154.513 31646 177.893
154.63 33300 182.483
154.747 33186 182.17
154.864 33250 182.346
154.981 33698 183.57
155.098 33664 183.478
155.215 33829 183.927
155.332 33311 182.513
155.449 33106 181.951
155.566 32732 180.92
155.683 32099 179.162
155.8 31659 177.93
155.917 31034 176.165
156.033 30803 175.508
156.15 0 1
156.267 0 1
156.383 0 1
156.5 0 1
156.617 0 1
156.733 0 1
156.85 0 1
156.966 0 1
157.082 0 1
157.199 0 1
157.315 0 1
157.431 0 1
157.547 0 1
157.664 0 1
157.78 0 1
157.896 0 1
158.012 0 1
158.128 0 1
158.244 0 1
158.359 0 1
158.475 0 1
158.591 0 1
158.706 0 1
