
6.15755 0 1
6.2731 0 1
6.3887 0 1
6.50437 0 1
6.62009 0 1
6.73587 0 1
6.8517 0 1
6.96759 0 1
7.08353 0 1
7.19952 0 1
7.31557 0 1
7.43166 0 1
7.54781 0 1
7.664 0 1
7.78024 0 1
7.89653 0 1
8.01286 0 1
8.12924 0 1
8.24567 0 1
8.36213 0 1
8.47864 0 1
8.59519 0 1
8.71178 0 1
8.82841 0 1
8.94508 0 1
9.06179 0 1
9.17853 0 1
9.29531 0 1
9.41212 0 1
9.52897 0 1
9.64584 0 1
9.76276 0 1
9.8797 0 1
9.99667 0 1
10.1137 0 1
10.2307 0 1
10.3478 0 1
10.4648 0 1
10.5819 0 1
10.6991 0 1
10.8162 0 1
10.9334 0 1
11.0506 0 1
11.1678 0 1
11.285 0 1
11.4023 0 1
11.5196 0 1
11.6369 0 1
11.7542 0 1
11.8715 0 1
11.9888 0 1
12.1062 0 1
12.2235 0 1
12.3409 0 1
12.4582 0 1
12.5756 0 1
12.693 0 1
12.8104 0 1
12.9278 0 1
13.0452 0 1
13.1626 0 1
13.28 0 1
13.3974 0 1
13.5149 0 1
13.6323 0 1
13.7497 0 1
13.8671 0 1
13.9845 0 1
14.1019 0 1
14.2193 0 1
14.3367 0 1
14.4541 0 1
14.5714 0 1
14.6888 0 1
14.8062 0 1
14.9235 0 1
15.0408 1345 36.6742
15.1581 1411 37.5633
15.2755 1420 37.6829
15.3927 1415 37.6165
15.51 1369 37
15.6273 1410 37.55
15.7445 1298 36.0278
15.8617 1349 36.7287
15.9789 1279 35.7631
16.0961 1248 35.327
16.2132 1331 36.4829
16.3304 1312 36.2215
16.4475 1249 35.3412
16.5646 1228 35.0428
16.6816 1207 34.7419
16.7986 1186 34.4384
16.9156 1159 34.0441
17.0326 1121 33.4813
17.1496 1192 34.5254
17.2665 1112 33.3467
17.3833 1137 33.7194
17.5002 1125 33.541
17.617 1199 34.6266
17.7338 1195 34.5688
17.8505 1235 35.1426
17.9672 1174 34.2637
18.0839 1168 34.176
18.2005 1110 33.3167
18.3171 1115 33.3916
18.4337 1105 33.2415
18.5502 1206 34.7275
18.6666 1167 34.1614
18.7831 1220 34.9285
18.8994 1154 33.9706
19.0158 1161 34.0735
19.1321 1142 33.7935
19.2483 1097 33.121
19.3645 993 31.5119
19.4806 974 31.209
19.5967 917 30.282
19.7128 891 29.8496
19.8288 805 28.3725
19.9447 765 27.6586
20.0606 0 1
20.1764 0 1
20.2922 0 1
20.4079 0 1
20.5236 0 1
20.6392 0 1
20.7548 0 1
20.8702 0 1
23.3078 0 1
23.4233 0 1
23.539 0 1
23.6547 0 1
23.7704 0 1
23.8862 0 1
24.0021 0 1
24.118 0 1
24.234 0 1
24.35 0 1
24.4661 461 21.4709
24.5822 485 22.0227
24.6984 647 25.4362
24.8146 781 27.9464
24.9309 945 30.7409
25.0472 945 30.7409
25.1636 1126 33.5559
25.28 1156 34
25.3965 1209 34.7707
25.513 1295 35.9861
25.6296 1244 35.2704
25.7462 1251 35.3695
25.8628 1259 35.4824
25.9795 1256 35.4401
26.0962 1276 35.7211
26.213 1195 34.5688
26.3298 1218 34.8999
26.4466 1101 33.1813
26.5635 1037 32.2025
26.6804 980 31.305
26.7973 955 30.9031
26.9143 1008 31.749
27.0313 911 30.1828
27.1483 1019 31.9218
27.2653 1067 32.665
27.3824 1048 32.3728
27.4996 1058 32.5269
27.6167 1058 32.5269
27.7339 1056 32.4962
27.8511 1124 33.5261
27.9683 1088 32.9848
28.0855 1150 33.9116
28.2028 1032 32.1248
28.3201 1120 33.4664
28.4374 1114 33.3766
28.5547 1143 33.8083
28.6721 1102 33.1964
28.7894 1154 33.9706
28.9068 1123 33.5112
29.0242 1128 33.5857
29.1416 1133 33.6601
29.259 1087 32.9697
29.3764 1104 33.2265
29.4939 1089 33
29.6113 1074 32.7719
29.7288 1011 31.7962
29.8463 1042 32.28
29.9638 1079 32.8481
30.0812 955 30.9031
30.1987 930 30.4959
30.3162 937 30.6105
30.4337 925 30.4138
30.5512 897 29.95
30.6687 974 31.209
30.7862 1020 31.9374
30.9037 1036 32.187
31.0212 1036 32.187
31.1387 1155 33.9853
31.2562 1125 33.541
31.3737 1095 33.0908
31.4912 1038 32.218
31.6087 1066 32.6497
31.7262 1052 32.4345
31.8436 1035 32.1714
31.9611 1101 33.1813
32.0785 1066 32.6497
32.1959 1050 32.4037
32.3134 1005 31.7017
32.4308 1075 32.7872
32.5482 1005 31.7017
32.6655 994 31.5278
32.7829 974 31.209
32.9002 969 31.1288
33.0176 1013 31.8277
33.1349 938 30.6268
33.2522 969 31.1288
33.3694 957 30.9354
33.4867 965 31.0644
33.6039 944 30.7246
33.7211 905 30.0832
33.8383 859 29.3087
33.9554 927 30.4467
34.0725 889 29.8161
34.1896 915 30.249
34.3067 949 30.8058
34.4237 968 31.1127
34.5407 1026 32.0312
34.6577 1011 31.7962
34.7746 1056 32.4962
34.8915 974 31.209
35.0084 1049 32.3883
35.1252 991 31.4802
35.242 906 30.0998
35.3587 926 30.4302
35.4755 985 31.3847
35.5921 987 31.4166
35.7088 982 31.3369
35.8254 1023 31.9844
35.9419 1128 33.5857
36.0584 1117 33.4215
36.1749 1210 34.7851
36.2913 1016 31.8748
36.4077 901 30.0167
36.524 875 29.5804
36.6403 815 28.5482
36.7565 791 28.1247
36.8727 678 26.0384
36.9889 660 25.6905
37.1049 616 24.8193
37.221 0 1
37.3369 0 1
37.4529 0 1
37.5687 0 1
37.6845 0 1
37.8003 0 1
37.916 0 1
38.0316 0 1
38.1472 0 1
40.5851 0 1
40.7008 0 1
40.8164 0 1
40.9322 0 1
41.048 0 1
41.1639 0 1
41.2798 0 1
41.3958 0 1
41.5118 0 1
41.6279 0 1
41.744 441 21
41.8602 551 23.4734
41.9765 588 24.2487
42.0928 679 26.0576
42.2091 722 26.8701
42.3255 739 27.1846
42.4419 724 26.9072
42.5584 691 26.2869
42.675 707 26.5895
42.7915 673 25.9422
42.9081 714 26.7208
43.0248 759 27.55
43.1415 785 28.0179
43.2582 717 26.7769
43.375 727 26.9629
43.4918 721 26.8514
43.6087 749 27.3679
43.7256 759 27.55
43.8425 782 27.9643
43.9595 705 26.5518
44.0765 719 26.8142
44.1935 697 26.4008
44.3106 714 26.7208
44.4277 742 27.2397
44.5448 789 28.0891
44.6619 737 27.1477
44.7791 746 27.313
44.8963 744 27.2764
45.0136 824 28.7054
45.1308 829 28.7924
45.2481 763 27.6225
45.3654 808 28.4253
45.4827 784 28
45.6001 760 27.5681
45.7174 811 28.4781
45.8348 765 27.6586
45.9522 729 27
46.0697 705 26.5518
46.1871 658 25.6515
46.3046 653 25.5539
46.422 692 26.3059
46.5395 648 25.4558
46.657 734 27.0924
46.7745 720 26.8328
46.892 724 26.9072
47.0096 696 26.3818
47.1271 774 27.8209
47.2446 777 27.8747
47.3622 818 28.6007
47.4797 772 27.7849
47.5973 737 27.1477
47.7149 740 27.2029
47.8324 741 27.2213
47.95 719 26.8142
48.0675 731 27.037
48.1851 729 27
48.3027 726 26.9444
48.4202 770 27.7489
48.5378 724 26.9072
48.6554 781 27.9464
48.7729 735 27.1109
48.8904 797 28.2312
49.008 731 27.037
49.1255 764 27.6405
49.243 683 26.1343
49.3605 682 26.1151
49.478 694 26.3439
49.5955 660 25.6905
49.713 660 25.6905
49.8304 604 24.5764
49.9479 636 25.219
50.0653 618 24.8596
50.1827 649 25.4755
50.3001 650 25.4951
50.4175 710 26.6458
50.5348 672 25.923
50.6521 760 27.5681
50.7694 747 27.3313
50.8867 746 27.313
51.004 740 27.2029
51.1212 664 25.7682
51.2384 680 26.0768
51.3556 727 26.9629
51.4727 680 26.0768
51.5899 704 26.533
51.707 724 26.9072
51.824 662 25.7294
51.9411 708 26.6083
52.0581 718 26.7955
52.175 727 26.9629
52.2919 726 26.9444
52.4088 708 26.6083
52.5257 674 25.9615
52.6425 747 27.3313
52.7593 703 26.5141
52.876 697 26.4008
52.9927 632 25.1396
53.1094 649 25.4755
53.226 666 25.807
53.3426 618 24.8596
53.4591 626 25.02
53.5756 600 24.4949
53.692 590 24.2899
53.8084 498 22.3159
53.9248 486 22.0454
54.0411 410 20.2485
54.1573 407 20.1742
54.2735 0 1
54.3896 0 1
54.5057 0 1
54.6217 0 1
54.7377 0 1
54.8537 0 1
54.9695 0 1
55.0853 0 1
55.2011 0 1
55.3168 0 1
55.4324 0 1
57.824 0 1
57.9396 0 1
58.0553 0 1
58.1711 0 1
58.2869 0 1
58.4028 0 1
58.5187 0 1
58.6347 0 1
58.7508 0 1
58.8669 0 1
58.983 553 23.516
59.0992 674 25.9615
59.2155 759 27.55
59.3318 869 29.4788
59.4482 894 29.8998
59.5646 972 31.1769
59.681 1040 32.249
59.7975 1075 32.7872
59.9141 1029 32.078
60.0306 1086 32.9545
60.1473 1064 32.619
60.2639 1120 33.4664
60.3807 1085 32.9393
60.4974 1077 32.8177
60.6142 1071 32.7261
60.731 1101 33.1813
60.8479 1066 32.6497
60.9648 1081 32.8786
61.0818 1021 31.9531
61.1987 992 31.496
61.3158 950 30.8221
61.4328 994 31.5278
61.5499 956 30.9192
61.667 803 28.3373
61.7841 904 30.0666
61.9013 808 28.4253
62.0185 868 29.4618
62.1357 890 29.8329
62.253 865 29.4109
62.3702 769 27.7308
62.4875 791 28.1247
62.6049 837 28.931
62.7222 851 29.1719
62.8396 834 28.8791
62.9569 838 28.9482
63.0743 842 29.0172
63.1918 840 28.9828
63.3092 831 28.8271
63.4267 854 29.2233
63.5441 800 28.2843
63.6616 810 28.4605
63.7791 830 28.8097
63.8966 816 28.5657
64.0142 839 28.9655
64.1317 806 28.3901
64.2492 804 28.3549
64.3668 813 28.5132
64.4843 828 28.775
64.6019 740 27.2029
64.7195 755 27.4773
64.837 801 28.3019
64.9546 754 27.4591
65.0722 774 27.8209
65.1898 675 25.9808
65.3074 718 26.7955
65.4249 694 26.3439
65.5425 715 26.7395
65.6601 731 27.037
65.7777 696 26.3818
65.8952 706 26.5707
66.0128 732 27.0555
66.1304 723 26.8887
66.2479 685 26.1725
66.3655 799 28.2666
66.483 790 28.1069
66.6005 821 28.6531
66.718 791 28.1247
66.8355 802 28.3196
66.953 745 27.2947
67.0705 780 27.9285
67.1879 751 27.4044
67.3054 797 28.2312
67.4228 773 27.8029
67.5402 815 28.5482
67.6576 801 28.3019
67.7749 827 28.7576
67.8923 769 27.7308
68.0096 793 28.1603
68.1269 771 27.7669
68.2442 722 26.8701
68.3614 714 26.7208
68.4787 747 27.3313
68.5958 693 26.3249
68.713 696 26.3818
68.8302 683 26.1343
68.9473 658 25.6515
69.0643 678 26.0384
69.1814 682 26.1151
69.2984 775 27.8388
69.4154 758 27.5318
69.5323 748 27.3496
69.6492 702 26.4953
69.7661 676 26
69.8829 712 26.6833
69.9997 689 26.2488
70.1165 762 27.6043
70.2332 678 26.0384
70.3499 664 25.7682
70.4665 667 25.8263
70.5831 603 24.5561
70.6996 529 23
70.8161 521 22.8254
70.9326 516 22.7156
71.049 516 22.7156
71.1653 486 22.0454
71.2817 455 21.3307
71.3979 397 19.9249
71.5141 363 19.0526
71.6303 339 18.412
71.7464 254 15.9374
71.8624 0 1
71.9784 0 1
72.0944 0 1
72.2102 0 1
72.3261 0 1
72.4418 0 1
72.5575 0 1
72.6732 0 1
75.1054 0 1
75.2209 0 1
75.3365 0 1
75.4521 0 1
75.5678 0 1
75.6835 0 1
75.7993 0 1
75.9151 0 1
76.031 0 1
76.147 458 21.4009
76.263 581 24.1039
76.3791 591 24.3105
76.4952 602 24.5357
76.6113 627 25.04
76.7276 682 26.1151
76.8438 681 26.096
76.9601 690 26.2679
77.0765 654 25.5734
77.1929 629 25.0799
77.3093 588 24.2487
77.4258 560 23.6643
77.5423 614 24.779
77.6589 603 24.5561
77.7755 620 24.8998
77.8921 569 23.8537
78.0088 571 23.8956
78.1256 595 24.3926
78.2423 585 24.1868
78.3591 625 25
78.4759 593 24.3516
78.5928 653 25.5539
78.7097 639 25.2784
78.8266 646 25.4165
78.9436 582 24.1247
79.0606 651 25.5147
79.1776 677 26.0192
79.2946 656 25.6125
79.4117 637 25.2389
79.5288 615 24.7992
79.6459 647 25.4362
79.7631 674 25.9615
79.8802 648 25.4558
79.9974 690 26.2679
80.1147 667 25.8263
80.2319 673 25.9422
80.3491 680 26.0768
80.4664 646 25.4165
80.5837 708 26.6083
80.701 707 26.5895
80.8183 666 25.807
80.9357 644 25.3772
81.053 605 24.5967
81.1704 577 24.0208
81.2877 585 24.1868
81.4051 590 24.2899
81.5225 573 23.9374
81.6399 591 24.3105
81.7573 637 25.2389
81.8747 590 24.2899
81.9922 620 24.8998
82.1096 656 25.6125
82.227 643 25.3574
82.3444 648 25.4558
82.4619 620 24.8998
82.5793 601 24.5153
82.6967 657 25.632
82.8142 669 25.865
82.9316 629 25.0799
83.049 721 26.8514
83.1664 624 24.98
83.2838 667 25.8263
83.4012 649 25.4755
83.5186 683 26.1343
83.636 725 26.9258
83.7534 677 26.0192
83.8708 706 26.5707
83.9881 765 27.6586
84.1055 693 26.3249
84.2228 735 27.1109
84.3401 681 26.096
84.4575 658 25.6515
84.5747 664 25.7682
84.692 619 24.8797
84.8093 663 25.7488
84.9265 662 25.7294
85.0437 651 25.5147
85.1609 575 23.9792
85.2781 598 24.454
85.3952 626 25.02
85.5123 613 24.7588
85.6294 643 25.3574
85.7465 687 26.2107
85.8636 698 26.4197
85.9806 655 25.593
86.0976 659 25.671
86.2145 669 25.865
86.3315 680 26.0768
86.4484 723 26.8887
86.5652 739 27.1846
86.682 649 25.4755
86.7988 687 26.2107
86.9156 709 26.6271
87.0323 680 26.0768
87.149 656 25.6125
87.2657 703 26.5141
87.3823 659 25.671
87.4988 638 25.2587
87.6154 629 25.0799
87.7318 647 25.4362
87.8483 605 24.5967
87.9647 561 23.6854
88.081 491 22.1585
88.1973 467 21.6102
88.3136 395 19.8746
88.4298 357 18.8944
88.546 334 18.2757
88.6621 353 18.7883
88.7781 322 17.9444
88.8942 0 1
89.0101 0 1
89.126 0 1
89.2419 0 1
89.3577 0 1
89.4734 0 1
89.5891 0 1
89.7047 0 1
89.8203 0 1
89.9358 0 1
92.3269 0 1
92.4424 0 1
92.558 0 1
92.6736 0 1
92.7893 0 1
92.905 0 1
93.0208 0 1
93.1366 0 1
93.2525 0 1
93.3685 0 1
93.4845 0 1
93.6005 529 23
93.7167 632 25.1396
93.8328 589 24.2693
93.949 594 24.3721
94.0653 640 25.2982
94.1816 620 24.8998
94.2979 607 24.6374
94.4143 593 24.3516
94.5307 615 24.7992
94.6472 638 25.2587
94.7637 716 26.7582
94.8803 690 26.2679
94.9969 699 26.4386
95.1135 682 26.1151
95.2302 737 27.1477
95.3469 702 26.4953
95.4637 756 27.4955
95.5805 731 27.037
95.6973 694 26.3439
95.8142 737 27.1477
95.9311 673 25.9422
96.048 722 26.8701
96.1649 705 26.5518
96.2819 750 27.3861
96.3989 743 27.258
96.516 737 27.1477
96.633 792 28.1425
96.7501 718 26.7955
96.8673 749 27.3679
96.9844 691 26.2869
97.1016 692 26.3059
97.2188 680 26.0768
97.336 666 25.807
97.4532 661 25.7099
97.5704 621 24.9199
97.6877 591 24.3105
97.805 608 24.6577
97.9223 670 25.8844
98.0396 641 25.318
98.1569 642 25.3377
98.2743 675 25.9808
98.3916 698 26.4197
98.509 762 27.6043
98.6264 730 27.0185
98.7438 720 26.8328
98.8612 750 27.3861
98.9786 760 27.5681
99.096 744 27.2764
99.2134 788 28.0713
99.3308 766 27.6767
99.4482 732 27.0555
99.5656 737 27.1477
99.6831 731 27.037
99.8005 720 26.8328
99.9179 780 27.9285
100.035 818 28.6007
100.153 813 28.5132
100.27 768 27.7128
100.388 851 29.1719
100.505 842 29.0172
100.622 851 29.1719
100.74 824 28.7054
100.857 833 28.8617
100.975 750 27.3861
101.092 721 26.8514
101.209 751 27.4044
101.327 676 26
101.444 721 26.8514
101.561 689 26.2488
101.679 727 26.9629
101.796 773 27.8029
101.913 856 29.2575
102.03 833 28.8617
102.148 889 29.8161
102.265 844 29.0517
102.382 942 30.692
102.499 874 29.5635
102.616 903 30.05
102.733 875 29.5804
102.851 885 29.7489
102.968 945 30.7409
103.085 892 29.8664
103.202 849 29.1376
103.319 921 30.348
103.436 903 30.05
103.552 881 29.6816
103.669 938 30.6268
103.786 907 30.1164
103.903 884 29.7321
104.02 886 29.7658
104.137 858 29.2916
104.253 911 30.1828
104.37 846 29.0861
104.487 913 30.2159
104.603 852 29.189
104.72 843 29.0345
104.836 694 26.3439
104.953 762 27.6043
105.069 639 25.2784
105.186 667 25.8263
105.302 628 25.0599
105.418 602 24.5357
105.535 608 24.6577
105.651 577 24.0208
105.767 502 22.4054
105.883 462 21.4942
105.999 486 22.0454
106.115 0 1
106.231 0 1
106.347 0 1
106.463 0 1
106.579 0 1
106.694 0 1
106.81 0 1
106.926 0 1
107.041 0 1
107.157 0 1
109.576 0 1
109.692 0 1
109.807 0 1
109.923 0 1
110.039 0 1
110.155 0 1
110.27 0 1
110.386 0 1
110.502 0 1
110.618 407 20.1742
110.735 523 22.8692
110.851 634 25.1794
110.967 648 25.4558
111.083 704 26.533
111.199 736 27.1293
111.316 871 29.5127
111.432 824 28.7054
111.549 860 29.3258
111.665 846 29.0861
111.782 801 28.3019
111.898 755 27.4773
112.015 770 27.7489
112.132 837 28.931
112.248 801 28.3019
112.365 822 28.6705
112.482 864 29.3939
112.599 830 28.8097
112.716 808 28.4253
112.832 771 27.7669
112.949 791 28.1247
113.066 719 26.8142
113.183 730 27.0185
113.3 711 26.6646
113.417 705 26.5518
113.534 650 25.4951
113.652 640 25.2982
113.769 583 24.1454
113.886 594 24.3721
114.003 562 23.7065
114.12 635 25.1992
114.238 641 25.318
114.355 676 26
114.472 674 25.9615
114.589 652 25.5343
114.707 724 26.9072
114.824 670 25.8844
114.942 711 26.6646
115.059 720 26.8328
115.176 698 26.4197
115.294 676 26
115.411 682 26.1151
115.529 651 25.5147
115.646 707 26.5895
115.764 715 26.7395
115.881 673 25.9422
115.999 700 26.4575
116.116 654 25.5734
116.234 701 26.4764
116.351 670 25.8844
116.469 684 26.1534
116.586 613 24.7588
116.704 638 25.2587
116.821 640 25.2982
116.939 627 25.04
117.056 610 24.6982
117.174 614 24.779
117.291 517 22.7376
117.409 564 23.7487
117.526 529 23
117.644 557 23.6008
117.761 619 24.8797
117.879 638 25.2587
117.996 625 25
118.114 682 26.1151
118.231 632 25.1396
118.349 681 26.096
118.466 592 24.3311
118.584 698 26.4197
118.701 665 25.7876
118.819 630 25.0998
118.936 648 25.4558
119.053 624 24.98
119.171 602 24.5357
119.288 572 23.9165
119.405 679 26.0576
119.523 631 25.1197
119.64 596 24.4131
119.757 650 25.4951
119.875 595 24.3926
119.992 628 25.0599
120.109 621 24.9199
120.226 599 24.4745
120.343 591 24.3105
120.46 593 24.3516
120.578 589 24.2693
120.695 615 24.7992
120.812 563 23.7276
120.929 541 23.2594
121.046 505 22.4722
121.163 506 22.4944
121.279 520 22.8035
121.396 510 22.5832
121.513 539 23.2164
121.63 581 24.1039
121.747 569 23.8537
121.863 561 23.6854
121.98 561 23.6854
122.097 517 22.7376
122.213 496 22.2711
122.33 506 22.4944
122.446 452 21.2603
122.563 476 21.8174
122.679 388 19.6977
122.795 359 18.9473
122.912 367 19.1572
123.028 353 18.7883
123.144 356 18.868
123.26 342 18.4932
123.377 0 1
123.493 0 1
123.609 0 1
123.725 0 1
123.84 0 1
123.956 0 1
124.072 0 1
124.188 0 1
124.303 0 1
124.419 0 1
126.852 0 1
126.968 0 1
127.083 0 1
127.199 0 1
127.315 0 1
127.431 0 1
127.547 0 1
127.663 0 1
127.779 0 1
127.895 0 1
128.011 0 1
128.127 0 1
128.243 0 1
128.359 647 25.4362
128.476 693 26.3249
128.592 702 26.4953
128.708 686 26.1916
128.825 710 26.6458
128.941 695 26.3629
129.058 740 27.2029
129.174 737 27.1477
129.291 744 27.2764
129.408 672 25.923
129.524 722 26.8701
129.641 740 27.2029
129.758 730 27.0185
129.875 645 25.3969
129.992 672 25.923
130.108 667 25.8263
130.225 616 24.8193
130.342 571 23.8956
130.459 646 25.4165
130.576 749 27.3679
130.693 788 28.0713
130.81 830 28.8097
130.928 810 28.4605
131.045 820 28.6356
131.162 887 29.7825
131.279 991 31.4802
131.396 934 30.5614
131.513 991 31.4802
131.631 1036 32.187
131.748 935 30.5778
131.865 1024 32
131.983 1085 32.9393
132.1 1131 33.6303
132.217 1196 34.5832
132.335 1251 35.3695
132.452 1352 36.7696
132.57 1424 37.7359
132.687 1362 36.9053
132.804 1491 38.6135
132.922 1515 38.923
133.039 1642 40.5216
133.157 1591 39.8873
133.274 1632 40.398
133.392 1708 41.328
133.509 1668 40.8412
133.627 1617 40.2119
133.744 1591 39.8873
133.862 1580 39.7492
133.979 1585 39.8121
134.097 1565 39.5601
134.214 1655 40.6817
134.332 1723 41.509
134.449 1690 41.1096
134.567 1620 40.2492
134.684 1622 40.2741
134.802 1545 39.3065
134.919 1579 39.7366
135.037 1624 40.2989
135.154 1548 39.3446
135.272 1550 39.37
135.389 1458 38.1838
135.507 1346 36.6879
135.624 1468 38.3145
135.742 1534 39.1663
135.859 1473 38.3797
135.977 1582 39.7744
136.094 1644 40.5463
136.211 1596 39.95
136.329 1601 40.0125
136.446 1619 40.2368
136.564 1514 38.9102
136.681 1549 39.3573
136.798 1597 39.9625
136.915 1602 40.025
137.033 1699 41.2189
137.15 1598 39.975
137.267 1530 39.1152
137.384 1588 39.8497
137.502 1525 39.0512
137.619 1531 39.128
137.736 1607 40.0874
137.853 1658 40.7185
137.97 1661 40.7554
138.087 1642 40.5216
138.204 1756 41.9047
138.321 1730 41.5933
138.438 1765 42.0119
138.555 1778 42.1663
138.672 1779 42.1782
138.788 1793 42.3438
138.905 1776 42.1426
139.022 1720 41.4729
139.139 1664 40.7922
139.255 1706 41.3038
139.372 1622 40.2741
139.488 1702 41.2553
139.605 1520 38.9872
139.721 1437 37.9078
139.838 1457 38.1707
139.954 1246 35.2987
140.071 1210 34.7851
140.187 1145 33.8378
140.303 1134 33.6749
140.419 1097 33.121
140.535 1062 32.5883
140.652 915 30.249
140.768 0 1
140.884 0 1
141 0 1
141.115 0 1
141.231 0 1
141.347 0 1
141.463 0 1
141.578 0 1
141.694 0 1
144.104 0 1
144.219 0 1
144.335 0 1
144.45 0 1
144.566 0 1
144.682 0 1
144.798 0 1
144.914 0 1
145.03 0 1
145.146 1613 40.1622
145.262 1932 43.9545
145.378 2195 46.8508
145.494 2241 47.3392
145.61 2457 49.5681
145.726 2664 51.614
145.842 2730 52.2494
145.959 2819 53.0943
146.075 2919 54.0278
146.192 2945 54.2679
146.308 2800 52.915
146.425 2785 52.7731
146.541 2582 50.8134
146.658 2651 51.4879
146.774 3087 55.5608
146.891 3645 60.3738
147.008 4302 65.5896
147.125 4595 67.7864
147.241 5034 70.9507
147.358 5552 74.5117
147.475 6403 80.0187
147.592 7314 85.5219
147.709 8952 94.615
147.826 11044 105.09
147.943 13606 116.645
148.06 15826 125.801
148.177 18201 134.911
148.294 20031 141.531
148.411 22368 149.559
148.528 24484 156.474
148.645 27000 164.317
148.762 29804 172.638
148.88 32233 179.536
148.997 34903 186.823
149.114 36215 190.302
149.231 39206 198.005
149.349 41576 203.902
149.466 42907 207.14
149.583 45309 212.859
149.701 46743 216.201
149.818 44545 211.057
149.935 37274 193.065
150.053 27830 166.823
150.17 22162 148.869
150.287 25833 160.726
150.405 39115 197.775
150.522 53476 231.249
150.64 59890 244.724
150.757 63143 251.283
150.875 64509 253.986
150.992 65772 256.461
151.11 65027 255.004
151.227 64795 254.549
151.344 67335 259.49
151.462 69672 263.955
151.579 70721 265.934
151.697 70379 265.29
151.814 71405 267.217
151.932 71723 267.812
152.049 72391 269.056
152.167 73751 271.571
152.284 73846 271.746
152.402 74236 272.463
152.519 73948 271.934
152.636 74289 272.56
152.754 73606 271.304
152.871 74028 272.081
152.989 73594 271.282
153.106 74683 273.282
153.223 74968 273.803
153.341 74498 272.943
153.458 72771 269.761
153.575 71006 266.47
153.693 71882 268.108
153.81 78073 279.415
153.927 88617 297.686
154.044 98212 313.388
154.162 105197 324.341
154.279 110739 332.775
154.396 115922 340.473
154.513 118928 344.859
154.63 125360 354.062
154.747 128763 358.836
154.864 133301 365.104
154.981 135511 368.118
155.098 137217 370.428
155.215 138090 371.605
155.332 135967 368.737
155.449 132050 363.387
155.566 128076 357.877
155.683 121888 349.125
155.8 116030 340.632
155.917 110106 331.822
156.033 103944 322.403
156.15 0 1
156.267 0 1
156.383 0 1
156.5 0 1
156.617 0 1
156.733 0 1
156.85 0 1
156.966 0 1
157.082 0 1
157.199 0 1
157.315 0 1
157.431 0 1
157.547 0 1
157.664 0 1
157.78 0 1
157.896 0 1
158.012 0 1
158.128 0 1
158.244 0 1
158.359 0 1
158.475 0 1
158.591 0 1
158.706 0 1
