
6.15755 0 1
6.2731 0 1
6.3887 0 1
6.50437 0 1
6.62009 0 1
6.73587 0 1
6.8517 0 1
6.96759 0 1
7.08353 0 1
7.19952 0 1
7.31557 0 1
7.43166 0 1
7.54781 0 1
7.664 0 1
7.78024 0 1
7.89653 0 1
8.01286 0 1
8.12924 0 1
8.24567 0 1
8.36213 0 1
8.47864 0 1
8.59519 0 1
8.71178 0 1
8.82841 0 1
8.94508 0 1
9.06179 0 1
9.17853 0 1
9.29531 0 1
9.41212 0 1
9.52897 0 1
9.64584 0 1
9.76276 0 1
9.8797 0 1
9.99667 0 1
10.1137 0 1
10.2307 0 1
10.3478 0 1
10.4648 0 1
10.5819 0 1
10.6991 0 1
10.8162 0 1
10.9334 0 1
11.0506 0 1
11.1678 0 1
11.285 0 1
11.4023 0 1
11.5196 0 1
11.6369 0 1
11.7542 0 1
11.8715 0 1
11.9888 0 1
12.1062 0 1
12.2235 0 1
12.3409 0 1
12.4582 0 1
12.5756 0 1
12.693 0 1
12.8104 0 1
12.9278 0 1
13.0452 0 1
13.1626 0 1
13.28 0 1
13.3974 0 1
13.5149 0 1
13.6323 0 1
13.7497 0 1
13.8671 0 1
13.9845 0 1
14.1019 0 1
14.2193 0 1
14.3367 0 1
14.4541 0 1
14.5714 0 1
14.6888 0 1
14.8062 0 1
14.9235 0 1
15.0408 0 0
15.1581 0 0
15.2755 0 0
15.3927 0 0
15.51 0 0
15.6273 0 0
15.7445 0 0
15.8617 0 0
15.9789 0 0
16.0961 0 0
16.2132 0 0
16.3304 0 0
16.4475 0 0
16.5646 0 0
16.6816 0 0
16.7986 0 0
16.9156 0 0
17.0326 0 0
17.1496 0 0
17.2665 0 0
17.3833 0 0
17.5002 0 0
17.617 0 0
17.7338 0 0
17.8505 0 0
17.9672 0 0
18.0839 0 0
18.2005 0 0
18.3171 0 0
18.4337 0 0
18.5502 0 0
18.6666 0 0
18.7831 0 0
18.8994 0 0
19.0158 0 0
19.1321 0 0
19.2483 0 0
19.3645 0 0
19.4806 0 0
19.5967 0 0
19.7128 0 0
19.8288 0 0
19.9447 0 0
20.0606 0 1
20.1764 0 1
20.2922 0 1
20.4079 0 1
20.5236 0 1
20.6392 0 1
20.7548 0 1
20.8702 0 1
23.3078 0 1
23.4233 0 1
23.539 0 1
23.6547 0 1
23.7704 0 1
23.8862 0 1
24.0021 0 1
24.118 0 1
24.234 0 1
24.35 0 1
24.4661 1186 34.4384
24.5822 1349 36.7287
24.6984 1419 37.6696
24.8146 1659 40.7308
24.9309 1795 42.3674
25.0472 2056 45.3431
25.1636 2282 47.7703
25.28 2414 49.1325
25.3965 2448 49.4773
25.513 2530 50.2991
25.6296 2489 49.8899
25.7462 2573 50.7247
25.8628 2464 49.6387
25.9795 2423 49.224
26.0962 2456 49.558
26.213 2612 51.1077
26.3298 2612 51.1077
26.4466 2495 49.95
26.5635 2557 50.5668
26.6804 2531 50.309
26.7973 2393 48.9183
26.9143 2452 49.5177
27.0313 2328 48.2494
27.1483 2383 48.816
27.2653 2373 48.7134
27.3824 2264 47.5815
27.4996 2151 46.3789
27.6167 2019 44.9333
27.7339 2025 45
27.8511 2131 46.1628
27.9683 2196 46.8615
28.0855 2237 47.2969
28.2028 2345 48.4252
28.3201 2359 48.5695
28.4374 2306 48.0208
28.5547 2280 47.7493
28.6721 2292 47.8748
28.7894 2380 48.7852
28.9068 2429 49.2849
29.0242 2308 48.0416
29.1416 2344 48.4149
29.259 2330 48.2701
29.3764 2386 48.8467
29.4939 2206 46.9681
29.6113 2199 46.8935
29.7288 2147 46.3357
29.8463 2201 46.9148
29.9638 2186 46.7547
30.0812 2215 47.0638
30.1987 2259 47.5289
30.3162 2240 47.3286
30.4337 2299 47.9479
30.5512 2308 48.0416
30.6687 2357 48.5489
30.7862 2317 48.1352
30.9037 2166 46.5403
31.0212 2072 45.5192
31.1387 2198 46.8828
31.2562 2191 46.8081
31.3737 2204 46.9468
31.4912 2341 48.3839
31.6087 2362 48.6004
31.7262 2267 47.613
31.8436 2363 48.6107
31.9611 2316 48.1248
32.0785 2222 47.1381
32.1959 2278 47.7284
32.3134 2404 49.0306
32.4308 2250 47.4342
32.5482 2272 47.6655
32.6655 2185 46.744
32.7829 2122 46.0652
32.9002 2092 45.7384
33.0176 2063 45.4203
33.1349 1987 44.5758
33.2522 2056 45.3431
33.3694 1973 44.4185
33.4867 2077 45.5741
33.6039 2107 45.9021
33.7211 2197 46.8722
33.8383 2122 46.0652
33.9554 2197 46.8722
34.0725 2201 46.9148
34.1896 2221 47.1275
34.3067 2151 46.3789
34.4237 2231 47.2335
34.5407 2177 46.6583
34.6577 2081 45.618
34.7746 2082 45.6289
34.8915 2076 45.5631
35.0084 2235 47.2758
35.1252 2290 47.8539
35.242 2324 48.2079
35.3587 2353 48.5077
35.4755 2322 48.1871
35.5921 2246 47.392
35.7088 2102 45.8476
35.8254 2078 45.5851
35.9419 2015 44.8888
36.0584 2017 44.911
36.1749 1883 43.3935
36.2913 1911 43.715
36.4077 1812 42.5676
36.524 1720 41.4729
36.6403 1649 40.6079
36.7565 1412 37.5766
36.8727 1356 36.8239
36.9889 1372 37.0405
37.1049 1314 36.2491
37.221 0 1
37.3369 0 1
37.4529 0 1
37.5687 0 1
37.6845 0 1
37.8003 0 1
37.916 0 1
38.0316 0 1
38.1472 0 1
40.5851 0 1
40.7008 0 1
40.8164 0 1
40.9322 0 1
41.048 0 1
41.1639 0 1
41.2798 0 1
41.3958 0 1
41.5118 0 1
41.6279 0 1
41.744 1856 43.0813
41.8602 2370 48.6826
41.9765 2920 54.037
42.0928 3060 55.3173
42.2091 3091 55.5968
42.3255 3106 55.7315
42.4419 3130 55.9464
42.5584 3164 56.2494
42.675 3310 57.5326
42.7915 3334 57.7408
42.9081 3377 58.112
43.0248 3432 58.5833
43.1415 3283 57.2975
43.2582 3326 57.6715
43.375 2996 54.7357
43.4918 3048 55.2087
43.6087 3063 55.3444
43.7256 2981 54.5985
43.8425 3006 54.827
43.9595 2996 54.7357
44.0765 2964 54.4426
44.1935 2874 53.6097
44.3106 2860 53.479
44.4277 2764 52.5738
44.5448 2671 51.6817
44.6619 2379 48.775
44.7791 2302 47.9792
44.8963 2225 47.1699
45.0136 2115 45.9891
45.1308 2025 45
45.2481 1962 44.2945
45.3654 1765 42.0119
45.4827 1763 41.9881
45.6001 1709 41.3401
45.7174 1696 41.1825
45.8348 1629 40.3609
45.9522 1735 41.6533
46.0697 1789 42.2966
46.1871 1838 42.8719
46.3046 1971 44.3959
46.422 1954 44.2041
46.5395 1953 44.1928
46.657 2018 44.9222
46.7745 1911 43.715
46.892 1703 41.2674
47.0096 1626 40.3237
47.1271 1766 42.0238
47.2446 1830 42.7785
47.3622 1937 44.0114
47.4797 1950 44.1588
47.5973 1925 43.8748
47.7149 1926 43.8862
47.8324 1971 44.3959
47.95 1869 43.2319
48.0675 1825 42.72
48.1851 1858 43.1045
48.3027 1872 43.2666
48.4202 1776 42.1426
48.5378 1748 41.8091
48.6554 1711 41.3642
48.7729 1736 41.6653
48.8904 1683 41.0244
49.008 1688 41.0853
49.1255 1612 40.1497
49.243 1673 40.9023
49.3605 1673 40.9023
49.478 1761 41.9643
49.5955 1841 42.9069
49.713 1804 42.4735
49.8304 1891 43.4856
49.9479 1808 42.5206
50.0653 1939 44.0341
50.1827 1939 44.0341
50.3001 1762 41.9762
50.4175 1512 38.8844
50.5348 1468 38.3145
50.6521 1514 38.9102
50.7694 1730 41.5933
50.8867 1814 42.5911
51.004 1867 43.2088
51.1212 1878 43.3359
51.2384 1844 42.9418
51.3556 1854 43.0581
51.4727 1912 43.7264
51.5899 1897 43.5546
51.707 1823 42.6966
51.824 1886 43.4281
51.9411 1871 43.2551
52.0581 1870 43.2435
52.175 1745 41.7732
52.2919 1789 42.2966
52.4088 1745 41.7732
52.5257 1712 41.3763
52.6425 1678 40.9634
52.7593 1692 41.1339
52.876 1709 41.3401
52.9927 1654 40.6694
53.1094 1691 41.1218
53.226 1697 41.1947
53.3426 1685 41.0488
53.4591 1654 40.6694
53.5756 1552 39.3954
53.692 1336 36.5513
53.8084 1210 34.7851
53.9248 1123 33.5112
54.0411 1032 32.1248
54.1573 948 30.7896
54.2735 0 1
54.3896 0 1
54.5057 0 1
54.6217 0 1
54.7377 0 1
54.8537 0 1
54.9695 0 1
55.0853 0 1
55.2011 0 1
55.3168 0 1
55.4324 0 1
57.824 0 1
57.9396 0 1
58.0553 0 1
58.1711 0 1
58.2869 0 1
58.4028 0 1
58.5187 0 1
58.6347 0 1
58.7508 0 1
58.8669 0 1
58.983 1493 38.6394
59.0992 1557 39.4588
59.2155 1574 39.6737
59.3318 1611 40.1373
59.4482 1767 42.0357
59.5646 2013 44.8665
59.681 2081 45.618
59.7975 2285 47.8017
59.9141 2268 47.6235
60.0306 2147 46.3357
60.1473 2248 47.4131
60.2639 2228 47.2017
60.3807 2190 46.7974
60.4974 2192 46.8188
60.6142 2158 46.4543
60.731 2240 47.3286
60.8479 2200 46.9042
60.9648 2247 47.4025
61.0818 2315 48.1144
61.1987 2172 46.6047
61.3158 2105 45.8803
61.4328 2138 46.2385
61.5499 2073 45.5302
61.667 2167 46.551
61.7841 2174 46.6262
61.9013 2204 46.9468
62.0185 2351 48.4871
62.1357 2080 45.607
62.253 2158 46.4543
62.3702 2138 46.2385
62.4875 2042 45.1885
62.6049 1883 43.3935
62.7222 1896 43.5431
62.8396 2146 46.3249
62.9569 2228 47.2017
63.0743 2203 46.9361
63.1918 2332 48.2908
63.3092 2284 47.7912
63.4267 2237 47.2969
63.5441 2334 48.3115
63.6616 2280 47.7493
63.7791 2217 47.085
63.8966 2242 47.3498
64.0142 2287 47.8226
64.1317 2235 47.2758
64.2492 2154 46.4112
64.3668 2216 47.0744
64.4843 2143 46.2925
64.6019 2188 46.7761
64.7195 2108 45.913
64.837 2170 46.5833
64.9546 2104 45.8694
65.0722 2112 45.9565
65.1898 2060 45.3872
65.3074 2207 46.9787
65.4249 2032 45.0777
65.5425 2150 46.3681
65.6601 2132 46.1736
65.7777 2218 47.0956
65.8952 2127 46.1194
66.0128 2035 45.111
66.1304 1944 44.0908
66.2479 1771 42.0833
66.3655 1825 42.72
66.483 2062 45.4093
66.6005 2149 46.3573
66.718 2221 47.1275
66.8355 2241 47.3392
66.953 2314 48.1041
67.0705 2127 46.1194
67.1879 2172 46.6047
67.3054 2177 46.6583
67.4228 2267 47.613
67.5402 2154 46.4112
67.6576 2204 46.9468
67.7749 2077 45.5741
67.8923 2177 46.6583
68.0096 2125 46.0977
68.1269 2162 46.4973
68.2442 2161 46.4866
68.3614 2197 46.8722
68.4787 2069 45.4863
68.5958 2169 46.5725
68.713 2069 45.4863
68.8302 2035 45.111
68.9473 1981 44.5084
69.0643 2050 45.2769
69.1814 2106 45.8912
69.2984 2110 45.9347
69.4154 2082 45.6289
69.5323 2114 45.9783
69.6492 1960 44.2719
69.7661 1806 42.4971
69.8829 1619 40.2368
69.9997 1717 41.4367
70.1165 1806 42.4971
70.2332 1801 42.4382
70.3499 1768 42.0476
70.4665 1660 40.7431
70.5831 1572 39.6485
70.6996 1424 37.7359
70.8161 1396 37.3631
70.9326 1352 36.7696
71.049 1321 36.3456
71.1653 1218 34.8999
71.2817 1230 35.0714
71.3979 1238 35.1852
71.5141 1135 33.6898
71.6303 1099 33.1512
71.7464 1021 31.9531
71.8624 0 1
71.9784 0 1
72.0944 0 1
72.2102 0 1
72.3261 0 1
72.4418 0 1
72.5575 0 1
72.6732 0 1
75.1054 0 1
75.2209 0 1
75.3365 0 1
75.4521 0 1
75.5678 0 1
75.6835 0 1
75.7993 0 1
75.9151 0 1
76.031 0 1
76.147 1751 41.845
76.263 1887 43.4396
76.3791 1993 44.643
76.4952 1879 43.3474
76.6113 1929 43.9204
76.7276 2017 44.911
76.8438 2065 45.4423
76.9601 2012 44.8553
77.0765 2068 45.4753
77.1929 2063 45.4203
77.3093 2080 45.607
77.4258 1987 44.5758
77.5423 2013 44.8665
77.6589 1942 44.0681
77.7755 1956 44.2267
77.8921 1957 44.238
78.0088 2013 44.8665
78.1256 1956 44.2267
78.2423 2070 45.4973
78.3591 1943 44.0795
78.4759 2088 45.6946
78.5928 2007 44.7996
78.7097 1825 42.72
78.8266 1509 38.8458
78.9436 1388 37.2559
79.0606 1475 38.4057
79.1776 1708 41.328
79.2946 1948 44.1362
79.4117 2095 45.7712
79.5288 2069 45.4863
79.6459 2058 45.3652
79.7631 2086 45.6727
79.8802 2100 45.8258
79.9974 2107 45.9021
80.1147 2131 46.1628
80.2319 2017 44.911
80.3491 2071 45.5082
80.4664 2125 46.0977
80.5837 2228 47.2017
80.701 2093 45.7493
80.8183 2202 46.9255
80.9357 2176 46.6476
81.053 2216 47.0744
81.1704 2094 45.7602
81.2877 2140 46.2601
81.4051 2074 45.5412
81.5225 2081 45.618
81.6399 2036 45.1221
81.7573 2128 46.1303
81.8747 2204 46.9468
81.9922 2270 47.6445
82.1096 2517 50.1697
82.227 2483 49.8297
82.3444 2263 47.571
82.4619 2159 46.465
82.5793 1962 44.2945
82.6967 2000 44.7214
82.8142 2527 50.2693
82.9316 2932 54.1479
83.049 3319 57.6108
83.1664 3410 58.3952
83.2838 3441 58.66
83.4012 3563 59.6909
83.5186 3708 60.8933
83.636 3870 62.2093
83.7534 3904 62.482
83.8708 3954 62.8808
83.9881 4060 63.7181
84.1055 4039 63.5531
84.2228 4081 63.8827
84.3401 4111 64.1171
84.4575 4175 64.6142
84.5747 4164 64.5291
84.692 4110 64.1093
84.8093 4133 64.2884
84.9265 3937 62.7455
85.0437 3971 63.0159
85.1609 4029 63.4744
85.2781 3899 62.442
85.3952 3934 62.7216
85.5123 4025 63.4429
85.6294 3975 63.0476
85.7465 3834 61.9193
85.8636 3537 59.4727
85.9806 3111 55.7763
86.0976 2614 51.1273
86.2145 2478 49.7795
86.3315 2779 52.7162
86.4484 3699 60.8194
86.5652 3826 61.8547
86.682 3977 63.0635
86.7988 3906 62.498
86.9156 3931 62.6977
87.0323 3846 62.0161
87.149 3813 61.7495
87.2657 3863 62.153
87.3823 3920 62.6099
87.4988 3653 60.4401
87.6154 3402 58.3267
87.7318 3113 55.7943
87.8483 2935 54.1756
87.9647 2835 53.2447
88.081 2700 51.9615
88.1973 2675 51.7204
88.3136 2588 50.8724
88.4298 2505 50.05
88.546 2342 48.3942
88.6621 2230 47.2229
88.7781 2166 46.5403
88.8942 0 1
89.0101 0 1
89.126 0 1
89.2419 0 1
89.3577 0 1
89.4734 0 1
89.5891 0 1
89.7047 0 1
89.8203 0 1
89.9358 0 1
92.3269 0 1
92.4424 0 1
92.558 0 1
92.6736 0 1
92.7893 0 1
92.905 0 1
93.0208 0 1
93.1366 0 1
93.2525 0 1
93.3685 0 1
93.4845 0 1
93.6005 4058 63.7024
93.7167 4182 64.6684
93.8328 3978 63.0714
93.949 4108 64.0937
94.0653 4085 63.914
94.1816 4008 63.3088
94.2979 4021 63.4114
94.4143 4049 63.6318
94.5307 4055 63.6789
94.6472 3972 63.0238
94.7637 3864 62.1611
94.8803 3591 59.925
94.9969 3146 56.0892
95.1135 2711 52.0673
95.2302 2979 54.5802
95.3469 3435 58.6089
95.4637 3899 62.442
95.5805 4043 63.5846
95.6973 4129 64.2573
95.8142 4102 64.0469
95.9311 4124 64.2184
96.048 4212 64.8999
96.1649 4059 63.7103
96.2819 4091 63.9609
96.3989 4246 65.1613
96.516 4190 64.7302
96.633 4189 64.7225
96.7501 4263 65.2917
96.8673 4231 65.0461
96.9844 4259 65.261
97.1016 4281 65.4294
97.2188 4267 65.3223
97.336 3998 63.2297
97.4532 3926 62.6578
97.5704 3759 61.3107
97.6877 3764 61.3514
97.805 3819 61.7981
97.9223 3711 60.918
98.0396 3548 59.5651
98.1569 3473 58.9322
98.2743 3170 56.3028
98.3916 3051 55.2359
98.509 2580 50.7937
98.6264 2305 48.0104
98.7438 2183 46.7226
98.8612 2545 50.448
98.9786 2780 52.7257
99.096 2757 52.5071
99.2134 2646 51.4393
99.3308 2630 51.2835
99.4482 2720 52.1536
99.5656 2668 51.6527
99.6831 2604 51.0294
99.8005 2703 51.9904
99.9179 2567 50.6656
100.035 2641 51.3907
100.153 2672 51.6914
100.27 2549 50.4876
100.388 2777 52.6972
100.505 2889 53.7494
100.622 2841 53.301
100.74 2776 52.6878
100.857 2808 52.9906
100.975 2785 52.7731
101.092 2773 52.6593
101.209 2715 52.1057
101.327 2644 51.4198
101.444 2665 51.6236
101.561 2762 52.5547
101.679 2738 52.3259
101.796 2651 51.4879
101.913 2686 51.8266
102.03 2333 48.3011
102.148 2118 46.0217
102.265 1923 43.852
102.382 2242 47.3498
102.499 2468 49.679
102.616 2614 51.1273
102.733 2597 50.9608
102.851 2603 51.0196
102.968 2577 50.7642
103.085 2525 50.2494
103.202 2504 50.04
103.319 2469 49.689
103.436 2570 50.6952
103.552 2443 49.4267
103.669 2490 49.8999
103.786 2520 50.1996
103.903 2443 49.4267
104.02 2512 50.1199
104.137 2503 50.03
104.253 2572 50.7149
104.37 2449 49.4874
104.487 2470 49.6991
104.603 2418 49.1732
104.72 2368 48.6621
104.836 2213 47.0425
104.953 1991 44.6206
105.069 1739 41.7013
105.186 1568 39.598
105.302 1525 39.0512
105.418 1361 36.8917
105.535 1280 35.7771
105.651 1042 32.28
105.767 958 30.9516
105.883 766 27.6767
105.999 799 28.2666
106.115 0 1
106.231 0 1
106.347 0 1
106.463 0 1
106.579 0 1
106.694 0 1
106.81 0 1
106.926 0 1
107.041 0 1
107.157 0 1
109.576 0 1
109.692 0 1
109.807 0 1
109.923 0 1
110.039 0 1
110.155 0 1
110.27 0 1
110.386 0 1
110.502 0 1
110.618 2421 49.2037
110.735 2614 51.1273
110.851 2401 49
110.967 2196 46.8615
111.083 2160 46.4758
111.199 2304 48
111.316 2550 50.4975
111.432 2835 53.2447
111.549 2744 52.3832
111.665 2661 51.5849
111.782 2826 53.1601
111.898 2670 51.672
112.015 2641 51.3907
112.132 2658 51.5558
112.248 2825 53.1507
112.365 2648 51.4587
112.482 2708 52.0384
112.599 2925 54.0833
112.716 2860 53.479
112.832 2981 54.5985
112.949 3085 55.5428
113.066 3076 55.4617
113.183 3024 54.9909
113.3 3044 55.1725
113.417 3042 55.1543
113.534 3011 54.8726
113.652 3047 55.1996
113.769 3060 55.3173
113.886 3000 54.7723
114.003 2968 54.4794
114.12 2974 54.5344
114.238 2906 53.9073
114.355 2701 51.9711
114.472 2395 48.9387
114.589 2379 48.775
114.707 2389 48.8774
114.824 2595 50.9411
114.942 2778 52.7067
115.059 2849 53.376
115.176 2842 53.3104
115.294 2867 53.5444
115.411 2827 53.1695
115.529 2752 52.4595
115.646 2722 52.1728
115.764 2800 52.915
115.881 2830 53.1977
115.999 2834 53.2353
116.116 2820 53.1037
116.234 2917 54.0093
116.351 2886 53.7215
116.469 2969 54.4885
116.586 3189 56.4712
116.704 3174 56.3383
116.821 3195 56.5243
116.939 3234 56.8683
117.056 3060 55.3173
117.174 3015 54.909
117.291 3137 56.0089
117.409 3009 54.8544
117.526 3043 55.1634
117.644 3058 55.2992
117.761 3103 55.7046
117.879 2919 54.0278
117.996 2572 50.7149
118.114 2385 48.8365
118.231 2363 48.6107
118.349 2525 50.2494
118.466 2696 51.923
118.584 2857 53.4509
118.701 2746 52.4023
118.819 2890 53.7587
118.936 2742 52.3641
119.053 2859 53.4696
119.171 2730 52.2494
119.288 2680 51.7687
119.405 2601 51
119.523 2728 52.2303
119.64 2651 51.4879
119.757 2693 51.8941
119.875 2770 52.6308
119.992 2763 52.5642
120.109 2787 52.792
120.226 2812 53.0283
120.343 2866 53.535
120.46 2893 53.7866
120.578 2789 52.811
120.695 2853 53.4135
120.812 2829 53.1883
120.929 2818 53.0848
121.046 2741 52.3546
121.163 2896 53.8145
121.279 2783 52.7541
121.396 2745 52.3927
121.513 2703 51.9904
121.63 2542 50.4183
121.747 2236 47.2864
121.863 2023 44.9778
121.98 1931 43.9431
122.097 1980 44.4972
122.213 1986 44.5646
122.33 2052 45.299
122.446 1846 42.9651
122.563 1849 43
122.679 1842 42.9185
122.795 1822 42.6849
122.912 1744 41.7612
123.028 1757 41.9166
123.144 1665 40.8044
123.26 1610 40.1248
123.377 0 1
123.493 0 1
123.609 0 1
123.725 0 1
123.84 0 1
123.956 0 1
124.072 0 1
124.188 0 1
124.303 0 1
124.419 0 1
126.852 0 1
126.968 0 1
127.083 0 1
127.199 0 1
127.315 0 1
127.431 0 1
127.547 0 1
127.663 0 1
127.779 0 1
127.895 0 1
128.011 0 1
128.127 0 1
128.243 0 1
128.359 3169 56.2939
128.476 3217 56.7186
128.592 3232 56.8507
128.708 3238 56.9034
128.825 3336 57.7581
128.941 3396 58.2752
129.058 3188 56.4624
129.174 3435 58.6089
129.291 3424 58.515
129.408 3447 58.7112
129.524 3632 60.2661
129.641 3693 60.7701
129.758 3580 59.8331
129.875 3774 61.4329
129.992 3824 61.8385
130.108 3845 62.0081
130.225 3903 62.474
130.342 3886 62.3378
130.459 3618 60.1498
130.576 3648 60.3987
130.693 3416 58.4466
130.81 3291 57.3672
130.928 3292 57.376
131.045 3443 58.6771
131.162 3648 60.3987
131.279 3570 59.7495
131.396 3611 60.0916
131.513 3767 61.3759
131.631 3721 61
131.748 3768 61.384
131.865 3766 61.3677
131.983 3654 60.4483
132.1 3496 59.127
132.217 3576 59.7997
132.335 3626 60.2163
132.452 3530 59.4138
132.57 3552 59.5987
132.687 3381 58.1464
132.804 3751 61.2454
132.922 3599 59.9917
133.039 3645 60.3738
133.157 3794 61.5955
133.274 3854 62.0806
133.392 3835 61.9274
133.509 3960 62.9285
133.627 3984 63.1189
133.744 4002 63.2614
133.862 4043 63.5846
133.979 4121 64.195
134.097 4129 64.2573
134.214 4054 63.671
134.332 3795 61.6036
134.449 3761 61.327
134.567 3654 60.4483
134.684 3856 62.0967
134.802 4020 63.4035
134.919 3915 62.57
135.037 4077 63.8514
135.154 4084 63.9062
135.272 4012 63.3404
135.389 4017 63.3798
135.507 3854 62.0806
135.624 3734 61.1065
135.742 3753 61.2617
135.859 3712 60.9262
135.977 3916 62.578
136.094 3756 61.2862
136.211 3763 61.3433
136.329 3789 61.5549
136.446 3858 62.1128
136.564 3788 61.5467
136.681 3929 62.6817
136.798 3906 62.498
136.915 3937 62.7455
137.033 3949 62.8411
137.15 3872 62.2254
137.267 4010 63.3246
137.384 4038 63.5453
137.502 3991 63.1744
137.619 3993 63.1902
137.736 3861 62.1369
137.853 3737 61.131
137.97 3814 61.7576
138.087 3444 58.6856
138.204 3597 59.975
138.321 3719 60.9836
138.438 3740 61.1555
138.555 3838 61.9516
138.672 3785 61.5224
138.788 3744 61.1882
138.905 3658 60.4814
139.022 3576 59.7997
139.139 3424 58.515
139.255 3327 57.6802
139.372 3119 55.848
139.488 3044 55.1725
139.605 2961 54.4151
139.721 2771 52.6403
139.838 2852 53.4041
139.954 2739 52.3355
140.071 2619 51.1762
140.187 2639 51.3712
140.303 2541 50.4083
140.419 2562 50.6162
140.535 2655 51.5267
140.652 2726 52.2111
140.768 0 1
140.884 0 1
141 0 1
141.115 0 1
141.231 0 1
141.347 0 1
141.463 0 1
141.578 0 1
141.694 0 1
144.104 0 1
144.219 0 1
144.335 0 1
144.45 0 1
144.566 0 1
144.682 0 1
144.798 0 1
144.914 0 1
145.03 0 1
145.146 7904 88.9044
145.262 8122 90.1221
145.378 8318 91.2031
145.494 8218 90.6532
145.61 8394 91.6188
145.726 8431 91.8205
145.842 8585 92.6553
145.959 8395 91.6242
146.075 8485 92.1141
146.192 8676 93.145
146.308 8436 91.8477
146.425 8237 90.7579
146.541 7709 87.8009
146.658 6557 80.9753
146.774 5637 75.08
146.891 5426 73.6614
147.008 6152 78.4347
147.125 7388 85.9535
147.241 7858 88.6454
147.358 8310 91.1592
147.475 8342 91.3345
147.592 8257 90.868
147.709 8513 92.2659
147.826 8431 91.8205
147.943 8312 91.1702
148.06 8424 91.7824
148.177 8436 91.8477
148.294 8454 91.9456
148.411 8524 92.3255
148.528 8430 91.815
148.645 8301 91.1098
148.762 8530 92.358
148.88 8538 92.4013
148.997 8294 91.0714
149.114 8970 94.7101
149.231 8499 92.19
149.349 8642 92.9624
149.466 8626 92.8763
149.583 8740 93.488
149.701 8569 92.5689
149.818 8689 93.2148
149.935 8601 92.7416
150.053 8543 92.4284
150.17 8153 90.294
150.287 7428 86.1858
150.405 6291 79.3158
150.522 5806 76.1971
150.64 6087 78.0192
150.757 7215 84.9412
150.875 8068 89.822
150.992 8297 91.0879
151.11 8296 91.0824
151.227 8554 92.4878
151.344 8146 90.2552
151.462 8266 90.9175
151.579 8359 91.4276
151.697 8570 92.5743
151.814 8556 92.4986
151.932 8508 92.2388
152.049 8594 92.7038
152.167 8523 92.3201
152.284 8588 92.6715
152.402 8552 92.477
152.519 8617 92.8278
152.636 8721 93.3863
152.754 8828 93.9574
152.871 8763 93.6109
152.989 8853 94.0904
153.106 8823 93.9308
153.223 8792 93.7657
153.341 9174 95.781
153.458 8823 93.9308
153.575 8878 94.2231
153.693 9023 94.9895
153.81 8384 91.5642
153.927 7624 87.3155
154.044 6470 80.4363
154.162 5976 77.3046
154.279 6428 80.1748
154.396 7422 86.151
154.513 8401 91.657
154.63 8662 93.0699
154.747 8799 93.803
154.864 8485 92.1141
154.981 8773 93.6643
155.098 8523 92.3201
155.215 8449 91.9184
155.332 8336 91.3017
155.449 8309 91.1537
155.566 8052 89.7329
155.683 7779 88.1986
155.8 7572 87.0172
155.917 7421 86.1452
156.033 7385 85.936
156.15 0 1
156.267 0 1
156.383 0 1
156.5 0 1
156.617 0 1
156.733 0 1
156.85 0 1
156.966 0 1
157.082 0 1
157.199 0 1
157.315 0 1
157.431 0 1
157.547 0 1
157.664 0 1
157.78 0 1
157.896 0 1
158.012 0 1
158.128 0 1
158.244 0 1
158.359 0 1
158.475 0 1
158.591 0 1
158.706 0 1
