
6.15755 0 1
6.2731 0 1
6.3887 0 1
6.50437 0 1
6.62009 0 1
6.73587 0 1
6.8517 0 1
6.96759 0 1
7.08353 0 1
7.19952 0 1
7.31557 0 1
7.43166 0 1
7.54781 0 1
7.664 0 1
7.78024 0 1
7.89653 0 1
8.01286 0 1
8.12924 0 1
8.24567 0 1
8.36213 0 1
8.47864 0 1
8.59519 0 1
8.71178 0 1
8.82841 0 1
8.94508 0 1
9.06179 0 1
9.17853 0 1
9.29531 0 1
9.41212 0 1
9.52897 0 1
9.64584 0 1
9.76276 0 1
9.8797 0 1
9.99667 0 1
10.1137 0 1
10.2307 0 1
10.3478 0 1
10.4648 0 1
10.5819 0 1
10.6991 0 1
10.8162 0 1
10.9334 0 1
11.0506 0 1
11.1678 0 1
11.285 0 1
11.4023 0 1
11.5196 0 1
11.6369 0 1
11.7542 0 1
11.8715 0 1
11.9888 0 1
12.1062 0 1
12.2235 0 1
12.3409 0 1
12.4582 0 1
12.5756 0 1
12.693 0 1
12.8104 0 1
12.9278 0 1
13.0452 0 1
13.1626 0 1
13.28 0 1
13.3974 0 1
13.5149 0 1
13.6323 0 1
13.7497 0 1
13.8671 0 1
13.9845 0 1
14.1019 0 1
14.2193 0 1
14.3367 0 1
14.4541 0 1
14.5714 0 1
14.6888 0 1
14.8062 0 1
14.9235 0 1
15.0408 0 0
15.1581 0 0
15.2755 0 0
15.3927 0 0
15.51 0 0
15.6273 0 0
15.7445 0 0
15.8617 0 0
15.9789 0 0
16.0961 0 0
16.2132 0 0
16.3304 0 0
16.4475 0 0
16.5646 0 0
16.6816 0 0
16.7986 0 0
16.9156 0 0
17.0326 0 0
17.1496 0 0
17.2665 0 0
17.3833 0 0
17.5002 0 0
17.617 0 0
17.7338 0 0
17.8505 0 0
17.9672 0 0
18.0839 0 0
18.2005 0 0
18.3171 0 0
18.4337 0 0
18.5502 0 0
18.6666 0 0
18.7831 0 0
18.8994 0 0
19.0158 0 0
19.1321 0 0
19.2483 0 0
19.3645 0 0
19.4806 0 0
19.5967 0 0
19.7128 0 0
19.8288 0 0
19.9447 0 0
20.0606 0 1
20.1764 0 1
20.2922 0 1
20.4079 0 1
20.5236 0 1
20.6392 0 1
20.7548 0 1
20.8702 0 1
23.3078 0 1
23.4233 0 1
23.539 0 1
23.6547 0 1
23.7704 0 1
23.8862 0 1
24.0021 0 1
24.118 0 1
24.234 0 1
24.35 0 1
24.4661 868 29.4618
24.5822 789 28.0891
24.6984 909 30.1496
24.8146 846 29.0861
24.9309 893 29.8831
25.0472 873 29.5466
25.1636 907 30.1164
25.28 946 30.7571
25.3965 952 30.8545
25.513 939 30.6431
25.6296 888 29.7993
25.7462 990 31.4643
25.8628 930 30.4959
25.9795 978 31.273
26.0962 998 31.5911
26.213 968 31.1127
26.3298 912 30.1993
26.4466 950 30.8221
26.5635 909 30.1496
26.6804 948 30.7896
26.7973 871 29.5127
26.9143 822 28.6705
27.0313 765 27.6586
27.1483 818 28.6007
27.2653 805 28.3725
27.3824 806 28.3901
27.4996 842 29.0172
27.6167 781 27.9464
27.7339 894 29.8998
27.8511 801 28.3019
27.9683 810 28.4605
28.0855 782 27.9643
28.2028 808 28.4253
28.3201 819 28.6182
28.4374 797 28.2312
28.5547 803 28.3373
28.6721 899 29.9833
28.7894 887 29.7825
28.9068 901 30.0167
29.0242 861 29.3428
29.1416 893 29.8831
29.259 864 29.3939
29.3764 931 30.5123
29.4939 845 29.0689
29.6113 888 29.7993
29.7288 939 30.6431
29.8463 878 29.6311
29.9638 938 30.6268
30.0812 846 29.0861
30.1987 872 29.5296
30.3162 857 29.2746
30.4337 784 28
30.5512 676 26
30.6687 762 27.6043
30.7862 799 28.2666
30.9037 734 27.0924
31.0212 796 28.2135
31.1387 829 28.7924
31.2562 795 28.1957
31.3737 795 28.1957
31.4912 759 27.55
31.6087 790 28.1069
31.7262 788 28.0713
31.8436 731 27.037
31.9611 792 28.1425
32.0785 806 28.3901
32.1959 867 29.4449
32.3134 822 28.6705
32.4308 870 29.4958
32.5482 861 29.3428
32.6655 860 29.3258
32.7829 837 28.931
32.9002 850 29.1548
33.0176 860 29.3258
33.1349 899 29.9833
33.2522 849 29.1376
33.3694 898 29.9666
33.4867 873 29.5466
33.6039 816 28.5657
33.7211 842 29.0172
33.8383 816 28.5657
33.9554 814 28.5307
34.0725 796 28.2135
34.1896 743 27.258
34.3067 768 27.7128
34.4237 722 26.8701
34.5407 779 27.9106
34.6577 749 27.3679
34.7746 753 27.4408
34.8915 795 28.1957
35.0084 782 27.9643
35.1252 742 27.2397
35.242 740 27.2029
35.3587 751 27.4044
35.4755 733 27.074
35.5921 799 28.2666
35.7088 853 29.2062
35.8254 823 28.688
35.9419 819 28.6182
36.0584 870 29.4958
36.1749 768 27.7128
36.2913 813 28.5132
36.4077 806 28.3901
36.524 822 28.6705
36.6403 809 28.4429
36.7565 906 30.0998
36.8727 851 29.1719
36.9889 804 28.3549
37.1049 785 28.0179
37.221 0 1
37.3369 0 1
37.4529 0 1
37.5687 0 1
37.6845 0 1
37.8003 0 1
37.916 0 1
38.0316 0 1
38.1472 0 1
40.5851 0 1
40.7008 0 1
40.8164 0 1
40.9322 0 1
41.048 0 1
41.1639 0 1
41.2798 0 1
41.3958 0 1
41.5118 0 1
41.6279 0 1
41.744 630 25.0998
41.8602 696 26.3818
41.9765 663 25.7488
42.0928 692 26.3059
42.2091 730 27.0185
42.3255 707 26.5895
42.4419 667 25.8263
42.5584 701 26.4764
42.675 721 26.8514
42.7915 694 26.3439
42.9081 672 25.923
43.0248 635 25.1992
43.1415 607 24.6374
43.2582 587 24.2281
43.375 605 24.5967
43.4918 607 24.6374
43.6087 634 25.1794
43.7256 598 24.454
43.8425 638 25.2587
43.9595 600 24.4949
44.0765 583 24.1454
44.1935 602 24.5357
44.3106 615 24.7992
44.4277 604 24.5764
44.5448 648 25.4558
44.6619 643 25.3574
44.7791 637 25.2389
44.8963 581 24.1039
45.0136 648 25.4558
45.1308 624 24.98
45.2481 583 24.1454
45.3654 659 25.671
45.4827 630 25.0998
45.6001 596 24.4131
45.7174 590 24.2899
45.8348 632 25.1396
45.9522 597 24.4336
46.0697 599 24.4745
46.1871 523 22.8692
46.3046 553 23.516
46.422 567 23.8118
46.5395 497 22.2935
46.657 466 21.587
46.7745 454 21.3073
46.892 426 20.6398
47.0096 463 21.5174
47.1271 453 21.2838
47.2446 509 22.561
47.3622 459 21.4243
47.4797 438 20.9284
47.5973 492 22.1811
47.7149 433 20.8087
47.8324 466 21.587
47.95 432 20.7846
48.0675 447 21.1424
48.1851 452 21.2603
48.3027 482 21.9545
48.4202 447 21.1424
48.5378 464 21.5407
48.6554 444 21.0713
48.7729 454 21.3073
48.8904 465 21.5639
49.008 470 21.6795
49.1255 463 21.5174
49.243 471 21.7025
49.3605 478 21.8632
49.478 452 21.2603
49.5955 508 22.5389
49.713 484 22
49.8304 471 21.7025
49.9479 450 21.2132
50.0653 467 21.6102
50.1827 446 21.1187
50.3001 436 20.8806
50.4175 410 20.2485
50.5348 376 19.3907
50.6521 443 21.0476
50.7694 504 22.4499
50.8867 506 22.4944
51.004 489 22.1133
51.1212 470 21.6795
51.2384 501 22.383
51.3556 494 22.2261
51.4727 531 23.0434
51.5899 543 23.3024
51.707 592 24.3311
51.824 576 24
51.9411 524 22.891
52.0581 575 23.9792
52.175 607 24.6374
52.2919 595 24.3926
52.4088 571 23.8956
52.5257 612 24.7386
52.6425 558 23.622
52.7593 557 23.6008
52.876 650 25.4951
52.9927 676 26
53.1094 625 25
53.226 635 25.1992
53.3426 641 25.318
53.4591 638 25.2587
53.5756 627 25.04
53.692 663 25.7488
53.8084 615 24.7992
53.9248 597 24.4336
54.0411 520 22.8035
54.1573 537 23.1733
54.2735 0 1
54.3896 0 1
54.5057 0 1
54.6217 0 1
54.7377 0 1
54.8537 0 1
54.9695 0 1
55.0853 0 1
55.2011 0 1
55.3168 0 1
55.4324 0 1
57.824 0 1
57.9396 0 1
58.0553 0 1
58.1711 0 1
58.2869 0 1
58.4028 0 1
58.5187 0 1
58.6347 0 1
58.7508 0 1
58.8669 0 1
58.983 645 25.3969
59.0992 634 25.1794
59.2155 652 25.5343
59.3318 574 23.9583
59.4482 651 25.5147
59.5646 652 25.5343
59.681 680 26.0768
59.7975 682 26.1151
59.9141 710 26.6458
60.0306 677 26.0192
60.1473 681 26.096
60.2639 728 26.9815
60.3807 692 26.3059
60.4974 717 26.7769
60.6142 679 26.0576
60.731 649 25.4755
60.8479 708 26.6083
60.9648 631 25.1197
61.0818 666 25.807
61.1987 677 26.0192
61.3158 636 25.219
61.4328 662 25.7294
61.5499 666 25.807
61.667 644 25.3772
61.7841 597 24.4336
61.9013 606 24.6171
62.0185 646 25.4165
62.1357 615 24.7992
62.253 660 25.6905
62.3702 623 24.96
62.4875 572 23.9165
62.6049 565 23.7697
62.7222 538 23.1948
62.8396 582 24.1247
62.9569 635 25.1992
63.0743 575 23.9792
63.1918 592 24.3311
63.3092 559 23.6432
63.4267 598 24.454
63.5441 602 24.5357
63.6616 611 24.7184
63.7791 631 25.1197
63.8966 623 24.96
64.0142 593 24.3516
64.1317 598 24.454
64.2492 623 24.96
64.3668 578 24.0416
64.4843 569 23.8537
64.6019 573 23.9374
64.7195 561 23.6854
64.837 589 24.2693
64.9546 589 24.2693
65.0722 577 24.0208
65.1898 587 24.2281
65.3074 542 23.2809
65.4249 566 23.7908
65.5425 537 23.1733
65.6601 543 23.3024
65.7777 562 23.7065
65.8952 540 23.2379
66.0128 565 23.7697
66.1304 503 22.4277
66.2479 466 21.587
66.3655 448 21.166
66.483 439 20.9523
66.6005 466 21.587
66.718 474 21.7715
66.8355 500 22.3607
66.953 487 22.0681
67.0705 566 23.7908
67.1879 501 22.383
67.3054 545 23.3452
67.4228 512 22.6274
67.5402 509 22.561
67.6576 513 22.6495
67.7749 588 24.2487
67.8923 562 23.7065
68.0096 492 22.1811
68.1269 525 22.9129
68.2442 514 22.6716
68.3614 512 22.6274
68.4787 494 22.2261
68.5958 532 23.0651
68.713 482 21.9545
68.8302 518 22.7596
68.9473 518 22.7596
69.0643 541 23.2594
69.1814 513 22.6495
69.2984 518 22.7596
69.4154 501 22.383
69.5323 531 23.0434
69.6492 519 22.7816
69.7661 536 23.1517
69.8829 449 21.1896
69.9997 409 20.2237
70.1165 409 20.2237
70.2332 457 21.3776
70.3499 436 20.8806
70.4665 417 20.4206
70.5831 430 20.7364
70.6996 511 22.6053
70.8161 492 22.1811
70.9326 468 21.6333
71.049 444 21.0713
71.1653 478 21.8632
71.2817 442 21.0238
71.3979 441 21
71.5141 444 21.0713
71.6303 424 20.5913
71.7464 415 20.3715
71.8624 0 1
71.9784 0 1
72.0944 0 1
72.2102 0 1
72.3261 0 1
72.4418 0 1
72.5575 0 1
72.6732 0 1
75.1054 0 1
75.2209 0 1
75.3365 0 1
75.4521 0 1
75.5678 0 1
75.6835 0 1
75.7993 0 1
75.9151 0 1
76.031 0 1
76.147 338 18.3848
76.263 345 18.5742
76.3791 381 19.5192
76.4952 356 18.868
76.6113 352 18.7617
76.7276 369 19.2094
76.8438 350 18.7083
76.9601 328 18.1108
77.0765 315 17.7482
77.1929 343 18.5203
77.3093 346 18.6011
77.4258 344 18.5472
77.5423 375 19.3649
77.6589 316 17.7764
77.7755 346 18.6011
77.8921 318 17.8326
78.0088 334 18.2757
78.1256 312 17.6635
78.2423 303 17.4069
78.3591 284 16.8523
78.4759 286 16.9115
78.5928 277 16.6433
78.7097 272 16.4924
78.8266 312 17.6635
78.9436 278 16.6733
79.0606 272 16.4924
79.1776 225 15
79.2946 207 14.3875
79.4117 253 15.906
79.5288 242 15.5563
79.6459 236 15.3623
79.7631 257 16.0312
79.8802 259 16.0935
79.9974 237 15.3948
80.1147 237 15.3948
80.2319 216 14.6969
80.3491 226 15.0333
80.4664 214 14.6287
80.5837 215 14.6629
80.701 215 14.6629
80.8183 224 14.9666
80.9357 218 14.7648
81.053 181 13.4536
81.1704 216 14.6969
81.2877 163 12.7671
81.4051 186 13.6382
81.5225 165 12.8452
81.6399 153 12.3693
81.7573 177 13.3041
81.8747 150 12.2474
81.9922 165 12.8452
82.1096 158 12.5698
82.227 154 12.4097
82.3444 150 12.2474
82.4619 132 11.4891
82.5793 141 11.8743
82.6967 123 11.0905
82.8142 115 10.7238
82.9316 100 10
83.049 112 10.583
83.1664 109 10.4403
83.2838 102 10.0995
83.4012 101 10.0499
83.5186 115 10.7238
83.636 97 9.84886
83.7534 90 9.48683
83.8708 79 8.88819
83.9881 83 9.11043
84.1055 80 8.94427
84.2228 76 8.7178
84.3401 81 9
84.4575 60 7.74597
84.5747 62 7.87401
84.692 90 9.48683
84.8093 72 8.48528
84.9265 54 7.34847
85.0437 78 8.83176
85.1609 56 7.48331
85.2781 75 8.66025
85.3952 70 8.3666
85.5123 59 7.68115
85.6294 57 7.54983
85.7465 53 7.28011
85.8636 57 7.54983
85.9806 64 8
86.0976 63 7.93725
86.2145 46 6.78233
86.3315 50 7.07107
86.4484 84 9.16515
86.5652 60 7.74597
86.682 88 9.38083
86.7988 72 8.48528
86.9156 80 8.94427
87.0323 94 9.69536
87.149 82 9.05539
87.2657 103 10.1489
87.3823 101 10.0499
87.4988 101 10.0499
87.6154 114 10.6771
87.7318 98 9.89949
87.8483 108 10.3923
87.9647 122 11.0454
88.081 153 12.3693
88.1973 165 12.8452
88.3136 164 12.8062
88.4298 157 12.53
88.546 170 13.0384
88.6621 172 13.1149
88.7781 152 12.3288
88.8942 0 1
89.0101 0 1
89.126 0 1
89.2419 0 1
89.3577 0 1
89.4734 0 1
89.5891 0 1
89.7047 0 1
89.8203 0 1
89.9358 0 1
92.3269 0 1
92.4424 0 1
92.558 0 1
92.6736 0 1
92.7893 0 1
92.905 0 1
93.0208 0 1
93.1366 0 1
93.2525 0 1
93.3685 0 1
93.4845 0 1
93.6005 293 17.1172
93.7167 262 16.1864
93.8328 269 16.4012
93.949 274 16.5529
94.0653 248 15.748
94.1816 224 14.9666
94.2979 225 15
94.4143 224 14.9666
94.5307 225 15
94.6472 197 14.0357
94.7637 209 14.4568
94.8803 182 13.4907
94.9969 213 14.5945
95.1135 176 13.2665
95.2302 195 13.9642
95.3469 176 13.2665
95.4637 147 12.1244
95.5805 154 12.4097
95.6973 170 13.0384
95.8142 215 14.6629
95.9311 229 15.1327
96.048 214 14.6287
96.1649 251 15.843
96.2819 257 16.0312
96.3989 232 15.2315
96.516 248 15.748
96.633 256 16
96.7501 238 15.4272
96.8673 250 15.8114
96.9844 275 16.5831
97.1016 311 17.6352
97.2188 284 16.8523
97.336 298 17.2627
97.4532 300 17.3205
97.5704 326 18.0555
97.6877 333 18.2483
97.805 327 18.0831
97.9223 328 18.1108
98.0396 339 18.412
98.1569 337 18.3576
98.2743 360 18.9737
98.3916 350 18.7083
98.509 352 18.7617
98.6264 382 19.5448
98.7438 385 19.6214
98.8612 354 18.8149
98.9786 300 17.3205
99.096 276 16.6132
99.2134 306 17.4929
99.3308 335 18.303
99.4482 390 19.7484
99.5656 446 21.1187
99.6831 458 21.4009
99.8005 420 20.4939
99.9179 420 20.4939
100.035 494 22.2261
100.153 421 20.5183
100.27 477 21.8403
100.388 476 21.8174
100.505 504 22.4499
100.622 464 21.5407
100.74 494 22.2261
100.857 480 21.9089
100.975 541 23.2594
101.092 502 22.4054
101.209 523 22.8692
101.327 537 23.1733
101.444 508 22.5389
101.561 515 22.6936
101.679 539 23.2164
101.796 499 22.3383
101.913 561 23.6854
102.03 539 23.2164
102.148 507 22.5167
102.265 575 23.9792
102.382 512 22.6274
102.499 479 21.8861
102.616 411 20.2731
102.733 336 18.3303
102.851 459 21.4243
102.968 510 22.5832
103.085 531 23.0434
103.202 545 23.3452
103.319 524 22.891
103.436 558 23.622
103.552 580 24.0832
103.669 574 23.9583
103.786 505 22.4722
103.903 549 23.4307
104.02 567 23.8118
104.137 518 22.7596
104.253 595 24.3926
104.37 601 24.5153
104.487 566 23.7908
104.603 584 24.1661
104.72 520 22.8035
104.836 606 24.6171
104.953 559 23.6432
105.069 572 23.9165
105.186 553 23.516
105.302 616 24.8193
105.418 553 23.516
105.535 591 24.3105
105.651 607 24.6374
105.767 590 24.2899
105.883 525 22.9129
105.999 452 21.2603
106.115 0 1
106.231 0 1
106.347 0 1
106.463 0 1
106.579 0 1
106.694 0 1
106.81 0 1
106.926 0 1
107.041 0 1
107.157 0 1
109.576 0 1
109.692 0 1
109.807 0 1
109.923 0 1
110.039 0 1
110.155 0 1
110.27 0 1
110.386 0 1
110.502 0 1
110.618 459 21.4243
110.735 459 21.4243
110.851 445 21.095
110.967 430 20.7364
111.083 395 19.8746
111.199 357 18.8944
111.316 343 18.5203
111.432 342 18.4932
111.549 432 20.7846
111.665 409 20.2237
111.782 402 20.0499
111.898 421 20.5183
112.015 360 18.9737
112.132 407 20.1742
112.248 381 19.5192
112.365 382 19.5448
112.482 371 19.2614
112.599 402 20.0499
112.716 339 18.412
112.832 396 19.8997
112.949 331 18.1934
113.066 350 18.7083
113.183 361 19
113.3 340 18.4391
113.417 395 19.8746
113.534 342 18.4932
113.652 346 18.6011
113.769 349 18.6815
113.886 352 18.7617
114.003 316 17.7764
114.12 335 18.303
114.238 331 18.1934
114.355 283 16.8226
114.472 312 17.6635
114.589 304 17.4356
114.707 284 16.8523
114.824 289 17
114.942 263 16.2173
115.059 285 16.8819
115.176 303 17.4069
115.294 279 16.7033
115.411 295 17.1756
115.529 303 17.4069
115.646 303 17.4069
115.764 299 17.2916
115.881 305 17.4642
115.999 271 16.4621
116.116 269 16.4012
116.234 275 16.5831
116.351 320 17.8885
116.469 300 17.3205
116.586 344 18.5472
116.704 303 17.4069
116.821 281 16.7631
116.939 307 17.5214
117.056 317 17.8045
117.174 301 17.3494
117.291 287 16.9411
117.409 336 18.3303
117.526 291 17.0587
117.644 285 16.8819
117.761 290 17.0294
117.879 264 16.2481
117.996 245 15.6525
118.114 281 16.7631
118.231 293 17.1172
118.349 294 17.1464
118.466 297 17.2337
118.584 257 16.0312
118.701 291 17.0587
118.819 330 18.1659
118.936 297 17.2337
119.053 317 17.8045
119.171 312 17.6635
119.288 297 17.2337
119.405 313 17.6918
119.523 328 18.1108
119.64 337 18.3576
119.757 289 17
119.875 286 16.9115
119.992 282 16.7929
120.109 324 18
120.226 327 18.0831
120.343 339 18.412
120.46 322 17.9444
120.578 337 18.3576
120.695 337 18.3576
120.812 303 17.4069
120.929 325 18.0278
121.046 338 18.3848
121.163 310 17.6068
121.279 295 17.1756
121.396 301 17.3494
121.513 279 16.7033
121.63 278 16.6733
121.747 217 14.7309
121.863 219 14.7986
121.98 268 16.3707
122.097 308 17.5499
122.213 323 17.9722
122.33 299 17.2916
122.446 358 18.9209
122.563 276 16.6132
122.679 316 17.7764
122.795 319 17.8606
122.912 328 18.1108
123.028 326 18.0555
123.144 338 18.3848
123.26 365 19.105
123.377 0 1
123.493 0 1
123.609 0 1
123.725 0 1
123.84 0 1
123.956 0 1
124.072 0 1
124.188 0 1
124.303 0 1
124.419 0 1
126.852 0 1
126.968 0 1
127.083 0 1
127.199 0 1
127.315 0 1
127.431 0 1
127.547 0 1
127.663 0 1
127.779 0 1
127.895 0 1
128.011 0 1
128.127 0 1
128.243 0 1
128.359 483 21.9773
128.476 430 20.7364
128.592 385 19.6214
128.708 466 21.587
128.825 464 21.5407
128.941 458 21.4009
129.058 438 20.9284
129.174 446 21.1187
129.291 420 20.4939
129.408 433 20.8087
129.524 480 21.9089
129.641 472 21.7256
129.758 452 21.2603
129.875 464 21.5407
129.992 490 22.1359
130.108 474 21.7715
130.225 448 21.166
130.342 459 21.4243
130.459 354 18.8149
130.576 345 18.5742
130.693 325 18.0278
130.81 310 17.6068
130.928 285 16.8819
131.045 410 20.2485
131.162 402 20.0499
131.279 473 21.7486
131.396 474 21.7715
131.513 447 21.1424
131.631 488 22.0907
131.748 493 22.2036
131.865 514 22.6716
131.983 486 22.0454
132.1 505 22.4722
132.217 489 22.1133
132.335 515 22.6936
132.452 444 21.0713
132.57 532 23.0651
132.687 461 21.4709
132.804 524 22.891
132.922 493 22.2036
133.039 480 21.9089
133.157 479 21.8861
133.274 480 21.9089
133.392 478 21.8632
133.509 454 21.3073
133.627 425 20.6155
133.744 452 21.2603
133.862 447 21.1424
133.979 424 20.5913
134.097 391 19.7737
134.214 378 19.4422
134.332 348 18.6548
134.449 338 18.3848
134.567 362 19.0263
134.684 444 21.0713
134.802 456 21.3542
134.919 536 23.1517
135.037 503 22.4277
135.154 497 22.2935
135.272 506 22.4944
135.389 512 22.6274
135.507 503 22.4277
135.624 533 23.0868
135.742 515 22.6936
135.859 538 23.1948
135.977 529 23
136.094 492 22.1811
136.211 531 23.0434
136.329 549 23.4307
136.446 540 23.2379
136.564 558 23.622
136.681 573 23.9374
136.798 536 23.1517
136.915 575 23.9792
137.033 521 22.8254
137.15 527 22.9565
137.267 537 23.1733
137.384 531 23.0434
137.502 486 22.0454
137.619 448 21.166
137.736 440 20.9762
137.853 439 20.9523
137.97 414 20.347
138.087 435 20.8567
138.204 411 20.2731
138.321 443 21.0476
138.438 490 22.1359
138.555 547 23.388
138.672 552 23.4947
138.788 545 23.3452
138.905 590 24.2899
139.022 596 24.4131
139.139 591 24.3105
139.255 575 23.9792
139.372 605 24.5967
139.488 585 24.1868
139.605 635 25.1992
139.721 581 24.1039
139.838 581 24.1039
139.954 607 24.6374
140.071 599 24.4745
140.187 576 24
140.303 603 24.5561
140.419 589 24.2693
140.535 594 24.3721
140.652 570 23.8747
140.768 0 1
140.884 0 1
141 0 1
141.115 0 1
141.231 0 1
141.347 0 1
141.463 0 1
141.578 0 1
141.694 0 1
144.104 0 1
144.219 0 1
144.335 0 1
144.45 0 1
144.566 0 1
144.682 0 1
144.798 0 1
144.914 0 1
145.03 0 1
145.146 533 23.0868
145.262 543 23.3024
145.378 565 23.7697
145.494 554 23.5372
145.61 585 24.1868
145.726 551 23.4734
145.842 549 23.4307
145.959 552 23.4947
146.075 516 22.7156
146.192 488 22.0907
146.308 448 21.166
146.425 453 21.2838
146.541 461 21.4709
146.658 415 20.3715
146.774 472 21.7256
146.891 482 21.9545
147.008 492 22.1811
147.125 533 23.0868
147.241 543 23.3024
147.358 568 23.8328
147.475 601 24.5153
147.592 576 24
147.709 567 23.8118
147.826 536 23.1517
147.943 562 23.7065
148.06 617 24.8395
148.177 554 23.5372
148.294 572 23.9165
148.411 526 22.9347
148.528 500 22.3607
148.645 549 23.4307
148.762 550 23.4521
148.88 550 23.4521
148.997 520 22.8035
149.114 562 23.7065
149.231 527 22.9565
149.349 553 23.516
149.466 513 22.6495
149.583 524 22.891
149.701 533 23.0868
149.818 452 21.2603
149.935 484 22
150.053 454 21.3073
150.17 424 20.5913
150.287 440 20.9762
150.405 456 21.3542
150.522 502 22.4054
150.64 487 22.0681
150.757 482 21.9545
150.875 544 23.3238
150.992 550 23.4521
151.11 563 23.7276
151.227 586 24.2074
151.344 556 23.5797
151.462 581 24.1039
151.579 592 24.3311
151.697 557 23.6008
151.814 564 23.7487
151.932 558 23.622
152.049 556 23.5797
152.167 573 23.9374
152.284 560 23.6643
152.402 540 23.2379
152.519 551 23.4734
152.636 579 24.0624
152.754 634 25.1794
152.871 556 23.5797
152.989 546 23.3666
153.106 549 23.4307
153.223 554 23.5372
153.341 508 22.5389
153.458 432 20.7846
153.575 498 22.3159
153.693 482 21.9545
153.81 452 21.2603
153.927 483 21.9773
154.044 512 22.6274
154.162 521 22.8254
154.279 560 23.6643
154.396 577 24.0208
154.513 574 23.9583
154.63 606 24.6171
154.747 590 24.2899
154.864 600 24.4949
154.981 563 23.7276
155.098 619 24.8797
155.215 582 24.1247
155.332 561 23.6854
155.449 566 23.7908
155.566 648 25.4558
155.683 603 24.5561
155.8 615 24.7992
155.917 603 24.5561
156.033 600 24.4949
156.15 0 1
156.267 0 1
156.383 0 1
156.5 0 1
156.617 0 1
156.733 0 1
156.85 0 1
156.966 0 1
157.082 0 1
157.199 0 1
157.315 0 1
157.431 0 1
157.547 0 1
157.664 0 1
157.78 0 1
157.896 0 1
158.012 0 1
158.128 0 1
158.244 0 1
158.359 0 1
158.475 0 1
158.591 0 1
158.706 0 1
