
6.15755 0 1
6.2731 0 1
6.3887 0 1
6.50437 0 1
6.62009 0 1
6.73587 0 1
6.8517 0 1
6.96759 0 1
7.08353 0 1
7.19952 0 1
7.31557 0 1
7.43166 0 1
7.54781 0 1
7.664 0 1
7.78024 0 1
7.89653 0 1
8.01286 0 1
8.12924 0 1
8.24567 0 1
8.36213 0 1
8.47864 0 1
8.59519 0 1
8.71178 0 1
8.82841 0 1
8.94508 0 1
9.06179 0 1
9.17853 0 1
9.29531 0 1
9.41212 0 1
9.52897 0 1
9.64584 0 1
9.76276 0 1
9.8797 0 1
9.99667 0 1
10.1137 0 1
10.2307 0 1
10.3478 0 1
10.4648 0 1
10.5819 0 1
10.6991 0 1
10.8162 0 1
10.9334 0 1
11.0506 0 1
11.1678 0 1
11.285 0 1
11.4023 0 1
11.5196 0 1
11.6369 0 1
11.7542 0 1
11.8715 0 1
11.9888 0 1
12.1062 0 1
12.2235 0 1
12.3409 0 1
12.4582 0 1
12.5756 0 1
12.693 0 1
12.8104 0 1
12.9278 0 1
13.0452 0 1
13.1626 0 1
13.28 0 1
13.3974 0 1
13.5149 0 1
13.6323 0 1
13.7497 0 1
13.8671 0 1
13.9845 0 1
14.1019 0 1
14.2193 0 1
14.3367 0 1
14.4541 0 1
14.5714 0 1
14.6888 0 1
14.8062 0 1
14.9235 0 1
15.0408 881 29.6816
15.1581 889 29.8161
15.2755 910 30.1662
15.3927 921 30.348
15.51 898 29.9666
15.6273 855 29.2404
15.7445 808 28.4253
15.8617 856 29.2575
15.9789 844 29.0517
16.0961 898 29.9666
16.2132 966 31.0805
16.3304 977 31.257
16.4475 1042 32.28
16.5646 976 31.241
16.6816 1020 31.9374
16.7986 1019 31.9218
16.9156 991 31.4802
17.0326 1005 31.7017
17.1496 957 30.9354
17.2665 978 31.273
17.3833 945 30.7409
17.5002 1010 31.7805
17.617 1026 32.0312
17.7338 1047 32.3574
17.8505 1048 32.3728
17.9672 1077 32.8177
18.0839 1121 33.4813
18.2005 1102 33.1964
18.3171 1177 34.3074
18.4337 1187 34.4529
18.5502 1169 34.1906
18.6666 1213 34.8281
18.7831 1203 34.6843
18.8994 1209 34.7707
19.0158 1138 33.7343
19.1321 1110 33.3167
19.2483 1052 32.4345
19.3645 1123 33.5112
19.4806 1089 33
19.5967 1093 33.0606
19.7128 1084 32.9242
19.8288 1170 34.2053
19.9447 1067 32.665
20.0606 0 1
20.1764 0 1
20.2922 0 1
20.4079 0 1
20.5236 0 1
20.6392 0 1
20.7548 0 1
20.8702 0 1
23.3078 0 1
23.4233 0 1
23.539 0 1
23.6547 0 1
23.7704 0 1
23.8862 0 1
24.0021 0 1
24.118 0 1
24.234 0 1
24.35 0 1
24.4661 1124 33.5261
24.5822 1175 34.2783
24.6984 1156 34
24.8146 1193 34.5398
24.9309 1243 35.2562
25.0472 1280 35.7771
25.1636 1279 35.7631
25.28 1308 36.1663
25.3965 1260 35.4965
25.513 1216 34.8712
25.6296 1210 34.7851
25.7462 1205 34.7131
25.8628 1246 35.2987
25.9795 1193 34.5398
26.0962 1258 35.4683
26.213 1286 35.8608
26.3298 1258 35.4683
26.4466 1232 35.0999
26.5635 1353 36.7831
26.6804 1419 37.6696
26.7973 1367 36.973
26.9143 1390 37.2827
27.0313 1461 38.223
27.1483 1428 37.7889
27.2653 1498 38.704
27.3824 1463 38.2492
27.4996 1440 37.9473
27.6167 1455 38.1445
27.7339 1372 37.0405
27.8511 1272 35.6651
27.9683 1320 36.3318
28.0855 1229 35.0571
28.2028 1218 34.8999
28.3201 1233 35.1141
28.4374 1222 34.9571
28.5547 1315 36.2629
28.6721 1327 36.428
28.7894 1388 37.2559
28.9068 1384 37.2022
29.0242 1319 36.318
29.1416 1320 36.3318
29.259 1242 35.242
29.3764 1305 36.1248
29.4939 1235 35.1426
29.6113 1108 33.2866
29.7288 1269 35.623
29.8463 1315 36.2629
29.9638 1305 36.1248
30.0812 1329 36.4555
30.1987 1298 36.0278
30.3162 1369 37
30.4337 1454 38.1314
30.5512 1440 37.9473
30.6687 1495 38.6652
30.7862 1506 38.8072
30.9037 1477 38.4318
31.0212 1507 38.8201
31.1387 1418 37.6563
31.2562 1432 37.8418
31.3737 1347 36.7015
31.4912 1409 37.5366
31.6087 1287 35.8748
31.7262 1278 35.7491
31.8436 1302 36.0832
31.9611 1332 36.4966
32.0785 1336 36.5513
32.1959 1414 37.6032
32.3134 1360 36.8782
32.4308 1479 38.4578
32.5482 1380 37.1484
32.6655 1400 37.4166
32.7829 1314 36.2491
32.9002 1258 35.4683
33.0176 1304 36.1109
33.1349 1259 35.4824
33.2522 1216 34.8712
33.3694 1181 34.3657
33.4867 1274 35.6931
33.6039 1356 36.8239
33.7211 1389 37.2693
33.8383 1392 37.3095
33.9554 1484 38.5227
34.0725 1521 39
34.1896 1531 39.128
34.3067 1571 39.6358
34.4237 1470 38.3406
34.5407 1555 39.4335
34.6577 1591 39.8873
34.7746 1510 38.8587
34.8915 1463 38.2492
35.0084 1378 37.1214
35.1252 1431 37.8286
35.242 1353 36.7831
35.3587 1332 36.4966
35.4755 1344 36.6606
35.5921 1367 36.973
35.7088 1371 37.027
35.8254 1403 37.4566
35.9419 1460 38.2099
36.0584 1480 38.4708
36.1749 1453 38.1182
36.2913 1414 37.6032
36.4077 1371 37.027
36.524 1342 36.6333
36.6403 1295 35.9861
36.7565 1273 35.6791
36.8727 1260 35.4965
36.9889 1242 35.242
37.1049 1255 35.426
37.221 0 1
37.3369 0 1
37.4529 0 1
37.5687 0 1
37.6845 0 1
37.8003 0 1
37.916 0 1
38.0316 0 1
38.1472 0 1
40.5851 0 1
40.7008 0 1
40.8164 0 1
40.9322 0 1
41.048 0 1
41.1639 0 1
41.2798 0 1
41.3958 0 1
41.5118 0 1
41.6279 0 1
41.744 1076 32.8024
41.8602 1117 33.4215
41.9765 1078 32.8329
42.0928 1122 33.4963
42.2091 1161 34.0735
42.3255 1164 34.1174
42.4419 1179 34.3366
42.5584 1217 34.8855
42.675 1275 35.7071
42.7915 1362 36.9053
42.9081 1356 36.8239
43.0248 1404 37.47
43.1415 1334 36.524
43.2582 1412 37.5766
43.375 1429 37.8021
43.4918 1454 38.1314
43.6087 1335 36.5377
43.7256 1299 36.0416
43.8425 1346 36.6879
43.9595 1329 36.4555
44.0765 1246 35.2987
44.1935 1118 33.4365
44.3106 1127 33.5708
44.4277 1173 34.2491
44.5448 1202 34.6699
44.6619 1203 34.6843
44.7791 1234 35.1283
44.8963 1254 35.4119
45.0136 1203 34.6843
45.1308 1107 33.2716
45.2481 1048 32.3728
45.3654 1071 32.7261
45.4827 1000 31.6228
45.6001 957 30.9354
45.7174 984 31.3688
45.8348 1033 32.1403
45.9522 1018 31.9061
46.0697 1115 33.3916
46.1871 1065 32.6343
46.3046 1154 33.9706
46.422 1167 34.1614
46.5395 1164 34.1174
46.657 1145 33.8378
46.7745 1239 35.1994
46.892 1199 34.6266
47.0096 1146 33.8526
47.1271 1151 33.9264
47.2446 1140 33.7639
47.3622 1074 32.7719
47.4797 1082 32.8938
47.5973 1086 32.9545
47.7149 990 31.4643
47.8324 993 31.5119
47.95 1032 32.1248
48.0675 1002 31.6544
48.1851 1015 31.8591
48.3027 1012 31.8119
48.4202 1051 32.4191
48.5378 977 31.257
48.6554 985 31.3847
48.7729 918 30.2985
48.8904 909 30.1496
49.008 814 28.5307
49.1255 795 28.1957
49.243 838 28.9482
49.3605 831 28.8271
49.478 943 30.7083
49.5955 921 30.348
49.713 988 31.4325
49.8304 1039 32.2335
49.9479 1003 31.6702
50.0653 1069 32.6956
50.1827 1148 33.8821
50.3001 1136 33.7046
50.4175 1069 32.6956
50.5348 1177 34.3074
50.6521 1216 34.8712
50.7694 1116 33.4066
50.8867 1092 33.0454
51.004 1155 33.9853
51.1212 1146 33.8526
51.2384 1092 33.0454
51.3556 1045 32.3265
51.4727 1085 32.9393
51.5899 1115 33.3916
51.707 1267 35.5949
51.824 1205 34.7131
51.9411 1290 35.9166
52.0581 1281 35.7911
52.175 1257 35.4542
52.2919 1257 35.4542
52.4088 1125 33.541
52.5257 1122 33.4963
52.6425 1138 33.7343
52.7593 1079 32.8481
52.876 1219 34.9142
52.9927 1226 35.0143
53.1094 1289 35.9026
53.226 1345 36.6742
53.3426 1473 38.3797
53.4591 1575 39.6863
53.5756 1617 40.2119
53.692 1648 40.5956
53.8084 1673 40.9023
53.9248 1664 40.7922
54.0411 1688 41.0853
54.1573 1796 42.3792
54.2735 0 1
54.3896 0 1
54.5057 0 1
54.6217 0 1
54.7377 0 1
54.8537 0 1
54.9695 0 1
55.0853 0 1
55.2011 0 1
55.3168 0 1
55.4324 0 1
57.824 0 1
57.9396 0 1
58.0553 0 1
58.1711 0 1
58.2869 0 1
58.4028 0 1
58.5187 0 1
58.6347 0 1
58.7508 0 1
58.8669 0 1
58.983 1949 44.1475
59.0992 2045 45.2217
59.2155 2059 45.3762
59.3318 2109 45.9239
59.4482 2102 45.8476
59.5646 2023 44.9778
59.681 1992 44.6318
59.7975 2003 44.7549
59.9141 1933 43.9659
60.0306 2008 44.8107
60.1473 1945 44.1022
60.2639 1962 44.2945
60.3807 1904 43.6348
60.4974 1999 44.7102
60.6142 1834 42.8252
60.731 1890 43.4741
60.8479 1827 42.7434
60.9648 1736 41.6653
61.0818 1648 40.5956
61.1987 1575 39.6863
61.3158 1480 38.4708
61.4328 1483 38.5097
61.5499 1553 39.4081
61.667 1632 40.398
61.7841 1710 41.3521
61.9013 1728 41.5692
62.0185 1853 43.0465
62.1357 1965 44.3283
62.253 1964 44.317
62.3702 2088 45.6946
62.4875 2037 45.1331
62.6049 2055 45.3321
62.7222 2053 45.31
62.8396 2051 45.288
62.9569 1975 44.441
63.0743 1950 44.1588
63.1918 2012 44.8553
63.3092 1891 43.4856
63.4267 1883 43.3935
63.5441 1847 42.9767
63.6616 1772 42.0951
63.7791 1811 42.5558
63.8966 1784 42.2374
64.0142 1873 43.2782
64.1317 1889 43.4626
64.2492 1764 42
64.3668 1717 41.4367
64.4843 1602 40.025
64.6019 1571 39.6358
64.7195 1475 38.4057
64.837 1438 37.921
64.9546 1444 38
65.0722 1424 37.7359
65.1898 1452 38.1051
65.3074 1684 41.0366
65.4249 1721 41.4849
65.5425 1816 42.6146
65.6601 1921 43.8292
65.7777 1977 44.4635
65.8952 2051 45.288
66.0128 2038 45.1442
66.1304 1983 44.5309
66.2479 2087 45.6837
66.3655 2074 45.5412
66.483 2060 45.3872
66.6005 2045 45.2217
66.718 2068 45.4753
66.8355 2041 45.1774
66.953 2000 44.7214
67.0705 1912 43.7264
67.1879 1941 44.0568
67.3054 1953 44.1928
67.4228 1903 43.6234
67.5402 1974 44.4297
67.6576 1964 44.317
67.7749 2015 44.8888
67.8923 1965 44.3283
68.0096 1830 42.7785
68.1269 1807 42.5088
68.2442 1649 40.6079
68.3614 1552 39.3954
68.4787 1510 38.8587
68.5958 1510 38.8587
68.713 1552 39.3954
68.8302 1643 40.5339
68.9473 1720 41.4729
69.0643 1894 43.5201
69.1814 2035 45.111
69.2984 2201 46.9148
69.4154 2267 47.613
69.5323 2292 47.8748
69.6492 2421 49.2037
69.7661 2396 48.949
69.8829 2440 49.3964
69.9997 2523 50.2295
70.1165 2430 49.295
70.2332 2383 48.816
70.3499 2456 49.558
70.4665 2451 49.5076
70.5831 2365 48.6313
70.6996 2422 49.2138
70.8161 2379 48.775
70.9326 2375 48.734
71.049 2302 47.9792
71.1653 2393 48.9183
71.2817 2288 47.833
71.3979 2347 48.4458
71.5141 2219 47.1063
71.6303 2125 46.0977
71.7464 1920 43.8178
71.8624 0 1
71.9784 0 1
72.0944 0 1
72.2102 0 1
72.3261 0 1
72.4418 0 1
72.5575 0 1
72.6732 0 1
75.1054 0 1
75.2209 0 1
75.3365 0 1
75.4521 0 1
75.5678 0 1
75.6835 0 1
75.7993 0 1
75.9151 0 1
76.031 0 1
76.147 2342 48.3942
76.263 2554 50.5371
76.3791 2505 50.05
76.4952 2679 51.7591
76.6113 2658 51.5558
76.7276 2764 52.5738
76.8438 2761 52.5452
76.9601 2526 50.2593
77.0765 2420 49.1935
77.1929 2122 46.0652
77.3093 2036 45.1221
77.4258 1864 43.1741
77.5423 1928 43.909
77.6589 1936 44
77.7755 2045 45.2217
77.8921 2176 46.6476
78.0088 2361 48.5901
78.1256 2445 49.4469
78.2423 2783 52.7541
78.3591 2839 53.2823
78.4759 3067 55.3805
78.5928 3002 54.7905
78.7097 3019 54.9454
78.8266 2923 54.0648
78.9436 3109 55.7584
79.0606 3080 55.4977
79.1776 2989 54.6717
79.2946 2965 54.4518
79.4117 2910 53.9444
79.5288 2905 53.8981
79.6459 2817 53.0754
79.7631 2778 52.7067
79.8802 2768 52.6118
79.9974 2721 52.1632
80.1147 2770 52.6308
80.2319 2800 52.915
80.3491 2855 53.4322
80.4664 2917 54.0093
80.5837 2845 53.3385
80.701 2636 51.342
80.8183 2259 47.5289
80.9357 2114 45.9783
81.053 2014 44.8776
81.1704 1852 43.0349
81.2877 1925 43.8748
81.4051 1834 42.8252
81.5225 2048 45.2548
81.6399 2338 48.3529
81.7573 2607 51.0588
81.8747 2647 51.449
81.9922 2907 53.9166
82.1096 2925 54.0833
82.227 2969 54.4885
82.3444 2954 54.3507
82.4619 2999 54.7631
82.5793 3053 55.254
82.6967 2939 54.2125
82.8142 2960 54.4059
82.9316 2908 53.9259
83.049 2792 52.8394
83.1664 2790 52.8205
83.2838 2802 52.9339
83.4012 2729 52.2398
83.5186 2708 52.0384
83.636 2601 51
83.7534 2771 52.6403
83.8708 2760 52.5357
83.9881 2761 52.5452
84.1055 2741 52.3546
84.2228 2679 51.7591
84.3401 2617 51.1566
84.4575 2296 47.9166
84.5747 2124 46.0869
84.692 1874 43.2897
84.8093 1849 43
84.9265 1828 42.7551
85.0437 1979 44.486
85.1609 2207 46.9787
85.2781 2337 48.3425
85.3952 2645 51.4296
85.5123 2876 53.6284
85.6294 2940 54.2218
85.7465 3094 55.6237
85.8636 3199 56.5597
85.9806 3363 57.9914
86.0976 3421 58.4893
86.2145 3506 59.2115
86.3315 3523 59.3549
86.4484 3232 56.8507
86.5652 3548 59.5651
86.682 3458 58.8048
86.7988 3522 59.3464
86.9156 3501 59.1692
87.0323 3531 59.4222
87.149 3493 59.1016
87.2657 3492 59.0931
87.3823 3552 59.5987
87.4988 3488 59.0593
87.6154 3732 61.0901
87.7318 3667 60.5558
87.8483 3498 59.1439
87.9647 3213 56.6833
88.081 2997 54.7449
88.1973 2722 52.1728
88.3136 2487 49.8698
88.4298 2419 49.1833
88.546 2593 50.9215
88.6621 2680 51.7687
88.7781 3085 55.5428
88.8942 0 1
89.0101 0 1
89.126 0 1
89.2419 0 1
89.3577 0 1
89.4734 0 1
89.5891 0 1
89.7047 0 1
89.8203 0 1
89.9358 0 1
92.3269 0 1
92.4424 0 1
92.558 0 1
92.6736 0 1
92.7893 0 1
92.905 0 1
93.0208 0 1
93.1366 0 1
93.2525 0 1
93.3685 0 1
93.4845 0 1
93.6005 2829 53.1883
93.7167 2681 51.7784
93.8328 2848 53.3667
93.949 2766 52.5928
94.0653 3019 54.9454
94.1816 3270 57.1839
94.2979 3652 60.4318
94.4143 3711 60.918
94.5307 4085 63.914
94.6472 4364 66.0606
94.7637 4433 66.5808
94.8803 4461 66.7907
94.9969 4636 68.0882
95.1135 4772 69.0797
95.2302 4676 68.3813
95.3469 4705 68.593
95.4637 4605 67.8602
95.5805 4608 67.8823
95.6973 4510 67.1565
95.8142 4532 67.3201
95.9311 4511 67.164
96.048 4510 67.1565
96.1649 4321 65.7343
96.2819 4328 65.7875
96.3989 4388 66.242
96.516 4358 66.0151
96.633 4509 67.1491
96.7501 4429 66.5507
96.8673 4390 66.2571
96.9844 4049 63.6318
97.1016 3833 61.9112
97.2188 3473 58.9322
97.336 3201 56.5774
97.4532 2946 54.2771
97.5704 2899 53.8424
97.6877 2815 53.0566
97.805 3092 55.6058
97.9223 3424 58.515
98.0396 3781 61.4898
98.1569 4059 63.7103
98.2743 4292 65.5134
98.3916 4588 67.7348
98.509 4563 67.55
98.6264 4848 69.6276
98.7438 4631 68.0515
98.8612 4837 69.5485
98.9786 4817 69.4046
99.096 4799 69.2748
99.2134 4680 68.4105
99.3308 4762 69.0072
99.4482 4865 69.7496
99.5656 4693 68.5055
99.6831 4657 68.2422
99.8005 4549 67.4463
99.9179 4469 66.8506
100.035 4454 66.7383
100.153 4676 68.3813
100.27 4798 69.2676
100.388 4615 67.9338
100.505 4413 66.4304
100.622 4315 65.6887
100.74 3832 61.9032
100.857 3544 59.5315
100.975 3193 56.5066
101.092 3043 55.1634
101.209 2989 54.6717
101.327 3031 55.0545
101.444 3331 57.7148
101.561 3653 60.4401
101.679 3987 63.1427
101.796 4328 65.7875
101.913 4628 68.0294
102.03 4739 68.8404
102.148 4836 69.5414
102.265 4744 68.8767
102.382 5101 71.4213
102.499 4990 70.6399
102.616 4910 70.0714
102.733 4837 69.5485
102.851 4993 70.6612
102.968 5042 71.007
103.085 4927 70.1926
103.202 4893 69.95
103.319 4798 69.2676
103.436 4709 68.6222
103.552 4813 69.3758
103.669 4700 68.5565
103.786 4926 70.1855
103.903 5020 70.852
104.02 4752 68.9348
104.137 4353 65.9773
104.253 4365 66.0681
104.37 3866 62.1772
104.487 3513 59.2706
104.603 3304 57.4804
104.72 3237 56.8946
104.836 3221 56.7539
104.953 3544 59.5315
105.069 3884 62.3217
105.186 4293 65.521
105.302 4640 68.1175
105.418 4970 70.4982
105.535 5015 70.8167
105.651 5186 72.0139
105.767 5333 73.0274
105.883 5307 72.8492
105.999 5286 72.7049
106.115 0 1
106.231 0 1
106.347 0 1
106.463 0 1
106.579 0 1
106.694 0 1
106.81 0 1
106.926 0 1
107.041 0 1
107.157 0 1
109.576 0 1
109.692 0 1
109.807 0 1
109.923 0 1
110.039 0 1
110.155 0 1
110.27 0 1
110.386 0 1
110.502 0 1
110.618 4687 68.4617
110.735 4808 69.3397
110.851 4807 69.3325
110.967 4868 69.7711
111.083 4769 69.0579
111.199 4838 69.5557
111.316 4810 69.3542
111.432 4876 69.8284
111.549 4878 69.8427
111.665 4741 68.8549
111.782 4607 67.8749
111.898 4637 68.0955
112.015 4618 67.9559
112.132 4612 67.9117
112.248 4634 68.0735
112.365 4738 68.8331
112.482 4476 66.9029
112.599 4447 66.6858
112.716 4090 63.9531
112.832 3738 61.1392
112.949 3353 57.9051
113.066 3120 55.857
113.183 2938 54.2033
113.3 3158 56.1961
113.417 3114 55.8032
113.534 3486 59.0424
113.652 3696 60.7947
113.769 4000 63.2456
113.886 4325 65.7647
114.003 4248 65.1767
114.12 4470 66.8581
114.238 4609 67.8896
114.355 4456 66.7533
114.472 4576 67.6461
114.589 4474 66.888
114.707 4510 67.1565
114.824 4267 65.3223
114.942 4450 66.7083
115.059 4481 66.9403
115.176 4482 66.9477
115.294 4381 66.1891
115.411 4277 65.3988
115.529 4296 65.5439
115.646 4377 66.1589
115.764 4460 66.7832
115.881 4474 66.888
115.999 4241 65.123
116.116 4303 65.5973
116.234 4050 63.6396
116.351 3843 61.9919
116.469 3627 60.2246
116.586 3248 56.9912
116.704 3183 56.4181
116.821 2991 54.69
116.939 2975 54.5436
117.056 3114 55.8032
117.174 3353 57.9051
117.291 3745 61.1964
117.409 3967 62.9841
117.526 4047 63.616
117.644 4318 65.7115
117.761 4306 65.6201
117.879 4290 65.4981
117.996 4471 66.8655
118.114 4374 66.1362
118.231 4363 66.053
118.349 4433 66.5808
118.466 4226 65.0077
118.584 4324 65.7571
118.701 4484 66.9627
118.819 4297 65.5515
118.936 4276 65.3911
119.053 4173 64.5988
119.171 4091 63.9609
119.288 4126 64.2339
119.405 4298 65.5591
119.523 4273 65.3682
119.64 4187 64.707
119.757 4129 64.2573
119.875 3940 62.7694
119.992 3685 60.7042
120.109 3502 59.1777
120.226 3270 57.1839
120.343 3176 56.356
120.46 3069 55.3986
120.578 2888 53.7401
120.695 3011 54.8726
120.812 3192 56.4978
120.929 3299 57.4369
121.046 3612 60.0999
121.163 3855 62.0886
121.279 3958 62.9126
121.396 4044 63.5925
121.513 4081 63.8827
121.63 4302 65.5896
121.747 4196 64.7765
121.863 4191 64.7379
121.98 4105 64.0703
122.097 4138 64.3273
122.213 4091 63.9609
122.33 4170 64.5755
122.446 4070 63.7966
122.563 3997 63.2218
122.679 3889 62.3618
122.795 3906 62.498
122.912 3806 61.6928
123.028 3913 62.554
123.144 3948 62.8331
123.26 3962 62.9444
123.377 0 1
123.493 0 1
123.609 0 1
123.725 0 1
123.84 0 1
123.956 0 1
124.072 0 1
124.188 0 1
124.303 0 1
124.419 0 1
126.852 0 1
126.968 0 1
127.083 0 1
127.199 0 1
127.315 0 1
127.431 0 1
127.547 0 1
127.663 0 1
127.779 0 1
127.895 0 1
128.011 0 1
128.127 0 1
128.243 0 1
128.359 4249 65.1844
128.476 4074 63.8279
128.592 4143 64.3661
128.708 4099 64.0234
128.825 3854 62.0806
128.941 3740 61.1555
129.058 3460 58.8218
129.174 3291 57.3672
129.291 3240 56.921
129.408 3260 57.0964
129.524 3253 57.0351
129.641 3326 57.6715
129.758 3560 59.6657
129.875 3640 60.3324
129.992 3869 62.2013
130.108 3916 62.578
130.225 4024 63.435
130.342 4102 64.0469
130.459 4046 63.6082
130.576 4356 66
130.693 4192 64.7457
130.81 4092 63.9687
130.928 3992 63.1823
131.045 4143 64.3661
131.162 4200 64.8074
131.279 4258 65.2534
131.396 4109 64.1015
131.513 4125 64.2262
131.631 4004 63.2772
131.748 4060 63.7181
131.865 4278 65.4064
131.983 4111 64.1171
132.1 4165 64.5368
132.217 4031 63.4902
132.335 3985 63.1269
132.452 3858 62.1128
132.57 3571 59.7578
132.687 3323 57.6455
132.804 3344 57.8273
132.922 3055 55.2721
133.039 3196 56.5332
133.157 3201 56.5774
133.274 3327 57.6802
133.392 3482 59.0085
133.509 3674 60.6135
133.627 3826 61.8547
133.744 3805 61.6847
133.862 3987 63.1427
133.979 3931 62.6977
134.097 3993 63.1902
134.214 3994 63.1981
134.332 3981 63.0952
134.449 3890 62.3699
134.567 3828 61.8708
134.684 3857 62.1048
134.802 3966 62.9762
134.919 4079 63.867
135.037 4005 63.2851
135.154 3953 62.8729
135.272 3908 62.514
135.389 3793 61.5873
135.507 3939 62.7615
135.624 3961 62.9365
135.742 4068 63.7809
135.859 3907 62.506
135.977 3823 61.8304
136.094 3523 59.3549
136.211 3494 59.1101
136.329 3250 57.0088
136.446 3177 56.3649
136.564 3023 54.9818
136.681 3103 55.7046
136.798 3195 56.5243
136.915 3272 57.2014
137.033 3186 56.4447
137.15 3470 58.9067
137.267 3662 60.5145
137.384 3720 60.9918
137.502 3716 60.959
137.619 3791 61.5711
137.736 3862 62.145
137.853 3654 60.4483
137.97 3742 61.1719
138.087 3609 60.075
138.204 3616 60.1332
138.321 3776 61.4492
138.438 3737 61.131
138.555 3843 61.9919
138.672 3735 61.1146
138.788 3769 61.3922
138.905 3779 61.4736
139.022 3749 61.2291
139.139 3844 62
139.255 3794 61.5955
139.372 3837 61.9435
139.488 3870 62.2093
139.605 3721 61
139.721 3504 59.1946
139.838 3402 58.3267
139.954 3325 57.6628
140.071 3132 55.9643
140.187 3152 56.1427
140.303 3102 55.6956
140.419 3125 55.9017
140.535 3100 55.6776
140.652 3083 55.5248
140.768 0 1
140.884 0 1
141 0 1
141.115 0 1
141.231 0 1
141.347 0 1
141.463 0 1
141.578 0 1
141.694 0 1
144.104 0 1
144.219 0 1
144.335 0 1
144.45 0 1
144.566 0 1
144.682 0 1
144.798 0 1
144.914 0 1
145.03 0 1
145.146 2114 45.9783
145.262 2464 49.6387
145.378 2453 49.5278
145.494 2496 49.96
145.61 2565 50.6458
145.726 2508 50.0799
145.842 2642 51.4004
145.959 2759 52.5262
146.075 2799 52.9056
146.192 2670 51.672
146.308 2733 52.2781
146.425 2901 53.8609
146.541 2831 53.2071
146.658 2605 51.0392
146.774 2674 51.7107
146.891 2705 52.0096
147.008 2748 52.4214
147.125 2759 52.5262
147.241 2834 53.2353
147.358 2938 54.2033
147.475 2908 53.9259
147.592 2921 54.0463
147.709 2708 52.0384
147.826 2913 53.9722
147.943 2998 54.754
148.06 3066 55.3715
148.177 2931 54.1387
148.294 2951 54.3231
148.411 2776 52.6878
148.528 2728 52.2303
148.645 2715 52.1057
148.762 2612 51.1077
148.88 2576 50.7543
148.997 2462 49.6185
149.114 2727 52.2207
149.231 2472 49.7192
149.349 2569 50.6853
149.466 2708 52.0384
149.583 2719 52.144
149.701 2584 50.8331
149.818 2713 52.0865
149.935 2858 53.4603
150.053 2799 52.9056
150.17 2959 54.3967
150.287 2823 53.1319
150.405 2723 52.1824
150.522 2831 53.2071
150.64 2710 52.0577
150.757 2803 52.9434
150.875 2850 53.3854
150.992 2921 54.0463
151.11 3002 54.7905
151.227 2759 52.5262
151.344 2945 54.2679
151.462 2918 54.0185
151.579 3036 55.0999
151.697 2983 54.6168
151.814 2866 53.535
151.932 2916 54
152.049 2912 53.963
152.167 2804 52.9528
152.284 2745 52.3927
152.402 2728 52.2303
152.519 2619 51.1762
152.636 2689 51.8556
152.754 2587 50.8626
152.871 2657 51.5461
152.989 2611 51.0979
153.106 2676 51.7301
153.223 2658 51.5558
153.341 2753 52.469
153.458 2807 52.9811
153.575 2865 53.5257
153.693 2878 53.647
153.81 2854 53.4228
153.927 2994 54.7175
154.044 2877 53.6377
154.162 2635 51.3323
154.279 2788 52.8015
154.396 2832 53.2165
154.513 2954 54.3507
154.63 3016 54.9181
154.747 3082 55.5158
154.864 3049 55.2178
154.981 3013 54.8908
155.098 3055 55.2721
155.215 3116 55.8211
155.332 3065 55.3624
155.449 2972 54.5161
155.566 2941 54.231
155.683 2891 53.768
155.8 2868 53.5537
155.917 2836 53.2541
156.033 2865 53.5257
156.15 0 1
156.267 0 1
156.383 0 1
156.5 0 1
156.617 0 1
156.733 0 1
156.85 0 1
156.966 0 1
157.082 0 1
157.199 0 1
157.315 0 1
157.431 0 1
157.547 0 1
157.664 0 1
157.78 0 1
157.896 0 1
158.012 0 1
158.128 0 1
158.244 0 1
158.359 0 1
158.475 0 1
158.591 0 1
158.706 0 1
