
6.15755 0 1
6.2731 0 1
6.3887 0 1
6.50437 0 1
6.62009 0 1
6.73587 0 1
6.8517 0 1
6.96759 0 1
7.08353 0 1
7.19952 0 1
7.31557 0 1
7.43166 0 1
7.54781 0 1
7.664 0 1
7.78024 0 1
7.89653 0 1
8.01286 0 1
8.12924 0 1
8.24567 0 1
8.36213 0 1
8.47864 0 1
8.59519 0 1
8.71178 0 1
8.82841 0 1
8.94508 0 1
9.06179 0 1
9.17853 0 1
9.29531 0 1
9.41212 0 1
9.52897 0 1
9.64584 0 1
9.76276 0 1
9.8797 0 1
9.99667 0 1
10.1137 0 1
10.2307 0 1
10.3478 0 1
10.4648 0 1
10.5819 0 1
10.6991 0 1
10.8162 0 1
10.9334 0 1
11.0506 0 1
11.1678 0 1
11.285 0 1
11.4023 0 1
11.5196 0 1
11.6369 0 1
11.7542 0 1
11.8715 0 1
11.9888 0 1
12.1062 0 1
12.2235 0 1
12.3409 0 1
12.4582 0 1
12.5756 0 1
12.693 0 1
12.8104 0 1
12.9278 0 1
13.0452 0 1
13.1626 0 1
13.28 0 1
13.3974 0 1
13.5149 0 1
13.6323 0 1
13.7497 0 1
13.8671 0 1
13.9845 0 1
14.1019 0 1
14.2193 0 1
14.3367 0 1
14.4541 0 1
14.5714 0 1
14.6888 0 1
14.8062 0 1
14.9235 0 1
15.0408 0 0
15.1581 0 0
15.2755 0 0
15.3927 0 0
15.51 0 0
15.6273 0 0
15.7445 0 0
15.8617 0 0
15.9789 0 0
16.0961 0 0
16.2132 0 0
16.3304 0 0
16.4475 0 0
16.5646 0 0
16.6816 0 0
16.7986 0 0
16.9156 0 0
17.0326 0 0
17.1496 0 0
17.2665 0 0
17.3833 0 0
17.5002 0 0
17.617 0 0
17.7338 0 0
17.8505 0 0
17.9672 0 0
18.0839 0 0
18.2005 0 0
18.3171 0 0
18.4337 0 0
18.5502 0 0
18.6666 0 0
18.7831 0 0
18.8994 0 0
19.0158 0 0
19.1321 0 0
19.2483 0 0
19.3645 0 0
19.4806 0 0
19.5967 0 0
19.7128 0 0
19.8288 0 0
19.9447 0 0
20.0606 0 1
20.1764 0 1
20.2922 0 1
20.4079 0 1
20.5236 0 1
20.6392 0 1
20.7548 0 1
20.8702 0 1
23.3078 0 1
23.4233 0 1
23.539 0 1
23.6547 0 1
23.7704 0 1
23.8862 0 1
24.0021 0 1
24.118 0 1
24.234 0 1
24.35 0 1
24.4661 3294 57.3934
24.5822 3206 56.6216
24.6984 3217 56.7186
24.8146 3171 56.3116
24.9309 3247 56.9825
25.0472 3254 57.0438
25.1636 3154 56.1605
25.28 3196 56.5332
25.3965 3306 57.4978
25.513 3398 58.2924
25.6296 3435 58.6089
25.7462 3628 60.2329
25.8628 3700 60.8276
25.9795 3743 61.1801
26.0962 3803 61.6685
26.213 3762 61.3351
26.3298 3900 62.45
26.4466 3742 61.1719
26.5635 3883 62.3137
26.6804 3718 60.9754
26.7973 3583 59.8582
26.9143 3557 59.6406
27.0313 3482 59.0085
27.1483 3592 59.9333
27.2653 3692 60.7618
27.3824 3752 61.2536
27.4996 3770 61.4003
27.6167 3671 60.5888
27.7339 3657 60.4731
27.8511 3510 59.2453
27.9683 3497 59.1354
28.0855 3442 58.6686
28.2028 3330 57.7062
28.3201 3329 57.6975
28.4374 3246 56.9737
28.5547 3202 56.5862
28.6721 3125 55.9017
28.7894 3100 55.6776
28.9068 3115 55.8122
29.0242 3194 56.5155
29.1416 3292 57.376
29.259 3497 59.1354
29.3764 3527 59.3886
29.4939 3511 59.2537
29.6113 3579 59.8247
29.7288 3506 59.2115
29.8463 3543 59.5231
29.9638 3678 60.6465
30.0812 3643 60.3573
30.1987 3460 58.8218
30.3162 3457 58.7963
30.4337 3300 57.4456
30.5512 3411 58.4038
30.6687 3476 58.9576
30.7862 3503 59.1861
30.9037 3592 59.9333
31.0212 3665 60.5392
31.1387 3589 59.9083
31.2562 3530 59.4138
31.3737 3483 59.0169
31.4912 3345 57.836
31.6087 3388 58.2065
31.7262 3346 57.8446
31.8436 3299 57.4369
31.9611 3330 57.7062
32.0785 3216 56.7098
32.1959 3188 56.4624
32.3134 3071 55.4166
32.4308 3081 55.5068
32.5482 3112 55.7853
32.6655 3180 56.3915
32.7829 3300 57.4456
32.9002 3286 57.3236
33.0176 3435 58.6089
33.1349 3432 58.5833
33.2522 3657 60.4731
33.3694 3515 59.2874
33.4867 3595 59.9583
33.6039 3579 59.8247
33.7211 3483 59.0169
33.8383 3456 58.7878
33.9554 3419 58.4722
34.0725 3224 56.7803
34.1896 3252 57.0263
34.3067 3382 58.155
34.4237 3385 58.1808
34.5407 3515 59.2874
34.6577 3600 60
34.7746 3566 59.716
34.8915 3527 59.3886
35.0084 3495 59.1185
35.1252 3527 59.3886
35.242 3399 58.3009
35.3587 3459 58.8133
35.4755 3405 58.3524
35.5921 3311 57.5413
35.7088 3216 56.7098
35.8254 3114 55.8032
35.9419 3015 54.909
36.0584 2967 54.4702
36.1749 3002 54.7905
36.2913 3053 55.254
36.4077 3131 55.9553
36.524 3171 56.3116
36.6403 3353 57.9051
36.7565 3370 58.0517
36.8727 3424 58.515
36.9889 3569 59.7411
37.1049 3500 59.1608
37.221 0 1
37.3369 0 1
37.4529 0 1
37.5687 0 1
37.6845 0 1
37.8003 0 1
37.916 0 1
38.0316 0 1
38.1472 0 1
40.5851 0 1
40.7008 0 1
40.8164 0 1
40.9322 0 1
41.048 0 1
41.1639 0 1
41.2798 0 1
41.3958 0 1
41.5118 0 1
41.6279 0 1
41.744 2592 50.9117
41.8602 2725 52.2015
41.9765 2790 52.8205
42.0928 2918 54.0185
42.2091 3001 54.7814
42.3255 2959 54.3967
42.4419 2959 54.3967
42.5584 2945 54.2679
42.675 2875 53.619
42.7915 2657 51.5461
42.9081 2523 50.2295
43.0248 2740 52.345
43.1415 2776 52.6878
43.2582 2958 54.3875
43.375 2908 53.9259
43.4918 2998 54.754
43.6087 3036 55.0999
43.7256 2904 53.8888
43.8425 2754 52.4786
43.9595 2846 53.3479
44.0765 2684 51.8073
44.1935 2647 51.449
44.3106 2557 50.5668
44.4277 2483 49.8297
44.5448 2466 49.6588
44.6619 2261 47.55
44.7791 2247 47.4025
44.8963 2183 46.7226
45.0136 2228 47.2017
45.1308 2236 47.2864
45.2481 2208 46.9894
45.3654 2316 48.1248
45.4827 2420 49.1935
45.6001 2484 49.8397
45.7174 2563 50.6261
45.8348 2445 49.4469
45.9522 2473 49.7293
46.0697 2432 49.3153
46.1871 2325 48.2183
46.3046 2157 46.4435
46.422 2089 45.7056
46.5395 2121 46.0543
46.657 2146 46.3249
46.7745 2241 47.3392
46.892 2276 47.7074
47.0096 2286 47.8121
47.1271 2228 47.2017
47.2446 2296 47.9166
47.3622 2274 47.6865
47.4797 2195 46.8508
47.5973 2149 46.3573
47.7149 2050 45.2769
47.8324 1887 43.4396
47.95 1888 43.4511
48.0675 1932 43.9545
48.1851 1731 41.6053
48.3027 1702 41.2553
48.4202 1614 40.1746
48.5378 1684 41.0366
48.6554 1662 40.7676
48.7729 1756 41.9047
48.8904 1766 42.0238
49.008 1950 44.1588
49.1255 1998 44.699
49.243 1930 43.9318
49.3605 1940 44.0454
49.478 1933 43.9659
49.5955 1909 43.6921
49.713 1863 43.1625
49.8304 1839 42.8836
49.9479 1703 41.2674
50.0653 1759 41.9404
50.1827 1864 43.1741
50.3001 1950 44.1588
50.4175 2177 46.6583
50.5348 2255 47.4868
50.6521 2264 47.5815
50.7694 2217 47.085
50.8867 2262 47.5605
51.004 2332 48.2908
51.1212 2320 48.1664
51.2384 2370 48.6826
51.3556 2410 49.0918
51.4727 2392 48.9081
51.5899 2326 48.2286
51.707 2236 47.2864
51.824 2162 46.4973
51.9411 2213 47.0425
52.0581 2226 47.1805
52.175 2353 48.5077
52.2919 2423 49.224
52.4088 2568 50.6754
52.5257 2759 52.5262
52.6425 2844 53.3292
52.7593 2877 53.6377
52.876 2977 54.5619
52.9927 3019 54.9454
53.1094 3089 55.5788
53.226 3063 55.3444
53.3426 2895 53.8052
53.4591 2736 52.3068
53.5756 2659 51.5655
53.692 2668 51.6527
53.8084 2983 54.6168
53.9248 3083 55.5248
54.0411 3278 57.2538
54.1573 3402 58.3267
54.2735 0 1
54.3896 0 1
54.5057 0 1
54.6217 0 1
54.7377 0 1
54.8537 0 1
54.9695 0 1
55.0853 0 1
55.2011 0 1
55.3168 0 1
55.4324 0 1
57.824 0 1
57.9396 0 1
58.0553 0 1
58.1711 0 1
58.2869 0 1
58.4028 0 1
58.5187 0 1
58.6347 0 1
58.7508 0 1
58.8669 0 1
58.983 3502 59.1777
59.0992 3722 61.0082
59.2155 3961 62.9365
59.3318 4000 63.2456
59.4482 4147 64.3972
59.5646 4038 63.5453
59.681 3883 62.3137
59.7975 4012 63.3404
59.9141 3810 61.7252
60.0306 3702 60.8441
60.1473 3578 59.8164
60.2639 3610 60.0833
60.3807 3243 56.9473
60.4974 3111 55.7763
60.6142 3028 55.0273
60.731 3051 55.2359
60.8479 3022 54.9727
60.9648 3271 57.1927
61.0818 3423 58.5064
61.1987 3537 59.4727
61.3158 3624 60.1997
61.4328 3608 60.0666
61.5499 3746 61.2046
61.667 3601 60.0083
61.7841 3446 58.7026
61.9013 3353 57.9051
62.0185 3074 55.4437
62.1357 3165 56.2583
62.253 3149 56.116
62.3702 3305 57.4891
62.4875 3386 58.1893
62.6049 3728 61.0574
62.7222 3693 60.7701
62.8396 3697 60.803
62.9569 3766 61.3677
63.0743 3815 61.7657
63.1918 3710 60.9098
63.3092 3629 60.2412
63.4267 3630 60.2495
63.5441 3373 58.0775
63.6616 3303 57.4717
63.7791 3105 55.7225
63.8966 2992 54.6992
64.0142 2900 53.8516
64.1317 2711 52.0673
64.2492 2818 53.0848
64.3668 2735 52.2972
64.4843 2874 53.6097
64.6019 3092 55.6058
64.7195 3215 56.701
64.837 3261 57.1052
64.9546 3346 57.8446
65.0722 3341 57.8014
65.1898 3280 57.2713
65.3074 3269 57.1752
65.4249 3088 55.5698
65.5425 2956 54.3691
65.6601 2834 53.2353
65.7777 2849 53.376
65.8952 2927 54.1018
66.0128 3068 55.3895
66.1304 3195 56.5243
66.2479 3326 57.6715
66.3655 3533 59.439
66.483 3546 59.5483
66.6005 3525 59.3717
66.718 3550 59.5819
66.8355 3512 59.2621
66.953 3402 58.3267
67.0705 3359 57.9569
67.1879 3121 55.8659
67.3054 3089 55.5788
67.4228 2921 54.0463
67.5402 2871 53.5817
67.6576 2701 51.9711
67.7749 2724 52.192
67.8923 2610 51.0882
68.0096 2787 52.792
68.1269 3043 55.1634
68.2442 3276 57.2364
68.3614 3536 59.4643
68.4787 3751 61.2454
68.5958 3878 62.2736
68.713 3967 62.9841
68.8302 4034 63.5138
68.9473 4043 63.5846
69.0643 3840 61.9677
69.1814 3859 62.1208
69.2984 3807 61.7009
69.4154 3881 62.2977
69.5323 4293 65.521
69.6492 4706 68.6003
69.7661 5124 71.5821
69.8829 5579 74.6927
69.9997 5779 76.0197
70.1165 5998 77.4468
70.2332 6327 79.5424
70.3499 6614 81.3265
70.4665 6304 79.3977
70.5831 6458 80.3617
70.6996 6489 80.5543
70.8161 6503 80.6412
70.9326 6462 80.3866
71.049 6212 78.8162
71.1653 5951 77.1427
71.2817 5550 74.4983
71.3979 5452 73.8377
71.5141 5457 73.8715
71.6303 5602 74.8465
71.7464 5360 73.212
71.8624 0 1
71.9784 0 1
72.0944 0 1
72.2102 0 1
72.3261 0 1
72.4418 0 1
72.5575 0 1
72.6732 0 1
75.1054 0 1
75.2209 0 1
75.3365 0 1
75.4521 0 1
75.5678 0 1
75.6835 0 1
75.7993 0 1
75.9151 0 1
76.031 0 1
76.147 6586 81.1542
76.263 6927 83.2286
76.3791 6850 82.7647
76.4952 6503 80.6412
76.6113 6028 77.6402
76.7276 5631 75.04
76.8438 5605 74.8665
76.9601 5544 74.458
77.0765 5681 75.3724
77.1929 6052 77.7946
77.3093 6288 79.2969
77.4258 6174 78.5748
77.5423 6185 78.6448
77.6589 6190 78.6766
77.7755 5721 75.6373
77.8921 5589 74.7596
78.0088 5015 70.8167
78.1256 4572 67.6166
78.2423 4142 64.3584
78.3591 3780 61.4817
78.4759 3796 61.6117
78.5928 3969 63
78.7097 4133 64.2884
78.8266 4415 66.4455
78.9436 4426 66.5282
79.0606 4519 67.2235
79.1776 4476 66.9029
79.2946 4507 67.1342
79.4117 4302 65.5896
79.5288 4277 65.3988
79.6459 4151 64.4283
79.7631 3879 62.2816
79.8802 3782 61.498
79.9974 3445 58.6941
80.1147 3261 57.1052
80.2319 2974 54.5344
80.3491 2678 51.7494
80.4664 2696 51.923
80.5837 2781 52.7352
80.701 2836 53.2541
80.8183 3073 55.4346
80.9357 3187 56.4535
81.053 3365 58.0086
81.1704 3357 57.9396
81.2877 3425 58.5235
81.4051 3366 58.0172
81.5225 3293 57.3847
81.6399 3123 55.8838
81.7573 2839 53.2823
81.8747 2709 52.0481
81.9922 2553 50.5272
82.1096 2590 50.892
82.227 2905 53.8981
82.3444 3047 55.1996
82.4619 3280 57.2713
82.5793 3451 58.7452
82.6967 3399 58.3009
82.8142 3593 59.9416
82.9316 3620 60.1664
83.049 3659 60.4897
83.1664 3648 60.3987
83.2838 3612 60.0999
83.4012 3479 58.983
83.5186 3324 57.6541
83.636 3292 57.376
83.7534 3236 56.8859
83.8708 2976 54.5527
83.9881 2791 52.8299
84.1055 2915 53.9907
84.2228 3025 55
84.3401 3287 57.3324
84.4575 3533 59.439
84.5747 3936 62.7375
84.692 4193 64.7534
84.8093 4276 65.3911
84.9265 4331 65.8103
85.0437 4327 65.7799
85.1609 4061 63.726
85.2781 3843 61.9919
85.3952 3842 61.9839
85.5123 3443 58.6771
85.6294 3575 59.7913
85.7465 3802 61.6604
85.8636 4101 64.0391
85.9806 4516 67.2012
86.0976 4780 69.1375
86.2145 5023 70.8731
86.3315 5229 72.3118
86.4484 5346 73.1163
86.5652 5438 73.7428
86.682 5467 73.9392
86.7988 5425 73.6546
86.9156 5290 72.7324
87.0323 5349 73.1369
87.149 5110 71.4843
87.2657 5043 71.0141
87.3823 4670 68.3374
87.4988 4373 66.1287
87.6154 4208 64.8691
87.7318 4521 67.2384
87.8483 4637 68.0955
87.9647 4932 70.2282
88.081 5417 73.6003
88.1973 5644 75.1266
88.3136 5821 76.2955
88.4298 5746 75.8024
88.546 5699 75.4917
88.6621 5489 74.0878
88.7781 5209 72.1734
88.8942 0 1
89.0101 0 1
89.126 0 1
89.2419 0 1
89.3577 0 1
89.4734 0 1
89.5891 0 1
89.7047 0 1
89.8203 0 1
89.9358 0 1
92.3269 0 1
92.4424 0 1
92.558 0 1
92.6736 0 1
92.7893 0 1
92.905 0 1
93.0208 0 1
93.1366 0 1
93.2525 0 1
93.3685 0 1
93.4845 0 1
93.6005 4447 66.6858
93.7167 4335 65.8407
93.8328 4355 65.9924
93.949 4488 66.9925
94.0653 4353 65.9773
94.1816 4019 63.3956
94.2979 3767 61.3759
94.4143 3530 59.4138
94.5307 3302 57.463
94.6472 3362 57.9828
94.7637 3236 56.8859
94.8803 3468 58.8897
94.9969 3744 61.1882
95.1135 3945 62.8092
95.2302 4021 63.4114
95.3469 4142 64.3584
95.4637 4128 64.2495
95.5805 4368 66.0908
95.6973 4258 65.2534
95.8142 4343 65.9014
95.9311 4097 64.0078
96.048 3951 62.857
96.1649 3832 61.9032
96.2819 3741 61.1637
96.3989 3588 59.8999
96.516 3292 57.376
96.633 3200 56.5685
96.7501 2961 54.4151
96.8673 3005 54.8179
96.9844 3012 54.8817
97.1016 3350 57.8792
97.2188 3543 59.5231
97.336 3779 61.4736
97.4532 3885 62.3298
97.5704 3796 61.6117
97.6877 3746 61.2046
97.805 3576 59.7997
97.9223 3317 57.5934
98.0396 3148 56.107
98.1569 3043 55.1634
98.2743 3008 54.8452
98.3916 2911 53.9537
98.509 3217 56.7186
98.6264 3450 58.7367
98.7438 3616 60.1332
98.8612 3829 61.8789
98.9786 3863 62.153
99.096 4030 63.4823
99.2134 4022 63.4192
99.3308 4122 64.2028
99.4482 4085 63.914
99.5656 4037 63.5374
99.6831 3888 62.3538
99.8005 3747 61.2127
99.9179 3716 60.959
100.035 3502 59.1777
100.153 3292 57.376
100.27 3053 55.254
100.388 3013 54.8908
100.505 3184 56.4269
100.622 3258 57.0789
100.74 3531 59.4222
100.857 3780 61.4817
100.975 3777 61.4573
101.092 3831 61.8951
101.209 3935 62.7296
101.327 3745 61.1964
101.444 3562 59.6825
101.561 3407 58.3695
101.679 3191 56.4889
101.796 3034 55.0818
101.913 2983 54.6168
102.03 3259 57.0877
102.148 3440 58.6515
102.265 3886 62.3378
102.382 3639 60.3241
102.499 4008 63.3088
102.616 4164 64.5291
102.733 4221 64.9692
102.851 4101 64.0391
102.968 4278 65.4064
103.085 4225 65
103.202 4040 63.561
103.319 4066 63.7652
103.436 3996 63.2139
103.552 3667 60.5558
103.669 3664 60.531
103.786 3427 58.5406
103.903 3243 56.9473
104.02 3421 58.4893
104.137 3627 60.2246
104.253 3993 63.1902
104.37 3957 62.9047
104.487 4107 64.0859
104.603 4228 65.0231
104.72 4091 63.9609
104.836 4009 63.3167
104.953 3733 61.0983
105.069 3452 58.7537
105.186 3359 57.9569
105.302 3229 56.8243
105.418 3293 57.3847
105.535 3536 59.4643
105.651 3931 62.6977
105.767 4231 65.0461
105.883 4292 65.5134
105.999 4375 66.1438
106.115 0 1
106.231 0 1
106.347 0 1
106.463 0 1
106.579 0 1
106.694 0 1
106.81 0 1
106.926 0 1
107.041 0 1
107.157 0 1
109.576 0 1
109.692 0 1
109.807 0 1
109.923 0 1
110.039 0 1
110.155 0 1
110.27 0 1
110.386 0 1
110.502 0 1
110.618 3466 58.8727
110.735 3789 61.5549
110.851 3931 62.6977
110.967 4346 65.9242
111.083 4200 64.8074
111.199 4418 66.468
111.316 4439 66.6258
111.432 4606 67.8675
111.549 4442 66.6483
111.665 4310 65.6506
111.782 4423 66.5056
111.898 4219 64.9538
112.015 4110 64.1093
112.132 3877 62.2656
112.248 3579 59.8247
112.365 3424 58.515
112.482 3443 58.6771
112.599 3568 59.7327
112.716 3767 61.3759
112.832 3961 62.9365
112.949 4086 63.9218
113.066 4118 64.1716
113.183 4021 63.4114
113.3 3990 63.1664
113.417 3798 61.6279
113.534 3673 60.6053
113.652 3412 58.4123
113.769 3149 56.116
113.886 3117 55.8301
114.003 3143 56.0625
114.12 3437 58.6259
114.238 3672 60.597
114.355 3864 62.1611
114.472 4249 65.1844
114.589 3959 62.9206
114.707 4326 65.7723
114.824 4378 66.1665
114.942 4400 66.3325
115.059 4375 66.1438
115.176 4387 66.2344
115.294 4351 65.9621
115.411 4146 64.3894
115.529 4094 63.9844
115.646 3883 62.3137
115.764 3724 61.0246
115.881 3617 60.1415
115.999 3503 59.1861
116.116 3758 61.3025
116.234 3874 62.2415
116.351 3832 61.9032
116.469 4028 63.4665
116.586 4028 63.4665
116.704 4153 64.4438
116.821 4124 64.2184
116.939 4100 64.0312
117.056 3809 61.7171
117.174 3696 60.7947
117.291 3384 58.1722
117.409 3335 57.7495
117.526 3219 56.7362
117.644 3448 58.7197
117.761 3747 61.2127
117.879 4000 63.2456
117.996 4063 63.7417
118.114 4187 64.707
118.231 4396 66.3023
118.349 4496 67.0522
118.466 4404 66.3626
118.584 4535 67.3424
118.701 4648 68.1762
118.819 4546 67.424
118.936 4303 65.5973
119.053 4243 65.1383
119.171 4205 64.846
119.288 3960 62.9285
119.405 3758 61.3025
119.523 3632 60.2661
119.64 3678 60.6465
119.757 3745 61.1964
119.875 3927 62.6658
119.992 3927 62.6658
120.109 4111 64.1171
120.226 4001 63.2535
120.343 4185 64.6916
120.46 4111 64.1171
120.578 4005 63.2851
120.695 3956 62.8967
120.812 3640 60.3324
120.929 3513 59.2706
121.046 3466 58.8727
121.163 3330 57.7062
121.279 3559 59.6574
121.396 3707 60.8851
121.513 3865 62.1691
121.63 4127 64.2417
121.747 4300 65.5744
121.863 4288 65.4828
121.98 4318 65.7115
122.097 4523 67.2533
122.213 4411 66.4154
122.33 4510 67.1565
122.446 4346 65.9242
122.563 4351 65.9621
122.679 4407 66.3852
122.795 4181 64.6607
122.912 4136 64.3117
123.028 3912 62.546
123.144 3811 61.7333
123.26 3665 60.5392
123.377 0 1
123.493 0 1
123.609 0 1
123.725 0 1
123.84 0 1
123.956 0 1
124.072 0 1
124.188 0 1
124.303 0 1
124.419 0 1
126.852 0 1
126.968 0 1
127.083 0 1
127.199 0 1
127.315 0 1
127.431 0 1
127.547 0 1
127.663 0 1
127.779 0 1
127.895 0 1
128.011 0 1
128.127 0 1
128.243 0 1
128.359 5195 72.0763
128.476 5005 70.746
128.592 5072 71.218
128.708 5332 73.0205
128.825 5469 73.9527
128.941 5843 76.4395
129.058 5693 75.452
129.174 5792 76.1052
129.291 5678 75.3525
129.408 5669 75.2928
129.524 5505 74.1957
129.641 5203 72.1318
129.758 5037 70.9718
129.875 4855 69.6778
129.992 4549 67.4463
130.108 4650 68.1909
130.225 4812 69.3686
130.342 4938 70.2709
130.459 5095 71.3793
130.576 5519 74.29
130.693 5568 74.619
130.81 5573 74.6525
130.928 5800 76.1577
131.045 5875 76.6485
131.162 6041 77.7239
131.279 5929 77
131.396 5841 76.4264
131.513 5824 76.3151
131.631 5625 75
131.748 5591 74.773
131.865 5449 73.8173
131.983 5289 72.7255
132.1 5220 72.2496
132.217 5391 73.4234
132.335 5594 74.793
132.452 5779 76.0197
132.57 5697 75.4785
132.687 5394 73.4439
132.804 5940 77.0714
132.922 5622 74.98
133.039 5516 74.2698
133.157 5188 72.0278
133.274 4906 70.0428
133.392 4933 70.2353
133.509 4473 66.8805
133.627 4559 67.5204
133.744 4760 68.9928
133.862 4826 69.4694
133.979 5067 71.1829
134.097 5222 72.2634
134.214 5262 72.5396
134.332 5386 73.3894
134.449 5614 74.9266
134.567 5664 75.2596
134.684 5716 75.6042
134.802 5826 76.3282
134.919 5866 76.5898
135.037 5865 76.5833
135.154 5564 74.5922
135.272 5489 74.0878
135.389 5360 73.212
135.507 5091 71.3512
135.624 5177 71.9514
135.742 5236 72.3602
135.859 5479 74.0203
135.977 5585 74.7329
136.094 5624 74.9933
136.211 5757 75.8749
136.329 5451 73.8309
136.446 5641 75.1066
136.564 5514 74.2563
136.681 5310 72.8697
136.798 5035 70.9577
136.915 4890 69.9285
137.033 4759 68.9855
137.15 4517 67.2086
137.267 4535 67.3424
137.384 4794 69.2387
137.502 4860 69.7137
137.619 5000 70.7107
137.736 5287 72.7118
137.853 5133 71.645
137.97 5345 73.1095
138.087 5407 73.5323
138.204 5524 74.3236
138.321 5597 74.8131
138.438 5741 75.7694
138.555 5639 75.0933
138.672 5700 75.4983
138.788 5613 74.92
138.905 5576 74.6726
139.022 5499 74.1552
139.139 5557 74.5453
139.255 5358 73.1984
139.372 5518 74.2832
139.488 5762 75.9078
139.605 5743 75.7826
139.721 5623 74.9867
139.838 5856 76.5245
139.954 5838 76.4068
140.071 5801 76.1643
140.187 5741 75.7694
140.303 5473 73.9797
140.419 5204 72.1388
140.535 5182 71.9861
140.652 4926 70.1855
140.768 0 1
140.884 0 1
141 0 1
141.115 0 1
141.231 0 1
141.347 0 1
141.463 0 1
141.578 0 1
141.694 0 1
144.104 0 1
144.219 0 1
144.335 0 1
144.45 0 1
144.566 0 1
144.682 0 1
144.798 0 1
144.914 0 1
145.03 0 1
145.146 5951 77.1427
145.262 6139 78.3518
145.378 5830 76.3544
145.494 5655 75.1997
145.61 5507 74.2092
145.726 5462 73.9053
145.842 5221 72.2565
145.959 5248 72.4431
146.075 5312 72.8835
146.192 5492 74.108
146.308 5695 75.4652
146.425 5712 75.5778
146.541 5946 77.1103
146.658 5967 77.2464
146.774 6045 77.7496
146.891 6225 78.8987
147.008 6146 78.3964
147.125 6205 78.7718
147.241 6373 79.8311
147.358 6202 78.7528
147.475 5965 77.2334
147.592 5914 76.9025
147.709 5806 76.1971
147.826 5749 75.8222
147.943 5959 77.1946
148.06 5931 77.013
148.177 5998 77.4468
148.294 6190 78.6766
148.411 6062 77.8588
148.528 6055 77.8139
148.645 6027 77.6338
148.762 5903 76.831
148.88 5870 76.6159
148.997 5543 74.4513
149.114 5409 73.5459
149.231 5307 72.8492
149.349 5176 71.9444
149.466 4925 70.1783
149.583 4977 70.5479
149.701 5126 71.5961
149.818 5265 72.5603
149.935 5281 72.6705
150.053 5295 72.7668
150.17 5404 73.5119
150.287 5578 74.686
150.405 5704 75.5248
150.522 5642 75.1132
150.64 5940 77.0714
150.757 5946 77.1103
150.875 6143 78.3773
150.992 5921 76.948
151.11 5712 75.5778
151.227 5730 75.6968
151.344 5473 73.9797
151.462 5285 72.698
151.579 5739 75.7562
151.697 5770 75.9605
151.814 5975 77.2981
151.932 6044 77.7432
152.049 6013 77.5435
152.167 5898 76.7984
152.284 5876 76.6551
152.402 5916 76.9155
152.519 5724 75.6571
152.636 5487 74.0743
152.754 5403 73.5051
152.871 5206 72.1526
152.989 5186 72.0139
153.106 5010 70.7814
153.223 5089 71.3372
153.341 5069 71.1969
153.458 5138 71.6798
153.575 5242 72.4017
153.693 5311 72.8766
153.81 5493 74.1148
153.927 5554 74.5252
154.044 5763 75.9144
154.162 5828 76.3413
154.279 6046 77.756
154.396 6064 77.8717
154.513 6124 78.256
154.63 5931 77.013
154.747 5986 77.3692
154.864 5863 76.5702
154.981 5753 75.8485
155.098 5689 75.4255
155.215 6056 77.8203
155.332 5962 77.214
155.449 6100 78.1025
155.566 6124 78.256
155.683 6097 78.0833
155.8 6229 78.924
155.917 6001 77.4661
156.033 5875 76.6485
156.15 0 1
156.267 0 1
156.383 0 1
156.5 0 1
156.617 0 1
156.733 0 1
156.85 0 1
156.966 0 1
157.082 0 1
157.199 0 1
157.315 0 1
157.431 0 1
157.547 0 1
157.664 0 1
157.78 0 1
157.896 0 1
158.012 0 1
158.128 0 1
158.244 0 1
158.359 0 1
158.475 0 1
158.591 0 1
158.706 0 1
