
6.15755 0 1
6.2731 0 1
6.3887 0 1
6.50437 0 1
6.62009 0 1
6.73587 0 1
6.8517 0 1
6.96759 0 1
7.08353 0 1
7.19952 0 1
7.31557 0 1
7.43166 0 1
7.54781 0 1
7.664 0 1
7.78024 0 1
7.89653 0 1
8.01286 0 1
8.12924 0 1
8.24567 0 1
8.36213 0 1
8.47864 0 1
8.59519 0 1
8.71178 0 1
8.82841 0 1
8.94508 0 1
9.06179 0 1
9.17853 0 1
9.29531 0 1
9.41212 0 1
9.52897 0 1
9.64584 0 1
9.76276 0 1
9.8797 0 1
9.99667 0 1
10.1137 0 1
10.2307 0 1
10.3478 0 1
10.4648 0 1
10.5819 0 1
10.6991 0 1
10.8162 0 1
10.9334 0 1
11.0506 0 1
11.1678 0 1
11.285 0 1
11.4023 0 1
11.5196 0 1
11.6369 0 1
11.7542 0 1
11.8715 0 1
11.9888 0 1
12.1062 0 1
12.2235 0 1
12.3409 0 1
12.4582 0 1
12.5756 0 1
12.693 0 1
12.8104 0 1
12.9278 0 1
13.0452 0 1
13.1626 0 1
13.28 0 1
13.3974 0 1
13.5149 0 1
13.6323 0 1
13.7497 0 1
13.8671 0 1
13.9845 0 1
14.1019 0 1
14.2193 0 1
14.3367 0 1
14.4541 0 1
14.5714 0 1
14.6888 0 1
14.8062 0 1
14.9235 0 1
15.0408 1953 44.1928
15.1581 2035 45.111
15.2755 2152 46.3897
15.3927 2230 47.2229
15.51 2174 46.6262
15.6273 2276 47.7074
15.7445 2295 47.9062
15.8617 2256 47.4974
15.9789 2168 46.5618
16.0961 2210 47.0106
16.2132 2243 47.3603
16.3304 2297 47.927
16.4475 2268 47.6235
16.5646 2331 48.2804
16.6816 2497 49.97
16.7986 2549 50.4876
16.9156 2571 50.705
17.0326 2553 50.5272
17.1496 2639 51.3712
17.2665 2626 51.2445
17.3833 2602 51.0098
17.5002 2481 49.8096
17.617 2498 49.98
17.7338 2451 49.5076
17.8505 2275 47.697
17.9672 2181 46.7012
18.0839 2207 46.9787
18.2005 2307 48.0312
18.3171 2422 49.2138
18.4337 2459 49.5883
18.5502 2445 49.4469
18.6666 2591 50.9019
18.7831 2620 51.1859
18.8994 2566 50.6557
19.0158 2492 49.9199
19.1321 2467 49.6689
19.2483 2348 48.4562
19.3645 2279 47.7389
19.4806 2189 46.7868
19.5967 1930 43.9318
19.7128 1872 43.2666
19.8288 1718 41.4488
19.9447 1542 39.2683
20.0606 0 1
20.1764 0 1
20.2922 0 1
20.4079 0 1
20.5236 0 1
20.6392 0 1
20.7548 0 1
20.8702 0 1
23.3078 0 1
23.4233 0 1
23.539 0 1
23.6547 0 1
23.7704 0 1
23.8862 0 1
24.0021 0 1
24.118 0 1
24.234 0 1
24.35 0 1
24.4661 1006 31.7175
24.5822 1190 34.4964
24.6984 1367 36.973
24.8146 1546 39.3192
24.9309 1702 41.2553
25.0472 1903 43.6234
25.1636 2018 44.9222
25.28 2190 46.7974
25.3965 2342 48.3942
25.513 2500 50
25.6296 2542 50.4183
25.7462 2711 52.0673
25.8628 2749 52.4309
25.9795 2847 53.3573
26.0962 2688 51.8459
26.213 2518 50.1797
26.3298 2496 49.96
26.4466 2498 49.98
26.5635 2411 49.1019
26.6804 2335 48.3218
26.7973 2423 49.224
26.9143 2500 50
27.0313 2556 50.5569
27.1483 2541 50.4083
27.2653 2693 51.8941
27.3824 2661 51.5849
27.4996 2665 51.6236
27.6167 2621 51.1957
27.7339 2533 50.3289
27.8511 2541 50.4083
27.9683 2428 49.2747
28.0855 2460 49.5984
28.2028 2328 48.2494
28.3201 2240 47.3286
28.4374 2242 47.3498
28.5547 2267 47.613
28.6721 2356 48.5386
28.7894 2478 49.7795
28.9068 2530 50.2991
29.0242 2590 50.892
29.1416 2723 52.1824
29.259 2654 51.517
29.3764 2598 50.9706
29.4939 2782 52.7447
29.6113 2628 51.264
29.7288 2563 50.6261
29.8463 2436 49.3559
29.9638 2375 48.734
30.0812 2243 47.3603
30.1987 2299 47.9479
30.3162 2368 48.6621
30.4337 2436 49.3559
30.5512 2461 49.6085
30.6687 2463 49.6286
30.7862 2451 49.5076
30.9037 2559 50.5866
31.0212 2620 51.1859
31.1387 2503 50.03
31.2562 2583 50.8232
31.3737 2450 49.4975
31.4912 2389 48.8774
31.6087 2362 48.6004
31.7262 2332 48.2908
31.8436 2154 46.4112
31.9611 2175 46.6369
32.0785 2180 46.6905
32.1959 2248 47.4131
32.3134 2405 49.0408
32.4308 2398 48.9694
32.5482 2468 49.679
32.6655 2633 51.3128
32.7829 2576 50.7543
32.9002 2627 51.2543
33.0176 2542 50.4183
33.1349 2584 50.8331
33.2522 2420 49.1935
33.3694 2483 49.8297
33.4867 2314 48.1041
33.6039 2241 47.3392
33.7211 2108 45.913
33.8383 2126 46.1086
33.9554 2130 46.1519
34.0725 2275 47.697
34.1896 2327 48.239
34.3067 2312 48.0833
34.4237 2423 49.224
34.5407 2403 49.0204
34.6577 2422 49.2138
34.7746 2475 49.7494
34.8915 2532 50.319
35.0084 2336 48.3322
35.1252 2280 47.7493
35.242 2266 47.6025
35.3587 2238 47.3075
35.4755 2138 46.2385
35.5921 2039 45.1553
35.7088 2040 45.1664
35.8254 2128 46.1303
35.9419 2194 46.8402
36.0584 2261 47.55
36.1749 2259 47.5289
36.2913 2291 47.8644
36.4077 2283 47.7807
36.524 2310 48.0625
36.6403 2162 46.4973
36.7565 2061 45.3982
36.8727 1957 44.238
36.9889 1739 41.7013
37.1049 1650 40.6202
37.221 0 1
37.3369 0 1
37.4529 0 1
37.5687 0 1
37.6845 0 1
37.8003 0 1
37.916 0 1
38.0316 0 1
38.1472 0 1
40.5851 0 1
40.7008 0 1
40.8164 0 1
40.9322 0 1
41.048 0 1
41.1639 0 1
41.2798 0 1
41.3958 0 1
41.5118 0 1
41.6279 0 1
41.744 1177 34.3074
41.8602 1323 36.3731
41.9765 1433 37.855
42.0928 1402 37.4433
42.2091 1555 39.4335
42.3255 1427 37.7757
42.4419 1452 38.1051
42.5584 1464 38.2623
42.675 1568 39.598
42.7915 1772 42.0951
42.9081 1871 43.2551
43.0248 1942 44.0681
43.1415 1899 43.5775
43.2582 1999 44.7102
43.375 2010 44.833
43.4918 2056 45.3431
43.6087 2021 44.9555
43.7256 2031 45.0666
43.8425 1974 44.4297
43.9595 2017 44.911
44.0765 1885 43.4166
44.1935 1844 42.9418
44.3106 1841 42.9069
44.4277 1818 42.638
44.5448 1721 41.4849
44.6619 1853 43.0465
44.7791 1772 42.0951
44.8963 1939 44.0341
45.0136 2030 45.0555
45.1308 2109 45.9239
45.2481 2103 45.8585
45.3654 2117 46.0109
45.4827 2077 45.5741
45.6001 2067 45.4643
45.7174 2044 45.2106
45.8348 1892 43.4971
45.9522 1836 42.8486
46.0697 1655 40.6817
46.1871 1662 40.7676
46.3046 1743 41.7493
46.422 1800 42.4264
46.5395 1927 43.8976
46.657 1945 44.1022
46.7745 2080 45.607
46.892 2007 44.7996
47.0096 2084 45.6508
47.1271 2083 45.6399
47.2446 2107 45.9021
47.3622 2076 45.5631
47.4797 2016 44.8999
47.5973 1958 44.2493
47.7149 1955 44.2154
47.8324 1889 43.4626
47.95 1779 42.1782
48.0675 1725 41.5331
48.1851 1788 42.2847
48.3027 1820 42.6615
48.4202 1940 44.0454
48.5378 1984 44.5421
48.6554 2031 45.0666
48.7729 2076 45.5631
48.8904 2112 45.9565
49.008 2143 46.2925
49.1255 2096 45.7821
49.243 1874 43.2897
49.3605 1848 42.9884
49.478 1772 42.0951
49.5955 1746 41.7852
49.713 1686 41.0609
49.8304 1709 41.3401
49.9479 1746 41.7852
50.0653 1844 42.9418
50.1827 1906 43.6578
50.3001 2070 45.4973
50.4175 2044 45.2106
50.5348 2090 45.7165
50.6521 2087 45.6837
50.7694 2159 46.465
50.8867 2175 46.6369
51.004 2082 45.6289
51.1212 2146 46.3249
51.2384 1989 44.5982
51.3556 2012 44.8553
51.4727 1973 44.4185
51.5899 1901 43.6005
51.707 1864 43.1741
51.824 1909 43.6921
51.9411 2031 45.0666
52.0581 2301 47.9687
52.175 2383 48.816
52.2919 2424 49.2341
52.4088 2432 49.3153
52.5257 2446 49.4571
52.6425 2570 50.6952
52.7593 2612 51.1077
52.876 2545 50.448
52.9927 2303 47.9896
53.1094 2125 46.0977
53.226 2084 45.6508
53.3426 2103 45.8585
53.4591 2122 46.0652
53.5756 2070 45.4973
53.692 2154 46.4112
53.8084 1983 44.5309
53.9248 2019 44.9333
54.0411 1954 44.2041
54.1573 1791 42.3202
54.2735 0 1
54.3896 0 1
54.5057 0 1
54.6217 0 1
54.7377 0 1
54.8537 0 1
54.9695 0 1
55.0853 0 1
55.2011 0 1
55.3168 0 1
55.4324 0 1
57.824 0 1
57.9396 0 1
58.0553 0 1
58.1711 0 1
58.2869 0 1
58.4028 0 1
58.5187 0 1
58.6347 0 1
58.7508 0 1
58.8669 0 1
58.983 1681 41
59.0992 1956 44.2267
59.2155 2024 44.9889
59.3318 2198 46.8828
59.4482 2340 48.3735
59.5646 2399 48.9796
59.681 2386 48.8467
59.7975 2491 49.9099
59.9141 2481 49.8096
60.0306 2468 49.679
60.1473 2303 47.9896
60.2639 2273 47.676
60.3807 2153 46.4004
60.4974 2453 49.5278
60.6142 2427 49.2646
60.731 2515 50.1498
60.8479 2548 50.4777
60.9648 2699 51.9519
61.0818 2710 52.0577
61.1987 2601 51
61.3158 2619 51.1762
61.4328 2495 49.95
61.5499 2314 48.1041
61.667 2179 46.6798
61.7841 2043 45.1996
61.9013 1975 44.441
62.0185 1899 43.5775
62.1357 2168 46.5618
62.253 2238 47.3075
62.3702 2309 48.0521
62.4875 2454 49.5379
62.6049 2476 49.7594
62.7222 2598 50.9706
62.8396 2601 51
62.9569 2612 51.1077
63.0743 2560 50.5964
63.1918 2532 50.319
63.3092 2558 50.5767
63.4267 2510 50.0999
63.5441 2445 49.4469
63.6616 2261 47.55
63.7791 2076 45.5631
63.8966 2209 47
64.0142 2241 47.3392
64.1317 2257 47.5079
64.2492 2337 48.3425
64.3668 2507 50.07
64.4843 2601 51
64.6019 2592 50.9117
64.7195 2597 50.9608
64.837 2603 51.0196
64.9546 2476 49.7594
65.0722 2337 48.3425
65.1898 2253 47.4658
65.3074 1966 44.3396
65.4249 1985 44.5533
65.5425 1879 43.3474
65.6601 1842 42.9185
65.7777 2040 45.1664
65.8952 2298 47.9375
66.0128 2295 47.9062
66.1304 2441 49.4065
66.2479 2527 50.2693
66.3655 2558 50.5767
66.483 2571 50.705
66.6005 2613 51.1175
66.718 2580 50.7937
66.8355 2447 49.4672
66.953 2474 49.7393
67.0705 2408 49.0714
67.1879 2324 48.2079
67.3054 2259 47.5289
67.4228 2087 45.6837
67.5402 2064 45.4313
67.6576 2104 45.8694
67.7749 2195 46.8508
67.8923 2276 47.7074
68.0096 2428 49.2747
68.1269 2465 49.6488
68.2442 2494 49.94
68.3614 2462 49.6185
68.4787 2465 49.6488
68.5958 2376 48.7442
68.713 2278 47.7284
68.8302 2239 47.3181
68.9473 1913 43.7379
69.0643 1911 43.715
69.1814 1788 42.2847
69.2984 1795 42.3674
69.4154 1954 44.2041
69.5323 2150 46.3681
69.6492 2192 46.8188
69.7661 2427 49.2646
69.8829 2358 48.5592
69.9997 2274 47.6865
70.1165 2315 48.1144
70.2332 2155 46.422
70.3499 2087 45.6837
70.4665 1911 43.715
70.5831 1955 44.2154
70.6996 1850 43.0116
70.8161 1756 41.9047
70.9326 1479 38.4578
71.049 1342 36.6333
71.1653 1153 33.9559
71.2817 1033 32.1403
71.3979 974 31.209
71.5141 929 30.4795
71.6303 847 29.1033
71.7464 835 28.8964
71.8624 0 1
71.9784 0 1
72.0944 0 1
72.2102 0 1
72.3261 0 1
72.4418 0 1
72.5575 0 1
72.6732 0 1
75.1054 0 1
75.2209 0 1
75.3365 0 1
75.4521 0 1
75.5678 0 1
75.6835 0 1
75.7993 0 1
75.9151 0 1
76.031 0 1
76.147 1541 39.2556
76.263 1586 39.8246
76.3791 1533 39.1535
76.4952 1626 40.3237
76.6113 1628 40.3485
76.7276 1657 40.7063
76.8438 1950 44.1588
76.9601 1983 44.5309
77.0765 2193 46.8295
77.1929 2102 45.8476
77.3093 2209 47
77.4258 2131 46.1628
77.5423 2216 47.0744
77.6589 2065 45.4423
77.7755 1814 42.5911
77.8921 1709 41.3401
78.0088 1603 40.0375
78.1256 1542 39.2683
78.2423 1543 39.281
78.3591 1589 39.8623
78.4759 1778 42.1663
78.5928 1919 43.8064
78.7097 1933 43.9659
78.8266 2110 45.9347
78.9436 2098 45.8039
79.0606 2235 47.2758
79.1776 2122 46.0652
79.2946 2220 47.1169
79.4117 2173 46.6154
79.5288 2122 46.0652
79.6459 2084 45.6508
79.7631 2129 46.1411
79.8802 1988 44.587
79.9974 1892 43.4971
80.1147 1715 41.4126
80.2319 1662 40.7676
80.3491 1849 43
80.4664 1922 43.8406
80.5837 2101 45.8367
80.701 2233 47.2546
80.8183 2186 46.7547
80.9357 2269 47.634
81.053 2270 47.6445
81.1704 2216 47.0744
81.2877 2177 46.6583
81.4051 2095 45.7712
81.5225 1954 44.2041
81.6399 1834 42.8252
81.7573 1598 39.975
81.8747 1536 39.1918
81.9922 1611 40.1373
82.1096 1739 41.7013
82.227 2015 44.8888
82.3444 2120 46.0435
82.4619 2040 45.1664
82.5793 2185 46.744
82.6967 2182 46.7119
82.8142 2285 47.8017
82.9316 2248 47.4131
83.049 2210 47.0106
83.1664 2349 48.4665
83.2838 2204 46.9468
83.4012 2209 47
83.5186 2074 45.5412
83.636 2027 45.0222
83.7534 1813 42.5793
83.8708 1804 42.4735
83.9881 1806 42.4971
84.1055 1909 43.6921
84.2228 1985 44.5533
84.3401 2172 46.6047
84.4575 2189 46.7868
84.5747 2265 47.592
84.692 2133 46.1844
84.8093 2242 47.3498
84.9265 2270 47.6445
85.0437 2093 45.7493
85.1609 1946 44.1135
85.2781 1725 41.5331
85.3952 1620 40.2492
85.5123 1497 38.6911
85.6294 1627 40.3361
85.7465 1832 42.8019
85.8636 1978 44.4747
85.9806 1923 43.852
86.0976 2061 45.3982
86.2145 2115 45.9891
86.3315 2288 47.833
86.4484 2287 47.8226
86.5652 2248 47.4131
86.682 2347 48.4458
86.7988 2317 48.1352
86.9156 2276 47.7074
87.0323 2199 46.8935
87.149 2192 46.8188
87.2657 1970 44.3847
87.3823 1792 42.332
87.4988 1574 39.6737
87.6154 1595 39.9375
87.7318 1536 39.1918
87.8483 1602 40.025
87.9647 1737 41.6773
88.081 1790 42.3084
88.1973 1768 42.0476
88.3136 1702 41.2553
88.4298 1593 39.9124
88.546 1503 38.7685
88.6621 1240 35.2136
88.7781 945 30.7409
88.8942 0 1
89.0101 0 1
89.126 0 1
89.2419 0 1
89.3577 0 1
89.4734 0 1
89.5891 0 1
89.7047 0 1
89.8203 0 1
89.9358 0 1
92.3269 0 1
92.4424 0 1
92.558 0 1
92.6736 0 1
92.7893 0 1
92.905 0 1
93.0208 0 1
93.1366 0 1
93.2525 0 1
93.3685 0 1
93.4845 0 1
93.6005 1742 41.7373
93.7167 1904 43.6348
93.8328 1905 43.6463
93.949 1953 44.1928
94.0653 1938 44.0227
94.1816 1931 43.9431
94.2979 1873 43.2782
94.4143 1724 41.5211
94.5307 1631 40.3856
94.6472 1625 40.3113
94.7637 1725 41.5331
94.8803 1874 43.2897
94.9969 1997 44.6878
95.1135 2119 46.0326
95.2302 2122 46.0652
95.3469 2166 46.5403
95.4637 2239 47.3181
95.5805 2349 48.4665
95.6973 2301 47.9687
95.8142 2374 48.7237
95.9311 2300 47.9583
96.048 2356 48.5386
96.1649 2299 47.9479
96.2819 2167 46.551
96.3989 2146 46.3249
96.516 2043 45.1996
96.633 1892 43.4971
96.7501 1861 43.1393
96.8673 1980 44.4972
96.9844 1990 44.6094
97.1016 2127 46.1194
97.2188 2253 47.4658
97.336 2354 48.518
97.4532 2368 48.6621
97.5704 2520 50.1996
97.6877 2389 48.8774
97.805 2214 47.0532
97.9223 2035 45.111
98.0396 1873 43.2782
98.1569 1761 41.9643
98.2743 1683 41.0244
98.3916 1644 40.5463
98.509 1749 41.821
98.6264 1994 44.6542
98.7438 2174 46.6262
98.8612 2198 46.8828
98.9786 2304 48
99.096 2456 49.558
99.2134 2351 48.4871
99.3308 2411 49.1019
99.4482 2379 48.775
99.5656 2417 49.163
99.6831 2424 49.2341
99.8005 2438 49.3761
99.9179 2383 48.816
100.035 2333 48.3011
100.153 2034 45.0999
100.27 2089 45.7056
100.388 2050 45.2769
100.505 2114 45.9783
100.622 2207 46.9787
100.74 2448 49.4773
100.857 2487 49.8698
100.975 2529 50.2892
101.092 2488 49.8799
101.209 2547 50.4678
101.327 2459 49.5883
101.444 2272 47.6655
101.561 2110 45.9347
101.679 1924 43.8634
101.796 1782 42.2137
101.913 1724 41.5211
102.03 1785 42.2493
102.148 2063 45.4203
102.265 2156 46.4327
102.382 2417 49.163
102.499 2386 48.8467
102.616 2416 49.1528
102.733 2536 50.3587
102.851 2515 50.1498
102.968 2613 51.1175
103.085 2477 49.7695
103.202 2642 51.4004
103.319 2623 51.2152
103.436 2508 50.0799
103.552 2439 49.3862
103.669 2313 48.0937
103.786 2189 46.7868
103.903 2172 46.6047
104.02 2156 46.4327
104.137 2370 48.6826
104.253 2394 48.9285
104.37 2676 51.7301
104.487 2647 51.449
104.603 2630 51.2835
104.72 2694 51.9038
104.836 2462 49.6185
104.953 2211 47.0213
105.069 1967 44.3509
105.186 1817 42.6263
105.302 1700 41.2311
105.418 1556 39.4462
105.535 1543 39.281
105.651 1610 40.1248
105.767 1637 40.4599
105.883 1671 40.8779
105.999 1460 38.2099
106.115 0 1
106.231 0 1
106.347 0 1
106.463 0 1
106.579 0 1
106.694 0 1
106.81 0 1
106.926 0 1
107.041 0 1
107.157 0 1
109.576 0 1
109.692 0 1
109.807 0 1
109.923 0 1
110.039 0 1
110.155 0 1
110.27 0 1
110.386 0 1
110.502 0 1
110.618 1126 33.5559
110.735 1481 38.4838
110.851 1691 41.1218
110.967 1924 43.8634
111.083 2002 44.7437
111.199 2094 45.7602
111.316 2253 47.4658
111.432 2319 48.156
111.549 2355 48.5283
111.665 2453 49.5278
111.782 2373 48.7134
111.898 2268 47.6235
112.015 2330 48.2701
112.132 2214 47.0532
112.248 2063 45.4203
112.365 2015 44.8888
112.482 2003 44.7549
112.599 2151 46.3789
112.716 2273 47.676
112.832 2356 48.5386
112.949 2502 50.02
113.066 2439 49.3862
113.183 2418 49.1732
113.3 2443 49.4267
113.417 2297 47.927
113.534 2214 47.0532
113.652 1937 44.0114
113.769 1885 43.4166
113.886 1736 41.6653
114.003 1685 41.0488
114.12 1789 42.2966
114.238 2024 44.9889
114.355 2143 46.2925
114.472 2147 46.3357
114.589 2360 48.5798
114.707 2418 49.1732
114.824 2319 48.156
114.942 2412 49.1121
115.059 2494 49.94
115.176 2440 49.3964
115.294 2252 47.4552
115.411 2345 48.4252
115.529 2349 48.4665
115.646 2262 47.5605
115.764 2187 46.7654
115.881 2081 45.618
115.999 2072 45.5192
116.116 2054 45.3211
116.234 2221 47.1275
116.351 2340 48.3735
116.469 2468 49.679
116.586 2441 49.4065
116.704 2364 48.621
116.821 2435 49.3457
116.939 2391 48.8979
117.056 2310 48.0625
117.174 2177 46.6583
117.291 1915 43.7607
117.409 1784 42.2374
117.526 1635 40.4351
117.644 1705 41.2916
117.761 1883 43.3935
117.879 1981 44.5084
117.996 2048 45.2548
118.114 2206 46.9681
118.231 2342 48.3942
118.349 2308 48.0416
118.466 2302 47.9792
118.584 2325 48.2183
118.701 2361 48.5901
118.819 2370 48.6826
118.936 2304 48
119.053 2190 46.7974
119.171 2283 47.7807
119.288 2137 46.2277
119.405 2051 45.288
119.523 2034 45.0999
119.64 1931 43.9431
119.757 2059 45.3762
119.875 2083 45.6399
119.992 2269 47.634
120.109 2179 46.6798
120.226 2255 47.4868
120.343 2349 48.4665
120.46 2239 47.3181
120.578 2321 48.1768
120.695 2332 48.2908
120.812 2133 46.1844
120.929 1884 43.4051
121.046 1787 42.2729
121.163 1613 40.1622
121.279 1646 40.5709
121.396 1625 40.3113
121.513 1673 40.9023
121.63 1789 42.2966
121.747 1823 42.6966
121.863 1764 42
121.98 1799 42.4146
122.097 1816 42.6146
122.213 1832 42.8019
122.33 1736 41.6653
122.446 1759 41.9404
122.563 1652 40.6448
122.679 1516 38.9358
122.795 1546 39.3192
122.912 1324 36.3868
123.028 1158 34.0294
123.144 1056 32.4962
123.26 922 30.3645
123.377 0 1
123.493 0 1
123.609 0 1
123.725 0 1
123.84 0 1
123.956 0 1
124.072 0 1
124.188 0 1
124.303 0 1
124.419 0 1
126.852 0 1
126.968 0 1
127.083 0 1
127.199 0 1
127.315 0 1
127.431 0 1
127.547 0 1
127.663 0 1
127.779 0 1
127.895 0 1
128.011 0 1
128.127 0 1
128.243 0 1
128.359 2143 46.2925
128.476 2233 47.2546
128.592 2181 46.7012
128.708 2134 46.1952
128.825 2216 47.0744
128.941 2326 48.2286
129.058 2431 49.3052
129.174 2528 50.2792
129.291 2519 50.1896
129.408 2501 50.01
129.524 2498 49.98
129.641 2534 50.3389
129.758 2391 48.8979
129.875 2192 46.8188
129.992 2111 45.9456
130.108 1920 43.8178
130.225 1789 42.2966
130.342 1859 43.1161
130.459 1996 44.6766
130.576 2052 45.299
130.693 2193 46.8295
130.81 2229 47.2123
130.928 2251 47.4447
131.045 2397 48.9592
131.162 2437 49.366
131.279 2501 50.01
131.396 2541 50.4083
131.513 2467 49.6689
131.631 2444 49.4368
131.748 2375 48.734
131.865 2289 47.8435
131.983 2338 48.3529
132.1 2131 46.1628
132.217 2218 47.0956
132.335 2240 47.3286
132.452 2239 47.3181
132.57 2337 48.3425
132.687 2454 49.5379
132.804 2424 49.2341
132.922 2612 51.1077
133.039 2496 49.96
133.157 2566 50.6557
133.274 2552 50.5173
133.392 2404 49.0306
133.509 2115 45.9891
133.627 2007 44.7996
133.744 1895 43.5316
133.862 1929 43.9204
133.979 1910 43.7035
134.097 2165 46.5296
134.214 2235 47.2758
134.332 2199 46.8935
134.449 2399 48.9796
134.567 2400 48.9898
134.684 2490 49.8999
134.802 2436 49.3559
134.919 2461 49.6085
135.037 2586 50.8527
135.154 2423 49.224
135.272 2424 49.2341
135.389 2344 48.4149
135.507 2320 48.1664
135.624 2291 47.8644
135.742 2203 46.9361
135.859 2302 47.9792
135.977 2279 47.7389
136.094 2292 47.8748
136.211 2449 49.4874
136.329 2495 49.95
136.446 2502 50.02
136.564 2499 49.99
136.681 2589 50.8822
136.798 2503 50.03
136.915 2516 50.1597
137.033 2349 48.4665
137.15 2177 46.6583
137.267 1980 44.4972
137.384 1933 43.9659
137.502 1799 42.4146
137.619 1827 42.7434
137.736 2015 44.8888
137.853 2087 45.6837
137.97 2262 47.5605
138.087 2253 47.4658
138.204 2362 48.6004
138.321 2456 49.558
138.438 2486 49.8598
138.555 2553 50.5272
138.672 2434 49.3356
138.788 2330 48.2701
138.905 2189 46.7868
139.022 2177 46.6583
139.139 2093 45.7493
139.255 1894 43.5201
139.372 1822 42.6849
139.488 1679 40.9756
139.605 1617 40.2119
139.721 1584 39.7995
139.838 1647 40.5832
139.954 1609 40.1123
140.071 1503 38.7685
140.187 1370 37.0135
140.303 1393 37.3229
140.419 1276 35.7211
140.535 1143 33.8083
140.652 1090 33.0151
140.768 0 1
140.884 0 1
141 0 1
141.115 0 1
141.231 0 1
141.347 0 1
141.463 0 1
141.578 0 1
141.694 0 1
144.104 0 1
144.219 0 1
144.335 0 1
144.45 0 1
144.566 0 1
144.682 0 1
144.798 0 1
144.914 0 1
145.03 0 1
145.146 1803 42.4617
145.262 1872 43.2666
145.378 2006 44.7884
145.494 1960 44.2719
145.61 1967 44.3509
145.726 1902 43.6119
145.842 1829 42.7668
145.959 1786 42.2611
146.075 1552 39.3954
146.192 1486 38.5487
146.308 1440 37.9473
146.425 1591 39.8873
146.541 1686 41.0609
146.658 1715 41.4126
146.774 1741 41.7253
146.891 1833 42.8135
147.008 1894 43.5201
147.125 1966 44.3396
147.241 1970 44.3847
147.358 1918 43.795
147.475 1944 44.0908
147.592 1876 43.3128
147.709 1856 43.0813
147.826 1829 42.7668
147.943 1777 42.1545
148.06 1685 41.0488
148.177 1664 40.7922
148.294 1712 41.3763
148.411 1794 42.3556
148.528 1860 43.1277
148.645 1927 43.8976
148.762 1947 44.1248
148.88 2038 45.1442
148.997 2021 44.9555
149.114 1905 43.6463
149.231 2002 44.7437
149.349 1957 44.238
149.466 1773 42.107
149.583 1827 42.7434
149.701 1739 41.7013
149.818 1516 38.9358
149.935 1593 39.9124
150.053 1583 39.7869
150.17 1722 41.497
150.287 1692 41.1339
150.405 1721 41.4849
150.522 1790 42.3084
150.64 1764 42
150.757 1766 42.0238
150.875 1890 43.4741
150.992 1803 42.4617
151.11 1924 43.8634
151.227 1837 42.8602
151.344 1796 42.3792
151.462 1773 42.107
151.579 1774 42.1189
151.697 1676 40.939
151.814 1718 41.4488
151.932 1596 39.95
152.049 1644 40.5463
152.167 1763 41.9881
152.284 1830 42.7785
152.402 1829 42.7668
152.519 1911 43.715
152.636 1886 43.4281
152.754 1912 43.7264
152.871 1956 44.2267
152.989 1865 43.1856
153.106 1877 43.3244
153.223 1671 40.8779
153.341 1582 39.7744
153.458 1542 39.2683
153.575 1490 38.6005
153.693 1455 38.1445
153.81 1572 39.6485
153.927 1614 40.1746
154.044 1643 40.5339
154.162 1737 41.6773
154.279 1715 41.4126
154.396 1758 41.9285
154.513 1813 42.5793
154.63 1786 42.2611
154.747 1759 41.9404
154.864 1772 42.0951
154.981 1781 42.2019
155.098 1679 40.9756
155.215 1607 40.0874
155.332 1585 39.8121
155.449 1611 40.1373
155.566 1539 39.2301
155.683 1616 40.1995
155.8 1594 39.9249
155.917 1629 40.3609
156.033 1575 39.6863
156.15 0 1
156.267 0 1
156.383 0 1
156.5 0 1
156.617 0 1
156.733 0 1
156.85 0 1
156.966 0 1
157.082 0 1
157.199 0 1
157.315 0 1
157.431 0 1
157.547 0 1
157.664 0 1
157.78 0 1
157.896 0 1
158.012 0 1
158.128 0 1
158.244 0 1
158.359 0 1
158.475 0 1
158.591 0 1
158.706 0 1
