
6.15755 0 1
6.2731 0 1
6.3887 0 1
6.50437 0 1
6.62009 0 1
6.73587 0 1
6.8517 0 1
6.96759 0 1
7.08353 0 1
7.19952 0 1
7.31557 0 1
7.43166 0 1
7.54781 0 1
7.664 0 1
7.78024 0 1
7.89653 0 1
8.01286 0 1
8.12924 0 1
8.24567 0 1
8.36213 0 1
8.47864 0 1
8.59519 0 1
8.71178 0 1
8.82841 0 1
8.94508 0 1
9.06179 0 1
9.17853 0 1
9.29531 0 1
9.41212 0 1
9.52897 0 1
9.64584 0 1
9.76276 0 1
9.8797 0 1
9.99667 0 1
10.1137 0 1
10.2307 0 1
10.3478 0 1
10.4648 0 1
10.5819 0 1
10.6991 0 1
10.8162 0 1
10.9334 0 1
11.0506 0 1
11.1678 0 1
11.285 0 1
11.4023 0 1
11.5196 0 1
11.6369 0 1
11.7542 0 1
11.8715 0 1
11.9888 0 1
12.1062 0 1
12.2235 0 1
12.3409 0 1
12.4582 0 1
12.5756 0 1
12.693 0 1
12.8104 0 1
12.9278 0 1
13.0452 0 1
13.1626 0 1
13.28 0 1
13.3974 0 1
13.5149 0 1
13.6323 0 1
13.7497 0 1
13.8671 0 1
13.9845 0 1
14.1019 0 1
14.2193 0 1
14.3367 0 1
14.4541 0 1
14.5714 0 1
14.6888 0 1
14.8062 0 1
14.9235 0 1
15.0408 0 0
15.1581 0 0
15.2755 0 0
15.3927 0 0
15.51 0 0
15.6273 0 0
15.7445 0 0
15.8617 0 0
15.9789 0 0
16.0961 0 0
16.2132 0 0
16.3304 0 0
16.4475 0 0
16.5646 0 0
16.6816 0 0
16.7986 0 0
16.9156 0 0
17.0326 0 0
17.1496 0 0
17.2665 0 0
17.3833 0 0
17.5002 0 0
17.617 0 0
17.7338 0 0
17.8505 0 0
17.9672 0 0
18.0839 0 0
18.2005 0 0
18.3171 0 0
18.4337 0 0
18.5502 0 0
18.6666 0 0
18.7831 0 0
18.8994 0 0
19.0158 0 0
19.1321 0 0
19.2483 0 0
19.3645 0 0
19.4806 0 0
19.5967 0 0
19.7128 0 0
19.8288 0 0
19.9447 0 0
20.0606 0 1
20.1764 0 1
20.2922 0 1
20.4079 0 1
20.5236 0 1
20.6392 0 1
20.7548 0 1
20.8702 0 1
23.3078 0 1
23.4233 0 1
23.539 0 1
23.6547 0 1
23.7704 0 1
23.8862 0 1
24.0021 0 1
24.118 0 1
24.234 0 1
24.35 0 1
24.4661 936 30.5941
24.5822 967 31.0966
24.6984 1043 32.2955
24.8146 1046 32.3419
24.9309 1059 32.5423
25.0472 1074 32.7719
25.1636 1068 32.6803
25.28 1141 33.7787
25.3965 1098 33.1361
25.513 1107 33.2716
25.6296 1134 33.6749
25.7462 1166 34.1467
25.8628 1107 33.2716
25.9795 1104 33.2265
26.0962 1155 33.9853
26.213 1148 33.8821
26.3298 1173 34.2491
26.4466 1138 33.7343
26.5635 1119 33.4515
26.6804 1079 32.8481
26.7973 1055 32.4808
26.9143 998 31.5911
27.0313 1030 32.0936
27.1483 1040 32.249
27.2653 905 30.0832
27.3824 1029 32.078
27.4996 1024 32
27.6167 970 31.1448
27.7339 970 31.1448
27.8511 1027 32.0468
27.9683 1016 31.8748
28.0855 988 31.4325
28.2028 946 30.7571
28.3201 929 30.4795
28.4374 1008 31.749
28.5547 1050 32.4037
28.6721 999 31.607
28.7894 1045 32.3265
28.9068 1023 31.9844
29.0242 1053 32.45
29.1416 1049 32.3883
29.259 1038 32.218
29.3764 1118 33.4365
29.4939 1099 33.1512
29.6113 1124 33.5261
29.7288 1013 31.8277
29.8463 1040 32.249
29.9638 1053 32.45
30.0812 1045 32.3265
30.1987 1020 31.9374
30.3162 994 31.5278
30.4337 990 31.4643
30.5512 863 29.3769
30.6687 902 30.0333
30.7862 960 30.9839
30.9037 936 30.5941
31.0212 946 30.7571
31.1387 1027 32.0468
31.2562 1037 32.2025
31.3737 975 31.225
31.4912 914 30.2324
31.6087 941 30.6757
31.7262 946 30.7571
31.8436 950 30.8221
31.9611 923 30.3809
32.0785 983 31.3528
32.1959 1062 32.5883
32.3134 1029 32.078
32.4308 1005 31.7017
32.5482 1004 31.686
32.6655 1054 32.4654
32.7829 1005 31.7017
32.9002 1073 32.7567
33.0176 1067 32.665
33.1349 1080 32.8634
33.2522 1052 32.4345
33.3694 1039 32.2335
33.4867 986 31.4006
33.6039 1014 31.8434
33.7211 1045 32.3265
33.8383 1100 33.1662
33.9554 1051 32.4191
34.0725 946 30.7571
34.1896 931 30.5123
34.3067 824 28.7054
34.4237 909 30.1496
34.5407 909 30.1496
34.6577 907 30.1164
34.7746 955 30.9031
34.8915 982 31.3369
35.0084 905 30.0832
35.1252 930 30.4959
35.242 907 30.1164
35.3587 925 30.4138
35.4755 901 30.0167
35.5921 959 30.9677
35.7088 1015 31.8591
35.8254 998 31.5911
35.9419 994 31.5278
36.0584 1012 31.8119
36.1749 1017 31.8904
36.2913 998 31.5911
36.4077 991 31.4802
36.524 994 31.5278
36.6403 1037 32.2025
36.7565 1059 32.5423
36.8727 1010 31.7805
36.9889 991 31.4802
37.1049 1030 32.0936
37.221 0 1
37.3369 0 1
37.4529 0 1
37.5687 0 1
37.6845 0 1
37.8003 0 1
37.916 0 1
38.0316 0 1
38.1472 0 1
40.5851 0 1
40.7008 0 1
40.8164 0 1
40.9322 0 1
41.048 0 1
41.1639 0 1
41.2798 0 1
41.3958 0 1
41.5118 0 1
41.6279 0 1
41.744 804 28.3549
41.8602 799 28.2666
41.9765 840 28.9828
42.0928 830 28.8097
42.2091 861 29.3428
42.3255 816 28.5657
42.4419 799 28.2666
42.5584 863 29.3769
42.675 836 28.9137
42.7915 789 28.0891
42.9081 838 28.9482
43.0248 712 26.6833
43.1415 686 26.1916
43.2582 738 27.1662
43.375 741 27.2213
43.4918 766 27.6767
43.6087 782 27.9643
43.7256 767 27.6948
43.8425 721 26.8514
43.9595 762 27.6043
44.0765 715 26.7395
44.1935 729 27
44.3106 722 26.8701
44.4277 770 27.7489
44.5448 774 27.8209
44.6619 811 28.4781
44.7791 783 27.9821
44.8963 747 27.3313
45.0136 747 27.3313
45.1308 664 25.7682
45.2481 777 27.8747
45.3654 757 27.5136
45.4827 783 27.9821
45.6001 740 27.2029
45.7174 704 26.533
45.8348 720 26.8328
45.9522 670 25.8844
46.0697 708 26.6083
46.1871 706 26.5707
46.3046 673 25.9422
46.422 676 26
46.5395 660 25.6905
46.657 610 24.6982
46.7745 566 23.7908
46.892 573 23.9374
47.0096 630 25.0998
47.1271 632 25.1396
47.2446 607 24.6374
47.3622 555 23.5584
47.4797 552 23.4947
47.5973 566 23.7908
47.7149 581 24.1039
47.8324 606 24.6171
47.95 562 23.7065
48.0675 618 24.8596
48.1851 545 23.3452
48.3027 554 23.5372
48.4202 600 24.4949
48.5378 603 24.5561
48.6554 598 24.454
48.7729 631 25.1197
48.8904 591 24.3105
49.008 600 24.4949
49.1255 602 24.5357
49.243 618 24.8596
49.3605 590 24.2899
49.478 619 24.8797
49.5955 650 25.4951
49.713 581 24.1039
49.8304 616 24.8193
49.9479 592 24.3311
50.0653 597 24.4336
50.1827 548 23.4094
50.3001 499 22.3383
50.4175 579 24.0624
50.5348 514 22.6716
50.6521 575 23.9792
50.7694 597 24.4336
50.8867 615 24.7992
51.004 604 24.5764
51.1212 609 24.6779
51.2384 658 25.6515
51.3556 674 25.9615
51.4727 712 26.6833
51.5899 683 26.1343
51.707 732 27.0555
51.824 759 27.55
51.9411 745 27.2947
52.0581 711 26.6646
52.175 746 27.313
52.2919 736 27.1293
52.4088 738 27.1662
52.5257 735 27.1109
52.6425 765 27.6586
52.7593 743 27.258
52.876 777 27.8747
52.9927 776 27.8568
53.1094 803 28.3373
53.226 804 28.3549
53.3426 802 28.3196
53.4591 776 27.8568
53.5756 761 27.5862
53.692 838 28.9482
53.8084 827 28.7576
53.9248 722 26.8701
54.0411 655 25.593
54.1573 706 26.5707
54.2735 0 1
54.3896 0 1
54.5057 0 1
54.6217 0 1
54.7377 0 1
54.8537 0 1
54.9695 0 1
55.0853 0 1
55.2011 0 1
55.3168 0 1
55.4324 0 1
57.824 0 1
57.9396 0 1
58.0553 0 1
58.1711 0 1
58.2869 0 1
58.4028 0 1
58.5187 0 1
58.6347 0 1
58.7508 0 1
58.8669 0 1
58.983 833 28.8617
59.0992 763 27.6225
59.2155 778 27.8927
59.3318 711 26.6646
59.4482 806 28.3901
59.5646 786 28.0357
59.681 816 28.5657
59.7975 813 28.5132
59.9141 809 28.4429
60.0306 893 29.8831
60.1473 848 29.1204
60.2639 888 29.7993
60.3807 866 29.4279
60.4974 845 29.0689
60.6142 803 28.3373
60.731 847 29.1033
60.8479 851 29.1719
60.9648 869 29.4788
61.0818 841 29
61.1987 831 28.8271
61.3158 847 29.1033
61.4328 832 28.8444
61.5499 860 29.3258
61.667 807 28.4077
61.7841 824 28.7054
61.9013 798 28.2489
62.0185 791 28.1247
62.1357 742 27.2397
62.253 801 28.3019
62.3702 765 27.6586
62.4875 735 27.1109
62.6049 721 26.8514
62.7222 681 26.096
62.8396 670 25.8844
62.9569 717 26.7769
63.0743 734 27.0924
63.1918 702 26.4953
63.3092 726 26.9444
63.4267 669 25.865
63.5441 745 27.2947
63.6616 726 26.9444
63.7791 758 27.5318
63.8966 747 27.3313
64.0142 733 27.074
64.1317 723 26.8887
64.2492 736 27.1293
64.3668 696 26.3818
64.4843 758 27.5318
64.6019 730 27.0185
64.7195 728 26.9815
64.837 754 27.4591
64.9546 710 26.6458
65.0722 712 26.6833
65.1898 711 26.6646
65.3074 699 26.4386
65.4249 741 27.2213
65.5425 706 26.5707
65.6601 727 26.9629
65.7777 698 26.4197
65.8952 730 27.0185
66.0128 653 25.5539
66.1304 581 24.1039
66.2479 574 23.9583
66.3655 570 23.8747
66.483 589 24.2693
66.6005 610 24.6982
66.718 606 24.6171
66.8355 641 25.318
66.953 659 25.671
67.0705 650 25.4951
67.1879 674 25.9615
67.3054 659 25.671
67.4228 692 26.3059
67.5402 682 26.1151
67.6576 680 26.0768
67.7749 650 25.4951
67.8923 681 26.096
68.0096 620 24.8998
68.1269 629 25.0799
68.2442 623 24.96
68.3614 656 25.6125
68.4787 650 25.4951
68.5958 655 25.593
68.713 626 25.02
68.8302 633 25.1595
68.9473 642 25.3377
69.0643 595 24.3926
69.1814 632 25.1396
69.2984 639 25.2784
69.4154 645 25.3969
69.5323 626 25.02
69.6492 672 25.923
69.7661 645 25.3969
69.8829 596 24.4131
69.9997 563 23.7276
70.1165 552 23.4947
70.2332 569 23.8537
70.3499 591 24.3105
70.4665 565 23.7697
70.5831 590 24.2899
70.6996 632 25.1396
70.8161 555 23.5584
70.9326 637 25.2389
71.049 637 25.2389
71.1653 563 23.7276
71.2817 593 24.3516
71.3979 581 24.1039
71.5141 564 23.7487
71.6303 565 23.7697
71.7464 494 22.2261
71.8624 0 1
71.9784 0 1
72.0944 0 1
72.2102 0 1
72.3261 0 1
72.4418 0 1
72.5575 0 1
72.6732 0 1
75.1054 0 1
75.2209 0 1
75.3365 0 1
75.4521 0 1
75.5678 0 1
75.6835 0 1
75.7993 0 1
75.9151 0 1
76.031 0 1
76.147 429 20.7123
76.263 474 21.7715
76.3791 491 22.1585
76.4952 455 21.3307
76.6113 489 22.1133
76.7276 477 21.8403
76.8438 464 21.5407
76.9601 426 20.6398
77.0765 426 20.6398
77.1929 432 20.7846
77.3093 422 20.5426
77.4258 427 20.664
77.5423 443 21.0476
77.6589 400 20
77.7755 441 21
77.8921 455 21.3307
78.0088 377 19.4165
78.1256 400 20
78.2423 393 19.8242
78.3591 389 19.7231
78.4759 399 19.975
78.5928 393 19.8242
78.7097 384 19.5959
78.8266 433 20.8087
78.9436 350 18.7083
79.0606 322 17.9444
79.1776 277 16.6433
79.2946 273 16.5227
79.4117 326 18.0555
79.5288 319 17.8606
79.6459 311 17.6352
79.7631 331 18.1934
79.8802 314 17.72
79.9974 311 17.6352
80.1147 308 17.5499
80.2319 309 17.5784
80.3491 311 17.6352
80.4664 290 17.0294
80.5837 299 17.2916
80.701 267 16.3401
80.8183 254 15.9374
80.9357 258 16.0624
81.053 293 17.1172
81.1704 263 16.2173
81.2877 255 15.9687
81.4051 249 15.7797
81.5225 249 15.7797
81.6399 222 14.8997
81.7573 251 15.843
81.8747 207 14.3875
81.9922 219 14.7986
82.1096 219 14.7986
82.227 186 13.6382
82.3444 181 13.4536
82.4619 202 14.2127
82.5793 199 14.1067
82.6967 181 13.4536
82.8142 166 12.8841
82.9316 129 11.3578
83.049 156 12.49
83.1664 179 13.3791
83.2838 142 11.9164
83.4012 136 11.6619
83.5186 151 12.2882
83.636 104 10.198
83.7534 119 10.9087
83.8708 135 11.619
83.9881 121 11
84.1055 109 10.4403
84.2228 112 10.583
84.3401 121 11
84.4575 114 10.6771
84.5747 102 10.0995
84.692 99 9.94987
84.8093 100 10
84.9265 84 9.16515
85.0437 101 10.0499
85.1609 79 8.88819
85.2781 91 9.53939
85.3952 83 9.11043
85.5123 76 8.7178
85.6294 90 9.48683
85.7465 90 9.48683
85.8636 100 10
85.9806 86 9.27362
86.0976 62 7.87401
86.2145 87 9.32738
86.3315 81 9
86.4484 107 10.3441
86.5652 99 9.94987
86.682 122 11.0454
86.7988 119 10.9087
86.9156 106 10.2956
87.0323 126 11.225
87.149 120 10.9545
87.2657 105 10.247
87.3823 112 10.583
87.4988 128 11.3137
87.6154 137 11.7047
87.7318 143 11.9583
87.8483 157 12.53
87.9647 149 12.2066
88.081 175 13.2288
88.1973 168 12.9615
88.3136 178 13.3417
88.4298 208 14.4222
88.546 171 13.0767
88.6621 187 13.6748
88.7781 229 15.1327
88.8942 0 1
89.0101 0 1
89.126 0 1
89.2419 0 1
89.3577 0 1
89.4734 0 1
89.5891 0 1
89.7047 0 1
89.8203 0 1
89.9358 0 1
92.3269 0 1
92.4424 0 1
92.558 0 1
92.6736 0 1
92.7893 0 1
92.905 0 1
93.0208 0 1
93.1366 0 1
93.2525 0 1
93.3685 0 1
93.4845 0 1
93.6005 304 17.4356
93.7167 331 18.1934
93.8328 343 18.5203
93.949 297 17.2337
94.0653 297 17.2337
94.1816 320 17.8885
94.2979 297 17.2337
94.4143 303 17.4069
94.5307 253 15.906
94.6472 271 16.4621
94.7637 257 16.0312
94.8803 270 16.4317
94.9969 292 17.088
95.1135 267 16.3401
95.2302 266 16.3095
95.3469 265 16.2788
95.4637 168 12.9615
95.5805 192 13.8564
95.6973 228 15.0997
95.8142 283 16.8226
95.9311 278 16.6733
96.048 258 16.0624
96.1649 315 17.7482
96.2819 310 17.6068
96.3989 323 17.9722
96.516 313 17.6918
96.633 326 18.0555
96.7501 350 18.7083
96.8673 350 18.7083
96.9844 341 18.4662
97.1016 352 18.7617
97.2188 361 19
97.336 335 18.303
97.4532 391 19.7737
97.5704 406 20.1494
97.6877 409 20.2237
97.805 412 20.2978
97.9223 446 21.1187
98.0396 419 20.4695
98.1569 460 21.4476
98.2743 461 21.4709
98.3916 479 21.8861
98.509 441 21
98.6264 449 21.1896
98.7438 467 21.6102
98.8612 492 22.1811
98.9786 398 19.9499
99.096 328 18.1108
99.2134 327 18.0831
99.3308 402 20.0499
99.4482 548 23.4094
99.5656 513 22.6495
99.6831 539 23.2164
99.8005 529 23
99.9179 511 22.6053
100.035 543 23.3024
100.153 581 24.1039
100.27 543 23.3024
100.388 584 24.1661
100.505 555 23.5584
100.622 601 24.5153
100.74 608 24.6577
100.857 616 24.8193
100.975 568 23.8328
101.092 608 24.6577
101.209 638 25.2587
101.327 615 24.7992
101.444 599 24.4745
101.561 626 25.02
101.679 592 24.3311
101.796 643 25.3574
101.913 671 25.9037
102.03 657 25.632
102.148 610 24.6982
102.265 683 26.1343
102.382 657 25.632
102.499 639 25.2784
102.616 501 22.383
102.733 433 20.8087
102.851 491 22.1585
102.968 648 25.4558
103.085 687 26.2107
103.202 648 25.4558
103.319 683 26.1343
103.436 665 25.7876
103.552 725 26.9258
103.669 661 25.7099
103.786 675 25.9808
103.903 709 26.6271
104.02 625 25
104.137 735 27.1109
104.253 706 26.5707
104.37 665 25.7876
104.487 728 26.9815
104.603 712 26.6833
104.72 680 26.0768
104.836 703 26.5141
104.953 699 26.4386
105.069 719 26.8142
105.186 693 26.3249
105.302 740 27.2029
105.418 727 26.9629
105.535 696 26.3818
105.651 710 26.6458
105.767 693 26.3249
105.883 641 25.318
105.999 601 24.5153
106.115 0 1
106.231 0 1
106.347 0 1
106.463 0 1
106.579 0 1
106.694 0 1
106.81 0 1
106.926 0 1
107.041 0 1
107.157 0 1
109.576 0 1
109.692 0 1
109.807 0 1
109.923 0 1
110.039 0 1
110.155 0 1
110.27 0 1
110.386 0 1
110.502 0 1
110.618 573 23.9374
110.735 597 24.4336
110.851 544 23.3238
110.967 549 23.4307
111.083 497 22.2935
111.199 428 20.6882
111.316 428 20.6882
111.432 498 22.3159
111.549 490 22.1359
111.665 556 23.5797
111.782 512 22.6274
111.898 474 21.7715
112.015 530 23.0217
112.132 525 22.9129
112.248 587 24.2281
112.365 471 21.7025
112.482 484 22
112.599 451 21.2368
112.716 468 21.6333
112.832 467 21.6102
112.949 438 20.9284
113.066 484 22
113.183 482 21.9545
113.3 424 20.5913
113.417 476 21.8174
113.534 474 21.7715
113.652 407 20.1742
113.769 410 20.2485
113.886 449 21.1896
114.003 427 20.664
114.12 411 20.2731
114.238 422 20.5426
114.355 368 19.1833
114.472 394 19.8494
114.589 385 19.6214
114.707 368 19.1833
114.824 403 20.0749
114.942 359 18.9473
115.059 394 19.8494
115.176 406 20.1494
115.294 404 20.0998
115.411 404 20.0998
115.529 417 20.4206
115.646 400 20
115.764 401 20.025
115.881 405 20.1246
115.999 409 20.2237
116.116 407 20.1742
116.234 408 20.199
116.351 401 20.025
116.469 369 19.2094
116.586 394 19.8494
116.704 380 19.4936
116.821 366 19.1311
116.939 441 21
117.056 426 20.6398
117.174 427 20.664
117.291 395 19.8746
117.409 442 21.0238
117.526 367 19.1572
117.644 403 20.0749
117.761 398 19.9499
117.879 367 19.1572
117.996 293 17.1172
118.114 295 17.1756
118.231 378 19.4422
118.349 339 18.412
118.466 409 20.2237
118.584 352 18.7617
118.701 394 19.8494
118.819 379 19.4679
118.936 423 20.567
119.053 409 20.2237
119.171 383 19.5704
119.288 429 20.7123
119.405 396 19.8997
119.523 409 20.2237
119.64 411 20.2731
119.757 391 19.7737
119.875 412 20.2978
119.992 439 20.9523
120.109 430 20.7364
120.226 414 20.347
120.343 404 20.0998
120.46 458 21.4009
120.578 403 20.0749
120.695 433 20.8087
120.812 402 20.0499
120.929 442 21.0238
121.046 431 20.7605
121.163 429 20.7123
121.279 438 20.9284
121.396 440 20.9762
121.513 375 19.3649
121.63 322 17.9444
121.747 271 16.4621
121.863 320 17.8885
121.98 344 18.5472
122.097 402 20.0499
122.213 402 20.0499
122.33 436 20.8806
122.446 384 19.5959
122.563 410 20.2485
122.679 395 19.8746
122.795 397 19.9249
122.912 461 21.4709
123.028 448 21.166
123.144 461 21.4709
123.26 468 21.6333
123.377 0 1
123.493 0 1
123.609 0 1
123.725 0 1
123.84 0 1
123.956 0 1
124.072 0 1
124.188 0 1
124.303 0 1
124.419 0 1
126.852 0 1
126.968 0 1
127.083 0 1
127.199 0 1
127.315 0 1
127.431 0 1
127.547 0 1
127.663 0 1
127.779 0 1
127.895 0 1
128.011 0 1
128.127 0 1
128.243 0 1
128.359 559 23.6432
128.476 536 23.1517
128.592 568 23.8328
128.708 569 23.8537
128.825 554 23.5372
128.941 621 24.9199
129.058 566 23.7908
129.174 574 23.9583
129.291 569 23.8537
129.408 596 24.4131
129.524 579 24.0624
129.641 607 24.6374
129.758 578 24.0416
129.875 567 23.8118
129.992 567 23.8118
130.108 554 23.5372
130.225 590 24.2899
130.342 545 23.3452
130.459 472 21.7256
130.576 454 21.3073
130.693 431 20.7605
130.81 387 19.6723
130.928 426 20.6398
131.045 465 21.5639
131.162 544 23.3238
131.279 584 24.1661
131.396 593 24.3516
131.513 609 24.6779
131.631 626 25.02
131.748 602 24.5357
131.865 609 24.6779
131.983 607 24.6374
132.1 613 24.7588
132.217 618 24.8596
132.335 575 23.9792
132.452 604 24.5764
132.57 640 25.2982
132.687 602 24.5357
132.804 632 25.1396
132.922 620 24.8998
133.039 642 25.3377
133.157 585 24.1868
133.274 603 24.5561
133.392 647 25.4362
133.509 619 24.8797
133.627 582 24.1247
133.744 608 24.6577
133.862 577 24.0208
133.979 526 22.9347
134.097 511 22.6053
134.214 487 22.0681
134.332 421 20.5183
134.449 510 22.5832
134.567 453 21.2838
134.684 574 23.9583
134.802 597 24.4336
134.919 620 24.8998
135.037 719 26.8142
135.154 636 25.219
135.272 670 25.8844
135.389 682 26.1151
135.507 699 26.4386
135.624 685 26.1725
135.742 648 25.4558
135.859 723 26.8887
135.977 680 26.0768
136.094 627 25.04
136.211 687 26.2107
136.329 648 25.4558
136.446 662 25.7294
136.564 684 26.1534
136.681 635 25.1992
136.798 699 26.4386
136.915 734 27.0924
137.033 703 26.5141
137.15 678 26.0384
137.267 672 25.923
137.384 648 25.4558
137.502 585 24.1868
137.619 627 25.04
137.736 584 24.1661
137.853 525 22.9129
137.97 519 22.7816
138.087 524 22.891
138.204 570 23.8747
138.321 606 24.6171
138.438 622 24.9399
138.555 689 26.2488
138.672 727 26.9629
138.788 710 26.6458
138.905 739 27.1846
139.022 790 28.1069
139.139 798 28.2489
139.255 717 26.7769
139.372 765 27.6586
139.488 772 27.7849
139.605 734 27.0924
139.721 761 27.5862
139.838 784 28
139.954 742 27.2397
140.071 727 26.9629
140.187 696 26.3818
140.303 742 27.2397
140.419 699 26.4386
140.535 717 26.7769
140.652 697 26.4008
140.768 0 1
140.884 0 1
141 0 1
141.115 0 1
141.231 0 1
141.347 0 1
141.463 0 1
141.578 0 1
141.694 0 1
144.104 0 1
144.219 0 1
144.335 0 1
144.45 0 1
144.566 0 1
144.682 0 1
144.798 0 1
144.914 0 1
145.03 0 1
145.146 723 26.8887
145.262 704 26.533
145.378 757 27.5136
145.494 766 27.6767
145.61 689 26.2488
145.726 686 26.1916
145.842 681 26.096
145.959 645 25.3969
146.075 631 25.1197
146.192 616 24.8193
146.308 638 25.2587
146.425 588 24.2487
146.541 565 23.7697
146.658 546 23.3666
146.774 575 23.9792
146.891 602 24.5357
147.008 620 24.8998
147.125 632 25.1396
147.241 702 26.4953
147.358 697 26.4008
147.475 763 27.6225
147.592 735 27.1109
147.709 738 27.1662
147.826 697 26.4008
147.943 728 26.9815
148.06 687 26.2107
148.177 718 26.7955
148.294 707 26.5895
148.411 681 26.096
148.528 753 27.4408
148.645 739 27.1846
148.762 729 27
148.88 720 26.8328
148.997 691 26.2869
149.114 721 26.8514
149.231 700 26.4575
149.349 699 26.4386
149.466 704 26.533
149.583 624 24.98
149.701 639 25.2784
149.818 647 25.4362
149.935 638 25.2587
150.053 567 23.8118
150.17 580 24.0832
150.287 582 24.1247
150.405 592 24.3311
150.522 579 24.0624
150.64 684 26.1534
150.757 654 25.5734
150.875 649 25.4755
150.992 726 26.9444
151.11 715 26.7395
151.227 733 27.074
151.344 724 26.9072
151.462 732 27.0555
151.579 714 26.7208
151.697 735 27.1109
151.814 740 27.2029
151.932 742 27.2397
152.049 734 27.0924
152.167 775 27.8388
152.284 750 27.3861
152.402 734 27.0924
152.519 783 27.9821
152.636 717 26.7769
152.754 741 27.2213
152.871 691 26.2869
152.989 719 26.8142
153.106 680 26.0768
153.223 649 25.4755
153.341 690 26.2679
153.458 718 26.7955
153.575 619 24.8797
153.693 581 24.1039
153.81 652 25.5343
153.927 648 25.4558
154.044 610 24.6982
154.162 669 25.865
154.279 623 24.96
154.396 682 26.1151
154.513 756 27.4955
154.63 736 27.1293
154.747 780 27.9285
154.864 785 28.0179
154.981 778 27.8927
155.098 806 28.3901
155.215 742 27.2397
155.332 770 27.7489
155.449 763 27.6225
155.566 691 26.2869
155.683 799 28.2666
155.8 781 27.9464
155.917 778 27.8927
156.033 826 28.7402
156.15 0 1
156.267 0 1
156.383 0 1
156.5 0 1
156.617 0 1
156.733 0 1
156.85 0 1
156.966 0 1
157.082 0 1
157.199 0 1
157.315 0 1
157.431 0 1
157.547 0 1
157.664 0 1
157.78 0 1
157.896 0 1
158.012 0 1
158.128 0 1
158.244 0 1
158.359 0 1
158.475 0 1
158.591 0 1
158.706 0 1
