
6.15755 0 1
6.2731 0 1
6.3887 0 1
6.50437 0 1
6.62009 0 1
6.73587 0 1
6.8517 0 1
6.96759 0 1
7.08353 0 1
7.19952 0 1
7.31557 0 1
7.43166 0 1
7.54781 0 1
7.664 0 1
7.78024 0 1
7.89653 0 1
8.01286 0 1
8.12924 0 1
8.24567 0 1
8.36213 0 1
8.47864 0 1
8.59519 0 1
8.71178 0 1
8.82841 0 1
8.94508 0 1
9.06179 0 1
9.17853 0 1
9.29531 0 1
9.41212 0 1
9.52897 0 1
9.64584 0 1
9.76276 0 1
9.8797 0 1
9.99667 0 1
10.1137 0 1
10.2307 0 1
10.3478 0 1
10.4648 0 1
10.5819 0 1
10.6991 0 1
10.8162 0 1
10.9334 0 1
11.0506 0 1
11.1678 0 1
11.285 0 1
11.4023 0 1
11.5196 0 1
11.6369 0 1
11.7542 0 1
11.8715 0 1
11.9888 0 1
12.1062 0 1
12.2235 0 1
12.3409 0 1
12.4582 0 1
12.5756 0 1
12.693 0 1
12.8104 0 1
12.9278 0 1
13.0452 0 1
13.1626 0 1
13.28 0 1
13.3974 0 1
13.5149 0 1
13.6323 0 1
13.7497 0 1
13.8671 0 1
13.9845 0 1
14.1019 0 1
14.2193 0 1
14.3367 0 1
14.4541 0 1
14.5714 0 1
14.6888 0 1
14.8062 0 1
14.9235 0 1
15.0408 16097 126.874
15.1581 16350 127.867
15.2755 16866 129.869
15.3927 17103 130.778
15.51 16889 129.958
15.6273 17019 130.457
15.7445 17115 130.824
15.8617 17339 131.678
15.9789 17278 131.446
16.0961 17557 132.503
16.2132 17858 133.634
16.3304 18286 135.226
16.4475 18823 137.197
16.5646 19206 138.586
16.6816 20080 141.704
16.7986 20467 143.063
16.9156 21037 145.041
17.0326 21849 147.814
17.1496 21737 147.435
17.2665 22231 149.101
17.3833 22460 149.867
17.5002 22283 149.275
17.617 22111 148.698
17.7338 21291 145.914
17.8505 20765 144.101
17.9672 20266 142.359
18.0839 19731 140.467
18.2005 20923 144.648
18.3171 21912 148.027
18.4337 22399 149.663
18.5502 23161 152.187
18.6666 23428 153.062
18.7831 23957 154.78
18.8994 23749 154.107
19.0158 23489 153.261
19.1321 22910 151.36
19.2483 22903 151.337
19.3645 21838 147.777
19.4806 21812 147.689
19.5967 21630 147.071
19.7128 20996 144.9
19.8288 20564 143.402
19.9447 18855 137.314
20.0606 0 1
20.1764 0 1
20.2922 0 1
20.4079 0 1
20.5236 0 1
20.6392 0 1
20.7548 0 1
20.8702 0 1
23.3078 0 1
23.4233 0 1
23.539 0 1
23.6547 0 1
23.7704 0 1
23.8862 0 1
24.0021 0 1
24.118 0 1
24.234 0 1
24.35 0 1
24.4661 21818 147.709
24.5822 22111 148.698
24.6984 21764 147.526
24.8146 21603 146.98
24.9309 21244 145.753
25.0472 21416 146.342
25.1636 21730 147.411
25.28 22592 150.306
25.3965 23291 152.614
25.513 23787 154.23
25.6296 24718 157.22
25.7462 25469 159.59
25.8628 25268 158.959
25.9795 25082 158.373
26.0962 25295 159.044
26.213 24660 157.035
26.3298 23784 154.221
26.4466 22631 150.436
26.5635 21888 147.946
26.6804 22042 148.465
26.7973 22913 151.37
26.9143 23616 153.675
27.0313 24006 154.939
27.1483 24759 157.35
27.2653 24911 157.832
27.3824 25184 158.695
27.4996 24695 157.146
27.6167 24402 156.211
27.7339 24079 155.174
27.8511 23452 153.14
27.9683 23225 152.398
28.0855 23055 151.839
28.2028 22411 149.703
28.3201 21934 148.101
28.4374 21948 148.149
28.5547 21898 147.98
28.6721 21791 147.618
28.7894 22606 150.353
28.9068 23290 152.611
29.0242 23585 153.574
29.1416 24214 155.608
29.259 24736 157.277
29.3764 24947 157.946
29.4939 24728 157.251
29.6113 24805 157.496
29.7288 23792 154.247
29.8463 22800 150.997
29.9638 21647 147.129
30.0812 20750 144.049
30.1987 20634 143.645
30.3162 21635 147.088
30.4337 21993 148.3
30.5512 22884 151.275
30.6687 23240 152.447
30.7862 24258 155.75
30.9037 24018 154.977
31.0212 24054 155.094
31.1387 24193 155.541
31.2562 23634 153.734
31.3737 23211 152.352
31.4912 22953 151.502
31.6087 22784 150.944
31.7262 22323 149.409
31.8436 21706 147.33
31.9611 21616 147.024
32.0785 21230 145.705
32.1959 21614 147.017
32.3134 22059 148.523
32.4308 22575 150.25
32.5482 22942 151.466
32.6655 23570 153.525
32.7829 24399 156.202
32.9002 23856 154.454
33.0176 24151 155.406
33.1349 24107 155.264
33.2522 24452 156.371
33.3694 23667 153.841
33.4867 22514 150.047
33.6039 20809 144.253
33.7211 20250 142.302
33.8383 19761 140.574
33.9554 20262 142.345
34.0725 21177 145.523
34.1896 21866 147.872
34.3067 22213 149.04
34.4237 22598 150.326
34.5407 23084 151.934
34.6577 22920 151.394
34.7746 23017 151.714
34.8915 22774 150.911
35.0084 22582 150.273
35.1252 22187 148.953
35.242 21967 148.213
35.3587 21185 145.551
35.4755 21076 145.176
35.5921 20860 144.43
35.7088 20313 142.524
35.8254 20361 142.692
35.9419 20578 143.45
36.0584 20789 144.184
36.1749 21773 147.557
36.2913 22318 149.392
36.4077 22820 151.063
36.524 23393 152.948
36.6403 23091 151.957
36.7565 23105 152.003
36.8727 23198 152.309
36.9889 22572 150.24
37.1049 21081 145.193
37.221 0 1
37.3369 0 1
37.4529 0 1
37.5687 0 1
37.6845 0 1
37.8003 0 1
37.916 0 1
38.0316 0 1
38.1472 0 1
40.5851 0 1
40.7008 0 1
40.8164 0 1
40.9322 0 1
41.048 0 1
41.1639 0 1
41.2798 0 1
41.3958 0 1
41.5118 0 1
41.6279 0 1
41.744 17925 133.884
41.8602 18957 137.684
41.9765 19267 138.806
42.0928 19512 139.685
42.2091 18738 136.887
42.3255 17915 133.847
42.4419 16642 129.004
42.5584 15885 126.036
42.675 15264 123.548
42.7915 15894 126.071
42.9081 16822 129.7
43.0248 17048 130.568
43.1415 17658 132.883
43.2582 17633 132.789
43.375 18291 135.244
43.4918 18147 134.711
43.6087 18345 135.444
43.7256 18169 134.792
43.8425 17832 133.537
43.9595 17454 132.114
44.0765 16997 130.373
44.1935 16667 129.101
44.3106 16103 126.898
44.4277 15725 125.399
44.5448 15190 123.248
44.6619 14894 122.041
44.7791 14938 122.221
44.8963 14934 122.205
45.0136 15442 124.266
45.1308 15649 125.096
45.2481 15997 126.479
45.3654 15962 126.341
45.4827 15650 125.1
45.6001 15651 125.104
45.7174 15156 123.11
45.8348 14366 119.858
45.9522 13113 114.512
46.0697 12352 111.14
46.1871 11926 109.206
46.3046 11747 108.384
46.422 12447 111.566
46.5395 13068 114.315
46.657 13427 115.875
46.7745 13624 116.722
46.892 13843 117.656
47.0096 14097 118.731
47.1271 14052 118.541
47.2446 14031 118.453
47.3622 13937 118.055
47.4797 13583 116.546
47.5973 13536 116.344
47.7149 13074 114.342
47.8324 13152 114.682
47.95 12550 112.027
48.0675 12172 110.327
48.1851 12051 109.777
48.3027 11873 108.963
48.4202 12210 110.499
48.5378 12262 110.734
48.6554 12842 113.323
48.7729 13446 115.957
48.8904 13374 115.646
49.008 13503 116.202
49.1255 13291 115.287
49.243 13050 114.237
49.3605 12204 110.472
49.478 11386 106.705
49.5955 10600 102.956
49.713 10150 100.747
49.8304 10393 101.946
49.9479 10926 104.528
50.0653 11900 109.087
50.1827 12492 111.768
50.3001 13022 114.114
50.4175 13257 115.139
50.5348 13265 115.174
50.6521 14303 119.595
50.7694 14170 119.038
50.8867 14209 119.202
51.004 14576 120.731
51.1212 14608 120.864
51.2384 14542 120.59
51.3556 14559 120.661
51.4727 14608 120.864
51.5899 14357 119.821
51.707 14196 119.147
51.824 14284 119.516
51.9411 14647 121.025
52.0581 15743 125.471
52.175 16329 127.785
52.2919 16924 130.092
52.4088 17017 130.449
52.5257 17232 131.271
52.6425 17476 132.197
52.7593 17357 131.746
52.876 16731 129.348
52.9927 15920 126.174
53.1094 14762 121.499
53.226 14242 119.34
53.3426 13618 116.696
53.4591 13958 118.144
53.5756 14807 121.684
53.692 15868 125.968
53.8084 16848 129.8
53.9248 17341 131.685
54.0411 17779 133.338
54.1573 18030 134.276
54.2735 0 1
54.3896 0 1
54.5057 0 1
54.6217 0 1
54.7377 0 1
54.8537 0 1
54.9695 0 1
55.0853 0 1
55.2011 0 1
55.3168 0 1
55.4324 0 1
57.824 0 1
57.9396 0 1
58.0553 0 1
58.1711 0 1
58.2869 0 1
58.4028 0 1
58.5187 0 1
58.6347 0 1
58.7508 0 1
58.8669 0 1
58.983 19609 140.032
59.0992 20985 144.862
59.2155 21655 147.156
59.3318 22252 149.171
59.4482 22481 149.937
59.5646 22814 151.043
59.681 22937 151.45
59.7975 23125 152.069
59.9141 22619 150.396
60.0306 22287 149.288
60.1473 21714 147.357
60.2639 20884 144.513
60.3807 20232 142.239
60.4974 20003 141.432
60.6142 20119 141.841
60.731 20467 143.063
60.8479 21155 145.448
60.9648 21486 146.581
61.0818 22059 148.523
61.1987 21950 148.155
61.3158 21548 146.792
61.4328 21259 145.805
61.5499 20157 141.975
61.667 18701 136.752
61.7841 17756 133.252
61.9013 16900 130
62.0185 16729 129.341
62.1357 17281 131.457
62.253 18202 134.915
62.3702 19409 139.316
62.4875 20148 141.944
62.6049 20556 143.374
62.7222 20761 144.087
62.8396 21720 147.377
62.9569 22017 148.381
63.0743 21838 147.777
63.1918 22065 148.543
63.3092 22077 148.583
63.4267 21530 146.731
63.5441 21321 146.017
63.6616 20847 144.385
63.7791 20134 141.894
63.8966 19287 138.878
64.0142 18513 136.062
64.1317 19104 138.217
64.2492 19451 139.467
64.3668 20115 141.827
64.4843 20645 143.684
64.6019 20813 144.267
64.7195 21015 144.966
64.837 21180 145.534
64.9546 20662 143.743
65.0722 19690 140.321
65.1898 18133 134.659
65.3074 17278 131.446
65.4249 15987 126.44
65.5425 15411 124.141
65.6601 15750 125.499
65.7777 16590 128.802
65.8952 17620 132.74
66.0128 18837 137.248
66.1304 19916 141.124
66.2479 20324 142.562
66.3655 20865 144.447
66.483 21206 145.623
66.6005 21317 146.003
66.718 21598 146.963
66.8355 21672 147.214
66.953 21795 147.631
67.0705 21428 146.383
67.1879 21152 145.437
67.3054 20635 143.649
67.4228 19828 140.812
67.5402 18655 136.583
67.6576 18276 135.189
67.7749 18216 134.967
67.8923 18957 137.684
68.0096 19826 140.805
68.1269 20844 144.375
68.2442 20840 144.361
68.3614 20945 144.724
68.4787 20965 144.793
68.5958 21293 145.921
68.713 20252 142.31
68.8302 18993 137.815
68.9473 17798 133.409
69.0643 16905 130.019
69.1814 16073 126.779
69.2984 15926 126.198
69.4154 16994 130.361
69.5323 18382 135.58
69.6492 19600 140
69.7661 20600 143.527
69.8829 21059 145.117
69.9997 21975 148.24
70.1165 22331 149.436
70.2332 22950 151.493
70.3499 22783 150.94
70.4665 23290 152.611
70.5831 23156 152.171
70.6996 22629 150.429
70.8161 22812 151.036
70.9326 21707 147.333
71.049 21080 145.19
71.1653 20027 141.517
71.2817 18494 135.993
71.3979 18219 134.978
71.5141 17930 133.903
71.6303 18763 136.978
71.7464 18730 136.858
71.8624 0 1
71.9784 0 1
72.0944 0 1
72.2102 0 1
72.3261 0 1
72.4418 0 1
72.5575 0 1
72.6732 0 1
75.1054 0 1
75.2209 0 1
75.3365 0 1
75.4521 0 1
75.5678 0 1
75.6835 0 1
75.7993 0 1
75.9151 0 1
76.031 0 1
76.147 19784 140.656
76.263 20384 142.773
76.3791 19449 139.46
76.4952 18730 136.858
76.6113 19074 138.109
76.7276 19753 140.545
76.8438 21019 144.979
76.9601 22286 149.285
77.0765 22516 150.053
77.1929 22536 150.12
77.3093 22665 150.549
77.4258 22503 150.01
77.5423 20940 144.707
77.6589 19502 139.65
77.7755 17933 133.914
77.8921 16839 129.765
78.0088 16043 126.661
78.1256 15374 123.992
78.2423 16439 128.215
78.3591 17828 133.522
78.4759 19064 138.072
78.5928 20408 142.857
78.7097 20987 144.869
78.8266 21128 145.355
78.9436 23338 152.768
79.0606 22935 151.443
79.1776 23071 151.891
79.2946 23162 152.191
79.4117 23410 153.003
79.5288 23296 152.63
79.6459 23243 152.457
79.7631 22021 148.395
79.8802 21660 147.173
79.9974 20327 142.573
80.1147 18804 137.128
80.2319 18678 136.667
80.3491 19896 141.053
80.4664 21330 146.048
80.5837 21845 147.801
80.701 22178 148.923
80.8183 22412 149.706
80.9357 22163 148.872
81.053 22195 148.98
81.1704 21574 146.881
81.2877 19743 140.51
81.4051 18400 135.647
81.5225 17152 130.966
81.6399 16176 127.185
81.7573 15826 125.801
81.8747 16111 126.929
81.9922 17689 133
82.1096 19140 138.347
82.227 20488 143.136
82.3444 21367 146.175
82.4619 21977 148.246
82.5793 22751 150.834
82.6967 22646 150.486
82.8142 22927 151.417
82.9316 23263 152.522
83.049 23286 152.598
83.1664 23241 152.45
83.2838 22977 151.582
83.4012 22461 149.87
83.5186 21535 146.748
83.636 19993 141.397
83.7534 18540 136.162
83.8708 18686 136.697
83.9881 19525 139.732
84.1055 20783 144.163
84.2228 22276 149.251
84.3401 22770 150.897
84.4575 22764 150.877
84.5747 22406 149.686
84.692 21691 147.279
84.8093 20795 144.205
84.9265 18838 137.252
85.0437 18104 134.551
85.1609 16856 129.831
85.2781 16119 126.961
85.3952 16195 127.26
85.5123 17257 131.366
85.6294 18897 137.466
85.7465 20290 142.443
85.8636 21369 146.181
85.9806 21945 148.138
86.0976 22929 151.423
86.2145 23478 153.225
86.3315 23985 154.871
86.4484 24183 155.509
86.5652 24740 157.29
86.682 24538 156.646
86.7988 24264 155.769
86.9156 24132 155.345
87.0323 23120 152.053
87.149 22447 149.823
87.2657 20887 144.523
87.3823 19651 140.182
87.4988 20529 143.279
87.6154 21626 147.058
87.7318 23033 151.766
87.8483 23361 152.843
87.9647 23674 153.864
88.081 23761 154.146
88.1973 23182 152.256
88.3136 22506 150.02
88.4298 20802 144.229
88.546 19201 138.568
88.6621 17905 133.81
88.7781 16846 129.792
88.8942 0 1
89.0101 0 1
89.126 0 1
89.2419 0 1
89.3577 0 1
89.4734 0 1
89.5891 0 1
89.7047 0 1
89.8203 0 1
89.9358 0 1
92.3269 0 1
92.4424 0 1
92.558 0 1
92.6736 0 1
92.7893 0 1
92.905 0 1
93.0208 0 1
93.1366 0 1
93.2525 0 1
93.3685 0 1
93.4845 0 1
93.6005 19735 140.481
93.7167 18881 137.408
93.8328 17876 133.701
93.949 17302 131.537
94.0653 16863 129.858
94.1816 16606 128.864
94.2979 17277 131.442
94.4143 19009 137.873
94.5307 20094 141.753
94.6472 20809 144.253
94.7637 21949 148.152
94.8803 22224 149.077
94.9969 22631 150.436
95.1135 23260 152.512
95.2302 23576 153.545
95.3469 23779 154.204
95.4637 24162 155.441
95.5805 23926 154.68
95.6973 24046 155.068
95.8142 24007 154.942
95.9311 23176 152.237
96.048 22612 150.373
96.1649 21185 145.551
96.2819 20341 142.622
96.3989 19923 141.149
96.516 20408 142.857
96.633 21971 148.226
96.7501 22957 151.516
96.8673 23345 152.791
96.9844 23126 152.072
97.1016 23046 151.809
97.2188 21942 148.128
97.336 21225 145.688
97.4532 19823 140.794
97.5704 18459 135.864
97.6877 17483 132.223
97.805 16952 130.2
97.9223 16757 129.449
98.0396 17237 131.29
98.1569 18381 135.577
98.2743 19796 140.698
98.3916 20418 142.892
98.509 21714 147.357
98.6264 21910 148.02
98.7438 22755 150.848
98.8612 23054 151.835
98.9786 23778 154.201
99.096 23636 153.74
99.2134 23742 154.084
99.3308 23701 153.951
99.4482 23329 152.738
99.5656 22760 150.864
99.6831 22209 149.027
99.8005 21096 145.245
99.9179 20026 141.513
100.035 19636 140.129
100.153 20690 143.84
100.27 21996 148.31
100.388 22491 149.97
100.505 22742 150.805
100.622 22542 150.14
100.74 22579 150.263
100.857 21682 147.248
100.975 20700 143.875
101.092 19513 139.689
101.209 18512 136.059
101.327 17338 131.674
101.444 16610 128.88
101.561 16734 129.36
101.679 17811 133.458
101.796 19012 137.884
101.913 20613 143.572
102.03 21151 145.434
102.148 22421 149.736
102.265 21259 145.805
102.382 25420 159.437
102.499 24118 155.3
102.616 24547 156.675
102.733 24922 157.867
102.851 24945 157.94
102.968 25230 158.84
103.085 24334 155.994
103.202 23821 154.341
103.319 23189 152.279
103.436 21686 147.262
103.552 21122 145.334
103.669 22423 149.743
103.786 23668 153.844
103.903 24496 156.512
104.02 24727 157.248
104.137 24643 156.981
104.253 24203 155.573
104.37 23619 153.685
104.487 22503 150.01
104.603 21112 145.3
104.72 19657 140.203
104.836 18461 135.871
104.953 18247 135.081
105.069 18327 135.377
105.186 19366 139.162
105.302 21089 145.221
105.418 22479 149.93
105.535 23223 152.391
105.651 23937 154.716
105.767 25016 158.164
105.883 25420 159.437
105.999 25857 160.801
106.115 0 1
106.231 0 1
106.347 0 1
106.463 0 1
106.579 0 1
106.694 0 1
106.81 0 1
106.926 0 1
107.041 0 1
107.157 0 1
109.576 0 1
109.692 0 1
109.807 0 1
109.923 0 1
110.039 0 1
110.155 0 1
110.27 0 1
110.386 0 1
110.502 0 1
110.618 20087 141.729
110.735 21478 146.554
110.851 21995 148.307
110.967 22235 149.114
111.083 23004 151.671
111.199 22323 149.409
111.316 22984 151.605
111.432 23018 151.717
111.549 22662 150.539
111.665 21995 148.307
111.782 20863 144.44
111.898 19668 140.243
112.015 18764 136.982
112.132 19322 139.004
112.248 20300 142.478
112.365 21119 145.324
112.482 21974 148.236
112.599 20926 144.658
112.716 20979 144.841
112.832 20183 142.067
112.949 18706 136.77
113.066 17680 132.966
113.183 16517 128.518
113.3 15784 125.634
113.417 15059 122.715
113.534 14413 120.054
113.652 14664 121.095
113.769 15565 124.76
113.886 16325 127.769
114.003 17048 130.568
114.12 17478 132.204
114.238 18017 134.227
114.355 17995 134.145
114.472 18813 137.16
114.589 18395 135.628
114.707 18673 136.649
114.824 18372 135.543
114.942 18380 135.573
115.059 18159 134.755
115.176 17718 133.109
115.294 17082 130.698
115.411 15975 126.392
115.529 14870 121.943
115.646 14794 121.631
115.764 15699 125.296
115.881 16262 127.523
115.999 16025 126.59
116.116 16190 127.24
116.234 15933 126.226
116.351 15602 124.908
116.469 14709 121.281
116.586 13899 117.894
116.704 13184 114.822
116.821 12621 112.343
116.939 11816 108.701
117.056 11426 106.892
117.174 11349 106.532
117.291 11932 109.234
117.409 12451 111.584
117.526 12838 113.305
117.644 13577 116.52
117.761 14027 118.436
117.879 14557 120.652
117.996 14450 120.208
118.114 14946 122.254
118.231 15028 122.589
118.349 15026 122.581
118.466 15039 122.634
118.584 15602 124.908
118.701 15092 122.85
118.819 15067 122.748
118.936 14556 120.648
119.053 13911 117.945
119.171 13074 114.342
119.288 13668 116.91
119.405 14202 119.172
119.523 14621 120.917
119.64 15104 122.898
119.757 15283 123.624
119.875 15202 123.296
119.992 15269 123.568
120.109 14722 121.334
120.226 14265 119.436
120.343 13687 116.991
120.46 13048 114.228
120.578 12739 112.867
120.695 12405 111.378
120.812 12323 111.009
120.929 12498 111.794
121.046 13329 115.451
121.163 13917 117.97
121.279 14582 120.756
121.396 15024 122.572
121.513 15646 125.084
121.63 16096 126.87
121.747 16494 128.429
121.863 16680 129.151
121.98 17342 131.689
122.097 17433 132.034
122.213 17580 132.59
122.33 17499 132.284
122.446 17530 132.401
122.563 17567 132.541
122.679 16972 130.277
122.795 16413 128.113
122.912 15794 125.674
123.028 16065 126.748
123.144 17085 130.71
123.26 17500 132.288
123.377 0 1
123.493 0 1
123.609 0 1
123.725 0 1
123.84 0 1
123.956 0 1
124.072 0 1
124.188 0 1
124.303 0 1
124.419 0 1
126.852 0 1
126.968 0 1
127.083 0 1
127.199 0 1
127.315 0 1
127.431 0 1
127.547 0 1
127.663 0 1
127.779 0 1
127.895 0 1
128.011 0 1
128.127 0 1
128.243 0 1
128.359 18921 137.554
128.476 20198 142.12
128.592 21065 145.138
128.708 21001 144.917
128.825 21273 145.853
128.941 21269 145.839
129.058 21192 145.575
129.174 20422 142.906
129.291 19295 138.906
129.408 18719 136.817
129.524 17443 132.072
129.641 16973 130.28
129.758 16496 128.437
129.875 16466 128.32
129.992 16288 127.624
130.108 17220 131.225
130.225 17437 132.049
130.342 17917 133.854
130.459 18554 136.213
130.576 18217 134.97
130.693 18556 136.22
130.81 19130 138.311
130.928 19099 138.199
131.045 19080 138.13
131.162 19166 138.441
131.279 19292 138.896
131.396 19155 138.402
131.513 19164 138.434
131.631 18441 135.798
131.748 17441 132.064
131.865 16755 129.441
131.983 17517 132.352
132.1 18291 135.244
132.217 18786 137.062
132.335 18429 135.753
132.452 18533 136.136
132.57 18491 135.982
132.687 17405 131.928
132.804 17353 131.731
132.922 15982 126.42
133.039 15290 123.653
133.157 14933 122.201
133.274 14646 121.021
133.392 14194 119.139
133.509 14144 118.929
133.627 14630 120.955
133.744 14799 121.651
133.862 14991 122.438
133.979 15014 122.532
134.097 15095 122.862
134.214 15427 124.205
134.332 15221 123.373
134.449 15367 123.964
134.567 15732 125.427
134.684 15665 125.16
134.802 15739 125.455
134.919 15709 125.336
135.037 15359 123.931
135.154 14819 121.733
135.272 14147 118.941
135.389 13509 116.228
135.507 13289 115.278
135.624 13868 117.762
135.742 14320 119.666
135.859 14441 120.171
135.977 14314 119.641
136.094 14149 118.95
136.211 13967 118.182
136.329 13433 115.901
136.446 12870 113.446
136.564 12178 110.354
136.681 11554 107.49
136.798 11436 106.939
136.915 11102 105.366
137.033 10811 103.976
137.15 11137 105.532
137.267 11344 106.508
137.384 11629 107.838
137.502 11641 107.893
137.619 11898 109.078
137.736 12035 109.704
137.853 12131 110.141
137.97 12446 111.562
138.087 12913 113.635
138.204 12983 113.943
138.321 13249 115.104
138.438 13562 116.456
138.555 13869 117.767
138.672 13759 117.299
138.788 13836 117.627
138.905 13289 115.278
139.022 12960 113.842
139.139 13414 115.819
139.255 13970 118.195
139.372 14464 120.266
139.488 15091 122.845
139.605 15427 124.205
139.721 15347 123.883
139.838 15463 124.35
139.954 15000 122.474
140.071 14343 119.762
140.187 14187 119.109
140.303 13677 116.949
140.419 13527 116.306
140.535 13019 114.101
140.652 12998 114.009
140.768 0 1
140.884 0 1
141 0 1
141.115 0 1
141.231 0 1
141.347 0 1
141.463 0 1
141.578 0 1
141.694 0 1
144.104 0 1
144.219 0 1
144.335 0 1
144.45 0 1
144.566 0 1
144.682 0 1
144.798 0 1
144.914 0 1
145.03 0 1
145.146 12544 112
145.262 12472 111.678
145.378 11982 109.462
145.494 11951 109.321
145.61 11427 106.897
145.726 11084 105.281
145.842 10999 104.876
145.959 10827 104.053
146.075 11189 105.778
146.192 11367 106.616
146.308 11149 105.589
146.425 11317 106.381
146.541 11427 106.897
146.658 11354 106.555
146.774 11286 106.236
146.891 11358 106.574
147.008 11338 106.48
147.125 11557 107.503
147.241 11402 106.78
147.358 11704 108.185
147.475 11170 105.688
147.592 10835 104.091
147.709 10460 102.274
147.826 10392 101.941
147.943 10463 102.289
148.06 10790 103.875
148.177 10848 104.154
148.294 10989 104.828
148.411 10976 104.766
148.528 10630 103.102
148.645 10618 103.044
148.762 10255 101.267
148.88 9994 99.97
148.997 9883 99.4133
149.114 8837 94.0053
149.231 8793 93.771
149.349 8589 92.6769
149.466 8841 94.0266
149.583 8372 91.4986
149.701 8855 94.101
149.818 9069 95.2313
149.935 9080 95.289
150.053 9074 95.2575
150.17 9201 95.9218
150.287 9324 96.5609
150.405 9375 96.8246
150.522 9593 97.9439
150.64 9791 98.9495
150.757 9914 99.5691
150.875 9919 99.5942
150.992 9788 98.9343
151.11 10013 100.065
151.227 9721 98.5951
151.344 9407 96.9897
151.462 9432 97.1185
151.579 9815 99.0707
151.697 10089 100.444
151.814 10514 102.538
151.932 10750 103.682
152.049 10735 103.61
152.167 10733 103.6
152.284 10705 103.465
152.402 10378 101.872
152.519 10151 100.752
152.636 9729 98.6357
152.754 9815 99.0707
152.871 9474 97.3345
152.989 9311 96.4935
153.106 9374 96.8194
153.223 9627 98.1173
153.341 9867 99.3328
153.458 10021 100.105
153.575 10249 101.237
153.693 10226 101.124
153.81 10438 102.167
153.927 10644 103.17
154.044 10879 104.302
154.162 10939 104.59
154.279 11494 107.21
154.396 11560 107.517
154.513 11904 109.105
154.63 12230 110.589
154.747 12012 109.599
154.864 11777 108.522
154.981 11464 107.07
155.098 11688 108.111
155.215 12210 110.499
155.332 12304 110.923
155.449 12863 113.415
155.566 12695 112.672
155.683 12953 113.811
155.8 12941 113.759
155.917 12916 113.649
156.033 12910 113.622
156.15 0 1
156.267 0 1
156.383 0 1
156.5 0 1
156.617 0 1
156.733 0 1
156.85 0 1
156.966 0 1
157.082 0 1
157.199 0 1
157.315 0 1
157.431 0 1
157.547 0 1
157.664 0 1
157.78 0 1
157.896 0 1
158.012 0 1
158.128 0 1
158.244 0 1
158.359 0 1
158.475 0 1
158.591 0 1
158.706 0 1
