
6.15755 0 1
6.2731 0 1
6.3887 0 1
6.50437 0 1
6.62009 0 1
6.73587 0 1
6.8517 0 1
6.96759 0 1
7.08353 0 1
7.19952 0 1
7.31557 0 1
7.43166 0 1
7.54781 0 1
7.664 0 1
7.78024 0 1
7.89653 0 1
8.01286 0 1
8.12924 0 1
8.24567 0 1
8.36213 0 1
8.47864 0 1
8.59519 0 1
8.71178 0 1
8.82841 0 1
8.94508 0 1
9.06179 0 1
9.17853 0 1
9.29531 0 1
9.41212 0 1
9.52897 0 1
9.64584 0 1
9.76276 0 1
9.8797 0 1
9.99667 0 1
10.1137 0 1
10.2307 0 1
10.3478 0 1
10.4648 0 1
10.5819 0 1
10.6991 0 1
10.8162 0 1
10.9334 0 1
11.0506 0 1
11.1678 0 1
11.285 0 1
11.4023 0 1
11.5196 0 1
11.6369 0 1
11.7542 0 1
11.8715 0 1
11.9888 0 1
12.1062 0 1
12.2235 0 1
12.3409 0 1
12.4582 0 1
12.5756 0 1
12.693 0 1
12.8104 0 1
12.9278 0 1
13.0452 0 1
13.1626 0 1
13.28 0 1
13.3974 0 1
13.5149 0 1
13.6323 0 1
13.7497 0 1
13.8671 0 1
13.9845 0 1
14.1019 0 1
14.2193 0 1
14.3367 0 1
14.4541 0 1
14.5714 0 1
14.6888 0 1
14.8062 0 1
14.9235 0 1
15.0408 0 0
15.1581 0 0
15.2755 0 0
15.3927 0 0
15.51 0 0
15.6273 0 0
15.7445 0 0
15.8617 0 0
15.9789 0 0
16.0961 0 0
16.2132 0 0
16.3304 0 0
16.4475 0 0
16.5646 0 0
16.6816 0 0
16.7986 0 0
16.9156 0 0
17.0326 0 0
17.1496 0 0
17.2665 0 0
17.3833 0 0
17.5002 0 0
17.617 0 0
17.7338 0 0
17.8505 0 0
17.9672 0 0
18.0839 0 0
18.2005 0 0
18.3171 0 0
18.4337 0 0
18.5502 0 0
18.6666 0 0
18.7831 0 0
18.8994 0 0
19.0158 0 0
19.1321 0 0
19.2483 0 0
19.3645 0 0
19.4806 0 0
19.5967 0 0
19.7128 0 0
19.8288 0 0
19.9447 0 0
20.0606 0 1
20.1764 0 1
20.2922 0 1
20.4079 0 1
20.5236 0 1
20.6392 0 1
20.7548 0 1
20.8702 0 1
23.3078 0 1
23.4233 0 1
23.539 0 1
23.6547 0 1
23.7704 0 1
23.8862 0 1
24.0021 0 1
24.118 0 1
24.234 0 1
24.35 0 1
24.4661 14546 120.607
24.5822 14412 120.05
24.6984 14336 119.733
24.8146 14263 119.428
24.9309 14434 120.142
25.0472 14191 119.126
25.1636 14562 120.673
25.28 14649 121.033
25.3965 15090 122.841
25.513 15329 123.81
25.6296 15516 124.563
25.7462 16101 126.89
25.8628 16405 128.082
25.9795 16708 129.259
26.0962 16589 128.798
26.213 16781 129.541
26.3298 16179 127.197
26.4466 16295 127.652
26.5635 16212 127.326
26.6804 15714 125.355
26.7973 15591 124.864
26.9143 15558 124.732
27.0313 15829 125.813
27.1483 16157 127.11
27.2653 16275 127.574
27.3824 16386 128.008
27.4996 16645 129.016
27.6167 15906 126.119
27.7339 15777 125.607
27.8511 15535 124.639
27.9683 15153 123.098
28.0855 14889 122.02
28.2028 14657 121.066
28.3201 14576 120.731
28.4374 14278 119.491
28.5547 13886 117.839
28.6721 14020 118.406
28.7894 14015 118.385
28.9068 14348 119.783
29.0242 14694 121.219
29.1416 14923 122.16
29.259 15000 122.474
29.3764 15089 122.837
29.4939 15462 124.346
29.6113 15581 124.824
29.7288 15842 125.865
29.8463 15636 125.044
29.9638 15761 125.543
30.0812 15388 124.048
30.1987 15144 123.061
30.3162 15089 122.837
30.4337 14942 122.237
30.5512 15235 123.43
30.6687 15485 124.439
30.7862 15588 124.852
30.9037 15990 126.452
31.0212 16190 127.24
31.1387 16134 127.02
31.2562 15983 126.424
31.3737 15526 124.603
31.4912 15366 123.96
31.6087 15146 123.069
31.7262 14756 121.474
31.8436 14750 121.45
31.9611 14229 119.285
32.0785 14057 118.562
32.1959 14134 118.887
32.3134 14129 118.865
32.4308 14112 118.794
32.5482 14722 121.334
32.6655 14677 121.149
32.7829 14941 122.233
32.9002 15023 122.568
33.0176 15110 122.923
33.1349 15442 124.266
33.2522 15076 122.784
33.3694 15710 125.34
33.4867 15741 125.463
33.6039 15577 124.808
33.7211 15387 124.044
33.8383 15361 123.94
33.9554 14942 122.237
34.0725 14651 121.041
34.1896 15161 123.13
34.3067 15157 123.114
34.4237 15678 125.212
34.5407 15670 125.18
34.6577 15956 126.317
34.7746 16079 126.803
34.8915 16125 126.984
35.0084 15743 125.471
35.1252 15137 123.033
35.242 15142 123.053
35.3587 14833 121.791
35.4755 14570 120.706
35.5921 14426 120.108
35.7088 14205 119.185
35.8254 13849 117.682
35.9419 13851 117.69
36.0584 13798 117.465
36.1749 14130 118.87
36.2913 14150 118.954
36.4077 14274 119.474
36.524 14583 120.76
36.6403 14796 121.639
36.7565 15089 122.837
36.8727 15303 123.705
36.9889 15102 122.89
37.1049 15132 123.012
37.221 0 1
37.3369 0 1
37.4529 0 1
37.5687 0 1
37.6845 0 1
37.8003 0 1
37.916 0 1
38.0316 0 1
38.1472 0 1
40.5851 0 1
40.7008 0 1
40.8164 0 1
40.9322 0 1
41.048 0 1
41.1639 0 1
41.2798 0 1
41.3958 0 1
41.5118 0 1
41.6279 0 1
41.744 11790 108.582
41.8602 12539 111.978
41.9765 12814 113.199
42.0928 13169 114.756
42.2091 13125 114.564
42.3255 13304 115.343
42.4419 13356 115.568
42.5584 12874 113.464
42.675 12774 113.022
42.7915 12317 110.982
42.9081 12172 110.327
43.0248 12611 112.299
43.1415 12753 112.929
43.2582 13225 115
43.375 13220 114.978
43.4918 13785 117.41
43.6087 13527 116.306
43.7256 13210 114.935
43.8425 12906 113.605
43.9595 12681 112.61
44.0765 12403 111.369
44.1935 12199 110.449
44.3106 11774 108.508
44.4277 11606 107.731
44.5448 11144 105.565
44.6619 10987 104.819
44.7791 10773 103.793
44.8963 10956 104.671
45.0136 10583 102.874
45.1308 10767 103.764
45.2481 11017 104.962
45.3654 11018 104.967
45.4827 11265 106.137
45.6001 11156 105.622
45.7174 11311 106.353
45.8348 11154 105.612
45.9522 11305 106.325
46.0697 11209 105.873
46.1871 10642 103.16
46.3046 10058 100.29
46.422 10042 100.21
46.5395 10056 100.28
46.657 10475 102.347
46.7745 10701 103.446
46.892 10619 103.049
47.0096 10855 104.187
47.1271 10829 104.062
47.2446 11216 105.906
47.3622 10519 102.562
47.4797 10355 101.76
47.5973 9995 99.975
47.7149 9796 98.9747
47.8324 9634 98.1529
47.95 9023 94.9895
48.0675 8947 94.5886
48.1851 8579 92.6229
48.3027 8357 91.4166
48.4202 8321 91.2195
48.5378 8519 92.2984
48.6554 8669 93.1075
48.7729 8599 92.7308
48.8904 8876 94.2125
49.008 9251 96.1821
49.1255 9045 95.1052
49.243 9099 95.3887
49.3605 9324 96.5609
49.478 9229 96.0677
49.5955 9091 95.3467
49.713 8949 94.5992
49.8304 8610 92.7901
49.9479 8685 93.1933
50.0653 8916 94.4246
50.1827 9494 97.4372
50.3001 9565 97.8008
50.4175 10277 101.376
50.5348 10660 103.247
50.6521 10814 103.99
50.7694 11021 104.981
50.8867 11129 105.494
51.004 11165 105.665
51.1212 11225 105.948
51.2384 11192 105.792
51.3556 10959 104.685
51.4727 10800 103.923
51.5899 10637 103.136
51.707 10658 103.238
51.824 10669 103.291
51.9411 10758 103.721
52.0581 11049 105.114
52.175 11456 107.033
52.2919 11769 108.485
52.4088 11976 109.435
52.5257 12576 112.143
52.6425 12638 112.419
52.7593 13018 114.096
52.876 13171 114.765
52.9927 13509 116.228
53.1094 13740 117.218
53.226 13060 114.28
53.3426 12910 113.622
53.4591 12790 113.093
53.5756 12594 112.223
53.692 13131 114.591
53.8084 13967 118.182
53.9248 14503 120.428
54.0411 14808 121.688
54.1573 15312 123.742
54.2735 0 1
54.3896 0 1
54.5057 0 1
54.6217 0 1
54.7377 0 1
54.8537 0 1
54.9695 0 1
55.0853 0 1
55.2011 0 1
55.3168 0 1
55.4324 0 1
57.824 0 1
57.9396 0 1
58.0553 0 1
58.1711 0 1
58.2869 0 1
58.4028 0 1
58.5187 0 1
58.6347 0 1
58.7508 0 1
58.8669 0 1
58.983 15865 125.956
59.0992 16968 130.261
59.2155 17697 133.03
59.3318 18182 134.841
59.4482 18377 135.562
59.5646 18367 135.525
59.681 18146 134.707
59.7975 17872 133.686
59.9141 17395 131.89
60.0306 16726 129.329
60.1473 16302 127.679
60.2639 15449 124.294
60.3807 15045 122.658
60.4974 14470 120.291
60.6142 14419 120.079
60.731 14602 120.839
60.8479 14759 121.487
60.9648 14915 122.127
61.0818 15263 123.544
61.1987 15739 125.455
61.3158 16020 126.57
61.4328 16111 126.929
61.5499 15763 125.551
61.667 15496 124.483
61.7841 15102 122.89
61.9013 14724 121.342
62.0185 14505 120.437
62.1357 14309 119.62
62.253 14572 120.715
62.3702 14957 122.299
62.4875 15752 125.507
62.6049 15891 126.06
62.7222 16612 128.888
62.8396 16548 128.639
62.9569 16974 130.284
63.0743 16750 129.422
63.1918 16558 128.678
63.3092 16417 128.129
63.4267 15513 124.551
63.5441 15309 123.73
63.6616 14618 120.905
63.7791 14071 118.621
63.8966 13415 115.823
64.0142 13216 114.961
64.1317 12970 113.886
64.2492 12974 113.903
64.3668 13296 115.308
64.4843 13478 116.095
64.6019 13929 118.021
64.7195 14553 120.636
64.837 14181 119.084
64.9546 14523 120.511
65.0722 14895 122.045
65.1898 14368 119.867
65.3074 14358 119.825
65.4249 13539 116.357
65.5425 13136 114.612
65.6601 12915 113.644
65.7777 13012 114.07
65.8952 13661 116.88
66.0128 13941 118.072
66.1304 14772 121.54
66.2479 15225 123.39
66.3655 15477 124.407
66.483 15993 126.463
66.6005 16059 126.724
66.718 15927 126.202
66.8355 15556 124.724
66.953 15328 123.806
67.0705 14893 122.037
67.1879 14304 119.599
67.3054 13698 117.038
67.4228 13147 114.66
67.5402 12562 112.08
67.6576 12380 111.265
67.7749 12103 110.014
67.8923 12392 111.319
68.0096 12504 111.821
68.1269 13119 114.538
68.2442 13596 116.602
68.3614 14328 119.7
68.4787 14615 120.893
68.5958 14698 121.235
68.713 14901 122.07
68.8302 14654 121.054
68.9473 14553 120.636
69.0643 13920 117.983
69.1814 13246 115.091
69.2984 13125 114.564
69.4154 13458 116.009
69.5323 14339 119.746
69.6492 15093 122.854
69.7661 15749 125.495
69.8829 16625 128.938
69.9997 16968 130.261
70.1165 17242 131.309
70.2332 17276 131.438
70.3499 17181 131.076
70.4665 17123 130.855
70.5831 16346 127.851
70.6996 15855 125.917
70.8161 15324 123.79
70.9326 14775 121.552
71.049 14089 118.697
71.1653 13255 115.13
71.2817 12843 113.327
71.3979 12353 111.144
71.5141 12431 111.494
71.6303 12588 112.196
71.7464 11913 109.147
71.8624 0 1
71.9784 0 1
72.0944 0 1
72.2102 0 1
72.3261 0 1
72.4418 0 1
72.5575 0 1
72.6732 0 1
75.1054 0 1
75.2209 0 1
75.3365 0 1
75.4521 0 1
75.5678 0 1
75.6835 0 1
75.7993 0 1
75.9151 0 1
76.031 0 1
76.147 13978 118.229
76.263 14598 120.822
76.3791 14470 120.291
76.4952 13776 117.371
76.6113 12950 113.798
76.7276 12849 113.353
76.8438 13187 114.835
76.9601 13403 115.771
77.0765 13743 117.231
77.1929 14401 120.004
77.3093 15191 123.252
77.4258 15611 124.944
77.5423 15400 124.097
77.6589 15876 126
77.7755 15589 124.856
77.8921 15284 123.628
78.0088 14383 119.929
78.1256 13664 116.893
78.2423 13155 114.695
78.3591 12913 113.635
78.4759 13057 114.267
78.5928 13987 118.267
78.7097 14667 121.107
78.8266 15502 124.507
78.9436 16309 127.707
79.0606 16378 127.977
79.1776 16290 127.632
79.2946 16624 128.934
79.4117 16668 129.105
79.5288 16396 128.047
79.6459 16170 127.161
79.7631 15429 124.214
79.8802 14449 120.204
79.9974 13699 117.043
80.1147 13073 114.337
80.2319 12298 110.896
80.3491 12120 110.091
80.4664 12244 110.653
80.5837 12229 110.585
80.701 12685 112.628
80.8183 12933 113.723
80.9357 13495 116.168
81.053 13838 117.635
81.1704 13994 118.296
81.2877 14141 118.916
81.4051 13995 118.3
81.5225 13756 117.286
81.6399 12894 113.552
81.7573 12542 111.991
81.8747 11875 108.972
81.9922 11733 108.319
82.1096 12019 109.631
82.227 12560 112.071
82.3444 13062 114.289
82.4619 13862 117.737
82.5793 14602 120.839
82.6967 14339 119.746
82.8142 14554 120.64
82.9316 14814 121.713
83.049 14721 121.33
83.1664 14220 119.248
83.2838 13706 117.073
83.4012 12954 113.816
83.5186 12286 110.842
83.636 11958 109.353
83.7534 11540 107.424
83.8708 10806 103.952
83.9881 10542 102.674
84.1055 10679 103.339
84.2228 11133 105.513
84.3401 11297 106.287
84.4575 11760 108.444
84.5747 12445 111.557
84.692 12741 112.876
84.8093 13324 115.43
84.9265 13140 114.63
85.0437 12920 113.666
85.1609 12365 111.198
85.2781 11913 109.147
85.3952 11693 108.134
85.5123 11230 105.972
85.6294 11472 107.107
85.7465 11922 109.188
85.8636 12809 113.177
85.9806 13687 116.991
86.0976 14470 120.291
86.2145 15541 124.664
86.3315 15652 125.108
86.4484 16334 127.805
86.5652 16445 128.238
86.682 16541 128.612
86.7988 16250 127.475
86.9156 15677 125.208
87.0323 14690 121.202
87.149 14218 119.239
87.2657 13815 117.537
87.3823 13182 114.813
87.4988 12775 113.027
87.6154 12809 113.177
87.7318 13201 114.896
87.8483 13775 117.367
87.9647 14264 119.432
88.081 15285 123.633
88.1973 15663 125.152
88.3136 16288 127.624
88.4298 16201 127.283
88.546 15952 126.301
88.6621 15384 124.032
88.7781 14771 121.536
88.8942 0 1
89.0101 0 1
89.126 0 1
89.2419 0 1
89.3577 0 1
89.4734 0 1
89.5891 0 1
89.7047 0 1
89.8203 0 1
89.9358 0 1
92.3269 0 1
92.4424 0 1
92.558 0 1
92.6736 0 1
92.7893 0 1
92.905 0 1
93.0208 0 1
93.1366 0 1
93.2525 0 1
93.3685 0 1
93.4845 0 1
93.6005 15257 123.519
93.7167 15802 125.706
93.8328 15775 125.599
93.949 15691 125.264
94.0653 15665 125.16
94.1816 15089 122.837
94.2979 14360 119.833
94.4143 13870 117.771
94.5307 13498 116.181
94.6472 13497 116.177
94.7637 13710 117.09
94.8803 14739 121.404
94.9969 15701 125.304
95.1135 16073 126.779
95.2302 16959 130.227
95.3469 17453 132.11
95.4637 17468 132.167
95.5805 17757 133.255
95.6973 18336 135.41
95.8142 17811 133.458
95.9311 17703 133.053
96.048 17065 130.633
96.1649 16442 128.226
96.2819 15972 126.38
96.3989 15261 123.535
96.516 14546 120.607
96.633 13827 117.588
96.7501 13700 117.047
96.8673 13902 117.907
96.9844 14121 118.832
97.1016 14586 120.773
97.2188 15427 124.205
97.336 15923 126.186
97.4532 16082 126.815
97.5704 16082 126.815
97.6877 15923 126.186
97.805 15167 123.154
97.9223 14443 120.179
98.0396 13644 116.808
98.1569 13426 115.871
98.2743 13073 114.337
98.3916 13251 115.113
98.509 14273 119.47
98.6264 14798 121.647
98.7438 15899 126.091
98.8612 16456 128.281
98.9786 17091 130.733
99.096 17627 132.767
99.2134 17717 133.105
99.3308 18021 134.242
99.4482 18223 134.993
99.5656 17805 133.435
99.6831 17175 131.053
99.8005 16448 128.25
99.9179 15782 125.626
100.035 15328 123.806
100.153 14920 122.147
100.27 14620 120.913
100.388 14681 121.165
100.505 15156 123.11
100.622 15649 125.096
100.74 15979 126.408
100.857 16442 128.226
100.975 17258 131.37
101.092 17593 132.639
101.209 17201 131.153
101.327 16613 128.891
101.444 16310 127.711
101.561 15880 126.016
101.679 15116 122.947
101.796 14725 121.347
101.913 14909 122.102
102.03 15711 125.344
102.148 16705 129.248
102.265 19175 138.474
102.382 17739 133.188
102.499 19602 140.007
102.616 20026 141.513
102.733 20767 144.108
102.851 21011 144.952
102.968 21081 145.193
103.085 20787 144.177
103.202 20232 142.239
103.319 19687 140.31
103.436 19097 138.192
103.552 18336 135.41
103.669 17538 132.431
103.786 17046 130.56
103.903 17383 131.845
104.02 17643 132.827
104.137 18244 135.07
104.253 19385 139.23
104.37 18902 137.485
104.487 19902 141.074
104.603 20085 141.722
104.72 19833 140.83
104.836 19280 138.852
104.953 18533 136.136
105.069 17623 132.752
105.186 16865 129.865
105.302 16835 129.75
105.418 16901 130.004
105.535 18035 134.294
105.651 19394 139.262
105.767 20175 142.039
105.883 21321 146.017
105.999 22276 149.251
106.115 0 1
106.231 0 1
106.347 0 1
106.463 0 1
106.579 0 1
106.694 0 1
106.81 0 1
106.926 0 1
107.041 0 1
107.157 0 1
109.576 0 1
109.692 0 1
109.807 0 1
109.923 0 1
110.039 0 1
110.155 0 1
110.27 0 1
110.386 0 1
110.502 0 1
110.618 17525 132.382
110.735 18635 136.51
110.851 19617 140.061
110.967 20673 143.781
111.083 21020 144.983
111.199 21273 145.853
111.316 22042 148.465
111.432 21886 147.939
111.549 21816 147.702
111.665 21327 146.038
111.782 20547 143.342
111.898 19779 140.638
112.015 19324 139.011
112.132 18444 135.809
112.248 17526 132.386
112.365 17467 132.163
112.482 17490 132.25
112.599 17388 131.864
112.716 18027 134.265
112.832 18109 134.57
112.949 18162 134.766
113.066 18378 135.565
113.183 18296 135.263
113.3 17801 133.42
113.417 17027 130.488
113.534 16536 128.592
113.652 15715 125.359
113.769 15096 122.866
113.886 15251 123.495
114.003 15017 122.544
114.12 15937 126.242
114.238 17051 130.579
114.355 17850 133.604
114.472 19533 139.761
114.589 17872 133.686
114.707 19340 139.068
114.824 19701 140.36
114.942 20114 141.824
115.059 19983 141.361
115.176 19753 140.545
115.294 19486 139.592
115.411 18737 136.883
115.529 18128 134.64
115.646 17802 133.424
115.764 17063 130.625
115.881 16767 129.487
115.999 16793 129.588
116.116 17014 130.438
116.234 17245 131.32
116.351 17538 132.431
116.469 17633 132.789
116.586 17805 133.435
116.704 17724 133.132
116.821 17592 132.635
116.939 17232 131.271
117.056 16746 129.406
117.174 16212 127.326
117.291 15847 125.885
117.409 15246 123.475
117.526 15376 124
117.644 16149 127.079
117.761 17092 130.736
117.879 17987 134.116
117.996 18655 136.583
118.114 19066 138.08
118.231 19689 140.317
118.349 20036 141.549
118.466 20040 141.563
118.584 20331 142.587
118.701 20465 143.056
118.819 20131 141.884
118.936 19583 139.939
119.053 19288 138.881
119.171 18793 137.088
119.288 18354 135.477
119.405 17414 131.962
119.523 17244 131.316
119.64 17500 132.288
119.757 17458 132.129
119.875 17856 133.626
119.992 17764 133.282
120.109 17919 133.862
120.226 17998 134.157
120.343 17767 133.293
120.46 17629 132.774
120.578 17211 131.191
120.695 16593 128.814
120.812 16270 127.554
120.929 15924 126.19
121.046 15655 125.12
121.163 15748 125.491
121.279 16008 126.523
121.396 16714 129.283
121.513 17604 132.68
121.63 18372 135.543
121.747 19532 139.757
121.863 19487 139.596
121.98 19770 140.606
122.097 20052 141.605
122.213 20289 142.439
122.33 20185 142.074
122.446 19972 141.322
122.563 19852 140.897
122.679 19164 138.434
122.795 18960 137.695
122.912 18433 135.768
123.028 17949 133.974
123.144 17657 132.88
123.26 17046 130.56
123.377 0 1
123.493 0 1
123.609 0 1
123.725 0 1
123.84 0 1
123.956 0 1
124.072 0 1
124.188 0 1
124.303 0 1
124.419 0 1
126.852 0 1
126.968 0 1
127.083 0 1
127.199 0 1
127.315 0 1
127.431 0 1
127.547 0 1
127.663 0 1
127.779 0 1
127.895 0 1
128.011 0 1
128.127 0 1
128.243 0 1
128.359 19622 140.079
128.476 19487 139.596
128.592 19732 140.471
128.708 19989 141.382
128.825 20172 142.028
128.941 20393 142.804
129.058 20321 142.552
129.174 20438 142.962
129.291 20168 142.014
129.408 19821 140.787
129.524 19273 138.827
129.641 18524 136.103
129.758 18070 134.425
129.875 17833 133.54
129.992 17401 131.913
130.108 17576 132.575
130.225 17739 133.188
130.342 18318 135.344
130.459 19039 137.982
130.576 20164 142
130.693 20068 141.662
130.81 20516 143.234
130.928 21117 145.317
131.045 21629 147.068
131.162 21814 147.696
131.279 21788 147.608
131.396 21877 147.909
131.513 21517 146.687
131.631 20928 144.665
131.748 20581 143.461
131.865 20301 142.482
131.983 19882 141.004
132.1 19922 141.145
132.217 20110 141.81
132.335 20295 142.461
132.452 20134 141.894
132.57 20249 142.299
132.687 19368 139.169
132.804 20695 143.858
132.922 19768 140.599
133.039 19458 139.492
133.157 18862 137.339
133.274 18371 135.54
133.392 18007 134.19
133.509 17184 131.088
133.627 17279 131.45
133.744 17579 132.586
133.862 18048 134.343
133.979 18817 137.175
134.097 19479 139.567
134.214 19997 141.411
134.332 20309 142.51
134.449 20676 143.792
134.567 21053 145.097
134.684 21289 145.908
134.802 21816 147.702
134.919 21882 147.926
135.037 21475 146.544
135.154 21125 145.344
135.272 20473 143.084
135.389 20757 144.073
135.507 20342 142.625
135.624 20104 141.789
135.742 20345 142.636
135.859 20494 143.157
135.977 20748 144.042
136.094 20510 143.213
136.211 20393 142.804
136.329 20624 143.611
136.446 20243 142.278
136.564 20088 141.732
136.681 19398 139.277
136.798 18767 136.993
136.915 18433 135.768
137.033 17979 134.086
137.15 17652 132.861
137.267 17571 132.556
137.384 17698 133.034
137.502 18353 135.473
137.619 18975 137.75
137.736 19384 139.226
137.853 19532 139.757
137.97 20501 143.182
138.087 20287 142.432
138.204 20926 144.658
138.321 21294 145.925
138.438 21699 147.306
138.555 21916 148.041
138.672 22143 148.805
138.788 21661 147.177
138.905 21207 145.626
139.022 21130 145.362
139.139 21094 145.238
139.255 21314 145.993
139.372 21098 145.252
139.488 21218 145.664
139.605 21860 147.851
139.721 21244 145.753
139.838 21494 146.608
139.954 21264 145.822
140.071 20759 144.08
140.187 20497 143.168
140.303 20081 141.707
140.419 19592 139.971
140.535 18649 136.561
140.652 17841 133.57
140.768 0 1
140.884 0 1
141 0 1
141.115 0 1
141.231 0 1
141.347 0 1
141.463 0 1
141.578 0 1
141.694 0 1
144.104 0 1
144.219 0 1
144.335 0 1
144.45 0 1
144.566 0 1
144.682 0 1
144.798 0 1
144.914 0 1
145.03 0 1
145.146 19000 137.84
145.262 18594 136.36
145.378 18460 135.868
145.494 17967 134.041
145.61 17456 132.121
145.726 17148 130.95
145.842 17102 130.775
145.959 16782 129.545
146.075 16844 129.784
146.192 17627 132.767
146.308 18292 135.248
146.425 18317 135.34
146.541 18835 137.241
146.658 18943 137.634
146.774 19526 139.735
146.891 19765 140.588
147.008 20021 141.496
147.125 20431 142.937
147.241 20465 143.056
147.358 20235 142.25
147.475 19817 140.773
147.592 19842 140.862
147.709 19169 138.452
147.826 19408 139.313
147.943 19821 140.787
148.06 19789 140.673
148.177 20059 141.63
148.294 19797 140.702
148.411 19822 140.791
148.528 19728 140.456
148.645 19461 139.503
148.762 19344 139.083
148.88 18925 137.568
148.997 17966 134.037
149.114 18076 134.447
149.231 17310 131.567
149.349 17515 132.344
149.466 16311 127.715
149.583 16729 129.341
149.701 17105 130.786
149.818 17234 131.278
149.935 17651 132.857
150.053 17808 133.447
150.17 18129 134.644
150.287 18593 136.356
150.405 19033 137.96
150.522 19194 138.542
150.64 19681 140.289
150.757 20403 142.839
150.875 20187 142.081
150.992 19971 141.319
151.11 19481 139.574
151.227 19569 139.889
151.344 19069 138.091
151.462 19245 138.726
151.579 19784 140.656
151.697 20051 141.602
151.814 19996 141.407
151.932 20206 142.148
152.049 20130 141.88
152.167 19770 140.606
152.284 19820 140.784
152.402 19368 139.169
152.519 18926 137.572
152.636 18581 136.312
152.754 18075 134.443
152.871 17712 133.086
152.989 17627 132.767
153.106 17125 130.863
153.223 17094 130.744
153.341 17512 132.333
153.458 17843 133.578
153.575 18025 134.257
153.693 18426 135.742
153.81 18919 137.546
153.927 19466 139.521
154.044 19763 140.581
154.162 20049 141.594
154.279 20701 143.878
154.396 21104 145.272
154.513 21415 146.339
154.63 21288 145.904
154.747 21188 145.561
154.864 20699 143.871
154.981 20602 143.534
155.098 20585 143.475
155.215 20504 143.192
155.332 20989 144.876
155.449 20888 144.527
155.566 20833 144.336
155.683 21080 145.19
155.8 20835 144.343
155.917 20462 143.045
156.033 20163 141.996
156.15 0 1
156.267 0 1
156.383 0 1
156.5 0 1
156.617 0 1
156.733 0 1
156.85 0 1
156.966 0 1
157.082 0 1
157.199 0 1
157.315 0 1
157.431 0 1
157.547 0 1
157.664 0 1
157.78 0 1
157.896 0 1
158.012 0 1
158.128 0 1
158.244 0 1
158.359 0 1
158.475 0 1
158.591 0 1
158.706 0 1
