
6.15755 0 1
6.2731 0 1
6.3887 0 1
6.50437 0 1
6.62009 0 1
6.73587 0 1
6.8517 0 1
6.96759 0 1
7.08353 0 1
7.19952 0 1
7.31557 0 1
7.43166 0 1
7.54781 0 1
7.664 0 1
7.78024 0 1
7.89653 0 1
8.01286 0 1
8.12924 0 1
8.24567 0 1
8.36213 0 1
8.47864 0 1
8.59519 0 1
8.71178 0 1
8.82841 0 1
8.94508 0 1
9.06179 0 1
9.17853 0 1
9.29531 0 1
9.41212 0 1
9.52897 0 1
9.64584 0 1
9.76276 0 1
9.8797 0 1
9.99667 0 1
10.1137 0 1
10.2307 0 1
10.3478 0 1
10.4648 0 1
10.5819 0 1
10.6991 0 1
10.8162 0 1
10.9334 0 1
11.0506 0 1
11.1678 0 1
11.285 0 1
11.4023 0 1
11.5196 0 1
11.6369 0 1
11.7542 0 1
11.8715 0 1
11.9888 0 1
12.1062 0 1
12.2235 0 1
12.3409 0 1
12.4582 0 1
12.5756 0 1
12.693 0 1
12.8104 0 1
12.9278 0 1
13.0452 0 1
13.1626 0 1
13.28 0 1
13.3974 0 1
13.5149 0 1
13.6323 0 1
13.7497 0 1
13.8671 0 1
13.9845 0 1
14.1019 0 1
14.2193 0 1
14.3367 0 1
14.4541 0 1
14.5714 0 1
14.6888 0 1
14.8062 0 1
14.9235 0 1
15.0408 0 0
15.1581 0 0
15.2755 0 0
15.3927 0 0
15.51 0 0
15.6273 0 0
15.7445 0 0
15.8617 0 0
15.9789 0 0
16.0961 0 0
16.2132 0 0
16.3304 0 0
16.4475 0 0
16.5646 0 0
16.6816 0 0
16.7986 0 0
16.9156 0 0
17.0326 0 0
17.1496 0 0
17.2665 0 0
17.3833 0 0
17.5002 0 0
17.617 0 0
17.7338 0 0
17.8505 0 0
17.9672 0 0
18.0839 0 0
18.2005 0 0
18.3171 0 0
18.4337 0 0
18.5502 0 0
18.6666 0 0
18.7831 0 0
18.8994 0 0
19.0158 0 0
19.1321 0 0
19.2483 0 0
19.3645 0 0
19.4806 0 0
19.5967 0 0
19.7128 0 0
19.8288 0 0
19.9447 0 0
20.0606 0 1
20.1764 0 1
20.2922 0 1
20.4079 0 1
20.5236 0 1
20.6392 0 1
20.7548 0 1
20.8702 0 1
23.3078 0 1
23.4233 0 1
23.539 0 1
23.6547 0 1
23.7704 0 1
23.8862 0 1
24.0021 0 1
24.118 0 1
24.234 0 1
24.35 0 1
24.4661 10859 104.207
24.5822 11166 105.669
24.6984 11022 104.986
24.8146 10808 103.962
24.9309 10615 103.029
25.0472 10700 103.441
25.1636 10670 103.296
25.28 11150 105.594
25.3965 11374 106.649
25.513 11890 109.041
25.6296 12444 111.553
25.7462 12555 112.049
25.8628 12880 113.49
25.9795 12769 113
26.0962 12756 112.942
26.213 12882 113.499
26.3298 12417 111.432
26.4466 12179 110.359
26.5635 11537 107.41
26.6804 10965 104.714
26.7973 11093 105.323
26.9143 11359 106.579
27.0313 11645 107.912
27.1483 11928 109.215
27.2653 12229 110.585
27.3824 12227 110.576
27.4996 12316 110.977
27.6167 11852 108.867
27.7339 12051 109.777
27.8511 11993 109.513
27.9683 11516 107.313
28.0855 11307 106.334
28.2028 10916 104.48
28.3201 10953 104.657
28.4374 10749 103.677
28.5547 10627 103.087
28.6721 10490 102.421
28.7894 10729 103.581
28.9068 11059 105.162
29.0242 11377 106.663
29.1416 11706 108.194
29.259 12217 110.531
29.3764 12261 110.729
29.4939 12298 110.896
29.6113 12456 111.606
29.7288 12326 111.023
29.8463 11889 109.037
29.9638 11532 107.387
30.0812 10685 103.368
30.1987 10512 102.528
30.3162 10335 101.661
30.4337 10769 103.774
30.5512 10963 104.704
30.6687 11423 106.878
30.7862 11649 107.931
30.9037 11932 109.234
31.0212 11833 108.78
31.1387 11924 109.197
31.2562 12079 109.905
31.3737 11809 108.669
31.4912 11427 106.897
31.6087 11424 106.883
31.7262 10939 104.59
31.8436 10713 103.504
31.9611 10716 103.518
32.0785 10372 101.843
32.1959 10525 102.591
32.3134 10747 103.668
32.4308 10902 104.413
32.5482 11339 106.485
32.6655 11922 109.188
32.7829 12221 110.549
32.9002 12209 110.494
33.0176 12194 110.426
33.1349 12186 110.39
33.2522 12312 110.959
33.3694 12296 110.887
33.4867 11822 108.729
33.6039 11242 106.028
33.7211 10745 103.658
33.8383 10252 101.252
33.9554 10225 101.119
34.0725 10417 102.064
34.1896 11079 105.257
34.3067 11349 106.532
34.4237 11507 107.271
34.5407 11483 107.159
34.6577 11908 109.124
34.7746 11765 108.467
34.8915 11860 108.904
35.0084 11627 107.829
35.1252 11399 106.766
35.242 11353 106.55
35.3587 11076 105.243
35.4755 10763 103.745
35.5921 10887 104.341
35.7088 10504 102.489
35.8254 10215 101.069
35.9419 10369 101.828
36.0584 10609 103
36.1749 10832 104.077
36.2913 11294 106.273
36.4077 11550 107.471
36.524 11741 108.356
36.6403 11857 108.89
36.7565 12021 109.64
36.8727 11891 109.046
36.9889 11959 109.357
37.1049 11589 107.652
37.221 0 1
37.3369 0 1
37.4529 0 1
37.5687 0 1
37.6845 0 1
37.8003 0 1
37.916 0 1
38.0316 0 1
38.1472 0 1
40.5851 0 1
40.7008 0 1
40.8164 0 1
40.9322 0 1
41.048 0 1
41.1639 0 1
41.2798 0 1
41.3958 0 1
41.5118 0 1
41.6279 0 1
41.744 9273 96.2964
41.8602 9638 98.1733
41.9765 9872 99.3579
42.0928 9742 98.7016
42.2091 9916 99.5791
42.3255 9321 96.5453
42.4419 8631 92.9032
42.5584 7967 89.2581
42.675 7680 87.6356
42.7915 8003 89.4595
42.9081 8548 92.4554
43.0248 8878 94.2231
43.1415 8927 94.4828
43.2582 9097 95.3782
43.375 9276 96.312
43.4918 9472 97.3242
43.6087 9277 96.3172
43.7256 9266 96.2601
43.8425 9061 95.1893
43.9595 8841 94.0266
44.0765 8620 92.844
44.1935 8339 91.3181
44.3106 8064 89.7998
44.4277 7769 88.1419
44.5448 7539 86.8274
44.6619 7246 85.1234
44.7791 7563 86.9655
44.8963 7682 87.647
45.0136 7959 89.2132
45.1308 8132 90.1776
45.2481 8303 91.1208
45.3654 8341 91.3291
45.4827 8323 91.2305
45.6001 8208 90.598
45.7174 8046 89.6995
45.8348 7639 87.4014
45.9522 7170 84.6759
46.0697 6669 81.6639
46.1871 6338 79.6116
46.3046 6063 77.8653
46.422 6385 79.9062
46.5395 6772 82.2922
46.657 7087 84.1843
46.7745 7040 83.9047
46.892 7135 84.4689
47.0096 7242 85.0999
47.1271 7039 83.8987
47.2446 7218 84.9588
47.3622 6934 83.2706
47.4797 6837 82.6862
47.5973 6617 81.3449
47.7149 6361 79.7559
47.8324 6192 78.6893
47.95 5974 77.2917
48.0675 5799 76.1512
48.1851 5590 74.7663
48.3027 5539 74.4245
48.4202 5789 76.0855
48.5378 5993 77.4145
48.6554 6157 78.4666
48.7729 6207 78.7845
48.8904 6458 80.3617
49.008 6410 80.0625
49.1255 6302 79.3851
49.243 6339 79.6178
49.3605 5807 76.2037
49.478 5539 74.4245
49.5955 5161 71.8401
49.713 4892 69.9428
49.8304 4882 69.8713
49.9479 5401 73.4915
50.0653 5663 75.2529
50.1827 6117 78.2113
50.3001 6411 80.0687
50.4175 6604 81.265
50.5348 6834 82.668
50.6521 6747 82.1401
50.7694 7018 83.7735
50.8867 7049 83.9583
51.004 7125 84.4097
51.1212 7224 84.9941
51.2384 6987 83.5883
51.3556 7293 85.3991
51.4727 7007 83.7078
51.5899 6755 82.1888
51.707 6823 82.6015
51.824 7115 84.3505
51.9411 7386 85.9418
52.0581 7974 89.2973
52.175 8368 91.4768
52.2919 8503 92.2117
52.4088 8833 93.984
52.5257 8938 94.541
52.6425 9254 96.1977
52.7593 8855 94.101
52.876 9193 95.8801
52.9927 8409 91.7006
53.1094 7895 88.8538
53.226 7350 85.7321
53.3426 7006 83.7019
53.4591 7304 85.4634
53.5756 8120 90.111
53.692 8887 94.2709
53.8084 9319 96.535
53.9248 9675 98.3616
54.0411 9889 99.4435
54.1573 10121 100.603
54.2735 0 1
54.3896 0 1
54.5057 0 1
54.6217 0 1
54.7377 0 1
54.8537 0 1
54.9695 0 1
55.0853 0 1
55.2011 0 1
55.3168 0 1
55.4324 0 1
57.824 0 1
57.9396 0 1
58.0553 0 1
58.1711 0 1
58.2869 0 1
58.4028 0 1
58.5187 0 1
58.6347 0 1
58.7508 0 1
58.8669 0 1
58.983 10938 104.585
59.0992 11639 107.884
59.2155 11880 108.995
59.3318 12160 110.272
59.4482 12257 110.711
59.5646 12088 109.945
59.681 12111 110.05
59.7975 11860 108.904
59.9141 11586 107.638
60.0306 11197 105.816
60.1473 10857 104.197
60.2639 10378 101.872
60.3807 10139 100.693
60.4974 10347 101.72
60.6142 10612 103.015
60.731 10904 104.422
60.8479 11200 105.83
60.9648 11646 107.917
61.0818 11540 107.424
61.1987 11432 106.921
61.3158 11097 105.342
61.4328 10495 102.445
61.5499 10182 100.906
61.667 9235 96.0989
61.7841 8738 93.4773
61.9013 8553 92.4824
62.0185 8684 93.188
62.1357 9111 95.4516
62.253 9527 97.6064
62.3702 10078 100.389
62.4875 10283 101.405
62.6049 10855 104.187
62.7222 11124 105.47
62.8396 10903 104.417
62.9569 10969 104.733
63.0743 11024 104.995
63.1918 10871 104.264
63.3092 10537 102.65
63.4267 10430 102.127
63.5441 10041 100.205
63.6616 9583 97.8928
63.7791 9332 96.6023
63.8966 9072 95.247
64.0142 9208 95.9583
64.1317 9541 97.678
64.2492 9815 99.0707
64.3668 10278 101.38
64.4843 10540 102.665
64.6019 10397 101.966
64.7195 10241 101.198
64.837 10221 101.099
64.9546 9967 99.8349
65.0722 9296 96.4158
65.1898 8454 91.9456
65.3074 8025 89.5824
65.4249 7458 86.3597
65.5425 7558 86.9368
65.6601 7990 89.3868
65.7777 8409 91.7006
65.8952 8957 94.6414
66.0128 9308 96.478
66.1304 9863 99.3126
66.2479 10246 101.223
66.3655 10066 100.329
66.483 10385 101.907
66.6005 10356 101.764
66.718 10192 100.955
66.8355 10231 101.148
66.953 10099 100.494
67.0705 10032 100.16
67.1879 9537 97.6576
67.3054 8937 94.5357
67.4228 8755 93.5682
67.5402 8582 92.6391
67.6576 8884 94.255
67.7749 9330 96.5919
67.8923 9813 99.0606
68.0096 10148 100.737
68.1269 10431 102.132
68.2442 10485 102.396
68.3614 10628 103.092
68.4787 10818 104.01
68.5958 10386 101.912
68.713 10004 100.02
68.8302 9199 95.9114
68.9473 9038 95.0684
69.0643 8697 93.2577
69.1814 8864 94.1488
69.2984 9628 98.1224
69.4154 10472 102.333
69.5323 11071 105.219
69.6492 11900 109.087
69.7661 12437 111.521
69.8829 13203 114.904
69.9997 13665 116.897
70.1165 13824 117.576
70.2332 14340 119.75
70.3499 14457 120.237
70.4665 14754 121.466
70.5831 14541 120.586
70.6996 14229 119.285
70.8161 14113 118.798
70.9326 13539 116.357
71.049 12958 113.833
71.1653 12811 113.186
71.2817 12965 113.864
71.3979 13653 116.846
71.5141 14166 119.021
71.6303 14705 121.264
71.7464 13906 117.924
71.8624 0 1
71.9784 0 1
72.0944 0 1
72.2102 0 1
72.3261 0 1
72.4418 0 1
72.5575 0 1
72.6732 0 1
75.1054 0 1
75.2209 0 1
75.3365 0 1
75.4521 0 1
75.5678 0 1
75.6835 0 1
75.7993 0 1
75.9151 0 1
76.031 0 1
76.147 14154 118.971
76.263 15001 122.479
76.3791 14295 119.562
76.4952 13322 115.421
76.6113 13458 116.009
76.7276 13598 116.61
76.8438 14680 121.161
76.9601 15035 122.617
77.0765 15108 122.915
77.1929 15190 123.248
77.3093 14961 122.315
77.4258 14699 121.239
77.5423 13940 118.068
77.6589 12858 113.393
77.7755 11366 106.611
77.8921 10282 101.4
78.0088 9370 96.7988
78.1256 8561 92.5257
78.2423 8578 92.6175
78.3591 9535 97.6473
78.4759 10348 101.725
78.5928 10876 104.288
78.7097 11286 106.236
78.8266 11631 107.847
78.9436 11926 109.206
79.0606 11826 108.747
79.1776 11745 108.374
79.2946 11728 108.296
79.4117 11504 107.257
79.5288 11229 105.967
79.6459 10917 104.484
79.7631 10500 102.47
79.8802 9988 99.94
79.9974 9294 96.4054
80.1147 8752 93.5521
80.2319 8705 93.3006
80.3491 9017 94.9579
80.4664 9537 97.6576
80.5837 9902 99.5088
80.701 10144 100.717
80.8183 9914 99.5691
80.9357 9876 99.3781
81.053 10153 100.762
81.1704 9974 99.8699
81.2877 9178 95.8019
81.4051 8582 92.6391
81.5225 7748 88.0227
81.6399 6977 83.5284
81.7573 6661 81.6149
81.8747 6544 80.895
81.9922 7289 85.3756
82.1096 8015 89.5265
82.227 8484 92.1086
82.3444 8748 93.5307
82.4619 9067 95.2208
82.5793 9523 97.5859
82.6967 9400 96.9536
82.8142 9590 97.9285
82.9316 9779 98.8888
83.049 9785 98.9192
83.1664 9441 97.1648
83.2838 9315 96.5142
83.4012 8988 94.8051
83.5186 8703 93.2899
83.636 8230 90.7193
83.7534 7962 89.23
83.8708 7815 88.4025
83.9881 8104 90.0222
84.1055 8769 93.6429
84.2228 9425 97.0824
84.3401 9709 98.5343
84.4575 9774 98.8635
84.5747 10050 100.25
84.692 10063 100.315
84.8093 9749 98.737
84.9265 9030 95.0263
85.0437 8357 91.4166
85.1609 7919 88.9888
85.2781 7403 86.0407
85.3952 6946 83.3427
85.5123 7610 87.2353
85.6294 8625 92.8709
85.7465 9434 97.1288
85.8636 10155 100.772
85.9806 10686 103.373
86.0976 11201 105.835
86.2145 11501 107.243
86.3315 11802 108.637
86.4484 12256 110.707
86.5652 12234 110.607
86.682 12226 110.571
86.7988 12428 111.481
86.9156 12515 111.87
87.0323 11899 109.083
87.149 11299 106.297
87.2657 10813 103.986
87.3823 10724 103.557
87.4988 11068 105.205
87.6154 11766 108.471
87.7318 12644 112.446
87.8483 12764 112.978
87.9647 13053 114.25
88.081 13104 114.473
88.1973 13054 114.254
88.3136 12976 113.912
88.4298 12208 110.49
88.546 11067 105.2
88.6621 10132 100.658
88.7781 9453 97.2265
88.8942 0 1
89.0101 0 1
89.126 0 1
89.2419 0 1
89.3577 0 1
89.4734 0 1
89.5891 0 1
89.7047 0 1
89.8203 0 1
89.9358 0 1
92.3269 0 1
92.4424 0 1
92.558 0 1
92.6736 0 1
92.7893 0 1
92.905 0 1
93.0208 0 1
93.1366 0 1
93.2525 0 1
93.3685 0 1
93.4845 0 1
93.6005 12200 110.454
93.7167 11844 108.83
93.8328 11489 107.187
93.949 10706 103.47
94.0653 9575 97.8519
94.1816 8855 94.101
94.2979 8413 91.7224
94.4143 8148 90.2663
94.5307 8565 92.5473
94.6472 9160 95.7079
94.7637 9677 98.3717
94.8803 10087 100.434
94.9969 10619 103.049
95.1135 10849 104.159
95.2302 11275 106.184
95.3469 11719 108.254
95.4637 11560 107.517
95.5805 11643 107.903
95.6973 11820 108.72
95.8142 11996 109.526
95.9311 11629 107.838
96.048 11331 106.447
96.1649 10814 103.99
96.2819 10690 103.392
96.3989 9850 99.2472
96.516 9813 99.0606
96.633 10121 100.603
96.7501 10533 102.63
96.8673 10659 103.242
96.9844 11388 106.715
97.1016 11690 108.12
97.2188 11354 106.555
97.336 11277 106.193
97.4532 11151 105.598
97.5704 10574 102.83
97.6877 9634 98.1529
97.805 8749 93.5361
97.9223 8411 91.7115
98.0396 7821 88.4364
98.1569 7806 88.3516
98.2743 8402 91.6624
98.3916 9059 95.1788
98.509 9929 99.6444
98.6264 10425 102.103
98.7438 10775 103.803
98.8612 10886 104.336
98.9786 11421 106.869
99.096 11972 109.417
99.2134 11699 108.162
99.3308 11792 108.591
99.4482 11766 108.471
99.5656 11651 107.94
99.6831 11457 107.037
99.8005 10923 104.513
99.9179 10489 102.416
100.035 10172 100.856
100.153 10040 100.2
100.27 10311 101.543
100.388 10982 104.795
100.505 11485 107.168
100.622 11402 106.78
100.74 11580 107.61
100.857 11567 107.55
100.975 11538 107.415
101.092 11209 105.873
101.209 10445 102.201
101.327 9402 96.9639
101.444 8885 94.2603
101.561 8224 90.6863
101.679 8095 89.9722
101.796 8283 91.011
101.913 8908 94.3822
102.03 9824 99.1161
102.148 10426 102.108
102.265 11724 108.277
102.382 10668 103.286
102.499 11599 107.699
102.616 12155 110.25
102.733 12328 111.032
102.851 12174 110.336
102.968 12303 110.919
103.085 12444 111.553
103.202 12139 110.177
103.319 11868 108.94
103.436 11341 106.494
103.552 10770 103.779
103.669 10495 102.445
103.786 10928 104.537
103.903 11375 106.654
104.02 11944 109.289
104.137 12258 110.716
104.253 12838 113.305
104.37 12410 111.4
104.487 12619 112.334
104.603 12014 109.608
104.72 11114 105.423
104.836 10289 101.435
104.953 9687 98.4226
105.069 8982 94.7734
105.186 8766 93.6269
105.302 9014 94.9421
105.418 9909 99.544
105.535 10848 104.154
105.651 11330 106.442
105.767 11947 109.302
105.883 12462 111.633
105.999 12672 112.57
106.115 0 1
106.231 0 1
106.347 0 1
106.463 0 1
106.579 0 1
106.694 0 1
106.81 0 1
106.926 0 1
107.041 0 1
107.157 0 1
109.576 0 1
109.692 0 1
109.807 0 1
109.923 0 1
110.039 0 1
110.155 0 1
110.27 0 1
110.386 0 1
110.502 0 1
110.618 10561 102.767
110.735 11226 105.953
110.851 11686 108.102
110.967 12072 109.873
111.083 12506 111.83
111.199 12512 111.857
111.316 12717 112.77
111.432 13011 114.066
111.549 12633 112.397
111.665 12603 112.263
111.782 12298 110.896
111.898 12149 110.223
112.015 11548 107.462
112.132 10603 102.971
112.248 10845 104.139
112.365 11272 106.17
112.482 12092 109.964
112.599 12098 109.991
112.716 12264 110.743
112.832 12342 111.095
112.949 12409 111.396
113.066 12229 110.585
113.183 11460 107.051
113.3 10419 102.074
113.417 9682 98.3972
113.534 9068 95.226
113.652 8553 92.4824
113.769 8205 90.5815
113.886 8709 93.322
114.003 9333 96.6075
114.12 10311 101.543
114.238 10674 103.315
114.355 11086 105.29
114.472 11857 108.89
114.589 11192 105.792
114.707 11975 109.43
114.824 12089 109.95
114.942 12273 110.784
115.059 12501 111.808
115.176 12533 111.951
115.294 12338 111.077
115.411 11989 109.494
115.529 11781 108.54
115.646 11057 105.152
115.764 10828 104.058
115.881 11231 105.976
115.999 11687 108.106
116.116 12261 110.729
116.234 12310 110.95
116.351 12354 111.149
116.469 12360 111.176
116.586 12343 111.099
116.704 11840 108.812
116.821 11335 106.466
116.939 10291 101.445
117.056 9703 98.5038
117.174 9223 96.0365
117.291 8696 93.2523
117.409 8552 92.477
117.526 9227 96.0573
117.644 9918 99.5892
117.761 10503 102.484
117.879 11003 104.895
117.996 11467 107.084
118.114 11984 109.471
118.231 12195 110.431
118.349 12226 110.571
118.466 12258 110.716
118.584 12616 112.321
118.701 12717 112.77
118.819 12439 111.53
118.936 12344 111.104
119.053 12026 109.663
119.171 11537 107.41
119.288 11317 106.381
119.405 11072 105.224
119.523 11333 106.457
119.64 11795 108.605
119.757 12322 111.005
119.875 12053 109.786
119.992 12277 110.802
120.109 12297 110.892
120.226 12333 111.054
120.343 12081 109.914
120.46 11474 107.117
120.578 10771 103.783
120.695 10106 100.529
120.812 9569 97.8213
120.929 9039 95.0737
121.046 8859 94.1223
121.163 9063 95.1998
121.279 9693 98.453
121.396 10482 102.382
121.513 10623 103.068
121.63 11269 106.156
121.747 11710 108.213
121.863 11916 109.16
121.98 12162 110.281
122.097 12752 112.925
122.213 12085 109.932
122.33 12504 111.821
122.446 12689 112.645
122.563 12260 110.725
122.679 12049 109.768
122.795 12123 110.104
122.912 11518 107.322
123.028 11018 104.967
123.144 11253 106.08
123.26 11032 105.033
123.377 0 1
123.493 0 1
123.609 0 1
123.725 0 1
123.84 0 1
123.956 0 1
124.072 0 1
124.188 0 1
124.303 0 1
124.419 0 1
126.852 0 1
126.968 0 1
127.083 0 1
127.199 0 1
127.315 0 1
127.431 0 1
127.547 0 1
127.663 0 1
127.779 0 1
127.895 0 1
128.011 0 1
128.127 0 1
128.243 0 1
128.359 12983 113.943
128.476 13467 116.047
128.592 13938 118.059
128.708 14725 121.347
128.825 14871 121.947
128.941 14772 121.54
129.058 15007 122.503
129.174 14998 122.466
129.291 14453 120.221
129.408 13920 117.983
129.524 12788 113.084
129.641 12275 110.793
129.758 11539 107.42
129.875 11040 105.071
129.992 10902 104.413
130.108 11312 106.358
130.225 11711 108.217
130.342 12462 111.633
130.459 12921 113.671
130.576 13631 116.752
130.693 13949 118.106
130.81 13969 118.191
130.928 14261 119.419
131.045 14409 120.037
131.162 14549 120.619
131.279 14529 120.536
131.396 14730 121.367
131.513 14425 120.104
131.631 14433 120.137
131.748 13976 118.22
131.865 13634 116.765
131.983 13751 117.265
132.1 14080 118.659
132.217 14644 121.012
132.335 14828 121.77
132.452 14823 121.75
132.57 15121 122.967
132.687 14553 120.636
132.804 14958 122.303
132.922 13876 117.796
133.039 13311 115.373
133.157 12552 112.036
133.274 11747 108.384
133.392 11275 106.184
133.509 11047 105.105
133.627 11023 104.99
133.744 11566 107.545
133.862 12030 109.681
133.979 12549 112.022
134.097 12696 112.677
134.214 13481 116.108
134.332 13346 115.525
134.449 13803 117.486
134.567 13963 118.165
134.684 14123 118.84
134.802 14207 119.193
134.919 14589 120.785
135.037 14264 119.432
135.154 14245 119.352
135.272 13708 117.081
135.389 13696 117.03
135.507 13423 115.858
135.624 13852 117.695
135.742 14084 118.676
135.859 14567 120.694
135.977 14466 120.275
136.094 14617 120.901
136.211 14471 120.295
136.329 14441 120.171
136.446 14397 119.987
136.564 13641 116.795
136.681 12899 113.574
136.798 12363 111.189
136.915 11628 107.833
137.033 11180 105.736
137.15 11015 104.952
137.267 11074 105.233
137.384 11415 106.841
137.502 11906 109.115
137.619 12424 111.463
137.736 12526 111.92
137.853 12702 112.703
137.97 13563 116.46
138.087 13243 115.078
138.204 13799 117.469
138.321 14413 120.054
138.438 14175 119.059
138.555 14495 120.395
138.672 14441 120.171
138.788 14494 120.391
138.905 14173 119.05
139.022 13803 117.486
139.139 13607 116.649
139.255 13884 117.83
139.372 14177 119.067
139.488 14607 120.859
139.605 14964 122.327
139.721 14886 122.008
139.838 14757 121.478
139.954 14996 122.458
140.071 14595 120.81
140.187 14438 120.158
140.303 13507 116.22
140.419 12873 113.459
140.535 12336 111.068
140.652 11706 108.194
140.768 0 1
140.884 0 1
141 0 1
141.115 0 1
141.231 0 1
141.347 0 1
141.463 0 1
141.578 0 1
141.694 0 1
144.104 0 1
144.219 0 1
144.335 0 1
144.45 0 1
144.566 0 1
144.682 0 1
144.798 0 1
144.914 0 1
145.03 0 1
145.146 13523 116.288
145.262 13006 114.044
145.378 12500 111.803
145.494 12290 110.86
145.61 11682 108.083
145.726 11357 106.569
145.842 11192 105.792
145.959 11283 106.221
146.075 11608 107.74
146.192 12016 109.618
146.308 12189 110.404
146.425 12351 111.135
146.541 12896 113.561
146.658 13151 114.678
146.774 13252 115.117
146.891 13520 116.276
147.008 13507 116.22
147.125 14062 118.583
147.241 13985 118.258
147.358 13823 117.571
147.475 13497 116.177
147.592 13135 114.608
147.709 12788 113.084
147.826 13157 114.704
147.943 13452 115.983
148.06 13680 116.962
148.177 14003 118.334
148.294 14131 118.874
148.411 14154 118.971
148.528 13931 118.03
148.645 13876 117.796
148.762 13803 117.486
148.88 13149 114.669
148.997 12320 110.995
149.114 12237 110.621
149.231 11710 108.213
149.349 11334 106.461
149.466 10711 103.494
149.583 10764 103.75
149.701 10671 103.301
149.818 11158 105.631
149.935 11444 106.977
150.053 11732 108.314
150.17 11983 109.467
150.287 12128 110.127
150.405 12549 112.022
150.522 12631 112.388
150.64 13222 114.987
150.757 13072 114.333
150.875 13081 114.372
150.992 12983 113.943
151.11 12694 112.668
151.227 12635 112.406
151.344 12621 112.343
151.462 12248 110.671
151.579 12815 113.203
151.697 13115 114.521
151.814 13175 114.782
151.932 13420 115.845
152.049 13628 116.739
152.167 13581 116.538
152.284 13480 116.103
152.402 13323 115.425
152.519 12879 113.486
152.636 12378 111.256
152.754 11747 108.384
152.871 11330 106.442
152.989 11010 104.929
153.106 10784 103.846
153.223 10504 102.489
153.341 11039 105.067
153.458 11071 105.219
153.575 11513 107.299
153.693 11570 107.564
153.81 12172 110.327
153.927 12198 110.445
154.044 12607 112.281
154.162 12666 112.543
154.279 12988 113.965
154.396 13380 115.672
154.513 13664 116.893
154.63 13445 115.953
154.747 13479 116.099
154.864 12792 113.102
154.981 12407 111.387
155.098 12628 112.374
155.215 12922 113.675
155.332 13314 115.386
155.449 13594 116.593
155.566 13543 116.374
155.683 13882 117.822
155.8 13844 117.661
155.917 13668 116.91
156.033 13611 116.666
156.15 0 1
156.267 0 1
156.383 0 1
156.5 0 1
156.617 0 1
156.733 0 1
156.85 0 1
156.966 0 1
157.082 0 1
157.199 0 1
157.315 0 1
157.431 0 1
157.547 0 1
157.664 0 1
157.78 0 1
157.896 0 1
158.012 0 1
158.128 0 1
158.244 0 1
158.359 0 1
158.475 0 1
158.591 0 1
158.706 0 1
