
6.15755 0 1
6.2731 0 1
6.3887 0 1
6.50437 0 1
6.62009 0 1
6.73587 0 1
6.8517 0 1
6.96759 0 1
7.08353 0 1
7.19952 0 1
7.31557 0 1
7.43166 0 1
7.54781 0 1
7.664 0 1
7.78024 0 1
7.89653 0 1
8.01286 0 1
8.12924 0 1
8.24567 0 1
8.36213 0 1
8.47864 0 1
8.59519 0 1
8.71178 0 1
8.82841 0 1
8.94508 0 1
9.06179 0 1
9.17853 0 1
9.29531 0 1
9.41212 0 1
9.52897 0 1
9.64584 0 1
9.76276 0 1
9.8797 0 1
9.99667 0 1
10.1137 0 1
10.2307 0 1
10.3478 0 1
10.4648 0 1
10.5819 0 1
10.6991 0 1
10.8162 0 1
10.9334 0 1
11.0506 0 1
11.1678 0 1
11.285 0 1
11.4023 0 1
11.5196 0 1
11.6369 0 1
11.7542 0 1
11.8715 0 1
11.9888 0 1
12.1062 0 1
12.2235 0 1
12.3409 0 1
12.4582 0 1
12.5756 0 1
12.693 0 1
12.8104 0 1
12.9278 0 1
13.0452 0 1
13.1626 0 1
13.28 0 1
13.3974 0 1
13.5149 0 1
13.6323 0 1
13.7497 0 1
13.8671 0 1
13.9845 0 1
14.1019 0 1
14.2193 0 1
14.3367 0 1
14.4541 0 1
14.5714 0 1
14.6888 0 1
14.8062 0 1
14.9235 0 1
15.0408 0 0
15.1581 0 0
15.2755 0 0
15.3927 0 0
15.51 0 0
15.6273 0 0
15.7445 0 0
15.8617 0 0
15.9789 0 0
16.0961 0 0
16.2132 0 0
16.3304 0 0
16.4475 0 0
16.5646 0 0
16.6816 0 0
16.7986 0 0
16.9156 0 0
17.0326 0 0
17.1496 0 0
17.2665 0 0
17.3833 0 0
17.5002 0 0
17.617 0 0
17.7338 0 0
17.8505 0 0
17.9672 0 0
18.0839 0 0
18.2005 0 0
18.3171 0 0
18.4337 0 0
18.5502 0 0
18.6666 0 0
18.7831 0 0
18.8994 0 0
19.0158 0 0
19.1321 0 0
19.2483 0 0
19.3645 0 0
19.4806 0 0
19.5967 0 0
19.7128 0 0
19.8288 0 0
19.9447 0 0
20.0606 0 1
20.1764 0 1
20.2922 0 1
20.4079 0 1
20.5236 0 1
20.6392 0 1
20.7548 0 1
20.8702 0 1
23.3078 0 1
23.4233 0 1
23.539 0 1
23.6547 0 1
23.7704 0 1
23.8862 0 1
24.0021 0 1
24.118 0 1
24.234 0 1
24.35 0 1
24.4661 23975 154.839
24.5822 23242 152.453
24.6984 23483 153.242
24.8146 22374 149.579
24.9309 22485 149.95
25.0472 22259 149.195
25.1636 22361 149.536
25.28 23097 151.977
25.3965 24043 155.058
25.513 24612 156.882
25.6296 25750 160.468
25.7462 26554 162.954
25.8628 26835 163.814
25.9795 26951 164.168
26.0962 26855 163.875
26.213 26940 164.134
26.3298 26605 163.11
26.4466 26413 162.521
26.5635 25831 160.72
26.6804 25336 159.173
26.7973 24564 156.729
26.9143 24695 157.146
27.0313 25352 159.223
27.1483 25807 160.646
27.2653 26566 162.991
27.3824 26753 163.563
27.4996 26703 163.411
27.6167 26664 163.291
27.7339 26201 161.867
27.8511 25754 160.481
27.9683 25016 158.164
28.0855 24265 155.772
28.2028 23802 154.279
28.3201 22725 150.748
28.4374 22156 148.849
28.5547 21387 146.243
28.6721 21677 147.231
28.7894 22162 148.869
28.9068 23242 152.453
29.0242 23960 154.79
29.1416 24604 156.857
29.259 25612 160.037
29.3764 25938 161.053
29.4939 26018 161.301
29.6113 26040 161.369
29.7288 26306 162.191
29.8463 26272 162.086
29.9638 26077 161.484
30.0812 25909 160.963
30.1987 25137 158.547
30.3162 24552 156.691
30.4337 24723 157.235
30.5512 24872 157.709
30.6687 25724 160.387
30.7862 26332 162.271
30.9037 26829 163.796
31.0212 27259 165.103
31.1387 27019 164.375
31.2562 26501 162.791
31.3737 26435 162.588
31.4912 25584 159.95
31.6087 24908 157.823
31.7262 23975 154.839
31.8436 22775 150.914
31.9611 22625 150.416
32.0785 21894 147.966
32.1959 21945 148.138
32.3134 22353 149.509
32.4308 23453 153.144
32.5482 24529 156.617
32.6655 25265 158.95
32.7829 25682 160.256
32.9002 26155 161.725
33.0176 26539 162.908
33.1349 26531 162.883
33.2522 26699 163.398
33.3694 27306 165.245
33.4867 26588 163.058
33.6039 26625 163.172
33.7211 26321 162.237
33.8383 25667 160.209
33.9554 25123 158.502
34.0725 24973 158.028
34.1896 25420 159.437
34.3067 25947 161.081
34.4237 26489 162.754
34.5407 27039 164.435
34.6577 27474 165.753
34.7746 27097 164.612
34.8915 27240 165.045
35.0084 26387 162.441
35.1252 25728 160.4
35.242 25564 159.887
35.3587 24731 157.261
35.4755 23812 154.311
35.5921 22686 150.619
35.7088 22160 148.862
35.8254 21533 146.741
35.9419 21568 146.86
36.0584 22010 148.358
36.1749 23287 152.601
36.2913 23799 154.269
36.4077 25012 158.152
36.524 25473 159.603
36.6403 26250 162.019
36.7565 25981 161.186
36.8727 26567 162.994
36.9889 26565 162.988
37.1049 26313 162.213
37.221 0 1
37.3369 0 1
37.4529 0 1
37.5687 0 1
37.6845 0 1
37.8003 0 1
37.916 0 1
38.0316 0 1
38.1472 0 1
40.5851 0 1
40.7008 0 1
40.8164 0 1
40.9322 0 1
41.048 0 1
41.1639 0 1
41.2798 0 1
41.3958 0 1
41.5118 0 1
41.6279 0 1
41.744 22997 151.648
41.8602 23867 154.489
41.9765 24105 155.258
42.0928 24370 156.109
42.2091 24415 156.253
42.3255 24493 156.502
42.4419 24330 155.981
42.5584 23441 153.105
42.675 23139 152.115
42.7915 22714 150.712
42.9081 23011 151.694
43.0248 23810 154.305
43.1415 24306 155.904
43.2582 24553 156.694
43.375 24874 157.715
43.4918 25002 158.12
43.6087 24784 157.429
43.7256 24510 156.557
43.8425 24314 155.929
43.9595 23829 154.366
44.0765 23267 152.535
44.1935 22117 148.718
44.3106 21111 145.296
44.4277 19933 141.184
44.5448 18193 134.881
44.6619 17631 132.782
44.7791 18014 134.216
44.8963 19065 138.076
45.0136 19505 139.66
45.1308 20393 142.804
45.2481 21514 146.677
45.3654 21770 147.547
45.4827 21843 147.794
45.6001 21732 147.418
45.7174 21773 147.557
45.8348 21492 146.602
45.9522 21041 145.055
46.0697 20500 143.178
46.1871 19501 139.646
46.3046 18878 137.397
46.422 18821 137.19
46.5395 19577 139.918
46.657 20163 141.996
46.7745 20207 142.151
46.892 19950 141.244
47.0096 20111 141.813
47.1271 20043 141.573
47.2446 20059 141.63
47.3622 19544 139.8
47.4797 18973 137.743
47.5973 18357 135.488
47.7149 17934 133.918
47.8324 17036 130.522
47.95 15766 125.563
48.0675 15019 122.552
48.1851 14144 118.929
48.3027 14024 118.423
48.4202 14506 120.441
48.5378 14966 122.336
48.6554 15743 125.471
48.7729 16972 130.277
48.8904 17281 131.457
49.008 17825 133.51
49.1255 18091 134.503
49.243 18132 134.655
49.3605 17878 133.709
49.478 18171 134.8
49.5955 17465 132.155
49.713 16936 130.138
49.8304 17130 130.882
49.9479 17346 131.704
50.0653 18652 136.572
50.1827 19595 139.982
50.3001 20087 141.729
50.4175 20530 143.283
50.5348 20772 144.125
50.6521 21678 147.235
50.7694 22201 149
50.8867 22469 149.897
51.004 22813 151.04
51.1212 22725 150.748
51.2384 22581 150.27
51.3556 21749 147.475
51.4727 20635 143.649
51.5899 19453 139.474
51.707 18505 136.033
51.824 18712 136.792
51.9411 19771 140.609
52.0581 21484 146.574
52.175 22869 151.225
52.2919 24495 156.509
52.4088 25088 158.392
52.5257 25766 160.518
52.6425 25991 161.217
52.7593 26104 161.567
52.876 26493 162.767
52.9927 26690 163.371
53.1094 26611 163.129
53.226 26124 161.629
53.3426 25546 159.831
53.4591 25714 160.356
53.5756 26205 161.88
53.692 27297 165.218
53.8084 28006 167.35
53.9248 28271 168.14
54.0411 28692 169.387
54.1573 29232 170.974
54.2735 0 1
54.3896 0 1
54.5057 0 1
54.6217 0 1
54.7377 0 1
54.8537 0 1
54.9695 0 1
55.0853 0 1
55.2011 0 1
55.3168 0 1
55.4324 0 1
57.824 0 1
57.9396 0 1
58.0553 0 1
58.1711 0 1
58.2869 0 1
58.4028 0 1
58.5187 0 1
58.6347 0 1
58.7508 0 1
58.8669 0 1
58.983 35017 187.128
59.0992 35882 189.425
59.2155 36745 191.69
59.3318 36830 191.911
59.4482 36728 191.646
59.5646 36996 192.343
59.681 36649 191.439
59.7975 35756 189.093
59.9141 34141 184.773
60.0306 32753 180.978
60.1473 30446 174.488
60.2639 28454 168.683
60.3807 26415 162.527
60.4974 26289 162.139
60.6142 27192 164.9
60.731 28680 169.352
60.8479 31001 176.071
60.9648 33237 182.31
61.0818 34265 185.108
61.1987 35049 187.214
61.3158 35455 188.295
61.4328 35409 188.173
61.5499 34721 186.336
61.667 34654 186.156
61.7841 34218 184.981
61.9013 33946 184.244
62.0185 33718 183.625
62.1357 33773 183.774
62.253 34895 186.802
62.3702 35805 189.222
62.4875 36544 191.165
62.6049 36862 191.995
62.7222 37249 193
62.8396 37470 193.572
62.9569 37775 194.358
63.0743 37140 192.717
63.1918 36843 191.945
63.3092 35781 189.159
63.4267 34552 185.882
63.5441 32675 180.762
63.6616 30377 174.29
63.7791 27691 166.406
63.8966 25914 160.978
64.0142 25188 158.707
64.1317 26173 161.781
64.2492 28512 168.855
64.3668 30680 175.157
64.4843 32836 181.207
64.6019 34685 186.239
64.7195 35080 187.297
64.837 35934 189.563
64.9546 35741 189.053
65.0722 35800 189.209
65.1898 34961 186.979
65.3074 35059 187.24
65.4249 33881 184.068
65.5425 33758 183.734
65.6601 33596 183.292
65.7777 34800 186.548
65.8952 35750 189.077
66.0128 36985 192.315
66.1304 37185 192.834
66.2479 38207 195.466
66.3655 38664 196.632
66.483 39008 197.504
66.6005 38700 196.723
66.718 38793 196.959
66.8355 37824 194.484
66.953 37110 192.64
67.0705 35643 188.794
67.1879 33466 182.937
67.3054 30995 176.054
67.4228 27961 167.215
67.5402 25275 158.981
67.6576 25169 158.647
67.7749 26369 162.385
67.8923 29651 172.195
68.0096 32518 180.327
68.1269 35342 187.995
68.2442 37363 193.295
68.3614 38296 195.694
68.4787 38707 196.741
68.5958 39066 197.651
68.713 38782 196.931
68.8302 38658 196.616
68.9473 38351 195.834
69.0643 37575 193.843
69.1814 37129 192.689
69.2984 37177 192.813
69.4154 37956 194.823
69.5323 39753 199.382
69.6492 40571 201.422
69.7661 41958 204.837
69.8829 42358 205.811
69.9997 43334 208.168
70.1165 43588 208.777
70.2332 43599 208.804
70.3499 43400 208.327
70.4665 42921 207.174
70.5831 41320 203.273
70.6996 40138 200.345
70.8161 37685 194.126
70.9326 35429 188.226
71.049 32056 179.042
71.1653 28281 168.17
71.2817 25781 160.565
71.3979 26027 161.329
71.5141 28063 167.52
71.6303 30224 173.851
71.7464 30980 176.011
71.8624 0 1
71.9784 0 1
72.0944 0 1
72.2102 0 1
72.3261 0 1
72.4418 0 1
72.5575 0 1
72.6732 0 1
75.1054 0 1
75.2209 0 1
75.3365 0 1
75.4521 0 1
75.5678 0 1
75.6835 0 1
75.7993 0 1
75.9151 0 1
76.031 0 1
76.147 37486 193.613
76.263 37835 194.512
76.3791 35180 187.563
76.4952 30676 175.146
76.6113 28111 167.663
76.7276 29362 171.353
76.8438 31599 177.761
76.9601 36231 190.344
77.0765 40869 202.161
77.1929 44008 209.781
77.3093 46189 214.916
77.4258 47023 216.848
77.5423 46806 216.347
77.6589 46674 216.042
77.7755 46617 215.91
77.8921 46175 214.884
78.0088 45744 213.878
78.1256 44960 212.038
78.2423 44320 210.523
78.3591 44215 210.274
78.4759 45181 212.558
78.5928 46661 216.012
78.7097 48335 219.852
78.8266 51376 226.663
78.9436 48329 219.839
79.0606 50707 225.182
79.1776 50360 224.41
79.2946 51206 226.287
79.4117 50543 224.818
79.5288 50194 224.04
79.6459 48382 219.959
79.7631 46946 216.67
79.8802 44008 209.781
79.9974 40623 201.551
80.1147 35842 189.32
80.2319 31375 177.13
80.3491 30879 175.724
80.4664 33911 184.149
80.5837 38850 197.104
80.701 44337 210.564
80.8183 47654 218.298
80.9357 49819 223.202
81.053 50455 224.622
81.1704 50582 224.904
81.2877 51397 226.709
81.4051 50097 223.824
81.5225 50885 225.577
81.6399 48807 220.923
81.7573 48931 221.204
81.8747 47326 217.545
81.9922 47389 217.69
82.1096 47698 218.399
82.227 49033 221.434
82.3444 50452 224.615
82.4619 52515 229.162
82.5793 51455 226.837
82.6967 53857 232.071
82.8142 53342 230.959
82.9316 53482 231.262
83.049 52990 230.196
83.1664 51304 226.504
83.2838 49888 223.356
83.4012 47632 218.248
83.5186 45276 212.782
83.636 42355 205.803
83.7534 36997 192.346
83.8708 32291 179.697
83.9881 30782 175.448
84.1055 33016 181.703
84.2228 36973 192.284
84.3401 43720 209.093
84.4575 49134 221.662
84.5747 51788 227.57
84.692 53334 230.942
84.8093 53854 232.065
84.9265 53691 231.713
85.0437 53590 231.495
85.1609 53350 230.976
85.2781 52519 229.17
85.3952 51516 226.971
85.5123 51235 226.351
85.6294 51044 225.929
85.7465 52360 228.823
85.8636 54016 232.413
85.9806 56147 236.954
86.0976 58039 240.913
86.2145 59145 243.197
86.3315 58157 241.158
86.4484 62697 250.394
86.5652 61642 248.278
86.682 60859 246.696
86.7988 59296 243.508
86.9156 58401 241.663
87.0323 56271 237.215
87.149 53053 230.332
87.2657 48434 220.077
87.3823 41968 204.861
87.4988 38175 195.384
87.6154 39052 197.616
87.7318 44351 210.597
87.8483 51726 227.434
87.9647 58190 241.226
88.081 62099 249.197
88.1973 64047 253.075
88.3136 64872 254.7
88.4298 64884 254.723
88.546 63862 252.709
88.6621 63268 251.531
88.7781 62288 249.576
88.8942 0 1
89.0101 0 1
89.126 0 1
89.2419 0 1
89.3577 0 1
89.4734 0 1
89.5891 0 1
89.7047 0 1
89.8203 0 1
89.9358 0 1
92.3269 0 1
92.4424 0 1
92.558 0 1
92.6736 0 1
92.7893 0 1
92.905 0 1
93.0208 0 1
93.1366 0 1
93.2525 0 1
93.3685 0 1
93.4845 0 1
93.6005 65450 255.832
93.7167 66690 258.244
93.8328 67657 260.11
93.949 67226 259.28
94.0653 67101 259.039
94.1816 66861 258.575
94.2979 66942 258.732
94.4143 65354 255.644
94.5307 65051 255.051
94.6472 64752 254.464
94.7637 63877 252.739
94.8803 66012 256.928
94.9969 66606 258.081
95.1135 68852 262.397
95.2302 70595 265.697
95.3469 71726 267.817
95.4637 72781 269.78
95.5805 73443 271.004
95.6973 74408 272.778
95.8142 74825 273.542
95.9311 73079 270.331
96.048 70740 265.97
96.1649 68241 261.23
96.2819 64691 254.344
96.3989 59954 244.855
96.516 52521 229.175
96.633 46123 214.763
96.7501 44050 209.881
96.8673 47117 217.065
96.9844 54270 232.959
97.1016 62076 249.151
97.2188 69360 263.363
97.336 74036 272.096
97.4532 75648 275.042
97.5704 76324 276.268
97.6877 76058 275.786
97.805 75507 274.785
97.9223 74898 273.675
98.0396 73641 271.369
98.1569 73776 271.617
98.2743 72042 268.406
98.3916 71472 267.342
98.509 71329 267.075
98.6264 71979 268.289
98.7438 74028 272.081
98.8612 75978 275.641
98.9786 78570 280.303
99.096 79053 281.164
99.2134 80900 284.429
99.3308 80408 283.563
99.4482 80207 283.208
99.5656 79553 282.051
99.6831 77487 278.365
99.8005 75006 273.872
99.9179 71061 266.573
100.035 65158 255.261
100.153 56071 236.793
100.27 50025 223.663
100.388 50517 224.76
100.505 57495 239.781
100.622 66326 257.538
100.74 74699 273.311
100.857 79045 281.149
100.975 80715 284.104
101.092 81884 286.154
101.209 81289 285.112
101.327 81275 285.088
101.444 81038 284.672
101.561 80700 284.077
101.679 80277 283.332
101.796 78885 280.865
101.913 78386 279.975
102.03 76885 277.281
102.148 77437 278.275
102.265 82410 287.071
102.382 78888 280.87
102.499 84101 290.002
102.616 84820 291.239
102.733 86778 294.581
102.851 88255 297.077
102.968 87705 296.15
103.085 86967 294.902
103.202 85059 291.649
103.319 81951 286.271
103.436 77564 278.503
103.552 70986 266.432
103.669 61487 247.966
103.786 54000 232.379
103.903 54284 232.989
104.02 62107 249.213
104.137 71478 267.354
104.253 82584 287.374
104.37 83605 289.145
104.487 88662 297.762
104.603 88807 298.005
104.72 88353 297.242
104.836 88680 297.792
104.953 87509 295.819
105.069 86755 294.542
105.186 86957 294.885
105.302 85850 293.002
105.418 84258 290.272
105.535 83208 288.458
105.651 83174 288.399
105.767 85820 292.951
105.883 87989 296.629
105.999 90006 300.01
106.115 0 1
106.231 0 1
106.347 0 1
106.463 0 1
106.579 0 1
106.694 0 1
106.81 0 1
106.926 0 1
107.041 0 1
107.157 0 1
109.576 0 1
109.692 0 1
109.807 0 1
109.923 0 1
110.039 0 1
110.155 0 1
110.27 0 1
110.386 0 1
110.502 0 1
110.618 77513 278.412
110.735 79789 282.469
110.851 81463 285.417
110.967 83623 289.176
111.083 85022 291.585
111.199 85954 293.179
111.316 87069 295.075
111.432 87083 295.098
111.549 86260 293.701
111.665 84803 291.21
111.782 81188 284.935
111.898 75416 274.62
112.015 69220 263.097
112.132 59694 244.324
112.248 52500 229.129
112.365 51449 226.824
112.482 56252 237.175
112.599 63495 251.982
112.716 72444 269.154
112.832 77654 278.665
112.949 79792 282.475
113.066 79384 281.752
113.183 79223 281.466
113.3 77669 278.692
113.417 77125 277.714
113.534 76775 277.083
113.652 75617 274.985
113.769 75510 274.791
113.886 73759 271.586
114.003 72691 269.613
114.12 71949 268.233
114.238 71478 267.354
114.355 71885 268.114
114.472 72553 269.357
114.589 74855 273.596
114.707 75181 274.192
114.824 75652 275.049
114.942 77014 277.514
115.059 76583 276.736
115.176 75976 275.637
115.294 74539 273.018
115.411 70898 266.267
115.529 65934 256.776
115.646 59933 244.812
115.764 52366 228.836
115.881 47170 217.187
115.999 49068 221.513
116.116 56177 237.017
116.234 64220 253.417
116.351 69671 263.953
116.469 72834 269.878
116.586 73915 271.873
116.704 74596 273.123
116.821 73947 271.932
116.939 74139 272.285
117.056 73123 270.413
117.174 73327 270.79
117.291 73158 270.477
117.409 72985 270.157
117.526 71484 267.365
117.644 71409 267.225
117.761 70875 266.224
117.879 71163 266.764
117.996 70709 265.912
118.114 72746 269.715
118.231 74158 272.32
118.349 75117 274.075
118.466 75765 275.254
118.584 75727 275.185
118.701 76653 276.863
118.819 75657 275.058
118.936 73332 270.799
119.053 69430 263.496
119.171 65429 255.791
119.288 58031 240.896
119.405 51258 226.402
119.523 47028 216.859
119.64 49330 222.104
119.757 54855 234.211
119.875 61419 247.829
119.992 67203 259.235
120.109 70040 264.651
120.226 71661 267.696
120.343 71589 267.561
120.46 71738 267.84
120.578 71360 267.133
120.695 70941 266.348
120.812 70986 266.432
120.929 70663 265.825
121.046 70439 265.403
121.163 69775 264.15
121.279 69324 263.295
121.396 69054 262.781
121.513 68289 261.322
121.63 68930 262.545
121.747 68376 261.488
121.863 69627 263.869
121.98 70785 266.055
122.097 71541 267.471
122.213 72597 269.438
122.33 72008 268.343
122.446 71792 267.94
122.563 70619 265.742
122.679 68504 261.733
122.795 65636 256.195
122.912 61537 248.067
123.028 55228 235.006
123.144 48567 220.379
123.26 44839 211.752
123.377 0 1
123.493 0 1
123.609 0 1
123.725 0 1
123.84 0 1
123.956 0 1
124.072 0 1
124.188 0 1
124.303 0 1
124.419 0 1
126.852 0 1
126.968 0 1
127.083 0 1
127.199 0 1
127.315 0 1
127.431 0 1
127.547 0 1
127.663 0 1
127.779 0 1
127.895 0 1
128.011 0 1
128.127 0 1
128.243 0 1
128.359 54092 232.577
128.476 49135 221.664
128.592 51511 226.96
128.708 57018 238.784
128.825 65404 255.742
128.941 71353 267.12
129.058 74322 272.621
129.174 75390 274.572
129.291 75278 274.368
129.408 74847 273.582
129.524 75183 274.195
129.641 74747 273.399
129.758 74383 272.732
129.875 73956 271.949
129.992 74135 272.277
130.108 72696 269.622
130.225 72625 269.49
130.342 72766 269.752
130.459 70471 265.464
130.576 73367 270.863
130.693 72618 269.477
130.81 72589 269.423
130.928 73981 271.994
131.045 74110 272.232
131.162 75183 274.195
131.279 75171 274.173
131.396 73813 271.685
131.513 72627 269.494
131.631 69755 264.112
131.748 65684 256.289
131.865 58271 241.394
131.983 51897 227.809
132.1 50814 225.42
132.217 54866 234.235
132.335 61962 248.922
132.452 67673 260.14
132.57 71327 267.071
132.687 70411 265.351
132.804 74759 273.421
132.922 72516 269.288
133.039 72396 269.065
133.157 72414 269.098
133.274 71387 267.183
133.392 71366 267.144
133.509 70556 265.624
133.627 70503 265.524
133.744 70447 265.419
133.862 69478 263.587
133.979 70403 265.336
134.097 69889 264.365
134.214 70852 266.18
134.332 69308 263.264
134.449 70509 265.535
134.567 71306 267.032
134.684 72422 269.113
134.802 72594 269.433
134.919 72021 268.367
135.037 71164 266.766
135.154 68762 262.225
135.272 66230 257.352
135.389 60516 246
135.507 54699 233.878
135.624 49888 223.356
135.742 50983 225.794
135.859 56234 237.137
135.977 62304 249.608
136.094 67920 260.615
136.211 69600 263.818
136.329 70919 266.306
136.446 70666 265.831
136.564 70823 266.126
136.681 71434 267.271
136.798 69601 263.82
136.915 69541 263.706
137.033 69322 263.291
137.15 68673 262.055
137.267 67625 260.048
137.384 67901 260.578
137.502 67525 259.856
137.619 67342 259.503
137.736 67543 259.89
137.853 66651 258.169
137.97 66168 257.231
138.087 68947 262.578
138.204 67831 260.444
138.321 69490 263.61
138.438 70016 264.605
138.555 69803 264.203
138.672 69039 262.753
138.788 66993 258.83
138.905 64991 254.933
139.022 61030 247.043
139.139 55004 234.529
139.255 50766 225.313
139.372 50787 225.36
139.488 54820 234.137
139.605 60293 245.546
139.721 65062 255.073
139.838 68321 261.383
139.954 68382 261.5
140.071 68092 260.944
140.187 68449 261.628
140.303 67708 260.208
140.419 67366 259.55
140.535 66247 257.385
140.652 65226 255.394
140.768 0 1
140.884 0 1
141 0 1
141.115 0 1
141.231 0 1
141.347 0 1
141.463 0 1
141.578 0 1
141.694 0 1
144.104 0 1
144.219 0 1
144.335 0 1
144.45 0 1
144.566 0 1
144.682 0 1
144.798 0 1
144.914 0 1
145.03 0 1
145.146 59801 244.542
145.262 60409 245.782
145.378 59482 243.889
145.494 59206 243.323
145.61 58268 241.388
145.726 58004 240.84
145.842 57274 239.32
145.959 56879 238.493
146.075 57141 239.042
146.192 57113 238.983
146.308 57650 240.104
146.425 57389 239.56
146.541 57852 240.524
146.658 57078 238.91
146.774 56994 238.734
146.891 57612 240.025
147.008 57745 240.302
147.125 57979 240.788
147.241 57435 239.656
147.358 56669 238.053
147.475 54339 233.107
147.592 51919 227.857
147.709 48038 219.176
147.826 43790 209.261
147.943 43121 207.656
148.06 44980 212.085
148.177 49451 222.376
148.294 53705 231.743
148.411 55831 236.286
148.528 56374 237.432
148.645 55621 235.841
148.762 55910 236.453
148.88 55548 235.686
148.997 53065 230.358
149.114 56182 237.027
149.231 54344 233.118
149.349 53989 232.355
149.466 52930 230.065
149.583 52177 228.423
149.701 51833 227.669
149.818 52791 229.763
149.935 52916 230.035
150.053 53883 232.127
150.17 53699 231.73
150.287 53565 231.441
150.405 53386 231.054
150.522 53376 231.032
150.64 54044 232.474
150.757 54258 232.933
150.875 53808 231.966
150.992 53529 231.363
151.11 50812 225.415
151.227 49314 222.068
151.344 46682 216.06
151.462 42587 206.366
151.579 41775 204.389
151.697 44059 209.902
151.814 48600 220.454
151.932 51581 227.115
152.049 54454 233.354
152.167 54786 234.064
152.284 54863 234.229
152.402 54854 234.209
152.519 54962 234.44
152.636 54797 234.088
152.754 54005 232.39
152.871 53249 230.757
152.989 52662 229.482
153.106 52524 229.181
153.223 51908 227.833
153.341 52433 228.983
153.458 52946 230.1
153.575 53316 230.903
153.693 53624 231.569
153.81 54165 232.734
153.927 53511 231.324
154.044 53607 231.532
154.162 54486 233.422
154.279 55388 235.347
154.396 55822 236.267
154.513 55891 236.413
154.63 55434 235.444
154.747 53800 231.948
154.864 52418 228.95
154.981 49638 222.796
155.098 46376 215.351
155.215 44713 211.454
155.332 47068 216.952
155.449 50900 225.61
155.566 53869 232.097
155.683 54947 234.408
155.8 55511 235.608
155.917 55177 234.898
156.033 55127 234.791
156.15 0 1
156.267 0 1
156.383 0 1
156.5 0 1
156.617 0 1
156.733 0 1
156.85 0 1
156.966 0 1
157.082 0 1
157.199 0 1
157.315 0 1
157.431 0 1
157.547 0 1
157.664 0 1
157.78 0 1
157.896 0 1
158.012 0 1
158.128 0 1
158.244 0 1
158.359 0 1
158.475 0 1
158.591 0 1
158.706 0 1
