
6.15755 0 1
6.2731 0 1
6.3887 0 1
6.50437 0 1
6.62009 0 1
6.73587 0 1
6.8517 0 1
6.96759 0 1
7.08353 0 1
7.19952 0 1
7.31557 0 1
7.43166 0 1
7.54781 0 1
7.664 0 1
7.78024 0 1
7.89653 0 1
8.01286 0 1
8.12924 0 1
8.24567 0 1
8.36213 0 1
8.47864 0 1
8.59519 0 1
8.71178 0 1
8.82841 0 1
8.94508 0 1
9.06179 0 1
9.17853 0 1
9.29531 0 1
9.41212 0 1
9.52897 0 1
9.64584 0 1
9.76276 0 1
9.8797 0 1
9.99667 0 1
10.1137 0 1
10.2307 0 1
10.3478 0 1
10.4648 0 1
10.5819 0 1
10.6991 0 1
10.8162 0 1
10.9334 0 1
11.0506 0 1
11.1678 0 1
11.285 0 1
11.4023 0 1
11.5196 0 1
11.6369 0 1
11.7542 0 1
11.8715 0 1
11.9888 0 1
12.1062 0 1
12.2235 0 1
12.3409 0 1
12.4582 0 1
12.5756 0 1
12.693 0 1
12.8104 0 1
12.9278 0 1
13.0452 0 1
13.1626 0 1
13.28 0 1
13.3974 0 1
13.5149 0 1
13.6323 0 1
13.7497 0 1
13.8671 0 1
13.9845 0 1
14.1019 0 1
14.2193 0 1
14.3367 0 1
14.4541 0 1
14.5714 0 1
14.6888 0 1
14.8062 0 1
14.9235 0 1
15.0408 0 0
15.1581 0 0
15.2755 0 0
15.3927 0 0
15.51 0 0
15.6273 0 0
15.7445 0 0
15.8617 0 0
15.9789 0 0
16.0961 0 0
16.2132 0 0
16.3304 0 0
16.4475 0 0
16.5646 0 0
16.6816 0 0
16.7986 0 0
16.9156 0 0
17.0326 0 0
17.1496 0 0
17.2665 0 0
17.3833 0 0
17.5002 0 0
17.617 0 0
17.7338 0 0
17.8505 0 0
17.9672 0 0
18.0839 0 0
18.2005 0 0
18.3171 0 0
18.4337 0 0
18.5502 0 0
18.6666 0 0
18.7831 0 0
18.8994 0 0
19.0158 0 0
19.1321 0 0
19.2483 0 0
19.3645 0 0
19.4806 0 0
19.5967 0 0
19.7128 0 0
19.8288 0 0
19.9447 0 0
20.0606 0 1
20.1764 0 1
20.2922 0 1
20.4079 0 1
20.5236 0 1
20.6392 0 1
20.7548 0 1
20.8702 0 1
23.3078 0 1
23.4233 0 1
23.539 0 1
23.6547 0 1
23.7704 0 1
23.8862 0 1
24.0021 0 1
24.118 0 1
24.234 0 1
24.35 0 1
24.4661 1300 36.0555
24.5822 1439 37.9342
24.6984 1525 39.0512
24.8146 1639 40.4846
24.9309 1896 43.5431
25.0472 2215 47.0638
25.1636 2446 49.4571
25.28 2538 50.3786
25.3965 2644 51.4198
25.513 2671 51.6817
25.6296 2667 51.643
25.7462 2698 51.9423
25.8628 2742 52.3641
25.9795 2665 51.6236
26.0962 2682 51.788
26.213 2793 52.8488
26.3298 2745 52.3927
26.4466 2744 52.3832
26.5635 2764 52.5738
26.6804 2727 52.2207
26.7973 2702 51.9808
26.9143 2652 51.4976
27.0313 2492 49.9199
27.1483 2493 49.93
27.2653 2556 50.5569
27.3824 2333 48.3011
27.4996 2268 47.6235
27.6167 2125 46.0977
27.7339 2079 45.5961
27.8511 2187 46.7654
27.9683 2369 48.6724
28.0855 2429 49.2849
28.2028 2493 49.93
28.3201 2521 50.2096
28.4374 2431 49.3052
28.5547 2449 49.4874
28.6721 2488 49.8799
28.7894 2468 49.679
28.9068 2509 50.0899
29.0242 2490 49.8999
29.1416 2616 51.1468
29.259 2530 50.2991
29.3764 2483 49.8297
29.4939 2455 49.548
29.6113 2414 49.1325
29.7288 2427 49.2646
29.8463 2320 48.1664
29.9638 2319 48.156
30.0812 2268 47.6235
30.1987 2386 48.8467
30.3162 2355 48.5283
30.4337 2372 48.7032
30.5512 2411 49.1019
30.6687 2473 49.7293
30.7862 2464 49.6387
30.9037 2282 47.7703
31.0212 2229 47.2123
31.1387 2148 46.3465
31.2562 2331 48.2804
31.3737 2332 48.2908
31.4912 2405 49.0408
31.6087 2507 50.07
31.7262 2565 50.6458
31.8436 2534 50.3389
31.9611 2522 50.2195
32.0785 2418 49.1732
32.1959 2352 48.4974
32.3134 2425 49.2443
32.4308 2356 48.5386
32.5482 2332 48.2908
32.6655 2236 47.2864
32.7829 2255 47.4868
32.9002 2254 47.4763
33.0176 2190 46.7974
33.1349 2159 46.465
33.2522 2236 47.2864
33.3694 2071 45.5082
33.4867 2162 46.4973
33.6039 2107 45.9021
33.7211 2225 47.1699
33.8383 2214 47.0532
33.9554 2260 47.5395
34.0725 2256 47.4974
34.1896 2365 48.6313
34.3067 2357 48.5489
34.4237 2354 48.518
34.5407 2228 47.2017
34.6577 2171 46.594
34.7746 2112 45.9565
34.8915 2184 46.7333
35.0084 2359 48.5695
35.1252 2478 49.7795
35.242 2454 49.5379
35.3587 2410 49.0918
35.4755 2379 48.775
35.5921 2342 48.3942
35.7088 2422 49.2138
35.8254 2325 48.2183
35.9419 2085 45.6618
36.0584 1997 44.6878
36.1749 1907 43.6692
36.2913 2074 45.5412
36.4077 1969 44.3734
36.524 1843 42.9302
36.6403 1660 40.7431
36.7565 1529 39.1024
36.8727 1443 37.9868
36.9889 1492 38.6264
37.1049 1389 37.2693
37.221 0 1
37.3369 0 1
37.4529 0 1
37.5687 0 1
37.6845 0 1
37.8003 0 1
37.916 0 1
38.0316 0 1
38.1472 0 1
40.5851 0 1
40.7008 0 1
40.8164 0 1
40.9322 0 1
41.048 0 1
41.1639 0 1
41.2798 0 1
41.3958 0 1
41.5118 0 1
41.6279 0 1
41.744 2192 46.8188
41.8602 2977 54.5619
41.9765 3636 60.2993
42.0928 3900 62.45
42.2091 3957 62.9047
42.3255 3937 62.7455
42.4419 3952 62.8649
42.5584 3946 62.8172
42.675 4148 64.405
42.7915 4116 64.1561
42.9081 4290 65.4981
43.0248 4277 65.3988
43.1415 4146 64.3894
43.2582 4180 64.6529
43.375 3707 60.8851
43.4918 3666 60.5475
43.6087 3809 61.7171
43.7256 3855 62.0886
43.8425 3872 62.2254
43.9595 4126 64.2339
44.0765 4056 63.6867
44.1935 3824 61.8385
44.3106 3867 62.1852
44.4277 3845 62.0081
44.5448 3471 58.9152
44.6619 3392 58.2409
44.7791 3328 57.6888
44.8963 3120 55.857
45.0136 2839 53.2823
45.1308 2723 52.1824
45.2481 2546 50.4579
45.3654 2358 48.5592
45.4827 2351 48.4871
45.6001 2122 46.0652
45.7174 2012 44.8553
45.8348 2032 45.0777
45.9522 1973 44.4185
46.0697 1985 44.5533
46.1871 1937 44.0114
46.3046 1926 43.8862
46.422 2000 44.7214
46.5395 2037 45.1331
46.657 2070 45.4973
46.7745 1979 44.486
46.892 1841 42.9069
47.0096 1869 43.2319
47.1271 1854 43.0581
47.2446 1947 44.1248
47.3622 1886 43.4281
47.4797 1914 43.7493
47.5973 1946 44.1135
47.7149 2009 44.8219
47.8324 1929 43.9204
47.95 1925 43.8748
48.0675 1979 44.486
48.1851 1846 42.9651
48.3027 1795 42.3674
48.4202 1833 42.8135
48.5378 1782 42.2137
48.6554 1750 41.833
48.7729 1688 41.0853
48.8904 1652 40.6448
49.008 1577 39.7115
49.1255 1644 40.5463
49.243 1685 41.0488
49.3605 1712 41.3763
49.478 1635 40.4351
49.5955 1788 42.2847
49.713 1855 43.0697
49.8304 1909 43.6921
49.9479 1810 42.5441
50.0653 1940 44.0454
50.1827 1907 43.6692
50.3001 1775 42.1307
50.4175 1597 39.9625
50.5348 1506 38.8072
50.6521 1569 39.6106
50.7694 1808 42.5206
50.8867 1856 43.0813
51.004 1845 42.9535
51.1212 1921 43.8292
51.2384 1842 42.9185
51.3556 1930 43.9318
51.4727 1808 42.5206
51.5899 1843 42.9302
51.707 1878 43.3359
51.824 1774 42.1189
51.9411 1823 42.6966
52.0581 1781 42.2019
52.175 1742 41.7373
52.2919 1716 41.4246
52.4088 1744 41.7612
52.5257 1663 40.7799
52.6425 1728 41.5692
52.7593 1653 40.6571
52.876 1661 40.7554
52.9927 1615 40.1871
53.1094 1681 41
53.226 1653 40.6571
53.3426 1687 41.0731
53.4591 1670 40.8656
53.5756 1501 38.7427
53.692 1346 36.6879
53.8084 1195 34.5688
53.9248 1118 33.4365
54.0411 1011 31.7962
54.1573 961 31
54.2735 0 1
54.3896 0 1
54.5057 0 1
54.6217 0 1
54.7377 0 1
54.8537 0 1
54.9695 0 1
55.0853 0 1
55.2011 0 1
55.3168 0 1
55.4324 0 1
57.824 0 1
57.9396 0 1
58.0553 0 1
58.1711 0 1
58.2869 0 1
58.4028 0 1
58.5187 0 1
58.6347 0 1
58.7508 0 1
58.8669 0 1
58.983 1527 39.0768
59.0992 1559 39.4842
59.2155 1561 39.5095
59.3318 1595 39.9375
59.4482 1767 42.0357
59.5646 1988 44.587
59.681 1991 44.6206
59.7975 2106 45.8912
59.9141 2136 46.2169
60.0306 2150 46.3681
60.1473 2116 46
60.2639 2143 46.2925
60.3807 2159 46.465
60.4974 2081 45.618
60.6142 2088 45.6946
60.731 2112 45.9565
60.8479 2187 46.7654
60.9648 2198 46.8828
61.0818 2146 46.3249
61.1987 2104 45.8694
61.3158 2104 45.8694
61.4328 2040 45.1664
61.5499 2080 45.607
61.667 2118 46.0217
61.7841 1986 44.5646
61.9013 2010 44.833
62.0185 2124 46.0869
62.1357 2150 46.3681
62.253 2184 46.7333
62.3702 2144 46.3033
62.4875 2009 44.8219
62.6049 1886 43.4281
62.7222 1969 44.3734
62.8396 1967 44.3509
62.9569 2126 46.1086
63.0743 2240 47.3286
63.1918 2326 48.2286
63.3092 2243 47.3603
63.4267 2218 47.0956
63.5441 2206 46.9681
63.6616 2259 47.5289
63.7791 2231 47.2335
63.8966 2199 46.8935
64.0142 2185 46.744
64.1317 2131 46.1628
64.2492 2208 46.9894
64.3668 2214 47.0532
64.4843 2097 45.793
64.6019 2095 45.7712
64.7195 2156 46.4327
64.837 1965 44.3283
64.9546 2054 45.3211
65.0722 1979 44.486
65.1898 2030 45.0555
65.3074 2095 45.7712
65.4249 2075 45.5522
65.5425 2134 46.1952
65.6601 2056 45.3431
65.7777 2127 46.1194
65.8952 2089 45.7056
66.0128 2017 44.911
66.1304 1790 42.3084
66.2479 1734 41.6413
66.3655 1815 42.6028
66.483 1951 44.1701
66.6005 2088 45.6946
66.718 2131 46.1628
66.8355 2214 47.0532
66.953 2284 47.7912
67.0705 2179 46.6798
67.1879 2111 45.9456
67.3054 2148 46.3465
67.4228 2101 45.8367
67.5402 2104 45.8694
67.6576 2106 45.8912
67.7749 2064 45.4313
67.8923 2111 45.9456
68.0096 2092 45.7384
68.1269 2136 46.2169
68.2442 2066 45.4533
68.3614 2021 44.9555
68.4787 2085 45.6618
68.5958 2054 45.3211
68.713 1967 44.3509
68.8302 1803 42.4617
68.9473 1995 44.6654
69.0643 1926 43.8862
69.1814 2006 44.7884
69.2984 2066 45.4533
69.4154 1972 44.4072
69.5323 1903 43.6234
69.6492 1880 43.359
69.7661 1695 41.1704
69.8829 1522 39.0128
69.9997 1610 40.1248
70.1165 1796 42.3792
70.2332 1798 42.4028
70.3499 1731 41.6053
70.4665 1563 39.5348
70.5831 1465 38.2753
70.6996 1390 37.2827
70.8161 1387 37.2424
70.9326 1385 37.2156
71.049 1281 35.7911
71.1653 1285 35.8469
71.2817 1146 33.8526
71.3979 1169 34.1906
71.5141 1105 33.2415
71.6303 1047 32.3574
71.7464 1063 32.6037
71.8624 0 1
71.9784 0 1
72.0944 0 1
72.2102 0 1
72.3261 0 1
72.4418 0 1
72.5575 0 1
72.6732 0 1
75.1054 0 1
75.2209 0 1
75.3365 0 1
75.4521 0 1
75.5678 0 1
75.6835 0 1
75.7993 0 1
75.9151 0 1
76.031 0 1
76.147 1632 40.398
76.263 1799 42.4146
76.3791 1828 42.7551
76.4952 1787 42.2729
76.6113 1900 43.589
76.7276 1947 44.1248
76.8438 1948 44.1362
76.9601 1931 43.9431
77.0765 2043 45.1996
77.1929 2019 44.9333
77.3093 2002 44.7437
77.4258 1929 43.9204
77.5423 1904 43.6348
77.6589 1878 43.3359
77.7755 1910 43.7035
77.8921 1907 43.6692
78.0088 1849 43
78.1256 1856 43.0813
78.2423 1939 44.0341
78.3591 1955 44.2154
78.4759 1994 44.6542
78.5928 2029 45.0444
78.7097 1791 42.3202
78.8266 1521 39
78.9436 1377 37.108
79.0606 1447 38.0395
79.1776 1690 41.1096
79.2946 1844 42.9418
79.4117 2025 45
79.5288 2063 45.4203
79.6459 1990 44.6094
79.7631 2037 45.1331
79.8802 2107 45.9021
79.9974 2093 45.7493
80.1147 2014 44.8776
80.2319 2031 45.0666
80.3491 2048 45.2548
80.4664 2012 44.8553
80.5837 2056 45.3431
80.701 2089 45.7056
80.8183 2093 45.7493
80.9357 2109 45.9239
81.053 2134 46.1952
81.1704 2179 46.6798
81.2877 2011 44.8442
81.4051 2068 45.4753
81.5225 2105 45.8803
81.6399 2073 45.5302
81.7573 2219 47.1063
81.8747 2220 47.1169
81.9922 2216 47.0744
82.1096 2374 48.7237
82.227 2462 49.6185
82.3444 2347 48.4458
82.4619 2093 45.7493
82.5793 1931 43.9431
82.6967 1979 44.486
82.8142 2494 49.94
82.9316 2988 54.6626
83.049 3384 58.1722
83.1664 3518 59.3127
83.2838 3561 59.6741
83.4012 3764 61.3514
83.5186 3800 61.6441
83.636 3935 62.7296
83.7534 3896 62.4179
83.8708 4038 63.5453
83.9881 4013 63.3482
84.1055 4132 64.2806
84.2228 4178 64.6375
84.3401 4207 64.8614
84.4575 4153 64.4438
84.5747 4208 64.8691
84.692 4181 64.6607
84.8093 4088 63.9375
84.9265 4012 63.3404
85.0437 4073 63.8201
85.1609 3944 62.8013
85.2781 3971 63.0159
85.3952 3982 63.1031
85.5123 3969 63
85.6294 3984 63.1189
85.7465 3897 62.426
85.8636 3866 62.1772
85.9806 3286 57.3236
86.0976 2753 52.469
86.2145 2576 50.7543
86.3315 2868 53.5537
86.4484 3576 59.7997
86.5652 3939 62.7615
86.682 4013 63.3482
86.7988 3965 62.9682
86.9156 3777 61.4573
87.0323 3907 62.506
87.149 3847 62.0242
87.2657 4056 63.6867
87.3823 3924 62.6418
87.4988 3810 61.7252
87.6154 3512 59.2621
87.7318 3218 56.7274
87.8483 2920 54.037
87.9647 2827 53.1695
88.081 2857 53.4509
88.1973 2784 52.7636
88.3136 2659 51.5655
88.4298 2576 50.7543
88.546 2457 49.5681
88.6621 2272 47.6655
88.7781 2194 46.8402
88.8942 0 1
89.0101 0 1
89.126 0 1
89.2419 0 1
89.3577 0 1
89.4734 0 1
89.5891 0 1
89.7047 0 1
89.8203 0 1
89.9358 0 1
92.3269 0 1
92.4424 0 1
92.558 0 1
92.6736 0 1
92.7893 0 1
92.905 0 1
93.0208 0 1
93.1366 0 1
93.2525 0 1
93.3685 0 1
93.4845 0 1
93.6005 4100 64.0312
93.7167 4270 65.3452
93.8328 4097 64.0078
93.949 4056 63.6867
94.0653 4357 66.0076
94.1816 4098 64.0156
94.2979 4109 64.1015
94.4143 4189 64.7225
94.5307 4103 64.0547
94.6472 4002 63.2614
94.7637 3884 62.3217
94.8803 3769 61.3922
94.9969 3150 56.1249
95.1135 3012 54.8817
95.2302 3046 55.1906
95.3469 3525 59.3717
95.4637 3887 62.3458
95.5805 4146 64.3894
95.6973 4171 64.5833
95.8142 4311 65.6582
95.9311 4234 65.0692
96.048 4250 65.192
96.1649 4174 64.6065
96.2819 4284 65.4523
96.3989 4233 65.0615
96.516 4257 65.2457
96.633 4248 65.1767
96.7501 4344 65.909
96.8673 4354 65.9848
96.9844 4391 66.2646
97.1016 4497 67.0597
97.2188 4417 66.4605
97.336 4471 66.8655
97.4532 4235 65.0769
97.5704 4231 65.0461
97.6877 4246 65.1613
97.805 4235 65.0769
97.9223 4140 64.3428
98.0396 4295 65.5362
98.1569 4229 65.0308
98.2743 4203 64.8305
98.3916 3778 61.4654
98.509 3266 57.1489
98.6264 3039 55.1271
98.7438 3025 55
98.8612 3350 57.8792
98.9786 3767 61.3759
99.096 3980 63.0872
99.2134 3743 61.1801
99.3308 3813 61.7495
99.4482 3710 60.9098
99.5656 3607 60.0583
99.6831 3513 59.2706
99.8005 3402 58.3267
99.9179 3428 58.5491
100.035 3194 56.5155
100.153 3151 56.1338
100.27 3101 55.6866
100.388 3214 56.6922
100.505 3075 55.4527
100.622 2949 54.3047
100.74 2998 54.754
100.857 2948 54.2955
100.975 2825 53.1507
101.092 2819 53.0943
101.209 2733 52.2781
101.327 2632 51.303
101.444 2681 51.7784
101.561 2790 52.8205
101.679 2899 53.8424
101.796 2726 52.2111
101.913 2583 50.8232
102.03 2505 50.05
102.148 2244 47.3709
102.265 2067 45.4643
102.382 2282 47.7703
102.499 2409 49.0816
102.616 2620 51.1859
102.733 2489 49.8899
102.851 2662 51.5946
102.968 2521 50.2096
103.085 2523 50.2295
103.202 2555 50.547
103.319 2423 49.224
103.436 2520 50.1996
103.552 2525 50.2494
103.669 2586 50.8527
103.786 2477 49.7695
103.903 2478 49.7795
104.02 2590 50.892
104.137 2547 50.4678
104.253 2686 51.8266
104.37 2524 50.2394
104.487 2416 49.1528
104.603 2385 48.8365
104.72 2294 47.8957
104.836 2164 46.5188
104.953 2050 45.2769
105.069 1738 41.6893
105.186 1594 39.9249
105.302 1534 39.1663
105.418 1414 37.6032
105.535 1305 36.1248
105.651 1151 33.9264
105.767 920 30.3315
105.883 804 28.3549
105.999 822 28.6705
106.115 0 1
106.231 0 1
106.347 0 1
106.463 0 1
106.579 0 1
106.694 0 1
106.81 0 1
106.926 0 1
107.041 0 1
107.157 0 1
109.576 0 1
109.692 0 1
109.807 0 1
109.923 0 1
110.039 0 1
110.155 0 1
110.27 0 1
110.386 0 1
110.502 0 1
110.618 2546 50.4579
110.735 2614 51.1273
110.851 2610 51.0882
110.967 2412 49.1121
111.083 2232 47.244
111.199 2449 49.4874
111.316 2611 51.0979
111.432 2808 52.9906
111.549 2672 51.6914
111.665 2833 53.2259
111.782 2792 52.8394
111.898 2796 52.8772
112.015 2824 53.1413
112.132 2809 53
112.248 2808 52.9906
112.365 2785 52.7731
112.482 2666 51.6333
112.599 2917 54.0093
112.716 2868 53.5537
112.832 3050 55.2268
112.949 3157 56.1872
113.066 3058 55.2992
113.183 3009 54.8544
113.3 3067 55.3805
113.417 3051 55.2359
113.534 3053 55.254
113.652 3063 55.3444
113.769 3173 56.3294
113.886 3140 56.0357
114.003 3026 55.0091
114.12 3072 55.4256
114.238 3059 55.3082
114.355 2834 53.2353
114.472 2524 50.2394
114.589 2538 50.3786
114.707 2463 49.6286
114.824 2784 52.7636
114.942 2900 53.8516
115.059 2927 54.1018
115.176 2963 54.4334
115.294 2954 54.3507
115.411 2833 53.2259
115.529 2957 54.3783
115.646 2915 53.9907
115.764 2866 53.535
115.881 2842 53.3104
115.999 2851 53.3948
116.116 2878 53.647
116.234 2854 53.4228
116.351 3153 56.1516
116.469 3114 55.8032
116.586 3210 56.6569
116.704 3215 56.701
116.821 3237 56.8946
116.939 3191 56.4889
117.056 3205 56.6127
117.174 3087 55.5608
117.291 3142 56.0535
117.409 3155 56.1694
117.526 3117 55.8301
117.644 3210 56.6569
117.761 3117 55.8301
117.879 3011 54.8726
117.996 2862 53.4977
118.114 2605 51.0392
118.231 2506 50.06
118.349 2695 51.9134
118.466 2802 52.9339
118.584 2780 52.7257
118.701 2897 53.8238
118.819 2956 54.3691
118.936 2867 53.5444
119.053 2840 53.2917
119.171 2773 52.6593
119.288 2882 53.6843
119.405 2775 52.6783
119.523 2784 52.7636
119.64 2780 52.7257
119.757 2783 52.7541
119.875 2884 53.7029
119.992 2852 53.4041
120.109 2909 53.9351
120.226 3002 54.7905
120.343 3018 54.9363
120.46 3053 55.254
120.578 2998 54.754
120.695 3099 55.6687
120.812 2995 54.7266
120.929 2864 53.5164
121.046 2858 53.4603
121.163 2798 52.8961
121.279 2901 53.8609
121.396 2808 52.9906
121.513 2759 52.5262
121.63 2536 50.3587
121.747 2333 48.3011
121.863 2082 45.6289
121.98 1947 44.1248
122.097 1957 44.238
122.213 2023 44.9778
122.33 2068 45.4753
122.446 2046 45.2327
122.563 1888 43.4511
122.679 1845 42.9535
122.795 1783 42.2256
122.912 1822 42.6849
123.028 1711 41.3642
123.144 1744 41.7612
123.26 1738 41.6893
123.377 0 1
123.493 0 1
123.609 0 1
123.725 0 1
123.84 0 1
123.956 0 1
124.072 0 1
124.188 0 1
124.303 0 1
124.419 0 1
126.852 0 1
126.968 0 1
127.083 0 1
127.199 0 1
127.315 0 1
127.431 0 1
127.547 0 1
127.663 0 1
127.779 0 1
127.895 0 1
128.011 0 1
128.127 0 1
128.243 0 1
128.359 3291 57.3672
128.476 3281 57.28
128.592 3313 57.5587
128.708 3314 57.5674
128.825 3318 57.6021
128.941 3370 58.0517
129.058 3418 58.4637
129.174 3332 57.7235
129.291 3538 59.4811
129.408 3527 59.3886
129.524 3695 60.7865
129.641 3658 60.4814
129.758 3875 62.2495
129.875 3853 62.0725
129.992 3914 62.562
130.108 4065 63.7574
130.225 3959 62.9206
130.342 3874 62.2415
130.459 3813 61.7495
130.576 3920 62.6099
130.693 3661 60.5062
130.81 3428 58.5491
130.928 3626 60.2163
131.045 3484 59.0254
131.162 3734 61.1065
131.279 3801 61.6523
131.396 3830 61.887
131.513 3858 62.1128
131.631 3861 62.1369
131.748 3924 62.6418
131.865 3826 61.8547
131.983 3799 61.636
132.1 3832 61.9032
132.217 3689 60.7371
132.335 3769 61.3922
132.452 3612 60.0999
132.57 3680 60.663
132.687 3545 59.5399
132.804 3923 62.6339
132.922 3913 62.554
133.039 3890 62.3699
133.157 3890 62.3699
133.274 3837 61.9435
133.392 3981 63.0952
133.509 4146 64.3894
133.627 4143 64.3661
133.744 4112 64.1249
133.862 4302 65.5896
133.979 4359 66.0227
134.097 4216 64.9307
134.214 4184 64.6838
134.332 3994 63.1981
134.449 3927 62.6658
134.567 3968 62.9921
134.684 4163 64.5213
134.802 4174 64.6065
134.919 4318 65.7115
135.037 4347 65.9318
135.154 4222 64.9769
135.272 4066 63.7652
135.389 4133 64.2884
135.507 4037 63.5374
135.624 3926 62.6578
135.742 4037 63.5374
135.859 3939 62.7615
135.977 3827 61.8628
136.094 3843 61.9919
136.211 3859 62.1208
136.329 3967 62.9841
136.446 3974 63.0397
136.564 3906 62.498
136.681 3890 62.3699
136.798 4060 63.7181
136.915 4016 63.3719
137.033 4030 63.4823
137.15 4074 63.8279
137.267 4026 63.4508
137.384 4217 64.9384
137.502 3993 63.1902
137.619 4059 63.7103
137.736 3987 63.1427
137.853 3905 62.49
137.97 3971 63.0159
138.087 3705 60.8687
138.204 3751 61.2454
138.321 3997 63.2218
138.438 4034 63.5138
138.555 4108 64.0937
138.672 3992 63.1823
138.788 3993 63.1902
138.905 3868 62.1932
139.022 3776 61.4492
139.139 3744 61.1882
139.255 3512 59.2621
139.372 3370 58.0517
139.488 3211 56.6657
139.605 3104 55.7136
139.721 2988 54.6626
139.838 2913 53.9722
139.954 2864 53.5164
140.071 2797 52.8867
140.187 2910 53.9444
140.303 2812 53.0283
140.419 2778 52.7067
140.535 2874 53.6097
140.652 2846 53.3479
140.768 0 1
140.884 0 1
141 0 1
141.115 0 1
141.231 0 1
141.347 0 1
141.463 0 1
141.578 0 1
141.694 0 1
144.104 0 1
144.219 0 1
144.335 0 1
144.45 0 1
144.566 0 1
144.682 0 1
144.798 0 1
144.914 0 1
145.03 0 1
145.146 8200 90.5539
145.262 8659 93.0537
145.378 8617 92.8278
145.494 8709 93.322
145.61 8655 93.0323
145.726 8639 92.9462
145.842 8736 93.4666
145.959 8831 93.9734
146.075 8850 94.0744
146.192 8792 93.7657
146.308 8764 93.6162
146.425 8481 92.0923
146.541 7974 89.2973
146.658 7028 83.8332
146.774 5874 76.642
146.891 5712 75.5778
147.008 6321 79.5047
147.125 7389 85.9593
147.241 8263 90.901
147.358 8540 92.4121
147.475 8617 92.8278
147.592 8616 92.8224
147.709 8639 92.9462
147.826 8681 93.1719
147.943 8707 93.3113
148.06 8835 93.9947
148.177 8736 93.4666
148.294 8721 93.3863
148.411 8723 93.397
148.528 8655 93.0323
148.645 8798 93.7977
148.762 8733 93.4505
148.88 8897 94.3239
148.997 8728 93.4238
149.114 9298 96.4261
149.231 8886 94.2656
149.349 9312 96.4987
149.466 8987 94.7998
149.583 9232 96.0833
149.701 8990 94.8156
149.818 9203 95.9323
149.935 8977 94.747
150.053 9078 95.2785
150.17 8660 93.0591
150.287 7773 88.1646
150.405 6652 81.5598
150.522 5976 77.3046
150.64 6393 79.9562
150.757 7447 86.296
150.875 8490 92.1412
150.992 8939 94.5463
151.11 8722 93.3916
151.227 8859 94.1223
151.344 8548 92.4554
151.462 8800 93.8083
151.579 8792 93.7657
151.697 8765 93.6216
151.814 8777 93.6856
151.932 8920 94.4458
152.049 8902 94.3504
152.167 9077 95.2733
152.284 9218 96.0104
152.402 9017 94.9579
152.519 9039 95.0737
152.636 9190 95.8645
152.754 9294 96.4054
152.871 9309 96.4832
152.989 9147 95.6399
153.106 9409 97
153.223 9385 96.8762
153.341 9271 96.286
153.458 9583 97.8928
153.575 9504 97.4885
153.693 9313 96.5039
153.81 9061 95.1893
153.927 7945 89.1347
154.044 6907 83.1084
154.162 6373 79.8311
154.279 6900 83.0662
154.396 7889 88.82
154.513 8859 94.1223
154.63 9094 95.3625
154.747 9228 96.0625
154.864 8982 94.7734
154.981 8955 94.6309
155.098 9035 95.0526
155.215 9046 95.1105
155.332 8519 92.2984
155.449 8366 91.4658
155.566 8356 91.4112
155.683 8226 90.6973
155.8 8108 90.0444
155.917 7874 88.7356
156.033 7758 88.0795
156.15 0 1
156.267 0 1
156.383 0 1
156.5 0 1
156.617 0 1
156.733 0 1
156.85 0 1
156.966 0 1
157.082 0 1
157.199 0 1
157.315 0 1
157.431 0 1
157.547 0 1
157.664 0 1
157.78 0 1
157.896 0 1
158.012 0 1
158.128 0 1
158.244 0 1
158.359 0 1
158.475 0 1
158.591 0 1
158.706 0 1
