
6.15755 0 1
6.2731 0 1
6.3887 0 1
6.50437 0 1
6.62009 0 1
6.73587 0 1
6.8517 0 1
6.96759 0 1
7.08353 0 1
7.19952 0 1
7.31557 0 1
7.43166 0 1
7.54781 0 1
7.664 0 1
7.78024 0 1
7.89653 0 1
8.01286 0 1
8.12924 0 1
8.24567 0 1
8.36213 0 1
8.47864 0 1
8.59519 0 1
8.71178 0 1
8.82841 0 1
8.94508 0 1
9.06179 0 1
9.17853 0 1
9.29531 0 1
9.41212 0 1
9.52897 0 1
9.64584 0 1
9.76276 0 1
9.8797 0 1
9.99667 0 1
10.1137 0 1
10.2307 0 1
10.3478 0 1
10.4648 0 1
10.5819 0 1
10.6991 0 1
10.8162 0 1
10.9334 0 1
11.0506 0 1
11.1678 0 1
11.285 0 1
11.4023 0 1
11.5196 0 1
11.6369 0 1
11.7542 0 1
11.8715 0 1
11.9888 0 1
12.1062 0 1
12.2235 0 1
12.3409 0 1
12.4582 0 1
12.5756 0 1
12.693 0 1
12.8104 0 1
12.9278 0 1
13.0452 0 1
13.1626 0 1
13.28 0 1
13.3974 0 1
13.5149 0 1
13.6323 0 1
13.7497 0 1
13.8671 0 1
13.9845 0 1
14.1019 0 1
14.2193 0 1
14.3367 0 1
14.4541 0 1
14.5714 0 1
14.6888 0 1
14.8062 0 1
14.9235 0 1
15.0408 0 0
15.1581 0 0
15.2755 0 0
15.3927 0 0
15.51 0 0
15.6273 0 0
15.7445 0 0
15.8617 0 0
15.9789 0 0
16.0961 0 0
16.2132 0 0
16.3304 0 0
16.4475 0 0
16.5646 0 0
16.6816 0 0
16.7986 0 0
16.9156 0 0
17.0326 0 0
17.1496 0 0
17.2665 0 0
17.3833 0 0
17.5002 0 0
17.617 0 0
17.7338 0 0
17.8505 0 0
17.9672 0 0
18.0839 0 0
18.2005 0 0
18.3171 0 0
18.4337 0 0
18.5502 0 0
18.6666 0 0
18.7831 0 0
18.8994 0 0
19.0158 0 0
19.1321 0 0
19.2483 0 0
19.3645 0 0
19.4806 0 0
19.5967 0 0
19.7128 0 0
19.8288 0 0
19.9447 0 0
20.0606 0 1
20.1764 0 1
20.2922 0 1
20.4079 0 1
20.5236 0 1
20.6392 0 1
20.7548 0 1
20.8702 0 1
23.3078 0 1
23.4233 0 1
23.539 0 1
23.6547 0 1
23.7704 0 1
23.8862 0 1
24.0021 0 1
24.118 0 1
24.234 0 1
24.35 0 1
24.4661 1381 37.1618
24.5822 1529 39.1024
24.6984 1585 39.8121
24.8146 1733 41.6293
24.9309 2077 45.5741
25.0472 2391 48.8979
25.1636 2632 51.303
25.28 2700 51.9615
25.3965 2719 52.144
25.513 2873 53.6004
25.6296 2879 53.6563
25.7462 2853 53.4135
25.8628 2836 53.2541
25.9795 2773 52.6593
26.0962 2867 53.5444
26.213 2953 54.3415
26.3298 2898 53.8331
26.4466 3052 55.2449
26.5635 2790 52.8205
26.6804 2903 53.8795
26.7973 2730 52.2494
26.9143 2811 53.0189
27.0313 2729 52.2398
27.1483 2744 52.3832
27.2653 2680 51.7687
27.3824 2392 48.9081
27.4996 2360 48.5798
27.6167 2335 48.3218
27.7339 2293 47.8853
27.8511 2492 49.9199
27.9683 2689 51.8556
28.0855 2543 50.4282
28.2028 2701 51.9711
28.3201 2619 51.1762
28.4374 2592 50.9117
28.5547 2616 51.1468
28.6721 2690 51.8652
28.7894 2638 51.3615
28.9068 2632 51.303
29.0242 2761 52.5452
29.1416 2724 52.192
29.259 2701 51.9711
29.3764 2814 53.0471
29.4939 2532 50.319
29.6113 2626 51.2445
29.7288 2496 49.96
29.8463 2443 49.4267
29.9638 2500 50
30.0812 2450 49.4975
30.1987 2498 49.98
30.3162 2631 51.2933
30.4337 2539 50.3885
30.5512 2656 51.5364
30.6687 2686 51.8266
30.7862 2577 50.7642
30.9037 2440 49.3964
31.0212 2408 49.0714
31.1387 2396 48.949
31.2562 2500 50
31.3737 2486 49.8598
31.4912 2629 51.2738
31.6087 2702 51.9808
31.7262 2643 51.4101
31.8436 2726 52.2111
31.9611 2640 51.3809
32.0785 2611 51.0979
32.1959 2632 51.303
32.3134 2559 50.5866
32.4308 2589 50.8822
32.5482 2561 50.6063
32.6655 2438 49.3761
32.7829 2416 49.1528
32.9002 2418 49.1732
33.0176 2298 47.9375
33.1349 2255 47.4868
33.2522 2254 47.4763
33.3694 2278 47.7284
33.4867 2261 47.55
33.6039 2329 48.2597
33.7211 2310 48.0625
33.8383 2351 48.4871
33.9554 2410 49.0918
34.0725 2439 49.3862
34.1896 2578 50.774
34.3067 2512 50.1199
34.4237 2489 49.8899
34.5407 2311 48.0729
34.6577 2401 49
34.7746 2368 48.6621
34.8915 2409 49.0816
35.0084 2469 49.689
35.1252 2621 51.1957
35.242 2616 51.1468
35.3587 2724 52.192
35.4755 2532 50.319
35.5921 2532 50.319
35.7088 2462 49.6185
35.8254 2399 48.9796
35.9419 2357 48.5489
36.0584 2215 47.0638
36.1749 2172 46.6047
36.2913 2106 45.8912
36.4077 2177 46.6583
36.524 1912 43.7264
36.6403 1832 42.8019
36.7565 1631 40.3856
36.8727 1495 38.6652
36.9889 1518 38.9615
37.1049 1411 37.5633
37.221 0 1
37.3369 0 1
37.4529 0 1
37.5687 0 1
37.6845 0 1
37.8003 0 1
37.916 0 1
38.0316 0 1
38.1472 0 1
40.5851 0 1
40.7008 0 1
40.8164 0 1
40.9322 0 1
41.048 0 1
41.1639 0 1
41.2798 0 1
41.3958 0 1
41.5118 0 1
41.6279 0 1
41.744 2119 46.0326
41.8602 2810 53.0094
41.9765 3408 58.3781
42.0928 3575 59.7913
42.2091 3662 60.5145
42.3255 3735 61.1146
42.4419 3591 59.925
42.5584 3639 60.3241
42.675 3850 62.0484
42.7915 3991 63.1744
42.9081 3976 63.0555
43.0248 4054 63.671
43.1415 4033 63.5059
43.2582 3849 62.0403
43.375 3538 59.4811
43.4918 3524 59.3633
43.6087 3659 60.4897
43.7256 3665 60.5392
43.8425 3772 61.4166
43.9595 3896 62.4179
44.0765 3894 62.4019
44.1935 3889 62.3618
44.3106 3765 61.3596
44.4277 3469 58.8982
44.5448 3663 60.5227
44.6619 3444 58.6856
44.7791 3390 58.2237
44.8963 3119 55.848
45.0136 3091 55.5968
45.1308 2776 52.6878
45.2481 2686 51.8266
45.3654 2647 51.449
45.4827 2548 50.4777
45.6001 2334 48.3115
45.7174 2232 47.244
45.8348 2187 46.7654
45.9522 2159 46.465
46.0697 2198 46.8828
46.1871 2206 46.9681
46.3046 2232 47.244
46.422 2232 47.244
46.5395 2251 47.4447
46.657 2195 46.8508
46.7745 2135 46.2061
46.892 2060 45.3872
47.0096 1907 43.6692
47.1271 1949 44.1475
47.2446 2025 45
47.3622 2122 46.0652
47.4797 2232 47.244
47.5973 2137 46.2277
47.7149 2077 45.5741
47.8324 2091 45.7275
47.95 2184 46.7333
48.0675 2011 44.8442
48.1851 2033 45.0888
48.3027 1950 44.1588
48.4202 2002 44.7437
48.5378 2085 45.6618
48.6554 1871 43.2551
48.7729 1836 42.8486
48.8904 1837 42.8602
49.008 1810 42.5441
49.1255 1847 42.9767
49.243 1907 43.6692
49.3605 1875 43.3013
49.478 1867 43.2088
49.5955 1956 44.2267
49.713 1969 44.3734
49.8304 2036 45.1221
49.9479 2118 46.0217
50.0653 2091 45.7275
50.1827 2078 45.5851
50.3001 1941 44.0568
50.4175 1686 41.0609
50.5348 1667 40.8289
50.6521 1678 40.9634
50.7694 1934 43.9773
50.8867 2008 44.8107
51.004 2123 46.076
51.1212 2182 46.7119
51.2384 2091 45.7275
51.3556 2051 45.288
51.4727 2069 45.4863
51.5899 2066 45.4533
51.707 1986 44.5646
51.824 1997 44.6878
51.9411 1989 44.5982
52.0581 1927 43.8976
52.175 2038 45.1442
52.2919 1976 44.4522
52.4088 1911 43.715
52.5257 1905 43.6463
52.6425 1909 43.6921
52.7593 1804 42.4735
52.876 1823 42.6966
52.9927 1879 43.3474
53.1094 1836 42.8486
53.226 1854 43.0581
53.3426 1873 43.2782
53.4591 1922 43.8406
53.5756 1692 41.1339
53.692 1448 38.0526
53.8084 1324 36.3868
53.9248 1241 35.2278
54.0411 1070 32.7109
54.1573 1058 32.5269
54.2735 0 1
54.3896 0 1
54.5057 0 1
54.6217 0 1
54.7377 0 1
54.8537 0 1
54.9695 0 1
55.0853 0 1
55.2011 0 1
55.3168 0 1
55.4324 0 1
57.824 0 1
57.9396 0 1
58.0553 0 1
58.1711 0 1
58.2869 0 1
58.4028 0 1
58.5187 0 1
58.6347 0 1
58.7508 0 1
58.8669 0 1
58.983 1687 41.0731
59.0992 1662 40.7676
59.2155 1679 40.9756
59.3318 1916 43.7721
59.4482 2028 45.0333
59.5646 2180 46.6905
59.681 2370 48.6826
59.7975 2439 49.3862
59.9141 2373 48.7134
60.0306 2360 48.5798
60.1473 2404 49.0306
60.2639 2438 49.3761
60.3807 2378 48.7647
60.4974 2411 49.1019
60.6142 2360 48.5798
60.731 2382 48.8057
60.8479 2422 49.2138
60.9648 2532 50.319
61.0818 2567 50.6656
61.1987 2331 48.2804
61.3158 2363 48.6107
61.4328 2303 47.9896
61.5499 2278 47.7284
61.667 2278 47.7284
61.7841 2298 47.9375
61.9013 2303 47.9896
62.0185 2351 48.4871
62.1357 2431 49.3052
62.253 2446 49.4571
62.3702 2319 48.156
62.4875 2206 46.9681
62.6049 2052 45.299
62.7222 2091 45.7275
62.8396 2246 47.392
62.9569 2426 49.2544
63.0743 2480 49.7996
63.1918 2552 50.5173
63.3092 2463 49.6286
63.4267 2566 50.6557
63.5441 2570 50.6952
63.6616 2456 49.558
63.7791 2419 49.1833
63.8966 2493 49.93
64.0142 2507 50.07
64.1317 2417 49.163
64.2492 2382 48.8057
64.3668 2516 50.1597
64.4843 2455 49.548
64.6019 2501 50.01
64.7195 2391 48.8979
64.837 2339 48.3632
64.9546 2363 48.6107
65.0722 2225 47.1699
65.1898 2228 47.2017
65.3074 2261 47.55
65.4249 2231 47.2335
65.5425 2273 47.676
65.6601 2379 48.775
65.7777 2331 48.2804
65.8952 2280 47.7493
66.0128 2171 46.594
66.1304 1998 44.699
66.2479 1929 43.9204
66.3655 1988 44.587
66.483 2143 46.2925
66.6005 2404 49.0306
66.718 2475 49.7494
66.8355 2381 48.7955
66.953 2382 48.8057
67.0705 2436 49.3559
67.1879 2400 48.9898
67.3054 2400 48.9898
67.4228 2383 48.816
67.5402 2364 48.621
67.6576 2362 48.6004
67.7749 2327 48.239
67.8923 2311 48.0729
68.0096 2387 48.8569
68.1269 2411 49.1019
68.2442 2246 47.392
68.3614 2220 47.1169
68.4787 2267 47.613
68.5958 2224 47.1593
68.713 2167 46.551
68.8302 2307 48.0312
68.9473 2210 47.0106
69.0643 2256 47.4974
69.1814 2192 46.8188
69.2984 2237 47.2969
69.4154 2179 46.6798
69.5323 2233 47.2546
69.6492 2130 46.1519
69.7661 1821 42.6732
69.8829 1739 41.7013
69.9997 1848 42.9884
70.1165 2037 45.1331
70.2332 2016 44.8999
70.3499 1917 43.7836
70.4665 1873 43.2782
70.5831 1656 40.694
70.6996 1531 39.128
70.8161 1572 39.6485
70.9326 1531 39.128
71.049 1403 37.4566
71.1653 1355 36.8103
71.2817 1331 36.4829
71.3979 1307 36.1525
71.5141 1265 35.5668
71.6303 1217 34.8855
71.7464 1090 33.0151
71.8624 0 1
71.9784 0 1
72.0944 0 1
72.2102 0 1
72.3261 0 1
72.4418 0 1
72.5575 0 1
72.6732 0 1
75.1054 0 1
75.2209 0 1
75.3365 0 1
75.4521 0 1
75.5678 0 1
75.6835 0 1
75.7993 0 1
75.9151 0 1
76.031 0 1
76.147 1889 43.4626
76.263 2089 45.7056
76.3791 2058 45.3652
76.4952 2114 45.9783
76.6113 2144 46.3033
76.7276 2167 46.551
76.8438 2180 46.6905
76.9601 2225 47.1699
77.0765 2216 47.0744
77.1929 2171 46.594
77.3093 2251 47.4447
77.4258 2242 47.3498
77.5423 2145 46.3141
77.6589 2201 46.9148
77.7755 2159 46.465
77.8921 2147 46.3357
78.0088 2054 45.3211
78.1256 2149 46.3573
78.2423 2306 48.0208
78.3591 2208 46.9894
78.4759 2249 47.4236
78.5928 2129 46.1411
78.7097 2033 45.0888
78.8266 1668 40.8412
78.9436 1542 39.2683
79.0606 1657 40.7063
79.1776 1973 44.4185
79.2946 2106 45.8912
79.4117 2229 47.2123
79.5288 2247 47.4025
79.6459 2229 47.2123
79.7631 2355 48.5283
79.8802 2274 47.6865
79.9974 2285 47.8017
80.1147 2305 48.0104
80.2319 2292 47.8748
80.3491 2262 47.5605
80.4664 2374 48.7237
80.5837 2326 48.2286
80.701 2356 48.5386
80.8183 2317 48.1352
80.9357 2511 50.1099
81.053 2364 48.621
81.1704 2332 48.2908
81.2877 2325 48.2183
81.4051 2222 47.1381
81.5225 2315 48.1144
81.6399 2297 47.927
81.7573 2321 48.1768
81.8747 2540 50.3984
81.9922 2433 49.3254
82.1096 2632 51.303
82.227 2696 51.923
82.3444 2497 49.97
82.4619 2218 47.0956
82.5793 2087 45.6837
82.6967 2254 47.4763
82.8142 2701 51.9711
82.9316 3221 56.7539
83.049 3616 60.1332
83.1664 3656 60.4649
83.2838 3770 61.4003
83.4012 3966 62.9762
83.5186 3985 63.1269
83.636 4100 64.0312
83.7534 4147 64.3972
83.8708 4187 64.707
83.9881 4231 65.0461
84.1055 4358 66.0151
84.2228 4359 66.0227
84.3401 4404 66.3626
84.4575 4325 65.7647
84.5747 4563 67.55
84.692 4376 66.1513
84.8093 4353 65.9773
84.9265 4358 66.0151
85.0437 4276 65.3911
85.1609 4143 64.3661
85.2781 4255 65.2304
85.3952 4177 64.6297
85.5123 4241 65.123
85.6294 4259 65.261
85.7465 4133 64.2884
85.8636 3896 62.4179
85.9806 3303 57.4717
86.0976 2680 51.7687
86.2145 2706 52.0192
86.3315 2971 54.5069
86.4484 3977 63.0635
86.5652 4018 63.3877
86.682 4112 64.1249
86.7988 4217 64.9384
86.9156 4207 64.8614
87.0323 4244 65.146
87.149 4172 64.591
87.2657 4146 64.3894
87.3823 4199 64.7997
87.4988 4070 63.7966
87.6154 3604 60.0333
87.7318 3382 58.155
87.8483 3171 56.3116
87.9647 2958 54.3875
88.081 3065 55.3624
88.1973 3021 54.9636
88.3136 2798 52.8961
88.4298 2687 51.8363
88.546 2610 51.0882
88.6621 2406 49.051
88.7781 2407 49.0612
88.8942 0 1
89.0101 0 1
89.126 0 1
89.2419 0 1
89.3577 0 1
89.4734 0 1
89.5891 0 1
89.7047 0 1
89.8203 0 1
89.9358 0 1
92.3269 0 1
92.4424 0 1
92.558 0 1
92.6736 0 1
92.7893 0 1
92.905 0 1
93.0208 0 1
93.1366 0 1
93.2525 0 1
93.3685 0 1
93.4845 0 1
93.6005 4308 65.6354
93.7167 4530 67.3053
93.8328 4407 66.3852
93.949 4330 65.8027
94.0653 4439 66.6258
94.1816 4485 66.9701
94.2979 4364 66.0606
94.4143 4529 67.2978
94.5307 4482 66.9477
94.6472 4318 65.7115
94.7637 4251 65.1997
94.8803 3956 62.8967
94.9969 3374 58.0861
95.1135 3074 55.4437
95.2302 3211 56.6657
95.3469 3832 61.9032
95.4637 4160 64.4981
95.5805 4494 67.0373
95.6973 4548 67.4389
95.8142 4666 68.3081
95.9311 4535 67.3424
96.048 4504 67.1118
96.1649 4501 67.0895
96.2819 4483 66.9552
96.3989 4588 67.7348
96.516 4697 68.5347
96.633 4509 67.1491
96.7501 4574 67.6314
96.8673 4606 67.8675
96.9844 4702 68.5711
97.1016 4656 68.2349
97.2188 4597 67.8012
97.336 4561 67.5352
97.4532 4550 67.4537
97.5704 4517 67.2086
97.6877 4395 66.2948
97.805 4363 66.053
97.9223 4461 66.7907
98.0396 4515 67.1937
98.1569 4446 66.6783
98.2743 4475 66.8954
98.3916 3890 62.3699
98.509 3492 59.0931
98.6264 3192 56.4978
98.7438 3249 57
98.8612 3573 59.7746
98.9786 4278 65.4064
99.096 4316 65.6963
99.2134 4345 65.9166
99.3308 4367 66.0833
99.4482 4372 66.1211
99.5656 4347 65.9318
99.6831 4232 65.0538
99.8005 4179 64.6452
99.9179 4108 64.0937
100.035 3847 62.0242
100.153 3859 62.1208
100.27 3929 62.6817
100.388 3826 61.8547
100.505 3672 60.597
100.622 3706 60.8769
100.74 3710 60.9098
100.857 3518 59.3127
100.975 3421 58.4893
101.092 3355 57.9224
101.209 3172 56.3205
101.327 3048 55.2087
101.444 3077 55.4707
101.561 3176 56.356
101.679 3069 55.3986
101.796 2995 54.7266
101.913 2908 53.9259
102.03 2660 51.5752
102.148 2318 48.1456
102.265 2291 47.8644
102.382 2500 50
102.499 2667 51.643
102.616 2821 53.1131
102.733 2849 53.376
102.851 2960 54.4059
102.968 2885 53.7122
103.085 2894 53.7959
103.202 2799 52.9056
103.319 2765 52.5833
103.436 2858 53.4603
103.552 2721 52.1632
103.669 2774 52.6688
103.786 2634 51.3225
103.903 2729 52.2398
104.02 2790 52.8205
104.137 2856 53.4416
104.253 2921 54.0463
104.37 2763 52.5642
104.487 2724 52.192
104.603 2770 52.6308
104.72 2633 51.3128
104.836 2449 49.4874
104.953 2164 46.5188
105.069 1956 44.2267
105.186 1795 42.3674
105.302 1717 41.4367
105.418 1515 38.923
105.535 1445 38.0132
105.651 1217 34.8855
105.767 1041 32.2645
105.883 874 29.5635
105.999 877 29.6142
106.115 0 1
106.231 0 1
106.347 0 1
106.463 0 1
106.579 0 1
106.694 0 1
106.81 0 1
106.926 0 1
107.041 0 1
107.157 0 1
109.576 0 1
109.692 0 1
109.807 0 1
109.923 0 1
110.039 0 1
110.155 0 1
110.27 0 1
110.386 0 1
110.502 0 1
110.618 2744 52.3832
110.735 2967 54.4702
110.851 2615 51.1371
110.967 2577 50.7642
111.083 2329 48.2597
111.199 2704 52
111.316 2857 53.4509
111.432 2961 54.4151
111.549 3102 55.6956
111.665 3103 55.7046
111.782 3057 55.2901
111.898 3023 54.9818
112.015 3099 55.6687
112.132 3067 55.3805
112.248 3115 55.8122
112.365 3085 55.5428
112.482 2998 54.754
112.599 3266 57.1489
112.716 3230 56.8331
112.832 3335 57.7495
112.949 3339 57.7841
113.066 3423 58.5064
113.183 3334 57.7408
113.3 3462 58.8388
113.417 3484 59.0254
113.534 3366 58.0172
113.652 3467 58.8812
113.769 3387 58.1979
113.886 3268 57.1664
114.003 3308 57.5152
114.12 3416 58.4466
114.238 3256 57.0614
114.355 3023 54.9818
114.472 2743 52.3737
114.589 2618 51.1664
114.707 2639 51.3712
114.824 2929 54.1202
114.942 3240 56.921
115.059 3273 57.2101
115.176 3291 57.3672
115.294 3179 56.3826
115.411 3228 56.8155
115.529 3144 56.0714
115.646 3028 55.0273
115.764 3135 55.9911
115.881 3120 55.857
115.999 3116 55.8211
116.116 3152 56.1427
116.234 3262 57.1139
116.351 3292 57.376
116.469 3311 57.5413
116.586 3541 59.5063
116.704 3597 59.975
116.821 3469 58.8982
116.939 3632 60.2661
117.056 3492 59.0931
117.174 3438 58.6345
117.291 3436 58.6174
117.409 3503 59.1861
117.526 3364 58
117.644 3460 58.8218
117.761 3409 58.3866
117.879 3299 57.4369
117.996 2866 53.535
118.114 2839 53.2823
118.231 2729 52.2398
118.349 2844 53.3292
118.466 3050 55.2268
118.584 3213 56.6833
118.701 3169 56.2939
118.819 3282 57.2887
118.936 3152 56.1427
119.053 3184 56.4269
119.171 3127 55.9196
119.288 3107 55.7405
119.405 3094 55.6237
119.523 3138 56.0179
119.64 2971 54.5069
119.757 3034 55.0818
119.875 3136 56
119.992 3052 55.2449
120.109 3163 56.2406
120.226 3299 57.4369
120.343 3344 57.8273
120.46 3237 56.8946
120.578 3280 57.2713
120.695 3228 56.8155
120.812 3255 57.0526
120.929 3159 56.205
121.046 3204 56.6039
121.163 3198 56.5509
121.279 3148 56.107
121.396 2999 54.7631
121.513 3044 55.1725
121.63 2817 53.0754
121.747 2530 50.2991
121.863 2329 48.2597
121.98 2188 46.7761
122.097 2215 47.0638
122.213 2234 47.2652
122.33 2216 47.0744
122.446 2178 46.669
122.563 2100 45.8258
122.679 2085 45.6618
122.795 1934 43.9773
122.912 1973 44.4185
123.028 1892 43.4971
123.144 1928 43.909
123.26 1826 42.7317
123.377 0 1
123.493 0 1
123.609 0 1
123.725 0 1
123.84 0 1
123.956 0 1
124.072 0 1
124.188 0 1
124.303 0 1
124.419 0 1
126.852 0 1
126.968 0 1
127.083 0 1
127.199 0 1
127.315 0 1
127.431 0 1
127.547 0 1
127.663 0 1
127.779 0 1
127.895 0 1
128.011 0 1
128.127 0 1
128.243 0 1
128.359 3684 60.696
128.476 3629 60.2412
128.592 3724 61.0246
128.708 3765 61.3596
128.825 3797 61.6198
128.941 3657 60.4731
129.058 3697 60.803
129.174 3753 61.2617
129.291 3741 61.1637
129.408 3955 62.8888
129.524 4054 63.671
129.641 4176 64.622
129.758 4224 64.9923
129.875 4233 65.0615
129.992 4210 64.8845
130.108 4371 66.1135
130.225 4385 66.2193
130.342 4257 65.2457
130.459 4072 63.8122
130.576 4169 64.5678
130.693 3955 62.8888
130.81 3850 62.0484
130.928 3830 61.887
131.045 3895 62.4099
131.162 4094 63.9844
131.279 4207 64.8614
131.396 4146 64.3894
131.513 4224 64.9923
131.631 4292 65.5134
131.748 4305 65.6125
131.865 3996 63.2139
131.983 4041 63.5689
132.1 3972 63.0238
132.217 4068 63.7809
132.335 4075 63.8357
132.452 4115 64.1483
132.57 4024 63.435
132.687 3757 61.2944
132.804 4128 64.2495
132.922 4077 63.8514
133.039 4131 64.2729
133.157 4143 64.3661
133.274 4259 65.261
133.392 4348 65.9394
133.509 4288 65.4828
133.627 4472 66.873
133.744 4767 69.0435
133.862 4473 66.8805
133.979 4679 68.4032
134.097 4592 67.7643
134.214 4453 66.7308
134.332 4238 65.0999
134.449 4206 64.8537
134.567 4357 66.0076
134.684 4311 65.6582
134.802 4529 67.2978
134.919 4489 67
135.037 4509 67.1491
135.154 4590 67.7495
135.272 4457 66.7608
135.389 4545 67.4166
135.507 4429 66.5507
135.624 4318 65.7115
135.742 4329 65.7951
135.859 4322 65.7419
135.977 4184 64.6838
136.094 4168 64.56
136.211 4241 65.123
136.329 4244 65.146
136.446 4305 65.6125
136.564 4326 65.7723
136.681 4256 65.238
136.798 4379 66.174
136.915 4257 65.2457
137.033 4350 65.9545
137.15 4439 66.6258
137.267 4346 65.9242
137.384 4533 67.3276
137.502 4383 66.2042
137.619 4355 65.9924
137.736 4244 65.146
137.853 4131 64.2729
137.97 4318 65.7115
138.087 4014 63.3561
138.204 4133 64.2884
138.321 4162 64.5136
138.438 4205 64.846
138.555 4320 65.7267
138.672 4346 65.9242
138.788 4218 64.9461
138.905 4165 64.5368
139.022 4162 64.5136
139.139 3873 62.2334
139.255 3767 61.3759
139.372 3609 60.075
139.488 3346 57.8446
139.605 3304 57.4804
139.721 3174 56.3383
139.838 3150 56.1249
139.954 3081 55.5068
140.071 3014 54.8999
140.187 2969 54.4885
140.303 2879 53.6563
140.419 2970 54.4977
140.535 3048 55.2087
140.652 3063 55.3444
140.768 0 1
140.884 0 1
141 0 1
141.115 0 1
141.231 0 1
141.347 0 1
141.463 0 1
141.578 0 1
141.694 0 1
144.104 0 1
144.219 0 1
144.335 0 1
144.45 0 1
144.566 0 1
144.682 0 1
144.798 0 1
144.914 0 1
145.03 0 1
145.146 8865 94.1541
145.262 8806 93.8403
145.378 9120 95.4987
145.494 9229 96.0677
145.61 9002 94.8789
145.726 9256 96.2081
145.842 9263 96.2445
145.959 9400 96.9536
146.075 9395 96.9278
146.192 9273 96.2964
146.308 9260 96.2289
146.425 9123 95.5144
146.541 8393 91.6133
146.658 7254 85.1704
146.774 6241 79
146.891 5991 77.4016
147.008 6588 81.1665
147.125 7923 89.0112
147.241 8705 93.3006
147.358 9085 95.3153
147.475 9138 95.5929
147.592 9213 95.9844
147.709 9133 95.5667
147.826 9313 96.5039
147.943 9065 95.2103
148.06 9307 96.4728
148.177 9107 95.4306
148.294 9232 96.0833
148.411 9144 95.6243
148.528 9278 96.3224
148.645 9272 96.2912
148.762 9358 96.7368
148.88 9259 96.2237
148.997 9168 95.7497
149.114 9688 98.4276
149.231 9379 96.8452
149.349 9554 97.7446
149.466 9309 96.4832
149.583 9392 96.9123
149.701 9337 96.6282
149.818 9437 97.1442
149.935 9280 96.3328
150.053 9495 97.4423
150.17 8982 94.7734
150.287 8042 89.6772
150.405 6942 83.3187
150.522 6383 79.8937
150.64 6676 81.7068
150.757 7651 87.47
150.875 8707 93.3113
150.992 9125 95.5249
151.11 9004 94.8894
151.227 9046 95.1105
151.344 9057 95.1683
151.462 9018 94.9632
151.579 8911 94.3981
151.697 9010 94.921
151.814 9083 95.3048
151.932 9025 95
152.049 9239 96.1197
152.167 9389 96.8969
152.284 9253 96.1925
152.402 9284 96.3535
152.519 9337 96.6282
152.636 9513 97.5346
152.754 9334 96.6126
152.871 9418 97.0464
152.989 9552 97.7343
153.106 9579 97.8724
153.223 9603 97.9949
153.341 9813 99.0606
153.458 9752 98.7522
153.575 9781 98.8989
153.693 9650 98.2344
153.81 9320 96.5401
153.927 8415 91.7333
154.044 7124 84.4038
154.162 6487 80.5419
154.279 7122 84.3919
154.396 8218 90.6532
154.513 9230 96.0729
154.63 9497 97.4526
154.747 9422 97.067
154.864 9422 97.067
154.981 9416 97.0361
155.098 9261 96.2341
155.215 8981 94.7681
155.332 8976 94.7418
155.449 8767 93.6323
155.566 8592 92.693
155.683 8347 91.3619
155.8 8219 90.6587
155.917 8108 90.0444
156.033 8031 89.6158
156.15 0 1
156.267 0 1
156.383 0 1
156.5 0 1
156.617 0 1
156.733 0 1
156.85 0 1
156.966 0 1
157.082 0 1
157.199 0 1
157.315 0 1
157.431 0 1
157.547 0 1
157.664 0 1
157.78 0 1
157.896 0 1
158.012 0 1
158.128 0 1
158.244 0 1
158.359 0 1
158.475 0 1
158.591 0 1
158.706 0 1
