
6.15755 0 1
6.2731 0 1
6.3887 0 1
6.50437 0 1
6.62009 0 1
6.73587 0 1
6.8517 0 1
6.96759 0 1
7.08353 0 1
7.19952 0 1
7.31557 0 1
7.43166 0 1
7.54781 0 1
7.664 0 1
7.78024 0 1
7.89653 0 1
8.01286 0 1
8.12924 0 1
8.24567 0 1
8.36213 0 1
8.47864 0 1
8.59519 0 1
8.71178 0 1
8.82841 0 1
8.94508 0 1
9.06179 0 1
9.17853 0 1
9.29531 0 1
9.41212 0 1
9.52897 0 1
9.64584 0 1
9.76276 0 1
9.8797 0 1
9.99667 0 1
10.1137 0 1
10.2307 0 1
10.3478 0 1
10.4648 0 1
10.5819 0 1
10.6991 0 1
10.8162 0 1
10.9334 0 1
11.0506 0 1
11.1678 0 1
11.285 0 1
11.4023 0 1
11.5196 0 1
11.6369 0 1
11.7542 0 1
11.8715 0 1
11.9888 0 1
12.1062 0 1
12.2235 0 1
12.3409 0 1
12.4582 0 1
12.5756 0 1
12.693 0 1
12.8104 0 1
12.9278 0 1
13.0452 0 1
13.1626 0 1
13.28 0 1
13.3974 0 1
13.5149 0 1
13.6323 0 1
13.7497 0 1
13.8671 0 1
13.9845 0 1
14.1019 0 1
14.2193 0 1
14.3367 0 1
14.4541 0 1
14.5714 0 1
14.6888 0 1
14.8062 0 1
14.9235 0 1
15.0408 730 27.0185
15.1581 761 27.5862
15.2755 809 28.4429
15.3927 862 29.3598
15.51 805 28.3725
15.6273 771 27.7669
15.7445 813 28.5132
15.8617 807 28.4077
15.9789 779 27.9106
16.0961 726 26.9444
16.2132 744 27.2764
16.3304 771 27.7669
16.4475 784 28
16.5646 838 28.9482
16.6816 836 28.9137
16.7986 857 29.2746
16.9156 895 29.9166
17.0326 923 30.3809
17.1496 877 29.6142
17.2665 956 30.9192
17.3833 886 29.7658
17.5002 855 29.2404
17.617 842 29.0172
17.7338 790 28.1069
17.8505 801 28.3019
17.9672 736 27.1293
18.0839 769 27.7308
18.2005 862 29.3598
18.3171 868 29.4618
18.4337 815 28.5482
18.5502 833 28.8617
18.6666 895 29.9166
18.7831 864 29.3939
18.8994 899 29.9833
19.0158 878 29.6311
19.1321 863 29.3769
19.2483 835 28.8964
19.3645 781 27.9464
19.4806 749 27.3679
19.5967 679 26.0576
19.7128 620 24.8998
19.8288 543 23.3024
19.9447 543 23.3024
20.0606 0 1
20.1764 0 1
20.2922 0 1
20.4079 0 1
20.5236 0 1
20.6392 0 1
20.7548 0 1
20.8702 0 1
23.3078 0 1
23.4233 0 1
23.539 0 1
23.6547 0 1
23.7704 0 1
23.8862 0 1
24.0021 0 1
24.118 0 1
24.234 0 1
24.35 0 1
24.4661 350 18.7083
24.5822 410 20.2485
24.6984 484 22
24.8146 507 22.5167
24.9309 565 23.7697
25.0472 643 25.3574
25.1636 650 25.4951
25.28 694 26.3439
25.3965 808 28.4253
25.513 881 29.6816
25.6296 854 29.2233
25.7462 937 30.6105
25.8628 973 31.1929
25.9795 949 30.8058
26.0962 959 30.9677
26.213 935 30.5778
26.3298 865 29.4109
26.4466 805 28.3725
26.5635 785 28.0179
26.6804 763 27.6225
26.7973 803 28.3373
26.9143 863 29.3769
27.0313 851 29.1719
27.1483 865 29.4109
27.2653 881 29.6816
27.3824 900 30
27.4996 923 30.3809
27.6167 909 30.1496
27.7339 816 28.5657
27.8511 827 28.7576
27.9683 844 29.0517
28.0855 762 27.6043
28.2028 773 27.8029
28.3201 774 27.8209
28.4374 707 26.5895
28.5547 735 27.1109
28.6721 750 27.3861
28.7894 783 27.9821
28.9068 838 28.9482
29.0242 848 29.1204
29.1416 834 28.8791
29.259 855 29.2404
29.3764 850 29.1548
29.4939 878 29.6311
29.6113 915 30.249
29.7288 799 28.2666
29.8463 766 27.6767
29.9638 805 28.3725
30.0812 733 27.074
30.1987 704 26.533
30.3162 736 27.1293
30.4337 780 27.9285
30.5512 798 28.2489
30.6687 824 28.7054
30.7862 831 28.8271
30.9037 842 29.0172
31.0212 820 28.6356
31.1387 887 29.7825
31.2562 830 28.8097
31.3737 830 28.8097
31.4912 823 28.688
31.6087 811 28.4781
31.7262 815 28.5482
31.8436 733 27.074
31.9611 674 25.9615
32.0785 673 25.9422
32.1959 750 27.3861
32.3134 766 27.6767
32.4308 783 27.9821
32.5482 847 29.1033
32.6655 887 29.7825
32.7829 882 29.6985
32.9002 887 29.7825
33.0176 879 29.6479
33.1349 815 28.5482
33.2522 844 29.0517
33.3694 824 28.7054
33.4867 735 27.1109
33.6039 725 26.9258
33.7211 665 25.7876
33.8383 712 26.6833
33.9554 705 26.5518
34.0725 766 27.6767
34.1896 767 27.6948
34.3067 795 28.1957
34.4237 809 28.4429
34.5407 829 28.7924
34.6577 878 29.6311
34.7746 840 28.9828
34.8915 793 28.1603
35.0084 771 27.7669
35.1252 750 27.3861
35.242 760 27.5681
35.3587 749 27.3679
35.4755 704 26.533
35.5921 657 25.632
35.7088 690 26.2679
35.8254 656 25.6125
35.9419 680 26.0768
36.0584 721 26.8514
36.1749 710 26.6458
36.2913 747 27.3313
36.4077 759 27.55
36.524 735 27.1109
36.6403 763 27.6225
36.7565 693 26.3249
36.8727 678 26.0384
36.9889 593 24.3516
37.1049 536 23.1517
37.221 0 1
37.3369 0 1
37.4529 0 1
37.5687 0 1
37.6845 0 1
37.8003 0 1
37.916 0 1
38.0316 0 1
38.1472 0 1
40.5851 0 1
40.7008 0 1
40.8164 0 1
40.9322 0 1
41.048 0 1
41.1639 0 1
41.2798 0 1
41.3958 0 1
41.5118 0 1
41.6279 0 1
41.744 329 18.1384
41.8602 404 20.0998
41.9765 475 21.7945
42.0928 483 21.9773
42.2091 508 22.5389
42.3255 466 21.587
42.4419 451 21.2368
42.5584 467 21.6102
42.675 484 22
42.7915 522 22.8473
42.9081 624 24.98
43.0248 607 24.6374
43.1415 687 26.2107
43.2582 577 24.0208
43.375 672 25.923
43.4918 652 25.5343
43.6087 638 25.2587
43.7256 648 25.4558
43.8425 632 25.1396
43.9595 633 25.1595
44.0765 630 25.0998
44.1935 616 24.8193
44.3106 543 23.3024
44.4277 528 22.9783
44.5448 510 22.5832
44.6619 539 23.2164
44.7791 539 23.2164
44.8963 601 24.5153
45.0136 663 25.7488
45.1308 666 25.807
45.2481 653 25.5539
45.3654 715 26.7395
45.4827 659 25.671
45.6001 696 26.3818
45.7174 714 26.7208
45.8348 603 24.5561
45.9522 542 23.2809
46.0697 549 23.4307
46.1871 533 23.0868
46.3046 536 23.1517
46.422 571 23.8956
46.5395 643 25.3574
46.657 647 25.4362
46.7745 678 26.0384
46.892 667 25.8263
47.0096 681 26.096
47.1271 694 26.3439
47.2446 678 26.0384
47.3622 686 26.1916
47.4797 661 25.7099
47.5973 669 25.865
47.7149 612 24.7386
47.8324 619 24.8797
47.95 582 24.1247
48.0675 569 23.8537
48.1851 491 22.1585
48.3027 547 23.388
48.4202 571 23.8956
48.5378 607 24.6374
48.6554 665 25.7876
48.7729 631 25.1197
48.8904 669 25.865
49.008 638 25.2587
49.1255 661 25.7099
49.243 663 25.7488
49.3605 558 23.622
49.478 549 23.4307
49.5955 566 23.7908
49.713 487 22.0681
49.8304 561 23.6854
49.9479 574 23.9583
50.0653 584 24.1661
50.1827 593 24.3516
50.3001 618 24.8596
50.4175 640 25.2982
50.5348 625 25
50.6521 672 25.923
50.7694 673 25.9422
50.8867 639 25.2784
51.004 668 25.8457
51.1212 615 24.7992
51.2384 609 24.6779
51.3556 615 24.7992
51.4727 544 23.3238
51.5899 506 22.4944
51.707 505 22.4722
51.824 510 22.5832
51.9411 584 24.1661
52.0581 640 25.2982
52.175 687 26.2107
52.2919 694 26.3439
52.4088 647 25.4362
52.5257 682 26.1151
52.6425 662 25.7294
52.7593 723 26.8887
52.876 689 26.2488
52.9927 630 25.0998
53.1094 615 24.7992
53.226 568 23.8328
53.3426 494 22.2261
53.4591 502 22.4054
53.5756 510 22.5832
53.692 513 22.6495
53.8084 534 23.1084
53.9248 516 22.7156
54.0411 506 22.4944
54.1573 463 21.5174
54.2735 0 1
54.3896 0 1
54.5057 0 1
54.6217 0 1
54.7377 0 1
54.8537 0 1
54.9695 0 1
55.0853 0 1
55.2011 0 1
55.3168 0 1
55.4324 0 1
57.824 0 1
57.9396 0 1
58.0553 0 1
58.1711 0 1
58.2869 0 1
58.4028 0 1
58.5187 0 1
58.6347 0 1
58.7508 0 1
58.8669 0 1
58.983 420 20.4939
59.0992 507 22.5167
59.2155 602 24.5357
59.3318 640 25.2982
59.4482 635 25.1992
59.5646 748 27.3496
59.681 767 27.6948
59.7975 785 28.0179
59.9141 797 28.2312
60.0306 734 27.0924
60.1473 711 26.6646
60.2639 723 26.8887
60.3807 663 25.7488
60.4974 716 26.7582
60.6142 720 26.8328
60.731 803 28.3373
60.8479 830 28.8097
60.9648 890 29.8329
61.0818 840 28.9828
61.1987 827 28.7576
61.3158 838 28.9482
61.4328 847 29.1033
61.5499 795 28.1957
61.667 761 27.5862
61.7841 642 25.3377
61.9013 651 25.5147
62.0185 612 24.7386
62.1357 714 26.7208
62.253 718 26.7955
62.3702 758 27.5318
62.4875 835 28.8964
62.6049 848 29.1204
62.7222 870 29.4958
62.8396 855 29.2404
62.9569 860 29.3258
63.0743 817 28.5832
63.1918 819 28.6182
63.3092 829 28.7924
63.4267 795 28.1957
63.5441 755 27.4773
63.6616 732 27.0555
63.7791 689 26.2488
63.8966 632 25.1396
64.0142 670 25.8844
64.1317 700 26.4575
64.2492 755 27.4773
64.3668 807 28.4077
64.4843 855 29.2404
64.6019 860 29.3258
64.7195 817 28.5832
64.837 856 29.2575
64.9546 844 29.0517
65.0722 788 28.0713
65.1898 763 27.6225
65.3074 719 26.8142
65.4249 703 26.5141
65.5425 648 25.4558
65.6601 619 24.8797
65.7777 744 27.2764
65.8952 797 28.2312
66.0128 776 27.8568
66.1304 788 28.0713
66.2479 825 28.7228
66.3655 841 29
66.483 816 28.5657
66.6005 866 29.4279
66.718 857 29.2746
66.8355 865 29.4109
66.953 836 28.9137
67.0705 857 29.2746
67.1879 768 27.7128
67.3054 758 27.5318
67.4228 672 25.923
67.5402 700 26.4575
67.6576 661 25.7099
67.7749 700 26.4575
67.8923 759 27.55
68.0096 846 29.0861
68.1269 827 28.7576
68.2442 868 29.4618
68.3614 898 29.9666
68.4787 879 29.6479
68.5958 854 29.2233
68.713 854 29.2233
68.8302 796 28.2135
68.9473 754 27.4591
69.0643 702 26.4953
69.1814 672 25.923
69.2984 715 26.7395
69.4154 760 27.5681
69.5323 819 28.6182
69.6492 935 30.5778
69.7661 938 30.6268
69.8829 966 31.0805
69.9997 941 30.6757
70.1165 907 30.1164
70.2332 933 30.545
70.3499 917 30.282
70.4665 889 29.8161
70.5831 846 29.0861
70.6996 830 28.8097
70.8161 800 28.2843
70.9326 673 25.9422
71.049 602 24.5357
71.1653 452 21.2603
71.2817 428 20.6882
71.3979 389 19.7231
71.5141 409 20.2237
71.6303 412 20.2978
71.7464 318 17.8326
71.8624 0 1
71.9784 0 1
72.0944 0 1
72.2102 0 1
72.3261 0 1
72.4418 0 1
72.5575 0 1
72.6732 0 1
75.1054 0 1
75.2209 0 1
75.3365 0 1
75.4521 0 1
75.5678 0 1
75.6835 0 1
75.7993 0 1
75.9151 0 1
76.031 0 1
76.147 597 24.4336
76.263 664 25.7682
76.3791 615 24.7992
76.4952 653 25.5539
76.6113 652 25.5343
76.7276 697 26.4008
76.8438 694 26.3439
76.9601 773 27.8029
77.0765 801 28.3019
77.1929 841 29
77.3093 816 28.5657
77.4258 824 28.7054
77.5423 780 27.9285
77.6589 775 27.8388
77.7755 760 27.5681
77.8921 677 26.0192
78.0088 614 24.779
78.1256 603 24.5561
78.2423 548 23.4094
78.3591 573 23.9374
78.4759 608 24.6577
78.5928 652 25.5343
78.7097 699 26.4386
78.8266 734 27.0924
78.9436 765 27.6586
79.0606 724 26.9072
79.1776 718 26.7955
79.2946 746 27.313
79.4117 777 27.8747
79.5288 737 27.1477
79.6459 760 27.5681
79.7631 726 26.9444
79.8802 721 26.8514
79.9974 689 26.2488
80.1147 615 24.7992
80.2319 557 23.6008
80.3491 569 23.8537
80.4664 560 23.6643
80.5837 623 24.96
80.701 717 26.7769
80.8183 716 26.7582
80.9357 714 26.7208
81.053 740 27.2029
81.1704 783 27.9821
81.2877 740 27.2029
81.4051 718 26.7955
81.5225 690 26.2679
81.6399 615 24.7992
81.7573 554 23.5372
81.8747 505 22.4722
81.9922 523 22.8692
82.1096 608 24.6577
82.227 666 25.807
82.3444 671 25.9037
82.4619 719 26.8142
82.5793 735 27.1109
82.6967 722 26.8701
82.8142 790 28.1069
82.9316 766 27.6767
83.049 762 27.6043
83.1664 800 28.2843
83.2838 770 27.7489
83.4012 754 27.4591
83.5186 796 28.2135
83.636 693 26.3249
83.7534 627 25.04
83.8708 557 23.6008
83.9881 555 23.5584
84.1055 626 25.02
84.2228 661 25.7099
84.3401 712 26.6833
84.4575 752 27.4226
84.5747 746 27.313
84.692 709 26.6271
84.8093 788 28.0713
84.9265 764 27.6405
85.0437 787 28.0535
85.1609 682 26.1151
85.2781 627 25.04
85.3952 608 24.6577
85.5123 552 23.4947
85.6294 586 24.2074
85.7465 643 25.3574
85.8636 662 25.7294
85.9806 668 25.8457
86.0976 786 28.0357
86.2145 790 28.1069
86.3315 757 27.5136
86.4484 725 26.9258
86.5652 807 28.4077
86.682 792 28.1425
86.7988 799 28.2666
86.9156 752 27.4226
87.0323 740 27.2029
87.149 734 27.0924
87.2657 636 25.219
87.3823 645 25.3969
87.4988 524 22.891
87.6154 517 22.7376
87.7318 539 23.2164
87.8483 584 24.1661
87.9647 614 24.779
88.081 595 24.3926
88.1973 604 24.5764
88.3136 599 24.4745
88.4298 522 22.8473
88.546 556 23.5797
88.6621 435 20.8567
88.7781 338 18.3848
88.8942 0 1
89.0101 0 1
89.126 0 1
89.2419 0 1
89.3577 0 1
89.4734 0 1
89.5891 0 1
89.7047 0 1
89.8203 0 1
89.9358 0 1
92.3269 0 1
92.4424 0 1
92.558 0 1
92.6736 0 1
92.7893 0 1
92.905 0 1
93.0208 0 1
93.1366 0 1
93.2525 0 1
93.3685 0 1
93.4845 0 1
93.6005 538 23.1948
93.7167 607 24.6374
93.8328 626 25.02
93.949 647 25.4362
94.0653 644 25.3772
94.1816 657 25.632
94.2979 655 25.593
94.4143 589 24.2693
94.5307 576 24
94.6472 561 23.6854
94.7637 589 24.2693
94.8803 620 24.8998
94.9969 639 25.2784
95.1135 714 26.7208
95.2302 728 26.9815
95.3469 742 27.2397
95.4637 729 27
95.5805 731 27.037
95.6973 765 27.6586
95.8142 789 28.0891
95.9311 759 27.55
96.048 748 27.3496
96.1649 714 26.7208
96.2819 769 27.7308
96.3989 667 25.8263
96.516 709 26.6271
96.633 628 25.0599
96.7501 562 23.7065
96.8673 582 24.1247
96.9844 603 24.5561
97.1016 639 25.2784
97.2188 688 26.2298
97.336 755 27.4773
97.4532 772 27.7849
97.5704 770 27.7489
97.6877 806 28.3901
97.805 768 27.7128
97.9223 690 26.2679
98.0396 635 25.1992
98.1569 601 24.5153
98.2743 587 24.2281
98.3916 544 23.3238
98.509 603 24.5561
98.6264 670 25.8844
98.7438 712 26.6833
98.8612 696 26.3818
98.9786 706 26.5707
99.096 780 27.9285
99.2134 806 28.3901
99.3308 806 28.3901
99.4482 804 28.3549
99.5656 840 28.9828
99.6831 796 28.2135
99.8005 791 28.1247
99.9179 778 27.8927
100.035 760 27.5681
100.153 671 25.9037
100.27 658 25.6515
100.388 625 25
100.505 676 26
100.622 640 25.2982
100.74 756 27.4955
100.857 789 28.0891
100.975 787 28.0535
101.092 814 28.5307
101.209 839 28.9655
101.327 806 28.3901
101.444 788 28.0713
101.561 688 26.2298
101.679 659 25.671
101.796 585 24.1868
101.913 580 24.0832
102.03 593 24.3516
102.148 661 25.7099
102.265 696 26.3818
102.382 751 27.4044
102.499 777 27.8747
102.616 789 28.0891
102.733 857 29.2746
102.851 899 29.9833
102.968 870 29.4958
103.085 872 29.5296
103.202 830 28.8097
103.319 866 29.4279
103.436 849 29.1376
103.552 797 28.2312
103.669 778 27.8927
103.786 684 26.1534
103.903 686 26.1916
104.02 706 26.5707
104.137 741 27.2213
104.253 773 27.8029
104.37 865 29.4109
104.487 891 29.8496
104.603 884 29.7321
104.72 926 30.4302
104.836 850 29.1548
104.953 741 27.2213
105.069 688 26.2298
105.186 617 24.8395
105.302 597 24.4336
105.418 534 23.1084
105.535 524 22.891
105.651 579 24.0624
105.767 604 24.5764
105.883 560 23.6643
105.999 514 22.6716
106.115 0 1
106.231 0 1
106.347 0 1
106.463 0 1
106.579 0 1
106.694 0 1
106.81 0 1
106.926 0 1
107.041 0 1
107.157 0 1
109.576 0 1
109.692 0 1
109.807 0 1
109.923 0 1
110.039 0 1
110.155 0 1
110.27 0 1
110.386 0 1
110.502 0 1
110.618 352 18.7617
110.735 462 21.4942
110.851 542 23.2809
110.967 549 23.4307
111.083 633 25.1595
111.199 651 25.5147
111.316 708 26.6083
111.432 746 27.313
111.549 735 27.1109
111.665 750 27.3861
111.782 766 27.6767
111.898 722 26.8701
112.015 734 27.0924
112.132 701 26.4764
112.248 659 25.671
112.365 606 24.6171
112.482 619 24.8797
112.599 650 25.4951
112.716 673 25.9422
112.832 745 27.2947
112.949 704 26.533
113.066 798 28.2489
113.183 771 27.7669
113.3 791 28.1247
113.417 749 27.3679
113.534 739 27.1846
113.652 665 25.7876
113.769 600 24.4949
113.886 590 24.2899
114.003 568 23.8328
114.12 571 23.8956
114.238 672 25.923
114.355 718 26.7955
114.472 680 26.0768
114.589 792 28.1425
114.707 794 28.178
114.824 766 27.6767
114.942 779 27.9106
115.059 867 29.4449
115.176 809 28.4429
115.294 777 27.8747
115.411 809 28.4429
115.529 748 27.3496
115.646 716 26.7582
115.764 666 25.807
115.881 647 25.4362
115.999 612 24.7386
116.116 612 24.7386
116.234 674 25.9615
116.351 763 27.6225
116.469 779 27.9106
116.586 750 27.3861
116.704 783 27.9821
116.821 755 27.4773
116.939 785 28.0179
117.056 751 27.4044
117.174 669 25.865
117.291 684 26.1534
117.409 594 24.3721
117.526 559 23.6432
117.644 588 24.2487
117.761 640 25.2982
117.879 703 26.5141
117.996 661 25.7099
118.114 769 27.7308
118.231 734 27.0924
118.349 705 26.5518
118.466 794 28.178
118.584 835 28.8964
118.701 815 28.5482
118.819 761 27.5862
118.936 711 26.6646
119.053 754 27.4591
119.171 732 27.0555
119.288 700 26.4575
119.405 636 25.219
119.523 669 25.865
119.64 630 25.0998
119.757 625 25
119.875 623 24.96
119.992 705 26.5518
120.109 700 26.4575
120.226 744 27.2764
120.343 768 27.7128
120.46 734 27.0924
120.578 719 26.8142
120.695 761 27.5862
120.812 708 26.6083
120.929 666 25.807
121.046 639 25.2784
121.163 556 23.5797
121.279 560 23.6643
121.396 606 24.6171
121.513 634 25.1794
121.63 605 24.5967
121.747 626 25.02
121.863 668 25.8457
121.98 624 24.98
122.097 653 25.5539
122.213 644 25.3772
122.33 621 24.9199
122.446 622 24.9399
122.563 638 25.2587
122.679 560 23.6643
122.795 521 22.8254
122.912 437 20.9045
123.028 411 20.2731
123.144 352 18.7617
123.26 304 17.4356
123.377 0 1
123.493 0 1
123.609 0 1
123.725 0 1
123.84 0 1
123.956 0 1
124.072 0 1
124.188 0 1
124.303 0 1
124.419 0 1
126.852 0 1
126.968 0 1
127.083 0 1
127.199 0 1
127.315 0 1
127.431 0 1
127.547 0 1
127.663 0 1
127.779 0 1
127.895 0 1
128.011 0 1
128.127 0 1
128.243 0 1
128.359 793 28.1603
128.476 855 29.2404
128.592 767 27.6948
128.708 806 28.3901
128.825 855 29.2404
128.941 853 29.2062
129.058 868 29.4618
129.174 928 30.4631
129.291 994 31.5278
129.408 956 30.9192
129.524 934 30.5614
129.641 931 30.5123
129.758 981 31.3209
129.875 947 30.7734
129.992 840 28.9828
130.108 741 27.2213
130.225 786 28.0357
130.342 726 26.9444
130.459 723 26.8887
130.576 879 29.6479
130.693 859 29.3087
130.81 886 29.7658
130.928 867 29.4449
131.045 898 29.9666
131.162 920 30.3315
131.279 914 30.2324
131.396 904 30.0666
131.513 854 29.2233
131.631 985 31.3847
131.748 885 29.7489
131.865 860 29.3258
131.983 806 28.3901
132.1 871 29.5127
132.217 817 28.5832
132.335 823 28.688
132.452 823 28.688
132.57 896 29.9333
132.687 950 30.8221
132.804 910 30.1662
132.922 946 30.7571
133.039 899 29.9833
133.157 1005 31.7017
133.274 963 31.0322
133.392 944 30.7246
133.509 873 29.5466
133.627 763 27.6225
133.744 729 27
133.862 692 26.3059
133.979 743 27.258
134.097 760 27.5681
134.214 945 30.7409
134.332 850 29.1548
134.449 913 30.2159
134.567 881 29.6816
134.684 940 30.6594
134.802 850 29.1548
134.919 927 30.4467
135.037 967 31.0966
135.154 937 30.6105
135.272 927 30.4467
135.389 895 29.9166
135.507 897 29.95
135.624 869 29.4788
135.742 800 28.2843
135.859 809 28.4429
135.977 813 28.5132
136.094 839 28.9655
136.211 883 29.7153
136.329 910 30.1662
136.446 928 30.4631
136.564 922 30.3645
136.681 954 30.8869
136.798 977 31.257
136.915 978 31.273
137.033 938 30.6268
137.15 816 28.5657
137.267 793 28.1603
137.384 730 27.0185
137.502 726 26.9444
137.619 759 27.55
137.736 836 28.9137
137.853 802 28.3196
137.97 829 28.7924
138.087 847 29.1033
138.204 834 28.8791
138.321 940 30.6594
138.438 870 29.4958
138.555 935 30.5778
138.672 848 29.1204
138.788 871 29.5127
138.905 787 28.0535
139.022 754 27.4591
139.139 706 26.5707
139.255 681 26.096
139.372 618 24.8596
139.488 566 23.7908
139.605 569 23.8537
139.721 550 23.4521
139.838 618 24.8596
139.954 617 24.8395
140.071 568 23.8328
140.187 498 22.3159
140.303 446 21.1187
140.419 407 20.1742
140.535 437 20.9045
140.652 357 18.8944
140.768 0 1
140.884 0 1
141 0 1
141.115 0 1
141.231 0 1
141.347 0 1
141.463 0 1
141.578 0 1
141.694 0 1
144.104 0 1
144.219 0 1
144.335 0 1
144.45 0 1
144.566 0 1
144.682 0 1
144.798 0 1
144.914 0 1
145.03 0 1
145.146 583 24.1454
145.262 606 24.6171
145.378 670 25.8844
145.494 642 25.3377
145.61 607 24.6374
145.726 594 24.3721
145.842 629 25.0799
145.959 519 22.7816
146.075 540 23.2379
146.192 503 22.4277
146.308 507 22.5167
146.425 500 22.3607
146.541 507 22.5167
146.658 540 23.2379
146.774 528 22.9783
146.891 505 22.4722
147.008 602 24.5357
147.125 624 24.98
147.241 631 25.1197
147.358 584 24.1661
147.475 593 24.3516
147.592 594 24.3721
147.709 572 23.9165
147.826 594 24.3721
147.943 535 23.1301
148.06 541 23.2594
148.177 511 22.6053
148.294 511 22.6053
148.411 527 22.9565
148.528 540 23.2379
148.645 563 23.7276
148.762 590 24.2899
148.88 605 24.5967
148.997 605 24.5967
149.114 585 24.1868
149.231 598 24.454
149.349 571 23.8956
149.466 583 24.1454
149.583 550 23.4521
149.701 532 23.0651
149.818 497 22.2935
149.935 479 21.8861
150.053 472 21.7256
150.17 480 21.9089
150.287 508 22.5389
150.405 564 23.7487
150.522 565 23.7697
150.64 552 23.4947
150.757 551 23.4734
150.875 570 23.8747
150.992 587 24.2281
151.11 623 24.96
151.227 569 23.8537
151.344 536 23.1517
151.462 564 23.7487
151.579 502 22.4054
151.697 523 22.8692
151.814 497 22.2935
151.932 513 22.6495
152.049 486 22.0454
152.167 525 22.9129
152.284 572 23.9165
152.402 564 23.7487
152.519 518 22.7596
152.636 569 23.8537
152.754 557 23.6008
152.871 540 23.2379
152.989 583 24.1454
153.106 510 22.5832
153.223 515 22.6936
153.341 501 22.383
153.458 447 21.1424
153.575 428 20.6882
153.693 486 22.0454
153.81 495 22.2486
153.927 522 22.8473
154.044 516 22.7156
154.162 546 23.3666
154.279 521 22.8254
154.396 528 22.9783
154.513 547 23.388
154.63 518 22.7596
154.747 533 23.0868
154.864 539 23.2164
154.981 510 22.5832
155.098 534 23.1084
155.215 468 21.6333
155.332 488 22.0907
155.449 454 21.3073
155.566 477 21.8403
155.683 486 22.0454
155.8 503 22.4277
155.917 509 22.561
156.033 486 22.0454
156.15 0 1
156.267 0 1
156.383 0 1
156.5 0 1
156.617 0 1
156.733 0 1
156.85 0 1
156.966 0 1
157.082 0 1
157.199 0 1
157.315 0 1
157.431 0 1
157.547 0 1
157.664 0 1
157.78 0 1
157.896 0 1
158.012 0 1
158.128 0 1
158.244 0 1
158.359 0 1
158.475 0 1
158.591 0 1
158.706 0 1
