
6.15755 0 1
6.2731 0 1
6.3887 0 1
6.50437 0 1
6.62009 0 1
6.73587 0 1
6.8517 0 1
6.96759 0 1
7.08353 0 1
7.19952 0 1
7.31557 0 1
7.43166 0 1
7.54781 0 1
7.664 0 1
7.78024 0 1
7.89653 0 1
8.01286 0 1
8.12924 0 1
8.24567 0 1
8.36213 0 1
8.47864 0 1
8.59519 0 1
8.71178 0 1
8.82841 0 1
8.94508 0 1
9.06179 0 1
9.17853 0 1
9.29531 0 1
9.41212 0 1
9.52897 0 1
9.64584 0 1
9.76276 0 1
9.8797 0 1
9.99667 0 1
10.1137 0 1
10.2307 0 1
10.3478 0 1
10.4648 0 1
10.5819 0 1
10.6991 0 1
10.8162 0 1
10.9334 0 1
11.0506 0 1
11.1678 0 1
11.285 0 1
11.4023 0 1
11.5196 0 1
11.6369 0 1
11.7542 0 1
11.8715 0 1
11.9888 0 1
12.1062 0 1
12.2235 0 1
12.3409 0 1
12.4582 0 1
12.5756 0 1
12.693 0 1
12.8104 0 1
12.9278 0 1
13.0452 0 1
13.1626 0 1
13.28 0 1
13.3974 0 1
13.5149 0 1
13.6323 0 1
13.7497 0 1
13.8671 0 1
13.9845 0 1
14.1019 0 1
14.2193 0 1
14.3367 0 1
14.4541 0 1
14.5714 0 1
14.6888 0 1
14.8062 0 1
14.9235 0 1
15.0408 23665 153.834
15.1581 25138 158.55
15.2755 25826 160.705
15.3927 26347 162.318
15.51 26264 162.062
15.6273 26676 163.328
15.7445 26204 161.876
15.8617 25491 159.659
15.9789 24690 157.131
16.0961 23803 154.282
16.2132 23015 151.707
16.3304 23107 152.01
16.4475 23047 151.812
16.5646 23216 152.368
16.6816 23549 153.457
16.7986 23913 154.638
16.9156 23723 154.023
17.0326 23628 153.714
17.1496 22811 151.033
17.2665 22914 151.374
17.3833 22407 149.69
17.5002 22717 150.722
17.617 22328 149.426
17.7338 23175 152.233
17.8505 22993 151.634
17.9672 23572 153.532
18.0839 23843 154.412
18.2005 24490 156.493
18.3171 25015 158.161
18.4337 25606 160.019
18.5502 25915 160.981
18.6666 25827 160.708
18.7831 25821 160.689
18.8994 25138 158.55
19.0158 24539 156.649
19.1321 23461 153.17
19.2483 22154 148.842
19.3645 20551 143.356
19.4806 19029 137.946
19.5967 17635 132.797
19.7128 15967 126.361
19.8288 14874 121.959
19.9447 13738 117.209
20.0606 0 1
20.1764 0 1
20.2922 0 1
20.4079 0 1
20.5236 0 1
20.6392 0 1
20.7548 0 1
20.8702 0 1
23.3078 0 1
23.4233 0 1
23.539 0 1
23.6547 0 1
23.7704 0 1
23.8862 0 1
24.0021 0 1
24.118 0 1
24.234 0 1
24.35 0 1
24.4661 10527 102.601
24.5822 11881 109
24.6984 12528 111.929
24.8146 13377 115.659
24.9309 14151 118.958
25.0472 15239 123.446
25.1636 16471 128.339
25.28 18155 134.74
25.3965 19897 141.057
25.513 21364 146.164
25.6296 22896 151.314
25.7462 24333 155.99
25.8628 24640 156.971
25.9795 24981 158.054
26.0962 25439 159.496
26.213 25110 158.461
26.3298 24484 156.474
26.4466 24238 155.686
26.5635 23410 153.003
26.6804 23247 152.47
26.7973 23694 153.929
26.9143 24377 156.131
27.0313 24344 156.026
27.1483 24874 157.715
27.2653 25181 158.685
27.3824 25040 158.24
27.4996 25209 158.773
27.6167 24519 156.585
27.7339 24202 155.57
27.8511 23542 153.434
27.9683 22772 150.904
28.0855 22146 148.815
28.2028 20939 144.703
28.3201 20056 141.619
28.4374 19151 138.387
28.5547 18772 137.011
28.6721 19403 139.295
28.7894 20376 142.745
28.9068 21515 146.68
29.0242 22525 150.083
29.1416 22774 150.911
29.259 23387 152.928
29.3764 23008 151.684
29.4939 23206 152.335
29.6113 23441 153.105
29.7288 23408 152.997
29.8463 23038 151.783
29.9638 22754 150.844
30.0812 22457 149.857
30.1987 22418 149.726
30.3162 22861 151.199
30.4337 23513 153.339
30.5512 23856 154.454
30.6687 24205 155.58
30.7862 24112 155.28
30.9037 24385 156.157
31.0212 24445 156.349
31.1387 24216 155.615
31.2562 23705 153.964
31.3737 23008 151.684
31.4912 22622 150.406
31.6087 21656 147.16
31.7262 21037 145.041
31.8436 19862 140.933
31.9611 18613 136.429
32.0785 18675 136.657
32.1959 19268 138.809
32.3134 20347 142.643
32.4308 21129 145.358
32.5482 22025 148.408
32.6655 22319 149.395
32.7829 22236 149.117
32.9002 22627 150.423
33.0176 22667 150.556
33.1349 22749 150.828
33.2522 23232 152.42
33.3694 22938 151.453
33.4867 22492 149.973
33.6039 22323 149.409
33.7211 21952 148.162
33.8383 22032 148.432
33.9554 22429 149.763
34.0725 22732 150.771
34.1896 23322 152.715
34.3067 23797 154.263
34.4237 24256 155.743
34.5407 23894 154.577
34.6577 24201 155.567
34.7746 23789 154.237
34.8915 23540 153.428
35.0084 22815 151.046
35.1252 22592 150.306
35.242 21868 147.878
35.3587 21546 146.786
35.4755 20050 141.598
35.5921 18767 136.993
35.7088 18024 134.253
35.8254 18189 134.867
35.9419 18435 135.776
36.0584 18948 137.652
36.1749 20087 141.729
36.2913 20208 142.155
36.4077 20176 142.042
36.524 20161 141.989
36.6403 19767 140.595
36.7565 19442 139.435
36.8727 18819 137.182
36.9889 18028 134.268
37.1049 16956 130.215
37.221 0 1
37.3369 0 1
37.4529 0 1
37.5687 0 1
37.6845 0 1
37.8003 0 1
37.916 0 1
38.0316 0 1
38.1472 0 1
40.5851 0 1
40.7008 0 1
40.8164 0 1
40.9322 0 1
41.048 0 1
41.1639 0 1
41.2798 0 1
41.3958 0 1
41.5118 0 1
41.6279 0 1
41.744 10372 101.843
41.8602 11725 108.282
41.9765 12507 111.835
42.0928 13705 117.068
42.2091 14261 119.419
42.3255 15043 122.65
42.4419 15636 125.044
42.5584 16090 126.846
42.675 17112 130.813
42.7915 18437 135.783
42.9081 20091 141.743
43.0248 20746 144.035
43.1415 21629 147.068
43.2582 21457 146.482
43.375 21585 146.918
43.4918 22285 149.282
43.6087 22214 149.044
43.7256 21874 147.899
43.8425 21755 147.496
43.9595 21331 146.051
44.0765 20979 144.841
44.1935 20401 142.832
44.3106 19306 138.946
44.4277 18285 135.222
44.5448 17405 131.928
44.6619 17226 131.248
44.7791 18181 134.837
44.8963 18843 137.27
45.0136 20341 142.622
45.1308 20541 143.321
45.2481 20672 143.778
45.3654 20907 144.593
45.4827 21135 145.379
45.6001 21471 146.53
45.7174 21254 145.788
45.8348 21091 145.227
45.9522 21219 145.667
46.0697 20906 144.589
46.1871 20657 143.725
46.3046 21346 146.103
46.422 22108 148.688
46.5395 22472 149.907
46.657 23281 152.581
46.7745 23795 154.256
46.892 24007 154.942
47.0096 24288 155.846
47.1271 24539 156.649
47.2446 24801 157.483
47.3622 24119 155.303
47.4797 24009 154.948
47.5973 23531 153.398
47.7149 22657 150.522
47.8324 21633 147.082
47.95 20289 142.439
48.0675 18512 136.059
48.1851 18601 136.385
48.3027 18998 137.833
48.4202 20383 142.769
48.5378 21530 146.731
48.6554 22383 149.609
48.7729 22876 151.248
48.8904 22692 150.639
49.008 23193 152.292
49.1255 23179 152.247
49.243 23108 152.013
49.3605 22909 151.357
49.478 22608 150.36
49.5955 22712 150.705
49.713 22687 150.622
49.8304 23321 152.712
49.9479 24358 156.07
50.0653 24957 157.978
50.1827 25600 160
50.3001 26379 162.416
50.4175 26488 162.751
50.5348 26545 162.926
50.6521 26738 163.518
50.7694 27184 164.876
50.8867 26732 163.499
51.004 26259 162.046
51.1212 25676 160.237
51.2384 24889 157.762
51.3556 23527 153.385
51.4727 21592 146.942
51.5899 20274 142.387
51.707 20637 143.656
51.824 21467 146.516
51.9411 23393 152.948
52.0581 24739 157.286
52.175 25561 159.878
52.2919 25432 159.474
52.4088 24801 157.483
52.5257 25302 159.066
52.6425 25955 161.106
52.7593 26035 161.354
52.876 25703 160.322
52.9927 25526 159.769
53.1094 25101 158.433
53.226 25005 158.13
53.3426 24911 157.832
53.4591 24896 157.785
53.5756 25417 159.427
53.692 25440 159.499
53.8084 25360 159.248
53.9248 24842 157.613
54.0411 23780 154.208
54.1573 22666 150.552
54.2735 0 1
54.3896 0 1
54.5057 0 1
54.6217 0 1
54.7377 0 1
54.8537 0 1
54.9695 0 1
55.0853 0 1
55.2011 0 1
55.3168 0 1
55.4324 0 1
57.824 0 1
57.9396 0 1
58.0553 0 1
58.1711 0 1
58.2869 0 1
58.4028 0 1
58.5187 0 1
58.6347 0 1
58.7508 0 1
58.8669 0 1
58.983 20025 141.51
59.0992 23193 152.292
59.2155 26255 162.034
59.3318 28735 169.514
59.4482 31493 177.463
59.5646 33470 182.948
59.681 35161 187.513
59.7975 36518 191.097
59.9141 36496 191.039
60.0306 36233 190.35
60.1473 35020 187.136
60.2639 33018 181.709
60.3807 31858 178.488
60.4974 32027 178.961
60.6142 34153 184.805
60.731 36770 191.755
60.8479 39350 198.368
60.9648 40790 201.965
61.0818 41927 204.761
61.1987 42308 205.689
61.3158 42793 206.865
61.4328 42722 206.693
61.5499 43019 207.41
61.667 42616 206.436
61.7841 42541 206.255
61.9013 42157 205.322
62.0185 42242 205.529
62.1357 43099 207.603
62.253 44057 209.898
62.3702 45087 212.337
62.4875 46131 214.781
62.6049 46411 215.432
62.7222 48258 219.677
62.8396 48699 220.678
62.9569 49335 222.115
63.0743 48678 220.631
63.1918 48160 219.454
63.3092 47046 216.901
63.4267 44836 211.745
63.5441 42817 206.923
63.6616 39455 198.633
63.7791 35949 189.602
63.8966 33900 184.12
64.0142 34596 186
64.1317 37182 192.826
64.2492 40033 200.082
64.3668 43152 207.731
64.4843 44048 209.876
64.6019 45017 212.172
64.7195 45828 214.075
64.837 45724 213.832
64.9546 46295 215.163
65.0722 46561 215.78
65.1898 45415 213.108
65.3074 46013 214.506
65.4249 44742 211.523
65.5425 44947 212.007
65.6601 45543 213.408
65.7777 46073 214.646
65.8952 46970 216.726
66.0128 47977 219.037
66.1304 48791 220.887
66.2479 50044 223.705
66.3655 50738 225.251
66.483 51426 226.773
66.6005 51546 227.037
66.718 50793 225.373
66.8355 50240 224.143
66.953 48177 219.493
67.0705 45781 213.965
67.1879 43044 207.47
67.3054 38566 196.382
67.4228 35064 187.254
67.5402 33628 183.379
67.6576 34932 186.901
67.7749 37954 194.818
67.8923 41685 204.169
68.0096 44569 211.114
68.1269 46342 215.272
68.2442 47146 217.131
68.3614 47498 217.94
68.4787 47655 218.3
68.5958 47402 217.72
68.713 47164 217.173
68.8302 46885 216.529
68.9473 46128 214.774
69.0643 45172 212.537
69.1814 44989 212.106
69.2984 44980 212.085
69.4154 45247 212.713
69.5323 46046 214.583
69.6492 47135 217.106
69.7661 47723 218.456
69.8829 47976 219.034
69.9997 48293 219.757
70.1165 48271 219.707
70.2332 48100 219.317
70.3499 46606 215.884
70.4665 44550 211.069
70.5831 41652 204.088
70.6996 38774 196.911
70.8161 35430 188.229
70.9326 30149 173.635
71.049 24027 155.006
71.1653 19477 139.56
71.2817 18485 135.96
71.3979 18011 134.205
71.5141 17600 132.665
71.6303 17534 132.416
71.7464 16270 127.554
71.8624 0 1
71.9784 0 1
72.0944 0 1
72.2102 0 1
72.3261 0 1
72.4418 0 1
72.5575 0 1
72.6732 0 1
75.1054 0 1
75.2209 0 1
75.3365 0 1
75.4521 0 1
75.5678 0 1
75.6835 0 1
75.7993 0 1
75.9151 0 1
76.031 0 1
76.147 24342 156.019
76.263 24863 157.68
76.3791 24320 155.949
76.4952 24374 156.122
76.6113 26169 161.768
76.7276 29414 171.505
76.8438 33690 183.548
76.9601 37624 193.969
77.0765 39632 199.078
77.1929 41125 202.793
77.3093 41347 203.34
77.4258 41765 204.365
77.5423 42432 205.99
77.6589 42305 205.682
77.7755 41767 204.37
77.8921 41451 203.595
78.0088 40816 202.03
78.1256 40354 200.883
78.2423 40455 201.134
78.3591 40379 200.945
78.4759 40633 201.576
78.5928 41747 204.321
78.7097 42716 206.678
78.8266 43020 207.413
78.9436 45887 214.213
79.0606 45559 213.446
79.1776 45920 214.29
79.2946 45863 214.156
79.4117 46575 215.812
79.5288 45161 212.511
79.6459 43856 209.418
79.7631 40549 201.368
79.8802 37312 193.163
79.9974 33103 181.942
80.1147 29791 172.601
80.2319 29828 172.708
80.3491 32538 180.383
80.4664 36367 190.701
80.5837 39377 198.436
80.701 41534 203.799
80.8183 42174 205.363
80.9357 43395 208.315
81.053 43611 208.832
81.1704 44552 211.073
81.2877 44229 210.307
81.4051 43670 208.974
81.5225 44179 210.188
81.6399 42577 206.342
81.7573 42654 206.528
81.8747 41236 203.066
81.9922 41796 204.441
82.1096 42525 206.216
82.227 43405 208.339
82.3444 44033 209.84
82.4619 45880 214.196
82.5793 46432 215.481
82.6967 47628 218.238
82.8142 48201 219.547
82.9316 48515 220.261
83.049 48525 220.284
83.1664 46866 216.486
83.2838 44454 210.841
83.4012 42840 206.978
83.5186 38571 196.395
83.636 34332 185.289
83.7534 30443 174.479
83.8708 29584 172
83.9881 31728 178.124
84.1055 35193 187.598
84.2228 39421 198.547
84.3401 42742 206.741
84.4575 44793 211.644
84.5747 45793 213.993
84.692 46103 214.716
84.8093 45901 214.245
84.9265 44922 211.948
85.0437 44544 211.054
85.1609 44134 210.081
85.2781 43344 208.192
85.3952 42599 206.395
85.5123 42490 206.131
85.6294 42837 206.971
85.7465 43383 208.286
85.8636 44269 210.402
85.9806 45567 213.464
86.0976 46840 216.426
86.2145 48087 219.287
86.3315 49213 221.84
86.4484 47704 218.412
86.5652 48436 220.082
86.682 48164 219.463
86.7988 46750 216.217
86.9156 44046 209.871
87.0323 41776 204.392
87.149 37739 194.265
87.2657 33063 181.832
87.3823 29919 172.971
87.4988 30739 175.325
87.6154 33066 181.841
87.7318 36508 191.071
87.8483 38436 196.051
87.9647 39677 199.191
88.081 39305 198.255
88.1973 38946 197.347
88.3136 36953 192.232
88.4298 33950 184.255
88.546 30073 173.416
88.6621 25221 158.811
88.7781 21702 147.316
88.8942 0 1
89.0101 0 1
89.126 0 1
89.2419 0 1
89.3577 0 1
89.4734 0 1
89.5891 0 1
89.7047 0 1
89.8203 0 1
89.9358 0 1
92.3269 0 1
92.4424 0 1
92.558 0 1
92.6736 0 1
92.7893 0 1
92.905 0 1
93.0208 0 1
93.1366 0 1
93.2525 0 1
93.3685 0 1
93.4845 0 1
93.6005 31513 177.519
93.7167 34766 186.456
93.8328 36975 192.289
93.949 39228 198.061
94.0653 41758 204.348
94.1816 43330 208.159
94.2979 44788 211.632
94.4143 45183 212.563
94.5307 45449 213.188
94.6472 45097 212.361
94.7637 45796 214
94.8803 46153 214.832
94.9969 47295 217.474
95.1135 48353 219.893
95.2302 50048 223.714
95.3469 50863 225.528
95.4637 51851 227.708
95.5805 51573 227.097
95.6973 50620 224.989
95.8142 49357 222.164
95.9311 47647 218.282
96.048 45411 213.099
96.1649 42848 206.998
96.2819 39683 199.206
96.3989 36751 191.706
96.516 35358 188.037
96.633 36004 189.747
96.7501 37565 193.817
96.8673 39988 199.97
96.9844 43625 208.866
97.1016 45340 212.932
97.2188 47369 217.644
97.336 47877 218.808
97.4532 47975 219.032
97.5704 47831 218.703
97.6877 47025 216.852
97.805 45953 214.367
97.9223 45197 212.596
98.0396 44803 211.667
98.1569 44322 210.528
98.2743 43883 209.483
98.3916 45100 212.368
98.509 46899 216.562
98.6264 48122 219.367
98.7438 49343 222.133
98.8612 50797 225.382
98.9786 51800 227.596
99.096 52511 229.153
99.2134 52754 229.682
99.3308 52350 228.801
99.4482 50470 224.655
99.5656 48744 220.78
99.6831 45964 214.392
99.8005 43196 207.836
99.9179 40486 201.211
100.035 38620 196.52
100.153 38591 196.446
100.27 39965 199.912
100.388 42924 207.181
100.505 44939 211.988
100.622 47107 217.041
100.74 47603 218.181
100.857 48276 219.718
100.975 48584 220.418
101.092 48656 220.581
101.209 48194 219.531
101.327 47146 217.131
101.444 46843 216.432
101.561 45709 213.797
101.679 45584 213.504
101.796 45360 212.979
101.913 46173 214.879
102.03 47117 217.065
102.148 49133 221.66
102.265 51058 225.96
102.382 50657 225.071
102.499 52607 229.362
102.616 52649 229.454
102.733 53219 230.692
102.851 52134 228.329
102.968 51904 227.824
103.085 49732 223.007
103.202 47149 217.138
103.319 44322 210.528
103.436 41075 202.67
103.552 39278 198.187
103.669 38705 196.736
103.786 40002 200.005
103.903 42752 206.766
104.02 45179 212.554
104.137 46345 215.279
104.253 47862 218.774
104.37 47881 218.817
104.487 47925 218.918
104.603 47403 217.722
104.72 45884 214.206
104.836 44317 210.516
104.953 42354 205.801
105.069 41157 202.872
105.186 39976 199.94
105.302 38865 197.142
105.418 38418 196.005
105.535 37314 193.168
105.651 36332 190.61
105.767 34044 184.51
105.883 31166 176.539
105.999 27212 164.961
106.115 0 1
106.231 0 1
106.347 0 1
106.463 0 1
106.579 0 1
106.694 0 1
106.81 0 1
106.926 0 1
107.041 0 1
107.157 0 1
109.576 0 1
109.692 0 1
109.807 0 1
109.923 0 1
110.039 0 1
110.155 0 1
110.27 0 1
110.386 0 1
110.502 0 1
110.618 22305 149.349
110.735 27138 164.736
110.851 30869 175.696
110.967 34666 186.188
111.083 38420 196.01
111.199 41202 202.983
111.316 43455 208.459
111.432 45283 212.798
111.549 46574 215.81
111.665 46727 216.164
111.782 45227 212.666
111.898 43094 207.591
112.015 40467 201.164
112.132 37103 192.621
112.248 34330 185.284
112.365 34750 186.414
112.482 37695 194.152
112.599 40119 200.297
112.716 42735 206.724
112.832 43821 209.335
112.949 44069 209.926
113.066 44027 209.826
113.183 44207 210.255
113.3 43512 208.595
113.417 42783 206.841
113.534 41403 203.477
113.652 40629 201.566
113.769 39771 199.427
113.886 39636 199.088
114.003 39804 199.509
114.12 41609 203.983
114.238 43139 207.699
114.355 44282 210.433
114.472 45415 213.108
114.589 45995 214.464
114.707 47001 216.797
114.824 47568 218.101
114.942 47302 217.49
115.059 47483 217.906
115.176 46834 216.412
115.294 44294 210.461
115.411 42568 206.32
115.529 41162 202.884
115.646 38253 195.584
115.764 35193 187.598
115.881 34312 185.235
115.999 36439 190.89
116.116 39474 198.681
116.234 41103 202.739
116.351 42255 205.56
116.469 42058 205.08
116.586 42153 205.312
116.704 42216 205.465
116.821 42214 205.46
116.939 41515 203.752
117.056 40591 201.472
117.174 39622 199.053
117.291 38363 195.865
117.409 37656 194.052
117.526 38521 196.268
117.644 38990 197.459
117.761 40581 201.447
117.879 42335 205.755
117.996 43385 208.291
118.114 44173 210.174
118.231 44588 211.159
118.349 45188 212.575
118.466 44974 212.071
118.584 44981 212.087
118.701 44989 212.106
118.819 43244 207.952
118.936 41198 202.973
119.053 40082 200.205
119.171 37729 194.24
119.288 35272 187.808
119.405 33479 182.973
119.523 33869 184.035
119.64 35708 188.966
119.757 37919 194.728
119.875 39319 198.29
119.992 39552 198.877
120.109 39967 199.917
120.226 40002 200.005
120.343 39925 199.812
120.46 39762 199.404
120.578 39163 197.896
120.695 38000 194.936
120.812 36926 192.161
120.929 36040 189.842
121.046 34921 186.872
121.163 35063 187.251
121.279 35827 189.28
121.396 36356 190.672
121.513 37395 193.378
121.63 38515 196.252
121.747 37502 193.654
121.863 38014 194.972
121.98 37600 193.907
122.097 37397 193.383
122.213 36959 192.247
122.33 35289 187.854
122.446 33869 184.035
122.563 31297 176.91
122.679 28595 169.101
122.795 25433 159.477
122.912 21797 147.638
123.028 18847 137.284
123.144 17598 132.657
123.26 17262 131.385
123.377 0 1
123.493 0 1
123.609 0 1
123.725 0 1
123.84 0 1
123.956 0 1
124.072 0 1
124.188 0 1
124.303 0 1
124.419 0 1
126.852 0 1
126.968 0 1
127.083 0 1
127.199 0 1
127.315 0 1
127.431 0 1
127.547 0 1
127.663 0 1
127.779 0 1
127.895 0 1
128.011 0 1
128.127 0 1
128.243 0 1
128.359 37720 194.216
128.476 36448 190.914
128.592 37174 192.806
128.708 38817 197.02
128.825 41327 203.29
128.941 43587 208.775
129.058 43999 209.759
129.174 44292 210.457
129.291 44252 210.362
129.408 44871 211.828
129.524 44447 210.825
129.641 44003 209.769
129.758 42072 205.115
129.875 40696 201.732
129.992 39808 199.519
130.108 39328 198.313
130.225 39656 199.138
130.342 41441 203.571
130.459 42539 206.25
130.576 45653 213.666
130.693 46154 214.835
130.81 46045 214.581
130.928 46002 214.481
131.045 46598 215.866
131.162 46558 215.773
131.279 46906 216.578
131.396 46966 216.716
131.513 46702 216.106
131.631 44920 211.943
131.748 43852 209.409
131.865 41564 203.873
131.983 38935 197.32
132.1 38135 195.282
132.217 39376 198.434
132.335 42131 205.258
132.452 44200 210.238
132.57 44522 211.002
132.687 43510 208.591
132.804 44561 211.095
132.922 43989 209.736
133.039 43803 209.292
133.157 44270 210.404
133.274 42942 207.225
133.392 41368 203.391
133.509 40180 200.449
133.627 39177 197.932
133.744 39263 198.149
133.862 40889 202.21
133.979 43052 207.49
134.097 45116 212.405
134.214 45829 214.077
134.332 45690 213.752
134.449 46045 214.581
134.567 45830 214.079
134.684 45982 214.434
134.802 46200 214.942
134.919 46858 216.467
135.037 46446 215.513
135.154 45703 213.783
135.272 43934 209.604
135.389 42313 205.701
135.507 39713 199.281
135.624 38720 196.774
135.742 39163 197.896
135.859 40944 202.346
135.977 43233 207.925
136.094 44320 210.523
136.211 43988 209.733
136.329 43745 209.153
136.446 43882 209.48
136.564 43511 208.593
136.681 43738 209.136
136.798 42902 207.128
136.915 41707 204.223
137.033 40178 200.445
137.15 39065 197.649
137.267 38790 196.952
137.384 38990 197.459
137.502 39803 199.507
137.619 42322 205.723
137.736 43886 209.49
137.853 42429 205.983
137.97 44228 210.305
138.087 42895 207.111
138.204 43886 209.49
138.321 43733 209.124
138.438 44139 210.093
138.555 44364 210.628
138.672 42913 207.155
138.788 41184 202.938
138.905 39234 198.076
139.022 37353 193.269
139.139 35062 187.248
139.255 33243 182.327
139.372 32262 179.616
139.488 32255 179.597
139.605 32807 181.127
139.721 32380 179.944
139.838 30733 175.308
139.954 27972 167.248
140.071 25352 159.223
140.187 23672 153.857
140.303 22288 149.292
140.419 20945 144.724
140.535 19932 141.181
140.652 18221 134.985
140.768 0 1
140.884 0 1
141 0 1
141.115 0 1
141.231 0 1
141.347 0 1
141.463 0 1
141.578 0 1
141.694 0 1
144.104 0 1
144.219 0 1
144.335 0 1
144.45 0 1
144.566 0 1
144.682 0 1
144.798 0 1
144.914 0 1
145.03 0 1
145.146 30422 174.419
145.262 32673 180.757
145.378 32967 181.568
145.494 33095 181.92
145.61 32197 179.435
145.726 31531 177.57
145.842 30402 174.362
145.959 30159 173.663
146.075 29539 171.869
146.192 30154 173.649
146.308 31117 176.4
146.425 32351 179.864
146.541 33405 182.77
146.658 33413 182.792
146.774 33597 183.295
146.891 33527 183.104
147.008 33988 184.358
147.125 33483 182.984
147.241 34152 184.803
147.358 35260 187.776
147.475 34720 186.333
147.592 34131 184.746
147.709 33103 181.942
147.826 31824 178.393
147.943 30510 174.671
148.06 30206 173.799
148.177 30329 174.152
148.294 31714 178.084
148.411 32913 181.419
148.528 33444 182.877
148.645 33490 183.003
148.762 33644 183.423
148.88 33518 183.079
148.997 33705 183.589
149.114 32840 181.218
149.231 32514 180.316
149.349 32498 180.272
149.466 30380 174.299
149.583 29906 172.934
149.701 29570 171.959
149.818 29338 171.283
149.935 29557 171.921
150.053 31270 176.833
150.17 32580 180.499
150.287 32814 181.146
150.405 33018 181.709
150.522 32975 181.59
150.64 33214 182.247
150.757 33047 181.788
150.875 33828 183.924
150.992 34090 184.635
151.11 33756 183.728
151.227 33485 182.989
151.344 32585 180.513
151.462 31690 178.017
151.579 29738 172.447
151.697 29244 171.009
151.814 29644 172.174
151.932 30870 175.699
152.049 32072 179.087
152.167 32453 180.147
152.284 32729 180.912
152.402 32209 179.469
152.519 32222 179.505
152.636 32269 179.636
152.754 31892 178.583
152.871 31466 177.387
152.989 30182 173.73
153.106 29474 171.68
153.223 28351 168.378
153.341 28181 167.872
153.458 28446 168.659
153.575 28979 170.232
153.693 29913 172.954
153.81 30674 175.14
153.927 30988 176.034
154.044 31129 176.434
154.162 31073 176.275
154.279 31360 177.088
154.396 31838 178.432
154.513 31986 178.846
154.63 32272 179.644
154.747 32121 179.223
154.864 32052 179.031
154.981 30321 174.129
155.098 29450 171.61
155.215 28479 168.757
155.332 27981 167.275
155.449 28445 168.656
155.566 29252 171.032
155.683 30205 173.796
155.8 29752 172.488
155.917 28956 170.165
156.033 28041 167.454
156.15 0 1
156.267 0 1
156.383 0 1
156.5 0 1
156.617 0 1
156.733 0 1
156.85 0 1
156.966 0 1
157.082 0 1
157.199 0 1
157.315 0 1
157.431 0 1
157.547 0 1
157.664 0 1
157.78 0 1
157.896 0 1
158.012 0 1
158.128 0 1
158.244 0 1
158.359 0 1
158.475 0 1
158.591 0 1
158.706 0 1
