
6.15755 0 1
6.2731 0 1
6.3887 0 1
6.50437 0 1
6.62009 0 1
6.73587 0 1
6.8517 0 1
6.96759 0 1
7.08353 0 1
7.19952 0 1
7.31557 0 1
7.43166 0 1
7.54781 0 1
7.664 0 1
7.78024 0 1
7.89653 0 1
8.01286 0 1
8.12924 0 1
8.24567 0 1
8.36213 0 1
8.47864 0 1
8.59519 0 1
8.71178 0 1
8.82841 0 1
8.94508 0 1
9.06179 0 1
9.17853 0 1
9.29531 0 1
9.41212 0 1
9.52897 0 1
9.64584 0 1
9.76276 0 1
9.8797 0 1
9.99667 0 1
10.1137 0 1
10.2307 0 1
10.3478 0 1
10.4648 0 1
10.5819 0 1
10.6991 0 1
10.8162 0 1
10.9334 0 1
11.0506 0 1
11.1678 0 1
11.285 0 1
11.4023 0 1
11.5196 0 1
11.6369 0 1
11.7542 0 1
11.8715 0 1
11.9888 0 1
12.1062 0 1
12.2235 0 1
12.3409 0 1
12.4582 0 1
12.5756 0 1
12.693 0 1
12.8104 0 1
12.9278 0 1
13.0452 0 1
13.1626 0 1
13.28 0 1
13.3974 0 1
13.5149 0 1
13.6323 0 1
13.7497 0 1
13.8671 0 1
13.9845 0 1
14.1019 0 1
14.2193 0 1
14.3367 0 1
14.4541 0 1
14.5714 0 1
14.6888 0 1
14.8062 0 1
14.9235 0 1
15.0408 0 0
15.1581 0 0
15.2755 0 0
15.3927 0 0
15.51 0 0
15.6273 0 0
15.7445 0 0
15.8617 0 0
15.9789 0 0
16.0961 0 0
16.2132 0 0
16.3304 0 0
16.4475 0 0
16.5646 0 0
16.6816 0 0
16.7986 0 0
16.9156 0 0
17.0326 0 0
17.1496 0 0
17.2665 0 0
17.3833 0 0
17.5002 0 0
17.617 0 0
17.7338 0 0
17.8505 0 0
17.9672 0 0
18.0839 0 0
18.2005 0 0
18.3171 0 0
18.4337 0 0
18.5502 0 0
18.6666 0 0
18.7831 0 0
18.8994 0 0
19.0158 0 0
19.1321 0 0
19.2483 0 0
19.3645 0 0
19.4806 0 0
19.5967 0 0
19.7128 0 0
19.8288 0 0
19.9447 0 0
20.0606 0 1
20.1764 0 1
20.2922 0 1
20.4079 0 1
20.5236 0 1
20.6392 0 1
20.7548 0 1
20.8702 0 1
23.3078 0 1
23.4233 0 1
23.539 0 1
23.6547 0 1
23.7704 0 1
23.8862 0 1
24.0021 0 1
24.118 0 1
24.234 0 1
24.35 0 1
24.4661 1373 37.054
24.5822 1351 36.756
24.6984 1417 37.6431
24.8146 1431 37.8286
24.9309 1393 37.3229
25.0472 1407 37.51
25.1636 1317 36.2905
25.28 1382 37.1753
25.3965 1446 38.0263
25.513 1418 37.6563
25.6296 1440 37.9473
25.7462 1438 37.921
25.8628 1511 38.8716
25.9795 1488 38.5746
26.0962 1491 38.6135
26.213 1419 37.6696
26.3298 1450 38.0789
26.4466 1508 38.833
26.5635 1400 37.4166
26.6804 1376 37.0945
26.7973 1423 37.7227
26.9143 1453 38.1182
27.0313 1457 38.1707
27.1483 1524 39.0384
27.2653 1651 40.6325
27.3824 1634 40.4228
27.4996 1536 39.1918
27.6167 1572 39.6485
27.7339 1567 39.5854
27.8511 1493 38.6394
27.9683 1502 38.7556
28.0855 1445 38.0132
28.2028 1507 38.8201
28.3201 1406 37.4967
28.4374 1344 36.6606
28.5547 1345 36.6742
28.6721 1304 36.1109
28.7894 1343 36.647
28.9068 1405 37.4833
29.0242 1323 36.3731
29.1416 1337 36.565
29.259 1371 37.027
29.3764 1366 36.9594
29.4939 1434 37.8682
29.6113 1337 36.565
29.7288 1390 37.2827
29.8463 1403 37.4566
29.9638 1358 36.8511
30.0812 1322 36.3593
30.1987 1244 35.2704
30.3162 1213 34.8281
30.4337 1374 37.0675
30.5512 1292 35.9444
30.6687 1445 38.0132
30.7862 1463 38.2492
30.9037 1531 39.128
31.0212 1498 38.704
31.1387 1517 38.9487
31.2562 1473 38.3797
31.3737 1432 37.8418
31.4912 1443 37.9868
31.6087 1473 38.3797
31.7262 1481 38.4838
31.8436 1375 37.081
31.9611 1363 36.9188
32.0785 1411 37.5633
32.1959 1275 35.7071
32.3134 1341 36.6197
32.4308 1342 36.6333
32.5482 1234 35.1283
32.6655 1319 36.318
32.7829 1293 35.9583
32.9002 1333 36.5103
33.0176 1270 35.6371
33.1349 1328 36.4417
33.2522 1360 36.8782
33.3694 1339 36.5923
33.4867 1337 36.565
33.6039 1325 36.4005
33.7211 1301 36.0694
33.8383 1264 35.5528
33.9554 1303 36.0971
34.0725 1265 35.5668
34.1896 1431 37.8286
34.3067 1547 39.3319
34.4237 1370 37.0135
34.5407 1490 38.6005
34.6577 1460 38.2099
34.7746 1488 38.5746
34.8915 1482 38.4968
35.0084 1438 37.921
35.1252 1433 37.855
35.242 1457 38.1707
35.3587 1424 37.7359
35.4755 1389 37.2693
35.5921 1389 37.2693
35.7088 1299 36.0416
35.8254 1277 35.7351
35.9419 1263 35.5387
36.0584 1216 34.8712
36.1749 1194 34.5543
36.2913 1212 34.8138
36.4077 1202 34.6699
36.524 1209 34.7707
36.6403 1272 35.6651
36.7565 1268 35.609
36.8727 1289 35.9026
36.9889 1277 35.7351
37.1049 1375 37.081
37.221 0 1
37.3369 0 1
37.4529 0 1
37.5687 0 1
37.6845 0 1
37.8003 0 1
37.916 0 1
38.0316 0 1
38.1472 0 1
40.5851 0 1
40.7008 0 1
40.8164 0 1
40.9322 0 1
41.048 0 1
41.1639 0 1
41.2798 0 1
41.3958 0 1
41.5118 0 1
41.6279 0 1
41.744 971 31.1609
41.8602 969 31.1288
41.9765 999 31.607
42.0928 1077 32.8177
42.2091 1038 32.218
42.3255 1084 32.9242
42.4419 1052 32.4345
42.5584 1008 31.749
42.675 1026 32.0312
42.7915 951 30.8383
42.9081 1024 32
43.0248 1116 33.4066
43.1415 1100 33.1662
43.2582 1105 33.2415
43.375 1115 33.3916
43.4918 1124 33.5261
43.6087 1159 34.0441
43.7256 1087 32.9697
43.8425 1077 32.8177
43.9595 1080 32.8634
44.0765 1084 32.9242
44.1935 1000 31.6228
44.3106 994 31.5278
44.4277 916 30.2655
44.5448 875 29.5804
44.6619 828 28.775
44.7791 804 28.3549
44.8963 784 28
45.0136 709 26.6271
45.1308 715 26.7395
45.2481 762 27.6043
45.3654 722 26.8701
45.4827 784 28
45.6001 788 28.0713
45.7174 784 28
45.8348 800 28.2843
45.9522 813 28.5132
46.0697 789 28.0891
46.1871 723 26.8887
46.3046 724 26.9072
46.422 733 27.074
46.5395 732 27.0555
46.657 777 27.8747
46.7745 775 27.8388
46.892 808 28.4253
47.0096 847 29.1033
47.1271 796 28.2135
47.2446 854 29.2233
47.3622 801 28.3019
47.4797 773 27.8029
47.5973 742 27.2397
47.7149 736 27.1293
47.8324 697 26.4008
47.95 670 25.8844
48.0675 608 24.6577
48.1851 574 23.9583
48.3027 549 23.4307
48.4202 543 23.3024
48.5378 544 23.3238
48.6554 576 24
48.7729 527 22.9565
48.8904 575 23.9792
49.008 585 24.1868
49.1255 580 24.0832
49.243 603 24.5561
49.3605 584 24.1661
49.478 588 24.2487
49.5955 562 23.7065
49.713 583 24.1454
49.8304 539 23.2164
49.9479 617 24.8395
50.0653 587 24.2281
50.1827 656 25.6125
50.3001 681 26.096
50.4175 674 25.9615
50.5348 746 27.313
50.6521 745 27.2947
50.7694 802 28.3196
50.8867 773 27.8029
51.004 836 28.9137
51.1212 783 27.9821
51.2384 816 28.5657
51.3556 845 29.0689
51.4727 938 30.6268
51.5899 757 27.5136
51.707 754 27.4591
51.824 733 27.074
51.9411 779 27.9106
52.0581 746 27.313
52.175 820 28.6356
52.2919 832 28.8444
52.4088 864 29.3939
52.5257 840 28.9828
52.6425 891 29.8496
52.7593 968 31.1127
52.876 1031 32.1092
52.9927 1052 32.4345
53.1094 1051 32.4191
53.226 975 31.225
53.3426 947 30.7734
53.4591 986 31.4006
53.5756 1038 32.218
53.692 1138 33.7343
53.8084 1160 34.0588
53.9248 1161 34.0735
54.0411 1319 36.318
54.1573 1263 35.5387
54.2735 0 1
54.3896 0 1
54.5057 0 1
54.6217 0 1
54.7377 0 1
54.8537 0 1
54.9695 0 1
55.0853 0 1
55.2011 0 1
55.3168 0 1
55.4324 0 1
57.824 0 1
57.9396 0 1
58.0553 0 1
58.1711 0 1
58.2869 0 1
58.4028 0 1
58.5187 0 1
58.6347 0 1
58.7508 0 1
58.8669 0 1
58.983 1278 35.7491
59.0992 1419 37.6696
59.2155 1439 37.9342
59.3318 1425 37.7492
59.4482 1434 37.8682
59.5646 1440 37.9473
59.681 1454 38.1314
59.7975 1472 38.3667
59.9141 1361 36.8917
60.0306 1337 36.565
60.1473 1192 34.5254
60.2639 1196 34.5832
60.3807 1072 32.7414
60.4974 1053 32.45
60.6142 981 31.3209
60.731 894 29.8998
60.8479 1041 32.2645
60.9648 986 31.4006
61.0818 1140 33.7639
61.1987 1126 33.5559
61.3158 1235 35.1426
61.4328 1164 34.1174
61.5499 1133 33.6601
61.667 1200 34.641
61.7841 1137 33.7194
61.9013 1093 33.0606
62.0185 1135 33.6898
62.1357 1142 33.7935
62.253 1142 33.7935
62.3702 1242 35.242
62.4875 1332 36.4966
62.6049 1355 36.8103
62.7222 1357 36.8375
62.8396 1419 37.6696
62.9569 1298 36.0278
63.0743 1479 38.4578
63.1918 1377 37.108
63.3092 1310 36.1939
63.4267 1362 36.9053
63.5441 1323 36.3731
63.6616 1179 34.3366
63.7791 1095 33.0908
63.8966 1023 31.9844
64.0142 1005 31.7017
64.1317 926 30.4302
64.2492 999 31.607
64.3668 1067 32.665
64.4843 1047 32.3574
64.6019 1076 32.8024
64.7195 1204 34.6987
64.837 1220 34.9285
64.9546 1224 34.9857
65.0722 1203 34.6843
65.1898 1233 35.1141
65.3074 1144 33.8231
65.4249 1143 33.8083
65.5425 1122 33.4963
65.6601 1131 33.6303
65.7777 1244 35.2704
65.8952 1206 34.7275
66.0128 1266 35.5809
66.1304 1318 36.3043
66.2479 1393 37.3229
66.3655 1377 37.108
66.483 1447 38.0395
66.6005 1400 37.4166
66.718 1441 37.9605
66.8355 1332 36.4966
66.953 1322 36.3593
67.0705 1274 35.6931
67.1879 1219 34.9142
67.3054 1175 34.2783
67.4228 1057 32.5115
67.5402 984 31.3688
67.6576 958 30.9516
67.7749 886 29.7658
67.8923 975 31.225
68.0096 971 31.1609
68.1269 1003 31.6702
68.2442 1059 32.5423
68.3614 1119 33.4515
68.4787 1153 33.9559
68.5958 1177 34.3074
68.713 1169 34.1906
68.8302 1171 34.2199
68.9473 1080 32.8634
69.0643 1125 33.541
69.1814 1006 31.7175
69.2984 1056 32.4962
69.4154 1112 33.3467
69.5323 1167 34.1614
69.6492 1236 35.1568
69.7661 1290 35.9166
69.8829 1383 37.1887
69.9997 1488 38.5746
70.1165 1352 36.7696
70.2332 1413 37.5899
70.3499 1347 36.7015
70.4665 1362 36.9053
70.5831 1417 37.6431
70.6996 1217 34.8855
70.8161 1161 34.0735
70.9326 1102 33.1964
71.049 970 31.1448
71.1653 968 31.1127
71.2817 877 29.6142
71.3979 883 29.7153
71.5141 837 28.931
71.6303 846 29.0861
71.7464 800 28.2843
71.8624 0 1
71.9784 0 1
72.0944 0 1
72.2102 0 1
72.3261 0 1
72.4418 0 1
72.5575 0 1
72.6732 0 1
75.1054 0 1
75.2209 0 1
75.3365 0 1
75.4521 0 1
75.5678 0 1
75.6835 0 1
75.7993 0 1
75.9151 0 1
76.031 0 1
76.147 1070 32.7109
76.263 1156 34
76.3791 1095 33.0908
76.4952 986 31.4006
76.6113 943 30.7083
76.7276 887 29.7825
76.8438 999 31.607
76.9601 973 31.1929
77.0765 1018 31.9061
77.1929 1101 33.1813
77.3093 1161 34.0735
77.4258 1235 35.1426
77.5423 1252 35.3836
77.6589 1304 36.1109
77.7755 1162 34.0881
77.8921 1126 33.5559
78.0088 1120 33.4664
78.1256 1066 32.6497
78.2423 1074 32.7719
78.3591 1108 33.2866
78.4759 1142 33.7935
78.5928 1257 35.4542
78.7097 1301 36.0694
78.8266 1240 35.2136
78.9436 1364 36.9324
79.0606 1332 36.4966
79.1776 1379 37.1349
79.2946 1406 37.4967
79.4117 1400 37.4166
79.5288 1387 37.2424
79.6459 1372 37.0405
79.7631 1204 34.6987
79.8802 1138 33.7343
79.9974 1068 32.6803
80.1147 898 29.9666
80.2319 847 29.1033
80.3491 758 27.5318
80.4664 809 28.4429
80.5837 794 28.178
80.701 897 29.95
80.8183 917 30.282
80.9357 1008 31.749
81.053 1117 33.4215
81.1704 1148 33.8821
81.2877 1066 32.6497
81.4051 1072 32.7414
81.5225 1029 32.078
81.6399 1001 31.6386
81.7573 1000 31.6228
81.8747 908 30.133
81.9922 938 30.6268
82.1096 949 30.8058
82.227 1046 32.3419
82.3444 1106 33.2566
82.4619 1150 33.9116
82.5793 1194 34.5543
82.6967 1073 32.7567
82.8142 1233 35.1141
82.9316 1196 34.5832
83.049 1163 34.1028
83.1664 1201 34.6554
83.2838 1076 32.8024
83.4012 975 31.225
83.5186 894 29.8998
83.636 875 29.5804
83.7534 773 27.8029
83.8708 747 27.3313
83.9881 737 27.1477
84.1055 709 26.6271
84.2228 721 26.8514
84.3401 765 27.6586
84.4575 852 29.189
84.5747 965 31.0644
84.692 940 30.6594
84.8093 954 30.8869
84.9265 913 30.2159
85.0437 906 30.0998
85.1609 910 30.1662
85.2781 909 30.1496
85.3952 856 29.2575
85.5123 903 30.05
85.6294 958 30.9516
85.7465 995 31.5436
85.8636 1059 32.5423
85.9806 1129 33.6006
86.0976 1207 34.7419
86.2145 1205 34.7131
86.3315 1339 36.5923
86.4484 1255 35.426
86.5652 1324 36.3868
86.682 1288 35.8887
86.7988 1289 35.9026
86.9156 1177 34.3074
87.0323 1153 33.9559
87.149 1013 31.8277
87.2657 976 31.241
87.3823 911 30.1828
87.4988 869 29.4788
87.6154 875 29.5804
87.7318 870 29.4958
87.8483 981 31.3209
87.9647 994 31.5278
88.081 1173 34.2491
88.1973 1213 34.8281
88.3136 1283 35.819
88.4298 1282 35.805
88.546 1247 35.3129
88.6621 1196 34.5832
88.7781 1108 33.2866
88.8942 0 1
89.0101 0 1
89.126 0 1
89.2419 0 1
89.3577 0 1
89.4734 0 1
89.5891 0 1
89.7047 0 1
89.8203 0 1
89.9358 0 1
92.3269 0 1
92.4424 0 1
92.558 0 1
92.6736 0 1
92.7893 0 1
92.905 0 1
93.0208 0 1
93.1366 0 1
93.2525 0 1
93.3685 0 1
93.4845 0 1
93.6005 1198 34.6121
93.7167 1214 34.8425
93.8328 1156 34
93.949 1226 35.0143
94.0653 1212 34.8138
94.1816 1158 34.0294
94.2979 1131 33.6303
94.4143 1103 33.2114
94.5307 1131 33.6303
94.6472 1119 33.4515
94.7637 1133 33.6601
94.8803 1245 35.2846
94.9969 1327 36.428
95.1135 1402 37.4433
95.2302 1413 37.5899
95.3469 1413 37.5899
95.4637 1462 38.2361
95.5805 1454 38.1314
95.6973 1461 38.223
95.8142 1482 38.4968
95.9311 1393 37.3229
96.048 1354 36.7967
96.1649 1320 36.3318
96.2819 1185 34.4238
96.3989 1107 33.2716
96.516 1045 32.3265
96.633 903 30.05
96.7501 879 29.6479
96.8673 914 30.2324
96.9844 907 30.1164
97.1016 1055 32.4808
97.2188 1114 33.3766
97.336 1276 35.7211
97.4532 1220 34.9285
97.5704 1239 35.1994
97.6877 1261 35.5106
97.805 1172 34.2345
97.9223 1112 33.3467
98.0396 1140 33.7639
98.1569 1064 32.619
98.2743 1129 33.6006
98.3916 1097 33.121
98.509 1197 34.5977
98.6264 1220 34.9285
98.7438 1292 35.9444
98.8612 1422 37.7094
98.9786 1417 37.6431
99.096 1518 38.9615
99.2134 1442 37.9737
99.3308 1487 38.5616
99.4482 1418 37.6563
99.5656 1370 37.0135
99.6831 1360 36.8782
99.8005 1249 35.3412
99.9179 1163 34.1028
100.035 1091 33.0303
100.153 1002 31.6544
100.27 880 29.6648
100.388 894 29.8998
100.505 976 31.241
100.622 1079 32.8481
100.74 1072 32.7414
100.857 1154 33.9706
100.975 1243 35.2562
101.092 1286 35.8608
101.209 1260 35.4965
101.327 1208 34.7563
101.444 1209 34.7707
101.561 1145 33.8378
101.679 1121 33.4813
101.796 1211 34.7994
101.913 1137 33.7194
102.03 1188 34.4674
102.148 1305 36.1248
102.265 1362 36.9053
102.382 1505 38.7943
102.499 1572 39.6485
102.616 1531 39.128
102.733 1541 39.2556
102.851 1531 39.128
102.968 1579 39.7366
103.085 1508 38.833
103.202 1432 37.8418
103.319 1339 36.5923
103.436 1214 34.8425
103.552 1193 34.5398
103.669 1045 32.3265
103.786 982 31.3369
103.903 1052 32.4345
104.02 996 31.5595
104.137 1143 33.8083
104.253 1158 34.0294
104.37 1300 36.0555
104.487 1327 36.428
104.603 1291 35.9305
104.72 1266 35.5809
104.836 1264 35.5528
104.953 1278 35.7491
105.069 1259 35.4824
105.186 1190 34.4964
105.302 1306 36.1386
105.418 1229 35.0571
105.535 1399 37.4032
105.651 1475 38.4057
105.767 1532 39.1408
105.883 1655 40.6817
105.999 1678 40.9634
106.115 0 1
106.231 0 1
106.347 0 1
106.463 0 1
106.579 0 1
106.694 0 1
106.81 0 1
106.926 0 1
107.041 0 1
107.157 0 1
109.576 0 1
109.692 0 1
109.807 0 1
109.923 0 1
110.039 0 1
110.155 0 1
110.27 0 1
110.386 0 1
110.502 0 1
110.618 1371 37.027
110.735 1461 38.223
110.851 1503 38.7685
110.967 1571 39.6358
111.083 1568 39.598
111.199 1580 39.7492
111.316 1651 40.6325
111.432 1588 39.8497
111.549 1598 39.975
111.665 1466 38.2884
111.782 1390 37.2827
111.898 1336 36.5513
112.015 1374 37.0675
112.132 1187 34.4529
112.248 1035 32.1714
112.365 1003 31.6702
112.482 962 31.0161
112.599 1040 32.249
112.716 1162 34.0881
112.832 1201 34.6554
112.949 1192 34.5254
113.066 1272 35.6651
113.183 1244 35.2704
113.3 1147 33.8674
113.417 1220 34.9285
113.534 1240 35.2136
113.652 1163 34.1028
113.769 1224 34.9857
113.886 1254 35.4119
114.003 1239 35.1994
114.12 1313 36.2353
114.238 1415 37.6165
114.355 1385 37.2156
114.472 1486 38.5487
114.589 1559 39.4842
114.707 1586 39.8246
114.824 1602 40.025
114.942 1585 39.8121
115.059 1556 39.4462
115.176 1523 39.0256
115.294 1447 38.0395
115.411 1479 38.4578
115.529 1421 37.6962
115.646 1240 35.2136
115.764 1127 33.5708
115.881 1069 32.6956
115.999 1036 32.187
116.116 1072 32.7414
116.234 1127 33.5708
116.351 1130 33.6155
116.469 1238 35.1852
116.586 1258 35.4683
116.704 1302 36.0832
116.821 1288 35.8887
116.939 1258 35.4683
117.056 1197 34.5977
117.174 1281 35.7911
117.291 1225 35
117.409 1294 35.9722
117.526 1287 35.8748
117.644 1339 36.5923
117.761 1512 38.8844
117.879 1578 39.724
117.996 1519 38.9744
118.114 1628 40.3485
118.231 1639 40.4846
118.349 1631 40.3856
118.466 1652 40.6448
118.584 1664 40.7922
118.701 1657 40.7063
118.819 1622 40.2741
118.936 1504 38.7814
119.053 1476 38.4187
119.171 1411 37.5633
119.288 1271 35.6511
119.405 1183 34.3948
119.523 1090 33.0151
119.64 1099 33.1512
119.757 1130 33.6155
119.875 1189 34.4819
119.992 1217 34.8855
120.109 1263 35.5387
120.226 1277 35.7351
120.343 1301 36.0694
120.46 1261 35.5106
120.578 1212 34.8138
120.695 1292 35.9444
120.812 1265 35.5668
120.929 1316 36.2767
121.046 1299 36.0416
121.163 1326 36.4143
121.279 1423 37.7227
121.396 1426 37.7624
121.513 1478 38.4448
121.63 1602 40.025
121.747 1633 40.4104
121.863 1660 40.7431
121.98 1562 39.5221
122.097 1632 40.398
122.213 1652 40.6448
122.33 1639 40.4846
122.446 1548 39.3446
122.563 1492 38.6264
122.679 1462 38.2361
122.795 1426 37.7624
122.912 1322 36.3593
123.028 1264 35.5528
123.144 1210 34.7851
123.26 1108 33.2866
123.377 0 1
123.493 0 1
123.609 0 1
123.725 0 1
123.84 0 1
123.956 0 1
124.072 0 1
124.188 0 1
124.303 0 1
124.419 0 1
126.852 0 1
126.968 0 1
127.083 0 1
127.199 0 1
127.315 0 1
127.431 0 1
127.547 0 1
127.663 0 1
127.779 0 1
127.895 0 1
128.011 0 1
128.127 0 1
128.243 0 1
128.359 1371 37.027
128.476 1240 35.2136
128.592 1249 35.3412
128.708 1254 35.4119
128.825 1283 35.819
128.941 1409 37.5366
129.058 1418 37.6563
129.174 1438 37.921
129.291 1404 37.47
129.408 1307 36.1525
129.524 1402 37.4433
129.641 1363 36.9188
129.758 1415 37.6165
129.875 1363 36.9188
129.992 1323 36.3731
130.108 1526 39.064
130.225 1518 38.9615
130.342 1619 40.2368
130.459 1664 40.7922
130.576 1639 40.4846
130.693 1646 40.5709
130.81 1711 41.3642
130.928 1630 40.3733
131.045 1728 41.5692
131.162 1724 41.5211
131.279 1746 41.7852
131.396 1723 41.509
131.513 1595 39.9375
131.631 1542 39.2683
131.748 1483 38.5097
131.865 1488 38.5746
131.983 1320 36.3318
132.1 1290 35.9166
132.217 1316 36.2767
132.335 1326 36.4143
132.452 1394 37.3363
132.57 1401 37.4299
132.687 1467 38.3014
132.804 1395 37.3497
132.922 1367 36.973
133.039 1413 37.5899
133.157 1378 37.1214
133.274 1410 37.55
133.392 1424 37.7359
133.509 1485 38.5357
133.627 1428 37.7889
133.744 1484 38.5227
133.862 1509 38.8458
133.979 1616 40.1995
134.097 1623 40.2865
134.214 1589 39.8623
134.332 1661 40.7554
134.449 1639 40.4846
134.567 1684 41.0366
134.684 1630 40.3733
134.802 1675 40.9268
134.919 1652 40.6448
135.037 1573 39.6611
135.154 1578 39.724
135.272 1564 39.5474
135.389 1462 38.2361
135.507 1411 37.5633
135.624 1304 36.1109
135.742 1325 36.4005
135.859 1382 37.1753
135.977 1411 37.5633
136.094 1445 38.0132
136.211 1456 38.1576
136.329 1434 37.8682
136.446 1425 37.7492
136.564 1436 37.8946
136.681 1377 37.108
136.798 1397 37.3765
136.915 1418 37.6563
137.033 1324 36.3868
137.15 1443 37.9868
137.267 1462 38.2361
137.384 1455 38.1445
137.502 1577 39.7115
137.619 1603 40.0375
137.736 1582 39.7744
137.853 1594 39.9249
137.97 1662 40.7676
138.087 1576 39.6989
138.204 1700 41.2311
138.321 1661 40.7554
138.438 1667 40.8289
138.555 1687 41.0731
138.672 1647 40.5832
138.788 1686 41.0609
138.905 1643 40.5339
139.022 1470 38.3406
139.139 1422 37.7094
139.255 1364 36.9324
139.372 1332 36.4966
139.488 1353 36.7831
139.605 1410 37.55
139.721 1522 39.0128
139.838 1500 38.7298
139.954 1432 37.8418
140.071 1437 37.9078
140.187 1433 37.855
140.303 1389 37.2693
140.419 1394 37.3363
140.535 1339 36.5923
140.652 1327 36.428
140.768 0 1
140.884 0 1
141 0 1
141.115 0 1
141.231 0 1
141.347 0 1
141.463 0 1
141.578 0 1
141.694 0 1
144.104 0 1
144.219 0 1
144.335 0 1
144.45 0 1
144.566 0 1
144.682 0 1
144.798 0 1
144.914 0 1
145.03 0 1
145.146 1008 31.749
145.262 1133 33.6601
145.378 1106 33.2566
145.494 1126 33.5559
145.61 1126 33.5559
145.726 1134 33.6749
145.842 1078 32.8329
145.959 1181 34.3657
146.075 1183 34.3948
146.192 1233 35.1141
146.308 1274 35.6931
146.425 1237 35.171
146.541 1214 34.8425
146.658 1245 35.2846
146.774 1231 35.0856
146.891 1315 36.2629
147.008 1296 36
147.125 1236 35.1568
147.241 1348 36.7151
147.358 1330 36.4692
147.475 1357 36.8375
147.592 1383 37.1887
147.709 1321 36.3456
147.826 1221 34.9428
147.943 1242 35.242
148.06 1089 33
148.177 1100 33.1662
148.294 1076 32.8024
148.411 1152 33.9411
148.528 1174 34.2637
148.645 1226 35.0143
148.762 1237 35.171
148.88 1268 35.609
148.997 1167 34.1614
149.114 1208 34.7563
149.231 1236 35.1568
149.349 1200 34.641
149.466 1166 34.1467
149.583 1213 34.8281
149.701 1180 34.3511
149.818 1280 35.7771
149.935 1260 35.4965
150.053 1242 35.242
150.17 1304 36.1109
150.287 1287 35.8748
150.405 1236 35.1568
150.522 1307 36.1525
150.64 1340 36.606
150.757 1353 36.7831
150.875 1334 36.524
150.992 1345 36.6742
151.11 1395 37.3497
151.227 1389 37.2693
151.344 1382 37.1753
151.462 1346 36.6879
151.579 1339 36.5923
151.697 1278 35.7491
151.814 1184 34.4093
151.932 1072 32.7414
152.049 1148 33.8821
152.167 1202 34.6699
152.284 1238 35.1852
152.402 1380 37.1484
152.519 1259 35.4824
152.636 1267 35.5949
152.754 1324 36.3868
152.871 1205 34.7131
152.989 1257 35.4542
153.106 1285 35.8469
153.223 1260 35.4965
153.341 1312 36.2215
153.458 1295 35.9861
153.575 1300 36.0555
153.693 1354 36.7967
153.81 1369 37
153.927 1362 36.9053
154.044 1362 36.9053
154.162 1385 37.2156
154.279 1409 37.5366
154.396 1444 38
154.513 1438 37.921
154.63 1450 38.0789
154.747 1491 38.6135
154.864 1544 39.2938
154.981 1475 38.4057
155.098 1421 37.6962
155.215 1491 38.6135
155.332 1329 36.4555
155.449 1216 34.8712
155.566 1290 35.9166
155.683 1341 36.6197
155.8 1416 37.6298
155.917 1386 37.229
156.033 1432 37.8418
156.15 0 1
156.267 0 1
156.383 0 1
156.5 0 1
156.617 0 1
156.733 0 1
156.85 0 1
156.966 0 1
157.082 0 1
157.199 0 1
157.315 0 1
157.431 0 1
157.547 0 1
157.664 0 1
157.78 0 1
157.896 0 1
158.012 0 1
158.128 0 1
158.244 0 1
158.359 0 1
158.475 0 1
158.591 0 1
158.706 0 1
