
6.15755 0 1
6.2731 0 1
6.3887 0 1
6.50437 0 1
6.62009 0 1
6.73587 0 1
6.8517 0 1
6.96759 0 1
7.08353 0 1
7.19952 0 1
7.31557 0 1
7.43166 0 1
7.54781 0 1
7.664 0 1
7.78024 0 1
7.89653 0 1
8.01286 0 1
8.12924 0 1
8.24567 0 1
8.36213 0 1
8.47864 0 1
8.59519 0 1
8.71178 0 1
8.82841 0 1
8.94508 0 1
9.06179 0 1
9.17853 0 1
9.29531 0 1
9.41212 0 1
9.52897 0 1
9.64584 0 1
9.76276 0 1
9.8797 0 1
9.99667 0 1
10.1137 0 1
10.2307 0 1
10.3478 0 1
10.4648 0 1
10.5819 0 1
10.6991 0 1
10.8162 0 1
10.9334 0 1
11.0506 0 1
11.1678 0 1
11.285 0 1
11.4023 0 1
11.5196 0 1
11.6369 0 1
11.7542 0 1
11.8715 0 1
11.9888 0 1
12.1062 0 1
12.2235 0 1
12.3409 0 1
12.4582 0 1
12.5756 0 1
12.693 0 1
12.8104 0 1
12.9278 0 1
13.0452 0 1
13.1626 0 1
13.28 0 1
13.3974 0 1
13.5149 0 1
13.6323 0 1
13.7497 0 1
13.8671 0 1
13.9845 0 1
14.1019 0 1
14.2193 0 1
14.3367 0 1
14.4541 0 1
14.5714 0 1
14.6888 0 1
14.8062 0 1
14.9235 0 1
15.0408 3401 58.3181
15.1581 3656 60.4649
15.2755 3722 61.0082
15.3927 3810 61.7252
15.51 3682 60.6795
15.6273 3787 61.5386
15.7445 3825 61.8466
15.8617 3850 62.0484
15.9789 3748 61.2209
16.0961 3938 62.7535
16.2132 3877 62.2656
16.3304 4118 64.1716
16.4475 4209 64.8768
16.5646 4209 64.8768
16.6816 4335 65.8407
16.7986 4341 65.8863
16.9156 4645 68.1542
17.0326 4836 69.5414
17.1496 4981 70.5762
17.2665 4962 70.4415
17.3833 4833 69.5198
17.5002 5016 70.8237
17.617 5097 71.3933
17.7338 4859 69.7065
17.8505 4775 69.1014
17.9672 4658 68.2495
18.0839 4578 67.6609
18.2005 4707 68.6076
18.3171 4720 68.7023
18.4337 5039 70.9859
18.5502 5296 72.7736
18.6666 5267 72.5741
18.7831 5416 73.5935
18.8994 5251 72.4638
19.0158 5178 71.9583
19.1321 5085 71.3092
19.2483 4918 70.1285
19.3645 4946 70.3278
19.4806 4920 70.1427
19.5967 4671 68.3447
19.7128 4653 68.2129
19.8288 4640 68.1175
19.9447 4232 65.0538
20.0606 0 1
20.1764 0 1
20.2922 0 1
20.4079 0 1
20.5236 0 1
20.6392 0 1
20.7548 0 1
20.8702 0 1
23.3078 0 1
23.4233 0 1
23.539 0 1
23.6547 0 1
23.7704 0 1
23.8862 0 1
24.0021 0 1
24.118 0 1
24.234 0 1
24.35 0 1
24.4661 4992 70.6541
24.5822 4955 70.3918
24.6984 4982 70.5833
24.8146 4901 70.0071
24.9309 4832 69.5126
25.0472 4954 70.3847
25.1636 5017 70.8308
25.28 5087 71.3232
25.3965 5181 71.9792
25.513 5328 72.9932
25.6296 5551 74.505
25.7462 5608 74.8866
25.8628 5678 75.3525
25.9795 5652 75.1798
26.0962 5577 74.6793
26.213 5671 75.306
26.3298 5529 74.3572
26.4466 5172 71.9166
26.5635 5050 71.0634
26.6804 4894 69.9571
26.7973 4996 70.6824
26.9143 5314 72.8972
27.0313 5454 73.8512
27.1483 5645 75.1332
27.2653 5670 75.2994
27.3824 5783 76.046
27.4996 5686 75.4056
27.6167 5361 73.2189
27.7339 5400 73.4847
27.8511 5336 73.0479
27.9683 5126 71.5961
28.0855 5143 71.7147
28.2028 5029 70.9154
28.3201 5045 71.0282
28.4374 4870 69.7854
28.5547 4897 69.9786
28.6721 4966 70.4699
28.7894 4985 70.6045
28.9068 5149 71.7565
29.0242 5347 73.1232
29.1416 5246 72.4293
29.259 5599 74.8265
29.3764 5510 74.2294
29.4939 5591 74.773
29.6113 5576 74.6726
29.7288 5459 73.885
29.8463 5423 73.641
29.9638 4996 70.6824
30.0812 4790 69.2098
30.1987 4786 69.1809
30.3162 4672 68.352
30.4337 4899 69.9929
30.5512 5317 72.9178
30.6687 5301 72.808
30.7862 5366 73.253
30.9037 5400 73.4847
31.0212 5412 73.5663
31.1387 5292 72.7461
31.2562 5456 73.8647
31.3737 5288 72.7186
31.4912 5107 71.4633
31.6087 5017 70.8308
31.7262 4844 69.5989
31.8436 4879 69.8498
31.9611 4934 70.2424
32.0785 4751 68.9275
32.1959 4805 69.3181
32.3134 4909 70.0643
32.4308 4977 70.5479
32.5482 5006 70.7531
32.6655 5240 72.3878
32.7829 5358 73.1984
32.9002 5591 74.773
33.0176 5330 73.0068
33.1349 5544 74.458
33.2522 5462 73.9053
33.3694 5429 73.6817
33.4867 5329 73
33.6039 4890 69.9285
33.7211 4568 67.587
33.8383 4531 67.3127
33.9554 4354 65.9848
34.0725 4667 68.3154
34.1896 4931 70.2211
34.3067 5023 70.8731
34.4237 5149 71.7565
34.5407 5134 71.6519
34.6577 5155 71.7983
34.7746 5167 71.8818
34.8915 5021 70.859
35.0084 5092 71.3583
35.1252 4959 70.4202
35.242 4926 70.1855
35.3587 4783 69.1592
35.4755 4828 69.4838
35.5921 4790 69.2098
35.7088 4534 67.335
35.8254 4625 68.0074
35.9419 4626 68.0147
36.0584 4755 68.9565
36.1749 4865 69.7496
36.2913 4991 70.647
36.4077 5003 70.7319
36.524 5192 72.0555
36.6403 5244 72.4155
36.7565 5200 72.111
36.8727 5273 72.6154
36.9889 5176 71.9444
37.1049 5003 70.7319
37.221 0 1
37.3369 0 1
37.4529 0 1
37.5687 0 1
37.6845 0 1
37.8003 0 1
37.916 0 1
38.0316 0 1
38.1472 0 1
40.5851 0 1
40.7008 0 1
40.8164 0 1
40.9322 0 1
41.048 0 1
41.1639 0 1
41.2798 0 1
41.3958 0 1
41.5118 0 1
41.6279 0 1
41.744 3952 62.8649
41.8602 4122 64.2028
41.9765 4359 66.0227
42.0928 4331 65.8103
42.2091 4324 65.7571
42.3255 4161 64.5058
42.4419 3815 61.7657
42.5584 3588 59.8999
42.675 3455 58.7792
42.7915 3499 59.1523
42.9081 3662 60.5145
43.0248 3864 62.1611
43.1415 3855 62.0886
43.2582 3873 62.2334
43.375 4059 63.7103
43.4918 3964 62.9603
43.6087 4104 64.0625
43.7256 3962 62.9444
43.8425 4018 63.3877
43.9595 3832 61.9032
44.0765 3665 60.5392
44.1935 3708 60.8933
44.3106 3572 59.7662
44.4277 3551 59.5903
44.5448 3359 57.9569
44.6619 3331 57.7148
44.7791 3278 57.2538
44.8963 3372 58.0689
45.0136 3307 57.5065
45.1308 3514 59.279
45.2481 3402 58.3267
45.3654 3496 59.127
45.4827 3460 58.8218
45.6001 3437 58.6259
45.7174 3553 59.607
45.8348 3317 57.5934
45.9522 3071 55.4166
46.0697 2890 53.7587
46.1871 2678 51.7494
46.3046 2664 51.614
46.422 2599 50.9804
46.5395 2759 52.5262
46.657 3046 55.1906
46.7745 3099 55.6687
46.892 3041 55.1453
47.0096 3104 55.7136
47.1271 3081 55.5068
47.2446 3092 55.6058
47.3622 3086 55.5518
47.4797 3010 54.8635
47.5973 2981 54.5985
47.7149 2909 53.9351
47.8324 2891 53.768
47.95 2727 52.2207
48.0675 2755 52.4881
48.1851 2516 50.1597
48.3027 2601 51
48.4202 2629 51.2738
48.5378 2579 50.7839
48.6554 2785 52.7731
48.7729 2851 53.3948
48.8904 2992 54.6992
49.008 2907 53.9166
49.1255 2889 53.7494
49.243 2825 53.1507
49.3605 2758 52.5167
49.478 2529 50.2892
49.5955 2446 49.4571
49.713 2204 46.9468
49.8304 2181 46.7012
49.9479 2244 47.3709
50.0653 2536 50.3587
50.1827 2697 51.9326
50.3001 2839 53.2823
50.4175 2964 54.4426
50.5348 3074 55.4437
50.6521 3075 55.4527
50.7694 3142 56.0535
50.8867 3165 56.2583
51.004 3209 56.648
51.1212 3219 56.7362
51.2384 3251 57.0175
51.3556 3288 57.3411
51.4727 3280 57.2713
51.5899 3219 56.7362
51.707 3141 56.0446
51.824 3282 57.2887
51.9411 3220 56.745
52.0581 3321 57.6281
52.175 3404 58.3438
52.2919 3656 60.4649
52.4088 3779 61.4736
52.5257 3735 61.1146
52.6425 3842 61.9839
52.7593 3798 61.6279
52.876 3816 61.7738
52.9927 3694 60.7783
53.1094 3287 57.3324
53.226 3221 56.7539
53.3426 2989 54.6717
53.4591 2948 54.2955
53.5756 3193 56.5066
53.692 3320 57.6194
53.8084 3587 59.8916
53.9248 3869 62.2013
54.0411 3844 62
54.1573 3884 62.3217
54.2735 0 1
54.3896 0 1
54.5057 0 1
54.6217 0 1
54.7377 0 1
54.8537 0 1
54.9695 0 1
55.0853 0 1
55.2011 0 1
55.3168 0 1
55.4324 0 1
57.824 0 1
57.9396 0 1
58.0553 0 1
58.1711 0 1
58.2869 0 1
58.4028 0 1
58.5187 0 1
58.6347 0 1
58.7508 0 1
58.8669 0 1
58.983 4248 65.1767
59.0992 4568 67.587
59.2155 4594 67.7791
59.3318 4810 69.3542
59.4482 5086 71.3162
59.5646 4989 70.6329
59.681 5004 70.739
59.7975 5074 71.232
59.9141 4923 70.1641
60.0306 4680 68.4105
60.1473 4729 68.7677
60.2639 4595 67.7864
60.3807 4414 66.4379
60.4974 4287 65.4752
60.6142 4353 65.9773
60.731 4558 67.513
60.8479 4600 67.8233
60.9648 4667 68.3154
61.0818 4917 70.1213
61.1987 4742 68.8622
61.3158 4851 69.6491
61.4328 4669 68.3301
61.5499 4488 66.9925
61.667 4177 64.6297
61.7841 3781 61.4898
61.9013 3659 60.4897
62.0185 3451 58.7452
62.1357 3685 60.7042
62.253 3959 62.9206
62.3702 3927 62.6658
62.4875 4492 67.0224
62.6049 4386 66.2269
62.7222 4604 67.8528
62.8396 4784 69.1665
62.9569 4821 69.4334
63.0743 4724 68.7314
63.1918 4833 69.5198
63.3092 4790 69.2098
63.4267 4677 68.3886
63.5441 4706 68.6003
63.6616 4598 67.8086
63.7791 4410 66.4078
63.8966 4221 64.9692
64.0142 3975 63.0476
64.1317 4016 63.3719
64.2492 4144 64.3739
64.3668 4254 65.2227
64.4843 4497 67.0597
64.6019 4597 67.8012
64.7195 4586 67.72
64.837 4541 67.3869
64.9546 4561 67.5352
65.0722 4446 66.6783
65.1898 3933 62.7136
65.3074 3865 62.1691
65.4249 3566 59.716
65.5425 3403 58.3352
65.6601 3320 57.6194
65.7777 3543 59.5231
65.8952 3851 62.0564
66.0128 4086 63.9218
66.1304 4253 65.215
66.2479 4353 65.9773
66.3655 4539 67.3721
66.483 4658 68.2495
66.6005 4654 68.2202
66.718 4742 68.8622
66.8355 4704 68.5857
66.953 4676 68.3813
67.0705 4638 68.1029
67.1879 4610 67.897
67.3054 4484 66.9627
67.4228 4318 65.7115
67.5402 4068 63.7809
67.6576 3824 61.8385
67.7749 3856 62.0967
67.8923 4068 63.7809
68.0096 4274 65.3758
68.1269 4552 67.4685
68.2442 4529 67.2978
68.3614 4507 67.1342
68.4787 4565 67.5648
68.5958 4704 68.5857
68.713 4481 66.9403
68.8302 4159 64.4903
68.9473 3920 62.6099
69.0643 3676 60.63
69.1814 3409 58.3866
69.2984 3359 57.9569
69.4154 3575 59.7913
69.5323 3765 61.3596
69.6492 4225 65
69.7661 4307 65.6277
69.8829 4524 67.2607
69.9997 4721 68.7095
70.1165 4963 70.4486
70.2332 5017 70.8308
70.3499 5054 71.0915
70.4665 5012 70.7955
70.5831 4946 70.3278
70.6996 4981 70.5762
70.8161 4970 70.4982
70.9326 4820 69.4262
71.049 4516 67.2012
71.1653 4464 66.8132
71.2817 4139 64.3351
71.3979 3873 62.2334
71.5141 3954 62.8808
71.6303 3944 62.8013
71.7464 3940 62.7694
71.8624 0 1
71.9784 0 1
72.0944 0 1
72.2102 0 1
72.3261 0 1
72.4418 0 1
72.5575 0 1
72.6732 0 1
75.1054 0 1
75.2209 0 1
75.3365 0 1
75.4521 0 1
75.5678 0 1
75.6835 0 1
75.7993 0 1
75.9151 0 1
76.031 0 1
76.147 4208 64.8691
76.263 4403 66.3551
76.3791 4252 65.2074
76.4952 4099 64.0234
76.6113 3954 62.8808
76.7276 4190 64.7302
76.8438 4525 67.2681
76.9601 4703 68.5784
77.0765 4795 69.2459
77.1929 4850 69.6419
77.3093 4834 69.527
77.4258 4756 68.9638
77.5423 4682 68.4251
77.6589 4249 65.1844
77.7755 3958 62.9126
77.8921 3542 59.5147
78.0088 3417 58.4551
78.1256 3267 57.1577
78.2423 3370 58.0517
78.3591 3723 61.0164
78.4759 4006 63.293
78.5928 4267 65.3223
78.7097 4477 66.9104
78.8266 4560 67.5278
78.9436 5044 71.0211
79.0606 5057 71.1126
79.1776 4924 70.1712
79.2946 4941 70.2922
79.4117 5054 71.0915
79.5288 4981 70.5762
79.6459 4867 69.7639
79.7631 4649 68.1836
79.8802 4591 67.7569
79.9974 4220 64.9615
80.1147 4024 63.435
80.2319 3968 62.9921
80.3491 4197 64.7843
80.4664 4530 67.3053
80.5837 4703 68.5784
80.701 4777 69.1158
80.8183 4740 68.8477
80.9357 4654 68.2202
81.053 4717 68.6804
81.1704 4701 68.5638
81.2877 4348 65.9394
81.4051 4014 63.3561
81.5225 3723 61.0164
81.6399 3353 57.9051
81.7573 3305 57.4891
81.8747 3287 57.3324
81.9922 3552 59.5987
82.1096 4060 63.7181
82.227 4216 64.9307
82.3444 4498 67.0671
82.4619 4624 68
82.5793 4742 68.8622
82.6967 4821 69.4334
82.8142 5027 70.9013
82.9316 4894 69.9571
83.049 4883 69.8785
83.1664 4952 70.3704
83.2838 4815 69.3902
83.4012 4636 68.0882
83.5186 4430 66.5582
83.636 4288 65.4828
83.7534 3990 63.1664
83.8708 3898 62.434
83.9881 4064 63.7495
84.1055 4417 66.4605
84.2228 4736 68.8186
84.3401 4924 70.1712
84.4575 4864 69.7424
84.5747 4907 70.05
84.692 4735 68.8113
84.8093 4537 67.3573
84.9265 4045 63.6003
85.0437 3713 60.9344
85.1609 3497 59.1354
85.2781 3420 58.4808
85.3952 3390 58.2237
85.5123 3479 58.983
85.6294 3892 62.3859
85.7465 4269 65.3376
85.8636 4569 67.5944
85.9806 4593 67.7717
86.0976 4925 70.1783
86.2145 4963 70.4486
86.3315 5093 71.3653
86.4484 5224 72.2772
86.5652 5159 71.8262
86.682 5153 71.7844
86.7988 5099 71.4073
86.9156 5074 71.232
87.0323 5049 71.0563
87.149 4568 67.587
87.2657 4339 65.8711
87.3823 4194 64.7611
87.4988 4333 65.8255
87.6154 4633 68.0661
87.7318 4903 70.0214
87.8483 5226 72.2911
87.9647 5146 71.7356
88.081 5119 71.5472
88.1973 5133 71.645
88.3136 4891 69.9357
88.4298 4531 67.3127
88.546 4212 64.8999
88.6621 3834 61.9193
88.7781 3618 60.1498
88.8942 0 1
89.0101 0 1
89.126 0 1
89.2419 0 1
89.3577 0 1
89.4734 0 1
89.5891 0 1
89.7047 0 1
89.8203 0 1
89.9358 0 1
92.3269 0 1
92.4424 0 1
92.558 0 1
92.6736 0 1
92.7893 0 1
92.905 0 1
93.0208 0 1
93.1366 0 1
93.2525 0 1
93.3685 0 1
93.4845 0 1
93.6005 4271 65.3529
93.7167 4060 63.7181
93.8328 3904 62.482
93.949 3701 60.8358
94.0653 3507 59.2199
94.1816 3608 60.0666
94.2979 3738 61.1392
94.4143 3848 62.0322
94.5307 4209 64.8768
94.6472 4443 66.6558
94.7637 4748 68.9057
94.8803 4800 69.282
94.9969 4940 70.2851
95.1135 5124 71.5821
95.2302 5128 71.6101
95.3469 4988 70.6258
95.4637 5264 72.5534
95.5805 5327 72.9863
95.6973 5132 71.638
95.8142 5204 72.1388
95.9311 5084 71.3022
96.048 4760 68.9928
96.1649 4760 68.9928
96.2819 4445 66.6708
96.3989 4276 65.3911
96.516 4490 67.0075
96.633 4773 69.0869
96.7501 4983 70.5904
96.8673 5045 71.0282
96.9844 5064 71.1618
97.1016 5043 71.0141
97.2188 4947 70.3349
97.336 4612 67.9117
97.4532 4418 66.468
97.5704 3966 62.9762
97.6877 3863 62.153
97.805 3737 61.131
97.9223 3616 60.1332
98.0396 3553 59.607
98.1569 3930 62.6897
98.2743 4323 65.7495
98.3916 4401 66.34
98.509 4645 68.1542
98.6264 4875 69.8212
98.7438 4939 70.278
98.8612 5021 70.859
98.9786 5075 71.239
99.096 5155 71.7983
99.2134 5137 71.6729
99.3308 5227 72.298
99.4482 5126 71.5961
99.5656 5070 71.2039
99.6831 4833 69.5198
99.8005 4527 67.283
99.9179 4258 65.2534
100.035 4238 65.0999
100.153 4492 67.0224
100.27 4787 69.1881
100.388 4991 70.647
100.505 4915 70.1071
100.622 5050 71.0634
100.74 5079 71.2671
100.857 4753 68.942
100.975 4622 67.9853
101.092 4136 64.3117
101.209 3990 63.1664
101.327 3661 60.5062
101.444 3658 60.4814
101.561 3580 59.8331
101.679 3751 61.2454
101.796 4035 63.5216
101.913 4466 66.8281
102.03 4684 68.4398
102.148 4855 69.6778
102.265 4574 67.6314
102.382 5530 74.364
102.499 5290 72.7324
102.616 5401 73.4915
102.733 5379 73.3417
102.851 5497 74.1418
102.968 5604 74.8599
103.085 5447 73.8038
103.202 5143 71.7147
103.319 5008 70.7672
103.436 4745 68.884
103.552 4668 68.3228
103.669 4728 68.7605
103.786 5377 73.328
103.903 5417 73.6003
104.02 5430 73.6885
104.137 5607 74.8799
104.253 5363 73.2325
104.37 5170 71.9027
104.487 4721 68.7095
104.603 4491 67.0149
104.72 4151 64.4283
104.836 4141 64.3506
104.953 3849 62.0403
105.069 3994 63.1981
105.186 4140 64.3428
105.302 4632 68.0588
105.418 4937 70.2638
105.535 5163 71.854
105.651 5301 72.808
105.767 5588 74.7529
105.883 5455 73.858
105.999 5635 75.0666
106.115 0 1
106.231 0 1
106.347 0 1
106.463 0 1
106.579 0 1
106.694 0 1
106.81 0 1
106.926 0 1
107.041 0 1
107.157 0 1
109.576 0 1
109.692 0 1
109.807 0 1
109.923 0 1
110.039 0 1
110.155 0 1
110.27 0 1
110.386 0 1
110.502 0 1
110.618 4506 67.1267
110.735 4674 68.3667
110.851 4745 68.884
110.967 4917 70.1213
111.083 4940 70.2851
111.199 4935 70.2496
111.316 5116 71.5262
111.432 5098 71.4003
111.549 4988 70.6258
111.665 4866 69.7567
111.782 4700 68.5565
111.898 4271 65.3529
112.015 4091 63.9609
112.132 4313 65.6734
112.248 4487 66.9851
112.365 4646 68.1616
112.482 4796 69.2532
112.599 4527 67.283
112.716 4614 67.9264
112.832 4466 66.8281
112.949 4312 65.6658
113.066 3802 61.6604
113.183 3725 61.0328
113.3 3377 58.112
113.417 3176 56.356
113.534 3048 55.2087
113.652 3136 56
113.769 3364 58
113.886 3600 60
114.003 3844 62
114.12 3800 61.6441
114.238 3865 62.1691
114.355 3994 63.1981
114.472 4092 63.9687
114.589 3910 62.53
114.707 3986 63.1348
114.824 3980 63.0872
114.942 3963 62.9524
115.059 3941 62.7774
115.176 3810 61.7252
115.294 3500 59.1608
115.411 3478 58.9746
115.529 3174 56.3383
115.646 3240 56.921
115.764 3291 57.3672
115.881 3479 58.983
115.999 3562 59.6825
116.116 3475 58.9491
116.234 3471 58.9152
116.351 3479 58.983
116.469 3188 56.4624
116.586 2962 54.4243
116.704 2860 53.479
116.821 2679 51.7591
116.939 2567 50.6656
117.056 2500 50
117.174 2395 48.9387
117.291 2611 51.0979
117.409 2834 53.2353
117.526 2817 53.0754
117.644 3027 55.0182
117.761 2901 53.8609
117.879 3139 56.0268
117.996 3096 55.6417
118.114 3201 56.5774
118.231 3328 57.6888
118.349 3326 57.6715
118.466 3243 56.9473
118.584 3271 57.1927
118.701 3380 58.1378
118.819 3273 57.2101
118.936 3072 55.4256
119.053 3066 55.3715
119.171 2920 54.037
119.288 2845 53.3385
119.405 3117 55.8301
119.523 3278 57.2538
119.64 3346 57.8446
119.757 3359 57.9569
119.875 3386 58.1893
119.992 3346 57.8446
120.109 3164 56.2494
120.226 3085 55.5428
120.343 2902 53.8702
120.46 2847 53.3573
120.578 2684 51.8073
120.695 2740 52.345
120.812 2618 51.1664
120.929 2699 51.9519
121.046 2864 53.5164
121.163 2930 54.1295
121.279 3153 56.1516
121.396 3309 57.5239
121.513 3457 58.7963
121.63 3559 59.6574
121.747 3519 59.3212
121.863 3520 59.3296
121.98 3796 61.6117
122.097 3821 61.8142
122.213 3816 61.7738
122.33 3812 61.7414
122.446 3763 61.3433
122.563 3889 62.3618
122.679 3715 60.9508
122.795 3559 59.6574
122.912 3535 59.4559
123.028 3578 59.8164
123.144 3759 61.3107
123.26 3929 62.6817
123.377 0 1
123.493 0 1
123.609 0 1
123.725 0 1
123.84 0 1
123.956 0 1
124.072 0 1
124.188 0 1
124.303 0 1
124.419 0 1
126.852 0 1
126.968 0 1
127.083 0 1
127.199 0 1
127.315 0 1
127.431 0 1
127.547 0 1
127.663 0 1
127.779 0 1
127.895 0 1
128.011 0 1
128.127 0 1
128.243 0 1
128.359 4199 64.7997
128.476 4373 66.1287
128.592 4597 67.8012
128.708 4668 68.3228
128.825 4790 69.2098
128.941 4592 67.7643
129.058 4606 67.8675
129.174 4313 65.6734
129.291 4233 65.0615
129.408 3863 62.153
129.524 3823 61.8304
129.641 3667 60.5558
129.758 3533 59.439
129.875 3463 58.8473
129.992 3537 59.4727
130.108 3597 59.975
130.225 3804 61.6766
130.342 3845 62.0081
130.459 3972 63.0238
130.576 3819 61.7981
130.693 3939 62.7615
130.81 4081 63.8827
130.928 4089 63.9453
131.045 4191 64.7379
131.162 4222 64.9769
131.279 4238 65.0999
131.396 4233 65.0615
131.513 4192 64.7457
131.631 3914 62.562
131.748 3794 61.5955
131.865 3644 60.3656
131.983 3926 62.6578
132.1 4041 63.5689
132.217 4041 63.5689
132.335 4114 64.1405
132.452 4134 64.2962
132.57 3951 62.857
132.687 3738 61.1392
132.804 3689 60.7371
132.922 3512 59.2621
133.039 3377 58.112
133.157 3299 57.4369
133.274 3213 56.6833
133.392 3063 55.3444
133.509 2973 54.5252
133.627 3058 55.2992
133.744 3096 55.6417
133.862 3260 57.0964
133.979 3255 57.0526
134.097 3324 57.6541
134.214 3431 58.5747
134.332 3186 56.4447
134.449 3375 58.0948
134.567 3223 56.7715
134.684 3464 58.8558
134.802 3358 57.9483
134.919 3214 56.6922
135.037 3249 57
135.154 3183 56.4181
135.272 3045 55.1815
135.389 2863 53.507
135.507 2973 54.5252
135.624 3171 56.3116
135.742 3167 56.2761
135.859 3170 56.3028
135.977 3139 56.0268
136.094 3031 55.0545
136.211 2969 54.4885
136.329 2837 53.2635
136.446 2800 52.915
136.564 2565 50.6458
136.681 2441 49.4065
136.798 2434 49.3356
136.915 2284 47.7912
137.033 2313 48.0937
137.15 2388 48.8672
137.267 2372 48.7032
137.384 2493 49.93
137.502 2539 50.3885
137.619 2628 51.264
137.736 2638 51.3615
137.853 2573 50.7247
137.97 2812 53.0283
138.087 2755 52.4881
138.204 2802 52.9339
138.321 2884 53.7029
138.438 2862 53.4977
138.555 3072 55.4256
138.672 2847 53.3573
138.788 2998 54.754
138.905 2984 54.626
139.022 2855 53.4322
139.139 2923 54.0648
139.255 3108 55.7494
139.372 3310 57.5326
139.488 3320 57.6194
139.605 3391 58.2323
139.721 3393 58.2495
139.838 3439 58.643
139.954 3247 56.9825
140.071 3116 55.8211
140.187 3037 55.109
140.303 3026 55.0091
140.419 2921 54.0463
140.535 2979 54.5802
140.652 2851 53.3948
140.768 0 1
140.884 0 1
141 0 1
141.115 0 1
141.231 0 1
141.347 0 1
141.463 0 1
141.578 0 1
141.694 0 1
144.104 0 1
144.219 0 1
144.335 0 1
144.45 0 1
144.566 0 1
144.682 0 1
144.798 0 1
144.914 0 1
145.03 0 1
145.146 2721 52.1632
145.262 2660 51.5752
145.378 2643 51.4101
145.494 2547 50.4678
145.61 2431 49.3052
145.726 2343 48.4045
145.842 2264 47.5815
145.959 2345 48.4252
146.075 2333 48.3011
146.192 2386 48.8467
146.308 2424 49.2341
146.425 2435 49.3457
146.541 2438 49.3761
146.658 2466 49.6588
146.774 2473 49.7293
146.891 2267 47.613
147.008 2334 48.3115
147.125 2461 49.6085
147.241 2461 49.6085
147.358 2480 49.7996
147.475 2508 50.0799
147.592 2263 47.571
147.709 2274 47.6865
147.826 2243 47.3603
147.943 2325 48.2183
148.06 2339 48.3632
148.177 2432 49.3153
148.294 2291 47.8644
148.411 2374 48.7237
148.528 2303 47.9896
148.645 2153 46.4004
148.762 2193 46.8295
148.88 1988 44.587
148.997 2028 45.0333
149.114 1820 42.6615
149.231 1903 43.6234
149.349 1757 41.9166
149.466 1779 42.1782
149.583 1847 42.9767
149.701 1808 42.5206
149.818 1787 42.2729
149.935 1908 43.6807
150.053 1857 43.0929
150.17 1983 44.5309
150.287 1908 43.6807
150.405 2030 45.0555
150.522 2078 45.5851
150.64 2110 45.9347
150.757 2088 45.6946
150.875 2110 45.9347
150.992 2135 46.2061
151.11 2127 46.1194
151.227 1980 44.4972
151.344 1957 44.238
151.462 2022 44.9667
151.579 2003 44.7549
151.697 2184 46.7333
151.814 2205 46.9574
151.932 2265 47.592
152.049 2183 46.7226
152.167 2323 48.1975
152.284 2285 47.8017
152.402 2181 46.7012
152.519 2071 45.5082
152.636 2050 45.2769
152.754 2018 44.9222
152.871 2030 45.0555
152.989 1990 44.6094
153.106 1981 44.5084
153.223 1932 43.9545
153.341 2003 44.7549
153.458 2122 46.0652
153.575 2133 46.1844
153.693 2133 46.1844
153.81 2190 46.7974
153.927 2265 47.592
154.044 2307 48.0312
154.162 2304 48
154.279 2354 48.518
154.396 2465 49.6488
154.513 2477 49.7695
154.63 2501 50.01
154.747 2574 50.7346
154.864 2413 49.1223
154.981 2459 49.5883
155.098 2569 50.6853
155.215 2668 51.6527
155.332 2640 51.3809
155.449 2643 51.4101
155.566 2742 52.3641
155.683 2808 52.9906
155.8 2722 52.1728
155.917 2684 51.8073
156.033 2692 51.8845
156.15 0 1
156.267 0 1
156.383 0 1
156.5 0 1
156.617 0 1
156.733 0 1
156.85 0 1
156.966 0 1
157.082 0 1
157.199 0 1
157.315 0 1
157.431 0 1
157.547 0 1
157.664 0 1
157.78 0 1
157.896 0 1
158.012 0 1
158.128 0 1
158.244 0 1
158.359 0 1
158.475 0 1
158.591 0 1
158.706 0 1
