
6.15755 0 1
6.2731 0 1
6.3887 0 1
6.50437 0 1
6.62009 0 1
6.73587 0 1
6.8517 0 1
6.96759 0 1
7.08353 0 1
7.19952 0 1
7.31557 0 1
7.43166 0 1
7.54781 0 1
7.664 0 1
7.78024 0 1
7.89653 0 1
8.01286 0 1
8.12924 0 1
8.24567 0 1
8.36213 0 1
8.47864 0 1
8.59519 0 1
8.71178 0 1
8.82841 0 1
8.94508 0 1
9.06179 0 1
9.17853 0 1
9.29531 0 1
9.41212 0 1
9.52897 0 1
9.64584 0 1
9.76276 0 1
9.8797 0 1
9.99667 0 1
10.1137 0 1
10.2307 0 1
10.3478 0 1
10.4648 0 1
10.5819 0 1
10.6991 0 1
10.8162 0 1
10.9334 0 1
11.0506 0 1
11.1678 0 1
11.285 0 1
11.4023 0 1
11.5196 0 1
11.6369 0 1
11.7542 0 1
11.8715 0 1
11.9888 0 1
12.1062 0 1
12.2235 0 1
12.3409 0 1
12.4582 0 1
12.5756 0 1
12.693 0 1
12.8104 0 1
12.9278 0 1
13.0452 0 1
13.1626 0 1
13.28 0 1
13.3974 0 1
13.5149 0 1
13.6323 0 1
13.7497 0 1
13.8671 0 1
13.9845 0 1
14.1019 0 1
14.2193 0 1
14.3367 0 1
14.4541 0 1
14.5714 0 1
14.6888 0 1
14.8062 0 1
14.9235 0 1
15.0408 1757 41.9166
15.1581 1798 42.4028
15.2755 1958 44.2493
15.3927 1975 44.441
15.51 1904 43.6348
15.6273 1983 44.5309
15.7445 2027 45.0222
15.8617 1901 43.6005
15.9789 1947 44.1248
16.0961 1928 43.909
16.2132 1928 43.909
16.3304 1912 43.7264
16.4475 1998 44.699
16.5646 2116 46
16.6816 2196 46.8615
16.7986 2320 48.1664
16.9156 2279 47.7389
17.0326 2196 46.8615
17.1496 2357 48.5489
17.2665 2264 47.5815
17.3833 2352 48.4974
17.5002 2169 46.5725
17.617 2153 46.4004
17.7338 2058 45.3652
17.8505 2008 44.8107
17.9672 2008 44.8107
18.0839 1912 43.7264
18.2005 2057 45.3542
18.3171 2032 45.0777
18.4337 2054 45.3211
18.5502 2162 46.4973
18.6666 2078 45.5851
18.7831 2212 47.0319
18.8994 2213 47.0425
19.0158 2160 46.4758
19.1321 2207 46.9787
19.2483 2021 44.9555
19.3645 1979 44.486
19.4806 1841 42.9069
19.5967 1662 40.7676
19.7128 1554 39.4208
19.8288 1525 39.0512
19.9447 1388 37.2559
20.0606 0 1
20.1764 0 1
20.2922 0 1
20.4079 0 1
20.5236 0 1
20.6392 0 1
20.7548 0 1
20.8702 0 1
23.3078 0 1
23.4233 0 1
23.539 0 1
23.6547 0 1
23.7704 0 1
23.8862 0 1
24.0021 0 1
24.118 0 1
24.234 0 1
24.35 0 1
24.4661 896 29.9333
24.5822 1150 33.9116
24.6984 1200 34.641
24.8146 1363 36.9188
24.9309 1488 38.5746
25.0472 1593 39.9124
25.1636 1682 41.0122
25.28 1952 44.1814
25.3965 2072 45.5192
25.513 2205 46.9574
25.6296 2314 48.1041
25.7462 2300 47.9583
25.8628 2364 48.621
25.9795 2482 49.8197
26.0962 2446 49.4571
26.213 2381 48.7955
26.3298 2209 47
26.4466 2137 46.2277
26.5635 2022 44.9667
26.6804 2078 45.5851
26.7973 2096 45.7821
26.9143 2067 45.4643
27.0313 2104 45.8694
27.1483 2302 47.9792
27.2653 2297 47.927
27.3824 2333 48.3011
27.4996 2317 48.1352
27.6167 2343 48.4045
27.7339 2223 47.1487
27.8511 2197 46.8722
27.9683 2126 46.1086
28.0855 2041 45.1774
28.2028 2062 45.4093
28.3201 1929 43.9204
28.4374 1874 43.2897
28.5547 2017 44.911
28.6721 2085 45.6618
28.7894 2086 45.6727
28.9068 2152 46.3897
29.0242 2442 49.4166
29.1416 2349 48.4665
29.259 2338 48.3529
29.3764 2391 48.8979
29.4939 2312 48.0833
29.6113 2331 48.2804
29.7288 2235 47.2758
29.8463 2118 46.0217
29.9638 2097 45.793
30.0812 1903 43.6234
30.1987 1960 44.2719
30.3162 1997 44.6878
30.4337 2050 45.2769
30.5512 2186 46.7547
30.6687 2186 46.7547
30.7862 2150 46.3681
30.9037 2227 47.1911
31.0212 2216 47.0744
31.1387 2227 47.1911
31.2562 2213 47.0425
31.3737 2232 47.244
31.4912 2148 46.3465
31.6087 2025 45
31.7262 2072 45.5192
31.8436 1907 43.6692
31.9611 1809 42.5323
32.0785 1896 43.5431
32.1959 1985 44.5533
32.3134 2014 44.8776
32.4308 2153 46.4004
32.5482 2272 47.6655
32.6655 2270 47.6445
32.7829 2329 48.2597
32.9002 2263 47.571
33.0176 2321 48.1768
33.1349 2251 47.4447
33.2522 2249 47.4236
33.3694 2174 46.6262
33.4867 2052 45.299
33.6039 1923 43.852
33.7211 1804 42.4735
33.8383 1743 41.7493
33.9554 1926 43.8862
34.0725 1940 44.0454
34.1896 2000 44.7214
34.3067 1998 44.699
34.4237 2082 45.6289
34.5407 2139 46.2493
34.6577 2107 45.9021
34.7746 2212 47.0319
34.8915 2073 45.5302
35.0084 2072 45.5192
35.1252 2004 44.7661
35.242 2047 45.2438
35.3587 2002 44.7437
35.4755 1947 44.1248
35.5921 1908 43.6807
35.7088 1775 42.1307
35.8254 1811 42.5558
35.9419 1890 43.4741
36.0584 1923 43.852
36.1749 1931 43.9431
36.2913 2028 45.0333
36.4077 1957 44.238
36.524 2001 44.7325
36.6403 1852 43.0349
36.7565 1893 43.5086
36.8727 1753 41.8688
36.9889 1679 40.9756
37.1049 1431 37.8286
37.221 0 1
37.3369 0 1
37.4529 0 1
37.5687 0 1
37.6845 0 1
37.8003 0 1
37.916 0 1
38.0316 0 1
38.1472 0 1
40.5851 0 1
40.7008 0 1
40.8164 0 1
40.9322 0 1
41.048 0 1
41.1639 0 1
41.2798 0 1
41.3958 0 1
41.5118 0 1
41.6279 0 1
41.744 1034 32.1559
41.8602 1144 33.8231
41.9765 1161 34.0735
42.0928 1328 36.4417
42.2091 1278 35.7491
42.3255 1241 35.2278
42.4419 1334 36.524
42.5584 1219 34.9142
42.675 1389 37.2693
42.7915 1398 37.3898
42.9081 1531 39.128
43.0248 1586 39.8246
43.1415 1624 40.2989
43.2582 1691 41.1218
43.375 1684 41.0366
43.4918 1718 41.4488
43.6087 1795 42.3674
43.7256 1646 40.5709
43.8425 1701 41.2432
43.9595 1714 41.4005
44.0765 1608 40.0999
44.1935 1614 40.1746
44.3106 1580 39.7492
44.4277 1428 37.7889
44.5448 1390 37.2827
44.6619 1484 38.5227
44.7791 1565 39.5601
44.8963 1623 40.2865
45.0136 1769 42.0595
45.1308 1812 42.5676
45.2481 1747 41.7971
45.3654 1826 42.7317
45.4827 1865 43.1856
45.6001 1757 41.9166
45.7174 1656 40.694
45.8348 1631 40.3856
45.9522 1560 39.4968
46.0697 1484 38.5227
46.1871 1346 36.6879
46.3046 1450 38.0789
46.422 1591 39.8873
46.5395 1678 40.9634
46.657 1729 41.5812
46.7745 1641 40.5093
46.892 1805 42.4853
47.0096 1763 41.9881
47.1271 1864 43.1741
47.2446 1846 42.9651
47.3622 1781 42.2019
47.4797 1773 42.107
47.5973 1742 41.7373
47.7149 1706 41.3038
47.8324 1623 40.2865
47.95 1569 39.6106
48.0675 1482 38.4968
48.1851 1551 39.3827
48.3027 1556 39.4462
48.4202 1673 40.9023
48.5378 1733 41.6293
48.6554 1759 41.9404
48.7729 1765 42.0119
48.8904 1811 42.5558
49.008 1763 41.9881
49.1255 1801 42.4382
49.243 1726 41.5452
49.3605 1520 38.9872
49.478 1600 40
49.5955 1426 37.7624
49.713 1416 37.6298
49.8304 1433 37.855
49.9479 1472 38.3667
50.0653 1564 39.5474
50.1827 1628 40.3485
50.3001 1718 41.4488
50.4175 1658 40.7185
50.5348 1784 42.2374
50.6521 1815 42.6028
50.7694 1767 42.0357
50.8867 1805 42.4853
51.004 1811 42.5558
51.1212 1766 42.0238
51.2384 1734 41.6413
51.3556 1765 42.0119
51.4727 1635 40.4351
51.5899 1530 39.1152
51.707 1557 39.4588
51.824 1719 41.4608
51.9411 1716 41.4246
52.0581 1868 43.2204
52.175 2033 45.0888
52.2919 2135 46.2061
52.4088 2044 45.2106
52.5257 2214 47.0532
52.6425 2229 47.2123
52.7593 2097 45.793
52.876 2195 46.8508
52.9927 2025 45
53.1094 1948 44.1362
53.226 1803 42.4617
53.3426 1871 43.2551
53.4591 1779 42.1782
53.5756 1834 42.8252
53.692 1770 42.0714
53.8084 1825 42.72
53.9248 1772 42.0951
54.0411 1737 41.6773
54.1573 1734 41.6413
54.2735 0 1
54.3896 0 1
54.5057 0 1
54.6217 0 1
54.7377 0 1
54.8537 0 1
54.9695 0 1
55.0853 0 1
55.2011 0 1
55.3168 0 1
55.4324 0 1
57.824 0 1
57.9396 0 1
58.0553 0 1
58.1711 0 1
58.2869 0 1
58.4028 0 1
58.5187 0 1
58.6347 0 1
58.7508 0 1
58.8669 0 1
58.983 1530 39.1152
59.0992 1709 41.3401
59.2155 1684 41.0366
59.3318 1988 44.587
59.4482 1980 44.4972
59.5646 2099 45.8148
59.681 2096 45.7821
59.7975 2164 46.5188
59.9141 2103 45.8585
60.0306 2033 45.0888
60.1473 2087 45.6837
60.2639 1968 44.3621
60.3807 1922 43.8406
60.4974 2002 44.7437
60.6142 2040 45.1664
60.731 2182 46.7119
60.8479 2252 47.4552
60.9648 2287 47.8226
61.0818 2443 49.4267
61.1987 2275 47.697
61.3158 2206 46.9681
61.4328 2138 46.2385
61.5499 2069 45.4863
61.667 1931 43.9431
61.7841 1828 42.7551
61.9013 1692 41.1339
62.0185 1716 41.4246
62.1357 1820 42.6615
62.253 1924 43.8634
62.3702 2039 45.1553
62.4875 2087 45.6837
62.6049 2071 45.5082
62.7222 2191 46.8081
62.8396 2159 46.465
62.9569 2267 47.613
63.0743 2118 46.0217
63.1918 2178 46.669
63.3092 2140 46.2601
63.4267 2108 45.913
63.5441 1974 44.4297
63.6616 1956 44.2267
63.7791 1809 42.5323
63.8966 1862 43.1509
64.0142 1824 42.7083
64.1317 1907 43.6692
64.2492 2007 44.7996
64.3668 2215 47.0638
64.4843 2197 46.8722
64.6019 2223 47.1487
64.7195 2175 46.6369
64.837 2090 45.7165
64.9546 2162 46.4973
65.0722 2002 44.7437
65.1898 1919 43.8064
65.3074 1785 42.2493
65.4249 1765 42.0119
65.5425 1581 39.7618
65.6601 1648 40.5956
65.7777 1811 42.5558
65.8952 1886 43.4281
66.0128 2008 44.8107
66.1304 2125 46.0977
66.2479 2165 46.5296
66.3655 2119 46.0326
66.483 2121 46.0543
66.6005 2163 46.5081
66.718 2140 46.2601
66.8355 2146 46.3249
66.953 2085 45.6618
67.0705 2049 45.2659
67.1879 2005 44.7772
67.3054 1846 42.9651
67.4228 1820 42.6615
67.5402 1773 42.107
67.6576 1737 41.6773
67.7749 1869 43.2319
67.8923 1982 44.5197
68.0096 2061 45.3982
68.1269 2127 46.1194
68.2442 2181 46.7012
68.3614 2153 46.4004
68.4787 2125 46.0977
68.5958 2139 46.2493
68.713 1969 44.3734
68.8302 1911 43.715
68.9473 1792 42.332
69.0643 1572 39.6485
69.1814 1554 39.4208
69.2984 1603 40.0375
69.4154 1681 41
69.5323 1783 42.2256
69.6492 1834 42.8252
69.7661 1971 44.3959
69.8829 2010 44.833
69.9997 2052 45.299
70.1165 1971 44.3959
70.2332 1858 43.1045
70.3499 1879 43.3474
70.4665 1716 41.4246
70.5831 1650 40.6202
70.6996 1606 40.0749
70.8161 1491 38.6135
70.9326 1365 36.9459
71.049 1180 34.3511
71.1653 985 31.3847
71.2817 833 28.8617
71.3979 858 29.2916
71.5141 851 29.1719
71.6303 790 28.1069
71.7464 732 27.0555
71.8624 0 1
71.9784 0 1
72.0944 0 1
72.2102 0 1
72.3261 0 1
72.4418 0 1
72.5575 0 1
72.6732 0 1
75.1054 0 1
75.2209 0 1
75.3365 0 1
75.4521 0 1
75.5678 0 1
75.6835 0 1
75.7993 0 1
75.9151 0 1
76.031 0 1
76.147 1301 36.0694
76.263 1354 36.7967
76.3791 1285 35.8469
76.4952 1384 37.2022
76.6113 1424 37.7359
76.7276 1492 38.6264
76.8438 1559 39.4842
76.9601 1739 41.7013
77.0765 1768 42.0476
77.1929 1848 42.9884
77.3093 1791 42.3202
77.4258 1836 42.8486
77.5423 1736 41.6653
77.6589 1758 41.9285
77.7755 1621 40.2616
77.8921 1471 38.3536
78.0088 1409 37.5366
78.1256 1353 36.7831
78.2423 1238 35.1852
78.3591 1383 37.1887
78.4759 1541 39.2556
78.5928 1579 39.7366
78.7097 1651 40.6325
78.8266 1755 41.8927
78.9436 1722 41.497
79.0606 1813 42.5793
79.1776 1873 43.2782
79.2946 1742 41.7373
79.4117 1834 42.8252
79.5288 1799 42.4146
79.6459 1804 42.4735
79.7631 1727 41.5572
79.8802 1665 40.8044
79.9974 1674 40.9145
80.1147 1499 38.7169
80.2319 1471 38.3536
80.3491 1547 39.3319
80.4664 1651 40.6325
80.5837 1769 42.0595
80.701 1879 43.3474
80.8183 1843 42.9302
80.9357 1922 43.8406
81.053 1927 43.8976
81.1704 1923 43.852
81.2877 1859 43.1161
81.4051 1839 42.8836
81.5225 1686 41.0609
81.6399 1538 39.2173
81.7573 1454 38.1314
81.8747 1369 37
81.9922 1333 36.5103
82.1096 1438 37.921
82.227 1641 40.5093
82.3444 1722 41.497
82.4619 1808 42.5206
82.5793 1837 42.8602
82.6967 1854 43.0581
82.8142 1917 43.7836
82.9316 1930 43.9318
83.049 1894 43.5201
83.1664 1939 44.0341
83.2838 1823 42.6966
83.4012 1859 43.1161
83.5186 1797 42.391
83.636 1682 41.0122
83.7534 1651 40.6325
83.8708 1519 38.9744
83.9881 1525 39.0512
84.1055 1564 39.5474
84.2228 1682 41.0122
84.3401 1799 42.4146
84.4575 1885 43.4166
84.5747 1920 43.8178
84.692 2021 44.9555
84.8093 1994 44.6542
84.9265 1822 42.6849
85.0437 1787 42.2729
85.1609 1630 40.3733
85.2781 1471 38.3536
85.3952 1335 36.5377
85.5123 1285 35.8469
85.6294 1326 36.4143
85.7465 1541 39.2556
85.8636 1645 40.5586
85.9806 1752 41.8569
86.0976 1852 43.0349
86.2145 1838 42.8719
86.3315 1895 43.5316
86.4484 1983 44.5309
86.5652 2057 45.3542
86.682 1912 43.7264
86.7988 1905 43.6463
86.9156 1887 43.4396
87.0323 1839 42.8836
87.149 1783 42.2256
87.2657 1727 41.5572
87.3823 1503 38.7685
87.4988 1392 37.3095
87.6154 1302 36.0832
87.7318 1389 37.2693
87.8483 1435 37.8814
87.9647 1489 38.5876
88.081 1601 40.0125
88.1973 1496 38.6782
88.3136 1545 39.3065
88.4298 1411 37.5633
88.546 1320 36.3318
88.6621 1065 32.6343
88.7781 892 29.8664
88.8942 0 1
89.0101 0 1
89.126 0 1
89.2419 0 1
89.3577 0 1
89.4734 0 1
89.5891 0 1
89.7047 0 1
89.8203 0 1
89.9358 0 1
92.3269 0 1
92.4424 0 1
92.558 0 1
92.6736 0 1
92.7893 0 1
92.905 0 1
93.0208 0 1
93.1366 0 1
93.2525 0 1
93.3685 0 1
93.4845 0 1
93.6005 1455 38.1445
93.7167 1502 38.7556
93.8328 1606 40.0749
93.949 1622 40.2741
94.0653 1564 39.5474
94.1816 1642 40.5216
94.2979 1642 40.5216
94.4143 1583 39.7869
94.5307 1511 38.8716
94.6472 1401 37.4299
94.7637 1408 37.5233
94.8803 1513 38.8973
94.9969 1649 40.6079
95.1135 1789 42.2966
95.2302 1794 42.3556
95.3469 1914 43.7493
95.4637 1963 44.3058
95.5805 1894 43.5201
95.6973 1950 44.1588
95.8142 1987 44.5758
95.9311 1861 43.1393
96.048 1880 43.359
96.1649 1992 44.6318
96.2819 1883 43.3935
96.3989 1786 42.2611
96.516 1697 41.1947
96.633 1644 40.5463
96.7501 1566 39.5727
96.8673 1623 40.2865
96.9844 1691 41.1218
97.1016 1759 41.9404
97.2188 1885 43.4166
97.336 2000 44.7214
97.4532 1980 44.4972
97.5704 2056 45.3431
97.6877 1976 44.4522
97.805 1921 43.8292
97.9223 1834 42.8252
98.0396 1622 40.2741
98.1569 1493 38.6394
98.2743 1424 37.7359
98.3916 1380 37.1484
98.509 1500 38.7298
98.6264 1694 41.1582
98.7438 1754 41.8808
98.8612 1878 43.3359
98.9786 1898 43.566
99.096 1948 44.1362
99.2134 2024 44.9889
99.3308 2085 45.6618
99.4482 2085 45.6618
99.5656 2079 45.5961
99.6831 2007 44.7996
99.8005 2036 45.1221
99.9179 1913 43.7379
100.035 1971 44.3959
100.153 1822 42.6849
100.27 1666 40.8167
100.388 1734 41.6413
100.505 1717 41.4367
100.622 1899 43.5775
100.74 2030 45.0555
100.857 2167 46.551
100.975 2104 45.8694
101.092 2036 45.1221
101.209 2127 46.1194
101.327 2162 46.4973
101.444 2070 45.4973
101.561 1840 42.8952
101.679 1644 40.5463
101.796 1554 39.4208
101.913 1493 38.6394
102.03 1543 39.281
102.148 1715 41.4126
102.265 1729 41.5812
102.382 1963 44.3058
102.499 2002 44.7437
102.616 2076 45.5631
102.733 2147 46.3357
102.851 2175 46.6369
102.968 2181 46.7012
103.085 2068 45.4753
103.202 2178 46.669
103.319 2068 45.4753
103.436 2107 45.9021
103.552 2073 45.5302
103.669 1918 43.795
103.786 1907 43.6692
103.903 1662 40.7676
104.02 1895 43.5316
104.137 1982 44.5197
104.253 2037 45.1331
104.37 2222 47.1381
104.487 2294 47.8957
104.603 2204 46.9468
104.72 2214 47.0532
104.836 2052 45.299
104.953 1913 43.7379
105.069 1733 41.6293
105.186 1603 40.0375
105.302 1447 38.0395
105.418 1339 36.5923
105.535 1323 36.3731
105.651 1439 37.9342
105.767 1403 37.4566
105.883 1378 37.1214
105.999 1290 35.9166
106.115 0 1
106.231 0 1
106.347 0 1
106.463 0 1
106.579 0 1
106.694 0 1
106.81 0 1
106.926 0 1
107.041 0 1
107.157 0 1
109.576 0 1
109.692 0 1
109.807 0 1
109.923 0 1
110.039 0 1
110.155 0 1
110.27 0 1
110.386 0 1
110.502 0 1
110.618 947 30.7734
110.735 1151 33.9264
110.851 1388 37.2559
110.967 1568 39.598
111.083 1733 41.6293
111.199 1735 41.6533
111.316 1938 44.0227
111.432 2002 44.7437
111.549 1974 44.4297
111.665 2062 45.4093
111.782 1975 44.441
111.898 1970 44.3847
112.015 1962 44.2945
112.132 1857 43.0929
112.248 1777 42.1545
112.365 1658 40.7185
112.482 1669 40.8534
112.599 1792 42.332
112.716 1865 43.1856
112.832 1973 44.4185
112.949 2018 44.9222
113.066 2048 45.2548
113.183 2107 45.9021
113.3 2124 46.0869
113.417 2042 45.1885
113.534 1883 43.3935
113.652 1700 41.2311
113.769 1607 40.0874
113.886 1466 38.2884
114.003 1339 36.5923
114.12 1452 38.1051
114.238 1642 40.5216
114.355 1780 42.19
114.472 1759 41.9404
114.589 1970 44.3847
114.707 1919 43.8064
114.824 2037 45.1331
114.942 1958 44.2493
115.059 2063 45.4203
115.176 2049 45.2659
115.294 1944 44.0908
115.411 1987 44.5758
115.529 2021 44.9555
115.646 1968 44.3621
115.764 1771 42.0833
115.881 1753 41.8688
115.999 1749 41.821
116.116 1773 42.107
116.234 1771 42.0833
116.351 1909 43.6921
116.469 2020 44.9444
116.586 1974 44.4297
116.704 2095 45.7712
116.821 2035 45.111
116.939 2016 44.8999
117.056 2013 44.8665
117.174 1904 43.6348
117.291 1681 41
117.409 1542 39.2683
117.526 1426 37.7624
117.644 1459 38.1969
117.761 1646 40.5709
117.879 1710 41.3521
117.996 1845 42.9535
118.114 1948 44.1362
118.231 1981 44.5084
118.349 1860 43.1277
118.466 2049 45.2659
118.584 1956 44.2267
118.701 2083 45.6399
118.819 1968 44.3621
118.936 1943 44.0795
119.053 1812 42.5676
119.171 1934 43.9773
119.288 1742 41.7373
119.405 1772 42.0951
119.523 1655 40.6817
119.64 1641 40.5093
119.757 1620 40.2492
119.875 1715 41.4126
119.992 1831 42.7902
120.109 1869 43.2319
120.226 1890 43.4741
120.343 1987 44.5758
120.46 2010 44.833
120.578 1929 43.9204
120.695 1870 43.2435
120.812 1790 42.3084
120.929 1663 40.7799
121.046 1544 39.2938
121.163 1482 38.4968
121.279 1342 36.6333
121.396 1375 37.081
121.513 1462 38.2361
121.63 1562 39.5221
121.747 1541 39.2556
121.863 1589 39.8623
121.98 1586 39.8246
122.097 1575 39.6863
122.213 1530 39.1152
122.33 1454 38.1314
122.446 1398 37.3898
122.563 1385 37.2156
122.679 1294 35.9722
122.795 1236 35.1568
122.912 1132 33.6452
123.028 1012 31.8119
123.144 827 28.7576
123.26 830 28.8097
123.377 0 1
123.493 0 1
123.609 0 1
123.725 0 1
123.84 0 1
123.956 0 1
124.072 0 1
124.188 0 1
124.303 0 1
124.419 0 1
126.852 0 1
126.968 0 1
127.083 0 1
127.199 0 1
127.315 0 1
127.431 0 1
127.547 0 1
127.663 0 1
127.779 0 1
127.895 0 1
128.011 0 1
128.127 0 1
128.243 0 1
128.359 1789 42.2966
128.476 1824 42.7083
128.592 1822 42.6849
128.708 1789 42.2966
128.825 1832 42.8019
128.941 1985 44.5533
129.058 2003 44.7549
129.174 2071 45.5082
129.291 2101 45.8367
129.408 2164 46.5188
129.524 2117 46.0109
129.641 2101 45.8367
129.758 1956 44.2267
129.875 1991 44.6206
129.992 1752 41.8569
130.108 1685 41.0488
130.225 1501 38.7427
130.342 1509 38.8458
130.459 1577 39.7115
130.576 1788 42.2847
130.693 1789 42.2966
130.81 1861 43.1393
130.928 1945 44.1022
131.045 2069 45.4863
131.162 2012 44.8553
131.279 2022 44.9667
131.396 2040 45.1664
131.513 2058 45.3652
131.631 2013 44.8665
131.748 2036 45.1221
131.865 1933 43.9659
131.983 1915 43.7607
132.1 1864 43.1741
132.217 1775 42.1307
132.335 1781 42.2019
132.452 1894 43.5201
132.57 2018 44.9222
132.687 2090 45.7165
132.804 2064 45.4313
132.922 2171 46.594
133.039 2222 47.1381
133.157 2152 46.3897
133.274 2017 44.911
133.392 2094 45.7602
133.509 1893 43.5086
133.627 1728 41.5692
133.744 1644 40.5463
133.862 1553 39.4081
133.979 1634 40.4228
134.097 1731 41.6053
134.214 1891 43.4856
134.332 1931 43.9431
134.449 1925 43.8748
134.567 2109 45.9239
134.684 2017 44.911
134.802 2025 45
134.919 2077 45.5741
135.037 2135 46.2061
135.154 2099 45.8148
135.272 2070 45.4973
135.389 1981 44.5084
135.507 1961 44.2832
135.624 1907 43.6692
135.742 1887 43.4396
135.859 1977 44.4635
135.977 1896 43.5431
136.094 1928 43.909
136.211 2077 45.5741
136.329 2075 45.5522
136.446 2115 45.9891
136.564 2120 46.0435
136.681 2144 46.3033
136.798 2251 47.4447
136.915 2235 47.2758
137.033 1874 43.2897
137.15 1779 42.1782
137.267 1704 41.2795
137.384 1708 41.328
137.502 1502 38.7556
137.619 1647 40.5832
137.736 1726 41.5452
137.853 1685 41.0488
137.97 1823 42.6966
138.087 1874 43.2897
138.204 1994 44.6542
138.321 2033 45.0888
138.438 2057 45.3542
138.555 2118 46.0217
138.672 2053 45.31
138.788 1973 44.4185
138.905 1957 44.238
139.022 1814 42.5911
139.139 1685 41.0488
139.255 1675 40.9268
139.372 1492 38.6264
139.488 1464 38.2623
139.605 1430 37.8153
139.721 1442 37.9737
139.838 1448 38.0526
139.954 1411 37.5633
140.071 1375 37.081
140.187 1221 34.9428
140.303 1208 34.7563
140.419 1135 33.6898
140.535 1123 33.5112
140.652 953 30.8707
140.768 0 1
140.884 0 1
141 0 1
141.115 0 1
141.231 0 1
141.347 0 1
141.463 0 1
141.578 0 1
141.694 0 1
144.104 0 1
144.219 0 1
144.335 0 1
144.45 0 1
144.566 0 1
144.682 0 1
144.798 0 1
144.914 0 1
145.03 0 1
145.146 1503 38.7685
145.262 1565 39.5601
145.378 1668 40.8412
145.494 1651 40.6325
145.61 1647 40.5832
145.726 1614 40.1746
145.842 1429 37.8021
145.959 1402 37.4433
146.075 1360 36.8782
146.192 1347 36.7015
146.308 1294 35.9722
146.425 1274 35.6931
146.541 1284 35.8329
146.658 1412 37.5766
146.774 1447 38.0395
146.891 1581 39.7618
147.008 1540 39.2428
147.125 1566 39.5727
147.241 1573 39.6611
147.358 1574 39.6737
147.475 1591 39.8873
147.592 1526 39.064
147.709 1534 39.1663
147.826 1509 38.8458
147.943 1425 37.7492
148.06 1419 37.6696
148.177 1353 36.7831
148.294 1390 37.2827
148.411 1464 38.2623
148.528 1543 39.281
148.645 1618 40.2244
148.762 1653 40.6571
148.88 1692 41.1339
148.997 1678 40.9634
149.114 1669 40.8534
149.231 1622 40.2741
149.349 1652 40.6448
149.466 1621 40.2616
149.583 1487 38.5616
149.701 1353 36.7831
149.818 1367 36.973
149.935 1312 36.2215
150.053 1266 35.5809
150.17 1232 35.0999
150.287 1360 36.8782
150.405 1457 38.1707
150.522 1421 37.6962
150.64 1466 38.2884
150.757 1509 38.8458
150.875 1550 39.37
150.992 1573 39.6611
151.11 1575 39.6863
151.227 1498 38.704
151.344 1523 39.0256
151.462 1448 38.0526
151.579 1488 38.5746
151.697 1406 37.4967
151.814 1357 36.8375
151.932 1425 37.7492
152.049 1392 37.3095
152.167 1509 38.8458
152.284 1457 38.1707
152.402 1558 39.4715
152.519 1576 39.6989
152.636 1688 41.0853
152.754 1563 39.5348
152.871 1587 39.8372
152.989 1612 40.1497
153.106 1501 38.7427
153.223 1414 37.6032
153.341 1285 35.8469
153.458 1240 35.2136
153.575 1169 34.1906
153.693 1221 34.9428
153.81 1221 34.9428
153.927 1316 36.2767
154.044 1357 36.8375
154.162 1471 38.3536
154.279 1382 37.1753
154.396 1419 37.6696
154.513 1420 37.6829
154.63 1526 39.064
154.747 1579 39.7366
154.864 1409 37.5366
154.981 1449 38.0657
155.098 1421 37.6962
155.215 1319 36.318
155.332 1287 35.8748
155.449 1243 35.2562
155.566 1225 35
155.683 1297 36.0139
155.8 1312 36.2215
155.917 1307 36.1525
156.033 1403 37.4566
156.15 0 1
156.267 0 1
156.383 0 1
156.5 0 1
156.617 0 1
156.733 0 1
156.85 0 1
156.966 0 1
157.082 0 1
157.199 0 1
157.315 0 1
157.431 0 1
157.547 0 1
157.664 0 1
157.78 0 1
157.896 0 1
158.012 0 1
158.128 0 1
158.244 0 1
158.359 0 1
158.475 0 1
158.591 0 1
158.706 0 1
