
6.15755 0 1
6.2731 0 1
6.3887 0 1
6.50437 0 1
6.62009 0 1
6.73587 0 1
6.8517 0 1
6.96759 0 1
7.08353 0 1
7.19952 0 1
7.31557 0 1
7.43166 0 1
7.54781 0 1
7.664 0 1
7.78024 0 1
7.89653 0 1
8.01286 0 1
8.12924 0 1
8.24567 0 1
8.36213 0 1
8.47864 0 1
8.59519 0 1
8.71178 0 1
8.82841 0 1
8.94508 0 1
9.06179 0 1
9.17853 0 1
9.29531 0 1
9.41212 0 1
9.52897 0 1
9.64584 0 1
9.76276 0 1
9.8797 0 1
9.99667 0 1
10.1137 0 1
10.2307 0 1
10.3478 0 1
10.4648 0 1
10.5819 0 1
10.6991 0 1
10.8162 0 1
10.9334 0 1
11.0506 0 1
11.1678 0 1
11.285 0 1
11.4023 0 1
11.5196 0 1
11.6369 0 1
11.7542 0 1
11.8715 0 1
11.9888 0 1
12.1062 0 1
12.2235 0 1
12.3409 0 1
12.4582 0 1
12.5756 0 1
12.693 0 1
12.8104 0 1
12.9278 0 1
13.0452 0 1
13.1626 0 1
13.28 0 1
13.3974 0 1
13.5149 0 1
13.6323 0 1
13.7497 0 1
13.8671 0 1
13.9845 0 1
14.1019 0 1
14.2193 0 1
14.3367 0 1
14.4541 0 1
14.5714 0 1
14.6888 0 1
14.8062 0 1
14.9235 0 1
15.0408 0 0
15.1581 0 0
15.2755 0 0
15.3927 0 0
15.51 0 0
15.6273 0 0
15.7445 0 0
15.8617 0 0
15.9789 0 0
16.0961 0 0
16.2132 0 0
16.3304 0 0
16.4475 0 0
16.5646 0 0
16.6816 0 0
16.7986 0 0
16.9156 0 0
17.0326 0 0
17.1496 0 0
17.2665 0 0
17.3833 0 0
17.5002 0 0
17.617 0 0
17.7338 0 0
17.8505 0 0
17.9672 0 0
18.0839 0 0
18.2005 0 0
18.3171 0 0
18.4337 0 0
18.5502 0 0
18.6666 0 0
18.7831 0 0
18.8994 0 0
19.0158 0 0
19.1321 0 0
19.2483 0 0
19.3645 0 0
19.4806 0 0
19.5967 0 0
19.7128 0 0
19.8288 0 0
19.9447 0 0
20.0606 0 1
20.1764 0 1
20.2922 0 1
20.4079 0 1
20.5236 0 1
20.6392 0 1
20.7548 0 1
20.8702 0 1
23.3078 0 1
23.4233 0 1
23.539 0 1
23.6547 0 1
23.7704 0 1
23.8862 0 1
24.0021 0 1
24.118 0 1
24.234 0 1
24.35 0 1
24.4661 1697 41.1947
24.5822 1664 40.7922
24.6984 1687 41.0731
24.8146 1698 41.2068
24.9309 1682 41.0122
25.0472 1599 39.9875
25.1636 1509 38.8458
25.28 1482 38.4968
25.3965 1509 38.8458
25.513 1557 39.4588
25.6296 1595 39.9375
25.7462 1808 42.5206
25.8628 1872 43.2666
25.9795 1830 42.7785
26.0962 1895 43.5316
26.213 1925 43.8748
26.3298 1790 42.3084
26.4466 1777 42.1545
26.5635 1759 41.9404
26.6804 1640 40.4969
26.7973 1680 40.9878
26.9143 1672 40.8901
27.0313 1720 41.4729
27.1483 1757 41.9166
27.2653 1798 42.4028
27.3824 1893 43.5086
27.4996 1834 42.8252
27.6167 1898 43.566
27.7339 1866 43.1972
27.8511 1879 43.3474
27.9683 1742 41.7373
28.0855 1708 41.328
28.2028 1768 42.0476
28.3201 1704 41.2795
28.4374 1665 40.8044
28.5547 1592 39.8999
28.6721 1436 37.8946
28.7894 1464 38.2623
28.9068 1419 37.6696
29.0242 1494 38.6523
29.1416 1533 39.1535
29.259 1568 39.598
29.3764 1608 40.0999
29.4939 1722 41.497
29.6113 1740 41.7133
29.7288 1782 42.2137
29.8463 1712 41.3763
29.9638 1714 41.4005
30.0812 1641 40.5093
30.1987 1645 40.5586
30.3162 1637 40.4599
30.4337 1619 40.2368
30.5512 1612 40.1497
30.6687 1697 41.1947
30.7862 1793 42.3438
30.9037 1819 42.6497
31.0212 1806 42.4971
31.1387 1803 42.4617
31.2562 1793 42.3438
31.3737 1775 42.1307
31.4912 1798 42.4028
31.6087 1810 42.5441
31.7262 1685 41.0488
31.8436 1709 41.3401
31.9611 1719 41.4608
32.0785 1530 39.1152
32.1959 1514 38.9102
32.3134 1426 37.7624
32.4308 1480 38.4708
32.5482 1479 38.4578
32.6655 1541 39.2556
32.7829 1710 41.3521
32.9002 1761 41.9643
33.0176 1797 42.391
33.1349 1787 42.2729
33.2522 1810 42.5441
33.3694 1735 41.6533
33.4867 1753 41.8688
33.6039 1687 41.0731
33.7211 1622 40.2741
33.8383 1547 39.3319
33.9554 1585 39.8121
34.0725 1585 39.8121
34.1896 1690 41.1096
34.3067 1618 40.2244
34.4237 1739 41.7013
34.5407 1754 41.8808
34.6577 1761 41.9643
34.7746 1778 42.1663
34.8915 1795 42.3674
35.0084 1671 40.8779
35.1252 1859 43.1161
35.242 1818 42.638
35.3587 1719 41.4608
35.4755 1725 41.5331
35.5921 1702 41.2553
35.7088 1586 39.8246
35.8254 1553 39.4081
35.9419 1413 37.5899
36.0584 1391 37.2961
36.1749 1438 37.921
36.2913 1417 37.6431
36.4077 1465 38.2753
36.524 1557 39.4588
36.6403 1612 40.1497
36.7565 1724 41.5211
36.8727 1700 41.2311
36.9889 1691 41.1218
37.1049 1655 40.6817
37.221 0 1
37.3369 0 1
37.4529 0 1
37.5687 0 1
37.6845 0 1
37.8003 0 1
37.916 0 1
38.0316 0 1
38.1472 0 1
40.5851 0 1
40.7008 0 1
40.8164 0 1
40.9322 0 1
41.048 0 1
41.1639 0 1
41.2798 0 1
41.3958 0 1
41.5118 0 1
41.6279 0 1
41.744 1315 36.2629
41.8602 1322 36.3593
41.9765 1354 36.7967
42.0928 1486 38.5487
42.2091 1430 37.8153
42.3255 1358 36.8511
42.4419 1346 36.6879
42.5584 1260 35.4965
42.675 1252 35.3836
42.7915 1222 34.9571
42.9081 1207 34.7419
43.0248 1304 36.1109
43.1415 1325 36.4005
43.2582 1359 36.8646
43.375 1438 37.921
43.4918 1420 37.6829
43.6087 1420 37.6829
43.7256 1406 37.4967
43.8425 1438 37.921
43.9595 1358 36.8511
44.0765 1368 36.9865
44.1935 1344 36.6606
44.3106 1375 37.081
44.4277 1266 35.5809
44.5448 1232 35.0999
44.6619 1119 33.4515
44.7791 1059 32.5423
44.8963 1036 32.187
45.0136 1032 32.1248
45.1308 1046 32.3419
45.2481 1126 33.5559
45.3654 1143 33.8083
45.4827 1171 34.2199
45.6001 1156 34
45.7174 1176 34.2929
45.8348 1159 34.0441
45.9522 1158 34.0294
46.0697 1003 31.6702
46.1871 950 30.8221
46.3046 900 30
46.422 903 30.05
46.5395 986 31.4006
46.657 978 31.273
46.7745 1047 32.3574
46.892 1115 33.3916
47.0096 1126 33.5559
47.1271 1112 33.3467
47.2446 1092 33.0454
47.3622 1137 33.7194
47.4797 1042 32.28
47.5973 1108 33.2866
47.7149 1024 32
47.8324 1029 32.078
47.95 1041 32.2645
48.0675 908 30.133
48.1851 852 29.189
48.3027 824 28.7054
48.4202 763 27.6225
48.5378 803 28.3373
48.6554 870 29.4958
48.7729 939 30.6431
48.8904 971 31.1609
49.008 943 30.7083
49.1255 948 30.7896
49.243 986 31.4006
49.3605 937 30.6105
49.478 914 30.2324
49.5955 781 27.9464
49.713 768 27.7128
49.8304 706 26.5707
49.9479 780 27.9285
50.0653 809 28.4429
50.1827 865 29.4109
50.3001 941 30.6757
50.4175 1053 32.45
50.5348 1060 32.5576
50.6521 1061 32.573
50.7694 1052 32.4345
50.8867 1098 33.1361
51.004 1144 33.8231
51.1212 1123 33.5112
51.2384 1195 34.5688
51.3556 1096 33.1059
51.4727 1146 33.8526
51.5899 1055 32.4808
51.707 1001 31.6386
51.824 960 30.9839
51.9411 1052 32.4345
52.0581 1077 32.8177
52.175 1152 33.9411
52.2919 1271 35.6511
52.4088 1243 35.2562
52.5257 1238 35.1852
52.6425 1252 35.3836
52.7593 1248 35.327
52.876 1230 35.0714
52.9927 1273 35.6791
53.1094 1148 33.8821
53.226 1105 33.2415
53.3426 1089 33
53.4591 1038 32.218
53.5756 1129 33.6006
53.692 1209 34.7707
53.8084 1281 35.7911
53.9248 1377 37.108
54.0411 1416 37.6298
54.1573 1522 39.0128
54.2735 0 1
54.3896 0 1
54.5057 0 1
54.6217 0 1
54.7377 0 1
54.8537 0 1
54.9695 0 1
55.0853 0 1
55.2011 0 1
55.3168 0 1
55.4324 0 1
57.824 0 1
57.9396 0 1
58.0553 0 1
58.1711 0 1
58.2869 0 1
58.4028 0 1
58.5187 0 1
58.6347 0 1
58.7508 0 1
58.8669 0 1
58.983 1383 37.1887
59.0992 1573 39.6611
59.2155 1629 40.3609
59.3318 1694 41.1582
59.4482 1715 41.4126
59.5646 1753 41.8688
59.681 1755 41.8927
59.7975 1706 41.3038
59.9141 1710 41.3521
60.0306 1569 39.6106
60.1473 1528 39.0896
60.2639 1467 38.3014
60.3807 1335 36.5377
60.4974 1333 36.5103
60.6142 1317 36.2905
60.731 1485 38.5357
60.8479 1471 38.3536
60.9648 1469 38.3275
61.0818 1494 38.6523
61.1987 1569 39.6106
61.3158 1511 38.8716
61.4328 1474 38.3927
61.5499 1378 37.1214
61.667 1327 36.428
61.7841 1317 36.2905
61.9013 1284 35.8329
62.0185 1225 35
62.1357 1295 35.9861
62.253 1460 38.2099
62.3702 1426 37.7624
62.4875 1645 40.5586
62.6049 1737 41.6773
62.7222 1796 42.3792
62.8396 1793 42.3438
62.9569 1797 42.391
63.0743 1809 42.5323
63.1918 1863 43.1625
63.3092 1844 42.9418
63.4267 1827 42.7434
63.5441 1647 40.5832
63.6616 1631 40.3856
63.7791 1550 39.37
63.8966 1557 39.4588
64.0142 1508 38.833
64.1317 1596 39.95
64.2492 1602 40.025
64.3668 1660 40.7431
64.4843 1695 41.1704
64.6019 1688 41.0853
64.7195 1681 41
64.837 1578 39.724
64.9546 1694 41.1582
65.0722 1604 40.05
65.1898 1456 38.1576
65.3074 1396 37.3631
65.4249 1258 35.4683
65.5425 1221 34.9428
65.6601 1306 36.1386
65.7777 1408 37.5233
65.8952 1481 38.4838
66.0128 1647 40.5832
66.1304 1717 41.4367
66.2479 1726 41.5452
66.3655 1783 42.2256
66.483 1742 41.7373
66.6005 1753 41.8688
66.718 1731 41.6053
66.8355 1649 40.6079
66.953 1657 40.7063
67.0705 1667 40.8289
67.1879 1446 38.0263
67.3054 1438 37.921
67.4228 1382 37.1753
67.5402 1326 36.4143
67.6576 1309 36.1801
67.7749 1309 36.1801
67.8923 1407 37.51
68.0096 1429 37.8021
68.1269 1412 37.5766
68.2442 1458 38.1838
68.3614 1442 37.9737
68.4787 1418 37.6563
68.5958 1393 37.3229
68.713 1360 36.8782
68.8302 1241 35.2278
68.9473 1192 34.5254
69.0643 1004 31.686
69.1814 1073 32.7567
69.2984 1108 33.2866
69.4154 1221 34.9428
69.5323 1220 34.9285
69.6492 1400 37.4166
69.7661 1476 38.4187
69.8829 1536 39.1918
69.9997 1520 38.9872
70.1165 1611 40.1373
70.2332 1629 40.3609
70.3499 1648 40.5956
70.4665 1635 40.4351
70.5831 1559 39.4842
70.6996 1519 38.9744
70.8161 1438 37.921
70.9326 1439 37.9342
71.049 1259 35.4824
71.1653 1269 35.623
71.2817 1264 35.5528
71.3979 1172 34.2345
71.5141 1251 35.3695
71.6303 1338 36.5787
71.7464 1182 34.3802
71.8624 0 1
71.9784 0 1
72.0944 0 1
72.2102 0 1
72.3261 0 1
72.4418 0 1
72.5575 0 1
72.6732 0 1
75.1054 0 1
75.2209 0 1
75.3365 0 1
75.4521 0 1
75.5678 0 1
75.6835 0 1
75.7993 0 1
75.9151 0 1
76.031 0 1
76.147 1383 37.1887
76.263 1277 35.7351
76.3791 1305 36.1248
76.4952 1245 35.2846
76.6113 1288 35.8887
76.7276 1329 36.4555
76.8438 1362 36.9053
76.9601 1345 36.6742
77.0765 1401 37.4299
77.1929 1426 37.7624
77.3093 1474 38.3927
77.4258 1441 37.9605
77.5423 1469 38.3275
77.6589 1313 36.2353
77.7755 1229 35.0571
77.8921 1060 32.5576
78.0088 991 31.4802
78.1256 982 31.3369
78.2423 950 30.8221
78.3591 1046 32.3419
78.4759 1146 33.8526
78.5928 1222 34.9571
78.7097 1390 37.2827
78.8266 1413 37.5899
78.9436 1542 39.2683
79.0606 1573 39.6611
79.1776 1445 38.0132
79.2946 1500 38.7298
79.4117 1551 39.3827
79.5288 1486 38.5487
79.6459 1447 38.0395
79.7631 1391 37.2961
79.8802 1297 36.0139
79.9974 1255 35.426
80.1147 1227 35.0286
80.2319 1219 34.9142
80.3491 1323 36.3731
80.4664 1240 35.2136
80.5837 1204 34.6987
80.701 1244 35.2704
80.8183 1283 35.819
80.9357 1215 34.8569
81.053 1283 35.819
81.1704 1290 35.9166
81.2877 1292 35.9444
81.4051 1118 33.4365
81.5225 997 31.5753
81.6399 869 29.4788
81.7573 896 29.9333
81.8747 817 28.5832
81.9922 880 29.6648
82.1096 1021 31.9531
82.227 1179 34.3366
82.3444 1252 35.3836
82.4619 1301 36.0694
82.5793 1386 37.229
82.6967 1335 36.5377
82.8142 1363 36.9188
82.9316 1406 37.4967
83.049 1405 37.4833
83.1664 1344 36.6606
83.2838 1253 35.3977
83.4012 1229 35.0571
83.5186 1133 33.6601
83.636 1158 34.0294
83.7534 1106 33.2566
83.8708 1095 33.0908
83.9881 1167 34.1614
84.1055 1149 33.8969
84.2228 1173 34.2491
84.3401 1119 33.4515
84.4575 1176 34.2929
84.5747 1240 35.2136
84.692 1270 35.6371
84.8093 1195 34.5688
84.9265 1148 33.8821
85.0437 957 30.9354
85.1609 845 29.0689
85.2781 724 26.9072
85.3952 764 27.6405
85.5123 817 28.5832
85.6294 936 30.5941
85.7465 1137 33.7194
85.8636 1204 34.6987
85.9806 1383 37.1887
86.0976 1375 37.081
86.2145 1417 37.6431
86.3315 1445 38.0132
86.4484 1457 38.1707
86.5652 1525 39.0512
86.682 1504 38.7814
86.7988 1377 37.108
86.9156 1386 37.229
87.0323 1294 35.9722
87.149 1271 35.6511
87.2657 1252 35.3836
87.3823 1345 36.6742
87.4988 1258 35.4683
87.6154 1333 36.5103
87.7318 1353 36.7831
87.8483 1336 36.5513
87.9647 1309 36.1801
88.081 1461 38.223
88.1973 1429 37.8021
88.3136 1468 38.3145
88.4298 1306 36.1386
88.546 1172 34.2345
88.6621 1026 32.0312
88.7781 942 30.692
88.8942 0 1
89.0101 0 1
89.126 0 1
89.2419 0 1
89.3577 0 1
89.4734 0 1
89.5891 0 1
89.7047 0 1
89.8203 0 1
89.9358 0 1
92.3269 0 1
92.4424 0 1
92.558 0 1
92.6736 0 1
92.7893 0 1
92.905 0 1
93.0208 0 1
93.1366 0 1
93.2525 0 1
93.3685 0 1
93.4845 0 1
93.6005 1402 37.4433
93.7167 1412 37.5766
93.8328 1434 37.8682
93.949 1316 36.2767
94.0653 1206 34.7275
94.1816 995 31.5436
94.2979 930 30.4959
94.4143 937 30.6105
94.5307 909 30.1496
94.6472 1044 32.311
94.7637 1171 34.2199
94.8803 1387 37.2424
94.9969 1418 37.6563
95.1135 1543 39.281
95.2302 1589 39.8623
95.3469 1559 39.4842
95.4637 1637 40.4599
95.5805 1593 39.9124
95.6973 1572 39.6485
95.8142 1687 41.0731
95.9311 1571 39.6358
96.048 1515 38.923
96.1649 1489 38.5876
96.2819 1514 38.9102
96.3989 1528 39.0896
96.516 1517 38.9487
96.633 1436 37.8946
96.7501 1480 38.4708
96.8673 1527 39.0768
96.9844 1511 38.8716
97.1016 1501 38.7427
97.2188 1539 39.2301
97.336 1505 38.7943
97.4532 1555 39.4335
97.5704 1504 38.7814
97.6877 1302 36.0832
97.805 1078 32.8329
97.9223 1009 31.7648
98.0396 879 29.6479
98.1569 852 29.189
98.2743 997 31.5753
98.3916 1140 33.7639
98.509 1355 36.8103
98.6264 1483 38.5097
98.7438 1492 38.6264
98.8612 1623 40.2865
98.9786 1641 40.5093
99.096 1717 41.4367
99.2134 1590 39.8748
99.3308 1721 41.4849
99.4482 1680 40.9878
99.5656 1631 40.3856
99.6831 1560 39.4968
99.8005 1534 39.1663
99.9179 1550 39.37
100.035 1611 40.1373
100.153 1519 38.9744
100.27 1549 39.3573
100.388 1574 39.6737
100.505 1535 39.1791
100.622 1473 38.3797
100.74 1481 38.4838
100.857 1483 38.5097
100.975 1615 40.1871
101.092 1570 39.6232
101.209 1422 37.7094
101.327 1199 34.6266
101.444 1080 32.8634
101.561 940 30.6594
101.679 899 29.9833
101.796 867 29.4449
101.913 1052 32.4345
102.03 1307 36.1525
102.148 1492 38.6264
102.265 1671 40.8779
102.382 1697 41.1947
102.499 1735 41.6533
102.616 1709 41.3401
102.733 1761 41.9643
102.851 1744 41.7612
102.968 1767 42.0357
103.085 1793 42.3438
103.202 1725 41.5331
103.319 1711 41.3642
103.436 1667 40.8289
103.552 1609 40.1123
103.669 1597 39.9625
103.786 1612 40.1497
103.903 1690 41.1096
104.02 1627 40.3361
104.137 1630 40.3733
104.253 1620 40.2492
104.37 1677 40.9512
104.487 1756 41.9047
104.603 1671 40.8779
104.72 1457 38.1707
104.836 1282 35.805
104.953 1102 33.1964
105.069 973 31.1929
105.186 979 31.289
105.302 1034 32.1559
105.418 1267 35.5949
105.535 1509 38.8458
105.651 1613 40.1622
105.767 1828 42.7551
105.883 1883 43.3935
105.999 1837 42.8602
106.115 0 1
106.231 0 1
106.347 0 1
106.463 0 1
106.579 0 1
106.694 0 1
106.81 0 1
106.926 0 1
107.041 0 1
107.157 0 1
109.576 0 1
109.692 0 1
109.807 0 1
109.923 0 1
110.039 0 1
110.155 0 1
110.27 0 1
110.386 0 1
110.502 0 1
110.618 1516 38.9358
110.735 1574 39.6737
110.851 1706 41.3038
110.967 1824 42.7083
111.083 1782 42.2137
111.199 1730 41.5933
111.316 1808 42.5206
111.432 1863 43.1625
111.549 1742 41.7373
111.665 1763 41.9881
111.782 1757 41.9166
111.898 1784 42.2374
112.015 1708 41.328
112.132 1632 40.398
112.248 1632 40.398
112.365 1604 40.05
112.482 1556 39.4462
112.599 1641 40.5093
112.716 1564 39.5474
112.832 1546 39.3192
112.949 1590 39.8748
113.066 1665 40.8044
113.183 1576 39.6989
113.3 1448 38.0526
113.417 1206 34.7275
113.534 1039 32.2335
113.652 964 31.0483
113.769 902 30.0333
113.886 974 31.209
114.003 1190 34.4964
114.12 1322 36.3593
114.238 1522 39.0128
114.355 1696 41.1825
114.472 1697 41.1947
114.589 1619 40.2368
114.707 1698 41.2068
114.824 1732 41.6173
114.942 1731 41.6053
115.059 1760 41.9524
115.176 1706 41.3038
115.294 1695 41.1704
115.411 1612 40.1497
115.529 1654 40.6694
115.646 1600 40
115.764 1597 39.9625
115.881 1611 40.1373
115.999 1637 40.4599
116.116 1549 39.3573
116.234 1600 40
116.351 1531 39.128
116.469 1578 39.724
116.586 1531 39.128
116.704 1557 39.4588
116.821 1462 38.2361
116.939 1254 35.4119
117.056 1167 34.1614
117.174 1049 32.3883
117.291 963 31.0322
117.409 1004 31.686
117.526 1080 32.8634
117.644 1273 35.6791
117.761 1478 38.4448
117.879 1656 40.694
117.996 1632 40.398
118.114 1641 40.5093
118.231 1611 40.1373
118.349 1742 41.7373
118.466 1730 41.5933
118.584 1770 42.0714
118.701 1704 41.2795
118.819 1751 41.845
118.936 1659 40.7308
119.053 1605 40.0625
119.171 1674 40.9145
119.288 1647 40.5832
119.405 1547 39.3319
119.523 1601 40.0125
119.64 1537 39.2046
119.757 1573 39.6611
119.875 1482 38.4968
119.992 1550 39.37
120.109 1472 38.3667
120.226 1533 39.1535
120.343 1507 38.8201
120.46 1420 37.6829
120.578 1283 35.819
120.695 1114 33.3766
120.812 1105 33.2415
120.929 1029 32.078
121.046 965 31.0644
121.163 1055 32.4808
121.279 1160 34.0588
121.396 1320 36.3318
121.513 1479 38.4578
121.63 1558 39.4715
121.747 1520 38.9872
121.863 1554 39.4208
121.98 1612 40.1497
122.097 1629 40.3609
122.213 1643 40.5339
122.33 1611 40.1373
122.446 1593 39.9124
122.563 1663 40.7799
122.679 1578 39.724
122.795 1547 39.3319
122.912 1541 39.2556
123.028 1603 40.0375
123.144 1499 38.7169
123.26 1455 38.1445
123.377 0 1
123.493 0 1
123.609 0 1
123.725 0 1
123.84 0 1
123.956 0 1
124.072 0 1
124.188 0 1
124.303 0 1
124.419 0 1
126.852 0 1
126.968 0 1
127.083 0 1
127.199 0 1
127.315 0 1
127.431 0 1
127.547 0 1
127.663 0 1
127.779 0 1
127.895 0 1
128.011 0 1
128.127 0 1
128.243 0 1
128.359 1715 41.4126
128.476 1739 41.7013
128.592 1663 40.7799
128.708 1697 41.1947
128.825 1668 40.8412
128.941 1623 40.2865
129.058 1655 40.6817
129.174 1738 41.6893
129.291 1615 40.1871
129.408 1557 39.4588
129.524 1460 38.2099
129.641 1300 36.0555
129.758 1219 34.9142
129.875 1127 33.5708
129.992 1078 32.8329
130.108 1097 33.121
130.225 1256 35.4401
130.342 1419 37.6696
130.459 1576 39.6989
130.576 1654 40.6694
130.693 1709 41.3401
130.81 1653 40.6571
130.928 1687 41.0731
131.045 1764 42
131.162 1725 41.5331
131.279 1823 42.6966
131.396 1834 42.8252
131.513 1799 42.4146
131.631 1754 41.8808
131.748 1784 42.2374
131.865 1791 42.3202
131.983 1692 41.1339
132.1 1823 42.6966
132.217 1745 41.7732
132.335 1758 41.9285
132.452 1714 41.4005
132.57 1690 41.1096
132.687 1779 42.1782
132.804 1730 41.5933
132.922 1646 40.5709
133.039 1433 37.855
133.157 1314 36.2491
133.274 1309 36.1801
133.392 1168 34.176
133.509 1105 33.2415
133.627 1050 32.4037
133.744 1229 35.0571
133.862 1375 37.081
133.979 1446 38.0263
134.097 1547 39.3319
134.214 1569 39.6106
134.332 1672 40.8901
134.449 1649 40.6079
134.567 1698 41.2068
134.684 1794 42.3556
134.802 1826 42.7317
134.919 1743 41.7493
135.037 1787 42.2729
135.154 1728 41.5692
135.272 1734 41.6413
135.389 1791 42.3202
135.507 1734 41.6413
135.624 1718 41.4488
135.742 1762 41.9762
135.859 1684 41.0366
135.977 1680 40.9878
136.094 1724 41.5211
136.211 1665 40.8044
136.329 1786 42.2611
136.446 1725 41.5331
136.564 1559 39.4842
136.681 1488 38.5746
136.798 1376 37.0945
136.915 1269 35.623
137.033 1180 34.3511
137.15 1124 33.5261
137.267 1186 34.4384
137.384 1199 34.6266
137.502 1396 37.3631
137.619 1378 37.1214
137.736 1470 38.3406
137.853 1582 39.7744
137.97 1624 40.2989
138.087 1658 40.7185
138.204 1805 42.4853
138.321 1826 42.7317
138.438 1789 42.2966
138.555 1824 42.7083
138.672 1827 42.7434
138.788 1786 42.2611
138.905 1806 42.4971
139.022 1832 42.8019
139.139 1755 41.8927
139.255 1899 43.5775
139.372 1894 43.5201
139.488 1830 42.7785
139.605 1777 42.1545
139.721 1795 42.3674
139.838 1831 42.7902
139.954 1730 41.5933
140.071 1715 41.4126
140.187 1755 41.8927
140.303 1541 39.2556
140.419 1364 36.9324
140.535 1293 35.9583
140.652 1315 36.2629
140.768 0 1
140.884 0 1
141 0 1
141.115 0 1
141.231 0 1
141.347 0 1
141.463 0 1
141.578 0 1
141.694 0 1
144.104 0 1
144.219 0 1
144.335 0 1
144.45 0 1
144.566 0 1
144.682 0 1
144.798 0 1
144.914 0 1
145.03 0 1
145.146 1207 34.7419
145.262 1308 36.1663
145.378 1182 34.3802
145.494 1160 34.0588
145.61 1128 33.5857
145.726 1064 32.619
145.842 993 31.5119
145.959 927 30.4467
146.075 903 30.05
146.192 890 29.8329
146.308 946 30.7571
146.425 1060 32.5576
146.541 1105 33.2415
146.658 1190 34.4964
146.774 1226 35.0143
146.891 1357 36.8375
147.008 1321 36.3456
147.125 1421 37.6962
147.241 1451 38.092
147.358 1405 37.4833
147.475 1440 37.9473
147.592 1425 37.7492
147.709 1428 37.7889
147.826 1452 38.1051
147.943 1412 37.5766
148.06 1344 36.6606
148.177 1449 38.0657
148.294 1368 36.9865
148.411 1346 36.6879
148.528 1309 36.1801
148.645 1358 36.8511
148.762 1358 36.8511
148.88 1331 36.4829
148.997 1392 37.3095
149.114 1329 36.4555
149.231 1284 35.8329
149.349 1189 34.4819
149.466 1123 33.5112
149.583 989 31.4484
149.701 1005 31.7017
149.818 893 29.8831
149.935 894 29.8998
150.053 958 30.9516
150.17 1006 31.7175
150.287 1055 32.4808
150.405 1156 34
150.522 1269 35.623
150.64 1319 36.318
150.757 1338 36.5787
150.875 1371 37.027
150.992 1433 37.855
151.11 1441 37.9605
151.227 1383 37.1887
151.344 1437 37.9078
151.462 1393 37.3229
151.579 1399 37.4032
151.697 1443 37.9868
151.814 1394 37.3363
151.932 1372 37.0405
152.049 1410 37.55
152.167 1397 37.3765
152.284 1354 36.7967
152.402 1466 38.2884
152.519 1351 36.756
152.636 1320 36.3318
152.754 1323 36.3731
152.871 1352 36.7696
152.989 1176 34.2929
153.106 1179 34.3366
153.223 1094 33.0757
153.341 999 31.607
153.458 957 30.9354
153.575 965 31.0644
153.693 1007 31.7333
153.81 1050 32.4037
153.927 1118 33.4365
154.044 1309 36.1801
154.162 1331 36.4829
154.279 1416 37.6298
154.396 1503 38.7685
154.513 1491 38.6135
154.63 1508 38.833
154.747 1609 40.1123
154.864 1487 38.5616
154.981 1573 39.6611
155.098 1531 39.128
155.215 1485 38.5357
155.332 1455 38.1445
155.449 1497 38.6911
155.566 1542 39.2683
155.683 1488 38.5746
155.8 1516 38.9358
155.917 1475 38.4057
156.033 1478 38.4448
156.15 0 1
156.267 0 1
156.383 0 1
156.5 0 1
156.617 0 1
156.733 0 1
156.85 0 1
156.966 0 1
157.082 0 1
157.199 0 1
157.315 0 1
157.431 0 1
157.547 0 1
157.664 0 1
157.78 0 1
157.896 0 1
158.012 0 1
158.128 0 1
158.244 0 1
158.359 0 1
158.475 0 1
158.591 0 1
158.706 0 1
