
6.15755 0 1
6.2731 0 1
6.3887 0 1
6.50437 0 1
6.62009 0 1
6.73587 0 1
6.8517 0 1
6.96759 0 1
7.08353 0 1
7.19952 0 1
7.31557 0 1
7.43166 0 1
7.54781 0 1
7.664 0 1
7.78024 0 1
7.89653 0 1
8.01286 0 1
8.12924 0 1
8.24567 0 1
8.36213 0 1
8.47864 0 1
8.59519 0 1
8.71178 0 1
8.82841 0 1
8.94508 0 1
9.06179 0 1
9.17853 0 1
9.29531 0 1
9.41212 0 1
9.52897 0 1
9.64584 0 1
9.76276 0 1
9.8797 0 1
9.99667 0 1
10.1137 0 1
10.2307 0 1
10.3478 0 1
10.4648 0 1
10.5819 0 1
10.6991 0 1
10.8162 0 1
10.9334 0 1
11.0506 0 1
11.1678 0 1
11.285 0 1
11.4023 0 1
11.5196 0 1
11.6369 0 1
11.7542 0 1
11.8715 0 1
11.9888 0 1
12.1062 0 1
12.2235 0 1
12.3409 0 1
12.4582 0 1
12.5756 0 1
12.693 0 1
12.8104 0 1
12.9278 0 1
13.0452 0 1
13.1626 0 1
13.28 0 1
13.3974 0 1
13.5149 0 1
13.6323 0 1
13.7497 0 1
13.8671 0 1
13.9845 0 1
14.1019 0 1
14.2193 0 1
14.3367 0 1
14.4541 0 1
14.5714 0 1
14.6888 0 1
14.8062 0 1
14.9235 0 1
15.0408 18361 135.503
15.1581 19373 139.187
15.2755 20065 141.651
15.3927 20791 144.191
15.51 20554 143.367
15.6273 20119 141.841
15.7445 19918 141.131
15.8617 19572 139.9
15.9789 18841 137.263
16.0961 17924 133.881
16.2132 17557 132.503
16.3304 17229 131.259
16.4475 17284 131.469
16.5646 16789 129.572
16.6816 16568 128.717
16.7986 16372 127.953
16.9156 16250 127.475
17.0326 15567 124.768
17.1496 15140 123.045
17.2665 14859 121.897
17.3833 14743 121.421
17.5002 15082 122.809
17.617 14900 122.066
17.7338 15351 123.899
17.8505 15989 126.448
17.9672 16130 127.004
18.0839 16403 128.074
18.2005 16912 130.046
18.3171 17154 130.973
18.4337 17289 131.488
18.5502 17557 132.503
18.6666 17709 133.075
18.7831 17442 132.068
18.8994 17080 130.69
19.0158 16739 129.379
19.1321 15806 125.722
19.2483 14879 121.98
19.3645 13940 118.068
19.4806 12845 113.336
19.5967 11824 108.738
19.7128 10820 104.019
19.8288 10163 100.812
19.9447 9050 95.1315
20.0606 0 1
20.1764 0 1
20.2922 0 1
20.4079 0 1
20.5236 0 1
20.6392 0 1
20.7548 0 1
20.8702 0 1
23.3078 0 1
23.4233 0 1
23.539 0 1
23.6547 0 1
23.7704 0 1
23.8862 0 1
24.0021 0 1
24.118 0 1
24.234 0 1
24.35 0 1
24.4661 7901 88.8876
24.5822 8375 91.515
24.6984 8705 93.3006
24.8146 9397 96.9381
24.9309 9869 99.3428
25.0472 10488 102.411
25.1636 11335 106.466
25.28 12550 112.027
25.3965 13398 115.75
25.513 14151 118.958
25.6296 15193 123.26
25.7462 15679 125.216
25.8628 15846 125.881
25.9795 16085 126.827
26.0962 16258 127.507
26.213 16061 126.732
26.3298 15809 125.734
26.4466 15286 123.637
26.5635 14907 122.094
26.6804 14655 121.058
26.7973 15014 122.532
26.9143 14921 122.152
27.0313 15394 124.073
27.1483 15309 123.73
27.2653 15629 125.016
27.3824 15770 125.579
27.4996 15499 124.495
27.6167 15485 124.439
27.7339 15090 122.841
27.8511 14338 119.741
27.9683 14093 118.714
28.0855 13538 116.353
28.2028 13085 114.39
28.3201 12214 110.517
28.4374 11814 108.692
28.5547 11946 109.298
28.6721 12313 110.964
28.7894 12617 112.325
28.9068 13252 115.117
29.0242 13684 116.979
29.1416 13841 117.648
29.259 13939 118.064
29.3764 13795 117.452
29.4939 13992 118.288
29.6113 14056 118.558
29.7288 14256 119.398
29.8463 14209 119.202
29.9638 14282 119.507
30.0812 13890 117.856
30.1987 13805 117.495
30.3162 14054 118.55
30.4337 14342 119.758
30.5512 14465 120.271
30.6687 14732 121.375
30.7862 14518 120.491
30.9037 14720 121.326
31.0212 14829 121.774
31.1387 14537 120.569
31.2562 14336 119.733
31.3737 13822 117.567
31.4912 13520 116.276
31.6087 13113 114.512
31.7262 12760 112.96
31.8436 11820 108.72
31.9611 11592 107.666
32.0785 11553 107.485
32.1959 11940 109.27
32.3134 12205 110.476
32.4308 12733 112.841
32.5482 13217 114.965
32.6655 13054 114.254
32.7829 12878 113.481
32.9002 13257 115.139
33.0176 13262 115.161
33.1349 13254 115.126
33.2522 13714 117.107
33.3694 13609 116.658
33.4867 13660 116.876
33.6039 13313 115.382
33.7211 13213 114.948
33.8383 13250 115.109
33.9554 13485 116.125
34.0725 13817 117.546
34.1896 13779 117.384
34.3067 14158 118.987
34.4237 14196 119.147
34.5407 13996 118.305
34.6577 14274 119.474
34.7746 14160 118.996
34.8915 13741 117.222
35.0084 13488 116.138
35.1252 13207 114.922
35.242 12840 113.314
35.3587 12320 110.995
35.4755 11359 106.579
35.5921 10971 104.743
35.7088 10702 103.45
35.8254 10744 103.653
35.9419 11190 105.783
36.0584 11537 107.41
36.1749 11818 108.711
36.2913 11820 108.72
36.4077 11603 107.717
36.524 11676 108.056
36.6403 11409 106.813
36.7565 11553 107.485
36.8727 11078 105.252
36.9889 10888 104.346
37.1049 10358 101.774
37.221 0 1
37.3369 0 1
37.4529 0 1
37.5687 0 1
37.6845 0 1
37.8003 0 1
37.916 0 1
38.0316 0 1
38.1472 0 1
40.5851 0 1
40.7008 0 1
40.8164 0 1
40.9322 0 1
41.048 0 1
41.1639 0 1
41.2798 0 1
41.3958 0 1
41.5118 0 1
41.6279 0 1
41.744 6459 80.3679
41.8602 7020 83.7854
41.9765 7629 87.3441
42.0928 8319 91.2086
42.2091 8600 92.7362
42.3255 8950 94.6044
42.4419 9258 96.2185
42.5584 9502 97.4782
42.675 10005 100.025
42.7915 10668 103.286
42.9081 11340 106.489
43.0248 11672 108.037
43.1415 11915 109.156
43.2582 11981 109.458
43.375 12093 109.968
43.4918 12400 111.355
43.6087 12451 111.584
43.7256 12319 110.991
43.8425 12181 110.368
43.9595 11957 109.348
44.0765 11760 108.444
44.1935 11541 107.429
44.3106 11091 105.314
44.4277 10282 101.4
44.5448 9857 99.2824
44.6619 9888 99.4384
44.7791 10377 101.868
44.8963 10511 102.523
45.0136 11299 106.297
45.1308 11643 107.903
45.2481 11711 108.217
45.3654 11545 107.448
45.4827 11818 108.711
45.6001 11894 109.06
45.7174 11931 109.229
45.8348 12295 110.883
45.9522 11714 108.231
46.0697 11701 108.171
46.1871 12007 109.576
46.3046 11889 109.037
46.422 12460 111.624
46.5395 12798 113.128
46.657 13179 114.8
46.7745 13340 115.499
46.892 13559 116.443
47.0096 13842 117.652
47.1271 13619 116.7
47.2446 13522 116.284
47.3622 13839 117.639
47.4797 13606 116.645
47.5973 13367 115.616
47.7149 12678 112.597
47.8324 12405 111.378
47.95 11746 108.379
48.0675 10911 104.456
48.1851 10817 104.005
48.3027 11181 105.74
48.4202 11755 108.42
48.5378 12416 111.427
48.6554 12858 113.393
48.7729 12989 113.969
48.8904 13156 114.7
49.008 12937 113.741
49.1255 13140 114.63
49.243 13147 114.66
49.3605 13123 114.556
49.478 13101 114.46
49.5955 12948 113.789
49.713 13283 115.252
49.8304 13409 115.797
49.9479 13416 115.827
50.0653 14382 119.925
50.1827 14723 121.338
50.3001 14807 121.684
50.4175 15169 123.162
50.5348 15166 123.15
50.6521 15119 122.959
50.7694 15259 123.527
50.8867 15120 122.963
51.004 14940 122.229
51.1212 14681 121.165
51.2384 14447 120.196
51.3556 13414 115.819
51.4727 12370 111.221
51.5899 11892 109.05
51.707 12180 110.363
51.824 12634 112.401
51.9411 13574 116.508
52.0581 14571 120.71
52.175 14882 121.992
52.2919 14896 122.049
52.4088 14811 121.7
52.5257 14969 122.348
52.6425 15296 123.677
52.7593 15194 123.264
52.876 15222 123.377
52.9927 15429 124.214
53.1094 15393 124.069
53.226 14999 122.47
53.3426 15190 123.248
53.4591 15250 123.491
53.5756 15468 124.37
53.692 15483 124.431
53.8084 15512 124.547
53.9248 15029 122.593
54.0411 14691 121.206
54.1573 14094 118.718
54.2735 0 1
54.3896 0 1
54.5057 0 1
54.6217 0 1
54.7377 0 1
54.8537 0 1
54.9695 0 1
55.0853 0 1
55.2011 0 1
55.3168 0 1
55.4324 0 1
57.824 0 1
57.9396 0 1
58.0553 0 1
58.1711 0 1
58.2869 0 1
58.4028 0 1
58.5187 0 1
58.6347 0 1
58.7508 0 1
58.8669 0 1
58.983 12432 111.499
59.0992 14890 122.025
59.2155 16880 129.923
59.3318 18628 136.484
59.4482 20474 143.087
59.5646 22059 148.523
59.681 23151 152.155
59.7975 23716 154
59.9141 23640 153.753
60.0306 24021 154.987
60.1473 22870 151.228
60.2639 21764 147.526
60.3807 21249 145.77
60.4974 21556 146.82
60.6142 22932 151.433
60.731 24667 157.057
60.8479 26630 163.187
60.9648 27174 164.845
61.0818 27905 167.048
61.1987 28481 168.763
61.3158 28458 168.695
61.4328 28708 169.434
61.5499 29073 170.508
61.667 29163 170.772
61.7841 28866 169.9
61.9013 28806 169.723
62.0185 28566 169.015
62.1357 28728 169.493
62.253 29314 171.213
62.3702 30680 175.157
62.4875 30939 175.895
62.6049 31841 178.44
62.7222 32274 179.65
62.8396 32712 180.865
62.9569 33079 181.876
63.0743 32993 181.64
63.1918 32698 180.826
63.3092 31707 178.065
63.4267 30859 175.667
63.5441 28828 169.788
63.6616 26502 162.794
63.7791 24398 156.199
63.8966 23869 154.496
64.0142 24113 155.284
64.1317 25980 161.183
64.2492 27902 167.039
64.3668 29588 172.012
64.4843 30605 174.943
64.6019 31438 177.308
64.7195 31437 177.305
64.837 31557 177.643
64.9546 32153 179.313
65.0722 32175 179.374
65.1898 32260 179.611
65.3074 32366 179.906
65.4249 31518 177.533
65.5425 31364 177.099
65.6601 31512 177.516
65.7777 32196 179.432
65.8952 32197 179.435
66.0128 33218 182.258
66.1304 33718 183.625
66.2479 34461 185.637
66.3655 35026 187.152
66.483 35476 188.351
66.6005 35257 187.768
66.718 35018 187.131
66.8355 34178 184.873
66.953 33369 182.672
67.0705 31757 178.205
67.1879 29611 172.078
67.3054 26912 164.049
67.4228 24516 156.576
67.5402 23603 153.633
67.6576 24971 158.022
67.7749 27234 165.027
67.8923 29174 170.804
68.0096 31528 177.561
68.1269 32375 179.931
68.2442 32828 181.185
68.3614 33124 182
68.4787 33432 182.844
68.5958 33259 182.371
68.713 33535 183.126
68.8302 33598 183.298
68.9473 32481 180.225
69.0643 32346 179.85
69.1814 31959 178.771
69.2984 32057 179.045
69.4154 31670 177.961
69.5323 32376 179.933
69.6492 33200 182.209
69.7661 33906 184.136
69.8829 34467 185.653
69.9997 34773 186.475
70.1165 34445 185.594
70.2332 34153 184.805
70.3499 33405 182.77
70.4665 32108 179.187
70.5831 29695 172.322
70.6996 27980 167.272
70.8161 24769 157.382
70.9326 21467 146.516
71.049 17326 131.628
71.1653 14656 121.062
71.2817 13742 117.226
71.3979 13215 114.957
71.5141 13255 115.13
71.6303 13130 114.586
71.7464 11694 108.139
71.8624 0 1
71.9784 0 1
72.0944 0 1
72.2102 0 1
72.3261 0 1
72.4418 0 1
72.5575 0 1
72.6732 0 1
75.1054 0 1
75.2209 0 1
75.3365 0 1
75.4521 0 1
75.5678 0 1
75.6835 0 1
75.7993 0 1
75.9151 0 1
76.031 0 1
76.147 17089 130.725
76.263 17410 131.947
76.3791 17023 130.472
76.4952 16852 129.815
76.6113 18139 134.681
76.7276 21020 144.983
76.8438 23918 154.654
76.9601 26725 163.478
77.0765 27881 166.976
77.1929 29007 170.314
77.3093 29162 170.769
77.4258 29656 172.209
77.5423 29514 171.796
77.6589 29835 172.728
77.7755 29824 172.696
77.8921 29263 171.064
78.0088 28929 170.085
78.1256 28433 168.621
78.2423 28049 167.478
78.3591 27763 166.622
78.4759 28205 167.943
78.5928 28513 168.858
78.7097 29216 170.927
78.8266 29357 171.339
78.9436 31926 178.678
79.0606 31233 176.729
79.1776 31561 177.654
79.2946 32374 179.928
79.4117 32188 179.41
79.5288 31527 177.558
79.6459 29748 172.476
79.7631 27948 167.177
79.8802 25355 159.233
79.9974 22650 150.499
80.1147 20345 142.636
80.2319 20397 142.818
80.3491 22666 150.552
80.4664 25134 158.537
80.5837 27917 167.084
80.701 29129 170.672
80.8183 29361 171.351
80.9357 30038 173.315
81.053 30219 173.836
81.1704 30810 175.528
81.2877 30500 174.642
81.4051 30589 174.897
81.5225 30899 175.781
81.6399 30026 173.28
81.7573 30222 173.845
81.8747 28816 169.753
81.9922 28875 169.926
82.1096 29293 171.152
82.227 29871 172.832
82.3444 29938 173.026
82.4619 31358 177.082
82.5793 32340 179.833
82.6967 32884 181.339
82.8142 33289 182.453
82.9316 33412 182.789
83.049 32952 181.527
83.1664 32135 179.262
83.2838 30559 174.811
83.4012 28662 169.299
83.5186 26038 161.363
83.636 23074 151.901
83.7534 20589 143.489
83.8708 20236 142.253
83.9881 22213 149.04
84.1055 24695 157.146
84.2228 27892 167.009
84.3401 29879 172.855
84.4575 31004 176.08
84.5747 31379 177.141
84.692 31624 177.831
84.8093 32028 178.964
84.9265 31836 178.426
85.0437 31614 177.803
85.1609 31214 176.675
85.2781 30383 174.307
85.3952 29965 173.104
85.5123 29652 172.198
85.6294 29445 171.595
85.7465 29697 172.328
85.8636 30398 174.35
85.9806 31017 176.116
86.0976 32392 179.978
86.2145 32688 180.798
86.3315 34159 184.822
86.4484 32948 181.516
86.5652 33495 183.016
86.682 33246 182.335
86.7988 32158 179.327
86.9156 30491 174.617
87.0323 28793 169.685
87.149 25674 160.231
87.2657 22793 150.974
87.3823 20969 144.807
87.4988 22045 148.476
87.6154 23794 154.253
87.7318 26334 162.278
87.8483 27955 167.197
87.9647 27905 167.048
88.081 28214 167.97
88.1973 28030 167.422
88.3136 26502 162.794
88.4298 24338 156.006
88.546 21718 147.37
88.6621 18894 137.455
88.7781 16411 128.105
88.8942 0 1
89.0101 0 1
89.126 0 1
89.2419 0 1
89.3577 0 1
89.4734 0 1
89.5891 0 1
89.7047 0 1
89.8203 0 1
89.9358 0 1
92.3269 0 1
92.4424 0 1
92.558 0 1
92.6736 0 1
92.7893 0 1
92.905 0 1
93.0208 0 1
93.1366 0 1
93.2525 0 1
93.3685 0 1
93.4845 0 1
93.6005 22567 150.223
93.7167 24788 157.442
93.8328 26408 162.505
93.949 28328 168.309
94.0653 29892 172.893
94.1816 31106 176.369
94.2979 31936 178.706
94.4143 32064 179.064
94.5307 31847 178.457
94.6472 31405 177.215
94.7637 31509 177.508
94.8803 32249 179.58
94.9969 32869 181.298
95.1135 32979 181.601
95.2302 34029 184.47
95.3469 34918 186.864
95.4637 35493 188.396
95.5805 35832 189.293
95.6973 35402 188.154
95.8142 34276 185.138
95.9311 33030 181.742
96.048 31197 176.627
96.1649 29125 170.66
96.2819 27058 164.493
96.3989 24926 157.88
96.516 23587 153.581
96.633 24621 156.911
96.7501 26093 161.533
96.8673 28283 168.176
96.9844 30472 174.562
97.1016 32063 179.061
97.2188 33197 182.2
97.336 33423 182.82
97.4532 33438 182.861
97.5704 33425 182.825
97.6877 32919 181.436
97.805 32442 180.117
97.9223 31835 178.424
98.0396 31482 177.432
98.1569 31082 176.301
98.2743 30991 176.043
98.3916 31018 176.119
98.509 32095 179.151
98.6264 32806 181.124
98.7438 34116 184.705
98.8612 34614 186.048
98.9786 35544 188.531
99.096 36286 190.489
99.2134 36556 191.196
99.3308 35873 189.402
99.4482 35386 188.112
99.5656 33840 183.957
99.6831 31850 178.466
99.8005 29834 172.725
99.9179 27788 166.697
100.035 26526 162.868
100.153 26961 164.198
100.27 28367 168.425
100.388 30418 174.408
100.505 32001 178.888
100.622 32893 181.364
100.74 33092 181.912
100.857 33561 183.197
100.975 33942 184.234
101.092 34132 184.748
101.209 33799 183.845
101.327 33250 182.346
101.444 33156 182.088
101.561 32338 179.828
101.679 31993 178.866
101.796 31828 178.404
101.913 32042 179.003
102.03 33065 181.838
102.148 33900 184.12
102.265 35262 187.782
102.382 35690 188.918
102.499 36665 191.481
102.616 36917 192.138
102.733 37197 192.865
102.851 36363 190.691
102.968 36428 190.861
103.085 34522 185.801
103.202 32511 180.308
103.319 30640 175.043
103.436 28359 168.401
103.552 26992 164.292
103.669 26767 163.606
103.786 28335 168.33
103.903 30082 173.442
104.02 32191 179.419
104.137 33190 182.181
104.253 33634 183.396
104.37 33547 183.158
104.487 34171 184.854
104.603 33749 183.709
104.72 32914 181.422
104.836 32043 179.006
104.953 31127 176.428
105.069 30247 173.917
105.186 29262 171.061
105.302 28184 167.881
105.418 27325 165.303
105.535 26958 164.189
105.651 26257 162.04
105.767 25210 158.777
105.883 23209 152.345
105.999 20398 142.822
106.115 0 1
106.231 0 1
106.347 0 1
106.463 0 1
106.579 0 1
106.694 0 1
106.81 0 1
106.926 0 1
107.041 0 1
107.157 0 1
109.576 0 1
109.692 0 1
109.807 0 1
109.923 0 1
110.039 0 1
110.155 0 1
110.27 0 1
110.386 0 1
110.502 0 1
110.618 15123 122.976
110.735 18309 135.311
110.851 20921 144.641
110.967 23853 154.444
111.083 26382 162.425
111.199 28986 170.253
111.316 30012 173.24
111.432 31396 177.189
111.549 32042 179.003
111.665 32227 179.519
111.782 31284 176.873
111.898 29674 172.261
112.015 28129 167.717
112.132 25484 159.637
112.248 23845 154.418
112.365 24110 155.274
112.482 26243 161.997
112.599 28202 167.935
112.716 29372 171.383
112.832 29871 172.832
112.949 30236 173.885
113.066 30523 174.708
113.183 30521 174.703
113.3 30079 173.433
113.417 30002 173.211
113.534 29116 170.634
113.652 28763 169.597
113.769 27803 166.742
113.886 27711 166.466
114.003 27348 165.372
114.12 27962 167.218
114.238 28967 170.197
114.355 29925 172.988
114.472 30742 175.334
114.589 31387 177.164
114.707 31432 177.291
114.824 31966 178.79
114.942 32239 179.552
115.059 31969 178.799
115.176 31400 177.2
115.294 29846 172.76
115.411 28718 169.464
115.529 27469 165.738
115.646 25601 160.003
115.764 23537 153.418
115.881 23551 153.463
115.999 24567 156.739
116.116 27053 164.478
116.234 27944 167.165
116.351 28128 167.714
116.469 28483 168.769
116.586 28721 169.473
116.704 28881 169.944
116.821 28799 169.703
116.939 28482 168.766
117.056 28088 167.595
117.174 27216 164.973
117.291 26640 163.218
117.409 25962 161.127
117.526 25819 160.683
117.644 26049 161.397
117.761 26885 163.966
117.879 27905 167.048
117.996 28341 168.348
118.114 29669 172.247
118.231 29630 172.134
118.349 30058 173.372
118.466 29767 172.531
118.584 30071 173.41
118.701 29649 172.189
118.819 28515 168.864
118.936 27342 165.354
119.053 26266 162.068
119.171 24902 157.804
119.288 23087 151.944
119.405 21907 148.01
119.523 22727 150.755
119.64 24104 155.255
119.757 25638 160.119
119.875 26481 162.73
119.992 26482 162.733
120.109 26585 163.049
120.226 26451 162.638
120.343 26305 162.188
120.46 26101 161.558
120.578 26144 161.691
120.695 25714 160.356
120.812 24940 157.924
120.929 24435 156.317
121.046 23930 154.693
121.163 23277 152.568
121.279 23661 153.821
121.396 24670 157.067
121.513 25082 158.373
121.63 25901 160.938
121.747 25340 159.185
121.863 25601 160.003
121.98 25912 160.972
122.097 25359 159.245
122.213 25206 158.764
122.33 24297 155.875
122.446 22960 151.526
122.563 21433 146.4
122.679 19206 138.586
122.795 17455 132.117
122.912 15102 122.89
123.028 13636 116.773
123.144 13034 114.167
123.26 12534 111.955
123.377 0 1
123.493 0 1
123.609 0 1
123.725 0 1
123.84 0 1
123.956 0 1
124.072 0 1
124.188 0 1
124.303 0 1
124.419 0 1
126.852 0 1
126.968 0 1
127.083 0 1
127.199 0 1
127.315 0 1
127.431 0 1
127.547 0 1
127.663 0 1
127.779 0 1
127.895 0 1
128.011 0 1
128.127 0 1
128.243 0 1
128.359 25268 158.959
128.476 24587 156.802
128.592 24862 157.677
128.708 26043 161.378
128.825 27817 166.784
128.941 29003 170.303
129.058 28917 170.05
129.174 28888 169.965
129.291 29224 170.95
129.408 29524 171.825
129.524 29547 171.892
129.641 29164 170.775
129.758 28036 167.44
129.875 27212 164.961
129.992 26438 162.598
130.108 26118 161.611
130.225 25894 160.916
130.342 26784 163.658
130.459 27835 166.838
130.576 29589 172.015
130.693 29997 173.196
130.81 29791 172.601
130.928 29322 171.237
131.045 29770 172.54
131.162 30005 173.22
131.279 30329 174.152
131.396 30317 174.118
131.513 29831 172.717
131.631 29032 170.388
131.748 27859 166.91
131.865 26414 162.524
131.983 25380 159.311
132.1 24667 157.057
132.217 25927 161.019
132.335 27758 166.607
132.452 28931 170.091
132.57 29086 170.546
132.687 28584 169.068
132.804 29330 171.26
132.922 29224 170.95
133.039 28943 170.126
133.157 29114 170.628
133.274 28241 168.051
133.392 27195 164.909
133.509 26460 162.665
133.627 25917 160.988
133.744 25906 160.953
133.862 26490 162.757
133.979 27907 167.054
134.097 28933 170.097
134.214 29761 172.514
134.332 29661 172.224
134.449 29110 170.617
134.567 28980 170.235
134.684 29079 170.526
134.802 29733 172.433
134.919 29968 173.113
135.037 29432 171.558
135.154 28759 169.585
135.272 28047 167.472
135.389 26720 163.463
135.507 25695 160.297
135.624 25119 158.49
135.742 25434 159.48
135.859 26808 163.731
135.977 28186 167.887
136.094 28879 169.938
136.211 28650 169.263
136.329 28517 168.87
136.446 28468 168.725
136.564 28244 168.06
136.681 28803 169.714
136.798 28284 168.178
136.915 27268 165.13
137.033 26346 162.315
137.15 25681 160.253
137.267 25217 158.799
137.384 25490 159.656
137.502 25535 159.797
137.619 26724 163.475
137.736 28159 167.806
137.853 27178 164.858
137.97 28022 167.398
138.087 27584 166.084
138.204 27519 165.889
138.321 28098 167.625
138.438 27823 166.802
138.555 28108 167.654
138.672 27694 166.415
138.788 26547 162.933
138.905 25373 159.289
139.022 24340 156.013
139.139 23032 151.763
139.255 22206 149.017
139.372 22090 148.627
139.488 22086 148.614
139.605 22317 149.389
139.721 21993 148.3
139.838 20917 144.627
139.954 19635 140.125
140.071 17687 132.992
140.187 17026 130.484
140.303 16356 127.891
140.419 15670 125.18
140.535 14867 121.93
140.652 13697 117.034
140.768 0 1
140.884 0 1
141 0 1
141.115 0 1
141.231 0 1
141.347 0 1
141.463 0 1
141.578 0 1
141.694 0 1
144.104 0 1
144.219 0 1
144.335 0 1
144.45 0 1
144.566 0 1
144.682 0 1
144.798 0 1
144.914 0 1
145.03 0 1
145.146 19646 140.164
145.262 20712 143.917
145.378 20894 144.548
145.494 20737 144.003
145.61 20877 144.489
145.726 20350 142.653
145.842 19358 139.133
145.959 19004 137.855
146.075 18955 137.677
146.192 18691 136.715
146.308 19217 138.625
146.425 19767 140.595
146.541 20488 143.136
146.658 20438 142.962
146.774 20603 143.537
146.891 20477 143.098
147.008 20693 143.851
147.125 20228 142.225
147.241 20683 143.816
147.358 20972 144.817
147.475 21025 145
147.592 20862 144.437
147.709 19799 140.709
147.826 19184 138.506
147.943 18387 135.599
148.06 18251 135.096
148.177 18667 136.627
148.294 19571 139.896
148.411 20246 142.288
148.528 20824 144.305
148.645 20419 142.895
148.762 20708 143.903
148.88 20479 143.105
148.997 20978 144.838
149.114 19743 140.51
149.231 20338 142.611
149.349 19994 141.4
149.466 18911 137.517
149.583 18598 136.374
149.701 18210 134.944
149.818 17950 133.978
149.935 18059 134.384
150.053 18732 136.865
150.17 19584 139.943
150.287 19536 139.771
150.405 19821 140.787
150.522 19496 139.628
150.64 19586 139.95
150.757 19796 140.698
150.875 20249 142.299
150.992 20656 143.722
151.11 20142 141.923
151.227 20155 141.968
151.344 19217 138.625
151.462 18929 137.583
151.579 17881 133.72
151.697 17498 132.28
151.814 18231 135.022
151.932 18669 136.635
152.049 19465 139.517
152.167 19689 140.317
152.284 19765 140.588
152.402 19748 140.528
152.519 19507 139.667
152.636 19423 139.366
152.754 19405 139.302
152.871 19274 138.831
152.989 18393 135.621
153.106 18047 134.339
153.223 17338 131.674
153.341 17026 130.484
153.458 16895 129.981
153.575 17199 131.145
153.693 17850 133.604
153.81 17936 133.925
153.927 18477 135.93
154.044 18456 135.853
154.162 18395 135.628
154.279 18613 136.429
154.396 18756 136.953
154.513 19282 138.86
154.63 19497 139.632
154.747 19295 138.906
154.864 18738 136.887
154.981 17900 133.791
155.098 17264 131.393
155.215 16792 129.584
155.332 16952 130.2
155.449 17340 131.681
155.566 17780 133.342
155.683 18191 134.874
155.8 17868 133.671
155.917 17365 131.776
156.033 17082 130.698
156.15 0 1
156.267 0 1
156.383 0 1
156.5 0 1
156.617 0 1
156.733 0 1
156.85 0 1
156.966 0 1
157.082 0 1
157.199 0 1
157.315 0 1
157.431 0 1
157.547 0 1
157.664 0 1
157.78 0 1
157.896 0 1
158.012 0 1
158.128 0 1
158.244 0 1
158.359 0 1
158.475 0 1
158.591 0 1
158.706 0 1
