
6.15755 0 1
6.2731 0 1
6.3887 0 1
6.50437 0 1
6.62009 0 1
6.73587 0 1
6.8517 0 1
6.96759 0 1
7.08353 0 1
7.19952 0 1
7.31557 0 1
7.43166 0 1
7.54781 0 1
7.664 0 1
7.78024 0 1
7.89653 0 1
8.01286 0 1
8.12924 0 1
8.24567 0 1
8.36213 0 1
8.47864 0 1
8.59519 0 1
8.71178 0 1
8.82841 0 1
8.94508 0 1
9.06179 0 1
9.17853 0 1
9.29531 0 1
9.41212 0 1
9.52897 0 1
9.64584 0 1
9.76276 0 1
9.8797 0 1
9.99667 0 1
10.1137 0 1
10.2307 0 1
10.3478 0 1
10.4648 0 1
10.5819 0 1
10.6991 0 1
10.8162 0 1
10.9334 0 1
11.0506 0 1
11.1678 0 1
11.285 0 1
11.4023 0 1
11.5196 0 1
11.6369 0 1
11.7542 0 1
11.8715 0 1
11.9888 0 1
12.1062 0 1
12.2235 0 1
12.3409 0 1
12.4582 0 1
12.5756 0 1
12.693 0 1
12.8104 0 1
12.9278 0 1
13.0452 0 1
13.1626 0 1
13.28 0 1
13.3974 0 1
13.5149 0 1
13.6323 0 1
13.7497 0 1
13.8671 0 1
13.9845 0 1
14.1019 0 1
14.2193 0 1
14.3367 0 1
14.4541 0 1
14.5714 0 1
14.6888 0 1
14.8062 0 1
14.9235 0 1
15.0408 8156 90.3106
15.1581 8459 91.9728
15.2755 8828 93.9574
15.3927 9124 95.5196
15.51 8859 94.1223
15.6273 8807 93.8456
15.7445 8799 93.803
15.8617 8845 94.0479
15.9789 8436 91.8477
16.0961 8182 90.4544
16.2132 8036 89.6437
16.3304 7963 89.2356
16.4475 7869 88.7074
16.5646 7835 88.5155
16.6816 7522 86.7295
16.7986 7331 85.6213
16.9156 7244 85.1117
17.0326 7030 83.8451
17.1496 7050 83.9643
17.2665 6861 82.8312
17.3833 6951 83.3727
17.5002 6916 83.1625
17.617 7011 83.7317
17.7338 7002 83.678
17.8505 7334 85.6388
17.9672 7520 86.7179
18.0839 7607 87.2181
18.2005 8006 89.4763
18.3171 7756 88.0682
18.4337 8113 90.0722
18.5502 8138 90.2109
18.6666 8204 90.5759
18.7831 8224 90.6863
18.8994 8221 90.6697
19.0158 8010 89.4986
19.1321 7732 87.9318
19.2483 7426 86.1742
19.3645 7061 84.0298
19.4806 6675 81.7007
19.5967 6347 79.6681
19.7128 6110 78.1665
19.8288 5687 75.4122
19.9447 4851 69.6491
20.0606 0 1
20.1764 0 1
20.2922 0 1
20.4079 0 1
20.5236 0 1
20.6392 0 1
20.7548 0 1
20.8702 0 1
23.3078 0 1
23.4233 0 1
23.539 0 1
23.6547 0 1
23.7704 0 1
23.8862 0 1
24.0021 0 1
24.118 0 1
24.234 0 1
24.35 0 1
24.4661 3515 59.2874
24.5822 3843 61.9919
24.6984 4458 66.7683
24.8146 4979 70.562
24.9309 5641 75.1066
25.0472 6281 79.2528
25.1636 6702 81.8657
25.28 7222 84.9824
25.3965 7500 86.6025
25.513 7798 88.3063
25.6296 8050 89.7218
25.7462 8389 91.5915
25.8628 8322 91.225
25.9795 8339 91.3181
26.0962 8199 90.5483
26.213 8350 91.3783
26.3298 8198 90.5428
26.4466 8291 91.0549
26.5635 8281 91
26.6804 8373 91.5041
26.7973 8414 91.7279
26.9143 8493 92.1575
27.0313 8259 90.879
27.1483 8336 91.3017
27.2653 8664 93.0806
27.3824 8647 92.9892
27.4996 8820 93.9149
27.6167 8816 93.8936
27.7339 8680 93.1665
27.8511 8332 91.2798
27.9683 8436 91.8477
28.0855 8094 89.9667
28.2028 8125 90.1388
28.3201 8276 90.9725
28.4374 8234 90.7414
28.5547 8222 90.6752
28.6721 8444 91.8912
28.7894 8485 92.1141
28.9068 8368 91.4768
29.0242 8233 90.7359
29.1416 8225 90.6918
29.259 8278 90.9835
29.3764 8127 90.1499
29.4939 8098 89.9889
29.6113 8058 89.7664
29.7288 8009 89.493
29.8463 7978 89.3197
29.9638 8178 90.4323
30.0812 8200 90.5539
30.1987 8513 92.2659
30.3162 8376 91.5205
30.4337 8165 90.3604
30.5512 8267 90.923
30.6687 8394 91.6188
30.7862 8596 92.7146
30.9037 8814 93.8829
31.0212 8746 93.5201
31.1387 8925 94.4722
31.2562 8955 94.6309
31.3737 8623 92.8601
31.4912 8536 92.3905
31.6087 8494 92.1629
31.7262 8442 91.8804
31.8436 8327 91.2524
31.9611 8428 91.8041
32.0785 8479 92.0815
32.1959 8545 92.4392
32.3134 8628 92.887
32.4308 8731 93.4398
32.5482 8698 93.2631
32.6655 8417 91.7442
32.7829 8153 90.294
32.9002 8305 91.1318
33.0176 8108 90.0444
33.1349 8106 90.0333
33.2522 8193 90.5152
33.3694 8274 90.9615
33.4867 8217 90.6477
33.6039 8206 90.587
33.7211 8282 91.0055
33.8383 8605 92.7631
33.9554 8542 92.4229
34.0725 8657 93.043
34.1896 8538 92.4013
34.3067 8469 92.0272
34.4237 8850 94.0744
34.5407 8931 94.504
34.6577 9189 95.8593
34.7746 9036 95.0579
34.8915 9252 96.1873
35.0084 8943 94.5674
35.1252 8795 93.7817
35.242 8599 92.7308
35.3587 8680 93.1665
35.4755 8696 93.2523
35.5921 8611 92.7955
35.7088 8658 93.0484
35.8254 8500 92.1954
35.9419 8469 92.0272
36.0584 8526 92.3363
36.1749 8476 92.0652
36.2913 8274 90.9615
36.4077 7958 89.2076
36.524 7336 85.6505
36.6403 6983 83.5643
36.7565 6442 80.2621
36.8727 5932 77.0195
36.9889 5521 74.3034
37.1049 5221 72.2565
37.221 0 1
37.3369 0 1
37.4529 0 1
37.5687 0 1
37.6845 0 1
37.8003 0 1
37.916 0 1
38.0316 0 1
38.1472 0 1
40.5851 0 1
40.7008 0 1
40.8164 0 1
40.9322 0 1
41.048 0 1
41.1639 0 1
41.2798 0 1
41.3958 0 1
41.5118 0 1
41.6279 0 1
41.744 4539 67.3721
41.8602 5412 73.5663
41.9765 6188 78.6638
42.0928 6960 83.4266
42.2091 7456 86.3481
42.3255 8031 89.6158
42.4419 8334 91.2907
42.5584 8814 93.8829
42.675 9103 95.4096
42.7915 9153 95.6713
42.9081 9214 95.9896
43.0248 9146 95.6347
43.1415 9704 98.5089
43.2582 9921 99.6042
43.375 10682 103.354
43.4918 11163 105.655
43.6087 11458 107.042
43.7256 11585 107.634
43.8425 11808 108.665
43.9595 11959 109.357
44.0765 11927 109.211
44.1935 12249 110.675
44.3106 12195 110.431
44.4277 12447 111.566
44.5448 12611 112.299
44.6619 12538 111.973
44.7791 12913 113.635
44.8963 12653 112.486
45.0136 12579 112.156
45.1308 12731 112.832
45.2481 12484 111.732
45.3654 12557 112.058
45.4827 12380 111.265
45.6001 12099 109.995
45.7174 11881 109
45.8348 11760 108.444
45.9522 11754 108.416
46.0697 11635 107.866
46.1871 11028 105.014
46.3046 10713 103.504
46.422 10190 100.946
46.5395 9884 99.4183
46.657 10094 100.469
46.7745 10570 102.811
46.892 10759 103.726
47.0096 11235 105.995
47.1271 11346 106.518
47.2446 11245 106.042
47.3622 10994 104.852
47.4797 10743 103.648
47.5973 10441 102.181
47.7149 10483 102.387
47.8324 10062 100.31
47.95 10105 100.524
48.0675 10072 100.359
48.1851 9625 98.1071
48.3027 9611 98.0357
48.4202 9409 97
48.5378 9524 97.591
48.6554 9432 97.1185
48.7729 9268 96.2705
48.8904 9365 96.7729
49.008 9231 96.0781
49.1255 9127 95.5353
49.243 8906 94.3716
49.3605 8940 94.5516
49.478 8952 94.615
49.5955 8865 94.1541
49.713 8895 94.3133
49.8304 8697 93.2577
49.9479 8404 91.6733
50.0653 8619 92.8386
50.1827 9127 95.5353
50.3001 9222 96.0312
50.4175 9716 98.5698
50.5348 9953 99.7647
50.6521 10289 101.435
50.7694 10340 101.686
50.8867 10481 102.377
51.004 10336 101.666
51.1212 10524 102.587
51.2384 10306 101.518
51.3556 10533 102.63
51.4727 10119 100.593
51.5899 10261 101.297
51.707 9961 99.8048
51.824 9811 99.0505
51.9411 9563 97.7906
52.0581 9653 98.2497
52.175 9648 98.2242
52.2919 9314 96.5091
52.4088 9490 97.4166
52.5257 9446 97.1905
52.6425 9086 95.3205
52.7593 8996 94.8472
52.876 8823 93.9308
52.9927 8905 94.3663
53.1094 8924 94.4669
53.226 8696 93.2523
53.3426 8321 91.2195
53.4591 8080 89.8888
53.5756 7729 87.9147
53.692 7324 85.5804
53.8084 7154 84.5813
53.9248 6882 82.9578
54.0411 6526 80.7837
54.1573 5896 76.7854
54.2735 0 1
54.3896 0 1
54.5057 0 1
54.6217 0 1
54.7377 0 1
54.8537 0 1
54.9695 0 1
55.0853 0 1
55.2011 0 1
55.3168 0 1
55.4324 0 1
57.824 0 1
57.9396 0 1
58.0553 0 1
58.1711 0 1
58.2869 0 1
58.4028 0 1
58.5187 0 1
58.6347 0 1
58.7508 0 1
58.8669 0 1
58.983 7914 88.9607
59.0992 9071 95.2418
59.2155 10166 100.827
59.3318 11009 104.924
59.4482 12035 109.704
59.5646 12729 112.823
59.681 13235 115.043
59.7975 13761 117.307
59.9141 13725 117.154
60.0306 13322 115.421
60.1473 13260 115.152
60.2639 13119 114.538
60.3807 13464 116.034
60.4974 13129 114.582
60.6142 13202 114.9
60.731 12977 113.917
60.8479 12949 113.794
60.9648 12907 113.609
61.0818 12837 113.3
61.1987 12949 113.794
61.3158 12786 113.075
61.4328 12846 113.34
61.5499 12821 113.23
61.667 12660 112.517
61.7841 12789 113.088
61.9013 12706 112.721
62.0185 12419 111.441
62.1357 12667 112.548
62.253 12903 113.591
62.3702 13087 114.398
62.4875 13830 117.601
62.6049 14081 118.663
62.7222 14630 120.955
62.8396 15238 123.442
62.9569 15454 124.314
63.0743 15689 125.256
63.1918 15729 125.415
63.3092 15115 122.943
63.4267 15065 122.74
63.5441 14794 121.631
63.6616 14603 120.843
63.7791 14347 119.779
63.8966 14309 119.62
64.0142 13890 117.856
64.1317 13774 117.363
64.2492 13579 116.529
64.3668 13149 114.669
64.4843 13101 114.46
64.6019 13045 114.215
64.7195 13169 114.756
64.837 13157 114.704
64.9546 13182 114.813
65.0722 13269 115.191
65.1898 13258 115.143
65.3074 13140 114.63
65.4249 12843 113.327
65.5425 12681 112.61
65.6601 12716 112.765
65.7777 12748 112.907
65.8952 13428 115.879
66.0128 13769 117.341
66.1304 14588 120.781
66.2479 14988 122.425
66.3655 15427 124.205
66.483 15839 125.853
66.6005 15899 126.091
66.718 16101 126.89
66.8355 15904 126.111
66.953 15938 126.246
67.0705 15606 124.924
67.1879 15086 122.825
67.3054 14755 121.47
67.4228 14346 119.775
67.5402 14096 118.727
67.6576 13677 116.949
67.7749 13546 116.387
67.8923 13428 115.879
68.0096 13346 115.525
68.1269 13247 115.096
68.2442 13602 116.628
68.3614 13795 117.452
68.4787 13654 116.85
68.5958 13490 116.146
68.713 13334 115.473
68.8302 13412 115.81
68.9473 13134 114.604
69.0643 12702 112.703
69.1814 12410 111.4
69.2984 12150 110.227
69.4154 12485 111.736
69.5323 12918 113.657
69.6492 13496 116.172
69.7661 13962 118.161
69.8829 14016 118.389
69.9997 14416 120.067
70.1165 14302 119.591
70.2332 13910 117.941
70.3499 13871 117.775
70.4665 12988 113.965
70.5831 12000 109.545
70.6996 10873 104.274
70.8161 9982 99.91
70.9326 9129 95.5458
71.049 8157 90.3161
71.1653 7798 88.3063
71.2817 7131 84.4452
71.3979 6663 81.6272
71.5141 6344 79.6492
71.6303 5916 76.9155
71.7464 5313 72.8903
71.8624 0 1
71.9784 0 1
72.0944 0 1
72.2102 0 1
72.3261 0 1
72.4418 0 1
72.5575 0 1
72.6732 0 1
75.1054 0 1
75.2209 0 1
75.3365 0 1
75.4521 0 1
75.5678 0 1
75.6835 0 1
75.7993 0 1
75.9151 0 1
76.031 0 1
76.147 11112 105.413
76.263 11760 108.444
76.3791 11990 109.499
76.4952 12231 110.594
76.6113 12133 110.15
76.7276 12182 110.372
76.8438 12705 112.716
76.9601 12444 111.553
77.0765 12441 111.539
77.1929 12758 112.951
77.3093 13365 115.607
77.4258 13611 116.666
77.5423 13669 116.914
77.6589 13506 116.215
77.7755 13836 117.627
77.8921 13158 114.708
78.0088 12910 113.622
78.1256 12375 111.243
78.2423 11980 109.453
78.3591 11858 108.894
78.4759 12479 111.709
78.5928 13405 115.78
78.7097 14246 119.357
78.8266 14666 121.103
78.9436 15269 123.568
79.0606 15543 124.672
79.1776 16078 126.799
79.2946 16385 128.004
79.4117 16936 130.138
79.5288 16979 130.303
79.6459 16865 129.865
79.7631 16172 127.169
79.8802 15612 124.948
79.9974 15163 123.138
80.1147 14733 121.38
80.2319 14792 121.622
80.3491 14719 121.322
80.4664 14749 121.445
80.5837 14832 121.787
80.701 14575 120.727
80.8183 14561 120.669
80.9357 14997 122.462
81.053 15191 123.252
81.1704 15306 123.717
81.2877 15351 123.899
81.4051 15270 123.572
81.5225 15115 122.943
81.6399 14750 121.45
81.7573 13901 117.903
81.8747 13330 115.456
81.9922 12916 113.649
82.1096 13409 115.797
82.227 14647 121.025
82.3444 15802 125.706
82.4619 16803 129.626
82.5793 17055 130.595
82.6967 17172 131.042
82.8142 17945 133.959
82.9316 18269 135.163
83.049 18548 136.191
83.1664 18260 135.13
83.2838 18434 135.772
83.4012 17490 132.25
83.5186 17079 130.687
83.636 16270 127.554
83.7534 16419 128.137
83.8708 16229 127.393
83.9881 16230 127.397
84.1055 16176 127.185
84.2228 16363 127.918
84.3401 16535 128.588
84.4575 16033 126.621
84.5747 16715 129.287
84.692 16982 130.315
84.8093 17508 132.318
84.9265 17178 131.065
85.0437 16834 129.746
85.1609 16376 127.969
85.2781 15422 124.185
85.3952 14768 121.524
85.5123 14419 120.079
85.6294 14452 120.216
85.7465 15316 123.758
85.8636 16377 127.973
85.9806 17283 131.465
86.0976 17922 133.873
86.2145 18565 136.253
86.3315 18534 136.14
86.4484 19632 140.114
86.5652 19460 139.499
86.682 19751 140.538
86.7988 19640 140.143
86.9156 19012 137.884
87.0323 18584 136.323
87.149 18102 134.544
87.2657 17767 133.293
87.3823 17241 131.305
87.4988 16251 127.479
87.6154 16009 126.527
87.7318 15257 123.519
87.8483 14373 119.887
87.9647 13400 115.758
88.081 12488 111.75
88.1973 12210 110.499
88.3136 11494 107.21
88.4298 10681 103.349
88.546 9598 97.9694
88.6621 8684 93.188
88.7781 7965 89.2468
88.8942 0 1
89.0101 0 1
89.126 0 1
89.2419 0 1
89.3577 0 1
89.4734 0 1
89.5891 0 1
89.7047 0 1
89.8203 0 1
89.9358 0 1
92.3269 0 1
92.4424 0 1
92.558 0 1
92.6736 0 1
92.7893 0 1
92.905 0 1
93.0208 0 1
93.1366 0 1
93.2525 0 1
93.3685 0 1
93.4845 0 1
93.6005 15508 124.531
93.7167 17422 131.992
93.8328 18724 136.836
93.949 19550 139.821
94.0653 19894 141.046
94.1816 19989 141.382
94.2979 20159 141.982
94.4143 19139 138.344
94.5307 18326 135.374
94.6472 17505 132.306
94.7637 17346 131.704
94.8803 17661 132.895
94.9969 18842 137.266
95.1135 19824 140.798
95.2302 20681 143.809
95.3469 22222 149.07
95.4637 22539 150.13
95.5805 23211 152.352
95.6973 23432 153.075
95.8142 23947 154.748
95.9311 23665 153.834
96.048 23555 153.476
96.1649 23774 154.188
96.2819 22735 150.781
96.3989 22363 149.543
96.516 21932 148.095
96.633 21746 147.465
96.7501 21643 147.116
96.8673 21637 147.095
96.9844 21359 146.147
97.1016 22003 148.334
97.2188 21717 147.367
97.336 22237 149.121
97.4532 22550 150.167
97.5704 22998 151.651
97.6877 23183 152.26
97.805 22865 151.212
97.9223 22328 149.426
98.0396 21297 145.935
98.1569 20047 141.587
98.2743 19209 138.597
98.3916 18276 135.189
98.509 18485 135.96
98.6264 19432 139.399
98.7438 20863 144.44
98.8612 22056 148.513
98.9786 23428 153.062
99.096 23859 154.464
99.2134 24790 157.448
99.3308 25138 158.55
99.4482 25661 160.191
99.5656 26271 162.083
99.6831 25948 161.084
99.8005 25442 159.505
99.9179 24619 156.904
100.035 23708 153.974
100.153 23416 153.023
100.27 23661 153.821
100.388 22891 151.298
100.505 23233 152.424
100.622 22947 151.483
100.74 22477 149.923
100.857 22799 150.993
100.975 23154 152.164
101.092 23883 154.541
101.209 24277 155.811
101.327 24235 155.676
101.444 23899 154.593
101.561 23279 152.575
101.679 21760 147.513
101.796 20763 144.094
101.913 19444 139.442
102.03 19262 138.788
102.148 20071 141.672
102.265 21307 145.969
102.382 23081 151.924
102.499 23991 154.89
102.616 25254 158.915
102.733 25310 159.091
102.851 26156 161.728
102.968 26144 161.691
103.085 26973 164.235
103.202 26496 162.776
103.319 26123 161.626
103.436 25093 158.408
103.552 24295 155.869
103.669 24125 155.322
103.786 23622 153.695
103.903 23553 153.47
104.02 22981 151.595
104.137 23036 151.776
104.253 22237 149.121
104.37 23095 151.97
104.487 22998 151.651
104.603 23270 152.545
104.72 23153 152.161
104.836 22530 150.1
104.953 21268 145.836
105.069 19277 138.842
105.186 17392 131.879
105.302 15860 125.936
105.418 14266 119.44
105.535 12849 113.353
105.651 12041 109.731
105.767 11408 106.808
105.883 11285 106.231
105.999 10988 104.824
106.115 0 1
106.231 0 1
106.347 0 1
106.463 0 1
106.579 0 1
106.694 0 1
106.81 0 1
106.926 0 1
107.041 0 1
107.157 0 1
109.576 0 1
109.692 0 1
109.807 0 1
109.923 0 1
110.039 0 1
110.155 0 1
110.27 0 1
110.386 0 1
110.502 0 1
110.618 10630 103.102
110.735 13076 114.35
110.851 15148 123.077
110.967 17508 132.318
111.083 19812 140.755
111.199 21180 145.534
111.316 22200 148.997
111.432 22748 150.824
111.549 23306 152.663
111.665 22939 151.456
111.782 23104 152
111.898 22994 151.638
112.015 22622 150.406
112.132 22101 148.664
112.248 21956 148.176
112.365 21391 146.257
112.482 21090 145.224
112.599 21289 145.908
112.716 21067 145.145
112.832 20908 144.596
112.949 20968 144.803
113.066 21219 145.667
113.183 21543 146.775
113.3 22001 148.327
113.417 21948 148.149
113.534 21643 147.116
113.652 20910 144.603
113.769 20133 141.891
113.886 18759 136.963
114.003 18072 134.432
114.12 17102 130.775
114.238 17684 132.981
114.355 18317 135.34
114.472 19350 139.104
114.589 22321 149.402
114.707 23157 152.174
114.824 23552 153.467
114.942 23408 152.997
115.059 23915 154.645
115.176 23704 153.961
115.294 23515 153.346
115.411 23468 153.193
115.529 23117 152.043
115.646 22366 149.553
115.764 21821 147.719
115.881 21321 146.017
115.999 20821 144.295
116.116 20596 143.513
116.234 20264 142.352
116.351 20352 142.66
116.469 20234 142.246
116.586 19917 141.128
116.704 20677 143.795
116.821 20910 144.603
116.939 21294 145.925
117.056 21096 145.245
117.174 20494 143.157
117.291 19747 140.524
117.409 19036 137.971
117.526 17932 133.91
117.644 16930 130.115
117.761 16912 130.046
117.879 17667 132.917
117.996 18616 136.44
118.114 20052 141.605
118.231 21616 147.024
118.349 22142 148.802
118.466 22261 149.201
118.584 22233 149.107
118.701 22557 150.19
118.819 22087 148.617
118.936 21948 148.149
119.053 21677 147.231
119.171 21354 146.13
119.288 20799 144.219
119.405 20298 142.471
119.523 19648 140.171
119.64 19274 138.831
119.757 19149 138.38
119.875 18909 137.51
119.992 18557 136.224
120.109 18592 136.352
120.226 18392 135.617
120.343 18637 136.517
120.46 19018 137.906
120.578 19417 139.345
120.695 18930 137.586
120.812 18745 136.912
120.929 18065 134.406
121.046 17041 130.541
121.163 16123 126.976
121.279 14955 122.291
121.396 14559 120.661
121.513 14246 119.357
121.63 14705 121.264
121.747 15262 123.539
121.863 15985 126.432
121.98 16113 126.937
122.097 15822 125.786
122.213 15301 123.697
122.33 14926 122.172
122.446 13863 117.741
122.563 13027 114.136
122.679 12274 110.788
122.795 11595 107.68
122.912 10907 104.437
123.028 10215 101.069
123.144 9396 96.933
123.26 8786 93.7337
123.377 0 1
123.493 0 1
123.609 0 1
123.725 0 1
123.84 0 1
123.956 0 1
124.072 0 1
124.188 0 1
124.303 0 1
124.419 0 1
126.852 0 1
126.968 0 1
127.083 0 1
127.199 0 1
127.315 0 1
127.431 0 1
127.547 0 1
127.663 0 1
127.779 0 1
127.895 0 1
128.011 0 1
128.127 0 1
128.243 0 1
128.359 19393 139.259
128.476 19208 138.593
128.592 19350 139.104
128.708 19004 137.855
128.825 18769 137
128.941 18643 136.539
129.058 18601 136.385
129.174 18282 135.211
129.291 18432 135.765
129.408 18563 136.246
129.524 18789 137.073
129.641 18851 137.299
129.758 19204 138.578
129.875 18823 137.197
129.992 18499 136.011
130.108 17675 132.947
130.225 17058 130.606
130.342 16280 127.593
130.459 15502 124.507
130.576 15576 124.804
130.693 16288 127.624
130.81 17452 132.106
130.928 18332 135.396
131.045 19424 139.37
131.162 19939 141.206
131.279 20062 141.64
131.396 20064 141.647
131.513 20323 142.559
131.631 19818 140.776
131.748 19881 141
131.865 19948 141.237
131.983 19683 140.296
132.1 19103 138.214
132.217 18792 137.084
132.335 18643 136.539
132.452 18543 136.173
132.57 18443 135.805
132.687 18757 136.956
132.804 18120 134.611
132.922 18421 135.724
133.039 18895 137.459
133.157 18932 137.594
133.274 19053 138.033
133.392 19109 138.235
133.509 18878 137.397
133.627 18598 136.374
133.744 17903 133.802
133.862 16983 130.319
133.979 16499 128.448
134.097 16345 127.848
134.214 16598 128.833
134.332 17192 131.118
134.449 18781 137.044
134.567 19903 141.078
134.684 20924 144.651
134.802 21067 145.145
134.919 21159 145.461
135.037 21215 145.654
135.154 20916 144.624
135.272 21035 145.034
135.389 21086 145.21
135.507 21274 145.856
135.624 21117 145.317
135.742 21138 145.389
135.859 20890 144.534
135.977 20929 144.669
136.094 20724 143.958
136.211 20386 142.78
136.329 20860 144.43
136.446 20580 143.457
136.564 20402 142.836
136.681 20481 143.112
136.798 20768 144.111
136.915 20519 143.245
137.033 20812 144.264
137.15 20611 143.565
137.267 20139 141.912
137.384 19488 139.599
137.502 18463 135.879
137.619 17541 132.442
137.736 17057 130.602
137.853 16685 129.17
137.97 17888 133.746
138.087 18869 137.364
138.204 20352 142.66
138.321 20902 144.575
138.438 20824 144.305
138.555 20819 144.288
138.672 20635 143.649
138.788 20155 141.968
138.905 19101 138.206
139.022 18412 135.691
139.139 17908 133.821
139.255 17330 131.643
139.372 16430 128.18
139.488 15449 124.294
139.605 14116 118.811
139.721 13550 116.404
139.838 12736 112.854
139.954 11973 109.421
140.071 11742 108.361
140.187 10869 104.254
140.303 10291 101.445
140.419 9724 98.6103
140.535 9450 97.2111
140.652 8894 94.308
140.768 0 1
140.884 0 1
141 0 1
141.115 0 1
141.231 0 1
141.347 0 1
141.463 0 1
141.578 0 1
141.694 0 1
144.104 0 1
144.219 0 1
144.335 0 1
144.45 0 1
144.566 0 1
144.682 0 1
144.798 0 1
144.914 0 1
145.03 0 1
145.146 14932 122.197
145.262 15653 125.112
145.378 15481 124.423
145.494 15720 125.379
145.61 15653 125.112
145.726 16002 126.499
145.842 15835 125.837
145.959 15812 125.746
146.075 15395 124.077
146.192 15122 122.972
146.308 14710 121.285
146.425 13928 118.017
146.541 13721 117.137
146.658 13405 115.78
146.774 13763 117.316
146.891 14701 121.248
147.008 15591 124.864
147.125 15913 126.147
147.241 16456 128.281
147.358 16708 129.259
147.475 16720 129.306
147.592 16234 127.413
147.709 16101 126.89
147.826 16339 127.824
147.943 16347 127.855
148.06 16156 127.106
148.177 16409 128.098
148.294 16016 126.554
148.411 16389 128.02
148.528 15989 126.448
148.645 16219 127.354
148.762 16071 126.771
148.88 15741 125.463
148.997 16036 126.633
149.114 15603 124.912
149.231 15602 124.908
149.349 15779 125.614
149.466 15591 124.864
149.583 15519 124.575
149.701 15462 124.346
149.818 15221 123.373
149.935 14898 122.057
150.053 14515 120.478
150.17 14255 119.394
150.287 13568 116.482
150.405 13608 116.653
150.522 14288 119.532
150.64 15098 122.874
150.757 15597 124.888
150.875 16267 127.542
150.992 16349 127.863
151.11 16374 127.961
151.227 15793 125.67
151.344 15862 125.944
151.462 15814 125.754
151.579 16127 126.992
151.697 16111 126.929
151.814 16331 127.793
151.932 16156 127.106
152.049 15993 126.463
152.167 16061 126.732
152.284 15767 125.567
152.402 15614 124.956
152.519 15431 124.222
152.636 15243 123.463
152.754 15558 124.732
152.871 15269 123.568
152.989 15158 123.118
153.106 15131 123.008
153.223 15156 123.11
153.341 14958 122.303
153.458 15084 122.817
153.575 14403 120.012
153.693 13731 117.179
153.81 13620 116.705
153.927 13356 115.568
154.044 13378 115.663
154.162 14294 119.558
154.279 14885 122.004
154.396 15487 124.447
154.513 15372 123.984
154.63 15817 125.766
154.747 15751 125.503
154.864 15350 123.895
154.981 15337 123.843
155.098 15244 123.467
155.215 15419 124.173
155.332 15360 123.935
155.449 15131 123.008
155.566 14868 121.934
155.683 14840 121.82
155.8 14319 119.662
155.917 14055 118.554
156.033 13451 115.978
156.15 0 1
156.267 0 1
156.383 0 1
156.5 0 1
156.617 0 1
156.733 0 1
156.85 0 1
156.966 0 1
157.082 0 1
157.199 0 1
157.315 0 1
157.431 0 1
157.547 0 1
157.664 0 1
157.78 0 1
157.896 0 1
158.012 0 1
158.128 0 1
158.244 0 1
158.359 0 1
158.475 0 1
158.591 0 1
158.706 0 1
