
6.15755 0 1
6.2731 0 1
6.3887 0 1
6.50437 0 1
6.62009 0 1
6.73587 0 1
6.8517 0 1
6.96759 0 1
7.08353 0 1
7.19952 0 1
7.31557 0 1
7.43166 0 1
7.54781 0 1
7.664 0 1
7.78024 0 1
7.89653 0 1
8.01286 0 1
8.12924 0 1
8.24567 0 1
8.36213 0 1
8.47864 0 1
8.59519 0 1
8.71178 0 1
8.82841 0 1
8.94508 0 1
9.06179 0 1
9.17853 0 1
9.29531 0 1
9.41212 0 1
9.52897 0 1
9.64584 0 1
9.76276 0 1
9.8797 0 1
9.99667 0 1
10.1137 0 1
10.2307 0 1
10.3478 0 1
10.4648 0 1
10.5819 0 1
10.6991 0 1
10.8162 0 1
10.9334 0 1
11.0506 0 1
11.1678 0 1
11.285 0 1
11.4023 0 1
11.5196 0 1
11.6369 0 1
11.7542 0 1
11.8715 0 1
11.9888 0 1
12.1062 0 1
12.2235 0 1
12.3409 0 1
12.4582 0 1
12.5756 0 1
12.693 0 1
12.8104 0 1
12.9278 0 1
13.0452 0 1
13.1626 0 1
13.28 0 1
13.3974 0 1
13.5149 0 1
13.6323 0 1
13.7497 0 1
13.8671 0 1
13.9845 0 1
14.1019 0 1
14.2193 0 1
14.3367 0 1
14.4541 0 1
14.5714 0 1
14.6888 0 1
14.8062 0 1
14.9235 0 1
15.0408 0 0
15.1581 0 0
15.2755 0 0
15.3927 0 0
15.51 0 0
15.6273 0 0
15.7445 0 0
15.8617 0 0
15.9789 0 0
16.0961 0 0
16.2132 0 0
16.3304 0 0
16.4475 0 0
16.5646 0 0
16.6816 0 0
16.7986 0 0
16.9156 0 0
17.0326 0 0
17.1496 0 0
17.2665 0 0
17.3833 0 0
17.5002 0 0
17.617 0 0
17.7338 0 0
17.8505 0 0
17.9672 0 0
18.0839 0 0
18.2005 0 0
18.3171 0 0
18.4337 0 0
18.5502 0 0
18.6666 0 0
18.7831 0 0
18.8994 0 0
19.0158 0 0
19.1321 0 0
19.2483 0 0
19.3645 0 0
19.4806 0 0
19.5967 0 0
19.7128 0 0
19.8288 0 0
19.9447 0 0
20.0606 0 1
20.1764 0 1
20.2922 0 1
20.4079 0 1
20.5236 0 1
20.6392 0 1
20.7548 0 1
20.8702 0 1
23.3078 0 1
23.4233 0 1
23.539 0 1
23.6547 0 1
23.7704 0 1
23.8862 0 1
24.0021 0 1
24.118 0 1
24.234 0 1
24.35 0 1
24.4661 1251 35.3695
24.5822 1333 36.5103
24.6984 1492 38.6264
24.8146 1624 40.2989
24.9309 1990 44.6094
25.0472 2280 47.7493
25.1636 2508 50.0799
25.28 2525 50.2494
25.3965 2622 51.2055
25.513 2666 51.6333
25.6296 2731 52.259
25.7462 2668 51.6527
25.8628 2630 51.2835
25.9795 2688 51.8459
26.0962 2691 51.8748
26.213 2665 51.6236
26.3298 2709 52.0481
26.4466 2687 51.8363
26.5635 2730 52.2494
26.6804 2746 52.4023
26.7973 2672 51.6914
26.9143 2597 50.9608
27.0313 2474 49.7393
27.1483 2511 50.1099
27.2653 2503 50.03
27.3824 2358 48.5592
27.4996 2239 47.3181
27.6167 2175 46.6369
27.7339 2158 46.4543
27.8511 2303 47.9896
27.9683 2393 48.9183
28.0855 2478 49.7795
28.2028 2488 49.8799
28.3201 2440 49.3964
28.4374 2455 49.548
28.5547 2514 50.1398
28.6721 2496 49.96
28.7894 2383 48.816
28.9068 2495 49.95
29.0242 2449 49.4874
29.1416 2534 50.3389
29.259 2628 51.264
29.3764 2531 50.309
29.4939 2439 49.3862
29.6113 2324 48.2079
29.7288 2306 48.0208
29.8463 2305 48.0104
29.9638 2351 48.4871
30.0812 2418 49.1732
30.1987 2293 47.8853
30.3162 2399 48.9796
30.4337 2357 48.5489
30.5512 2467 49.6689
30.6687 2423 49.224
30.7862 2492 49.9199
30.9037 2248 47.4131
31.0212 2242 47.3498
31.1387 2310 48.0625
31.2562 2274 47.6865
31.3737 2374 48.7237
31.4912 2446 49.4571
31.6087 2474 49.7393
31.7262 2469 49.689
31.8436 2506 50.06
31.9611 2483 49.8297
32.0785 2354 48.518
32.1959 2409 49.0816
32.3134 2372 48.7032
32.4308 2429 49.2849
32.5482 2362 48.6004
32.6655 2297 47.927
32.7829 2166 46.5403
32.9002 2236 47.2864
33.0176 2155 46.422
33.1349 2140 46.2601
33.2522 2156 46.4327
33.3694 2113 45.9674
33.4867 2043 45.1996
33.6039 2005 44.7772
33.7211 2190 46.7974
33.8383 2144 46.3033
33.9554 2256 47.4974
34.0725 2349 48.4665
34.1896 2274 47.6865
34.3067 2371 48.6929
34.4237 2465 49.6488
34.5407 2273 47.676
34.6577 2223 47.1487
34.7746 2193 46.8295
34.8915 2266 47.6025
35.0084 2300 47.9583
35.1252 2353 48.5077
35.242 2464 49.6387
35.3587 2402 49.0102
35.4755 2373 48.7134
35.5921 2386 48.8467
35.7088 2172 46.6047
35.8254 2185 46.744
35.9419 2150 46.3681
36.0584 2061 45.3982
36.1749 1998 44.699
36.2913 1914 43.7493
36.4077 1908 43.6807
36.524 1916 43.7721
36.6403 1666 40.8167
36.7565 1585 39.8121
36.8727 1454 38.1314
36.9889 1486 38.5487
37.1049 1474 38.3927
37.221 0 1
37.3369 0 1
37.4529 0 1
37.5687 0 1
37.6845 0 1
37.8003 0 1
37.916 0 1
38.0316 0 1
38.1472 0 1
40.5851 0 1
40.7008 0 1
40.8164 0 1
40.9322 0 1
41.048 0 1
41.1639 0 1
41.2798 0 1
41.3958 0 1
41.5118 0 1
41.6279 0 1
41.744 2295 47.9062
41.8602 2994 54.7175
41.9765 3634 60.2827
42.0928 4057 63.6946
42.2091 3987 63.1427
42.3255 3875 62.2495
42.4419 3973 63.0317
42.5584 4043 63.5846
42.675 4070 63.7966
42.7915 4232 65.0538
42.9081 4093 63.9766
43.0248 4338 65.8635
43.1415 4188 64.7148
43.2582 4063 63.7417
43.375 3592 59.9333
43.4918 3797 61.6198
43.6087 3794 61.5955
43.7256 3806 61.6928
43.8425 3869 62.2013
43.9595 4171 64.5833
44.0765 3840 61.9677
44.1935 3988 63.1506
44.3106 3766 61.3677
44.4277 3711 60.918
44.5448 3620 60.1664
44.6619 3403 58.3352
44.7791 3372 58.0689
44.8963 3147 56.0981
45.0136 2962 54.4243
45.1308 2902 53.8702
45.2481 2601 51
45.3654 2582 50.8134
45.4827 2406 49.051
45.6001 2283 47.7807
45.7174 2077 45.5741
45.8348 2105 45.8803
45.9522 2016 44.8999
46.0697 1997 44.6878
46.1871 1965 44.3283
46.3046 1904 43.6348
46.422 2031 45.0666
46.5395 2070 45.4973
46.657 2022 44.9667
46.7745 2007 44.7996
46.892 1847 42.9767
47.0096 1841 42.9069
47.1271 1794 42.3556
47.2446 1870 43.2435
47.3622 1925 43.8748
47.4797 1980 44.4972
47.5973 1877 43.3244
47.7149 1954 44.2041
47.8324 1989 44.5982
47.95 1976 44.4522
48.0675 1824 42.7083
48.1851 1848 42.9884
48.3027 1840 42.8952
48.4202 1831 42.7902
48.5378 1774 42.1189
48.6554 1780 42.19
48.7729 1710 41.3521
48.8904 1686 41.0609
49.008 1764 42
49.1255 1700 41.2311
49.243 1658 40.7185
49.3605 1663 40.7799
49.478 1674 40.9145
49.5955 1843 42.9302
49.713 1833 42.8135
49.8304 1921 43.8292
49.9479 1924 43.8634
50.0653 1940 44.0454
50.1827 1904 43.6348
50.3001 1724 41.5211
50.4175 1598 39.975
50.5348 1523 39.0256
50.6521 1616 40.1995
50.7694 1737 41.6773
50.8867 1823 42.6966
51.004 1898 43.566
51.1212 1827 42.7434
51.2384 1919 43.8064
51.3556 1837 42.8602
51.4727 1855 43.0697
51.5899 1936 44
51.707 1772 42.0951
51.824 1830 42.7785
51.9411 1856 43.0813
52.0581 1852 43.0349
52.175 1724 41.5211
52.2919 1708 41.328
52.4088 1690 41.1096
52.5257 1677 40.9512
52.6425 1732 41.6173
52.7593 1719 41.4608
52.876 1646 40.5709
52.9927 1616 40.1995
53.1094 1592 39.8999
53.226 1659 40.7308
53.3426 1718 41.4488
53.4591 1609 40.1123
53.5756 1552 39.3954
53.692 1356 36.8239
53.8084 1251 35.3695
53.9248 1167 34.1614
54.0411 1003 31.6702
54.1573 999 31.607
54.2735 0 1
54.3896 0 1
54.5057 0 1
54.6217 0 1
54.7377 0 1
54.8537 0 1
54.9695 0 1
55.0853 0 1
55.2011 0 1
55.3168 0 1
55.4324 0 1
57.824 0 1
57.9396 0 1
58.0553 0 1
58.1711 0 1
58.2869 0 1
58.4028 0 1
58.5187 0 1
58.6347 0 1
58.7508 0 1
58.8669 0 1
58.983 1435 37.8814
59.0992 1532 39.1408
59.2155 1570 39.6232
59.3318 1647 40.5832
59.4482 1735 41.6533
59.5646 2011 44.8442
59.681 1981 44.5084
59.7975 2061 45.3982
59.9141 2115 45.9891
60.0306 2147 46.3357
60.1473 2092 45.7384
60.2639 2182 46.7119
60.3807 2109 45.9239
60.4974 2194 46.8402
60.6142 2162 46.4973
60.731 2137 46.2277
60.8479 2202 46.9255
60.9648 2186 46.7547
61.0818 2174 46.6262
61.1987 2108 45.913
61.3158 2077 45.5741
61.4328 2017 44.911
61.5499 2040 45.1664
61.667 1975 44.441
61.7841 2010 44.833
61.9013 2135 46.2061
62.0185 2146 46.3249
62.1357 2133 46.1844
62.253 2125 46.0977
62.3702 2116 46
62.4875 2011 44.8442
62.6049 1836 42.8486
62.7222 1863 43.1625
62.8396 1942 44.0681
62.9569 2100 45.8258
63.0743 2115 45.9891
63.1918 2290 47.8539
63.3092 2334 48.3115
63.4267 2251 47.4447
63.5441 2178 46.669
63.6616 2162 46.4973
63.7791 2231 47.2335
63.8966 2215 47.0638
64.0142 2132 46.1736
64.1317 2172 46.6047
64.2492 2168 46.5618
64.3668 2152 46.3897
64.4843 2141 46.2709
64.6019 2154 46.4112
64.7195 2105 45.8803
64.837 2080 45.607
64.9546 2021 44.9555
65.0722 2057 45.3542
65.1898 1991 44.6206
65.3074 2113 45.9674
65.4249 2026 45.0111
65.5425 2089 45.7056
65.6601 2200 46.9042
65.7777 2073 45.5302
65.8952 2049 45.2659
66.0128 2046 45.2327
66.1304 1784 42.2374
66.2479 1677 40.9512
66.3655 1767 42.0357
66.483 2045 45.2217
66.6005 2161 46.4866
66.718 2108 45.913
66.8355 2169 46.5725
66.953 2205 46.9574
67.0705 2184 46.7333
67.1879 2175 46.6369
67.3054 2164 46.5188
67.4228 2073 45.5302
67.5402 2019 44.9333
67.6576 2183 46.7226
67.7749 2114 45.9783
67.8923 2099 45.8148
68.0096 2096 45.7821
68.1269 2057 45.3542
68.2442 2085 45.6618
68.3614 1977 44.4635
68.4787 2039 45.1553
68.5958 1939 44.0341
68.713 1963 44.3058
68.8302 1898 43.566
68.9473 1876 43.3128
69.0643 1947 44.1248
69.1814 2046 45.2327
69.2984 2015 44.8888
69.4154 1989 44.5982
69.5323 1977 44.4635
69.6492 1959 44.2606
69.7661 1737 41.6773
69.8829 1660 40.7431
69.9997 1667 40.8289
70.1165 1762 41.9762
70.2332 1818 42.638
70.3499 1760 41.9524
70.4665 1625 40.3113
70.5831 1541 39.2556
70.6996 1474 38.3927
70.8161 1379 37.1349
70.9326 1361 36.8917
71.049 1244 35.2704
71.1653 1144 33.8231
71.2817 1157 34.0147
71.3979 1142 33.7935
71.5141 1096 33.1059
71.6303 1020 31.9374
71.7464 987 31.4166
71.8624 0 1
71.9784 0 1
72.0944 0 1
72.2102 0 1
72.3261 0 1
72.4418 0 1
72.5575 0 1
72.6732 0 1
75.1054 0 1
75.2209 0 1
75.3365 0 1
75.4521 0 1
75.5678 0 1
75.6835 0 1
75.7993 0 1
75.9151 0 1
76.031 0 1
76.147 1610 40.1248
76.263 1811 42.5558
76.3791 1889 43.4626
76.4952 1863 43.1625
76.6113 1887 43.4396
76.7276 1929 43.9204
76.8438 1960 44.2719
76.9601 1889 43.4626
77.0765 1935 43.9886
77.1929 1982 44.5197
77.3093 1949 44.1475
77.4258 1927 43.8976
77.5423 1982 44.5197
77.6589 1954 44.2041
77.7755 1915 43.7607
77.8921 1845 42.9535
78.0088 1946 44.1135
78.1256 1925 43.8748
78.2423 1937 44.0114
78.3591 1947 44.1248
78.4759 1936 44
78.5928 1917 43.7836
78.7097 1781 42.2019
78.8266 1519 38.9744
78.9436 1438 37.921
79.0606 1406 37.4967
79.1776 1685 41.0488
79.2946 1976 44.4522
79.4117 1977 44.4635
79.5288 2086 45.6727
79.6459 2030 45.0555
79.7631 2046 45.2327
79.8802 2094 45.7602
79.9974 2012 44.8553
80.1147 2040 45.1664
80.2319 2026 45.0111
80.3491 2077 45.5741
80.4664 2109 45.9239
80.5837 2070 45.4973
80.701 2134 46.1952
80.8183 2241 47.3392
80.9357 2230 47.2229
81.053 2249 47.4236
81.1704 2114 45.9783
81.2877 2185 46.744
81.4051 2033 45.0888
81.5225 2000 44.7214
81.6399 2128 46.1303
81.7573 2139 46.2493
81.8747 2222 47.1381
81.9922 2327 48.239
82.1096 2502 50.02
82.227 2359 48.5695
82.3444 2382 48.8057
82.4619 2141 46.2709
82.5793 1965 44.3283
82.6967 2089 45.7056
82.8142 2447 49.4672
82.9316 3052 55.2449
83.049 3265 57.1402
83.1664 3339 57.7841
83.2838 3627 60.2246
83.4012 3648 60.3987
83.5186 3875 62.2495
83.636 3825 61.8466
83.7534 3835 61.9274
83.8708 3892 62.3859
83.9881 4101 64.0391
84.1055 3951 62.857
84.2228 3982 63.1031
84.3401 4060 63.7181
84.4575 4295 65.5362
84.5747 4226 65.0077
84.692 4159 64.4903
84.8093 4111 64.1171
84.9265 3933 62.7136
85.0437 3959 62.9206
85.1609 4027 63.4586
85.2781 3978 63.0714
85.3952 4094 63.9844
85.5123 3969 63
85.6294 3895 62.4099
85.7465 3885 62.3298
85.8636 3681 60.6712
85.9806 3146 56.0892
86.0976 2604 51.0294
86.2145 2622 51.2055
86.3315 2911 53.9537
86.4484 3613 60.1082
86.5652 3862 62.145
86.682 3923 62.6339
86.7988 3994 63.1981
86.9156 3884 62.3217
87.0323 3974 63.0397
87.149 3915 62.57
87.2657 3904 62.482
87.3823 3797 61.6198
87.4988 3757 61.2944
87.6154 3328 57.6888
87.7318 3228 56.8155
87.8483 3047 55.1996
87.9647 2911 53.9537
88.081 2817 53.0754
88.1973 2685 51.817
88.3136 2639 51.3712
88.4298 2541 50.4083
88.546 2428 49.2747
88.6621 2278 47.7284
88.7781 2230 47.2229
88.8942 0 1
89.0101 0 1
89.126 0 1
89.2419 0 1
89.3577 0 1
89.4734 0 1
89.5891 0 1
89.7047 0 1
89.8203 0 1
89.9358 0 1
92.3269 0 1
92.4424 0 1
92.558 0 1
92.6736 0 1
92.7893 0 1
92.905 0 1
93.0208 0 1
93.1366 0 1
93.2525 0 1
93.3685 0 1
93.4845 0 1
93.6005 4204 64.8383
93.7167 4167 64.5523
93.8328 4195 64.7688
93.949 4075 63.8357
94.0653 4117 64.1639
94.1816 4100 64.0312
94.2979 3984 63.1189
94.4143 4167 64.5523
94.5307 4212 64.8999
94.6472 4086 63.9218
94.7637 3864 62.1611
94.8803 3644 60.3656
94.9969 3197 56.542
95.1135 2843 53.3198
95.2302 2991 54.69
95.3469 3450 58.7367
95.4637 3866 62.1772
95.5805 4098 64.0156
95.6973 4176 64.622
95.8142 4164 64.5291
95.9311 4352 65.9697
96.048 4346 65.9242
96.1649 4342 65.8939
96.2819 4323 65.7495
96.3989 4262 65.284
96.516 4178 64.6375
96.633 4269 65.3376
96.7501 4240 65.1153
96.8673 4452 66.7233
96.9844 4598 67.8086
97.1016 4412 66.4229
97.2188 4371 66.1135
97.336 4300 65.5744
97.4532 4269 65.3376
97.5704 4283 65.4446
97.6877 4080 63.8749
97.805 4219 64.9538
97.9223 4227 65.0154
98.0396 4289 65.4905
98.1569 4140 64.3428
98.2743 4085 63.914
98.3916 3776 61.4492
98.509 3373 58.0775
98.6264 2881 53.6749
98.7438 3036 55.0999
98.8612 3320 57.6194
98.9786 3808 61.709
99.096 3908 62.514
99.2134 4090 63.9531
99.3308 3935 62.7296
99.4482 3951 62.857
99.5656 3729 61.0655
99.6831 3599 59.9917
99.8005 3608 60.0666
99.9179 3454 58.7707
100.035 3346 57.8446
100.153 3373 58.0775
100.27 3238 56.9034
100.388 3128 55.9285
100.505 3210 56.6569
100.622 3148 56.107
100.74 2975 54.5436
100.857 2916 54
100.975 2763 52.5642
101.092 2788 52.8015
101.209 2697 51.9326
101.327 2744 52.3832
101.444 2865 53.5257
101.561 2767 52.6023
101.679 2736 52.3068
101.796 2730 52.2494
101.913 2663 51.6043
102.03 2494 49.94
102.148 2188 46.7761
102.265 1974 44.4297
102.382 2253 47.4658
102.499 2408 49.0714
102.616 2486 49.8598
102.733 2643 51.4101
102.851 2688 51.8459
102.968 2522 50.2195
103.085 2585 50.8429
103.202 2521 50.2096
103.319 2550 50.4975
103.436 2545 50.448
103.552 2473 49.7293
103.669 2464 49.6387
103.786 2503 50.03
103.903 2573 50.7247
104.02 2600 50.9902
104.137 2625 51.2348
104.253 2712 52.0769
104.37 2394 48.9285
104.487 2470 49.6991
104.603 2408 49.0714
104.72 2384 48.8262
104.836 2228 47.2017
104.953 2118 46.0217
105.069 1840 42.8952
105.186 1628 40.3485
105.302 1456 38.1576
105.418 1407 37.51
105.535 1364 36.9324
105.651 1141 33.7787
105.767 951 30.8383
105.883 817 28.5832
105.999 811 28.4781
106.115 0 1
106.231 0 1
106.347 0 1
106.463 0 1
106.579 0 1
106.694 0 1
106.81 0 1
106.926 0 1
107.041 0 1
107.157 0 1
109.576 0 1
109.692 0 1
109.807 0 1
109.923 0 1
110.039 0 1
110.155 0 1
110.27 0 1
110.386 0 1
110.502 0 1
110.618 2509 50.0899
110.735 2645 51.4296
110.851 2596 50.951
110.967 2291 47.8644
111.083 2318 48.1456
111.199 2366 48.6415
111.316 2664 51.614
111.432 2810 53.0094
111.549 2812 53.0283
111.665 2822 53.1225
111.782 2842 53.3104
111.898 2819 53.0943
112.015 2847 53.3573
112.132 2802 52.9339
112.248 2784 52.7636
112.365 2872 53.591
112.482 2834 53.2353
112.599 2888 53.7401
112.716 2867 53.5444
112.832 2870 53.5724
112.949 3083 55.5248
113.066 3153 56.1516
113.183 3141 56.0446
113.3 3034 55.0818
113.417 2987 54.6535
113.534 3078 55.4797
113.652 3116 55.8211
113.769 3011 54.8726
113.886 3143 56.0625
114.003 3052 55.2449
114.12 3137 56.0089
114.238 3055 55.2721
114.355 2852 53.4041
114.472 2472 49.7192
114.589 2544 50.4381
114.707 2490 49.8999
114.824 2758 52.5167
114.942 2867 53.5444
115.059 2979 54.5802
115.176 2942 54.2402
115.294 2960 54.4059
115.411 2963 54.4334
115.529 2911 53.9537
115.646 2867 53.5444
115.764 2840 53.2917
115.881 2920 54.037
115.999 2797 52.8867
116.116 2909 53.9351
116.234 2945 54.2679
116.351 3061 55.3263
116.469 3088 55.5698
116.586 3180 56.3915
116.704 3210 56.6569
116.821 3125 55.9017
116.939 3282 57.2887
117.056 3250 57.0088
117.174 3159 56.205
117.291 3200 56.5685
117.409 3183 56.4181
117.526 3177 56.3649
117.644 3199 56.5597
117.761 3077 55.4707
117.879 3043 55.1634
117.996 2795 52.8678
118.114 2636 51.342
118.231 2456 49.558
118.349 2621 51.1957
118.466 2822 53.1225
118.584 2904 53.8888
118.701 2984 54.626
118.819 2999 54.7631
118.936 2864 53.5164
119.053 2875 53.619
119.171 2750 52.4404
119.288 2808 52.9906
119.405 2730 52.2494
119.523 2830 53.1977
119.64 2782 52.7447
119.757 2803 52.9434
119.875 2890 53.7587
119.992 2944 54.2586
120.109 3056 55.2811
120.226 2992 54.6992
120.343 2980 54.5894
120.46 3152 56.1427
120.578 3050 55.2268
120.695 3023 54.9818
120.812 2992 54.6992
120.929 2858 53.4603
121.046 3014 54.8999
121.163 2893 53.7866
121.279 2931 54.1387
121.396 2868 53.5537
121.513 2830 53.1977
121.63 2578 50.774
121.747 2383 48.816
121.863 2133 46.1844
121.98 2007 44.7996
122.097 2032 45.0777
122.213 2131 46.1628
122.33 2129 46.1411
122.446 2011 44.8442
122.563 1939 44.0341
122.679 1854 43.0581
122.795 1822 42.6849
122.912 1812 42.5676
123.028 1723 41.509
123.144 1718 41.4488
123.26 1718 41.4488
123.377 0 1
123.493 0 1
123.609 0 1
123.725 0 1
123.84 0 1
123.956 0 1
124.072 0 1
124.188 0 1
124.303 0 1
124.419 0 1
126.852 0 1
126.968 0 1
127.083 0 1
127.199 0 1
127.315 0 1
127.431 0 1
127.547 0 1
127.663 0 1
127.779 0 1
127.895 0 1
128.011 0 1
128.127 0 1
128.243 0 1
128.359 3319 57.6108
128.476 3424 58.515
128.592 3391 58.2323
128.708 3370 58.0517
128.825 3302 57.463
128.941 3451 58.7452
129.058 3514 59.279
129.174 3480 58.9915
129.291 3571 59.7578
129.408 3669 60.5723
129.524 3864 62.1611
129.641 3900 62.45
129.758 3900 62.45
129.875 3937 62.7455
129.992 4127 64.2417
130.108 4011 63.3325
130.225 4003 63.2693
130.342 4111 64.1171
130.459 3911 62.538
130.576 3991 63.1744
130.693 3701 60.8358
130.81 3511 59.2537
130.928 3614 60.1166
131.045 3687 60.7207
131.162 3814 61.7576
131.279 3779 61.4736
131.396 3843 61.9919
131.513 3855 62.0886
131.631 3907 62.506
131.748 3912 62.546
131.865 3915 62.57
131.983 3761 61.327
132.1 3752 61.2536
132.217 3708 60.8933
132.335 3711 60.918
132.452 3703 60.8523
132.57 3612 60.0999
132.687 3702 60.8441
132.804 3898 62.434
132.922 3754 61.2699
133.039 3726 61.041
133.157 3795 61.6036
133.274 4092 63.9687
133.392 3974 63.0397
133.509 4150 64.4205
133.627 4324 65.7571
133.744 4331 65.8103
133.862 4197 64.7843
133.979 4399 66.325
134.097 4118 64.1716
134.214 4085 63.914
134.332 4045 63.6003
134.449 3956 62.8967
134.567 4019 63.3956
134.684 4024 63.435
134.802 4037 63.5374
134.919 4182 64.6684
135.037 4269 65.3376
135.154 4189 64.7225
135.272 4205 64.846
135.389 4121 64.195
135.507 4007 63.3009
135.624 3979 63.0793
135.742 3945 62.8092
135.859 3956 62.8967
135.977 3876 62.2575
136.094 3971 63.0159
136.211 3843 61.9919
136.329 3945 62.8092
136.446 4049 63.6318
136.564 3933 62.7136
136.681 4026 63.4508
136.798 3927 62.6658
136.915 3949 62.8411
137.033 4049 63.6318
137.15 4110 64.1093
137.267 4095 63.9922
137.384 4098 64.0156
137.502 4160 64.4981
137.619 4190 64.7302
137.736 3945 62.8092
137.853 3792 61.5792
137.97 3886 62.3378
138.087 3609 60.075
138.204 3802 61.6604
138.321 3970 63.0079
138.438 3992 63.1823
138.555 4147 64.3972
138.672 4066 63.7652
138.788 4027 63.4586
138.905 3837 61.9435
139.022 3722 61.0082
139.139 3585 59.8749
139.255 3607 60.0583
139.372 3227 56.8067
139.488 3199 56.5597
139.605 3096 55.6417
139.721 2931 54.1387
139.838 2874 53.6097
139.954 2924 54.074
140.071 2817 53.0754
140.187 2817 53.0754
140.303 2676 51.7301
140.419 2906 53.9073
140.535 2910 53.9444
140.652 2880 53.6656
140.768 0 1
140.884 0 1
141 0 1
141.115 0 1
141.231 0 1
141.347 0 1
141.463 0 1
141.578 0 1
141.694 0 1
144.104 0 1
144.219 0 1
144.335 0 1
144.45 0 1
144.566 0 1
144.682 0 1
144.798 0 1
144.914 0 1
145.03 0 1
145.146 8420 91.7606
145.262 8514 92.2713
145.378 8556 92.4986
145.494 8716 93.3595
145.61 8739 93.4826
145.726 8673 93.1289
145.842 8737 93.4719
145.959 8972 94.7206
146.075 8808 93.8509
146.192 8943 94.5674
146.308 8776 93.6803
146.425 8623 92.8601
146.541 7961 89.2244
146.658 6959 83.4206
146.774 5906 76.8505
146.891 5687 75.4122
147.008 6370 79.8123
147.125 7598 87.1665
147.241 8333 91.2853
147.358 8618 92.8332
147.475 8736 93.4666
147.592 8739 93.4826
147.709 8692 93.2309
147.826 8785 93.7283
147.943 8747 93.5254
148.06 8878 94.2231
148.177 8645 92.9785
148.294 8761 93.6002
148.411 8677 93.1504
148.528 8712 93.3381
148.645 8797 93.7923
148.762 8944 94.5727
148.88 8781 93.707
148.997 8707 93.3113
149.114 9213 95.9844
149.231 8825 93.9415
149.349 8967 94.6942
149.466 8821 93.9202
149.583 8976 94.7418
149.701 9112 95.4568
149.818 9096 95.373
149.935 8977 94.747
150.053 9075 95.2628
150.17 8796 93.787
150.287 7728 87.909
150.405 6591 81.185
150.522 6026 77.6273
150.64 6389 79.9312
150.757 7394 85.9884
150.875 8427 91.7987
150.992 8841 94.0266
151.11 8716 93.3595
151.227 8725 93.4077
151.344 8569 92.5689
151.462 8664 93.0806
151.579 8838 94.0106
151.697 8821 93.9202
151.814 8995 94.842
151.932 8669 93.1075
152.049 9014 94.9421
152.167 8939 94.5463
152.284 9038 95.0684
152.402 9092 95.352
152.519 8994 94.8367
152.636 9112 95.4568
152.754 9143 95.619
152.871 9441 97.1648
152.989 9060 95.184
153.106 9385 96.8762
153.223 9360 96.7471
153.341 9287 96.3691
153.458 9410 97.0052
153.575 9389 96.8969
153.693 9199 95.9114
153.81 9038 95.0684
153.927 8253 90.846
154.044 6970 83.4865
154.162 6599 81.2342
154.279 7061 84.0298
154.396 8089 89.9389
154.513 8886 94.2656
154.63 9211 95.974
154.747 9141 95.6086
154.864 9152 95.6661
154.981 9085 95.3153
155.098 8985 94.7892
155.215 8887 94.2709
155.332 8705 93.3006
155.449 8485 92.1141
155.566 8195 90.5262
155.683 8247 90.813
155.8 7979 89.3252
155.917 8027 89.5935
156.033 7553 86.908
156.15 0 1
156.267 0 1
156.383 0 1
156.5 0 1
156.617 0 1
156.733 0 1
156.85 0 1
156.966 0 1
157.082 0 1
157.199 0 1
157.315 0 1
157.431 0 1
157.547 0 1
157.664 0 1
157.78 0 1
157.896 0 1
158.012 0 1
158.128 0 1
158.244 0 1
158.359 0 1
158.475 0 1
158.591 0 1
158.706 0 1
