
6.15755 0 1
6.2731 0 1
6.3887 0 1
6.50437 0 1
6.62009 0 1
6.73587 0 1
6.8517 0 1
6.96759 0 1
7.08353 0 1
7.19952 0 1
7.31557 0 1
7.43166 0 1
7.54781 0 1
7.664 0 1
7.78024 0 1
7.89653 0 1
8.01286 0 1
8.12924 0 1
8.24567 0 1
8.36213 0 1
8.47864 0 1
8.59519 0 1
8.71178 0 1
8.82841 0 1
8.94508 0 1
9.06179 0 1
9.17853 0 1
9.29531 0 1
9.41212 0 1
9.52897 0 1
9.64584 0 1
9.76276 0 1
9.8797 0 1
9.99667 0 1
10.1137 0 1
10.2307 0 1
10.3478 0 1
10.4648 0 1
10.5819 0 1
10.6991 0 1
10.8162 0 1
10.9334 0 1
11.0506 0 1
11.1678 0 1
11.285 0 1
11.4023 0 1
11.5196 0 1
11.6369 0 1
11.7542 0 1
11.8715 0 1
11.9888 0 1
12.1062 0 1
12.2235 0 1
12.3409 0 1
12.4582 0 1
12.5756 0 1
12.693 0 1
12.8104 0 1
12.9278 0 1
13.0452 0 1
13.1626 0 1
13.28 0 1
13.3974 0 1
13.5149 0 1
13.6323 0 1
13.7497 0 1
13.8671 0 1
13.9845 0 1
14.1019 0 1
14.2193 0 1
14.3367 0 1
14.4541 0 1
14.5714 0 1
14.6888 0 1
14.8062 0 1
14.9235 0 1
15.0408 759 27.55
15.1581 820 28.6356
15.2755 835 28.8964
15.3927 881 29.6816
15.51 891 29.8496
15.6273 885 29.7489
15.7445 907 30.1164
15.8617 934 30.5614
15.9789 871 29.5127
16.0961 843 29.0345
16.2132 822 28.6705
16.3304 835 28.8964
16.4475 775 27.8388
16.5646 830 28.8097
16.6816 787 28.0535
16.7986 781 27.9464
16.9156 782 27.9643
17.0326 791 28.1247
17.1496 827 28.7576
17.2665 775 27.8388
17.3833 749 27.3679
17.5002 763 27.6225
17.617 753 27.4408
17.7338 743 27.258
17.8505 840 28.9828
17.9672 806 28.3901
18.0839 885 29.7489
18.2005 868 29.4618
18.3171 899 29.9833
18.4337 921 30.348
18.5502 1016 31.8748
18.6666 929 30.4795
18.7831 957 30.9354
18.8994 981 31.3209
19.0158 885 29.7489
19.1321 921 30.348
19.2483 806 28.3901
19.3645 883 29.7153
19.4806 863 29.3769
19.5967 789 28.0891
19.7128 764 27.6405
19.8288 760 27.5681
19.9447 688 26.2298
20.0606 0 1
20.1764 0 1
20.2922 0 1
20.4079 0 1
20.5236 0 1
20.6392 0 1
20.7548 0 1
20.8702 0 1
23.3078 0 1
23.4233 0 1
23.539 0 1
23.6547 0 1
23.7704 0 1
23.8862 0 1
24.0021 0 1
24.118 0 1
24.234 0 1
24.35 0 1
24.4661 769 27.7308
24.5822 826 28.7402
24.6984 850 29.1548
24.8146 846 29.0861
24.9309 817 28.5832
25.0472 803 28.3373
25.1636 851 29.1719
25.28 860 29.3258
25.3965 906 30.0998
25.513 873 29.5466
25.6296 945 30.7409
25.7462 922 30.3645
25.8628 914 30.2324
25.9795 898 29.9666
26.0962 924 30.3974
26.213 879 29.6479
26.3298 873 29.5466
26.4466 868 29.4618
26.5635 851 29.1719
26.6804 856 29.2575
26.7973 898 29.9666
26.9143 853 29.2062
27.0313 876 29.5973
27.1483 817 28.5832
27.2653 769 27.7308
27.3824 816 28.5657
27.4996 845 29.0689
27.6167 900 30
27.7339 864 29.3939
27.8511 840 28.9828
27.9683 815 28.5482
28.0855 856 29.2575
28.2028 862 29.3598
28.3201 801 28.3019
28.4374 763 27.6225
28.5547 829 28.7924
28.6721 817 28.5832
28.7894 818 28.6007
28.9068 823 28.688
29.0242 778 27.8927
29.1416 875 29.5804
29.259 867 29.4449
29.3764 840 28.9828
29.4939 831 28.8271
29.6113 804 28.3549
29.7288 764 27.6405
29.8463 738 27.1662
29.9638 752 27.4226
30.0812 739 27.1846
30.1987 775 27.8388
30.3162 794 28.178
30.4337 783 27.9821
30.5512 786 28.0357
30.6687 757 27.5136
30.7862 798 28.2489
30.9037 805 28.3725
31.0212 844 29.0517
31.1387 861 29.3428
31.2562 883 29.7153
31.3737 837 28.931
31.4912 885 29.7489
31.6087 882 29.6985
31.7262 896 29.9333
31.8436 857 29.2746
31.9611 784 28
32.0785 804 28.3549
32.1959 817 28.5832
32.3134 832 28.8444
32.4308 778 27.8927
32.5482 763 27.6225
32.6655 803 28.3373
32.7829 728 26.9815
32.9002 798 28.2489
33.0176 772 27.7849
33.1349 775 27.8388
33.2522 740 27.2029
33.3694 682 26.1151
33.4867 723 26.8887
33.6039 742 27.2397
33.7211 694 26.3439
33.8383 738 27.1662
33.9554 738 27.1662
34.0725 790 28.1069
34.1896 734 27.0924
34.3067 806 28.3901
34.4237 791 28.1247
34.5407 794 28.178
34.6577 848 29.1204
34.7746 936 30.5941
34.8915 851 29.1719
35.0084 896 29.9333
35.1252 847 29.1033
35.242 891 29.8496
35.3587 826 28.7402
35.4755 946 30.7571
35.5921 871 29.5127
35.7088 789 28.0891
35.8254 806 28.3901
35.9419 767 27.6948
36.0584 763 27.6225
36.1749 748 27.3496
36.2913 726 26.9444
36.4077 710 26.6458
36.524 739 27.1846
36.6403 724 26.9072
36.7565 690 26.2679
36.8727 633 25.1595
36.9889 665 25.7876
37.1049 648 25.4558
37.221 0 1
37.3369 0 1
37.4529 0 1
37.5687 0 1
37.6845 0 1
37.8003 0 1
37.916 0 1
38.0316 0 1
38.1472 0 1
40.5851 0 1
40.7008 0 1
40.8164 0 1
40.9322 0 1
41.048 0 1
41.1639 0 1
41.2798 0 1
41.3958 0 1
41.5118 0 1
41.6279 0 1
41.744 531 23.0434
41.8602 584 24.1661
41.9765 588 24.2487
42.0928 552 23.4947
42.2091 518 22.7596
42.3255 529 23
42.4419 561 23.6854
42.5584 548 23.4094
42.675 582 24.1247
42.7915 585 24.1868
42.9081 609 24.6779
43.0248 618 24.8596
43.1415 551 23.4734
43.2582 531 23.0434
43.375 618 24.8596
43.4918 630 25.0998
43.6087 648 25.4558
43.7256 655 25.593
43.8425 659 25.671
43.9595 603 24.5561
44.0765 601 24.5153
44.1935 566 23.7908
44.3106 566 23.7908
44.4277 577 24.0208
44.5448 585 24.1868
44.6619 566 23.7908
44.7791 504 22.4499
44.8963 517 22.7376
45.0136 510 22.5832
45.1308 512 22.6274
45.2481 527 22.9565
45.3654 508 22.5389
45.4827 489 22.1133
45.6001 437 20.9045
45.7174 413 20.3224
45.8348 377 19.4165
45.9522 404 20.0998
46.0697 419 20.4695
46.1871 424 20.5913
46.3046 447 21.1424
46.422 468 21.6333
46.5395 462 21.4942
46.657 445 21.095
46.7745 420 20.4939
46.892 430 20.7364
47.0096 458 21.4009
47.1271 452 21.2603
47.2446 426 20.6398
47.3622 451 21.2368
47.4797 445 21.095
47.5973 436 20.8806
47.7149 419 20.4695
47.8324 436 20.8806
47.95 414 20.347
48.0675 399 19.975
48.1851 406 20.1494
48.3027 373 19.3132
48.4202 357 18.8944
48.5378 436 20.8806
48.6554 402 20.0499
48.7729 400 20
48.8904 428 20.6882
49.008 387 19.6723
49.1255 389 19.7231
49.243 342 18.4932
49.3605 344 18.5472
49.478 352 18.7617
49.5955 342 18.4932
49.713 392 19.799
49.8304 413 20.3224
49.9479 430 20.7364
50.0653 416 20.3961
50.1827 367 19.1572
50.3001 310 17.6068
50.4175 380 19.4936
50.5348 443 21.0476
50.6521 490 22.1359
50.7694 499 22.3383
50.8867 456 21.3542
51.004 423 20.567
51.1212 466 21.587
51.2384 441 21
51.3556 472 21.7256
51.4727 508 22.5389
51.5899 496 22.2711
51.707 473 21.7486
51.824 466 21.587
51.9411 515 22.6936
52.0581 543 23.3024
52.175 562 23.7065
52.2919 530 23.0217
52.4088 505 22.4722
52.5257 501 22.383
52.6425 466 21.587
52.7593 540 23.2379
52.876 544 23.3238
52.9927 498 22.3159
53.1094 487 22.0681
53.226 515 22.6936
53.3426 530 23.0217
53.4591 523 22.8692
53.5756 556 23.5797
53.692 553 23.516
53.8084 509 22.561
53.9248 448 21.166
54.0411 520 22.8035
54.1573 558 23.622
54.2735 0 1
54.3896 0 1
54.5057 0 1
54.6217 0 1
54.7377 0 1
54.8537 0 1
54.9695 0 1
55.0853 0 1
55.2011 0 1
55.3168 0 1
55.4324 0 1
57.824 0 1
57.9396 0 1
58.0553 0 1
58.1711 0 1
58.2869 0 1
58.4028 0 1
58.5187 0 1
58.6347 0 1
58.7508 0 1
58.8669 0 1
58.983 605 24.5967
59.0992 565 23.7697
59.2155 641 25.318
59.3318 667 25.8263
59.4482 672 25.923
59.5646 723 26.8887
59.681 726 26.9444
59.7975 728 26.9815
59.9141 711 26.6646
60.0306 653 25.5539
60.1473 669 25.865
60.2639 631 25.1197
60.3807 614 24.779
60.4974 672 25.923
60.6142 671 25.9037
60.731 717 26.7769
60.8479 622 24.9399
60.9648 653 25.5539
61.0818 678 26.0384
61.1987 643 25.3574
61.3158 597 24.4336
61.4328 600 24.4949
61.5499 553 23.516
61.667 565 23.7697
61.7841 580 24.0832
61.9013 577 24.0208
62.0185 560 23.6643
62.1357 577 24.0208
62.253 577 24.0208
62.3702 571 23.8956
62.4875 519 22.7816
62.6049 548 23.4094
62.7222 551 23.4734
62.8396 631 25.1197
62.9569 650 25.4951
63.0743 654 25.5734
63.1918 656 25.6125
63.3092 609 24.6779
63.4267 616 24.8193
63.5441 623 24.96
63.6616 588 24.2487
63.7791 615 24.7992
63.8966 611 24.7184
64.0142 604 24.5764
64.1317 641 25.318
64.2492 609 24.6779
64.3668 638 25.2587
64.4843 642 25.3377
64.6019 603 24.5561
64.7195 578 24.0416
64.837 565 23.7697
64.9546 536 23.1517
65.0722 545 23.3452
65.1898 533 23.0868
65.3074 526 22.9347
65.4249 553 23.516
65.5425 562 23.7065
65.6601 524 22.891
65.7777 568 23.8328
65.8952 534 23.1084
66.0128 487 22.0681
66.1304 446 21.1187
66.2479 536 23.1517
66.3655 587 24.2281
66.483 597 24.4336
66.6005 635 25.1992
66.718 656 25.6125
66.8355 598 24.454
66.953 596 24.4131
67.0705 557 23.6008
67.1879 598 24.454
67.3054 586 24.2074
67.4228 622 24.9399
67.5402 559 23.6432
67.6576 586 24.2074
67.7749 603 24.5561
67.8923 620 24.8998
68.0096 654 25.5734
68.1269 603 24.5561
68.2442 640 25.2982
68.3614 607 24.6374
68.4787 583 24.1454
68.5958 530 23.0217
68.713 514 22.6716
68.8302 499 22.3383
68.9473 549 23.4307
69.0643 551 23.4734
69.1814 552 23.4947
69.2984 639 25.2784
69.4154 611 24.7184
69.5323 599 24.4745
69.6492 537 23.1733
69.7661 499 22.3383
69.8829 582 24.1247
69.9997 625 25
70.1165 643 25.3574
70.2332 692 26.3059
70.3499 688 26.2298
70.4665 700 26.4575
70.5831 760 27.5681
70.6996 677 26.0192
70.8161 638 25.2587
70.9326 667 25.8263
71.049 621 24.9199
71.1653 644 25.3772
71.2817 625 25
71.3979 647 25.4362
71.5141 604 24.5764
71.6303 645 25.3969
71.7464 524 22.891
71.8624 0 1
71.9784 0 1
72.0944 0 1
72.2102 0 1
72.3261 0 1
72.4418 0 1
72.5575 0 1
72.6732 0 1
75.1054 0 1
75.2209 0 1
75.3365 0 1
75.4521 0 1
75.5678 0 1
75.6835 0 1
75.7993 0 1
75.9151 0 1
76.031 0 1
76.147 560 23.6643
76.263 614 24.779
76.3791 636 25.219
76.4952 646 25.4165
76.6113 590 24.2899
76.7276 656 25.6125
76.8438 651 25.5147
76.9601 679 26.0576
77.0765 646 25.4165
77.1929 698 26.4197
77.3093 693 26.3249
77.4258 611 24.7184
77.5423 614 24.779
77.6589 585 24.1868
77.7755 517 22.7376
77.8921 538 23.1948
78.0088 554 23.5372
78.1256 573 23.9374
78.2423 638 25.2587
78.3591 602 24.5357
78.4759 621 24.9199
78.5928 550 23.4521
78.7097 422 20.5426
78.8266 419 20.4695
78.9436 497 22.2935
79.0606 594 24.3721
79.1776 650 25.4951
79.2946 676 26
79.4117 639 25.2784
79.5288 666 25.807
79.6459 649 25.4755
79.7631 596 24.4131
79.8802 611 24.7184
79.9974 641 25.318
80.1147 636 25.219
80.2319 624 24.98
80.3491 654 25.5734
80.4664 611 24.7184
80.5837 647 25.4362
80.701 640 25.2982
80.8183 670 25.8844
80.9357 628 25.0599
81.053 614 24.779
81.1704 634 25.1794
81.2877 548 23.4094
81.4051 541 23.2594
81.5225 539 23.2164
81.6399 502 22.4054
81.7573 533 23.0868
81.8747 520 22.8035
81.9922 581 24.1039
82.1096 562 23.7065
82.227 538 23.1948
82.3444 510 22.5832
82.4619 412 20.2978
82.5793 494 22.2261
82.6967 549 23.4307
82.8142 630 25.0998
82.9316 614 24.779
83.049 608 24.6577
83.1664 569 23.8537
83.2838 568 23.8328
83.4012 574 23.9583
83.5186 642 25.3377
83.636 600 24.4949
83.7534 567 23.8118
83.8708 584 24.1661
83.9881 573 23.9374
84.1055 512 22.6274
84.2228 659 25.671
84.3401 614 24.779
84.4575 607 24.6374
84.5747 596 24.4131
84.692 617 24.8395
84.8093 556 23.5797
84.9265 527 22.9565
85.0437 546 23.3666
85.1609 502 22.4054
85.2781 537 23.1733
85.3952 516 22.7156
85.5123 623 24.96
85.6294 595 24.3926
85.7465 620 24.8998
85.8636 580 24.0832
85.9806 486 22.0454
86.0976 515 22.6936
86.2145 571 23.8956
86.3315 666 25.807
86.4484 672 25.923
86.5652 747 27.3313
86.682 709 26.6271
86.7988 699 26.4386
86.9156 738 27.1662
87.0323 660 25.6905
87.149 738 27.1662
87.2657 659 25.671
87.3823 667 25.8263
87.4988 671 25.9037
87.6154 776 27.8568
87.7318 747 27.3313
87.8483 752 27.4226
87.9647 761 27.5862
88.081 773 27.8029
88.1973 780 27.9285
88.3136 731 27.037
88.4298 732 27.0555
88.546 682 26.1151
88.6621 659 25.671
88.7781 674 25.9615
88.8942 0 1
89.0101 0 1
89.126 0 1
89.2419 0 1
89.3577 0 1
89.4734 0 1
89.5891 0 1
89.7047 0 1
89.8203 0 1
89.9358 0 1
92.3269 0 1
92.4424 0 1
92.558 0 1
92.6736 0 1
92.7893 0 1
92.905 0 1
93.0208 0 1
93.1366 0 1
93.2525 0 1
93.3685 0 1
93.4845 0 1
93.6005 805 28.3725
93.7167 851 29.1719
93.8328 740 27.2029
93.949 744 27.2764
94.0653 668 25.8457
94.1816 667 25.8263
94.2979 687 26.2107
94.4143 687 26.2107
94.5307 735 27.1109
94.6472 757 27.5136
94.7637 795 28.1957
94.8803 758 27.5318
94.9969 808 28.4253
95.1135 732 27.0555
95.2302 715 26.7395
95.3469 724 26.9072
95.4637 805 28.3725
95.5805 851 29.1719
95.6973 863 29.3769
95.8142 899 29.9833
95.9311 878 29.6311
96.048 874 29.5635
96.1649 867 29.4449
96.2819 878 29.6311
96.3989 800 28.2843
96.516 866 29.4279
96.633 835 28.8964
96.7501 866 29.4279
96.8673 859 29.3087
96.9844 896 29.9333
97.1016 899 29.9833
97.2188 867 29.4449
97.336 874 29.5635
97.4532 878 29.6311
97.5704 848 29.1204
97.6877 802 28.3196
97.805 788 28.0713
97.9223 743 27.258
98.0396 766 27.6767
98.1569 852 29.189
98.2743 832 28.8444
98.3916 864 29.3939
98.509 861 29.3428
98.6264 834 28.8791
98.7438 800 28.2843
98.8612 712 26.6833
98.9786 771 27.7669
99.096 872 29.5296
99.2134 939 30.6431
99.3308 884 29.7321
99.4482 871 29.5127
99.5656 935 30.5778
99.6831 916 30.2655
99.8005 946 30.7571
99.9179 935 30.5778
100.035 833 28.8617
100.153 823 28.688
100.27 829 28.7924
100.388 824 28.7054
100.505 860 29.3258
100.622 921 30.348
100.74 967 31.0966
100.857 967 31.0966
100.975 1017 31.8904
101.092 908 30.133
101.209 857 29.2746
101.327 853 29.2062
101.444 786 28.0357
101.561 793 28.1603
101.679 823 28.688
101.796 874 29.5635
101.913 874 29.5635
102.03 934 30.5614
102.148 949 30.8058
102.265 881 29.6816
102.382 872 29.5296
102.499 858 29.2916
102.616 884 29.7321
102.733 962 31.0161
102.851 1008 31.749
102.968 1047 32.3574
103.085 1048 32.3728
103.202 995 31.5436
103.319 979 31.289
103.436 982 31.3369
103.552 965 31.0644
103.669 980 31.305
103.786 1000 31.6228
103.903 988 31.4325
104.02 968 31.1127
104.137 1109 33.3017
104.253 1146 33.8526
104.37 1099 33.1512
104.487 1103 33.2114
104.603 1106 33.2566
104.72 1020 31.9374
104.836 1036 32.187
104.953 1020 31.9374
105.069 985 31.3847
105.186 982 31.3369
105.302 1135 33.6898
105.418 1122 33.4963
105.535 1076 32.8024
105.651 1156 34
105.767 1093 33.0606
105.883 1053 32.45
105.999 1052 32.4345
106.115 0 1
106.231 0 1
106.347 0 1
106.463 0 1
106.579 0 1
106.694 0 1
106.81 0 1
106.926 0 1
107.041 0 1
107.157 0 1
109.576 0 1
109.692 0 1
109.807 0 1
109.923 0 1
110.039 0 1
110.155 0 1
110.27 0 1
110.386 0 1
110.502 0 1
110.618 1172 34.2345
110.735 1103 33.2114
110.851 1132 33.6452
110.967 1080 32.8634
111.083 988 31.4325
111.199 1023 31.9844
111.316 1131 33.6303
111.432 1128 33.5857
111.549 1177 34.3074
111.665 1135 33.6898
111.782 1124 33.5261
111.898 1157 34.0147
112.015 1107 33.2716
112.132 1061 32.573
112.248 1020 31.9374
112.365 1081 32.8786
112.482 1033 32.1403
112.599 1094 33.0757
112.716 1124 33.5261
112.832 1190 34.4964
112.949 1186 34.4384
113.066 1150 33.9116
113.183 1153 33.9559
113.3 1152 33.9411
113.417 1095 33.0908
113.534 1079 32.8481
113.652 1098 33.1361
113.769 1006 31.7175
113.886 1093 33.0606
114.003 1046 32.3419
114.12 1048 32.3728
114.238 1112 33.3467
114.355 1051 32.4191
114.472 967 31.0966
114.589 987 31.4166
114.707 1076 32.8024
114.824 1087 32.9697
114.942 1096 33.1059
115.059 1140 33.7639
115.176 1190 34.4964
115.294 1158 34.0294
115.411 1154 33.9706
115.529 1169 34.1906
115.646 1109 33.3017
115.764 1084 32.9242
115.881 1125 33.541
115.999 1056 32.4962
116.116 1099 33.1512
116.234 1172 34.2345
116.351 1229 35.0571
116.469 1200 34.641
116.586 1249 35.3412
116.704 1245 35.2846
116.821 1154 33.9706
116.939 1249 35.3412
117.056 1187 34.4529
117.174 1235 35.1426
117.291 1109 33.3017
117.409 1194 34.5543
117.526 1204 34.6987
117.644 1202 34.6699
117.761 1177 34.3074
117.879 1206 34.7275
117.996 1137 33.7194
118.114 1095 33.0908
118.231 1096 33.1059
118.349 1165 34.1321
118.466 1069 32.6956
118.584 1274 35.6931
118.701 1213 34.8281
118.819 1166 34.1467
118.936 1136 33.7046
119.053 1210 34.7851
119.171 1132 33.6452
119.288 1110 33.3167
119.405 1099 33.1512
119.523 1123 33.5112
119.64 1140 33.7639
119.757 1117 33.4215
119.875 1141 33.7787
119.992 1214 34.8425
120.109 1209 34.7707
120.226 1220 34.9285
120.343 1250 35.3553
120.46 1289 35.9026
120.578 1259 35.4824
120.695 1218 34.8999
120.812 1203 34.6843
120.929 1195 34.5688
121.046 1111 33.3317
121.163 1221 34.9428
121.279 1242 35.242
121.396 1184 34.4093
121.513 1214 34.8425
121.63 1203 34.6843
121.747 1184 34.4093
121.863 1115 33.3916
121.98 1108 33.2866
122.097 1129 33.6006
122.213 1183 34.3948
122.33 1213 34.8281
122.446 1143 33.8083
122.563 1160 34.0588
122.679 1113 33.3617
122.795 1111 33.3317
122.912 1109 33.3017
123.028 1100 33.1662
123.144 1020 31.9374
123.26 1027 32.0468
123.377 0 1
123.493 0 1
123.609 0 1
123.725 0 1
123.84 0 1
123.956 0 1
124.072 0 1
124.188 0 1
124.303 0 1
124.419 0 1
126.852 0 1
126.968 0 1
127.083 0 1
127.199 0 1
127.315 0 1
127.431 0 1
127.547 0 1
127.663 0 1
127.779 0 1
127.895 0 1
128.011 0 1
128.127 0 1
128.243 0 1
128.359 1278 35.7491
128.476 1283 35.819
128.592 1362 36.9053
128.708 1364 36.9324
128.825 1381 37.1618
128.941 1355 36.8103
129.058 1347 36.7015
129.174 1304 36.1109
129.291 1372 37.0405
129.408 1402 37.4433
129.524 1351 36.756
129.641 1450 38.0789
129.758 1462 38.2361
129.875 1522 39.0128
129.992 1468 38.3145
130.108 1551 39.3827
130.225 1486 38.5487
130.342 1450 38.0789
130.459 1551 39.3827
130.576 1576 39.6989
130.693 1458 38.1838
130.81 1483 38.5097
130.928 1463 38.2492
131.045 1478 38.4448
131.162 1550 39.37
131.279 1560 39.4968
131.396 1546 39.3192
131.513 1492 38.6264
131.631 1527 39.0768
131.748 1498 38.704
131.865 1617 40.2119
131.983 1495 38.6652
132.1 1498 38.704
132.217 1499 38.7169
132.335 1437 37.9078
132.452 1432 37.8418
132.57 1448 38.0526
132.687 1480 38.4708
132.804 1534 39.1663
132.922 1466 38.2884
133.039 1447 38.0395
133.157 1518 38.9615
133.274 1489 38.5876
133.392 1502 38.7556
133.509 1578 39.724
133.627 1542 39.2683
133.744 1557 39.4588
133.862 1624 40.2989
133.979 1634 40.4228
134.097 1663 40.7799
134.214 1628 40.3485
134.332 1595 39.9375
134.449 1695 41.1704
134.567 1595 39.9375
134.684 1690 41.1096
134.802 1631 40.3856
134.919 1683 41.0244
135.037 1646 40.5709
135.154 1646 40.5709
135.272 1675 40.9268
135.389 1630 40.3733
135.507 1615 40.1871
135.624 1623 40.2865
135.742 1611 40.1373
135.859 1584 39.7995
135.977 1551 39.3827
136.094 1564 39.5474
136.211 1523 39.0256
136.329 1554 39.4208
136.446 1587 39.8372
136.564 1571 39.6358
136.681 1631 40.3856
136.798 1547 39.3319
136.915 1571 39.6358
137.033 1555 39.4335
137.15 1496 38.6782
137.267 1516 38.9358
137.384 1534 39.1663
137.502 1681 41
137.619 1748 41.8091
137.736 1658 40.7185
137.853 1655 40.6817
137.97 1702 41.2553
138.087 1696 41.1825
138.204 1745 41.7732
138.321 1771 42.0833
138.438 1837 42.8602
138.555 1836 42.8486
138.672 1857 43.0929
138.788 1828 42.7551
138.905 1810 42.5441
139.022 1830 42.7785
139.139 1742 41.7373
139.255 1772 42.0951
139.372 1701 41.2432
139.488 1680 40.9878
139.605 1654 40.6694
139.721 1649 40.6079
139.838 1679 40.9756
139.954 1641 40.5093
140.071 1679 40.9756
140.187 1727 41.5572
140.303 1589 39.8623
140.419 1675 40.9268
140.535 1661 40.7554
140.652 1588 39.8497
140.768 0 1
140.884 0 1
141 0 1
141.115 0 1
141.231 0 1
141.347 0 1
141.463 0 1
141.578 0 1
141.694 0 1
144.104 0 1
144.219 0 1
144.335 0 1
144.45 0 1
144.566 0 1
144.682 0 1
144.798 0 1
144.914 0 1
145.03 0 1
145.146 1301 36.0694
145.262 1467 38.3014
145.378 1472 38.3667
145.494 1456 38.1576
145.61 1391 37.2961
145.726 1523 39.0256
145.842 1511 38.8716
145.959 1470 38.3406
146.075 1462 38.2361
146.192 1518 38.9615
146.308 1435 37.8814
146.425 1420 37.6829
146.541 1371 37.027
146.658 1370 37.0135
146.774 1367 36.973
146.891 1359 36.8646
147.008 1373 37.054
147.125 1333 36.5103
147.241 1361 36.8917
147.358 1370 37.0135
147.475 1471 38.3536
147.592 1470 38.3406
147.709 1487 38.5616
147.826 1506 38.8072
147.943 1492 38.6264
148.06 1493 38.6394
148.177 1507 38.8201
148.294 1531 39.128
148.411 1566 39.5727
148.528 1539 39.2301
148.645 1542 39.2683
148.762 1569 39.6106
148.88 1641 40.5093
148.997 1600 40
149.114 1572 39.6485
149.231 1609 40.1123
149.349 1527 39.0768
149.466 1594 39.9249
149.583 1653 40.6571
149.701 1602 40.025
149.818 1655 40.6817
149.935 1722 41.497
150.053 1615 40.1871
150.17 1585 39.8121
150.287 1641 40.5093
150.405 1590 39.8748
150.522 1581 39.7618
150.64 1491 38.6135
150.757 1416 37.6298
150.875 1434 37.8682
150.992 1432 37.8418
151.11 1396 37.3631
151.227 1394 37.3363
151.344 1451 38.092
151.462 1384 37.2022
151.579 1294 35.9722
151.697 1308 36.1663
151.814 1243 35.2562
151.932 1311 36.2077
152.049 1381 37.1618
152.167 1397 37.3765
152.284 1358 36.8511
152.402 1364 36.9324
152.519 1390 37.2827
152.636 1381 37.1618
152.754 1497 38.6911
152.871 1466 38.2884
152.989 1545 39.3065
153.106 1521 39
153.223 1555 39.4335
153.341 1610 40.1248
153.458 1592 39.8999
153.575 1687 41.0731
153.693 1601 40.0125
153.81 1687 41.0731
153.927 1661 40.7554
154.044 1663 40.7799
154.162 1722 41.497
154.279 1702 41.2553
154.396 1705 41.2916
154.513 1615 40.1871
154.63 1711 41.3642
154.747 1746 41.7852
154.864 1772 42.0951
154.981 1583 39.7869
155.098 1661 40.7554
155.215 1621 40.2616
155.332 1624 40.2989
155.449 1441 37.9605
155.566 1435 37.8814
155.683 1454 38.1314
155.8 1366 36.9594
155.917 1304 36.1109
156.033 1230 35.0714
156.15 0 1
156.267 0 1
156.383 0 1
156.5 0 1
156.617 0 1
156.733 0 1
156.85 0 1
156.966 0 1
157.082 0 1
157.199 0 1
157.315 0 1
157.431 0 1
157.547 0 1
157.664 0 1
157.78 0 1
157.896 0 1
158.012 0 1
158.128 0 1
158.244 0 1
158.359 0 1
158.475 0 1
158.591 0 1
158.706 0 1
