
6.15755 0 1
6.2731 0 1
6.3887 0 1
6.50437 0 1
6.62009 0 1
6.73587 0 1
6.8517 0 1
6.96759 0 1
7.08353 0 1
7.19952 0 1
7.31557 0 1
7.43166 0 1
7.54781 0 1
7.664 0 1
7.78024 0 1
7.89653 0 1
8.01286 0 1
8.12924 0 1
8.24567 0 1
8.36213 0 1
8.47864 0 1
8.59519 0 1
8.71178 0 1
8.82841 0 1
8.94508 0 1
9.06179 0 1
9.17853 0 1
9.29531 0 1
9.41212 0 1
9.52897 0 1
9.64584 0 1
9.76276 0 1
9.8797 0 1
9.99667 0 1
10.1137 0 1
10.2307 0 1
10.3478 0 1
10.4648 0 1
10.5819 0 1
10.6991 0 1
10.8162 0 1
10.9334 0 1
11.0506 0 1
11.1678 0 1
11.285 0 1
11.4023 0 1
11.5196 0 1
11.6369 0 1
11.7542 0 1
11.8715 0 1
11.9888 0 1
12.1062 0 1
12.2235 0 1
12.3409 0 1
12.4582 0 1
12.5756 0 1
12.693 0 1
12.8104 0 1
12.9278 0 1
13.0452 0 1
13.1626 0 1
13.28 0 1
13.3974 0 1
13.5149 0 1
13.6323 0 1
13.7497 0 1
13.8671 0 1
13.9845 0 1
14.1019 0 1
14.2193 0 1
14.3367 0 1
14.4541 0 1
14.5714 0 1
14.6888 0 1
14.8062 0 1
14.9235 0 1
15.0408 0 0
15.1581 0 0
15.2755 0 0
15.3927 0 0
15.51 0 0
15.6273 0 0
15.7445 0 0
15.8617 0 0
15.9789 0 0
16.0961 0 0
16.2132 0 0
16.3304 0 0
16.4475 0 0
16.5646 0 0
16.6816 0 0
16.7986 0 0
16.9156 0 0
17.0326 0 0
17.1496 0 0
17.2665 0 0
17.3833 0 0
17.5002 0 0
17.617 0 0
17.7338 0 0
17.8505 0 0
17.9672 0 0
18.0839 0 0
18.2005 0 0
18.3171 0 0
18.4337 0 0
18.5502 0 0
18.6666 0 0
18.7831 0 0
18.8994 0 0
19.0158 0 0
19.1321 0 0
19.2483 0 0
19.3645 0 0
19.4806 0 0
19.5967 0 0
19.7128 0 0
19.8288 0 0
19.9447 0 0
20.0606 0 1
20.1764 0 1
20.2922 0 1
20.4079 0 1
20.5236 0 1
20.6392 0 1
20.7548 0 1
20.8702 0 1
23.3078 0 1
23.4233 0 1
23.539 0 1
23.6547 0 1
23.7704 0 1
23.8862 0 1
24.0021 0 1
24.118 0 1
24.234 0 1
24.35 0 1
24.4661 1380 37.1484
24.5822 1524 39.0384
24.6984 1594 39.9249
24.8146 1741 41.7253
24.9309 2022 44.9667
25.0472 2365 48.6313
25.1636 2629 51.2738
25.28 2748 52.4214
25.3965 2791 52.8299
25.513 2818 53.0848
25.6296 2882 53.6843
25.7462 2873 53.6004
25.8628 2854 53.4228
25.9795 2782 52.7447
26.0962 2791 52.8299
26.213 2920 54.037
26.3298 2910 53.9444
26.4466 2962 54.4243
26.5635 2888 53.7401
26.6804 2823 53.1319
26.7973 2773 52.6593
26.9143 2743 52.3737
27.0313 2693 51.8941
27.1483 2626 51.2445
27.2653 2576 50.7543
27.3824 2608 51.0686
27.4996 2487 49.8698
27.6167 2260 47.5395
27.7339 2379 48.775
27.8511 2511 50.1099
27.9683 2615 51.1371
28.0855 2657 51.5461
28.2028 2791 52.8299
28.3201 2655 51.5267
28.4374 2678 51.7494
28.5547 2614 51.1273
28.6721 2641 51.3907
28.7894 2571 50.705
28.9068 2621 51.1957
29.0242 2663 51.6043
29.1416 2632 51.303
29.259 2737 52.3163
29.3764 2778 52.7067
29.4939 2651 51.4879
29.6113 2549 50.4876
29.7288 2465 49.6488
29.8463 2484 49.8397
29.9638 2556 50.5569
30.0812 2480 49.7996
30.1987 2489 49.8899
30.3162 2555 50.547
30.4337 2539 50.3885
30.5512 2642 51.4004
30.6687 2650 51.4782
30.7862 2690 51.8652
30.9037 2446 49.4571
31.0212 2429 49.2849
31.1387 2390 48.8876
31.2562 2468 49.679
31.3737 2568 50.6754
31.4912 2651 51.4879
31.6087 2613 51.1175
31.7262 2758 52.5167
31.8436 2687 51.8363
31.9611 2774 52.6688
32.0785 2630 51.2835
32.1959 2567 50.6656
32.3134 2570 50.6952
32.4308 2484 49.8397
32.5482 2486 49.8598
32.6655 2470 49.6991
32.7829 2418 49.1732
32.9002 2392 48.9081
33.0176 2252 47.4552
33.1349 2295 47.9062
33.2522 2308 48.0416
33.3694 2281 47.7598
33.4867 2281 47.7598
33.6039 2361 48.5901
33.7211 2409 49.0816
33.8383 2483 49.8297
33.9554 2546 50.4579
34.0725 2505 50.05
34.1896 2504 50.04
34.3067 2505 50.05
34.4237 2639 51.3712
34.5407 2491 49.9099
34.6577 2381 48.7955
34.7746 2389 48.8774
34.8915 2281 47.7598
35.0084 2506 50.06
35.1252 2660 51.5752
35.242 2728 52.2303
35.3587 2571 50.705
35.4755 2573 50.7247
35.5921 2567 50.6656
35.7088 2570 50.6952
35.8254 2342 48.3942
35.9419 2329 48.2597
36.0584 2246 47.392
36.1749 2277 47.7179
36.2913 2219 47.1063
36.4077 2136 46.2169
36.524 1982 44.5197
36.6403 1803 42.4617
36.7565 1542 39.2683
36.8727 1534 39.1663
36.9889 1523 39.0256
37.1049 1485 38.5357
37.221 0 1
37.3369 0 1
37.4529 0 1
37.5687 0 1
37.6845 0 1
37.8003 0 1
37.916 0 1
38.0316 0 1
38.1472 0 1
40.5851 0 1
40.7008 0 1
40.8164 0 1
40.9322 0 1
41.048 0 1
41.1639 0 1
41.2798 0 1
41.3958 0 1
41.5118 0 1
41.6279 0 1
41.744 2006 44.7884
41.8602 2518 50.1797
41.9765 3007 54.8361
42.0928 3319 57.6108
42.2091 3365 58.0086
42.3255 3316 57.5847
42.4419 3285 57.3149
42.5584 3472 58.9237
42.675 3497 59.1354
42.7915 3670 60.5805
42.9081 3699 60.8194
43.0248 3689 60.7371
43.1415 3769 61.3922
43.2582 3601 60.0083
43.375 3326 57.6715
43.4918 3400 58.3095
43.6087 3296 57.4108
43.7256 3530 59.4138
43.8425 3546 59.5483
43.9595 3722 61.0082
44.0765 3500 59.1608
44.1935 3580 59.8331
44.3106 3476 58.9576
44.4277 3422 58.4979
44.5448 3394 58.258
44.6619 3131 55.9553
44.7791 3039 55.1271
44.8963 2963 54.4334
45.0136 2818 53.0848
45.1308 2689 51.8556
45.2481 2542 50.4183
45.3654 2493 49.93
45.4827 2315 48.1144
45.6001 2278 47.7284
45.7174 2293 47.8853
45.8348 2221 47.1275
45.9522 2163 46.5081
46.0697 2200 46.9042
46.1871 2209 47
46.3046 2234 47.2652
46.422 2220 47.1169
46.5395 2305 48.0104
46.657 2215 47.0638
46.7745 2201 46.9148
46.892 2059 45.3762
47.0096 2024 44.9889
47.1271 2132 46.1736
47.2446 2134 46.1952
47.3622 2132 46.1736
47.4797 2237 47.2969
47.5973 2243 47.3603
47.7149 2180 46.6905
47.8324 2144 46.3033
47.95 2139 46.2493
48.0675 2109 45.9239
48.1851 2039 45.1553
48.3027 2081 45.618
48.4202 1989 44.5982
48.5378 1951 44.1701
48.6554 1995 44.6654
48.7729 2016 44.8999
48.8904 1917 43.7836
49.008 1901 43.6005
49.1255 1829 42.7668
49.243 1970 44.3847
49.3605 1936 44
49.478 1908 43.6807
49.5955 2047 45.2438
49.713 2149 46.3573
49.8304 2061 45.3982
49.9479 2131 46.1628
50.0653 2129 46.1411
50.1827 2198 46.8828
50.3001 2013 44.8665
50.4175 1634 40.4228
50.5348 1708 41.328
50.6521 1858 43.1045
50.7694 1930 43.9318
50.8867 2036 45.1221
51.004 2255 47.4868
51.1212 2159 46.465
51.2384 2110 45.9347
51.3556 2232 47.244
51.4727 2144 46.3033
51.5899 2086 45.6727
51.707 2135 46.2061
51.824 2124 46.0869
51.9411 2004 44.7661
52.0581 1995 44.6654
52.175 2040 45.1664
52.2919 1994 44.6542
52.4088 1996 44.6766
52.5257 1963 44.3058
52.6425 1834 42.8252
52.7593 1856 43.0813
52.876 1927 43.8976
52.9927 1884 43.4051
53.1094 1907 43.6692
53.226 1962 44.2945
53.3426 2008 44.8107
53.4591 2012 44.8553
53.5756 1683 41.0244
53.692 1479 38.4578
53.8084 1356 36.8239
53.9248 1199 34.6266
54.0411 1118 33.4365
54.1573 1063 32.6037
54.2735 0 1
54.3896 0 1
54.5057 0 1
54.6217 0 1
54.7377 0 1
54.8537 0 1
54.9695 0 1
55.0853 0 1
55.2011 0 1
55.3168 0 1
55.4324 0 1
57.824 0 1
57.9396 0 1
58.0553 0 1
58.1711 0 1
58.2869 0 1
58.4028 0 1
58.5187 0 1
58.6347 0 1
58.7508 0 1
58.8669 0 1
58.983 1796 42.3792
59.0992 1773 42.107
59.2155 1783 42.2256
59.3318 1915 43.7607
59.4482 2084 45.6508
59.5646 2279 47.7389
59.681 2445 49.4469
59.7975 2528 50.2792
59.9141 2522 50.2195
60.0306 2398 48.9694
60.1473 2559 50.5866
60.2639 2437 49.366
60.3807 2469 49.689
60.4974 2515 50.1498
60.6142 2567 50.6656
60.731 2533 50.3289
60.8479 2556 50.5569
60.9648 2554 50.5371
61.0818 2423 49.224
61.1987 2595 50.9411
61.3158 2468 49.679
61.4328 2447 49.4672
61.5499 2381 48.7955
61.667 2386 48.8467
61.7841 2382 48.8057
61.9013 2470 49.6991
62.0185 2540 50.3984
62.1357 2589 50.8822
62.253 2565 50.6458
62.3702 2404 49.0306
62.4875 2257 47.5079
62.6049 2237 47.2969
62.7222 2171 46.594
62.8396 2324 48.2079
62.9569 2568 50.6754
63.0743 2556 50.5569
63.1918 2573 50.7247
63.3092 2615 51.1371
63.4267 2601 51
63.5441 2595 50.9411
63.6616 2681 51.7784
63.7791 2583 50.8232
63.8966 2613 51.1175
64.0142 2549 50.4876
64.1317 2578 50.774
64.2492 2591 50.9019
64.3668 2504 50.04
64.4843 2555 50.547
64.6019 2564 50.636
64.7195 2412 49.1121
64.837 2521 50.2096
64.9546 2414 49.1325
65.0722 2365 48.6313
65.1898 2362 48.6004
65.3074 2435 49.3457
65.4249 2450 49.4975
65.5425 2463 49.6286
65.6601 2446 49.4571
65.7777 2541 50.4083
65.8952 2405 49.0408
66.0128 2331 48.2804
66.1304 2076 45.5631
66.2479 2001 44.7325
66.3655 2055 45.3321
66.483 2351 48.4871
66.6005 2386 48.8467
66.718 2601 51
66.8355 2521 50.2096
66.953 2492 49.9199
67.0705 2569 50.6853
67.1879 2529 50.2892
67.3054 2483 49.8297
67.4228 2527 50.2693
67.5402 2538 50.3786
67.6576 2602 51.0098
67.7749 2493 49.93
67.8923 2458 49.5782
68.0096 2472 49.7192
68.1269 2470 49.6991
68.2442 2507 50.07
68.3614 2424 49.2341
68.4787 2363 48.6107
68.5958 2267 47.613
68.713 2310 48.0625
68.8302 2293 47.8853
68.9473 2305 48.0104
69.0643 2247 47.4025
69.1814 2405 49.0408
69.2984 2332 48.2908
69.4154 2337 48.3425
69.5323 2402 49.0102
69.6492 2264 47.5815
69.7661 2029 45.0444
69.8829 1858 43.1045
69.9997 1954 44.2041
70.1165 2067 45.4643
70.2332 2207 46.9787
70.3499 2087 45.6837
70.4665 1862 43.1509
70.5831 1685 41.0488
70.6996 1703 41.2674
70.8161 1544 39.2938
70.9326 1541 39.2556
71.049 1497 38.6911
71.1653 1379 37.1349
71.2817 1345 36.6742
71.3979 1285 35.8469
71.5141 1242 35.242
71.6303 1178 34.322
71.7464 1147 33.8674
71.8624 0 1
71.9784 0 1
72.0944 0 1
72.2102 0 1
72.3261 0 1
72.4418 0 1
72.5575 0 1
72.6732 0 1
75.1054 0 1
75.2209 0 1
75.3365 0 1
75.4521 0 1
75.5678 0 1
75.6835 0 1
75.7993 0 1
75.9151 0 1
76.031 0 1
76.147 1853 43.0465
76.263 2190 46.7974
76.3791 2148 46.3465
76.4952 2213 47.0425
76.6113 2215 47.0638
76.7276 2169 46.5725
76.8438 2294 47.8957
76.9601 2283 47.7807
77.0765 2358 48.5592
77.1929 2234 47.2652
77.3093 2316 48.1248
77.4258 2291 47.8644
77.5423 2326 48.2286
77.6589 2213 47.0425
77.7755 2118 46.0217
77.8921 2165 46.5296
78.0088 2208 46.9894
78.1256 2267 47.613
78.2423 2209 47
78.3591 2269 47.634
78.4759 2342 48.3942
78.5928 2256 47.4974
78.7097 2001 44.7325
78.8266 1672 40.8901
78.9436 1605 40.0625
79.0606 1660 40.7431
79.1776 1892 43.4971
79.2946 2236 47.2864
79.4117 2320 48.1664
79.5288 2440 49.3964
79.6459 2441 49.4065
79.7631 2382 48.8057
79.8802 2319 48.156
79.9974 2364 48.621
80.1147 2420 49.1935
80.2319 2388 48.8672
80.3491 2418 49.1732
80.4664 2423 49.224
80.5837 2444 49.4368
80.701 2489 49.8899
80.8183 2463 49.6286
80.9357 2571 50.705
81.053 2410 49.0918
81.1704 2369 48.6724
81.2877 2427 49.2646
81.4051 2408 49.0714
81.5225 2420 49.1935
81.6399 2463 49.6286
81.7573 2480 49.7996
81.8747 2507 50.07
81.9922 2610 51.0882
82.1096 2739 52.3355
82.227 2746 52.4023
82.3444 2521 50.2096
82.4619 2420 49.1935
82.5793 2174 46.6262
82.6967 2293 47.8853
82.8142 2844 53.3292
82.9316 3294 57.3934
83.049 3612 60.0999
83.1664 3736 61.1228
83.2838 3837 61.9435
83.4012 3925 62.6498
83.5186 4145 64.3817
83.636 4236 65.0846
83.7534 4141 64.3506
83.8708 4408 66.3928
83.9881 4183 64.6761
84.1055 4489 67
84.2228 4396 66.3023
84.3401 4437 66.6108
84.4575 4563 67.55
84.5747 4468 66.8431
84.692 4358 66.0151
84.8093 4520 67.2309
84.9265 4275 65.3835
85.0437 4347 65.9318
85.1609 4295 65.5362
85.2781 4358 66.0151
85.3952 4346 65.9242
85.5123 4316 65.6963
85.6294 4353 65.9773
85.7465 4197 64.7843
85.8636 3738 61.1392
85.9806 3331 57.7148
86.0976 2732 52.2685
86.2145 2806 52.9717
86.3315 3004 54.8088
86.4484 3879 62.2816
86.5652 4135 64.304
86.682 4210 64.8845
86.7988 4212 64.8999
86.9156 4193 64.7534
87.0323 4067 63.773
87.149 4213 64.9076
87.2657 4348 65.9394
87.3823 4184 64.6838
87.4988 4052 63.6553
87.6154 3752 61.2536
87.7318 3427 58.5406
87.8483 3105 55.7225
87.9647 3090 55.5878
88.081 3084 55.5338
88.1973 3022 54.9727
88.3136 2780 52.7257
88.4298 2664 51.614
88.546 2564 50.636
88.6621 2394 48.9285
88.7781 2390 48.8876
88.8942 0 1
89.0101 0 1
89.126 0 1
89.2419 0 1
89.3577 0 1
89.4734 0 1
89.5891 0 1
89.7047 0 1
89.8203 0 1
89.9358 0 1
92.3269 0 1
92.4424 0 1
92.558 0 1
92.6736 0 1
92.7893 0 1
92.905 0 1
93.0208 0 1
93.1366 0 1
93.2525 0 1
93.3685 0 1
93.4845 0 1
93.6005 4503 67.1044
93.7167 4553 67.4759
93.8328 4490 67.0075
93.949 4370 66.106
94.0653 4366 66.0757
94.1816 4380 66.1816
94.2979 4440 66.6333
94.4143 4443 66.6558
94.5307 4454 66.7383
94.6472 4289 65.4905
94.7637 4098 64.0156
94.8803 3816 61.7738
94.9969 3229 56.8243
95.1135 3081 55.5068
95.2302 3282 57.2887
95.3469 3714 60.9426
95.4637 4200 64.8074
95.5805 4471 66.8655
95.6973 4519 67.2235
95.8142 4524 67.2607
95.9311 4580 67.6757
96.048 4463 66.8057
96.1649 4532 67.3201
96.2819 4625 68.0074
96.3989 4527 67.283
96.516 4696 68.5274
96.633 4515 67.1937
96.7501 4687 68.4617
96.8673 4807 69.3325
96.9844 4679 68.4032
97.1016 4773 69.0869
97.2188 4750 68.9202
97.336 4632 68.0588
97.4532 4531 67.3127
97.5704 4569 67.5944
97.6877 4474 66.888
97.805 4577 67.6535
97.9223 4485 66.9701
98.0396 4508 67.1416
98.1569 4585 67.7126
98.2743 4402 66.3476
98.3916 3974 63.0397
98.509 3503 59.1861
98.6264 3120 55.857
98.7438 3274 57.2189
98.8612 3708 60.8933
98.9786 4153 64.4438
99.096 4389 66.2495
99.2134 4414 66.4379
99.3308 4440 66.6333
99.4482 4273 65.3682
99.5656 4240 65.1153
99.6831 4127 64.2417
99.8005 4068 63.7809
99.9179 3889 62.3618
100.035 3838 61.9516
100.153 3929 62.6817
100.27 3878 62.2736
100.388 3780 61.4817
100.505 3840 61.9677
100.622 3754 61.2699
100.74 3516 59.2959
100.857 3528 59.397
100.975 3334 57.7408
101.092 3268 57.1664
101.209 3238 56.9034
101.327 3074 55.4437
101.444 3044 55.1725
101.561 3086 55.5518
101.679 3151 56.1338
101.796 3082 55.5158
101.913 3036 55.0999
102.03 2639 51.3712
102.148 2432 49.3153
102.265 2184 46.7333
102.382 2533 50.3289
102.499 2661 51.5849
102.616 2937 54.1941
102.733 2876 53.6284
102.851 2909 53.9351
102.968 2948 54.2955
103.085 2906 53.9073
103.202 2825 53.1507
103.319 2857 53.4509
103.436 2878 53.647
103.552 2770 52.6308
103.669 2834 53.2353
103.786 2855 53.4322
103.903 2902 53.8702
104.02 2851 53.3948
104.137 2902 53.8702
104.253 2950 54.3139
104.37 2889 53.7494
104.487 2724 52.192
104.603 2676 51.7301
104.72 2745 52.3927
104.836 2453 49.5278
104.953 2170 46.5833
105.069 1939 44.0341
105.186 1777 42.1545
105.302 1692 41.1339
105.418 1570 39.6232
105.535 1460 38.2099
105.651 1293 35.9583
105.767 988 31.4325
105.883 870 29.4958
105.999 851 29.1719
106.115 0 1
106.231 0 1
106.347 0 1
106.463 0 1
106.579 0 1
106.694 0 1
106.81 0 1
106.926 0 1
107.041 0 1
107.157 0 1
109.576 0 1
109.692 0 1
109.807 0 1
109.923 0 1
110.039 0 1
110.155 0 1
110.27 0 1
110.386 0 1
110.502 0 1
110.618 2821 53.1131
110.735 3014 54.8999
110.851 2794 52.8583
110.967 2444 49.4368
111.083 2530 50.2991
111.199 2672 51.6914
111.316 2973 54.5252
111.432 3047 55.1996
111.549 3083 55.5248
111.665 3147 56.0981
111.782 3199 56.5597
111.898 3189 56.4712
112.015 3026 55.0091
112.132 3133 55.9732
112.248 3117 55.8301
112.365 3071 55.4166
112.482 3023 54.9818
112.599 3254 57.0438
112.716 3270 57.1839
112.832 3342 57.81
112.949 3331 57.7148
113.066 3287 57.3324
113.183 3419 58.4722
113.3 3472 58.9237
113.417 3506 59.2115
113.534 3420 58.4808
113.652 3367 58.0259
113.769 3387 58.1979
113.886 3323 57.6455
114.003 3402 58.3267
114.12 3380 58.1378
114.238 3295 57.4021
114.355 3097 55.6507
114.472 2768 52.6118
114.589 2661 51.5849
114.707 2700 51.9615
114.824 2915 53.9907
114.942 3148 56.107
115.059 3283 57.2975
115.176 3185 56.4358
115.294 3268 57.1664
115.411 3259 57.0877
115.529 3190 56.4801
115.646 3153 56.1516
115.764 3087 55.5608
115.881 3104 55.7136
115.999 3279 57.2626
116.116 3137 56.0089
116.234 3266 57.1489
116.351 3353 57.9051
116.469 3440 58.6515
116.586 3463 58.8473
116.704 3529 59.4054
116.821 3543 59.5231
116.939 3507 59.2199
117.056 3549 59.5735
117.174 3462 58.8388
117.291 3493 59.1016
117.409 3388 58.2065
117.526 3453 58.7622
117.644 3593 59.9416
117.761 3391 58.2323
117.879 3312 57.55
117.996 3021 54.9636
118.114 2826 53.1601
118.231 2699 51.9519
118.349 2813 53.0377
118.466 3047 55.1996
118.584 3113 55.7943
118.701 3290 57.3585
118.819 3253 57.0351
118.936 3204 56.6039
119.053 3094 55.6237
119.171 3166 56.2672
119.288 3142 56.0535
119.405 3052 55.2449
119.523 3128 55.9285
119.64 3158 56.1961
119.757 3207 56.6304
119.875 3114 55.8032
119.992 3201 56.5774
120.109 3210 56.6569
120.226 3314 57.5674
120.343 3321 57.6281
120.46 3317 57.5934
120.578 3331 57.7148
120.695 3328 57.6888
120.812 3305 57.4891
120.929 3185 56.4358
121.046 3220 56.745
121.163 3197 56.542
121.279 3160 56.2139
121.396 3141 56.0446
121.513 2978 54.5711
121.63 2796 52.8772
121.747 2489 49.8899
121.863 2248 47.4131
121.98 2222 47.1381
122.097 2157 46.4435
122.213 2355 48.5283
122.33 2291 47.8644
122.446 2273 47.676
122.563 2149 46.3573
122.679 2064 45.4313
122.795 2063 45.4203
122.912 1966 44.3396
123.028 1976 44.4522
123.144 1971 44.3959
123.26 1890 43.4741
123.377 0 1
123.493 0 1
123.609 0 1
123.725 0 1
123.84 0 1
123.956 0 1
124.072 0 1
124.188 0 1
124.303 0 1
124.419 0 1
126.852 0 1
126.968 0 1
127.083 0 1
127.199 0 1
127.315 0 1
127.431 0 1
127.547 0 1
127.663 0 1
127.779 0 1
127.895 0 1
128.011 0 1
128.127 0 1
128.243 0 1
128.359 3652 60.4318
128.476 3625 60.208
128.592 3660 60.4979
128.708 3718 60.9754
128.825 3717 60.9672
128.941 3807 61.7009
129.058 3646 60.3821
129.174 3827 61.8628
129.291 3939 62.7615
129.408 4031 63.4902
129.524 4100 64.0312
129.641 4179 64.6452
129.758 4222 64.9769
129.875 4437 66.6108
129.992 4369 66.0984
130.108 4507 67.1342
130.225 4539 67.3721
130.342 4488 66.9925
130.459 4178 64.6375
130.576 4219 64.9538
130.693 4049 63.6318
130.81 3911 62.538
130.928 3809 61.7171
131.045 3913 62.554
131.162 4160 64.4981
131.279 4266 65.3146
131.396 4256 65.238
131.513 4175 64.6142
131.631 4153 64.4438
131.748 4248 65.1767
131.865 4216 64.9307
131.983 4103 64.0547
132.1 4144 64.3739
132.217 4038 63.5453
132.335 4099 64.0234
132.452 4206 64.8537
132.57 3986 63.1348
132.687 3844 62
132.804 4219 64.9538
132.922 4090 63.9531
133.039 4243 65.1383
133.157 4290 65.4981
133.274 4481 66.9403
133.392 4415 66.4455
133.509 4492 67.0224
133.627 4584 67.7052
133.744 4655 68.2276
133.862 4608 67.8823
133.979 4748 68.9057
134.097 4353 65.9773
134.214 4215 64.923
134.332 4214 64.9153
134.449 4275 65.3835
134.567 4493 67.0298
134.684 4399 66.325
134.802 4542 67.3944
134.919 4772 69.0797
135.037 4454 66.7383
135.154 4541 67.3869
135.272 4478 66.9179
135.389 4483 66.9552
135.507 4531 67.3127
135.624 4371 66.1135
135.742 4457 66.7608
135.859 4391 66.2646
135.977 4348 65.9394
136.094 4191 64.7379
136.211 4294 65.5286
136.329 4260 65.2687
136.446 4322 65.7419
136.564 4464 66.8132
136.681 4390 66.2571
136.798 4383 66.2042
136.915 4360 66.0303
137.033 4554 67.4833
137.15 4409 66.4003
137.267 4487 66.9851
137.384 4447 66.6858
137.502 4512 67.1714
137.619 4529 67.2978
137.736 4364 66.0606
137.853 4120 64.1872
137.97 4069 63.7887
138.087 3965 62.9682
138.204 4159 64.4903
138.321 4262 65.284
138.438 4323 65.7495
138.555 4404 66.3626
138.672 4340 65.8787
138.788 4251 65.1997
138.905 4224 64.9923
139.022 4038 63.5453
139.139 3924 62.6418
139.255 3675 60.6218
139.372 3639 60.3241
139.488 3335 57.7495
139.605 3334 57.7408
139.721 3066 55.3715
139.838 3184 56.4269
139.954 3139 56.0268
140.071 2999 54.7631
140.187 2969 54.4885
140.303 2999 54.7631
140.419 2951 54.3231
140.535 3038 55.1181
140.652 3122 55.8749
140.768 0 1
140.884 0 1
141 0 1
141.115 0 1
141.231 0 1
141.347 0 1
141.463 0 1
141.578 0 1
141.694 0 1
144.104 0 1
144.219 0 1
144.335 0 1
144.45 0 1
144.566 0 1
144.682 0 1
144.798 0 1
144.914 0 1
145.03 0 1
145.146 8517 92.2876
145.262 8897 94.3239
145.378 9006 94.8999
145.494 9053 95.1473
145.61 9010 94.921
145.726 9036 95.0579
145.842 9283 96.3483
145.959 9079 95.2838
146.075 8980 94.7629
146.192 9155 95.6818
146.308 9147 95.6399
146.425 9040 95.0789
146.541 8229 90.7138
146.658 7175 84.7054
146.774 6188 78.6638
146.891 5976 77.3046
147.008 6562 81.0062
147.125 7788 88.2496
147.241 8497 92.1792
147.358 8865 94.1541
147.475 9087 95.3258
147.592 8959 94.652
147.709 9170 95.7601
147.826 9104 95.4149
147.943 9169 95.7549
148.06 9326 96.5712
148.177 9024 94.9947
148.294 8959 94.652
148.411 9259 96.2237
148.528 9241 96.1301
148.645 9317 96.5246
148.762 9254 96.1977
148.88 9186 95.8436
148.997 9047 95.1157
149.114 9465 97.2882
149.231 9143 95.619
149.349 9367 96.7833
149.466 9211 95.974
149.583 9517 97.5551
149.701 9285 96.3587
149.818 9566 97.8059
149.935 9430 97.1082
150.053 9434 97.1288
150.17 8961 94.6626
150.287 8038 89.6549
150.405 6808 82.5106
150.522 6219 78.8606
150.64 6718 81.9634
150.757 7731 87.9261
150.875 8860 94.1276
150.992 9040 95.0789
151.11 8917 94.4299
151.227 9018 94.9632
151.344 9097 95.3782
151.462 8966 94.689
151.579 9088 95.331
151.697 8969 94.7048
151.814 9045 95.1052
151.932 9032 95.0368
152.049 9422 97.067
152.167 9163 95.7236
152.284 9152 95.6661
152.402 9147 95.6399
152.519 9298 96.4261
152.636 9232 96.0833
152.754 9362 96.7574
152.871 9568 97.8162
152.989 9462 97.2728
153.106 9480 97.3653
153.223 9545 97.6985
153.341 9739 98.6864
153.458 9586 97.9081
153.575 9715 98.5647
153.693 9659 98.2802
153.81 9204 95.9375
153.927 8356 91.4112
154.044 7101 84.2674
154.162 6735 82.067
154.279 7092 84.214
154.396 8139 90.2164
154.513 9102 95.4044
154.63 9367 96.7833
154.747 9358 96.7368
154.864 9299 96.4313
154.981 9407 96.9897
155.098 9102 95.4044
155.215 8965 94.6837
155.332 8796 93.787
155.449 8737 93.4719
155.566 8438 91.8586
155.683 8208 90.598
155.8 8093 89.9611
155.917 8096 89.9778
156.033 7832 88.4986
156.15 0 1
156.267 0 1
156.383 0 1
156.5 0 1
156.617 0 1
156.733 0 1
156.85 0 1
156.966 0 1
157.082 0 1
157.199 0 1
157.315 0 1
157.431 0 1
157.547 0 1
157.664 0 1
157.78 0 1
157.896 0 1
158.012 0 1
158.128 0 1
158.244 0 1
158.359 0 1
158.475 0 1
158.591 0 1
158.706 0 1
