
6.15755 0 1
6.2731 0 1
6.3887 0 1
6.50437 0 1
6.62009 0 1
6.73587 0 1
6.8517 0 1
6.96759 0 1
7.08353 0 1
7.19952 0 1
7.31557 0 1
7.43166 0 1
7.54781 0 1
7.664 0 1
7.78024 0 1
7.89653 0 1
8.01286 0 1
8.12924 0 1
8.24567 0 1
8.36213 0 1
8.47864 0 1
8.59519 0 1
8.71178 0 1
8.82841 0 1
8.94508 0 1
9.06179 0 1
9.17853 0 1
9.29531 0 1
9.41212 0 1
9.52897 0 1
9.64584 0 1
9.76276 0 1
9.8797 0 1
9.99667 0 1
10.1137 0 1
10.2307 0 1
10.3478 0 1
10.4648 0 1
10.5819 0 1
10.6991 0 1
10.8162 0 1
10.9334 0 1
11.0506 0 1
11.1678 0 1
11.285 0 1
11.4023 0 1
11.5196 0 1
11.6369 0 1
11.7542 0 1
11.8715 0 1
11.9888 0 1
12.1062 0 1
12.2235 0 1
12.3409 0 1
12.4582 0 1
12.5756 0 1
12.693 0 1
12.8104 0 1
12.9278 0 1
13.0452 0 1
13.1626 0 1
13.28 0 1
13.3974 0 1
13.5149 0 1
13.6323 0 1
13.7497 0 1
13.8671 0 1
13.9845 0 1
14.1019 0 1
14.2193 0 1
14.3367 0 1
14.4541 0 1
14.5714 0 1
14.6888 0 1
14.8062 0 1
14.9235 0 1
15.0408 0 0
15.1581 0 0
15.2755 0 0
15.3927 0 0
15.51 0 0
15.6273 0 0
15.7445 0 0
15.8617 0 0
15.9789 0 0
16.0961 0 0
16.2132 0 0
16.3304 0 0
16.4475 0 0
16.5646 0 0
16.6816 0 0
16.7986 0 0
16.9156 0 0
17.0326 0 0
17.1496 0 0
17.2665 0 0
17.3833 0 0
17.5002 0 0
17.617 0 0
17.7338 0 0
17.8505 0 0
17.9672 0 0
18.0839 0 0
18.2005 0 0
18.3171 0 0
18.4337 0 0
18.5502 0 0
18.6666 0 0
18.7831 0 0
18.8994 0 0
19.0158 0 0
19.1321 0 0
19.2483 0 0
19.3645 0 0
19.4806 0 0
19.5967 0 0
19.7128 0 0
19.8288 0 0
19.9447 0 0
20.0606 0 1
20.1764 0 1
20.2922 0 1
20.4079 0 1
20.5236 0 1
20.6392 0 1
20.7548 0 1
20.8702 0 1
23.3078 0 1
23.4233 0 1
23.539 0 1
23.6547 0 1
23.7704 0 1
23.8862 0 1
24.0021 0 1
24.118 0 1
24.234 0 1
24.35 0 1
24.4661 1283 35.819
24.5822 1332 36.4966
24.6984 1505 38.7943
24.8146 1651 40.6325
24.9309 1894 43.5201
25.0472 2241 47.3392
25.1636 2484 49.8397
25.28 2597 50.9608
25.3965 2614 51.1273
25.513 2696 51.923
25.6296 2674 51.7107
25.7462 2678 51.7494
25.8628 2583 50.8232
25.9795 2680 51.7687
26.0962 2704 52
26.213 2750 52.4404
26.3298 2762 52.5547
26.4466 2663 51.6043
26.5635 2599 50.9804
26.6804 2630 51.2835
26.7973 2646 51.4393
26.9143 2613 51.1175
27.0313 2437 49.366
27.1483 2587 50.8626
27.2653 2478 49.7795
27.3824 2461 49.6085
27.4996 2224 47.1593
27.6167 2111 45.9456
27.7339 2182 46.7119
27.8511 2255 47.4868
27.9683 2408 49.0714
28.0855 2353 48.5077
28.2028 2524 50.2394
28.3201 2516 50.1597
28.4374 2575 50.7445
28.5547 2531 50.309
28.6721 2491 49.9099
28.7894 2503 50.03
28.9068 2517 50.1697
29.0242 2523 50.2295
29.1416 2498 49.98
29.259 2465 49.6488
29.3764 2535 50.3488
29.4939 2370 48.6826
29.6113 2363 48.6107
29.7288 2331 48.2804
29.8463 2386 48.8467
29.9638 2281 47.7598
30.0812 2348 48.4562
30.1987 2326 48.2286
30.3162 2399 48.9796
30.4337 2387 48.8569
30.5512 2420 49.1935
30.6687 2393 48.9183
30.7862 2474 49.7393
30.9037 2279 47.7389
31.0212 2280 47.7493
31.1387 2217 47.085
31.2562 2324 48.2079
31.3737 2337 48.3425
31.4912 2361 48.5901
31.6087 2441 49.4065
31.7262 2486 49.8598
31.8436 2519 50.1896
31.9611 2528 50.2792
32.0785 2462 49.6185
32.1959 2469 49.689
32.3134 2460 49.5984
32.4308 2338 48.3529
32.5482 2230 47.2229
32.6655 2373 48.7134
32.7829 2183 46.7226
32.9002 2257 47.5079
33.0176 2100 45.8258
33.1349 2245 47.3814
33.2522 2157 46.4435
33.3694 2164 46.5188
33.4867 2087 45.6837
33.6039 2219 47.1063
33.7211 2174 46.6262
33.8383 2302 47.9792
33.9554 2291 47.8644
34.0725 2300 47.9583
34.1896 2340 48.3735
34.3067 2376 48.7442
34.4237 2402 49.0102
34.5407 2243 47.3603
34.6577 2231 47.2335
34.7746 2153 46.4004
34.8915 2304 48
35.0084 2265 47.592
35.1252 2471 49.7092
35.242 2412 49.1121
35.3587 2496 49.96
35.4755 2516 50.1597
35.5921 2382 48.8057
35.7088 2202 46.9255
35.8254 2143 46.2925
35.9419 2223 47.1487
36.0584 2157 46.4435
36.1749 2008 44.8107
36.2913 2035 45.111
36.4077 1930 43.9318
36.524 1820 42.6615
36.6403 1675 40.9268
36.7565 1492 38.6264
36.8727 1453 38.1182
36.9889 1428 37.7889
37.1049 1398 37.3898
37.221 0 1
37.3369 0 1
37.4529 0 1
37.5687 0 1
37.6845 0 1
37.8003 0 1
37.916 0 1
38.0316 0 1
38.1472 0 1
40.5851 0 1
40.7008 0 1
40.8164 0 1
40.9322 0 1
41.048 0 1
41.1639 0 1
41.2798 0 1
41.3958 0 1
41.5118 0 1
41.6279 0 1
41.744 1961 44.2832
41.8602 2622 51.2055
41.9765 3150 56.1249
42.0928 3318 57.6021
42.2091 3410 58.3952
42.3255 3415 58.438
42.4419 3509 59.2368
42.5584 3523 59.3549
42.675 3641 60.3407
42.7915 3604 60.0333
42.9081 3657 60.4731
43.0248 3727 61.0492
43.1415 3722 61.0082
43.2582 3638 60.3158
43.375 3278 57.2538
43.4918 3307 57.5065
43.6087 3370 58.0517
43.7256 3517 59.3043
43.8425 3526 59.3801
43.9595 3620 60.1664
44.0765 3555 59.6238
44.1935 3478 58.9746
44.3106 3361 57.9741
44.4277 3329 57.6975
44.5448 3224 56.7803
44.6619 2983 54.6168
44.7791 3000 54.7723
44.8963 2770 52.6308
45.0136 2628 51.264
45.1308 2564 50.636
45.2481 2334 48.3115
45.3654 2259 47.5289
45.4827 2175 46.6369
45.6001 2095 45.7712
45.7174 2037 45.1331
45.8348 1946 44.1135
45.9522 2019 44.9333
46.0697 1934 43.9773
46.1871 2017 44.911
46.3046 2063 45.4203
46.422 2054 45.3211
46.5395 2064 45.4313
46.657 2105 45.8803
46.7745 1978 44.4747
46.892 1844 42.9418
47.0096 1870 43.2435
47.1271 1875 43.3013
47.2446 2029 45.0444
47.3622 2015 44.8888
47.4797 1961 44.2832
47.5973 2022 44.9667
47.7149 2021 44.9555
47.8324 2015 44.8888
47.95 1955 44.2154
48.0675 1980 44.4972
48.1851 1895 43.5316
48.3027 1915 43.7607
48.4202 1850 43.0116
48.5378 1759 41.9404
48.6554 1717 41.4367
48.7729 1733 41.6293
48.8904 1704 41.2795
49.008 1674 40.9145
49.1255 1748 41.8091
49.243 1675 40.9268
49.3605 1763 41.9881
49.478 1743 41.7493
49.5955 1913 43.7379
49.713 1840 42.8952
49.8304 1873 43.2782
49.9479 1870 43.2435
50.0653 1925 43.8748
50.1827 1874 43.2897
50.3001 1749 41.821
50.4175 1619 40.2368
50.5348 1519 38.9744
50.6521 1603 40.0375
50.7694 1804 42.4735
50.8867 1912 43.7264
51.004 1930 43.9318
51.1212 1956 44.2267
51.2384 1943 44.0795
51.3556 2014 44.8776
51.4727 1866 43.1972
51.5899 1929 43.9204
51.707 1883 43.3935
51.824 1943 44.0795
51.9411 1807 42.5088
52.0581 1805 42.4853
52.175 1749 41.821
52.2919 1769 42.0595
52.4088 1859 43.1161
52.5257 1712 41.3763
52.6425 1701 41.2432
52.7593 1699 41.2189
52.876 1769 42.0595
52.9927 1769 42.0595
53.1094 1731 41.6053
53.226 1687 41.0731
53.3426 1706 41.3038
53.4591 1754 41.8808
53.5756 1562 39.5221
53.692 1395 37.3497
53.8084 1265 35.5668
53.9248 1164 34.1174
54.0411 996 31.5595
54.1573 948 30.7896
54.2735 0 1
54.3896 0 1
54.5057 0 1
54.6217 0 1
54.7377 0 1
54.8537 0 1
54.9695 0 1
55.0853 0 1
55.2011 0 1
55.3168 0 1
55.4324 0 1
57.824 0 1
57.9396 0 1
58.0553 0 1
58.1711 0 1
58.2869 0 1
58.4028 0 1
58.5187 0 1
58.6347 0 1
58.7508 0 1
58.8669 0 1
58.983 1538 39.2173
59.0992 1573 39.6611
59.2155 1596 39.95
59.3318 1697 41.1947
59.4482 1892 43.4971
59.5646 2001 44.7325
59.681 2170 46.5833
59.7975 2223 47.1487
59.9141 2287 47.8226
60.0306 2191 46.8081
60.1473 2281 47.7598
60.2639 2218 47.0956
60.3807 2128 46.1303
60.4974 2254 47.4763
60.6142 2257 47.5079
60.731 2294 47.8957
60.8479 2310 48.0625
60.9648 2350 48.4768
61.0818 2242 47.3498
61.1987 2317 48.1352
61.3158 2182 46.7119
61.4328 2061 45.3982
61.5499 2113 45.9674
61.667 2210 47.0106
61.7841 2099 45.8148
61.9013 2142 46.2817
62.0185 2279 47.7389
62.1357 2213 47.0425
62.253 2207 46.9787
62.3702 2240 47.3286
62.4875 2008 44.8107
62.6049 1932 43.9545
62.7222 1943 44.0795
62.8396 2022 44.9667
62.9569 2147 46.3357
63.0743 2365 48.6313
63.1918 2287 47.8226
63.3092 2337 48.3425
63.4267 2347 48.4458
63.5441 2376 48.7442
63.6616 2278 47.7284
63.7791 2301 47.9687
63.8966 2216 47.0744
64.0142 2169 46.5725
64.1317 2247 47.4025
64.2492 2251 47.4447
64.3668 2197 46.8722
64.4843 2211 47.0213
64.6019 2113 45.9674
64.7195 2155 46.422
64.837 2192 46.8188
64.9546 2068 45.4753
65.0722 2076 45.5631
65.1898 2119 46.0326
65.3074 2146 46.3249
65.4249 2156 46.4327
65.5425 2261 47.55
65.6601 2168 46.5618
65.7777 2188 46.7761
65.8952 2123 46.076
66.0128 2084 45.6508
66.1304 1857 43.0929
66.2479 1782 42.2137
66.3655 1943 44.0795
66.483 2094 45.7602
66.6005 2215 47.0638
66.718 2281 47.7598
66.8355 2329 48.2597
66.953 2346 48.4355
67.0705 2285 47.8017
67.1879 2279 47.7389
67.3054 2200 46.9042
67.4228 2243 47.3603
67.5402 2231 47.2335
67.6576 2250 47.4342
67.7749 2271 47.655
67.8923 2178 46.669
68.0096 2166 46.5403
68.1269 2185 46.744
68.2442 2201 46.9148
68.3614 2124 46.0869
68.4787 2161 46.4866
68.5958 2068 45.4753
68.713 2072 45.5192
68.8302 2088 45.6946
68.9473 1986 44.5646
69.0643 1993 44.643
69.1814 2077 45.5741
69.2984 2049 45.2659
69.4154 2114 45.9783
69.5323 2058 45.3652
69.6492 1970 44.3847
69.7661 1770 42.0714
69.8829 1619 40.2368
69.9997 1846 42.9651
70.1165 1856 43.0813
70.2332 1845 42.9535
70.3499 1850 43.0116
70.4665 1708 41.328
70.5831 1540 39.2428
70.6996 1414 37.6032
70.8161 1452 38.1051
70.9326 1337 36.565
71.049 1299 36.0416
71.1653 1301 36.0694
71.2817 1223 34.9714
71.3979 1116 33.4066
71.5141 1109 33.3017
71.6303 1074 32.7719
71.7464 994 31.5278
71.8624 0 1
71.9784 0 1
72.0944 0 1
72.2102 0 1
72.3261 0 1
72.4418 0 1
72.5575 0 1
72.6732 0 1
75.1054 0 1
75.2209 0 1
75.3365 0 1
75.4521 0 1
75.5678 0 1
75.6835 0 1
75.7993 0 1
75.9151 0 1
76.031 0 1
76.147 1769 42.0595
76.263 1927 43.8976
76.3791 1982 44.5197
76.4952 1888 43.4511
76.6113 1990 44.6094
76.7276 2054 45.3211
76.8438 2086 45.6727
76.9601 2085 45.6618
77.0765 2032 45.0777
77.1929 2079 45.5961
77.3093 2073 45.5302
77.4258 2077 45.5741
77.5423 2070 45.4973
77.6589 1996 44.6766
77.7755 2082 45.6289
77.8921 1940 44.0454
78.0088 1930 43.9318
78.1256 1984 44.5421
78.2423 2004 44.7661
78.3591 2085 45.6618
78.4759 1989 44.5982
78.5928 2015 44.8888
78.7097 1822 42.6849
78.8266 1559 39.4842
78.9436 1395 37.3497
79.0606 1477 38.4318
79.1776 1805 42.4853
79.2946 2094 45.7602
79.4117 2100 45.8258
79.5288 2069 45.4863
79.6459 2161 46.4866
79.7631 2227 47.1911
79.8802 2122 46.0652
79.9974 2189 46.7868
80.1147 2181 46.7012
80.2319 2158 46.4543
80.3491 2176 46.6476
80.4664 2177 46.6583
80.5837 2248 47.4131
80.701 2200 46.9042
80.8183 2233 47.2546
80.9357 2288 47.833
81.053 2239 47.3181
81.1704 2164 46.5188
81.2877 2173 46.6154
81.4051 2160 46.4758
81.5225 2173 46.6154
81.6399 2132 46.1736
81.7573 2250 47.4342
81.8747 2282 47.7703
81.9922 2376 48.7442
82.1096 2439 49.3862
82.227 2474 49.7393
82.3444 2316 48.1248
82.4619 2196 46.8615
82.5793 1950 44.1588
82.6967 2105 45.8803
82.8142 2540 50.3984
82.9316 3055 55.2721
83.049 3342 57.81
83.1664 3414 58.4294
83.2838 3740 61.1555
83.4012 3733 61.0983
83.5186 3669 60.5723
83.636 3748 61.2209
83.7534 4016 63.3719
83.8708 3923 62.6339
83.9881 3942 62.7853
84.1055 4090 63.9531
84.2228 4161 64.5058
84.3401 4013 63.3482
84.4575 4074 63.8279
84.5747 4163 64.5213
84.692 4155 64.4593
84.8093 4139 64.3351
84.9265 4023 63.4271
85.0437 3936 62.7375
85.1609 4091 63.9609
85.2781 4006 63.293
85.3952 3889 62.3618
85.5123 4081 63.8827
85.6294 4173 64.5988
85.7465 3895 62.4099
85.8636 3609 60.075
85.9806 3181 56.4004
86.0976 2578 50.774
86.2145 2633 51.3128
86.3315 2925 54.0833
86.4484 3731 61.0819
86.5652 3817 61.7819
86.682 3933 62.7136
86.7988 3925 62.6498
86.9156 3919 62.6019
87.0323 3935 62.7296
87.149 3956 62.8967
87.2657 3893 62.3939
87.3823 3825 61.8466
87.4988 3759 61.3107
87.6154 3388 58.2065
87.7318 3162 56.2317
87.8483 2938 54.2033
87.9647 2879 53.6563
88.081 2813 53.0377
88.1973 2757 52.5071
88.3136 2719 52.144
88.4298 2583 50.8232
88.546 2397 48.9592
88.6621 2214 47.0532
88.7781 2142 46.2817
88.8942 0 1
89.0101 0 1
89.126 0 1
89.2419 0 1
89.3577 0 1
89.4734 0 1
89.5891 0 1
89.7047 0 1
89.8203 0 1
89.9358 0 1
92.3269 0 1
92.4424 0 1
92.558 0 1
92.6736 0 1
92.7893 0 1
92.905 0 1
93.0208 0 1
93.1366 0 1
93.2525 0 1
93.3685 0 1
93.4845 0 1
93.6005 4134 64.2962
93.7167 4118 64.1716
93.8328 4241 65.123
93.949 4265 65.307
94.0653 4069 63.7887
94.1816 4147 64.3972
94.2979 4235 65.0769
94.4143 4087 63.9296
94.5307 4122 64.2028
94.6472 4084 63.9062
94.7637 3891 62.3779
94.8803 3682 60.6795
94.9969 3179 56.3826
95.1135 2840 53.2917
95.2302 3060 55.3173
95.3469 3536 59.4643
95.4637 3914 62.562
95.5805 4186 64.6993
95.6973 4250 65.192
95.8142 4394 66.2873
95.9311 4365 66.0681
96.048 4311 65.6582
96.1649 4246 65.1613
96.2819 4213 64.9076
96.3989 4180 64.6529
96.516 4252 65.2074
96.633 4230 65.0385
96.7501 4271 65.3529
96.8673 4328 65.7875
96.9844 4372 66.1211
97.1016 4487 66.9851
97.2188 4366 66.0757
97.336 4363 66.053
97.4532 4373 66.1287
97.5704 4110 64.1093
97.6877 4169 64.5678
97.805 4214 64.9153
97.9223 4231 65.0461
98.0396 4183 64.6761
98.1569 4227 65.0154
98.2743 4111 64.1171
98.3916 3695 60.7865
98.509 3314 57.5674
98.6264 2956 54.3691
98.7438 2998 54.754
98.8612 3289 57.3498
98.9786 3742 61.1719
99.096 3948 62.8331
99.2134 3769 61.3922
99.3308 3754 61.2699
99.4482 3542 59.5147
99.5656 3524 59.3633
99.6831 3379 58.1292
99.8005 3307 57.5065
99.9179 3352 57.8965
100.035 3193 56.5066
100.153 3135 55.9911
100.27 3124 55.8928
100.388 3039 55.1271
100.505 3002 54.7905
100.622 3106 55.7315
100.74 2998 54.754
100.857 2847 53.3573
100.975 2827 53.1695
101.092 2799 52.9056
101.209 2869 53.563
101.327 2839 53.2823
101.444 2884 53.7029
101.561 2841 53.301
101.679 2888 53.7401
101.796 2815 53.0566
101.913 2707 52.0288
102.03 2513 50.1298
102.148 2240 47.3286
102.265 2066 45.4533
102.382 2333 48.3011
102.499 2350 48.4768
102.616 2616 51.1468
102.733 2797 52.8867
102.851 2578 50.774
102.968 2598 50.9706
103.085 2654 51.517
103.202 2627 51.2543
103.319 2556 50.5569
103.436 2686 51.8266
103.552 2511 50.1099
103.669 2568 50.6754
103.786 2580 50.7937
103.903 2513 50.1298
104.02 2707 52.0288
104.137 2673 51.7011
104.253 2560 50.5964
104.37 2574 50.7346
104.487 2524 50.2394
104.603 2514 50.1398
104.72 2439 49.3862
104.836 2304 48
104.953 2068 45.4753
105.069 1763 41.9881
105.186 1648 40.5956
105.302 1554 39.4208
105.418 1405 37.4833
105.535 1272 35.6651
105.651 1100 33.1662
105.767 956 30.9192
105.883 858 29.2916
105.999 792 28.1425
106.115 0 1
106.231 0 1
106.347 0 1
106.463 0 1
106.579 0 1
106.694 0 1
106.81 0 1
106.926 0 1
107.041 0 1
107.157 0 1
109.576 0 1
109.692 0 1
109.807 0 1
109.923 0 1
110.039 0 1
110.155 0 1
110.27 0 1
110.386 0 1
110.502 0 1
110.618 2581 50.8035
110.735 2632 51.303
110.851 2520 50.1996
110.967 2363 48.6107
111.083 2158 46.4543
111.199 2392 48.9081
111.316 2682 51.788
111.432 2903 53.8795
111.549 2895 53.8052
111.665 2873 53.6004
111.782 2838 53.2729
111.898 2913 53.9722
112.015 2842 53.3104
112.132 2932 54.1479
112.248 2734 52.2877
112.365 2807 52.9811
112.482 2754 52.4786
112.599 2968 54.4794
112.716 3036 55.0999
112.832 2988 54.6626
112.949 3138 56.0179
113.066 3135 55.9911
113.183 3078 55.4797
113.3 3181 56.4004
113.417 3154 56.1605
113.534 3130 55.9464
113.652 3199 56.5597
113.769 3155 56.1694
113.886 3217 56.7186
114.003 3179 56.3826
114.12 3114 55.8032
114.238 3081 55.5068
114.355 2861 53.4883
114.472 2527 50.2693
114.589 2432 49.3153
114.707 2452 49.5177
114.824 2729 52.2398
114.942 2853 53.4135
115.059 3023 54.9818
115.176 2981 54.5985
115.294 2988 54.6626
115.411 3100 55.6776
115.529 2882 53.6843
115.646 2870 53.5724
115.764 2955 54.3599
115.881 2916 54
115.999 2839 53.2823
116.116 3004 54.8088
116.234 3046 55.1906
116.351 3151 56.1338
116.469 3173 56.3294
116.586 3282 57.2887
116.704 3142 56.0535
116.821 3224 56.7803
116.939 3222 56.7627
117.056 3138 56.0179
117.174 3292 57.376
117.291 3312 57.55
117.409 3169 56.2939
117.526 3301 57.4543
117.644 3163 56.2406
117.761 3242 56.9386
117.879 3134 55.9821
117.996 2717 52.1249
118.114 2584 50.8331
118.231 2606 51.049
118.349 2552 50.5173
118.466 2872 53.591
118.584 2943 54.2494
118.701 3040 55.1362
118.819 2948 54.2955
118.936 2950 54.3139
119.053 2989 54.6717
119.171 2818 53.0848
119.288 2847 53.3573
119.405 2801 52.9245
119.523 2782 52.7447
119.64 2893 53.7866
119.757 2794 52.8583
119.875 2905 53.8981
119.992 2944 54.2586
120.109 2922 54.0555
120.226 3068 55.3895
120.343 3014 54.8999
120.46 3096 55.6417
120.578 3098 55.6597
120.695 3016 54.9181
120.812 2954 54.3507
120.929 2946 54.2771
121.046 2965 54.4518
121.163 2875 53.619
121.279 2842 53.3104
121.396 2813 53.0377
121.513 2861 53.4883
121.63 2452 49.5177
121.747 2344 48.4149
121.863 2134 46.1952
121.98 2052 45.299
122.097 1985 44.5533
122.213 2195 46.8508
122.33 2092 45.7384
122.446 2085 45.6618
122.563 2077 45.5741
122.679 1916 43.7721
122.795 1845 42.9535
122.912 1805 42.4853
123.028 1823 42.6966
123.144 1678 40.9634
123.26 1661 40.7554
123.377 0 1
123.493 0 1
123.609 0 1
123.725 0 1
123.84 0 1
123.956 0 1
124.072 0 1
124.188 0 1
124.303 0 1
124.419 0 1
126.852 0 1
126.968 0 1
127.083 0 1
127.199 0 1
127.315 0 1
127.431 0 1
127.547 0 1
127.663 0 1
127.779 0 1
127.895 0 1
128.011 0 1
128.127 0 1
128.243 0 1
128.359 3406 58.3609
128.476 3417 58.4551
128.592 3416 58.4466
128.708 3413 58.4209
128.825 3356 57.931
128.941 3479 58.983
129.058 3541 59.5063
129.174 3428 58.5491
129.291 3577 59.808
129.408 3692 60.7618
129.524 3668 60.564
129.641 3832 61.9032
129.758 3977 63.0635
129.875 3982 63.1031
129.992 4066 63.7652
130.108 4086 63.9218
130.225 4030 63.4823
130.342 4019 63.3956
130.459 3905 62.49
130.576 3906 62.498
130.693 3684 60.696
130.81 3528 59.397
130.928 3640 60.3324
131.045 3662 60.5145
131.162 3748 61.2209
131.279 3853 62.0725
131.396 3913 62.554
131.513 3744 61.1882
131.631 3965 62.9682
131.748 3905 62.49
131.865 3836 61.9355
131.983 3705 60.8687
132.1 3701 60.8358
132.217 3739 61.1474
132.335 3745 61.1964
132.452 3670 60.5805
132.57 3755 61.2781
132.687 3581 59.8415
132.804 4001 63.2535
132.922 3857 62.1048
133.039 3928 62.6738
133.157 3915 62.57
133.274 3912 62.546
133.392 4029 63.4744
133.509 4122 64.2028
133.627 4195 64.7688
133.744 4268 65.3299
133.862 4308 65.6354
133.979 4328 65.7875
134.097 4173 64.5988
134.214 4068 63.7809
134.332 3897 62.426
134.449 3904 62.482
134.567 4026 63.4508
134.684 4287 65.4752
134.802 4232 65.0538
134.919 4298 65.5591
135.037 4213 64.9076
135.154 4335 65.8407
135.272 4124 64.2184
135.389 4137 64.3195
135.507 4124 64.2184
135.624 3902 62.466
135.742 4016 63.3719
135.859 3919 62.6019
135.977 3929 62.6817
136.094 3931 62.6977
136.211 4058 63.7024
136.329 3937 62.7455
136.446 3885 62.3298
136.564 4080 63.8749
136.681 4024 63.435
136.798 4038 63.5453
136.915 4045 63.6003
137.033 4051 63.6475
137.15 4142 64.3584
137.267 4180 64.6529
137.384 4213 64.9076
137.502 4238 65.0999
137.619 4040 63.561
137.736 4005 63.2851
137.853 3933 62.7136
137.97 3878 62.2736
138.087 3797 61.6198
138.204 3856 62.0967
138.321 4036 63.5295
138.438 3968 62.9921
138.555 3942 62.7853
138.672 4030 63.4823
138.788 3922 62.6259
138.905 4022 63.4192
139.022 3763 61.3433
139.139 3708 60.8933
139.255 3470 58.9067
139.372 3323 57.6455
139.488 3164 56.2494
139.605 3141 56.0446
139.721 3079 55.4887
139.838 2947 54.2863
139.954 2856 53.4416
140.071 2745 52.3927
140.187 2836 53.2541
140.303 2753 52.469
140.419 2752 52.4595
140.535 2834 53.2353
140.652 2878 53.647
140.768 0 1
140.884 0 1
141 0 1
141.115 0 1
141.231 0 1
141.347 0 1
141.463 0 1
141.578 0 1
141.694 0 1
144.104 0 1
144.219 0 1
144.335 0 1
144.45 0 1
144.566 0 1
144.682 0 1
144.798 0 1
144.914 0 1
145.03 0 1
145.146 8299 91.0988
145.262 8437 91.8531
145.378 8688 93.2094
145.494 8672 93.1236
145.61 8689 93.2148
145.726 8675 93.1397
145.842 8792 93.7657
145.959 8791 93.7603
146.075 8748 93.5307
146.192 8930 94.4987
146.308 8807 93.8456
146.425 8587 92.6661
146.541 7937 89.0898
146.658 6924 83.2106
146.774 5955 77.1686
146.891 5582 74.7128
147.008 6315 79.467
147.125 7518 86.7064
147.241 8089 89.9389
147.358 8699 93.2684
147.475 8447 91.9076
147.592 8797 93.7923
147.709 8590 92.6823
147.826 8750 93.5414
147.943 8541 92.4175
148.06 8790 93.755
148.177 8640 92.9516
148.294 8710 93.3274
148.411 8582 92.6391
148.528 8823 93.9308
148.645 8822 93.9255
148.762 8766 93.6269
148.88 8782 93.7123
148.997 8706 93.3059
149.114 9054 95.1525
149.231 8745 93.5147
149.349 9013 94.9368
149.466 8777 93.6856
149.583 8969 94.7048
149.701 9007 94.9052
149.818 8845 94.0479
149.935 8964 94.6784
150.053 8922 94.4563
150.17 8496 92.1737
150.287 7763 88.1079
150.405 6551 80.9382
150.522 5923 76.961
150.64 6414 80.0875
150.757 7336 85.6505
150.875 8297 91.0879
150.992 8799 93.803
151.11 8502 92.2063
151.227 8580 92.6283
151.344 8744 93.5094
151.462 8565 92.5473
151.579 8478 92.0761
151.697 8547 92.45
151.814 8657 93.043
151.932 8726 93.4131
152.049 8804 93.8296
152.167 8882 94.2444
152.284 8767 93.6323
152.402 8712 93.3381
152.519 8757 93.5788
152.636 8847 94.0585
152.754 8958 94.6467
152.871 9091 95.3467
152.989 9260 96.2289
153.106 9000 94.8683
153.223 9170 95.7601
153.341 9254 96.1977
153.458 9296 96.4158
153.575 9156 95.687
153.693 9187 95.8488
153.81 8911 94.3981
153.927 7801 88.3233
154.044 6715 81.9451
154.162 6257 79.1012
154.279 6702 81.8657
154.396 7763 88.1079
154.513 8680 93.1665
154.63 8916 94.4246
154.747 8918 94.4352
154.864 8934 94.5198
154.981 8751 93.5468
155.098 8770 93.6483
155.215 8820 93.9149
155.332 8426 91.7932
155.449 8660 93.0591
155.566 8269 90.934
155.683 8120 90.111
155.8 7846 88.5776
155.917 7734 87.9432
156.033 7657 87.5043
156.15 0 1
156.267 0 1
156.383 0 1
156.5 0 1
156.617 0 1
156.733 0 1
156.85 0 1
156.966 0 1
157.082 0 1
157.199 0 1
157.315 0 1
157.431 0 1
157.547 0 1
157.664 0 1
157.78 0 1
157.896 0 1
158.012 0 1
158.128 0 1
158.244 0 1
158.359 0 1
158.475 0 1
158.591 0 1
158.706 0 1
