
6.15755 0 1
6.2731 0 1
6.3887 0 1
6.50437 0 1
6.62009 0 1
6.73587 0 1
6.8517 0 1
6.96759 0 1
7.08353 0 1
7.19952 0 1
7.31557 0 1
7.43166 0 1
7.54781 0 1
7.664 0 1
7.78024 0 1
7.89653 0 1
8.01286 0 1
8.12924 0 1
8.24567 0 1
8.36213 0 1
8.47864 0 1
8.59519 0 1
8.71178 0 1
8.82841 0 1
8.94508 0 1
9.06179 0 1
9.17853 0 1
9.29531 0 1
9.41212 0 1
9.52897 0 1
9.64584 0 1
9.76276 0 1
9.8797 0 1
9.99667 0 1
10.1137 0 1
10.2307 0 1
10.3478 0 1
10.4648 0 1
10.5819 0 1
10.6991 0 1
10.8162 0 1
10.9334 0 1
11.0506 0 1
11.1678 0 1
11.285 0 1
11.4023 0 1
11.5196 0 1
11.6369 0 1
11.7542 0 1
11.8715 0 1
11.9888 0 1
12.1062 0 1
12.2235 0 1
12.3409 0 1
12.4582 0 1
12.5756 0 1
12.693 0 1
12.8104 0 1
12.9278 0 1
13.0452 0 1
13.1626 0 1
13.28 0 1
13.3974 0 1
13.5149 0 1
13.6323 0 1
13.7497 0 1
13.8671 0 1
13.9845 0 1
14.1019 0 1
14.2193 0 1
14.3367 0 1
14.4541 0 1
14.5714 0 1
14.6888 0 1
14.8062 0 1
14.9235 0 1
15.0408 23678 153.877
15.1581 24826 157.563
15.2755 26136 161.666
15.3927 26344 162.308
15.51 26655 163.264
15.6273 26389 162.447
15.7445 25953 161.099
15.8617 25649 160.153
15.9789 24429 156.298
16.0961 23666 153.838
16.2132 23153 152.161
16.3304 23187 152.273
16.4475 23332 152.748
16.5646 23628 153.714
16.6816 23747 154.101
16.7986 23965 154.806
16.9156 23635 153.737
17.0326 23183 152.26
17.1496 22598 150.326
17.2665 22726 150.751
17.3833 22294 149.312
17.5002 22420 149.733
17.617 22917 151.384
17.7338 22937 151.45
17.8505 23169 152.214
17.9672 23231 152.417
18.0839 23873 154.509
18.2005 24610 156.876
18.3171 24960 157.987
18.4337 25327 159.145
18.5502 25630 160.094
18.6666 25739 160.434
18.7831 25792 160.599
18.8994 25045 158.256
19.0158 24738 157.283
19.1321 23653 153.795
19.2483 22587 150.29
19.3645 20674 143.785
19.4806 19110 138.239
19.5967 17583 132.601
19.7128 16187 127.228
19.8288 15052 122.687
19.9447 13774 117.363
20.0606 0 1
20.1764 0 1
20.2922 0 1
20.4079 0 1
20.5236 0 1
20.6392 0 1
20.7548 0 1
20.8702 0 1
23.3078 0 1
23.4233 0 1
23.539 0 1
23.6547 0 1
23.7704 0 1
23.8862 0 1
24.0021 0 1
24.118 0 1
24.234 0 1
24.35 0 1
24.4661 10692 103.402
24.5822 11712 108.222
24.6984 12861 113.406
24.8146 13448 115.966
24.9309 14282 119.507
25.0472 15469 124.374
25.1636 16789 129.572
25.28 18373 135.547
25.3965 19980 141.351
25.513 21194 145.582
25.6296 22392 149.64
25.7462 23731 154.049
25.8628 24576 156.767
25.9795 25227 158.83
26.0962 25225 158.824
26.213 25560 159.875
26.3298 25080 158.367
26.4466 24031 155.019
26.5635 23512 153.336
26.6804 23193 152.292
26.7973 23760 154.143
26.9143 24454 156.378
27.0313 24147 155.393
27.1483 24605 156.86
27.2653 24876 157.721
27.3824 25134 158.537
27.4996 25551 159.847
27.6167 24715 157.21
27.7339 24063 155.123
27.8511 23261 152.516
27.9683 22857 151.185
28.0855 22068 148.553
28.2028 21041 145.055
28.3201 19775 140.624
28.4374 18783 137.051
28.5547 18709 136.781
28.6721 19698 140.35
28.7894 20678 143.798
28.9068 21568 146.86
29.0242 22420 149.733
29.1416 22717 150.722
29.259 23057 151.845
29.3764 23106 152.007
29.4939 23202 152.322
29.6113 23389 152.935
29.7288 23167 152.207
29.8463 23121 152.056
29.9638 22713 150.708
30.0812 22454 149.847
30.1987 22448 149.827
30.3162 22563 150.21
30.4337 23330 152.742
30.5512 23669 153.847
30.6687 24079 155.174
30.7862 24214 155.608
30.9037 24614 156.888
31.0212 24484 156.474
31.1387 24162 155.441
31.2562 23515 153.346
31.3737 23048 151.816
31.4912 22697 150.655
31.6087 22055 148.509
31.7262 20947 144.731
31.8436 19741 140.503
31.9611 18715 136.803
32.0785 18632 136.499
32.1959 19444 139.442
32.3134 20059 141.63
32.4308 21447 146.448
32.5482 22136 148.782
32.6655 22414 149.713
32.7829 22235 149.114
32.9002 22033 148.435
33.0176 22485 149.95
33.1349 22570 150.233
33.2522 23061 151.858
33.3694 22871 151.232
33.4867 22655 150.516
33.6039 22383 149.609
33.7211 21808 147.675
33.8383 22096 148.647
33.9554 22255 149.181
34.0725 23189 152.279
34.1896 23561 153.496
34.3067 23768 154.169
34.4237 24116 155.293
34.5407 24054 155.094
34.6577 24231 155.663
34.7746 23688 153.909
34.8915 23636 153.74
35.0084 22576 150.253
35.1252 22769 150.894
35.242 21589 146.932
35.3587 21199 145.599
35.4755 19829 140.815
35.5921 18493 135.989
35.7088 17831 133.533
35.8254 18056 134.373
35.9419 18554 136.213
36.0584 19091 138.17
36.1749 19810 140.748
36.2913 20274 142.387
36.4077 20181 142.06
36.524 19918 141.131
36.6403 20159 141.982
36.7565 19348 139.097
36.8727 19005 137.859
36.9889 18429 135.753
37.1049 17188 131.103
37.221 0 1
37.3369 0 1
37.4529 0 1
37.5687 0 1
37.6845 0 1
37.8003 0 1
37.916 0 1
38.0316 0 1
38.1472 0 1
40.5851 0 1
40.7008 0 1
40.8164 0 1
40.9322 0 1
41.048 0 1
41.1639 0 1
41.2798 0 1
41.3958 0 1
41.5118 0 1
41.6279 0 1
41.744 10385 101.907
41.8602 11623 107.81
41.9765 12548 112.018
42.0928 13609 116.658
42.2091 14211 119.21
42.3255 15298 123.685
42.4419 15488 124.451
42.5584 16207 127.307
42.675 17033 130.511
42.7915 18424 135.735
42.9081 20068 141.662
43.0248 20862 144.437
43.1415 20925 144.655
43.2582 21639 147.102
43.375 22061 148.529
43.4918 22051 148.496
43.6087 22168 148.889
43.7256 22194 148.977
43.8425 21457 146.482
43.9595 21135 145.379
44.0765 20790 144.187
44.1935 20333 142.594
44.3106 19874 140.975
44.4277 18073 134.436
44.5448 17185 131.092
44.6619 17218 131.217
44.7791 17672 132.936
44.8963 19064 138.072
45.0136 20094 141.753
45.1308 20845 144.378
45.2481 20686 143.826
45.3654 20833 144.336
45.4827 21200 145.602
45.6001 21347 146.106
45.7174 21374 146.198
45.8348 21157 145.454
45.9522 21002 144.921
46.0697 21017 144.972
46.1871 20755 144.066
46.3046 21217 145.661
46.422 22027 148.415
46.5395 22715 150.715
46.657 23263 152.522
46.7745 23814 154.318
46.892 24055 155.097
47.0096 24305 155.901
47.1271 24498 156.518
47.2446 24173 155.477
47.3622 24455 156.381
47.4797 23732 154.052
47.5973 23540 153.428
47.7149 22627 150.423
47.8324 22091 148.63
47.95 20325 142.566
48.0675 18609 136.415
48.1851 18578 136.301
48.3027 19166 138.441
48.4202 20265 142.355
48.5378 21662 147.18
48.6554 22639 150.463
48.7729 22896 151.314
48.8904 22849 151.159
49.008 22770 150.897
49.1255 23197 152.306
49.243 22829 151.093
49.3605 22813 151.04
49.478 22691 150.635
49.5955 22597 150.323
49.713 22579 150.263
49.8304 23533 153.405
49.9479 24061 155.116
50.0653 25013 158.155
50.1827 25204 158.758
50.3001 25890 160.904
50.4175 26485 162.742
50.5348 26923 164.082
50.6521 26681 163.343
50.7694 26677 163.331
50.8867 26434 162.585
51.004 26579 163.031
51.1212 25400 159.374
51.2384 24719 157.223
51.3556 23610 153.655
51.4727 21874 147.899
51.5899 20258 142.331
51.707 20639 143.663
51.824 21703 147.319
51.9411 23150 152.151
52.0581 24691 157.134
52.175 25271 158.969
52.2919 25275 158.981
52.4088 25233 158.849
52.5257 25548 159.837
52.6425 25781 160.565
52.7593 25797 160.614
52.876 25668 160.212
52.9927 25437 159.49
53.1094 25316 159.11
53.226 24810 157.512
53.3426 24498 156.518
53.4591 25370 159.28
53.5756 25459 159.559
53.692 25550 159.844
53.8084 25188 158.707
53.9248 24559 156.713
54.0411 23742 154.084
54.1573 22656 150.519
54.2735 0 1
54.3896 0 1
54.5057 0 1
54.6217 0 1
54.7377 0 1
54.8537 0 1
54.9695 0 1
55.0853 0 1
55.2011 0 1
55.3168 0 1
55.4324 0 1
57.824 0 1
57.9396 0 1
58.0553 0 1
58.1711 0 1
58.2869 0 1
58.4028 0 1
58.5187 0 1
58.6347 0 1
58.7508 0 1
58.8669 0 1
58.983 20193 142.102
59.0992 23399 152.967
59.2155 26030 161.338
59.3318 28633 169.213
59.4482 31340 177.031
59.5646 33850 183.984
59.681 35374 188.08
59.7975 36218 190.31
59.9141 36185 190.224
60.0306 35897 189.465
60.1473 34767 186.459
60.2639 33050 181.797
60.3807 31806 178.342
60.4974 32128 179.243
60.6142 34472 185.666
60.731 37042 192.463
60.8479 39614 199.033
60.9648 41137 202.823
61.0818 41532 203.794
61.1987 42494 206.141
61.3158 42736 206.727
61.4328 43136 207.692
61.5499 43015 207.401
61.667 42746 206.751
61.7841 42320 205.718
61.9013 42185 205.39
62.0185 42565 206.313
62.1357 42937 207.212
62.253 44334 210.556
62.3702 44990 212.108
62.4875 45907 214.259
62.6049 47202 217.26
62.7222 47861 218.772
62.8396 48424 220.055
62.9569 49186 221.779
63.0743 48942 221.228
63.1918 48311 219.798
63.3092 46789 216.308
63.4267 44940 211.991
63.5441 42519 206.201
63.6616 39407 198.512
63.7791 35636 188.775
63.8966 33754 183.723
64.0142 34726 186.349
64.1317 36854 191.974
64.2492 40107 200.267
64.3668 43158 207.745
64.4843 44161 210.145
64.6019 45306 212.852
64.7195 45186 212.57
64.837 45820 214.056
64.9546 46138 214.798
65.0722 46351 215.293
65.1898 45936 214.327
65.3074 45544 213.41
65.4249 44829 211.729
65.5425 44981 212.087
65.6601 44864 211.811
65.7777 45598 213.537
65.8952 46963 216.709
66.0128 48375 219.943
66.1304 48945 221.235
66.2479 49845 223.26
66.3655 50524 224.775
66.483 51277 226.444
66.6005 50954 225.73
66.718 50506 224.735
66.8355 50362 224.415
66.953 48284 219.736
67.0705 45831 214.082
67.1879 42564 206.31
67.3054 38689 196.695
67.4228 34726 186.349
67.5402 33437 182.858
67.6576 35428 188.223
67.7749 38301 195.706
67.8923 41574 203.897
68.0096 44522 211.002
68.1269 45869 214.17
68.2442 46917 216.603
68.3614 47757 218.534
68.4787 47590 218.151
68.5958 47672 218.339
68.713 47171 217.189
68.8302 47086 216.993
68.9473 45693 213.759
69.0643 45471 213.239
69.1814 45230 212.673
69.2984 44652 211.31
69.4154 44913 211.927
69.5323 46194 214.928
69.6492 47145 217.129
69.7661 48007 219.105
69.8829 48204 219.554
69.9997 48508 220.245
70.1165 48363 219.916
70.2332 47516 217.982
70.3499 46356 215.304
70.4665 44887 211.866
70.5831 41671 204.135
70.6996 38491 196.191
70.8161 35200 187.617
70.9326 30101 173.496
71.049 24273 155.798
71.1653 19960 141.28
71.2817 18637 136.517
71.3979 17902 133.798
71.5141 17652 132.861
71.6303 17344 131.697
71.7464 16456 128.281
71.8624 0 1
71.9784 0 1
72.0944 0 1
72.2102 0 1
72.3261 0 1
72.4418 0 1
72.5575 0 1
72.6732 0 1
75.1054 0 1
75.2209 0 1
75.3365 0 1
75.4521 0 1
75.5678 0 1
75.6835 0 1
75.7993 0 1
75.9151 0 1
76.031 0 1
76.147 24081 155.181
76.263 24910 157.829
76.3791 24548 156.678
76.4952 24214 155.608
76.6113 26052 161.406
76.7276 29082 170.534
76.8438 33467 182.94
76.9601 37523 193.709
77.0765 39522 198.801
77.1929 41033 202.566
77.3093 41839 204.546
77.4258 41957 204.834
77.5423 42117 205.224
77.6589 42057 205.078
77.7755 41950 204.817
77.8921 41204 202.988
78.0088 40474 201.182
78.1256 40129 200.322
78.2423 40154 200.385
78.3591 39880 199.7
78.4759 40658 201.638
78.5928 41386 203.435
78.7097 43056 207.499
78.8266 42984 207.326
78.9436 45780 213.963
79.0606 45494 213.293
79.1776 46105 214.721
79.2946 46479 215.59
79.4117 46153 214.832
79.5288 44980 212.085
79.6459 43522 208.619
79.7631 40784 201.95
79.8802 37304 193.142
79.9974 33183 182.162
80.1147 29783 172.578
80.2319 29801 172.63
80.3491 32525 180.347
80.4664 36487 191.016
80.5837 39629 199.07
80.701 41487 203.684
80.8183 42161 205.331
80.9357 43686 209.012
81.053 43914 209.557
81.1704 44297 210.469
81.2877 44155 210.131
81.4051 43565 208.722
81.5225 44000 209.762
81.6399 42595 206.386
81.7573 42379 205.862
81.8747 41216 203.017
81.9922 42095 205.171
82.1096 42153 205.312
82.227 43193 207.829
82.3444 43586 208.773
82.4619 45535 213.389
82.5793 46715 216.137
82.6967 47795 218.621
82.8142 47882 218.82
82.9316 48417 220.039
83.049 48037 219.173
83.1664 46376 215.351
83.2838 44249 210.354
83.4012 42920 207.171
83.5186 38804 196.987
83.636 34336 185.3
83.7534 30226 173.856
83.8708 29869 172.827
83.9881 31906 178.623
84.1055 35329 187.96
84.2228 39065 197.649
84.3401 42726 206.703
84.4575 44745 211.53
84.5747 45583 213.502
84.692 46173 214.879
84.8093 46179 214.893
84.9265 45156 212.499
85.0437 44456 210.846
85.1609 43807 209.301
85.2781 43592 208.787
85.3952 42608 206.417
85.5123 42849 207
85.6294 42787 206.85
85.7465 43309 208.108
85.8636 44168 210.162
85.9806 45406 213.087
86.0976 46884 216.527
86.2145 47587 218.144
86.3315 49147 221.691
86.4484 47429 217.782
86.5652 48476 220.173
86.682 48492 220.209
86.7988 46347 215.284
86.9156 44367 210.635
87.0323 41688 204.176
87.149 37638 194.005
87.2657 33087 181.898
87.3823 29867 172.821
87.4988 30599 174.926
87.6154 33151 182.074
87.7318 36409 190.811
87.8483 38390 195.934
87.9647 39232 198.071
88.081 39190 197.965
88.1973 38621 196.522
88.3136 36403 190.796
88.4298 33977 184.329
88.546 29745 172.467
88.6621 25376 159.298
88.7781 21908 148.014
88.8942 0 1
89.0101 0 1
89.126 0 1
89.2419 0 1
89.3577 0 1
89.4734 0 1
89.5891 0 1
89.7047 0 1
89.8203 0 1
89.9358 0 1
92.3269 0 1
92.4424 0 1
92.558 0 1
92.6736 0 1
92.7893 0 1
92.905 0 1
93.0208 0 1
93.1366 0 1
93.2525 0 1
93.3685 0 1
93.4845 0 1
93.6005 31659 177.93
93.7167 34427 185.545
93.8328 36844 191.948
93.949 39444 198.605
94.0653 41593 203.944
94.1816 43614 208.84
94.2979 44704 211.433
94.4143 45439 213.164
94.5307 45103 212.375
94.6472 45280 212.791
94.7637 45574 213.481
94.8803 46611 215.896
94.9969 47312 217.513
95.1135 48225 219.602
95.2302 50105 223.841
95.3469 50799 225.386
95.4637 51362 226.632
95.5805 51702 227.381
95.6973 50628 225.007
95.8142 49347 222.142
95.9311 47619 218.218
96.048 45392 213.054
96.1649 42769 206.807
96.2819 39827 199.567
96.3989 36603 191.319
96.516 34852 186.687
96.633 35383 188.104
96.7501 37239 192.974
96.8673 40721 201.794
96.9844 43152 207.731
97.1016 45530 213.378
97.2188 47260 217.394
97.336 47768 218.559
97.4532 47830 218.701
97.5704 47960 218.998
97.6877 46682 216.06
97.805 45728 213.841
97.9223 45466 213.228
98.0396 44585 211.152
98.1569 44246 210.347
98.2743 44613 211.218
98.3916 45252 212.725
98.509 46846 216.439
98.6264 47482 217.904
98.7438 49045 221.461
98.8612 50689 225.142
98.9786 51766 227.521
99.096 52312 228.718
99.2134 52783 229.746
99.3308 51703 227.383
99.4482 50626 225.002
99.5656 48593 220.438
99.6831 45512 213.335
99.8005 42506 206.17
99.9179 39873 199.682
100.035 38401 195.962
100.153 38132 195.274
100.27 40075 200.187
100.388 43015 207.401
100.505 44916 211.934
100.622 47223 217.309
100.74 47861 218.772
100.857 48586 220.422
100.975 48994 221.346
101.092 48908 221.152
101.209 47875 218.804
101.327 47359 217.621
101.444 46380 215.36
101.561 45487 213.277
101.679 45383 213.033
101.796 45034 212.212
101.913 46259 215.079
102.03 47666 218.325
102.148 48537 220.311
102.265 50945 225.71
102.382 50671 225.102
102.499 52204 228.482
102.616 52949 230.106
102.733 53476 231.249
102.851 53123 230.484
102.968 51868 227.745
103.085 49596 222.702
103.202 47289 217.46
103.319 44062 209.91
103.436 41062 202.638
103.552 38857 197.122
103.669 38252 195.581
103.786 39811 199.527
103.903 42484 206.116
104.02 44688 211.395
104.137 46502 215.643
104.253 48079 219.269
104.37 47384 217.679
104.487 48207 219.561
104.603 46706 216.116
104.72 45542 213.406
104.836 44613 211.218
104.953 42646 206.509
105.069 41031 202.561
105.186 40052 200.13
105.302 38964 197.393
105.418 37756 194.309
105.535 37219 192.922
105.651 36224 190.326
105.767 34319 185.254
105.883 31463 177.378
105.999 27186 164.882
106.115 0 1
106.231 0 1
106.347 0 1
106.463 0 1
106.579 0 1
106.694 0 1
106.81 0 1
106.926 0 1
107.041 0 1
107.157 0 1
109.576 0 1
109.692 0 1
109.807 0 1
109.923 0 1
110.039 0 1
110.155 0 1
110.27 0 1
110.386 0 1
110.502 0 1
110.618 22600 150.333
110.735 27068 164.524
110.851 30721 175.274
110.967 34613 186.046
111.083 38029 195.01
111.199 41387 203.438
111.316 43539 208.66
111.432 45001 212.134
111.549 46917 216.603
111.665 46778 216.282
111.782 44957 212.031
111.898 42932 207.2
112.015 40563 201.403
112.132 37526 193.716
112.248 34598 186.005
112.365 35181 187.566
112.482 37882 194.633
112.599 40552 201.375
112.716 42822 206.935
112.832 43288 208.058
112.949 44026 209.824
113.066 43932 209.6
113.183 44392 210.694
113.3 43693 209.029
113.417 43164 207.759
113.534 41596 203.951
113.652 40618 201.539
113.769 39521 198.799
113.886 39290 198.217
114.003 39561 198.899
114.12 41129 202.803
114.238 42933 207.203
114.355 44223 210.293
114.472 45520 213.354
114.589 46185 214.907
114.707 47042 216.892
114.824 46874 216.504
114.942 47467 217.869
115.059 47203 217.263
115.176 46483 215.599
115.294 44373 210.649
115.411 42584 206.359
115.529 40591 201.472
115.646 37910 194.705
115.764 35269 187.8
115.881 34314 185.24
115.999 36327 190.596
116.116 39226 198.056
116.234 41522 203.769
116.351 41938 204.788
116.469 42362 205.82
116.586 42555 206.289
116.704 42206 205.441
116.821 42223 205.482
116.939 41367 203.389
117.056 40625 201.556
117.174 38962 197.388
117.291 38617 196.512
117.409 37964 194.844
117.526 38158 195.341
117.644 38863 197.137
117.761 40602 201.499
117.879 42143 205.288
117.996 42952 207.249
118.114 44092 209.981
118.231 44072 209.933
118.349 45501 213.31
118.466 44428 210.78
118.584 45109 212.389
118.701 44617 211.227
118.819 43483 208.526
118.936 41255 203.113
119.053 39909 199.772
119.171 38001 194.938
119.288 35008 187.104
119.405 33152 182.077
119.523 33889 184.09
119.64 35655 188.825
119.757 38246 195.566
119.875 39516 198.786
119.992 39779 199.447
120.109 39967 199.917
120.226 40086 200.215
120.343 39807 199.517
120.46 39555 198.884
120.578 38966 197.398
120.695 37754 194.304
120.812 36877 192.034
120.929 35514 188.452
121.046 35262 187.782
121.163 34868 186.73
121.279 35542 188.526
121.396 36654 191.452
121.513 36956 192.239
121.63 38318 195.75
121.747 37798 194.417
121.863 37433 193.476
121.98 37886 194.643
122.097 37415 193.43
122.213 36759 191.726
122.33 35232 187.702
122.446 33622 183.363
122.563 30940 175.898
122.679 28407 168.544
122.795 25479 159.621
122.912 21450 146.458
123.028 19331 139.036
123.144 17650 132.853
123.26 17014 130.438
123.377 0 1
123.493 0 1
123.609 0 1
123.725 0 1
123.84 0 1
123.956 0 1
124.072 0 1
124.188 0 1
124.303 0 1
124.419 0 1
126.852 0 1
126.968 0 1
127.083 0 1
127.199 0 1
127.315 0 1
127.431 0 1
127.547 0 1
127.663 0 1
127.779 0 1
127.895 0 1
128.011 0 1
128.127 0 1
128.243 0 1
128.359 37581 193.858
128.476 36708 191.593
128.592 36746 191.692
128.708 39140 197.838
128.825 41417 203.512
128.941 43663 208.957
129.058 44306 210.49
129.174 44183 210.198
129.291 44165 210.155
129.408 44634 211.268
129.524 44399 210.711
129.641 43567 208.727
129.758 42414 205.947
129.875 40643 201.601
129.992 39789 199.472
130.108 39059 197.633
130.225 39507 198.764
130.342 41151 202.857
130.459 42726 206.703
130.576 45656 213.673
130.693 45889 214.217
130.81 45837 214.096
130.928 46213 214.972
131.045 46267 215.098
131.162 46878 216.513
131.279 47299 217.483
131.396 46683 216.062
131.513 46113 214.739
131.631 45075 212.309
131.748 43803 209.292
131.865 41650 204.083
131.983 39211 198.018
132.1 38462 196.117
132.217 39501 198.749
132.335 41669 204.13
132.452 44083 209.96
132.57 44397 210.706
132.687 43339 208.18
132.804 44929 211.965
132.922 43697 209.038
133.039 43779 209.234
133.157 43801 209.287
133.274 42544 206.262
133.392 40653 201.626
133.509 39990 199.975
133.627 39280 198.192
133.744 39279 198.189
133.862 40468 201.167
133.979 42835 206.966
134.097 44817 211.7
134.214 45861 214.152
134.332 46075 214.651
134.449 45831 214.082
134.567 45795 213.998
134.684 46178 214.891
134.802 46665 216.021
134.919 46352 215.295
135.037 46371 215.339
135.154 45066 212.288
135.272 43634 208.888
135.389 42220 205.475
135.507 39771 199.427
135.624 38885 197.193
135.742 39200 197.99
135.859 41192 202.958
135.977 42836 206.969
136.094 44359 210.616
136.211 43904 209.533
136.329 43989 209.736
136.446 43439 208.42
136.564 43819 209.33
136.681 43910 209.547
136.798 43002 207.369
136.915 41123 202.788
137.033 40167 200.417
137.15 38933 197.314
137.267 38780 196.926
137.384 38802 196.982
137.502 39928 199.82
137.619 42066 205.1
137.736 43756 209.179
137.853 42552 206.281
137.97 44261 210.383
138.087 43237 207.935
138.204 43385 208.291
138.321 43938 209.614
138.438 43887 209.492
138.555 43923 209.578
138.672 42750 206.761
138.788 41351 203.349
138.905 39068 197.656
139.022 37180 192.821
139.139 34879 186.759
139.255 33019 181.711
139.372 32177 179.379
139.488 32443 180.119
139.605 32768 181.019
139.721 32194 179.427
139.838 30524 174.711
139.954 27997 167.323
140.071 25344 159.198
140.187 23802 154.279
140.303 22424 149.746
140.419 21168 145.492
140.535 19693 140.332
140.652 18097 134.525
140.768 0 1
140.884 0 1
141 0 1
141.115 0 1
141.231 0 1
141.347 0 1
141.463 0 1
141.578 0 1
141.694 0 1
144.104 0 1
144.219 0 1
144.335 0 1
144.45 0 1
144.566 0 1
144.682 0 1
144.798 0 1
144.914 0 1
145.03 0 1
145.146 30783 175.451
145.262 32434 180.094
145.378 33610 183.33
145.494 32943 181.502
145.61 32710 180.859
145.726 31328 176.997
145.842 30629 175.011
145.959 30287 174.032
146.075 29559 171.927
146.192 29978 173.142
146.308 31146 176.482
146.425 31874 178.533
146.541 33342 182.598
146.658 33647 183.431
146.774 33507 183.049
146.891 33656 183.456
147.008 34227 185.005
147.125 33295 182.469
147.241 34090 184.635
147.358 35061 187.246
147.475 34719 186.33
147.592 34115 184.702
147.709 32858 181.268
147.826 31344 177.042
147.943 30575 174.857
148.06 30065 173.393
148.177 30259 173.951
148.294 31496 177.471
148.411 32858 181.268
148.528 33319 182.535
148.645 33744 183.695
148.762 33820 183.902
148.88 33346 182.609
148.997 33616 183.347
149.114 32509 180.303
149.231 32826 181.179
149.349 31969 178.799
149.466 30598 174.923
149.583 29520 171.814
149.701 29349 171.315
149.818 28934 170.1
149.935 30023 173.271
150.053 31108 176.375
150.17 32404 180.011
150.287 32604 180.566
150.405 32800 181.108
150.522 32968 181.571
150.64 32814 181.146
150.757 33018 181.709
150.875 33481 182.978
150.992 33970 184.31
151.11 33897 184.111
151.227 33344 182.603
151.344 32404 180.011
151.462 31425 177.271
151.579 29632 172.139
151.697 29522 171.82
151.814 29714 172.377
151.932 30666 175.117
152.049 31738 178.152
152.167 32436 180.1
152.284 32646 180.682
152.402 32515 180.319
152.519 31926 178.678
152.636 32185 179.402
152.754 32018 178.936
152.871 31194 176.618
152.989 29742 172.459
153.106 29093 170.567
153.223 28439 168.639
153.341 28106 167.648
153.458 27994 167.314
153.575 28626 169.192
153.693 30065 173.393
153.81 30653 175.08
153.927 31026 176.142
154.044 30916 175.829
154.162 30749 175.354
154.279 31342 177.037
154.396 31792 178.303
154.513 32020 178.941
154.63 32421 180.058
154.747 32291 179.697
154.864 31807 178.345
154.981 30095 173.479
155.098 29022 170.358
155.215 27964 167.224
155.332 28048 167.475
155.449 28449 168.668
155.566 29496 171.744
155.683 30185 173.738
155.8 29351 171.321
155.917 28824 169.776
156.033 27989 167.299
156.15 0 1
156.267 0 1
156.383 0 1
156.5 0 1
156.617 0 1
156.733 0 1
156.85 0 1
156.966 0 1
157.082 0 1
157.199 0 1
157.315 0 1
157.431 0 1
157.547 0 1
157.664 0 1
157.78 0 1
157.896 0 1
158.012 0 1
158.128 0 1
158.244 0 1
158.359 0 1
158.475 0 1
158.591 0 1
158.706 0 1
