
6.15755 0 1
6.2731 0 1
6.3887 0 1
6.50437 0 1
6.62009 0 1
6.73587 0 1
6.8517 0 1
6.96759 0 1
7.08353 0 1
7.19952 0 1
7.31557 0 1
7.43166 0 1
7.54781 0 1
7.664 0 1
7.78024 0 1
7.89653 0 1
8.01286 0 1
8.12924 0 1
8.24567 0 1
8.36213 0 1
8.47864 0 1
8.59519 0 1
8.71178 0 1
8.82841 0 1
8.94508 0 1
9.06179 0 1
9.17853 0 1
9.29531 0 1
9.41212 0 1
9.52897 0 1
9.64584 0 1
9.76276 0 1
9.8797 0 1
9.99667 0 1
10.1137 0 1
10.2307 0 1
10.3478 0 1
10.4648 0 1
10.5819 0 1
10.6991 0 1
10.8162 0 1
10.9334 0 1
11.0506 0 1
11.1678 0 1
11.285 0 1
11.4023 0 1
11.5196 0 1
11.6369 0 1
11.7542 0 1
11.8715 0 1
11.9888 0 1
12.1062 0 1
12.2235 0 1
12.3409 0 1
12.4582 0 1
12.5756 0 1
12.693 0 1
12.8104 0 1
12.9278 0 1
13.0452 0 1
13.1626 0 1
13.28 0 1
13.3974 0 1
13.5149 0 1
13.6323 0 1
13.7497 0 1
13.8671 0 1
13.9845 0 1
14.1019 0 1
14.2193 0 1
14.3367 0 1
14.4541 0 1
14.5714 0 1
14.6888 0 1
14.8062 0 1
14.9235 0 1
15.0408 999 31.607
15.1581 990 31.4643
15.2755 1095 33.0908
15.3927 1047 32.3574
15.51 922 30.3645
15.6273 940 30.6594
15.7445 914 30.2324
15.8617 955 30.9031
15.9789 918 30.2985
16.0961 909 30.1496
16.2132 919 30.315
16.3304 885 29.7489
16.4475 872 29.5296
16.5646 842 29.0172
16.6816 848 29.1204
16.7986 872 29.5296
16.9156 792 28.1425
17.0326 784 28
17.1496 830 28.8097
17.2665 788 28.0713
17.3833 844 29.0517
17.5002 906 30.0998
17.617 893 29.8831
17.7338 859 29.3087
17.8505 824 28.7054
17.9672 768 27.7128
18.0839 798 28.2489
18.2005 793 28.1603
18.3171 866 29.4279
18.4337 826 28.7402
18.5502 861 29.3428
18.6666 789 28.0891
18.7831 833 28.8617
18.8994 826 28.7402
19.0158 733 27.074
19.1321 715 26.7395
19.2483 705 26.5518
19.3645 646 25.4165
19.4806 625 25
19.5967 649 25.4755
19.7128 636 25.219
19.8288 652 25.5343
19.9447 562 23.7065
20.0606 0 1
20.1764 0 1
20.2922 0 1
20.4079 0 1
20.5236 0 1
20.6392 0 1
20.7548 0 1
20.8702 0 1
23.3078 0 1
23.4233 0 1
23.539 0 1
23.6547 0 1
23.7704 0 1
23.8862 0 1
24.0021 0 1
24.118 0 1
24.234 0 1
24.35 0 1
24.4661 338 18.3848
24.5822 393 19.8242
24.6984 473 21.7486
24.8146 514 22.6716
24.9309 622 24.9399
25.0472 664 25.7682
25.1636 713 26.7021
25.28 755 27.4773
25.3965 846 29.0861
25.513 894 29.8998
25.6296 915 30.249
25.7462 954 30.8869
25.8628 911 30.1828
25.9795 910 30.1662
26.0962 920 30.3315
26.213 874 29.5635
26.3298 862 29.3598
26.4466 773 27.8029
26.5635 750 27.3861
26.6804 752 27.4226
26.7973 737 27.1477
26.9143 710 26.6458
27.0313 687 26.2107
27.1483 758 27.5318
27.2653 796 28.2135
27.3824 754 27.4591
27.4996 849 29.1376
27.6167 775 27.8388
27.7339 771 27.7669
27.8511 660 25.6905
27.9683 761 27.5862
28.0855 703 26.5141
28.2028 786 28.0357
28.3201 840 28.9828
28.4374 835 28.8964
28.5547 849 29.1376
28.6721 830 28.8097
28.7894 860 29.3258
28.9068 794 28.178
29.0242 798 28.2489
29.1416 819 28.6182
29.259 799 28.2666
29.3764 772 27.7849
29.4939 735 27.1109
29.6113 740 27.2029
29.7288 671 25.9037
29.8463 708 26.6083
29.9638 676 26
30.0812 699 26.4386
30.1987 662 25.7294
30.3162 638 25.2587
30.4337 718 26.7955
30.5512 683 26.1343
30.6687 742 27.2397
30.7862 803 28.3373
30.9037 810 28.4605
31.0212 792 28.1425
31.1387 781 27.9464
31.2562 727 26.9629
31.3737 683 26.1343
31.4912 700 26.4575
31.6087 705 26.5518
31.7262 794 28.178
31.8436 765 27.6586
31.9611 786 28.0357
32.0785 806 28.3901
32.1959 795 28.1957
32.3134 762 27.6043
32.4308 728 26.9815
32.5482 680 26.0768
32.6655 701 26.4764
32.7829 687 26.2107
32.9002 716 26.7582
33.0176 709 26.6271
33.1349 652 25.5343
33.2522 700 26.4575
33.3694 675 25.9808
33.4867 710 26.6458
33.6039 685 26.1725
33.7211 632 25.1396
33.8383 659 25.671
33.9554 665 25.7876
34.0725 670 25.8844
34.1896 656 25.6125
34.3067 693 26.3249
34.4237 724 26.9072
34.5407 737 27.1477
34.6577 763 27.6225
34.7746 732 27.0555
34.8915 706 26.5707
35.0084 641 25.318
35.1252 623 24.96
35.242 629 25.0799
35.3587 700 26.4575
35.4755 702 26.4953
35.5921 701 26.4764
35.7088 688 26.2298
35.8254 688 26.2298
35.9419 695 26.3629
36.0584 703 26.5141
36.1749 690 26.2679
36.2913 629 25.0799
36.4077 635 25.1992
36.524 625 25
36.6403 604 24.5764
36.7565 559 23.6432
36.8727 552 23.4947
36.9889 476 21.8174
37.1049 428 20.6882
37.221 0 1
37.3369 0 1
37.4529 0 1
37.5687 0 1
37.6845 0 1
37.8003 0 1
37.916 0 1
38.0316 0 1
38.1472 0 1
40.5851 0 1
40.7008 0 1
40.8164 0 1
40.9322 0 1
41.048 0 1
41.1639 0 1
41.2798 0 1
41.3958 0 1
41.5118 0 1
41.6279 0 1
41.744 292 17.088
41.8602 361 19
41.9765 404 20.0998
42.0928 448 21.166
42.2091 474 21.7715
42.3255 465 21.5639
42.4419 556 23.5797
42.5584 533 23.0868
42.675 532 23.0651
42.7915 530 23.0217
42.9081 553 23.516
43.0248 560 23.6643
43.1415 535 23.1301
43.2582 586 24.2074
43.375 543 23.3024
43.4918 558 23.622
43.6087 545 23.3452
43.7256 525 22.9129
43.8425 485 22.0227
43.9595 519 22.7816
44.0765 454 21.3073
44.1935 478 21.8632
44.3106 532 23.0651
44.4277 568 23.8328
44.5448 636 25.219
44.6619 572 23.9165
44.7791 556 23.5797
44.8963 540 23.2379
45.0136 551 23.4734
45.1308 577 24.0208
45.2481 564 23.7487
45.3654 556 23.5797
45.4827 569 23.8537
45.6001 600 24.4949
45.7174 565 23.7697
45.8348 568 23.8328
45.9522 564 23.7487
46.0697 553 23.516
46.1871 536 23.1517
46.3046 505 22.4722
46.422 511 22.6053
46.5395 477 21.8403
46.657 572 23.9165
46.7745 488 22.0907
46.892 565 23.7697
47.0096 579 24.0624
47.1271 558 23.622
47.2446 541 23.2594
47.3622 510 22.5832
47.4797 503 22.4277
47.5973 513 22.6495
47.7149 461 21.4709
47.8324 535 23.1301
47.95 547 23.388
48.0675 572 23.9165
48.1851 540 23.2379
48.3027 546 23.3666
48.4202 569 23.8537
48.5378 564 23.7487
48.6554 513 22.6495
48.7729 545 23.3452
48.8904 593 24.3516
49.008 531 23.0434
49.1255 598 24.454
49.243 538 23.1948
49.3605 520 22.8035
49.478 463 21.5174
49.5955 469 21.6564
49.713 470 21.6795
49.8304 479 21.8861
49.9479 487 22.0681
50.0653 491 22.1585
50.1827 503 22.4277
50.3001 487 22.0681
50.4175 465 21.5639
50.5348 524 22.891
50.6521 520 22.8035
50.7694 528 22.9783
50.8867 503 22.4277
51.004 503 22.4277
51.1212 453 21.2838
51.2384 468 21.6333
51.3556 530 23.0217
51.4727 509 22.561
51.5899 534 23.1084
51.707 530 23.0217
51.824 569 23.8537
51.9411 492 22.1811
52.0581 554 23.5372
52.175 521 22.8254
52.2919 492 22.1811
52.4088 543 23.3024
52.5257 501 22.383
52.6425 573 23.9374
52.7593 514 22.6716
52.876 519 22.7816
52.9927 547 23.388
53.1094 517 22.7376
53.226 527 22.9565
53.3426 454 21.3073
53.4591 469 21.6564
53.5756 419 20.4695
53.692 401 20.025
53.8084 420 20.4939
53.9248 398 19.9499
54.0411 350 18.7083
54.1573 328 18.1108
54.2735 0 1
54.3896 0 1
54.5057 0 1
54.6217 0 1
54.7377 0 1
54.8537 0 1
54.9695 0 1
55.0853 0 1
55.2011 0 1
55.3168 0 1
55.4324 0 1
57.824 0 1
57.9396 0 1
58.0553 0 1
58.1711 0 1
58.2869 0 1
58.4028 0 1
58.5187 0 1
58.6347 0 1
58.7508 0 1
58.8669 0 1
58.983 936 30.5941
59.0992 1196 34.5832
59.2155 1520 38.9872
59.3318 1886 43.4281
59.4482 2247 47.4025
59.5646 2487 49.8698
59.681 2650 51.4782
59.7975 2754 52.4786
59.9141 2759 52.5262
60.0306 2840 53.2917
60.1473 2974 54.5344
60.2639 2969 54.4885
60.3807 2955 54.3599
60.4974 2950 54.3139
60.6142 2842 53.3104
60.731 2884 53.7029
60.8479 2817 53.0754
60.9648 2639 51.3712
61.0818 2672 51.6914
61.1987 2491 49.9099
61.3158 2293 47.8853
61.4328 2150 46.3681
61.5499 2007 44.7996
61.667 1792 42.332
61.7841 1649 40.6079
61.9013 1481 38.4838
62.0185 1373 37.054
62.1357 1246 35.2987
62.253 1169 34.1906
62.3702 1032 32.1248
62.4875 1116 33.4066
62.6049 1069 32.6956
62.7222 1134 33.6749
62.8396 1078 32.8329
62.9569 1120 33.4664
63.0743 1036 32.187
63.1918 1052 32.4345
63.3092 937 30.6105
63.4267 800 28.2843
63.5441 789 28.0891
63.6616 787 28.0535
63.7791 677 26.0192
63.8966 678 26.0384
64.0142 580 24.0832
64.1317 640 25.2982
64.2492 593 24.3516
64.3668 637 25.2389
64.4843 573 23.9374
64.6019 593 24.3516
64.7195 577 24.0208
64.837 584 24.1661
64.9546 597 24.4336
65.0722 601 24.5153
65.1898 594 24.3721
65.3074 609 24.6779
65.4249 579 24.0624
65.5425 539 23.2164
65.6601 543 23.3024
65.7777 549 23.4307
65.8952 560 23.6643
66.0128 505 22.4722
66.1304 571 23.8956
66.2479 557 23.6008
66.3655 541 23.2594
66.483 578 24.0416
66.6005 551 23.4734
66.718 612 24.7386
66.8355 592 24.3311
66.953 580 24.0832
67.0705 565 23.7697
67.1879 536 23.1517
67.3054 565 23.7697
67.4228 606 24.6171
67.5402 607 24.6374
67.6576 606 24.6171
67.7749 610 24.6982
67.8923 574 23.9583
68.0096 617 24.8395
68.1269 546 23.3666
68.2442 559 23.6432
68.3614 594 24.3721
68.4787 576 24
68.5958 563 23.7276
68.713 571 23.8956
68.8302 577 24.0208
68.9473 572 23.9165
69.0643 599 24.4745
69.1814 571 23.8956
69.2984 538 23.1948
69.4154 489 22.1133
69.5323 511 22.6053
69.6492 495 22.2486
69.7661 522 22.8473
69.8829 553 23.516
69.9997 600 24.4949
70.1165 587 24.2281
70.2332 591 24.3105
70.3499 555 23.5584
70.4665 504 22.4499
70.5831 475 21.7945
70.6996 476 21.8174
70.8161 422 20.5426
70.9326 335 18.303
71.049 382 19.5448
71.1653 353 18.7883
71.2817 329 18.1384
71.3979 352 18.7617
71.5141 314 17.72
71.6303 280 16.7332
71.7464 199 14.1067
71.8624 0 1
71.9784 0 1
72.0944 0 1
72.2102 0 1
72.3261 0 1
72.4418 0 1
72.5575 0 1
72.6732 0 1
75.1054 0 1
75.2209 0 1
75.3365 0 1
75.4521 0 1
75.5678 0 1
75.6835 0 1
75.7993 0 1
75.9151 0 1
76.031 0 1
76.147 365 19.105
76.263 372 19.2873
76.3791 449 21.1896
76.4952 435 20.8567
76.6113 449 21.1896
76.7276 512 22.6274
76.8438 502 22.4054
76.9601 470 21.6795
77.0765 450 21.2132
77.1929 513 22.6495
77.3093 473 21.7486
77.4258 453 21.2838
77.5423 480 21.9089
77.6589 499 22.3383
77.7755 467 21.6102
77.8921 485 22.0227
78.0088 483 21.9773
78.1256 511 22.6053
78.2423 535 23.1301
78.3591 411 20.2731
78.4759 416 20.3961
78.5928 427 20.664
78.7097 476 21.8174
78.8266 456 21.3542
78.9436 448 21.166
79.0606 515 22.6936
79.1776 466 21.587
79.2946 467 21.6102
79.4117 522 22.8473
79.5288 520 22.8035
79.6459 512 22.6274
79.7631 471 21.7025
79.8802 485 22.0227
79.9974 477 21.8403
80.1147 463 21.5174
80.2319 508 22.5389
80.3491 485 22.0227
80.4664 509 22.561
80.5837 550 23.4521
80.701 548 23.4094
80.8183 500 22.3607
80.9357 497 22.2935
81.053 515 22.6936
81.1704 531 23.0434
81.2877 492 22.1811
81.4051 461 21.4709
81.5225 541 23.2594
81.6399 471 21.7025
81.7573 533 23.0868
81.8747 499 22.3383
81.9922 508 22.5389
82.1096 463 21.5174
82.227 443 21.0476
82.3444 448 21.166
82.4619 474 21.7715
82.5793 486 22.0454
82.6967 479 21.8861
82.8142 555 23.5584
82.9316 490 22.1359
83.049 537 23.1733
83.1664 560 23.6643
83.2838 525 22.9129
83.4012 507 22.5167
83.5186 484 22
83.636 486 22.0454
83.7534 484 22
83.8708 526 22.9347
83.9881 551 23.4734
84.1055 528 22.9783
84.2228 559 23.6432
84.3401 536 23.1517
84.4575 536 23.1517
84.5747 493 22.2036
84.692 496 22.2711
84.8093 513 22.6495
84.9265 556 23.5797
85.0437 569 23.8537
85.1609 503 22.4277
85.2781 492 22.1811
85.3952 480 21.9089
85.5123 545 23.3452
85.6294 496 22.2711
85.7465 487 22.0681
85.8636 455 21.3307
85.9806 499 22.3383
86.0976 510 22.5832
86.2145 491 22.1585
86.3315 529 23
86.4484 495 22.2486
86.5652 500 22.3607
86.682 519 22.7816
86.7988 556 23.5797
86.9156 588 24.2487
87.0323 532 23.0651
87.149 540 23.2379
87.2657 524 22.891
87.3823 527 22.9565
87.4988 553 23.516
87.6154 458 21.4009
87.7318 517 22.7376
87.8483 451 21.2368
87.9647 457 21.3776
88.081 427 20.664
88.1973 378 19.4422
88.3136 349 18.6815
88.4298 334 18.2757
88.546 308 17.5499
88.6621 304 17.4356
88.7781 298 17.2627
88.8942 0 1
89.0101 0 1
89.126 0 1
89.2419 0 1
89.3577 0 1
89.4734 0 1
89.5891 0 1
89.7047 0 1
89.8203 0 1
89.9358 0 1
92.3269 0 1
92.4424 0 1
92.558 0 1
92.6736 0 1
92.7893 0 1
92.905 0 1
93.0208 0 1
93.1366 0 1
93.2525 0 1
93.3685 0 1
93.4845 0 1
93.6005 445 21.095
93.7167 505 22.4722
93.8328 479 21.8861
93.949 558 23.622
94.0653 516 22.7156
94.1816 522 22.8473
94.2979 517 22.7376
94.4143 605 24.5967
94.5307 537 23.1733
94.6472 493 22.2036
94.7637 521 22.8254
94.8803 521 22.8254
94.9969 527 22.9565
95.1135 473 21.7486
95.2302 534 23.1084
95.3469 541 23.2594
95.4637 539 23.2164
95.5805 600 24.4949
95.6973 571 23.8956
95.8142 597 24.4336
95.9311 589 24.2693
96.048 601 24.5153
96.1649 596 24.4131
96.2819 554 23.5372
96.3989 535 23.1301
96.516 586 24.2074
96.633 599 24.4745
96.7501 552 23.4947
96.8673 594 24.3721
96.9844 588 24.2487
97.1016 546 23.3666
97.2188 582 24.1247
97.336 537 23.1733
97.4532 554 23.5372
97.5704 530 23.0217
97.6877 536 23.1517
97.805 572 23.9165
97.9223 596 24.4131
98.0396 573 23.9374
98.1569 532 23.0651
98.2743 538 23.1948
98.3916 554 23.5372
98.509 510 22.5832
98.6264 532 23.0651
98.7438 532 23.0651
98.8612 526 22.9347
98.9786 576 24
99.096 565 23.7697
99.2134 582 24.1247
99.3308 623 24.96
99.4482 621 24.9199
99.5656 613 24.7588
99.6831 618 24.8596
99.8005 651 25.5147
99.9179 631 25.1197
100.035 598 24.454
100.153 594 24.3721
100.27 589 24.2693
100.388 616 24.8193
100.505 629 25.0799
100.622 574 23.9583
100.74 575 23.9792
100.857 530 23.0217
100.975 589 24.2693
101.092 616 24.8193
101.209 586 24.2074
101.327 564 23.7487
101.444 600 24.4949
101.561 571 23.8956
101.679 595 24.3926
101.796 601 24.5153
101.913 589 24.2693
102.03 594 24.3721
102.148 623 24.96
102.265 544 23.3238
102.382 614 24.779
102.499 585 24.1868
102.616 615 24.7992
102.733 621 24.9199
102.851 657 25.632
102.968 635 25.1992
103.085 645 25.3969
103.202 669 25.865
103.319 626 25.02
103.436 604 24.5764
103.552 600 24.4949
103.669 625 25
103.786 599 24.4745
103.903 601 24.5153
104.02 677 26.0192
104.137 632 25.1396
104.253 635 25.1992
104.37 585 24.1868
104.487 563 23.7276
104.603 576 24
104.72 625 25
104.836 579 24.0624
104.953 569 23.8537
105.069 491 22.1585
105.186 505 22.4722
105.302 465 21.5639
105.418 436 20.8806
105.535 447 21.1424
105.651 399 19.975
105.767 383 19.5704
105.883 355 18.8414
105.999 306 17.4929
106.115 0 1
106.231 0 1
106.347 0 1
106.463 0 1
106.579 0 1
106.694 0 1
106.81 0 1
106.926 0 1
107.041 0 1
107.157 0 1
109.576 0 1
109.692 0 1
109.807 0 1
109.923 0 1
110.039 0 1
110.155 0 1
110.27 0 1
110.386 0 1
110.502 0 1
110.618 338 18.3848
110.735 388 19.6977
110.851 432 20.7846
110.967 460 21.4476
111.083 486 22.0454
111.199 501 22.383
111.316 574 23.9583
111.432 530 23.0217
111.549 614 24.779
111.665 581 24.1039
111.782 606 24.6171
111.898 602 24.5357
112.015 596 24.4131
112.132 582 24.1247
112.248 607 24.6374
112.365 569 23.8537
112.482 597 24.4336
112.599 628 25.0599
112.716 612 24.7386
112.832 581 24.1039
112.949 572 23.9165
113.066 501 22.383
113.183 537 23.1733
113.3 555 23.5584
113.417 547 23.388
113.534 505 22.4722
113.652 534 23.1084
113.769 493 22.2036
113.886 518 22.7596
114.003 531 23.0434
114.12 544 23.3238
114.238 534 23.1084
114.355 549 23.4307
114.472 540 23.2379
114.589 517 22.7376
114.707 491 22.1585
114.824 492 22.1811
114.942 566 23.7908
115.059 583 24.1454
115.176 568 23.8328
115.294 538 23.1948
115.411 522 22.8473
115.529 532 23.0651
115.646 542 23.2809
115.764 572 23.9165
115.881 557 23.6008
115.999 512 22.6274
116.116 503 22.4277
116.234 521 22.8254
116.351 543 23.3024
116.469 518 22.7596
116.586 569 23.8537
116.704 489 22.1133
116.821 507 22.5167
116.939 517 22.7376
117.056 488 22.0907
117.174 484 22
117.291 469 21.6564
117.409 474 21.7715
117.526 505 22.4722
117.644 524 22.891
117.761 475 21.7945
117.879 497 22.2935
117.996 477 21.8403
118.114 515 22.6936
118.231 452 21.2603
118.349 487 22.0681
118.466 499 22.3383
118.584 493 22.2036
118.701 512 22.6274
118.819 462 21.4942
118.936 508 22.5389
119.053 504 22.4499
119.171 492 22.1811
119.288 488 22.0907
119.405 472 21.7256
119.523 471 21.7025
119.64 474 21.7715
119.757 478 21.8632
119.875 470 21.6795
119.992 477 21.8403
120.109 458 21.4009
120.226 497 22.2935
120.343 460 21.4476
120.46 501 22.383
120.578 458 21.4009
120.695 423 20.567
120.812 437 20.9045
120.929 438 20.9284
121.046 429 20.7123
121.163 418 20.445
121.279 413 20.3224
121.396 419 20.4695
121.513 488 22.0907
121.63 447 21.1424
121.747 420 20.4939
121.863 404 20.0998
121.98 399 19.975
122.097 394 19.8494
122.213 413 20.3224
122.33 389 19.7231
122.446 373 19.3132
122.563 348 18.6548
122.679 309 17.5784
122.795 315 17.7482
122.912 290 17.0294
123.028 267 16.3401
123.144 285 16.8819
123.26 221 14.8661
123.377 0 1
123.493 0 1
123.609 0 1
123.725 0 1
123.84 0 1
123.956 0 1
124.072 0 1
124.188 0 1
124.303 0 1
124.419 0 1
126.852 0 1
126.968 0 1
127.083 0 1
127.199 0 1
127.315 0 1
127.431 0 1
127.547 0 1
127.663 0 1
127.779 0 1
127.895 0 1
128.011 0 1
128.127 0 1
128.243 0 1
128.359 500 22.3607
128.476 531 23.0434
128.592 544 23.3238
128.708 529 23
128.825 498 22.3159
128.941 570 23.8747
129.058 559 23.6432
129.174 576 24
129.291 540 23.2379
129.408 544 23.3238
129.524 523 22.8692
129.641 476 21.8174
129.758 537 23.1733
129.875 501 22.383
129.992 510 22.5832
130.108 528 22.9783
130.225 529 23
130.342 588 24.2487
130.459 608 24.6577
130.576 638 25.2587
130.693 664 25.7682
130.81 686 26.1916
130.928 613 24.7588
131.045 671 25.9037
131.162 678 26.0384
131.279 774 27.8209
131.396 812 28.4956
131.513 823 28.688
131.631 721 26.8514
131.748 819 28.6182
131.865 951 30.8383
131.983 945 30.7409
132.1 972 31.1769
132.217 1002 31.6544
132.335 1081 32.8786
132.452 1096 33.1059
132.57 1167 34.1614
132.687 1190 34.4964
132.804 1214 34.8425
132.922 1224 34.9857
133.039 1282 35.805
133.157 1299 36.0416
133.274 1188 34.4674
133.392 1312 36.2215
133.509 1277 35.7351
133.627 1238 35.1852
133.744 1276 35.7211
133.862 1281 35.7911
133.979 1299 36.0416
134.097 1305 36.1248
134.214 1271 35.6511
134.332 1284 35.8329
134.449 1288 35.8887
134.567 1205 34.7131
134.684 1241 35.2278
134.802 1350 36.7423
134.919 1324 36.3868
135.037 1310 36.1939
135.154 1202 34.6699
135.272 1141 33.7787
135.389 1272 35.6651
135.507 1404 37.47
135.624 1390 37.2827
135.742 1382 37.1753
135.859 1386 37.229
135.977 1494 38.6523
136.094 1524 39.0384
136.211 1428 37.7889
136.329 1437 37.9078
136.446 1402 37.4433
136.564 1481 38.4838
136.681 1397 37.3765
136.798 1435 37.8814
136.915 1340 36.606
137.033 1388 37.2559
137.15 1344 36.6606
137.267 1242 35.242
137.384 1327 36.428
137.502 1368 36.9865
137.619 1301 36.0694
137.736 1201 34.6554
137.853 1230 35.0714
137.97 1264 35.5528
138.087 1266 35.5809
138.204 1236 35.1568
138.321 1149 33.8969
138.438 1255 35.426
138.555 1290 35.9166
138.672 1287 35.8748
138.788 1129 33.6006
138.905 1082 32.8938
139.022 1086 32.9545
139.139 1143 33.8083
139.255 1170 34.2053
139.372 1121 33.4813
139.488 1008 31.749
139.605 1038 32.218
139.721 887 29.7825
139.838 898 29.9666
139.954 790 28.1069
140.071 800 28.2843
140.187 749 27.3679
140.303 681 26.096
140.419 654 25.5734
140.535 587 24.2281
140.652 624 24.98
140.768 0 1
140.884 0 1
141 0 1
141.115 0 1
141.231 0 1
141.347 0 1
141.463 0 1
141.578 0 1
141.694 0 1
144.104 0 1
144.219 0 1
144.335 0 1
144.45 0 1
144.566 0 1
144.682 0 1
144.798 0 1
144.914 0 1
145.03 0 1
145.146 1107 33.2716
145.262 1153 33.9559
145.378 1200 34.641
145.494 1211 34.7994
145.61 1260 35.4965
145.726 1248 35.327
145.842 1290 35.9166
145.959 1273 35.6791
146.075 1215 34.8569
146.192 1247 35.3129
146.308 1222 34.9571
146.425 1162 34.0881
146.541 1282 35.805
146.658 1283 35.819
146.774 1371 37.027
146.891 1327 36.428
147.008 1411 37.5633
147.125 1409 37.5366
147.241 1400 37.4166
147.358 1460 38.2099
147.475 1434 37.8682
147.592 1409 37.5366
147.709 1212 34.8138
147.826 1219 34.9142
147.943 1281 35.7911
148.06 1360 36.8782
148.177 1430 37.8153
148.294 1420 37.6829
148.411 1393 37.3229
148.528 1363 36.9188
148.645 1408 37.5233
148.762 1380 37.1484
148.88 1327 36.428
148.997 1267 35.5949
149.114 1322 36.3593
149.231 1338 36.5787
149.349 1330 36.4692
149.466 1217 34.8855
149.583 1256 35.4401
149.701 1233 35.1141
149.818 1195 34.5688
149.935 1140 33.7639
150.053 1208 34.7563
150.17 1135 33.6898
150.287 1150 33.9116
150.405 1193 34.5398
150.522 1262 35.5246
150.64 1183 34.3948
150.757 1205 34.7131
150.875 1230 35.0714
150.992 1203 34.6843
151.11 1216 34.8712
151.227 1141 33.7787
151.344 1059 32.5423
151.462 969 31.1288
151.579 1062 32.5883
151.697 1030 32.0936
151.814 1162 34.0881
151.932 1148 33.8821
152.049 1145 33.8378
152.167 1208 34.7563
152.284 1152 33.9411
152.402 1104 33.2265
152.519 1111 33.3317
152.636 1130 33.6155
152.754 1094 33.0757
152.871 1154 33.9706
152.989 1096 33.1059
153.106 1086 32.9545
153.223 1050 32.4037
153.341 991 31.4802
153.458 975 31.225
153.575 969 31.1288
153.693 956 30.9192
153.81 953 30.8707
153.927 985 31.3847
154.044 947 30.7734
154.162 982 31.3369
154.279 906 30.0998
154.396 876 29.5973
154.513 956 30.9192
154.63 912 30.1993
154.747 878 29.6311
154.864 835 28.8964
154.981 804 28.3549
155.098 788 28.0713
155.215 807 28.4077
155.332 871 29.5127
155.449 838 28.9482
155.566 828 28.775
155.683 827 28.7576
155.8 861 29.3428
155.917 817 28.5832
156.033 761 27.5862
156.15 0 1
156.267 0 1
156.383 0 1
156.5 0 1
156.617 0 1
156.733 0 1
156.85 0 1
156.966 0 1
157.082 0 1
157.199 0 1
157.315 0 1
157.431 0 1
157.547 0 1
157.664 0 1
157.78 0 1
157.896 0 1
158.012 0 1
158.128 0 1
158.244 0 1
158.359 0 1
158.475 0 1
158.591 0 1
158.706 0 1
