
6.15755 0 1
6.2731 0 1
6.3887 0 1
6.50437 0 1
6.62009 0 1
6.73587 0 1
6.8517 0 1
6.96759 0 1
7.08353 0 1
7.19952 0 1
7.31557 0 1
7.43166 0 1
7.54781 0 1
7.664 0 1
7.78024 0 1
7.89653 0 1
8.01286 0 1
8.12924 0 1
8.24567 0 1
8.36213 0 1
8.47864 0 1
8.59519 0 1
8.71178 0 1
8.82841 0 1
8.94508 0 1
9.06179 0 1
9.17853 0 1
9.29531 0 1
9.41212 0 1
9.52897 0 1
9.64584 0 1
9.76276 0 1
9.8797 0 1
9.99667 0 1
10.1137 0 1
10.2307 0 1
10.3478 0 1
10.4648 0 1
10.5819 0 1
10.6991 0 1
10.8162 0 1
10.9334 0 1
11.0506 0 1
11.1678 0 1
11.285 0 1
11.4023 0 1
11.5196 0 1
11.6369 0 1
11.7542 0 1
11.8715 0 1
11.9888 0 1
12.1062 0 1
12.2235 0 1
12.3409 0 1
12.4582 0 1
12.5756 0 1
12.693 0 1
12.8104 0 1
12.9278 0 1
13.0452 0 1
13.1626 0 1
13.28 0 1
13.3974 0 1
13.5149 0 1
13.6323 0 1
13.7497 0 1
13.8671 0 1
13.9845 0 1
14.1019 0 1
14.2193 0 1
14.3367 0 1
14.4541 0 1
14.5714 0 1
14.6888 0 1
14.8062 0 1
14.9235 0 1
15.0408 0 0
15.1581 0 0
15.2755 0 0
15.3927 0 0
15.51 0 0
15.6273 0 0
15.7445 0 0
15.8617 0 0
15.9789 0 0
16.0961 0 0
16.2132 0 0
16.3304 0 0
16.4475 0 0
16.5646 0 0
16.6816 0 0
16.7986 0 0
16.9156 0 0
17.0326 0 0
17.1496 0 0
17.2665 0 0
17.3833 0 0
17.5002 0 0
17.617 0 0
17.7338 0 0
17.8505 0 0
17.9672 0 0
18.0839 0 0
18.2005 0 0
18.3171 0 0
18.4337 0 0
18.5502 0 0
18.6666 0 0
18.7831 0 0
18.8994 0 0
19.0158 0 0
19.1321 0 0
19.2483 0 0
19.3645 0 0
19.4806 0 0
19.5967 0 0
19.7128 0 0
19.8288 0 0
19.9447 0 0
20.0606 0 1
20.1764 0 1
20.2922 0 1
20.4079 0 1
20.5236 0 1
20.6392 0 1
20.7548 0 1
20.8702 0 1
23.3078 0 1
23.4233 0 1
23.539 0 1
23.6547 0 1
23.7704 0 1
23.8862 0 1
24.0021 0 1
24.118 0 1
24.234 0 1
24.35 0 1
24.4661 1699 41.2189
24.5822 1729 41.5812
24.6984 1708 41.328
24.8146 1724 41.5211
24.9309 1707 41.3159
25.0472 1601 40.0125
25.1636 1563 39.5348
25.28 1503 38.7685
25.3965 1564 39.5474
25.513 1547 39.3319
25.6296 1660 40.7431
25.7462 1819 42.6497
25.8628 1836 42.8486
25.9795 1892 43.4971
26.0962 1941 44.0568
26.213 1872 43.2666
26.3298 1944 44.0908
26.4466 1876 43.3128
26.5635 1807 42.5088
26.6804 1821 42.6732
26.7973 1765 42.0119
26.9143 1904 43.6348
27.0313 1730 41.5933
27.1483 1837 42.8602
27.2653 1841 42.9069
27.3824 1856 43.0813
27.4996 1907 43.6692
27.6167 1867 43.2088
27.7339 1827 42.7434
27.8511 1866 43.1972
27.9683 1797 42.391
28.0855 1808 42.5206
28.2028 1821 42.6732
28.3201 1858 43.1045
28.4374 1758 41.9285
28.5547 1613 40.1622
28.6721 1551 39.3827
28.7894 1467 38.3014
28.9068 1523 39.0256
29.0242 1496 38.6782
29.1416 1452 38.1051
29.259 1684 41.0366
29.3764 1848 42.9884
29.4939 1850 43.0116
29.6113 1781 42.2019
29.7288 1892 43.4971
29.8463 1846 42.9651
29.9638 1869 43.2319
30.0812 1722 41.497
30.1987 1615 40.1871
30.3162 1716 41.4246
30.4337 1684 41.0366
30.5512 1743 41.7493
30.6687 1830 42.7785
30.7862 1814 42.5911
30.9037 1839 42.8836
31.0212 1844 42.9418
31.1387 1965 44.3283
31.2562 1878 43.3359
31.3737 1947 44.1248
31.4912 1813 42.5793
31.6087 1778 42.1663
31.7262 1860 43.1277
31.8436 1797 42.391
31.9611 1838 42.8719
32.0785 1651 40.6325
32.1959 1470 38.3406
32.3134 1544 39.2938
32.4308 1535 39.1791
32.5482 1569 39.6106
32.6655 1650 40.6202
32.7829 1766 42.0238
32.9002 1873 43.2782
33.0176 1773 42.107
33.1349 1792 42.332
33.2522 1783 42.2256
33.3694 1760 41.9524
33.4867 1841 42.9069
33.6039 1748 41.8091
33.7211 1605 40.0625
33.8383 1666 40.8167
33.9554 1590 39.8748
34.0725 1608 40.0999
34.1896 1632 40.398
34.3067 1753 41.8688
34.4237 1735 41.6533
34.5407 1779 42.1782
34.6577 1836 42.8486
34.7746 1821 42.6732
34.8915 1818 42.638
35.0084 1876 43.3128
35.1252 1800 42.4264
35.242 1843 42.9302
35.3587 1847 42.9767
35.4755 1702 41.2553
35.5921 1847 42.9767
35.7088 1679 40.9756
35.8254 1514 38.9102
35.9419 1453 38.1182
36.0584 1442 37.9737
36.1749 1513 38.8973
36.2913 1444 38
36.4077 1519 38.9744
36.524 1579 39.7366
36.6403 1696 41.1825
36.7565 1825 42.72
36.8727 1712 41.3763
36.9889 1655 40.6817
37.1049 1687 41.0731
37.221 0 1
37.3369 0 1
37.4529 0 1
37.5687 0 1
37.6845 0 1
37.8003 0 1
37.916 0 1
38.0316 0 1
38.1472 0 1
40.5851 0 1
40.7008 0 1
40.8164 0 1
40.9322 0 1
41.048 0 1
41.1639 0 1
41.2798 0 1
41.3958 0 1
41.5118 0 1
41.6279 0 1
41.744 1312 36.2215
41.8602 1440 37.9473
41.9765 1513 38.8973
42.0928 1468 38.3145
42.2091 1493 38.6394
42.3255 1434 37.8682
42.4419 1409 37.5366
42.5584 1356 36.8239
42.675 1296 36
42.7915 1314 36.2491
42.9081 1292 35.9444
43.0248 1341 36.6197
43.1415 1364 36.9324
43.2582 1380 37.1484
43.375 1476 38.4187
43.4918 1486 38.5487
43.6087 1471 38.3536
43.7256 1490 38.6005
43.8425 1406 37.4967
43.9595 1466 38.2884
44.0765 1366 36.9594
44.1935 1453 38.1182
44.3106 1354 36.7967
44.4277 1323 36.3731
44.5448 1227 35.0286
44.6619 1187 34.4529
44.7791 1083 32.909
44.8963 1021 31.9531
45.0136 1129 33.6006
45.1308 1148 33.8821
45.2481 1163 34.1028
45.3654 1222 34.9571
45.4827 1229 35.0571
45.6001 1205 34.7131
45.7174 1162 34.0881
45.8348 1160 34.0588
45.9522 1134 33.6749
46.0697 1138 33.7343
46.1871 981 31.3209
46.3046 941 30.6757
46.422 906 30.0998
46.5395 990 31.4643
46.657 1049 32.3883
46.7745 1088 32.9848
46.892 1125 33.541
47.0096 1136 33.7046
47.1271 1138 33.7343
47.2446 1146 33.8526
47.3622 1090 33.0151
47.4797 1117 33.4215
47.5973 1060 32.5576
47.7149 1118 33.4365
47.8324 1084 32.9242
47.95 1036 32.187
48.0675 963 31.0322
48.1851 977 31.257
48.3027 839 28.9655
48.4202 907 30.1164
48.5378 947 30.7734
48.6554 902 30.0333
48.7729 952 30.8545
48.8904 951 30.8383
49.008 1077 32.8177
49.1255 986 31.4006
49.243 981 31.3209
49.3605 969 31.1288
49.478 902 30.0333
49.5955 844 29.0517
49.713 781 27.9464
49.8304 758 27.5318
49.9479 789 28.0891
50.0653 855 29.2404
50.1827 866 29.4279
50.3001 984 31.3688
50.4175 1082 32.8938
50.5348 1043 32.2955
50.6521 1113 33.3617
50.7694 1060 32.5576
50.8867 1190 34.4964
51.004 1251 35.3695
51.1212 1178 34.322
51.2384 1171 34.2199
51.3556 1178 34.322
51.4727 1195 34.5688
51.5899 1125 33.541
51.707 1108 33.2866
51.824 1064 32.619
51.9411 1118 33.4365
52.0581 1138 33.7343
52.175 1225 35
52.2919 1205 34.7131
52.4088 1301 36.0694
52.5257 1283 35.819
52.6425 1295 35.9861
52.7593 1306 36.1386
52.876 1309 36.1801
52.9927 1327 36.428
53.1094 1221 34.9428
53.226 1162 34.0881
53.3426 1075 32.7872
53.4591 1064 32.619
53.5756 1135 33.6898
53.692 1261 35.5106
53.8084 1362 36.9053
53.9248 1411 37.5633
54.0411 1410 37.55
54.1573 1510 38.8587
54.2735 0 1
54.3896 0 1
54.5057 0 1
54.6217 0 1
54.7377 0 1
54.8537 0 1
54.9695 0 1
55.0853 0 1
55.2011 0 1
55.3168 0 1
55.4324 0 1
57.824 0 1
57.9396 0 1
58.0553 0 1
58.1711 0 1
58.2869 0 1
58.4028 0 1
58.5187 0 1
58.6347 0 1
58.7508 0 1
58.8669 0 1
58.983 1521 39
59.0992 1600 40
59.2155 1688 41.0853
59.3318 1718 41.4488
59.4482 1811 42.5558
59.5646 1773 42.107
59.681 1734 41.6413
59.7975 1808 42.5206
59.9141 1760 41.9524
60.0306 1673 40.9023
60.1473 1629 40.3609
60.2639 1511 38.8716
60.3807 1412 37.5766
60.4974 1357 36.8375
60.6142 1486 38.5487
60.731 1474 38.3927
60.8479 1567 39.5854
60.9648 1593 39.9124
61.0818 1593 39.9124
61.1987 1686 41.0609
61.3158 1550 39.37
61.4328 1551 39.3827
61.5499 1499 38.7169
61.667 1353 36.7831
61.7841 1296 36
61.9013 1329 36.4555
62.0185 1296 36
62.1357 1406 37.4967
62.253 1496 38.6782
62.3702 1578 39.724
62.4875 1697 41.1947
62.6049 1800 42.4264
62.7222 1804 42.4735
62.8396 1855 43.0697
62.9569 1911 43.715
63.0743 1924 43.8634
63.1918 2027 45.0222
63.3092 1850 43.0116
63.4267 1749 41.821
63.5441 1800 42.4264
63.6616 1704 41.2795
63.7791 1601 40.0125
63.8966 1540 39.2428
64.0142 1552 39.3954
64.1317 1576 39.6989
64.2492 1683 41.0244
64.3668 1733 41.6293
64.4843 1750 41.833
64.6019 1716 41.4246
64.7195 1684 41.0366
64.837 1754 41.8808
64.9546 1728 41.5692
65.0722 1601 40.0125
65.1898 1488 38.5746
65.3074 1350 36.7423
65.4249 1312 36.2215
65.5425 1279 35.7631
65.6601 1313 36.2353
65.7777 1384 37.2022
65.8952 1579 39.7366
66.0128 1654 40.6694
66.1304 1729 41.5812
66.2479 1794 42.3556
66.3655 1802 42.45
66.483 1858 43.1045
66.6005 1846 42.9651
66.718 1843 42.9302
66.8355 1819 42.6497
66.953 1776 42.1426
67.0705 1752 41.8569
67.1879 1625 40.3113
67.3054 1513 38.8973
67.4228 1437 37.9078
67.5402 1356 36.8239
67.6576 1488 38.5746
67.7749 1422 37.7094
67.8923 1497 38.6911
68.0096 1432 37.8418
68.1269 1475 38.4057
68.2442 1436 37.8946
68.3614 1542 39.2683
68.4787 1522 39.0128
68.5958 1460 38.2099
68.713 1412 37.5766
68.8302 1279 35.7631
68.9473 1151 33.9264
69.0643 1089 33
69.1814 1093 33.0606
69.2984 1093 33.0606
69.4154 1244 35.2704
69.5323 1325 36.4005
69.6492 1398 37.3898
69.7661 1559 39.4842
69.8829 1561 39.5095
69.9997 1671 40.8779
70.1165 1652 40.6448
70.2332 1645 40.5586
70.3499 1670 40.8656
70.4665 1698 41.2068
70.5831 1686 41.0609
70.6996 1578 39.724
70.8161 1429 37.8021
70.9326 1394 37.3363
71.049 1272 35.6651
71.1653 1284 35.8329
71.2817 1226 35.0143
71.3979 1309 36.1801
71.5141 1332 36.4966
71.6303 1394 37.3363
71.7464 1262 35.5246
71.8624 0 1
71.9784 0 1
72.0944 0 1
72.2102 0 1
72.3261 0 1
72.4418 0 1
72.5575 0 1
72.6732 0 1
75.1054 0 1
75.2209 0 1
75.3365 0 1
75.4521 0 1
75.5678 0 1
75.6835 0 1
75.7993 0 1
75.9151 0 1
76.031 0 1
76.147 1298 36.0278
76.263 1352 36.7696
76.3791 1271 35.6511
76.4952 1351 36.756
76.6113 1315 36.2629
76.7276 1429 37.8021
76.8438 1356 36.8239
76.9601 1397 37.3765
77.0765 1385 37.2156
77.1929 1445 38.0132
77.3093 1420 37.6829
77.4258 1502 38.7556
77.5423 1460 38.2099
77.6589 1424 37.7359
77.7755 1287 35.8748
77.8921 1122 33.4963
78.0088 1063 32.6037
78.1256 950 30.8221
78.2423 968 31.1127
78.3591 1172 34.2345
78.4759 1130 33.6155
78.5928 1334 36.524
78.7097 1414 37.6032
78.8266 1441 37.9605
78.9436 1647 40.5832
79.0606 1568 39.598
79.1776 1653 40.6571
79.2946 1632 40.398
79.4117 1565 39.5601
79.5288 1575 39.6863
79.6459 1568 39.598
79.7631 1442 37.9737
79.8802 1390 37.2827
79.9974 1324 36.3868
80.1147 1267 35.5949
80.2319 1255 35.426
80.3491 1342 36.6333
80.4664 1327 36.428
80.5837 1225 35
80.701 1311 36.2077
80.8183 1339 36.5923
80.9357 1285 35.8469
81.053 1493 38.6394
81.1704 1320 36.3318
81.2877 1319 36.318
81.4051 1133 33.6601
81.5225 1065 32.6343
81.6399 904 30.0666
81.7573 900 30
81.8747 832 28.8444
81.9922 970 31.1448
82.1096 1034 32.1559
82.227 1207 34.7419
82.3444 1350 36.7423
82.4619 1441 37.9605
82.5793 1497 38.6911
82.6967 1444 38
82.8142 1396 37.3631
82.9316 1384 37.2022
83.049 1503 38.7685
83.1664 1398 37.3898
83.2838 1341 36.6197
83.4012 1215 34.8569
83.5186 1158 34.0294
83.636 1173 34.2491
83.7534 1151 33.9264
83.8708 1146 33.8526
83.9881 1199 34.6266
84.1055 1225 35
84.2228 1221 34.9428
84.3401 1235 35.1426
84.4575 1265 35.5668
84.5747 1267 35.5949
84.692 1360 36.8782
84.8093 1293 35.9583
84.9265 1160 34.0588
85.0437 949 30.8058
85.1609 908 30.133
85.2781 825 28.7228
85.3952 747 27.3313
85.5123 850 29.1548
85.6294 983 31.3528
85.7465 1221 34.9428
85.8636 1249 35.3412
85.9806 1398 37.3898
86.0976 1381 37.1618
86.2145 1486 38.5487
86.3315 1604 40.05
86.4484 1448 38.0526
86.5652 1527 39.0768
86.682 1517 38.9487
86.7988 1457 38.1707
86.9156 1434 37.8682
87.0323 1378 37.1214
87.149 1354 36.7967
87.2657 1411 37.5633
87.3823 1342 36.6333
87.4988 1297 36.0139
87.6154 1382 37.1753
87.7318 1365 36.9459
87.8483 1375 37.081
87.9647 1355 36.8103
88.081 1432 37.8418
88.1973 1439 37.9342
88.3136 1488 38.5746
88.4298 1346 36.6879
88.546 1195 34.5688
88.6621 1103 33.2114
88.7781 939 30.6431
88.8942 0 1
89.0101 0 1
89.126 0 1
89.2419 0 1
89.3577 0 1
89.4734 0 1
89.5891 0 1
89.7047 0 1
89.8203 0 1
89.9358 0 1
92.3269 0 1
92.4424 0 1
92.558 0 1
92.6736 0 1
92.7893 0 1
92.905 0 1
93.0208 0 1
93.1366 0 1
93.2525 0 1
93.3685 0 1
93.4845 0 1
93.6005 1424 37.7359
93.7167 1460 38.2099
93.8328 1415 37.6165
93.949 1363 36.9188
94.0653 1161 34.0735
94.1816 1024 32
94.2979 997 31.5753
94.4143 887 29.7825
94.5307 956 30.9192
94.6472 1017 31.8904
94.7637 1282 35.805
94.8803 1408 37.5233
94.9969 1439 37.9342
95.1135 1535 39.1791
95.2302 1670 40.8656
95.3469 1617 40.2119
95.4637 1618 40.2244
95.5805 1664 40.7922
95.6973 1672 40.8901
95.8142 1739 41.7013
95.9311 1562 39.5221
96.048 1568 39.598
96.1649 1561 39.5095
96.2819 1460 38.2099
96.3989 1634 40.4228
96.516 1496 38.6782
96.633 1503 38.7685
96.7501 1561 39.5095
96.8673 1562 39.5221
96.9844 1515 38.923
97.1016 1544 39.2938
97.2188 1564 39.5474
97.336 1689 41.0974
97.4532 1584 39.7995
97.5704 1508 38.833
97.6877 1287 35.8748
97.805 1150 33.9116
97.9223 1025 32.0156
98.0396 947 30.7734
98.1569 942 30.692
98.2743 960 30.9839
98.3916 1215 34.8569
98.509 1375 37.081
98.6264 1487 38.5616
98.7438 1590 39.8748
98.8612 1670 40.8656
98.9786 1734 41.6413
99.096 1745 41.7732
99.2134 1738 41.6893
99.3308 1750 41.833
99.4482 1823 42.6966
99.5656 1753 41.8688
99.6831 1585 39.8121
99.8005 1536 39.1918
99.9179 1621 40.2616
100.035 1622 40.2741
100.153 1569 39.6106
100.27 1507 38.8201
100.388 1591 39.8873
100.505 1551 39.3827
100.622 1585 39.8121
100.74 1594 39.9249
100.857 1618 40.2244
100.975 1634 40.4228
101.092 1658 40.7185
101.209 1467 38.3014
101.327 1298 36.0278
101.444 1097 33.121
101.561 1013 31.8277
101.679 996 31.5595
101.796 974 31.209
101.913 1135 33.6898
102.03 1390 37.2827
102.148 1553 39.4081
102.265 1724 41.5211
102.382 1821 42.6732
102.499 1736 41.6653
102.616 1841 42.9069
102.733 1896 43.5431
102.851 1845 42.9535
102.968 1873 43.2782
103.085 1839 42.8836
103.202 1782 42.2137
103.319 1781 42.2019
103.436 1695 41.1704
103.552 1755 41.8927
103.669 1739 41.7013
103.786 1793 42.3438
103.903 1705 41.2916
104.02 1682 41.0122
104.137 1722 41.497
104.253 1723 41.509
104.37 1710 41.3521
104.487 1756 41.9047
104.603 1732 41.6173
104.72 1601 40.0125
104.836 1330 36.4692
104.953 1161 34.0735
105.069 1024 32
105.186 1028 32.0624
105.302 1107 33.2716
105.418 1316 36.2767
105.535 1571 39.6358
105.651 1746 41.7852
105.767 1883 43.3935
105.883 1910 43.7035
105.999 1944 44.0908
106.115 0 1
106.231 0 1
106.347 0 1
106.463 0 1
106.579 0 1
106.694 0 1
106.81 0 1
106.926 0 1
107.041 0 1
107.157 0 1
109.576 0 1
109.692 0 1
109.807 0 1
109.923 0 1
110.039 0 1
110.155 0 1
110.27 0 1
110.386 0 1
110.502 0 1
110.618 1528 39.0896
110.735 1595 39.9375
110.851 1808 42.5206
110.967 1833 42.8135
111.083 1828 42.7551
111.199 1799 42.4146
111.316 1845 42.9535
111.432 1859 43.1161
111.549 1786 42.2611
111.665 1850 43.0116
111.782 1837 42.8602
111.898 1691 41.1218
112.015 1765 42.0119
112.132 1695 41.1704
112.248 1665 40.8044
112.365 1649 40.6079
112.482 1589 39.8623
112.599 1632 40.398
112.716 1629 40.3609
112.832 1666 40.8167
112.949 1687 41.0731
113.066 1653 40.6571
113.183 1583 39.7869
113.3 1392 37.3095
113.417 1235 35.1426
113.534 1082 32.8938
113.652 1004 31.686
113.769 933 30.545
113.886 1023 31.9844
114.003 1224 34.9857
114.12 1386 37.229
114.238 1564 39.5474
114.355 1725 41.5331
114.472 1730 41.5933
114.589 1781 42.2019
114.707 1734 41.6413
114.824 1785 42.2493
114.942 1840 42.8952
115.059 1787 42.2729
115.176 1793 42.3438
115.294 1791 42.3202
115.411 1706 41.3038
115.529 1657 40.7063
115.646 1632 40.398
115.764 1615 40.1871
115.881 1602 40.025
115.999 1646 40.5709
116.116 1666 40.8167
116.234 1616 40.1995
116.351 1551 39.3827
116.469 1614 40.1746
116.586 1643 40.5339
116.704 1593 39.9124
116.821 1562 39.5221
116.939 1224 34.9857
117.056 1154 33.9706
117.174 1025 32.0156
117.291 1015 31.8591
117.409 1064 32.619
117.526 1102 33.1964
117.644 1337 36.565
117.761 1423 37.7227
117.879 1632 40.398
117.996 1672 40.8901
118.114 1709 41.3401
118.231 1731 41.6053
118.349 1736 41.6653
118.466 1663 40.7799
118.584 1775 42.1307
118.701 1806 42.4971
118.819 1808 42.5206
118.936 1629 40.3609
119.053 1663 40.7799
119.171 1688 41.0853
119.288 1613 40.1622
119.405 1649 40.6079
119.523 1655 40.6817
119.64 1662 40.7676
119.757 1588 39.8497
119.875 1597 39.9625
119.992 1526 39.064
120.109 1549 39.3573
120.226 1626 40.3237
120.343 1577 39.7115
120.46 1499 38.7169
120.578 1314 36.2491
120.695 1192 34.5254
120.812 1083 32.909
120.929 970 31.1448
121.046 986 31.4006
121.163 1085 32.9393
121.279 1205 34.7131
121.396 1384 37.2022
121.513 1590 39.8748
121.63 1544 39.2938
121.747 1617 40.2119
121.863 1653 40.6571
121.98 1610 40.1248
122.097 1739 41.7013
122.213 1661 40.7554
122.33 1671 40.8779
122.446 1733 41.6293
122.563 1646 40.5709
122.679 1699 41.2189
122.795 1665 40.8044
122.912 1586 39.8246
123.028 1550 39.37
123.144 1533 39.1535
123.26 1554 39.4208
123.377 0 1
123.493 0 1
123.609 0 1
123.725 0 1
123.84 0 1
123.956 0 1
124.072 0 1
124.188 0 1
124.303 0 1
124.419 0 1
126.852 0 1
126.968 0 1
127.083 0 1
127.199 0 1
127.315 0 1
127.431 0 1
127.547 0 1
127.663 0 1
127.779 0 1
127.895 0 1
128.011 0 1
128.127 0 1
128.243 0 1
128.359 1748 41.8091
128.476 1691 41.1218
128.592 1646 40.5709
128.708 1800 42.4264
128.825 1679 40.9756
128.941 1709 41.3401
129.058 1692 41.1339
129.174 1691 41.1218
129.291 1740 41.7133
129.408 1607 40.0874
129.524 1393 37.3229
129.641 1376 37.0945
129.758 1316 36.2767
129.875 1225 35
129.992 1115 33.3916
130.108 1185 34.4238
130.225 1374 37.0675
130.342 1550 39.37
130.459 1621 40.2616
130.576 1798 42.4028
130.693 1789 42.2966
130.81 1825 42.72
130.928 1773 42.107
131.045 1822 42.6849
131.162 1876 43.3128
131.279 1948 44.1362
131.396 1881 43.3705
131.513 1891 43.4856
131.631 1847 42.9767
131.748 1835 42.8369
131.865 1921 43.8292
131.983 1865 43.1856
132.1 1827 42.7434
132.217 1801 42.4382
132.335 1857 43.0929
132.452 1869 43.2319
132.57 1686 41.0609
132.687 1840 42.8952
132.804 1853 43.0465
132.922 1725 41.5331
133.039 1594 39.9249
133.157 1447 38.0395
133.274 1308 36.1663
133.392 1267 35.5949
133.509 1206 34.7275
133.627 1162 34.0881
133.744 1316 36.2767
133.862 1444 38
133.979 1681 41
134.097 1656 40.694
134.214 1671 40.8779
134.332 1737 41.6773
134.449 1738 41.6893
134.567 1818 42.638
134.684 1932 43.9545
134.802 1872 43.2666
134.919 1889 43.4626
135.037 1900 43.589
135.154 1813 42.5793
135.272 1871 43.2551
135.389 1818 42.638
135.507 1804 42.4735
135.624 1885 43.4166
135.742 1877 43.3244
135.859 1909 43.6921
135.977 1870 43.2435
136.094 1891 43.4856
136.211 1779 42.1782
136.329 1837 42.8602
136.446 1807 42.5088
136.564 1743 41.7493
136.681 1635 40.4351
136.798 1426 37.7624
136.915 1345 36.6742
137.033 1271 35.6511
137.15 1194 34.5543
137.267 1141 33.7787
137.384 1271 35.6511
137.502 1400 37.4166
137.619 1537 39.2046
137.736 1563 39.5348
137.853 1599 39.9875
137.97 1660 40.7431
138.087 1762 41.9762
138.204 1893 43.5086
138.321 1892 43.4971
138.438 1931 43.9431
138.555 1933 43.9659
138.672 1935 43.9886
138.788 1907 43.6692
138.905 1928 43.909
139.022 1815 42.6028
139.139 1928 43.909
139.255 1897 43.5546
139.372 1829 42.7668
139.488 1951 44.1701
139.605 1865 43.1856
139.721 1763 41.9881
139.838 1847 42.9767
139.954 1806 42.4971
140.071 1732 41.6173
140.187 1813 42.5793
140.303 1645 40.5586
140.419 1473 38.3797
140.535 1336 36.5513
140.652 1224 34.9857
140.768 0 1
140.884 0 1
141 0 1
141.115 0 1
141.231 0 1
141.347 0 1
141.463 0 1
141.578 0 1
141.694 0 1
144.104 0 1
144.219 0 1
144.335 0 1
144.45 0 1
144.566 0 1
144.682 0 1
144.798 0 1
144.914 0 1
145.03 0 1
145.146 1258 35.4683
145.262 1351 36.756
145.378 1284 35.8329
145.494 1228 35.0428
145.61 1143 33.8083
145.726 1146 33.8526
145.842 1061 32.573
145.959 985 31.3847
146.075 916 30.2655
146.192 983 31.3528
146.308 1056 32.4962
146.425 1057 32.5115
146.541 1162 34.0881
146.658 1226 35.0143
146.774 1371 37.027
146.891 1403 37.4566
147.008 1496 38.6782
147.125 1413 37.5899
147.241 1449 38.0657
147.358 1548 39.3446
147.475 1513 38.8973
147.592 1457 38.1707
147.709 1493 38.6394
147.826 1458 38.1838
147.943 1482 38.4968
148.06 1532 39.1408
148.177 1493 38.6394
148.294 1423 37.7227
148.411 1458 38.1838
148.528 1406 37.4967
148.645 1439 37.9342
148.762 1438 37.921
148.88 1359 36.8646
148.997 1317 36.2905
149.114 1418 37.6563
149.231 1271 35.6511
149.349 1224 34.9857
149.466 1198 34.6121
149.583 1059 32.5423
149.701 1038 32.218
149.818 955 30.9031
149.935 941 30.6757
150.053 980 31.305
150.17 1091 33.0303
150.287 1086 32.9545
150.405 1246 35.2987
150.522 1252 35.3836
150.64 1389 37.2693
150.757 1470 38.3406
150.875 1468 38.3145
150.992 1495 38.6652
151.11 1438 37.921
151.227 1587 39.8372
151.344 1459 38.1969
151.462 1530 39.1152
151.579 1462 38.2361
151.697 1478 38.4448
151.814 1432 37.8418
151.932 1487 38.5616
152.049 1420 37.6829
152.167 1452 38.1051
152.284 1491 38.6135
152.402 1484 38.5227
152.519 1469 38.3275
152.636 1430 37.8153
152.754 1490 38.6005
152.871 1346 36.6879
152.989 1272 35.6651
153.106 1156 34
153.223 1112 33.3467
153.341 1067 32.665
153.458 1002 31.6544
153.575 989 31.4484
153.693 1070 32.7109
153.81 1193 34.5398
153.927 1227 35.0286
154.044 1255 35.426
154.162 1400 37.4166
154.279 1445 38.0132
154.396 1506 38.8072
154.513 1498 38.704
154.63 1618 40.2244
154.747 1553 39.4081
154.864 1603 40.0375
154.981 1630 40.3733
155.098 1587 39.8372
155.215 1624 40.2989
155.332 1673 40.9023
155.449 1555 39.4335
155.566 1563 39.5348
155.683 1519 38.9744
155.8 1537 39.2046
155.917 1572 39.6485
156.033 1475 38.4057
156.15 0 1
156.267 0 1
156.383 0 1
156.5 0 1
156.617 0 1
156.733 0 1
156.85 0 1
156.966 0 1
157.082 0 1
157.199 0 1
157.315 0 1
157.431 0 1
157.547 0 1
157.664 0 1
157.78 0 1
157.896 0 1
158.012 0 1
158.128 0 1
158.244 0 1
158.359 0 1
158.475 0 1
158.591 0 1
158.706 0 1
