
6.15755 0 1
6.2731 0 1
6.3887 0 1
6.50437 0 1
6.62009 0 1
6.73587 0 1
6.8517 0 1
6.96759 0 1
7.08353 0 1
7.19952 0 1
7.31557 0 1
7.43166 0 1
7.54781 0 1
7.664 0 1
7.78024 0 1
7.89653 0 1
8.01286 0 1
8.12924 0 1
8.24567 0 1
8.36213 0 1
8.47864 0 1
8.59519 0 1
8.71178 0 1
8.82841 0 1
8.94508 0 1
9.06179 0 1
9.17853 0 1
9.29531 0 1
9.41212 0 1
9.52897 0 1
9.64584 0 1
9.76276 0 1
9.8797 0 1
9.99667 0 1
10.1137 0 1
10.2307 0 1
10.3478 0 1
10.4648 0 1
10.5819 0 1
10.6991 0 1
10.8162 0 1
10.9334 0 1
11.0506 0 1
11.1678 0 1
11.285 0 1
11.4023 0 1
11.5196 0 1
11.6369 0 1
11.7542 0 1
11.8715 0 1
11.9888 0 1
12.1062 0 1
12.2235 0 1
12.3409 0 1
12.4582 0 1
12.5756 0 1
12.693 0 1
12.8104 0 1
12.9278 0 1
13.0452 0 1
13.1626 0 1
13.28 0 1
13.3974 0 1
13.5149 0 1
13.6323 0 1
13.7497 0 1
13.8671 0 1
13.9845 0 1
14.1019 0 1
14.2193 0 1
14.3367 0 1
14.4541 0 1
14.5714 0 1
14.6888 0 1
14.8062 0 1
14.9235 0 1
15.0408 1948 44.1362
15.1581 2016 44.8999
15.2755 2129 46.1411
15.3927 2105 45.8803
15.51 2104 45.8694
15.6273 2040 45.1664
15.7445 2041 45.1774
15.8617 2080 45.607
15.9789 1958 44.2493
16.0961 1958 44.2493
16.2132 1895 43.5316
16.3304 1975 44.441
16.4475 1856 43.0813
16.5646 1883 43.3935
16.6816 1820 42.6615
16.7986 1865 43.1856
16.9156 1823 42.6966
17.0326 1779 42.1782
17.1496 1818 42.638
17.2665 1757 41.9166
17.3833 1816 42.6146
17.5002 1782 42.2137
17.617 1814 42.5911
17.7338 1746 41.7852
17.8505 1791 42.3202
17.9672 1897 43.5546
18.0839 1907 43.6692
18.2005 1954 44.2041
18.3171 2084 45.6508
18.4337 2087 45.6837
18.5502 2108 45.913
18.6666 2150 46.3681
18.7831 2174 46.6262
18.8994 2108 45.913
19.0158 2057 45.3542
19.1321 1957 44.238
19.2483 1844 42.9418
19.3645 1835 42.8369
19.4806 1829 42.7668
19.5967 1717 41.4367
19.7128 1712 41.3763
19.8288 1566 39.5727
19.9447 1456 38.1576
20.0606 0 1
20.1764 0 1
20.2922 0 1
20.4079 0 1
20.5236 0 1
20.6392 0 1
20.7548 0 1
20.8702 0 1
23.3078 0 1
23.4233 0 1
23.539 0 1
23.6547 0 1
23.7704 0 1
23.8862 0 1
24.0021 0 1
24.118 0 1
24.234 0 1
24.35 0 1
24.4661 1721 41.4849
24.5822 1648 40.5956
24.6984 1661 40.7554
24.8146 1701 41.2432
24.9309 1653 40.6571
25.0472 1608 40.0999
25.1636 1621 40.2616
25.28 1630 40.3733
25.3965 1640 40.4969
25.513 1675 40.9268
25.6296 1851 43.0232
25.7462 1744 41.7612
25.8628 1751 41.845
25.9795 1774 42.1189
26.0962 1731 41.6053
26.213 1754 41.8808
26.3298 1644 40.5463
26.4466 1555 39.4335
26.5635 1534 39.1663
26.6804 1679 40.9756
26.7973 1700 41.2311
26.9143 1759 41.9404
27.0313 1781 42.2019
27.1483 1802 42.45
27.2653 1813 42.5793
27.3824 1883 43.3935
27.4996 1887 43.4396
27.6167 1734 41.6413
27.7339 1679 40.9756
27.8511 1769 42.0595
27.9683 1681 41
28.0855 1735 41.6533
28.2028 1613 40.1622
28.3201 1535 39.1791
28.4374 1478 38.4448
28.5547 1571 39.6358
28.6721 1541 39.2556
28.7894 1476 38.4187
28.9068 1546 39.3192
29.0242 1579 39.7366
29.1416 1587 39.8372
29.259 1509 38.8458
29.3764 1516 38.9358
29.4939 1600 40
29.6113 1557 39.4588
29.7288 1543 39.281
29.8463 1544 39.2938
29.9638 1471 38.3536
30.0812 1440 37.9473
30.1987 1410 37.55
30.3162 1548 39.3446
30.4337 1632 40.398
30.5512 1626 40.3237
30.6687 1558 39.4715
30.7862 1669 40.8534
30.9037 1657 40.7063
31.0212 1769 42.0595
31.1387 1700 41.2311
31.2562 1714 41.4005
31.3737 1660 40.7431
31.4912 1638 40.4722
31.6087 1597 39.9625
31.7262 1578 39.724
31.8436 1589 39.8623
31.9611 1438 37.921
32.0785 1491 38.6135
32.1959 1531 39.128
32.3134 1408 37.5233
32.4308 1442 37.9737
32.5482 1474 38.3927
32.6655 1515 38.923
32.7829 1526 39.064
32.9002 1510 38.8587
33.0176 1499 38.7169
33.1349 1504 38.7814
33.2522 1443 37.9868
33.3694 1468 38.3145
33.4867 1474 38.3927
33.6039 1414 37.6032
33.7211 1442 37.9737
33.8383 1371 37.027
33.9554 1407 37.51
34.0725 1543 39.281
34.1896 1532 39.1408
34.3067 1555 39.4335
34.4237 1614 40.1746
34.5407 1590 39.8748
34.6577 1610 40.1248
34.7746 1576 39.6989
34.8915 1611 40.1373
35.0084 1516 38.9358
35.1252 1565 39.5601
35.242 1544 39.2938
35.3587 1461 38.223
35.4755 1495 38.6652
35.5921 1393 37.3229
35.7088 1431 37.8286
35.8254 1298 36.0278
35.9419 1441 37.9605
36.0584 1344 36.6606
36.1749 1351 36.756
36.2913 1367 36.973
36.4077 1381 37.1618
36.524 1447 38.0395
36.6403 1405 37.4833
36.7565 1439 37.9342
36.8727 1459 38.1969
36.9889 1442 37.9737
37.1049 1427 37.7757
37.221 0 1
37.3369 0 1
37.4529 0 1
37.5687 0 1
37.6845 0 1
37.8003 0 1
37.916 0 1
38.0316 0 1
38.1472 0 1
40.5851 0 1
40.7008 0 1
40.8164 0 1
40.9322 0 1
41.048 0 1
41.1639 0 1
41.2798 0 1
41.3958 0 1
41.5118 0 1
41.6279 0 1
41.744 1060 32.5576
41.8602 1203 34.6843
41.9765 1242 35.242
42.0928 1173 34.2491
42.2091 1190 34.4964
42.3255 1158 34.0294
42.4419 1140 33.7639
42.5584 1126 33.5559
42.675 1154 33.9706
42.7915 1073 32.7567
42.9081 1052 32.4345
43.0248 1160 34.0588
43.1415 1123 33.5112
43.2582 1184 34.4093
43.375 1192 34.5254
43.4918 1167 34.1614
43.6087 1190 34.4964
43.7256 1187 34.4529
43.8425 1206 34.7275
43.9595 1136 33.7046
44.0765 1157 34.0147
44.1935 1095 33.0908
44.3106 1031 32.1092
44.4277 1027 32.0468
44.5448 1015 31.8591
44.6619 933 30.545
44.7791 910 30.1662
44.8963 892 29.8664
45.0136 859 29.3087
45.1308 870 29.4958
45.2481 881 29.6816
45.3654 914 30.2324
45.4827 920 30.3315
45.6001 919 30.315
45.7174 952 30.8545
45.8348 864 29.3939
45.9522 894 29.8998
46.0697 904 30.0666
46.1871 765 27.6586
46.3046 702 26.4953
46.422 761 27.5862
46.5395 785 28.0179
46.657 816 28.5657
46.7745 850 29.1548
46.892 829 28.7924
47.0096 853 29.2062
47.1271 850 29.1548
47.2446 863 29.3769
47.3622 841 29
47.4797 850 29.1548
47.5973 852 29.189
47.7149 785 28.0179
47.8324 772 27.7849
47.95 740 27.2029
48.0675 756 27.4955
48.1851 711 26.6646
48.3027 658 25.6515
48.4202 731 27.037
48.5378 746 27.313
48.6554 677 26.0192
48.7729 769 27.7308
48.8904 744 27.2764
49.008 794 28.178
49.1255 803 28.3373
49.243 779 27.9106
49.3605 803 28.3373
49.478 791 28.1247
49.5955 758 27.5318
49.713 793 28.1603
49.8304 695 26.3629
49.9479 687 26.2107
50.0653 793 28.1603
50.1827 771 27.7669
50.3001 828 28.775
50.4175 878 29.6311
50.5348 860 29.3258
50.6521 868 29.4618
50.7694 893 29.8831
50.8867 942 30.692
51.004 946 30.7571
51.1212 965 31.0644
51.2384 964 31.0483
51.3556 960 30.9839
51.4727 923 30.3809
51.5899 922 30.3645
51.707 914 30.2324
51.824 930 30.4959
51.9411 971 31.1609
52.0581 955 30.9031
52.175 1014 31.8434
52.2919 1066 32.6497
52.4088 1092 33.0454
52.5257 1128 33.5857
52.6425 1178 34.322
52.7593 1134 33.6749
52.876 1221 34.9428
52.9927 1235 35.1426
53.1094 1262 35.5246
53.226 1127 33.5708
53.3426 1137 33.7194
53.4591 1104 33.2265
53.5756 1099 33.1512
53.692 1163 34.1028
53.8084 1171 34.2199
53.9248 1219 34.9142
54.0411 1244 35.2704
54.1573 1307 36.1525
54.2735 0 1
54.3896 0 1
54.5057 0 1
54.6217 0 1
54.7377 0 1
54.8537 0 1
54.9695 0 1
55.0853 0 1
55.2011 0 1
55.3168 0 1
55.4324 0 1
57.824 0 1
57.9396 0 1
58.0553 0 1
58.1711 0 1
58.2869 0 1
58.4028 0 1
58.5187 0 1
58.6347 0 1
58.7508 0 1
58.8669 0 1
58.983 1439 37.9342
59.0992 1591 39.8873
59.2155 1603 40.0375
59.3318 1679 40.9756
59.4482 1635 40.4351
59.5646 1621 40.2616
59.681 1703 41.2674
59.7975 1635 40.4351
59.9141 1728 41.5692
60.0306 1628 40.3485
60.1473 1607 40.0874
60.2639 1581 39.7618
60.3807 1592 39.8999
60.4974 1515 38.923
60.6142 1544 39.2938
60.731 1526 39.064
60.8479 1477 38.4318
60.9648 1559 39.4842
61.0818 1573 39.6611
61.1987 1567 39.5854
61.3158 1602 40.025
61.4328 1554 39.4208
61.5499 1660 40.7431
61.667 1711 41.3642
61.7841 1603 40.0375
61.9013 1556 39.4462
62.0185 1466 38.2884
62.1357 1401 37.4299
62.253 1416 37.6298
62.3702 1332 36.4966
62.4875 1457 38.1707
62.6049 1472 38.3667
62.7222 1497 38.6911
62.8396 1524 39.0384
62.9569 1479 38.4578
63.0743 1552 39.3954
63.1918 1549 39.3573
63.3092 1456 38.1576
63.4267 1444 38
63.5441 1429 37.8021
63.6616 1553 39.4081
63.7791 1440 37.9473
63.8966 1338 36.5787
64.0142 1410 37.55
64.1317 1395 37.3497
64.2492 1347 36.7015
64.3668 1240 35.2136
64.4843 1427 37.7757
64.6019 1386 37.229
64.7195 1381 37.1618
64.837 1459 38.1969
64.9546 1468 38.3145
65.0722 1503 38.7685
65.1898 1441 37.9605
65.3074 1474 38.3927
65.4249 1414 37.6032
65.5425 1353 36.7831
65.6601 1320 36.3318
65.7777 1245 35.2846
65.8952 1264 35.5528
66.0128 1340 36.606
66.1304 1396 37.3631
66.2479 1363 36.9188
66.3655 1389 37.2693
66.483 1441 37.9605
66.6005 1445 38.0132
66.718 1488 38.5746
66.8355 1468 38.3145
66.953 1473 38.3797
67.0705 1435 37.8814
67.1879 1408 37.5233
67.3054 1467 38.3014
67.4228 1476 38.4187
67.5402 1395 37.3497
67.6576 1438 37.921
67.7749 1323 36.3731
67.8923 1380 37.1484
68.0096 1452 38.1051
68.1269 1383 37.1887
68.2442 1543 39.281
68.3614 1527 39.0768
68.4787 1571 39.6358
68.5958 1638 40.4722
68.713 1662 40.7676
68.8302 1625 40.3113
68.9473 1688 41.0853
69.0643 1643 40.5339
69.1814 1563 39.5348
69.2984 1480 38.4708
69.4154 1341 36.6197
69.5323 1307 36.1525
69.6492 1376 37.0945
69.7661 1453 38.1182
69.8829 1495 38.6652
69.9997 1508 38.833
70.1165 1568 39.598
70.2332 1611 40.1373
70.3499 1623 40.2865
70.4665 1568 39.598
70.5831 1543 39.281
70.6996 1567 39.5854
70.8161 1638 40.4722
70.9326 1594 39.9249
71.049 1567 39.5854
71.1653 1530 39.1152
71.2817 1652 40.6448
71.3979 1484 38.5227
71.5141 1356 36.8239
71.6303 1361 36.8917
71.7464 1329 36.4555
71.8624 0 1
71.9784 0 1
72.0944 0 1
72.2102 0 1
72.3261 0 1
72.4418 0 1
72.5575 0 1
72.6732 0 1
75.1054 0 1
75.2209 0 1
75.3365 0 1
75.4521 0 1
75.5678 0 1
75.6835 0 1
75.7993 0 1
75.9151 0 1
76.031 0 1
76.147 1412 37.5766
76.263 1462 38.2361
76.3791 1541 39.2556
76.4952 1522 39.0128
76.6113 1504 38.7814
76.7276 1433 37.855
76.8438 1392 37.3095
76.9601 1501 38.7427
77.0765 1542 39.2683
77.1929 1563 39.5348
77.3093 1600 40
77.4258 1650 40.6202
77.5423 1629 40.3609
77.6589 1720 41.4729
77.7755 1697 41.1947
77.8921 1745 41.7732
78.0088 1604 40.05
78.1256 1528 39.0896
78.2423 1486 38.5487
78.3591 1315 36.2629
78.4759 1248 35.327
78.5928 1289 35.9026
78.7097 1422 37.7094
78.8266 1377 37.108
78.9436 1449 38.0657
79.0606 1524 39.0384
79.1776 1522 39.0128
79.2946 1529 39.1024
79.4117 1562 39.5221
79.5288 1590 39.8748
79.6459 1574 39.6737
79.7631 1549 39.3573
79.8802 1551 39.3827
79.9974 1621 40.2616
80.1147 1560 39.4968
80.2319 1534 39.1663
80.3491 1456 38.1576
80.4664 1517 38.9487
80.5837 1453 38.1182
80.701 1505 38.7943
80.8183 1614 40.1746
80.9357 1618 40.2244
81.053 1683 41.0244
81.1704 1659 40.7308
81.2877 1700 41.2311
81.4051 1668 40.8412
81.5225 1726 41.5452
81.6399 1681 41
81.7573 1643 40.5339
81.8747 1458 38.1838
81.9922 1423 37.7227
82.1096 1282 35.805
82.227 1325 36.4005
82.3444 1339 36.5923
82.4619 1484 38.5227
82.5793 1488 38.5746
82.6967 1496 38.6782
82.8142 1541 39.2556
82.9316 1575 39.6863
83.049 1645 40.5586
83.1664 1566 39.5727
83.2838 1603 40.0375
83.4012 1647 40.5832
83.5186 1646 40.5709
83.636 1609 40.1123
83.7534 1606 40.0749
83.8708 1594 39.9249
83.9881 1506 38.8072
84.1055 1470 38.3406
84.2228 1567 39.5854
84.3401 1598 39.975
84.4575 1540 39.2428
84.5747 1686 41.0609
84.692 1673 40.9023
84.8093 1680 40.9878
84.9265 1753 41.8688
85.0437 1793 42.3438
85.1609 1805 42.4853
85.2781 1628 40.3485
85.3952 1579 39.7366
85.5123 1525 39.0512
85.6294 1368 36.9865
85.7465 1337 36.565
85.8636 1416 37.6298
85.9806 1555 39.4335
86.0976 1599 39.9875
86.2145 1602 40.025
86.3315 1650 40.6202
86.4484 1685 41.0488
86.5652 1670 40.8656
86.682 1669 40.8534
86.7988 1708 41.328
86.9156 1774 42.1189
87.0323 1743 41.7493
87.149 1673 40.9023
87.2657 1688 41.0853
87.3823 1753 41.8688
87.4988 1710 41.3521
87.6154 1663 40.7799
87.7318 1626 40.3237
87.8483 1647 40.5832
87.9647 1746 41.7852
88.081 1780 42.19
88.1973 1681 41
88.3136 1814 42.5911
88.4298 1825 42.72
88.546 1924 43.8634
88.6621 1894 43.5201
88.7781 1871 43.2551
88.8942 0 1
89.0101 0 1
89.126 0 1
89.2419 0 1
89.3577 0 1
89.4734 0 1
89.5891 0 1
89.7047 0 1
89.8203 0 1
89.9358 0 1
92.3269 0 1
92.4424 0 1
92.558 0 1
92.6736 0 1
92.7893 0 1
92.905 0 1
93.0208 0 1
93.1366 0 1
93.2525 0 1
93.3685 0 1
93.4845 0 1
93.6005 1717 41.4367
93.7167 1710 41.3521
93.8328 1703 41.2674
93.949 1708 41.328
94.0653 1757 41.9166
94.1816 1668 40.8412
94.2979 1521 39
94.4143 1459 38.1969
94.5307 1334 36.524
94.6472 1389 37.2693
94.7637 1399 37.4032
94.8803 1429 37.8021
94.9969 1528 39.0896
95.1135 1566 39.5727
95.2302 1538 39.2173
95.3469 1579 39.7366
95.4637 1590 39.8748
95.5805 1647 40.5832
95.6973 1637 40.4599
95.8142 1707 41.3159
95.9311 1697 41.1947
96.048 1619 40.2368
96.1649 1596 39.95
96.2819 1638 40.4722
96.3989 1698 41.2068
96.516 1600 40
96.633 1582 39.7744
96.7501 1604 40.05
96.8673 1576 39.6989
96.9844 1582 39.7744
97.1016 1666 40.8167
97.2188 1668 40.8412
97.336 1775 42.1307
97.4532 1726 41.5452
97.5704 1643 40.5339
97.6877 1725 41.5331
97.805 1661 40.7554
97.9223 1621 40.2616
98.0396 1532 39.1408
98.1569 1466 38.2884
98.2743 1423 37.7227
98.3916 1414 37.6032
98.509 1397 37.3765
98.6264 1492 38.6264
98.7438 1547 39.3319
98.8612 1464 38.2623
98.9786 1588 39.8497
99.096 1531 39.128
99.2134 1586 39.8246
99.3308 1621 40.2616
99.4482 1569 39.6106
99.5656 1514 38.9102
99.6831 1618 40.2244
99.8005 1555 39.4335
99.9179 1515 38.923
100.035 1576 39.6989
100.153 1475 38.4057
100.27 1452 38.1051
100.388 1476 38.4187
100.505 1507 38.8201
100.622 1544 39.2938
100.74 1633 40.4104
100.857 1609 40.1123
100.975 1604 40.05
101.092 1649 40.6079
101.209 1659 40.7308
101.327 1693 41.1461
101.444 1695 41.1704
101.561 1542 39.2683
101.679 1561 39.5095
101.796 1448 38.0526
101.913 1351 36.756
102.03 1378 37.1214
102.148 1391 37.2961
102.265 1409 37.5366
102.382 1754 41.8808
102.499 1578 39.724
102.616 1630 40.3733
102.733 1619 40.2368
102.851 1667 40.8289
102.968 1700 41.2311
103.085 1705 41.2916
103.202 1707 41.3159
103.319 1665 40.8044
103.436 1684 41.0366
103.552 1787 42.2729
103.669 1710 41.3521
103.786 1688 41.0853
103.903 1675 40.9268
104.02 1703 41.2674
104.137 1749 41.821
104.253 1731 41.6053
104.37 1827 42.7434
104.487 1783 42.2256
104.603 1790 42.3084
104.72 1782 42.2137
104.836 1929 43.9204
104.953 1760 41.9524
105.069 1708 41.328
105.186 1599 39.9875
105.302 1531 39.128
105.418 1587 39.8372
105.535 1509 38.8458
105.651 1579 39.7366
105.767 1583 39.7869
105.883 1696 41.1825
105.999 1754 41.8808
106.115 0 1
106.231 0 1
106.347 0 1
106.463 0 1
106.579 0 1
106.694 0 1
106.81 0 1
106.926 0 1
107.041 0 1
107.157 0 1
109.576 0 1
109.692 0 1
109.807 0 1
109.923 0 1
110.039 0 1
110.155 0 1
110.27 0 1
110.386 0 1
110.502 0 1
110.618 1276 35.7211
110.735 1493 38.6394
110.851 1439 37.9342
110.967 1505 38.7943
111.083 1561 39.5095
111.199 1515 38.923
111.316 1561 39.5095
111.432 1502 38.7556
111.549 1573 39.6611
111.665 1549 39.3573
111.782 1545 39.3065
111.898 1507 38.8201
112.015 1492 38.6264
112.132 1438 37.921
112.248 1467 38.3014
112.365 1376 37.0945
112.482 1349 36.7287
112.599 1425 37.7492
112.716 1449 38.0657
112.832 1443 37.9868
112.949 1523 39.0256
113.066 1490 38.6005
113.183 1392 37.3095
113.3 1423 37.7227
113.417 1430 37.8153
113.534 1465 38.2753
113.652 1366 36.9594
113.769 1190 34.4964
113.886 1186 34.4384
114.003 1175 34.2783
114.12 1178 34.322
114.238 1192 34.5254
114.355 1254 35.4119
114.472 1193 34.5398
114.589 1258 35.4683
114.707 1233 35.1141
114.824 1280 35.7771
114.942 1336 36.5513
115.059 1247 35.3129
115.176 1288 35.8887
115.294 1253 35.3977
115.411 1246 35.2987
115.529 1154 33.9706
115.646 1164 34.1174
115.764 1117 33.4215
115.881 1083 32.909
115.999 1079 32.8481
116.116 1097 33.121
116.234 1150 33.9116
116.351 1106 33.2566
116.469 1099 33.1512
116.586 1144 33.8231
116.704 1133 33.6601
116.821 1122 33.4963
116.939 1179 34.3366
117.056 1175 34.2783
117.174 1109 33.3017
117.291 1032 32.1248
117.409 1052 32.4345
117.526 972 31.1769
117.644 959 30.9677
117.761 1048 32.3728
117.879 1054 32.4654
117.996 1099 33.1512
118.114 1068 32.6803
118.231 1103 33.2114
118.349 1135 33.6898
118.466 1093 33.0606
118.584 1051 32.4191
118.701 1145 33.8378
118.819 1140 33.7639
118.936 1089 33
119.053 1028 32.0624
119.171 1152 33.9411
119.288 1098 33.1361
119.405 1083 32.909
119.523 1015 31.8591
119.64 1057 32.5115
119.757 1055 32.4808
119.875 1143 33.8083
119.992 1150 33.9116
120.109 1203 34.6843
120.226 1211 34.7994
120.343 1182 34.3802
120.46 1258 35.4683
120.578 1226 35.0143
120.695 1206 34.7275
120.812 1190 34.4964
120.929 1135 33.6898
121.046 1075 32.7872
121.163 1078 32.8329
121.279 1145 33.8378
121.396 1080 32.8634
121.513 1190 34.4964
121.63 1207 34.7419
121.747 1254 35.4119
121.863 1207 34.7419
121.98 1325 36.4005
122.097 1345 36.6742
122.213 1309 36.1801
122.33 1373 37.054
122.446 1334 36.524
122.563 1332 36.4966
122.679 1347 36.7015
122.795 1261 35.5106
122.912 1346 36.6879
123.028 1247 35.3129
123.144 1248 35.327
123.26 1217 34.8855
123.377 0 1
123.493 0 1
123.609 0 1
123.725 0 1
123.84 0 1
123.956 0 1
124.072 0 1
124.188 0 1
124.303 0 1
124.419 0 1
126.852 0 1
126.968 0 1
127.083 0 1
127.199 0 1
127.315 0 1
127.431 0 1
127.547 0 1
127.663 0 1
127.779 0 1
127.895 0 1
128.011 0 1
128.127 0 1
128.243 0 1
128.359 1531 39.128
128.476 1444 38
128.592 1378 37.1214
128.708 1436 37.8946
128.825 1387 37.2424
128.941 1463 38.2492
129.058 1568 39.598
129.174 1544 39.2938
129.291 1564 39.5474
129.408 1611 40.1373
129.524 1618 40.2244
129.641 1574 39.6737
129.758 1524 39.0384
129.875 1523 39.0256
129.992 1465 38.2753
130.108 1418 37.6563
130.225 1382 37.1753
130.342 1376 37.0945
130.459 1431 37.8286
130.576 1403 37.4566
130.693 1567 39.5854
130.81 1522 39.0128
130.928 1455 38.1445
131.045 1531 39.128
131.162 1515 38.923
131.279 1608 40.0999
131.396 1441 37.9605
131.513 1503 38.7685
131.631 1464 38.2623
131.748 1467 38.3014
131.865 1422 37.7094
131.983 1393 37.3229
132.1 1343 36.647
132.217 1291 35.9305
132.335 1326 36.4143
132.452 1390 37.2827
132.57 1384 37.2022
132.687 1439 37.9342
132.804 1455 38.1445
132.922 1471 38.3536
133.039 1551 39.3827
133.157 1549 39.3573
133.274 1545 39.3065
133.392 1443 37.9868
133.509 1349 36.7287
133.627 1316 36.2767
133.744 1302 36.0832
133.862 1299 36.0416
133.979 1303 36.0971
134.097 1455 38.1445
134.214 1543 39.281
134.332 1483 38.5097
134.449 1508 38.833
134.567 1581 39.7618
134.684 1545 39.3065
134.802 1525 39.0512
134.919 1593 39.9124
135.037 1456 38.1576
135.154 1481 38.4838
135.272 1517 38.9487
135.389 1441 37.9605
135.507 1385 37.2156
135.624 1280 35.7771
135.742 1197 34.5977
135.859 1195 34.5688
135.977 1247 35.3129
136.094 1319 36.318
136.211 1350 36.7423
136.329 1320 36.3318
136.446 1334 36.524
136.564 1273 35.6791
136.681 1350 36.7423
136.798 1351 36.756
136.915 1366 36.9594
137.033 1282 35.805
137.15 1229 35.0571
137.267 1171 34.2199
137.384 1189 34.4819
137.502 1129 33.6006
137.619 1204 34.6987
137.736 1299 36.0416
137.853 1316 36.2767
137.97 1346 36.6879
138.087 1400 37.4166
138.204 1427 37.7757
138.321 1399 37.4032
138.438 1517 38.9487
138.555 1445 38.0132
138.672 1447 38.0395
138.788 1430 37.8153
138.905 1448 38.0526
139.022 1457 38.1707
139.139 1377 37.108
139.255 1391 37.2961
139.372 1363 36.9188
139.488 1343 36.647
139.605 1399 37.4032
139.721 1435 37.8814
139.838 1431 37.8286
139.954 1581 39.7618
140.071 1511 38.8716
140.187 1598 39.975
140.303 1564 39.5474
140.419 1605 40.0625
140.535 1584 39.7995
140.652 1494 38.6523
140.768 0 1
140.884 0 1
141 0 1
141.115 0 1
141.231 0 1
141.347 0 1
141.463 0 1
141.578 0 1
141.694 0 1
144.104 0 1
144.219 0 1
144.335 0 1
144.45 0 1
144.566 0 1
144.682 0 1
144.798 0 1
144.914 0 1
145.03 0 1
145.146 1910 43.7035
145.262 1903 43.6234
145.378 2050 45.2769
145.494 2128 46.1303
145.61 2309 48.0521
145.726 2334 48.3115
145.842 2391 48.8979
145.959 2472 49.7192
146.075 2473 49.7293
146.192 2549 50.4876
146.308 2744 52.3832
146.425 3074 55.4437
146.541 3370 58.0517
146.658 3581 59.8415
146.774 3930 62.6897
146.891 4202 64.8228
147.008 4469 66.8506
147.125 4783 69.1592
147.241 5189 72.0347
147.358 5405 73.5187
147.475 5517 74.2765
147.592 5637 75.08
147.709 5667 75.2795
147.826 5690 75.4321
147.943 5898 76.7984
148.06 5649 75.1598
148.177 5574 74.6592
148.294 5904 76.8375
148.411 6190 78.6766
148.528 6679 81.7251
148.645 6866 82.8613
148.762 7151 84.5636
148.88 7186 84.7703
148.997 7540 86.8332
149.114 6810 82.5227
149.231 7135 84.4689
149.349 6673 81.6884
149.466 6461 80.3803
149.583 6119 78.224
149.701 6000 77.4597
149.818 5772 75.9737
149.935 5897 76.7919
150.053 6238 78.981
150.17 6316 79.4733
150.287 6472 80.4487
150.405 6570 81.0555
150.522 6958 83.4146
150.64 6872 82.8975
150.757 7067 84.0655
150.875 7137 84.4808
150.992 6967 83.4686
151.11 7180 84.7349
151.227 6960 83.4266
151.344 6942 83.3187
151.462 6764 82.2435
151.579 6594 81.2034
151.697 6370 79.8123
151.814 6404 80.025
151.932 6643 81.5046
152.049 6922 83.1986
152.167 7287 85.3639
152.284 7595 87.1493
152.402 7645 87.4357
152.519 7649 87.4586
152.636 7661 87.5271
152.754 7698 87.7382
152.871 7605 87.2067
152.989 7232 85.0412
153.106 6885 82.9759
153.223 6698 81.8413
153.341 6370 79.8123
153.458 6375 79.8436
153.575 6523 80.7651
153.693 6850 82.7647
153.81 7178 84.7231
153.927 7393 85.9826
154.044 7780 88.2043
154.162 7752 88.0454
154.279 7915 88.9663
154.396 8198 90.5428
154.513 8294 91.0714
154.63 8641 92.957
154.747 8463 91.9946
154.864 8402 91.6624
154.981 8432 91.8259
155.098 8290 91.0494
155.215 7944 89.1291
155.332 7976 89.3085
155.449 7852 88.6115
155.566 8049 89.7162
155.683 8536 92.3905
155.8 8632 92.9086
155.917 9229 96.0677
156.033 9296 96.4158
156.15 0 1
156.267 0 1
156.383 0 1
156.5 0 1
156.617 0 1
156.733 0 1
156.85 0 1
156.966 0 1
157.082 0 1
157.199 0 1
157.315 0 1
157.431 0 1
157.547 0 1
157.664 0 1
157.78 0 1
157.896 0 1
158.012 0 1
158.128 0 1
158.244 0 1
158.359 0 1
158.475 0 1
158.591 0 1
158.706 0 1
