
6.15755 0 1
6.2731 0 1
6.3887 0 1
6.50437 0 1
6.62009 0 1
6.73587 0 1
6.8517 0 1
6.96759 0 1
7.08353 0 1
7.19952 0 1
7.31557 0 1
7.43166 0 1
7.54781 0 1
7.664 0 1
7.78024 0 1
7.89653 0 1
8.01286 0 1
8.12924 0 1
8.24567 0 1
8.36213 0 1
8.47864 0 1
8.59519 0 1
8.71178 0 1
8.82841 0 1
8.94508 0 1
9.06179 0 1
9.17853 0 1
9.29531 0 1
9.41212 0 1
9.52897 0 1
9.64584 0 1
9.76276 0 1
9.8797 0 1
9.99667 0 1
10.1137 0 1
10.2307 0 1
10.3478 0 1
10.4648 0 1
10.5819 0 1
10.6991 0 1
10.8162 0 1
10.9334 0 1
11.0506 0 1
11.1678 0 1
11.285 0 1
11.4023 0 1
11.5196 0 1
11.6369 0 1
11.7542 0 1
11.8715 0 1
11.9888 0 1
12.1062 0 1
12.2235 0 1
12.3409 0 1
12.4582 0 1
12.5756 0 1
12.693 0 1
12.8104 0 1
12.9278 0 1
13.0452 0 1
13.1626 0 1
13.28 0 1
13.3974 0 1
13.5149 0 1
13.6323 0 1
13.7497 0 1
13.8671 0 1
13.9845 0 1
14.1019 0 1
14.2193 0 1
14.3367 0 1
14.4541 0 1
14.5714 0 1
14.6888 0 1
14.8062 0 1
14.9235 0 1
15.0408 0 0
15.1581 0 0
15.2755 0 0
15.3927 0 0
15.51 0 0
15.6273 0 0
15.7445 0 0
15.8617 0 0
15.9789 0 0
16.0961 0 0
16.2132 0 0
16.3304 0 0
16.4475 0 0
16.5646 0 0
16.6816 0 0
16.7986 0 0
16.9156 0 0
17.0326 0 0
17.1496 0 0
17.2665 0 0
17.3833 0 0
17.5002 0 0
17.617 0 0
17.7338 0 0
17.8505 0 0
17.9672 0 0
18.0839 0 0
18.2005 0 0
18.3171 0 0
18.4337 0 0
18.5502 0 0
18.6666 0 0
18.7831 0 0
18.8994 0 0
19.0158 0 0
19.1321 0 0
19.2483 0 0
19.3645 0 0
19.4806 0 0
19.5967 0 0
19.7128 0 0
19.8288 0 0
19.9447 0 0
20.0606 0 1
20.1764 0 1
20.2922 0 1
20.4079 0 1
20.5236 0 1
20.6392 0 1
20.7548 0 1
20.8702 0 1
23.3078 0 1
23.4233 0 1
23.539 0 1
23.6547 0 1
23.7704 0 1
23.8862 0 1
24.0021 0 1
24.118 0 1
24.234 0 1
24.35 0 1
24.4661 1516 38.9358
24.5822 1452 38.1051
24.6984 1421 37.6962
24.8146 1439 37.9342
24.9309 1507 38.8201
25.0472 1467 38.3014
25.1636 1460 38.2099
25.28 1520 38.9872
25.3965 1451 38.092
25.513 1438 37.921
25.6296 1555 39.4335
25.7462 1555 39.4335
25.8628 1530 39.1152
25.9795 1642 40.5216
26.0962 1460 38.2099
26.213 1505 38.7943
26.3298 1479 38.4578
26.4466 1494 38.6523
26.5635 1450 38.0789
26.6804 1463 38.2492
26.7973 1452 38.1051
26.9143 1458 38.1838
27.0313 1519 38.9744
27.1483 1547 39.3319
27.2653 1561 39.5095
27.3824 1641 40.5093
27.4996 1659 40.7308
27.6167 1630 40.3733
27.7339 1626 40.3237
27.8511 1597 39.9625
27.9683 1584 39.7995
28.0855 1490 38.6005
28.2028 1589 39.8623
28.3201 1424 37.7359
28.4374 1506 38.8072
28.5547 1468 38.3145
28.6721 1421 37.6962
28.7894 1323 36.3731
28.9068 1413 37.5899
29.0242 1378 37.1214
29.1416 1372 37.0405
29.259 1451 38.092
29.3764 1429 37.8021
29.4939 1349 36.7287
29.6113 1365 36.9459
29.7288 1402 37.4433
29.8463 1400 37.4166
29.9638 1409 37.5366
30.0812 1351 36.756
30.1987 1293 35.9583
30.3162 1328 36.4417
30.4337 1364 36.9324
30.5512 1476 38.4187
30.6687 1540 39.2428
30.7862 1564 39.5474
30.9037 1505 38.7943
31.0212 1577 39.7115
31.1387 1551 39.3827
31.2562 1521 39
31.3737 1562 39.5221
31.4912 1552 39.3954
31.6087 1500 38.7298
31.7262 1459 38.1969
31.8436 1374 37.0675
31.9611 1419 37.6696
32.0785 1316 36.2767
32.1959 1367 36.973
32.3134 1356 36.8239
32.4308 1339 36.5923
32.5482 1280 35.7771
32.6655 1389 37.2693
32.7829 1405 37.4833
32.9002 1361 36.8917
33.0176 1429 37.8021
33.1349 1348 36.7151
33.2522 1399 37.4032
33.3694 1389 37.2693
33.4867 1378 37.1214
33.6039 1450 38.0789
33.7211 1367 36.973
33.8383 1293 35.9583
33.9554 1355 36.8103
34.0725 1285 35.8469
34.1896 1414 37.6032
34.3067 1504 38.7814
34.4237 1414 37.6032
34.5407 1468 38.3145
34.6577 1555 39.4335
34.7746 1533 39.1535
34.8915 1543 39.281
35.0084 1449 38.0657
35.1252 1469 38.3275
35.242 1479 38.4578
35.3587 1416 37.6298
35.4755 1447 38.0395
35.5921 1403 37.4566
35.7088 1362 36.9053
35.8254 1332 36.4966
35.9419 1281 35.7911
36.0584 1311 36.2077
36.1749 1259 35.4824
36.2913 1278 35.7491
36.4077 1245 35.2846
36.524 1288 35.8887
36.6403 1284 35.8329
36.7565 1330 36.4692
36.8727 1343 36.647
36.9889 1342 36.6333
37.1049 1408 37.5233
37.221 0 1
37.3369 0 1
37.4529 0 1
37.5687 0 1
37.6845 0 1
37.8003 0 1
37.916 0 1
38.0316 0 1
38.1472 0 1
40.5851 0 1
40.7008 0 1
40.8164 0 1
40.9322 0 1
41.048 0 1
41.1639 0 1
41.2798 0 1
41.3958 0 1
41.5118 0 1
41.6279 0 1
41.744 997 31.5753
41.8602 982 31.3369
41.9765 993 31.5119
42.0928 1095 33.0908
42.2091 1066 32.6497
42.3255 1211 34.7994
42.4419 1027 32.0468
42.5584 996 31.5595
42.675 982 31.3369
42.7915 983 31.3528
42.9081 1123 33.5112
43.0248 1060 32.5576
43.1415 1117 33.4215
43.2582 1179 34.3366
43.375 1188 34.4674
43.4918 1141 33.7787
43.6087 1112 33.3467
43.7256 1161 34.0735
43.8425 1136 33.7046
43.9595 1095 33.0908
44.0765 1017 31.8904
44.1935 1034 32.1559
44.3106 975 31.225
44.4277 970 31.1448
44.5448 912 30.1993
44.6619 796 28.2135
44.7791 835 28.8964
44.8963 762 27.6043
45.0136 819 28.6182
45.1308 801 28.3019
45.2481 770 27.7489
45.3654 755 27.4773
45.4827 803 28.3373
45.6001 840 28.9828
45.7174 822 28.6705
45.8348 864 29.3939
45.9522 874 29.5635
46.0697 828 28.775
46.1871 711 26.6646
46.3046 717 26.7769
46.422 775 27.8388
46.5395 816 28.5657
46.657 802 28.3196
46.7745 840 28.9828
46.892 811 28.4781
47.0096 834 28.8791
47.1271 786 28.0357
47.2446 856 29.2575
47.3622 773 27.8029
47.4797 794 28.178
47.5973 807 28.4077
47.7149 700 26.4575
47.8324 706 26.5707
47.95 735 27.1109
48.0675 659 25.671
48.1851 604 24.5764
48.3027 587 24.2281
48.4202 539 23.2164
48.5378 565 23.7697
48.6554 532 23.0651
48.7729 604 24.5764
48.8904 570 23.8747
49.008 596 24.4131
49.1255 629 25.0799
49.243 650 25.4951
49.3605 663 25.7488
49.478 592 24.3311
49.5955 617 24.8395
49.713 650 25.4951
49.8304 626 25.02
49.9479 614 24.779
50.0653 606 24.6171
50.1827 748 27.3496
50.3001 755 27.4773
50.4175 756 27.4955
50.5348 772 27.7849
50.6521 772 27.7849
50.7694 798 28.2489
50.8867 819 28.6182
51.004 795 28.1957
51.1212 884 29.7321
51.2384 837 28.931
51.3556 885 29.7489
51.4727 855 29.2404
51.5899 815 28.5482
51.707 793 28.1603
51.824 713 26.7021
51.9411 756 27.4955
52.0581 760 27.5681
52.175 761 27.5862
52.2919 795 28.1957
52.4088 824 28.7054
52.5257 947 30.7734
52.6425 946 30.7571
52.7593 1010 31.7805
52.876 999 31.607
52.9927 1062 32.5883
53.1094 1006 31.7175
53.226 1018 31.9061
53.3426 959 30.9677
53.4591 1062 32.5883
53.5756 1073 32.7567
53.692 1079 32.8481
53.8084 1198 34.6121
53.9248 1241 35.2278
54.0411 1287 35.8748
54.1573 1359 36.8646
54.2735 0 1
54.3896 0 1
54.5057 0 1
54.6217 0 1
54.7377 0 1
54.8537 0 1
54.9695 0 1
55.0853 0 1
55.2011 0 1
55.3168 0 1
55.4324 0 1
57.824 0 1
57.9396 0 1
58.0553 0 1
58.1711 0 1
58.2869 0 1
58.4028 0 1
58.5187 0 1
58.6347 0 1
58.7508 0 1
58.8669 0 1
58.983 1320 36.3318
59.0992 1467 38.3014
59.2155 1479 38.4578
59.3318 1480 38.4708
59.4482 1567 39.5854
59.5646 1532 39.1408
59.681 1592 39.8999
59.7975 1430 37.8153
59.9141 1435 37.8814
60.0306 1421 37.6962
60.1473 1285 35.8469
60.2639 1188 34.4674
60.3807 1088 32.9848
60.4974 1011 31.7962
60.6142 935 30.5778
60.731 1023 31.9844
60.8479 1021 31.9531
60.9648 1054 32.4654
61.0818 1198 34.6121
61.1987 1240 35.2136
61.3158 1168 34.176
61.4328 1249 35.3412
61.5499 1172 34.2345
61.667 1220 34.9285
61.7841 1236 35.1568
61.9013 1183 34.3948
62.0185 1154 33.9706
62.1357 1270 35.6371
62.253 1252 35.3836
62.3702 1296 36
62.4875 1348 36.7151
62.6049 1303 36.0971
62.7222 1466 38.2884
62.8396 1486 38.5487
62.9569 1476 38.4187
63.0743 1506 38.8072
63.1918 1445 38.0132
63.3092 1387 37.2424
63.4267 1342 36.6333
63.5441 1293 35.9583
63.6616 1256 35.4401
63.7791 1135 33.6898
63.8966 1067 32.665
64.0142 1076 32.8024
64.1317 969 31.1288
64.2492 1084 32.9242
64.3668 1052 32.4345
64.4843 1080 32.8634
64.6019 1166 34.1467
64.7195 1249 35.3412
64.837 1350 36.7423
64.9546 1231 35.0856
65.0722 1308 36.1663
65.1898 1239 35.1994
65.3074 1281 35.7911
65.4249 1158 34.0294
65.5425 1136 33.7046
65.6601 1194 34.5543
65.7777 1206 34.7275
65.8952 1244 35.2704
66.0128 1339 36.5923
66.1304 1355 36.8103
66.2479 1394 37.3363
66.3655 1371 37.027
66.483 1430 37.8153
66.6005 1459 38.1969
66.718 1464 38.2623
66.8355 1376 37.0945
66.953 1396 37.3631
67.0705 1314 36.2491
67.1879 1220 34.9285
67.3054 1187 34.4529
67.4228 1047 32.3574
67.5402 997 31.5753
67.6576 988 31.4325
67.7749 895 29.9166
67.8923 976 31.241
68.0096 955 30.9031
68.1269 1053 32.45
68.2442 1085 32.9393
68.3614 1145 33.8378
68.4787 1180 34.3511
68.5958 1163 34.1028
68.713 1163 34.1028
68.8302 1170 34.2053
68.9473 1110 33.3167
69.0643 1068 32.6803
69.1814 1131 33.6303
69.2984 1188 34.4674
69.4154 1176 34.2929
69.5323 1183 34.3948
69.6492 1334 36.524
69.7661 1349 36.7287
69.8829 1424 37.7359
69.9997 1437 37.9078
70.1165 1455 38.1445
70.2332 1435 37.8814
70.3499 1498 38.704
70.4665 1470 38.3406
70.5831 1410 37.55
70.6996 1299 36.0416
70.8161 1164 34.1174
70.9326 1147 33.8674
71.049 1070 32.7109
71.1653 960 30.9839
71.2817 895 29.9166
71.3979 882 29.6985
71.5141 940 30.6594
71.6303 887 29.7825
71.7464 859 29.3087
71.8624 0 1
71.9784 0 1
72.0944 0 1
72.2102 0 1
72.3261 0 1
72.4418 0 1
72.5575 0 1
72.6732 0 1
75.1054 0 1
75.2209 0 1
75.3365 0 1
75.4521 0 1
75.5678 0 1
75.6835 0 1
75.7993 0 1
75.9151 0 1
76.031 0 1
76.147 1134 33.6749
76.263 1196 34.5832
76.3791 1063 32.6037
76.4952 1035 32.1714
76.6113 932 30.5287
76.7276 909 30.1496
76.8438 904 30.0666
76.9601 1007 31.7333
77.0765 1072 32.7414
77.1929 1111 33.3317
77.3093 1284 35.8329
77.4258 1253 35.3977
77.5423 1332 36.4966
77.6589 1257 35.4542
77.7755 1269 35.623
77.8921 1211 34.7994
78.0088 1118 33.4365
78.1256 1170 34.2053
78.2423 1125 33.541
78.3591 1151 33.9264
78.4759 1285 35.8469
78.5928 1286 35.8608
78.7097 1335 36.5377
78.8266 1287 35.8748
78.9436 1427 37.7757
79.0606 1441 37.9605
79.1776 1456 38.1576
79.2946 1443 37.9868
79.4117 1432 37.8418
79.5288 1415 37.6165
79.6459 1388 37.2559
79.7631 1273 35.6791
79.8802 1148 33.8821
79.9974 1065 32.6343
80.1147 906 30.0998
80.2319 855 29.2404
80.3491 863 29.3769
80.4664 834 28.8791
80.5837 883 29.7153
80.701 976 31.241
80.8183 983 31.3528
80.9357 1087 32.9697
81.053 1214 34.8425
81.1704 1161 34.0735
81.2877 1137 33.7194
81.4051 1155 33.9853
81.5225 1090 33.0151
81.6399 1032 32.1248
81.7573 1001 31.6386
81.8747 964 31.0483
81.9922 1018 31.9061
82.1096 1003 31.6702
82.227 1028 32.0624
82.3444 1118 33.4365
82.4619 1158 34.0294
82.5793 1226 35.0143
82.6967 1220 34.9285
82.8142 1280 35.7771
82.9316 1244 35.2704
83.049 1235 35.1426
83.1664 1145 33.8378
83.2838 1137 33.7194
83.4012 1014 31.8434
83.5186 885 29.7489
83.636 893 29.8831
83.7534 783 27.9821
83.8708 731 27.037
83.9881 713 26.7021
84.1055 759 27.55
84.2228 727 26.9629
84.3401 792 28.1425
84.4575 891 29.8496
84.5747 963 31.0322
84.692 1008 31.749
84.8093 1010 31.7805
84.9265 964 31.0483
85.0437 900 30
85.1609 1002 31.6544
85.2781 986 31.4006
85.3952 910 30.1662
85.5123 936 30.5941
85.6294 1011 31.7962
85.7465 1028 32.0624
85.8636 1137 33.7194
85.9806 1162 34.0881
86.0976 1265 35.5668
86.2145 1213 34.8281
86.3315 1307 36.1525
86.4484 1354 36.7967
86.5652 1360 36.8782
86.682 1405 37.4833
86.7988 1294 35.9722
86.9156 1268 35.609
87.0323 1205 34.7131
87.149 1104 33.2265
87.2657 969 31.1288
87.3823 903 30.05
87.4988 847 29.1033
87.6154 852 29.189
87.7318 900 30
87.8483 964 31.0483
87.9647 1080 32.8634
88.081 1148 33.8821
88.1973 1284 35.8329
88.3136 1347 36.7015
88.4298 1272 35.6651
88.546 1295 35.9861
88.6621 1220 34.9285
88.7781 1157 34.0147
88.8942 0 1
89.0101 0 1
89.126 0 1
89.2419 0 1
89.3577 0 1
89.4734 0 1
89.5891 0 1
89.7047 0 1
89.8203 0 1
89.9358 0 1
92.3269 0 1
92.4424 0 1
92.558 0 1
92.6736 0 1
92.7893 0 1
92.905 0 1
93.0208 0 1
93.1366 0 1
93.2525 0 1
93.3685 0 1
93.4845 0 1
93.6005 1143 33.8083
93.7167 1255 35.426
93.8328 1301 36.0694
93.949 1294 35.9722
94.0653 1213 34.8281
94.1816 1186 34.4384
94.2979 1184 34.4093
94.4143 1149 33.8969
94.5307 1109 33.3017
94.6472 1171 34.2199
94.7637 1154 33.9706
94.8803 1325 36.4005
94.9969 1264 35.5528
95.1135 1474 38.3927
95.2302 1468 38.3145
95.3469 1431 37.8286
95.4637 1455 38.1445
95.5805 1567 39.5854
95.6973 1425 37.7492
95.8142 1489 38.5876
95.9311 1447 38.0395
96.048 1306 36.1386
96.1649 1273 35.6791
96.2819 1216 34.8712
96.3989 1116 33.4066
96.516 1035 32.1714
96.633 929 30.4795
96.7501 920 30.3315
96.8673 919 30.315
96.9844 1039 32.2335
97.1016 1109 33.3017
97.2188 1158 34.0294
97.336 1273 35.6791
97.4532 1331 36.4829
97.5704 1351 36.756
97.6877 1328 36.4417
97.805 1174 34.2637
97.9223 1169 34.1906
98.0396 1134 33.6749
98.1569 1195 34.5688
98.2743 1100 33.1662
98.3916 1195 34.5688
98.509 1261 35.5106
98.6264 1264 35.5528
98.7438 1369 37
98.8612 1480 38.4708
98.9786 1460 38.2099
99.096 1600 40
99.2134 1566 39.5727
99.3308 1566 39.5727
99.4482 1520 38.9872
99.5656 1358 36.8511
99.6831 1298 36.0278
99.8005 1335 36.5377
99.9179 1276 35.7211
100.035 1128 33.5857
100.153 1051 32.4191
100.27 927 30.4467
100.388 965 31.0644
100.505 1006 31.7175
100.622 1065 32.6343
100.74 1181 34.3657
100.857 1215 34.8569
100.975 1223 34.9714
101.092 1260 35.4965
101.209 1232 35.0999
101.327 1292 35.9444
101.444 1211 34.7994
101.561 1184 34.4093
101.679 1222 34.9571
101.796 1169 34.1906
101.913 1230 35.0714
102.03 1253 35.3977
102.148 1274 35.6931
102.265 1410 37.55
102.382 1632 40.398
102.499 1522 39.0128
102.616 1603 40.0375
102.733 1540 39.2428
102.851 1713 41.3884
102.968 1543 39.281
103.085 1510 38.8587
103.202 1477 38.4318
103.319 1416 37.6298
103.436 1245 35.2846
103.552 1188 34.4674
103.669 1079 32.8481
103.786 1078 32.8329
103.903 1064 32.619
104.02 1070 32.7109
104.137 1174 34.2637
104.253 1261 35.5106
104.37 1367 36.973
104.487 1381 37.1618
104.603 1350 36.7423
104.72 1275 35.7071
104.836 1374 37.0675
104.953 1334 36.524
105.069 1304 36.1109
105.186 1284 35.8329
105.302 1353 36.7831
105.418 1354 36.7967
105.535 1421 37.6962
105.651 1523 39.0256
105.767 1618 40.2244
105.883 1689 41.0974
105.999 1691 41.1218
106.115 0 1
106.231 0 1
106.347 0 1
106.463 0 1
106.579 0 1
106.694 0 1
106.81 0 1
106.926 0 1
107.041 0 1
107.157 0 1
109.576 0 1
109.692 0 1
109.807 0 1
109.923 0 1
110.039 0 1
110.155 0 1
110.27 0 1
110.386 0 1
110.502 0 1
110.618 1336 36.5513
110.735 1421 37.6962
110.851 1520 38.9872
110.967 1648 40.5956
111.083 1639 40.4846
111.199 1597 39.9625
111.316 1670 40.8656
111.432 1696 41.1825
111.549 1658 40.7185
111.665 1590 39.8748
111.782 1527 39.0768
111.898 1453 38.1182
112.015 1266 35.5809
112.132 1239 35.1994
112.248 1107 33.2716
112.365 1046 32.3419
112.482 1040 32.249
112.599 1126 33.5559
112.716 1233 35.1141
112.832 1237 35.171
112.949 1342 36.6333
113.066 1347 36.7015
113.183 1246 35.2987
113.3 1201 34.6554
113.417 1202 34.6699
113.534 1225 35
113.652 1188 34.4674
113.769 1207 34.7419
113.886 1268 35.609
114.003 1257 35.4542
114.12 1326 36.4143
114.238 1410 37.55
114.355 1522 39.0128
114.472 1524 39.0384
114.589 1593 39.9124
114.707 1541 39.2556
114.824 1537 39.2046
114.942 1652 40.6448
115.059 1572 39.6485
115.176 1559 39.4842
115.294 1496 38.6782
115.411 1472 38.3667
115.529 1405 37.4833
115.646 1352 36.7696
115.764 1192 34.5254
115.881 1099 33.1512
115.999 1074 32.7719
116.116 1127 33.5708
116.234 1154 33.9706
116.351 1227 35.0286
116.469 1286 35.8608
116.586 1373 37.054
116.704 1331 36.4829
116.821 1379 37.1349
116.939 1212 34.8138
117.056 1272 35.6651
117.174 1252 35.3836
117.291 1356 36.8239
117.409 1266 35.5809
117.526 1326 36.4143
117.644 1368 36.9865
117.761 1470 38.3406
117.879 1557 39.4588
117.996 1639 40.4846
118.114 1594 39.9249
118.231 1605 40.0625
118.349 1626 40.3237
118.466 1715 41.4126
118.584 1706 41.3038
118.701 1667 40.8289
118.819 1609 40.1123
118.936 1588 39.8497
119.053 1577 39.7115
119.171 1407 37.51
119.288 1342 36.6333
119.405 1193 34.5398
119.523 1131 33.6303
119.64 1132 33.6452
119.757 1208 34.7563
119.875 1245 35.2846
119.992 1339 36.5923
120.109 1273 35.6791
120.226 1320 36.3318
120.343 1300 36.0555
120.46 1285 35.8469
120.578 1355 36.8103
120.695 1301 36.0694
120.812 1275 35.7071
120.929 1304 36.1109
121.046 1344 36.6606
121.163 1368 36.9865
121.279 1420 37.6829
121.396 1498 38.704
121.513 1565 39.5601
121.63 1622 40.2741
121.747 1584 39.7995
121.863 1730 41.5933
121.98 1685 41.0488
122.097 1709 41.3401
122.213 1690 41.1096
122.33 1694 41.1582
122.446 1648 40.5956
122.563 1499 38.7169
122.679 1464 38.2623
122.795 1513 38.8973
122.912 1375 37.081
123.028 1299 36.0416
123.144 1168 34.176
123.26 1162 34.0881
123.377 0 1
123.493 0 1
123.609 0 1
123.725 0 1
123.84 0 1
123.956 0 1
124.072 0 1
124.188 0 1
124.303 0 1
124.419 0 1
126.852 0 1
126.968 0 1
127.083 0 1
127.199 0 1
127.315 0 1
127.431 0 1
127.547 0 1
127.663 0 1
127.779 0 1
127.895 0 1
128.011 0 1
128.127 0 1
128.243 0 1
128.359 1422 37.7094
128.476 1247 35.3129
128.592 1327 36.428
128.708 1292 35.9444
128.825 1426 37.7624
128.941 1420 37.6829
129.058 1422 37.7094
129.174 1462 38.2361
129.291 1404 37.47
129.408 1372 37.0405
129.524 1397 37.3765
129.641 1384 37.2022
129.758 1469 38.3275
129.875 1307 36.1525
129.992 1483 38.5097
130.108 1572 39.6485
130.225 1657 40.7063
130.342 1666 40.8167
130.459 1683 41.0244
130.576 1739 41.7013
130.693 1750 41.833
130.81 1830 42.7785
130.928 1806 42.4971
131.045 1757 41.9166
131.162 1756 41.9047
131.279 1691 41.1218
131.396 1697 41.1947
131.513 1759 41.9404
131.631 1585 39.8121
131.748 1577 39.7115
131.865 1477 38.4318
131.983 1411 37.5633
132.1 1311 36.2077
132.217 1402 37.4433
132.335 1416 37.6298
132.452 1464 38.2623
132.57 1453 38.1182
132.687 1378 37.1214
132.804 1464 38.2623
132.922 1465 38.2753
133.039 1474 38.3927
133.157 1435 37.8814
133.274 1337 36.565
133.392 1421 37.6962
133.509 1481 38.4838
133.627 1497 38.6911
133.744 1565 39.5601
133.862 1557 39.4588
133.979 1676 40.939
134.097 1631 40.3856
134.214 1670 40.8656
134.332 1709 41.3401
134.449 1745 41.7732
134.567 1833 42.8135
134.684 1679 40.9756
134.802 1674 40.9145
134.919 1740 41.7133
135.037 1705 41.2916
135.154 1637 40.4599
135.272 1564 39.5474
135.389 1587 39.8372
135.507 1367 36.973
135.624 1278 35.7491
135.742 1399 37.4032
135.859 1357 36.8375
135.977 1452 38.1051
136.094 1504 38.7814
136.211 1462 38.2361
136.329 1487 38.5616
136.446 1519 38.9744
136.564 1482 38.4968
136.681 1458 38.1838
136.798 1482 38.4968
136.915 1462 38.2361
137.033 1453 38.1182
137.15 1462 38.2361
137.267 1550 39.37
137.384 1501 38.7427
137.502 1615 40.1871
137.619 1610 40.1248
137.736 1637 40.4599
137.853 1596 39.95
137.97 1646 40.5709
138.087 1632 40.398
138.204 1600 40
138.321 1792 42.332
138.438 1737 41.6773
138.555 1675 40.9268
138.672 1661 40.7554
138.788 1713 41.3884
138.905 1563 39.5348
139.022 1512 38.8844
139.139 1506 38.8072
139.255 1338 36.5787
139.372 1386 37.229
139.488 1423 37.7227
139.605 1512 38.8844
139.721 1451 38.092
139.838 1528 39.0896
139.954 1521 39
140.071 1437 37.9078
140.187 1540 39.2428
140.303 1379 37.1349
140.419 1444 38
140.535 1341 36.6197
140.652 1429 37.8021
140.768 0 1
140.884 0 1
141 0 1
141.115 0 1
141.231 0 1
141.347 0 1
141.463 0 1
141.578 0 1
141.694 0 1
144.104 0 1
144.219 0 1
144.335 0 1
144.45 0 1
144.566 0 1
144.682 0 1
144.798 0 1
144.914 0 1
145.03 0 1
145.146 1087 32.9697
145.262 1194 34.5543
145.378 1115 33.3916
145.494 1184 34.4093
145.61 1156 34
145.726 1141 33.7787
145.842 1127 33.5708
145.959 1193 34.5398
146.075 1197 34.5977
146.192 1212 34.8138
146.308 1260 35.4965
146.425 1290 35.9166
146.541 1328 36.4417
146.658 1293 35.9583
146.774 1329 36.4555
146.891 1337 36.565
147.008 1264 35.5528
147.125 1353 36.7831
147.241 1287 35.8748
147.358 1383 37.1887
147.475 1407 37.51
147.592 1453 38.1182
147.709 1327 36.428
147.826 1294 35.9722
147.943 1338 36.5787
148.06 1233 35.1141
148.177 1160 34.0588
148.294 1105 33.2415
148.411 1193 34.5398
148.528 1228 35.0428
148.645 1311 36.2077
148.762 1282 35.805
148.88 1297 36.0139
148.997 1205 34.7131
149.114 1300 36.0555
149.231 1224 34.9857
149.349 1150 33.9116
149.466 1184 34.4093
149.583 1288 35.8887
149.701 1203 34.6843
149.818 1237 35.171
149.935 1286 35.8608
150.053 1282 35.805
150.17 1315 36.2629
150.287 1342 36.6333
150.405 1343 36.647
150.522 1374 37.0675
150.64 1377 37.108
150.757 1428 37.7889
150.875 1374 37.0675
150.992 1354 36.7967
151.11 1470 38.3406
151.227 1460 38.2099
151.344 1424 37.7359
151.462 1393 37.3229
151.579 1349 36.7287
151.697 1256 35.4401
151.814 1200 34.641
151.932 1208 34.7563
152.049 1219 34.9142
152.167 1273 35.6791
152.284 1372 37.0405
152.402 1303 36.0971
152.519 1325 36.4005
152.636 1334 36.524
152.754 1271 35.6511
152.871 1273 35.6791
152.989 1326 36.4143
153.106 1310 36.1939
153.223 1349 36.7287
153.341 1297 36.0139
153.458 1348 36.7151
153.575 1328 36.4417
153.693 1420 37.6829
153.81 1336 36.5513
153.927 1421 37.6962
154.044 1468 38.3145
154.162 1476 38.4187
154.279 1422 37.7094
154.396 1429 37.8021
154.513 1522 39.0128
154.63 1600 40
154.747 1510 38.8587
154.864 1522 39.0128
154.981 1561 39.5095
155.098 1456 38.1576
155.215 1469 38.3275
155.332 1366 36.9594
155.449 1354 36.7967
155.566 1364 36.9324
155.683 1377 37.108
155.8 1425 37.7492
155.917 1480 38.4708
156.033 1404 37.47
156.15 0 1
156.267 0 1
156.383 0 1
156.5 0 1
156.617 0 1
156.733 0 1
156.85 0 1
156.966 0 1
157.082 0 1
157.199 0 1
157.315 0 1
157.431 0 1
157.547 0 1
157.664 0 1
157.78 0 1
157.896 0 1
158.012 0 1
158.128 0 1
158.244 0 1
158.359 0 1
158.475 0 1
158.591 0 1
158.706 0 1
