
6.15755 0 1
6.2731 0 1
6.3887 0 1
6.50437 0 1
6.62009 0 1
6.73587 0 1
6.8517 0 1
6.96759 0 1
7.08353 0 1
7.19952 0 1
7.31557 0 1
7.43166 0 1
7.54781 0 1
7.664 0 1
7.78024 0 1
7.89653 0 1
8.01286 0 1
8.12924 0 1
8.24567 0 1
8.36213 0 1
8.47864 0 1
8.59519 0 1
8.71178 0 1
8.82841 0 1
8.94508 0 1
9.06179 0 1
9.17853 0 1
9.29531 0 1
9.41212 0 1
9.52897 0 1
9.64584 0 1
9.76276 0 1
9.8797 0 1
9.99667 0 1
10.1137 0 1
10.2307 0 1
10.3478 0 1
10.4648 0 1
10.5819 0 1
10.6991 0 1
10.8162 0 1
10.9334 0 1
11.0506 0 1
11.1678 0 1
11.285 0 1
11.4023 0 1
11.5196 0 1
11.6369 0 1
11.7542 0 1
11.8715 0 1
11.9888 0 1
12.1062 0 1
12.2235 0 1
12.3409 0 1
12.4582 0 1
12.5756 0 1
12.693 0 1
12.8104 0 1
12.9278 0 1
13.0452 0 1
13.1626 0 1
13.28 0 1
13.3974 0 1
13.5149 0 1
13.6323 0 1
13.7497 0 1
13.8671 0 1
13.9845 0 1
14.1019 0 1
14.2193 0 1
14.3367 0 1
14.4541 0 1
14.5714 0 1
14.6888 0 1
14.8062 0 1
14.9235 0 1
15.0408 1325 36.4005
15.1581 1356 36.8239
15.2755 1450 38.0789
15.3927 1413 37.5899
15.51 1466 38.2884
15.6273 1397 37.3765
15.7445 1433 37.855
15.8617 1446 38.0263
15.9789 1406 37.4967
16.0961 1335 36.5377
16.2132 1357 36.8375
16.3304 1446 38.0263
16.4475 1469 38.3275
16.5646 1503 38.7685
16.6816 1524 39.0384
16.7986 1657 40.7063
16.9156 1720 41.4729
17.0326 1636 40.4475
17.1496 1769 42.0595
17.2665 1734 41.6413
17.3833 1624 40.2989
17.5002 1583 39.7869
17.617 1592 39.8999
17.7338 1462 38.2361
17.8505 1471 38.3536
17.9672 1456 38.1576
18.0839 1476 38.4187
18.2005 1466 38.2884
18.3171 1534 39.1663
18.4337 1532 39.1408
18.5502 1554 39.4208
18.6666 1591 39.8873
18.7831 1701 41.2432
18.8994 1671 40.8779
19.0158 1729 41.5812
19.1321 1572 39.6485
19.2483 1533 39.1535
19.3645 1450 38.0789
19.4806 1381 37.1618
19.5967 1281 35.7911
19.7128 1194 34.5543
19.8288 1164 34.1174
19.9447 1018 31.9061
20.0606 0 1
20.1764 0 1
20.2922 0 1
20.4079 0 1
20.5236 0 1
20.6392 0 1
20.7548 0 1
20.8702 0 1
23.3078 0 1
23.4233 0 1
23.539 0 1
23.6547 0 1
23.7704 0 1
23.8862 0 1
24.0021 0 1
24.118 0 1
24.234 0 1
24.35 0 1
24.4661 675 25.9808
24.5822 793 28.1603
24.6984 895 29.9166
24.8146 992 31.496
24.9309 1037 32.2025
25.0472 1193 34.5398
25.1636 1294 35.9722
25.28 1422 37.7094
25.3965 1537 39.2046
25.513 1601 40.0125
25.6296 1686 41.0609
25.7462 1733 41.6293
25.8628 1770 42.0714
25.9795 1827 42.7434
26.0962 1838 42.8719
26.213 1735 41.6533
26.3298 1639 40.4846
26.4466 1577 39.7115
26.5635 1512 38.8844
26.6804 1497 38.6911
26.7973 1614 40.1746
26.9143 1596 39.95
27.0313 1622 40.2741
27.1483 1597 39.9625
27.2653 1658 40.7185
27.3824 1705 41.2916
27.4996 1780 42.19
27.6167 1747 41.7971
27.7339 1678 40.9634
27.8511 1603 40.0375
27.9683 1520 38.9872
28.0855 1517 38.9487
28.2028 1500 38.7298
28.3201 1419 37.6696
28.4374 1407 37.51
28.5547 1452 38.1051
28.6721 1458 38.1838
28.7894 1559 39.4842
28.9068 1644 40.5463
29.0242 1695 41.1704
29.1416 1728 41.5692
29.259 1636 40.4475
29.3764 1672 40.8901
29.4939 1733 41.6293
29.6113 1718 41.4488
29.7288 1632 40.398
29.8463 1584 39.7995
29.9638 1513 38.8973
30.0812 1411 37.5633
30.1987 1464 38.2623
30.3162 1562 39.5221
30.4337 1481 38.4838
30.5512 1584 39.7995
30.6687 1597 39.9625
30.7862 1597 39.9625
30.9037 1606 40.0749
31.0212 1637 40.4599
31.1387 1668 40.8412
31.2562 1578 39.724
31.3737 1630 40.3733
31.4912 1593 39.9124
31.6087 1520 38.9872
31.7262 1497 38.6911
31.8436 1462 38.2361
31.9611 1380 37.1484
32.0785 1362 36.9053
32.1959 1398 37.3898
32.3134 1477 38.4318
32.4308 1585 39.8121
32.5482 1630 40.3733
32.6655 1687 41.0731
32.7829 1677 40.9512
32.9002 1685 41.0488
33.0176 1692 41.1339
33.1349 1703 41.2674
33.2522 1600 40
33.3694 1622 40.2741
33.4867 1495 38.6652
33.6039 1428 37.7889
33.7211 1336 36.5513
33.8383 1356 36.8239
33.9554 1398 37.3898
34.0725 1456 38.1576
34.1896 1484 38.5227
34.3067 1530 39.1152
34.4237 1534 39.1663
34.5407 1646 40.5709
34.6577 1603 40.0375
34.7746 1632 40.398
34.8915 1584 39.7995
35.0084 1531 39.128
35.1252 1577 39.7115
35.242 1462 38.2361
35.3587 1455 38.1445
35.4755 1354 36.7967
35.5921 1306 36.1386
35.7088 1345 36.6742
35.8254 1312 36.2215
35.9419 1338 36.5787
36.0584 1407 37.51
36.1749 1498 38.704
36.2913 1496 38.6782
36.4077 1450 38.0789
36.524 1438 37.921
36.6403 1423 37.7227
36.7565 1341 36.6197
36.8727 1287 35.8748
36.9889 1197 34.5977
37.1049 1062 32.5883
37.221 0 1
37.3369 0 1
37.4529 0 1
37.5687 0 1
37.6845 0 1
37.8003 0 1
37.916 0 1
38.0316 0 1
38.1472 0 1
40.5851 0 1
40.7008 0 1
40.8164 0 1
40.9322 0 1
41.048 0 1
41.1639 0 1
41.2798 0 1
41.3958 0 1
41.5118 0 1
41.6279 0 1
41.744 712 26.6833
41.8602 810 28.4605
41.9765 939 30.6431
42.0928 984 31.3688
42.2091 922 30.3645
42.3255 938 30.6268
42.4419 890 29.8329
42.5584 901 30.0167
42.675 967 31.0966
42.7915 1112 33.3467
42.9081 1259 35.4824
43.0248 1220 34.9285
43.1415 1250 35.3553
43.2582 1240 35.2136
43.375 1277 35.7351
43.4918 1301 36.0694
43.6087 1333 36.5103
43.7256 1281 35.7911
43.8425 1261 35.5106
43.9595 1236 35.1568
44.0765 1230 35.0714
44.1935 1212 34.8138
44.3106 1155 33.9853
44.4277 1101 33.1813
44.5448 992 31.496
44.6619 1078 32.8329
44.7791 1121 33.4813
44.8963 1134 33.6749
45.0136 1267 35.5949
45.1308 1262 35.5246
45.2481 1263 35.5387
45.3654 1350 36.7423
45.4827 1362 36.9053
45.6001 1376 37.0945
45.7174 1300 36.0555
45.8348 1142 33.7935
45.9522 1174 34.2637
46.0697 1055 32.4808
46.1871 989 31.4484
46.3046 1078 32.8329
46.422 1139 33.7491
46.5395 1184 34.4093
46.657 1249 35.3412
46.7745 1313 36.2353
46.892 1191 34.5109
47.0096 1365 36.9459
47.1271 1367 36.973
47.2446 1333 36.5103
47.3622 1304 36.1109
47.4797 1214 34.8425
47.5973 1271 35.6511
47.7149 1203 34.6843
47.8324 1151 33.9264
47.95 1179 34.3366
48.0675 1092 33.0454
48.1851 1076 32.8024
48.3027 1159 34.0441
48.4202 1170 34.2053
48.5378 1226 35.0143
48.6554 1379 37.1349
48.7729 1412 37.5766
48.8904 1352 36.7696
49.008 1350 36.7423
49.1255 1374 37.0675
49.243 1203 34.6843
49.3605 1237 35.171
49.478 1100 33.1662
49.5955 1088 32.9848
49.713 1010 31.7805
49.8304 1123 33.5112
49.9479 1192 34.5254
50.0653 1246 35.2987
50.1827 1243 35.2562
50.3001 1274 35.6931
50.4175 1334 36.524
50.5348 1340 36.606
50.6521 1307 36.1525
50.7694 1347 36.7015
50.8867 1373 37.054
51.004 1348 36.7151
51.1212 1337 36.565
51.2384 1275 35.7071
51.3556 1268 35.609
51.4727 1234 35.1283
51.5899 1214 34.8425
51.707 1178 34.322
51.824 1233 35.1141
51.9411 1388 37.2559
52.0581 1505 38.7943
52.175 1660 40.7431
52.2919 1662 40.7676
52.4088 1691 41.1218
52.5257 1784 42.2374
52.6425 1779 42.1782
52.7593 1808 42.5206
52.876 1805 42.4853
52.9927 1675 40.9268
53.1094 1657 40.7063
53.226 1630 40.3733
53.3426 1500 38.7298
53.4591 1501 38.7427
53.5756 1546 39.3192
53.692 1571 39.6358
53.8084 1555 39.4335
53.9248 1544 39.2938
54.0411 1513 38.8973
54.1573 1398 37.3898
54.2735 0 1
54.3896 0 1
54.5057 0 1
54.6217 0 1
54.7377 0 1
54.8537 0 1
54.9695 0 1
55.0853 0 1
55.2011 0 1
55.3168 0 1
55.4324 0 1
57.824 0 1
57.9396 0 1
58.0553 0 1
58.1711 0 1
58.2869 0 1
58.4028 0 1
58.5187 0 1
58.6347 0 1
58.7508 0 1
58.8669 0 1
58.983 1138 33.7343
59.0992 1221 34.9428
59.2155 1407 37.51
59.3318 1455 38.1445
59.4482 1484 38.5227
59.5646 1578 39.724
59.681 1689 41.0974
59.7975 1610 40.1248
59.9141 1562 39.5221
60.0306 1605 40.0625
60.1473 1523 39.0256
60.2639 1479 38.4578
60.3807 1412 37.5766
60.4974 1436 37.8946
60.6142 1419 37.6696
60.731 1621 40.2616
60.8479 1681 41
60.9648 1709 41.3401
61.0818 1696 41.1825
61.1987 1678 40.9634
61.3158 1775 42.1307
61.4328 1619 40.2368
61.5499 1546 39.3192
61.667 1459 38.1969
61.7841 1341 36.6197
61.9013 1295 35.9861
62.0185 1248 35.327
62.1357 1381 37.1618
62.253 1430 37.8153
62.3702 1510 38.8587
62.4875 1536 39.1918
62.6049 1616 40.1995
62.7222 1641 40.5093
62.8396 1597 39.9625
62.9569 1649 40.6079
63.0743 1569 39.6106
63.1918 1658 40.7185
63.3092 1528 39.0896
63.4267 1505 38.7943
63.5441 1566 39.5727
63.6616 1468 38.3145
63.7791 1360 36.8782
63.8966 1365 36.9459
64.0142 1357 36.8375
64.1317 1402 37.4433
64.2492 1481 38.4838
64.3668 1548 39.3446
64.4843 1621 40.2616
64.6019 1659 40.7308
64.7195 1682 41.0122
64.837 1681 41
64.9546 1665 40.8044
65.0722 1523 39.0256
65.1898 1486 38.5487
65.3074 1308 36.1663
65.4249 1295 35.9861
65.5425 1254 35.4119
65.6601 1256 35.4401
65.7777 1324 36.3868
65.8952 1381 37.1618
66.0128 1417 37.6431
66.1304 1517 38.9487
66.2479 1536 39.1918
66.3655 1547 39.3319
66.483 1669 40.8534
66.6005 1596 39.95
66.718 1603 40.0375
66.8355 1561 39.5095
66.953 1560 39.4968
67.0705 1557 39.4588
67.1879 1436 37.8946
67.3054 1434 37.8682
67.4228 1342 36.6333
67.5402 1281 35.7911
67.6576 1349 36.7287
67.7749 1298 36.0278
67.8923 1454 38.1314
68.0096 1481 38.4838
68.1269 1590 39.8748
68.2442 1554 39.4208
68.3614 1582 39.7744
68.4787 1621 40.2616
68.5958 1655 40.6817
68.713 1566 39.5727
68.8302 1469 38.3275
68.9473 1253 35.3977
69.0643 1259 35.4824
69.1814 1206 34.7275
69.2984 1235 35.1426
69.4154 1236 35.1568
69.5323 1322 36.3593
69.6492 1415 37.6165
69.7661 1497 38.6911
69.8829 1556 39.4462
69.9997 1490 38.6005
70.1165 1476 38.4187
70.2332 1438 37.921
70.3499 1329 36.4555
70.4665 1229 35.0571
70.5831 1254 35.4119
70.6996 1175 34.2783
70.8161 1077 32.8177
70.9326 999 31.607
71.049 884 29.7321
71.1653 718 26.7955
71.2817 637 25.2389
71.3979 601 24.5153
71.5141 620 24.8998
71.6303 567 23.8118
71.7464 508 22.5389
71.8624 0 1
71.9784 0 1
72.0944 0 1
72.2102 0 1
72.3261 0 1
72.4418 0 1
72.5575 0 1
72.6732 0 1
75.1054 0 1
75.2209 0 1
75.3365 0 1
75.4521 0 1
75.5678 0 1
75.6835 0 1
75.7993 0 1
75.9151 0 1
76.031 0 1
76.147 962 31.0161
76.263 958 30.9516
76.3791 980 31.305
76.4952 1022 31.9687
76.6113 1020 31.9374
76.7276 1016 31.8748
76.8438 1199 34.6266
76.9601 1251 35.3695
77.0765 1315 36.2629
77.1929 1413 37.5899
77.3093 1364 36.9324
77.4258 1392 37.3095
77.5423 1330 36.4692
77.6589 1380 37.1484
77.7755 1272 35.6651
77.8921 1147 33.8674
78.0088 1051 32.4191
78.1256 947 30.7734
78.2423 921 30.348
78.3591 1069 32.6956
78.4759 1162 34.0881
78.5928 1234 35.1283
78.7097 1331 36.4829
78.8266 1289 35.9026
78.9436 1362 36.9053
79.0606 1389 37.2693
79.1776 1362 36.9053
79.2946 1321 36.3456
79.4117 1302 36.0832
79.5288 1390 37.2827
79.6459 1399 37.4032
79.7631 1290 35.9166
79.8802 1310 36.1939
79.9974 1207 34.7419
80.1147 1137 33.7194
80.2319 1012 31.8119
80.3491 1132 33.6452
80.4664 1169 34.1906
80.5837 1255 35.426
80.701 1387 37.2424
80.8183 1408 37.5233
80.9357 1369 37
81.053 1425 37.7492
81.1704 1399 37.4032
81.2877 1433 37.855
81.4051 1426 37.7624
81.5225 1342 36.6333
81.6399 1224 34.9857
81.7573 1034 32.1559
81.8747 1048 32.3728
81.9922 1041 32.2645
82.1096 1093 33.0606
82.227 1171 34.2199
82.3444 1315 36.2629
82.4619 1367 36.973
82.5793 1407 37.51
82.6967 1385 37.2156
82.8142 1450 38.0789
82.9316 1483 38.5097
83.049 1459 38.1969
83.1664 1465 38.2753
83.2838 1388 37.2559
83.4012 1439 37.9342
83.5186 1324 36.3868
83.636 1297 36.0139
83.7534 1237 35.171
83.8708 1127 33.5708
83.9881 1163 34.1028
84.1055 1050 32.4037
84.2228 1220 34.9285
84.3401 1337 36.565
84.4575 1470 38.3406
84.5747 1475 38.4057
84.692 1412 37.5766
84.8093 1506 38.8072
84.9265 1425 37.7492
85.0437 1385 37.2156
85.1609 1238 35.1852
85.2781 1151 33.9264
85.3952 1043 32.2955
85.5123 1046 32.3419
85.6294 1062 32.5883
85.7465 1173 34.2491
85.8636 1235 35.1426
85.9806 1361 36.8917
86.0976 1450 38.0789
86.2145 1361 36.8917
86.3315 1435 37.8814
86.4484 1431 37.8286
86.5652 1477 38.4318
86.682 1496 38.6782
86.7988 1407 37.51
86.9156 1439 37.9342
87.0323 1378 37.1214
87.149 1343 36.647
87.2657 1276 35.7211
87.3823 1160 34.0588
87.4988 1048 32.3728
87.6154 993 31.5119
87.7318 987 31.4166
87.8483 1048 32.3728
87.9647 1218 34.8999
88.081 1146 33.8526
88.1973 1116 33.4066
88.3136 1044 32.311
88.4298 1045 32.3265
88.546 1022 31.9687
88.6621 887 29.7825
88.7781 663 25.7488
88.8942 0 1
89.0101 0 1
89.126 0 1
89.2419 0 1
89.3577 0 1
89.4734 0 1
89.5891 0 1
89.7047 0 1
89.8203 0 1
89.9358 0 1
92.3269 0 1
92.4424 0 1
92.558 0 1
92.6736 0 1
92.7893 0 1
92.905 0 1
93.0208 0 1
93.1366 0 1
93.2525 0 1
93.3685 0 1
93.4845 0 1
93.6005 1066 32.6497
93.7167 1133 33.6601
93.8328 1195 34.5688
93.949 1199 34.6266
94.0653 1295 35.9861
94.1816 1259 35.4824
94.2979 1221 34.9428
94.4143 1101 33.1813
94.5307 1134 33.6749
94.6472 1101 33.1813
94.7637 1070 32.7109
94.8803 1085 32.9393
94.9969 1218 34.8999
95.1135 1312 36.2215
95.2302 1353 36.7831
95.3469 1427 37.7757
95.4637 1474 38.3927
95.5805 1455 38.1445
95.6973 1489 38.5876
95.8142 1492 38.6264
95.9311 1452 38.1051
96.048 1484 38.5227
96.1649 1448 38.0526
96.2819 1410 37.55
96.3989 1290 35.9166
96.516 1273 35.6791
96.633 1191 34.5109
96.7501 1124 33.5261
96.8673 1164 34.1174
96.9844 1256 35.4401
97.1016 1270 35.6371
97.2188 1367 36.973
97.336 1484 38.5227
97.4532 1484 38.5227
97.5704 1588 39.8497
97.6877 1526 39.064
97.805 1465 38.2753
97.9223 1401 37.4299
98.0396 1236 35.1568
98.1569 1126 33.5559
98.2743 1092 33.0454
98.3916 1019 31.9218
98.509 1163 34.1028
98.6264 1278 35.7491
98.7438 1266 35.5809
98.8612 1385 37.2156
98.9786 1393 37.3229
99.096 1564 39.5474
99.2134 1571 39.6358
99.3308 1525 39.0512
99.4482 1540 39.2428
99.5656 1542 39.2683
99.6831 1581 39.7618
99.8005 1478 38.4448
99.9179 1489 38.5876
100.035 1483 38.5097
100.153 1361 36.8917
100.27 1244 35.2704
100.388 1243 35.2562
100.505 1284 35.8329
100.622 1332 36.4966
100.74 1473 38.3797
100.857 1514 38.9102
100.975 1585 39.8121
101.092 1557 39.4588
101.209 1627 40.3361
101.327 1653 40.6571
101.444 1586 39.8246
101.561 1415 37.6165
101.679 1272 35.6651
101.796 1201 34.6554
101.913 1187 34.4529
102.03 1075 32.7872
102.148 1309 36.1801
102.265 1385 37.2156
102.382 1486 38.5487
102.499 1519 38.9744
102.616 1507 38.8201
102.733 1618 40.2244
102.851 1564 39.5474
102.968 1682 41.0122
103.085 1690 41.1096
103.202 1606 40.0749
103.319 1627 40.3361
103.436 1551 39.3827
103.552 1518 38.9615
103.669 1496 38.6782
103.786 1356 36.8239
103.903 1270 35.6371
104.02 1385 37.2156
104.137 1475 38.4057
104.253 1588 39.8497
104.37 1683 41.0244
104.487 1701 41.2432
104.603 1663 40.7799
104.72 1648 40.5956
104.836 1584 39.7995
104.953 1456 38.1576
105.069 1396 37.3631
105.186 1221 34.9428
105.302 1160 34.0588
105.418 1095 33.0908
105.535 1002 31.6544
105.651 1067 32.665
105.767 1129 33.6006
105.883 1008 31.749
105.999 1008 31.749
106.115 0 1
106.231 0 1
106.347 0 1
106.463 0 1
106.579 0 1
106.694 0 1
106.81 0 1
106.926 0 1
107.041 0 1
107.157 0 1
109.576 0 1
109.692 0 1
109.807 0 1
109.923 0 1
110.039 0 1
110.155 0 1
110.27 0 1
110.386 0 1
110.502 0 1
110.618 674 25.9615
110.735 946 30.7571
110.851 1013 31.8277
110.967 1166 34.1467
111.083 1304 36.1109
111.199 1346 36.6879
111.316 1403 37.4566
111.432 1493 38.6394
111.549 1553 39.4081
111.665 1536 39.1918
111.782 1483 38.5097
111.898 1542 39.2683
112.015 1520 38.9872
112.132 1414 37.6032
112.248 1323 36.3731
112.365 1272 35.6651
112.482 1197 34.5977
112.599 1314 36.2491
112.716 1391 37.2961
112.832 1475 38.4057
112.949 1572 39.6485
113.066 1593 39.9124
113.183 1561 39.5095
113.3 1497 38.6911
113.417 1538 39.2173
113.534 1454 38.1314
113.652 1417 37.6431
113.769 1285 35.8469
113.886 1142 33.7935
114.003 1104 33.2265
114.12 1180 34.3511
114.238 1337 36.565
114.355 1337 36.565
114.472 1388 37.2559
114.589 1551 39.3827
114.707 1552 39.3954
114.824 1522 39.0128
114.942 1537 39.2046
115.059 1607 40.0874
115.176 1526 39.064
115.294 1555 39.4335
115.411 1553 39.4081
115.529 1504 38.7814
115.646 1524 39.0384
115.764 1494 38.6523
115.881 1259 35.4824
115.999 1314 36.2491
116.116 1383 37.1887
116.234 1395 37.3497
116.351 1464 38.2623
116.469 1521 39
116.586 1573 39.6611
116.704 1598 39.975
116.821 1514 38.9102
116.939 1535 39.1791
117.056 1468 38.3145
117.174 1461 38.223
117.291 1292 35.9444
117.409 1199 34.6266
117.526 1169 34.1906
117.644 1151 33.9264
117.761 1212 34.8138
117.879 1323 36.3731
117.996 1318 36.3043
118.114 1455 38.1445
118.231 1493 38.6394
118.349 1592 39.8999
118.466 1524 39.0384
118.584 1534 39.1663
118.701 1521 39
118.819 1596 39.95
118.936 1578 39.724
119.053 1466 38.2884
119.171 1508 38.833
119.288 1477 38.4318
119.405 1314 36.2491
119.523 1220 34.9285
119.64 1216 34.8712
119.757 1339 36.5923
119.875 1303 36.0971
119.992 1380 37.1484
120.109 1425 37.7492
120.226 1512 38.8844
120.343 1550 39.37
120.46 1498 38.704
120.578 1528 39.0896
120.695 1457 38.1707
120.812 1410 37.55
120.929 1238 35.1852
121.046 1200 34.641
121.163 1084 32.9242
121.279 1049 32.3883
121.396 1056 32.4962
121.513 1088 32.9848
121.63 1214 34.8425
121.747 1233 35.1141
121.863 1241 35.2278
121.98 1251 35.3695
122.097 1175 34.2783
122.213 1165 34.1321
122.33 1215 34.8569
122.446 1165 34.1321
122.563 1020 31.9374
122.679 1014 31.8434
122.795 930 30.4959
122.912 878 29.6311
123.028 792 28.1425
123.144 668 25.8457
123.26 562 23.7065
123.377 0 1
123.493 0 1
123.609 0 1
123.725 0 1
123.84 0 1
123.956 0 1
124.072 0 1
124.188 0 1
124.303 0 1
124.419 0 1
126.852 0 1
126.968 0 1
127.083 0 1
127.199 0 1
127.315 0 1
127.431 0 1
127.547 0 1
127.663 0 1
127.779 0 1
127.895 0 1
128.011 0 1
128.127 0 1
128.243 0 1
128.359 1321 36.3456
128.476 1364 36.9324
128.592 1413 37.5899
128.708 1312 36.2215
128.825 1315 36.2629
128.941 1414 37.6032
129.058 1469 38.3275
129.174 1552 39.3954
129.291 1546 39.3192
129.408 1562 39.5221
129.524 1555 39.4335
129.641 1560 39.4968
129.758 1539 39.2301
129.875 1431 37.8286
129.992 1425 37.7492
130.108 1344 36.6606
130.225 1228 35.0428
130.342 1209 34.7707
130.459 1193 34.5398
130.576 1318 36.3043
130.693 1381 37.1618
130.81 1462 38.2361
130.928 1452 38.1051
131.045 1463 38.2492
131.162 1493 38.6394
131.279 1586 39.8246
131.396 1579 39.7366
131.513 1500 38.7298
131.631 1483 38.5097
131.748 1473 38.3797
131.865 1531 39.128
131.983 1499 38.7169
132.1 1410 37.55
132.217 1353 36.7831
132.335 1402 37.4433
132.452 1410 37.55
132.57 1444 38
132.687 1587 39.8372
132.804 1558 39.4715
132.922 1612 40.1497
133.039 1588 39.8497
133.157 1637 40.4599
133.274 1670 40.8656
133.392 1586 39.8246
133.509 1460 38.2099
133.627 1299 36.0416
133.744 1214 34.8425
133.862 1171 34.2199
133.979 1208 34.7563
134.097 1270 35.6371
134.214 1402 37.4433
134.332 1400 37.4166
134.449 1458 38.1838
134.567 1514 38.9102
134.684 1602 40.025
134.802 1563 39.5348
134.919 1585 39.8121
135.037 1614 40.1746
135.154 1621 40.2616
135.272 1504 38.7814
135.389 1557 39.4588
135.507 1493 38.6394
135.624 1449 38.0657
135.742 1358 36.8511
135.859 1389 37.2693
135.977 1480 38.4708
136.094 1439 37.9342
136.211 1494 38.6523
136.329 1579 39.7366
136.446 1541 39.2556
136.564 1597 39.9625
136.681 1688 41.0853
136.798 1552 39.3954
136.915 1520 38.9872
137.033 1499 38.7169
137.15 1419 37.6696
137.267 1292 35.9444
137.384 1279 35.7631
137.502 1249 35.3412
137.619 1187 34.4529
137.736 1261 35.5106
137.853 1329 36.4555
137.97 1463 38.2492
138.087 1380 37.1484
138.204 1471 38.3536
138.321 1528 39.0896
138.438 1578 39.724
138.555 1595 39.9375
138.672 1572 39.6485
138.788 1500 38.7298
138.905 1473 38.3797
139.022 1411 37.5633
139.139 1327 36.428
139.255 1220 34.9285
139.372 1123 33.5112
139.488 1048 32.3728
139.605 1004 31.686
139.721 1073 32.7567
139.838 1078 32.8329
139.954 1061 32.573
140.071 1061 32.573
140.187 941 30.6757
140.303 903 30.05
140.419 859 29.3087
140.535 827 28.7576
140.652 760 27.5681
140.768 0 1
140.884 0 1
141 0 1
141.115 0 1
141.231 0 1
141.347 0 1
141.463 0 1
141.578 0 1
141.694 0 1
144.104 0 1
144.219 0 1
144.335 0 1
144.45 0 1
144.566 0 1
144.682 0 1
144.798 0 1
144.914 0 1
145.03 0 1
145.146 1159 34.0441
145.262 1174 34.2637
145.378 1309 36.1801
145.494 1269 35.623
145.61 1273 35.6791
145.726 1213 34.8281
145.842 1168 34.176
145.959 1132 33.6452
146.075 1037 32.2025
146.192 971 31.1609
146.308 973 31.1929
146.425 981 31.3209
146.541 1033 32.1403
146.658 1060 32.5576
146.774 1151 33.9264
146.891 1171 34.2199
147.008 1171 34.2199
147.125 1257 35.4542
147.241 1231 35.0856
147.358 1232 35.0999
147.475 1273 35.6791
147.592 1187 34.4529
147.709 1190 34.4964
147.826 1142 33.7935
147.943 1159 34.0441
148.06 1098 33.1361
148.177 1087 32.9697
148.294 1062 32.5883
148.411 1080 32.8634
148.528 1103 33.2114
148.645 1200 34.641
148.762 1176 34.2929
148.88 1273 35.6791
148.997 1200 34.641
149.114 1211 34.7994
149.231 1234 35.1283
149.349 1252 35.3836
149.466 1197 34.5977
149.583 1179 34.3366
149.701 1080 32.8634
149.818 960 30.9839
149.935 942 30.692
150.053 987 31.4166
150.17 1039 32.2335
150.287 1046 32.3419
150.405 1096 33.1059
150.522 1092 33.0454
150.64 1107 33.2716
150.757 1114 33.3766
150.875 1183 34.3948
150.992 1137 33.7194
151.11 1192 34.5254
151.227 1088 32.9848
151.344 1132 33.6452
151.462 1082 32.8938
151.579 1113 33.3617
151.697 1022 31.9687
151.814 1016 31.8748
151.932 971 31.1609
152.049 1000 31.6228
152.167 1073 32.7567
152.284 1113 33.3617
152.402 1200 34.641
152.519 1136 33.7046
152.636 1159 34.0441
152.754 1152 33.9411
152.871 1233 35.1141
152.989 1151 33.9264
153.106 1147 33.8674
153.223 1019 31.9218
153.341 971 31.1609
153.458 934 30.5614
153.575 957 30.9354
153.693 922 30.3645
153.81 963 31.0322
153.927 945 30.7409
154.044 1017 31.8904
154.162 1025 32.0156
154.279 1008 31.749
154.396 1078 32.8329
154.513 1065 32.6343
154.63 1044 32.311
154.747 1051 32.4191
154.864 1016 31.8748
154.981 1061 32.573
155.098 958 30.9516
155.215 1038 32.218
155.332 979 31.289
155.449 931 30.5123
155.566 974 31.209
155.683 914 30.2324
155.8 989 31.4484
155.917 1082 32.8938
156.033 1007 31.7333
156.15 0 1
156.267 0 1
156.383 0 1
156.5 0 1
156.617 0 1
156.733 0 1
156.85 0 1
156.966 0 1
157.082 0 1
157.199 0 1
157.315 0 1
157.431 0 1
157.547 0 1
157.664 0 1
157.78 0 1
157.896 0 1
158.012 0 1
158.128 0 1
158.244 0 1
158.359 0 1
158.475 0 1
158.591 0 1
158.706 0 1
