
6.15755 0 1
6.2731 0 1
6.3887 0 1
6.50437 0 1
6.62009 0 1
6.73587 0 1
6.8517 0 1
6.96759 0 1
7.08353 0 1
7.19952 0 1
7.31557 0 1
7.43166 0 1
7.54781 0 1
7.664 0 1
7.78024 0 1
7.89653 0 1
8.01286 0 1
8.12924 0 1
8.24567 0 1
8.36213 0 1
8.47864 0 1
8.59519 0 1
8.71178 0 1
8.82841 0 1
8.94508 0 1
9.06179 0 1
9.17853 0 1
9.29531 0 1
9.41212 0 1
9.52897 0 1
9.64584 0 1
9.76276 0 1
9.8797 0 1
9.99667 0 1
10.1137 0 1
10.2307 0 1
10.3478 0 1
10.4648 0 1
10.5819 0 1
10.6991 0 1
10.8162 0 1
10.9334 0 1
11.0506 0 1
11.1678 0 1
11.285 0 1
11.4023 0 1
11.5196 0 1
11.6369 0 1
11.7542 0 1
11.8715 0 1
11.9888 0 1
12.1062 0 1
12.2235 0 1
12.3409 0 1
12.4582 0 1
12.5756 0 1
12.693 0 1
12.8104 0 1
12.9278 0 1
13.0452 0 1
13.1626 0 1
13.28 0 1
13.3974 0 1
13.5149 0 1
13.6323 0 1
13.7497 0 1
13.8671 0 1
13.9845 0 1
14.1019 0 1
14.2193 0 1
14.3367 0 1
14.4541 0 1
14.5714 0 1
14.6888 0 1
14.8062 0 1
14.9235 0 1
15.0408 2224 47.1593
15.1581 2327 48.239
15.2755 2379 48.775
15.3927 2362 48.6004
15.51 2549 50.4876
15.6273 2390 48.8876
15.7445 2383 48.816
15.8617 2338 48.3529
15.9789 2229 47.2123
16.0961 2287 47.8226
16.2132 2425 49.2443
16.3304 2619 51.1762
16.4475 2552 50.5173
16.5646 2690 51.8652
16.6816 2652 51.4976
16.7986 2680 51.7687
16.9156 2659 51.5655
17.0326 2717 52.1249
17.1496 2677 51.7397
17.2665 2583 50.8232
17.3833 2493 49.93
17.5002 2473 49.7293
17.617 2247 47.4025
17.7338 2232 47.244
17.8505 2273 47.676
17.9672 2495 49.95
18.0839 2476 49.7594
18.2005 2554 50.5371
18.3171 2544 50.4381
18.4337 2655 51.5267
18.5502 2755 52.4881
18.6666 2794 52.8583
18.7831 2761 52.5452
18.8994 2659 51.5655
19.0158 2720 52.1536
19.1321 2548 50.4777
19.2483 2422 49.2138
19.3645 2400 48.9898
19.4806 2330 48.2701
19.5967 2306 48.0208
19.7128 2356 48.5386
19.8288 2413 49.1223
19.9447 2216 47.0744
20.0606 0 1
20.1764 0 1
20.2922 0 1
20.4079 0 1
20.5236 0 1
20.6392 0 1
20.7548 0 1
20.8702 0 1
23.3078 0 1
23.4233 0 1
23.539 0 1
23.6547 0 1
23.7704 0 1
23.8862 0 1
24.0021 0 1
24.118 0 1
24.234 0 1
24.35 0 1
24.4661 2408 49.0714
24.5822 2268 47.6235
24.6984 2323 48.1975
24.8146 2398 48.9694
24.9309 2520 50.1996
25.0472 2710 52.0577
25.1636 2809 53
25.28 2830 53.1977
25.3965 2789 52.811
25.513 2766 52.5928
25.6296 2875 53.619
25.7462 2820 53.1037
25.8628 2763 52.5642
25.9795 2702 51.9808
26.0962 2533 50.3289
26.213 2557 50.5668
26.3298 2324 48.2079
26.4466 2383 48.816
26.5635 2403 49.0204
26.6804 2529 50.2892
26.7973 2548 50.4777
26.9143 2594 50.9313
27.0313 2680 51.7687
27.1483 2845 53.3385
27.2653 2848 53.3667
27.3824 2851 53.3948
27.4996 2775 52.6783
27.6167 2703 51.9904
27.7339 2712 52.0769
27.8511 2531 50.309
27.9683 2444 49.4368
28.0855 2327 48.239
28.2028 2338 48.3529
28.3201 2280 47.7493
28.4374 2479 49.7896
28.5547 2584 50.8331
28.6721 2757 52.5071
28.7894 2748 52.4214
28.9068 2746 52.4023
29.0242 2726 52.2111
29.1416 2672 51.6914
29.259 2736 52.3068
29.3764 2663 51.6043
29.4939 2515 50.1498
29.6113 2391 48.8979
29.7288 2225 47.1699
29.8463 2093 45.7493
29.9638 2069 45.4863
30.0812 2167 46.551
30.1987 2254 47.4763
30.3162 2286 47.8121
30.4337 2414 49.1325
30.5512 2417 49.163
30.6687 2548 50.4777
30.7862 2755 52.4881
30.9037 2584 50.8331
31.0212 2618 51.1664
31.1387 2638 51.3615
31.2562 2515 50.1498
31.3737 2426 49.2544
31.4912 2345 48.4252
31.6087 2189 46.7868
31.7262 2153 46.4004
31.8436 2202 46.9255
31.9611 2300 47.9583
32.0785 2453 49.5278
32.1959 2654 51.517
32.3134 2658 51.5558
32.4308 2496 49.96
32.5482 2599 50.9804
32.6655 2463 49.6286
32.7829 2465 49.6488
32.9002 2583 50.8232
33.0176 2394 48.9285
33.1349 2421 49.2037
33.2522 2279 47.7389
33.3694 2118 46.0217
33.4867 2135 46.2061
33.6039 1896 43.5431
33.7211 1975 44.441
33.8383 2028 45.0333
33.9554 2072 45.5192
34.0725 2247 47.4025
34.1896 2248 47.4131
34.3067 2337 48.3425
34.4237 2358 48.5592
34.5407 2418 49.1732
34.6577 2499 49.99
34.7746 2412 49.1121
34.8915 2430 49.295
35.0084 2278 47.7284
35.1252 2199 46.8935
35.242 2124 46.0869
35.3587 1965 44.3283
35.4755 2066 45.4533
35.5921 2126 46.1086
35.7088 2154 46.4112
35.8254 2307 48.0312
35.9419 2393 48.9183
36.0584 2412 49.1121
36.1749 2398 48.9694
36.2913 2378 48.7647
36.4077 2365 48.6313
36.524 2439 49.3862
36.6403 2436 49.3559
36.7565 2439 49.3862
36.8727 2125 46.0977
36.9889 1990 44.6094
37.1049 1952 44.1814
37.221 0 1
37.3369 0 1
37.4529 0 1
37.5687 0 1
37.6845 0 1
37.8003 0 1
37.916 0 1
38.0316 0 1
38.1472 0 1
40.5851 0 1
40.7008 0 1
40.8164 0 1
40.9322 0 1
41.048 0 1
41.1639 0 1
41.2798 0 1
41.3958 0 1
41.5118 0 1
41.6279 0 1
41.744 1798 42.4028
41.8602 1977 44.4635
41.9765 1932 43.9545
42.0928 1774 42.1189
42.2091 1747 41.7971
42.3255 1565 39.5601
42.4419 1451 38.092
42.5584 1462 38.2361
42.675 1533 39.1535
42.7915 1596 39.95
42.9081 1593 39.9124
43.0248 1665 40.8044
43.1415 1666 40.8167
43.2582 1731 41.6053
43.375 1717 41.4367
43.4918 1695 41.1704
43.6087 1655 40.6817
43.7256 1767 42.0357
43.8425 1751 41.845
43.9595 1577 39.7115
44.0765 1460 38.2099
44.1935 1412 37.5766
44.3106 1330 36.4692
44.4277 1288 35.8887
44.5448 1373 37.054
44.6619 1492 38.6264
44.7791 1493 38.6394
44.8963 1504 38.7814
45.0136 1449 38.0657
45.1308 1434 37.8682
45.2481 1425 37.7492
45.3654 1431 37.8286
45.4827 1354 36.7967
45.6001 1257 35.4542
45.7174 1192 34.5254
45.8348 1087 32.9697
45.9522 1089 33
46.0697 995 31.5436
46.1871 1032 32.1248
46.3046 1042 32.28
46.422 1071 32.7261
46.5395 1093 33.0606
46.657 1180 34.3511
46.7745 1104 33.2265
46.892 1109 33.3017
47.0096 1113 33.3617
47.1271 1139 33.7491
47.2446 1083 32.909
47.3622 1158 34.0294
47.4797 1089 33
47.5973 1007 31.7333
47.7149 1026 32.0312
47.8324 993 31.5119
47.95 957 30.9354
48.0675 947 30.7734
48.1851 981 31.3209
48.3027 1032 32.1248
48.4202 1073 32.7567
48.5378 1137 33.7194
48.6554 1109 33.3017
48.7729 1046 32.3419
48.8904 1062 32.5883
49.008 1103 33.2114
49.1255 1046 32.3419
49.243 1010 31.7805
49.3605 913 30.2159
49.478 866 29.4279
49.5955 886 29.7658
49.713 852 29.189
49.8304 926 30.4302
49.9479 1049 32.3883
50.0653 1146 33.8526
50.1827 1243 35.2562
50.3001 1314 36.2491
50.4175 1316 36.2767
50.5348 1304 36.1109
50.6521 1467 38.3014
50.7694 1403 37.4566
50.8867 1536 39.1918
51.004 1598 39.975
51.1212 1502 38.7556
51.2384 1472 38.3667
51.3556 1469 38.3275
51.4727 1510 38.8587
51.5899 1603 40.0375
51.707 1712 41.3763
51.824 1854 43.0581
51.9411 2039 45.1553
52.0581 2080 45.607
52.175 2121 46.0543
52.2919 2195 46.8508
52.4088 2291 47.8644
52.5257 2324 48.2079
52.6425 2342 48.3942
52.7593 2429 49.2849
52.876 2183 46.7226
52.9927 2041 45.1774
53.1094 1933 43.9659
53.226 1766 42.0238
53.3426 1852 43.0349
53.4591 1934 43.9773
53.5756 2276 47.7074
53.692 2445 49.4469
53.8084 2528 50.2792
53.9248 2639 51.3712
54.0411 2705 52.0096
54.1573 2651 51.4879
54.2735 0 1
54.3896 0 1
54.5057 0 1
54.6217 0 1
54.7377 0 1
54.8537 0 1
54.9695 0 1
55.0853 0 1
55.2011 0 1
55.3168 0 1
55.4324 0 1
57.824 0 1
57.9396 0 1
58.0553 0 1
58.1711 0 1
58.2869 0 1
58.4028 0 1
58.5187 0 1
58.6347 0 1
58.7508 0 1
58.8669 0 1
58.983 2402 49.0102
59.0992 2445 49.4469
59.2155 2597 50.9608
59.3318 2579 50.7839
59.4482 2614 51.1273
59.5646 2676 51.7301
59.681 2649 51.4684
59.7975 2611 51.0979
59.9141 2605 51.0392
60.0306 2562 50.6162
60.1473 2470 49.6991
60.2639 2320 48.1664
60.3807 2320 48.1664
60.4974 2431 49.3052
60.6142 2542 50.4183
60.731 2635 51.3323
60.8479 2635 51.3323
60.9648 2699 51.9519
61.0818 2602 51.0098
61.1987 2600 50.9902
61.3158 2608 51.0686
61.4328 2419 49.1833
61.5499 2231 47.2335
61.667 2118 46.0217
61.7841 1961 44.2832
61.9013 1814 42.5911
62.0185 1850 43.0116
62.1357 1915 43.7607
62.253 2132 46.1736
62.3702 2178 46.669
62.4875 2377 48.7545
62.6049 2426 49.2544
62.7222 2376 48.7442
62.8396 2452 49.5177
62.9569 2472 49.7192
63.0743 2441 49.4065
63.1918 2510 50.0999
63.3092 2413 49.1223
63.4267 2325 48.2183
63.5441 2364 48.621
63.6616 2268 47.6235
63.7791 2114 45.9783
63.8966 2052 45.299
64.0142 2107 45.9021
64.1317 2257 47.5079
64.2492 2343 48.4045
64.3668 2366 48.6415
64.4843 2313 48.0937
64.6019 2296 47.9166
64.7195 2283 47.7807
64.837 2216 47.0744
64.9546 2232 47.244
65.0722 2087 45.6837
65.1898 2019 44.9333
65.3074 1792 42.332
65.4249 1607 40.0874
65.5425 1595 39.9375
65.6601 1614 40.1746
65.7777 1751 41.845
65.8952 1919 43.8064
66.0128 2110 45.9347
66.1304 2130 46.1519
66.2479 2169 46.5725
66.3655 2272 47.6655
66.483 2224 47.1593
66.6005 2218 47.0956
66.718 2410 49.0918
66.8355 2392 48.9081
66.953 2372 48.7032
67.0705 2365 48.6313
67.1879 2429 49.2849
67.3054 2353 48.5077
67.4228 2227 47.1911
67.5402 2310 48.0625
67.6576 2219 47.1063
67.7749 2512 50.1199
67.8923 2719 52.144
68.0096 2813 53.0377
68.1269 2727 52.2207
68.2442 2843 53.3198
68.3614 2895 53.8052
68.4787 2894 53.7959
68.5958 2916 54
68.713 2830 53.1977
68.8302 2655 51.5267
68.9473 2515 50.1498
69.0643 2270 47.6445
69.1814 2172 46.6047
69.2984 2083 45.6399
69.4154 2278 47.7284
69.5323 2624 51.225
69.6492 2845 53.3385
69.7661 3069 55.3986
69.8829 3152 56.1427
69.9997 3172 56.3205
70.1165 3223 56.7715
70.2332 3325 57.6628
70.3499 3237 56.8946
70.4665 3382 58.155
70.5831 3384 58.1722
70.6996 3448 58.7197
70.8161 3268 57.1664
70.9326 3287 57.3324
71.049 3180 56.3915
71.1653 2906 53.9073
71.2817 2838 53.2729
71.3979 2801 52.9245
71.5141 2953 54.3415
71.6303 3057 55.2901
71.7464 2863 53.507
71.8624 0 1
71.9784 0 1
72.0944 0 1
72.2102 0 1
72.3261 0 1
72.4418 0 1
72.5575 0 1
72.6732 0 1
75.1054 0 1
75.2209 0 1
75.3365 0 1
75.4521 0 1
75.5678 0 1
75.6835 0 1
75.7993 0 1
75.9151 0 1
76.031 0 1
76.147 2205 46.9574
76.263 2319 48.156
76.3791 2313 48.0937
76.4952 2033 45.0888
76.6113 2184 46.7333
76.7276 2209 47
76.8438 2411 49.1019
76.9601 2372 48.7032
77.0765 2557 50.5668
77.1929 2357 48.5489
77.3093 2313 48.0937
77.4258 2359 48.5695
77.5423 2352 48.4974
77.6589 2156 46.4327
77.7755 1989 44.5982
77.8921 1704 41.2795
78.0088 1596 39.95
78.1256 1540 39.2428
78.2423 1458 38.1838
78.3591 1624 40.2989
78.4759 1807 42.5088
78.5928 2012 44.8553
78.7097 2042 45.1885
78.8266 2074 45.5412
78.9436 2173 46.6154
79.0606 2146 46.3249
79.1776 2116 46
79.2946 2247 47.4025
79.4117 2284 47.7912
79.5288 2261 47.55
79.6459 2287 47.8226
79.7631 2233 47.2546
79.8802 2129 46.1411
79.9974 2136 46.2169
80.1147 1957 44.238
80.2319 1990 44.6094
80.3491 2108 45.913
80.4664 2232 47.244
80.5837 2280 47.7493
80.701 2260 47.5395
80.8183 2328 48.2494
80.9357 2239 47.3181
81.053 2171 46.594
81.1704 2182 46.7119
81.2877 2188 46.7761
81.4051 2091 45.7275
81.5225 1884 43.4051
81.6399 1622 40.2741
81.7573 1554 39.4208
81.8747 1459 38.1969
81.9922 1472 38.3667
82.1096 1773 42.107
82.227 1976 44.4522
82.3444 2045 45.2217
82.4619 2156 46.4327
82.5793 2145 46.3141
82.6967 2066 45.4533
82.8142 2179 46.6798
82.9316 2328 48.2494
83.049 2287 47.8226
83.1664 2297 47.927
83.2838 2361 48.5901
83.4012 2261 47.55
83.5186 2305 48.0104
83.636 2219 47.1063
83.7534 2115 45.9891
83.8708 2050 45.2769
83.9881 2048 45.2548
84.1055 2223 47.1487
84.2228 2315 48.1144
84.3401 2455 49.548
84.4575 2419 49.1833
84.5747 2347 48.4458
84.692 2477 49.7695
84.8093 2419 49.1833
84.9265 2286 47.8121
85.0437 2010 44.833
85.1609 1841 42.9069
85.2781 1675 40.9268
85.3952 1673 40.9023
85.5123 1628 40.3485
85.6294 1721 41.4849
85.7465 1903 43.6234
85.8636 2089 45.7056
85.9806 2245 47.3814
86.0976 2156 46.4327
86.2145 2335 48.3218
86.3315 2418 49.1732
86.4484 2493 49.93
86.5652 2557 50.5668
86.682 2540 50.3984
86.7988 2591 50.9019
86.9156 2676 51.7301
87.0323 2634 51.3225
87.149 2535 50.3488
87.2657 2596 50.951
87.3823 2408 49.0714
87.4988 2458 49.5782
87.6154 2704 52
87.7318 2829 53.1883
87.8483 2922 54.0555
87.9647 3020 54.9545
88.081 2954 54.3507
88.1973 2954 54.3507
88.3136 3171 56.3116
88.4298 3031 55.0545
88.546 2995 54.7266
88.6621 2633 51.3128
88.7781 2407 49.0612
88.8942 0 1
89.0101 0 1
89.126 0 1
89.2419 0 1
89.3577 0 1
89.4734 0 1
89.5891 0 1
89.7047 0 1
89.8203 0 1
89.9358 0 1
92.3269 0 1
92.4424 0 1
92.558 0 1
92.6736 0 1
92.7893 0 1
92.905 0 1
93.0208 0 1
93.1366 0 1
93.2525 0 1
93.3685 0 1
93.4845 0 1
93.6005 3634 60.2827
93.7167 3671 60.5888
93.8328 3602 60.0167
93.949 3243 56.9473
94.0653 2909 53.9351
94.1816 2874 53.6097
94.2979 2737 52.3163
94.4143 2649 51.4684
94.5307 2787 52.792
94.6472 3008 54.8452
94.7637 3235 56.8771
94.8803 3332 57.7235
94.9969 3519 59.3212
95.1135 3632 60.2661
95.2302 3909 62.522
95.3469 3975 63.0476
95.4637 4009 63.3167
95.5805 4015 63.364
95.6973 4268 65.3299
95.8142 4230 65.0385
95.9311 4118 64.1716
96.048 4069 63.7887
96.1649 4043 63.5846
96.2819 3973 63.0317
96.3989 3702 60.8441
96.516 3833 61.9112
96.633 3944 62.8013
96.7501 4028 63.4665
96.8673 4317 65.7039
96.9844 4331 65.8103
97.1016 4341 65.8863
97.2188 4266 65.3146
97.336 4314 65.681
97.4532 4148 64.405
97.5704 3896 62.4179
97.6877 3500 59.1608
97.805 3243 56.9473
97.9223 3025 55
98.0396 2647 51.449
98.1569 2628 51.264
98.2743 2733 52.2781
98.3916 3052 55.2449
98.509 3127 55.9196
98.6264 3306 57.4978
98.7438 3481 59
98.8612 3695 60.7865
98.9786 3765 61.3596
99.096 3656 60.4649
99.2134 3764 61.3514
99.3308 3617 60.1415
99.4482 3684 60.696
99.5656 3666 60.5475
99.6831 3543 59.5231
99.8005 3583 59.8582
99.9179 3473 58.9322
100.035 3209 56.648
100.153 3073 55.4346
100.27 3301 57.4543
100.388 3431 58.5747
100.505 3344 57.8273
100.622 3434 58.6003
100.74 3407 58.3695
100.857 3369 58.0431
100.975 3403 58.3352
101.092 3306 57.4978
101.209 3161 56.2228
101.327 2960 54.4059
101.444 2569 50.6853
101.561 2391 48.8979
101.679 2279 47.7389
101.796 2233 47.2546
101.913 2382 48.8057
102.03 2364 48.621
102.148 2680 51.7687
102.265 2556 50.5569
102.382 3130 55.9464
102.499 2949 54.3047
102.616 3121 55.8659
102.733 3210 56.6569
102.851 3152 56.1427
102.968 3196 56.5332
103.085 3259 57.0877
103.202 3115 55.8122
103.319 3157 56.1872
103.436 3061 55.3263
103.552 2969 54.4885
103.669 2776 52.6878
103.786 2935 54.1756
103.903 3044 55.1725
104.02 3146 56.0892
104.137 3057 55.2901
104.253 3148 56.107
104.37 3025 55
104.487 2994 54.7175
104.603 2932 54.1479
104.72 2878 53.647
104.836 2656 51.5364
104.953 2426 49.2544
105.069 2173 46.6154
105.186 1929 43.9204
105.302 2014 44.8776
105.418 2014 44.8776
105.535 2032 45.0777
105.651 2224 47.1593
105.767 2346 48.4355
105.883 2551 50.5074
105.999 2519 50.1896
106.115 0 1
106.231 0 1
106.347 0 1
106.463 0 1
106.579 0 1
106.694 0 1
106.81 0 1
106.926 0 1
107.041 0 1
107.157 0 1
109.576 0 1
109.692 0 1
109.807 0 1
109.923 0 1
110.039 0 1
110.155 0 1
110.27 0 1
110.386 0 1
110.502 0 1
110.618 1663 40.7799
110.735 1912 43.7264
110.851 2004 44.7661
110.967 1961 44.2832
111.083 2151 46.3789
111.199 2254 47.4763
111.316 2259 47.5289
111.432 2303 47.9896
111.549 2217 47.085
111.665 2324 48.2079
111.782 2339 48.3632
111.898 2248 47.4131
112.015 2093 45.7493
112.132 2003 44.7549
112.248 2092 45.7384
112.365 2196 46.8615
112.482 2253 47.4658
112.599 2266 47.6025
112.716 2306 48.0208
112.832 2249 47.4236
112.949 2333 48.3011
113.066 2348 48.4562
113.183 2258 47.5184
113.3 2302 47.9792
113.417 2168 46.5618
113.534 1902 43.6119
113.652 1760 41.9524
113.769 1736 41.6653
113.886 1623 40.2865
114.003 1638 40.4722
114.12 1794 42.3556
114.238 1975 44.441
114.355 2043 45.1996
114.472 2043 45.1996
114.589 2122 46.0652
114.707 2201 46.9148
114.824 2355 48.5283
114.942 2345 48.4252
115.059 2294 47.8957
115.176 2237 47.2969
115.294 2326 48.2286
115.411 2181 46.7012
115.529 2234 47.2652
115.646 2025 45
115.764 2114 45.9783
115.881 2078 45.5851
115.999 2115 45.9891
116.116 2187 46.7654
116.234 2164 46.5188
116.351 2212 47.0319
116.469 2213 47.0425
116.586 2215 47.0638
116.704 2245 47.3814
116.821 2102 45.8476
116.939 2068 45.4753
117.056 1943 44.0795
117.174 1770 42.0714
117.291 1653 40.6571
117.409 1526 39.064
117.526 1417 37.6431
117.644 1561 39.5095
117.761 1695 41.1704
117.879 1805 42.4853
117.996 1890 43.4741
118.114 1959 44.2606
118.231 2084 45.6508
118.349 2201 46.9148
118.466 2095 45.7712
118.584 2165 46.5296
118.701 2278 47.7284
118.819 2232 47.244
118.936 2203 46.9361
119.053 2171 46.594
119.171 2098 45.8039
119.288 2096 45.7821
119.405 2070 45.4973
119.523 2123 46.076
119.64 2277 47.7179
119.757 2291 47.8644
119.875 2274 47.6865
119.992 2315 48.1144
120.109 2404 49.0306
120.226 2408 49.0714
120.343 2455 49.548
120.46 2459 49.5883
120.578 2382 48.8057
120.695 2308 48.0416
120.812 2204 46.9468
120.929 1934 43.9773
121.046 1862 43.1509
121.163 1666 40.8167
121.279 1653 40.6571
121.396 1886 43.4281
121.513 2077 45.5741
121.63 2252 47.4552
121.747 2444 49.4368
121.863 2383 48.816
121.98 2535 50.3488
122.097 2622 51.2055
122.213 2555 50.547
122.33 2747 52.4118
122.446 2617 51.1566
122.563 2764 52.5738
122.679 2610 51.0882
122.795 2655 51.5267
122.912 2544 50.4381
123.028 2564 50.636
123.144 2566 50.6557
123.26 2630 51.2835
123.377 0 1
123.493 0 1
123.609 0 1
123.725 0 1
123.84 0 1
123.956 0 1
124.072 0 1
124.188 0 1
124.303 0 1
124.419 0 1
126.852 0 1
126.968 0 1
127.083 0 1
127.199 0 1
127.315 0 1
127.431 0 1
127.547 0 1
127.663 0 1
127.779 0 1
127.895 0 1
128.011 0 1
128.127 0 1
128.243 0 1
128.359 2816 53.066
128.476 2766 52.5928
128.592 2857 53.4509
128.708 2843 53.3198
128.825 2946 54.2771
128.941 3028 55.0273
129.058 2907 53.9166
129.174 2825 53.1507
129.291 2904 53.8888
129.408 2908 53.9259
129.524 2850 53.3854
129.641 2839 53.2823
129.758 2620 51.1859
129.875 2488 49.8799
129.992 2304 48
130.108 2102 45.8476
130.225 1754 41.8808
130.342 1935 43.9886
130.459 2103 45.8585
130.576 2097 45.793
130.693 2286 47.8121
130.81 2344 48.4149
130.928 2388 48.8672
131.045 2450 49.4975
131.162 2464 49.6387
131.279 2562 50.6162
131.396 2426 49.2544
131.513 2430 49.295
131.631 2445 49.4469
131.748 2391 48.8979
131.865 2301 47.9687
131.983 2289 47.8435
132.1 2295 47.9062
132.217 2369 48.6724
132.335 2340 48.3735
132.452 2472 49.7192
132.57 2398 48.9694
132.687 2333 48.3011
132.804 2419 49.1833
132.922 2312 48.0833
133.039 2243 47.3603
133.157 2496 49.96
133.274 2287 47.8226
133.392 2039 45.1553
133.509 1897 43.5546
133.627 1661 40.7554
133.744 1549 39.3573
133.862 1484 38.5227
133.979 1552 39.3954
134.097 1651 40.6325
134.214 1886 43.4281
134.332 1862 43.1509
134.449 1930 43.9318
134.567 1940 44.0454
134.684 1997 44.6878
134.802 1965 44.3283
134.919 2041 45.1774
135.037 2014 44.8776
135.154 1907 43.6692
135.272 1839 42.8836
135.389 1801 42.4382
135.507 1838 42.8719
135.624 1792 42.332
135.742 1894 43.5201
135.859 1757 41.9166
135.977 1801 42.4382
136.094 1830 42.7785
136.211 1906 43.6578
136.329 1731 41.6053
136.446 1816 42.6146
136.564 1970 44.3847
136.681 1839 42.8836
136.798 1827 42.7434
136.915 1779 42.1782
137.033 1620 40.2492
137.15 1595 39.9375
137.267 1453 38.1182
137.384 1303 36.0971
137.502 1297 36.0139
137.619 1371 37.027
137.736 1502 38.7556
137.853 1600 40
137.97 1676 40.939
138.087 1795 42.3674
138.204 1884 43.4051
138.321 1981 44.5084
138.438 1942 44.0681
138.555 2030 45.0555
138.672 2005 44.7772
138.788 1947 44.1248
138.905 1972 44.4072
139.022 1937 44.0114
139.139 2024 44.9889
139.255 1938 44.0227
139.372 2062 45.4093
139.488 2142 46.2817
139.605 2192 46.8188
139.721 2177 46.6583
139.838 2272 47.6655
139.954 2283 47.7807
140.071 2199 46.8935
140.187 2295 47.9062
140.303 2332 48.2908
140.419 2279 47.7389
140.535 2221 47.1275
140.652 2214 47.0532
140.768 0 1
140.884 0 1
141 0 1
141.115 0 1
141.231 0 1
141.347 0 1
141.463 0 1
141.578 0 1
141.694 0 1
144.104 0 1
144.219 0 1
144.335 0 1
144.45 0 1
144.566 0 1
144.682 0 1
144.798 0 1
144.914 0 1
145.03 0 1
145.146 1966 44.3396
145.262 1964 44.317
145.378 1905 43.6463
145.494 1997 44.6878
145.61 1902 43.6119
145.726 1876 43.3128
145.842 1689 41.0974
145.959 1619 40.2368
146.075 1478 38.4448
146.192 1369 37
146.308 1281 35.7911
146.425 1366 36.9594
146.541 1466 38.2884
146.658 1538 39.2173
146.774 1607 40.0874
146.891 1698 41.2068
147.008 1650 40.6202
147.125 1621 40.2616
147.241 1652 40.6448
147.358 1727 41.5572
147.475 1641 40.5093
147.592 1582 39.7744
147.709 1572 39.6485
147.826 1494 38.6523
147.943 1539 39.2301
148.06 1452 38.1051
148.177 1525 39.0512
148.294 1569 39.6106
148.411 1575 39.6863
148.528 1541 39.2556
148.645 1558 39.4715
148.762 1580 39.7492
148.88 1502 38.7556
148.997 1587 39.8372
149.114 1382 37.1753
149.231 1418 37.6563
149.349 1456 38.1576
149.466 1369 37
149.583 1254 35.4119
149.701 1177 34.3074
149.818 1063 32.6037
149.935 1057 32.5115
150.053 1176 34.2929
150.17 1191 34.5109
150.287 1303 36.0971
150.405 1355 36.8103
150.522 1388 37.2559
150.64 1469 38.3275
150.757 1421 37.6962
150.875 1468 38.3145
150.992 1410 37.55
151.11 1429 37.8021
151.227 1434 37.8682
151.344 1456 38.1576
151.462 1445 38.0132
151.579 1362 36.9053
151.697 1426 37.7624
151.814 1503 38.7685
151.932 1448 38.0526
152.049 1504 38.7814
152.167 1489 38.5876
152.284 1487 38.5616
152.402 1536 39.1918
152.519 1552 39.3954
152.636 1496 38.6782
152.754 1537 39.2046
152.871 1559 39.4842
152.989 1508 38.833
153.106 1428 37.7889
153.223 1352 36.7696
153.341 1240 35.2136
153.458 1234 35.1283
153.575 1266 35.5809
153.693 1327 36.428
153.81 1364 36.9324
153.927 1439 37.9342
154.044 1544 39.2938
154.162 1528 39.0896
154.279 1633 40.4104
154.396 1579 39.7366
154.513 1706 41.3038
154.63 1611 40.1373
154.747 1724 41.5211
154.864 1660 40.7431
154.981 1677 40.9512
155.098 1642 40.5216
155.215 1702 41.2553
155.332 1844 42.9418
155.449 1817 42.6263
155.566 1837 42.8602
155.683 1856 43.0813
155.8 1891 43.4856
155.917 1903 43.6234
156.033 1876 43.3128
156.15 0 1
156.267 0 1
156.383 0 1
156.5 0 1
156.617 0 1
156.733 0 1
156.85 0 1
156.966 0 1
157.082 0 1
157.199 0 1
157.315 0 1
157.431 0 1
157.547 0 1
157.664 0 1
157.78 0 1
157.896 0 1
158.012 0 1
158.128 0 1
158.244 0 1
158.359 0 1
158.475 0 1
158.591 0 1
158.706 0 1
