
6.15755 0 1
6.2731 0 1
6.3887 0 1
6.50437 0 1
6.62009 0 1
6.73587 0 1
6.8517 0 1
6.96759 0 1
7.08353 0 1
7.19952 0 1
7.31557 0 1
7.43166 0 1
7.54781 0 1
7.664 0 1
7.78024 0 1
7.89653 0 1
8.01286 0 1
8.12924 0 1
8.24567 0 1
8.36213 0 1
8.47864 0 1
8.59519 0 1
8.71178 0 1
8.82841 0 1
8.94508 0 1
9.06179 0 1
9.17853 0 1
9.29531 0 1
9.41212 0 1
9.52897 0 1
9.64584 0 1
9.76276 0 1
9.8797 0 1
9.99667 0 1
10.1137 0 1
10.2307 0 1
10.3478 0 1
10.4648 0 1
10.5819 0 1
10.6991 0 1
10.8162 0 1
10.9334 0 1
11.0506 0 1
11.1678 0 1
11.285 0 1
11.4023 0 1
11.5196 0 1
11.6369 0 1
11.7542 0 1
11.8715 0 1
11.9888 0 1
12.1062 0 1
12.2235 0 1
12.3409 0 1
12.4582 0 1
12.5756 0 1
12.693 0 1
12.8104 0 1
12.9278 0 1
13.0452 0 1
13.1626 0 1
13.28 0 1
13.3974 0 1
13.5149 0 1
13.6323 0 1
13.7497 0 1
13.8671 0 1
13.9845 0 1
14.1019 0 1
14.2193 0 1
14.3367 0 1
14.4541 0 1
14.5714 0 1
14.6888 0 1
14.8062 0 1
14.9235 0 1
15.0408 1804 42.4735
15.1581 1843 42.9302
15.2755 1880 43.359
15.3927 1830 42.7785
15.51 1895 43.5316
15.6273 1885 43.4166
15.7445 1782 42.2137
15.8617 1727 41.5572
15.9789 1833 42.8135
16.0961 1753 41.8688
16.2132 1803 42.4617
16.3304 1874 43.2897
16.4475 1886 43.4281
16.5646 2010 44.833
16.6816 2035 45.111
16.7986 2144 46.3033
16.9156 2363 48.6107
17.0326 2478 49.7795
17.1496 2489 49.8899
17.2665 2497 49.97
17.3833 2558 50.5767
17.5002 2489 49.8899
17.617 2472 49.7192
17.7338 2527 50.2693
17.8505 2566 50.6557
17.9672 2679 51.7591
18.0839 2717 52.1249
18.2005 2675 51.7204
18.3171 2657 51.5461
18.4337 2725 52.2015
18.5502 2721 52.1632
18.6666 2736 52.3068
18.7831 2734 52.2877
18.8994 2773 52.6593
19.0158 2613 51.1175
19.1321 2595 50.9411
19.2483 2588 50.8724
19.3645 2458 49.5782
19.4806 2350 48.4768
19.5967 2320 48.1664
19.7128 2191 46.8081
19.8288 2006 44.7884
19.9447 1700 41.2311
20.0606 0 1
20.1764 0 1
20.2922 0 1
20.4079 0 1
20.5236 0 1
20.6392 0 1
20.7548 0 1
20.8702 0 1
23.3078 0 1
23.4233 0 1
23.539 0 1
23.6547 0 1
23.7704 0 1
23.8862 0 1
24.0021 0 1
24.118 0 1
24.234 0 1
24.35 0 1
24.4661 2347 48.4458
24.5822 2441 49.4065
24.6984 2432 49.3153
24.8146 2354 48.518
24.9309 2342 48.3942
25.0472 2184 46.7333
25.1636 1969 44.3734
25.28 1952 44.1814
25.3965 2051 45.288
25.513 2323 48.1975
25.6296 2298 47.9375
25.7462 2548 50.4777
25.8628 2830 53.1977
25.9795 2885 53.7122
26.0962 2888 53.7401
26.213 2849 53.376
26.3298 2917 54.0093
26.4466 2761 52.5452
26.5635 2950 54.3139
26.6804 2812 53.0283
26.7973 2827 53.1695
26.9143 2822 53.1225
27.0313 2771 52.6403
27.1483 2856 53.4416
27.2653 2794 52.8583
27.3824 2757 52.5071
27.4996 2772 52.6498
27.6167 2872 53.591
27.7339 2730 52.2494
27.8511 2519 50.1896
27.9683 2655 51.5267
28.0855 2702 51.9808
28.2028 2684 51.8073
28.3201 2575 50.7445
28.4374 2353 48.5077
28.5547 2302 47.9792
28.6721 2033 45.0888
28.7894 1910 43.7035
28.9068 1975 44.441
29.0242 2059 45.3762
29.1416 2107 45.9021
29.259 2217 47.085
29.3764 2563 50.6261
29.4939 2692 51.8845
29.6113 2737 52.3163
29.7288 2699 51.9519
29.8463 2760 52.5357
29.9638 2672 51.6914
30.0812 2762 52.5547
30.1987 2668 51.6527
30.3162 2760 52.5357
30.4337 2777 52.6972
30.5512 2655 51.5267
30.6687 2651 51.4879
30.7862 2747 52.4118
30.9037 2793 52.8488
31.0212 2649 51.4684
31.1387 2713 52.0865
31.2562 2640 51.3809
31.3737 2612 51.1077
31.4912 2682 51.788
31.6087 2559 50.5866
31.7262 2646 51.4393
31.8436 2666 51.6333
31.9611 2484 49.8397
32.0785 2292 47.8748
32.1959 2137 46.2277
32.3134 1945 44.1022
32.4308 1889 43.4626
32.5482 1936 44
32.6655 2085 45.6618
32.7829 2307 48.0312
32.9002 2476 49.7594
33.0176 2549 50.4876
33.1349 2591 50.9019
33.2522 2753 52.469
33.3694 2609 51.0784
33.4867 2573 50.7247
33.6039 2729 52.2398
33.7211 2647 51.449
33.8383 2626 51.2445
33.9554 2754 52.4786
34.0725 2701 51.9711
34.1896 2631 51.2933
34.3067 2628 51.264
34.4237 2566 50.6557
34.5407 2543 50.4282
34.6577 2708 52.0384
34.7746 2612 51.1077
34.8915 2601 51
35.0084 2627 51.2543
35.1252 2505 50.05
35.242 2553 50.5272
35.3587 2627 51.2543
35.4755 2574 50.7346
35.5921 2574 50.7346
35.7088 2360 48.5798
35.8254 2092 45.7384
35.9419 1961 44.2832
36.0584 1873 43.2782
36.1749 1874 43.2897
36.2913 1941 44.0568
36.4077 2026 45.0111
36.524 2108 45.913
36.6403 2340 48.3735
36.7565 2510 50.0999
36.8727 2564 50.636
36.9889 2606 51.049
37.1049 2496 49.96
37.221 0 1
37.3369 0 1
37.4529 0 1
37.5687 0 1
37.6845 0 1
37.8003 0 1
37.916 0 1
38.0316 0 1
38.1472 0 1
40.5851 0 1
40.7008 0 1
40.8164 0 1
40.9322 0 1
41.048 0 1
41.1639 0 1
41.2798 0 1
41.3958 0 1
41.5118 0 1
41.6279 0 1
41.744 1802 42.45
41.8602 1901 43.6005
41.9765 2086 45.6727
42.0928 1994 44.6542
42.2091 2173 46.6154
42.3255 2168 46.5618
42.4419 2184 46.7333
42.5584 2266 47.6025
42.675 2184 46.7333
42.7915 2129 46.1411
42.9081 2020 44.9444
43.0248 2070 45.4973
43.1415 1974 44.4297
43.2582 2045 45.2217
43.375 2090 45.7165
43.4918 2002 44.7437
43.6087 2090 45.7165
43.7256 2033 45.0888
43.8425 2002 44.7437
43.9595 1984 44.5421
44.0765 1994 44.6542
44.1935 1915 43.7607
44.3106 1764 42
44.4277 1837 42.8602
44.5448 1668 40.8412
44.6619 1559 39.4842
44.7791 1402 37.4433
44.8963 1221 34.9428
45.0136 1279 35.7631
45.1308 1316 36.2767
45.2481 1326 36.4143
45.3654 1486 38.5487
45.4827 1577 39.7115
45.6001 1567 39.5854
45.7174 1604 40.05
45.8348 1604 40.05
45.9522 1626 40.3237
46.0697 1631 40.3856
46.1871 1559 39.4842
46.3046 1488 38.5746
46.422 1520 38.9872
46.5395 1564 39.5474
46.657 1461 38.223
46.7745 1423 37.7227
46.892 1478 38.4448
47.0096 1574 39.6737
47.1271 1513 38.8973
47.2446 1497 38.6911
47.3622 1462 38.2361
47.4797 1395 37.3497
47.5973 1497 38.6911
47.7149 1352 36.7696
47.8324 1351 36.756
47.95 1382 37.1753
48.0675 1243 35.2562
48.1851 1149 33.8969
48.3027 1038 32.218
48.4202 971 31.1609
48.5378 923 30.3809
48.6554 925 30.4138
48.7729 1013 31.8277
48.8904 1089 33
49.008 1206 34.7275
49.1255 1159 34.0441
49.243 1279 35.7631
49.3605 1231 35.0856
49.478 1297 36.0139
49.5955 1242 35.242
49.713 1294 35.9722
49.8304 1227 35.0286
49.9479 1253 35.3977
50.0653 1198 34.6121
50.1827 1284 35.8329
50.3001 1345 36.6742
50.4175 1340 36.606
50.5348 1466 38.2884
50.6521 1484 38.5227
50.7694 1433 37.855
50.8867 1479 38.4578
51.004 1523 39.0256
51.1212 1580 39.7492
51.2384 1642 40.5216
51.3556 1564 39.5474
51.4727 1559 39.4842
51.5899 1520 38.9872
51.707 1459 38.1969
51.824 1357 36.8375
51.9411 1297 36.0139
52.0581 1328 36.4417
52.175 1360 36.8782
52.2919 1422 37.7094
52.4088 1709 41.3401
52.5257 1841 42.9069
52.6425 1874 43.2897
52.7593 1946 44.1135
52.876 1927 43.8976
52.9927 1967 44.3509
53.1094 2012 44.8553
53.226 2042 45.1885
53.3426 2048 45.2548
53.4591 2006 44.7884
53.5756 1995 44.6654
53.692 2015 44.8888
53.8084 2053 45.31
53.9248 2068 45.4753
54.0411 2193 46.8295
54.1573 2148 46.3465
54.2735 0 1
54.3896 0 1
54.5057 0 1
54.6217 0 1
54.7377 0 1
54.8537 0 1
54.9695 0 1
55.0853 0 1
55.2011 0 1
55.3168 0 1
55.4324 0 1
57.824 0 1
57.9396 0 1
58.0553 0 1
58.1711 0 1
58.2869 0 1
58.4028 0 1
58.5187 0 1
58.6347 0 1
58.7508 0 1
58.8669 0 1
58.983 2198 46.8828
59.0992 2451 49.5076
59.2155 2506 50.06
59.3318 2548 50.4777
59.4482 2710 52.0577
59.5646 2709 52.0481
59.681 2664 51.614
59.7975 2680 51.7687
59.9141 2640 51.3809
60.0306 2653 51.5073
60.1473 2504 50.04
60.2639 2384 48.8262
60.3807 2191 46.8081
60.4974 2092 45.7384
60.6142 2038 45.1442
60.731 1960 44.2719
60.8479 1984 44.5421
60.9648 2092 45.7384
61.0818 2096 45.7821
61.1987 2151 46.3789
61.3158 2244 47.3709
61.4328 2331 48.2804
61.5499 2282 47.7703
61.667 2326 48.2286
61.7841 2322 48.1871
61.9013 2183 46.7226
62.0185 2143 46.2925
62.1357 2163 46.5081
62.253 2206 46.9681
62.3702 2202 46.9255
62.4875 2190 46.7974
62.6049 2284 47.7912
62.7222 2426 49.2544
62.8396 2384 48.8262
62.9569 2422 49.2138
63.0743 2419 49.1833
63.1918 2512 50.1199
63.3092 2432 49.3153
63.4267 2273 47.676
63.5441 2268 47.6235
63.6616 2186 46.7547
63.7791 2115 45.9891
63.8966 1988 44.587
64.0142 1851 43.0232
64.1317 1794 42.3556
64.2492 1746 41.7852
64.3668 1816 42.6146
64.4843 1833 42.8135
64.6019 1912 43.7264
64.7195 2015 44.8888
64.837 2116 46
64.9546 2092 45.7384
65.0722 2133 46.1844
65.1898 2081 45.618
65.3074 2038 45.1442
65.4249 2056 45.3431
65.5425 2008 44.8107
65.6601 1928 43.909
65.7777 1903 43.6234
65.8952 1860 43.1277
66.0128 1910 43.7035
66.1304 2024 44.9889
66.2479 2182 46.7119
66.3655 2264 47.5815
66.483 2316 48.1248
66.6005 2206 46.9681
66.718 2282 47.7703
66.8355 2295 47.9062
66.953 2214 47.0532
67.0705 2233 47.2546
67.1879 2265 47.592
67.3054 2062 45.4093
67.4228 1988 44.587
67.5402 1898 43.566
67.6576 1861 43.1393
67.7749 1801 42.4382
67.8923 1749 41.821
68.0096 1755 41.8927
68.1269 1876 43.3128
68.2442 2015 44.8888
68.3614 2039 45.1553
68.4787 2140 46.2601
68.5958 2108 45.913
68.713 2166 46.5403
68.8302 2224 47.1593
68.9473 2196 46.8615
69.0643 2112 45.9565
69.1814 2063 45.4203
69.2984 2012 44.8553
69.4154 1925 43.8748
69.5323 2028 45.0333
69.6492 2191 46.8081
69.7661 2290 47.8539
69.8829 2381 48.7955
69.9997 2406 49.051
70.1165 2494 49.94
70.2332 2563 50.6261
70.3499 2651 51.4879
70.4665 2479 49.7896
70.5831 2505 50.05
70.6996 2420 49.1935
70.8161 2434 49.3356
70.9326 2319 48.156
71.049 2177 46.6583
71.1653 2134 46.1952
71.2817 2024 44.9889
71.3979 1851 43.0232
71.5141 1716 41.4246
71.6303 1648 40.5956
71.7464 1469 38.3275
71.8624 0 1
71.9784 0 1
72.0944 0 1
72.2102 0 1
72.3261 0 1
72.4418 0 1
72.5575 0 1
72.6732 0 1
75.1054 0 1
75.2209 0 1
75.3365 0 1
75.4521 0 1
75.5678 0 1
75.6835 0 1
75.7993 0 1
75.9151 0 1
76.031 0 1
76.147 2154 46.4112
76.263 2291 47.8644
76.3791 2210 47.0106
76.4952 2213 47.0425
76.6113 2083 45.6399
76.7276 1972 44.4072
76.8438 1863 43.1625
76.9601 1919 43.8064
77.0765 1962 44.2945
77.1929 1991 44.6206
77.3093 2264 47.5815
77.4258 2378 48.7647
77.5423 2411 49.1019
77.6589 2406 49.051
77.7755 2295 47.9062
77.8921 2305 48.0104
78.0088 2286 47.8121
78.1256 2112 45.9565
78.2423 1904 43.6348
78.3591 1864 43.1741
78.4759 1896 43.5431
78.5928 1955 44.2154
78.7097 2211 47.0213
78.8266 2228 47.2017
78.9436 2612 51.1077
79.0606 2449 49.4874
79.1776 2417 49.163
79.2946 2529 50.2892
79.4117 2552 50.5173
79.5288 2490 49.8999
79.6459 2446 49.4571
79.7631 2295 47.9062
79.8802 2331 48.2804
79.9974 2095 45.7712
80.1147 2125 46.0977
80.2319 1918 43.795
80.3491 1805 42.4853
80.4664 1798 42.4028
80.5837 1770 42.0714
80.701 1803 42.4617
80.8183 1946 44.1135
80.9357 2096 45.7821
81.053 2144 46.3033
81.1704 2222 47.1381
81.2877 2127 46.1194
81.4051 2074 45.5412
81.5225 2048 45.2548
81.6399 2024 44.9889
81.7573 1926 43.8862
81.8747 1711 41.3642
81.9922 1566 39.5727
82.1096 1576 39.6989
82.227 1751 41.845
82.3444 1872 43.2666
82.4619 2024 44.9889
82.5793 2118 46.0217
82.6967 2236 47.2864
82.8142 2206 46.9681
82.9316 2184 46.7333
83.049 2137 46.2277
83.1664 2164 46.5188
83.2838 2033 45.0888
83.4012 2041 45.1774
83.5186 1916 43.7721
83.636 1777 42.1545
83.7534 1801 42.4382
83.8708 1631 40.3856
83.9881 1553 39.4081
84.1055 1514 38.9102
84.2228 1570 39.6232
84.3401 1674 40.9145
84.4575 1696 41.1825
84.5747 1894 43.5201
84.692 1973 44.4185
84.8093 1944 44.0908
84.9265 1945 44.1022
85.0437 1900 43.589
85.1609 2009 44.8219
85.2781 1800 42.4264
85.3952 1663 40.7799
85.5123 1502 38.7556
85.6294 1526 39.064
85.7465 1591 39.8873
85.8636 1707 41.3159
85.9806 2060 45.3872
86.0976 2224 47.1593
86.2145 2293 47.8853
86.3315 2375 48.734
86.4484 2286 47.8121
86.5652 2426 49.2544
86.682 2427 49.2646
86.7988 2369 48.6724
86.9156 2347 48.4458
87.0323 2181 46.7012
87.149 2256 47.4974
87.2657 2116 46
87.3823 2039 45.1553
87.4988 1907 43.6692
87.6154 1824 42.7083
87.7318 1908 43.6807
87.8483 1976 44.4522
87.9647 1997 44.6878
88.081 2284 47.7912
88.1973 2310 48.0625
88.3136 2359 48.5695
88.4298 2369 48.6724
88.546 2366 48.6415
88.6621 2359 48.5695
88.7781 2300 47.9583
88.8942 0 1
89.0101 0 1
89.126 0 1
89.2419 0 1
89.3577 0 1
89.4734 0 1
89.5891 0 1
89.7047 0 1
89.8203 0 1
89.9358 0 1
92.3269 0 1
92.4424 0 1
92.558 0 1
92.6736 0 1
92.7893 0 1
92.905 0 1
93.0208 0 1
93.1366 0 1
93.2525 0 1
93.3685 0 1
93.4845 0 1
93.6005 2277 47.7179
93.7167 2403 49.0204
93.8328 2321 48.1768
93.949 2263 47.571
94.0653 2310 48.0625
94.1816 2288 47.833
94.2979 2128 46.1303
94.4143 1978 44.4747
94.5307 1830 42.7785
94.6472 1794 42.3556
94.7637 1777 42.1545
94.8803 1890 43.4741
94.9969 2169 46.5725
95.1135 2395 48.9387
95.2302 2547 50.4678
95.3469 2506 50.06
95.4637 2655 51.5267
95.5805 2624 51.225
95.6973 2688 51.8459
95.8142 2659 51.5655
95.9311 2645 51.4296
96.048 2473 49.7293
96.1649 2362 48.6004
96.2819 2395 48.9387
96.3989 2176 46.6476
96.516 2244 47.3709
96.633 2085 45.6618
96.7501 1982 44.5197
96.8673 2061 45.3982
96.9844 2015 44.8888
97.1016 2107 45.9021
97.2188 2252 47.4552
97.336 2278 47.7284
97.4532 2456 49.558
97.5704 2385 48.8365
97.6877 2345 48.4252
97.805 2298 47.9375
97.9223 2197 46.8722
98.0396 1969 44.3734
98.1569 1841 42.9069
98.2743 1606 40.0749
98.3916 1602 40.025
98.509 1789 42.2966
98.6264 2099 45.8148
98.7438 2284 47.7912
98.8612 2414 49.1325
98.9786 2555 50.547
99.096 2568 50.6754
99.2134 2541 50.4083
99.3308 2545 50.448
99.4482 2654 51.517
99.5656 2559 50.5866
99.6831 2539 50.3885
99.8005 2326 48.2286
99.9179 2291 47.8644
100.035 2256 47.4974
100.153 2133 46.1844
100.27 2169 46.5725
100.388 2074 45.5412
100.505 2096 45.7821
100.622 2108 45.913
100.74 2237 47.2969
100.857 2205 46.9574
100.975 2284 47.7912
101.092 2377 48.7545
101.209 2412 49.1121
101.327 2344 48.4149
101.444 2302 47.9792
101.561 2076 45.5631
101.679 1879 43.3474
101.796 1763 41.9881
101.913 1621 40.2616
102.03 1759 41.9404
102.148 2128 46.1303
102.265 2185 46.744
102.382 2561 50.6063
102.499 2627 51.2543
102.616 2647 51.449
102.733 2657 51.5461
102.851 2733 52.2781
102.968 2793 52.8488
103.085 2685 51.817
103.202 2607 51.0588
103.319 2510 50.0999
103.436 2447 49.4672
103.552 2376 48.7442
103.669 2396 48.949
103.786 2303 47.9896
103.903 2279 47.7389
104.02 2162 46.4973
104.137 2274 47.6865
104.253 2381 48.7955
104.37 2586 50.8527
104.487 2632 51.303
104.603 2613 51.1175
104.72 2552 50.5173
104.836 2507 50.07
104.953 2401 49
105.069 2203 46.9361
105.186 2005 44.7772
105.302 1846 42.9651
105.418 1904 43.6348
105.535 2052 45.299
105.651 2445 49.4469
105.767 2619 51.1762
105.883 2804 52.9528
105.999 2895 53.8052
106.115 0 1
106.231 0 1
106.347 0 1
106.463 0 1
106.579 0 1
106.694 0 1
106.81 0 1
106.926 0 1
107.041 0 1
107.157 0 1
109.576 0 1
109.692 0 1
109.807 0 1
109.923 0 1
110.039 0 1
110.155 0 1
110.27 0 1
110.386 0 1
110.502 0 1
110.618 1949 44.1475
110.735 2442 49.4166
110.851 2613 51.1175
110.967 2692 51.8845
111.083 2730 52.2494
111.199 3026 55.0091
111.316 2909 53.9351
111.432 2953 54.3415
111.549 2854 53.4228
111.665 2878 53.647
111.782 2723 52.1824
111.898 2683 51.7977
112.015 2551 50.5074
112.132 2454 49.5379
112.248 2430 49.295
112.365 2391 48.8979
112.482 2308 48.0416
112.599 2387 48.8569
112.716 2413 49.1223
112.832 2484 49.8397
112.949 2634 51.3225
113.066 2529 50.2892
113.183 2630 51.2835
113.3 2553 50.5272
113.417 2451 49.5076
113.534 2382 48.8057
113.652 2200 46.9042
113.769 1966 44.3396
113.886 1805 42.4853
114.003 1766 42.0238
114.12 1938 44.0227
114.238 2235 47.2758
114.355 2591 50.9019
114.472 2657 51.5461
114.589 2889 53.7494
114.707 2865 53.5257
114.824 2886 53.7215
114.942 2908 53.9259
115.059 2926 54.0925
115.176 2875 53.619
115.294 2906 53.9073
115.411 2762 52.5547
115.529 2639 51.3712
115.646 2700 51.9615
115.764 2610 51.0882
115.881 2613 51.1175
115.999 2605 51.0392
116.116 2617 51.1566
116.234 2662 51.5946
116.351 2621 51.1957
116.469 2734 52.2877
116.586 2650 51.4782
116.704 2742 52.3641
116.821 2642 51.4004
116.939 2562 50.6162
117.056 2665 51.6236
117.174 2466 49.6588
117.291 2161 46.4866
117.409 1912 43.7264
117.526 1789 42.2966
117.644 1917 43.7836
117.761 2123 46.076
117.879 2499 49.99
117.996 2781 52.7352
118.114 2910 53.9444
118.231 2973 54.5252
118.349 3096 55.6417
118.466 3050 55.2268
118.584 2984 54.626
118.701 3125 55.9017
118.819 2999 54.7631
118.936 2880 53.6656
119.053 2638 51.3615
119.171 2710 52.0577
119.288 2625 51.2348
119.405 2606 51.049
119.523 2678 51.7494
119.64 2690 51.8652
119.757 2625 51.2348
119.875 2665 51.6236
119.992 2549 50.4876
120.109 2639 51.3712
120.226 2611 51.0979
120.343 2551 50.5074
120.46 2599 50.9804
120.578 2529 50.2892
120.695 2491 49.9099
120.812 2462 49.6185
120.929 2150 46.3681
121.046 2076 45.5631
121.163 1894 43.5201
121.279 1830 42.7785
121.396 2069 45.4863
121.513 2298 47.9375
121.63 2640 51.3809
121.747 2833 53.2259
121.863 2918 54.0185
121.98 2865 53.5257
122.097 3008 54.8452
122.213 2887 53.7308
122.33 2981 54.5985
122.446 2999 54.7631
122.563 2820 53.1037
122.679 2720 52.1536
122.795 2816 53.066
122.912 2657 51.5461
123.028 2585 50.8429
123.144 2626 51.2445
123.26 2441 49.4065
123.377 0 1
123.493 0 1
123.609 0 1
123.725 0 1
123.84 0 1
123.956 0 1
124.072 0 1
124.188 0 1
124.303 0 1
124.419 0 1
126.852 0 1
126.968 0 1
127.083 0 1
127.199 0 1
127.315 0 1
127.431 0 1
127.547 0 1
127.663 0 1
127.779 0 1
127.895 0 1
128.011 0 1
128.127 0 1
128.243 0 1
128.359 2893 53.7866
128.476 2936 54.1849
128.592 2863 53.507
128.708 2817 53.0754
128.825 2951 54.3231
128.941 2785 52.7731
129.058 2877 53.6377
129.174 2904 53.8888
129.291 2892 53.7773
129.408 2875 53.619
129.524 2874 53.6097
129.641 2819 53.0943
129.758 2658 51.5558
129.875 2273 47.676
129.992 2190 46.7974
130.108 2036 45.1221
130.225 1971 44.3959
130.342 2247 47.4025
130.459 2487 49.8698
130.576 2843 53.3198
130.693 3055 55.2721
130.81 3039 55.1271
130.928 3162 56.2317
131.045 3149 56.116
131.162 3258 57.0789
131.279 3234 56.8683
131.396 3176 56.356
131.513 3126 55.9106
131.631 3192 56.4978
131.748 3131 55.9553
131.865 3080 55.4977
131.983 3069 55.3986
132.1 3003 54.7996
132.217 3139 56.0268
132.335 3112 55.7853
132.452 3020 54.9545
132.57 2899 53.8424
132.687 3067 55.3805
132.804 3142 56.0535
132.922 3085 55.5428
133.039 3000 54.7723
133.157 2942 54.2402
133.274 2842 53.3104
133.392 2523 50.2295
133.509 2309 48.0521
133.627 2187 46.7654
133.744 2059 45.3762
133.862 2169 46.5725
133.979 2402 49.0102
134.097 2803 52.9434
134.214 2925 54.0833
134.332 3130 55.9464
134.449 3253 57.0351
134.567 3194 56.5155
134.684 3100 55.6776
134.802 3213 56.6833
134.919 3188 56.4624
135.037 3213 56.6833
135.154 3083 55.5248
135.272 3168 56.285
135.389 3045 55.1815
135.507 3111 55.7763
135.624 3031 55.0545
135.742 2970 54.4977
135.859 3087 55.5608
135.977 3072 55.4256
136.094 3127 55.9196
136.211 3010 54.8635
136.329 3043 55.1634
136.446 3152 56.1427
136.564 3012 54.8817
136.681 3120 55.857
136.798 2946 54.2771
136.915 2743 52.3737
137.033 2508 50.0799
137.15 2263 47.571
137.267 2124 46.0869
137.384 1984 44.5421
137.502 2130 46.1519
137.619 2339 48.3632
137.736 2784 52.7636
137.853 2902 53.8702
137.97 3136 56
138.087 3037 55.109
138.204 3082 55.5158
138.321 3177 56.3649
138.438 3259 57.0877
138.555 3194 56.5155
138.672 3316 57.5847
138.788 3212 56.6745
138.905 3124 55.8928
139.022 3127 55.9196
139.139 3091 55.5968
139.255 3160 56.2139
139.372 3007 54.8361
139.488 3095 55.6327
139.605 3108 55.7494
139.721 3072 55.4256
139.838 3081 55.5068
139.954 3027 55.0182
140.071 2942 54.2402
140.187 3035 55.0908
140.303 3058 55.2992
140.419 2845 53.3385
140.535 2718 52.1344
140.652 2493 49.93
140.768 0 1
140.884 0 1
141 0 1
141.115 0 1
141.231 0 1
141.347 0 1
141.463 0 1
141.578 0 1
141.694 0 1
144.104 0 1
144.219 0 1
144.335 0 1
144.45 0 1
144.566 0 1
144.682 0 1
144.798 0 1
144.914 0 1
145.03 0 1
145.146 2042 45.1885
145.262 2394 48.9285
145.378 2383 48.816
145.494 2403 49.0204
145.61 2345 48.4252
145.726 2209 47
145.842 2042 45.1885
145.959 1862 43.1509
146.075 1823 42.6966
146.192 1786 42.2611
146.308 1809 42.5323
146.425 1919 43.8064
146.541 2133 46.1844
146.658 2129 46.1411
146.774 2336 48.3322
146.891 2534 50.3389
147.008 2663 51.6043
147.125 2584 50.8331
147.241 2730 52.2494
147.358 2733 52.2781
147.475 2668 51.6527
147.592 2663 51.6043
147.709 2744 52.3832
147.826 2812 53.0283
147.943 2637 51.3517
148.06 2647 51.449
148.177 2759 52.5262
148.294 2644 51.4198
148.411 2604 51.0294
148.528 2615 51.1371
148.645 2531 50.309
148.762 2585 50.8429
148.88 2618 51.1664
148.997 2600 50.9902
149.114 2620 51.1859
149.231 2610 51.0882
149.349 2600 50.9902
149.466 2516 50.1597
149.583 2347 48.4458
149.701 2248 47.4131
149.818 2030 45.0555
149.935 1857 43.0929
150.053 1896 43.5431
150.17 1965 44.3283
150.287 2068 45.4753
150.405 2212 47.0319
150.522 2409 49.0816
150.64 2513 50.1298
150.757 2683 51.7977
150.875 2752 52.4595
150.992 2757 52.5071
151.11 2746 52.4023
151.227 2803 52.9434
151.344 2857 53.4509
151.462 2712 52.0769
151.579 2877 53.6377
151.697 2892 53.7773
151.814 2790 52.8205
151.932 2749 52.4309
152.049 2825 53.1507
152.167 2805 52.9623
152.284 2776 52.6878
152.402 2751 52.45
152.519 2716 52.1153
152.636 2860 53.479
152.754 2633 51.3128
152.871 2746 52.4023
152.989 2745 52.3927
153.106 2555 50.547
153.223 2410 49.0918
153.341 2261 47.55
153.458 2078 45.5851
153.575 1986 44.5646
153.693 2028 45.0333
153.81 2159 46.465
153.927 2214 47.0532
154.044 2304 48
154.162 2536 50.3587
154.279 2635 51.3323
154.396 2777 52.6972
154.513 2806 52.9717
154.63 2945 54.2679
154.747 2972 54.5161
154.864 2990 54.6809
154.981 2930 54.1295
155.098 2982 54.6077
155.215 3024 54.9909
155.332 2930 54.1295
155.449 2876 53.6284
155.566 2972 54.5161
155.683 2914 53.9815
155.8 2927 54.1018
155.917 2782 52.7447
156.033 2903 53.8795
156.15 0 1
156.267 0 1
156.383 0 1
156.5 0 1
156.617 0 1
156.733 0 1
156.85 0 1
156.966 0 1
157.082 0 1
157.199 0 1
157.315 0 1
157.431 0 1
157.547 0 1
157.664 0 1
157.78 0 1
157.896 0 1
158.012 0 1
158.128 0 1
158.244 0 1
158.359 0 1
158.475 0 1
158.591 0 1
158.706 0 1
