
6.15755 0 1
6.2731 0 1
6.3887 0 1
6.50437 0 1
6.62009 0 1
6.73587 0 1
6.8517 0 1
6.96759 0 1
7.08353 0 1
7.19952 0 1
7.31557 0 1
7.43166 0 1
7.54781 0 1
7.664 0 1
7.78024 0 1
7.89653 0 1
8.01286 0 1
8.12924 0 1
8.24567 0 1
8.36213 0 1
8.47864 0 1
8.59519 0 1
8.71178 0 1
8.82841 0 1
8.94508 0 1
9.06179 0 1
9.17853 0 1
9.29531 0 1
9.41212 0 1
9.52897 0 1
9.64584 0 1
9.76276 0 1
9.8797 0 1
9.99667 0 1
10.1137 0 1
10.2307 0 1
10.3478 0 1
10.4648 0 1
10.5819 0 1
10.6991 0 1
10.8162 0 1
10.9334 0 1
11.0506 0 1
11.1678 0 1
11.285 0 1
11.4023 0 1
11.5196 0 1
11.6369 0 1
11.7542 0 1
11.8715 0 1
11.9888 0 1
12.1062 0 1
12.2235 0 1
12.3409 0 1
12.4582 0 1
12.5756 0 1
12.693 0 1
12.8104 0 1
12.9278 0 1
13.0452 0 1
13.1626 0 1
13.28 0 1
13.3974 0 1
13.5149 0 1
13.6323 0 1
13.7497 0 1
13.8671 0 1
13.9845 0 1
14.1019 0 1
14.2193 0 1
14.3367 0 1
14.4541 0 1
14.5714 0 1
14.6888 0 1
14.8062 0 1
14.9235 0 1
15.0408 11151 105.598
15.1581 11581 107.615
15.2755 11563 107.531
15.3927 11468 107.089
15.51 11267 106.146
15.6273 11119 105.447
15.7445 11127 105.485
15.8617 10994 104.852
15.9789 11315 106.372
16.0961 11379 106.672
16.2132 12108 110.036
16.3304 12619 112.334
16.4475 12812 113.19
16.5646 13264 115.169
16.6816 13224 114.996
16.7986 13226 115.004
16.9156 12974 113.903
17.0326 13004 114.035
17.1496 12887 113.521
17.2665 12872 113.455
17.3833 12777 113.035
17.5002 12833 113.283
17.617 12989 113.969
17.7338 13124 114.56
17.8505 13392 115.724
17.9672 13888 117.847
18.0839 13974 118.212
18.2005 14335 119.729
18.3171 14469 120.287
18.4337 14943 122.242
18.5502 15027 122.585
18.6666 15208 123.321
18.7831 15221 123.373
18.8994 15047 122.666
19.0158 14805 121.676
19.1321 14512 120.466
19.2483 14031 118.453
19.3645 13683 116.974
19.4806 13723 117.145
19.5967 14064 118.592
19.7128 14647 121.025
19.8288 14796 121.639
19.9447 13749 117.256
20.0606 0 1
20.1764 0 1
20.2922 0 1
20.4079 0 1
20.5236 0 1
20.6392 0 1
20.7548 0 1
20.8702 0 1
23.3078 0 1
23.4233 0 1
23.539 0 1
23.6547 0 1
23.7704 0 1
23.8862 0 1
24.0021 0 1
24.118 0 1
24.234 0 1
24.35 0 1
24.4661 13907 117.928
24.5822 14321 119.67
24.6984 14265 119.436
24.8146 14866 121.926
24.9309 15366 123.96
25.0472 16060 126.728
25.1636 16354 127.883
25.28 16283 127.605
25.3965 16477 128.363
25.513 15960 126.333
25.6296 16018 126.562
25.7462 15897 126.083
25.8628 15534 124.635
25.9795 15591 124.864
26.0962 15642 125.068
26.213 15715 125.359
26.3298 16289 127.628
26.4466 16460 128.297
26.5635 16824 129.707
26.6804 17291 131.495
26.7973 17586 132.612
26.9143 17964 134.03
27.0313 18075 134.443
27.1483 18485 135.96
27.2653 18720 136.821
27.3824 18531 136.129
27.4996 18095 134.518
27.6167 17899 133.787
27.7339 17239 131.297
27.8511 16797 129.603
27.9683 16341 127.832
28.0855 15522 124.587
28.2028 15610 124.94
28.3201 15516 124.563
28.4374 16169 127.157
28.5547 16773 129.511
28.6721 17131 130.885
28.7894 17388 131.864
28.9068 17612 132.71
29.0242 17456 132.121
29.1416 16607 128.868
29.259 16115 126.945
29.3764 15507 124.527
29.4939 15258 123.523
29.6113 15444 124.274
29.7288 15495 124.479
29.8463 15981 126.416
29.9638 16479 128.371
30.0812 16752 129.43
30.1987 17074 130.668
30.3162 17602 132.673
30.4337 18021 134.242
30.5512 18458 135.86
30.6687 18360 135.499
30.7862 18755 136.949
30.9037 18987 137.793
31.0212 18804 137.128
31.1387 18313 135.326
31.2562 17879 133.712
31.3737 17680 132.966
31.4912 17041 130.541
31.6087 16462 128.304
31.7262 16170 127.161
31.8436 15995 126.471
31.9611 16347 127.855
32.0785 17129 130.878
32.1959 17805 133.435
32.3134 17780 133.342
32.4308 18064 134.402
32.5482 17794 133.394
32.6655 17400 131.909
32.7829 16886 129.946
32.9002 16433 128.191
33.0176 16091 126.85
33.1349 16261 127.519
33.2522 16246 127.46
33.3694 15759 125.535
33.4867 16398 128.055
33.6039 16987 130.334
33.7211 17213 131.198
33.8383 17855 133.623
33.9554 18459 135.864
34.0725 18356 135.484
34.1896 18886 137.426
34.3067 19222 138.643
34.4237 19004 137.855
34.5407 19201 138.568
34.6577 19430 139.392
34.7746 19098 138.196
34.8915 18414 135.698
35.0084 18038 134.306
35.1252 17815 133.473
35.242 17223 131.236
35.3587 16856 129.831
35.4755 16682 129.159
35.5921 16677 129.139
35.7088 16940 130.154
35.8254 17635 132.797
35.9419 18055 134.369
36.0584 18527 136.114
36.1749 18488 135.971
36.2913 18190 134.87
36.4077 17864 133.656
36.524 16973 130.28
36.6403 16430 128.18
36.7565 16266 127.538
36.8727 15716 125.363
36.9889 15908 126.127
37.1049 15904 126.111
37.221 0 1
37.3369 0 1
37.4529 0 1
37.5687 0 1
37.6845 0 1
37.8003 0 1
37.916 0 1
38.0316 0 1
38.1472 0 1
40.5851 0 1
40.7008 0 1
40.8164 0 1
40.9322 0 1
41.048 0 1
41.1639 0 1
41.2798 0 1
41.3958 0 1
41.5118 0 1
41.6279 0 1
41.744 13478 116.095
41.8602 13982 118.246
41.9765 13839 117.639
42.0928 13951 118.114
42.2091 14002 118.33
42.3255 14586 120.773
42.4419 15372 123.984
42.5584 16013 126.542
42.675 16292 127.64
42.7915 16922 130.085
42.9081 17324 131.621
43.0248 17363 131.769
43.1415 17596 132.65
43.2582 17682 132.974
43.375 17703 133.053
43.4918 17678 132.959
43.6087 17268 131.408
43.7256 16724 129.321
43.8425 16593 128.814
43.9595 16200 127.279
44.0765 15298 123.685
44.1935 15061 122.723
44.3106 14462 120.258
44.4277 14593 120.801
44.5448 14723 121.338
44.6619 15025 122.577
44.7791 15364 123.952
44.8963 15181 123.211
45.0136 14958 122.303
45.1308 14178 119.071
45.2481 13783 117.401
45.3654 12934 113.728
45.4827 12192 110.417
45.6001 12200 110.454
45.7174 11921 109.183
45.8348 12429 111.485
45.9522 12910 113.622
46.0697 13427 115.875
46.1871 13700 117.047
46.3046 14133 118.882
46.422 14566 120.69
46.5395 14604 120.847
46.657 15110 122.923
46.7745 15100 122.882
46.892 15058 122.711
47.0096 14782 121.581
47.1271 14577 120.735
47.2446 14366 119.858
47.3622 14008 118.355
47.4797 13774 117.363
47.5973 13106 114.481
47.7149 12852 113.367
47.8324 12308 110.941
47.95 12263 110.738
48.0675 12043 109.741
48.1851 12598 112.241
48.3027 12834 113.287
48.4202 12926 113.693
48.5378 12562 112.08
48.6554 12038 109.718
48.7729 11397 106.757
48.8904 10902 104.413
49.008 10357 101.769
49.1255 10125 100.623
49.243 10134 100.668
49.3605 10389 101.926
49.478 10909 104.446
49.5955 11489 107.187
49.713 11993 109.513
49.8304 12379 111.261
49.9479 12899 113.574
50.0653 13439 115.927
50.1827 13861 117.733
50.3001 13736 117.201
50.4175 14145 118.933
50.5348 14350 119.791
50.6521 14514 120.474
50.7694 14333 119.721
50.8867 14186 119.105
51.004 14105 118.764
51.1212 14054 118.55
51.2384 13889 117.852
51.3556 13837 117.631
51.4727 13710 117.09
51.5899 14028 118.44
51.707 14758 121.483
51.824 15182 123.215
51.9411 15825 125.797
52.0581 16076 126.791
52.175 15705 125.32
52.2919 15341 123.859
52.4088 14270 119.457
52.5257 13986 118.262
52.6425 13815 117.537
52.7593 13755 117.282
52.876 14046 118.516
52.9927 14584 120.764
53.1094 15885 126.036
53.226 16969 130.265
53.3426 17884 133.731
53.4591 18789 137.073
53.5756 19801 140.716
53.692 20285 142.425
53.8084 20632 143.638
53.9248 20512 143.22
54.0411 21150 145.43
54.1573 21885 147.936
54.2735 0 1
54.3896 0 1
54.5057 0 1
54.6217 0 1
54.7377 0 1
54.8537 0 1
54.9695 0 1
55.0853 0 1
55.2011 0 1
55.3168 0 1
55.4324 0 1
57.824 0 1
57.9396 0 1
58.0553 0 1
58.1711 0 1
58.2869 0 1
58.4028 0 1
58.5187 0 1
58.6347 0 1
58.7508 0 1
58.8669 0 1
58.983 23751 154.114
59.0992 25197 158.736
59.2155 25420 159.437
59.3318 25683 160.259
59.4482 25335 159.17
59.5646 24959 157.984
59.681 24725 157.242
59.7975 24042 155.055
59.9141 23855 154.451
60.0306 23513 153.339
60.1473 23624 153.701
60.2639 23544 153.441
60.3807 23484 153.245
60.4974 23362 152.846
60.6142 22953 151.502
60.731 22807 151.02
60.8479 21450 146.458
60.9648 20597 143.517
61.0818 19594 139.979
61.1987 18432 135.765
61.3158 18418 135.713
61.4328 18513 136.062
61.5499 19131 138.315
61.667 19811 140.752
61.7841 20953 144.752
61.9013 22009 148.354
62.0185 22620 150.399
62.1357 23531 153.398
62.253 24236 155.679
62.3702 24435 156.317
62.4875 24784 157.429
62.6049 24858 157.664
62.7222 24932 157.899
62.8396 24979 158.047
62.9569 24231 155.663
63.0743 24102 155.248
63.1918 23509 153.326
63.3092 23160 152.184
63.4267 22836 151.116
63.5441 22620 150.399
63.6616 22201 149
63.7791 22328 149.426
63.8966 22503 150.01
64.0142 22719 150.728
64.1317 22410 149.7
64.2492 21901 147.99
64.3668 21080 145.19
64.4843 19611 140.039
64.6019 18588 136.338
64.7195 17869 133.675
64.837 17370 131.795
64.9546 17202 131.156
65.0722 17823 133.503
65.1898 18345 135.444
65.3074 19904 141.082
65.4249 20328 142.576
65.5425 21648 147.133
65.6601 22881 151.265
65.7777 23509 153.326
65.8952 24152 155.409
66.0128 24575 156.764
66.1304 24359 156.074
66.2479 24625 156.924
66.3655 24662 157.041
66.483 24631 156.943
66.6005 24456 156.384
66.718 24335 155.997
66.8355 23885 154.548
66.953 23643 153.763
67.0705 23193 152.292
67.1879 23142 152.125
67.3054 22914 151.374
67.4228 23323 152.719
67.5402 23567 153.515
67.6576 23876 154.519
67.7749 23673 153.86
67.8923 23230 152.414
68.0096 22322 149.405
68.1269 21233 145.715
68.2442 20008 141.45
68.3614 19080 138.13
68.4787 18633 136.503
68.5958 18073 134.436
68.713 18938 137.615
68.8302 20097 141.764
68.9473 21330 146.048
69.0643 22905 151.344
69.1814 24442 156.339
69.2984 25264 158.947
69.4154 26847 163.851
69.5323 27789 166.7
69.6492 28452 168.677
69.7661 29059 170.467
69.8829 29143 170.713
69.9997 29140 170.704
70.1165 29508 171.779
70.2332 29497 171.747
70.3499 29624 172.116
70.4665 29009 170.32
70.5831 28719 169.467
70.6996 28342 168.351
70.8161 27868 166.937
70.9326 27884 166.985
71.049 27578 166.066
71.1653 27927 167.114
71.2817 28069 167.538
71.3979 27812 166.769
71.5141 26860 163.89
71.6303 24965 158.003
71.7464 21418 146.349
71.8624 0 1
71.9784 0 1
72.0944 0 1
72.2102 0 1
72.3261 0 1
72.4418 0 1
72.5575 0 1
72.6732 0 1
75.1054 0 1
75.2209 0 1
75.3365 0 1
75.4521 0 1
75.5678 0 1
75.6835 0 1
75.7993 0 1
75.9151 0 1
76.031 0 1
76.147 27250 165.076
76.263 29092 170.564
76.3791 30333 174.164
76.4952 31130 176.437
76.6113 31746 178.174
76.7276 32271 179.641
76.8438 31434 177.296
76.9601 29748 172.476
77.0765 27423 165.599
77.1929 25308 159.085
77.3093 23378 152.899
77.4258 22292 149.305
77.5423 21479 146.557
77.6589 22106 148.681
77.7755 23237 152.437
77.8921 25702 160.318
78.0088 27989 167.299
78.1256 30386 174.316
78.2423 32123 179.229
78.3591 33579 183.246
78.4759 34355 185.351
78.5928 34933 186.904
78.7097 35259 187.774
78.8266 34086 184.624
78.9436 36675 191.507
79.0606 35186 187.579
79.1776 34740 186.387
79.2946 34386 185.435
79.4117 34370 185.391
79.5288 33372 182.68
79.6459 33192 182.187
79.7631 32383 179.953
79.8802 31558 177.646
79.9974 31868 178.516
80.1147 32585 180.513
80.2319 32714 180.87
80.3491 33299 182.48
80.4664 33353 182.628
80.5837 32084 179.12
80.701 29737 172.444
80.8183 26619 163.153
80.9357 24292 155.859
81.053 22584 150.28
81.1704 21720 147.377
81.2877 21129 145.358
81.4051 22163 148.872
81.5225 24155 155.419
81.6399 27000 164.317
81.7573 29334 171.272
81.8747 30869 175.696
81.9922 32485 180.236
82.1096 33833 183.937
82.227 34214 184.97
82.3444 34281 185.151
82.4619 34362 185.37
82.5793 34974 187.013
82.6967 33945 184.242
82.8142 33861 184.014
82.9316 33414 182.795
83.049 32887 181.348
83.1664 32318 179.772
83.2838 31743 178.166
83.4012 31207 176.655
83.5186 30392 174.333
83.636 30043 173.329
83.7534 30940 175.898
83.8708 31375 177.13
83.9881 31942 178.723
84.1055 31760 178.213
84.2228 30228 173.862
84.3401 28297 168.217
84.4575 25988 161.208
84.5747 23671 153.854
84.692 22140 148.795
84.8093 20795 144.205
84.9265 20954 144.755
85.0437 22227 149.087
85.1609 24401 156.208
85.2781 27325 165.303
85.3952 30047 173.341
85.5123 32070 179.081
85.6294 34498 185.736
85.7465 36096 189.989
85.8636 36830 191.911
85.9806 37436 193.484
86.0976 38269 195.625
86.2145 38724 196.784
86.3315 40141 200.352
86.4484 37900 194.679
86.5652 39581 198.95
86.682 39858 199.645
86.7988 39544 198.857
86.9156 39287 198.209
87.0323 39152 197.869
87.149 39055 197.623
87.2657 39090 197.712
87.3823 39902 199.755
87.4988 40726 201.807
87.6154 41493 203.698
87.7318 41475 203.654
87.8483 38952 197.363
87.9647 36350 190.657
88.081 33411 182.787
88.1973 30305 174.083
88.3136 28542 168.944
88.4298 27882 166.979
88.546 28246 168.065
88.6621 30116 173.54
88.7781 33493 183.011
88.8942 0 1
89.0101 0 1
89.126 0 1
89.2419 0 1
89.3577 0 1
89.4734 0 1
89.5891 0 1
89.7047 0 1
89.8203 0 1
89.9358 0 1
92.3269 0 1
92.4424 0 1
92.558 0 1
92.6736 0 1
92.7893 0 1
92.905 0 1
93.0208 0 1
93.1366 0 1
93.2525 0 1
93.3685 0 1
93.4845 0 1
93.6005 31185 176.593
93.7167 30628 175.009
93.8328 30786 175.459
93.949 31666 177.949
94.0653 33432 182.844
94.1816 37228 192.946
94.2979 40338 200.843
94.4143 43702 209.05
94.5307 46005 214.488
94.6472 48778 220.857
94.7637 49382 222.221
94.8803 50553 224.84
94.9969 50457 224.626
95.1135 50886 225.579
95.2302 51607 227.172
95.3469 51315 226.528
95.4637 51524 226.989
95.5805 51269 226.427
95.6973 51370 226.65
95.8142 51098 226.049
95.9311 50416 224.535
96.048 49586 222.679
96.1649 49368 222.189
96.2819 48490 220.204
96.3989 48744 220.78
96.516 49880 223.338
96.633 50546 224.824
96.7501 50230 224.121
96.8673 49065 221.506
96.9844 45591 213.52
97.1016 42044 205.046
97.2188 38965 197.396
97.336 35860 189.367
97.4532 33042 181.775
97.5704 31922 178.667
97.6877 32469 180.192
97.805 34497 185.734
97.9223 37876 194.618
98.0396 41200 202.978
98.1569 44562 211.097
98.2743 47267 217.41
98.3916 50227 224.114
98.509 51951 227.928
98.6264 52599 229.345
98.7438 52919 230.041
98.8612 53189 230.627
98.9786 53488 231.275
99.096 52983 230.18
99.2134 52269 228.624
99.3308 52876 229.948
99.4482 52913 230.028
99.5656 52798 229.778
99.6831 51698 227.372
99.8005 51047 225.936
99.9179 50995 225.821
100.035 50170 223.987
100.153 51629 227.22
100.27 53036 230.295
100.388 52179 228.427
100.505 50306 224.29
100.622 47117 217.065
100.74 43335 208.171
100.857 39687 199.216
100.975 36400 190.788
101.092 33909 184.144
101.209 33399 182.754
101.327 34328 185.278
101.444 36930 192.172
101.561 41073 202.665
101.679 44985 212.097
101.796 48597 220.447
101.913 51630 227.222
102.03 53648 231.62
102.148 54042 232.469
102.265 53679 231.687
102.382 56572 237.849
102.499 55923 236.48
102.616 55229 235.009
102.733 54673 233.823
102.851 55004 234.529
102.968 55614 235.826
103.085 55285 235.128
103.202 54627 233.724
103.319 54105 232.605
103.436 52675 229.51
103.552 53350 230.976
103.669 53814 231.978
103.786 55165 234.872
103.903 55154 234.849
104.02 53390 231.063
104.137 50894 225.597
104.253 47101 217.028
104.37 43675 208.986
104.487 40099 200.247
104.603 37297 193.124
104.72 36201 190.266
104.836 37189 192.844
104.953 39738 199.344
105.069 43680 208.998
105.186 47909 218.881
105.302 51656 227.28
105.418 55109 234.753
105.535 57526 239.846
105.651 58391 241.642
105.767 58957 242.811
105.883 59429 243.781
105.999 58946 242.788
106.115 0 1
106.231 0 1
106.347 0 1
106.463 0 1
106.579 0 1
106.694 0 1
106.81 0 1
106.926 0 1
107.041 0 1
107.157 0 1
109.576 0 1
109.692 0 1
109.807 0 1
109.923 0 1
110.039 0 1
110.155 0 1
110.27 0 1
110.386 0 1
110.502 0 1
110.618 52217 228.51
110.735 53320 230.911
110.851 54798 234.09
110.967 55020 234.563
111.083 55182 234.908
111.199 54544 233.547
111.316 54908 234.325
111.432 54981 234.48
111.549 54777 234.045
111.665 54017 232.416
111.782 53077 230.384
111.898 51838 227.68
112.015 52212 228.499
112.132 52888 229.974
112.248 53417 231.121
112.365 53267 230.796
112.482 50054 223.728
112.599 49641 222.803
112.716 44949 212.012
112.832 42012 204.968
112.949 38724 196.784
113.066 36001 189.739
113.183 34577 185.949
113.3 34999 187.08
113.417 36163 190.166
113.534 38771 196.904
113.652 42055 205.073
113.769 45268 212.763
113.886 48409 220.02
114.003 49498 222.481
114.12 51258 226.402
114.238 51466 226.861
114.355 51702 227.381
114.472 51370 226.65
114.589 52031 228.103
114.707 50041 223.698
114.824 50177 224.002
114.942 50785 225.355
115.059 51436 226.795
115.176 51281 226.453
115.294 50748 225.273
115.411 49552 222.603
115.529 49350 222.149
115.646 49195 221.799
115.764 50704 225.175
115.881 50919 225.652
115.999 50470 224.655
116.116 49005 221.371
116.234 46284 215.137
116.351 43444 208.432
116.469 40926 202.302
116.586 37288 193.101
116.704 35537 188.513
116.821 34775 186.481
116.939 34948 186.944
117.056 36213 190.297
117.174 38793 196.959
117.291 41403 203.477
117.409 44353 210.602
117.526 47056 216.924
117.644 48910 221.156
117.761 49912 223.41
117.879 50657 225.071
117.996 50561 224.858
118.114 50925 225.666
118.231 50251 224.167
118.349 49636 222.791
118.466 49043 221.457
118.584 50405 224.511
118.701 49878 223.334
118.819 49658 222.841
118.936 49007 221.375
119.053 47865 218.781
119.171 46801 216.335
119.288 48088 219.29
119.405 48471 220.161
119.523 49245 221.912
119.64 48566 220.377
119.757 47431 217.787
119.875 45569 213.469
119.992 43422 208.379
120.109 40821 202.042
120.226 37660 194.062
120.343 35647 188.804
120.46 34512 185.774
120.578 34042 184.505
120.695 34756 186.43
120.812 35962 189.636
120.929 38374 195.893
121.046 41209 203
121.163 43648 208.921
121.279 45895 214.231
121.396 46811 216.358
121.513 47824 218.687
121.63 49042 221.454
121.747 48196 219.536
121.863 48355 219.898
121.98 47913 218.89
122.097 46723 216.155
122.213 46499 215.636
122.33 47406 217.729
122.446 47549 218.057
122.563 46730 216.171
122.679 46151 214.828
122.795 45376 213.016
122.912 44745 211.53
123.028 45567 213.464
123.144 45418 213.115
123.26 45714 213.808
123.377 0 1
123.493 0 1
123.609 0 1
123.725 0 1
123.84 0 1
123.956 0 1
124.072 0 1
124.188 0 1
124.303 0 1
124.419 0 1
126.852 0 1
126.968 0 1
127.083 0 1
127.199 0 1
127.315 0 1
127.431 0 1
127.547 0 1
127.663 0 1
127.779 0 1
127.895 0 1
128.011 0 1
128.127 0 1
128.243 0 1
128.359 48467 220.152
128.476 49092 221.567
128.592 48534 220.304
128.708 47145 217.129
128.825 45712 213.804
128.941 42844 206.988
129.058 40817 202.032
129.174 38851 197.107
129.291 37946 194.797
129.408 37472 193.577
129.524 37682 194.119
129.641 38903 197.238
129.758 40643 201.601
129.875 42866 207.041
129.992 45295 212.826
130.108 46693 216.086
130.225 47444 217.816
130.342 48725 220.737
130.459 47695 218.392
130.576 49727 222.996
130.693 48172 219.481
130.81 47222 217.306
130.928 47062 216.938
131.045 47297 217.479
131.162 48601 220.456
131.279 49074 221.527
131.396 48806 220.921
131.513 48087 219.287
131.631 47816 218.669
131.748 47947 218.968
131.865 49150 221.698
131.983 48770 220.839
132.1 48206 219.559
132.217 47449 217.828
132.335 45956 214.374
132.452 43921 209.573
132.57 41909 204.717
132.687 38852 197.109
132.804 38160 195.346
132.922 37097 192.606
133.039 36650 191.442
133.157 37609 193.93
133.274 39001 197.487
133.392 40719 201.789
133.509 42591 206.376
133.627 44214 210.271
133.744 45602 213.546
133.862 46145 214.814
133.979 45980 214.429
134.097 46159 214.846
134.214 45726 213.836
134.332 46064 214.625
134.449 45128 212.434
134.567 45225 212.662
134.684 46360 215.314
134.802 46828 216.398
134.919 47384 217.679
135.037 46347 215.284
135.154 45870 214.173
135.272 46013 214.506
135.389 45922 214.294
135.507 46934 216.643
135.624 46722 216.153
135.742 46083 214.67
135.859 45601 213.544
135.977 43723 209.1
136.094 42131 205.258
136.211 40125 200.312
136.329 37972 194.864
136.446 37362 193.293
136.564 37118 192.66
136.681 36032 189.821
136.798 36837 191.93
136.915 37869 194.6
137.033 39248 198.111
137.15 41026 202.549
137.267 42651 206.521
137.384 43649 208.923
137.502 43619 208.852
137.619 43729 209.115
137.736 44284 210.438
137.853 43694 209.031
137.97 43816 209.323
138.087 42183 205.385
138.204 42441 206.012
138.321 43330 208.159
138.438 44611 211.213
138.555 45249 212.718
138.672 45171 212.535
138.788 44392 210.694
138.905 44648 211.301
139.022 45621 213.591
139.139 45565 213.46
139.255 45448 213.185
139.372 44863 211.809
139.488 44308 210.495
139.605 42896 207.113
139.721 41414 203.504
139.838 40527 201.313
139.954 38593 196.451
140.071 36696 191.562
140.187 36677 191.512
140.303 35905 189.486
140.419 35786 189.172
140.535 35896 189.462
140.652 36754 191.713
140.768 0 1
140.884 0 1
141 0 1
141.115 0 1
141.231 0 1
141.347 0 1
141.463 0 1
141.578 0 1
141.694 0 1
144.104 0 1
144.219 0 1
144.335 0 1
144.45 0 1
144.566 0 1
144.682 0 1
144.798 0 1
144.914 0 1
145.03 0 1
145.146 25641 160.128
145.262 27670 166.343
145.378 28354 168.386
145.494 28888 169.965
145.61 29301 171.175
145.726 30486 174.602
145.842 31169 176.547
145.959 32245 179.569
146.075 32601 180.557
146.192 33217 182.255
146.308 33486 182.992
146.425 33576 183.238
146.541 33526 183.101
146.658 33094 181.918
146.774 32262 179.616
146.891 32276 179.655
147.008 32546 180.405
147.125 33105 181.948
147.241 33780 183.793
147.358 34279 185.146
147.475 34562 185.909
147.592 34154 184.808
147.709 34121 184.719
147.826 34792 186.526
147.943 35045 187.203
148.06 35022 187.142
148.177 34558 185.898
148.294 34097 184.654
148.411 33663 183.475
148.528 32839 181.215
148.645 32223 179.508
148.762 31199 176.632
148.88 30509 174.668
148.997 29704 172.348
149.114 30743 175.337
149.231 30262 173.96
149.349 30110 173.522
149.466 31449 177.339
149.583 32029 178.966
149.701 32448 180.133
149.818 33049 181.794
149.935 33499 183.027
150.053 34040 184.499
150.17 34225 185
150.287 34150 184.797
150.405 33498 183.025
150.522 33019 181.711
150.64 32706 180.848
150.757 33062 181.83
150.875 33385 182.716
150.992 34151 184.8
151.11 35103 187.358
151.227 34784 186.505
151.344 34978 187.024
151.462 34564 185.914
151.579 35580 188.627
151.697 35397 188.141
151.814 35333 187.971
151.932 34945 186.936
152.049 34092 184.64
152.167 33872 184.043
152.284 33184 182.165
152.402 32320 179.778
152.519 31421 177.26
152.636 30915 175.827
152.754 30934 175.881
152.871 31008 176.091
152.989 31331 177.006
153.106 31885 178.564
153.223 32317 179.769
153.341 33014 181.698
153.458 33554 183.178
153.575 34193 184.913
153.693 34151 184.8
153.81 34469 185.658
153.927 34471 185.664
154.044 33801 183.85
154.162 33041 181.772
154.279 33330 182.565
154.396 33712 183.608
154.513 34715 186.32
154.63 35957 189.623
154.747 36424 190.851
154.864 36298 190.52
154.981 36651 191.445
155.098 36664 191.478
155.215 36780 191.781
155.332 36136 190.095
155.449 36104 190.011
155.566 36190 190.237
155.683 35178 187.558
155.8 34456 185.623
155.917 33683 183.529
156.033 33723 183.638
156.15 0 1
156.267 0 1
156.383 0 1
156.5 0 1
156.617 0 1
156.733 0 1
156.85 0 1
156.966 0 1
157.082 0 1
157.199 0 1
157.315 0 1
157.431 0 1
157.547 0 1
157.664 0 1
157.78 0 1
157.896 0 1
158.012 0 1
158.128 0 1
158.244 0 1
158.359 0 1
158.475 0 1
158.591 0 1
158.706 0 1
