
6.15755 0 1
6.2731 0 1
6.3887 0 1
6.50437 0 1
6.62009 0 1
6.73587 0 1
6.8517 0 1
6.96759 0 1
7.08353 0 1
7.19952 0 1
7.31557 0 1
7.43166 0 1
7.54781 0 1
7.664 0 1
7.78024 0 1
7.89653 0 1
8.01286 0 1
8.12924 0 1
8.24567 0 1
8.36213 0 1
8.47864 0 1
8.59519 0 1
8.71178 0 1
8.82841 0 1
8.94508 0 1
9.06179 0 1
9.17853 0 1
9.29531 0 1
9.41212 0 1
9.52897 0 1
9.64584 0 1
9.76276 0 1
9.8797 0 1
9.99667 0 1
10.1137 0 1
10.2307 0 1
10.3478 0 1
10.4648 0 1
10.5819 0 1
10.6991 0 1
10.8162 0 1
10.9334 0 1
11.0506 0 1
11.1678 0 1
11.285 0 1
11.4023 0 1
11.5196 0 1
11.6369 0 1
11.7542 0 1
11.8715 0 1
11.9888 0 1
12.1062 0 1
12.2235 0 1
12.3409 0 1
12.4582 0 1
12.5756 0 1
12.693 0 1
12.8104 0 1
12.9278 0 1
13.0452 0 1
13.1626 0 1
13.28 0 1
13.3974 0 1
13.5149 0 1
13.6323 0 1
13.7497 0 1
13.8671 0 1
13.9845 0 1
14.1019 0 1
14.2193 0 1
14.3367 0 1
14.4541 0 1
14.5714 0 1
14.6888 0 1
14.8062 0 1
14.9235 0 1
15.0408 1292 35.9444
15.1581 1264 35.5528
15.2755 1363 36.9188
15.3927 1396 37.3631
15.51 1332 36.4966
15.6273 1298 36.0278
15.7445 1322 36.3593
15.8617 1303 36.0971
15.9789 1251 35.3695
16.0961 1201 34.6554
16.2132 1211 34.7994
16.3304 1202 34.6699
16.4475 1196 34.5832
16.5646 1189 34.4819
16.6816 1210 34.7851
16.7986 1191 34.5109
16.9156 1111 33.3317
17.0326 1077 32.8177
17.1496 1100 33.1662
17.2665 1119 33.4515
17.3833 1189 34.4819
17.5002 1154 33.9706
17.617 1103 33.2114
17.7338 1136 33.7046
17.8505 1210 34.7851
17.9672 1156 34
18.0839 1174 34.2637
18.2005 1241 35.2278
18.3171 1175 34.2783
18.4337 1205 34.7131
18.5502 1221 34.9428
18.6666 1226 35.0143
18.7831 1163 34.1028
18.8994 1148 33.8821
19.0158 1128 33.5857
19.1321 1046 32.3419
19.2483 997 31.5753
19.3645 1008 31.749
19.4806 857 29.2746
19.5967 852 29.189
19.7128 909 30.1496
19.8288 901 30.0167
19.9447 797 28.2312
20.0606 0 1
20.1764 0 1
20.2922 0 1
20.4079 0 1
20.5236 0 1
20.6392 0 1
20.7548 0 1
20.8702 0 1
23.3078 0 1
23.4233 0 1
23.539 0 1
23.6547 0 1
23.7704 0 1
23.8862 0 1
24.0021 0 1
24.118 0 1
24.234 0 1
24.35 0 1
24.4661 445 21.095
24.5822 530 23.0217
24.6984 537 23.1733
24.8146 703 26.5141
24.9309 725 26.9258
25.0472 822 28.6705
25.1636 971 31.1609
25.28 1042 32.28
25.3965 1189 34.4819
25.513 1143 33.8083
25.6296 1215 34.8569
25.7462 1295 35.9861
25.8628 1281 35.7911
25.9795 1264 35.5528
26.0962 1234 35.1283
26.213 1211 34.7994
26.3298 1187 34.4529
26.4466 1092 33.0454
26.5635 1129 33.6006
26.6804 1028 32.0624
26.7973 1101 33.1813
26.9143 1030 32.0936
27.0313 980 31.305
27.1483 1128 33.5857
27.2653 1057 32.5115
27.3824 1079 32.8481
27.4996 1079 32.8481
27.6167 1033 32.1403
27.7339 1074 32.7719
27.8511 1092 33.0454
27.9683 1093 33.0606
28.0855 1018 31.9061
28.2028 1035 32.1714
28.3201 1014 31.8434
28.4374 1032 32.1248
28.5547 1049 32.3883
28.6721 1117 33.4215
28.7894 1099 33.1512
28.9068 1158 34.0294
29.0242 1117 33.4215
29.1416 1079 32.8481
29.259 1057 32.5115
29.3764 1062 32.5883
29.4939 1021 31.9531
29.6113 1050 32.4037
29.7288 1162 34.0881
29.8463 1047 32.3574
29.9638 1036 32.187
30.0812 1016 31.8748
30.1987 969 31.1288
30.3162 1039 32.2335
30.4337 964 31.0483
30.5512 1024 32
30.6687 1047 32.3574
30.7862 1101 33.1813
30.9037 1089 33
31.0212 1148 33.8821
31.1387 1062 32.5883
31.2562 1050 32.4037
31.3737 1096 33.1059
31.4912 1052 32.4345
31.6087 1059 32.5423
31.7262 1051 32.4191
31.8436 1048 32.3728
31.9611 1024 32
32.0785 1000 31.6228
32.1959 1040 32.249
32.3134 1025 32.0156
32.4308 991 31.4802
32.5482 1036 32.187
32.6655 948 30.7896
32.7829 1001 31.6386
32.9002 978 31.273
33.0176 948 30.7896
33.1349 995 31.5436
33.2522 984 31.3688
33.3694 940 30.6594
33.4867 971 31.1609
33.6039 950 30.8221
33.7211 963 31.0322
33.8383 953 30.8707
33.9554 1045 32.3265
34.0725 946 30.7571
34.1896 1041 32.2645
34.3067 1016 31.8748
34.4237 1016 31.8748
34.5407 997 31.5753
34.6577 955 30.9031
34.7746 1002 31.6544
34.8915 940 30.6594
35.0084 991 31.4802
35.1252 888 29.7993
35.242 992 31.496
35.3587 948 30.7896
35.4755 946 30.7571
35.5921 927 30.4467
35.7088 875 29.5804
35.8254 919 30.315
35.9419 947 30.7734
36.0584 935 30.5778
36.1749 924 30.3974
36.2913 887 29.7825
36.4077 916 30.2655
36.524 842 29.0172
36.6403 793 28.1603
36.7565 757 27.5136
36.8727 761 27.5862
36.9889 705 26.5518
37.1049 644 25.3772
37.221 0 1
37.3369 0 1
37.4529 0 1
37.5687 0 1
37.6845 0 1
37.8003 0 1
37.916 0 1
38.0316 0 1
38.1472 0 1
40.5851 0 1
40.7008 0 1
40.8164 0 1
40.9322 0 1
41.048 0 1
41.1639 0 1
41.2798 0 1
41.3958 0 1
41.5118 0 1
41.6279 0 1
41.744 372 19.2873
41.8602 426 20.6398
41.9765 480 21.9089
42.0928 588 24.2487
42.2091 587 24.2281
42.3255 667 25.8263
42.4419 682 26.1151
42.5584 717 26.7769
42.675 709 26.6271
42.7915 728 26.9815
42.9081 752 27.4226
43.0248 694 26.3439
43.1415 703 26.5141
43.2582 680 26.0768
43.375 695 26.3629
43.4918 734 27.0924
43.6087 725 26.9258
43.7256 703 26.5141
43.8425 678 26.0384
43.9595 666 25.807
44.0765 753 27.4408
44.1935 718 26.7955
44.3106 709 26.6271
44.4277 670 25.8844
44.5448 663 25.7488
44.6619 645 25.3969
44.7791 700 26.4575
44.8963 700 26.4575
45.0136 663 25.7488
45.1308 736 27.1293
45.2481 722 26.8701
45.3654 728 26.9815
45.4827 725 26.9258
45.6001 776 27.8568
45.7174 792 28.1425
45.8348 764 27.6405
45.9522 765 27.6586
46.0697 688 26.2298
46.1871 647 25.4362
46.3046 704 26.533
46.422 685 26.1725
46.5395 693 26.3249
46.657 670 25.8844
46.7745 664 25.7682
46.892 684 26.1534
47.0096 723 26.8887
47.1271 702 26.4953
47.2446 746 27.313
47.3622 670 25.8844
47.4797 629 25.0799
47.5973 701 26.4764
47.7149 697 26.4008
47.8324 689 26.2488
47.95 667 25.8263
48.0675 631 25.1197
48.1851 605 24.5967
48.3027 633 25.1595
48.4202 658 25.6515
48.5378 631 25.1197
48.6554 744 27.2764
48.7729 670 25.8844
48.8904 722 26.8701
49.008 662 25.7294
49.1255 745 27.2947
49.243 718 26.7955
49.3605 704 26.533
49.478 683 26.1343
49.5955 712 26.6833
49.713 647 25.4362
49.8304 616 24.8193
49.9479 651 25.5147
50.0653 643 25.3574
50.1827 655 25.593
50.3001 624 24.98
50.4175 610 24.6982
50.5348 687 26.2107
50.6521 686 26.1916
50.7694 665 25.7876
50.8867 643 25.3574
51.004 653 25.5539
51.1212 685 26.1725
51.2384 684 26.1534
51.3556 678 26.0384
51.4727 666 25.807
51.5899 663 25.7488
51.707 586 24.2074
51.824 584 24.1661
51.9411 601 24.5153
52.0581 626 25.02
52.175 644 25.3772
52.2919 641 25.318
52.4088 654 25.5734
52.5257 652 25.5343
52.6425 683 26.1343
52.7593 680 26.0768
52.876 678 26.0384
52.9927 670 25.8844
53.1094 662 25.7294
53.226 670 25.8844
53.3426 671 25.9037
53.4591 608 24.6577
53.5756 603 24.5561
53.692 568 23.8328
53.8084 507 22.5167
53.9248 504 22.4499
54.0411 428 20.6882
54.1573 408 20.199
54.2735 0 1
54.3896 0 1
54.5057 0 1
54.6217 0 1
54.7377 0 1
54.8537 0 1
54.9695 0 1
55.0853 0 1
55.2011 0 1
55.3168 0 1
55.4324 0 1
57.824 0 1
57.9396 0 1
58.0553 0 1
58.1711 0 1
58.2869 0 1
58.4028 0 1
58.5187 0 1
58.6347 0 1
58.7508 0 1
58.8669 0 1
58.983 446 21.1187
59.0992 565 23.7697
59.2155 663 25.7488
59.3318 746 27.313
59.4482 836 28.9137
59.5646 838 28.9482
59.681 898 29.9666
59.7975 953 30.8707
59.9141 925 30.4138
60.0306 1022 31.9687
60.1473 984 31.3688
60.2639 941 30.6757
60.3807 947 30.7734
60.4974 934 30.5614
60.6142 890 29.8329
60.731 907 30.1164
60.8479 970 31.1448
60.9648 959 30.9677
61.0818 850 29.1548
61.1987 906 30.0998
61.3158 947 30.7734
61.4328 905 30.0832
61.5499 925 30.4138
61.667 954 30.8869
61.7841 897 29.95
61.9013 901 30.0167
62.0185 880 29.6648
62.1357 894 29.8998
62.253 890 29.8329
62.3702 828 28.775
62.4875 818 28.6007
62.6049 797 28.2312
62.7222 808 28.4253
62.8396 875 29.5804
62.9569 833 28.8617
63.0743 871 29.5127
63.1918 807 28.4077
63.3092 822 28.6705
63.4267 812 28.4956
63.5441 755 27.4773
63.6616 789 28.0891
63.7791 732 27.0555
63.8966 730 27.0185
64.0142 670 25.8844
64.1317 705 26.5518
64.2492 729 27
64.3668 722 26.8701
64.4843 749 27.3679
64.6019 776 27.8568
64.7195 777 27.8747
64.837 771 27.7669
64.9546 776 27.8568
65.0722 764 27.6405
65.1898 763 27.6225
65.3074 737 27.1477
65.4249 777 27.8747
65.5425 833 28.8617
65.6601 772 27.7849
65.7777 797 28.2312
65.8952 713 26.7021
66.0128 702 26.4953
66.1304 715 26.7395
66.2479 696 26.3818
66.3655 766 27.6767
66.483 796 28.2135
66.6005 749 27.3679
66.718 728 26.9815
66.8355 795 28.1957
66.953 781 27.9464
67.0705 783 27.9821
67.1879 754 27.4591
67.3054 773 27.8029
67.4228 749 27.3679
67.5402 714 26.7208
67.6576 684 26.1534
67.7749 674 25.9615
67.8923 727 26.9629
68.0096 731 27.037
68.1269 720 26.8328
68.2442 733 27.074
68.3614 772 27.7849
68.4787 742 27.2397
68.5958 717 26.7769
68.713 771 27.7669
68.8302 788 28.0713
68.9473 733 27.074
69.0643 752 27.4226
69.1814 720 26.8328
69.2984 758 27.5318
69.4154 732 27.0555
69.5323 710 26.6458
69.6492 679 26.0576
69.7661 644 25.3772
69.8829 717 26.7769
69.9997 723 26.8887
70.1165 763 27.6225
70.2332 712 26.6833
70.3499 678 26.0384
70.4665 693 26.3249
70.5831 650 25.4951
70.6996 580 24.0832
70.8161 596 24.4131
70.9326 491 22.1585
71.049 450 21.2132
71.1653 416 20.3961
71.2817 377 19.4165
71.3979 357 18.8944
71.5141 314 17.72
71.6303 321 17.9165
71.7464 250 15.8114
71.8624 0 1
71.9784 0 1
72.0944 0 1
72.2102 0 1
72.3261 0 1
72.4418 0 1
72.5575 0 1
72.6732 0 1
75.1054 0 1
75.2209 0 1
75.3365 0 1
75.4521 0 1
75.5678 0 1
75.6835 0 1
75.7993 0 1
75.9151 0 1
76.031 0 1
76.147 443 21.0476
76.263 515 22.6936
76.3791 500 22.3607
76.4952 574 23.9583
76.6113 554 23.5372
76.7276 562 23.7065
76.8438 551 23.4734
76.9601 545 23.3452
77.0765 569 23.8537
77.1929 642 25.3377
77.3093 623 24.96
77.4258 623 24.96
77.5423 622 24.9399
77.6589 697 26.4008
77.7755 673 25.9422
77.8921 668 25.8457
78.0088 643 25.3574
78.1256 645 25.3969
78.2423 657 25.632
78.3591 620 24.8998
78.4759 595 24.3926
78.5928 523 22.8692
78.7097 529 23
78.8266 529 23
78.9436 532 23.0651
79.0606 617 24.8395
79.1776 595 24.3926
79.2946 651 25.5147
79.4117 655 25.593
79.5288 632 25.1396
79.6459 662 25.7294
79.7631 657 25.632
79.8802 672 25.923
79.9974 671 25.9037
80.1147 586 24.2074
80.2319 604 24.5764
80.3491 603 24.5561
80.4664 582 24.1247
80.5837 598 24.454
80.701 632 25.1396
80.8183 625 25
80.9357 611 24.7184
81.053 624 24.98
81.1704 678 26.0384
81.2877 655 25.593
81.4051 753 27.4408
81.5225 662 25.7294
81.6399 678 26.0384
81.7573 682 26.1151
81.8747 718 26.7955
81.9922 664 25.7682
82.1096 661 25.7099
82.227 596 24.4131
82.3444 548 23.4094
82.4619 591 24.3105
82.5793 645 25.3969
82.6967 690 26.2679
82.8142 687 26.2107
82.9316 678 26.0384
83.049 700 26.4575
83.1664 732 27.0555
83.2838 692 26.3059
83.4012 677 26.0192
83.5186 707 26.5895
83.636 638 25.2587
83.7534 660 25.6905
83.8708 608 24.6577
83.9881 568 23.8328
84.1055 626 25.02
84.2228 565 23.7697
84.3401 650 25.4951
84.4575 655 25.593
84.5747 679 26.0576
84.692 650 25.4951
84.8093 682 26.1151
84.9265 625 25
85.0437 671 25.9037
85.1609 797 28.2312
85.2781 714 26.7208
85.3952 723 26.8887
85.5123 696 26.3818
85.6294 666 25.807
85.7465 570 23.8747
85.8636 574 23.9583
85.9806 551 23.4734
86.0976 601 24.5153
86.2145 639 25.2784
86.3315 706 26.5707
86.4484 684 26.1534
86.5652 716 26.7582
86.682 709 26.6271
86.7988 713 26.7021
86.9156 683 26.1343
87.0323 649 25.4755
87.149 687 26.2107
87.2657 676 26
87.3823 650 25.4951
87.4988 604 24.5764
87.6154 552 23.4947
87.7318 559 23.6432
87.8483 579 24.0624
87.9647 543 23.3024
88.081 536 23.1517
88.1973 512 22.6274
88.3136 502 22.4054
88.4298 461 21.4709
88.546 462 21.4942
88.6621 445 21.095
88.7781 396 19.8997
88.8942 0 1
89.0101 0 1
89.126 0 1
89.2419 0 1
89.3577 0 1
89.4734 0 1
89.5891 0 1
89.7047 0 1
89.8203 0 1
89.9358 0 1
92.3269 0 1
92.4424 0 1
92.558 0 1
92.6736 0 1
92.7893 0 1
92.905 0 1
93.0208 0 1
93.1366 0 1
93.2525 0 1
93.3685 0 1
93.4845 0 1
93.6005 563 23.7276
93.7167 558 23.622
93.8328 639 25.2784
93.949 641 25.318
94.0653 662 25.7294
94.1816 675 25.9808
94.2979 711 26.6646
94.4143 754 27.4591
94.5307 768 27.7128
94.6472 764 27.6405
94.7637 705 26.5518
94.8803 637 25.2389
94.9969 635 25.1992
95.1135 693 26.3249
95.2302 673 25.9422
95.3469 755 27.4773
95.4637 743 27.258
95.5805 779 27.9106
95.6973 775 27.8388
95.8142 765 27.6586
95.9311 789 28.0891
96.048 744 27.2764
96.1649 742 27.2397
96.2819 709 26.6271
96.3989 709 26.6271
96.516 737 27.1477
96.633 720 26.8328
96.7501 622 24.9399
96.8673 690 26.2679
96.9844 692 26.3059
97.1016 729 27
97.2188 763 27.6225
97.336 660 25.6905
97.4532 727 26.9629
97.5704 694 26.3439
97.6877 785 28.0179
97.805 744 27.2764
97.9223 782 27.9643
98.0396 799 28.2666
98.1569 775 27.8388
98.2743 705 26.5518
98.3916 732 27.0555
98.509 701 26.4764
98.6264 680 26.0768
98.7438 662 25.7294
98.8612 737 27.1477
98.9786 729 27
99.096 755 27.4773
99.2134 775 27.8388
99.3308 764 27.6405
99.4482 787 28.0535
99.5656 772 27.7849
99.6831 803 28.3373
99.8005 824 28.7054
99.9179 757 27.5136
100.035 772 27.7849
100.153 690 26.2679
100.27 679 26.0576
100.388 758 27.5318
100.505 753 27.4408
100.622 769 27.7308
100.74 716 26.7582
100.857 757 27.5136
100.975 708 26.6083
101.092 741 27.2213
101.209 794 28.178
101.327 811 28.4781
101.444 797 28.2312
101.561 839 28.9655
101.679 759 27.55
101.796 781 27.9464
101.913 766 27.6767
102.03 704 26.533
102.148 734 27.0924
102.265 720 26.8328
102.382 743 27.258
102.499 787 28.0535
102.616 834 28.8791
102.733 817 28.5832
102.851 854 29.2233
102.968 848 29.1204
103.085 861 29.3428
103.202 823 28.688
103.319 785 28.0179
103.436 794 28.178
103.552 818 28.6007
103.669 745 27.2947
103.786 770 27.7489
103.903 781 27.9464
104.02 834 28.8791
104.137 795 28.1957
104.253 793 28.1603
104.37 814 28.5307
104.487 793 28.1603
104.603 830 28.8097
104.72 832 28.8444
104.836 834 28.8791
104.953 841 29
105.069 807 28.4077
105.186 806 28.3901
105.302 725 26.9258
105.418 726 26.9444
105.535 659 25.671
105.651 540 23.2379
105.767 524 22.891
105.883 471 21.7025
105.999 419 20.4695
106.115 0 1
106.231 0 1
106.347 0 1
106.463 0 1
106.579 0 1
106.694 0 1
106.81 0 1
106.926 0 1
107.041 0 1
107.157 0 1
109.576 0 1
109.692 0 1
109.807 0 1
109.923 0 1
110.039 0 1
110.155 0 1
110.27 0 1
110.386 0 1
110.502 0 1
110.618 415 20.3715
110.735 516 22.7156
110.851 541 23.2594
110.967 521 22.8254
111.083 631 25.1197
111.199 696 26.3818
111.316 781 27.9464
111.432 820 28.6356
111.549 823 28.688
111.665 784 28
111.782 809 28.4429
111.898 861 29.3428
112.015 814 28.5307
112.132 756 27.4955
112.248 769 27.7308
112.365 755 27.4773
112.482 758 27.5318
112.599 807 28.4077
112.716 860 29.3258
112.832 846 29.0861
112.949 786 28.0357
113.066 794 28.178
113.183 784 28
113.3 783 27.9821
113.417 752 27.4226
113.534 788 28.0713
113.652 773 27.8029
113.769 776 27.8568
113.886 815 28.5482
114.003 732 27.0555
114.12 714 26.7208
114.238 729 27
114.355 646 25.4165
114.472 681 26.096
114.589 669 25.865
114.707 708 26.6083
114.824 774 27.8209
114.942 785 28.0179
115.059 776 27.8568
115.176 729 27
115.294 766 27.6767
115.411 731 27.037
115.529 708 26.6083
115.646 729 27
115.764 657 25.632
115.881 591 24.3105
115.999 666 25.807
116.116 666 25.807
116.234 699 26.4386
116.351 754 27.4591
116.469 721 26.8514
116.586 635 25.1992
116.704 669 25.865
116.821 698 26.4197
116.939 649 25.4755
117.056 728 26.9815
117.174 673 25.9422
117.291 677 26.0192
117.409 749 27.3679
117.526 692 26.3059
117.644 662 25.7294
117.761 607 24.6374
117.879 603 24.5561
117.996 584 24.1661
118.114 603 24.5561
118.231 620 24.8998
118.349 713 26.7021
118.466 719 26.8142
118.584 658 25.6515
118.701 684 26.1534
118.819 655 25.593
118.936 692 26.3059
119.053 664 25.7682
119.171 634 25.1794
119.288 591 24.3105
119.405 620 24.8998
119.523 631 25.1197
119.64 634 25.1794
119.757 617 24.8395
119.875 633 25.1595
119.992 684 26.1534
120.109 640 25.2982
120.226 588 24.2487
120.343 640 25.2982
120.46 635 25.1992
120.578 680 26.0768
120.695 665 25.7876
120.812 636 25.219
120.929 682 26.1151
121.046 693 26.3249
121.163 625 25
121.279 620 24.8998
121.396 576 24
121.513 524 22.891
121.63 546 23.3666
121.747 509 22.561
121.863 530 23.0217
121.98 593 24.3516
122.097 542 23.2809
122.213 603 24.5561
122.33 518 22.7596
122.446 491 22.1585
122.563 516 22.7156
122.679 451 21.2368
122.795 396 19.8997
122.912 385 19.6214
123.028 322 17.9444
123.144 317 17.8045
123.26 336 18.3303
123.377 0 1
123.493 0 1
123.609 0 1
123.725 0 1
123.84 0 1
123.956 0 1
124.072 0 1
124.188 0 1
124.303 0 1
124.419 0 1
126.852 0 1
126.968 0 1
127.083 0 1
127.199 0 1
127.315 0 1
127.431 0 1
127.547 0 1
127.663 0 1
127.779 0 1
127.895 0 1
128.011 0 1
128.127 0 1
128.243 0 1
128.359 668 25.8457
128.476 632 25.1396
128.592 678 26.0384
128.708 701 26.4764
128.825 673 25.9422
128.941 716 26.7582
129.058 743 27.258
129.174 661 25.7099
129.291 702 26.4953
129.408 700 26.4575
129.524 713 26.7021
129.641 768 27.7128
129.758 677 26.0192
129.875 740 27.2029
129.992 793 28.1603
130.108 724 26.9072
130.225 767 27.6948
130.342 701 26.4764
130.459 743 27.258
130.576 721 26.8514
130.693 729 27
130.81 747 27.3313
130.928 778 27.8927
131.045 810 28.4605
131.162 892 29.8664
131.279 914 30.2324
131.396 922 30.3645
131.513 915 30.249
131.631 916 30.2655
131.748 895 29.9166
131.865 911 30.1828
131.983 891 29.8496
132.1 982 31.3369
132.217 992 31.496
132.335 1039 32.2335
132.452 1106 33.2566
132.57 1142 33.7935
132.687 1229 35.0571
132.804 1232 35.0999
132.922 1235 35.1426
133.039 1210 34.7851
133.157 1219 34.9142
133.274 1328 36.4417
133.392 1364 36.9324
133.509 1311 36.2077
133.627 1373 37.054
133.744 1383 37.1887
133.862 1317 36.2905
133.979 1291 35.9305
134.097 1159 34.0441
134.214 1107 33.2716
134.332 1144 33.8231
134.449 1216 34.8712
134.567 1298 36.0278
134.684 1345 36.6742
134.802 1342 36.6333
134.919 1322 36.3593
135.037 1358 36.8511
135.154 1243 35.2562
135.272 1148 33.8821
135.389 1193 34.5398
135.507 1166 34.1467
135.624 1225 35
135.742 1212 34.8138
135.859 1275 35.7071
135.977 1301 36.0694
136.094 1314 36.2491
136.211 1353 36.7831
136.329 1310 36.1939
136.446 1327 36.428
136.564 1386 37.229
136.681 1269 35.623
136.798 1265 35.5668
136.915 1313 36.2353
137.033 1387 37.2424
137.15 1345 36.6742
137.267 1367 36.973
137.384 1306 36.1386
137.502 1284 35.8329
137.619 1194 34.5543
137.736 1183 34.3948
137.853 1116 33.4066
137.97 1136 33.7046
138.087 1147 33.8674
138.204 1277 35.7351
138.321 1193 34.5398
138.438 1386 37.229
138.555 1334 36.524
138.672 1367 36.973
138.788 1305 36.1248
138.905 1204 34.6987
139.022 1189 34.4819
139.139 1178 34.322
139.255 1144 33.8231
139.372 1164 34.1174
139.488 1177 34.3074
139.605 1063 32.6037
139.721 1060 32.5576
139.838 957 30.9354
139.954 925 30.4138
140.071 888 29.7993
140.187 899 29.9833
140.303 831 28.8271
140.419 784 28
140.535 730 27.0185
140.652 703 26.5141
140.768 0 1
140.884 0 1
141 0 1
141.115 0 1
141.231 0 1
141.347 0 1
141.463 0 1
141.578 0 1
141.694 0 1
144.104 0 1
144.219 0 1
144.335 0 1
144.45 0 1
144.566 0 1
144.682 0 1
144.798 0 1
144.914 0 1
145.03 0 1
145.146 4717 68.6804
145.262 4820 69.4262
145.378 4656 68.2349
145.494 4498 67.0671
145.61 4331 65.8103
145.726 3964 62.9603
145.842 3670 60.5805
145.959 3288 57.3411
146.075 3011 54.8726
146.192 2711 52.0673
146.308 2245 47.3814
146.425 2372 48.7032
146.541 2259 47.5289
146.658 2228 47.2017
146.774 2197 46.8722
146.891 2286 47.8121
147.008 2327 48.239
147.125 2363 48.6107
147.241 2420 49.1935
147.358 2442 49.4166
147.475 2462 49.6185
147.592 2284 47.7912
147.709 2083 45.6399
147.826 1687 41.0731
147.943 1555 39.4335
148.06 1631 40.3856
148.177 2058 45.3652
148.294 2252 47.4552
148.411 2295 47.9062
148.528 2384 48.8262
148.645 2431 49.3052
148.762 2523 50.2295
148.88 2489 49.8899
148.997 2496 49.96
149.114 2352 48.4974
149.231 2441 49.4065
149.349 2489 49.8899
149.466 2406 49.051
149.583 2410 49.0918
149.701 2365 48.6313
149.818 2267 47.613
149.935 2322 48.1871
150.053 2230 47.2229
150.17 2099 45.8148
150.287 2253 47.4658
150.405 2138 46.2385
150.522 2112 45.9565
150.64 2154 46.4112
150.757 2242 47.3498
150.875 2294 47.8957
150.992 2389 48.8774
151.11 2273 47.676
151.227 2256 47.4974
151.344 2231 47.2335
151.462 1972 44.4072
151.579 1635 40.4351
151.697 1752 41.8569
151.814 1988 44.587
151.932 2284 47.7912
152.049 2287 47.8226
152.167 2352 48.4974
152.284 2321 48.1768
152.402 2318 48.1456
152.519 2242 47.3498
152.636 2227 47.1911
152.754 2272 47.6655
152.871 2246 47.392
152.989 2110 45.9347
153.106 2133 46.1844
153.223 2065 45.4423
153.341 1943 44.0795
153.458 1747 41.7971
153.575 1648 40.5956
153.693 1739 41.7013
153.81 1694 41.1582
153.927 1757 41.9166
154.044 1713 41.3884
154.162 1819 42.6497
154.279 1766 42.0238
154.396 1751 41.845
154.513 1790 42.3084
154.63 1791 42.3202
154.747 1681 41
154.864 1646 40.5709
154.981 1485 38.5357
155.098 1342 36.6333
155.215 1209 34.7707
155.332 1329 36.4555
155.449 1593 39.9124
155.566 1723 41.509
155.683 1666 40.8167
155.8 1654 40.6694
155.917 1660 40.7431
156.033 1630 40.3733
156.15 0 1
156.267 0 1
156.383 0 1
156.5 0 1
156.617 0 1
156.733 0 1
156.85 0 1
156.966 0 1
157.082 0 1
157.199 0 1
157.315 0 1
157.431 0 1
157.547 0 1
157.664 0 1
157.78 0 1
157.896 0 1
158.012 0 1
158.128 0 1
158.244 0 1
158.359 0 1
158.475 0 1
158.591 0 1
158.706 0 1
