
6.15755 0 1
6.2731 0 1
6.3887 0 1
6.50437 0 1
6.62009 0 1
6.73587 0 1
6.8517 0 1
6.96759 0 1
7.08353 0 1
7.19952 0 1
7.31557 0 1
7.43166 0 1
7.54781 0 1
7.664 0 1
7.78024 0 1
7.89653 0 1
8.01286 0 1
8.12924 0 1
8.24567 0 1
8.36213 0 1
8.47864 0 1
8.59519 0 1
8.71178 0 1
8.82841 0 1
8.94508 0 1
9.06179 0 1
9.17853 0 1
9.29531 0 1
9.41212 0 1
9.52897 0 1
9.64584 0 1
9.76276 0 1
9.8797 0 1
9.99667 0 1
10.1137 0 1
10.2307 0 1
10.3478 0 1
10.4648 0 1
10.5819 0 1
10.6991 0 1
10.8162 0 1
10.9334 0 1
11.0506 0 1
11.1678 0 1
11.285 0 1
11.4023 0 1
11.5196 0 1
11.6369 0 1
11.7542 0 1
11.8715 0 1
11.9888 0 1
12.1062 0 1
12.2235 0 1
12.3409 0 1
12.4582 0 1
12.5756 0 1
12.693 0 1
12.8104 0 1
12.9278 0 1
13.0452 0 1
13.1626 0 1
13.28 0 1
13.3974 0 1
13.5149 0 1
13.6323 0 1
13.7497 0 1
13.8671 0 1
13.9845 0 1
14.1019 0 1
14.2193 0 1
14.3367 0 1
14.4541 0 1
14.5714 0 1
14.6888 0 1
14.8062 0 1
14.9235 0 1
15.0408 849 29.1376
15.1581 852 29.189
15.2755 900 30
15.3927 847 29.1033
15.51 878 29.6311
15.6273 877 29.6142
15.7445 860 29.3258
15.8617 819 28.6182
15.9789 878 29.6311
16.0961 817 28.5832
16.2132 711 26.6646
16.3304 723 26.8887
16.4475 711 26.6646
16.5646 764 27.6405
16.6816 795 28.1957
16.7986 772 27.7849
16.9156 815 28.5482
17.0326 785 28.0179
17.1496 775 27.8388
17.2665 729 27
17.3833 749 27.3679
17.5002 797 28.2312
17.617 773 27.8029
17.7338 739 27.1846
17.8505 720 26.8328
17.9672 750 27.3861
18.0839 771 27.7669
18.2005 717 26.7769
18.3171 720 26.8328
18.4337 731 27.037
18.5502 725 26.9258
18.6666 767 27.6948
18.7831 798 28.2489
18.8994 755 27.4773
19.0158 689 26.2488
19.1321 727 26.9629
19.2483 685 26.1725
19.3645 660 25.6905
19.4806 632 25.1396
19.5967 557 23.6008
19.7128 534 23.1084
19.8288 444 21.0713
19.9447 417 20.4206
20.0606 0 1
20.1764 0 1
20.2922 0 1
20.4079 0 1
20.5236 0 1
20.6392 0 1
20.7548 0 1
20.8702 0 1
23.3078 0 1
23.4233 0 1
23.539 0 1
23.6547 0 1
23.7704 0 1
23.8862 0 1
24.0021 0 1
24.118 0 1
24.234 0 1
24.35 0 1
24.4661 294 17.1464
24.5822 349 18.6815
24.6984 464 21.5407
24.8146 464 21.5407
24.9309 534 23.1084
25.0472 633 25.1595
25.1636 651 25.5147
25.28 728 26.9815
25.3965 827 28.7576
25.513 767 27.6948
25.6296 820 28.6356
25.7462 825 28.7228
25.8628 849 29.1376
25.9795 886 29.7658
26.0962 796 28.2135
26.213 799 28.2666
26.3298 765 27.6586
26.4466 804 28.3549
26.5635 762 27.6043
26.6804 680 26.0768
26.7973 643 25.3574
26.9143 594 24.3721
27.0313 605 24.5967
27.1483 671 25.9037
27.2653 691 26.2869
27.3824 740 27.2029
27.4996 715 26.7395
27.6167 677 26.0192
27.7339 757 27.5136
27.8511 677 26.0192
27.9683 737 27.1477
28.0855 735 27.1109
28.2028 740 27.2029
28.3201 661 25.7099
28.4374 691 26.2869
28.5547 673 25.9422
28.6721 680 26.0768
28.7894 745 27.2947
28.9068 760 27.5681
29.0242 717 26.7769
29.1416 732 27.0555
29.259 692 26.3059
29.3764 719 26.8142
29.4939 686 26.1916
29.6113 721 26.8514
29.7288 682 26.1151
29.8463 696 26.3818
29.9638 660 25.6905
30.0812 634 25.1794
30.1987 620 24.8998
30.3162 565 23.7697
30.4337 602 24.5357
30.5512 649 25.4755
30.6687 678 26.0384
30.7862 692 26.3059
30.9037 734 27.0924
31.0212 759 27.55
31.1387 705 26.5518
31.2562 710 26.6458
31.3737 697 26.4008
31.4912 724 26.9072
31.6087 694 26.3439
31.7262 686 26.1916
31.8436 705 26.5518
31.9611 623 24.96
32.0785 705 26.5518
32.1959 699 26.4386
32.3134 677 26.0192
32.4308 674 25.9615
32.5482 713 26.7021
32.6655 663 25.7488
32.7829 623 24.96
32.9002 628 25.0599
33.0176 631 25.1197
33.1349 656 25.6125
33.2522 681 26.096
33.3694 633 25.1595
33.4867 675 25.9808
33.6039 665 25.7876
33.7211 608 24.6577
33.8383 626 25.02
33.9554 562 23.7065
34.0725 592 24.3311
34.1896 611 24.7184
34.3067 645 25.3969
34.4237 691 26.2869
34.5407 675 25.9808
34.6577 690 26.2679
34.7746 691 26.2869
34.8915 674 25.9615
35.0084 624 24.98
35.1252 640 25.2982
35.242 601 24.5153
35.3587 585 24.1868
35.4755 585 24.1868
35.5921 617 24.8395
35.7088 546 23.3666
35.8254 587 24.2281
35.9419 607 24.6374
36.0584 615 24.7992
36.1749 615 24.7992
36.2913 616 24.8193
36.4077 528 22.9783
36.524 520 22.8035
36.6403 522 22.8473
36.7565 506 22.4944
36.8727 484 22
36.9889 451 21.2368
37.1049 391 19.7737
37.221 0 1
37.3369 0 1
37.4529 0 1
37.5687 0 1
37.6845 0 1
37.8003 0 1
37.916 0 1
38.0316 0 1
38.1472 0 1
40.5851 0 1
40.7008 0 1
40.8164 0 1
40.9322 0 1
41.048 0 1
41.1639 0 1
41.2798 0 1
41.3958 0 1
41.5118 0 1
41.6279 0 1
41.744 308 17.5499
41.8602 363 19.0526
41.9765 345 18.5742
42.0928 398 19.9499
42.2091 408 20.199
42.3255 416 20.3961
42.4419 445 21.095
42.5584 447 21.1424
42.675 474 21.7715
42.7915 445 21.095
42.9081 446 21.1187
43.0248 440 20.9762
43.1415 464 21.5407
43.2582 516 22.7156
43.375 483 21.9773
43.4918 518 22.7596
43.6087 448 21.166
43.7256 477 21.8403
43.8425 466 21.587
43.9595 424 20.5913
44.0765 435 20.8567
44.1935 434 20.8327
44.3106 474 21.7715
44.4277 481 21.9317
44.5448 468 21.6333
44.6619 468 21.6333
44.7791 466 21.587
44.8963 492 22.1811
45.0136 439 20.9523
45.1308 487 22.0681
45.2481 459 21.4243
45.3654 504 22.4499
45.4827 508 22.5389
45.6001 516 22.7156
45.7174 533 23.0868
45.8348 523 22.8692
45.9522 506 22.4944
46.0697 461 21.4709
46.1871 438 20.9284
46.3046 433 20.8087
46.422 446 21.1187
46.5395 418 20.445
46.657 434 20.8327
46.7745 452 21.2603
46.892 451 21.2368
47.0096 505 22.4722
47.1271 507 22.5167
47.2446 505 22.4722
47.3622 455 21.3307
47.4797 419 20.4695
47.5973 425 20.6155
47.7149 431 20.7605
47.8324 448 21.166
47.95 411 20.2731
48.0675 446 21.1187
48.1851 469 21.6564
48.3027 501 22.383
48.4202 490 22.1359
48.5378 486 22.0454
48.6554 504 22.4499
48.7729 446 21.1187
48.8904 497 22.2935
49.008 524 22.891
49.1255 467 21.6102
49.243 468 21.6333
49.3605 458 21.4009
49.478 468 21.6333
49.5955 476 21.8174
49.713 417 20.4206
49.8304 407 20.1742
49.9479 394 19.8494
50.0653 395 19.8746
50.1827 375 19.3649
50.3001 415 20.3715
50.4175 472 21.7256
50.5348 477 21.8403
50.6521 455 21.3307
50.7694 423 20.567
50.8867 419 20.4695
51.004 448 21.166
51.1212 422 20.5426
51.2384 378 19.4422
51.3556 442 21.0238
51.4727 448 21.166
51.5899 470 21.6795
51.707 457 21.3776
51.824 480 21.9089
51.9411 436 20.8806
52.0581 461 21.4709
52.175 470 21.6795
52.2919 457 21.3776
52.4088 492 22.1811
52.5257 477 21.8403
52.6425 455 21.3307
52.7593 465 21.5639
52.876 459 21.4243
52.9927 434 20.8327
53.1094 436 20.8806
53.226 400 20
53.3426 404 20.0998
53.4591 398 19.9499
53.5756 394 19.8494
53.692 397 19.9249
53.8084 332 18.2209
53.9248 358 18.9209
54.0411 357 18.8944
54.1573 331 18.1934
54.2735 0 1
54.3896 0 1
54.5057 0 1
54.6217 0 1
54.7377 0 1
54.8537 0 1
54.9695 0 1
55.0853 0 1
55.2011 0 1
55.3168 0 1
55.4324 0 1
57.824 0 1
57.9396 0 1
58.0553 0 1
58.1711 0 1
58.2869 0 1
58.4028 0 1
58.5187 0 1
58.6347 0 1
58.7508 0 1
58.8669 0 1
58.983 755 27.4773
59.0992 1097 33.121
59.2155 1323 36.3731
59.3318 1482 38.4968
59.4482 1597 39.9625
59.5646 1718 41.4488
59.681 1790 42.3084
59.7975 1697 41.1947
59.9141 1803 42.4617
60.0306 1887 43.4396
60.1473 1922 43.8406
60.2639 1840 42.8952
60.3807 1937 44.0114
60.4974 1908 43.6807
60.6142 1850 43.0116
60.731 1776 42.1426
60.8479 1759 41.9404
60.9648 1739 41.7013
61.0818 1584 39.7995
61.1987 1613 40.1622
61.3158 1579 39.7366
61.4328 1515 38.923
61.5499 1463 38.2492
61.667 1380 37.1484
61.7841 1233 35.1141
61.9013 1144 33.8231
62.0185 936 30.5941
62.1357 890 29.8329
62.253 873 29.5466
62.3702 983 31.3528
62.4875 1019 31.9218
62.6049 1166 34.1467
62.7222 1253 35.3977
62.8396 1218 34.8999
62.9569 1205 34.7131
63.0743 1187 34.4529
63.1918 1058 32.5269
63.3092 943 30.7083
63.4267 892 29.8664
63.5441 965 31.0644
63.6616 1046 32.3419
63.7791 1075 32.7872
63.8966 930 30.4959
64.0142 871 29.5127
64.1317 690 26.2679
64.2492 651 25.5147
64.3668 603 24.5561
64.4843 565 23.7697
64.6019 610 24.6982
64.7195 543 23.3024
64.837 571 23.8956
64.9546 553 23.516
65.0722 564 23.7487
65.1898 598 24.454
65.3074 586 24.2074
65.4249 559 23.6432
65.5425 575 23.9792
65.6601 549 23.4307
65.7777 580 24.0832
65.8952 560 23.6643
66.0128 568 23.8328
66.1304 565 23.7697
66.2479 619 24.8797
66.3655 609 24.6779
66.483 581 24.1039
66.6005 610 24.6982
66.718 617 24.8395
66.8355 623 24.96
66.953 596 24.4131
67.0705 612 24.7386
67.1879 659 25.671
67.3054 683 26.1343
67.4228 720 26.8328
67.5402 785 28.0179
67.6576 732 27.0555
67.7749 737 27.1477
67.8923 715 26.7395
68.0096 710 26.6458
68.1269 727 26.9629
68.2442 721 26.8514
68.3614 651 25.5147
68.4787 655 25.593
68.5958 636 25.219
68.713 610 24.6982
68.8302 634 25.1794
68.9473 654 25.5734
69.0643 640 25.2982
69.1814 645 25.3969
69.2984 686 26.1916
69.4154 681 26.096
69.5323 576 24
69.6492 667 25.8263
69.7661 610 24.6982
69.8829 655 25.593
69.9997 612 24.7386
70.1165 652 25.5343
70.2332 582 24.1247
70.3499 529 23
70.4665 494 22.2261
70.5831 431 20.7605
70.6996 406 20.1494
70.8161 417 20.4206
70.9326 367 19.1572
71.049 340 18.4391
71.1653 332 18.2209
71.2817 330 18.1659
71.3979 301 17.3494
71.5141 265 16.2788
71.6303 255 15.9687
71.7464 209 14.4568
71.8624 0 1
71.9784 0 1
72.0944 0 1
72.2102 0 1
72.3261 0 1
72.4418 0 1
72.5575 0 1
72.6732 0 1
75.1054 0 1
75.2209 0 1
75.3365 0 1
75.4521 0 1
75.5678 0 1
75.6835 0 1
75.7993 0 1
75.9151 0 1
76.031 0 1
76.147 284 16.8523
76.263 368 19.1833
76.3791 407 20.1742
76.4952 449 21.1896
76.6113 456 21.3542
76.7276 476 21.8174
76.8438 492 22.1811
76.9601 434 20.8327
77.0765 495 22.2486
77.1929 400 20
77.3093 441 21
77.4258 436 20.8806
77.5423 465 21.5639
77.6589 499 22.3383
77.7755 419 20.4695
77.8921 481 21.9317
78.0088 454 21.3073
78.1256 427 20.664
78.2423 462 21.4942
78.3591 414 20.347
78.4759 405 20.1246
78.5928 428 20.6882
78.7097 404 20.0998
78.8266 411 20.2731
78.9436 451 21.2368
79.0606 431 20.7605
79.1776 459 21.4243
79.2946 463 21.5174
79.4117 475 21.7945
79.5288 448 21.166
79.6459 416 20.3961
79.7631 414 20.347
79.8802 434 20.8327
79.9974 492 22.1811
80.1147 481 21.9317
80.2319 511 22.6053
80.3491 499 22.3383
80.4664 480 21.9089
80.5837 496 22.2711
80.701 510 22.5832
80.8183 480 21.9089
80.9357 473 21.7486
81.053 490 22.1359
81.1704 447 21.1424
81.2877 485 22.0227
81.4051 462 21.4942
81.5225 448 21.166
81.6399 497 22.2935
81.7573 470 21.6795
81.8747 443 21.0476
81.9922 481 21.9317
82.1096 420 20.4939
82.227 394 19.8494
82.3444 436 20.8806
82.4619 457 21.3776
82.5793 426 20.6398
82.6967 457 21.3776
82.8142 482 21.9545
82.9316 525 22.9129
83.049 462 21.4942
83.1664 460 21.4476
83.2838 463 21.5174
83.4012 470 21.6795
83.5186 436 20.8806
83.636 503 22.4277
83.7534 495 22.2486
83.8708 522 22.8473
83.9881 492 22.1811
84.1055 488 22.0907
84.2228 496 22.2711
84.3401 488 22.0907
84.4575 476 21.8174
84.5747 488 22.0907
84.692 444 21.0713
84.8093 487 22.0681
84.9265 495 22.2486
85.0437 502 22.4054
85.1609 500 22.3607
85.2781 516 22.7156
85.3952 502 22.4054
85.5123 471 21.7025
85.6294 470 21.6795
85.7465 454 21.3073
85.8636 458 21.4009
85.9806 482 21.9545
86.0976 461 21.4709
86.2145 478 21.8632
86.3315 478 21.8632
86.4484 534 23.1084
86.5652 507 22.5167
86.682 529 23
86.7988 498 22.3159
86.9156 493 22.2036
87.0323 440 20.9762
87.149 485 22.0227
87.2657 505 22.4722
87.3823 499 22.3383
87.4988 469 21.6564
87.6154 474 21.7715
87.7318 441 21
87.8483 453 21.2838
87.9647 402 20.0499
88.081 391 19.7737
88.1973 363 19.0526
88.3136 311 17.6352
88.4298 317 17.8045
88.546 254 15.9374
88.6621 272 16.4924
88.7781 254 15.9374
88.8942 0 1
89.0101 0 1
89.126 0 1
89.2419 0 1
89.3577 0 1
89.4734 0 1
89.5891 0 1
89.7047 0 1
89.8203 0 1
89.9358 0 1
92.3269 0 1
92.4424 0 1
92.558 0 1
92.6736 0 1
92.7893 0 1
92.905 0 1
93.0208 0 1
93.1366 0 1
93.2525 0 1
93.3685 0 1
93.4845 0 1
93.6005 410 20.2485
93.7167 420 20.4939
93.8328 465 21.5639
93.949 430 20.7364
94.0653 476 21.8174
94.1816 477 21.8403
94.2979 466 21.587
94.4143 494 22.2261
94.5307 495 22.2486
94.6472 454 21.3073
94.7637 465 21.5639
94.8803 454 21.3073
94.9969 425 20.6155
95.1135 452 21.2603
95.2302 477 21.8403
95.3469 460 21.4476
95.4637 449 21.1896
95.5805 488 22.0907
95.6973 499 22.3383
95.8142 514 22.6716
95.9311 511 22.6053
96.048 485 22.0227
96.1649 491 22.1585
96.2819 490 22.1359
96.3989 473 21.7486
96.516 494 22.2261
96.633 465 21.5639
96.7501 514 22.6716
96.8673 504 22.4499
96.9844 501 22.383
97.1016 468 21.6333
97.2188 454 21.3073
97.336 481 21.9317
97.4532 450 21.2132
97.5704 493 22.2036
97.6877 521 22.8254
97.805 491 22.1585
97.9223 490 22.1359
98.0396 466 21.587
98.1569 470 21.6795
98.2743 482 21.9545
98.3916 470 21.6795
98.509 479 21.8861
98.6264 467 21.6102
98.7438 498 22.3159
98.8612 454 21.3073
98.9786 465 21.5639
99.096 496 22.2711
99.2134 511 22.6053
99.3308 561 23.6854
99.4482 528 22.9783
99.5656 521 22.8254
99.6831 545 23.3452
99.8005 540 23.2379
99.9179 497 22.2935
100.035 482 21.9545
100.153 516 22.7156
100.27 484 22
100.388 533 23.0868
100.505 530 23.0217
100.622 498 22.3159
100.74 534 23.1084
100.857 498 22.3159
100.975 492 22.1811
101.092 526 22.9347
101.209 519 22.7816
101.327 503 22.4277
101.444 485 22.0227
101.561 499 22.3383
101.679 532 23.0651
101.796 483 21.9773
101.913 485 22.0227
102.03 468 21.6333
102.148 505 22.4722
102.265 510 22.5832
102.382 493 22.2036
102.499 517 22.7376
102.616 485 22.0227
102.733 520 22.8035
102.851 538 23.1948
102.968 584 24.1661
103.085 527 22.9565
103.202 597 24.4336
103.319 543 23.3024
103.436 580 24.0832
103.552 512 22.6274
103.669 592 24.3311
103.786 515 22.6936
103.903 521 22.8254
104.02 552 23.4947
104.137 556 23.5797
104.253 537 23.1733
104.37 494 22.2261
104.487 517 22.7376
104.603 543 23.3024
104.72 568 23.8328
104.836 571 23.8956
104.953 460 21.4476
105.069 541 23.2594
105.186 470 21.6795
105.302 435 20.8567
105.418 397 19.9249
105.535 338 18.3848
105.651 339 18.412
105.767 331 18.1934
105.883 281 16.7631
105.999 269 16.4012
106.115 0 1
106.231 0 1
106.347 0 1
106.463 0 1
106.579 0 1
106.694 0 1
106.81 0 1
106.926 0 1
107.041 0 1
107.157 0 1
109.576 0 1
109.692 0 1
109.807 0 1
109.923 0 1
110.039 0 1
110.155 0 1
110.27 0 1
110.386 0 1
110.502 0 1
110.618 237 15.3948
110.735 292 17.088
110.851 351 18.735
110.967 351 18.735
111.083 388 19.6977
111.199 448 21.166
111.316 471 21.7025
111.432 473 21.7486
111.549 496 22.2711
111.665 534 23.1084
111.782 502 22.4054
111.898 506 22.4944
112.015 467 21.6102
112.132 469 21.6564
112.248 508 22.5389
112.365 483 21.9773
112.482 496 22.2711
112.599 509 22.561
112.716 530 23.0217
112.832 499 22.3383
112.949 458 21.4009
113.066 473 21.7486
113.183 499 22.3383
113.3 458 21.4009
113.417 482 21.9545
113.534 470 21.6795
113.652 468 21.6333
113.769 517 22.7376
113.886 440 20.9762
114.003 488 22.0907
114.12 440 20.9762
114.238 439 20.9523
114.355 439 20.9523
114.472 454 21.3073
114.589 420 20.4939
114.707 418 20.445
114.824 421 20.5183
114.942 466 21.587
115.059 470 21.6795
115.176 501 22.383
115.294 509 22.561
115.411 490 22.1359
115.529 477 21.8403
115.646 477 21.8403
115.764 439 20.9523
115.881 467 21.6102
115.999 432 20.7846
116.116 458 21.4009
116.234 449 21.1896
116.351 435 20.8567
116.469 468 21.6333
116.586 445 21.095
116.704 416 20.3961
116.821 420 20.4939
116.939 459 21.4243
117.056 417 20.4206
117.174 464 21.5407
117.291 459 21.4243
117.409 424 20.5913
117.526 501 22.383
117.644 417 20.4206
117.761 420 20.4939
117.879 407 20.1742
117.996 416 20.3961
118.114 393 19.8242
118.231 402 20.0499
118.349 435 20.8567
118.466 434 20.8327
118.584 464 21.5407
118.701 445 21.095
118.819 460 21.4476
118.936 424 20.5913
119.053 468 21.6333
119.171 419 20.4695
119.288 443 21.0476
119.405 431 20.7605
119.523 383 19.5704
119.64 405 20.1246
119.757 420 20.4939
119.875 443 21.0476
119.992 447 21.1424
120.109 429 20.7123
120.226 403 20.0749
120.343 400 20
120.46 415 20.3715
120.578 401 20.025
120.695 396 19.8997
120.812 404 20.0998
120.929 418 20.445
121.046 407 20.1742
121.163 398 19.9499
121.279 391 19.7737
121.396 391 19.7737
121.513 338 18.3848
121.63 334 18.2757
121.747 376 19.3907
121.863 366 19.1311
121.98 345 18.5742
122.097 331 18.1934
122.213 304 17.4356
122.33 327 18.0831
122.446 317 17.8045
122.563 298 17.2627
122.679 298 17.2627
122.795 253 15.906
122.912 257 16.0312
123.028 291 17.0587
123.144 226 15.0333
123.26 247 15.7162
123.377 0 1
123.493 0 1
123.609 0 1
123.725 0 1
123.84 0 1
123.956 0 1
124.072 0 1
124.188 0 1
124.303 0 1
124.419 0 1
126.852 0 1
126.968 0 1
127.083 0 1
127.199 0 1
127.315 0 1
127.431 0 1
127.547 0 1
127.663 0 1
127.779 0 1
127.895 0 1
128.011 0 1
128.127 0 1
128.243 0 1
128.359 460 21.4476
128.476 452 21.2603
128.592 447 21.1424
128.708 478 21.8632
128.825 488 22.0907
128.941 508 22.5389
129.058 511 22.6053
129.174 489 22.1133
129.291 545 23.3452
129.408 479 21.8861
129.524 505 22.4722
129.641 504 22.4499
129.758 476 21.8174
129.875 531 23.0434
129.992 509 22.561
130.108 511 22.6053
130.225 548 23.4094
130.342 534 23.1084
130.459 516 22.7156
130.576 605 24.5967
130.693 614 24.779
130.81 689 26.2488
130.928 649 25.4755
131.045 730 27.0185
131.162 782 27.9643
131.279 855 29.2404
131.396 965 31.0644
131.513 1347 36.7015
131.631 1806 42.4971
131.748 2419 49.1833
131.865 3325 57.6628
131.983 4198 64.792
132.1 4936 70.2567
132.217 5627 75.0133
132.335 6030 77.6531
132.452 6069 77.9038
132.57 6245 79.0253
132.687 6019 77.5822
132.804 6116 78.2049
132.922 5977 77.3111
133.039 5859 76.5441
133.157 5508 74.2159
133.274 5229 72.3118
133.392 5008 70.7672
133.509 4664 68.2935
133.627 4369 66.0984
133.744 3982 63.1031
133.862 3728 61.0574
133.979 3243 56.9473
134.097 3023 54.9818
134.214 2607 51.0588
134.332 2251 47.4447
134.449 1712 41.3763
134.567 1427 37.7757
134.684 1454 38.1314
134.802 1541 39.2556
134.919 1492 38.6264
135.037 1441 37.9605
135.154 1389 37.2693
135.272 1351 36.756
135.389 1384 37.2022
135.507 1235 35.1426
135.624 1292 35.9444
135.742 1206 34.7275
135.859 1287 35.8748
135.977 1193 34.5398
136.094 1240 35.2136
136.211 1230 35.0714
136.329 1209 34.7707
136.446 1175 34.2783
136.564 1141 33.7787
136.681 1224 34.9857
136.798 1093 33.0606
136.915 1142 33.7935
137.033 1207 34.7419
137.15 1138 33.7343
137.267 1177 34.3074
137.384 1131 33.6303
137.502 1081 32.8786
137.619 1029 32.078
137.736 1091 33.0303
137.853 955 30.9031
137.97 894 29.8998
138.087 878 29.6311
138.204 889 29.8161
138.321 892 29.8664
138.438 984 31.3688
138.555 1042 32.28
138.672 1019 31.9218
138.788 1039 32.2335
138.905 948 30.7896
139.022 977 31.257
139.139 897 29.95
139.255 845 29.0689
139.372 792 28.1425
139.488 767 27.6948
139.605 690 26.2679
139.721 720 26.8328
139.838 668 25.8457
139.954 636 25.219
140.071 583 24.1454
140.187 546 23.3666
140.303 499 22.3383
140.419 488 22.0907
140.535 505 22.4722
140.652 471 21.7025
140.768 0 1
140.884 0 1
141 0 1
141.115 0 1
141.231 0 1
141.347 0 1
141.463 0 1
141.578 0 1
141.694 0 1
144.104 0 1
144.219 0 1
144.335 0 1
144.45 0 1
144.566 0 1
144.682 0 1
144.798 0 1
144.914 0 1
145.03 0 1
145.146 1300 36.0555
145.262 1438 37.921
145.378 1429 37.8021
145.494 1478 38.4448
145.61 1594 39.9249
145.726 1622 40.2741
145.842 1601 40.0125
145.959 1619 40.2368
146.075 1653 40.6571
146.192 1797 42.391
146.308 1805 42.4853
146.425 1758 41.9285
146.541 1802 42.45
146.658 1807 42.5088
146.774 1567 39.5854
146.891 1424 37.7359
147.008 1467 38.3014
147.125 1714 41.4005
147.241 1856 43.0813
147.358 1874 43.2897
147.475 1842 42.9185
147.592 1857 43.0929
147.709 1887 43.4396
147.826 1842 42.9185
147.943 1960 44.2719
148.06 1881 43.3705
148.177 1936 44
148.294 1941 44.0568
148.411 1991 44.6206
148.528 1969 44.3734
148.645 2071 45.5082
148.762 1999 44.7102
148.88 1983 44.5309
148.997 1996 44.6766
149.114 2064 45.4313
149.231 2067 45.4643
149.349 2043 45.1996
149.466 2072 45.5192
149.583 1982 44.5197
149.701 2023 44.9778
149.818 1997 44.6878
149.935 1996 44.6766
150.053 2034 45.0999
150.17 2135 46.2061
150.287 2025 45
150.405 1963 44.3058
150.522 1687 41.0731
150.64 1566 39.5727
150.757 1648 40.5956
150.875 1978 44.4747
150.992 2015 44.8888
151.11 1882 43.382
151.227 1870 43.2435
151.344 1965 44.3283
151.462 1954 44.2041
151.579 2028 45.0333
151.697 1998 44.699
151.814 1959 44.2606
151.932 2034 45.0999
152.049 2075 45.5522
152.167 2080 45.607
152.284 2075 45.5522
152.402 1954 44.2041
152.519 1981 44.5084
152.636 2078 45.5851
152.754 2075 45.5522
152.871 2055 45.3321
152.989 1982 44.5197
153.106 1991 44.6206
153.223 1942 44.0681
153.341 1917 43.7836
153.458 1999 44.7102
153.575 1973 44.4185
153.693 1895 43.5316
153.81 1893 43.5086
153.927 1862 43.1509
154.044 1752 41.8569
154.162 1624 40.2989
154.279 1421 37.6962
154.396 1595 39.9375
154.513 1739 41.7013
154.63 1650 40.6202
154.747 1601 40.0125
154.864 1618 40.2244
154.981 1659 40.7308
155.098 1721 41.4849
155.215 1732 41.6173
155.332 1698 41.2068
155.449 1641 40.5093
155.566 1683 41.0244
155.683 1727 41.5572
155.8 1623 40.2865
155.917 1732 41.6173
156.033 1671 40.8779
156.15 0 1
156.267 0 1
156.383 0 1
156.5 0 1
156.617 0 1
156.733 0 1
156.85 0 1
156.966 0 1
157.082 0 1
157.199 0 1
157.315 0 1
157.431 0 1
157.547 0 1
157.664 0 1
157.78 0 1
157.896 0 1
158.012 0 1
158.128 0 1
158.244 0 1
158.359 0 1
158.475 0 1
158.591 0 1
158.706 0 1
