
6.15755 0 1
6.2731 0 1
6.3887 0 1
6.50437 0 1
6.62009 0 1
6.73587 0 1
6.8517 0 1
6.96759 0 1
7.08353 0 1
7.19952 0 1
7.31557 0 1
7.43166 0 1
7.54781 0 1
7.664 0 1
7.78024 0 1
7.89653 0 1
8.01286 0 1
8.12924 0 1
8.24567 0 1
8.36213 0 1
8.47864 0 1
8.59519 0 1
8.71178 0 1
8.82841 0 1
8.94508 0 1
9.06179 0 1
9.17853 0 1
9.29531 0 1
9.41212 0 1
9.52897 0 1
9.64584 0 1
9.76276 0 1
9.8797 0 1
9.99667 0 1
10.1137 0 1
10.2307 0 1
10.3478 0 1
10.4648 0 1
10.5819 0 1
10.6991 0 1
10.8162 0 1
10.9334 0 1
11.0506 0 1
11.1678 0 1
11.285 0 1
11.4023 0 1
11.5196 0 1
11.6369 0 1
11.7542 0 1
11.8715 0 1
11.9888 0 1
12.1062 0 1
12.2235 0 1
12.3409 0 1
12.4582 0 1
12.5756 0 1
12.693 0 1
12.8104 0 1
12.9278 0 1
13.0452 0 1
13.1626 0 1
13.28 0 1
13.3974 0 1
13.5149 0 1
13.6323 0 1
13.7497 0 1
13.8671 0 1
13.9845 0 1
14.1019 0 1
14.2193 0 1
14.3367 0 1
14.4541 0 1
14.5714 0 1
14.6888 0 1
14.8062 0 1
14.9235 0 1
15.0408 0 0
15.1581 0 0
15.2755 0 0
15.3927 0 0
15.51 0 0
15.6273 0 0
15.7445 0 0
15.8617 0 0
15.9789 0 0
16.0961 0 0
16.2132 0 0
16.3304 0 0
16.4475 0 0
16.5646 0 0
16.6816 0 0
16.7986 0 0
16.9156 0 0
17.0326 0 0
17.1496 0 0
17.2665 0 0
17.3833 0 0
17.5002 0 0
17.617 0 0
17.7338 0 0
17.8505 0 0
17.9672 0 0
18.0839 0 0
18.2005 0 0
18.3171 0 0
18.4337 0 0
18.5502 0 0
18.6666 0 0
18.7831 0 0
18.8994 0 0
19.0158 0 0
19.1321 0 0
19.2483 0 0
19.3645 0 0
19.4806 0 0
19.5967 0 0
19.7128 0 0
19.8288 0 0
19.9447 0 0
20.0606 0 1
20.1764 0 1
20.2922 0 1
20.4079 0 1
20.5236 0 1
20.6392 0 1
20.7548 0 1
20.8702 0 1
23.3078 0 1
23.4233 0 1
23.539 0 1
23.6547 0 1
23.7704 0 1
23.8862 0 1
24.0021 0 1
24.118 0 1
24.234 0 1
24.35 0 1
24.4661 1755 41.8927
24.5822 1809 42.5323
24.6984 1848 42.9884
24.8146 1785 42.2493
24.9309 1806 42.4971
25.0472 1757 41.9166
25.1636 1658 40.7185
25.28 1718 41.4488
25.3965 1768 42.0476
25.513 1779 42.1782
25.6296 1859 43.1161
25.7462 1937 44.0114
25.8628 1951 44.1701
25.9795 2118 46.0217
26.0962 2077 45.5741
26.213 2117 46.0109
26.3298 2095 45.7712
26.4466 2148 46.3465
26.5635 2013 44.8665
26.6804 1888 43.4511
26.7973 1842 42.9185
26.9143 1761 41.9643
27.0313 1934 43.9773
27.1483 1935 43.9886
27.2653 1984 44.5421
27.3824 2083 45.6399
27.4996 1999 44.7102
27.6167 1964 44.317
27.7339 1998 44.699
27.8511 2061 45.3982
27.9683 1886 43.4281
28.0855 1873 43.2782
28.2028 1880 43.359
28.3201 1805 42.4853
28.4374 1792 42.332
28.5547 1705 41.2916
28.6721 1711 41.3642
28.7894 1697 41.1947
28.9068 1727 41.5572
29.0242 1779 42.1782
29.1416 1820 42.6615
29.259 1843 42.9302
29.3764 2018 44.9222
29.4939 2022 44.9667
29.6113 2045 45.2217
29.7288 2041 45.1774
29.8463 2095 45.7712
29.9638 2156 46.4327
30.0812 2064 45.4313
30.1987 1867 43.2088
30.3162 1864 43.1741
30.4337 1773 42.107
30.5512 1917 43.7836
30.6687 1921 43.8292
30.7862 2071 45.5082
30.9037 2082 45.6289
31.0212 2070 45.4973
31.1387 2115 45.9891
31.2562 2024 44.9889
31.3737 1943 44.0795
31.4912 2029 45.0444
31.6087 1997 44.6878
31.7262 1936 44
31.8436 1895 43.5316
31.9611 1823 42.6966
32.0785 1861 43.1393
32.1959 1816 42.6146
32.3134 1762 41.9762
32.4308 1755 41.8927
32.5482 1764 42
32.6655 1811 42.5558
32.7829 1900 43.589
32.9002 1922 43.8406
33.0176 2044 45.2106
33.1349 2025 45
33.2522 2091 45.7275
33.3694 2130 46.1519
33.4867 2056 45.3431
33.6039 2065 45.4423
33.7211 2048 45.2548
33.8383 1953 44.1928
33.9554 1795 42.3674
34.0725 1799 42.4146
34.1896 1779 42.1782
34.3067 1820 42.6615
34.4237 1915 43.7607
34.5407 2005 44.7772
34.6577 2100 45.8258
34.7746 2050 45.2769
34.8915 1948 44.1362
35.0084 2006 44.7884
35.1252 2061 45.3982
35.242 1909 43.6921
35.3587 1956 44.2267
35.4755 1874 43.2897
35.5921 1834 42.8252
35.7088 1796 42.3792
35.8254 1834 42.8252
35.9419 1743 41.7493
36.0584 1732 41.6173
36.1749 1708 41.328
36.2913 1736 41.6653
36.4077 1829 42.7668
36.524 1788 42.2847
36.6403 1937 44.0114
36.7565 1927 43.8976
36.8727 1960 44.2719
36.9889 1947 44.1248
37.1049 1996 44.6766
37.221 0 1
37.3369 0 1
37.4529 0 1
37.5687 0 1
37.6845 0 1
37.8003 0 1
37.916 0 1
38.0316 0 1
38.1472 0 1
40.5851 0 1
40.7008 0 1
40.8164 0 1
40.9322 0 1
41.048 0 1
41.1639 0 1
41.2798 0 1
41.3958 0 1
41.5118 0 1
41.6279 0 1
41.744 1475 38.4057
41.8602 1683 41.0244
41.9765 1642 40.5216
42.0928 1749 41.821
42.2091 1756 41.9047
42.3255 1775 42.1307
42.4419 1739 41.7013
42.5584 1793 42.3438
42.675 1588 39.8497
42.7915 1526 39.064
42.9081 1545 39.3065
43.0248 1612 40.1497
43.1415 1650 40.6202
43.2582 1654 40.6694
43.375 1715 41.4126
43.4918 1764 42
43.6087 1785 42.2493
43.7256 1836 42.8486
43.8425 1720 41.4729
43.9595 1643 40.5339
44.0765 1590 39.8748
44.1935 1621 40.2616
44.3106 1547 39.3319
44.4277 1565 39.5601
44.5448 1543 39.281
44.6619 1435 37.8814
44.7791 1262 35.5246
44.8963 1247 35.3129
45.0136 1273 35.6791
45.1308 1306 36.1386
45.2481 1348 36.7151
45.3654 1364 36.9324
45.4827 1585 39.8121
45.6001 1580 39.7492
45.7174 1469 38.3275
45.8348 1442 37.9737
45.9522 1443 37.9868
46.0697 1396 37.3631
46.1871 1366 36.9594
46.3046 1256 35.4401
46.422 1227 35.0286
46.5395 1284 35.8329
46.657 1364 36.9324
46.7745 1345 36.6742
46.892 1382 37.1753
47.0096 1347 36.7015
47.1271 1364 36.9324
47.2446 1340 36.606
47.3622 1340 36.606
47.4797 1270 35.6371
47.5973 1294 35.9722
47.7149 1236 35.1568
47.8324 1192 34.5254
47.95 1201 34.6554
48.0675 1227 35.0286
48.1851 1106 33.2566
48.3027 1003 31.6702
48.4202 950 30.8221
48.5378 959 30.9677
48.6554 1058 32.5269
48.7729 1090 33.0151
48.8904 1160 34.0588
49.008 1200 34.641
49.1255 1265 35.5668
49.243 1306 36.1386
49.3605 1253 35.3977
49.478 1231 35.0856
49.5955 1217 34.8855
49.713 1154 33.9706
49.8304 1112 33.3467
49.9479 1082 32.8938
50.0653 1128 33.5857
50.1827 1159 34.0441
50.3001 1272 35.6651
50.4175 1315 36.2629
50.5348 1393 37.3229
50.6521 1405 37.4833
50.7694 1413 37.5899
50.8867 1493 38.6394
51.004 1458 38.1838
51.1212 1485 38.5357
51.2384 1408 37.5233
51.3556 1453 38.1182
51.4727 1367 36.973
51.5899 1387 37.2424
51.707 1346 36.6879
51.824 1281 35.7911
51.9411 1281 35.7911
52.0581 1321 36.3456
52.175 1396 37.3631
52.2919 1429 37.8021
52.4088 1557 39.4588
52.5257 1548 39.3446
52.6425 1636 40.4475
52.7593 1744 41.7612
52.876 1697 41.1947
52.9927 1701 41.2432
53.1094 1676 40.939
53.226 1573 39.6611
53.3426 1542 39.2683
53.4591 1406 37.4967
53.5756 1514 38.9102
53.692 1503 38.7685
53.8084 1597 39.9625
53.9248 1722 41.497
54.0411 1727 41.5572
54.1573 1814 42.5911
54.2735 0 1
54.3896 0 1
54.5057 0 1
54.6217 0 1
54.7377 0 1
54.8537 0 1
54.9695 0 1
55.0853 0 1
55.2011 0 1
55.3168 0 1
55.4324 0 1
57.824 0 1
57.9396 0 1
58.0553 0 1
58.1711 0 1
58.2869 0 1
58.4028 0 1
58.5187 0 1
58.6347 0 1
58.7508 0 1
58.8669 0 1
58.983 1809 42.5323
59.0992 1939 44.0341
59.2155 2075 45.5522
59.3318 2152 46.3897
59.4482 2163 46.5081
59.5646 2169 46.5725
59.681 2159 46.465
59.7975 2186 46.7547
59.9141 2011 44.8442
60.0306 2029 45.0444
60.1473 1901 43.6005
60.2639 1815 42.6028
60.3807 1834 42.8252
60.4974 1743 41.7493
60.6142 1697 41.1947
60.731 1711 41.3642
60.8479 1744 41.7612
60.9648 1842 42.9185
61.0818 1849 43
61.1987 1939 44.0341
61.3158 2003 44.7549
61.4328 1951 44.1701
61.5499 2011 44.8442
61.667 1905 43.6463
61.7841 1860 43.1277
61.9013 1699 41.2189
62.0185 1682 41.0122
62.1357 1713 41.3884
62.253 1726 41.5452
62.3702 1811 42.5558
62.4875 1906 43.6578
62.6049 1932 43.9545
62.7222 2009 44.8219
62.8396 1979 44.486
62.9569 1938 44.0227
63.0743 2078 45.5851
63.1918 1983 44.5309
63.3092 1950 44.1588
63.4267 1946 44.1135
63.5441 1896 43.5431
63.6616 1817 42.6263
63.7791 1801 42.4382
63.8966 1676 40.939
64.0142 1569 39.6106
64.1317 1533 39.1535
64.2492 1563 39.5348
64.3668 1648 40.5956
64.4843 1698 41.2068
64.6019 1849 43
64.7195 1813 42.5793
64.837 1845 42.9535
64.9546 1835 42.8369
65.0722 1871 43.2551
65.1898 1790 42.3084
65.3074 1794 42.3556
65.4249 1639 40.4846
65.5425 1517 38.9487
65.6601 1513 38.8973
65.7777 1566 39.5727
65.8952 1645 40.5586
66.0128 1675 40.9268
66.1304 1833 42.8135
66.2479 1889 43.4626
66.3655 1804 42.4735
66.483 1840 42.8952
66.6005 1919 43.8064
66.718 1859 43.1161
66.8355 1876 43.3128
66.953 1870 43.2435
67.0705 1834 42.8252
67.1879 1776 42.1426
67.3054 1742 41.7373
67.4228 1627 40.3361
67.5402 1534 39.1663
67.6576 1535 39.1791
67.7749 1455 38.1445
67.8923 1460 38.2099
68.0096 1511 38.8716
68.1269 1694 41.1582
68.2442 1772 42.0951
68.3614 1894 43.5201
68.4787 1844 42.9418
68.5958 1813 42.5793
68.713 1853 43.0465
68.8302 1765 42.0119
68.9473 1783 42.2256
69.0643 1621 40.2616
69.1814 1525 39.0512
69.2984 1490 38.6005
69.4154 1547 39.3319
69.5323 1689 41.0974
69.6492 1805 42.4853
69.7661 1850 43.0116
69.8829 1918 43.795
69.9997 1893 43.5086
70.1165 1942 44.0681
70.2332 1940 44.0454
70.3499 2000 44.7214
70.4665 2032 45.0777
70.5831 2029 45.0444
70.6996 1957 44.238
70.8161 1790 42.3084
70.9326 1796 42.3792
71.049 1746 41.7852
71.1653 1606 40.0749
71.2817 1522 39.0128
71.3979 1443 37.9868
71.5141 1385 37.2156
71.6303 1472 38.3667
71.7464 1382 37.1753
71.8624 0 1
71.9784 0 1
72.0944 0 1
72.2102 0 1
72.3261 0 1
72.4418 0 1
72.5575 0 1
72.6732 0 1
75.1054 0 1
75.2209 0 1
75.3365 0 1
75.4521 0 1
75.5678 0 1
75.6835 0 1
75.7993 0 1
75.9151 0 1
76.031 0 1
76.147 1575 39.6863
76.263 1776 42.1426
76.3791 1749 41.821
76.4952 1604 40.05
76.6113 1497 38.6911
76.7276 1438 37.921
76.8438 1455 38.1445
76.9601 1437 37.9078
77.0765 1550 39.37
77.1929 1679 40.9756
77.3093 1872 43.2666
77.4258 1822 42.6849
77.5423 1850 43.0116
77.6589 1887 43.4396
77.7755 1912 43.7264
77.8921 1795 42.3674
78.0088 1757 41.9166
78.1256 1551 39.3827
78.2423 1481 38.4838
78.3591 1452 38.1051
78.4759 1434 37.8682
78.5928 1576 39.6989
78.7097 1717 41.4367
78.8266 1785 42.2493
78.9436 1859 43.1161
79.0606 1865 43.1856
79.1776 1878 43.3359
79.2946 1922 43.8406
79.4117 1863 43.1625
79.5288 1827 42.7434
79.6459 1823 42.6966
79.7631 1753 41.8688
79.8802 1799 42.4146
79.9974 1653 40.6571
80.1147 1671 40.8779
80.2319 1459 38.1969
80.3491 1466 38.2884
80.4664 1382 37.1753
80.5837 1356 36.8239
80.701 1533 39.1535
80.8183 1692 41.1339
80.9357 1726 41.5452
81.053 1779 42.1782
81.1704 1727 41.5572
81.2877 1771 42.0833
81.4051 1735 41.6533
81.5225 1741 41.7253
81.6399 1570 39.6232
81.7573 1500 38.7298
81.8747 1449 38.0657
81.9922 1383 37.1887
82.1096 1392 37.3095
82.227 1511 38.8716
82.3444 1608 40.0999
82.4619 1698 41.2068
82.5793 1811 42.5558
82.6967 1742 41.7373
82.8142 1850 43.0116
82.9316 1769 42.0595
83.049 1706 41.3038
83.1664 1798 42.4028
83.2838 1719 41.4608
83.4012 1712 41.3763
83.5186 1554 39.4208
83.636 1586 39.8246
83.7534 1483 38.5097
83.8708 1430 37.8153
83.9881 1310 36.1939
84.1055 1284 35.8329
84.2228 1372 37.0405
84.3401 1395 37.3497
84.4575 1572 39.6485
84.5747 1646 40.5709
84.692 1674 40.9145
84.8093 1753 41.8688
84.9265 1679 40.9756
85.0437 1694 41.1582
85.1609 1596 39.95
85.2781 1567 39.5854
85.3952 1360 36.8782
85.5123 1313 36.2353
85.6294 1264 35.5528
85.7465 1376 37.0945
85.8636 1533 39.1535
85.9806 1629 40.3609
86.0976 1797 42.391
86.2145 1791 42.3202
86.3315 1835 42.8369
86.4484 1936 44
86.5652 1980 44.4972
86.682 2023 44.9778
86.7988 1962 44.2945
86.9156 1920 43.8178
87.0323 1788 42.2847
87.149 1782 42.2137
87.2657 1774 42.1189
87.3823 1695 41.1704
87.4988 1585 39.8121
87.6154 1484 38.5227
87.7318 1620 40.2492
87.8483 1650 40.6202
87.9647 1786 42.2611
88.081 1823 42.6966
88.1973 1920 43.8178
88.3136 1969 44.3734
88.4298 1891 43.4856
88.546 1817 42.6263
88.6621 1803 42.4617
88.7781 1718 41.4488
88.8942 0 1
89.0101 0 1
89.126 0 1
89.2419 0 1
89.3577 0 1
89.4734 0 1
89.5891 0 1
89.7047 0 1
89.8203 0 1
89.9358 0 1
92.3269 0 1
92.4424 0 1
92.558 0 1
92.6736 0 1
92.7893 0 1
92.905 0 1
93.0208 0 1
93.1366 0 1
93.2525 0 1
93.3685 0 1
93.4845 0 1
93.6005 1928 43.909
93.7167 1964 44.317
93.8328 1990 44.6094
93.949 1942 44.0681
94.0653 1867 43.2088
94.1816 1827 42.7434
94.2979 1714 41.4005
94.4143 1630 40.3733
94.5307 1595 39.9375
94.6472 1526 39.064
94.7637 1502 38.7556
94.8803 1789 42.2966
94.9969 1898 43.566
95.1135 1956 44.2267
95.2302 2033 45.0888
95.3469 2087 45.6837
95.4637 2083 45.6399
95.5805 2104 45.8694
95.6973 2211 47.0213
95.8142 2223 47.1487
95.9311 2139 46.2493
96.048 2108 45.913
96.1649 1997 44.6878
96.2819 1957 44.238
96.3989 1954 44.2041
96.516 1809 42.5323
96.633 1736 41.6653
96.7501 1687 41.0731
96.8673 1741 41.7253
96.9844 1812 42.5676
97.1016 1907 43.6692
97.2188 2017 44.911
97.336 2032 45.0777
97.4532 2077 45.5741
97.5704 2242 47.3498
97.6877 2002 44.7437
97.805 2001 44.7325
97.9223 1864 43.1741
98.0396 1775 42.1307
98.1569 1692 41.1339
98.2743 1626 40.3237
98.3916 1702 41.2553
98.509 1794 42.3556
98.6264 1962 44.2945
98.7438 2057 45.3542
98.8612 2108 45.913
98.9786 2206 46.9681
99.096 2360 48.5798
99.2134 2401 49
99.3308 2217 47.085
99.4482 2214 47.0532
99.5656 2197 46.8722
99.6831 2288 47.833
99.8005 2141 46.2709
99.9179 2070 45.4973
100.035 2025 45
100.153 1952 44.1814
100.27 1884 43.4051
100.388 1790 42.3084
100.505 1823 42.6966
100.622 2033 45.0888
100.74 2115 45.9891
100.857 2227 47.1911
100.975 2257 47.5079
101.092 2228 47.2017
101.209 2192 46.8188
101.327 2194 46.8402
101.444 2083 45.6399
101.561 1967 44.3509
101.679 1739 41.7013
101.796 1731 41.6053
101.913 1685 41.0488
102.03 1828 42.7551
102.148 2014 44.8776
102.265 2234 47.2652
102.382 2178 46.669
102.499 2298 47.9375
102.616 2404 49.0306
102.733 2394 48.9285
102.851 2414 49.1325
102.968 2405 49.0408
103.085 2423 49.224
103.202 2364 48.621
103.319 2342 48.3942
103.436 2255 47.4868
103.552 2201 46.9148
103.669 2028 45.0333
103.786 2016 44.8999
103.903 1894 43.5201
104.02 1891 43.4856
104.137 2080 45.607
104.253 2334 48.3115
104.37 2362 48.6004
104.487 2459 49.5883
104.603 2359 48.5695
104.72 2388 48.8672
104.836 2283 47.7807
104.953 2201 46.9148
105.069 2053 45.31
105.186 1906 43.6578
105.302 1790 42.3084
105.418 1885 43.4166
105.535 2063 45.4203
105.651 2186 46.7547
105.767 2292 47.8748
105.883 2401 49
105.999 2482 49.8197
106.115 0 1
106.231 0 1
106.347 0 1
106.463 0 1
106.579 0 1
106.694 0 1
106.81 0 1
106.926 0 1
107.041 0 1
107.157 0 1
109.576 0 1
109.692 0 1
109.807 0 1
109.923 0 1
110.039 0 1
110.155 0 1
110.27 0 1
110.386 0 1
110.502 0 1
110.618 1945 44.1022
110.735 2132 46.1736
110.851 2264 47.5815
110.967 2351 48.4871
111.083 2350 48.4768
111.199 2482 49.8197
111.316 2593 50.9215
111.432 2535 50.3488
111.549 2438 49.3761
111.665 2431 49.3052
111.782 2408 49.0714
111.898 2339 48.3632
112.015 2326 48.2286
112.132 2089 45.7056
112.248 2022 44.9667
112.365 1939 44.0341
112.482 1876 43.3128
112.599 2081 45.618
112.716 2266 47.6025
112.832 2284 47.7912
112.949 2402 49.0102
113.066 2436 49.3559
113.183 2440 49.3964
113.3 2341 48.3839
113.417 2303 47.9896
113.534 2064 45.4313
113.652 1935 43.9886
113.769 1817 42.6263
113.886 1766 42.0238
114.003 1853 43.0465
114.12 2004 44.7661
114.238 2163 46.5081
114.355 2195 46.8508
114.472 2471 49.7092
114.589 2200 46.9042
114.707 2392 48.9081
114.824 2413 49.1223
114.942 2424 49.2341
115.059 2490 49.8999
115.176 2424 49.2341
115.294 2394 48.9285
115.411 2396 48.949
115.529 2200 46.9042
115.646 2172 46.6047
115.764 2042 45.1885
115.881 1839 42.8836
115.999 1907 43.6692
116.116 1940 44.0454
116.234 2085 45.6618
116.351 2209 47
116.469 2280 47.7493
116.586 2265 47.592
116.704 2236 47.2864
116.821 2329 48.2597
116.939 2191 46.8081
117.056 2095 45.7712
117.174 1913 43.7379
117.291 1824 42.7083
117.409 1752 41.8569
117.526 1729 41.5812
117.644 1844 42.9418
117.761 2008 44.8107
117.879 2066 45.4533
117.996 2210 47.0106
118.114 2304 48
118.231 2229 47.2123
118.349 2307 48.0312
118.466 2184 46.7333
118.584 2306 48.0208
118.701 2311 48.0729
118.819 2258 47.5184
118.936 2267 47.613
119.053 2238 47.3075
119.171 2080 45.607
119.288 2125 46.0977
119.405 1944 44.0908
119.523 1882 43.382
119.64 1852 43.0349
119.757 1841 42.9069
119.875 1982 44.5197
119.992 1986 44.5646
120.109 2120 46.0435
120.226 2197 46.8722
120.343 2235 47.2758
120.46 2129 46.1411
120.578 2056 45.3431
120.695 1914 43.7493
120.812 2006 44.7884
120.929 1722 41.497
121.046 1674 40.9145
121.163 1692 41.1339
121.279 1574 39.6737
121.396 1839 42.8836
121.513 1981 44.5084
121.63 2074 45.5412
121.747 2164 46.5188
121.863 2139 46.2493
121.98 2167 46.551
122.097 2106 45.8912
122.213 2169 46.5725
122.33 2169 46.5725
122.446 2185 46.744
122.563 2105 45.8803
122.679 2111 45.9456
122.795 1961 44.2832
122.912 1950 44.1588
123.028 1942 44.0681
123.144 1792 42.332
123.26 1676 40.939
123.377 0 1
123.493 0 1
123.609 0 1
123.725 0 1
123.84 0 1
123.956 0 1
124.072 0 1
124.188 0 1
124.303 0 1
124.419 0 1
126.852 0 1
126.968 0 1
127.083 0 1
127.199 0 1
127.315 0 1
127.431 0 1
127.547 0 1
127.663 0 1
127.779 0 1
127.895 0 1
128.011 0 1
128.127 0 1
128.243 0 1
128.359 1927 43.8976
128.476 1878 43.3359
128.592 1864 43.1741
128.708 1902 43.6119
128.825 2102 45.8476
128.941 2113 45.9674
129.058 2185 46.744
129.174 2217 47.085
129.291 2101 45.8367
129.408 2160 46.4758
129.524 2029 45.0444
129.641 2050 45.2769
129.758 1839 42.8836
129.875 1775 42.1307
129.992 1745 41.7732
130.108 1680 40.9878
130.225 1815 42.6028
130.342 1885 43.4166
130.459 1954 44.2041
130.576 2069 45.4863
130.693 2084 45.6508
130.81 2196 46.8615
130.928 2233 47.2546
131.045 2194 46.8402
131.162 2184 46.7333
131.279 2244 47.3709
131.396 2316 48.1248
131.513 2172 46.6047
131.631 2136 46.2169
131.748 2121 46.0543
131.865 2082 45.6289
131.983 1975 44.441
132.1 1877 43.3244
132.217 1834 42.8252
132.335 2063 45.4203
132.452 2083 45.6399
132.57 2146 46.3249
132.687 2145 46.3141
132.804 2245 47.3814
132.922 2195 46.8508
133.039 2146 46.3249
133.157 2046 45.2327
133.274 1910 43.7035
133.392 1706 41.3038
133.509 1778 42.1663
133.627 1755 41.8927
133.744 1789 42.2966
133.862 1904 43.6348
133.979 2013 44.8665
134.097 2150 46.3681
134.214 2153 46.4004
134.332 2197 46.8722
134.449 2237 47.2969
134.567 2230 47.2229
134.684 2264 47.5815
134.802 2294 47.8957
134.919 2281 47.7598
135.037 2272 47.6655
135.154 2239 47.3181
135.272 2155 46.422
135.389 2074 45.5412
135.507 2002 44.7437
135.624 1850 43.0116
135.742 1930 43.9318
135.859 2014 44.8776
135.977 2101 45.8367
136.094 2268 47.6235
136.211 2176 46.6476
136.329 2176 46.6476
136.446 2157 46.4435
136.564 2193 46.8295
136.681 2039 45.1553
136.798 1999 44.7102
136.915 1906 43.6578
137.033 1810 42.5441
137.15 1741 41.7253
137.267 1753 41.8688
137.384 1735 41.6533
137.502 1844 42.9418
137.619 1933 43.9659
137.736 1993 44.643
137.853 2048 45.2548
137.97 2135 46.2061
138.087 2135 46.2061
138.204 2178 46.669
138.321 2271 47.655
138.438 2186 46.7547
138.555 2249 47.4236
138.672 2301 47.9687
138.788 2206 46.9681
138.905 2090 45.7165
139.022 2123 46.076
139.139 2098 45.8039
139.255 2016 44.8999
139.372 1953 44.1928
139.488 2044 45.2106
139.605 2198 46.8828
139.721 2153 46.4004
139.838 2296 47.9166
139.954 2247 47.4025
140.071 2177 46.6583
140.187 2201 46.9148
140.303 2193 46.8295
140.419 2012 44.8553
140.535 1900 43.589
140.652 1877 43.3244
140.768 0 1
140.884 0 1
141 0 1
141.115 0 1
141.231 0 1
141.347 0 1
141.463 0 1
141.578 0 1
141.694 0 1
144.104 0 1
144.219 0 1
144.335 0 1
144.45 0 1
144.566 0 1
144.682 0 1
144.798 0 1
144.914 0 1
145.03 0 1
145.146 1986 44.5646
145.262 1903 43.6234
145.378 1837 42.8602
145.494 1769 42.0595
145.61 1672 40.8901
145.726 1564 39.5474
145.842 1556 39.4462
145.959 1634 40.4228
146.075 1708 41.328
146.192 1683 41.0244
146.308 1772 42.0951
146.425 1799 42.4146
146.541 1833 42.8135
146.658 1955 44.2154
146.774 1901 43.6005
146.891 1951 44.1701
147.008 1950 44.1588
147.125 2038 45.1442
147.241 2036 45.1221
147.358 2023 44.9778
147.475 1946 44.1135
147.592 1906 43.6578
147.709 1831 42.7902
147.826 1771 42.0833
147.943 1654 40.6694
148.06 1737 41.6773
148.177 1879 43.3474
148.294 1987 44.5758
148.411 1967 44.3509
148.528 1988 44.587
148.645 1872 43.2666
148.762 1900 43.589
148.88 1885 43.4166
148.997 1750 41.833
149.114 1752 41.8569
149.231 1588 39.8497
149.349 1730 41.5933
149.466 1521 39
149.583 1497 38.6911
149.701 1518 38.9615
149.818 1792 42.332
149.935 1643 40.5339
150.053 1746 41.7852
150.17 1759 41.9404
150.287 1757 41.9166
150.405 1834 42.8252
150.522 1853 43.0465
150.64 1845 42.9535
150.757 1951 44.1701
150.875 1924 43.8634
150.992 1957 44.238
151.11 1859 43.1161
151.227 1836 42.8486
151.344 1756 41.9047
151.462 1662 40.7676
151.579 1654 40.6694
151.697 1741 41.7253
151.814 1806 42.4971
151.932 1920 43.8178
152.049 1867 43.2088
152.167 1911 43.715
152.284 1954 44.2041
152.402 1886 43.4281
152.519 1829 42.7668
152.636 1807 42.5088
152.754 1716 41.4246
152.871 1628 40.3485
152.989 1550 39.37
153.106 1566 39.5727
153.223 1606 40.0749
153.341 1582 39.7744
153.458 1676 40.939
153.575 1682 41.0122
153.693 1770 42.0714
153.81 1862 43.1509
153.927 1813 42.5793
154.044 1804 42.4735
154.162 1851 43.0232
154.279 1907 43.6692
154.396 1981 44.5084
154.513 2016 44.8999
154.63 1949 44.1475
154.747 1914 43.7493
154.864 1945 44.1022
154.981 1890 43.4741
155.098 1754 41.8808
155.215 1699 41.2189
155.332 1792 42.332
155.449 1981 44.5084
155.566 1883 43.3935
155.683 1883 43.3935
155.8 1900 43.589
155.917 1924 43.8634
156.033 1967 44.3509
156.15 0 1
156.267 0 1
156.383 0 1
156.5 0 1
156.617 0 1
156.733 0 1
156.85 0 1
156.966 0 1
157.082 0 1
157.199 0 1
157.315 0 1
157.431 0 1
157.547 0 1
157.664 0 1
157.78 0 1
157.896 0 1
158.012 0 1
158.128 0 1
158.244 0 1
158.359 0 1
158.475 0 1
158.591 0 1
158.706 0 1
