
6.15755 0 1
6.2731 0 1
6.3887 0 1
6.50437 0 1
6.62009 0 1
6.73587 0 1
6.8517 0 1
6.96759 0 1
7.08353 0 1
7.19952 0 1
7.31557 0 1
7.43166 0 1
7.54781 0 1
7.664 0 1
7.78024 0 1
7.89653 0 1
8.01286 0 1
8.12924 0 1
8.24567 0 1
8.36213 0 1
8.47864 0 1
8.59519 0 1
8.71178 0 1
8.82841 0 1
8.94508 0 1
9.06179 0 1
9.17853 0 1
9.29531 0 1
9.41212 0 1
9.52897 0 1
9.64584 0 1
9.76276 0 1
9.8797 0 1
9.99667 0 1
10.1137 0 1
10.2307 0 1
10.3478 0 1
10.4648 0 1
10.5819 0 1
10.6991 0 1
10.8162 0 1
10.9334 0 1
11.0506 0 1
11.1678 0 1
11.285 0 1
11.4023 0 1
11.5196 0 1
11.6369 0 1
11.7542 0 1
11.8715 0 1
11.9888 0 1
12.1062 0 1
12.2235 0 1
12.3409 0 1
12.4582 0 1
12.5756 0 1
12.693 0 1
12.8104 0 1
12.9278 0 1
13.0452 0 1
13.1626 0 1
13.28 0 1
13.3974 0 1
13.5149 0 1
13.6323 0 1
13.7497 0 1
13.8671 0 1
13.9845 0 1
14.1019 0 1
14.2193 0 1
14.3367 0 1
14.4541 0 1
14.5714 0 1
14.6888 0 1
14.8062 0 1
14.9235 0 1
15.0408 733 27.074
15.1581 777 27.8747
15.2755 789 28.0891
15.3927 787 28.0535
15.51 812 28.4956
15.6273 874 29.5635
15.7445 859 29.3087
15.8617 893 29.8831
15.9789 805 28.3725
16.0961 783 27.9821
16.2132 829 28.7924
16.3304 811 28.4781
16.4475 753 27.4408
16.5646 778 27.8927
16.6816 766 27.6767
16.7986 757 27.5136
16.9156 740 27.2029
17.0326 779 27.9106
17.1496 776 27.8568
17.2665 713 26.7021
17.3833 727 26.9629
17.5002 639 25.2784
17.617 734 27.0924
17.7338 720 26.8328
17.8505 763 27.6225
17.9672 737 27.1477
18.0839 820 28.6356
18.2005 839 28.9655
18.3171 894 29.8998
18.4337 950 30.8221
18.5502 937 30.6105
18.6666 936 30.5941
18.7831 864 29.3939
18.8994 926 30.4302
19.0158 843 29.0345
19.1321 865 29.4109
19.2483 846 29.0861
19.3645 864 29.3939
19.4806 798 28.2489
19.5967 750 27.3861
19.7128 760 27.5681
19.8288 701 26.4764
19.9447 744 27.2764
20.0606 0 1
20.1764 0 1
20.2922 0 1
20.4079 0 1
20.5236 0 1
20.6392 0 1
20.7548 0 1
20.8702 0 1
23.3078 0 1
23.4233 0 1
23.539 0 1
23.6547 0 1
23.7704 0 1
23.8862 0 1
24.0021 0 1
24.118 0 1
24.234 0 1
24.35 0 1
24.4661 776 27.8568
24.5822 770 27.7489
24.6984 819 28.6182
24.8146 781 27.9464
24.9309 805 28.3725
25.0472 752 27.4226
25.1636 803 28.3373
25.28 776 27.8568
25.3965 850 29.1548
25.513 834 28.8791
25.6296 836 28.9137
25.7462 819 28.6182
25.8628 816 28.5657
25.9795 858 29.2916
26.0962 848 29.1204
26.213 919 30.315
26.3298 849 29.1376
26.4466 886 29.7658
26.5635 809 28.4429
26.6804 842 29.0172
26.7973 804 28.3549
26.9143 792 28.1425
27.0313 761 27.5862
27.1483 757 27.5136
27.2653 788 28.0713
27.3824 816 28.5657
27.4996 754 27.4591
27.6167 818 28.6007
27.7339 834 28.8791
27.8511 750 27.3861
27.9683 803 28.3373
28.0855 791 28.1247
28.2028 830 28.8097
28.3201 769 27.7308
28.4374 790 28.1069
28.5547 798 28.2489
28.6721 786 28.0357
28.7894 788 28.0713
28.9068 818 28.6007
29.0242 757 27.5136
29.1416 735 27.1109
29.259 798 28.2489
29.3764 748 27.3496
29.4939 782 27.9643
29.6113 733 27.074
29.7288 645 25.3969
29.8463 726 26.9444
29.9638 721 26.8514
30.0812 689 26.2488
30.1987 692 26.3059
30.3162 660 25.6905
30.4337 734 27.0924
30.5512 745 27.2947
30.6687 749 27.3679
30.7862 775 27.8388
30.9037 714 26.7208
31.0212 803 28.3373
31.1387 767 27.6948
31.2562 833 28.8617
31.3737 757 27.5136
31.4912 797 28.2312
31.6087 803 28.3373
31.7262 814 28.5307
31.8436 778 27.8927
31.9611 772 27.7849
32.0785 728 26.9815
32.1959 798 28.2489
32.3134 754 27.4591
32.4308 768 27.7128
32.5482 760 27.5681
32.6655 720 26.8328
32.7829 702 26.4953
32.9002 674 25.9615
33.0176 685 26.1725
33.1349 646 25.4165
33.2522 668 25.8457
33.3694 645 25.3969
33.4867 696 26.3818
33.6039 651 25.5147
33.7211 646 25.4165
33.8383 617 24.8395
33.9554 711 26.6646
34.0725 700 26.4575
34.1896 715 26.7395
34.3067 678 26.0384
34.4237 753 27.4408
34.5407 694 26.3439
34.6577 774 27.8209
34.7746 769 27.7308
34.8915 807 28.4077
35.0084 867 29.4449
35.1252 821 28.6531
35.242 825 28.7228
35.3587 794 28.178
35.4755 790 28.1069
35.5921 725 26.9258
35.7088 762 27.6043
35.8254 744 27.2764
35.9419 697 26.4008
36.0584 705 26.5518
36.1749 718 26.7955
36.2913 710 26.6458
36.4077 681 26.096
36.524 651 25.5147
36.6403 688 26.2298
36.7565 622 24.9399
36.8727 656 25.6125
36.9889 606 24.6171
37.1049 590 24.2899
37.221 0 1
37.3369 0 1
37.4529 0 1
37.5687 0 1
37.6845 0 1
37.8003 0 1
37.916 0 1
38.0316 0 1
38.1472 0 1
40.5851 0 1
40.7008 0 1
40.8164 0 1
40.9322 0 1
41.048 0 1
41.1639 0 1
41.2798 0 1
41.3958 0 1
41.5118 0 1
41.6279 0 1
41.744 559 23.6432
41.8602 529 23
41.9765 510 22.5832
42.0928 491 22.1585
42.2091 514 22.6716
42.3255 459 21.4243
42.4419 539 23.2164
42.5584 509 22.561
42.675 545 23.3452
42.7915 536 23.1517
42.9081 573 23.9374
43.0248 608 24.6577
43.1415 596 24.4131
43.2582 509 22.561
43.375 563 23.7276
43.4918 590 24.2899
43.6087 592 24.3311
43.7256 593 24.3516
43.8425 574 23.9583
43.9595 572 23.9165
44.0765 567 23.8118
44.1935 553 23.516
44.3106 527 22.9565
44.4277 517 22.7376
44.5448 550 23.4521
44.6619 493 22.2036
44.7791 519 22.7816
44.8963 468 21.6333
45.0136 454 21.3073
45.1308 494 22.2261
45.2481 461 21.4709
45.3654 467 21.6102
45.4827 454 21.3073
45.6001 428 20.6882
45.7174 405 20.1246
45.8348 389 19.7231
45.9522 380 19.4936
46.0697 418 20.445
46.1871 397 19.9249
46.3046 390 19.7484
46.422 407 20.1742
46.5395 405 20.1246
46.657 436 20.8806
46.7745 384 19.5959
46.892 433 20.8087
47.0096 431 20.7605
47.1271 449 21.1896
47.2446 422 20.5426
47.3622 389 19.7231
47.4797 383 19.5704
47.5973 393 19.8242
47.7149 377 19.4165
47.8324 367 19.1572
47.95 366 19.1311
48.0675 358 18.9209
48.1851 362 19.0263
48.3027 352 18.7617
48.4202 376 19.3907
48.5378 358 18.9209
48.6554 392 19.799
48.7729 391 19.7737
48.8904 372 19.2873
49.008 352 18.7617
49.1255 308 17.5499
49.243 361 19
49.3605 302 17.3781
49.478 307 17.5214
49.5955 341 18.4662
49.713 357 18.8944
49.8304 372 19.2873
49.9479 386 19.6469
50.0653 379 19.4679
50.1827 400 20
50.3001 358 18.9209
50.4175 345 18.5742
50.5348 382 19.5448
50.6521 444 21.0713
50.7694 399 19.975
50.8867 433 20.8087
51.004 445 21.095
51.1212 482 21.9545
51.2384 428 20.6882
51.3556 465 21.5639
51.4727 436 20.8806
51.5899 455 21.3307
51.707 404 20.0998
51.824 429 20.7123
51.9411 461 21.4709
52.0581 470 21.6795
52.175 501 22.383
52.2919 512 22.6274
52.4088 515 22.6936
52.5257 450 21.2132
52.6425 508 22.5389
52.7593 508 22.5389
52.876 468 21.6333
52.9927 463 21.5174
53.1094 450 21.2132
53.226 496 22.2711
53.3426 502 22.4054
53.4591 510 22.5832
53.5756 513 22.6495
53.692 567 23.8118
53.8084 511 22.6053
53.9248 479 21.8861
54.0411 447 21.1424
54.1573 504 22.4499
54.2735 0 1
54.3896 0 1
54.5057 0 1
54.6217 0 1
54.7377 0 1
54.8537 0 1
54.9695 0 1
55.0853 0 1
55.2011 0 1
55.3168 0 1
55.4324 0 1
57.824 0 1
57.9396 0 1
58.0553 0 1
58.1711 0 1
58.2869 0 1
58.4028 0 1
58.5187 0 1
58.6347 0 1
58.7508 0 1
58.8669 0 1
58.983 520 22.8035
59.0992 557 23.6008
59.2155 538 23.1948
59.3318 615 24.7992
59.4482 651 25.5147
59.5646 662 25.7294
59.681 641 25.318
59.7975 613 24.7588
59.9141 647 25.4362
60.0306 627 25.04
60.1473 626 25.02
60.2639 593 24.3516
60.3807 580 24.0832
60.4974 584 24.1661
60.6142 638 25.2587
60.731 599 24.4745
60.8479 641 25.318
60.9648 628 25.0599
61.0818 685 26.1725
61.1987 590 24.2899
61.3158 604 24.5764
61.4328 544 23.3238
61.5499 508 22.5389
61.667 537 23.1733
61.7841 532 23.0651
61.9013 521 22.8254
62.0185 476 21.8174
62.1357 543 23.3024
62.253 537 23.1733
62.3702 517 22.7376
62.4875 486 22.0454
62.6049 493 22.2036
62.7222 506 22.4944
62.8396 572 23.9165
62.9569 578 24.0416
63.0743 590 24.2899
63.1918 581 24.1039
63.3092 559 23.6432
63.4267 568 23.8328
63.5441 577 24.0208
63.6616 551 23.4734
63.7791 526 22.9347
63.8966 536 23.1517
64.0142 532 23.0651
64.1317 538 23.1948
64.2492 566 23.7908
64.3668 564 23.7487
64.4843 607 24.6374
64.6019 572 23.9165
64.7195 529 23
64.837 518 22.7596
64.9546 496 22.2711
65.0722 432 20.7846
65.1898 476 21.8174
65.3074 430 20.7364
65.4249 482 21.9545
65.5425 501 22.383
65.6601 504 22.4499
65.7777 543 23.3024
65.8952 519 22.7816
66.0128 438 20.9284
66.1304 456 21.3542
66.2479 513 22.6495
66.3655 496 22.2711
66.483 552 23.4947
66.6005 605 24.5967
66.718 567 23.8118
66.8355 586 24.2074
66.953 552 23.4947
67.0705 565 23.7697
67.1879 551 23.4734
67.3054 544 23.3238
67.4228 550 23.4521
67.5402 511 22.6053
67.6576 557 23.6008
67.7749 559 23.6432
67.8923 580 24.0832
68.0096 568 23.8328
68.1269 547 23.388
68.2442 516 22.7156
68.3614 503 22.4277
68.4787 555 23.5584
68.5958 562 23.7065
68.713 467 21.6102
68.8302 461 21.4709
68.9473 493 22.2036
69.0643 537 23.1733
69.1814 508 22.5389
69.2984 550 23.4521
69.4154 575 23.9792
69.5323 545 23.3452
69.6492 526 22.9347
69.7661 447 21.1424
69.8829 512 22.6274
69.9997 568 23.8328
70.1165 593 24.3516
70.2332 623 24.96
70.3499 584 24.1661
70.4665 651 25.5147
70.5831 689 26.2488
70.6996 603 24.5561
70.8161 622 24.9399
70.9326 589 24.2693
71.049 592 24.3311
71.1653 553 23.516
71.2817 553 23.516
71.3979 591 24.3105
71.5141 586 24.2074
71.6303 612 24.7386
71.7464 554 23.5372
71.8624 0 1
71.9784 0 1
72.0944 0 1
72.2102 0 1
72.3261 0 1
72.4418 0 1
72.5575 0 1
72.6732 0 1
75.1054 0 1
75.2209 0 1
75.3365 0 1
75.4521 0 1
75.5678 0 1
75.6835 0 1
75.7993 0 1
75.9151 0 1
76.031 0 1
76.147 553 23.516
76.263 579 24.0624
76.3791 619 24.8797
76.4952 600 24.4949
76.6113 580 24.0832
76.7276 580 24.0832
76.8438 604 24.5764
76.9601 635 25.1992
77.0765 618 24.8596
77.1929 607 24.6374
77.3093 660 25.6905
77.4258 626 25.02
77.5423 621 24.9199
77.6589 538 23.1948
77.7755 581 24.1039
77.8921 557 23.6008
78.0088 518 22.7596
78.1256 554 23.5372
78.2423 589 24.2693
78.3591 562 23.7065
78.4759 573 23.9374
78.5928 509 22.561
78.7097 459 21.4243
78.8266 377 19.4165
78.9436 488 22.0907
79.0606 549 23.4307
79.1776 603 24.5561
79.2946 567 23.8118
79.4117 658 25.6515
79.5288 625 25
79.6459 581 24.1039
79.7631 544 23.3238
79.8802 620 24.8998
79.9974 556 23.5797
80.1147 538 23.1948
80.2319 569 23.8537
80.3491 549 23.4307
80.4664 561 23.6854
80.5837 614 24.779
80.701 583 24.1454
80.8183 611 24.7184
80.9357 627 25.04
81.053 567 23.8118
81.1704 541 23.2594
81.2877 566 23.7908
81.4051 468 21.6333
81.5225 499 22.3383
81.6399 527 22.9565
81.7573 483 21.9773
81.8747 524 22.891
81.9922 561 23.6854
82.1096 606 24.6171
82.227 551 23.4734
82.3444 475 21.7945
82.4619 417 20.4206
82.5793 465 21.5639
82.6967 528 22.9783
82.8142 588 24.2487
82.9316 530 23.0217
83.049 607 24.6374
83.1664 586 24.2074
83.2838 556 23.5797
83.4012 577 24.0208
83.5186 570 23.8747
83.636 575 23.9792
83.7534 526 22.9347
83.8708 560 23.6643
83.9881 548 23.4094
84.1055 528 22.9783
84.2228 547 23.388
84.3401 569 23.8537
84.4575 555 23.5584
84.5747 558 23.622
84.692 593 24.3516
84.8093 541 23.2594
84.9265 554 23.5372
85.0437 530 23.0217
85.1609 501 22.383
85.2781 504 22.4499
85.3952 505 22.4722
85.5123 556 23.5797
85.6294 544 23.3238
85.7465 612 24.7386
85.8636 554 23.5372
85.9806 480 21.9089
86.0976 482 21.9545
86.2145 526 22.9347
86.3315 664 25.7682
86.4484 652 25.5343
86.5652 628 25.0599
86.682 668 25.8457
86.7988 648 25.4558
86.9156 637 25.2389
87.0323 665 25.7876
87.149 660 25.6905
87.2657 651 25.5147
87.3823 647 25.4362
87.4988 667 25.8263
87.6154 709 26.6271
87.7318 737 27.1477
87.8483 729 27
87.9647 767 27.6948
88.081 792 28.1425
88.1973 741 27.2213
88.3136 701 26.4764
88.4298 674 25.9615
88.546 642 25.3377
88.6621 630 25.0998
88.7781 630 25.0998
88.8942 0 1
89.0101 0 1
89.126 0 1
89.2419 0 1
89.3577 0 1
89.4734 0 1
89.5891 0 1
89.7047 0 1
89.8203 0 1
89.9358 0 1
92.3269 0 1
92.4424 0 1
92.558 0 1
92.6736 0 1
92.7893 0 1
92.905 0 1
93.0208 0 1
93.1366 0 1
93.2525 0 1
93.3685 0 1
93.4845 0 1
93.6005 785 28.0179
93.7167 771 27.7669
93.8328 747 27.3313
93.949 778 27.8927
94.0653 657 25.632
94.1816 658 25.6515
94.2979 686 26.1916
94.4143 698 26.4197
94.5307 746 27.313
94.6472 721 26.8514
94.7637 821 28.6531
94.8803 769 27.7308
94.9969 711 26.6646
95.1135 700 26.4575
95.2302 670 25.8844
95.3469 690 26.2679
95.4637 737 27.1477
95.5805 839 28.9655
95.6973 829 28.7924
95.8142 854 29.2233
95.9311 876 29.5973
96.048 836 28.9137
96.1649 846 29.0861
96.2819 797 28.2312
96.3989 827 28.7576
96.516 807 28.4077
96.633 797 28.2312
96.7501 772 27.7849
96.8673 806 28.3901
96.9844 828 28.775
97.1016 839 28.9655
97.2188 876 29.5973
97.336 842 29.0172
97.4532 782 27.9643
97.5704 780 27.9285
97.6877 733 27.074
97.805 699 26.4386
97.9223 759 27.55
98.0396 775 27.8388
98.1569 748 27.3496
98.2743 838 28.9482
98.3916 881 29.6816
98.509 837 28.931
98.6264 843 29.0345
98.7438 717 26.7769
98.8612 714 26.7208
98.9786 774 27.8209
99.096 778 27.8927
99.2134 845 29.0689
99.3308 873 29.5466
99.4482 921 30.348
99.5656 894 29.8998
99.6831 855 29.2404
99.8005 866 29.4279
99.9179 836 28.9137
100.035 878 29.6311
100.153 824 28.7054
100.27 854 29.2233
100.388 873 29.5466
100.505 892 29.8664
100.622 957 30.9354
100.74 925 30.4138
100.857 929 30.4795
100.975 913 30.2159
101.092 902 30.0333
101.209 847 29.1033
101.327 880 29.6648
101.444 827 28.7576
101.561 811 28.4781
101.679 767 27.6948
101.796 848 29.1204
101.913 915 30.249
102.03 923 30.3809
102.148 924 30.3974
102.265 855 29.2404
102.382 867 29.4449
102.499 867 29.4449
102.616 950 30.8221
102.733 980 31.305
102.851 978 31.273
102.968 996 31.5595
103.085 975 31.225
103.202 974 31.209
103.319 1022 31.9687
103.436 1010 31.7805
103.552 921 30.348
103.669 980 31.305
103.786 926 30.4302
103.903 937 30.6105
104.02 1023 31.9844
104.137 1052 32.4345
104.253 1101 33.1813
104.37 1088 32.9848
104.487 1043 32.2955
104.603 1048 32.3728
104.72 1039 32.2335
104.836 969 31.1288
104.953 1000 31.6228
105.069 953 30.8707
105.186 975 31.225
105.302 1017 31.8904
105.418 1120 33.4664
105.535 1109 33.3017
105.651 1068 32.6803
105.767 996 31.5595
105.883 935 30.5778
105.999 1057 32.5115
106.115 0 1
106.231 0 1
106.347 0 1
106.463 0 1
106.579 0 1
106.694 0 1
106.81 0 1
106.926 0 1
107.041 0 1
107.157 0 1
109.576 0 1
109.692 0 1
109.807 0 1
109.923 0 1
110.039 0 1
110.155 0 1
110.27 0 1
110.386 0 1
110.502 0 1
110.618 1050 32.4037
110.735 1014 31.8434
110.851 1069 32.6956
110.967 1035 32.1714
111.083 992 31.496
111.199 1048 32.3728
111.316 1137 33.7194
111.432 1171 34.2199
111.549 1063 32.6037
111.665 1113 33.3617
111.782 1115 33.3916
111.898 1125 33.541
112.015 1078 32.8329
112.132 1023 31.9844
112.248 1041 32.2645
112.365 1041 32.2645
112.482 1006 31.7175
112.599 1101 33.1813
112.716 1110 33.3167
112.832 1134 33.6749
112.949 1108 33.2866
113.066 1227 35.0286
113.183 1116 33.4066
113.3 1106 33.2566
113.417 1055 32.4808
113.534 1065 32.6343
113.652 979 31.289
113.769 997 31.5753
113.886 1049 32.3883
114.003 1079 32.8481
114.12 1098 33.1361
114.238 1093 33.0606
114.355 1052 32.4345
114.472 954 30.8869
114.589 1033 32.1403
114.707 1112 33.3467
114.824 1114 33.3766
114.942 1102 33.1964
115.059 1131 33.6303
115.176 1153 33.9559
115.294 1127 33.5708
115.411 1077 32.8177
115.529 1138 33.7343
115.646 1094 33.0757
115.764 989 31.4484
115.881 1086 32.9545
115.999 1051 32.4191
116.116 1097 33.121
116.234 1049 32.3883
116.351 1125 33.541
116.469 1176 34.2929
116.586 1202 34.6699
116.704 1287 35.8748
116.821 1228 35.0428
116.939 1127 33.5708
117.056 1119 33.4515
117.174 1175 34.2783
117.291 1099 33.1512
117.409 1163 34.1028
117.526 1123 33.5112
117.644 1212 34.8138
117.761 1122 33.4963
117.879 1146 33.8526
117.996 1067 32.665
118.114 1082 32.8938
118.231 1103 33.2114
118.349 1105 33.2415
118.466 1199 34.6266
118.584 1136 33.7046
118.701 1114 33.3766
118.819 1215 34.8569
118.936 1143 33.8083
119.053 1117 33.4215
119.171 1140 33.7639
119.288 1109 33.3017
119.405 1131 33.6303
119.523 1142 33.7935
119.64 1140 33.7639
119.757 1092 33.0454
119.875 1135 33.6898
119.992 1136 33.7046
120.109 1217 34.8855
120.226 1188 34.4674
120.343 1242 35.242
120.46 1205 34.7131
120.578 1301 36.0694
120.695 1231 35.0856
120.812 1251 35.3695
120.929 1190 34.4964
121.046 1184 34.4093
121.163 1178 34.322
121.279 1255 35.426
121.396 1238 35.1852
121.513 1202 34.6699
121.63 1196 34.5832
121.747 1131 33.6303
121.863 1154 33.9706
121.98 1132 33.6452
122.097 1129 33.6006
122.213 1182 34.3802
122.33 1155 33.9853
122.446 1124 33.5261
122.563 1085 32.9393
122.679 1070 32.7109
122.795 1071 32.7261
122.912 1059 32.5423
123.028 1088 32.9848
123.144 1044 32.311
123.26 1036 32.187
123.377 0 1
123.493 0 1
123.609 0 1
123.725 0 1
123.84 0 1
123.956 0 1
124.072 0 1
124.188 0 1
124.303 0 1
124.419 0 1
126.852 0 1
126.968 0 1
127.083 0 1
127.199 0 1
127.315 0 1
127.431 0 1
127.547 0 1
127.663 0 1
127.779 0 1
127.895 0 1
128.011 0 1
128.127 0 1
128.243 0 1
128.359 1313 36.2353
128.476 1248 35.327
128.592 1275 35.7071
128.708 1324 36.3868
128.825 1334 36.524
128.941 1305 36.1248
129.058 1328 36.4417
129.174 1317 36.2905
129.291 1313 36.2353
129.408 1300 36.0555
129.524 1351 36.756
129.641 1498 38.704
129.758 1466 38.2884
129.875 1481 38.4838
129.992 1474 38.3927
130.108 1465 38.2753
130.225 1511 38.8716
130.342 1531 39.128
130.459 1436 37.8946
130.576 1520 38.9872
130.693 1400 37.4166
130.81 1426 37.7624
130.928 1341 36.6197
131.045 1452 38.1051
131.162 1542 39.2683
131.279 1454 38.1314
131.396 1490 38.6005
131.513 1485 38.5357
131.631 1492 38.6264
131.748 1460 38.2099
131.865 1446 38.0263
131.983 1431 37.8286
132.1 1437 37.9078
132.217 1372 37.0405
132.335 1418 37.6563
132.452 1410 37.55
132.57 1385 37.2156
132.687 1480 38.4708
132.804 1444 38
132.922 1452 38.1051
133.039 1509 38.8458
133.157 1500 38.7298
133.274 1536 39.1918
133.392 1451 38.092
133.509 1497 38.6911
133.627 1513 38.8973
133.744 1602 40.025
133.862 1496 38.6782
133.979 1606 40.0749
134.097 1578 39.724
134.214 1547 39.3319
134.332 1579 39.7366
134.449 1527 39.0768
134.567 1587 39.8372
134.684 1590 39.8748
134.802 1674 40.9145
134.919 1613 40.1622
135.037 1552 39.3954
135.154 1638 40.4722
135.272 1586 39.8246
135.389 1604 40.05
135.507 1570 39.6232
135.624 1609 40.1123
135.742 1517 38.9487
135.859 1478 38.4448
135.977 1434 37.8682
136.094 1487 38.5616
136.211 1535 39.1791
136.329 1537 39.2046
136.446 1454 38.1314
136.564 1572 39.6485
136.681 1530 39.1152
136.798 1526 39.064
136.915 1492 38.6264
137.033 1483 38.5097
137.15 1454 38.1314
137.267 1598 39.975
137.384 1569 39.6106
137.502 1559 39.4842
137.619 1548 39.3446
137.736 1670 40.8656
137.853 1625 40.3113
137.97 1640 40.4969
138.087 1581 39.7618
138.204 1637 40.4599
138.321 1738 41.6893
138.438 1767 42.0357
138.555 1756 41.9047
138.672 1802 42.45
138.788 1763 41.9881
138.905 1723 41.509
139.022 1790 42.3084
139.139 1741 41.7253
139.255 1664 40.7922
139.372 1658 40.7185
139.488 1584 39.7995
139.605 1524 39.0384
139.721 1629 40.3609
139.838 1547 39.3319
139.954 1689 41.0974
140.071 1608 40.0999
140.187 1615 40.1871
140.303 1618 40.2244
140.419 1603 40.0375
140.535 1625 40.3113
140.652 1547 39.3319
140.768 0 1
140.884 0 1
141 0 1
141.115 0 1
141.231 0 1
141.347 0 1
141.463 0 1
141.578 0 1
141.694 0 1
144.104 0 1
144.219 0 1
144.335 0 1
144.45 0 1
144.566 0 1
144.682 0 1
144.798 0 1
144.914 0 1
145.03 0 1
145.146 1251 35.3695
145.262 1328 36.4417
145.378 1380 37.1484
145.494 1369 37
145.61 1397 37.3765
145.726 1428 37.7889
145.842 1419 37.6696
145.959 1411 37.5633
146.075 1393 37.3229
146.192 1379 37.1349
146.308 1403 37.4566
146.425 1391 37.2961
146.541 1331 36.4829
146.658 1391 37.2961
146.774 1338 36.5787
146.891 1301 36.0694
147.008 1305 36.1248
147.125 1251 35.3695
147.241 1340 36.606
147.358 1357 36.8375
147.475 1399 37.4032
147.592 1377 37.108
147.709 1491 38.6135
147.826 1447 38.0395
147.943 1453 38.1182
148.06 1477 38.4318
148.177 1441 37.9605
148.294 1427 37.7757
148.411 1475 38.4057
148.528 1533 39.1535
148.645 1508 38.833
148.762 1558 39.4715
148.88 1466 38.2884
148.997 1565 39.5601
149.114 1623 40.2865
149.231 1526 39.064
149.349 1607 40.0874
149.466 1609 40.1123
149.583 1543 39.281
149.701 1557 39.4588
149.818 1595 39.9375
149.935 1640 40.4969
150.053 1598 39.975
150.17 1622 40.2741
150.287 1576 39.6989
150.405 1485 38.5357
150.522 1473 38.3797
150.64 1440 37.9473
150.757 1401 37.4299
150.875 1386 37.229
150.992 1454 38.1314
151.11 1406 37.4967
151.227 1316 36.2767
151.344 1271 35.6511
151.462 1265 35.5668
151.579 1298 36.0278
151.697 1219 34.9142
151.814 1339 36.5923
151.932 1302 36.0832
152.049 1259 35.4824
152.167 1306 36.1386
152.284 1351 36.756
152.402 1386 37.229
152.519 1367 36.973
152.636 1399 37.4032
152.754 1470 38.3406
152.871 1451 38.092
152.989 1436 37.8946
153.106 1583 39.7869
153.223 1569 39.6106
153.341 1542 39.2683
153.458 1546 39.3192
153.575 1594 39.9249
153.693 1574 39.6737
153.81 1603 40.0375
153.927 1664 40.7922
154.044 1492 38.6264
154.162 1595 39.9375
154.279 1583 39.7869
154.396 1536 39.1918
154.513 1667 40.8289
154.63 1677 40.9512
154.747 1618 40.2244
154.864 1589 39.8623
154.981 1709 41.3401
155.098 1572 39.6485
155.215 1555 39.4335
155.332 1610 40.1248
155.449 1429 37.8021
155.566 1386 37.229
155.683 1376 37.0945
155.8 1366 36.9594
155.917 1243 35.2562
156.033 1231 35.0856
156.15 0 1
156.267 0 1
156.383 0 1
156.5 0 1
156.617 0 1
156.733 0 1
156.85 0 1
156.966 0 1
157.082 0 1
157.199 0 1
157.315 0 1
157.431 0 1
157.547 0 1
157.664 0 1
157.78 0 1
157.896 0 1
158.012 0 1
158.128 0 1
158.244 0 1
158.359 0 1
158.475 0 1
158.591 0 1
158.706 0 1
