
6.15755 0 1
6.2731 0 1
6.3887 0 1
6.50437 0 1
6.62009 0 1
6.73587 0 1
6.8517 0 1
6.96759 0 1
7.08353 0 1
7.19952 0 1
7.31557 0 1
7.43166 0 1
7.54781 0 1
7.664 0 1
7.78024 0 1
7.89653 0 1
8.01286 0 1
8.12924 0 1
8.24567 0 1
8.36213 0 1
8.47864 0 1
8.59519 0 1
8.71178 0 1
8.82841 0 1
8.94508 0 1
9.06179 0 1
9.17853 0 1
9.29531 0 1
9.41212 0 1
9.52897 0 1
9.64584 0 1
9.76276 0 1
9.8797 0 1
9.99667 0 1
10.1137 0 1
10.2307 0 1
10.3478 0 1
10.4648 0 1
10.5819 0 1
10.6991 0 1
10.8162 0 1
10.9334 0 1
11.0506 0 1
11.1678 0 1
11.285 0 1
11.4023 0 1
11.5196 0 1
11.6369 0 1
11.7542 0 1
11.8715 0 1
11.9888 0 1
12.1062 0 1
12.2235 0 1
12.3409 0 1
12.4582 0 1
12.5756 0 1
12.693 0 1
12.8104 0 1
12.9278 0 1
13.0452 0 1
13.1626 0 1
13.28 0 1
13.3974 0 1
13.5149 0 1
13.6323 0 1
13.7497 0 1
13.8671 0 1
13.9845 0 1
14.1019 0 1
14.2193 0 1
14.3367 0 1
14.4541 0 1
14.5714 0 1
14.6888 0 1
14.8062 0 1
14.9235 0 1
15.0408 1069 32.6956
15.1581 1014 31.8434
15.2755 1077 32.8177
15.3927 1107 33.2716
15.51 1071 32.7261
15.6273 1062 32.5883
15.7445 1075 32.7872
15.8617 1003 31.6702
15.9789 1038 32.218
16.0961 975 31.225
16.2132 913 30.2159
16.3304 1011 31.7962
16.4475 931 30.5123
16.5646 1008 31.749
16.6816 1006 31.7175
16.7986 940 30.6594
16.9156 873 29.5466
17.0326 937 30.6105
17.1496 942 30.692
17.2665 927 30.4467
17.3833 937 30.6105
17.5002 998 31.5911
17.617 913 30.2159
17.7338 939 30.6431
17.8505 967 31.0966
17.9672 892 29.8664
18.0839 906 30.0998
18.2005 816 28.5657
18.3171 826 28.7402
18.4337 847 29.1033
18.5502 927 30.4467
18.6666 926 30.4302
18.7831 921 30.348
18.8994 879 29.6479
19.0158 850 29.1548
19.1321 808 28.4253
19.2483 778 27.8927
19.3645 725 26.9258
19.4806 746 27.313
19.5967 727 26.9629
19.7128 700 26.4575
19.8288 673 25.9422
19.9447 599 24.4745
20.0606 0 1
20.1764 0 1
20.2922 0 1
20.4079 0 1
20.5236 0 1
20.6392 0 1
20.7548 0 1
20.8702 0 1
23.3078 0 1
23.4233 0 1
23.539 0 1
23.6547 0 1
23.7704 0 1
23.8862 0 1
24.0021 0 1
24.118 0 1
24.234 0 1
24.35 0 1
24.4661 599 24.4745
24.5822 733 27.074
24.6984 854 29.2233
24.8146 1024 32
24.9309 1060 32.5576
25.0472 937 30.6105
25.1636 883 29.7153
25.28 922 30.3645
25.3965 987 31.4166
25.513 984 31.3688
25.6296 962 31.0161
25.7462 1017 31.8904
25.8628 993 31.5119
25.9795 987 31.4166
26.0962 1020 31.9374
26.213 1000 31.6228
26.3298 939 30.6431
26.4466 911 30.1828
26.5635 850 29.1548
26.6804 785 28.0179
26.7973 751 27.4044
26.9143 798 28.2489
27.0313 771 27.7669
27.1483 868 29.4618
27.2653 854 29.2233
27.3824 893 29.8831
27.4996 897 29.95
27.6167 849 29.1376
27.7339 755 27.4773
27.8511 770 27.7489
27.9683 786 28.0357
28.0855 779 27.9106
28.2028 811 28.4781
28.3201 842 29.0172
28.4374 842 29.0172
28.5547 827 28.7576
28.6721 887 29.7825
28.7894 881 29.6816
28.9068 854 29.2233
29.0242 866 29.4279
29.1416 923 30.3809
29.259 833 28.8617
29.3764 885 29.7489
29.4939 799 28.2666
29.6113 811 28.4781
29.7288 802 28.3196
29.8463 803 28.3373
29.9638 836 28.9137
30.0812 727 26.9629
30.1987 719 26.8142
30.3162 694 26.3439
30.4337 718 26.7955
30.5512 778 27.8927
30.6687 773 27.8029
30.7862 873 29.5466
30.9037 821 28.6531
31.0212 853 29.2062
31.1387 834 28.8791
31.2562 810 28.4605
31.3737 787 28.0535
31.4912 812 28.4956
31.6087 746 27.313
31.7262 814 28.5307
31.8436 804 28.3549
31.9611 789 28.0891
32.0785 810 28.4605
32.1959 835 28.8964
32.3134 774 27.8209
32.4308 774 27.8209
32.5482 785 28.0179
32.6655 757 27.5136
32.7829 748 27.3496
32.9002 715 26.7395
33.0176 738 27.1662
33.1349 750 27.3861
33.2522 752 27.4226
33.3694 731 27.037
33.4867 749 27.3679
33.6039 697 26.4008
33.7211 686 26.1916
33.8383 717 26.7769
33.9554 711 26.6646
34.0725 681 26.096
34.1896 794 28.178
34.3067 742 27.2397
34.4237 760 27.5681
34.5407 753 27.4408
34.6577 780 27.9285
34.7746 753 27.4408
34.8915 787 28.0535
35.0084 699 26.4386
35.1252 736 27.1293
35.242 680 26.0768
35.3587 739 27.1846
35.4755 704 26.533
35.5921 757 27.5136
35.7088 780 27.9285
35.8254 726 26.9444
35.9419 720 26.8328
36.0584 698 26.4197
36.1749 718 26.7955
36.2913 690 26.2679
36.4077 698 26.4197
36.524 667 25.8263
36.6403 628 25.0599
36.7565 657 25.632
36.8727 562 23.7065
36.9889 485 22.0227
37.1049 493 22.2036
37.221 0 1
37.3369 0 1
37.4529 0 1
37.5687 0 1
37.6845 0 1
37.8003 0 1
37.916 0 1
38.0316 0 1
38.1472 0 1
40.5851 0 1
40.7008 0 1
40.8164 0 1
40.9322 0 1
41.048 0 1
41.1639 0 1
41.2798 0 1
41.3958 0 1
41.5118 0 1
41.6279 0 1
41.744 336 18.3303
41.8602 338 18.3848
41.9765 413 20.3224
42.0928 478 21.8632
42.2091 514 22.6716
42.3255 554 23.5372
42.4419 563 23.7276
42.5584 553 23.516
42.675 578 24.0416
42.7915 549 23.4307
42.9081 534 23.1084
43.0248 624 24.98
43.1415 583 24.1454
43.2582 537 23.1733
43.375 599 24.4745
43.4918 569 23.8537
43.6087 553 23.516
43.7256 549 23.4307
43.8425 554 23.5372
43.9595 540 23.2379
44.0765 495 22.2486
44.1935 492 22.1811
44.3106 544 23.3238
44.4277 536 23.1517
44.5448 611 24.7184
44.6619 561 23.6854
44.7791 572 23.9165
44.8963 573 23.9374
45.0136 615 24.7992
45.1308 560 23.6643
45.2481 582 24.1247
45.3654 568 23.8328
45.4827 642 25.3377
45.6001 644 25.3772
45.7174 640 25.2982
45.8348 651 25.5147
45.9522 559 23.6432
46.0697 550 23.4521
46.1871 594 24.3721
46.3046 585 24.1868
46.422 563 23.7276
46.5395 546 23.3666
46.657 550 23.4521
46.7745 567 23.8118
46.892 550 23.4521
47.0096 586 24.2074
47.1271 580 24.0832
47.2446 569 23.8537
47.3622 560 23.6643
47.4797 543 23.3024
47.5973 574 23.9583
47.7149 493 22.2036
47.8324 539 23.2164
47.95 561 23.6854
48.0675 597 24.4336
48.1851 606 24.6171
48.3027 574 23.9583
48.4202 615 24.7992
48.5378 643 25.3574
48.6554 628 25.0599
48.7729 618 24.8596
48.8904 581 24.1039
49.008 602 24.5357
49.1255 651 25.5147
49.243 625 25
49.3605 624 24.98
49.478 591 24.3105
49.5955 558 23.622
49.713 567 23.8118
49.8304 553 23.516
49.9479 517 22.7376
50.0653 568 23.8328
50.1827 539 23.2164
50.3001 615 24.7992
50.4175 599 24.4745
50.5348 543 23.3024
50.6521 596 24.4131
50.7694 576 24
50.8867 625 25
51.004 560 23.6643
51.1212 540 23.2379
51.2384 527 22.9565
51.3556 554 23.5372
51.4727 539 23.2164
51.5899 554 23.5372
51.707 624 24.98
51.824 650 25.4951
51.9411 679 26.0576
52.0581 724 26.9072
52.175 715 26.7395
52.2919 848 29.1204
52.4088 831 28.8271
52.5257 760 27.5681
52.6425 756 27.4955
52.7593 754 27.4591
52.876 768 27.7128
52.9927 777 27.8747
53.1094 734 27.0924
53.226 671 25.9037
53.3426 760 27.5681
53.4591 856 29.2575
53.5756 1237 35.171
53.692 1993 44.643
53.8084 2856 53.4416
53.9248 3741 61.1637
54.0411 4481 66.9403
54.1573 5165 71.8679
54.2735 0 1
54.3896 0 1
54.5057 0 1
54.6217 0 1
54.7377 0 1
54.8537 0 1
54.9695 0 1
55.0853 0 1
55.2011 0 1
55.3168 0 1
55.4324 0 1
57.824 0 1
57.9396 0 1
58.0553 0 1
58.1711 0 1
58.2869 0 1
58.4028 0 1
58.5187 0 1
58.6347 0 1
58.7508 0 1
58.8669 0 1
58.983 3897 62.426
59.0992 4472 66.873
59.2155 4722 68.7168
59.3318 5053 71.0845
59.4482 5235 72.3533
59.5646 5327 72.9863
59.681 5552 74.5117
59.7975 5353 73.1642
59.9141 4865 69.7496
60.0306 4300 65.5744
60.1473 3454 58.7707
60.2639 2672 51.6914
60.3807 2137 46.2277
60.4974 2063 45.4203
60.6142 2018 44.9222
60.731 2012 44.8553
60.8479 1820 42.6615
60.9648 1794 42.3556
61.0818 1598 39.975
61.1987 1462 38.2361
61.3158 1381 37.1618
61.4328 1289 35.9026
61.5499 1165 34.1321
61.667 1116 33.4066
61.7841 1024 32
61.9013 966 31.0805
62.0185 966 31.0805
62.1357 850 29.1548
62.253 853 29.2062
62.3702 897 29.95
62.4875 901 30.0167
62.6049 831 28.8271
62.7222 845 29.0689
62.8396 776 27.8568
62.9569 771 27.7669
63.0743 773 27.8029
63.1918 746 27.313
63.3092 691 26.2869
63.4267 709 26.6271
63.5441 648 25.4558
63.6616 643 25.3574
63.7791 613 24.7588
63.8966 641 25.318
64.0142 613 24.7588
64.1317 630 25.0998
64.2492 644 25.3772
64.3668 629 25.0799
64.4843 605 24.5967
64.6019 622 24.9399
64.7195 614 24.779
64.837 623 24.96
64.9546 609 24.6779
65.0722 631 25.1197
65.1898 634 25.1794
65.3074 586 24.2074
65.4249 612 24.7386
65.5425 587 24.2281
65.6601 582 24.1247
65.7777 567 23.8118
65.8952 640 25.2982
66.0128 593 24.3516
66.1304 623 24.96
66.2479 592 24.3311
66.3655 554 23.5372
66.483 643 25.3574
66.6005 612 24.7386
66.718 621 24.9199
66.8355 555 23.5584
66.953 592 24.3311
67.0705 597 24.4336
67.1879 602 24.5357
67.3054 591 24.3105
67.4228 625 25
67.5402 568 23.8328
67.6576 589 24.2693
67.7749 614 24.779
67.8923 580 24.0832
68.0096 587 24.2281
68.1269 567 23.8118
68.2442 584 24.1661
68.3614 590 24.2899
68.4787 597 24.4336
68.5958 625 25
68.713 629 25.0799
68.8302 572 23.9165
68.9473 535 23.1301
69.0643 558 23.622
69.1814 560 23.6643
69.2984 573 23.9374
69.4154 542 23.2809
69.5323 609 24.6779
69.6492 548 23.4094
69.7661 563 23.7276
69.8829 586 24.2074
69.9997 543 23.3024
70.1165 599 24.4745
70.2332 582 24.1247
70.3499 545 23.3452
70.4665 517 22.7376
70.5831 539 23.2164
70.6996 500 22.3607
70.8161 447 21.1424
70.9326 399 19.975
71.049 374 19.3391
71.1653 319 17.8606
71.2817 303 17.4069
71.3979 303 17.4069
71.5141 292 17.088
71.6303 240 15.4919
71.7464 212 14.5602
71.8624 0 1
71.9784 0 1
72.0944 0 1
72.2102 0 1
72.3261 0 1
72.4418 0 1
72.5575 0 1
72.6732 0 1
75.1054 0 1
75.2209 0 1
75.3365 0 1
75.4521 0 1
75.5678 0 1
75.6835 0 1
75.7993 0 1
75.9151 0 1
76.031 0 1
76.147 337 18.3576
76.263 399 19.975
76.3791 395 19.8746
76.4952 450 21.2132
76.6113 475 21.7945
76.7276 440 20.9762
76.8438 474 21.7715
76.9601 488 22.0907
77.0765 514 22.6716
77.1929 503 22.4277
77.3093 462 21.4942
77.4258 491 22.1585
77.5423 534 23.1084
77.6589 453 21.2838
77.7755 523 22.8692
77.8921 530 23.0217
78.0088 460 21.4476
78.1256 478 21.8632
78.2423 492 22.1811
78.3591 482 21.9545
78.4759 473 21.7486
78.5928 488 22.0907
78.7097 503 22.4277
78.8266 469 21.6564
78.9436 479 21.8861
79.0606 502 22.4054
79.1776 473 21.7486
79.2946 497 22.2935
79.4117 502 22.4054
79.5288 514 22.6716
79.6459 490 22.1359
79.7631 478 21.8632
79.8802 540 23.2379
79.9974 511 22.6053
80.1147 488 22.0907
80.2319 497 22.2935
80.3491 500 22.3607
80.4664 459 21.4243
80.5837 524 22.891
80.701 525 22.9129
80.8183 494 22.2261
80.9357 504 22.4499
81.053 498 22.3159
81.1704 479 21.8861
81.2877 562 23.7065
81.4051 509 22.561
81.5225 526 22.9347
81.6399 549 23.4307
81.7573 507 22.5167
81.8747 539 23.2164
81.9922 502 22.4054
82.1096 486 22.0454
82.227 507 22.5167
82.3444 445 21.095
82.4619 460 21.4476
82.5793 474 21.7715
82.6967 499 22.3383
82.8142 487 22.0681
82.9316 531 23.0434
83.049 535 23.1301
83.1664 477 21.8403
83.2838 480 21.9089
83.4012 519 22.7816
83.5186 513 22.6495
83.636 498 22.3159
83.7534 508 22.5389
83.8708 510 22.5832
83.9881 488 22.0907
84.1055 490 22.1359
84.2228 461 21.4709
84.3401 506 22.4944
84.4575 551 23.4734
84.5747 508 22.5389
84.692 532 23.0651
84.8093 486 22.0454
84.9265 482 21.9545
85.0437 506 22.4944
85.1609 536 23.1517
85.2781 518 22.7596
85.3952 576 24
85.5123 536 23.1517
85.6294 535 23.1301
85.7465 459 21.4243
85.8636 480 21.9089
85.9806 485 22.0227
86.0976 516 22.7156
86.2145 493 22.2036
86.3315 552 23.4947
86.4484 522 22.8473
86.5652 541 23.2594
86.682 550 23.4521
86.7988 505 22.4722
86.9156 531 23.0434
87.0323 524 22.891
87.149 518 22.7596
87.2657 529 23
87.3823 520 22.8035
87.4988 499 22.3383
87.6154 516 22.7156
87.7318 443 21.0476
87.8483 419 20.4695
87.9647 386 19.6469
88.081 384 19.5959
88.1973 361 19
88.3136 352 18.7617
88.4298 336 18.3303
88.546 311 17.6352
88.6621 316 17.7764
88.7781 298 17.2627
88.8942 0 1
89.0101 0 1
89.126 0 1
89.2419 0 1
89.3577 0 1
89.4734 0 1
89.5891 0 1
89.7047 0 1
89.8203 0 1
89.9358 0 1
92.3269 0 1
92.4424 0 1
92.558 0 1
92.6736 0 1
92.7893 0 1
92.905 0 1
93.0208 0 1
93.1366 0 1
93.2525 0 1
93.3685 0 1
93.4845 0 1
93.6005 361 19
93.7167 401 20.025
93.8328 457 21.3776
93.949 505 22.4722
94.0653 472 21.7256
94.1816 521 22.8254
94.2979 479 21.8861
94.4143 547 23.388
94.5307 577 24.0208
94.6472 539 23.2164
94.7637 516 22.7156
94.8803 504 22.4499
94.9969 490 22.1359
95.1135 481 21.9317
95.2302 450 21.2132
95.3469 458 21.4009
95.4637 512 22.6274
95.5805 525 22.9129
95.6973 550 23.4521
95.8142 505 22.4722
95.9311 529 23
96.048 531 23.0434
96.1649 525 22.9129
96.2819 551 23.4734
96.3989 540 23.2379
96.516 509 22.561
96.633 522 22.8473
96.7501 492 22.1811
96.8673 494 22.2261
96.9844 517 22.7376
97.1016 491 22.1585
97.2188 495 22.2486
97.336 465 21.5639
97.4532 484 22
97.5704 499 22.3383
97.6877 520 22.8035
97.805 585 24.1868
97.9223 542 23.2809
98.0396 578 24.0416
98.1569 577 24.0208
98.2743 556 23.5797
98.3916 532 23.0651
98.509 528 22.9783
98.6264 525 22.9129
98.7438 444 21.0713
98.8612 528 22.9783
98.9786 541 23.2594
99.096 583 24.1454
99.2134 566 23.7908
99.3308 588 24.2487
99.4482 526 22.9347
99.5656 599 24.4745
99.6831 575 23.9792
99.8005 613 24.7588
99.9179 560 23.6643
100.035 601 24.5153
100.153 546 23.3666
100.27 530 23.0217
100.388 574 23.9583
100.505 535 23.1301
100.622 516 22.7156
100.74 565 23.7697
100.857 558 23.622
100.975 580 24.0832
101.092 560 23.6643
101.209 561 23.6854
101.327 622 24.9399
101.444 630 25.0998
101.561 692 26.3059
101.679 684 26.1534
101.796 709 26.6271
101.913 652 25.5343
102.03 651 25.5147
102.148 634 25.1794
102.265 553 23.516
102.382 575 23.9792
102.499 575 23.9792
102.616 579 24.0624
102.733 641 25.318
102.851 697 26.4008
102.968 671 25.9037
103.085 672 25.923
103.202 656 25.6125
103.319 713 26.7021
103.436 654 25.5734
103.552 668 25.8457
103.669 698 26.4197
103.786 670 25.8844
103.903 672 25.923
104.02 700 26.4575
104.137 727 26.9629
104.253 788 28.0713
104.37 844 29.0517
104.487 832 28.8444
104.603 793 28.1603
104.72 887 29.7825
104.836 879 29.6479
104.953 950 30.8221
105.069 918 30.2985
105.186 941 30.6757
105.302 848 29.1204
105.418 887 29.7825
105.535 765 27.6586
105.651 723 26.8887
105.767 663 25.7488
105.883 681 26.096
105.999 625 25
106.115 0 1
106.231 0 1
106.347 0 1
106.463 0 1
106.579 0 1
106.694 0 1
106.81 0 1
106.926 0 1
107.041 0 1
107.157 0 1
109.576 0 1
109.692 0 1
109.807 0 1
109.923 0 1
110.039 0 1
110.155 0 1
110.27 0 1
110.386 0 1
110.502 0 1
110.618 497 22.2935
110.735 532 23.0651
110.851 568 23.8328
110.967 616 24.8193
111.083 616 24.8193
111.199 621 24.9199
111.316 730 27.0185
111.432 790 28.1069
111.549 798 28.2489
111.665 850 29.1548
111.782 885 29.7489
111.898 940 30.6594
112.015 914 30.2324
112.132 979 31.289
112.248 997 31.5753
112.365 886 29.7658
112.482 783 27.9821
112.599 793 28.1603
112.716 805 28.3725
112.832 853 29.2062
112.949 1045 32.3265
113.066 1329 36.4555
113.183 1363 36.9188
113.3 1460 38.2099
113.417 1537 39.2046
113.534 1671 40.8779
113.652 1734 41.6413
113.769 1808 42.5206
113.886 1838 42.8719
114.003 1863 43.1625
114.12 1892 43.4971
114.238 1877 43.3244
114.355 1849 43
114.472 1685 41.0488
114.589 1391 37.2961
114.707 1328 36.4417
114.824 1511 38.8716
114.942 1729 41.5812
115.059 1653 40.6571
115.176 1749 41.821
115.294 1625 40.3113
115.411 1549 39.3573
115.529 1289 35.9026
115.646 1115 33.3916
115.764 1051 32.4191
115.881 909 30.1496
115.999 782 27.9643
116.116 613 24.7588
116.234 538 23.1948
116.351 545 23.3452
116.469 500 22.3607
116.586 469 21.6564
116.704 469 21.6564
116.821 469 21.6564
116.939 484 22
117.056 468 21.6333
117.174 494 22.2261
117.291 489 22.1133
117.409 504 22.4499
117.526 528 22.9783
117.644 517 22.7376
117.761 506 22.4944
117.879 447 21.1424
117.996 401 20.025
118.114 379 19.4679
118.231 455 21.3307
118.349 485 22.0227
118.466 512 22.6274
118.584 500 22.3607
118.701 480 21.9089
118.819 469 21.6564
118.936 488 22.0907
119.053 493 22.2036
119.171 459 21.4243
119.288 498 22.3159
119.405 443 21.0476
119.523 433 20.8087
119.64 413 20.3224
119.757 390 19.7484
119.875 386 19.6469
119.992 436 20.8806
120.109 444 21.0713
120.226 454 21.3073
120.343 402 20.0499
120.46 466 21.587
120.578 480 21.9089
120.695 464 21.5407
120.812 453 21.2838
120.929 470 21.6795
121.046 494 22.2261
121.163 452 21.2603
121.279 440 20.9762
121.396 459 21.4243
121.513 456 21.3542
121.63 405 20.1246
121.747 368 19.1833
121.863 366 19.1311
121.98 391 19.7737
122.097 375 19.3649
122.213 404 20.0998
122.33 367 19.1572
122.446 387 19.6723
122.563 356 18.868
122.679 378 19.4422
122.795 331 18.1934
122.912 305 17.4642
123.028 243 15.5885
123.144 244 15.6205
123.26 224 14.9666
123.377 0 1
123.493 0 1
123.609 0 1
123.725 0 1
123.84 0 1
123.956 0 1
124.072 0 1
124.188 0 1
124.303 0 1
124.419 0 1
126.852 0 1
126.968 0 1
127.083 0 1
127.199 0 1
127.315 0 1
127.431 0 1
127.547 0 1
127.663 0 1
127.779 0 1
127.895 0 1
128.011 0 1
128.127 0 1
128.243 0 1
128.359 462 21.4942
128.476 445 21.095
128.592 480 21.9089
128.708 458 21.4009
128.825 470 21.6795
128.941 443 21.0476
129.058 516 22.7156
129.174 499 22.3383
129.291 482 21.9545
129.408 487 22.0681
129.524 484 22
129.641 553 23.516
129.758 490 22.1359
129.875 542 23.2809
129.992 545 23.3452
130.108 538 23.1948
130.225 542 23.2809
130.342 562 23.7065
130.459 595 24.3926
130.576 570 23.8747
130.693 541 23.2594
130.81 519 22.7816
130.928 610 24.6982
131.045 559 23.6432
131.162 622 24.9399
131.279 731 27.037
131.396 756 27.4955
131.513 792 28.1425
131.631 754 27.4591
131.748 783 27.9821
131.865 825 28.7228
131.983 814 28.5307
132.1 837 28.931
132.217 954 30.8869
132.335 917 30.282
132.452 955 30.9031
132.57 1040 32.249
132.687 1083 32.909
132.804 1166 34.1467
132.922 1167 34.1614
133.039 1197 34.5977
133.157 1357 36.8375
133.274 1267 35.5949
133.392 1286 35.8608
133.509 1292 35.9444
133.627 1237 35.171
133.744 1232 35.0999
133.862 1254 35.4119
133.979 1262 35.5246
134.097 1183 34.3948
134.214 1106 33.2566
134.332 1033 32.1403
134.449 1021 31.9531
134.567 1136 33.7046
134.684 1197 34.5977
134.802 1210 34.7851
134.919 1215 34.8569
135.037 1191 34.5109
135.154 1264 35.5528
135.272 1204 34.6987
135.389 1280 35.7771
135.507 1299 36.0416
135.624 1178 34.322
135.742 1186 34.4384
135.859 1218 34.8999
135.977 1263 35.5387
136.094 1198 34.6121
136.211 1196 34.5832
136.329 1239 35.1994
136.446 1235 35.1426
136.564 1224 34.9857
136.681 1236 35.1568
136.798 1293 35.9583
136.915 1230 35.0714
137.033 1280 35.7771
137.15 1243 35.2562
137.267 1232 35.0999
137.384 1232 35.0999
137.502 1210 34.7851
137.619 1249 35.3412
137.736 1044 32.311
137.853 982 31.3369
137.97 1062 32.5883
138.087 988 31.4325
138.204 1038 32.218
138.321 1119 33.4515
138.438 1135 33.6898
138.555 1178 34.322
138.672 1249 35.3412
138.788 1189 34.4819
138.905 1151 33.9264
139.022 1131 33.6303
139.139 1045 32.3265
139.255 1081 32.8786
139.372 1003 31.6702
139.488 839 28.9655
139.605 856 29.2575
139.721 762 27.6043
139.838 821 28.6531
139.954 787 28.0535
140.071 789 28.0891
140.187 709 26.6271
140.303 680 26.0768
140.419 669 25.865
140.535 633 25.1595
140.652 628 25.0599
140.768 0 1
140.884 0 1
141 0 1
141.115 0 1
141.231 0 1
141.347 0 1
141.463 0 1
141.578 0 1
141.694 0 1
144.104 0 1
144.219 0 1
144.335 0 1
144.45 0 1
144.566 0 1
144.682 0 1
144.798 0 1
144.914 0 1
145.03 0 1
145.146 1004 31.686
145.262 1003 31.6702
145.378 1028 32.0624
145.494 1110 33.3167
145.61 1032 32.1248
145.726 1120 33.4664
145.842 1062 32.5883
145.959 1130 33.6155
146.075 1084 32.9242
146.192 1160 34.0588
146.308 1101 33.1813
146.425 1081 32.8786
146.541 1028 32.0624
146.658 1010 31.7805
146.774 986 31.4006
146.891 999 31.607
147.008 1090 33.0151
147.125 1092 33.0454
147.241 1160 34.0588
147.358 1159 34.0441
147.475 1127 33.5708
147.592 1100 33.1662
147.709 1078 32.8329
147.826 1060 32.5576
147.943 1159 34.0441
148.06 1078 32.8329
148.177 1008 31.749
148.294 1108 33.2866
148.411 1077 32.8177
148.528 1101 33.1813
148.645 1148 33.8821
148.762 1178 34.322
148.88 1103 33.2114
148.997 1176 34.2929
149.114 1061 32.573
149.231 1172 34.2345
149.349 1150 33.9116
149.466 1148 33.8821
149.583 1167 34.1614
149.701 1089 33
149.818 1130 33.6155
149.935 1121 33.4813
150.053 1129 33.6006
150.17 1039 32.2335
150.287 998 31.5911
150.405 968 31.1127
150.522 968 31.1127
150.64 1003 31.6702
150.757 1084 32.9242
150.875 1072 32.7414
150.992 1075 32.7872
151.11 1079 32.8481
151.227 1080 32.8634
151.344 1071 32.7261
151.462 1126 33.5559
151.579 1134 33.6749
151.697 1116 33.4066
151.814 1058 32.5269
151.932 1191 34.5109
152.049 1114 33.3766
152.167 1147 33.8674
152.284 1095 33.0908
152.402 1180 34.3511
152.519 1211 34.7994
152.636 1166 34.1467
152.754 1177 34.3074
152.871 1197 34.5977
152.989 1179 34.3366
153.106 1315 36.2629
153.223 1235 35.1426
153.341 1244 35.2704
153.458 1168 34.176
153.575 1211 34.7994
153.693 1141 33.7787
153.81 1094 33.0757
153.927 1101 33.1813
154.044 1072 32.7414
154.162 1147 33.8674
154.279 1272 35.6651
154.396 1313 36.2353
154.513 1331 36.4829
154.63 1349 36.7287
154.747 1362 36.9053
154.864 1473 38.3797
154.981 1544 39.2938
155.098 1742 41.7373
155.215 1879 43.3474
155.332 2061 45.3982
155.449 2204 46.9468
155.566 2449 49.4874
155.683 2536 50.3587
155.8 2596 50.951
155.917 2910 53.9444
156.033 3006 54.827
156.15 0 1
156.267 0 1
156.383 0 1
156.5 0 1
156.617 0 1
156.733 0 1
156.85 0 1
156.966 0 1
157.082 0 1
157.199 0 1
157.315 0 1
157.431 0 1
157.547 0 1
157.664 0 1
157.78 0 1
157.896 0 1
158.012 0 1
158.128 0 1
158.244 0 1
158.359 0 1
158.475 0 1
158.591 0 1
158.706 0 1
