
6.15755 0 1
6.2731 0 1
6.3887 0 1
6.50437 0 1
6.62009 0 1
6.73587 0 1
6.8517 0 1
6.96759 0 1
7.08353 0 1
7.19952 0 1
7.31557 0 1
7.43166 0 1
7.54781 0 1
7.664 0 1
7.78024 0 1
7.89653 0 1
8.01286 0 1
8.12924 0 1
8.24567 0 1
8.36213 0 1
8.47864 0 1
8.59519 0 1
8.71178 0 1
8.82841 0 1
8.94508 0 1
9.06179 0 1
9.17853 0 1
9.29531 0 1
9.41212 0 1
9.52897 0 1
9.64584 0 1
9.76276 0 1
9.8797 0 1
9.99667 0 1
10.1137 0 1
10.2307 0 1
10.3478 0 1
10.4648 0 1
10.5819 0 1
10.6991 0 1
10.8162 0 1
10.9334 0 1
11.0506 0 1
11.1678 0 1
11.285 0 1
11.4023 0 1
11.5196 0 1
11.6369 0 1
11.7542 0 1
11.8715 0 1
11.9888 0 1
12.1062 0 1
12.2235 0 1
12.3409 0 1
12.4582 0 1
12.5756 0 1
12.693 0 1
12.8104 0 1
12.9278 0 1
13.0452 0 1
13.1626 0 1
13.28 0 1
13.3974 0 1
13.5149 0 1
13.6323 0 1
13.7497 0 1
13.8671 0 1
13.9845 0 1
14.1019 0 1
14.2193 0 1
14.3367 0 1
14.4541 0 1
14.5714 0 1
14.6888 0 1
14.8062 0 1
14.9235 0 1
15.0408 787 28.0535
15.1581 882 29.6985
15.2755 921 30.348
15.3927 946 30.7571
15.51 925 30.4138
15.6273 989 31.4484
15.7445 912 30.1993
15.8617 899 29.9833
15.9789 925 30.4138
16.0961 907 30.1164
16.2132 884 29.7321
16.3304 912 30.1993
16.4475 965 31.0644
16.5646 1009 31.7648
16.6816 1007 31.7333
16.7986 1009 31.7648
16.9156 1011 31.7962
17.0326 1071 32.7261
17.1496 1066 32.6497
17.2665 1037 32.2025
17.3833 1049 32.3883
17.5002 1034 32.1559
17.617 954 30.8869
17.7338 998 31.5911
17.8505 962 31.0161
17.9672 944 30.7246
18.0839 915 30.249
18.2005 890 29.8329
18.3171 997 31.5753
18.4337 1004 31.686
18.5502 984 31.3688
18.6666 1096 33.1059
18.7831 1070 32.7109
18.8994 1076 32.8024
19.0158 1078 32.8329
19.1321 1084 32.9242
19.2483 963 31.0322
19.3645 913 30.2159
19.4806 889 29.8161
19.5967 726 26.9444
19.7128 746 27.313
19.8288 664 25.7682
19.9447 599 24.4745
20.0606 0 1
20.1764 0 1
20.2922 0 1
20.4079 0 1
20.5236 0 1
20.6392 0 1
20.7548 0 1
20.8702 0 1
23.3078 0 1
23.4233 0 1
23.539 0 1
23.6547 0 1
23.7704 0 1
23.8862 0 1
24.0021 0 1
24.118 0 1
24.234 0 1
24.35 0 1
24.4661 389 19.7231
24.5822 507 22.5167
24.6984 559 23.6432
24.8146 603 24.5561
24.9309 689 26.2488
25.0472 669 25.865
25.1636 796 28.2135
25.28 837 28.931
25.3965 880 29.6648
25.513 945 30.7409
25.6296 1015 31.8591
25.7462 1089 33
25.8628 1126 33.5559
25.9795 1090 33.0151
26.0962 1117 33.4215
26.213 1081 32.8786
26.3298 971 31.1609
26.4466 1005 31.7017
26.5635 939 30.6431
26.6804 933 30.545
26.7973 904 30.0666
26.9143 968 31.1127
27.0313 983 31.3528
27.1483 1033 32.1403
27.2653 1070 32.7109
27.3824 1005 31.7017
27.4996 1085 32.9393
27.6167 1002 31.6544
27.7339 990 31.4643
27.8511 1004 31.686
27.9683 972 31.1769
28.0855 959 30.9677
28.2028 927 30.4467
28.3201 840 28.9828
28.4374 796 28.2135
28.5547 850 29.1548
28.6721 926 30.4302
28.7894 886 29.7658
28.9068 945 30.7409
29.0242 1005 31.7017
29.1416 1029 32.078
29.259 1086 32.9545
29.3764 1069 32.6956
29.4939 1060 32.5576
29.6113 1039 32.2335
29.7288 1023 31.9844
29.8463 959 30.9677
29.9638 908 30.133
30.0812 881 29.6816
30.1987 849 29.1376
30.3162 895 29.9166
30.4337 915 30.249
30.5512 939 30.6431
30.6687 941 30.6757
30.7862 985 31.3847
30.9037 1011 31.7962
31.0212 955 30.9031
31.1387 1011 31.7962
31.2562 975 31.225
31.3737 988 31.4325
31.4912 925 30.4138
31.6087 894 29.8998
31.7262 902 30.0333
31.8436 825 28.7228
31.9611 868 29.4618
32.0785 834 28.8791
32.1959 847 29.1033
32.3134 890 29.8329
32.4308 1008 31.749
32.5482 956 30.9192
32.6655 977 31.257
32.7829 1003 31.6702
32.9002 1028 32.0624
33.0176 972 31.1769
33.1349 999 31.607
33.2522 1001 31.6386
33.3694 1002 31.6544
33.4867 952 30.8545
33.6039 862 29.3598
33.7211 805 28.3725
33.8383 798 28.2489
33.9554 884 29.7321
34.0725 908 30.133
34.1896 930 30.4959
34.3067 944 30.7246
34.4237 909 30.1496
34.5407 982 31.3369
34.6577 1029 32.078
34.7746 954 30.8869
34.8915 1017 31.8904
35.0084 903 30.05
35.1252 929 30.4795
35.242 868 29.4618
35.3587 910 30.1662
35.4755 824 28.7054
35.5921 738 27.1662
35.7088 805 28.3725
35.8254 768 27.7128
35.9419 731 27.037
36.0584 860 29.3258
36.1749 877 29.6142
36.2913 855 29.2404
36.4077 841 29
36.524 861 29.3428
36.6403 848 29.1204
36.7565 813 28.5132
36.8727 793 28.1603
36.9889 779 27.9106
37.1049 625 25
37.221 0 1
37.3369 0 1
37.4529 0 1
37.5687 0 1
37.6845 0 1
37.8003 0 1
37.916 0 1
38.0316 0 1
38.1472 0 1
40.5851 0 1
40.7008 0 1
40.8164 0 1
40.9322 0 1
41.048 0 1
41.1639 0 1
41.2798 0 1
41.3958 0 1
41.5118 0 1
41.6279 0 1
41.744 443 21.0476
41.8602 533 23.0868
41.9765 603 24.5561
42.0928 592 24.3311
42.2091 569 23.8537
42.3255 581 24.1039
42.4419 555 23.5584
42.5584 552 23.4947
42.675 593 24.3516
42.7915 667 25.8263
42.9081 697 26.4008
43.0248 738 27.1662
43.1415 694 26.3439
43.2582 761 27.5862
43.375 775 27.8388
43.4918 767 27.6948
43.6087 865 29.4109
43.7256 807 28.4077
43.8425 800 28.2843
43.9595 757 27.5136
44.0765 751 27.4044
44.1935 741 27.2213
44.3106 675 25.9808
44.4277 690 26.2679
44.5448 639 25.2784
44.6619 633 25.1595
44.7791 649 25.4755
44.8963 732 27.0555
45.0136 762 27.6043
45.1308 791 28.1247
45.2481 780 27.9285
45.3654 765 27.6586
45.4827 786 28.0357
45.6001 851 29.1719
45.7174 820 28.6356
45.8348 789 28.0891
45.9522 705 26.5518
46.0697 622 24.9399
46.1871 619 24.8797
46.3046 667 25.8263
46.422 702 26.4953
46.5395 687 26.2107
46.657 761 27.5862
46.7745 804 28.3549
46.892 752 27.4226
47.0096 859 29.3087
47.1271 849 29.1376
47.2446 840 28.9828
47.3622 806 28.3901
47.4797 760 27.5681
47.5973 827 28.7576
47.7149 699 26.4386
47.8324 721 26.8514
47.95 653 25.5539
48.0675 660 25.6905
48.1851 669 25.865
48.3027 658 25.6515
48.4202 653 25.5539
48.5378 735 27.1109
48.6554 769 27.7308
48.7729 804 28.3549
48.8904 783 27.9821
49.008 851 29.1719
49.1255 835 28.8964
49.243 728 26.9815
49.3605 677 26.0192
49.478 636 25.219
49.5955 674 25.9615
49.713 600 24.4949
49.8304 614 24.779
49.9479 663 25.7488
50.0653 739 27.1846
50.1827 735 27.1109
50.3001 748 27.3496
50.4175 748 27.3496
50.5348 779 27.9106
50.6521 776 27.8568
50.7694 797 28.2312
50.8867 813 28.5132
51.004 784 28
51.1212 721 26.8514
51.2384 747 27.3313
51.3556 746 27.313
51.4727 702 26.4953
51.5899 683 26.1343
51.707 624 24.98
51.824 656 25.6125
51.9411 659 25.671
52.0581 753 27.4408
52.175 756 27.4955
52.2919 789 28.0891
52.4088 818 28.6007
52.5257 821 28.6531
52.6425 772 27.7849
52.7593 793 28.1603
52.876 801 28.3019
52.9927 767 27.6948
53.1094 653 25.5539
53.226 639 25.2784
53.3426 622 24.9399
53.4591 603 24.5561
53.5756 620 24.8998
53.692 646 25.4165
53.8084 598 24.454
53.9248 611 24.7184
54.0411 550 23.4521
54.1573 558 23.622
54.2735 0 1
54.3896 0 1
54.5057 0 1
54.6217 0 1
54.7377 0 1
54.8537 0 1
54.9695 0 1
55.0853 0 1
55.2011 0 1
55.3168 0 1
55.4324 0 1
57.824 0 1
57.9396 0 1
58.0553 0 1
58.1711 0 1
58.2869 0 1
58.4028 0 1
58.5187 0 1
58.6347 0 1
58.7508 0 1
58.8669 0 1
58.983 541 23.2594
59.0992 575 23.9792
59.2155 694 26.3439
59.3318 729 27
59.4482 806 28.3901
59.5646 896 29.9333
59.681 841 29
59.7975 979 31.289
59.9141 908 30.133
60.0306 904 30.0666
60.1473 903 30.05
60.2639 834 28.8791
60.3807 845 29.0689
60.4974 838 28.9482
60.6142 866 29.4279
60.731 920 30.3315
60.8479 939 30.6431
60.9648 994 31.5278
61.0818 981 31.3209
61.1987 1061 32.573
61.3158 1001 31.6386
61.4328 985 31.3847
61.5499 952 30.8545
61.667 877 29.6142
61.7841 790 28.1069
61.9013 818 28.6007
62.0185 787 28.0535
62.1357 819 28.6182
62.253 829 28.7924
62.3702 947 30.7734
62.4875 940 30.6594
62.6049 924 30.3974
62.7222 1020 31.9374
62.8396 1006 31.7175
62.9569 1030 32.0936
63.0743 1084 32.9242
63.1918 1022 31.9687
63.3092 1002 31.6544
63.4267 961 31
63.5441 951 30.8383
63.6616 908 30.133
63.7791 827 28.7576
63.8966 798 28.2489
64.0142 854 29.2233
64.1317 855 29.2404
64.2492 930 30.4959
64.3668 957 30.9354
64.4843 1025 32.0156
64.6019 1029 32.078
64.7195 1048 32.3728
64.837 999 31.607
64.9546 1038 32.218
65.0722 966 31.0805
65.1898 890 29.8329
65.3074 805 28.3725
65.4249 812 28.4956
65.5425 784 28
65.6601 806 28.3901
65.7777 791 28.1247
65.8952 922 30.3645
66.0128 878 29.6311
66.1304 918 30.2985
66.2479 983 31.3528
66.3655 1052 32.4345
66.483 999 31.607
66.6005 1041 32.2645
66.718 995 31.5436
66.8355 1046 32.3419
66.953 1004 31.686
67.0705 926 30.4302
67.1879 933 30.545
67.3054 917 30.282
67.4228 823 28.688
67.5402 767 27.6948
67.6576 829 28.7924
67.7749 823 28.688
67.8923 866 29.4279
68.0096 973 31.1929
68.1269 1028 32.0624
68.2442 1090 33.0151
68.3614 1058 32.5269
68.4787 1136 33.7046
68.5958 1028 32.0624
68.713 1082 32.8938
68.8302 988 31.4325
68.9473 941 30.6757
69.0643 880 29.6648
69.1814 821 28.6531
69.2984 884 29.7321
69.4154 931 30.5123
69.5323 1055 32.4808
69.6492 1055 32.4808
69.7661 1069 32.6956
69.8829 1159 34.0441
69.9997 1095 33.0908
70.1165 1145 33.8378
70.2332 1116 33.4066
70.3499 1003 31.6702
70.4665 1053 32.45
70.5831 958 30.9516
70.6996 940 30.6594
70.8161 861 29.3428
70.9326 816 28.5657
71.049 705 26.5518
71.1653 593 24.3516
71.2817 483 21.9773
71.3979 493 22.2036
71.5141 479 21.8861
71.6303 493 22.2036
71.7464 401 20.025
71.8624 0 1
71.9784 0 1
72.0944 0 1
72.2102 0 1
72.3261 0 1
72.4418 0 1
72.5575 0 1
72.6732 0 1
75.1054 0 1
75.2209 0 1
75.3365 0 1
75.4521 0 1
75.5678 0 1
75.6835 0 1
75.7993 0 1
75.9151 0 1
76.031 0 1
76.147 728 26.9815
76.263 798 28.2489
76.3791 786 28.0357
76.4952 800 28.2843
76.6113 761 27.5862
76.7276 806 28.3901
76.8438 848 29.1204
76.9601 897 29.95
77.0765 979 31.289
77.1929 1013 31.8277
77.3093 1016 31.8748
77.4258 953 30.8707
77.5423 1000 31.6228
77.6589 989 31.4484
77.7755 885 29.7489
77.8921 798 28.2489
78.0088 762 27.6043
78.1256 669 25.865
78.2423 674 25.9615
78.3591 670 25.8844
78.4759 745 27.2947
78.5928 833 28.8617
78.7097 873 29.5466
78.8266 900 30
78.9436 910 30.1662
79.0606 922 30.3645
79.1776 893 29.8831
79.2946 937 30.6105
79.4117 953 30.8707
79.5288 939 30.6431
79.6459 874 29.5635
79.7631 873 29.5466
79.8802 873 29.5466
79.9974 737 27.1477
80.1147 736 27.1293
80.2319 723 26.8887
80.3491 713 26.7021
80.4664 761 27.5862
80.5837 804 28.3549
80.701 877 29.6142
80.8183 874 29.5635
80.9357 910 30.1662
81.053 894 29.8998
81.1704 961 31
81.2877 860 29.3258
81.4051 880 29.6648
81.5225 796 28.2135
81.6399 753 27.4408
81.7573 729 27
81.8747 626 25.02
81.9922 663 25.7488
82.1096 764 27.6405
82.227 807 28.4077
82.3444 827 28.7576
82.4619 863 29.3769
82.5793 851 29.1719
82.6967 877 29.6142
82.8142 971 31.1609
82.9316 975 31.225
83.049 879 29.6479
83.1664 916 30.2655
83.2838 931 30.5123
83.4012 911 30.1828
83.5186 796 28.2135
83.636 798 28.2489
83.7534 769 27.7308
83.8708 686 26.1916
83.9881 710 26.6458
84.1055 718 26.7955
84.2228 733 27.074
84.3401 852 29.189
84.4575 918 30.2985
84.5747 854 29.2233
84.692 927 30.4467
84.8093 931 30.5123
84.9265 916 30.2655
85.0437 851 29.1719
85.1609 762 27.6043
85.2781 702 26.4953
85.3952 674 25.9615
85.5123 673 25.9422
85.6294 730 27.0185
85.7465 760 27.5681
85.8636 831 28.8271
85.9806 797 28.2312
86.0976 883 29.7153
86.2145 957 30.9354
86.3315 954 30.8869
86.4484 948 30.7896
86.5652 938 30.6268
86.682 918 30.2985
86.7988 952 30.8545
86.9156 928 30.4631
87.0323 905 30.0832
87.149 900 30
87.2657 800 28.2843
87.3823 742 27.2397
87.4988 627 25.04
87.6154 584 24.1661
87.7318 588 24.2487
87.8483 658 25.6515
87.9647 700 26.4575
88.081 765 27.6586
88.1973 739 27.1846
88.3136 725 26.9258
88.4298 705 26.5518
88.546 616 24.8193
88.6621 520 22.8035
88.7781 431 20.7605
88.8942 0 1
89.0101 0 1
89.126 0 1
89.2419 0 1
89.3577 0 1
89.4734 0 1
89.5891 0 1
89.7047 0 1
89.8203 0 1
89.9358 0 1
92.3269 0 1
92.4424 0 1
92.558 0 1
92.6736 0 1
92.7893 0 1
92.905 0 1
93.0208 0 1
93.1366 0 1
93.2525 0 1
93.3685 0 1
93.4845 0 1
93.6005 654 25.5734
93.7167 688 26.2298
93.8328 675 25.9808
93.949 781 27.9464
94.0653 806 28.3901
94.1816 813 28.5132
94.2979 787 28.0535
94.4143 723 26.8887
94.5307 730 27.0185
94.6472 680 26.0768
94.7637 661 25.7099
94.8803 751 27.4044
94.9969 808 28.4253
95.1135 781 27.9464
95.2302 853 29.2062
95.3469 922 30.3645
95.4637 904 30.0666
95.5805 934 30.5614
95.6973 911 30.1828
95.8142 898 29.9666
95.9311 879 29.6479
96.048 929 30.4795
96.1649 875 29.5804
96.2819 842 29.0172
96.3989 801 28.3019
96.516 809 28.4429
96.633 796 28.2135
96.7501 692 26.3059
96.8673 692 26.3059
96.9844 703 26.5141
97.1016 800 28.2843
97.2188 767 27.6948
97.336 861 29.3428
97.4532 940 30.6594
97.5704 965 31.0644
97.6877 887 29.7825
97.805 911 30.1828
97.9223 851 29.1719
98.0396 797 28.2312
98.1569 734 27.0924
98.2743 640 25.2982
98.3916 731 27.037
98.509 724 26.9072
98.6264 825 28.7228
98.7438 854 29.2233
98.8612 857 29.2746
98.9786 922 30.3645
99.096 964 31.0483
99.2134 978 31.273
99.3308 937 30.6105
99.4482 986 31.4006
99.5656 1022 31.9687
99.6831 963 31.0322
99.8005 929 30.4795
99.9179 912 30.1993
100.035 857 29.2746
100.153 811 28.4781
100.27 778 27.8927
100.388 726 26.9444
100.505 721 26.8514
100.622 800 28.2843
100.74 894 29.8998
100.857 992 31.496
100.975 961 31
101.092 1004 31.686
101.209 982 31.3369
101.327 945 30.7409
101.444 921 30.348
101.561 846 29.0861
101.679 741 27.2213
101.796 692 26.3059
101.913 749 27.3679
102.03 735 27.1109
102.148 798 28.2489
102.265 836 28.9137
102.382 936 30.5941
102.499 949 30.8058
102.616 1039 32.2335
102.733 1047 32.3574
102.851 968 31.1127
102.968 1019 31.9218
103.085 1022 31.9687
103.202 996 31.5595
103.319 1028 32.0624
103.436 1002 31.6544
103.552 971 31.1609
103.669 891 29.8496
103.786 822 28.6705
103.903 779 27.9106
104.02 872 29.5296
104.137 875 29.5804
104.253 901 30.0167
104.37 1001 31.6386
104.487 1065 32.6343
104.603 1048 32.3728
104.72 1018 31.9061
104.836 964 31.0483
104.953 916 30.2655
105.069 811 28.4781
105.186 740 27.2029
105.302 684 26.1534
105.418 679 26.0576
105.535 698 26.4197
105.651 725 26.9258
105.767 671 25.9037
105.883 688 26.2298
105.999 643 25.3574
106.115 0 1
106.231 0 1
106.347 0 1
106.463 0 1
106.579 0 1
106.694 0 1
106.81 0 1
106.926 0 1
107.041 0 1
107.157 0 1
109.576 0 1
109.692 0 1
109.807 0 1
109.923 0 1
110.039 0 1
110.155 0 1
110.27 0 1
110.386 0 1
110.502 0 1
110.618 386 19.6469
110.735 511 22.6053
110.851 675 25.9808
110.967 682 26.1151
111.083 751 27.4044
111.199 868 29.4618
111.316 882 29.6985
111.432 851 29.1719
111.549 887 29.7825
111.665 923 30.3809
111.782 918 30.2985
111.898 908 30.133
112.015 867 29.4449
112.132 828 28.775
112.248 754 27.4591
112.365 725 26.9258
112.482 684 26.1534
112.599 768 27.7128
112.716 817 28.5832
112.832 905 30.0832
112.949 853 29.2062
113.066 935 30.5778
113.183 938 30.6268
113.3 975 31.225
113.417 897 29.95
113.534 808 28.4253
113.652 776 27.8568
113.769 742 27.2397
113.886 645 25.3969
114.003 679 26.0576
114.12 712 26.6833
114.238 764 27.6405
114.355 878 29.6311
114.472 849 29.1376
114.589 946 30.7571
114.707 925 30.4138
114.824 898 29.9666
114.942 930 30.4959
115.059 935 30.5778
115.176 926 30.4302
115.294 878 29.6311
115.411 971 31.1609
115.529 956 30.9192
115.646 878 29.6311
115.764 794 28.178
115.881 735 27.1109
115.999 738 27.1662
116.116 756 27.4955
116.234 746 27.313
116.351 865 29.4109
116.469 902 30.0333
116.586 959 30.9677
116.704 933 30.545
116.821 935 30.5778
116.939 924 30.3974
117.056 867 29.4449
117.174 814 28.5307
117.291 794 28.178
117.409 752 27.4226
117.526 661 25.7099
117.644 657 25.632
117.761 758 27.5318
117.879 819 28.6182
117.996 879 29.6479
118.114 861 29.3428
118.231 873 29.5466
118.349 886 29.7658
118.466 898 29.9666
118.584 905 30.0832
118.701 921 30.348
118.819 924 30.3974
118.936 900 30
119.053 870 29.4958
119.171 861 29.3428
119.288 828 28.775
119.405 813 28.5132
119.523 727 26.9629
119.64 757 27.5136
119.757 750 27.3861
119.875 774 27.8209
119.992 768 27.7128
120.109 883 29.7153
120.226 857 29.2746
120.343 847 29.1033
120.46 847 29.1033
120.578 905 30.0832
120.695 856 29.2575
120.812 891 29.8496
120.929 808 28.4253
121.046 707 26.5895
121.163 702 26.4953
121.279 643 25.3574
121.396 704 26.533
121.513 727 26.9629
121.63 735 27.1109
121.747 774 27.8209
121.863 791 28.1247
121.98 748 27.3496
122.097 789 28.0891
122.213 758 27.5318
122.33 700 26.4575
122.446 702 26.4953
122.563 704 26.533
122.679 613 24.7588
122.795 610 24.6982
122.912 514 22.6716
123.028 495 22.2486
123.144 441 21
123.26 361 19
123.377 0 1
123.493 0 1
123.609 0 1
123.725 0 1
123.84 0 1
123.956 0 1
124.072 0 1
124.188 0 1
124.303 0 1
124.419 0 1
126.852 0 1
126.968 0 1
127.083 0 1
127.199 0 1
127.315 0 1
127.431 0 1
127.547 0 1
127.663 0 1
127.779 0 1
127.895 0 1
128.011 0 1
128.127 0 1
128.243 0 1
128.359 960 30.9839
128.476 1042 32.28
128.592 929 30.4795
128.708 871 29.5127
128.825 947 30.7734
128.941 945 30.7409
129.058 1021 31.9531
129.174 1061 32.573
129.291 1098 33.1361
129.408 1130 33.6155
129.524 1143 33.8083
129.641 1087 32.9697
129.758 1097 33.121
129.875 1019 31.9218
129.992 979 31.289
130.108 914 30.2324
130.225 813 28.5132
130.342 844 29.0517
130.459 929 30.4795
130.576 974 31.209
130.693 914 30.2324
130.81 1046 32.3419
130.928 1115 33.3916
131.045 1073 32.7567
131.162 1158 34.0294
131.279 1137 33.7194
131.396 1127 33.5708
131.513 1172 34.2345
131.631 1133 33.6601
131.748 1032 32.1248
131.865 1041 32.2645
131.983 1056 32.4962
132.1 955 30.9031
132.217 937 30.6105
132.335 947 30.7734
132.452 974 31.209
132.57 1032 32.1248
132.687 1127 33.5708
132.804 1094 33.0757
132.922 1123 33.5112
133.039 1135 33.6898
133.157 1164 34.1174
133.274 1107 33.2716
133.392 1038 32.218
133.509 1086 32.9545
133.627 983 31.3528
133.744 877 29.6142
133.862 823 28.688
133.979 889 29.8161
134.097 906 30.0998
134.214 1011 31.7962
134.332 1030 32.0936
134.449 1071 32.7261
134.567 1052 32.4345
134.684 1125 33.541
134.802 1100 33.1662
134.919 1126 33.5559
135.037 1094 33.0757
135.154 1109 33.3017
135.272 1045 32.3265
135.389 1068 32.6803
135.507 1007 31.7333
135.624 993 31.5119
135.742 966 31.0805
135.859 963 31.0322
135.977 972 31.1769
136.094 961 31
136.211 1000 31.6228
136.329 1095 33.0908
136.446 1156 34
136.564 1129 33.6006
136.681 1145 33.8378
136.798 1195 34.5688
136.915 1100 33.1662
137.033 1040 32.249
137.15 993 31.5119
137.267 904 30.0666
137.384 893 29.8831
137.502 858 29.2916
137.619 875 29.5804
137.736 965 31.0644
137.853 959 30.9677
137.97 990 31.4643
138.087 971 31.1609
138.204 1103 33.2114
138.321 1074 32.7719
138.438 1085 32.9393
138.555 1090 33.0151
138.672 1088 32.9848
138.788 1015 31.8591
138.905 1009 31.7648
139.022 956 30.9192
139.139 883 29.7153
139.255 859 29.3087
139.372 776 27.8568
139.488 692 26.3059
139.605 716 26.7582
139.721 685 26.1725
139.838 742 27.2397
139.954 745 27.2947
140.071 724 26.9072
140.187 594 24.3721
140.303 601 24.5153
140.419 564 23.7487
140.535 530 23.0217
140.652 496 22.2711
140.768 0 1
140.884 0 1
141 0 1
141.115 0 1
141.231 0 1
141.347 0 1
141.463 0 1
141.578 0 1
141.694 0 1
144.104 0 1
144.219 0 1
144.335 0 1
144.45 0 1
144.566 0 1
144.682 0 1
144.798 0 1
144.914 0 1
145.03 0 1
145.146 724 26.9072
145.262 724 26.9072
145.378 780 27.9285
145.494 770 27.7489
145.61 707 26.5895
145.726 764 27.6405
145.842 751 27.4044
145.959 661 25.7099
146.075 668 25.8457
146.192 613 24.7588
146.308 612 24.7386
146.425 600 24.4949
146.541 580 24.0832
146.658 675 25.9808
146.774 731 27.037
146.891 713 26.7021
147.008 715 26.7395
147.125 719 26.8142
147.241 726 26.9444
147.358 778 27.8927
147.475 720 26.8328
147.592 746 27.313
147.709 725 26.9258
147.826 663 25.7488
147.943 639 25.2784
148.06 649 25.4755
148.177 616 24.8193
148.294 614 24.779
148.411 661 25.7099
148.528 643 25.3574
148.645 714 26.7208
148.762 703 26.5141
148.88 718 26.7955
148.997 729 27
149.114 716 26.7582
149.231 709 26.6271
149.349 716 26.7582
149.466 729 27
149.583 715 26.7395
149.701 648 25.4558
149.818 591 24.3105
149.935 558 23.622
150.053 568 23.8328
150.17 563 23.7276
150.287 668 25.8457
150.405 673 25.9422
150.522 684 26.1534
150.64 666 25.807
150.757 663 25.7488
150.875 719 26.8142
150.992 706 26.5707
151.11 730 27.0185
151.227 690 26.2679
151.344 656 25.6125
151.462 629 25.0799
151.579 620 24.8998
151.697 624 24.98
151.814 603 24.5561
151.932 586 24.2074
152.049 545 23.3452
152.167 634 25.1794
152.284 712 26.6833
152.402 682 26.1151
152.519 640 25.2982
152.636 644 25.3772
152.754 691 26.2869
152.871 711 26.6646
152.989 690 26.2679
153.106 657 25.632
153.223 603 24.5561
153.341 539 23.2164
153.458 586 24.2074
153.575 558 23.622
153.693 564 23.7487
153.81 593 24.3516
153.927 597 24.4336
154.044 582 24.1247
154.162 632 25.1396
154.279 619 24.8797
154.396 648 25.4558
154.513 657 25.632
154.63 630 25.0998
154.747 681 26.096
154.864 609 24.6779
154.981 624 24.98
155.098 616 24.8193
155.215 566 23.7908
155.332 530 23.0217
155.449 560 23.6643
155.566 578 24.0416
155.683 593 24.3516
155.8 566 23.7908
155.917 614 24.779
156.033 620 24.8998
156.15 0 1
156.267 0 1
156.383 0 1
156.5 0 1
156.617 0 1
156.733 0 1
156.85 0 1
156.966 0 1
157.082 0 1
157.199 0 1
157.315 0 1
157.431 0 1
157.547 0 1
157.664 0 1
157.78 0 1
157.896 0 1
158.012 0 1
158.128 0 1
158.244 0 1
158.359 0 1
158.475 0 1
158.591 0 1
158.706 0 1
