
6.15755 0 1
6.2731 0 1
6.3887 0 1
6.50437 0 1
6.62009 0 1
6.73587 0 1
6.8517 0 1
6.96759 0 1
7.08353 0 1
7.19952 0 1
7.31557 0 1
7.43166 0 1
7.54781 0 1
7.664 0 1
7.78024 0 1
7.89653 0 1
8.01286 0 1
8.12924 0 1
8.24567 0 1
8.36213 0 1
8.47864 0 1
8.59519 0 1
8.71178 0 1
8.82841 0 1
8.94508 0 1
9.06179 0 1
9.17853 0 1
9.29531 0 1
9.41212 0 1
9.52897 0 1
9.64584 0 1
9.76276 0 1
9.8797 0 1
9.99667 0 1
10.1137 0 1
10.2307 0 1
10.3478 0 1
10.4648 0 1
10.5819 0 1
10.6991 0 1
10.8162 0 1
10.9334 0 1
11.0506 0 1
11.1678 0 1
11.285 0 1
11.4023 0 1
11.5196 0 1
11.6369 0 1
11.7542 0 1
11.8715 0 1
11.9888 0 1
12.1062 0 1
12.2235 0 1
12.3409 0 1
12.4582 0 1
12.5756 0 1
12.693 0 1
12.8104 0 1
12.9278 0 1
13.0452 0 1
13.1626 0 1
13.28 0 1
13.3974 0 1
13.5149 0 1
13.6323 0 1
13.7497 0 1
13.8671 0 1
13.9845 0 1
14.1019 0 1
14.2193 0 1
14.3367 0 1
14.4541 0 1
14.5714 0 1
14.6888 0 1
14.8062 0 1
14.9235 0 1
15.0408 8635 92.9247
15.1581 8880 94.2338
15.2755 8923 94.4616
15.3927 8988 94.8051
15.51 9145 95.6295
15.6273 8836 94
15.7445 8882 94.2444
15.8617 9078 95.2785
15.9789 8682 93.1773
16.0961 8622 92.8547
16.2132 8483 92.1032
16.3304 8525 92.3309
16.4475 8863 94.1435
16.5646 8990 94.8156
16.6816 9062 95.1945
16.7986 9204 95.9375
16.9156 8945 94.578
17.0326 9080 95.289
17.1496 9145 95.6295
17.2665 8892 94.2974
17.3833 8590 92.6823
17.5002 8376 91.5205
17.617 8416 91.7388
17.7338 8379 91.5369
17.8505 8585 92.6553
17.9672 8847 94.0585
18.0839 9216 96
18.2005 9538 97.6627
18.3171 9827 99.1312
18.4337 9698 98.4784
18.5502 10045 100.225
18.6666 10061 100.305
18.7831 10119 100.593
18.8994 10039 100.195
19.0158 9692 98.448
19.1321 9681 98.3921
19.2483 9132 95.5615
19.3645 8945 94.578
19.4806 8846 94.0532
19.5967 8212 90.6201
19.7128 8106 90.0333
19.8288 7844 88.5664
19.9447 7239 85.0823
20.0606 0 1
20.1764 0 1
20.2922 0 1
20.4079 0 1
20.5236 0 1
20.6392 0 1
20.7548 0 1
20.8702 0 1
23.3078 0 1
23.4233 0 1
23.539 0 1
23.6547 0 1
23.7704 0 1
23.8862 0 1
24.0021 0 1
24.118 0 1
24.234 0 1
24.35 0 1
24.4661 8467 92.0163
24.5822 8392 91.6079
24.6984 8155 90.305
24.8146 8155 90.305
24.9309 8122 90.1221
25.0472 8490 92.1412
25.1636 8636 92.9301
25.28 8929 94.4934
25.3965 9144 95.6243
25.513 9311 96.4935
25.6296 9434 97.1288
25.7462 9477 97.3499
25.8628 9371 96.8039
25.9795 9587 97.9132
26.0962 9234 96.0937
26.213 8865 94.1541
26.3298 8669 93.1075
26.4466 8309 91.1537
26.5635 8278 90.9835
26.6804 8754 93.5628
26.7973 8939 94.5463
26.9143 9013 94.9368
27.0313 9276 96.312
27.1483 9511 97.5244
27.2653 9423 97.0721
27.3824 9603 97.9949
27.4996 9641 98.1886
27.6167 9714 98.5596
27.7339 9425 97.0824
27.8511 9013 94.9368
27.9683 9055 95.1578
28.0855 8700 93.2738
28.2028 8533 92.3742
28.3201 8192 90.5097
28.4374 8084 89.9111
28.5547 8043 89.6828
28.6721 8125 90.1388
28.7894 8458 91.9674
28.9068 8631 92.9032
29.0242 8797 93.7923
29.1416 8967 94.6942
29.259 8877 94.2178
29.3764 8919 94.4405
29.4939 8878 94.2231
29.6113 8524 92.3255
29.7288 8326 91.2469
29.8463 8006 89.4763
29.9638 7950 89.1628
30.0812 7937 89.0898
30.1987 7835 88.5155
30.3162 8255 90.857
30.4337 8319 91.2086
30.5512 8723 93.397
30.6687 8770 93.6483
30.7862 9292 96.395
30.9037 9097 95.3782
31.0212 9285 96.3587
31.1387 9126 95.5301
31.2562 8956 94.6361
31.3737 8902 94.3504
31.4912 8829 93.9628
31.6087 8699 93.2684
31.7262 8534 92.3797
31.8436 8359 91.4276
31.9611 7794 88.2836
32.0785 7848 88.5889
32.1959 7957 89.202
32.3134 8152 90.2884
32.4308 8303 91.1208
32.5482 8553 92.4824
32.6655 8651 93.0108
32.7829 8641 92.957
32.9002 8537 92.3959
33.0176 8600 92.7362
33.1349 8497 92.1792
33.2522 8660 93.0591
33.3694 8052 89.7329
33.4867 7972 89.2861
33.6039 7752 88.0454
33.7211 7713 87.8237
33.8383 7650 87.4643
33.9554 8071 89.8387
34.0725 8306 91.1373
34.1896 8364 91.4549
34.3067 8632 92.9086
34.4237 8678 93.1558
34.5407 8592 92.693
34.6577 8955 94.6309
34.7746 8870 94.1807
34.8915 8777 93.6856
35.0084 8624 92.8655
35.1252 8623 92.8601
35.242 8523 92.3201
35.3587 8196 90.5318
35.4755 7971 89.2805
35.5921 7601 87.1837
35.7088 7508 86.6487
35.8254 7416 86.1162
35.9419 7570 87.0057
36.0584 7583 87.0804
36.1749 7791 88.2666
36.2913 8165 90.3604
36.4077 8139 90.2164
36.524 8163 90.3493
36.6403 8353 91.3947
36.7565 8396 91.6297
36.8727 8180 90.4434
36.9889 8022 89.5656
37.1049 7681 87.6413
37.221 0 1
37.3369 0 1
37.4529 0 1
37.5687 0 1
37.6845 0 1
37.8003 0 1
37.916 0 1
38.0316 0 1
38.1472 0 1
40.5851 0 1
40.7008 0 1
40.8164 0 1
40.9322 0 1
41.048 0 1
41.1639 0 1
41.2798 0 1
41.3958 0 1
41.5118 0 1
41.6279 0 1
41.744 6668 81.6578
41.8602 6988 83.5943
41.9765 6881 82.9518
42.0928 7183 84.7526
42.2091 7075 84.113
42.3255 6928 83.2346
42.4419 6482 80.5109
42.5584 6309 79.4292
42.675 6166 78.5239
42.7915 6346 79.6618
42.9081 6495 80.5916
43.0248 6700 81.8535
43.1415 6957 83.4086
43.2582 6950 83.3667
43.375 6858 82.813
43.4918 7053 83.9821
43.6087 7134 84.463
43.7256 6973 83.5045
43.8425 6930 83.2466
43.9595 6943 83.3247
44.0765 6642 81.4985
44.1935 6396 79.975
44.3106 6316 79.4733
44.4277 5963 77.2205
44.5448 5750 75.8288
44.6619 5390 73.4166
44.7791 5306 72.8423
44.8963 5191 72.0486
45.0136 5361 73.2189
45.1308 5749 75.8222
45.2481 5585 74.7329
45.3654 5586 74.7395
45.4827 5542 74.4446
45.6001 5686 75.4056
45.7174 5621 74.9733
45.8348 5434 73.7157
45.9522 5236 72.3602
46.0697 5097 71.3933
46.1871 4992 70.6541
46.3046 4784 69.1665
46.422 4822 69.4406
46.5395 5109 71.4773
46.657 5045 71.0282
46.7745 5314 72.8972
46.892 5448 73.8106
47.0096 5378 73.3348
47.1271 5494 74.1215
47.2446 5382 73.3621
47.3622 5261 72.5328
47.4797 5243 72.4086
47.5973 5161 71.8401
47.7149 4923 70.1641
47.8324 5002 70.7248
47.95 4790 69.2098
48.0675 4480 66.9328
48.1851 4292 65.5134
48.3027 4254 65.2227
48.4202 4363 66.053
48.5378 4383 66.2042
48.6554 4418 66.468
48.7729 4690 68.4836
48.8904 4707 68.6076
49.008 4660 68.2642
49.1255 4819 69.419
49.243 4837 69.5485
49.3605 4958 70.4131
49.478 4673 68.3593
49.5955 4672 68.352
49.713 4587 67.7274
49.8304 4533 67.3276
49.9479 4441 66.6408
50.0653 4622 67.9853
50.1827 5065 71.1688
50.3001 5386 73.3894
50.4175 5234 72.3464
50.5348 5482 74.0405
50.6521 5618 74.9533
50.7694 5746 75.8024
50.8867 5892 76.7594
51.004 5840 76.4199
51.1212 5675 75.3326
51.2384 6056 77.8203
51.3556 5970 77.2658
51.4727 5837 76.4003
51.5899 5988 77.3822
51.707 5747 75.809
51.824 5641 75.1066
51.9411 5586 74.7395
52.0581 6053 77.801
52.175 6093 78.0577
52.2919 6480 80.4984
52.4088 6733 82.0549
52.5257 6954 83.3906
52.6425 6849 82.7587
52.7593 7205 84.8823
52.876 7247 85.1293
52.9927 7433 86.2148
53.1094 7156 84.5931
53.226 6792 82.4136
53.3426 6654 81.5721
53.4591 6473 80.455
53.5756 6792 82.4136
53.692 7023 83.8033
53.8084 7409 86.0755
53.9248 7737 87.9602
54.0411 8139 90.2164
54.1573 8006 89.4763
54.2735 0 1
54.3896 0 1
54.5057 0 1
54.6217 0 1
54.7377 0 1
54.8537 0 1
54.9695 0 1
55.0853 0 1
55.2011 0 1
55.3168 0 1
55.4324 0 1
57.824 0 1
57.9396 0 1
58.0553 0 1
58.1711 0 1
58.2869 0 1
58.4028 0 1
58.5187 0 1
58.6347 0 1
58.7508 0 1
58.8669 0 1
58.983 9021 94.9789
59.0992 9558 97.765
59.2155 9893 99.4636
59.3318 10138 100.688
59.4482 10287 101.425
59.5646 10457 102.259
59.681 10294 101.459
59.7975 10285 101.415
59.9141 10169 100.841
60.0306 10115 100.573
60.1473 9888 99.4384
60.2639 9694 98.4581
60.3807 9361 96.7523
60.4974 8827 93.9521
60.6142 8648 92.9946
60.731 8627 92.8816
60.8479 8486 92.1195
60.9648 8821 93.9202
61.0818 9163 95.7236
61.1987 9254 96.1977
61.3158 9660 98.2853
61.4328 9615 98.0561
61.5499 9743 98.7066
61.667 9521 97.5756
61.7841 9411 97.0103
61.9013 8929 94.4934
62.0185 8644 92.9731
62.1357 8214 90.6311
62.253 8212 90.6201
62.3702 8499 92.19
62.4875 8705 93.3006
62.6049 9012 94.9316
62.7222 9066 95.2155
62.8396 9314 96.5091
62.9569 9436 97.1391
63.0743 9282 96.3431
63.1918 9501 97.4731
63.3092 9377 96.8349
63.4267 9259 96.2237
63.5441 9331 96.5971
63.6616 9033 95.0421
63.7791 9005 94.8947
63.8966 8602 92.747
64.0142 8281 91
64.1317 7791 88.2666
64.2492 7771 88.1533
64.3668 7771 88.1533
64.4843 7883 88.7863
64.6019 8277 90.978
64.7195 8320 91.214
64.837 8685 93.1933
64.9546 8753 93.5575
65.0722 8824 93.9361
65.1898 8962 94.6678
65.3074 9034 95.0474
65.4249 8695 93.247
65.5425 8163 90.3493
65.6601 7929 89.0449
65.7777 7685 87.6641
65.8952 7708 87.7952
66.0128 7969 89.2693
66.1304 8319 91.2086
66.2479 8546 92.4446
66.3655 8738 93.4773
66.483 9019 94.9684
66.6005 9178 95.8019
66.718 9293 96.4002
66.8355 9292 96.395
66.953 9177 95.7967
67.0705 9115 95.4725
67.1879 9225 96.0469
67.3054 8916 94.4246
67.4228 9092 95.352
67.5402 8728 93.4238
67.6576 8497 92.1792
67.7749 7874 88.7356
67.8923 7986 89.3644
68.0096 7917 88.9775
68.1269 8059 89.7719
68.2442 8544 92.4338
68.3614 8666 93.0914
68.4787 9096 95.373
68.5958 9280 96.3328
68.713 9421 97.0618
68.8302 9628 98.1224
68.9473 9622 98.0918
69.0643 9492 97.4269
69.1814 8983 94.7787
69.2984 8921 94.451
69.4154 8407 91.6897
69.5323 8079 89.8833
69.6492 8399 91.6461
69.7661 9178 95.8019
69.8829 9096 95.373
69.9997 9474 97.3345
70.1165 9558 97.765
70.2332 9801 99
70.3499 9763 98.8079
70.4665 10100 100.499
70.5831 10186 100.926
70.6996 9892 99.4585
70.8161 10091 100.454
70.9326 9751 98.7472
71.049 9823 99.111
71.1653 9425 97.0824
71.2817 9078 95.2785
71.3979 8602 92.747
71.5141 8145 90.2497
71.6303 7712 87.818
71.7464 7341 85.6796
71.8624 0 1
71.9784 0 1
72.0944 0 1
72.2102 0 1
72.3261 0 1
72.4418 0 1
72.5575 0 1
72.6732 0 1
75.1054 0 1
75.2209 0 1
75.3365 0 1
75.4521 0 1
75.5678 0 1
75.6835 0 1
75.7993 0 1
75.9151 0 1
76.031 0 1
76.147 8844 94.0425
76.263 9381 96.8556
76.3791 9599 97.9745
76.4952 9418 97.0464
76.6113 8865 94.1541
76.7276 8487 92.1249
76.8438 8305 91.1318
76.9601 8342 91.3345
77.0765 8503 92.2117
77.1929 8758 93.5842
77.3093 9075 95.2628
77.4258 9441 97.1648
77.5423 9690 98.4378
77.6589 9742 98.7016
77.7755 10036 100.18
77.8921 10076 100.379
78.0088 9767 98.8281
78.1256 9083 95.3048
78.2423 8914 94.414
78.3591 8270 90.9395
78.4759 7907 88.9213
78.5928 8233 90.7359
78.7097 8611 92.7955
78.8266 8967 94.6942
78.9436 9611 98.0357
79.0606 9543 97.6883
79.1776 9684 98.4073
79.2946 9768 98.8332
79.4117 9817 99.0808
79.5288 10038 100.19
79.6459 10020 100.1
79.7631 9736 98.6712
79.8802 9869 99.3428
79.9974 9637 98.1682
80.1147 9681 98.3921
80.2319 9311 96.4935
80.3491 8687 93.2041
80.4664 8323 91.2305
80.5837 8231 90.7249
80.701 8388 91.586
80.8183 8736 93.4666
80.9357 9161 95.7131
81.053 9136 95.5824
81.1704 9308 96.478
81.2877 9880 99.3982
81.4051 10109 100.544
81.5225 10193 100.96
81.6399 9771 98.8484
81.7573 9709 98.5343
81.8747 9030 95.0263
81.9922 8406 91.6842
82.1096 7739 87.9716
82.227 8098 89.9889
82.3444 8522 92.3147
82.4619 9160 95.7079
82.5793 9466 97.2934
82.6967 9577 97.8621
82.8142 9781 98.8989
82.9316 10024 100.12
83.049 10080 100.399
83.1664 10009 100.045
83.2838 10148 100.737
83.4012 9956 99.7798
83.5186 9767 98.8281
83.636 9886 99.4284
83.7534 9595 97.9541
83.8708 9445 97.1854
83.9881 8793 93.771
84.1055 8435 91.8423
84.2228 8389 91.5915
84.3401 8557 92.5041
84.4575 8737 93.4719
84.5747 9163 95.7236
84.692 9598 97.9694
84.8093 9892 99.4585
84.9265 10145 100.722
85.0437 10357 101.769
85.1609 10488 102.411
85.2781 10095 100.474
85.3952 9574 97.8468
85.5123 8962 94.6678
85.6294 8656 93.0376
85.7465 8105 90.0278
85.8636 8622 92.8547
85.9806 9341 96.6488
86.0976 9491 97.4218
86.2145 10162 100.807
86.3315 10004 100.02
86.4484 10230 101.143
86.5652 10709 103.484
86.682 10657 103.233
86.7988 10757 103.716
86.9156 10695 103.417
87.0323 10729 103.581
87.149 10524 102.587
87.2657 10504 102.489
87.3823 10266 101.321
87.4988 9727 98.6256
87.6154 9181 95.8175
87.7318 8898 94.3292
87.8483 8772 93.659
87.9647 9347 96.6799
88.081 9607 98.0153
88.1973 9994 99.97
88.3136 10219 101.089
88.4298 10609 103
88.546 10759 103.726
88.6621 11059 105.162
88.7781 10854 104.183
88.8942 0 1
89.0101 0 1
89.126 0 1
89.2419 0 1
89.3577 0 1
89.4734 0 1
89.5891 0 1
89.7047 0 1
89.8203 0 1
89.9358 0 1
92.3269 0 1
92.4424 0 1
92.558 0 1
92.6736 0 1
92.7893 0 1
92.905 0 1
93.0208 0 1
93.1366 0 1
93.2525 0 1
93.3685 0 1
93.4845 0 1
93.6005 9559 97.7701
93.7167 10101 100.504
93.8328 10127 100.633
93.949 10201 101
94.0653 10373 101.848
94.1816 10074 100.369
94.2979 9515 97.5449
94.4143 8902 94.3504
94.5307 8431 91.8205
94.6472 8232 90.7304
94.7637 8428 91.8041
94.8803 8838 94.0106
94.9969 9525 97.5961
95.1135 9455 97.2368
95.2302 9811 99.0505
95.3469 10077 100.384
95.4637 10127 100.633
95.5805 10282 101.4
95.6973 10491 102.426
95.8142 10293 101.454
95.9311 10324 101.607
96.048 10333 101.651
96.1649 10434 102.147
96.2819 10104 100.519
96.3989 9745 98.7168
96.516 9651 98.2395
96.633 9008 94.9105
96.7501 8809 93.8563
96.8673 8390 91.5969
96.9844 8781 93.707
97.1016 8803 93.8243
97.2188 9214 95.9896
97.336 9731 98.6458
97.4532 9923 99.6143
97.5704 10208 101.035
97.6877 10250 101.242
97.805 10255 101.267
97.9223 9966 99.8299
98.0396 9289 96.3795
98.1569 9038 95.0684
98.2743 8380 91.5423
98.3916 8139 90.2164
98.509 8491 92.1466
98.6264 8793 93.771
98.7438 9326 96.5712
98.8612 9668 98.326
98.9786 9857 99.2824
99.096 9861 99.3026
99.2134 9950 99.7497
99.3308 9882 99.4082
99.4482 9814 99.0656
99.5656 10045 100.225
99.6831 9865 99.3227
99.8005 9677 98.3717
99.9179 9529 97.6166
100.035 9569 97.8213
100.153 9082 95.2995
100.27 8862 94.1382
100.388 8260 90.8845
100.505 8419 91.7551
100.622 8572 92.5851
100.74 9018 94.9632
100.857 8953 94.6203
100.975 9480 97.3653
101.092 9678 98.3768
101.209 9894 99.4686
101.327 10201 101
101.444 10155 100.772
101.561 9910 99.549
101.679 9472 97.3242
101.796 8854 94.0957
101.913 8338 91.3126
102.03 8356 91.4112
102.148 8768 93.6376
102.265 8641 92.957
102.382 10303 101.504
102.499 9970 99.8499
102.616 10208 101.035
102.733 10228 101.134
102.851 10515 102.543
102.968 10482 102.382
103.085 10549 102.708
103.202 10659 103.242
103.319 10330 101.637
103.436 10275 101.366
103.552 10172 100.856
103.669 9871 99.3529
103.786 9301 96.4417
103.903 9178 95.8019
104.02 9170 95.7601
104.137 9090 95.3415
104.253 9407 96.9897
104.37 9700 98.4886
104.487 10214 101.064
104.603 10546 102.694
104.72 10692 103.402
104.836 10876 104.288
104.953 10846 104.144
105.069 10490 102.421
105.186 9787 98.9293
105.302 9020 94.9737
105.418 8666 93.0914
105.535 8903 94.3557
105.651 9408 96.9948
105.767 9858 99.2875
105.883 10088 100.439
105.999 10361 101.789
106.115 0 1
106.231 0 1
106.347 0 1
106.463 0 1
106.579 0 1
106.694 0 1
106.81 0 1
106.926 0 1
107.041 0 1
107.157 0 1
109.576 0 1
109.692 0 1
109.807 0 1
109.923 0 1
110.039 0 1
110.155 0 1
110.27 0 1
110.386 0 1
110.502 0 1
110.618 7666 87.5557
110.735 8378 91.5314
110.851 8965 94.6837
110.967 9168 95.7497
111.083 9331 96.5971
111.199 9517 97.5551
111.316 9672 98.3463
111.432 9729 98.6357
111.549 9422 97.067
111.665 9530 97.6217
111.782 9555 97.7497
111.898 9204 95.9375
112.015 9479 97.3602
112.132 9289 96.3795
112.248 8835 93.9947
112.365 8297 91.0879
112.482 8107 90.0389
112.599 7636 87.3842
112.716 8074 89.8554
112.832 8077 89.8721
112.949 8334 91.2907
113.066 8552 92.477
113.183 8865 94.1541
113.3 8792 93.7657
113.417 8957 94.6414
113.534 8909 94.3875
113.652 8585 92.6553
113.769 8060 89.7775
113.886 7508 86.6487
114.003 6909 83.1204
114.12 6984 83.5703
114.238 7351 85.738
114.355 7475 86.4581
114.472 7898 88.8707
114.589 7965 89.2468
114.707 8216 90.6422
114.824 8114 90.0777
114.942 8097 89.9833
115.059 8227 90.7028
115.176 8104 90.0222
115.294 7981 89.3364
115.411 7814 88.3968
115.529 7484 86.5101
115.646 7530 86.7756
115.764 7267 85.2467
115.881 6978 83.5344
115.999 6413 80.0812
116.116 6282 79.2591
116.234 6313 79.4544
116.351 6380 79.8749
116.469 6556 80.9691
116.586 6714 81.939
116.704 6857 82.807
116.821 6884 82.9699
116.939 7139 84.4926
117.056 7296 85.4166
117.174 6948 83.3547
117.291 6867 82.8674
117.409 6356 79.7245
117.526 5904 76.8375
117.644 5893 76.7659
117.761 5813 76.243
117.879 6138 78.3454
117.996 6416 80.0999
118.114 6617 81.3449
118.231 6956 83.4026
118.349 6913 83.1445
118.466 6863 82.8432
118.584 7024 83.8093
118.701 7233 85.047
118.819 7097 84.2437
118.936 7091 84.2081
119.053 6961 83.4326
119.171 7057 84.006
119.288 6814 82.547
119.405 6697 81.8352
119.523 6504 80.6474
119.64 6178 78.6003
119.757 6205 78.7718
119.875 6390 79.9375
119.992 6535 80.8393
120.109 6741 82.1036
120.226 6765 82.2496
120.343 7108 84.309
120.46 7434 86.2206
120.578 7433 86.2148
120.695 7675 87.6071
120.812 7767 88.1306
120.929 7381 85.9127
121.046 7240 85.0882
121.163 6790 82.4015
121.279 6518 80.7341
121.396 6584 81.1419
121.513 6968 83.4745
121.63 7273 85.2819
121.747 7590 87.1206
121.863 7804 88.3403
121.98 8126 90.1443
122.097 8124 90.1332
122.213 8166 90.3659
122.33 8545 92.4392
122.446 8542 92.4229
122.563 8319 91.2086
122.679 8359 91.4276
122.795 8234 90.7414
122.912 8172 90.3991
123.028 7891 88.8313
123.144 7654 87.4871
123.26 7560 86.9483
123.377 0 1
123.493 0 1
123.609 0 1
123.725 0 1
123.84 0 1
123.956 0 1
124.072 0 1
124.188 0 1
124.303 0 1
124.419 0 1
126.852 0 1
126.968 0 1
127.083 0 1
127.199 0 1
127.315 0 1
127.431 0 1
127.547 0 1
127.663 0 1
127.779 0 1
127.895 0 1
128.011 0 1
128.127 0 1
128.243 0 1
128.359 9608 98.0204
128.476 9356 96.7264
128.592 9043 95.0947
128.708 8497 92.1792
128.825 8474 92.0543
128.941 8574 92.5959
129.058 8753 93.5575
129.174 8945 94.578
129.291 9087 95.3258
129.408 9452 97.2214
129.524 9573 97.8417
129.641 9696 98.4683
129.758 9894 99.4686
129.875 9647 98.2191
129.992 9342 96.654
130.108 9097 95.3782
130.225 8583 92.6445
130.342 8165 90.3604
130.459 7978 89.3197
130.576 8227 90.7028
130.693 8900 94.3398
130.81 9132 95.5615
130.928 9290 96.3846
131.045 9490 97.4166
131.162 9567 97.811
131.279 9718 98.5799
131.396 9607 98.0153
131.513 9524 97.591
131.631 9440 97.1597
131.748 9280 96.3328
131.865 9124 95.5196
131.983 9121 95.5039
132.1 8729 93.4291
132.217 8483 92.1032
132.335 8084 89.9111
132.452 8234 90.7414
132.57 8439 91.864
132.687 8193 90.5152
132.804 9021 94.9789
132.922 9134 95.572
133.039 9213 95.9844
133.157 9270 96.2808
133.274 9576 97.857
133.392 9182 95.8228
133.509 8846 94.0532
133.627 8622 92.8547
133.744 8189 90.4931
133.862 7845 88.572
133.979 7789 88.2553
134.097 7979 89.3252
134.214 8419 91.7551
134.332 8279 90.989
134.449 8805 93.835
134.567 8851 94.0798
134.684 8972 94.7206
134.802 8967 94.6942
134.919 8760 93.5949
135.037 8640 92.9516
135.154 8553 92.4824
135.272 8351 91.3838
135.389 8461 91.9837
135.507 7985 89.3588
135.624 7869 88.7074
135.742 7474 86.4523
135.859 7179 84.729
135.977 7007 83.7078
136.094 6987 83.5883
136.211 7241 85.0941
136.329 7324 85.5804
136.446 7391 85.9709
136.564 7453 86.3308
136.681 7629 87.3441
136.798 7723 87.8806
136.915 7636 87.3842
137.033 7606 87.2124
137.15 7253 85.1645
137.267 7004 83.6899
137.384 6701 81.8596
137.502 6446 80.287
137.619 6486 80.5357
137.736 6788 82.3893
137.853 7056 84
137.97 7371 85.8545
138.087 7990 89.3868
138.204 7828 88.476
138.321 7942 89.1179
138.438 8248 90.8185
138.555 8387 91.5806
138.672 8414 91.7279
138.788 8236 90.7524
138.905 8169 90.3825
139.022 8286 91.0275
139.139 8155 90.305
139.255 7893 88.8426
139.372 7909 88.9326
139.488 7536 86.8101
139.605 7588 87.1091
139.721 7830 88.4873
139.838 8178 90.4323
139.954 8416 91.7388
140.071 8663 93.0752
140.187 8843 94.0372
140.303 8937 94.5357
140.419 8936 94.5304
140.535 9154 95.6765
140.652 9187 95.8488
140.768 0 1
140.884 0 1
141 0 1
141.115 0 1
141.231 0 1
141.347 0 1
141.463 0 1
141.578 0 1
141.694 0 1
144.104 0 1
144.219 0 1
144.335 0 1
144.45 0 1
144.566 0 1
144.682 0 1
144.798 0 1
144.914 0 1
145.03 0 1
145.146 13238 115.057
145.262 14538 120.574
145.378 15425 124.197
145.494 16112 126.933
145.61 17043 130.549
145.726 17371 131.799
145.842 17954 133.993
145.959 17743 133.203
146.075 17539 132.435
146.192 16982 130.315
146.308 17104 130.782
146.425 18163 134.77
146.541 19360 139.14
146.658 20936 144.693
146.774 22386 149.62
146.891 23456 153.154
147.008 24410 156.237
147.125 25304 159.072
147.241 26156 161.728
147.358 26829 163.796
147.475 26686 163.359
147.592 26980 164.256
147.709 26371 162.392
147.826 26352 162.333
147.943 26101 161.558
148.06 25411 159.408
148.177 24743 157.299
148.294 24306 155.904
148.411 24488 156.486
148.528 24818 157.537
148.645 25578 159.931
148.762 26291 162.145
148.88 26857 163.881
148.997 28042 167.457
149.114 25819 160.683
149.231 26485 162.742
149.349 26151 161.713
149.466 26441 162.607
149.583 24524 156.601
149.701 23065 151.872
149.818 22196 148.983
149.935 21530 146.731
150.053 21557 146.823
150.17 22406 149.686
150.287 23553 153.47
150.405 24304 155.897
150.522 24630 156.939
150.64 25509 159.715
150.757 25635 160.109
150.875 26291 162.145
150.992 26066 161.45
151.11 26943 164.143
151.227 25722 160.381
151.344 25402 159.38
151.462 25133 158.534
151.579 24728 157.251
151.697 24313 155.926
151.814 24174 155.48
151.932 23706 153.968
152.049 24378 156.135
152.167 24830 157.575
152.284 26146 161.697
152.402 26966 164.213
152.519 27465 165.726
152.636 28428 168.606
152.754 28603 169.124
152.871 28930 170.088
152.989 28143 167.759
153.106 27468 165.735
153.223 26141 161.682
153.341 24723 157.235
153.458 23700 153.948
153.575 23589 153.587
153.693 24434 156.314
153.81 25457 159.552
153.927 26631 163.19
154.044 27659 166.31
154.162 28113 167.669
154.279 29297 171.164
154.396 30225 173.853
154.513 30395 174.342
154.63 31298 176.912
154.747 31115 176.394
154.864 31364 177.099
154.981 30267 173.974
155.098 30442 174.476
155.215 30434 174.453
155.332 29529 171.84
155.449 29038 170.405
155.566 28955 170.162
155.683 29734 172.435
155.8 30543 174.766
155.917 32037 178.989
156.033 33131 182.019
156.15 0 1
156.267 0 1
156.383 0 1
156.5 0 1
156.617 0 1
156.733 0 1
156.85 0 1
156.966 0 1
157.082 0 1
157.199 0 1
157.315 0 1
157.431 0 1
157.547 0 1
157.664 0 1
157.78 0 1
157.896 0 1
158.012 0 1
158.128 0 1
158.244 0 1
158.359 0 1
158.475 0 1
158.591 0 1
158.706 0 1
