
6.15755 0 1
6.2731 0 1
6.3887 0 1
6.50437 0 1
6.62009 0 1
6.73587 0 1
6.8517 0 1
6.96759 0 1
7.08353 0 1
7.19952 0 1
7.31557 0 1
7.43166 0 1
7.54781 0 1
7.664 0 1
7.78024 0 1
7.89653 0 1
8.01286 0 1
8.12924 0 1
8.24567 0 1
8.36213 0 1
8.47864 0 1
8.59519 0 1
8.71178 0 1
8.82841 0 1
8.94508 0 1
9.06179 0 1
9.17853 0 1
9.29531 0 1
9.41212 0 1
9.52897 0 1
9.64584 0 1
9.76276 0 1
9.8797 0 1
9.99667 0 1
10.1137 0 1
10.2307 0 1
10.3478 0 1
10.4648 0 1
10.5819 0 1
10.6991 0 1
10.8162 0 1
10.9334 0 1
11.0506 0 1
11.1678 0 1
11.285 0 1
11.4023 0 1
11.5196 0 1
11.6369 0 1
11.7542 0 1
11.8715 0 1
11.9888 0 1
12.1062 0 1
12.2235 0 1
12.3409 0 1
12.4582 0 1
12.5756 0 1
12.693 0 1
12.8104 0 1
12.9278 0 1
13.0452 0 1
13.1626 0 1
13.28 0 1
13.3974 0 1
13.5149 0 1
13.6323 0 1
13.7497 0 1
13.8671 0 1
13.9845 0 1
14.1019 0 1
14.2193 0 1
14.3367 0 1
14.4541 0 1
14.5714 0 1
14.6888 0 1
14.8062 0 1
14.9235 0 1
15.0408 2073 45.5302
15.1581 2131 46.1628
15.2755 2198 46.8828
15.3927 2174 46.6262
15.51 2183 46.7226
15.6273 2183 46.7226
15.7445 1994 44.6542
15.8617 2114 45.9783
15.9789 2003 44.7549
16.0961 1995 44.6654
16.2132 1915 43.7607
16.3304 1882 43.382
16.4475 1854 43.0581
16.5646 1877 43.3244
16.6816 1835 42.8369
16.7986 1883 43.3935
16.9156 1866 43.1972
17.0326 1823 42.6966
17.1496 1868 43.2204
17.2665 1803 42.4617
17.3833 1884 43.4051
17.5002 1860 43.1277
17.617 1884 43.4051
17.7338 1765 42.0119
17.8505 1807 42.5088
17.9672 1818 42.638
18.0839 1946 44.1135
18.2005 2008 44.8107
18.3171 2148 46.3465
18.4337 2099 45.8148
18.5502 2144 46.3033
18.6666 2201 46.9148
18.7831 2201 46.9148
18.8994 2165 46.5296
19.0158 2138 46.2385
19.1321 1990 44.6094
19.2483 1936 44
19.3645 1879 43.3474
19.4806 1863 43.1625
19.5967 1746 41.7852
19.7128 1727 41.5572
19.8288 1683 41.0244
19.9447 1424 37.7359
20.0606 0 1
20.1764 0 1
20.2922 0 1
20.4079 0 1
20.5236 0 1
20.6392 0 1
20.7548 0 1
20.8702 0 1
23.3078 0 1
23.4233 0 1
23.539 0 1
23.6547 0 1
23.7704 0 1
23.8862 0 1
24.0021 0 1
24.118 0 1
24.234 0 1
24.35 0 1
24.4661 1722 41.497
24.5822 1704 41.2795
24.6984 1729 41.5812
24.8146 1631 40.3856
24.9309 1699 41.2189
25.0472 1617 40.2119
25.1636 1736 41.6653
25.28 1765 42.0119
25.3965 1725 41.5331
25.513 1776 42.1426
25.6296 1815 42.6028
25.7462 1899 43.5775
25.8628 1814 42.5911
25.9795 1797 42.391
26.0962 1861 43.1393
26.213 1800 42.4264
26.3298 1726 41.5452
26.4466 1607 40.0874
26.5635 1580 39.7492
26.6804 1599 39.9875
26.7973 1718 41.4488
26.9143 1714 41.4005
27.0313 1816 42.6146
27.1483 1903 43.6234
27.2653 1912 43.7264
27.3824 1858 43.1045
27.4996 1950 44.1588
27.6167 1864 43.1741
27.7339 1746 41.7852
27.8511 1785 42.2493
27.9683 1765 42.0119
28.0855 1733 41.6293
28.2028 1743 41.7493
28.3201 1587 39.8372
28.4374 1591 39.8873
28.5547 1645 40.5586
28.6721 1553 39.4081
28.7894 1506 38.8072
28.9068 1579 39.7366
29.0242 1575 39.6863
29.1416 1663 40.7799
29.259 1568 39.598
29.3764 1640 40.4969
29.4939 1612 40.1497
29.6113 1591 39.8873
29.7288 1533 39.1535
29.8463 1551 39.3827
29.9638 1548 39.3446
30.0812 1579 39.7366
30.1987 1626 40.3237
30.3162 1500 38.7298
30.4337 1571 39.6358
30.5512 1648 40.5956
30.6687 1594 39.9249
30.7862 1727 41.5572
30.9037 1717 41.4367
31.0212 1683 41.0244
31.1387 1742 41.7373
31.2562 1738 41.6893
31.3737 1687 41.0731
31.4912 1734 41.6413
31.6087 1633 40.4104
31.7262 1558 39.4715
31.8436 1574 39.6737
31.9611 1576 39.6989
32.0785 1512 38.8844
32.1959 1498 38.704
32.3134 1499 38.7169
32.4308 1509 38.8458
32.5482 1463 38.2492
32.6655 1565 39.5601
32.7829 1515 38.923
32.9002 1563 39.5348
33.0176 1586 39.8246
33.1349 1600 40
33.2522 1609 40.1123
33.3694 1556 39.4462
33.4867 1529 39.1024
33.6039 1492 38.6264
33.7211 1440 37.9473
33.8383 1393 37.3229
33.9554 1457 38.1707
34.0725 1542 39.2683
34.1896 1551 39.3827
34.3067 1588 39.8497
34.4237 1649 40.6079
34.5407 1622 40.2741
34.6577 1624 40.2989
34.7746 1675 40.9268
34.8915 1672 40.8901
35.0084 1625 40.3113
35.1252 1665 40.8044
35.242 1609 40.1123
35.3587 1554 39.4208
35.4755 1465 38.2753
35.5921 1532 39.1408
35.7088 1399 37.4032
35.8254 1354 36.7967
35.9419 1379 37.1349
36.0584 1426 37.7624
36.1749 1380 37.1484
36.2913 1408 37.5233
36.4077 1487 38.5616
36.524 1473 38.3797
36.6403 1456 38.1576
36.7565 1503 38.7685
36.8727 1598 39.975
36.9889 1477 38.4318
37.1049 1400 37.4166
37.221 0 1
37.3369 0 1
37.4529 0 1
37.5687 0 1
37.6845 0 1
37.8003 0 1
37.916 0 1
38.0316 0 1
38.1472 0 1
40.5851 0 1
40.7008 0 1
40.8164 0 1
40.9322 0 1
41.048 0 1
41.1639 0 1
41.2798 0 1
41.3958 0 1
41.5118 0 1
41.6279 0 1
41.744 1136 33.7046
41.8602 1238 35.1852
41.9765 1229 35.0571
42.0928 1273 35.6791
42.2091 1214 34.8425
42.3255 1350 36.7423
42.4419 1213 34.8281
42.5584 1117 33.4215
42.675 1113 33.3617
42.7915 1142 33.7935
42.9081 1111 33.3317
43.0248 1137 33.7194
43.1415 1187 34.4529
43.2582 1246 35.2987
43.375 1249 35.3412
43.4918 1165 34.1321
43.6087 1230 35.0714
43.7256 1218 34.8999
43.8425 1203 34.6843
43.9595 1242 35.242
44.0765 1125 33.541
44.1935 1186 34.4384
44.3106 1126 33.5559
44.4277 1099 33.1512
44.5448 986 31.4006
44.6619 996 31.5595
44.7791 923 30.3809
44.8963 893 29.8831
45.0136 919 30.315
45.1308 888 29.7993
45.2481 910 30.1662
45.3654 976 31.241
45.4827 957 30.9354
45.6001 913 30.2159
45.7174 914 30.2324
45.8348 944 30.7246
45.9522 917 30.282
46.0697 907 30.1164
46.1871 864 29.3939
46.3046 813 28.5132
46.422 779 27.9106
46.5395 789 28.0891
46.657 845 29.0689
46.7745 880 29.6648
46.892 878 29.6311
47.0096 842 29.0172
47.1271 881 29.6816
47.2446 903 30.05
47.3622 898 29.9666
47.4797 854 29.2233
47.5973 842 29.0172
47.7149 839 28.9655
47.8324 823 28.688
47.95 838 28.9482
48.0675 805 28.3725
48.1851 777 27.8747
48.3027 736 27.1293
48.4202 713 26.7021
48.5378 717 26.7769
48.6554 776 27.8568
48.7729 782 27.9643
48.8904 745 27.2947
49.008 799 28.2666
49.1255 805 28.3725
49.243 854 29.2233
49.3605 870 29.4958
49.478 858 29.2916
49.5955 843 29.0345
49.713 716 26.7582
49.8304 788 28.0713
49.9479 806 28.3901
50.0653 769 27.7308
50.1827 834 28.8791
50.3001 876 29.5973
50.4175 870 29.4958
50.5348 910 30.1662
50.6521 919 30.315
50.7694 925 30.4138
50.8867 995 31.5436
51.004 1007 31.7333
51.1212 927 30.4467
51.2384 1036 32.187
51.3556 1032 32.1248
51.4727 1013 31.8277
51.5899 976 31.241
51.707 967 31.0966
51.824 943 30.7083
51.9411 948 30.7896
52.0581 1069 32.6956
52.175 1054 32.4654
52.2919 1113 33.3617
52.4088 1104 33.2265
52.5257 1179 34.3366
52.6425 1215 34.8569
52.7593 1176 34.2929
52.876 1253 35.3977
52.9927 1283 35.819
53.1094 1241 35.2278
53.226 1200 34.641
53.3426 1206 34.7275
53.4591 1106 33.2566
53.5756 1143 33.8083
53.692 1182 34.3802
53.8084 1230 35.0714
53.9248 1371 37.027
54.0411 1374 37.0675
54.1573 1312 36.2215
54.2735 0 1
54.3896 0 1
54.5057 0 1
54.6217 0 1
54.7377 0 1
54.8537 0 1
54.9695 0 1
55.0853 0 1
55.2011 0 1
55.3168 0 1
55.4324 0 1
57.824 0 1
57.9396 0 1
58.0553 0 1
58.1711 0 1
58.2869 0 1
58.4028 0 1
58.5187 0 1
58.6347 0 1
58.7508 0 1
58.8669 0 1
58.983 1481 38.4838
59.0992 1654 40.6694
59.2155 1659 40.7308
59.3318 1649 40.6079
59.4482 1749 41.821
59.5646 1768 42.0476
59.681 1744 41.7612
59.7975 1773 42.107
59.9141 1773 42.107
60.0306 1710 41.3521
60.1473 1721 41.4849
60.2639 1745 41.7732
60.3807 1616 40.1995
60.4974 1559 39.4842
60.6142 1590 39.8748
60.731 1611 40.1373
60.8479 1575 39.6863
60.9648 1632 40.398
61.0818 1693 41.1461
61.1987 1718 41.4488
61.3158 1669 40.8534
61.4328 1719 41.4608
61.5499 1688 41.0853
61.667 1684 41.0366
61.7841 1643 40.5339
61.9013 1576 39.6989
62.0185 1441 37.9605
62.1357 1451 38.092
62.253 1412 37.5766
62.3702 1476 38.4187
62.4875 1468 38.3145
62.6049 1487 38.5616
62.7222 1520 38.9872
62.8396 1567 39.5854
62.9569 1618 40.2244
63.0743 1616 40.1995
63.1918 1570 39.6232
63.3092 1540 39.2428
63.4267 1534 39.1663
63.5441 1511 38.8716
63.6616 1528 39.0896
63.7791 1451 38.092
63.8966 1430 37.8153
64.0142 1410 37.55
64.1317 1401 37.4299
64.2492 1403 37.4566
64.3668 1386 37.229
64.4843 1406 37.4967
64.6019 1405 37.4833
64.7195 1460 38.2099
64.837 1549 39.3573
64.9546 1563 39.5348
65.0722 1529 39.1024
65.1898 1565 39.5601
65.3074 1583 39.7869
65.4249 1513 38.8973
65.5425 1493 38.6394
65.6601 1401 37.4299
65.7777 1332 36.4966
65.8952 1297 36.0139
66.0128 1350 36.7423
66.1304 1405 37.4833
66.2479 1459 38.1969
66.3655 1475 38.4057
66.483 1524 39.0384
66.6005 1522 39.0128
66.718 1566 39.5727
66.8355 1429 37.8021
66.953 1564 39.5474
67.0705 1545 39.3065
67.1879 1519 38.9744
67.3054 1490 38.6005
67.4228 1477 38.4318
67.5402 1572 39.6485
67.6576 1589 39.8623
67.7749 1368 36.9865
67.8923 1506 38.8072
68.0096 1426 37.7624
68.1269 1474 38.3927
68.2442 1570 39.6232
68.3614 1602 40.025
68.4787 1603 40.0375
68.5958 1558 39.4715
68.713 1683 41.0244
68.8302 1708 41.328
68.9473 1636 40.4475
69.0643 1704 41.2795
69.1814 1647 40.5832
69.2984 1570 39.6232
69.4154 1445 38.0132
69.5323 1365 36.9459
69.6492 1504 38.7814
69.7661 1529 39.1024
69.8829 1503 38.7685
69.9997 1582 39.7744
70.1165 1692 41.1339
70.2332 1660 40.7431
70.3499 1674 40.9145
70.4665 1712 41.3763
70.5831 1653 40.6571
70.6996 1759 41.9404
70.8161 1700 41.2311
70.9326 1629 40.3609
71.049 1722 41.497
71.1653 1700 41.2311
71.2817 1626 40.3237
71.3979 1575 39.6863
71.5141 1425 37.7492
71.6303 1521 39
71.7464 1352 36.7696
71.8624 0 1
71.9784 0 1
72.0944 0 1
72.2102 0 1
72.3261 0 1
72.4418 0 1
72.5575 0 1
72.6732 0 1
75.1054 0 1
75.2209 0 1
75.3365 0 1
75.4521 0 1
75.5678 0 1
75.6835 0 1
75.7993 0 1
75.9151 0 1
76.031 0 1
76.147 1409 37.5366
76.263 1576 39.6989
76.3791 1592 39.8999
76.4952 1606 40.0749
76.6113 1610 40.1248
76.7276 1576 39.6989
76.8438 1506 38.8072
76.9601 1544 39.2938
77.0765 1597 39.9625
77.1929 1607 40.0874
77.3093 1642 40.5216
77.4258 1694 41.1582
77.5423 1701 41.2432
77.6589 1733 41.6293
77.7755 1848 42.9884
77.8921 1786 42.2611
78.0088 1590 39.8748
78.1256 1596 39.95
78.2423 1448 38.0526
78.3591 1429 37.8021
78.4759 1357 36.8375
78.5928 1445 38.0132
78.7097 1506 38.8072
78.8266 1492 38.6264
78.9436 1606 40.0749
79.0606 1603 40.0375
79.1776 1595 39.9375
79.2946 1596 39.95
79.4117 1605 40.0625
79.5288 1680 40.9878
79.6459 1613 40.1622
79.7631 1589 39.8623
79.8802 1618 40.2244
79.9974 1731 41.6053
80.1147 1671 40.8779
80.2319 1663 40.7799
80.3491 1561 39.5095
80.4664 1521 39
80.5837 1531 39.128
80.701 1630 40.3733
80.8183 1649 40.6079
80.9357 1689 41.0974
81.053 1703 41.2674
81.1704 1762 41.9762
81.2877 1788 42.2847
81.4051 1832 42.8019
81.5225 1791 42.3202
81.6399 1744 41.7612
81.7573 1715 41.4126
81.8747 1537 39.2046
81.9922 1364 36.9324
82.1096 1349 36.7287
82.227 1356 36.8239
82.3444 1367 36.973
82.4619 1527 39.0768
82.5793 1575 39.6863
82.6967 1566 39.5727
82.8142 1566 39.5727
82.9316 1685 41.0488
83.049 1660 40.7431
83.1664 1676 40.939
83.2838 1702 41.2553
83.4012 1615 40.1871
83.5186 1700 41.2311
83.636 1746 41.7852
83.7534 1737 41.6773
83.8708 1591 39.8873
83.9881 1620 40.2492
84.1055 1501 38.7427
84.2228 1628 40.3485
84.3401 1636 40.4475
84.4575 1769 42.0595
84.5747 1743 41.7493
84.692 1720 41.4729
84.8093 1737 41.6773
84.9265 1870 43.2435
85.0437 1960 44.2719
85.1609 1828 42.7551
85.2781 1728 41.5692
85.3952 1658 40.7185
85.5123 1565 39.5601
85.6294 1418 37.6563
85.7465 1458 38.1838
85.8636 1501 38.7427
85.9806 1529 39.1024
86.0976 1615 40.1871
86.2145 1694 41.1582
86.3315 1793 42.3438
86.4484 1726 41.5452
86.5652 1801 42.4382
86.682 1819 42.6497
86.7988 1826 42.7317
86.9156 1821 42.6732
87.0323 1798 42.4028
87.149 1777 42.1545
87.2657 1778 42.1663
87.3823 1780 42.19
87.4988 1789 42.2966
87.6154 1725 41.5331
87.7318 1678 40.9634
87.8483 1691 41.1218
87.9647 1774 42.1189
88.081 1845 42.9535
88.1973 1845 42.9535
88.3136 1874 43.2897
88.4298 1799 42.4146
88.546 1967 44.3509
88.6621 2025 45
88.7781 1893 43.5086
88.8942 0 1
89.0101 0 1
89.126 0 1
89.2419 0 1
89.3577 0 1
89.4734 0 1
89.5891 0 1
89.7047 0 1
89.8203 0 1
89.9358 0 1
92.3269 0 1
92.4424 0 1
92.558 0 1
92.6736 0 1
92.7893 0 1
92.905 0 1
93.0208 0 1
93.1366 0 1
93.2525 0 1
93.3685 0 1
93.4845 0 1
93.6005 1664 40.7922
93.7167 1767 42.0357
93.8328 1915 43.7607
93.949 1847 42.9767
94.0653 1755 41.8927
94.1816 1754 41.8808
94.2979 1643 40.5339
94.4143 1512 38.8844
94.5307 1430 37.8153
94.6472 1463 38.2492
94.7637 1465 38.2753
94.8803 1534 39.1663
94.9969 1552 39.3954
95.1135 1702 41.2553
95.2302 1677 40.9512
95.3469 1624 40.2989
95.4637 1739 41.7013
95.5805 1704 41.2795
95.6973 1748 41.8091
95.8142 1787 42.2729
95.9311 1763 41.9881
96.048 1714 41.4005
96.1649 1692 41.1339
96.2819 1839 42.8836
96.3989 1899 43.5775
96.516 1682 41.0122
96.633 1690 41.1096
96.7501 1627 40.3361
96.8673 1669 40.8534
96.9844 1612 40.1497
97.1016 1748 41.8091
97.2188 1769 42.0595
97.336 1765 42.0119
97.4532 1748 41.8091
97.5704 1801 42.4382
97.6877 1823 42.6966
97.805 1821 42.6732
97.9223 1650 40.6202
98.0396 1657 40.7063
98.1569 1478 38.4448
98.2743 1464 38.2623
98.3916 1407 37.51
98.509 1486 38.5487
98.6264 1518 38.9615
98.7438 1645 40.5586
98.8612 1703 41.2674
98.9786 1654 40.6694
99.096 1568 39.598
99.2134 1608 40.0999
99.3308 1667 40.8289
99.4482 1606 40.0749
99.5656 1677 40.9512
99.6831 1598 39.975
99.8005 1701 41.2432
99.9179 1603 40.0375
100.035 1617 40.2119
100.153 1604 40.05
100.27 1592 39.8999
100.388 1572 39.6485
100.505 1546 39.3192
100.622 1550 39.37
100.74 1691 41.1218
100.857 1718 41.4488
100.975 1662 40.7676
101.092 1719 41.4608
101.209 1775 42.1307
101.327 1772 42.0951
101.444 1786 42.2611
101.561 1680 40.9878
101.679 1569 39.6106
101.796 1603 40.0375
101.913 1460 38.2099
102.03 1465 38.2753
102.148 1519 38.9744
102.265 1471 38.3536
102.382 1766 42.0238
102.499 1667 40.8289
102.616 1755 41.8927
102.733 1675 40.9268
102.851 1718 41.4488
102.968 1767 42.0357
103.085 1809 42.5323
103.202 1819 42.6497
103.319 1778 42.1663
103.436 1770 42.0714
103.552 1857 43.0929
103.669 1809 42.5323
103.786 1726 41.5452
103.903 1733 41.6293
104.02 1766 42.0238
104.137 1800 42.4264
104.253 1776 42.1426
104.37 1784 42.2374
104.487 1837 42.8602
104.603 1866 43.1972
104.72 1907 43.6692
104.836 1914 43.7493
104.953 1805 42.4853
105.069 1766 42.0238
105.186 1687 41.0731
105.302 1625 40.3113
105.418 1593 39.9124
105.535 1676 40.939
105.651 1703 41.2674
105.767 1686 41.0609
105.883 1740 41.7133
105.999 1707 41.3159
106.115 0 1
106.231 0 1
106.347 0 1
106.463 0 1
106.579 0 1
106.694 0 1
106.81 0 1
106.926 0 1
107.041 0 1
107.157 0 1
109.576 0 1
109.692 0 1
109.807 0 1
109.923 0 1
110.039 0 1
110.155 0 1
110.27 0 1
110.386 0 1
110.502 0 1
110.618 1367 36.973
110.735 1493 38.6394
110.851 1573 39.6611
110.967 1625 40.3113
111.083 1562 39.5221
111.199 1544 39.2938
111.316 1600 40
111.432 1634 40.4228
111.549 1586 39.8246
111.665 1659 40.7308
111.782 1622 40.2741
111.898 1564 39.5474
112.015 1619 40.2368
112.132 1597 39.9625
112.248 1590 39.8748
112.365 1405 37.4833
112.482 1487 38.5616
112.599 1428 37.7889
112.716 1468 38.3145
112.832 1532 39.1408
112.949 1648 40.5956
113.066 1522 39.0128
113.183 1515 38.923
113.3 1483 38.5097
113.417 1537 39.2046
113.534 1469 38.3275
113.652 1348 36.7151
113.769 1383 37.1887
113.886 1257 35.4542
114.003 1203 34.6843
114.12 1289 35.9026
114.238 1312 36.2215
114.355 1314 36.2491
114.472 1336 36.5513
114.589 1246 35.2987
114.707 1405 37.4833
114.824 1320 36.3318
114.942 1358 36.8511
115.059 1321 36.3456
115.176 1337 36.565
115.294 1330 36.4692
115.411 1284 35.8329
115.529 1225 35
115.646 1281 35.7911
115.764 1261 35.5106
115.881 1124 33.5261
115.999 1078 32.8329
116.116 1059 32.5423
116.234 1171 34.2199
116.351 1185 34.4238
116.469 1197 34.5977
116.586 1191 34.5109
116.704 1229 35.0571
116.821 1214 34.8425
116.939 1280 35.7771
117.056 1174 34.2637
117.174 1102 33.1964
117.291 1123 33.5112
117.409 1048 32.3728
117.526 1025 32.0156
117.644 1046 32.3419
117.761 1008 31.749
117.879 1054 32.4654
117.996 1151 33.9264
118.114 1134 33.6749
118.231 1119 33.4515
118.349 1176 34.2929
118.466 1171 34.2199
118.584 1154 33.9706
118.701 1222 34.9571
118.819 1223 34.9714
118.936 1147 33.8674
119.053 1159 34.0441
119.171 1105 33.2415
119.288 1133 33.6601
119.405 1094 33.0757
119.523 1090 33.0151
119.64 1099 33.1512
119.757 1143 33.8083
119.875 1155 33.9853
119.992 1176 34.2929
120.109 1174 34.2637
120.226 1197 34.5977
120.343 1232 35.0999
120.46 1201 34.6554
120.578 1258 35.4683
120.695 1303 36.0971
120.812 1213 34.8281
120.929 1233 35.1141
121.046 1093 33.0606
121.163 1091 33.0303
121.279 1169 34.1906
121.396 1217 34.8855
121.513 1289 35.9026
121.63 1265 35.5668
121.747 1311 36.2077
121.863 1301 36.0694
121.98 1364 36.9324
122.097 1334 36.524
122.213 1389 37.2693
122.33 1382 37.1753
122.446 1431 37.8286
122.563 1360 36.8782
122.679 1410 37.55
122.795 1323 36.3731
122.912 1319 36.318
123.028 1316 36.2767
123.144 1247 35.3129
123.26 1230 35.0714
123.377 0 1
123.493 0 1
123.609 0 1
123.725 0 1
123.84 0 1
123.956 0 1
124.072 0 1
124.188 0 1
124.303 0 1
124.419 0 1
126.852 0 1
126.968 0 1
127.083 0 1
127.199 0 1
127.315 0 1
127.431 0 1
127.547 0 1
127.663 0 1
127.779 0 1
127.895 0 1
128.011 0 1
128.127 0 1
128.243 0 1
128.359 1658 40.7185
128.476 1589 39.8623
128.592 1482 38.4968
128.708 1483 38.5097
128.825 1499 38.7169
128.941 1544 39.2938
129.058 1601 40.0125
129.174 1699 41.2189
129.291 1668 40.8412
129.408 1722 41.497
129.524 1602 40.025
129.641 1652 40.6448
129.758 1576 39.6989
129.875 1552 39.3954
129.992 1527 39.0768
130.108 1459 38.1969
130.225 1428 37.7889
130.342 1427 37.7757
130.459 1476 38.4187
130.576 1517 38.9487
130.693 1528 39.0896
130.81 1595 39.9375
130.928 1500 38.7298
131.045 1568 39.598
131.162 1606 40.0749
131.279 1596 39.95
131.396 1652 40.6448
131.513 1667 40.8289
131.631 1589 39.8623
131.748 1556 39.4462
131.865 1487 38.5616
131.983 1457 38.1707
132.1 1423 37.7227
132.217 1329 36.4555
132.335 1418 37.6563
132.452 1523 39.0256
132.57 1533 39.1535
132.687 1425 37.7492
132.804 1617 40.2119
132.922 1598 39.975
133.039 1554 39.4208
133.157 1573 39.6611
133.274 1604 40.05
133.392 1522 39.0128
133.509 1411 37.5633
133.627 1444 38
133.744 1416 37.6298
133.862 1310 36.1939
133.979 1426 37.7624
134.097 1561 39.5095
134.214 1519 38.9744
134.332 1463 38.2492
134.449 1582 39.7744
134.567 1571 39.6358
134.684 1538 39.2173
134.802 1572 39.6485
134.919 1607 40.0874
135.037 1622 40.2741
135.154 1548 39.3446
135.272 1469 38.3275
135.389 1486 38.5487
135.507 1446 38.0263
135.624 1365 36.9459
135.742 1245 35.2846
135.859 1280 35.7771
135.977 1282 35.805
136.094 1285 35.8469
136.211 1312 36.2215
136.329 1403 37.4566
136.446 1337 36.565
136.564 1353 36.7831
136.681 1320 36.3318
136.798 1424 37.7359
136.915 1386 37.229
137.033 1299 36.0416
137.15 1320 36.3318
137.267 1196 34.5832
137.384 1118 33.4365
137.502 1215 34.8569
137.619 1294 35.9722
137.736 1340 36.606
137.853 1281 35.7911
137.97 1398 37.3898
138.087 1474 38.3927
138.204 1453 38.1182
138.321 1519 38.9744
138.438 1521 39
138.555 1601 40.0125
138.672 1505 38.7943
138.788 1481 38.4838
138.905 1445 38.0132
139.022 1513 38.8973
139.139 1519 38.9744
139.255 1452 38.1051
139.372 1321 36.3456
139.488 1367 36.973
139.605 1507 38.8201
139.721 1497 38.6911
139.838 1560 39.4968
139.954 1547 39.3319
140.071 1613 40.1622
140.187 1700 41.2311
140.303 1607 40.0874
140.419 1650 40.6202
140.535 1673 40.9023
140.652 1548 39.3446
140.768 0 1
140.884 0 1
141 0 1
141.115 0 1
141.231 0 1
141.347 0 1
141.463 0 1
141.578 0 1
141.694 0 1
144.104 0 1
144.219 0 1
144.335 0 1
144.45 0 1
144.566 0 1
144.682 0 1
144.798 0 1
144.914 0 1
145.03 0 1
145.146 1965 44.3283
145.262 2054 45.3211
145.378 2215 47.0638
145.494 2316 48.1248
145.61 2425 49.2443
145.726 2459 49.5883
145.842 2555 50.547
145.959 2622 51.2055
146.075 2477 49.7695
146.192 2689 51.8556
146.308 2773 52.6593
146.425 3167 56.2761
146.541 3502 59.1777
146.658 3776 61.4492
146.774 4080 63.8749
146.891 4405 66.3702
147.008 4750 68.9202
147.125 4999 70.7036
147.241 5195 72.0763
147.358 5488 74.081
147.475 5599 74.8265
147.592 5623 74.9867
147.709 5762 75.9078
147.826 5833 76.3741
147.943 5795 76.1249
148.06 5724 75.6571
148.177 5852 76.4984
148.294 6134 78.3199
148.411 6415 80.0937
148.528 6480 80.4984
148.645 7125 84.4097
148.762 7087 84.1843
148.88 7118 84.3682
148.997 7523 86.7352
149.114 7011 83.7317
149.231 7094 84.2259
149.349 6818 82.5712
149.466 6507 80.666
149.583 6238 78.981
149.701 5911 76.883
149.818 5875 76.6485
149.935 5922 76.9545
150.053 6099 78.0961
150.17 6325 79.5299
150.287 6582 81.1295
150.405 6616 81.3388
150.522 6839 82.6982
150.64 7166 84.6522
150.757 7075 84.113
150.875 7222 84.9824
150.992 7106 84.2971
151.11 7392 85.9767
151.227 7204 84.8764
151.344 6801 82.4682
151.462 6882 82.9578
151.579 6585 81.148
151.697 6544 80.895
151.814 6419 80.1187
151.932 6601 81.2465
152.049 7009 83.7198
152.167 7221 84.9765
152.284 7474 86.4523
152.402 7733 87.9375
152.519 7934 89.073
152.636 7828 88.476
152.754 7788 88.2496
152.871 7471 86.4349
152.989 7286 85.3581
153.106 6917 83.1685
153.223 6651 81.5537
153.341 6558 80.9815
153.458 6391 79.9437
153.575 6653 81.5659
153.693 6759 82.2131
153.81 7305 85.4693
153.927 7365 85.8196
154.044 7745 88.0057
154.162 7774 88.1703
154.279 8025 89.5824
154.396 8329 91.2634
154.513 8396 91.6297
154.63 8591 92.6876
154.747 8461 91.9837
154.864 8508 92.2388
154.981 8245 90.802
155.098 8271 90.945
155.215 7916 88.9719
155.332 7974 89.2973
155.449 7797 88.3006
155.566 8090 89.9444
155.683 8528 92.3472
155.8 8997 94.8525
155.917 9174 95.781
156.033 9258 96.2185
156.15 0 1
156.267 0 1
156.383 0 1
156.5 0 1
156.617 0 1
156.733 0 1
156.85 0 1
156.966 0 1
157.082 0 1
157.199 0 1
157.315 0 1
157.431 0 1
157.547 0 1
157.664 0 1
157.78 0 1
157.896 0 1
158.012 0 1
158.128 0 1
158.244 0 1
158.359 0 1
158.475 0 1
158.591 0 1
158.706 0 1
