
6.15755 0 1
6.2731 0 1
6.3887 0 1
6.50437 0 1
6.62009 0 1
6.73587 0 1
6.8517 0 1
6.96759 0 1
7.08353 0 1
7.19952 0 1
7.31557 0 1
7.43166 0 1
7.54781 0 1
7.664 0 1
7.78024 0 1
7.89653 0 1
8.01286 0 1
8.12924 0 1
8.24567 0 1
8.36213 0 1
8.47864 0 1
8.59519 0 1
8.71178 0 1
8.82841 0 1
8.94508 0 1
9.06179 0 1
9.17853 0 1
9.29531 0 1
9.41212 0 1
9.52897 0 1
9.64584 0 1
9.76276 0 1
9.8797 0 1
9.99667 0 1
10.1137 0 1
10.2307 0 1
10.3478 0 1
10.4648 0 1
10.5819 0 1
10.6991 0 1
10.8162 0 1
10.9334 0 1
11.0506 0 1
11.1678 0 1
11.285 0 1
11.4023 0 1
11.5196 0 1
11.6369 0 1
11.7542 0 1
11.8715 0 1
11.9888 0 1
12.1062 0 1
12.2235 0 1
12.3409 0 1
12.4582 0 1
12.5756 0 1
12.693 0 1
12.8104 0 1
12.9278 0 1
13.0452 0 1
13.1626 0 1
13.28 0 1
13.3974 0 1
13.5149 0 1
13.6323 0 1
13.7497 0 1
13.8671 0 1
13.9845 0 1
14.1019 0 1
14.2193 0 1
14.3367 0 1
14.4541 0 1
14.5714 0 1
14.6888 0 1
14.8062 0 1
14.9235 0 1
15.0408 911 30.1828
15.1581 898 29.9666
15.2755 907 30.1164
15.3927 962 31.0161
15.51 907 30.1164
15.6273 918 30.2985
15.7445 884 29.7321
15.8617 869 29.4788
15.9789 884 29.7321
16.0961 922 30.3645
16.2132 989 31.4484
16.3304 984 31.3688
16.4475 976 31.241
16.5646 1053 32.45
16.6816 1075 32.7872
16.7986 1076 32.8024
16.9156 964 31.0483
17.0326 1094 33.0757
17.1496 990 31.4643
17.2665 956 30.9192
17.3833 994 31.5278
17.5002 1051 32.4191
17.617 1023 31.9844
17.7338 1012 31.8119
17.8505 1083 32.909
17.9672 1158 34.0294
18.0839 1072 32.7414
18.2005 1079 32.8481
18.3171 1071 32.7261
18.4337 1146 33.8526
18.5502 1196 34.5832
18.6666 1225 35
18.7831 1213 34.8281
18.8994 1120 33.4664
19.0158 1188 34.4674
19.1321 1178 34.322
19.2483 1138 33.7343
19.3645 1059 32.5423
19.4806 1107 33.2716
19.5967 1098 33.1361
19.7128 1189 34.4819
19.8288 1115 33.3916
19.9447 1051 32.4191
20.0606 0 1
20.1764 0 1
20.2922 0 1
20.4079 0 1
20.5236 0 1
20.6392 0 1
20.7548 0 1
20.8702 0 1
23.3078 0 1
23.4233 0 1
23.539 0 1
23.6547 0 1
23.7704 0 1
23.8862 0 1
24.0021 0 1
24.118 0 1
24.234 0 1
24.35 0 1
24.4661 1053 32.45
24.5822 1158 34.0294
24.6984 1088 32.9848
24.8146 1099 33.1512
24.9309 1253 35.3977
25.0472 1254 35.4119
25.1636 1339 36.5923
25.28 1262 35.5246
25.3965 1317 36.2905
25.513 1289 35.9026
25.6296 1324 36.3868
25.7462 1251 35.3695
25.8628 1266 35.5809
25.9795 1229 35.0571
26.0962 1252 35.3836
26.213 1235 35.1426
26.3298 1265 35.5668
26.4466 1313 36.2353
26.5635 1299 36.0416
26.6804 1381 37.1618
26.7973 1408 37.5233
26.9143 1429 37.8021
27.0313 1445 38.0132
27.1483 1400 37.4166
27.2653 1496 38.6782
27.3824 1442 37.9737
27.4996 1453 38.1182
27.6167 1353 36.7831
27.7339 1325 36.4005
27.8511 1336 36.5513
27.9683 1256 35.4401
28.0855 1242 35.242
28.2028 1221 34.9428
28.3201 1301 36.0694
28.4374 1281 35.7911
28.5547 1362 36.9053
28.6721 1300 36.0555
28.7894 1414 37.6032
28.9068 1350 36.7423
29.0242 1318 36.3043
29.1416 1266 35.5809
29.259 1251 35.3695
29.3764 1233 35.1141
29.4939 1282 35.805
29.6113 1291 35.9305
29.7288 1240 35.2136
29.8463 1232 35.0999
29.9638 1286 35.8608
30.0812 1316 36.2767
30.1987 1372 37.0405
30.3162 1435 37.8814
30.4337 1423 37.7227
30.5512 1436 37.8946
30.6687 1381 37.1618
30.7862 1570 39.6232
30.9037 1461 38.223
31.0212 1477 38.4318
31.1387 1514 38.9102
31.2562 1439 37.9342
31.3737 1372 37.0405
31.4912 1376 37.0945
31.6087 1319 36.318
31.7262 1268 35.609
31.8436 1300 36.0555
31.9611 1362 36.9053
32.0785 1330 36.4692
32.1959 1395 37.3497
32.3134 1501 38.7427
32.4308 1409 37.5366
32.5482 1448 38.0526
32.6655 1408 37.5233
32.7829 1254 35.4119
32.9002 1325 36.4005
33.0176 1284 35.8329
33.1349 1250 35.3553
33.2522 1312 36.2215
33.3694 1288 35.8887
33.4867 1277 35.7351
33.6039 1379 37.1349
33.7211 1365 36.9459
33.8383 1418 37.6563
33.9554 1518 38.9615
34.0725 1462 38.2361
34.1896 1518 38.9615
34.3067 1573 39.6611
34.4237 1554 39.4208
34.5407 1595 39.9375
34.6577 1539 39.2301
34.7746 1603 40.0375
34.8915 1421 37.6962
35.0084 1426 37.7624
35.1252 1419 37.6696
35.242 1377 37.108
35.3587 1417 37.6431
35.4755 1377 37.108
35.5921 1256 35.4401
35.7088 1404 37.47
35.8254 1518 38.9615
35.9419 1442 37.9737
36.0584 1444 38
36.1749 1490 38.6005
36.2913 1406 37.4967
36.4077 1381 37.1618
36.524 1423 37.7227
36.6403 1323 36.3731
36.7565 1339 36.5923
36.8727 1222 34.9571
36.9889 1307 36.1525
37.1049 1299 36.0416
37.221 0 1
37.3369 0 1
37.4529 0 1
37.5687 0 1
37.6845 0 1
37.8003 0 1
37.916 0 1
38.0316 0 1
38.1472 0 1
40.5851 0 1
40.7008 0 1
40.8164 0 1
40.9322 0 1
41.048 0 1
41.1639 0 1
41.2798 0 1
41.3958 0 1
41.5118 0 1
41.6279 0 1
41.744 1093 33.0606
41.8602 1091 33.0303
41.9765 1133 33.6601
42.0928 1137 33.7194
42.2091 1154 33.9706
42.3255 1206 34.7275
42.4419 1216 34.8712
42.5584 1340 36.606
42.675 1397 37.3765
42.7915 1398 37.3898
42.9081 1435 37.8814
43.0248 1446 38.0263
43.1415 1456 38.1576
43.2582 1370 37.0135
43.375 1518 38.9615
43.4918 1490 38.6005
43.6087 1393 37.3229
43.7256 1336 36.5513
43.8425 1363 36.9188
43.9595 1239 35.1994
44.0765 1271 35.6511
44.1935 1146 33.8526
44.3106 1165 34.1321
44.4277 1162 34.0881
44.5448 1215 34.8569
44.6619 1281 35.7911
44.7791 1261 35.5106
44.8963 1260 35.4965
45.0136 1251 35.3695
45.1308 1165 34.1321
45.2481 1091 33.0303
45.3654 1046 32.3419
45.4827 988 31.4325
45.6001 946 30.7571
45.7174 977 31.257
45.8348 965 31.0644
45.9522 1060 32.5576
46.0697 1113 33.3617
46.1871 1127 33.5708
46.3046 1168 34.176
46.422 1176 34.2929
46.5395 1156 34
46.657 1207 34.7419
46.7745 1226 35.0143
46.892 1182 34.3802
47.0096 1240 35.2136
47.1271 1178 34.322
47.2446 1175 34.2783
47.3622 1197 34.5977
47.4797 1129 33.6006
47.5973 1116 33.4066
47.7149 1028 32.0624
47.8324 978 31.273
47.95 1022 31.9687
48.0675 928 30.4631
48.1851 1025 32.0156
48.3027 1034 32.1559
48.4202 1063 32.6037
48.5378 1028 32.0624
48.6554 1033 32.1403
48.7729 867 29.4449
48.8904 887 29.7825
49.008 850 29.1548
49.1255 851 29.1719
49.243 836 28.9137
49.3605 895 29.9166
49.478 888 29.7993
49.5955 977 31.257
49.713 1041 32.2645
49.8304 978 31.273
49.9479 1000 31.6228
50.0653 1097 33.121
50.1827 1176 34.2929
50.3001 1140 33.7639
50.4175 1215 34.8569
50.5348 1221 34.9428
50.6521 1126 33.5559
50.7694 1136 33.7046
50.8867 1157 34.0147
51.004 1178 34.322
51.1212 1143 33.8083
51.2384 1193 34.5398
51.3556 1127 33.5708
51.4727 1157 34.0147
51.5899 1150 33.9116
51.707 1200 34.641
51.824 1239 35.1994
51.9411 1319 36.318
52.0581 1294 35.9722
52.175 1304 36.1109
52.2919 1282 35.805
52.4088 1161 34.0735
52.5257 1152 33.9411
52.6425 1189 34.4819
52.7593 1147 33.8674
52.876 1207 34.7419
52.9927 1170 34.2053
53.1094 1283 35.819
53.226 1366 36.9594
53.3426 1522 39.0128
53.4591 1552 39.3954
53.5756 1612 40.1497
53.692 1738 41.6893
53.8084 1627 40.3361
53.9248 1688 41.0853
54.0411 1772 42.0951
54.1573 1858 43.1045
54.2735 0 1
54.3896 0 1
54.5057 0 1
54.6217 0 1
54.7377 0 1
54.8537 0 1
54.9695 0 1
55.0853 0 1
55.2011 0 1
55.3168 0 1
55.4324 0 1
57.824 0 1
57.9396 0 1
58.0553 0 1
58.1711 0 1
58.2869 0 1
58.4028 0 1
58.5187 0 1
58.6347 0 1
58.7508 0 1
58.8669 0 1
58.983 2003 44.7549
59.0992 2132 46.1736
59.2155 2193 46.8295
59.3318 2189 46.7868
59.4482 2145 46.3141
59.5646 2117 46.0109
59.681 2007 44.7996
59.7975 2039 45.1553
59.9141 1955 44.2154
60.0306 1985 44.5533
60.1473 1942 44.0681
60.2639 1996 44.6766
60.3807 1968 44.3621
60.4974 2022 44.9667
60.6142 1937 44.0114
60.731 1942 44.0681
60.8479 1833 42.8135
60.9648 1724 41.5211
61.0818 1613 40.1622
61.1987 1584 39.7995
61.3158 1537 39.2046
61.4328 1587 39.8372
61.5499 1676 40.939
61.667 1655 40.6817
61.7841 1736 41.6653
61.9013 1826 42.7317
62.0185 1868 43.2204
62.1357 2024 44.9889
62.253 1993 44.643
62.3702 2039 45.1553
62.4875 2036 45.1221
62.6049 2081 45.618
62.7222 2022 44.9667
62.8396 2083 45.6399
62.9569 2096 45.7821
63.0743 2050 45.2769
63.1918 2002 44.7437
63.3092 2032 45.0777
63.4267 1875 43.3013
63.5441 1828 42.7551
63.6616 1786 42.2611
63.7791 1929 43.9204
63.8966 1804 42.4735
64.0142 1877 43.3244
64.1317 1857 43.0929
64.2492 1804 42.4735
64.3668 1735 41.6533
64.4843 1621 40.2616
64.6019 1650 40.6202
64.7195 1467 38.3014
64.837 1501 38.7427
64.9546 1471 38.3536
65.0722 1509 38.8458
65.1898 1559 39.4842
65.3074 1659 40.7308
65.4249 1779 42.1782
65.5425 1885 43.4166
65.6601 1947 44.1248
65.7777 1959 44.2606
65.8952 2129 46.1411
66.0128 2090 45.7165
66.1304 1960 44.2719
66.2479 2196 46.8615
66.3655 2188 46.7761
66.483 2077 45.5741
66.6005 2072 45.5192
66.718 2122 46.0652
66.8355 2026 45.0111
66.953 2052 45.299
67.0705 2040 45.1664
67.1879 1962 44.2945
67.3054 1984 44.5421
67.4228 1924 43.8634
67.5402 1952 44.1814
67.6576 2021 44.9555
67.7749 1955 44.2154
67.8923 2030 45.0555
68.0096 1905 43.6463
68.1269 1803 42.4617
68.2442 1604 40.05
68.3614 1629 40.3609
68.4787 1539 39.2301
68.5958 1514 38.9102
68.713 1651 40.6325
68.8302 1655 40.6817
68.9473 1848 42.9884
69.0643 1935 43.9886
69.1814 2112 45.9565
69.2984 2240 47.3286
69.4154 2356 48.5386
69.5323 2369 48.6724
69.6492 2475 49.7494
69.7661 2537 50.3686
69.8829 2557 50.5668
69.9997 2554 50.5371
70.1165 2474 49.7393
70.2332 2546 50.4579
70.3499 2501 50.01
70.4665 2502 50.02
70.5831 2568 50.6754
70.6996 2420 49.1935
70.8161 2490 49.8999
70.9326 2419 49.1833
71.049 2409 49.0816
71.1653 2425 49.2443
71.2817 2471 49.7092
71.3979 2424 49.2341
71.5141 2367 48.6518
71.6303 2080 45.607
71.7464 1854 43.0581
71.8624 0 1
71.9784 0 1
72.0944 0 1
72.2102 0 1
72.3261 0 1
72.4418 0 1
72.5575 0 1
72.6732 0 1
75.1054 0 1
75.2209 0 1
75.3365 0 1
75.4521 0 1
75.5678 0 1
75.6835 0 1
75.7993 0 1
75.9151 0 1
76.031 0 1
76.147 2364 48.621
76.263 2609 51.0784
76.3791 2655 51.5267
76.4952 2786 52.7826
76.6113 2812 53.0283
76.7276 2844 53.3292
76.8438 2711 52.0673
76.9601 2696 51.923
77.0765 2467 49.6689
77.1929 2300 47.9583
77.3093 2020 44.9444
77.4258 1915 43.7607
77.5423 1887 43.4396
77.6589 1891 43.4856
77.7755 2105 45.8803
77.8921 2180 46.6905
78.0088 2509 50.0899
78.1256 2586 50.8527
78.2423 2924 54.074
78.3591 2915 53.9907
78.4759 3114 55.8032
78.5928 3115 55.8122
78.7097 3178 56.3738
78.8266 2983 54.6168
78.9436 3214 56.6922
79.0606 3132 55.9643
79.1776 3120 55.857
79.2946 3071 55.4166
79.4117 3091 55.5968
79.5288 2953 54.3415
79.6459 2980 54.5894
79.7631 2929 54.1202
79.8802 2858 53.4603
79.9974 2788 52.8015
80.1147 2854 53.4228
80.2319 3051 55.2359
80.3491 2943 54.2494
80.4664 2930 54.1295
80.5837 2860 53.479
80.701 2628 51.264
80.8183 2458 49.5782
80.9357 2200 46.9042
81.053 2075 45.5522
81.1704 1947 44.1248
81.2877 1926 43.8862
81.4051 1982 44.5197
81.5225 2133 46.1844
81.6399 2431 49.3052
81.7573 2567 50.6656
81.8747 2743 52.3737
81.9922 2926 54.0925
82.1096 3039 55.1271
82.227 3124 55.8928
82.3444 3108 55.7494
82.4619 3064 55.3534
82.5793 3100 55.6776
82.6967 3064 55.3534
82.8142 3066 55.3715
82.9316 2940 54.2218
83.049 2957 54.3783
83.1664 2968 54.4794
83.2838 2930 54.1295
83.4012 2767 52.6023
83.5186 2804 52.9528
83.636 2799 52.9056
83.7534 2769 52.6213
83.8708 2761 52.5452
83.9881 2842 53.3104
84.1055 2795 52.8678
84.2228 2737 52.3163
84.3401 2574 50.7346
84.4575 2335 48.3218
84.5747 2186 46.7547
84.692 1963 44.3058
84.8093 1881 43.3705
84.9265 1884 43.4051
85.0437 2012 44.8553
85.1609 2205 46.9574
85.2781 2486 49.8598
85.3952 2671 51.6817
85.5123 2983 54.6168
85.6294 3195 56.5243
85.7465 3236 56.8859
85.8636 3354 57.9137
85.9806 3449 58.7282
86.0976 3473 58.9322
86.2145 3506 59.2115
86.3315 3699 60.8194
86.4484 3594 59.95
86.5652 3569 59.7411
86.682 3562 59.6825
86.7988 3561 59.6741
86.9156 3603 60.025
87.0323 3447 58.7112
87.149 3582 59.8498
87.2657 3539 59.4895
87.3823 3642 60.349
87.4988 3674 60.6135
87.6154 3864 62.1611
87.7318 3735 61.1146
87.8483 3549 59.5735
87.9647 3319 57.6108
88.081 3093 55.6147
88.1973 2757 52.5071
88.3136 2465 49.6488
88.4298 2530 50.2991
88.546 2601 51
88.6621 2882 53.6843
88.7781 3113 55.7943
88.8942 0 1
89.0101 0 1
89.126 0 1
89.2419 0 1
89.3577 0 1
89.4734 0 1
89.5891 0 1
89.7047 0 1
89.8203 0 1
89.9358 0 1
92.3269 0 1
92.4424 0 1
92.558 0 1
92.6736 0 1
92.7893 0 1
92.905 0 1
93.0208 0 1
93.1366 0 1
93.2525 0 1
93.3685 0 1
93.4845 0 1
93.6005 2976 54.5527
93.7167 2839 53.2823
93.8328 2817 53.0754
93.949 2919 54.0278
94.0653 3079 55.4887
94.1816 3513 59.2706
94.2979 3731 61.0819
94.4143 4000 63.2456
94.5307 4200 64.8074
94.6472 4492 67.0224
94.7637 4548 67.4389
94.8803 4768 69.0507
94.9969 4650 68.1909
95.1135 4825 69.4622
95.2302 4682 68.4251
95.3469 4611 67.9043
95.4637 4737 68.8259
95.5805 4723 68.7241
95.6973 4825 69.4622
95.8142 4715 68.6659
95.9311 4684 68.4398
96.048 4621 67.9779
96.1649 4542 67.3944
96.2819 4550 67.4537
96.3989 4546 67.424
96.516 4623 67.9926
96.633 4670 68.3374
96.7501 4652 68.2056
96.8673 4509 67.1491
96.9844 4336 65.8483
97.1016 3951 62.857
97.2188 3569 59.7411
97.336 3313 57.5587
97.4532 2930 54.1295
97.5704 2945 54.2679
97.6877 2971 54.5069
97.805 3261 57.1052
97.9223 3503 59.1861
98.0396 3786 61.5305
98.1569 4052 63.6553
98.2743 4352 65.9697
98.3916 4625 68.0074
98.509 4750 68.9202
98.6264 4994 70.6682
98.7438 4889 69.9214
98.8612 4811 69.3614
98.9786 4944 70.3136
99.096 4854 69.6707
99.2134 4858 69.6994
99.3308 4800 69.282
99.4482 4892 69.9428
99.5656 4804 69.3109
99.6831 4837 69.5485
99.8005 4659 68.2569
99.9179 4503 67.1044
100.035 4715 68.6659
100.153 4828 69.4838
100.27 4895 69.9643
100.388 4868 69.7711
100.505 4707 68.6076
100.622 4407 66.3852
100.74 4075 63.8357
100.857 3621 60.1747
100.975 3354 57.9137
101.092 3100 55.6776
101.209 3050 55.2268
101.327 3206 56.6216
101.444 3276 57.2364
101.561 3886 62.3378
101.679 4079 63.867
101.796 4661 68.2715
101.913 4746 68.8912
102.03 4875 69.8212
102.148 4996 70.6824
102.265 4997 70.6895
102.382 5218 72.2357
102.499 5082 71.2881
102.616 5179 71.9653
102.733 5110 71.4843
102.851 5043 71.0141
102.968 5100 71.4143
103.085 4999 70.7036
103.202 4877 69.8355
103.319 4956 70.3989
103.436 4908 70.0571
103.552 4852 69.6563
103.669 4885 69.8928
103.786 5010 70.7814
103.903 5168 71.8888
104.02 4921 70.1498
104.137 4744 68.8767
104.253 4337 65.8559
104.37 4083 63.8984
104.487 3648 60.3987
104.603 3433 58.5918
104.72 3318 57.6021
104.836 3483 59.0169
104.953 3649 60.407
105.069 3986 63.1348
105.186 4436 66.6033
105.302 4767 69.0435
105.418 5017 70.8308
105.535 5269 72.5879
105.651 5277 72.643
105.767 5405 73.5187
105.883 5437 73.736
105.999 5413 73.5731
106.115 0 1
106.231 0 1
106.347 0 1
106.463 0 1
106.579 0 1
106.694 0 1
106.81 0 1
106.926 0 1
107.041 0 1
107.157 0 1
109.576 0 1
109.692 0 1
109.807 0 1
109.923 0 1
110.039 0 1
110.155 0 1
110.27 0 1
110.386 0 1
110.502 0 1
110.618 4682 68.4251
110.735 4841 69.5773
110.851 4967 70.4769
110.967 5198 72.0972
111.083 5035 70.9577
111.199 5078 71.2601
111.316 5015 70.8167
111.432 5010 70.7814
111.549 4967 70.4769
111.665 4920 70.1427
111.782 4818 69.4118
111.898 4791 69.217
112.015 4757 68.971
112.132 4770 69.0652
112.248 4919 70.1356
112.365 4841 69.5773
112.482 4574 67.6314
112.599 4510 67.1565
112.716 4170 64.5755
112.832 3717 60.9672
112.949 3455 58.7792
113.066 3319 57.6108
113.183 3204 56.6039
113.3 3199 56.5597
113.417 3359 57.9569
113.534 3548 59.5651
113.652 3796 61.6117
113.769 3991 63.1744
113.886 4294 65.5286
114.003 4403 66.3551
114.12 4630 68.0441
114.238 4784 69.1665
114.355 4761 69
114.472 4657 68.2422
114.589 4770 69.0652
114.707 4517 67.2086
114.824 4540 67.3795
114.942 4562 67.5426
115.059 4705 68.593
115.176 4735 68.8113
115.294 4584 67.7052
115.411 4506 67.1267
115.529 4445 66.6708
115.646 4562 67.5426
115.764 4515 67.1937
115.881 4697 68.5347
115.999 4583 67.6979
116.116 4469 66.8506
116.234 4184 64.6838
116.351 3793 61.5873
116.469 3780 61.4817
116.586 3416 58.4466
116.704 3114 55.8032
116.821 3055 55.2721
116.939 3082 55.5158
117.056 3258 57.0789
117.174 3397 58.2838
117.291 3695 60.7865
117.409 3952 62.8649
117.526 4179 64.6452
117.644 4458 66.7683
117.761 4524 67.2607
117.879 4464 66.8132
117.996 4516 67.2012
118.114 4413 66.4304
118.231 4402 66.3476
118.349 4440 66.6333
118.466 4447 66.6858
118.584 4576 67.6461
118.701 4527 67.283
118.819 4379 66.174
118.936 4381 66.1891
119.053 4305 65.6125
119.171 4262 65.284
119.288 4294 65.5286
119.405 4317 65.7039
119.523 4301 65.582
119.64 4406 66.3777
119.757 4304 65.6049
119.875 4016 63.3719
119.992 3854 62.0806
120.109 3556 59.6322
120.226 3383 58.1636
120.343 3115 55.8122
120.46 3016 54.9181
120.578 3031 55.0545
120.695 3023 54.9818
120.812 3208 56.6392
120.929 3473 58.9322
121.046 3561 59.6741
121.163 3771 61.4085
121.279 4052 63.6553
121.396 4225 65
121.513 4345 65.9166
121.63 4472 66.873
121.747 4241 65.123
121.863 4370 66.106
121.98 4284 65.4523
122.097 4216 64.9307
122.213 4195 64.7688
122.33 4151 64.4283
122.446 4251 65.1997
122.563 4167 64.5523
122.679 4039 63.5531
122.795 4007 63.3009
122.912 3961 62.9365
123.028 3991 63.1744
123.144 4037 63.5374
123.26 4043 63.5846
123.377 0 1
123.493 0 1
123.609 0 1
123.725 0 1
123.84 0 1
123.956 0 1
124.072 0 1
124.188 0 1
124.303 0 1
124.419 0 1
126.852 0 1
126.968 0 1
127.083 0 1
127.199 0 1
127.315 0 1
127.431 0 1
127.547 0 1
127.663 0 1
127.779 0 1
127.895 0 1
128.011 0 1
128.127 0 1
128.243 0 1
128.359 4401 66.34
128.476 4297 65.5515
128.592 4341 65.8863
128.708 4304 65.6049
128.825 4140 64.3428
128.941 3932 62.7057
129.058 3670 60.5805
129.174 3409 58.3866
129.291 3345 57.836
129.408 3394 58.258
129.524 3307 57.5065
129.641 3537 59.4727
129.758 3537 59.4727
129.875 3820 61.8061
129.992 4017 63.3798
130.108 4097 64.0078
130.225 4164 64.5291
130.342 4316 65.6963
130.459 4240 65.1153
130.576 4452 66.7233
130.693 4334 65.8331
130.81 4248 65.1767
130.928 4150 64.4205
131.045 4073 63.8201
131.162 4341 65.8863
131.279 4317 65.7039
131.396 4275 65.3835
131.513 4096 64
131.631 4214 64.9153
131.748 4161 64.5058
131.865 4243 65.1383
131.983 4307 65.6277
132.1 4315 65.6887
132.217 4212 64.8999
132.335 4048 63.6239
132.452 3957 62.9047
132.57 3691 60.7536
132.687 3358 57.9483
132.804 3372 58.0689
132.922 3211 56.6657
133.039 3204 56.6039
133.157 3247 56.9825
133.274 3399 58.3009
133.392 3576 59.7997
133.509 3879 62.2816
133.627 3819 61.7981
133.744 3963 62.9524
133.862 4021 63.4114
133.979 4089 63.9453
134.097 4064 63.7495
134.214 4064 63.7495
134.332 4087 63.9296
134.449 3993 63.1902
134.567 4023 63.4271
134.684 3912 62.546
134.802 4195 64.7688
134.919 4136 64.3117
135.037 3956 62.8967
135.154 4075 63.8357
135.272 3976 63.0555
135.389 4040 63.561
135.507 4058 63.7024
135.624 4123 64.2106
135.742 4035 63.5216
135.859 3928 62.6738
135.977 3782 61.498
136.094 3560 59.6657
136.211 3599 59.9917
136.329 3385 58.1808
136.446 3289 57.3498
136.564 3265 57.1402
136.681 3196 56.5332
136.798 3343 57.8187
136.915 3264 57.1314
137.033 3471 58.9152
137.15 3532 59.4306
137.267 3742 61.1719
137.384 3835 61.9274
137.502 3898 62.434
137.619 3834 61.9193
137.736 3890 62.3699
137.853 3833 61.9112
137.97 3950 62.849
138.087 3738 61.1392
138.204 3623 60.1914
138.321 3859 62.1208
138.438 3774 61.4329
138.555 3843 61.9919
138.672 3897 62.426
138.788 3782 61.498
138.905 3876 62.2575
139.022 4001 63.2535
139.139 3943 62.7933
139.255 3975 63.0476
139.372 3801 61.6523
139.488 3975 63.0476
139.605 3656 60.4649
139.721 3682 60.6795
139.838 3563 59.6909
139.954 3367 58.0259
140.071 3115 55.8122
140.187 3265 57.1402
140.303 3125 55.9017
140.419 3083 55.5248
140.535 3088 55.5698
140.652 3207 56.6304
140.768 0 1
140.884 0 1
141 0 1
141.115 0 1
141.231 0 1
141.347 0 1
141.463 0 1
141.578 0 1
141.694 0 1
144.104 0 1
144.219 0 1
144.335 0 1
144.45 0 1
144.566 0 1
144.682 0 1
144.798 0 1
144.914 0 1
145.03 0 1
145.146 2217 47.085
145.262 2469 49.689
145.378 2374 48.7237
145.494 2443 49.4267
145.61 2597 50.9608
145.726 2680 51.7687
145.842 2697 51.9326
145.959 2747 52.4118
146.075 2763 52.5642
146.192 2903 53.8795
146.308 2961 54.4151
146.425 2830 53.1977
146.541 2914 53.9815
146.658 2847 53.3573
146.774 2747 52.4118
146.891 2737 52.3163
147.008 2880 53.6656
147.125 2792 52.8394
147.241 2957 54.3783
147.358 2985 54.6352
147.475 2999 54.7631
147.592 3027 55.0182
147.709 2958 54.3875
147.826 2968 54.4794
147.943 2944 54.2586
148.06 2984 54.626
148.177 2956 54.3691
148.294 2996 54.7357
148.411 2962 54.4243
148.528 2852 53.4041
148.645 2738 52.3259
148.762 2673 51.7011
148.88 2675 51.7204
148.997 2560 50.5964
149.114 2593 50.9215
149.231 2591 50.9019
149.349 2573 50.7247
149.466 2622 51.2055
149.583 2743 52.3737
149.701 2807 52.9811
149.818 2960 54.4059
149.935 2918 54.0185
150.053 2985 54.6352
150.17 3058 55.2992
150.287 2908 53.9259
150.405 2879 53.6563
150.522 2905 53.8981
150.64 2762 52.5547
150.757 2878 53.647
150.875 2809 53
150.992 2949 54.3047
151.11 3146 56.0892
151.227 3013 54.8908
151.344 2885 53.7122
151.462 2994 54.7175
151.579 3060 55.3173
151.697 3057 55.2901
151.814 3057 55.2901
151.932 2958 54.3875
152.049 2802 52.9339
152.167 2865 53.5257
152.284 2909 53.9351
152.402 2700 51.9615
152.519 2694 51.9038
152.636 2631 51.2933
152.754 2810 53.0094
152.871 2641 51.3907
152.989 2676 51.7301
153.106 2638 51.3615
153.223 2749 52.4309
153.341 2866 53.535
153.458 2861 53.4883
153.575 3029 55.0364
153.693 2898 53.8331
153.81 3062 55.3353
153.927 2867 53.5444
154.044 3000 54.7723
154.162 2757 52.5071
154.279 2808 52.9906
154.396 3003 54.7996
154.513 2994 54.7175
154.63 3060 55.3173
154.747 3089 55.5788
154.864 3030 55.0454
154.981 3145 56.0803
155.098 3191 56.4889
155.215 3014 54.8999
155.332 3044 55.1725
155.449 3035 55.0908
155.566 3114 55.8032
155.683 2926 54.0925
155.8 2947 54.2863
155.917 2967 54.4702
156.033 2842 53.3104
156.15 0 1
156.267 0 1
156.383 0 1
156.5 0 1
156.617 0 1
156.733 0 1
156.85 0 1
156.966 0 1
157.082 0 1
157.199 0 1
157.315 0 1
157.431 0 1
157.547 0 1
157.664 0 1
157.78 0 1
157.896 0 1
158.012 0 1
158.128 0 1
158.244 0 1
158.359 0 1
158.475 0 1
158.591 0 1
158.706 0 1
