
6.15755 0 1
6.2731 0 1
6.3887 0 1
6.50437 0 1
6.62009 0 1
6.73587 0 1
6.8517 0 1
6.96759 0 1
7.08353 0 1
7.19952 0 1
7.31557 0 1
7.43166 0 1
7.54781 0 1
7.664 0 1
7.78024 0 1
7.89653 0 1
8.01286 0 1
8.12924 0 1
8.24567 0 1
8.36213 0 1
8.47864 0 1
8.59519 0 1
8.71178 0 1
8.82841 0 1
8.94508 0 1
9.06179 0 1
9.17853 0 1
9.29531 0 1
9.41212 0 1
9.52897 0 1
9.64584 0 1
9.76276 0 1
9.8797 0 1
9.99667 0 1
10.1137 0 1
10.2307 0 1
10.3478 0 1
10.4648 0 1
10.5819 0 1
10.6991 0 1
10.8162 0 1
10.9334 0 1
11.0506 0 1
11.1678 0 1
11.285 0 1
11.4023 0 1
11.5196 0 1
11.6369 0 1
11.7542 0 1
11.8715 0 1
11.9888 0 1
12.1062 0 1
12.2235 0 1
12.3409 0 1
12.4582 0 1
12.5756 0 1
12.693 0 1
12.8104 0 1
12.9278 0 1
13.0452 0 1
13.1626 0 1
13.28 0 1
13.3974 0 1
13.5149 0 1
13.6323 0 1
13.7497 0 1
13.8671 0 1
13.9845 0 1
14.1019 0 1
14.2193 0 1
14.3367 0 1
14.4541 0 1
14.5714 0 1
14.6888 0 1
14.8062 0 1
14.9235 0 1
15.0408 0 0
15.1581 0 0
15.2755 0 0
15.3927 0 0
15.51 0 0
15.6273 0 0
15.7445 0 0
15.8617 0 0
15.9789 0 0
16.0961 0 0
16.2132 0 0
16.3304 0 0
16.4475 0 0
16.5646 0 0
16.6816 0 0
16.7986 0 0
16.9156 0 0
17.0326 0 0
17.1496 0 0
17.2665 0 0
17.3833 0 0
17.5002 0 0
17.617 0 0
17.7338 0 0
17.8505 0 0
17.9672 0 0
18.0839 0 0
18.2005 0 0
18.3171 0 0
18.4337 0 0
18.5502 0 0
18.6666 0 0
18.7831 0 0
18.8994 0 0
19.0158 0 0
19.1321 0 0
19.2483 0 0
19.3645 0 0
19.4806 0 0
19.5967 0 0
19.7128 0 0
19.8288 0 0
19.9447 0 0
20.0606 0 1
20.1764 0 1
20.2922 0 1
20.4079 0 1
20.5236 0 1
20.6392 0 1
20.7548 0 1
20.8702 0 1
23.3078 0 1
23.4233 0 1
23.539 0 1
23.6547 0 1
23.7704 0 1
23.8862 0 1
24.0021 0 1
24.118 0 1
24.234 0 1
24.35 0 1
24.4661 9785 98.9192
24.5822 9820 99.0959
24.6984 9902 99.5088
24.8146 9738 98.6813
24.9309 9466 97.2934
25.0472 9341 96.6488
25.1636 9320 96.5401
25.28 9680 98.387
25.3965 9785 98.9192
25.513 10025 100.125
25.6296 10226 101.124
25.7462 10336 101.666
25.8628 10400 101.98
25.9795 10363 101.799
26.0962 10226 101.124
26.213 10332 101.646
26.3298 9909 99.544
26.4466 9671 98.3412
26.5635 9317 96.5246
26.6804 9426 97.0876
26.7973 9667 98.3209
26.9143 9818 99.0858
27.0313 9973 99.8649
27.1483 10454 102.245
27.2653 10476 102.352
27.3824 10495 102.445
27.4996 10642 103.16
27.6167 10564 102.781
27.7339 10390 101.931
27.8511 10175 100.871
27.9683 10149 100.742
28.0855 9782 98.904
28.2028 9605 98.0051
28.3201 9268 96.2705
28.4374 9007 94.9052
28.5547 8831 93.9734
28.6721 8518 92.293
28.7894 8777 93.6856
28.9068 8932 94.5093
29.0242 8751 93.5468
29.1416 9130 95.551
29.259 9117 95.483
29.3764 9117 95.483
29.4939 9007 94.9052
29.6113 9273 96.2964
29.7288 9220 96.0208
29.8463 8957 94.6414
29.9638 8651 93.0108
30.0812 8578 92.6175
30.1987 8665 93.086
30.3162 8746 93.5201
30.4337 9044 95.0999
30.5512 9336 96.623
30.6687 9492 97.4269
30.7862 9705 98.514
30.9037 9904 99.5188
31.0212 10011 100.055
31.1387 10110 100.548
31.2562 9962 99.8098
31.3737 9717 98.5748
31.4912 9512 97.5295
31.6087 9418 97.0464
31.7262 9262 96.2393
31.8436 9084 95.31
31.9611 8850 94.0744
32.0785 8611 92.7955
32.1959 8451 91.9293
32.3134 8305 91.1318
32.4308 8545 92.4392
32.5482 8631 92.9032
32.6655 8713 93.3435
32.7829 8667 93.0967
32.9002 8632 92.9086
33.0176 8707 93.3113
33.1349 8810 93.8616
33.2522 8709 93.322
33.3694 8797 93.7923
33.4867 8507 92.2334
33.6039 8574 92.5959
33.7211 8296 91.0824
33.8383 8206 90.587
33.9554 8511 92.2551
34.0725 8824 93.9361
34.1896 9005 94.8947
34.3067 9274 96.3016
34.4237 9551 97.7292
34.5407 9500 97.4679
34.6577 9730 98.6408
34.7746 9787 98.9293
34.8915 9701 98.4937
35.0084 9439 97.1545
35.1252 9421 97.0618
35.242 9383 96.8659
35.3587 9318 96.5298
35.4755 8836 94
35.5921 8664 93.0806
35.7088 8573 92.5905
35.8254 8324 91.236
35.9419 8155 90.305
36.0584 8139 90.2164
36.1749 8162 90.3438
36.2913 8279 90.989
36.4077 8190 90.4986
36.524 8367 91.4713
36.6403 8498 92.1846
36.7565 8489 92.1358
36.8727 8380 91.5423
36.9889 8489 92.1358
37.1049 8238 90.7634
37.221 0 1
37.3369 0 1
37.4529 0 1
37.5687 0 1
37.6845 0 1
37.8003 0 1
37.916 0 1
38.0316 0 1
38.1472 0 1
40.5851 0 1
40.7008 0 1
40.8164 0 1
40.9322 0 1
41.048 0 1
41.1639 0 1
41.2798 0 1
41.3958 0 1
41.5118 0 1
41.6279 0 1
41.744 6765 82.2496
41.8602 7083 84.1606
41.9765 7119 84.3742
42.0928 7198 84.841
42.2091 7237 85.0706
42.3255 6889 83
42.4419 6747 82.1401
42.5584 6803 82.4803
42.675 6714 81.939
42.7915 7016 83.7616
42.9081 7302 85.4517
43.0248 7747 88.017
43.1415 7715 87.8351
43.2582 7999 89.4371
43.375 8146 90.2552
43.4918 8246 90.8075
43.6087 8058 89.7664
43.7256 7904 88.9044
43.8425 7750 88.0341
43.9595 7793 88.278
44.0765 7921 89
44.1935 7512 86.6718
44.3106 7224 84.9941
44.4277 7090 84.2021
44.5448 6529 80.8022
44.6619 6289 79.3032
44.7791 6433 80.206
44.8963 6303 79.3914
45.0136 6303 79.3914
45.1308 6506 80.6598
45.2481 6324 79.5236
45.3654 6203 78.7591
45.4827 6523 80.7651
45.6001 6574 81.0802
45.7174 6293 79.3284
45.8348 6367 79.7935
45.9522 5962 77.214
46.0697 5817 76.2693
46.1871 5783 76.046
46.3046 5913 76.896
46.422 6125 78.2624
46.5395 6262 79.1328
46.657 6469 80.4301
46.7745 6502 80.635
46.892 6691 81.7985
47.0096 6612 81.3142
47.1271 6784 82.365
47.2446 6749 82.1523
47.3622 6469 80.4301
47.4797 6397 79.9812
47.5973 6323 79.5173
47.7149 6209 78.7972
47.8324 5939 77.0649
47.95 5640 75.0999
48.0675 5292 72.7461
48.1851 5099 71.4073
48.3027 5104 71.4423
48.4202 5078 71.2601
48.5378 5009 70.7743
48.6554 5232 72.3326
48.7729 5114 71.5122
48.8904 5367 73.2598
49.008 5474 73.9865
49.1255 5446 73.797
49.243 5350 73.1437
49.3605 5225 72.2842
49.478 4996 70.6824
49.5955 5024 70.8802
49.713 5051 71.0704
49.8304 5218 72.2357
49.9479 5613 74.92
50.0653 6017 77.5693
50.1827 6114 78.1921
50.3001 6646 81.523
50.4175 6846 82.7406
50.5348 6937 83.2887
50.6521 7239 85.0823
50.7694 7189 84.788
50.8867 7372 85.8604
51.004 7685 87.6641
51.1212 7776 88.1816
51.2384 8010 89.4986
51.3556 7642 87.4185
51.4727 7184 84.7585
51.5899 6972 83.4985
51.707 6794 82.4257
51.824 6773 82.2982
51.9411 6837 82.6862
52.0581 6916 83.1625
52.175 7234 85.0529
52.2919 7138 84.4867
52.4088 7279 85.3171
52.5257 7455 86.3423
52.6425 7461 86.3771
52.7593 7722 87.8749
52.876 7604 87.2009
52.9927 7546 86.8677
53.1094 7244 85.1117
53.226 7167 84.6581
53.3426 7258 85.1939
53.4591 7683 87.6527
53.5756 8280 90.9945
53.692 8626 92.8763
53.8084 8951 94.6097
53.9248 9174 95.781
54.0411 9545 97.6985
54.1573 9854 99.2673
54.2735 0 1
54.3896 0 1
54.5057 0 1
54.6217 0 1
54.7377 0 1
54.8537 0 1
54.9695 0 1
55.0853 0 1
55.2011 0 1
55.3168 0 1
55.4324 0 1
57.824 0 1
57.9396 0 1
58.0553 0 1
58.1711 0 1
58.2869 0 1
58.4028 0 1
58.5187 0 1
58.6347 0 1
58.7508 0 1
58.8669 0 1
58.983 10480 102.372
59.0992 10999 104.876
59.2155 11302 106.311
59.3318 11474 107.117
59.4482 11637 107.875
59.5646 11974 109.426
59.681 12045 109.75
59.7975 11658 107.972
59.9141 11158 105.631
60.0306 10747 103.668
60.1473 9918 99.5892
60.2639 9434 97.1288
60.3807 9029 95.0211
60.4974 8846 94.0532
60.6142 8958 94.6467
60.731 8740 93.488
60.8479 8889 94.2815
60.9648 9098 95.3834
61.0818 9237 96.1093
61.1987 9443 97.1751
61.3158 9563 97.7906
61.4328 9073 95.2523
61.5499 8740 93.488
61.667 8458 91.9674
61.7841 8260 90.8845
61.9013 8629 92.8924
62.0185 8666 93.0914
62.1357 9184 95.8332
62.253 9567 97.811
62.3702 9882 99.4082
62.4875 10243 101.208
62.6049 10785 103.851
62.7222 11222 105.934
62.8396 11195 105.806
62.9569 11167 105.674
63.0743 11340 106.489
63.1918 11322 106.405
63.3092 10949 104.637
63.4267 10559 102.757
63.5441 10055 100.275
63.6616 9257 96.2133
63.7791 8857 94.1116
63.8966 8301 91.1098
64.0142 8167 90.3715
64.1317 8040 89.666
64.2492 7983 89.3476
64.3668 8340 91.3236
64.4843 8183 90.4599
64.6019 8569 92.5689
64.7195 8682 93.1773
64.837 8685 93.1933
64.9546 8611 92.7955
65.0722 8233 90.7359
65.1898 7980 89.3308
65.3074 7826 88.4647
65.4249 7757 88.0738
65.5425 7942 89.1179
65.6601 8342 91.3345
65.7777 8659 93.0537
65.8952 9321 96.5453
66.0128 9506 97.4987
66.1304 10093 100.464
66.2479 10475 102.347
66.3655 10722 103.547
66.483 10831 104.072
66.6005 10856 104.192
66.718 10958 104.68
66.8355 10794 103.894
66.953 10506 102.499
67.0705 10047 100.235
67.1879 9500 97.4679
67.3054 8936 94.5304
67.4228 8005 89.4707
67.5402 7630 87.3499
67.6576 7519 86.7122
67.7749 7426 86.1742
67.8923 7826 88.4647
68.0096 8063 89.7942
68.1269 8413 91.7224
68.2442 8738 93.4773
68.3614 8890 94.2868
68.4787 8944 94.5727
68.5958 9010 94.921
68.713 8517 92.2876
68.8302 8101 90.0056
68.9473 7913 88.955
69.0643 7825 88.459
69.1814 8014 89.5209
69.2984 8312 91.1702
69.4154 8990 94.8156
69.5323 9521 97.5756
69.6492 10015 100.075
69.7661 10565 102.786
69.8829 10911 104.456
69.9997 11236 106
70.1165 11565 107.541
70.2332 11640 107.889
70.3499 11457 107.037
70.4665 11474 107.117
70.5831 10977 104.771
70.6996 10153 100.762
70.8161 9723 98.6053
70.9326 9117 95.483
71.049 8454 91.9456
71.1653 7975 89.3029
71.2817 7666 87.5557
71.3979 7579 87.0575
71.5141 7523 86.7352
71.6303 7841 88.5494
71.7464 7631 87.3556
71.8624 0 1
71.9784 0 1
72.0944 0 1
72.2102 0 1
72.3261 0 1
72.4418 0 1
72.5575 0 1
72.6732 0 1
75.1054 0 1
75.2209 0 1
75.3365 0 1
75.4521 0 1
75.5678 0 1
75.6835 0 1
75.7993 0 1
75.9151 0 1
76.031 0 1
76.147 9245 96.1509
76.263 9284 96.3535
76.3791 8971 94.7154
76.4952 8181 90.4489
76.6113 8108 90.0444
76.7276 8238 90.7634
76.8438 8392 91.6079
76.9601 8633 92.9139
77.0765 9247 96.1613
77.1929 9259 96.2237
77.3093 9786 98.9242
77.4258 10120 100.598
77.5423 10067 100.334
77.6589 9539 97.6678
77.7755 8864 94.1488
77.8921 8590 92.6823
78.0088 8191 90.5041
78.1256 7956 89.1964
78.2423 8002 89.4539
78.3591 8617 92.8278
78.4759 8981 94.7681
78.5928 9847 99.2321
78.7097 10475 102.347
78.8266 11481 107.149
78.9436 10932 104.556
79.0606 11571 107.569
79.1776 11720 108.259
79.2946 11798 108.619
79.4117 11596 107.685
79.5288 11757 108.43
79.6459 11099 105.352
79.7631 10623 103.068
79.8802 9592 97.9388
79.9974 9074 95.2575
80.1147 8443 91.8858
80.2319 7919 88.9888
80.3491 7729 87.9147
80.4664 8014 89.5209
80.5837 8337 91.3072
80.701 8577 92.6121
80.8183 8578 92.6175
80.9357 9115 95.4725
81.053 9582 97.8877
81.1704 9577 97.8621
81.2877 9137 95.5877
81.4051 8699 93.2684
81.5225 8130 90.1665
81.6399 7648 87.4528
81.7573 7653 87.4814
81.8747 7431 86.2032
81.9922 7749 88.0284
82.1096 8739 93.4826
82.227 9115 95.4725
82.3444 9532 97.632
82.4619 10195 100.97
82.5793 10301 101.494
82.6967 10966 104.719
82.8142 11030 105.024
82.9316 11145 105.57
83.049 10759 103.726
83.1664 10404 102
83.2838 10021 100.105
83.4012 9426 97.0876
83.5186 8646 92.9839
83.636 8173 90.4046
83.7534 7548 86.8792
83.8708 7099 84.2556
83.9881 6879 82.9397
84.1055 7171 84.6818
84.2228 7395 85.9942
84.3401 7800 88.3176
84.4575 8317 91.1976
84.5747 8799 93.803
84.692 9135 95.5772
84.8093 9145 95.6295
84.9265 8454 91.9456
85.0437 7819 88.4251
85.1609 7393 85.9826
85.2781 7161 84.6227
85.3952 7184 84.7585
85.5123 7478 86.4754
85.6294 7960 89.2188
85.7465 8870 94.1807
85.8636 9318 96.5298
85.9806 9942 99.7096
86.0976 10469 102.318
86.2145 11131 105.504
86.3315 11189 105.778
86.4484 12050 109.772
86.5652 11802 108.637
86.682 11755 108.42
86.7988 11341 106.494
86.9156 10714 103.508
87.0323 9959 99.7948
87.149 9587 97.9132
87.2657 8895 94.3133
87.3823 8208 90.598
87.4988 8191 90.5041
87.6154 8055 89.7497
87.7318 8511 92.2551
87.8483 8969 94.7048
87.9647 9411 97.0103
88.081 9991 99.955
88.1973 10574 102.83
88.3136 10751 103.687
88.4298 10317 101.573
88.546 9275 96.3068
88.6621 8681 93.1719
88.7781 8187 90.482
88.8942 0 1
89.0101 0 1
89.126 0 1
89.2419 0 1
89.3577 0 1
89.4734 0 1
89.5891 0 1
89.7047 0 1
89.8203 0 1
89.9358 0 1
92.3269 0 1
92.4424 0 1
92.558 0 1
92.6736 0 1
92.7893 0 1
92.905 0 1
93.0208 0 1
93.1366 0 1
93.2525 0 1
93.3685 0 1
93.4845 0 1
93.6005 14972 122.36
93.7167 15643 125.072
93.8328 16253 127.487
93.949 16447 128.246
94.0653 15857 125.925
94.1816 15906 126.119
94.2979 15892 126.063
94.4143 16556 128.67
94.5307 16924 130.092
94.6472 18223 134.993
94.7637 19854 140.904
94.8803 22128 148.755
94.9969 23588 153.584
95.1135 25734 160.418
95.2302 27191 164.897
95.3469 28359 168.401
95.4637 29766 172.528
95.5805 30774 175.425
95.6973 31731 178.132
95.8142 32222 179.505
95.9311 32496 180.266
96.048 32520 180.333
96.1649 31643 177.885
96.2819 31055 176.224
96.3989 29844 172.754
96.516 28244 168.06
96.633 26568 162.997
96.7501 27022 164.384
96.8673 28090 167.601
96.9844 30639 175.04
97.1016 32910 181.411
97.2188 34147 184.789
97.336 36009 189.76
97.4532 35798 189.204
97.5704 34982 187.035
97.6877 34011 184.421
97.805 31240 176.748
97.9223 29118 170.64
98.0396 27342 165.354
98.1569 26757 163.576
98.2743 26627 163.178
98.3916 28078 167.565
98.509 30612 174.963
98.6264 32228 179.522
98.7438 33152 182.077
98.8612 34975 187.016
98.9786 35669 188.862
99.096 36467 190.963
99.2134 37132 192.697
99.3308 37215 192.912
99.4482 37269 193.052
99.5656 37118 192.66
99.6831 36451 190.921
99.8005 35058 187.238
99.9179 33216 182.253
100.035 31579 177.705
100.153 29593 172.026
100.27 28161 167.812
100.388 28419 168.579
100.505 30313 174.106
100.622 32607 180.574
100.74 33766 183.755
100.857 34316 185.246
100.975 34811 186.577
101.092 34675 186.212
101.209 34071 184.583
101.327 32135 179.262
101.444 29477 171.689
101.561 27088 164.584
101.679 25738 160.431
101.796 24837 157.598
101.913 24995 158.098
102.03 27090 164.59
102.148 28826 169.782
102.265 31654 177.916
102.382 29522 171.82
102.499 31629 177.845
102.616 31851 178.468
102.733 31187 176.598
102.851 31159 176.519
102.968 30765 175.4
103.085 29433 171.56
103.202 27794 166.715
103.319 26116 161.604
103.436 24077 155.168
103.552 22665 150.549
103.669 19935 141.191
103.786 18323 135.362
103.903 17684 132.981
104.02 17935 133.922
104.137 18219 134.978
104.253 18416 135.706
104.37 17665 132.91
104.487 17944 133.955
104.603 17086 130.713
104.72 15901 126.099
104.836 14431 120.129
104.953 12642 112.437
105.069 11750 108.397
105.186 11193 105.797
105.302 10690 103.392
105.418 11160 105.641
105.535 11976 109.435
105.651 12514 111.866
105.767 13422 115.853
105.883 13763 117.316
105.999 14306 119.608
106.115 0 1
106.231 0 1
106.347 0 1
106.463 0 1
106.579 0 1
106.694 0 1
106.81 0 1
106.926 0 1
107.041 0 1
107.157 0 1
109.576 0 1
109.692 0 1
109.807 0 1
109.923 0 1
110.039 0 1
110.155 0 1
110.27 0 1
110.386 0 1
110.502 0 1
110.618 10179 100.891
110.735 11234 105.991
110.851 12222 110.553
110.967 12881 113.494
111.083 13148 114.665
111.199 13190 114.848
111.316 13138 114.621
111.432 13448 115.966
111.549 13238 115.057
111.665 12980 113.93
111.782 12290 110.86
111.898 11633 107.856
112.015 10757 103.716
112.132 10236 101.173
112.248 9433 97.1236
112.365 9179 95.8071
112.482 9265 96.2549
112.599 9301 96.4417
112.716 9693 98.453
112.832 9953 99.7647
112.949 9938 99.6895
113.066 10240 101.193
113.183 9939 99.6945
113.3 9532 97.632
113.417 8790 93.755
113.534 8354 91.4002
113.652 8346 91.3564
113.769 8270 90.9395
113.886 8137 90.2053
114.003 8782 93.7123
114.12 9632 98.1428
114.238 10336 101.666
114.355 10967 104.723
114.472 11629 107.838
114.589 11868 108.94
114.707 12039 109.722
114.824 12034 109.7
114.942 12241 110.639
115.059 12186 110.39
115.176 11806 108.655
115.294 11481 107.149
115.411 11036 105.052
115.529 10593 102.922
115.646 10028 100.14
115.764 9382 96.8607
115.881 9107 95.4306
115.999 9029 95.0211
116.116 9114 95.4673
116.234 9483 97.3807
116.351 9643 98.1988
116.469 9786 98.9242
116.586 10218 101.084
116.704 10208 101.035
116.821 9948 99.7397
116.939 9527 97.6064
117.056 8888 94.2762
117.174 8742 93.4987
117.291 8564 92.5419
117.409 8652 93.0161
117.526 9010 94.921
117.644 9896 99.4786
117.761 10625 103.078
117.879 11159 105.636
117.996 11789 108.577
118.114 12220 110.544
118.231 12730 112.827
118.349 12333 111.054
118.466 12634 112.401
118.584 12901 113.583
118.701 12613 112.308
118.819 12602 112.259
118.936 12150 110.227
119.053 11511 107.289
119.171 11034 105.043
119.288 10547 102.699
119.405 10083 100.414
119.523 9419 97.0515
119.64 9479 97.3602
119.757 9641 98.1886
119.875 9755 98.7674
119.992 10115 100.573
120.109 10209 101.04
120.226 10256 101.272
120.343 10186 100.926
120.46 10020 100.1
120.578 9583 97.8928
120.695 9113 95.462
120.812 8969 94.7048
120.929 9060 95.184
121.046 9146 95.6347
121.163 9138 95.5929
121.279 9528 97.6115
121.396 10386 101.912
121.513 11123 105.466
121.63 11601 107.708
121.747 11887 109.028
121.863 12617 112.325
121.98 12461 111.629
122.097 12511 111.853
122.213 12640 112.428
122.33 12804 113.155
122.446 12400 111.355
122.563 12049 109.768
122.679 11786 108.563
122.795 11208 105.868
122.912 11375 106.654
123.028 10555 102.738
123.144 10004 100.02
123.26 9637 98.1682
123.377 0 1
123.493 0 1
123.609 0 1
123.725 0 1
123.84 0 1
123.956 0 1
124.072 0 1
124.188 0 1
124.303 0 1
124.419 0 1
126.852 0 1
126.968 0 1
127.083 0 1
127.199 0 1
127.315 0 1
127.431 0 1
127.547 0 1
127.663 0 1
127.779 0 1
127.895 0 1
128.011 0 1
128.127 0 1
128.243 0 1
128.359 11599 107.699
128.476 11394 106.743
128.592 11084 105.281
128.708 11252 106.075
128.825 11641 107.893
128.941 11676 108.056
129.058 12081 109.914
129.174 11930 109.225
129.291 11768 108.48
129.408 11383 106.691
129.524 11108 105.394
129.641 10887 104.341
129.758 10494 102.44
129.875 10460 102.274
129.992 10464 102.294
130.108 10586 102.888
130.225 11045 105.095
130.342 11939 109.266
130.459 12032 109.69
130.576 12984 113.947
130.693 13243 115.078
130.81 13278 115.23
130.928 13607 116.649
131.045 13266 115.178
131.162 13567 116.477
131.279 13400 115.758
131.396 13342 115.508
131.513 12961 113.846
131.631 12674 112.579
131.748 12328 111.032
131.865 11707 108.199
131.983 11201 105.835
132.1 10994 104.852
132.217 11113 105.418
132.335 11374 106.649
132.452 11623 107.81
132.57 11637 107.875
132.687 11284 106.226
132.804 11936 109.252
132.922 11418 106.855
133.039 11122 105.461
133.157 10707 103.475
133.274 10652 103.209
133.392 10462 102.284
133.509 10345 101.71
133.627 10434 102.147
133.744 10788 103.865
133.862 11391 106.729
133.979 11972 109.417
134.097 12365 111.198
134.214 12900 113.578
134.332 12779 113.044
134.449 13083 114.381
134.567 13152 114.682
134.684 12859 113.398
134.802 13408 115.793
134.919 13501 116.194
135.037 13130 114.586
135.154 13012 114.07
135.272 12674 112.579
135.389 12439 111.53
135.507 11749 108.393
135.624 11207 105.863
135.742 11161 105.646
135.859 11395 106.747
135.977 11720 108.259
136.094 11829 108.761
136.211 11941 109.275
136.329 11866 108.931
136.446 11814 108.692
136.564 11812 108.683
136.681 11859 108.899
136.798 11335 106.466
136.915 11222 105.934
137.033 10798 103.913
137.15 10834 104.087
137.267 10992 104.843
137.384 11041 105.076
137.502 11748 108.388
137.619 12084 109.927
137.736 12808 113.172
137.853 12676 112.588
137.97 12766 112.987
138.087 13482 116.112
138.204 13434 115.905
138.321 13501 116.194
138.438 13614 116.679
138.555 13656 116.859
138.672 13612 116.67
138.788 13591 116.58
138.905 13083 114.381
139.022 12859 113.398
139.139 12376 111.247
139.255 11757 108.43
139.372 11881 109
139.488 11764 108.462
139.605 12001 109.549
139.721 12343 111.099
139.838 12303 110.919
139.954 12439 111.53
140.071 12157 110.259
140.187 11938 109.261
140.303 11863 108.917
140.419 11569 107.559
140.535 11001 104.886
140.652 10541 102.669
140.768 0 1
140.884 0 1
141 0 1
141.115 0 1
141.231 0 1
141.347 0 1
141.463 0 1
141.578 0 1
141.694 0 1
144.104 0 1
144.219 0 1
144.335 0 1
144.45 0 1
144.566 0 1
144.682 0 1
144.798 0 1
144.914 0 1
145.03 0 1
145.146 11424 106.883
145.262 11548 107.462
145.378 11148 105.584
145.494 10990 104.833
145.61 10831 104.072
145.726 10499 102.465
145.842 10456 102.255
145.959 10470 102.323
146.075 10884 104.326
146.192 11030 105.024
146.308 11451 107.009
146.425 11844 108.83
146.541 12025 109.659
146.658 12122 110.1
146.774 12214 110.517
146.891 12548 112.018
147.008 12591 112.21
147.125 12849 113.353
147.241 12828 113.261
147.358 12568 112.107
147.475 12289 110.856
147.592 12097 109.986
147.709 11833 108.78
147.826 11090 105.309
147.943 10912 104.461
148.06 10816 104
148.177 11323 106.41
148.294 11542 107.434
148.411 11553 107.485
148.528 11732 108.314
148.645 11407 106.804
148.762 11399 106.766
148.88 11225 105.948
148.997 10555 102.738
149.114 11184 105.754
149.231 10695 103.417
149.349 10230 101.143
149.466 10342 101.696
149.583 10209 101.04
149.701 10421 102.083
149.818 10754 103.701
149.935 11220 105.925
150.053 11413 106.832
150.17 11664 108
150.287 11944 109.289
150.405 12162 110.281
150.522 12124 110.109
150.64 12412 111.409
150.757 12321 111
150.875 12659 112.512
150.992 12486 111.741
151.11 12204 110.472
151.227 11782 108.545
151.344 11574 107.583
151.462 11338 106.48
151.579 11080 105.262
151.697 11362 106.593
151.814 11296 106.283
151.932 11599 107.699
152.049 11909 109.128
152.167 11976 109.435
152.284 11660 107.981
152.402 11630 107.842
152.519 11656 107.963
152.636 11454 107.023
152.754 11061 105.171
152.871 10814 103.99
152.989 10888 104.346
153.106 10806 103.952
153.223 10921 104.504
153.341 11005 104.905
153.458 11404 106.79
153.575 11622 107.805
153.693 12036 109.709
153.81 12317 110.982
153.927 12572 112.125
154.044 12836 113.296
154.162 13291 115.287
154.279 13163 114.73
154.396 13361 115.59
154.513 13581 116.538
154.63 13809 117.512
154.747 13165 114.739
154.864 13008 114.053
154.981 12796 113.119
155.098 12287 110.847
155.215 11899 109.083
155.332 12007 109.576
155.449 12033 109.695
155.566 12475 111.692
155.683 12535 111.96
155.8 12276 110.797
155.917 12292 110.869
156.033 12295 110.883
156.15 0 1
156.267 0 1
156.383 0 1
156.5 0 1
156.617 0 1
156.733 0 1
156.85 0 1
156.966 0 1
157.082 0 1
157.199 0 1
157.315 0 1
157.431 0 1
157.547 0 1
157.664 0 1
157.78 0 1
157.896 0 1
158.012 0 1
158.128 0 1
158.244 0 1
158.359 0 1
158.475 0 1
158.591 0 1
158.706 0 1
