
6.15755 0 1
6.2731 0 1
6.3887 0 1
6.50437 0 1
6.62009 0 1
6.73587 0 1
6.8517 0 1
6.96759 0 1
7.08353 0 1
7.19952 0 1
7.31557 0 1
7.43166 0 1
7.54781 0 1
7.664 0 1
7.78024 0 1
7.89653 0 1
8.01286 0 1
8.12924 0 1
8.24567 0 1
8.36213 0 1
8.47864 0 1
8.59519 0 1
8.71178 0 1
8.82841 0 1
8.94508 0 1
9.06179 0 1
9.17853 0 1
9.29531 0 1
9.41212 0 1
9.52897 0 1
9.64584 0 1
9.76276 0 1
9.8797 0 1
9.99667 0 1
10.1137 0 1
10.2307 0 1
10.3478 0 1
10.4648 0 1
10.5819 0 1
10.6991 0 1
10.8162 0 1
10.9334 0 1
11.0506 0 1
11.1678 0 1
11.285 0 1
11.4023 0 1
11.5196 0 1
11.6369 0 1
11.7542 0 1
11.8715 0 1
11.9888 0 1
12.1062 0 1
12.2235 0 1
12.3409 0 1
12.4582 0 1
12.5756 0 1
12.693 0 1
12.8104 0 1
12.9278 0 1
13.0452 0 1
13.1626 0 1
13.28 0 1
13.3974 0 1
13.5149 0 1
13.6323 0 1
13.7497 0 1
13.8671 0 1
13.9845 0 1
14.1019 0 1
14.2193 0 1
14.3367 0 1
14.4541 0 1
14.5714 0 1
14.6888 0 1
14.8062 0 1
14.9235 0 1
15.0408 0 0
15.1581 0 0
15.2755 0 0
15.3927 0 0
15.51 0 0
15.6273 0 0
15.7445 0 0
15.8617 0 0
15.9789 0 0
16.0961 0 0
16.2132 0 0
16.3304 0 0
16.4475 0 0
16.5646 0 0
16.6816 0 0
16.7986 0 0
16.9156 0 0
17.0326 0 0
17.1496 0 0
17.2665 0 0
17.3833 0 0
17.5002 0 0
17.617 0 0
17.7338 0 0
17.8505 0 0
17.9672 0 0
18.0839 0 0
18.2005 0 0
18.3171 0 0
18.4337 0 0
18.5502 0 0
18.6666 0 0
18.7831 0 0
18.8994 0 0
19.0158 0 0
19.1321 0 0
19.2483 0 0
19.3645 0 0
19.4806 0 0
19.5967 0 0
19.7128 0 0
19.8288 0 0
19.9447 0 0
20.0606 0 1
20.1764 0 1
20.2922 0 1
20.4079 0 1
20.5236 0 1
20.6392 0 1
20.7548 0 1
20.8702 0 1
23.3078 0 1
23.4233 0 1
23.539 0 1
23.6547 0 1
23.7704 0 1
23.8862 0 1
24.0021 0 1
24.118 0 1
24.234 0 1
24.35 0 1
24.4661 2112 45.9565
24.5822 2108 45.913
24.6984 2160 46.4758
24.8146 2044 45.2106
24.9309 1999 44.7102
25.0472 1960 44.2719
25.1636 1918 43.795
25.28 1919 43.8064
25.3965 2092 45.7384
25.513 2274 47.6865
25.6296 2460 49.5984
25.7462 2588 50.8724
25.8628 2688 51.8459
25.9795 2636 51.342
26.0962 2566 50.6557
26.213 2602 51.0098
26.3298 2550 50.4975
26.4466 2559 50.5866
26.5635 2652 51.4976
26.6804 2575 50.7445
26.7973 2576 50.7543
26.9143 2671 51.6817
27.0313 2539 50.3885
27.1483 2570 50.6952
27.2653 2638 51.3615
27.3824 2620 51.1859
27.4996 2549 50.4876
27.6167 2568 50.6754
27.7339 2466 49.6588
27.8511 2405 49.0408
27.9683 2402 49.0102
28.0855 2264 47.5815
28.2028 2225 47.1699
28.3201 2097 45.793
28.4374 1985 44.5533
28.5547 1853 43.0465
28.6721 1691 41.1218
28.7894 1784 42.2374
28.9068 1858 43.1045
29.0242 2002 44.7437
29.1416 2167 46.551
29.259 2285 47.8017
29.3764 2492 49.9199
29.4939 2468 49.679
29.6113 2506 50.06
29.7288 2568 50.6754
29.8463 2521 50.2096
29.9638 2503 50.03
30.0812 2594 50.9313
30.1987 2607 51.0588
30.3162 2501 50.01
30.4337 2515 50.1498
30.5512 2461 49.6085
30.6687 2555 50.547
30.7862 2584 50.8331
30.9037 2549 50.4876
31.0212 2563 50.6261
31.1387 2483 49.8297
31.2562 2426 49.2544
31.3737 2419 49.1833
31.4912 2215 47.0638
31.6087 2162 46.4973
31.7262 2144 46.3033
31.8436 2032 45.0777
31.9611 1865 43.1856
32.0785 1710 41.3521
32.1959 1711 41.3642
32.3134 1732 41.6173
32.4308 1853 43.0465
32.5482 2045 45.2217
32.6655 2168 46.5618
32.7829 2400 48.9898
32.9002 2446 49.4571
33.0176 2455 49.548
33.1349 2480 49.7996
33.2522 2521 50.2096
33.3694 2454 49.5379
33.4867 2482 49.8197
33.6039 2497 49.97
33.7211 2523 50.2295
33.8383 2480 49.7996
33.9554 2355 48.5283
34.0725 2313 48.0937
34.1896 2454 49.5379
34.3067 2547 50.4678
34.4237 2544 50.4381
34.5407 2380 48.7852
34.6577 2332 48.2908
34.7746 2389 48.8774
34.8915 2414 49.1325
35.0084 2397 48.9592
35.1252 2270 47.6445
35.242 2192 46.8188
35.3587 2104 45.8694
35.4755 2074 45.5412
35.5921 1906 43.6578
35.7088 1725 41.5331
35.8254 1551 39.3827
35.9419 1548 39.3446
36.0584 1577 39.7115
36.1749 1703 41.2674
36.2913 1843 42.9302
36.4077 2026 45.0111
36.524 2134 46.1952
36.6403 2203 46.9361
36.7565 2286 47.8121
36.8727 2429 49.2849
36.9889 2290 47.8539
37.1049 2342 48.3942
37.221 0 1
37.3369 0 1
37.4529 0 1
37.5687 0 1
37.6845 0 1
37.8003 0 1
37.916 0 1
38.0316 0 1
38.1472 0 1
40.5851 0 1
40.7008 0 1
40.8164 0 1
40.9322 0 1
41.048 0 1
41.1639 0 1
41.2798 0 1
41.3958 0 1
41.5118 0 1
41.6279 0 1
41.744 1653 40.6571
41.8602 1717 41.4367
41.9765 1912 43.7264
42.0928 2044 45.2106
42.2091 1985 44.5533
42.3255 2006 44.7884
42.4419 1987 44.5758
42.5584 1902 43.6119
42.675 1906 43.6578
42.7915 1903 43.6234
42.9081 1909 43.6921
43.0248 1800 42.4264
43.1415 1866 43.1972
43.2582 1821 42.6732
43.375 1836 42.8486
43.4918 1784 42.2374
43.6087 1823 42.6966
43.7256 1900 43.589
43.8425 1880 43.359
43.9595 1713 41.3884
44.0765 1609 40.1123
44.1935 1548 39.3446
44.3106 1399 37.4032
44.4277 1328 36.4417
44.5448 1150 33.9116
44.6619 1027 32.0468
44.7791 1031 32.1092
44.8963 999 31.607
45.0136 1112 33.3467
45.1308 1166 34.1467
45.2481 1337 36.565
45.3654 1465 38.2753
45.4827 1435 37.8814
45.6001 1452 38.1051
45.7174 1396 37.3631
45.8348 1389 37.2693
45.9522 1444 38
46.0697 1351 36.756
46.1871 1377 37.108
46.3046 1300 36.0555
46.422 1310 36.1939
46.5395 1392 37.3095
46.657 1233 35.1141
46.7745 1265 35.5668
46.892 1269 35.623
47.0096 1310 36.1939
47.1271 1229 35.0571
47.2446 1202 34.6699
47.3622 1260 35.4965
47.4797 1176 34.2929
47.5973 1124 33.5261
47.7149 1064 32.619
47.8324 961 31
47.95 947 30.7734
48.0675 842 29.0172
48.1851 813 28.5132
48.3027 688 26.2298
48.4202 757 27.5136
48.5378 789 28.0891
48.6554 827 28.7576
48.7729 912 30.1993
48.8904 1037 32.2025
49.008 1037 32.2025
49.1255 1031 32.1092
49.243 1038 32.218
49.3605 1037 32.2025
49.478 1066 32.6497
49.5955 1048 32.3728
49.713 1092 33.0454
49.8304 1042 32.28
49.9479 1089 33
50.0653 1079 32.8481
50.1827 1127 33.5708
50.3001 1167 34.1614
50.4175 1185 34.4238
50.5348 1147 33.8674
50.6521 1235 35.1426
50.7694 1245 35.2846
50.8867 1217 34.8855
51.004 1267 35.5949
51.1212 1255 35.426
51.2384 1199 34.6266
51.3556 1129 33.6006
51.4727 1046 32.3419
51.5899 1080 32.8634
51.707 914 30.2324
51.824 935 30.5778
51.9411 943 30.7083
52.0581 1071 32.7261
52.175 1228 35.0428
52.2919 1376 37.0945
52.4088 1599 39.9875
52.5257 1643 40.5339
52.6425 1710 41.3521
52.7593 1673 40.9023
52.876 1761 41.9643
52.9927 1818 42.638
53.1094 1802 42.45
53.226 1809 42.5323
53.3426 1920 43.8178
53.4591 1825 42.72
53.5756 1895 43.5316
53.692 1955 44.2154
53.8084 2009 44.8219
53.9248 2021 44.9555
54.0411 2079 45.5961
54.1573 2087 45.6837
54.2735 0 1
54.3896 0 1
54.5057 0 1
54.6217 0 1
54.7377 0 1
54.8537 0 1
54.9695 0 1
55.0853 0 1
55.2011 0 1
55.3168 0 1
55.4324 0 1
57.824 0 1
57.9396 0 1
58.0553 0 1
58.1711 0 1
58.2869 0 1
58.4028 0 1
58.5187 0 1
58.6347 0 1
58.7508 0 1
58.8669 0 1
58.983 2243 47.3603
59.0992 2296 47.9166
59.2155 2322 48.1871
59.3318 2386 48.8467
59.4482 2340 48.3735
59.5646 2290 47.8539
59.681 2371 48.6929
59.7975 2231 47.2335
59.9141 2158 46.4543
60.0306 2056 45.3431
60.1473 1841 42.9069
60.2639 1638 40.4722
60.3807 1405 37.4833
60.4974 1372 37.0405
60.6142 1330 36.4692
60.731 1434 37.8682
60.8479 1629 40.3609
60.9648 1798 42.4028
61.0818 1933 43.9659
61.1987 2015 44.8888
61.3158 2137 46.2277
61.4328 2097 45.793
61.5499 2095 45.7712
61.667 2011 44.8442
61.7841 2118 46.0217
61.9013 2120 46.0435
62.0185 2129 46.1411
62.1357 2071 45.5082
62.253 1996 44.6766
62.3702 2038 45.1442
62.4875 1998 44.699
62.6049 2085 45.6618
62.7222 2095 45.7712
62.8396 2064 45.4313
62.9569 2092 45.7384
63.0743 2031 45.0666
63.1918 2029 45.0444
63.3092 1956 44.2267
63.4267 1946 44.1135
63.5441 1727 41.5572
63.6616 1625 40.3113
63.7791 1402 37.4433
63.8966 1214 34.8425
64.0142 1159 34.0441
64.1317 1128 33.5857
64.2492 1242 35.242
64.3668 1328 36.4417
64.4843 1495 38.6652
64.6019 1768 42.0476
64.7195 1873 43.2782
64.837 1815 42.6028
64.9546 1834 42.8252
65.0722 1795 42.3674
65.1898 1845 42.9535
65.3074 1936 44
65.4249 1799 42.4146
65.5425 1881 43.3705
65.6601 1922 43.8406
65.7777 1940 44.0454
65.8952 1891 43.4856
66.0128 1946 44.1135
66.1304 1939 44.0341
66.2479 1887 43.4396
66.3655 2036 45.1221
66.483 1946 44.1135
66.6005 1982 44.5197
66.718 1908 43.6807
66.8355 1971 44.3959
66.953 1915 43.7607
67.0705 1832 42.8019
67.1879 1717 41.4367
67.3054 1541 39.2556
67.4228 1305 36.1248
67.5402 1138 33.7343
67.6576 1025 32.0156
67.7749 1002 31.6544
67.8923 1068 32.6803
68.0096 1301 36.0694
68.1269 1466 38.2884
68.2442 1710 41.3521
68.3614 1767 42.0357
68.4787 1885 43.4166
68.5958 1890 43.4741
68.713 1930 43.9318
68.8302 1958 44.2493
68.9473 1912 43.7264
69.0643 1920 43.8178
69.1814 1951 44.1701
69.2984 1916 43.7721
69.4154 1942 44.0681
69.5323 1991 44.6206
69.6492 2036 45.1221
69.7661 2075 45.5522
69.8829 2136 46.2169
69.9997 2158 46.4543
70.1165 2100 45.8258
70.2332 2197 46.8722
70.3499 2212 47.0319
70.4665 2196 46.8615
70.5831 2180 46.6905
70.6996 1992 44.6318
70.8161 1952 44.1814
70.9326 1716 41.4246
71.049 1595 39.9375
71.1653 1352 36.7696
71.2817 1107 33.2716
71.3979 922 30.3645
71.5141 1119 33.4515
71.6303 1186 34.4384
71.7464 1212 34.8138
71.8624 0 1
71.9784 0 1
72.0944 0 1
72.2102 0 1
72.3261 0 1
72.4418 0 1
72.5575 0 1
72.6732 0 1
75.1054 0 1
75.2209 0 1
75.3365 0 1
75.4521 0 1
75.5678 0 1
75.6835 0 1
75.7993 0 1
75.9151 0 1
76.031 0 1
76.147 1699 41.2189
76.263 1746 41.7852
76.3791 1755 41.8927
76.4952 1509 38.8458
76.6113 1219 34.9142
76.7276 1022 31.9687
76.8438 1069 32.6956
76.9601 1295 35.9861
77.0765 1468 38.3145
77.1929 1666 40.8167
77.3093 1891 43.4856
77.4258 2033 45.0888
77.5423 2096 45.7821
77.6589 2086 45.6727
77.7755 1928 43.909
77.8921 2058 45.3652
78.0088 2023 44.9778
78.1256 2038 45.1442
78.2423 2055 45.3321
78.3591 1933 43.9659
78.4759 1978 44.4747
78.5928 2091 45.7275
78.7097 1954 44.2041
78.8266 2036 45.1221
78.9436 2133 46.1844
79.0606 2153 46.4004
79.1776 2096 45.7821
79.2946 2077 45.5741
79.4117 2044 45.2106
79.5288 2074 45.5412
79.6459 2016 44.8999
79.7631 1959 44.2606
79.8802 1792 42.332
79.9974 1692 41.1339
80.1147 1473 38.3797
80.2319 1201 34.6554
80.3491 946 30.7571
80.4664 958 30.9516
80.5837 1091 33.0303
80.701 1383 37.1887
80.8183 1529 39.1024
80.9357 1791 42.3202
81.053 1898 43.566
81.1704 1851 43.0232
81.2877 1792 42.332
81.4051 1835 42.8369
81.5225 1797 42.391
81.6399 1884 43.4051
81.7573 1726 41.5452
81.8747 1731 41.6053
81.9922 1814 42.5911
82.1096 1810 42.5441
82.227 1813 42.5793
82.3444 1723 41.509
82.4619 1886 43.4281
82.5793 1868 43.2204
82.6967 1869 43.2319
82.8142 1870 43.2435
82.9316 1781 42.2019
83.049 1812 42.5676
83.1664 1751 41.845
83.2838 1802 42.45
83.4012 1651 40.6325
83.5186 1558 39.4715
83.636 1452 38.1051
83.7534 1324 36.3868
83.8708 1037 32.2025
83.9881 826 28.7402
84.1055 767 27.6948
84.2228 914 30.2324
84.3401 1098 33.1361
84.4575 1296 36
84.5747 1476 38.4187
84.692 1615 40.1871
84.8093 1581 39.7618
84.9265 1581 39.7618
85.0437 1677 40.9512
85.1609 1677 40.9512
85.2781 1664 40.7922
85.3952 1674 40.9145
85.5123 1557 39.4588
85.6294 1650 40.6202
85.7465 1790 42.3084
85.8636 1750 41.833
85.9806 1796 42.3792
86.0976 1778 42.1663
86.2145 1932 43.9545
86.3315 1945 44.1022
86.4484 1884 43.4051
86.5652 1954 44.2041
86.682 1946 44.1135
86.7988 2009 44.8219
86.9156 1995 44.6654
87.0323 1836 42.8486
87.149 1777 42.1545
87.2657 1664 40.7922
87.3823 1497 38.6911
87.4988 1187 34.4529
87.6154 1011 31.7962
87.7318 1057 32.5115
87.8483 1231 35.0856
87.9647 1514 38.9102
88.081 1763 41.9881
88.1973 1925 43.8748
88.3136 1997 44.6878
88.4298 2082 45.6289
88.546 1941 44.0568
88.6621 2064 45.4313
88.7781 1949 44.1475
88.8942 0 1
89.0101 0 1
89.126 0 1
89.2419 0 1
89.3577 0 1
89.4734 0 1
89.5891 0 1
89.7047 0 1
89.8203 0 1
89.9358 0 1
92.3269 0 1
92.4424 0 1
92.558 0 1
92.6736 0 1
92.7893 0 1
92.905 0 1
93.0208 0 1
93.1366 0 1
93.2525 0 1
93.3685 0 1
93.4845 0 1
93.6005 1881 43.3705
93.7167 1924 43.8634
93.8328 2052 45.299
93.949 1965 44.3283
94.0653 2030 45.0555
94.1816 1931 43.9431
94.2979 2000 44.7214
94.4143 1931 43.9431
94.5307 1970 44.3847
94.6472 2060 45.3872
94.7637 1991 44.6206
94.8803 2053 45.31
94.9969 2121 46.0543
95.1135 2113 45.9674
95.2302 2217 47.085
95.3469 2174 46.6262
95.4637 2181 46.7012
95.5805 2261 47.55
95.6973 2203 46.9361
95.8142 2226 47.1805
95.9311 2124 46.0869
96.048 2109 45.9239
96.1649 2085 45.6618
96.2819 2012 44.8553
96.3989 1832 42.8019
96.516 1693 41.1461
96.633 1448 38.0526
96.7501 1174 34.2637
96.8673 1066 32.6497
96.9844 1144 33.8231
97.1016 1303 36.0971
97.2188 1509 38.8458
97.336 1915 43.7607
97.4532 1917 43.7836
97.5704 2042 45.1885
97.6877 2037 45.1331
97.805 1941 44.0568
97.9223 2007 44.7996
98.0396 1946 44.1135
98.1569 1942 44.0681
98.2743 1882 43.382
98.3916 2019 44.9333
98.509 1981 44.5084
98.6264 1921 43.8292
98.7438 2089 45.7056
98.8612 1974 44.4297
98.9786 2063 45.4203
99.096 2169 46.5725
99.2134 2088 45.6946
99.3308 2238 47.3075
99.4482 2183 46.7226
99.5656 2121 46.0543
99.6831 2142 46.2817
99.8005 2036 45.1221
99.9179 1896 43.5431
100.035 1762 41.9762
100.153 1648 40.5956
100.27 1411 37.5633
100.388 1182 34.3802
100.505 1147 33.8674
100.622 1337 36.565
100.74 1537 39.2046
100.857 1795 42.3674
100.975 2040 45.1664
101.092 1931 43.9431
101.209 1979 44.486
101.327 2022 44.9667
101.444 2036 45.1221
101.561 1989 44.5982
101.679 1967 44.3509
101.796 2009 44.8219
101.913 1957 44.238
102.03 2096 45.7821
102.148 2019 44.9333
102.265 2057 45.3542
102.382 2234 47.2652
102.499 2239 47.3181
102.616 2226 47.1805
102.733 2261 47.55
102.851 2277 47.7179
102.968 2320 48.1664
103.085 2278 47.7284
103.202 2130 46.1519
103.319 2196 46.8615
103.436 2135 46.2061
103.552 2021 44.9555
103.669 1736 41.6653
103.786 1500 38.7298
103.903 1248 35.327
104.02 1347 36.7015
104.137 1461 38.223
104.253 1754 41.8808
104.37 2013 44.8665
104.487 2103 45.8585
104.603 2202 46.9255
104.72 2179 46.6798
104.836 2221 47.1275
104.953 2189 46.7868
105.069 2241 47.3392
105.186 2146 46.3249
105.302 2353 48.5077
105.418 2372 48.7032
105.535 2229 47.2123
105.651 2374 48.7237
105.767 2430 49.295
105.883 2524 50.2394
105.999 2384 48.8262
106.115 0 1
106.231 0 1
106.347 0 1
106.463 0 1
106.579 0 1
106.694 0 1
106.81 0 1
106.926 0 1
107.041 0 1
107.157 0 1
109.576 0 1
109.692 0 1
109.807 0 1
109.923 0 1
110.039 0 1
110.155 0 1
110.27 0 1
110.386 0 1
110.502 0 1
110.618 2223 47.1487
110.735 2275 47.697
110.851 2452 49.5177
110.967 2405 49.0408
111.083 2384 48.8262
111.199 2424 49.2341
111.316 2406 49.051
111.432 2552 50.5173
111.549 2440 49.3964
111.665 2504 50.04
111.782 2313 48.0937
111.898 2249 47.4236
112.015 2157 46.4435
112.132 2080 45.607
112.248 1866 43.1972
112.365 1668 40.8412
112.482 1348 36.7151
112.599 1416 37.6298
112.716 1537 39.2046
112.832 1760 41.9524
112.949 2024 44.9889
113.066 2180 46.6905
113.183 2245 47.3814
113.3 2162 46.4973
113.417 2140 46.2601
113.534 2200 46.9042
113.652 2174 46.6262
113.769 2294 47.8957
113.886 2233 47.2546
114.003 2173 46.6154
114.12 2301 47.9687
114.238 2255 47.4868
114.355 2368 48.6621
114.472 2335 48.3218
114.589 2411 49.1019
114.707 2417 49.163
114.824 2369 48.6724
114.942 2478 49.7795
115.059 2623 51.2152
115.176 2593 50.9215
115.294 2464 49.6387
115.411 2512 50.1199
115.529 2423 49.224
115.646 2234 47.2652
115.764 2126 46.1086
115.881 1849 43
115.999 1645 40.5586
116.116 1631 40.3856
116.234 1682 41.0122
116.351 1897 43.5546
116.469 2206 46.9681
116.586 2404 49.0306
116.704 2415 49.1426
116.821 2404 49.0306
116.939 2368 48.6621
117.056 2494 49.94
117.174 2448 49.4773
117.291 2498 49.98
117.409 2397 48.9592
117.526 2421 49.2037
117.644 2466 49.6588
117.761 2423 49.224
117.879 2480 49.7996
117.996 2516 50.1597
118.114 2686 51.8266
118.231 2590 50.892
118.349 2564 50.636
118.466 2704 52
118.584 2672 51.6914
118.701 2637 51.3517
118.819 2626 51.2445
118.936 2594 50.9313
119.053 2508 50.0799
119.171 2428 49.2747
119.288 2330 48.2701
119.405 2144 46.3033
119.523 1916 43.7721
119.64 1656 40.694
119.757 1761 41.9643
119.875 1730 41.5933
119.992 1954 44.2041
120.109 2250 47.4342
120.226 2358 48.5592
120.343 2422 49.2138
120.46 2406 49.051
120.578 2386 48.8467
120.695 2423 49.224
120.812 2450 49.4975
120.929 2425 49.2443
121.046 2457 49.5681
121.163 2425 49.2443
121.279 2401 49
121.396 2400 48.9898
121.513 2420 49.1935
121.63 2493 49.93
121.747 2469 49.689
121.863 2451 49.5076
121.98 2600 50.9902
122.097 2606 51.049
122.213 2598 50.9706
122.33 2550 50.4975
122.446 2502 50.02
122.563 2446 49.4571
122.679 2457 49.5681
122.795 2373 48.7134
122.912 2283 47.7807
123.028 2183 46.7226
123.144 2030 45.0555
123.26 1828 42.7551
123.377 0 1
123.493 0 1
123.609 0 1
123.725 0 1
123.84 0 1
123.956 0 1
124.072 0 1
124.188 0 1
124.303 0 1
124.419 0 1
126.852 0 1
126.968 0 1
127.083 0 1
127.199 0 1
127.315 0 1
127.431 0 1
127.547 0 1
127.663 0 1
127.779 0 1
127.895 0 1
128.011 0 1
128.127 0 1
128.243 0 1
128.359 2272 47.6655
128.476 2081 45.618
128.592 1967 44.3509
128.708 1851 43.0232
128.825 1998 44.699
128.941 2177 46.6583
129.058 2489 49.8899
129.174 2533 50.3289
129.291 2584 50.8331
129.408 2696 51.923
129.524 2539 50.3885
129.641 2584 50.8331
129.758 2661 51.5849
129.875 2623 51.2152
129.992 2668 51.6527
130.108 2520 50.1996
130.225 2544 50.4381
130.342 2596 50.951
130.459 2558 50.5767
130.576 2660 51.5752
130.693 2719 52.144
130.81 2728 52.2303
130.928 2784 52.7636
131.045 2703 51.9904
131.162 2730 52.2494
131.279 2755 52.4881
131.396 2859 53.4696
131.513 2700 51.9615
131.631 2672 51.6914
131.748 2515 50.1498
131.865 2487 49.8698
131.983 2287 47.8226
132.1 2095 45.7712
132.217 1911 43.715
132.335 1978 44.4747
132.452 2235 47.2758
132.57 2496 49.96
132.687 2581 50.8035
132.804 2704 52
132.922 2652 51.4976
133.039 2651 51.4879
133.157 2675 51.7204
133.274 2636 51.342
133.392 2674 51.7107
133.509 2665 51.6236
133.627 2711 52.0673
133.744 2666 51.6333
133.862 2577 50.7642
133.979 2593 50.9215
134.097 2528 50.2792
134.214 2556 50.5569
134.332 2621 51.1957
134.449 2715 52.1057
134.567 2627 51.2543
134.684 2710 52.0577
134.802 2735 52.2972
134.919 2723 52.1824
135.037 2723 52.1824
135.154 2671 51.6817
135.272 2548 50.4777
135.389 2382 48.8057
135.507 2358 48.5592
135.624 2108 45.913
135.742 1981 44.5084
135.859 2034 45.0999
135.977 2123 46.076
136.094 2415 49.1426
136.211 2490 49.8999
136.329 2667 51.643
136.446 2708 52.0384
136.564 2676 51.7301
136.681 2579 50.7839
136.798 2691 51.8748
136.915 2678 51.7494
137.033 2566 50.6557
137.15 2573 50.7247
137.267 2550 50.4975
137.384 2546 50.4579
137.502 2464 49.6387
137.619 2443 49.4267
137.736 2515 50.1498
137.853 2538 50.3786
137.97 2566 50.6557
138.087 2634 51.3225
138.204 2590 50.892
138.321 2654 51.517
138.438 2865 53.5257
138.555 2683 51.7977
138.672 2720 52.1536
138.788 2674 51.7107
138.905 2472 49.7192
139.022 2459 49.5883
139.139 2269 47.634
139.255 2200 46.9042
139.372 2124 46.0869
139.488 2089 45.7056
139.605 2211 47.0213
139.721 2408 49.0714
139.838 2512 50.1199
139.954 2558 50.5767
140.071 2632 51.303
140.187 2639 51.3712
140.303 2656 51.5364
140.419 2617 51.1566
140.535 2554 50.5371
140.652 2650 51.4782
140.768 0 1
140.884 0 1
141 0 1
141.115 0 1
141.231 0 1
141.347 0 1
141.463 0 1
141.578 0 1
141.694 0 1
144.104 0 1
144.219 0 1
144.335 0 1
144.45 0 1
144.566 0 1
144.682 0 1
144.798 0 1
144.914 0 1
145.03 0 1
145.146 2020 44.9444
145.262 2122 46.0652
145.378 2202 46.9255
145.494 2225 47.1699
145.61 2210 47.0106
145.726 2226 47.1805
145.842 2158 46.4543
145.959 2115 45.9891
146.075 2144 46.3033
146.192 2063 45.4203
146.308 2065 45.4423
146.425 2108 45.913
146.541 2138 46.2385
146.658 2148 46.3465
146.774 2198 46.8828
146.891 2160 46.4758
147.008 2309 48.0521
147.125 2331 48.2804
147.241 2353 48.5077
147.358 2341 48.3839
147.475 2306 48.0208
147.592 2289 47.8435
147.709 2225 47.1699
147.826 2174 46.6262
147.943 2105 45.8803
148.06 2049 45.2659
148.177 1864 43.1741
148.294 1777 42.1545
148.411 2022 44.9667
148.528 2079 45.5961
148.645 2205 46.9574
148.762 2314 48.1041
148.88 2297 47.927
148.997 2293 47.8853
149.114 2418 49.1732
149.231 2329 48.2597
149.349 2355 48.5283
149.466 2427 49.2646
149.583 2345 48.4252
149.701 2231 47.2335
149.818 2117 46.0109
149.935 2221 47.1275
150.053 2169 46.5725
150.17 2134 46.1952
150.287 2218 47.0956
150.405 2167 46.551
150.522 2250 47.4342
150.64 2348 48.4562
150.757 2366 48.6415
150.875 2376 48.7442
150.992 2401 49
151.11 2449 49.4874
151.227 2270 47.6445
151.344 2334 48.3115
151.462 2298 47.9375
151.579 2210 47.0106
151.697 2243 47.3603
151.814 2086 45.6727
151.932 2055 45.3321
152.049 2150 46.3681
152.167 2183 46.7226
152.284 2264 47.5815
152.402 2324 48.2079
152.519 2424 49.2341
152.636 2445 49.4469
152.754 2489 49.8899
152.871 2470 49.6991
152.989 2482 49.8197
153.106 2470 49.6991
153.223 2355 48.5283
153.341 2295 47.9062
153.458 2229 47.2123
153.575 2243 47.3603
153.693 2226 47.1805
153.81 2212 47.0319
153.927 2366 48.6415
154.044 2374 48.7237
154.162 2452 49.5177
154.279 2483 49.8297
154.396 2560 50.5964
154.513 2646 51.4393
154.63 2555 50.547
154.747 2579 50.7839
154.864 2526 50.2593
154.981 2562 50.6162
155.098 2537 50.3686
155.215 2468 49.679
155.332 2312 48.0833
155.449 2240 47.3286
155.566 2356 48.5386
155.683 2367 48.6518
155.8 2416 49.1528
155.917 2550 50.4975
156.033 2444 49.4368
156.15 0 1
156.267 0 1
156.383 0 1
156.5 0 1
156.617 0 1
156.733 0 1
156.85 0 1
156.966 0 1
157.082 0 1
157.199 0 1
157.315 0 1
157.431 0 1
157.547 0 1
157.664 0 1
157.78 0 1
157.896 0 1
158.012 0 1
158.128 0 1
158.244 0 1
158.359 0 1
158.475 0 1
158.591 0 1
158.706 0 1
