
6.15755 0 1
6.2731 0 1
6.3887 0 1
6.50437 0 1
6.62009 0 1
6.73587 0 1
6.8517 0 1
6.96759 0 1
7.08353 0 1
7.19952 0 1
7.31557 0 1
7.43166 0 1
7.54781 0 1
7.664 0 1
7.78024 0 1
7.89653 0 1
8.01286 0 1
8.12924 0 1
8.24567 0 1
8.36213 0 1
8.47864 0 1
8.59519 0 1
8.71178 0 1
8.82841 0 1
8.94508 0 1
9.06179 0 1
9.17853 0 1
9.29531 0 1
9.41212 0 1
9.52897 0 1
9.64584 0 1
9.76276 0 1
9.8797 0 1
9.99667 0 1
10.1137 0 1
10.2307 0 1
10.3478 0 1
10.4648 0 1
10.5819 0 1
10.6991 0 1
10.8162 0 1
10.9334 0 1
11.0506 0 1
11.1678 0 1
11.285 0 1
11.4023 0 1
11.5196 0 1
11.6369 0 1
11.7542 0 1
11.8715 0 1
11.9888 0 1
12.1062 0 1
12.2235 0 1
12.3409 0 1
12.4582 0 1
12.5756 0 1
12.693 0 1
12.8104 0 1
12.9278 0 1
13.0452 0 1
13.1626 0 1
13.28 0 1
13.3974 0 1
13.5149 0 1
13.6323 0 1
13.7497 0 1
13.8671 0 1
13.9845 0 1
14.1019 0 1
14.2193 0 1
14.3367 0 1
14.4541 0 1
14.5714 0 1
14.6888 0 1
14.8062 0 1
14.9235 0 1
15.0408 803 28.3373
15.1581 876 29.5973
15.2755 884 29.7321
15.3927 901 30.0167
15.51 870 29.4958
15.6273 911 30.1828
15.7445 870 29.4958
15.8617 950 30.8221
15.9789 860 29.3258
16.0961 852 29.189
16.2132 816 28.5657
16.3304 880 29.6648
16.4475 897 29.95
16.5646 937 30.6105
16.6816 972 31.1769
16.7986 966 31.0805
16.9156 1073 32.7567
17.0326 975 31.225
17.1496 995 31.5436
17.2665 1089 33
17.3833 1076 32.8024
17.5002 1030 32.0936
17.617 998 31.5911
17.7338 954 30.8869
17.8505 832 28.8444
17.9672 874 29.5635
18.0839 859 29.3087
18.2005 874 29.5635
18.3171 881 29.6816
18.4337 915 30.249
18.5502 948 30.7896
18.6666 945 30.7409
18.7831 1060 32.5576
18.8994 1003 31.6702
19.0158 968 31.1127
19.1321 919 30.315
19.2483 993 31.5119
19.3645 885 29.7489
19.4806 820 28.6356
19.5967 845 29.0689
19.7128 708 26.6083
19.8288 666 25.807
19.9447 540 23.2379
20.0606 0 1
20.1764 0 1
20.2922 0 1
20.4079 0 1
20.5236 0 1
20.6392 0 1
20.7548 0 1
20.8702 0 1
23.3078 0 1
23.4233 0 1
23.539 0 1
23.6547 0 1
23.7704 0 1
23.8862 0 1
24.0021 0 1
24.118 0 1
24.234 0 1
24.35 0 1
24.4661 364 19.0788
24.5822 468 21.6333
24.6984 565 23.7697
24.8146 626 25.02
24.9309 621 24.9199
25.0472 683 26.1343
25.1636 746 27.313
25.28 799 28.2666
25.3965 858 29.2916
25.513 934 30.5614
25.6296 1019 31.9218
25.7462 1036 32.187
25.8628 1016 31.8748
25.9795 1046 32.3419
26.0962 1045 32.3265
26.213 995 31.5436
26.3298 999 31.607
26.4466 955 30.9031
26.5635 834 28.8791
26.6804 896 29.9333
26.7973 924 30.3974
26.9143 974 31.209
27.0313 953 30.8707
27.1483 1017 31.8904
27.2653 958 30.9516
27.3824 1013 31.8277
27.4996 987 31.4166
27.6167 1006 31.7175
27.7339 974 31.209
27.8511 937 30.6105
27.9683 938 30.6268
28.0855 943 30.7083
28.2028 912 30.1993
28.3201 920 30.3315
28.4374 825 28.7228
28.5547 826 28.7402
28.6721 851 29.1719
28.7894 868 29.4618
28.9068 918 30.2985
29.0242 966 31.0805
29.1416 993 31.5119
29.259 1041 32.2645
29.3764 957 30.9354
29.4939 991 31.4802
29.6113 1015 31.8591
29.7288 978 31.273
29.8463 961 31
29.9638 854 29.2233
30.0812 824 28.7054
30.1987 870 29.4958
30.3162 866 29.4279
30.4337 926 30.4302
30.5512 971 31.1609
30.6687 894 29.8998
30.7862 902 30.0333
30.9037 1008 31.749
31.0212 992 31.496
31.1387 961 31
31.2562 979 31.289
31.3737 955 30.9031
31.4912 893 29.8831
31.6087 872 29.5296
31.7262 922 30.3645
31.8436 784 28
31.9611 761 27.5862
32.0785 779 27.9106
32.1959 800 28.2843
32.3134 867 29.4449
32.4308 876 29.5973
32.5482 923 30.3809
32.6655 964 31.0483
32.7829 961 31
32.9002 963 31.0322
33.0176 974 31.209
33.1349 1022 31.9687
33.2522 917 30.282
33.3694 872 29.5296
33.4867 874 29.5635
33.6039 810 28.4605
33.7211 818 28.6007
33.8383 825 28.7228
33.9554 838 28.9482
34.0725 796 28.2135
34.1896 923 30.3809
34.3067 919 30.315
34.4237 927 30.4467
34.5407 948 30.7896
34.6577 952 30.8545
34.7746 911 30.1828
34.8915 940 30.6594
35.0084 860 29.3258
35.1252 888 29.7993
35.242 831 28.8271
35.3587 835 28.8964
35.4755 879 29.6479
35.5921 795 28.1957
35.7088 756 27.4955
35.8254 818 28.6007
35.9419 762 27.6043
36.0584 812 28.4956
36.1749 793 28.1603
36.2913 882 29.6985
36.4077 852 29.189
36.524 815 28.5482
36.6403 836 28.9137
36.7565 808 28.4253
36.8727 754 27.4591
36.9889 733 27.074
37.1049 642 25.3377
37.221 0 1
37.3369 0 1
37.4529 0 1
37.5687 0 1
37.6845 0 1
37.8003 0 1
37.916 0 1
38.0316 0 1
38.1472 0 1
40.5851 0 1
40.7008 0 1
40.8164 0 1
40.9322 0 1
41.048 0 1
41.1639 0 1
41.2798 0 1
41.3958 0 1
41.5118 0 1
41.6279 0 1
41.744 449 21.1896
41.8602 471 21.7025
41.9765 518 22.7596
42.0928 577 24.0208
42.2091 528 22.9783
42.3255 528 22.9783
42.4419 511 22.6053
42.5584 564 23.7487
42.675 566 23.7908
42.7915 693 26.3249
42.9081 727 26.9629
43.0248 760 27.5681
43.1415 726 26.9444
43.2582 772 27.7849
43.375 751 27.4044
43.4918 742 27.2397
43.6087 799 28.2666
43.7256 733 27.074
43.8425 715 26.7395
43.9595 736 27.1293
44.0765 739 27.1846
44.1935 706 26.5707
44.3106 679 26.0576
44.4277 655 25.593
44.5448 640 25.2982
44.6619 639 25.2784
44.7791 649 25.4755
44.8963 699 26.4386
45.0136 756 27.4955
45.1308 770 27.7489
45.2481 754 27.4591
45.3654 787 28.0535
45.4827 822 28.6705
45.6001 788 28.0713
45.7174 747 27.3313
45.8348 789 28.0891
45.9522 682 26.1151
46.0697 646 25.4165
46.1871 635 25.1992
46.3046 652 25.5343
46.422 674 25.9615
46.5395 715 26.7395
46.657 718 26.7955
46.7745 779 27.9106
46.892 749 27.3679
47.0096 781 27.9464
47.1271 793 28.1603
47.2446 742 27.2397
47.3622 750 27.3861
47.4797 775 27.8388
47.5973 744 27.2764
47.7149 700 26.4575
47.8324 703 26.5141
47.95 720 26.8328
48.0675 636 25.219
48.1851 597 24.4336
48.3027 620 24.8998
48.4202 668 25.8457
48.5378 738 27.1662
48.6554 749 27.3679
48.7729 798 28.2489
48.8904 782 27.9643
49.008 774 27.8209
49.1255 816 28.5657
49.243 767 27.6948
49.3605 712 26.6833
49.478 670 25.8844
49.5955 645 25.3969
49.713 617 24.8395
49.8304 612 24.7386
49.9479 674 25.9615
50.0653 694 26.3439
50.1827 691 26.2869
50.3001 745 27.2947
50.4175 759 27.55
50.5348 775 27.8388
50.6521 755 27.4773
50.7694 830 28.8097
50.8867 717 26.7769
51.004 785 28.0179
51.1212 750 27.3861
51.2384 741 27.2213
51.3556 716 26.7582
51.4727 658 25.6515
51.5899 581 24.1039
51.707 612 24.7386
51.824 619 24.8797
51.9411 677 26.0192
52.0581 702 26.4953
52.175 763 27.6225
52.2919 829 28.7924
52.4088 716 26.7582
52.5257 754 27.4591
52.6425 768 27.7128
52.7593 804 28.3549
52.876 758 27.5318
52.9927 733 27.074
53.1094 646 25.4165
53.226 649 25.4755
53.3426 624 24.98
53.4591 600 24.4949
53.5756 641 25.318
53.692 635 25.1992
53.8084 604 24.5764
53.9248 611 24.7184
54.0411 581 24.1039
54.1573 535 23.1301
54.2735 0 1
54.3896 0 1
54.5057 0 1
54.6217 0 1
54.7377 0 1
54.8537 0 1
54.9695 0 1
55.0853 0 1
55.2011 0 1
55.3168 0 1
55.4324 0 1
57.824 0 1
57.9396 0 1
58.0553 0 1
58.1711 0 1
58.2869 0 1
58.4028 0 1
58.5187 0 1
58.6347 0 1
58.7508 0 1
58.8669 0 1
58.983 538 23.1948
59.0992 604 24.5764
59.2155 696 26.3818
59.3318 789 28.0891
59.4482 783 27.9821
59.5646 820 28.6356
59.681 871 29.5127
59.7975 894 29.8998
59.9141 867 29.4449
60.0306 844 29.0517
60.1473 856 29.2575
60.2639 834 28.8791
60.3807 832 28.8444
60.4974 810 28.4605
60.6142 891 29.8496
60.731 840 28.9828
60.8479 899 29.9833
60.9648 979 31.289
61.0818 946 30.7571
61.1987 960 30.9839
61.3158 939 30.6431
61.4328 892 29.8664
61.5499 911 30.1828
61.667 813 28.5132
61.7841 789 28.0891
61.9013 811 28.4781
62.0185 788 28.0713
62.1357 771 27.7669
62.253 835 28.8964
62.3702 888 29.7993
62.4875 914 30.2324
62.6049 960 30.9839
62.7222 959 30.9677
62.8396 1022 31.9687
62.9569 1017 31.8904
63.0743 1020 31.9374
63.1918 943 30.7083
63.3092 1024 32
63.4267 954 30.8869
63.5441 913 30.2159
63.6616 899 29.9833
63.7791 877 29.6142
63.8966 763 27.6225
64.0142 771 27.7669
64.1317 781 27.9464
64.2492 881 29.6816
64.3668 921 30.348
64.4843 984 31.3688
64.6019 955 30.9031
64.7195 1001 31.6386
64.837 961 31
64.9546 987 31.4166
65.0722 942 30.692
65.1898 859 29.3087
65.3074 789 28.0891
65.4249 739 27.1846
65.5425 715 26.7395
65.6601 716 26.7582
65.7777 822 28.6705
65.8952 903 30.05
66.0128 983 31.3528
66.1304 910 30.1662
66.2479 936 30.5941
66.3655 1042 32.28
66.483 975 31.225
66.6005 1007 31.7333
66.718 940 30.6594
66.8355 1028 32.0624
66.953 997 31.5753
67.0705 993 31.5119
67.1879 877 29.6142
67.3054 860 29.3258
67.4228 782 27.9643
67.5402 813 28.5132
67.6576 772 27.7849
67.7749 800 28.2843
67.8923 870 29.4958
68.0096 972 31.1769
68.1269 1033 32.1403
68.2442 1015 31.8591
68.3614 1055 32.4808
68.4787 1030 32.0936
68.5958 1040 32.249
68.713 1018 31.9061
68.8302 951 30.8383
68.9473 897 29.95
69.0643 834 28.8791
69.1814 864 29.3939
69.2984 881 29.6816
69.4154 937 30.6105
69.5323 977 31.257
69.6492 1035 32.1714
69.7661 1074 32.7719
69.8829 1093 33.0606
69.9997 1095 33.0908
70.1165 1087 32.9697
70.2332 1129 33.6006
70.3499 1062 32.5883
70.4665 946 30.7571
70.5831 982 31.3369
70.6996 918 30.2985
70.8161 882 29.6985
70.9326 783 27.9821
71.049 646 25.4165
71.1653 577 24.0208
71.2817 530 23.0217
71.3979 425 20.6155
71.5141 476 21.8174
71.6303 403 20.0749
71.7464 391 19.7737
71.8624 0 1
71.9784 0 1
72.0944 0 1
72.2102 0 1
72.3261 0 1
72.4418 0 1
72.5575 0 1
72.6732 0 1
75.1054 0 1
75.2209 0 1
75.3365 0 1
75.4521 0 1
75.5678 0 1
75.6835 0 1
75.7993 0 1
75.9151 0 1
76.031 0 1
76.147 718 26.7955
76.263 692 26.3059
76.3791 671 25.9037
76.4952 687 26.2107
76.6113 682 26.1151
76.7276 708 26.6083
76.8438 832 28.8444
76.9601 831 28.8271
77.0765 915 30.249
77.1929 962 31.0161
77.3093 986 31.4006
77.4258 932 30.5287
77.5423 943 30.7083
77.6589 878 29.6311
77.7755 871 29.5127
77.8921 792 28.1425
78.0088 703 26.5141
78.1256 700 26.4575
78.2423 632 25.1396
78.3591 699 26.4386
78.4759 729 27
78.5928 777 27.8747
78.7097 826 28.7402
78.8266 820 28.6356
78.9436 939 30.6431
79.0606 845 29.0689
79.1776 824 28.7054
79.2946 870 29.4958
79.4117 838 28.9482
79.5288 940 30.6594
79.6459 859 29.3087
79.7631 821 28.6531
79.8802 840 28.9828
79.9974 771 27.7669
80.1147 688 26.2298
80.2319 675 25.9808
80.3491 693 26.3249
80.4664 733 27.074
80.5837 726 26.9444
80.701 779 27.9106
80.8183 854 29.2233
80.9357 921 30.348
81.053 877 29.6142
81.1704 863 29.3769
81.2877 843 29.0345
81.4051 853 29.2062
81.5225 802 28.3196
81.6399 664 25.7682
81.7573 690 26.2679
81.8747 616 24.8193
81.9922 659 25.671
82.1096 614 24.779
82.227 735 27.1109
82.3444 838 28.9482
82.4619 851 29.1719
82.5793 858 29.2916
82.6967 847 29.1033
82.8142 882 29.6985
82.9316 871 29.5127
83.049 888 29.7993
83.1664 927 30.4467
83.2838 883 29.7153
83.4012 832 28.8444
83.5186 815 28.5482
83.636 800 28.2843
83.7534 724 26.9072
83.8708 709 26.6271
83.9881 650 25.4951
84.1055 716 26.7582
84.2228 795 28.1957
84.3401 792 28.1425
84.4575 861 29.3428
84.5747 872 29.5296
84.692 938 30.6268
84.8093 942 30.692
84.9265 952 30.8545
85.0437 837 28.931
85.1609 791 28.1247
85.2781 757 27.5136
85.3952 701 26.4764
85.5123 642 25.3377
85.6294 699 26.4386
85.7465 767 27.6948
85.8636 789 28.0891
85.9806 844 29.0517
86.0976 855 29.2404
86.2145 882 29.6985
86.3315 917 30.282
86.4484 948 30.7896
86.5652 876 29.5973
86.682 923 30.3809
86.7988 919 30.315
86.9156 866 29.4279
87.0323 889 29.8161
87.149 862 29.3598
87.2657 815 28.5482
87.3823 684 26.1534
87.4988 621 24.9199
87.6154 613 24.7588
87.7318 630 25.0998
87.8483 671 25.9037
87.9647 680 26.0768
88.081 750 27.3861
88.1973 714 26.7208
88.3136 691 26.2869
88.4298 640 25.2982
88.546 649 25.4755
88.6621 522 22.8473
88.7781 396 19.8997
88.8942 0 1
89.0101 0 1
89.126 0 1
89.2419 0 1
89.3577 0 1
89.4734 0 1
89.5891 0 1
89.7047 0 1
89.8203 0 1
89.9358 0 1
92.3269 0 1
92.4424 0 1
92.558 0 1
92.6736 0 1
92.7893 0 1
92.905 0 1
93.0208 0 1
93.1366 0 1
93.2525 0 1
93.3685 0 1
93.4845 0 1
93.6005 671 25.9037
93.7167 659 25.671
93.8328 709 26.6271
93.949 688 26.2298
94.0653 792 28.1425
94.1816 733 27.074
94.2979 719 26.8142
94.4143 731 27.037
94.5307 650 25.4951
94.6472 640 25.2982
94.7637 691 26.2869
94.8803 676 26
94.9969 752 27.4226
95.1135 780 27.9285
95.2302 832 28.8444
95.3469 820 28.6356
95.4637 888 29.7993
95.5805 858 29.2916
95.6973 918 30.2985
95.8142 847 29.1033
95.9311 876 29.5973
96.048 936 30.5941
96.1649 867 29.4449
96.2819 868 29.4618
96.3989 804 28.3549
96.516 753 27.4408
96.633 742 27.2397
96.7501 671 25.9037
96.8673 690 26.2679
96.9844 715 26.7395
97.1016 778 27.8927
97.2188 770 27.7489
97.336 890 29.8329
97.4532 919 30.315
97.5704 969 31.1288
97.6877 898 29.9666
97.805 874 29.5635
97.9223 816 28.5657
98.0396 770 27.7489
98.1569 751 27.4044
98.2743 640 25.2982
98.3916 678 26.0384
98.509 689 26.2488
98.6264 784 28
98.7438 754 27.4591
98.8612 830 28.8097
98.9786 920 30.3315
99.096 956 30.9192
99.2134 839 28.9655
99.3308 948 30.7896
99.4482 952 30.8545
99.5656 888 29.7993
99.6831 962 31.0161
99.8005 945 30.7409
99.9179 911 30.1828
100.035 810 28.4605
100.153 840 28.9828
100.27 773 27.8029
100.388 759 27.55
100.505 731 27.037
100.622 806 28.3901
100.74 905 30.0832
100.857 920 30.3315
100.975 930 30.4959
101.092 891 29.8496
101.209 993 31.5119
101.327 910 30.1662
101.444 907 30.1164
101.561 879 29.6479
101.679 802 28.3196
101.796 714 26.7208
101.913 674 25.9615
102.03 726 26.9444
102.148 792 28.1425
102.265 858 29.2916
102.382 910 30.1662
102.499 949 30.8058
102.616 980 31.305
102.733 989 31.4484
102.851 1012 31.8119
102.968 1024 32
103.085 1017 31.8904
103.202 961 31
103.319 981 31.3209
103.436 983 31.3528
103.552 915 30.249
103.669 894 29.8998
103.786 837 28.931
103.903 759 27.55
104.02 786 28.0357
104.137 823 28.688
104.253 909 30.1496
104.37 994 31.5278
104.487 1034 32.1559
104.603 985 31.3847
104.72 1027 32.0468
104.836 941 30.6757
104.953 878 29.6311
105.069 813 28.5132
105.186 693 26.3249
105.302 689 26.2488
105.418 687 26.2107
105.535 667 25.8263
105.651 663 25.7488
105.767 667 25.8263
105.883 640 25.2982
105.999 620 24.8998
106.115 0 1
106.231 0 1
106.347 0 1
106.463 0 1
106.579 0 1
106.694 0 1
106.81 0 1
106.926 0 1
107.041 0 1
107.157 0 1
109.576 0 1
109.692 0 1
109.807 0 1
109.923 0 1
110.039 0 1
110.155 0 1
110.27 0 1
110.386 0 1
110.502 0 1
110.618 355 18.8414
110.735 483 21.9773
110.851 622 24.9399
110.967 649 25.4755
111.083 774 27.8209
111.199 844 29.0517
111.316 839 28.9655
111.432 913 30.2159
111.549 869 29.4788
111.665 952 30.8545
111.782 845 29.0689
111.898 894 29.8998
112.015 841 29
112.132 809 28.4429
112.248 780 27.9285
112.365 800 28.2843
112.482 684 26.1534
112.599 753 27.4408
112.716 785 28.0179
112.832 846 29.0861
112.949 930 30.4959
113.066 937 30.6105
113.183 889 29.8161
113.3 876 29.5973
113.417 877 29.6142
113.534 865 29.4109
113.652 722 26.8701
113.769 710 26.6458
113.886 705 26.5518
114.003 660 25.6905
114.12 689 26.2488
114.238 757 27.5136
114.355 808 28.4253
114.472 816 28.5657
114.589 893 29.8831
114.707 870 29.4958
114.824 961 31
114.942 911 30.1828
115.059 952 30.8545
115.176 880 29.6648
115.294 896 29.9333
115.411 863 29.3769
115.529 894 29.8998
115.646 833 28.8617
115.764 803 28.3373
115.881 752 27.4226
115.999 704 26.533
116.116 722 26.8701
116.234 718 26.7955
116.351 783 27.9821
116.469 893 29.8831
116.586 904 30.0666
116.704 822 28.6705
116.821 897 29.95
116.939 896 29.9333
117.056 864 29.3939
117.174 794 28.178
117.291 777 27.8747
117.409 736 27.1293
117.526 622 24.9399
117.644 675 25.9808
117.761 706 26.5707
117.879 811 28.4781
117.996 783 27.9821
118.114 835 28.8964
118.231 971 31.1609
118.349 893 29.8831
118.466 905 30.0832
118.584 913 30.2159
118.701 892 29.8664
118.819 912 30.1993
118.936 880 29.6648
119.053 862 29.3598
119.171 823 28.688
119.288 829 28.7924
119.405 799 28.2666
119.523 725 26.9258
119.64 733 27.074
119.757 730 27.0185
119.875 778 27.8927
119.992 826 28.7402
120.109 867 29.4449
120.226 880 29.6648
120.343 839 28.9655
120.46 869 29.4788
120.578 899 29.9833
120.695 822 28.6705
120.812 865 29.4109
120.929 774 27.8209
121.046 723 26.8887
121.163 641 25.318
121.279 644 25.3772
121.396 619 24.8797
121.513 701 26.4764
121.63 754 27.4591
121.747 720 26.8328
121.863 744 27.2764
121.98 730 27.0185
122.097 753 27.4408
122.213 769 27.7308
122.33 702 26.4953
122.446 659 25.671
122.563 668 25.8457
122.679 640 25.2982
122.795 537 23.1733
122.912 508 22.5389
123.028 499 22.3383
123.144 397 19.9249
123.26 387 19.6723
123.377 0 1
123.493 0 1
123.609 0 1
123.725 0 1
123.84 0 1
123.956 0 1
124.072 0 1
124.188 0 1
124.303 0 1
124.419 0 1
126.852 0 1
126.968 0 1
127.083 0 1
127.199 0 1
127.315 0 1
127.431 0 1
127.547 0 1
127.663 0 1
127.779 0 1
127.895 0 1
128.011 0 1
128.127 0 1
128.243 0 1
128.359 886 29.7658
128.476 958 30.9516
128.592 915 30.249
128.708 923 30.3809
128.825 936 30.5941
128.941 945 30.7409
129.058 949 30.8058
129.174 998 31.5911
129.291 1105 33.2415
129.408 1159 34.0441
129.524 1149 33.8969
129.641 1136 33.7046
129.758 1073 32.7567
129.875 1026 32.0312
129.992 955 30.9031
130.108 915 30.249
130.225 825 28.7228
130.342 814 28.5307
130.459 792 28.1425
130.576 909 30.1496
130.693 937 30.6105
130.81 980 31.305
130.928 1044 32.311
131.045 1053 32.45
131.162 1098 33.1361
131.279 1128 33.5857
131.396 1096 33.1059
131.513 1066 32.6497
131.631 1047 32.3574
131.748 1055 32.4808
131.865 1036 32.187
131.983 1050 32.4037
132.1 1002 31.6544
132.217 931 30.5123
132.335 907 30.1164
132.452 958 30.9516
132.57 1003 31.6702
132.687 1095 33.0908
132.804 1090 33.0151
132.922 1014 31.8434
133.039 1138 33.7343
133.157 1117 33.4215
133.274 1116 33.4066
133.392 1078 32.8329
133.509 977 31.257
133.627 918 30.2985
133.744 871 29.5127
133.862 866 29.4279
133.979 826 28.7402
134.097 886 29.7658
134.214 962 31.0161
134.332 966 31.0805
134.449 1007 31.7333
134.567 1015 31.8591
134.684 1106 33.2566
134.802 1079 32.8481
134.919 1158 34.0294
135.037 1110 33.3167
135.154 1063 32.6037
135.272 1009 31.7648
135.389 1032 32.1248
135.507 1031 32.1092
135.624 960 30.9839
135.742 916 30.2655
135.859 901 30.0167
135.977 881 29.6816
136.094 929 30.4795
136.211 1015 31.8591
136.329 1087 32.9697
136.446 1099 33.1512
136.564 1043 32.2955
136.681 1074 32.7719
136.798 1106 33.2566
136.915 1096 33.1059
137.033 1024 32
137.15 880 29.6648
137.267 896 29.9333
137.384 893 29.8831
137.502 839 28.9655
137.619 826 28.7402
137.736 919 30.315
137.853 892 29.8664
137.97 974 31.209
138.087 986 31.4006
138.204 1059 32.5423
138.321 1051 32.4191
138.438 1023 31.9844
138.555 1002 31.6544
138.672 1014 31.8434
138.788 978 31.273
138.905 950 30.8221
139.022 930 30.4959
139.139 887 29.7825
139.255 775 27.8388
139.372 701 26.4764
139.488 683 26.1343
139.605 672 25.923
139.721 652 25.5343
139.838 655 25.593
139.954 656 25.6125
140.071 665 25.7876
140.187 570 23.8747
140.303 552 23.4947
140.419 497 22.2935
140.535 479 21.8861
140.652 474 21.7715
140.768 0 1
140.884 0 1
141 0 1
141.115 0 1
141.231 0 1
141.347 0 1
141.463 0 1
141.578 0 1
141.694 0 1
144.104 0 1
144.219 0 1
144.335 0 1
144.45 0 1
144.566 0 1
144.682 0 1
144.798 0 1
144.914 0 1
145.03 0 1
145.146 586 24.2074
145.262 710 26.6458
145.378 744 27.2764
145.494 711 26.6646
145.61 728 26.9815
145.726 772 27.7849
145.842 735 27.1109
145.959 650 25.4951
146.075 622 24.9399
146.192 579 24.0624
146.308 599 24.4745
146.425 598 24.454
146.541 585 24.1868
146.658 613 24.7588
146.774 638 25.2587
146.891 659 25.671
147.008 688 26.2298
147.125 718 26.7955
147.241 723 26.8887
147.358 712 26.6833
147.475 742 27.2397
147.592 659 25.671
147.709 702 26.4953
147.826 659 25.671
147.943 651 25.5147
148.06 614 24.779
148.177 645 25.3969
148.294 630 25.0998
148.411 623 24.96
148.528 608 24.6577
148.645 689 26.2488
148.762 674 25.9615
148.88 722 26.8701
148.997 716 26.7582
149.114 694 26.3439
149.231 746 27.313
149.349 688 26.2298
149.466 704 26.533
149.583 628 25.0599
149.701 639 25.2784
149.818 603 24.5561
149.935 580 24.0832
150.053 560 23.6643
150.17 578 24.0416
150.287 597 24.4336
150.405 688 26.2298
150.522 671 25.9037
150.64 706 26.5707
150.757 662 25.7294
150.875 655 25.593
150.992 726 26.9444
151.11 711 26.6646
151.227 703 26.5141
151.344 630 25.0998
151.462 666 25.807
151.579 599 24.4745
151.697 587 24.2281
151.814 622 24.9399
151.932 585 24.1868
152.049 585 24.1868
152.167 639 25.2784
152.284 638 25.2587
152.402 683 26.1343
152.519 655 25.593
152.636 669 25.865
152.754 725 26.9258
152.871 633 25.1595
152.989 669 25.865
153.106 605 24.5967
153.223 516 22.7156
153.341 575 23.9792
153.458 543 23.3024
153.575 591 24.3105
153.693 560 23.6643
153.81 582 24.1247
153.927 579 24.0624
154.044 610 24.6982
154.162 610 24.6982
154.279 589 24.2693
154.396 633 25.1595
154.513 629 25.0799
154.63 621 24.9199
154.747 632 25.1396
154.864 635 25.1992
154.981 649 25.4755
155.098 632 25.1396
155.215 624 24.98
155.332 578 24.0416
155.449 551 23.4734
155.566 554 23.5372
155.683 594 24.3721
155.8 582 24.1247
155.917 598 24.454
156.033 611 24.7184
156.15 0 1
156.267 0 1
156.383 0 1
156.5 0 1
156.617 0 1
156.733 0 1
156.85 0 1
156.966 0 1
157.082 0 1
157.199 0 1
157.315 0 1
157.431 0 1
157.547 0 1
157.664 0 1
157.78 0 1
157.896 0 1
158.012 0 1
158.128 0 1
158.244 0 1
158.359 0 1
158.475 0 1
158.591 0 1
158.706 0 1
