
6.15755 0 1
6.2731 0 1
6.3887 0 1
6.50437 0 1
6.62009 0 1
6.73587 0 1
6.8517 0 1
6.96759 0 1
7.08353 0 1
7.19952 0 1
7.31557 0 1
7.43166 0 1
7.54781 0 1
7.664 0 1
7.78024 0 1
7.89653 0 1
8.01286 0 1
8.12924 0 1
8.24567 0 1
8.36213 0 1
8.47864 0 1
8.59519 0 1
8.71178 0 1
8.82841 0 1
8.94508 0 1
9.06179 0 1
9.17853 0 1
9.29531 0 1
9.41212 0 1
9.52897 0 1
9.64584 0 1
9.76276 0 1
9.8797 0 1
9.99667 0 1
10.1137 0 1
10.2307 0 1
10.3478 0 1
10.4648 0 1
10.5819 0 1
10.6991 0 1
10.8162 0 1
10.9334 0 1
11.0506 0 1
11.1678 0 1
11.285 0 1
11.4023 0 1
11.5196 0 1
11.6369 0 1
11.7542 0 1
11.8715 0 1
11.9888 0 1
12.1062 0 1
12.2235 0 1
12.3409 0 1
12.4582 0 1
12.5756 0 1
12.693 0 1
12.8104 0 1
12.9278 0 1
13.0452 0 1
13.1626 0 1
13.28 0 1
13.3974 0 1
13.5149 0 1
13.6323 0 1
13.7497 0 1
13.8671 0 1
13.9845 0 1
14.1019 0 1
14.2193 0 1
14.3367 0 1
14.4541 0 1
14.5714 0 1
14.6888 0 1
14.8062 0 1
14.9235 0 1
15.0408 0 0
15.1581 0 0
15.2755 0 0
15.3927 0 0
15.51 0 0
15.6273 0 0
15.7445 0 0
15.8617 0 0
15.9789 0 0
16.0961 0 0
16.2132 0 0
16.3304 0 0
16.4475 0 0
16.5646 0 0
16.6816 0 0
16.7986 0 0
16.9156 0 0
17.0326 0 0
17.1496 0 0
17.2665 0 0
17.3833 0 0
17.5002 0 0
17.617 0 0
17.7338 0 0
17.8505 0 0
17.9672 0 0
18.0839 0 0
18.2005 0 0
18.3171 0 0
18.4337 0 0
18.5502 0 0
18.6666 0 0
18.7831 0 0
18.8994 0 0
19.0158 0 0
19.1321 0 0
19.2483 0 0
19.3645 0 0
19.4806 0 0
19.5967 0 0
19.7128 0 0
19.8288 0 0
19.9447 0 0
20.0606 0 1
20.1764 0 1
20.2922 0 1
20.4079 0 1
20.5236 0 1
20.6392 0 1
20.7548 0 1
20.8702 0 1
23.3078 0 1
23.4233 0 1
23.539 0 1
23.6547 0 1
23.7704 0 1
23.8862 0 1
24.0021 0 1
24.118 0 1
24.234 0 1
24.35 0 1
24.4661 1959 44.2606
24.5822 1875 43.3013
24.6984 1856 43.0813
24.8146 1771 42.0833
24.9309 1690 41.1096
25.0472 1674 40.9145
25.1636 1578 39.724
25.28 1681 41
25.3965 1779 42.1782
25.513 1932 43.9545
25.6296 2117 46.0109
25.7462 2250 47.4342
25.8628 2381 48.7955
25.9795 2297 47.927
26.0962 2316 48.1248
26.213 2356 48.5386
26.3298 2263 47.571
26.4466 2299 47.9479
26.5635 2395 48.9387
26.6804 2297 47.927
26.7973 2262 47.5605
26.9143 2334 48.3115
27.0313 2240 47.3286
27.1483 2225 47.1699
27.2653 2197 46.8722
27.3824 2323 48.1975
27.4996 2254 47.4763
27.6167 2261 47.55
27.7339 2111 45.9456
27.8511 2055 45.3321
27.9683 2003 44.7549
28.0855 1923 43.852
28.2028 1908 43.6807
28.3201 1757 41.9166
28.4374 1677 40.9512
28.5547 1442 37.9737
28.6721 1387 37.2424
28.7894 1508 38.833
28.9068 1653 40.6571
29.0242 1737 41.6773
29.1416 1872 43.2666
29.259 2128 46.1303
29.3764 2213 47.0425
29.4939 2147 46.3357
29.6113 2187 46.7654
29.7288 2185 46.744
29.8463 2128 46.1303
29.9638 2180 46.6905
30.0812 2123 46.076
30.1987 2167 46.551
30.3162 2170 46.5833
30.4337 2186 46.7547
30.5512 2159 46.465
30.6687 2059 45.3762
30.7862 2167 46.551
30.9037 2205 46.9574
31.0212 2192 46.8188
31.1387 2111 45.9456
31.2562 2112 45.9565
31.3737 2044 45.2106
31.4912 1882 43.382
31.6087 1861 43.1393
31.7262 1838 42.8719
31.8436 1754 41.8808
31.9611 1555 39.4335
32.0785 1382 37.1753
32.1959 1365 36.9459
32.3134 1481 38.4838
32.4308 1568 39.598
32.5482 1601 40.0125
32.6655 1865 43.1856
32.7829 1958 44.2493
32.9002 2122 46.0652
33.0176 2188 46.7761
33.1349 2215 47.0638
33.2522 2098 45.8039
33.3694 2090 45.7165
33.4867 2109 45.9239
33.6039 2151 46.3789
33.7211 2197 46.8722
33.8383 2113 45.9674
33.9554 2102 45.8476
34.0725 2103 45.8585
34.1896 2045 45.2217
34.3067 2130 46.1519
34.4237 2095 45.7712
34.5407 2163 46.5081
34.6577 2045 45.2217
34.7746 2096 45.7821
34.8915 1969 44.3734
35.0084 2036 45.1221
35.1252 1852 43.0349
35.242 1779 42.1782
35.3587 1761 41.9643
35.4755 1725 41.5331
35.5921 1479 38.4578
35.7088 1421 37.6962
35.8254 1326 36.4143
35.9419 1218 34.8999
36.0584 1302 36.0832
36.1749 1522 39.0128
36.2913 1563 39.5348
36.4077 1727 41.5572
36.524 1857 43.0929
36.6403 2025 45
36.7565 2055 45.3321
36.8727 2040 45.1664
36.9889 1961 44.2832
37.1049 1961 44.2832
37.221 0 1
37.3369 0 1
37.4529 0 1
37.5687 0 1
37.6845 0 1
37.8003 0 1
37.916 0 1
38.0316 0 1
38.1472 0 1
40.5851 0 1
40.7008 0 1
40.8164 0 1
40.9322 0 1
41.048 0 1
41.1639 0 1
41.2798 0 1
41.3958 0 1
41.5118 0 1
41.6279 0 1
41.744 1442 37.9737
41.8602 1431 37.8286
41.9765 1583 39.7869
42.0928 1661 40.7554
42.2091 1712 41.3763
42.3255 1625 40.3113
42.4419 1686 41.0609
42.5584 1656 40.694
42.675 1634 40.4228
42.7915 1565 39.5601
42.9081 1549 39.3573
43.0248 1606 40.0749
43.1415 1508 38.833
43.2582 1628 40.3485
43.375 1482 38.4968
43.4918 1539 39.2301
43.6087 1583 39.7869
43.7256 1402 37.4433
43.8425 1352 36.7696
43.9595 1371 37.027
44.0765 1344 36.6606
44.1935 1252 35.3836
44.3106 1071 32.7261
44.4277 984 31.3688
44.5448 942 30.692
44.6619 792 28.1425
44.7791 802 28.3196
44.8963 811 28.4781
45.0136 851 29.1719
45.1308 969 31.1288
45.2481 1097 33.121
45.3654 1096 33.1059
45.4827 1201 34.6554
45.6001 1212 34.8138
45.7174 1177 34.3074
45.8348 1161 34.0735
45.9522 1119 33.4515
46.0697 1106 33.2566
46.1871 1076 32.8024
46.3046 1060 32.5576
46.422 1063 32.6037
46.5395 1028 32.0624
46.657 1027 32.0468
46.7745 1001 31.6386
46.892 991 31.4802
47.0096 999 31.607
47.1271 955 30.9031
47.2446 902 30.0333
47.3622 951 30.8383
47.4797 868 29.4618
47.5973 844 29.0517
47.7149 763 27.6225
47.8324 737 27.1477
47.95 740 27.2029
48.0675 642 25.3377
48.1851 552 23.4947
48.3027 566 23.7908
48.4202 566 23.7908
48.5378 584 24.1661
48.6554 646 25.4165
48.7729 729 27
48.8904 813 28.5132
49.008 791 28.1247
49.1255 817 28.5832
49.243 827 28.7576
49.3605 837 28.931
49.478 824 28.7054
49.5955 830 28.8097
49.713 783 27.9821
49.8304 819 28.6182
49.9479 823 28.688
50.0653 916 30.2655
50.1827 881 29.6816
50.3001 900 30
50.4175 926 30.4302
50.5348 933 30.545
50.6521 1002 31.6544
50.7694 967 31.0966
50.8867 987 31.4166
51.004 922 30.3645
51.1212 991 31.4802
51.2384 890 29.8329
51.3556 859 29.3087
51.4727 856 29.2575
51.5899 769 27.7308
51.707 696 26.3818
51.824 682 26.1151
51.9411 692 26.3059
52.0581 864 29.3939
52.175 1003 31.6702
52.2919 1113 33.3617
52.4088 1356 36.8239
52.5257 1298 36.0278
52.6425 1417 37.6431
52.7593 1415 37.6165
52.876 1347 36.7015
52.9927 1469 38.3275
53.1094 1491 38.6135
53.226 1523 39.0256
53.3426 1590 39.8748
53.4591 1545 39.3065
53.5756 1580 39.7492
53.692 1606 40.0749
53.8084 1555 39.4335
53.9248 1562 39.5221
54.0411 1675 40.9268
54.1573 1617 40.2119
54.2735 0 1
54.3896 0 1
54.5057 0 1
54.6217 0 1
54.7377 0 1
54.8537 0 1
54.9695 0 1
55.0853 0 1
55.2011 0 1
55.3168 0 1
55.4324 0 1
57.824 0 1
57.9396 0 1
58.0553 0 1
58.1711 0 1
58.2869 0 1
58.4028 0 1
58.5187 0 1
58.6347 0 1
58.7508 0 1
58.8669 0 1
58.983 1873 43.2782
59.0992 1980 44.4972
59.2155 1977 44.4635
59.3318 1898 43.566
59.4482 1914 43.7493
59.5646 1885 43.4166
59.681 1805 42.4853
59.7975 1800 42.4264
59.9141 1779 42.1782
60.0306 1657 40.7063
60.1473 1461 38.223
60.2639 1248 35.327
60.3807 1080 32.8634
60.4974 1002 31.6544
60.6142 1056 32.4962
60.731 1193 34.5398
60.8479 1272 35.6651
60.9648 1439 37.9342
61.0818 1626 40.3237
61.1987 1629 40.3609
61.3158 1718 41.4488
61.4328 1732 41.6173
61.5499 1730 41.5933
61.667 1800 42.4264
61.7841 1734 41.6413
61.9013 1703 41.2674
62.0185 1707 41.3159
62.1357 1656 40.694
62.253 1663 40.7799
62.3702 1733 41.6293
62.4875 1696 41.1825
62.6049 1735 41.6533
62.7222 1739 41.7013
62.8396 1769 42.0595
62.9569 1714 41.4005
63.0743 1716 41.4246
63.1918 1613 40.1622
63.3092 1569 39.6106
63.4267 1528 39.0896
63.5441 1402 37.4433
63.6616 1216 34.8712
63.7791 1072 32.7414
63.8966 901 30.0167
64.0142 843 29.0345
64.1317 891 29.8496
64.2492 1017 31.8904
64.3668 1208 34.7563
64.4843 1333 36.5103
64.6019 1448 38.0526
64.7195 1463 38.2492
64.837 1563 39.5348
64.9546 1569 39.6106
65.0722 1560 39.4968
65.1898 1535 39.1791
65.3074 1583 39.7869
65.4249 1481 38.4838
65.5425 1468 38.3145
65.6601 1533 39.1535
65.7777 1528 39.0896
65.8952 1607 40.0874
66.0128 1512 38.8844
66.1304 1597 39.9625
66.2479 1616 40.1995
66.3655 1539 39.2301
66.483 1579 39.7366
66.6005 1633 40.4104
66.718 1519 38.9744
66.8355 1524 39.0384
66.953 1518 38.9615
67.0705 1478 38.4448
67.1879 1280 35.7771
67.3054 1245 35.2846
67.4228 996 31.5595
67.5402 868 29.4618
67.6576 757 27.5136
67.7749 839 28.9655
67.8923 883 29.7153
68.0096 1123 33.5112
68.1269 1289 35.9026
68.2442 1354 36.7967
68.3614 1507 38.8201
68.4787 1584 39.7995
68.5958 1572 39.6485
68.713 1543 39.281
68.8302 1649 40.6079
68.9473 1608 40.0999
69.0643 1569 39.6106
69.1814 1597 39.9625
69.2984 1604 40.05
69.4154 1591 39.8873
69.5323 1563 39.5348
69.6492 1707 41.3159
69.7661 1765 42.0119
69.8829 1723 41.509
69.9997 1814 42.5911
70.1165 1696 41.1825
70.2332 1704 41.2795
70.3499 1745 41.7732
70.4665 1814 42.5911
70.5831 1738 41.6893
70.6996 1636 40.4475
70.8161 1588 39.8497
70.9326 1442 37.9737
71.049 1260 35.4965
71.1653 983 31.3528
71.2817 793 28.1603
71.3979 770 27.7489
71.5141 835 28.8964
71.6303 991 31.4802
71.7464 1000 31.6228
71.8624 0 1
71.9784 0 1
72.0944 0 1
72.2102 0 1
72.3261 0 1
72.4418 0 1
72.5575 0 1
72.6732 0 1
75.1054 0 1
75.2209 0 1
75.3365 0 1
75.4521 0 1
75.5678 0 1
75.6835 0 1
75.7993 0 1
75.9151 0 1
76.031 0 1
76.147 1338 36.5787
76.263 1504 38.7814
76.3791 1292 35.9444
76.4952 1195 34.5688
76.6113 878 29.6311
76.7276 815 28.5482
76.8438 877 29.6142
76.9601 1012 31.8119
77.0765 1151 33.9264
77.1929 1440 37.9473
77.3093 1648 40.5956
77.4258 1766 42.0238
77.5423 1721 41.4849
77.6589 1659 40.7308
77.7755 1629 40.3609
77.8921 1724 41.5211
78.0088 1727 41.5572
78.1256 1736 41.6653
78.2423 1698 41.2068
78.3591 1645 40.5586
78.4759 1661 40.7554
78.5928 1641 40.5093
78.7097 1629 40.3609
78.8266 1582 39.7744
78.9436 1751 41.845
79.0606 1665 40.8044
79.1776 1682 41.0122
79.2946 1652 40.6448
79.4117 1702 41.2553
79.5288 1591 39.8873
79.6459 1580 39.7492
79.7631 1645 40.5586
79.8802 1485 38.5357
79.9974 1270 35.6371
80.1147 1069 32.6956
80.2319 850 29.1548
80.3491 755 27.4773
80.4664 686 26.1916
80.5837 914 30.2324
80.701 1074 32.7719
80.8183 1299 36.0416
80.9357 1477 38.4318
81.053 1495 38.6652
81.1704 1456 38.1576
81.2877 1492 38.6264
81.4051 1488 38.5746
81.5225 1477 38.4318
81.6399 1516 38.9358
81.7573 1480 38.4708
81.8747 1421 37.6962
81.9922 1421 37.6962
82.1096 1485 38.5357
82.227 1453 38.1182
82.3444 1469 38.3275
82.4619 1527 39.0768
82.5793 1503 38.7685
82.6967 1437 37.9078
82.8142 1469 38.3275
82.9316 1516 38.9358
83.049 1365 36.9459
83.1664 1480 38.4708
83.2838 1407 37.51
83.4012 1305 36.1248
83.5186 1226 35.0143
83.636 1160 34.0588
83.7534 959 30.9677
83.8708 737 27.1477
83.9881 570 23.8747
84.1055 603 24.5561
84.2228 714 26.7208
84.3401 886 29.7658
84.4575 1045 32.3265
84.5747 1271 35.6511
84.692 1415 37.6165
84.8093 1235 35.1426
84.9265 1345 36.6742
85.0437 1463 38.2492
85.1609 1373 37.054
85.2781 1373 37.054
85.3952 1382 37.1753
85.5123 1394 37.3363
85.6294 1367 36.973
85.7465 1422 37.7094
85.8636 1408 37.5233
85.9806 1483 38.5097
86.0976 1473 38.3797
86.2145 1487 38.5616
86.3315 1599 39.9875
86.4484 1479 38.4578
86.5652 1603 40.0375
86.682 1580 39.7492
86.7988 1472 38.3667
86.9156 1492 38.6264
87.0323 1536 39.1918
87.149 1414 37.6032
87.2657 1276 35.7211
87.3823 1035 32.1714
87.4988 865 29.4109
87.6154 766 27.6767
87.7318 857 29.2746
87.8483 1020 31.9374
87.9647 1281 35.7911
88.081 1453 38.1182
88.1973 1620 40.2492
88.3136 1692 41.1339
88.4298 1644 40.5463
88.546 1679 40.9756
88.6621 1677 40.9512
88.7781 1606 40.0749
88.8942 0 1
89.0101 0 1
89.126 0 1
89.2419 0 1
89.3577 0 1
89.4734 0 1
89.5891 0 1
89.7047 0 1
89.8203 0 1
89.9358 0 1
92.3269 0 1
92.4424 0 1
92.558 0 1
92.6736 0 1
92.7893 0 1
92.905 0 1
93.0208 0 1
93.1366 0 1
93.2525 0 1
93.3685 0 1
93.4845 0 1
93.6005 1466 38.2884
93.7167 1662 40.7676
93.8328 1741 41.7253
93.949 1738 41.6893
94.0653 1665 40.8044
94.1816 1664 40.7922
94.2979 1638 40.4722
94.4143 1703 41.2674
94.5307 1597 39.9625
94.6472 1647 40.5832
94.7637 1690 41.1096
94.8803 1680 40.9878
94.9969 1722 41.497
95.1135 1719 41.4608
95.2302 1727 41.5572
95.3469 1728 41.5692
95.4637 1722 41.497
95.5805 1717 41.4367
95.6973 1828 42.7551
95.8142 1814 42.5911
95.9311 1778 42.1663
96.048 1657 40.7063
96.1649 1607 40.0874
96.2819 1580 39.7492
96.3989 1484 38.5227
96.516 1342 36.6333
96.633 1138 33.7343
96.7501 896 29.9333
96.8673 821 28.6531
96.9844 888 29.7993
97.1016 1089 33
97.2188 1269 35.623
97.336 1447 38.0395
97.4532 1603 40.0375
97.5704 1618 40.2244
97.6877 1641 40.5093
97.805 1754 41.8808
97.9223 1644 40.5463
98.0396 1612 40.1497
98.1569 1578 39.724
98.2743 1642 40.5216
98.3916 1551 39.3827
98.509 1702 41.2553
98.6264 1613 40.1622
98.7438 1648 40.5956
98.8612 1583 39.7869
98.9786 1647 40.5832
99.096 1651 40.6325
99.2134 1725 41.5331
99.3308 1770 42.0714
99.4482 1686 41.0609
99.5656 1740 41.7133
99.6831 1663 40.7799
99.8005 1618 40.2244
99.9179 1568 39.598
100.035 1438 37.921
100.153 1233 35.1141
100.27 1051 32.4191
100.388 885 29.7489
100.505 868 29.4618
100.622 1078 32.8329
100.74 1282 35.805
100.857 1480 38.4708
100.975 1620 40.2492
101.092 1575 39.6863
101.209 1650 40.6202
101.327 1642 40.5216
101.444 1670 40.8656
101.561 1673 40.9023
101.679 1721 41.4849
101.796 1671 40.8779
101.913 1646 40.5709
102.03 1651 40.6325
102.148 1706 41.3038
102.265 1685 41.0488
102.382 1700 41.2311
102.499 1698 41.2068
102.616 1708 41.328
102.733 1764 42
102.851 1772 42.0951
102.968 1759 41.9404
103.085 1778 42.1663
103.202 1761 41.9643
103.319 1756 41.9047
103.436 1602 40.025
103.552 1571 39.6358
103.669 1387 37.2424
103.786 1244 35.2704
103.903 989 31.4484
104.02 1003 31.6702
104.137 1133 33.6601
104.253 1404 37.47
104.37 1587 39.8372
104.487 1670 40.8656
104.603 1846 42.9651
104.72 1782 42.2137
104.836 1842 42.9185
104.953 1763 41.9881
105.069 1785 42.2493
105.186 1903 43.6234
105.302 1883 43.3935
105.418 1854 43.0581
105.535 1835 42.8369
105.651 1870 43.2435
105.767 1890 43.4741
105.883 1917 43.7836
105.999 1993 44.643
106.115 0 1
106.231 0 1
106.347 0 1
106.463 0 1
106.579 0 1
106.694 0 1
106.81 0 1
106.926 0 1
107.041 0 1
107.157 0 1
109.576 0 1
109.692 0 1
109.807 0 1
109.923 0 1
110.039 0 1
110.155 0 1
110.27 0 1
110.386 0 1
110.502 0 1
110.618 1815 42.6028
110.735 1924 43.8634
110.851 1953 44.1928
110.967 1955 44.2154
111.083 1900 43.589
111.199 1957 44.238
111.316 1914 43.7493
111.432 2040 45.1664
111.549 2003 44.7549
111.665 1911 43.715
111.782 1908 43.6807
111.898 1807 42.5088
112.015 1812 42.5676
112.132 1587 39.8372
112.248 1446 38.0263
112.365 1154 33.9706
112.482 1000 31.6228
112.599 1144 33.8231
112.716 1206 34.7275
112.832 1415 37.6165
112.949 1701 41.2432
113.066 1817 42.6263
113.183 1731 41.6053
113.3 1858 43.1045
113.417 1754 41.8808
113.534 1727 41.5572
113.652 1786 42.2611
113.769 1831 42.7902
113.886 1767 42.0357
114.003 1859 43.1161
114.12 1805 42.4853
114.238 1901 43.6005
114.355 1803 42.4617
114.472 1897 43.5546
114.589 1978 44.4747
114.707 1949 44.1475
114.824 1975 44.441
114.942 1989 44.5982
115.059 2057 45.3542
115.176 2015 44.8888
115.294 2056 45.3431
115.411 1950 44.1588
115.529 1985 44.5533
115.646 1830 42.7785
115.764 1846 42.9651
115.881 1539 39.2301
115.999 1364 36.9324
116.116 1299 36.0416
116.234 1345 36.6742
116.351 1592 39.8999
116.469 1866 43.1972
116.586 2035 45.111
116.704 2038 45.1442
116.821 2027 45.0222
116.939 2135 46.2061
117.056 2078 45.5851
117.174 2132 46.1736
117.291 2041 45.1774
117.409 2153 46.4004
117.526 2084 45.6508
117.644 2018 44.9222
117.761 2146 46.3249
117.879 2068 45.4753
117.996 2099 45.8148
118.114 2170 46.5833
118.231 2222 47.1381
118.349 2215 47.0638
118.466 2258 47.5184
118.584 2284 47.7912
118.701 2292 47.8748
118.819 2204 46.9468
118.936 2089 45.7056
119.053 2058 45.3652
119.171 2069 45.4863
119.288 1958 44.2493
119.405 1731 41.6053
119.523 1565 39.5601
119.64 1410 37.55
119.757 1345 36.6742
119.875 1563 39.5348
119.992 1607 40.0874
120.109 1876 43.3128
120.226 2032 45.0777
120.343 2041 45.1774
120.46 2006 44.7884
120.578 2014 44.8776
120.695 2197 46.8722
120.812 2023 44.9778
120.929 2170 46.5833
121.046 2102 45.8476
121.163 2102 45.8476
121.279 2076 45.5631
121.396 2082 45.6289
121.513 2026 45.0111
121.63 2152 46.3897
121.747 2063 45.4203
121.863 2127 46.1194
121.98 2199 46.8935
122.097 2158 46.4543
122.213 2245 47.3814
122.33 2200 46.9042
122.446 2077 45.5741
122.563 2147 46.3357
122.679 2043 45.1996
122.795 2011 44.8442
122.912 1937 44.0114
123.028 1831 42.7902
123.144 1715 41.4126
123.26 1539 39.2301
123.377 0 1
123.493 0 1
123.609 0 1
123.725 0 1
123.84 0 1
123.956 0 1
124.072 0 1
124.188 0 1
124.303 0 1
124.419 0 1
126.852 0 1
126.968 0 1
127.083 0 1
127.199 0 1
127.315 0 1
127.431 0 1
127.547 0 1
127.663 0 1
127.779 0 1
127.895 0 1
128.011 0 1
128.127 0 1
128.243 0 1
128.359 1852 43.0349
128.476 1715 41.4126
128.592 1528 39.0896
128.708 1492 38.6264
128.825 1675 40.9268
128.941 1760 41.9524
129.058 1978 44.4747
129.174 2164 46.5188
129.291 2241 47.3392
129.408 2233 47.2546
129.524 2137 46.2277
129.641 2194 46.8402
129.758 2331 48.2804
129.875 2222 47.1381
129.992 2207 46.9787
130.108 2197 46.8722
130.225 2121 46.0543
130.342 2095 45.7712
130.459 2024 44.9889
130.576 2154 46.4112
130.693 2214 47.0532
130.81 2167 46.551
130.928 2202 46.9255
131.045 2292 47.8748
131.162 2326 48.2286
131.279 2304 48
131.396 2304 48
131.513 2244 47.3709
131.631 2216 47.0744
131.748 2096 45.7821
131.865 1998 44.699
131.983 1932 43.9545
132.1 1714 41.4005
132.217 1548 39.3446
132.335 1642 40.5216
132.452 1860 43.1277
132.57 2012 44.8553
132.687 2136 46.2169
132.804 2297 47.927
132.922 2267 47.613
133.039 2224 47.1593
133.157 2328 48.2494
133.274 2242 47.3498
133.392 2241 47.3392
133.509 2235 47.2758
133.627 2205 46.9574
133.744 2199 46.8935
133.862 2228 47.2017
133.979 2139 46.2493
134.097 2168 46.5618
134.214 2115 45.9891
134.332 2263 47.571
134.449 2206 46.9681
134.567 2144 46.3033
134.684 2206 46.9681
134.802 2264 47.5815
134.919 2235 47.2758
135.037 2224 47.1593
135.154 2126 46.1086
135.272 2048 45.2548
135.389 2002 44.7437
135.507 1882 43.382
135.624 1702 41.2553
135.742 1562 39.5221
135.859 1623 40.2865
135.977 1740 41.7133
136.094 1856 43.0813
136.211 2104 45.8694
136.329 2192 46.8188
136.446 2164 46.5188
136.564 2184 46.7333
136.681 2297 47.927
136.798 2297 47.927
136.915 2249 47.4236
137.033 2252 47.4552
137.15 2212 47.0319
137.267 2092 45.7384
137.384 2053 45.31
137.502 2047 45.2438
137.619 2131 46.1628
137.736 2115 45.9891
137.853 2089 45.7056
137.97 2239 47.3181
138.087 2033 45.0888
138.204 2190 46.7974
138.321 2156 46.4327
138.438 2232 47.244
138.555 2356 48.5386
138.672 2132 46.1736
138.788 2231 47.2335
138.905 1999 44.7102
139.022 1924 43.8634
139.139 1933 43.9659
139.255 1772 42.0951
139.372 1683 41.0244
139.488 1716 41.4246
139.605 1828 42.7551
139.721 2017 44.911
139.838 2123 46.076
139.954 2172 46.6047
140.071 2272 47.6655
140.187 2233 47.2546
140.303 2234 47.2652
140.419 2188 46.7761
140.535 2190 46.7974
140.652 2146 46.3249
140.768 0 1
140.884 0 1
141 0 1
141.115 0 1
141.231 0 1
141.347 0 1
141.463 0 1
141.578 0 1
141.694 0 1
144.104 0 1
144.219 0 1
144.335 0 1
144.45 0 1
144.566 0 1
144.682 0 1
144.798 0 1
144.914 0 1
145.03 0 1
145.146 1593 39.9124
145.262 1805 42.4853
145.378 1711 41.3642
145.494 1804 42.4735
145.61 1795 42.3674
145.726 1803 42.4617
145.842 1746 41.7852
145.959 1666 40.8167
146.075 1684 41.0366
146.192 1667 40.8289
146.308 1624 40.2989
146.425 1692 41.1339
146.541 1657 40.7063
146.658 1677 40.9512
146.774 1795 42.3674
146.891 1710 41.3521
147.008 1869 43.2319
147.125 1818 42.638
147.241 1868 43.2204
147.358 1866 43.1972
147.475 1926 43.8862
147.592 1834 42.8252
147.709 1841 42.9069
147.826 1785 42.2493
147.943 1769 42.0595
148.06 1615 40.1871
148.177 1488 38.5746
148.294 1487 38.5616
148.411 1509 38.8458
148.528 1651 40.6325
148.645 1859 43.1161
148.762 1901 43.6005
148.88 1920 43.8178
148.997 1949 44.1475
149.114 1981 44.5084
149.231 1936 44
149.349 1966 44.3396
149.466 1934 43.9773
149.583 1915 43.7607
149.701 1803 42.4617
149.818 1710 41.3521
149.935 1743 41.7493
150.053 1732 41.6173
150.17 1774 42.1189
150.287 1798 42.4028
150.405 1818 42.638
150.522 1831 42.7902
150.64 1872 43.2666
150.757 1974 44.4297
150.875 1973 44.4185
150.992 1991 44.6206
151.11 1956 44.2267
151.227 2021 44.9555
151.344 1901 43.6005
151.462 1864 43.1741
151.579 1887 43.4396
151.697 1741 41.7253
151.814 1638 40.4722
151.932 1627 40.3361
152.049 1656 40.694
152.167 1700 41.2311
152.284 1850 43.0116
152.402 1871 43.2551
152.519 1893 43.5086
152.636 1986 44.5646
152.754 1857 43.0929
152.871 1994 44.6542
152.989 1934 43.9773
153.106 1934 43.9773
153.223 1921 43.8292
153.341 1917 43.7836
153.458 1789 42.2966
153.575 1712 41.3763
153.693 1734 41.6413
153.81 1711 41.3642
153.927 1774 42.1189
154.044 1860 43.1277
154.162 1881 43.3705
154.279 1871 43.2551
154.396 2040 45.1664
154.513 1986 44.5646
154.63 2015 44.8888
154.747 2085 45.6618
154.864 2095 45.7712
154.981 2073 45.5302
155.098 1940 44.0454
155.215 1969 44.3734
155.332 1848 42.9884
155.449 1797 42.391
155.566 1904 43.6348
155.683 1915 43.7607
155.8 1986 44.5646
155.917 2054 45.3211
156.033 2144 46.3033
156.15 0 1
156.267 0 1
156.383 0 1
156.5 0 1
156.617 0 1
156.733 0 1
156.85 0 1
156.966 0 1
157.082 0 1
157.199 0 1
157.315 0 1
157.431 0 1
157.547 0 1
157.664 0 1
157.78 0 1
157.896 0 1
158.012 0 1
158.128 0 1
158.244 0 1
158.359 0 1
158.475 0 1
158.591 0 1
158.706 0 1
