
6.15755 0 1
6.2731 0 1
6.3887 0 1
6.50437 0 1
6.62009 0 1
6.73587 0 1
6.8517 0 1
6.96759 0 1
7.08353 0 1
7.19952 0 1
7.31557 0 1
7.43166 0 1
7.54781 0 1
7.664 0 1
7.78024 0 1
7.89653 0 1
8.01286 0 1
8.12924 0 1
8.24567 0 1
8.36213 0 1
8.47864 0 1
8.59519 0 1
8.71178 0 1
8.82841 0 1
8.94508 0 1
9.06179 0 1
9.17853 0 1
9.29531 0 1
9.41212 0 1
9.52897 0 1
9.64584 0 1
9.76276 0 1
9.8797 0 1
9.99667 0 1
10.1137 0 1
10.2307 0 1
10.3478 0 1
10.4648 0 1
10.5819 0 1
10.6991 0 1
10.8162 0 1
10.9334 0 1
11.0506 0 1
11.1678 0 1
11.285 0 1
11.4023 0 1
11.5196 0 1
11.6369 0 1
11.7542 0 1
11.8715 0 1
11.9888 0 1
12.1062 0 1
12.2235 0 1
12.3409 0 1
12.4582 0 1
12.5756 0 1
12.693 0 1
12.8104 0 1
12.9278 0 1
13.0452 0 1
13.1626 0 1
13.28 0 1
13.3974 0 1
13.5149 0 1
13.6323 0 1
13.7497 0 1
13.8671 0 1
13.9845 0 1
14.1019 0 1
14.2193 0 1
14.3367 0 1
14.4541 0 1
14.5714 0 1
14.6888 0 1
14.8062 0 1
14.9235 0 1
15.0408 0 0
15.1581 0 0
15.2755 0 0
15.3927 0 0
15.51 0 0
15.6273 0 0
15.7445 0 0
15.8617 0 0
15.9789 0 0
16.0961 0 0
16.2132 0 0
16.3304 0 0
16.4475 0 0
16.5646 0 0
16.6816 0 0
16.7986 0 0
16.9156 0 0
17.0326 0 0
17.1496 0 0
17.2665 0 0
17.3833 0 0
17.5002 0 0
17.617 0 0
17.7338 0 0
17.8505 0 0
17.9672 0 0
18.0839 0 0
18.2005 0 0
18.3171 0 0
18.4337 0 0
18.5502 0 0
18.6666 0 0
18.7831 0 0
18.8994 0 0
19.0158 0 0
19.1321 0 0
19.2483 0 0
19.3645 0 0
19.4806 0 0
19.5967 0 0
19.7128 0 0
19.8288 0 0
19.9447 0 0
20.0606 0 1
20.1764 0 1
20.2922 0 1
20.4079 0 1
20.5236 0 1
20.6392 0 1
20.7548 0 1
20.8702 0 1
23.3078 0 1
23.4233 0 1
23.539 0 1
23.6547 0 1
23.7704 0 1
23.8862 0 1
24.0021 0 1
24.118 0 1
24.234 0 1
24.35 0 1
24.4661 2475 49.7494
24.5822 2547 50.4678
24.6984 2459 49.5883
24.8146 2495 49.95
24.9309 2473 49.7293
25.0472 2413 49.1223
25.1636 2404 49.0306
25.28 2417 49.163
25.3965 2463 49.6286
25.513 2672 51.6914
25.6296 2711 52.0673
25.7462 2847 53.3573
25.8628 2840 53.2917
25.9795 2897 53.8238
26.0962 2836 53.2541
26.213 2916 54
26.3298 2827 53.1695
26.4466 2771 52.6403
26.5635 2818 53.0848
26.6804 2774 52.6688
26.7973 2743 52.3737
26.9143 2654 51.517
27.0313 2656 51.5364
27.1483 2709 52.0481
27.2653 2824 53.1413
27.3824 2787 52.792
27.4996 2833 53.2259
27.6167 2837 53.2635
27.7339 2783 52.7541
27.8511 2735 52.2972
27.9683 2611 51.0979
28.0855 2547 50.4678
28.2028 2543 50.4282
28.3201 2524 50.2394
28.4374 2391 48.8979
28.5547 2346 48.4355
28.6721 2330 48.2701
28.7894 2292 47.8748
28.9068 2378 48.7647
29.0242 2344 48.4149
29.1416 2411 49.1019
29.259 2412 49.1121
29.3764 2551 50.5074
29.4939 2591 50.9019
29.6113 2723 52.1824
29.7288 2635 51.3323
29.8463 2697 51.9326
29.9638 2727 52.2207
30.0812 2661 51.5849
30.1987 2669 51.6624
30.3162 2545 50.448
30.4337 2449 49.4874
30.5512 2461 49.6085
30.6687 2595 50.9411
30.7862 2546 50.4579
30.9037 2722 52.1728
31.0212 2660 51.5752
31.1387 2664 51.614
31.2562 2663 51.6043
31.3737 2563 50.6261
31.4912 2551 50.5074
31.6087 2505 50.05
31.7262 2449 49.4874
31.8436 2427 49.2646
31.9611 2361 48.5901
32.0785 2281 47.7598
32.1959 2314 48.1041
32.3134 2330 48.2701
32.4308 2276 47.7074
32.5482 2365 48.6313
32.6655 2399 48.9796
32.7829 2461 49.6085
32.9002 2615 51.1371
33.0176 2507 50.07
33.1349 2569 50.6853
33.2522 2653 51.5073
33.3694 2666 51.6333
33.4867 2642 51.4004
33.6039 2722 52.1728
33.7211 2643 51.4101
33.8383 2618 51.1664
33.9554 2548 50.4777
34.0725 2426 49.2544
34.1896 2396 48.949
34.3067 2580 50.7937
34.4237 2507 50.07
34.5407 2568 50.6754
34.6577 2620 51.1859
34.7746 2596 50.951
34.8915 2616 51.1468
35.0084 2551 50.5074
35.1252 2560 50.5964
35.242 2548 50.4777
35.3587 2415 49.1426
35.4755 2365 48.6313
35.5921 2403 49.0204
35.7088 2363 48.6107
35.8254 2289 47.8435
35.9419 2203 46.9361
36.0584 2193 46.8295
36.1749 2101 45.8367
36.2913 2182 46.7119
36.4077 2257 47.5079
36.524 2379 48.775
36.6403 2417 49.163
36.7565 2474 49.7393
36.8727 2512 50.1199
36.9889 2639 51.3712
37.1049 2522 50.2195
37.221 0 1
37.3369 0 1
37.4529 0 1
37.5687 0 1
37.6845 0 1
37.8003 0 1
37.916 0 1
38.0316 0 1
38.1472 0 1
40.5851 0 1
40.7008 0 1
40.8164 0 1
40.9322 0 1
41.048 0 1
41.1639 0 1
41.2798 0 1
41.3958 0 1
41.5118 0 1
41.6279 0 1
41.744 1844 42.9418
41.8602 2020 44.9444
41.9765 2052 45.299
42.0928 2101 45.8367
42.2091 2100 45.8258
42.3255 2084 45.6508
42.4419 2142 46.2817
42.5584 2183 46.7226
42.675 1966 44.3396
42.7915 1922 43.8406
42.9081 1803 42.4617
43.0248 1930 43.9318
43.1415 1935 43.9886
43.2582 2023 44.9778
43.375 2143 46.2925
43.4918 2057 45.3542
43.6087 2007 44.7996
43.7256 2013 44.8665
43.8425 2022 44.9667
43.9595 1898 43.566
44.0765 1797 42.391
44.1935 1849 43
44.3106 1806 42.4971
44.4277 1676 40.939
44.5448 1705 41.2916
44.6619 1577 39.7115
44.7791 1554 39.4208
44.8963 1639 40.4846
45.0136 1569 39.6106
45.1308 1499 38.7169
45.2481 1681 41
45.3654 1567 39.5854
45.4827 1741 41.7253
45.6001 1700 41.2311
45.7174 1766 42.0238
45.8348 1680 40.9878
45.9522 1716 41.4246
46.0697 1665 40.8044
46.1871 1554 39.4208
46.3046 1561 39.5095
46.422 1453 38.1182
46.5395 1407 37.51
46.657 1499 38.7169
46.7745 1479 38.4578
46.892 1597 39.9625
47.0096 1527 39.0768
47.1271 1644 40.5463
47.2446 1488 38.5746
47.3622 1565 39.5601
47.4797 1460 38.2099
47.5973 1452 38.1051
47.7149 1429 37.8021
47.8324 1372 37.0405
47.95 1276 35.7211
48.0675 1242 35.242
48.1851 1205 34.7131
48.3027 1147 33.8674
48.4202 1138 33.7343
48.5378 1093 33.0606
48.6554 1163 34.1028
48.7729 1138 33.7343
48.8904 1202 34.6699
49.008 1315 36.2629
49.1255 1283 35.819
49.243 1337 36.565
49.3605 1368 36.9865
49.478 1300 36.0555
49.5955 1402 37.4433
49.713 1287 35.8748
49.8304 1172 34.2345
49.9479 1123 33.5112
50.0653 1186 34.4384
50.1827 1231 35.0856
50.3001 1368 36.9865
50.4175 1416 37.6298
50.5348 1488 38.5746
50.6521 1510 38.8587
50.7694 1481 38.4838
50.8867 1536 39.1918
51.004 1521 39
51.1212 1608 40.0999
51.2384 1514 38.9102
51.3556 1600 40
51.4727 1490 38.6005
51.5899 1548 39.3446
51.707 1481 38.4838
51.824 1528 39.0896
51.9411 1485 38.5357
52.0581 1489 38.5876
52.175 1580 39.7492
52.2919 1741 41.7253
52.4088 1692 41.1339
52.5257 1920 43.8178
52.6425 1900 43.589
52.7593 2025 45
52.876 1949 44.1475
52.9927 1989 44.5982
53.1094 2064 45.4313
53.226 2086 45.6727
53.3426 1919 43.8064
53.4591 1872 43.2666
53.5756 1825 42.72
53.692 1889 43.4626
53.8084 1982 44.5197
53.9248 2246 47.392
54.0411 2214 47.0532
54.1573 2272 47.6655
54.2735 0 1
54.3896 0 1
54.5057 0 1
54.6217 0 1
54.7377 0 1
54.8537 0 1
54.9695 0 1
55.0853 0 1
55.2011 0 1
55.3168 0 1
55.4324 0 1
57.824 0 1
57.9396 0 1
58.0553 0 1
58.1711 0 1
58.2869 0 1
58.4028 0 1
58.5187 0 1
58.6347 0 1
58.7508 0 1
58.8669 0 1
58.983 2303 47.9896
59.0992 2423 49.224
59.2155 2651 51.4879
59.3318 2724 52.192
59.4482 2836 53.2541
59.5646 2813 53.0377
59.681 2771 52.6403
59.7975 2721 52.1632
59.9141 2677 51.7397
60.0306 2630 51.2835
60.1473 2378 48.7647
60.2639 2453 49.5278
60.3807 2224 47.1593
60.4974 2169 46.5725
60.6142 2156 46.4327
60.731 2208 46.9894
60.8479 2160 46.4758
60.9648 2181 46.7012
61.0818 2426 49.2544
61.1987 2503 50.03
61.3158 2501 50.01
61.4328 2502 50.02
61.5499 2511 50.1099
61.667 2466 49.6588
61.7841 2363 48.6107
61.9013 2315 48.1144
62.0185 2159 46.465
62.1357 2079 45.5961
62.253 2195 46.8508
62.3702 2207 46.9787
62.4875 2313 48.0937
62.6049 2443 49.4267
62.7222 2480 49.7996
62.8396 2429 49.2849
62.9569 2502 50.02
63.0743 2549 50.4876
63.1918 2585 50.8429
63.3092 2461 49.6085
63.4267 2447 49.4672
63.5441 2365 48.6313
63.6616 2211 47.0213
63.7791 2146 46.3249
63.8966 2134 46.1952
64.0142 2008 44.8107
64.1317 1913 43.7379
64.2492 1949 44.1475
64.3668 1901 43.6005
64.4843 1952 44.1814
64.6019 2141 46.2709
64.7195 2184 46.7333
64.837 2264 47.5815
64.9546 2296 47.9166
65.0722 2252 47.4552
65.1898 2306 48.0208
65.3074 2216 47.0744
65.4249 2134 46.1952
65.5425 2004 44.7661
65.6601 1831 42.7902
65.7777 1903 43.6234
65.8952 1938 44.0227
66.0128 2089 45.7056
66.1304 2206 46.9681
66.2479 2369 48.6724
66.3655 2264 47.5815
66.483 2426 49.2544
66.6005 2457 49.5681
66.718 2428 49.2747
66.8355 2408 49.0714
66.953 2416 49.1528
67.0705 2318 48.1456
67.1879 2238 47.3075
67.3054 2156 46.4327
67.4228 1914 43.7493
67.5402 1939 44.0341
67.6576 1782 42.2137
67.7749 1760 41.9524
67.8923 1827 42.7434
68.0096 1895 43.5316
68.1269 2064 45.4313
68.2442 2216 47.0744
68.3614 2389 48.8774
68.4787 2538 50.3786
68.5958 2625 51.2348
68.713 2620 51.1859
68.8302 2771 52.6403
68.9473 2848 53.3667
69.0643 2821 53.1131
69.1814 2692 51.8845
69.2984 2740 52.345
69.4154 2842 53.3104
69.5323 3039 55.1271
69.6492 3415 58.438
69.7661 3743 61.1801
69.8829 4033 63.5059
69.9997 4198 64.792
70.1165 4498 67.0671
70.2332 4529 67.2978
70.3499 4808 69.3397
70.4665 5034 70.9507
70.5831 5106 71.4563
70.6996 5032 70.9366
70.8161 5086 71.3162
70.9326 4938 70.2709
71.049 4855 69.6778
71.1653 4685 68.4471
71.2817 4373 66.1287
71.3979 4292 65.5134
71.5141 4405 66.3702
71.6303 4513 67.1789
71.7464 4465 66.8207
71.8624 0 1
71.9784 0 1
72.0944 0 1
72.2102 0 1
72.3261 0 1
72.4418 0 1
72.5575 0 1
72.6732 0 1
75.1054 0 1
75.2209 0 1
75.3365 0 1
75.4521 0 1
75.5678 0 1
75.6835 0 1
75.7993 0 1
75.9151 0 1
76.031 0 1
76.147 5618 74.9533
76.263 6000 77.4597
76.3791 5926 76.9805
76.4952 5553 74.5185
76.6113 5236 72.3602
76.7276 4939 70.278
76.8438 4882 69.8713
76.9601 4881 69.8642
77.0765 5033 70.9436
77.1929 5170 71.9027
77.3093 5436 73.7292
77.4258 5480 74.027
77.5423 5251 72.4638
77.6589 5130 71.624
77.7755 4894 69.9571
77.8921 4750 68.9202
78.0088 4233 65.0615
78.1256 3709 60.9016
78.2423 3290 57.3585
78.3591 3086 55.5518
78.4759 2869 53.563
78.5928 3082 55.5158
78.7097 3224 56.7803
78.8266 3406 58.3609
78.9436 3576 59.7997
79.0606 3405 58.3524
79.1776 3394 58.258
79.2946 3455 58.7792
79.4117 3355 57.9224
79.5288 3169 56.2939
79.6459 3025 55
79.7631 2768 52.6118
79.8802 2700 51.9615
79.9974 2375 48.734
80.1147 2292 47.8748
80.2319 2117 46.0109
80.3491 2045 45.2217
80.4664 1920 43.8178
80.5837 1977 44.4635
80.701 2020 44.9444
80.8183 2050 45.2769
80.9357 2210 47.0106
81.053 2257 47.5079
81.1704 2258 47.5184
81.2877 2260 47.5395
81.4051 2243 47.3603
81.5225 2231 47.2335
81.6399 2063 45.4203
81.7573 1960 44.2719
81.8747 1842 42.9185
81.9922 1662 40.7676
82.1096 1784 42.2374
82.227 1839 42.8836
82.3444 1971 44.3959
82.4619 2110 45.9347
82.5793 2335 48.3218
82.6967 2337 48.3425
82.8142 2313 48.0937
82.9316 2458 49.5782
83.049 2490 49.8999
83.1664 2368 48.6621
83.2838 2403 49.0204
83.4012 2336 48.3322
83.5186 2334 48.3115
83.636 2349 48.4665
83.7534 2213 47.0425
83.8708 2084 45.6508
83.9881 1940 44.0454
84.1055 1951 44.1701
84.2228 2086 45.6727
84.3401 2305 48.0104
84.4575 2541 50.4083
84.5747 2808 52.9906
84.692 2973 54.5252
84.8093 3063 55.3444
84.9265 3099 55.6687
85.0437 3181 56.4004
85.1609 3125 55.9017
85.2781 2800 52.915
85.3952 2714 52.0961
85.5123 2594 50.9313
85.6294 2629 51.2738
85.7465 2841 53.301
85.8636 3018 54.9363
85.9806 3416 58.4466
86.0976 3542 59.5147
86.2145 3734 61.1065
86.3315 4004 63.2772
86.4484 4154 64.4515
86.5652 4315 65.6887
86.682 4200 64.8074
86.7988 4272 65.3605
86.9156 4213 64.9076
87.0323 4131 64.2729
87.149 4027 63.4586
87.2657 3846 62.0161
87.3823 3604 60.0333
87.4988 3405 58.3524
87.6154 3373 58.0775
87.7318 3370 58.0517
87.8483 3662 60.5145
87.9647 3879 62.2816
88.081 4163 64.5213
88.1973 4513 67.1789
88.3136 4546 67.424
88.4298 4434 66.5883
88.546 4494 67.0373
88.6621 4407 66.3852
88.7781 4245 65.1537
88.8942 0 1
89.0101 0 1
89.126 0 1
89.2419 0 1
89.3577 0 1
89.4734 0 1
89.5891 0 1
89.7047 0 1
89.8203 0 1
89.9358 0 1
92.3269 0 1
92.4424 0 1
92.558 0 1
92.6736 0 1
92.7893 0 1
92.905 0 1
93.0208 0 1
93.1366 0 1
93.2525 0 1
93.3685 0 1
93.4845 0 1
93.6005 3440 58.6515
93.7167 3434 58.6003
93.8328 3462 58.8388
93.949 3370 58.0517
94.0653 3252 57.0263
94.1816 3067 55.3805
94.2979 2869 53.563
94.4143 2560 50.5964
94.5307 2427 49.2646
94.6472 2304 48
94.7637 2290 47.8539
94.8803 2542 50.4183
94.9969 2686 51.8266
95.1135 2758 52.5167
95.2302 2833 53.2259
95.3469 2802 52.9339
95.4637 2976 54.5527
95.5805 2915 53.9907
95.6973 2958 54.3875
95.8142 2849 53.376
95.9311 2861 53.4883
96.048 2792 52.8394
96.1649 2689 51.8556
96.2819 2606 51.049
96.3989 2381 48.7955
96.516 2262 47.5605
96.633 2064 45.4313
96.7501 2035 45.111
96.8673 2025 45
96.9844 2154 46.4112
97.1016 2149 46.3573
97.2188 2454 49.5379
97.336 2470 49.6991
97.4532 2459 49.5883
97.5704 2640 51.3809
97.6877 2472 49.7192
97.805 2361 48.5901
97.9223 2229 47.2123
98.0396 2072 45.5192
98.1569 1940 44.0454
98.2743 1980 44.4972
98.3916 1939 44.0341
98.509 2160 46.4758
98.6264 2278 47.7284
98.7438 2518 50.1797
98.8612 2527 50.2693
98.9786 2656 51.5364
99.096 2668 51.6527
99.2134 2682 51.788
99.3308 2847 53.3573
99.4482 2767 52.6023
99.5656 2694 51.9038
99.6831 2729 52.2398
99.8005 2530 50.2991
99.9179 2519 50.1896
100.035 2332 48.2908
100.153 2178 46.669
100.27 2156 46.4327
100.388 2163 46.5081
100.505 2269 47.634
100.622 2424 49.2341
100.74 2446 49.4571
100.857 2478 49.7795
100.975 2608 51.0686
101.092 2594 50.9313
101.209 2648 51.4587
101.327 2530 50.2991
101.444 2367 48.6518
101.561 2281 47.7598
101.679 2208 46.9894
101.796 2057 45.3542
101.913 1983 44.5309
102.03 2214 47.0532
102.148 2353 48.5077
102.265 2639 51.3712
102.382 2493 49.93
102.499 2775 52.6783
102.616 2810 53.0094
102.733 2982 54.6077
102.851 3018 54.9363
102.968 2898 53.8331
103.085 2926 54.0925
103.202 2808 52.9906
103.319 2903 53.8795
103.436 2688 51.8459
103.552 2523 50.2295
103.669 2405 49.0408
103.786 2287 47.8226
103.903 2292 47.8748
104.02 2328 48.2494
104.137 2508 50.0799
104.253 2736 52.3068
104.37 2649 51.4684
104.487 2868 53.5537
104.603 2875 53.619
104.72 2883 53.6936
104.836 2631 51.2933
104.953 2578 50.774
105.069 2421 49.2037
105.186 2437 49.366
105.302 2211 47.0213
105.418 2246 47.392
105.535 2479 49.7896
105.651 2579 50.7839
105.767 2793 52.8488
105.883 3055 55.2721
105.999 3056 55.2811
106.115 0 1
106.231 0 1
106.347 0 1
106.463 0 1
106.579 0 1
106.694 0 1
106.81 0 1
106.926 0 1
107.041 0 1
107.157 0 1
109.576 0 1
109.692 0 1
109.807 0 1
109.923 0 1
110.039 0 1
110.155 0 1
110.27 0 1
110.386 0 1
110.502 0 1
110.618 2312 48.0833
110.735 2470 49.6991
110.851 2795 52.8678
110.967 2913 53.9722
111.083 2743 52.3737
111.199 3050 55.2268
111.316 3148 56.107
111.432 3179 56.3826
111.549 3081 55.5068
111.665 3045 55.1815
111.782 2886 53.7215
111.898 2839 53.2823
112.015 2758 52.5167
112.132 2553 50.5272
112.248 2395 48.9387
112.365 2306 48.0208
112.482 2398 48.9694
112.599 2417 49.163
112.716 2563 50.6261
112.832 2688 51.8459
112.949 2774 52.6688
113.066 2685 51.817
113.183 2863 53.507
113.3 2735 52.2972
113.417 2522 50.2195
113.534 2440 49.3964
113.652 2249 47.4236
113.769 2096 45.7821
113.886 2194 46.8402
114.003 2145 46.3141
114.12 2346 48.4355
114.238 2461 49.6085
114.355 2541 50.4083
114.472 2872 53.591
114.589 2686 51.8266
114.707 2852 53.4041
114.824 2933 54.1572
114.942 3009 54.8544
115.059 2862 53.4977
115.176 2902 53.8702
115.294 2833 53.2259
115.411 2816 53.066
115.529 2698 51.9423
115.646 2640 51.3809
115.764 2561 50.6063
115.881 2407 49.0612
115.999 2408 49.0714
116.116 2530 50.2991
116.234 2665 51.6236
116.351 2762 52.5547
116.469 2690 51.8652
116.586 2666 51.6333
116.704 2763 52.5642
116.821 2742 52.3641
116.939 2699 51.9519
117.056 2659 51.5655
117.174 2493 49.93
117.291 2345 48.4252
117.409 2250 47.4342
117.526 2226 47.1805
117.644 2327 48.239
117.761 2443 49.4267
117.879 2635 51.3323
117.996 2844 53.3292
118.114 2947 54.2863
118.231 2887 53.7308
118.349 2961 54.4151
118.466 3073 55.4346
118.584 3102 55.6956
118.701 3156 56.1783
118.819 3008 54.8452
118.936 2932 54.1479
119.053 2844 53.3292
119.171 2726 52.2111
119.288 2761 52.5452
119.405 2644 51.4198
119.523 2567 50.6656
119.64 2514 50.1398
119.757 2660 51.5752
119.875 2698 51.9423
119.992 2766 52.5928
120.109 2846 53.3479
120.226 2862 53.4977
120.343 2890 53.7587
120.46 2801 52.9245
120.578 2742 52.3641
120.695 2589 50.8822
120.812 2531 50.309
120.929 2322 48.1871
121.046 2373 48.7134
121.163 2359 48.5695
121.279 2369 48.6724
121.396 2446 49.4571
121.513 2722 52.1728
121.63 2827 53.1695
121.747 2996 54.7357
121.863 3022 54.9727
121.98 3015 54.909
122.097 3072 55.4256
122.213 3016 54.9181
122.33 2960 54.4059
122.446 2976 54.5527
122.563 3064 55.3534
122.679 2847 53.3573
122.795 2910 53.9444
122.912 2828 53.1789
123.028 2775 52.6783
123.144 2593 50.9215
123.26 2608 51.0686
123.377 0 1
123.493 0 1
123.609 0 1
123.725 0 1
123.84 0 1
123.956 0 1
124.072 0 1
124.188 0 1
124.303 0 1
124.419 0 1
126.852 0 1
126.968 0 1
127.083 0 1
127.199 0 1
127.315 0 1
127.431 0 1
127.547 0 1
127.663 0 1
127.779 0 1
127.895 0 1
128.011 0 1
128.127 0 1
128.243 0 1
128.359 3651 60.4235
128.476 3751 61.2454
128.592 3848 62.0322
128.708 3934 62.7216
128.825 4176 64.622
128.941 4307 65.6277
129.058 4338 65.8635
129.174 4301 65.582
129.291 4268 65.3299
129.408 4189 64.7225
129.524 4011 63.3325
129.641 3942 62.7853
129.758 3654 60.4483
129.875 3624 60.1997
129.992 3545 59.5399
130.108 3398 58.2924
130.225 3506 59.2115
130.342 3709 60.9016
130.459 3860 62.1289
130.576 4027 63.4586
130.693 4178 64.6375
130.81 4217 64.9384
130.928 4189 64.7225
131.045 4271 65.3529
131.162 4213 64.9076
131.279 4251 65.1997
131.396 4383 66.2042
131.513 4226 65.0077
131.631 4189 64.7225
131.748 4089 63.9453
131.865 3837 61.9435
131.983 3891 62.3779
132.1 3834 61.9193
132.217 3980 63.0872
132.335 4209 64.8768
132.452 4175 64.6142
132.57 4217 64.9384
132.687 4128 64.2495
132.804 4253 65.215
132.922 4137 64.3195
133.039 4004 63.2772
133.157 3866 62.1772
133.274 3707 60.8851
133.392 3482 59.0085
133.509 3354 57.9137
133.627 3325 57.6628
133.744 3575 59.7913
133.862 3453 58.7622
133.979 3671 60.5888
134.097 3771 61.4085
134.214 3877 62.2656
134.332 3883 62.3137
134.449 3954 62.8808
134.567 3961 62.9365
134.684 4150 64.4205
134.802 4154 64.4515
134.919 4116 64.1561
135.037 4152 64.436
135.154 4053 63.6632
135.272 3939 62.7615
135.389 3915 62.57
135.507 3871 62.2174
135.624 3749 61.2291
135.742 3903 62.474
135.859 3930 62.6897
135.977 4128 64.2495
136.094 4194 64.7611
136.211 4116 64.1561
136.329 4152 64.436
136.446 4088 63.9375
136.564 4105 64.0703
136.681 3860 62.1289
136.798 3829 61.8789
136.915 3612 60.0999
137.033 3469 58.8982
137.15 3391 58.2323
137.267 3283 57.2975
137.384 3293 57.3847
137.502 3487 59.0508
137.619 3731 61.0819
137.736 3777 61.4573
137.853 3722 61.0082
137.97 3824 61.8385
138.087 3899 62.442
138.204 3974 63.0397
138.321 4082 63.8905
138.438 4156 64.467
138.555 4236 65.0846
138.672 4203 64.8305
138.788 4101 64.0391
138.905 4208 64.8691
139.022 3829 61.8789
139.139 3932 62.7057
139.255 3977 63.0635
139.372 4049 63.6318
139.488 4080 63.8749
139.605 4237 65.0922
139.721 4138 64.3273
139.838 4248 65.1767
139.954 4251 65.1997
140.071 4211 64.8922
140.187 4251 65.1997
140.303 4015 63.364
140.419 3767 61.3759
140.535 3681 60.6712
140.652 3759 61.3107
140.768 0 1
140.884 0 1
141 0 1
141.115 0 1
141.231 0 1
141.347 0 1
141.463 0 1
141.578 0 1
141.694 0 1
144.104 0 1
144.219 0 1
144.335 0 1
144.45 0 1
144.566 0 1
144.682 0 1
144.798 0 1
144.914 0 1
145.03 0 1
145.146 4332 65.8179
145.262 4281 65.4294
145.378 4318 65.7115
145.494 4067 63.773
145.61 3796 61.6117
145.726 3960 62.9285
145.842 3801 61.6523
145.959 3742 61.1719
146.075 3927 62.6658
146.192 4119 64.1794
146.308 4217 64.9384
146.425 4283 65.4446
146.541 4407 66.3852
146.658 4495 67.0448
146.774 4696 68.5274
146.891 4654 68.2202
147.008 4752 68.9348
147.125 4862 69.728
147.241 4834 69.527
147.358 4667 68.3154
147.475 4637 68.0955
147.592 4494 67.0373
147.709 4439 66.6258
147.826 4360 66.0303
147.943 4531 67.3127
148.06 4593 67.7717
148.177 4670 68.3374
148.294 4924 70.1712
148.411 4768 69.0507
148.528 4519 67.2235
148.645 4613 67.9191
148.762 4558 67.513
148.88 4535 67.3424
148.997 4291 65.5057
149.114 4239 65.1076
149.231 4072 63.8122
149.349 3989 63.1585
149.466 3708 60.8933
149.583 3820 61.8061
149.701 3705 60.8687
149.818 3867 62.1852
149.935 3974 63.0397
150.053 3959 62.9206
150.17 3981 63.0952
150.287 4115 64.1483
150.405 4133 64.2884
150.522 4217 64.9384
150.64 4331 65.8103
150.757 4359 66.0227
150.875 4435 66.5958
150.992 4311 65.6582
151.11 4242 65.1306
151.227 4157 64.4748
151.344 4103 64.0547
151.462 4025 63.4429
151.579 4148 64.405
151.697 4254 65.2227
151.814 4244 65.146
151.932 4453 66.7308
152.049 4525 67.2681
152.167 4460 66.7832
152.284 4550 67.4537
152.402 4334 65.8331
152.519 4146 64.3894
152.636 4152 64.436
152.754 3895 62.4099
152.871 3897 62.426
152.989 3723 61.0164
153.106 3692 60.7618
153.223 3579 59.8247
153.341 3763 61.3433
153.458 3695 60.7865
153.575 3783 61.5061
153.693 3951 62.857
153.81 4008 63.3088
153.927 4122 64.2028
154.044 4227 65.0154
154.162 4282 65.437
154.279 4454 66.7383
154.396 4524 67.2607
154.513 4555 67.4907
154.63 4485 66.9701
154.747 4484 66.9627
154.864 4306 65.6201
154.981 4339 65.8711
155.098 4328 65.7875
155.215 4213 64.9076
155.332 4635 68.0808
155.449 4481 66.9403
155.566 4476 66.9029
155.683 4656 68.2349
155.8 4597 67.8012
155.917 4496 67.0522
156.033 4476 66.9029
156.15 0 1
156.267 0 1
156.383 0 1
156.5 0 1
156.617 0 1
156.733 0 1
156.85 0 1
156.966 0 1
157.082 0 1
157.199 0 1
157.315 0 1
157.431 0 1
157.547 0 1
157.664 0 1
157.78 0 1
157.896 0 1
158.012 0 1
158.128 0 1
158.244 0 1
158.359 0 1
158.475 0 1
158.591 0 1
158.706 0 1
