
6.15755 0 1
6.2731 0 1
6.3887 0 1
6.50437 0 1
6.62009 0 1
6.73587 0 1
6.8517 0 1
6.96759 0 1
7.08353 0 1
7.19952 0 1
7.31557 0 1
7.43166 0 1
7.54781 0 1
7.664 0 1
7.78024 0 1
7.89653 0 1
8.01286 0 1
8.12924 0 1
8.24567 0 1
8.36213 0 1
8.47864 0 1
8.59519 0 1
8.71178 0 1
8.82841 0 1
8.94508 0 1
9.06179 0 1
9.17853 0 1
9.29531 0 1
9.41212 0 1
9.52897 0 1
9.64584 0 1
9.76276 0 1
9.8797 0 1
9.99667 0 1
10.1137 0 1
10.2307 0 1
10.3478 0 1
10.4648 0 1
10.5819 0 1
10.6991 0 1
10.8162 0 1
10.9334 0 1
11.0506 0 1
11.1678 0 1
11.285 0 1
11.4023 0 1
11.5196 0 1
11.6369 0 1
11.7542 0 1
11.8715 0 1
11.9888 0 1
12.1062 0 1
12.2235 0 1
12.3409 0 1
12.4582 0 1
12.5756 0 1
12.693 0 1
12.8104 0 1
12.9278 0 1
13.0452 0 1
13.1626 0 1
13.28 0 1
13.3974 0 1
13.5149 0 1
13.6323 0 1
13.7497 0 1
13.8671 0 1
13.9845 0 1
14.1019 0 1
14.2193 0 1
14.3367 0 1
14.4541 0 1
14.5714 0 1
14.6888 0 1
14.8062 0 1
14.9235 0 1
15.0408 109502 330.911
15.1581 115044 339.181
15.2755 119730 346.02
15.3927 121493 348.558
15.51 121117 348.019
15.6273 120043 346.472
15.7445 118476 344.203
15.8617 117177 342.311
15.9789 116187 340.862
16.0961 114720 338.703
16.2132 113902 337.494
16.3304 115672 340.106
16.4475 117799 343.219
16.5646 121600 348.712
16.6816 124551 352.918
16.7986 128559 358.551
16.9156 131605 362.774
17.0326 130613 361.404
17.1496 130309 360.983
17.2665 129565 359.951
17.3833 128081 357.884
17.5002 124606 352.996
17.617 120955 347.786
17.7338 117313 342.51
17.8505 114555 338.46
17.9672 113389 336.733
18.0839 114805 338.829
18.2005 116234 340.931
18.3171 117471 342.74
18.4337 118690 344.514
18.5502 121205 348.145
18.6666 122612 350.16
18.7831 124451 352.776
18.8994 124059 352.22
19.0158 121299 348.28
19.1321 117222 342.377
19.2483 112499 335.409
19.3645 106677 326.614
19.4806 100830 317.537
19.5967 94929 308.106
19.7128 88115 296.842
19.8288 81132 284.837
19.9447 73206 270.566
20.0606 0 1
20.1764 0 1
20.2922 0 1
20.4079 0 1
20.5236 0 1
20.6392 0 1
20.7548 0 1
20.8702 0 1
23.3078 0 1
23.4233 0 1
23.539 0 1
23.6547 0 1
23.7704 0 1
23.8862 0 1
24.0021 0 1
24.118 0 1
24.234 0 1
24.35 0 1
24.4661 41809 204.472
24.5822 49512 222.513
24.6984 56821 238.372
24.8146 62306 249.612
24.9309 68730 262.164
25.0472 74913 273.702
25.1636 81309 285.147
25.28 89107 298.508
25.3965 96240 310.226
25.513 102473 320.114
25.6296 109065 330.25
25.7462 112613 335.579
25.8628 114308 338.095
25.9795 116003 340.592
26.0962 116388 341.157
26.213 113159 336.391
26.3298 108957 330.086
26.4466 104813 323.748
26.5635 101878 319.183
26.6804 101002 317.808
26.7973 102200 319.687
26.9143 102656 320.4
27.0313 103307 321.414
27.1483 104968 323.988
27.2653 106515 326.366
27.3824 107631 328.072
27.4996 106907 326.966
27.6167 105773 325.228
27.7339 103171 321.202
27.8511 100418 316.888
27.9683 97367 312.037
28.0855 95818 309.545
28.2028 93838 306.33
28.3201 91079 301.793
28.4374 89174 298.62
28.5547 88034 296.705
28.6721 89948 299.913
28.7894 92574 304.26
28.9068 96661 310.904
29.0242 99788 315.892
29.1416 103352 321.484
29.259 104861 323.822
29.3764 104255 322.885
29.4939 103821 322.213
29.6113 102768 320.574
29.7288 99854 315.997
29.8463 96640 310.87
29.9638 93529 305.825
30.0812 91916 303.177
30.1987 90863 301.435
30.3162 91612 302.675
30.4337 92122 303.516
30.5512 92289 303.791
30.6687 93488 305.758
30.7862 94829 307.943
30.9037 96707 310.977
31.0212 97884 312.864
31.1387 95831 309.566
31.2562 94628 307.617
31.3737 92588 304.283
31.4912 90036 300.06
31.6087 88291 297.138
31.7262 86808 294.632
31.8436 83716 289.337
31.9611 81445 285.386
32.0785 80069 282.965
32.1959 81985 286.33
32.3134 84445 290.594
32.4308 87303 295.471
32.5482 91173 301.949
32.6655 93931 306.482
32.7829 95137 308.443
32.9002 95149 308.462
33.0176 94678 307.698
33.1349 94462 307.347
33.2522 93704 306.111
33.3694 90453 300.754
33.4867 88346 297.231
33.6039 85468 292.349
33.7211 83688 289.289
33.8383 82714 287.6
33.9554 83649 289.221
34.0725 84231 290.226
34.1896 84450 290.603
34.3067 86672 294.401
34.4237 87023 294.997
34.5407 88134 296.874
34.6577 89122 298.533
34.7746 88557 297.585
34.8915 87510 295.821
35.0084 85294 292.051
35.1252 83960 289.759
35.242 82115 286.557
35.3587 80289 283.353
35.4755 78371 279.948
35.5921 75694 275.125
35.7088 73411 270.945
35.8254 73496 271.101
35.9419 74314 272.606
36.0584 76249 276.132
36.1749 77616 278.596
36.2913 79390 281.762
36.4077 80691 284.062
36.524 79732 282.369
36.6403 76997 277.483
36.7565 74413 272.787
36.8727 70224 264.998
36.9889 65305 255.548
37.1049 60013 244.976
37.221 0 1
37.3369 0 1
37.4529 0 1
37.5687 0 1
37.6845 0 1
37.8003 0 1
37.916 0 1
38.0316 0 1
38.1472 0 1
40.5851 0 1
40.7008 0 1
40.8164 0 1
40.9322 0 1
41.048 0 1
41.1639 0 1
41.2798 0 1
41.3958 0 1
41.5118 0 1
41.6279 0 1
41.744 36313 190.56
41.8602 41829 204.521
41.9765 46492 215.62
42.0928 49799 223.157
42.2091 50933 225.683
42.3255 52460 229.041
42.4419 52889 229.976
42.5584 53591 231.497
42.675 55406 235.385
42.7915 58787 242.46
42.9081 62223 249.445
43.0248 64838 254.633
43.1415 66779 258.416
43.2582 67482 259.773
43.375 68701 262.109
43.4918 69323 263.293
43.6087 69515 263.657
43.7256 68564 261.847
43.8425 67764 260.315
43.9595 66184 257.263
44.0765 65296 255.531
44.1935 64785 254.529
44.3106 62616 250.232
44.4277 60925 246.83
44.5448 57077 238.908
44.6619 55446 235.47
44.7791 58084 241.006
44.8963 59558 244.045
45.0136 63225 251.446
45.1308 67215 259.259
45.2481 68972 262.625
45.3654 69832 264.257
45.4827 69390 263.42
45.6001 69563 263.748
45.7174 68736 262.176
45.8348 66204 257.301
45.9522 64111 253.202
46.0697 62492 249.984
46.1871 61020 247.022
46.3046 61156 247.297
46.422 63324 251.643
46.5395 64050 253.081
46.657 65812 256.538
46.7745 67800 260.384
46.892 68116 260.99
47.0096 69586 263.792
47.1271 70512 265.541
47.2446 70848 266.173
47.3622 70126 264.813
47.4797 68604 261.924
47.5973 66675 258.215
47.7149 65893 256.696
47.8324 64378 253.728
47.95 62394 249.788
48.0675 60250 245.459
48.1851 55546 235.682
48.3027 56833 238.397
48.4202 58707 242.295
48.5378 61333 247.655
48.6554 64553 254.073
48.7729 68343 261.425
48.8904 69719 264.044
49.008 69515 263.657
49.1255 68088 260.937
49.243 67819 260.421
49.3605 64443 253.856
49.478 62470 249.94
49.5955 60433 245.831
49.713 59096 243.097
49.8304 58635 242.147
49.9479 60954 246.889
50.0653 62803 250.605
50.1827 63915 252.814
50.3001 65448 255.828
50.4175 66737 258.335
50.5348 68234 261.216
50.6521 68576 261.87
50.7694 69090 262.85
50.8867 68583 261.884
51.004 67598 259.996
51.1212 66742 258.345
51.2384 65344 255.625
51.3556 64289 253.553
51.4727 61551 248.095
51.5899 57589 239.977
51.707 54739 233.964
51.824 55791 236.201
51.9411 58079 240.996
52.0581 61158 247.301
52.175 65009 254.969
52.2919 68369 261.475
52.4088 68745 262.193
52.5257 69402 263.443
52.6425 68892 262.473
52.7593 68394 261.522
52.876 68021 260.808
52.9927 64752 254.464
53.1094 62248 249.495
53.226 60411 245.786
53.3426 58792 242.471
53.4591 57913 240.651
53.5756 57206 239.178
53.692 56817 238.363
53.8084 56235 237.139
53.9248 53921 232.209
54.0411 52279 228.646
54.1573 49705 222.946
54.2735 0 1
54.3896 0 1
54.5057 0 1
54.6217 0 1
54.7377 0 1
54.8537 0 1
54.9695 0 1
55.0853 0 1
55.2011 0 1
55.3168 0 1
55.4324 0 1
57.824 0 1
57.9396 0 1
58.0553 0 1
58.1711 0 1
58.2869 0 1
58.4028 0 1
58.5187 0 1
58.6347 0 1
58.7508 0 1
58.8669 0 1
58.983 43455 208.459
59.0992 51229 226.338
59.2155 57902 240.628
59.3318 63780 252.547
59.4482 69296 263.241
59.5646 73889 271.825
59.681 77379 278.171
59.7975 78861 280.822
59.9141 80448 283.634
60.0306 80689 284.058
60.1473 79968 282.786
60.2639 78578 280.318
60.3807 75179 274.188
60.4974 73413 270.948
60.6142 74365 272.699
60.731 77711 278.767
60.8479 81949 286.267
60.9648 87489 295.785
61.0818 90766 301.274
61.1987 91935 303.208
61.3158 92544 304.21
61.4328 90926 301.539
61.5499 88889 298.143
61.667 85593 292.563
61.7841 82753 287.668
61.9013 80732 284.134
62.0185 79184 281.397
62.1357 80992 284.591
62.253 84484 290.661
62.3702 88067 296.761
62.4875 91076 301.788
62.6049 93601 305.943
62.7222 95110 308.399
62.8396 96797 311.122
62.9569 99142 314.868
63.0743 98507 313.858
63.1918 97915 312.914
63.3092 96514 310.667
63.4267 94434 307.301
63.5441 92499 304.136
63.6616 89541 299.234
63.7791 84268 290.29
63.8966 78792 280.699
64.0142 75744 275.216
64.1317 76811 277.148
64.2492 80449 283.635
64.3668 85635 292.635
64.4843 91849 303.066
64.6019 95559 309.126
64.7195 97467 312.197
64.837 97822 312.765
64.9546 98144 313.279
65.0722 96379 310.45
65.1898 93470 305.729
65.3074 88154 296.907
65.4249 85723 292.785
65.5425 83576 289.095
65.6601 83844 289.558
65.7777 87268 295.412
65.8952 91510 302.506
66.0128 95130 308.432
66.1304 97852 312.813
66.2479 100871 317.602
66.3655 103002 320.939
66.483 105009 324.051
66.6005 106288 326.018
66.718 106065 325.676
66.8355 104777 323.693
66.953 103223 321.283
67.0705 101240 318.182
67.1879 98549 313.925
67.3054 94551 307.491
67.4228 88963 298.267
67.5402 81866 286.122
67.6576 78304 279.829
67.7749 80617 283.931
67.8923 84580 290.826
68.0096 90993 301.65
68.1269 98640 314.07
68.2442 104319 322.985
68.3614 106757 326.737
68.4787 106495 326.336
68.5958 106633 326.547
68.713 105705 325.123
68.8302 101715 318.928
68.9473 96671 310.92
69.0643 93367 305.56
69.1814 90193 300.321
69.2984 90330 300.549
69.4154 94056 306.686
69.5323 99115 314.825
69.6492 103613 321.89
69.7661 106495 326.336
69.8829 109713 331.23
69.9997 109554 330.989
70.1165 108724 329.733
70.2332 107512 327.89
70.3499 104482 323.237
70.4665 99524 315.474
70.5831 95154 308.47
70.6996 90752 301.251
70.8161 85106 291.729
70.9326 78430 280.054
71.049 69906 264.397
71.1653 57750 240.312
71.2817 47165 217.175
71.3979 41337 203.315
71.5141 39316 198.283
71.6303 37806 194.438
71.7464 34423 185.534
71.8624 0 1
71.9784 0 1
72.0944 0 1
72.2102 0 1
72.3261 0 1
72.4418 0 1
72.5575 0 1
72.6732 0 1
75.1054 0 1
75.2209 0 1
75.3365 0 1
75.4521 0 1
75.5678 0 1
75.6835 0 1
75.7993 0 1
75.9151 0 1
76.031 0 1
76.147 69407 263.452
76.263 74039 272.101
76.3791 76119 275.897
76.4952 75636 275.02
76.6113 74965 273.797
76.7276 77118 277.701
76.8438 82239 286.773
76.9601 88430 297.372
77.0765 96169 310.111
77.1929 105506 324.817
77.3093 110522 332.448
77.4258 110087 331.794
77.5423 110437 332.321
77.6589 110038 331.72
77.7755 106724 326.686
77.8921 99624 315.633
78.0088 94456 307.337
78.1256 90389 300.648
78.2423 87403 295.64
78.3591 88156 296.911
78.4759 93174 305.244
78.5928 98866 314.43
78.7097 102296 319.837
78.8266 106026 325.616
78.9436 110180 331.934
79.0606 109726 331.249
79.1776 111297 333.612
79.2946 112724 335.744
79.4117 112355 335.194
79.5288 110814 332.887
79.6459 109523 330.943
79.7631 105967 325.526
79.8802 102424 320.037
79.9974 97014 311.471
80.1147 91248 302.073
80.2319 83628 289.185
80.3491 79610 282.152
80.4664 82273 286.833
80.5837 86513 294.131
80.701 92519 304.169
80.8183 100618 317.203
80.9357 105257 324.433
81.053 106998 327.105
81.1704 107122 327.295
81.2877 106634 326.549
81.4051 105037 324.094
81.5225 99937 316.128
81.6399 94882 308.029
81.7573 87546 295.882
81.8747 84598 290.857
81.9922 81544 285.559
82.1096 85742 292.817
82.227 91349 302.24
82.3444 95260 308.642
82.4619 99908 316.082
82.5793 102091 319.517
82.6967 103035 320.991
82.8142 104413 323.13
82.9316 104166 322.748
83.049 103936 322.391
83.1664 101621 318.78
83.2838 99884 316.044
83.4012 96662 310.905
83.5186 93428 305.66
83.636 88578 297.621
83.7534 83876 289.614
83.8708 77455 278.307
83.9881 71399 267.206
84.1055 71379 267.168
84.2228 74517 272.978
84.3401 79018 281.101
84.4575 84870 291.325
84.5747 91374 302.281
84.692 94669 307.683
84.8093 95680 309.322
84.9265 93152 305.208
85.0437 90440 300.732
85.1609 84727 291.079
85.2781 79146 281.329
85.3952 74356 272.683
85.5123 72070 268.459
85.6294 72368 269.013
85.7465 76830 277.182
85.8636 81090 284.763
85.9806 84053 289.919
86.0976 87182 295.266
86.2145 88005 296.656
86.3315 89005 298.337
86.4484 90489 300.814
86.5652 90722 301.201
86.682 89459 299.097
86.7988 88589 297.639
86.9156 86219 293.631
87.0323 83376 288.749
87.149 80385 283.522
87.2657 75686 275.111
87.3823 68773 262.246
87.4988 60362 245.687
87.6154 55558 235.707
87.7318 54846 234.192
87.8483 56414 237.516
87.9647 58589 242.052
88.081 62581 250.162
88.1973 64206 253.389
88.3136 62071 249.141
88.4298 58019 240.871
88.546 53176 230.599
88.6621 46789 216.308
88.7781 37148 192.738
88.8942 0 1
89.0101 0 1
89.126 0 1
89.2419 0 1
89.3577 0 1
89.4734 0 1
89.5891 0 1
89.7047 0 1
89.8203 0 1
89.9358 0 1
92.3269 0 1
92.4424 0 1
92.558 0 1
92.6736 0 1
92.7893 0 1
92.905 0 1
93.0208 0 1
93.1366 0 1
93.2525 0 1
93.3685 0 1
93.4845 0 1
93.6005 45879 214.194
93.7167 50507 224.738
93.8328 54398 233.234
93.949 57615 240.031
94.0653 60065 245.082
94.1816 61664 248.322
94.2979 62191 249.381
94.4143 61073 247.13
94.5307 60469 245.904
94.6472 58625 242.126
94.7637 58139 241.12
94.8803 59887 244.718
94.9969 64475 253.919
95.1135 67119 259.073
95.2302 69224 263.105
95.3469 71181 266.798
95.4637 73312 270.762
95.5805 73998 272.026
95.6973 74489 272.927
95.8142 74579 273.092
95.9311 73377 270.882
96.048 72201 268.702
96.1649 71141 266.723
96.2819 68691 262.09
96.3989 66011 256.926
96.516 63062 251.121
96.633 59911 244.767
96.7501 55384 235.338
96.8673 52539 229.214
96.9844 52018 228.075
97.1016 54633 233.737
97.2188 57150 239.061
97.336 61951 248.9
97.4532 66366 257.616
97.5704 69394 263.427
97.6877 69449 263.532
97.805 68699 262.105
97.9223 66101 257.101
98.0396 61884 248.765
98.1569 58485 241.837
98.2743 55580 235.754
98.3916 54131 232.661
98.509 55109 234.753
98.6264 60196 245.349
98.7438 63442 251.877
98.8612 65265 255.47
98.9786 67775 260.336
99.096 69716 264.038
99.2134 71216 266.863
99.3308 72141 268.591
99.4482 72312 268.909
99.5656 72664 269.563
99.6831 71374 267.159
99.8005 70723 265.938
99.9179 67911 260.597
100.035 65407 255.748
100.153 61985 248.968
100.27 58466 241.797
100.388 54330 233.088
100.505 53125 230.489
100.622 54173 232.751
100.74 56963 238.669
100.857 61173 247.332
100.975 65536 256
101.092 67803 260.39
101.209 68462 261.652
101.327 68577 261.872
101.444 66788 258.434
101.561 63186 251.368
101.679 60032 245.014
101.796 56636 237.983
101.913 54710 233.902
102.03 54268 232.955
102.148 58505 241.878
102.265 62057 249.112
102.382 66978 258.801
102.499 68219 261.188
102.616 70246 265.04
102.733 71670 267.713
102.851 73282 270.706
102.968 72605 269.453
103.085 73345 270.823
103.202 72821 269.854
103.319 71699 267.767
103.436 68698 262.103
103.552 65358 255.652
103.669 62861 250.721
103.786 58704 242.289
103.903 55004 234.529
104.02 53148 230.539
104.137 54746 233.979
104.253 56528 237.756
104.37 63318 251.631
104.487 66760 258.38
104.603 68764 262.229
104.72 68202 261.155
104.836 65756 256.429
104.953 61518 248.028
105.069 57430 239.646
105.186 53368 231.015
105.302 50021 223.654
105.418 48123 219.37
105.535 46173 214.879
105.651 46503 215.646
105.767 45666 213.696
105.883 44151 210.121
105.999 42116 205.222
106.115 0 1
106.231 0 1
106.347 0 1
106.463 0 1
106.579 0 1
106.694 0 1
106.81 0 1
106.926 0 1
107.041 0 1
107.157 0 1
109.576 0 1
109.692 0 1
109.807 0 1
109.923 0 1
110.039 0 1
110.155 0 1
110.27 0 1
110.386 0 1
110.502 0 1
110.618 23574 153.538
110.735 31477 177.418
110.851 37797 194.415
110.967 42582 206.354
111.083 46777 216.28
111.199 51054 225.951
111.316 54519 233.493
111.432 57169 239.1
111.549 59109 243.123
111.665 60217 245.392
111.782 61364 247.718
111.898 60108 245.169
112.015 57935 240.697
112.132 56385 237.455
112.248 53039 230.302
112.365 49906 223.397
112.482 46059 214.614
112.599 47918 218.902
112.716 48324 219.827
112.832 50556 224.847
112.949 53627 231.575
113.066 56944 238.629
113.183 58648 242.173
113.3 59124 243.154
113.417 58855 242.6
113.534 57503 239.798
113.652 54667 233.81
113.769 50634 225.02
113.886 48624 220.509
114.003 47200 217.256
114.12 47579 218.126
114.238 51811 227.62
114.355 55091 234.715
114.472 55549 235.688
114.589 61857 248.711
114.707 61533 248.058
114.824 62896 250.791
114.942 63276 251.547
115.059 64046 253.073
115.176 63644 252.278
115.294 62938 250.874
115.411 61488 247.968
115.529 59642 244.217
115.646 57515 239.823
115.764 54551 233.562
115.881 51300 226.495
115.999 47418 217.757
116.116 46270 215.105
116.234 46970 216.726
116.351 48677 220.629
116.469 51485 226.903
116.586 55109 234.753
116.704 56815 238.359
116.821 57552 239.9
116.939 57763 240.339
117.056 56655 238.023
117.174 55385 235.34
117.291 51860 227.728
117.409 49053 221.479
117.526 47348 217.596
117.644 46559 215.775
117.761 49161 221.723
117.879 52587 229.319
117.996 55520 235.627
118.114 57696 240.2
118.231 59770 244.479
118.349 60487 245.941
118.466 61370 247.73
118.584 62040 249.078
118.701 62182 249.363
118.819 61348 247.685
118.936 60263 245.485
119.053 58455 241.775
119.171 56345 237.371
119.288 53779 231.903
119.405 51732 227.447
119.523 48511 220.252
119.64 45281 212.793
119.757 44984 212.094
119.875 45935 214.325
119.992 46911 216.589
120.109 49594 222.697
120.226 52267 228.62
120.343 53915 232.196
120.46 54553 233.566
120.578 54802 234.098
120.695 54341 233.112
120.812 53340 230.955
120.929 49929 223.448
121.046 46896 216.555
121.163 45074 212.306
121.279 44098 209.995
121.396 44500 210.95
121.513 46586 215.838
121.63 48828 220.971
121.747 49350 222.149
121.863 49439 222.349
121.98 50032 223.678
122.097 49647 222.816
122.213 49418 222.302
122.33 47925 218.918
122.446 46225 215
122.563 43679 208.995
122.679 41133 202.813
122.795 38243 195.558
122.912 34319 185.254
123.028 30076 173.424
123.144 25731 160.409
123.26 22985 151.608
123.377 0 1
123.493 0 1
123.609 0 1
123.725 0 1
123.84 0 1
123.956 0 1
124.072 0 1
124.188 0 1
124.303 0 1
124.419 0 1
126.852 0 1
126.968 0 1
127.083 0 1
127.199 0 1
127.315 0 1
127.431 0 1
127.547 0 1
127.663 0 1
127.779 0 1
127.895 0 1
128.011 0 1
128.127 0 1
128.243 0 1
128.359 52598 229.343
128.476 53915 232.196
128.592 54586 233.636
128.708 52666 229.491
128.825 50497 224.715
128.941 51406 226.729
129.058 52856 229.904
129.174 55410 235.393
129.291 58220 241.288
129.408 60794 246.564
129.524 61547 248.087
129.641 61932 248.861
129.758 62230 249.459
129.875 61222 247.431
129.992 57945 240.718
130.108 54799 234.092
130.225 52556 229.251
130.342 51669 227.308
130.459 51817 227.633
130.576 56417 237.523
130.693 58899 242.691
130.81 60344 245.65
130.928 61729 248.453
131.045 62609 250.218
131.162 63434 251.861
131.279 64592 254.15
131.396 64928 254.81
131.513 64485 253.939
131.631 63276 251.547
131.748 61745 248.485
131.865 60447 245.86
131.983 58536 241.942
132.1 57047 238.845
132.217 54627 233.724
132.335 51894 227.803
132.452 51848 227.702
132.57 53347 230.97
132.687 55417 235.408
132.804 57404 239.591
132.922 60548 246.065
133.039 61755 248.506
133.157 62087 249.173
133.274 62765 250.529
133.392 61554 248.101
133.509 58470 241.806
133.627 55809 236.239
133.744 53424 231.136
133.862 51506 226.949
133.979 51545 227.035
134.097 55261 235.077
134.214 58329 241.514
134.332 59339 243.596
134.449 60994 246.97
134.567 62220 249.439
134.684 63381 251.756
134.802 63743 252.474
134.919 64028 253.038
135.037 63525 252.042
135.154 63067 251.131
135.272 61854 248.705
135.389 61182 247.35
135.507 58970 242.837
135.624 57789 240.393
135.742 56060 236.77
135.859 53013 230.246
135.977 52188 228.447
136.094 53208 230.669
136.211 54518 233.491
136.329 57325 239.426
136.446 59870 244.683
136.564 61637 248.268
136.681 62413 249.826
136.798 62132 249.263
136.915 62559 250.118
137.033 60846 246.67
137.15 57810 240.437
137.267 54981 234.48
137.384 53030 230.282
137.502 51687 227.348
137.619 51593 227.141
137.736 55407 235.387
137.853 55527 235.642
137.97 59292 243.499
138.087 59256 243.426
138.204 60629 246.23
138.321 61483 247.958
138.438 62191 249.381
138.555 62546 250.092
138.672 61474 247.94
138.788 59219 243.35
138.905 56692 238.101
139.022 54039 232.463
139.139 51039 225.918
139.255 48754 220.803
139.372 45538 213.396
139.488 40889 202.21
139.605 37399 193.388
139.721 36418 190.835
139.838 36240 190.368
139.954 36228 190.337
140.071 36855 191.977
140.187 34566 185.919
140.303 31596 177.753
140.419 28922 170.065
140.535 27401 165.532
140.652 25295 159.044
140.768 0 1
140.884 0 1
141 0 1
141.115 0 1
141.231 0 1
141.347 0 1
141.463 0 1
141.578 0 1
141.694 0 1
144.104 0 1
144.219 0 1
144.335 0 1
144.45 0 1
144.566 0 1
144.682 0 1
144.798 0 1
144.914 0 1
145.03 0 1
145.146 39702 199.254
145.262 43338 208.178
145.378 45803 214.016
145.494 47740 218.495
145.61 48838 220.993
145.726 49031 221.429
145.842 47423 217.768
145.959 45328 212.904
146.075 43402 208.331
146.192 41862 204.602
146.308 40979 202.433
146.425 41067 202.65
146.541 42816 206.92
146.658 44304 210.485
146.774 45425 213.131
146.891 46710 216.125
147.008 48218 219.586
147.125 47822 218.682
147.241 48901 221.136
147.358 48711 220.706
147.475 49208 221.829
147.592 48876 221.079
147.709 48260 219.682
147.826 47261 217.396
147.943 46180 214.895
148.06 45452 213.195
148.177 43659 208.947
148.294 42080 205.134
148.411 41867 204.614
148.528 42125 205.244
148.645 43177 207.791
148.762 45062 212.278
148.88 47006 216.809
148.997 48966 221.283
149.114 47102 217.03
149.231 48384 219.964
149.349 49001 221.362
149.466 47607 218.19
149.583 45671 213.708
149.701 43581 208.761
149.818 41170 202.904
149.935 40212 200.529
150.053 40143 200.357
150.17 41623 204.017
150.287 42955 207.256
150.405 44657 211.322
150.522 45788 213.981
150.64 46173 214.879
150.757 47542 218.041
150.875 47514 217.977
150.992 48341 219.866
151.11 48595 220.443
151.227 47999 219.087
151.344 47386 217.683
151.462 46122 214.76
151.579 46034 214.555
151.697 44853 211.785
151.814 43380 208.279
151.932 41863 204.604
152.049 40681 201.695
152.167 41201 202.98
152.284 42448 206.029
152.402 44012 209.79
152.519 45465 213.225
152.636 47080 216.979
152.754 46348 215.286
152.871 46708 216.12
152.989 46454 215.532
153.106 45238 212.692
153.223 43291 208.065
153.341 41058 202.628
153.458 39879 199.697
153.575 39066 197.651
153.693 40025 200.062
153.81 41193 202.961
153.927 42563 206.308
154.044 43374 208.264
154.162 45133 212.445
154.279 45644 213.645
154.396 46096 214.7
154.513 46940 216.656
154.63 47250 217.371
154.747 46957 216.696
154.864 45796 214
154.981 45910 214.266
155.098 44593 211.171
155.215 43878 209.471
155.332 42533 206.235
155.449 41190 202.953
155.566 39069 197.659
155.683 38684 196.682
155.8 38587 196.436
155.917 38567 196.385
156.033 39026 197.55
156.15 0 1
156.267 0 1
156.383 0 1
156.5 0 1
156.617 0 1
156.733 0 1
156.85 0 1
156.966 0 1
157.082 0 1
157.199 0 1
157.315 0 1
157.431 0 1
157.547 0 1
157.664 0 1
157.78 0 1
157.896 0 1
158.012 0 1
158.128 0 1
158.244 0 1
158.359 0 1
158.475 0 1
158.591 0 1
158.706 0 1
