
6.15755 0 1
6.2731 0 1
6.3887 0 1
6.50437 0 1
6.62009 0 1
6.73587 0 1
6.8517 0 1
6.96759 0 1
7.08353 0 1
7.19952 0 1
7.31557 0 1
7.43166 0 1
7.54781 0 1
7.664 0 1
7.78024 0 1
7.89653 0 1
8.01286 0 1
8.12924 0 1
8.24567 0 1
8.36213 0 1
8.47864 0 1
8.59519 0 1
8.71178 0 1
8.82841 0 1
8.94508 0 1
9.06179 0 1
9.17853 0 1
9.29531 0 1
9.41212 0 1
9.52897 0 1
9.64584 0 1
9.76276 0 1
9.8797 0 1
9.99667 0 1
10.1137 0 1
10.2307 0 1
10.3478 0 1
10.4648 0 1
10.5819 0 1
10.6991 0 1
10.8162 0 1
10.9334 0 1
11.0506 0 1
11.1678 0 1
11.285 0 1
11.4023 0 1
11.5196 0 1
11.6369 0 1
11.7542 0 1
11.8715 0 1
11.9888 0 1
12.1062 0 1
12.2235 0 1
12.3409 0 1
12.4582 0 1
12.5756 0 1
12.693 0 1
12.8104 0 1
12.9278 0 1
13.0452 0 1
13.1626 0 1
13.28 0 1
13.3974 0 1
13.5149 0 1
13.6323 0 1
13.7497 0 1
13.8671 0 1
13.9845 0 1
14.1019 0 1
14.2193 0 1
14.3367 0 1
14.4541 0 1
14.5714 0 1
14.6888 0 1
14.8062 0 1
14.9235 0 1
15.0408 0 0
15.1581 0 0
15.2755 0 0
15.3927 0 0
15.51 0 0
15.6273 0 0
15.7445 0 0
15.8617 0 0
15.9789 0 0
16.0961 0 0
16.2132 0 0
16.3304 0 0
16.4475 0 0
16.5646 0 0
16.6816 0 0
16.7986 0 0
16.9156 0 0
17.0326 0 0
17.1496 0 0
17.2665 0 0
17.3833 0 0
17.5002 0 0
17.617 0 0
17.7338 0 0
17.8505 0 0
17.9672 0 0
18.0839 0 0
18.2005 0 0
18.3171 0 0
18.4337 0 0
18.5502 0 0
18.6666 0 0
18.7831 0 0
18.8994 0 0
19.0158 0 0
19.1321 0 0
19.2483 0 0
19.3645 0 0
19.4806 0 0
19.5967 0 0
19.7128 0 0
19.8288 0 0
19.9447 0 0
20.0606 0 1
20.1764 0 1
20.2922 0 1
20.4079 0 1
20.5236 0 1
20.6392 0 1
20.7548 0 1
20.8702 0 1
23.3078 0 1
23.4233 0 1
23.539 0 1
23.6547 0 1
23.7704 0 1
23.8862 0 1
24.0021 0 1
24.118 0 1
24.234 0 1
24.35 0 1
24.4661 1285 35.8469
24.5822 1460 38.2099
24.6984 1592 39.8999
24.8146 1754 41.8808
24.9309 2010 44.833
25.0472 2312 48.0833
25.1636 2624 51.225
25.28 2620 51.1859
25.3965 2724 52.192
25.513 2759 52.5262
25.6296 2759 52.5262
25.7462 2829 53.1883
25.8628 2741 52.3546
25.9795 2812 53.0283
26.0962 2772 52.6498
26.213 2916 54
26.3298 2950 54.3139
26.4466 2857 53.4509
26.5635 2693 51.8941
26.6804 2826 53.1601
26.7973 2719 52.144
26.9143 2728 52.2303
27.0313 2687 51.8363
27.1483 2693 51.8941
27.2653 2677 51.7397
27.3824 2475 49.7494
27.4996 2382 48.8057
27.6167 2219 47.1063
27.7339 2317 48.1352
27.8511 2404 49.0306
27.9683 2507 50.07
28.0855 2621 51.1957
28.2028 2609 51.0784
28.3201 2597 50.9608
28.4374 2587 50.8626
28.5547 2607 51.0588
28.6721 2659 51.5655
28.7894 2639 51.3712
28.9068 2672 51.6914
29.0242 2613 51.1175
29.1416 2668 51.6527
29.259 2758 52.5167
29.3764 2648 51.4587
29.4939 2604 51.0294
29.6113 2518 50.1797
29.7288 2339 48.3632
29.8463 2371 48.6929
29.9638 2420 49.1935
30.0812 2461 49.6085
30.1987 2588 50.8724
30.3162 2502 50.02
30.4337 2509 50.0899
30.5512 2562 50.6162
30.6687 2568 50.6754
30.7862 2544 50.4381
30.9037 2369 48.6724
31.0212 2323 48.1975
31.1387 2434 49.3356
31.2562 2450 49.4975
31.3737 2538 50.3786
31.4912 2614 51.1273
31.6087 2629 51.2738
31.7262 2676 51.7301
31.8436 2640 51.3809
31.9611 2664 51.614
32.0785 2618 51.1664
32.1959 2639 51.3712
32.3134 2538 50.3786
32.4308 2487 49.8698
32.5482 2529 50.2892
32.6655 2345 48.4252
32.7829 2410 49.0918
32.9002 2352 48.4974
33.0176 2211 47.0213
33.1349 2284 47.7912
33.2522 2188 46.7761
33.3694 2198 46.8828
33.4867 2278 47.7284
33.6039 2238 47.3075
33.7211 2384 48.8262
33.8383 2385 48.8365
33.9554 2467 49.6689
34.0725 2417 49.163
34.1896 2439 49.3862
34.3067 2486 49.8598
34.4237 2399 48.9796
34.5407 2340 48.3735
34.6577 2338 48.3529
34.7746 2323 48.1975
34.8915 2382 48.8057
35.0084 2567 50.6656
35.1252 2551 50.5074
35.242 2681 51.7784
35.3587 2681 51.7784
35.4755 2590 50.892
35.5921 2466 49.6588
35.7088 2403 49.0204
35.8254 2492 49.9199
35.9419 2307 48.0312
36.0584 2209 47
36.1749 2211 47.0213
36.2913 2077 45.5741
36.4077 2083 45.6399
36.524 2020 44.9444
36.6403 1820 42.6615
36.7565 1614 40.1746
36.8727 1512 38.8844
36.9889 1494 38.6523
37.1049 1443 37.9868
37.221 0 1
37.3369 0 1
37.4529 0 1
37.5687 0 1
37.6845 0 1
37.8003 0 1
37.916 0 1
38.0316 0 1
38.1472 0 1
40.5851 0 1
40.7008 0 1
40.8164 0 1
40.9322 0 1
41.048 0 1
41.1639 0 1
41.2798 0 1
41.3958 0 1
41.5118 0 1
41.6279 0 1
41.744 1880 43.359
41.8602 2505 50.05
41.9765 2958 54.3875
42.0928 3192 56.4978
42.2091 3188 56.4624
42.3255 3258 57.0789
42.4419 3391 58.2323
42.5584 3386 58.1893
42.675 3354 57.9137
42.7915 3531 59.4222
42.9081 3550 59.5819
43.0248 3612 60.0999
43.1415 3524 59.3633
43.2582 3453 58.7622
43.375 3243 56.9473
43.4918 3169 56.2939
43.6087 3331 57.7148
43.7256 3364 58
43.8425 3451 58.7452
43.9595 3653 60.4401
44.0765 3561 59.6741
44.1935 3438 58.6345
44.3106 3477 58.9661
44.4277 3373 58.0775
44.5448 3202 56.5862
44.6619 3146 56.0892
44.7791 2990 54.6809
44.8963 2789 52.811
45.0136 2665 51.6236
45.1308 2578 50.774
45.2481 2516 50.1597
45.3654 2399 48.9796
45.4827 2347 48.4458
45.6001 2195 46.8508
45.7174 2129 46.1411
45.8348 2144 46.3033
45.9522 2092 45.7384
46.0697 2157 46.4435
46.1871 2044 45.2106
46.3046 2128 46.1303
46.422 2157 46.4435
46.5395 2234 47.2652
46.657 2221 47.1275
46.7745 2207 46.9787
46.892 2042 45.1885
47.0096 2076 45.5631
47.1271 2076 45.5631
47.2446 2105 45.8803
47.3622 2112 45.9565
47.4797 2140 46.2601
47.5973 2090 45.7165
47.7149 2155 46.422
47.8324 2098 45.8039
47.95 2113 45.9674
48.0675 2043 45.1996
48.1851 2128 46.1303
48.3027 2044 45.2106
48.4202 1999 44.7102
48.5378 2069 45.4863
48.6554 1933 43.9659
48.7729 1844 42.9418
48.8904 1859 43.1161
49.008 1903 43.6234
49.1255 1879 43.3474
49.243 1860 43.1277
49.3605 1947 44.1248
49.478 1975 44.441
49.5955 2041 45.1774
49.713 2015 44.8888
49.8304 2156 46.4327
49.9479 2167 46.551
50.0653 2082 45.6289
50.1827 2161 46.4866
50.3001 1856 43.0813
50.4175 1654 40.6694
50.5348 1668 40.8412
50.6521 1725 41.5331
50.7694 1898 43.566
50.8867 2035 45.111
51.004 2091 45.7275
51.1212 2128 46.1303
51.2384 2158 46.4543
51.3556 2122 46.0652
51.4727 2000 44.7214
51.5899 2099 45.8148
51.707 1974 44.4297
51.824 2032 45.0777
51.9411 2163 46.5081
52.0581 1953 44.1928
52.175 1950 44.1588
52.2919 2000 44.7214
52.4088 1940 44.0454
52.5257 1858 43.1045
52.6425 1874 43.2897
52.7593 1882 43.382
52.876 1935 43.9886
52.9927 1896 43.5431
53.1094 1858 43.1045
53.226 1901 43.6005
53.3426 1869 43.2319
53.4591 1944 44.0908
53.5756 1678 40.9634
53.692 1495 38.6652
53.8084 1338 36.5787
53.9248 1194 34.5543
54.0411 1123 33.5112
54.1573 1052 32.4345
54.2735 0 1
54.3896 0 1
54.5057 0 1
54.6217 0 1
54.7377 0 1
54.8537 0 1
54.9695 0 1
55.0853 0 1
55.2011 0 1
55.3168 0 1
55.4324 0 1
57.824 0 1
57.9396 0 1
58.0553 0 1
58.1711 0 1
58.2869 0 1
58.4028 0 1
58.5187 0 1
58.6347 0 1
58.7508 0 1
58.8669 0 1
58.983 1683 41.0244
59.0992 1728 41.5692
59.2155 1732 41.6173
59.3318 1885 43.4166
59.4482 2064 45.4313
59.5646 2335 48.3218
59.681 2427 49.2646
59.7975 2493 49.93
59.9141 2456 49.558
60.0306 2534 50.3389
60.1473 2495 49.95
60.2639 2433 49.3254
60.3807 2395 48.9387
60.4974 2503 50.03
60.6142 2385 48.8365
60.731 2420 49.1935
60.8479 2509 50.0899
60.9648 2475 49.7494
61.0818 2483 49.8297
61.1987 2426 49.2544
61.3158 2402 49.0102
61.4328 2366 48.6415
61.5499 2377 48.7545
61.667 2314 48.1041
61.7841 2255 47.4868
61.9013 2437 49.366
62.0185 2482 49.8197
62.1357 2439 49.3862
62.253 2392 48.9081
62.3702 2379 48.775
62.4875 2237 47.2969
62.6049 2129 46.1411
62.7222 2201 46.9148
62.8396 2269 47.634
62.9569 2524 50.2394
63.0743 2468 49.679
63.1918 2621 51.1957
63.3092 2565 50.6458
63.4267 2533 50.3289
63.5441 2598 50.9706
63.6616 2474 49.7393
63.7791 2426 49.2544
63.8966 2575 50.7445
64.0142 2616 51.1468
64.1317 2464 49.6387
64.2492 2428 49.2747
64.3668 2555 50.547
64.4843 2492 49.9199
64.6019 2463 49.6286
64.7195 2503 50.03
64.837 2333 48.3011
64.9546 2262 47.5605
65.0722 2361 48.5901
65.1898 2279 47.7389
65.3074 2377 48.7545
65.4249 2293 47.8853
65.5425 2384 48.8262
65.6601 2448 49.4773
65.7777 2427 49.2646
65.8952 2359 48.5695
66.0128 2207 46.9787
66.1304 2047 45.2438
66.2479 1948 44.1362
66.3655 2005 44.7772
66.483 2286 47.8121
66.6005 2477 49.7695
66.718 2446 49.4571
66.8355 2575 50.7445
66.953 2406 49.051
67.0705 2427 49.2646
67.1879 2498 49.98
67.3054 2405 49.0408
67.4228 2465 49.6488
67.5402 2476 49.7594
67.6576 2435 49.3457
67.7749 2518 50.1797
67.8923 2431 49.3052
68.0096 2418 49.1732
68.1269 2501 50.01
68.2442 2361 48.5901
68.3614 2344 48.4149
68.4787 2424 49.2341
68.5958 2232 47.244
68.713 2238 47.3075
68.8302 2192 46.8188
68.9473 2276 47.7074
69.0643 2306 48.0208
69.1814 2236 47.2864
69.2984 2245 47.3814
69.4154 2272 47.6655
69.5323 2330 48.2701
69.6492 2190 46.7974
69.7661 1895 43.5316
69.8829 1767 42.0357
69.9997 1874 43.2897
70.1165 2105 45.8803
70.2332 2084 45.6508
70.3499 2010 44.833
70.4665 1813 42.5793
70.5831 1737 41.6773
70.6996 1561 39.5095
70.8161 1547 39.3319
70.9326 1535 39.1791
71.049 1520 38.9872
71.1653 1420 37.6829
71.2817 1348 36.7151
71.3979 1290 35.9166
71.5141 1210 34.7851
71.6303 1172 34.2345
71.7464 1060 32.5576
71.8624 0 1
71.9784 0 1
72.0944 0 1
72.2102 0 1
72.3261 0 1
72.4418 0 1
72.5575 0 1
72.6732 0 1
75.1054 0 1
75.2209 0 1
75.3365 0 1
75.4521 0 1
75.5678 0 1
75.6835 0 1
75.7993 0 1
75.9151 0 1
76.031 0 1
76.147 1875 43.3013
76.263 2101 45.8367
76.3791 2138 46.2385
76.4952 2202 46.9255
76.6113 2270 47.6445
76.7276 2247 47.4025
76.8438 2254 47.4763
76.9601 2250 47.4342
77.0765 2277 47.7179
77.1929 2297 47.927
77.3093 2295 47.9062
77.4258 2282 47.7703
77.5423 2228 47.2017
77.6589 2162 46.4973
77.7755 2121 46.0543
77.8921 2202 46.9255
78.0088 2153 46.4004
78.1256 2191 46.8081
78.2423 2302 47.9792
78.3591 2232 47.244
78.4759 2280 47.7493
78.5928 2217 47.085
78.7097 2019 44.9333
78.8266 1777 42.1545
78.9436 1602 40.025
79.0606 1708 41.328
79.1776 1894 43.5201
79.2946 2120 46.0435
79.4117 2310 48.0625
79.5288 2359 48.5695
79.6459 2350 48.4768
79.7631 2351 48.4871
79.8802 2313 48.0937
79.9974 2335 48.3218
80.1147 2294 47.8957
80.2319 2410 49.0918
80.3491 2273 47.676
80.4664 2253 47.4658
80.5837 2413 49.1223
80.701 2379 48.775
80.8183 2435 49.3457
80.9357 2518 50.1797
81.053 2488 49.8799
81.1704 2504 50.04
81.2877 2447 49.4672
81.4051 2338 48.3529
81.5225 2338 48.3529
81.6399 2284 47.7912
81.7573 2395 48.9387
81.8747 2519 50.1896
81.9922 2615 51.1371
82.1096 2761 52.5452
82.227 2688 51.8459
82.3444 2574 50.7346
82.4619 2288 47.833
82.5793 2155 46.422
82.6967 2210 47.0106
82.8142 2643 51.4101
82.9316 3187 56.4535
83.049 3620 60.1664
83.1664 3703 60.8523
83.2838 3859 62.1208
83.4012 3778 61.4654
83.5186 3952 62.8649
83.636 4031 63.4902
83.7534 4156 64.467
83.8708 4022 63.4192
83.9881 4249 65.1844
84.1055 4408 66.3928
84.2228 4247 65.169
84.3401 4435 66.5958
84.4575 4317 65.7039
84.5747 4278 65.4064
84.692 4276 65.3911
84.8093 4371 66.1135
84.9265 4219 64.9538
85.0437 4194 64.7611
85.1609 4327 65.7799
85.2781 4179 64.6452
85.3952 4100 64.0312
85.5123 4201 64.8151
85.6294 4027 63.4586
85.7465 4112 64.1249
85.8636 3808 61.709
85.9806 3219 56.7362
86.0976 2802 52.9339
86.2145 2786 52.7826
86.3315 3001 54.7814
86.4484 3833 61.9112
86.5652 4106 64.0781
86.682 4046 63.6082
86.7988 4196 64.7765
86.9156 4106 64.0781
87.0323 4116 64.1561
87.149 4087 63.9296
87.2657 4160 64.4981
87.3823 4108 64.0937
87.4988 4044 63.5925
87.6154 3539 59.4895
87.7318 3260 57.0964
87.8483 3239 56.9122
87.9647 2987 54.6535
88.081 2826 53.1601
88.1973 2896 53.8145
88.3136 2778 52.7067
88.4298 2631 51.2933
88.546 2424 49.2341
88.6621 2361 48.5901
88.7781 2426 49.2544
88.8942 0 1
89.0101 0 1
89.126 0 1
89.2419 0 1
89.3577 0 1
89.4734 0 1
89.5891 0 1
89.7047 0 1
89.8203 0 1
89.9358 0 1
92.3269 0 1
92.4424 0 1
92.558 0 1
92.6736 0 1
92.7893 0 1
92.905 0 1
93.0208 0 1
93.1366 0 1
93.2525 0 1
93.3685 0 1
93.4845 0 1
93.6005 4562 67.5426
93.7167 4347 65.9318
93.8328 4362 66.0454
93.949 4377 66.1589
94.0653 4338 65.8635
94.1816 4354 65.9848
94.2979 4370 66.106
94.4143 4300 65.5744
94.5307 4391 66.2646
94.6472 4234 65.0692
94.7637 4141 64.3506
94.8803 3811 61.7333
94.9969 3348 57.8619
95.1135 3004 54.8088
95.2302 3251 57.0175
95.3469 3702 60.8441
95.4637 4138 64.3273
95.5805 4306 65.6201
95.6973 4485 66.9701
95.8142 4429 66.5507
95.9311 4456 66.7533
96.048 4450 66.7083
96.1649 4531 67.3127
96.2819 4616 67.9412
96.3989 4566 67.5722
96.516 4503 67.1044
96.633 4497 67.0597
96.7501 4514 67.1863
96.8673 4667 68.3154
96.9844 4606 67.8675
97.1016 4594 67.7791
97.2188 4830 69.4982
97.336 4471 66.8655
97.4532 4376 66.1513
97.5704 4507 67.1342
97.6877 4487 66.9851
97.805 4435 66.5958
97.9223 4426 66.5282
98.0396 4498 67.0671
98.1569 4347 65.9318
98.2743 4284 65.4523
98.3916 3859 62.1208
98.509 3443 58.6771
98.6264 3115 55.8122
98.7438 3173 56.3294
98.8612 3586 59.8832
98.9786 4055 63.6789
99.096 4290 65.4981
99.2134 4267 65.3223
99.3308 4148 64.405
99.4482 4112 64.1249
99.5656 3970 63.0079
99.6831 3961 62.9365
99.8005 3725 61.0328
99.9179 3738 61.1392
100.035 3617 60.1415
100.153 3491 59.0847
100.27 3596 59.9667
100.388 3496 59.127
100.505 3584 59.8665
100.622 3503 59.1861
100.74 3444 58.6856
100.857 3256 57.0614
100.975 3126 55.9106
101.092 3174 56.3383
101.209 3023 54.9818
101.327 2973 54.5252
101.444 3058 55.2992
101.561 3052 55.2449
101.679 3042 55.1543
101.796 2996 54.7357
101.913 2949 54.3047
102.03 2769 52.6213
102.148 2354 48.518
102.265 2159 46.465
102.382 2470 49.6991
102.499 2718 52.1344
102.616 2871 53.5817
102.733 2888 53.7401
102.851 2822 53.1225
102.968 2882 53.6843
103.085 2830 53.1977
103.202 2805 52.9623
103.319 2882 53.6843
103.436 2845 53.3385
103.552 2751 52.45
103.669 2836 53.2541
103.786 2717 52.1249
103.903 2780 52.7257
104.02 2797 52.8867
104.137 2789 52.811
104.253 2990 54.6809
104.37 2691 51.8748
104.487 2795 52.8678
104.603 2779 52.7162
104.72 2638 51.3615
104.836 2507 50.07
104.953 2193 46.8295
105.069 1946 44.1135
105.186 1721 41.4849
105.302 1717 41.4367
105.418 1579 39.7366
105.535 1443 37.9868
105.651 1282 35.805
105.767 1033 32.1403
105.883 929 30.4795
105.999 893 29.8831
106.115 0 1
106.231 0 1
106.347 0 1
106.463 0 1
106.579 0 1
106.694 0 1
106.81 0 1
106.926 0 1
107.041 0 1
107.157 0 1
109.576 0 1
109.692 0 1
109.807 0 1
109.923 0 1
110.039 0 1
110.155 0 1
110.27 0 1
110.386 0 1
110.502 0 1
110.618 2697 51.9326
110.735 2814 53.0471
110.851 2660 51.5752
110.967 2464 49.6387
111.083 2404 49.0306
111.199 2589 50.8822
111.316 2942 54.2402
111.432 3028 55.0273
111.549 2990 54.6809
111.665 3094 55.6237
111.782 3144 56.0714
111.898 3092 55.6058
112.015 3154 56.1605
112.132 2979 54.5802
112.248 3060 55.3173
112.365 3062 55.3353
112.482 3073 55.4346
112.599 3211 56.6657
112.716 3239 56.9122
112.832 3352 57.8965
112.949 3357 57.9396
113.066 3498 59.1439
113.183 3369 58.0431
113.3 3373 58.0775
113.417 3354 57.9137
113.534 3311 57.5413
113.652 3345 57.836
113.769 3414 58.4294
113.886 3359 57.9569
114.003 3320 57.6194
114.12 3439 58.643
114.238 3245 56.9649
114.355 2995 54.7266
114.472 2698 51.9423
114.589 2582 50.8134
114.707 2687 51.8363
114.824 2906 53.9073
114.942 3148 56.107
115.059 3237 56.8946
115.176 3170 56.3028
115.294 3197 56.542
115.411 3087 55.5608
115.529 3164 56.2494
115.646 3159 56.205
115.764 3037 55.109
115.881 3108 55.7494
115.999 2970 54.4977
116.116 3198 56.5509
116.234 3250 57.0088
116.351 3257 57.0701
116.469 3409 58.3866
116.586 3494 59.1101
116.704 3488 59.0593
116.821 3532 59.4306
116.939 3375 58.0948
117.056 3405 58.3524
117.174 3465 58.8643
117.291 3380 58.1378
117.409 3467 58.8812
117.526 3337 57.7668
117.644 3404 58.3438
117.761 3325 57.6628
117.879 3220 56.745
117.996 2932 54.1479
118.114 2717 52.1249
118.231 2679 51.7591
118.349 2777 52.6972
118.466 2992 54.6992
118.584 3123 55.8838
118.701 3079 55.4887
118.819 3211 56.6657
118.936 3175 56.3471
119.053 3143 56.0625
119.171 3053 55.254
119.288 3069 55.3986
119.405 3078 55.4797
119.523 3033 55.0727
119.64 2926 54.0925
119.757 2981 54.5985
119.875 3154 56.1605
119.992 3113 55.7943
120.109 3315 57.576
120.226 3286 57.3236
120.343 3249 57
120.46 3227 56.8067
120.578 3303 57.4717
120.695 3216 56.7098
120.812 3277 57.2451
120.929 3231 56.8419
121.046 3174 56.3383
121.163 3103 55.7046
121.279 3042 55.1543
121.396 3218 56.7274
121.513 3016 54.9181
121.63 2710 52.0577
121.747 2436 49.3559
121.863 2168 46.5618
121.98 2125 46.0977
122.097 2178 46.669
122.213 2132 46.1736
122.33 2195 46.8508
122.446 2185 46.744
122.563 2174 46.6262
122.679 2051 45.288
122.795 2074 45.5412
122.912 1951 44.1701
123.028 1791 42.3202
123.144 1858 43.1045
123.26 1927 43.8976
123.377 0 1
123.493 0 1
123.609 0 1
123.725 0 1
123.84 0 1
123.956 0 1
124.072 0 1
124.188 0 1
124.303 0 1
124.419 0 1
126.852 0 1
126.968 0 1
127.083 0 1
127.199 0 1
127.315 0 1
127.431 0 1
127.547 0 1
127.663 0 1
127.779 0 1
127.895 0 1
128.011 0 1
128.127 0 1
128.243 0 1
128.359 3545 59.5399
128.476 3633 60.2744
128.592 3654 60.4483
128.708 3568 59.7327
128.825 3574 59.7829
128.941 3712 60.9262
129.058 3772 61.4166
129.174 3764 61.3514
129.291 3970 63.0079
129.408 3940 62.7694
129.524 4081 63.8827
129.641 4184 64.6838
129.758 4110 64.1093
129.875 4312 65.6658
129.992 4305 65.6125
130.108 4338 65.8635
130.225 4274 65.3758
130.342 4192 64.7457
130.459 4125 64.2262
130.576 4060 63.7181
130.693 3903 62.474
130.81 3739 61.1474
130.928 3768 61.384
131.045 3893 62.3939
131.162 3874 62.2415
131.279 3998 63.2297
131.396 4087 63.9296
131.513 4031 63.4902
131.631 4199 64.7997
131.748 4325 65.7647
131.865 4057 63.6946
131.983 4054 63.671
132.1 3998 63.2297
132.217 4031 63.4902
132.335 4085 63.914
132.452 3945 62.8092
132.57 3854 62.0806
132.687 3904 62.482
132.804 4229 65.0308
132.922 4088 63.9375
133.039 4123 64.2106
133.157 4027 63.4586
133.274 4210 64.8845
133.392 4259 65.261
133.509 4414 66.4379
133.627 4485 66.9701
133.744 4650 68.1909
133.862 4578 67.6609
133.979 4653 68.2129
134.097 4515 67.1937
134.214 4272 65.3605
134.332 4095 63.9922
134.449 4053 63.6632
134.567 4226 65.0077
134.684 4315 65.6887
134.802 4392 66.2722
134.919 4557 67.5056
135.037 4446 66.6783
135.154 4441 66.6408
135.272 4430 66.5582
135.389 4363 66.053
135.507 4369 66.0984
135.624 4367 66.0833
135.742 4170 64.5755
135.859 4308 65.6354
135.977 4135 64.304
136.094 4152 64.436
136.211 4145 64.3817
136.329 4207 64.8614
136.446 4210 64.8845
136.564 4247 65.169
136.681 4220 64.9615
136.798 4192 64.7457
136.915 4267 65.3223
137.033 4272 65.3605
137.15 4303 65.5973
137.267 4285 65.4599
137.384 4381 66.1891
137.502 4431 66.5658
137.619 4418 66.468
137.736 4289 65.4905
137.853 4040 63.561
137.97 4200 64.8074
138.087 3870 62.2093
138.204 4018 63.3877
138.321 4173 64.5988
138.438 4126 64.2339
138.555 4288 65.4828
138.672 4197 64.7843
138.788 4102 64.0469
138.905 4145 64.3817
139.022 4074 63.8279
139.139 3964 62.9603
139.255 3663 60.5227
139.372 3434 58.6003
139.488 3379 58.1292
139.605 3211 56.6657
139.721 3095 55.6327
139.838 3058 55.2992
139.954 3009 54.8544
140.071 2988 54.6626
140.187 2916 54
140.303 2929 54.1202
140.419 2898 53.8331
140.535 3007 54.8361
140.652 3127 55.9196
140.768 0 1
140.884 0 1
141 0 1
141.115 0 1
141.231 0 1
141.347 0 1
141.463 0 1
141.578 0 1
141.694 0 1
144.104 0 1
144.219 0 1
144.335 0 1
144.45 0 1
144.566 0 1
144.682 0 1
144.798 0 1
144.914 0 1
145.03 0 1
145.146 8428 91.8041
145.262 8858 94.1169
145.378 8700 93.2738
145.494 8681 93.1719
145.61 8965 94.6837
145.726 8865 94.1541
145.842 9142 95.6138
145.959 9134 95.572
146.075 8869 94.1754
146.192 9138 95.5929
146.308 8837 94.0053
146.425 8632 92.9086
146.541 8105 90.0278
146.658 6927 83.2286
146.774 5854 76.5114
146.891 5869 76.6094
147.008 6458 80.3617
147.125 7917 88.9775
147.241 8574 92.5959
147.358 8723 93.397
147.475 8878 94.2231
147.592 8814 93.8829
147.709 8950 94.6044
147.826 8863 94.1435
147.943 8995 94.842
148.06 8969 94.7048
148.177 8900 94.3398
148.294 8949 94.5992
148.411 9018 94.9632
148.528 8898 94.3292
148.645 9052 95.142
148.762 9023 94.9895
148.88 9036 95.0579
148.997 8857 94.1116
149.114 9512 97.5295
149.231 9037 95.0631
149.349 9367 96.7833
149.466 9040 95.0789
149.583 9335 96.6178
149.701 9379 96.8452
149.818 9403 96.9691
149.935 9176 95.7914
150.053 9138 95.5929
150.17 8811 93.8669
150.287 7581 87.0689
150.405 6529 80.8022
150.522 6011 77.5306
150.64 6581 81.1234
150.757 7612 87.2468
150.875 8317 91.1976
150.992 8708 93.3167
151.11 8720 93.3809
151.227 8613 92.8062
151.344 8735 93.4612
151.462 8718 93.3702
151.579 8891 94.2921
151.697 8894 94.308
151.814 8719 93.3756
151.932 8811 93.8669
152.049 8727 93.4184
152.167 9044 95.0999
152.284 8979 94.7576
152.402 8893 94.3027
152.519 9004 94.8894
152.636 9115 95.4725
152.754 9205 95.9427
152.871 9064 95.205
152.989 9271 96.286
153.106 9393 96.9175
153.223 9388 96.8917
153.341 9496 97.4474
153.458 9413 97.0206
153.575 9335 96.6178
153.693 9343 96.6592
153.81 8957 94.6414
153.927 8007 89.4818
154.044 6706 81.8902
154.162 6443 80.2683
154.279 6932 83.2586
154.396 8069 89.8276
154.513 9004 94.8894
154.63 9407 96.9897
154.747 9036 95.0579
154.864 9027 95.0105
154.981 8921 94.451
155.098 9004 94.8894
155.215 8867 94.1647
155.332 8544 92.4338
155.449 8566 92.5527
155.566 8053 89.7385
155.683 8081 89.8944
155.8 7954 89.1852
155.917 7785 88.2326
156.033 7614 87.2582
156.15 0 1
156.267 0 1
156.383 0 1
156.5 0 1
156.617 0 1
156.733 0 1
156.85 0 1
156.966 0 1
157.082 0 1
157.199 0 1
157.315 0 1
157.431 0 1
157.547 0 1
157.664 0 1
157.78 0 1
157.896 0 1
158.012 0 1
158.128 0 1
158.244 0 1
158.359 0 1
158.475 0 1
158.591 0 1
158.706 0 1
