
6.15755 0 1
6.2731 0 1
6.3887 0 1
6.50437 0 1
6.62009 0 1
6.73587 0 1
6.8517 0 1
6.96759 0 1
7.08353 0 1
7.19952 0 1
7.31557 0 1
7.43166 0 1
7.54781 0 1
7.664 0 1
7.78024 0 1
7.89653 0 1
8.01286 0 1
8.12924 0 1
8.24567 0 1
8.36213 0 1
8.47864 0 1
8.59519 0 1
8.71178 0 1
8.82841 0 1
8.94508 0 1
9.06179 0 1
9.17853 0 1
9.29531 0 1
9.41212 0 1
9.52897 0 1
9.64584 0 1
9.76276 0 1
9.8797 0 1
9.99667 0 1
10.1137 0 1
10.2307 0 1
10.3478 0 1
10.4648 0 1
10.5819 0 1
10.6991 0 1
10.8162 0 1
10.9334 0 1
11.0506 0 1
11.1678 0 1
11.285 0 1
11.4023 0 1
11.5196 0 1
11.6369 0 1
11.7542 0 1
11.8715 0 1
11.9888 0 1
12.1062 0 1
12.2235 0 1
12.3409 0 1
12.4582 0 1
12.5756 0 1
12.693 0 1
12.8104 0 1
12.9278 0 1
13.0452 0 1
13.1626 0 1
13.28 0 1
13.3974 0 1
13.5149 0 1
13.6323 0 1
13.7497 0 1
13.8671 0 1
13.9845 0 1
14.1019 0 1
14.2193 0 1
14.3367 0 1
14.4541 0 1
14.5714 0 1
14.6888 0 1
14.8062 0 1
14.9235 0 1
15.0408 652 25.5343
15.1581 669 25.865
15.2755 693 26.3249
15.3927 682 26.1151
15.51 730 27.0185
15.6273 658 25.6515
15.7445 732 27.0555
15.8617 761 27.5862
15.9789 674 25.9615
16.0961 669 25.865
16.2132 683 26.1343
16.3304 607 24.6374
16.4475 633 25.1595
16.5646 642 25.3377
16.6816 641 25.318
16.7986 649 25.4755
16.9156 670 25.8844
17.0326 624 24.98
17.1496 646 25.4165
17.2665 617 24.8395
17.3833 680 26.0768
17.5002 666 25.807
17.617 699 26.4386
17.7338 717 26.7769
17.8505 724 26.9072
17.9672 703 26.5141
18.0839 665 25.7876
18.2005 629 25.0799
18.3171 611 24.7184
18.4337 621 24.9199
18.5502 636 25.219
18.6666 625 25
18.7831 628 25.0599
18.8994 647 25.4362
19.0158 575 23.9792
19.1321 580 24.0832
19.2483 537 23.1733
19.3645 542 23.2809
19.4806 539 23.2164
19.5967 543 23.3024
19.7128 498 22.3159
19.8288 441 21
19.9447 413 20.3224
20.0606 0 1
20.1764 0 1
20.2922 0 1
20.4079 0 1
20.5236 0 1
20.6392 0 1
20.7548 0 1
20.8702 0 1
23.3078 0 1
23.4233 0 1
23.539 0 1
23.6547 0 1
23.7704 0 1
23.8862 0 1
24.0021 0 1
24.118 0 1
24.234 0 1
24.35 0 1
24.4661 258 16.0624
24.5822 302 17.3781
24.6984 335 18.303
24.8146 372 19.2873
24.9309 440 20.9762
25.0472 488 22.0907
25.1636 533 23.0868
25.28 555 23.5584
25.3965 597 24.4336
25.513 625 25
25.6296 676 26
25.7462 678 26.0384
25.8628 696 26.3818
25.9795 737 27.1477
26.0962 688 26.2298
26.213 698 26.4197
26.3298 627 25.04
26.4466 601 24.5153
26.5635 545 23.3452
26.6804 574 23.9583
26.7973 600 24.4949
26.9143 537 23.1733
27.0313 510 22.5832
27.1483 533 23.0868
27.2653 512 22.6274
27.3824 568 23.8328
27.4996 592 24.3311
27.6167 528 22.9783
27.7339 574 23.9583
27.8511 577 24.0208
27.9683 628 25.0599
28.0855 623 24.96
28.2028 603 24.5561
28.3201 631 25.1197
28.4374 595 24.3926
28.5547 589 24.2693
28.6721 590 24.2899
28.7894 604 24.5764
28.9068 584 24.1661
29.0242 587 24.2281
29.1416 591 24.3105
29.259 547 23.388
29.3764 592 24.3311
29.4939 569 23.8537
29.6113 575 23.9792
29.7288 561 23.6854
29.8463 569 23.8537
29.9638 614 24.779
30.0812 548 23.4094
30.1987 531 23.0434
30.3162 507 22.5167
30.4337 554 23.5372
30.5512 547 23.388
30.6687 508 22.5389
30.7862 566 23.7908
30.9037 589 24.2693
31.0212 554 23.5372
31.1387 593 24.3516
31.2562 598 24.454
31.3737 561 23.6854
31.4912 596 24.4131
31.6087 617 24.8395
31.7262 566 23.7908
31.8436 544 23.3238
31.9611 525 22.9129
32.0785 507 22.5167
32.1959 513 22.6495
32.3134 533 23.0868
32.4308 514 22.6716
32.5482 518 22.7596
32.6655 528 22.9783
32.7829 544 23.3238
32.9002 485 22.0227
33.0176 492 22.1811
33.1349 525 22.9129
33.2522 469 21.6564
33.3694 513 22.6495
33.4867 531 23.0434
33.6039 558 23.622
33.7211 554 23.5372
33.8383 505 22.4722
33.9554 520 22.8035
34.0725 511 22.6053
34.1896 455 21.3307
34.3067 493 22.2036
34.4237 497 22.2935
34.5407 555 23.5584
34.6577 577 24.0208
34.7746 578 24.0416
34.8915 557 23.6008
35.0084 525 22.9129
35.1252 535 23.1301
35.242 555 23.5584
35.3587 511 22.6053
35.4755 522 22.8473
35.5921 555 23.5584
35.7088 468 21.6333
35.8254 455 21.3307
35.9419 459 21.4243
36.0584 416 20.3961
36.1749 464 21.5407
36.2913 483 21.9773
36.4077 468 21.6333
36.524 486 22.0454
36.6403 411 20.2731
36.7565 414 20.347
36.8727 417 20.4206
36.9889 366 19.1311
37.1049 395 19.8746
37.221 0 1
37.3369 0 1
37.4529 0 1
37.5687 0 1
37.6845 0 1
37.8003 0 1
37.916 0 1
38.0316 0 1
38.1472 0 1
40.5851 0 1
40.7008 0 1
40.8164 0 1
40.9322 0 1
41.048 0 1
41.1639 0 1
41.2798 0 1
41.3958 0 1
41.5118 0 1
41.6279 0 1
41.744 206 14.3527
41.8602 324 18
41.9765 335 18.303
42.0928 361 19
42.2091 337 18.3576
42.3255 411 20.2731
42.4419 398 19.9499
42.5584 431 20.7605
42.675 478 21.8632
42.7915 408 20.199
42.9081 401 20.025
43.0248 367 19.1572
43.1415 417 20.4206
43.2582 436 20.8806
43.375 423 20.567
43.4918 429 20.7123
43.6087 434 20.8327
43.7256 476 21.8174
43.8425 483 21.9773
43.9595 458 21.4009
44.0765 462 21.4942
44.1935 446 21.1187
44.3106 456 21.3542
44.4277 413 20.3224
44.5448 406 20.1494
44.6619 403 20.0749
44.7791 359 18.9473
44.8963 439 20.9523
45.0136 432 20.7846
45.1308 429 20.7123
45.2481 414 20.347
45.3654 455 21.3307
45.4827 445 21.095
45.6001 463 21.5174
45.7174 435 20.8567
45.8348 469 21.6564
45.9522 451 21.2368
46.0697 482 21.9545
46.1871 450 21.2132
46.3046 427 20.664
46.422 389 19.7231
46.5395 388 19.6977
46.657 363 19.0526
46.7745 406 20.1494
46.892 414 20.347
47.0096 408 20.199
47.1271 451 21.2368
47.2446 424 20.5913
47.3622 425 20.6155
47.4797 436 20.8806
47.5973 413 20.3224
47.7149 376 19.3907
47.8324 418 20.445
47.95 396 19.8997
48.0675 381 19.5192
48.1851 368 19.1833
48.3027 396 19.8997
48.4202 379 19.4679
48.5378 421 20.5183
48.6554 421 20.5183
48.7729 428 20.6882
48.8904 444 21.0713
49.008 431 20.7605
49.1255 432 20.7846
49.243 445 21.095
49.3605 442 21.0238
49.478 452 21.2603
49.5955 454 21.3073
49.713 417 20.4206
49.8304 410 20.2485
49.9479 373 19.3132
50.0653 355 18.8414
50.1827 340 18.4391
50.3001 373 19.3132
50.4175 413 20.3224
50.5348 420 20.4939
50.6521 393 19.8242
50.7694 449 21.1896
50.8867 457 21.3776
51.004 447 21.1424
51.1212 416 20.3961
51.2384 460 21.4476
51.3556 412 20.2978
51.4727 428 20.6882
51.5899 386 19.6469
51.707 381 19.5192
51.824 404 20.0998
51.9411 459 21.4243
52.0581 449 21.1896
52.175 498 22.3159
52.2919 490 22.1359
52.4088 522 22.8473
52.5257 505 22.4722
52.6425 583 24.1454
52.7593 574 23.9583
52.876 658 25.6515
52.9927 678 26.0384
53.1094 708 26.6083
53.226 691 26.2869
53.3426 718 26.7955
53.4591 710 26.6458
53.5756 724 26.9072
53.692 696 26.3818
53.8084 649 25.4755
53.9248 670 25.8844
54.0411 661 25.7099
54.1573 693 26.3249
54.2735 0 1
54.3896 0 1
54.5057 0 1
54.6217 0 1
54.7377 0 1
54.8537 0 1
54.9695 0 1
55.0853 0 1
55.2011 0 1
55.3168 0 1
55.4324 0 1
57.824 0 1
57.9396 0 1
58.0553 0 1
58.1711 0 1
58.2869 0 1
58.4028 0 1
58.5187 0 1
58.6347 0 1
58.7508 0 1
58.8669 0 1
58.983 523 22.8692
59.0992 646 25.4165
59.2155 704 26.533
59.3318 849 29.1376
59.4482 921 30.348
59.5646 993 31.5119
59.681 987 31.4166
59.7975 1036 32.187
59.9141 1038 32.218
60.0306 1030 32.0936
60.1473 1074 32.7719
60.2639 992 31.496
60.3807 981 31.3209
60.4974 934 30.5614
60.6142 985 31.3847
60.731 1036 32.187
60.8479 980 31.305
60.9648 1029 32.078
61.0818 977 31.257
61.1987 953 30.8707
61.3158 951 30.8383
61.4328 927 30.4467
61.5499 948 30.7896
61.667 930 30.4959
61.7841 929 30.4795
61.9013 907 30.1164
62.0185 801 28.3019
62.1357 791 28.1247
62.253 740 27.2029
62.3702 709 26.6271
62.4875 716 26.7582
62.6049 752 27.4226
62.7222 751 27.4044
62.8396 746 27.313
62.9569 710 26.6458
63.0743 745 27.2947
63.1918 733 27.074
63.3092 682 26.1151
63.4267 691 26.2869
63.5441 686 26.1916
63.6616 612 24.7386
63.7791 556 23.5797
63.8966 436 20.8806
64.0142 488 22.0907
64.1317 508 22.5389
64.2492 505 22.4722
64.3668 461 21.4709
64.4843 464 21.5407
64.6019 452 21.2603
64.7195 524 22.891
64.837 444 21.0713
64.9546 532 23.0651
65.0722 476 21.8174
65.1898 526 22.9347
65.3074 512 22.6274
65.4249 471 21.7025
65.5425 462 21.4942
65.6601 456 21.3542
65.7777 473 21.7486
65.8952 465 21.5639
66.0128 411 20.2731
66.1304 433 20.8087
66.2479 471 21.7025
66.3655 487 22.0681
66.483 462 21.4942
66.6005 506 22.4944
66.718 473 21.7486
66.8355 464 21.5407
66.953 478 21.8632
67.0705 491 22.1585
67.1879 436 20.8806
67.3054 452 21.2603
67.4228 438 20.9284
67.5402 444 21.0713
67.6576 411 20.2731
67.7749 446 21.1187
67.8923 480 21.9089
68.0096 425 20.6155
68.1269 472 21.7256
68.2442 447 21.1424
68.3614 460 21.4476
68.4787 492 22.1811
68.5958 503 22.4277
68.713 455 21.3307
68.8302 482 21.9545
68.9473 479 21.8861
69.0643 476 21.8174
69.1814 445 21.095
69.2984 434 20.8327
69.4154 435 20.8567
69.5323 415 20.3715
69.6492 429 20.7123
69.7661 439 20.9523
69.8829 439 20.9523
69.9997 455 21.3307
70.1165 482 21.9545
70.2332 459 21.4243
70.3499 456 21.3542
70.4665 422 20.5426
70.5831 389 19.7231
70.6996 362 19.0263
70.8161 344 18.5472
70.9326 294 17.1464
71.049 246 15.6844
71.1653 249 15.7797
71.2817 218 14.7648
71.3979 252 15.8745
71.5141 222 14.8997
71.6303 207 14.3875
71.7464 192 13.8564
71.8624 0 1
71.9784 0 1
72.0944 0 1
72.2102 0 1
72.3261 0 1
72.4418 0 1
72.5575 0 1
72.6732 0 1
75.1054 0 1
75.2209 0 1
75.3365 0 1
75.4521 0 1
75.5678 0 1
75.6835 0 1
75.7993 0 1
75.9151 0 1
76.031 0 1
76.147 298 17.2627
76.263 327 18.0831
76.3791 341 18.4662
76.4952 354 18.8149
76.6113 318 17.8326
76.7276 373 19.3132
76.8438 382 19.5448
76.9601 355 18.8414
77.0765 398 19.9499
77.1929 440 20.9762
77.3093 387 19.6723
77.4258 383 19.5704
77.5423 388 19.6977
77.6589 381 19.5192
77.7755 451 21.2368
77.8921 380 19.4936
78.0088 390 19.7484
78.1256 390 19.7484
78.2423 389 19.7231
78.3591 351 18.735
78.4759 319 17.8606
78.5928 317 17.8045
78.7097 359 18.9473
78.8266 360 18.9737
78.9436 369 19.2094
79.0606 420 20.4939
79.1776 422 20.5426
79.2946 424 20.5913
79.4117 421 20.5183
79.5288 358 18.9209
79.6459 406 20.1494
79.7631 363 19.0526
79.8802 390 19.7484
79.9974 382 19.5448
80.1147 364 19.0788
80.2319 349 18.6815
80.3491 434 20.8327
80.4664 395 19.8746
80.5837 409 20.2237
80.701 372 19.2873
80.8183 432 20.7846
80.9357 443 21.0476
81.053 414 20.347
81.1704 394 19.8494
81.2877 430 20.7364
81.4051 407 20.1742
81.5225 460 21.4476
81.6399 422 20.5426
81.7573 435 20.8567
81.8747 376 19.3907
81.9922 394 19.8494
82.1096 373 19.3132
82.227 370 19.2354
82.3444 355 18.8414
82.4619 344 18.5472
82.5793 378 19.4422
82.6967 451 21.2368
82.8142 430 20.7364
82.9316 415 20.3715
83.049 433 20.8087
83.1664 398 19.9499
83.2838 445 21.095
83.4012 420 20.4939
83.5186 404 20.0998
83.636 365 19.105
83.7534 374 19.3391
83.8708 380 19.4936
83.9881 419 20.4695
84.1055 374 19.3391
84.2228 420 20.4939
84.3401 481 21.9317
84.4575 412 20.2978
84.5747 373 19.3132
84.692 444 21.0713
84.8093 426 20.6398
84.9265 420 20.4939
85.0437 423 20.567
85.1609 410 20.2485
85.2781 433 20.8087
85.3952 417 20.4206
85.5123 419 20.4695
85.6294 351 18.735
85.7465 382 19.5448
85.8636 362 19.0263
85.9806 349 18.6815
86.0976 405 20.1246
86.2145 434 20.8327
86.3315 439 20.9523
86.4484 435 20.8567
86.5652 456 21.3542
86.682 404 20.0998
86.7988 396 19.8997
86.9156 381 19.5192
87.0323 398 19.9499
87.149 411 20.2731
87.2657 447 21.1424
87.3823 400 20
87.4988 430 20.7364
87.6154 422 20.5426
87.7318 406 20.1494
87.8483 376 19.3907
87.9647 403 20.0749
88.081 342 18.4932
88.1973 336 18.3303
88.3136 287 16.9411
88.4298 274 16.5529
88.546 239 15.4596
88.6621 251 15.843
88.7781 219 14.7986
88.8942 0 1
89.0101 0 1
89.126 0 1
89.2419 0 1
89.3577 0 1
89.4734 0 1
89.5891 0 1
89.7047 0 1
89.8203 0 1
89.9358 0 1
92.3269 0 1
92.4424 0 1
92.558 0 1
92.6736 0 1
92.7893 0 1
92.905 0 1
93.0208 0 1
93.1366 0 1
93.2525 0 1
93.3685 0 1
93.4845 0 1
93.6005 319 17.8606
93.7167 331 18.1934
93.8328 407 20.1742
93.949 380 19.4936
94.0653 410 20.2485
94.1816 423 20.567
94.2979 431 20.7605
94.4143 425 20.6155
94.5307 408 20.199
94.6472 413 20.3224
94.7637 417 20.4206
94.8803 367 19.1572
94.9969 413 20.3224
95.1135 419 20.4695
95.2302 414 20.347
95.3469 398 19.9499
95.4637 425 20.6155
95.5805 453 21.2838
95.6973 430 20.7364
95.8142 417 20.4206
95.9311 429 20.7123
96.048 434 20.8327
96.1649 425 20.6155
96.2819 423 20.567
96.3989 409 20.2237
96.516 399 19.975
96.633 443 21.0476
96.7501 435 20.8567
96.8673 412 20.2978
96.9844 471 21.7025
97.1016 431 20.7605
97.2188 463 21.5174
97.336 429 20.7123
97.4532 410 20.2485
97.5704 456 21.3542
97.6877 426 20.6398
97.805 465 21.5639
97.9223 457 21.3776
98.0396 459 21.4243
98.1569 443 21.0476
98.2743 422 20.5426
98.3916 381 19.5192
98.509 414 20.347
98.6264 422 20.5426
98.7438 435 20.8567
98.8612 429 20.7123
98.9786 431 20.7605
99.096 411 20.2731
99.2134 474 21.7715
99.3308 455 21.3307
99.4482 466 21.587
99.5656 469 21.6564
99.6831 456 21.3542
99.8005 479 21.8861
99.9179 465 21.5639
100.035 406 20.1494
100.153 452 21.2603
100.27 485 22.0227
100.388 472 21.7256
100.505 471 21.7025
100.622 489 22.1133
100.74 463 21.5174
100.857 431 20.7605
100.975 458 21.4009
101.092 435 20.8567
101.209 455 21.3307
101.327 487 22.0681
101.444 445 21.095
101.561 486 22.0454
101.679 460 21.4476
101.796 468 21.6333
101.913 452 21.2603
102.03 477 21.8403
102.148 456 21.3542
102.265 432 20.7846
102.382 428 20.6882
102.499 532 23.0651
102.616 487 22.0681
102.733 506 22.4944
102.851 513 22.6495
102.968 470 21.6795
103.085 461 21.4709
103.202 437 20.9045
103.319 499 22.3383
103.436 447 21.1424
103.552 458 21.4009
103.669 488 22.0907
103.786 514 22.6716
103.903 476 21.8174
104.02 469 21.6564
104.137 482 21.9545
104.253 508 22.5389
104.37 476 21.8174
104.487 470 21.6795
104.603 420 20.4939
104.72 462 21.4942
104.836 440 20.9762
104.953 440 20.9762
105.069 440 20.9762
105.186 461 21.4709
105.302 415 20.3715
105.418 364 19.0788
105.535 330 18.1659
105.651 324 18
105.767 289 17
105.883 305 17.4642
105.999 293 17.1172
106.115 0 1
106.231 0 1
106.347 0 1
106.463 0 1
106.579 0 1
106.694 0 1
106.81 0 1
106.926 0 1
107.041 0 1
107.157 0 1
109.576 0 1
109.692 0 1
109.807 0 1
109.923 0 1
110.039 0 1
110.155 0 1
110.27 0 1
110.386 0 1
110.502 0 1
110.618 227 15.0665
110.735 277 16.6433
110.851 332 18.2209
110.967 338 18.3848
111.083 352 18.7617
111.199 441 21
111.316 451 21.2368
111.432 426 20.6398
111.549 463 21.5174
111.665 454 21.3073
111.782 448 21.166
111.898 440 20.9762
112.015 400 20
112.132 425 20.6155
112.248 419 20.4695
112.365 418 20.445
112.482 421 20.5183
112.599 468 21.6333
112.716 463 21.5174
112.832 462 21.4942
112.949 434 20.8327
113.066 422 20.5426
113.183 447 21.1424
113.3 420 20.4939
113.417 400 20
113.534 452 21.2603
113.652 428 20.6882
113.769 401 20.025
113.886 403 20.0749
114.003 412 20.2978
114.12 429 20.7123
114.238 404 20.0998
114.355 394 19.8494
114.472 400 20
114.589 439 20.9523
114.707 441 21
114.824 456 21.3542
114.942 420 20.4939
115.059 456 21.3542
115.176 436 20.8806
115.294 473 21.7486
115.411 414 20.347
115.529 361 19
115.646 369 19.2094
115.764 405 20.1246
115.881 437 20.9045
115.999 365 19.105
116.116 443 21.0476
116.234 405 20.1246
116.351 427 20.664
116.469 400 20
116.586 370 19.2354
116.704 408 20.199
116.821 388 19.6977
116.939 394 19.8494
117.056 392 19.799
117.174 403 20.0749
117.291 391 19.7737
117.409 367 19.1572
117.526 376 19.3907
117.644 395 19.8746
117.761 380 19.4936
117.879 379 19.4679
117.996 361 19
118.114 395 19.8746
118.231 382 19.5448
118.349 426 20.6398
118.466 408 20.199
118.584 417 20.4206
118.701 424 20.5913
118.819 421 20.5183
118.936 372 19.2873
119.053 373 19.3132
119.171 366 19.1311
119.288 398 19.9499
119.405 386 19.6469
119.523 388 19.6977
119.64 404 20.0998
119.757 417 20.4206
119.875 404 20.0998
119.992 453 21.2838
120.109 390 19.7484
120.226 414 20.347
120.343 411 20.2731
120.46 399 19.975
120.578 405 20.1246
120.695 405 20.1246
120.812 350 18.7083
120.929 410 20.2485
121.046 399 19.975
121.163 366 19.1311
121.279 408 20.199
121.396 362 19.0263
121.513 358 18.9209
121.63 359 18.9473
121.747 306 17.4929
121.863 358 18.9209
121.98 332 18.2209
122.097 332 18.2209
122.213 325 18.0278
122.33 356 18.868
122.446 329 18.1384
122.563 290 17.0294
122.679 277 16.6433
122.795 229 15.1327
122.912 206 14.3527
123.028 217 14.7309
123.144 208 14.4222
123.26 180 13.4164
123.377 0 1
123.493 0 1
123.609 0 1
123.725 0 1
123.84 0 1
123.956 0 1
124.072 0 1
124.188 0 1
124.303 0 1
124.419 0 1
126.852 0 1
126.968 0 1
127.083 0 1
127.199 0 1
127.315 0 1
127.431 0 1
127.547 0 1
127.663 0 1
127.779 0 1
127.895 0 1
128.011 0 1
128.127 0 1
128.243 0 1
128.359 414 20.347
128.476 380 19.4936
128.592 445 21.095
128.708 480 21.9089
128.825 450 21.2132
128.941 418 20.445
129.058 486 22.0454
129.174 447 21.1424
129.291 432 20.7846
129.408 441 21
129.524 428 20.6882
129.641 447 21.1424
129.758 471 21.7025
129.875 440 20.9762
129.992 496 22.2711
130.108 468 21.6333
130.225 483 21.9773
130.342 479 21.8861
130.459 439 20.9523
130.576 499 22.3383
130.693 444 21.0713
130.81 461 21.4709
130.928 504 22.4499
131.045 503 22.4277
131.162 533 23.0868
131.279 547 23.388
131.396 610 24.6982
131.513 548 23.4094
131.631 610 24.6982
131.748 546 23.3666
131.865 570 23.8747
131.983 612 24.7386
132.1 633 25.1595
132.217 635 25.1992
132.335 699 26.4386
132.452 714 26.7208
132.57 745 27.2947
132.687 806 28.3901
132.804 757 27.5136
132.922 762 27.6043
133.039 810 28.4605
133.157 757 27.5136
133.274 808 28.4253
133.392 861 29.3428
133.509 812 28.4956
133.627 854 29.2233
133.744 775 27.8388
133.862 789 28.0891
133.979 737 27.1477
134.097 771 27.7669
134.214 754 27.4591
134.332 726 26.9444
134.449 771 27.7669
134.567 742 27.2397
134.684 727 26.9629
134.802 839 28.9655
134.919 848 29.1204
135.037 816 28.5657
135.154 893 29.8831
135.272 848 29.1204
135.389 811 28.4781
135.507 790 28.1069
135.624 777 27.8747
135.742 774 27.8209
135.859 796 28.2135
135.977 872 29.5296
136.094 858 29.2916
136.211 849 29.1376
136.329 853 29.2062
136.446 837 28.931
136.564 912 30.1993
136.681 846 29.0861
136.798 854 29.2233
136.915 820 28.6356
137.033 908 30.133
137.15 829 28.7924
137.267 819 28.6182
137.384 784 28
137.502 875 29.5804
137.619 747 27.3313
137.736 764 27.6405
137.853 714 26.7208
137.97 704 26.533
138.087 701 26.4764
138.204 726 26.9444
138.321 785 28.0179
138.438 817 28.5832
138.555 832 28.8444
138.672 824 28.7054
138.788 789 28.0891
138.905 790 28.1069
139.022 786 28.0357
139.139 739 27.1846
139.255 684 26.1534
139.372 674 25.9615
139.488 645 25.3969
139.605 611 24.7184
139.721 675 25.9808
139.838 617 24.8395
139.954 560 23.6643
140.071 519 22.7816
140.187 546 23.3666
140.303 558 23.622
140.419 490 22.1359
140.535 458 21.4009
140.652 443 21.0476
140.768 0 1
140.884 0 1
141 0 1
141.115 0 1
141.231 0 1
141.347 0 1
141.463 0 1
141.578 0 1
141.694 0 1
144.104 0 1
144.219 0 1
144.335 0 1
144.45 0 1
144.566 0 1
144.682 0 1
144.798 0 1
144.914 0 1
145.03 0 1
145.146 1237 35.171
145.262 1397 37.3765
145.378 1454 38.1314
145.494 1496 38.6782
145.61 1536 39.1918
145.726 1511 38.8716
145.842 1577 39.7115
145.959 1620 40.2492
146.075 1704 41.2795
146.192 1744 41.7612
146.308 1880 43.359
146.425 1868 43.2204
146.541 1930 43.9318
146.658 1805 42.4853
146.774 1750 41.833
146.891 1605 40.0625
147.008 1642 40.5216
147.125 1868 43.2204
147.241 2289 47.8435
147.358 2423 49.224
147.475 2358 48.5592
147.592 2528 50.2792
147.709 2522 50.2195
147.826 2672 51.6914
147.943 2599 50.9804
148.06 2602 51.0098
148.177 2444 49.4368
148.294 2547 50.4678
148.411 2679 51.7591
148.528 2583 50.8232
148.645 2659 51.5655
148.762 2686 51.8266
148.88 2687 51.8363
148.997 2728 52.2303
149.114 2638 51.3615
149.231 2577 50.7642
149.349 2632 51.303
149.466 2606 51.049
149.583 2632 51.303
149.701 2686 51.8266
149.818 2620 51.1859
149.935 2571 50.705
150.053 2492 49.9199
150.17 2474 49.7393
150.287 2375 48.734
150.405 2152 46.3897
150.522 1969 44.3734
150.64 1767 42.0357
150.757 1941 44.0568
150.875 2228 47.2017
150.992 2487 49.8698
151.11 2674 51.7107
151.227 2722 52.1728
151.344 2654 51.517
151.462 2683 51.7977
151.579 2825 53.1507
151.697 2809 53
151.814 2846 53.3479
151.932 2941 54.231
152.049 3030 55.0454
152.167 3022 54.9727
152.284 3122 55.8749
152.402 3269 57.1752
152.519 3306 57.4978
152.636 3307 57.5065
152.754 3378 58.1206
152.871 3521 59.338
152.989 3370 58.0517
153.106 3407 58.3695
153.223 3403 58.3352
153.341 3429 58.5577
153.458 3368 58.0345
153.575 3305 57.4891
153.693 3180 56.3915
153.81 3138 56.0179
153.927 2782 52.7447
154.044 2175 46.6369
154.162 1747 41.7971
154.279 2258 47.5184
154.396 2640 51.3809
154.513 2814 53.0471
154.63 2838 53.2729
154.747 2764 52.5738
154.864 2861 53.4883
154.981 2740 52.345
155.098 2542 50.4183
155.215 2407 49.0612
155.332 2390 48.8876
155.449 2210 47.0106
155.566 2258 47.5184
155.683 2166 46.5403
155.8 2027 45.0222
155.917 1946 44.1135
156.033 1945 44.1022
156.15 0 1
156.267 0 1
156.383 0 1
156.5 0 1
156.617 0 1
156.733 0 1
156.85 0 1
156.966 0 1
157.082 0 1
157.199 0 1
157.315 0 1
157.431 0 1
157.547 0 1
157.664 0 1
157.78 0 1
157.896 0 1
158.012 0 1
158.128 0 1
158.244 0 1
158.359 0 1
158.475 0 1
158.591 0 1
158.706 0 1
