
6.15755 0 1
6.2731 0 1
6.3887 0 1
6.50437 0 1
6.62009 0 1
6.73587 0 1
6.8517 0 1
6.96759 0 1
7.08353 0 1
7.19952 0 1
7.31557 0 1
7.43166 0 1
7.54781 0 1
7.664 0 1
7.78024 0 1
7.89653 0 1
8.01286 0 1
8.12924 0 1
8.24567 0 1
8.36213 0 1
8.47864 0 1
8.59519 0 1
8.71178 0 1
8.82841 0 1
8.94508 0 1
9.06179 0 1
9.17853 0 1
9.29531 0 1
9.41212 0 1
9.52897 0 1
9.64584 0 1
9.76276 0 1
9.8797 0 1
9.99667 0 1
10.1137 0 1
10.2307 0 1
10.3478 0 1
10.4648 0 1
10.5819 0 1
10.6991 0 1
10.8162 0 1
10.9334 0 1
11.0506 0 1
11.1678 0 1
11.285 0 1
11.4023 0 1
11.5196 0 1
11.6369 0 1
11.7542 0 1
11.8715 0 1
11.9888 0 1
12.1062 0 1
12.2235 0 1
12.3409 0 1
12.4582 0 1
12.5756 0 1
12.693 0 1
12.8104 0 1
12.9278 0 1
13.0452 0 1
13.1626 0 1
13.28 0 1
13.3974 0 1
13.5149 0 1
13.6323 0 1
13.7497 0 1
13.8671 0 1
13.9845 0 1
14.1019 0 1
14.2193 0 1
14.3367 0 1
14.4541 0 1
14.5714 0 1
14.6888 0 1
14.8062 0 1
14.9235 0 1
15.0408 0 0
15.1581 0 0
15.2755 0 0
15.3927 0 0
15.51 0 0
15.6273 0 0
15.7445 0 0
15.8617 0 0
15.9789 0 0
16.0961 0 0
16.2132 0 0
16.3304 0 0
16.4475 0 0
16.5646 0 0
16.6816 0 0
16.7986 0 0
16.9156 0 0
17.0326 0 0
17.1496 0 0
17.2665 0 0
17.3833 0 0
17.5002 0 0
17.617 0 0
17.7338 0 0
17.8505 0 0
17.9672 0 0
18.0839 0 0
18.2005 0 0
18.3171 0 0
18.4337 0 0
18.5502 0 0
18.6666 0 0
18.7831 0 0
18.8994 0 0
19.0158 0 0
19.1321 0 0
19.2483 0 0
19.3645 0 0
19.4806 0 0
19.5967 0 0
19.7128 0 0
19.8288 0 0
19.9447 0 0
20.0606 0 1
20.1764 0 1
20.2922 0 1
20.4079 0 1
20.5236 0 1
20.6392 0 1
20.7548 0 1
20.8702 0 1
23.3078 0 1
23.4233 0 1
23.539 0 1
23.6547 0 1
23.7704 0 1
23.8862 0 1
24.0021 0 1
24.118 0 1
24.234 0 1
24.35 0 1
24.4661 1505 38.7943
24.5822 1454 38.1314
24.6984 1456 38.1576
24.8146 1427 37.7757
24.9309 1411 37.5633
25.0472 1503 38.7685
25.1636 1447 38.0395
25.28 1377 37.108
25.3965 1463 38.2492
25.513 1457 38.1707
25.6296 1533 39.1535
25.7462 1529 39.1024
25.8628 1530 39.1152
25.9795 1561 39.5095
26.0962 1502 38.7556
26.213 1449 38.0657
26.3298 1475 38.4057
26.4466 1491 38.6135
26.5635 1422 37.7094
26.6804 1434 37.8682
26.7973 1475 38.4057
26.9143 1408 37.5233
27.0313 1572 39.6485
27.1483 1643 40.5339
27.2653 1547 39.3319
27.3824 1577 39.7115
27.4996 1653 40.6571
27.6167 1640 40.4969
27.7339 1551 39.3827
27.8511 1598 39.975
27.9683 1520 38.9872
28.0855 1497 38.6911
28.2028 1504 38.7814
28.3201 1470 38.3406
28.4374 1425 37.7492
28.5547 1343 36.647
28.6721 1390 37.2827
28.7894 1337 36.565
28.9068 1361 36.8917
29.0242 1394 37.3363
29.1416 1368 36.9865
29.259 1410 37.55
29.3764 1369 37
29.4939 1420 37.6829
29.6113 1419 37.6696
29.7288 1394 37.3363
29.8463 1422 37.7094
29.9638 1400 37.4166
30.0812 1319 36.318
30.1987 1252 35.3836
30.3162 1280 35.7771
30.4337 1432 37.8418
30.5512 1359 36.8646
30.6687 1494 38.6523
30.7862 1521 39
30.9037 1500 38.7298
31.0212 1538 39.2173
31.1387 1579 39.7366
31.2562 1545 39.3065
31.3737 1540 39.2428
31.4912 1529 39.1024
31.6087 1433 37.855
31.7262 1460 38.2099
31.8436 1409 37.5366
31.9611 1308 36.1663
32.0785 1367 36.973
32.1959 1315 36.2629
32.3134 1310 36.1939
32.4308 1329 36.4555
32.5482 1344 36.6606
32.6655 1299 36.0416
32.7829 1344 36.6606
32.9002 1345 36.6742
33.0176 1306 36.1386
33.1349 1443 37.9868
33.2522 1343 36.647
33.3694 1422 37.7094
33.4867 1454 38.1314
33.6039 1442 37.9737
33.7211 1305 36.1248
33.8383 1304 36.1109
33.9554 1306 36.1386
34.0725 1327 36.428
34.1896 1422 37.7094
34.3067 1466 38.2884
34.4237 1540 39.2428
34.5407 1504 38.7814
34.6577 1440 37.9473
34.7746 1454 38.1314
34.8915 1458 38.1838
35.0084 1479 38.4578
35.1252 1554 39.4208
35.242 1445 38.0132
35.3587 1476 38.4187
35.4755 1398 37.3898
35.5921 1377 37.108
35.7088 1324 36.3868
35.8254 1265 35.5668
35.9419 1346 36.6879
36.0584 1285 35.8469
36.1749 1205 34.7131
36.2913 1253 35.3977
36.4077 1283 35.819
36.524 1201 34.6554
36.6403 1318 36.3043
36.7565 1322 36.3593
36.8727 1356 36.8239
36.9889 1307 36.1525
37.1049 1314 36.2491
37.221 0 1
37.3369 0 1
37.4529 0 1
37.5687 0 1
37.6845 0 1
37.8003 0 1
37.916 0 1
38.0316 0 1
38.1472 0 1
40.5851 0 1
40.7008 0 1
40.8164 0 1
40.9322 0 1
41.048 0 1
41.1639 0 1
41.2798 0 1
41.3958 0 1
41.5118 0 1
41.6279 0 1
41.744 1014 31.8434
41.8602 970 31.1448
41.9765 1034 32.1559
42.0928 1095 33.0908
42.2091 1048 32.3728
42.3255 1128 33.5857
42.4419 1102 33.1964
42.5584 1077 32.8177
42.675 1022 31.9687
42.7915 978 31.273
42.9081 987 31.4166
43.0248 1093 33.0606
43.1415 1142 33.7935
43.2582 1169 34.1906
43.375 1104 33.2265
43.4918 1090 33.0151
43.6087 1134 33.6749
43.7256 1092 33.0454
43.8425 1119 33.4515
43.9595 1021 31.9531
44.0765 1109 33.3017
44.1935 1035 32.1714
44.3106 987 31.4166
44.4277 979 31.289
44.5448 895 29.9166
44.6619 802 28.3196
44.7791 812 28.4956
44.8963 801 28.3019
45.0136 786 28.0357
45.1308 776 27.8568
45.2481 735 27.1109
45.3654 796 28.2135
45.4827 812 28.4956
45.6001 830 28.8097
45.7174 803 28.3373
45.8348 861 29.3428
45.9522 802 28.3196
46.0697 770 27.7489
46.1871 748 27.3496
46.3046 777 27.8747
46.422 756 27.4955
46.5395 857 29.2746
46.657 794 28.178
46.7745 819 28.6182
46.892 843 29.0345
47.0096 782 27.9643
47.1271 850 29.1548
47.2446 838 28.9482
47.3622 815 28.5482
47.4797 773 27.8029
47.5973 761 27.5862
47.7149 715 26.7395
47.8324 718 26.7955
47.95 675 25.9808
48.0675 634 25.1794
48.1851 575 23.9792
48.3027 579 24.0624
48.4202 566 23.7908
48.5378 540 23.2379
48.6554 533 23.0868
48.7729 542 23.2809
48.8904 605 24.5967
49.008 609 24.6779
49.1255 576 24
49.243 628 25.0599
49.3605 619 24.8797
49.478 620 24.8998
49.5955 575 23.9792
49.713 554 23.5372
49.8304 618 24.8596
49.9479 595 24.3926
50.0653 663 25.7488
50.1827 644 25.3772
50.3001 725 26.9258
50.4175 736 27.1293
50.5348 748 27.3496
50.6521 791 28.1247
50.7694 838 28.9482
50.8867 835 28.8964
51.004 834 28.8791
51.1212 856 29.2575
51.2384 872 29.5296
51.3556 827 28.7576
51.4727 833 28.8617
51.5899 756 27.4955
51.707 716 26.7582
51.824 768 27.7128
51.9411 742 27.2397
52.0581 763 27.6225
52.175 770 27.7489
52.2919 804 28.3549
52.4088 889 29.8161
52.5257 853 29.2062
52.6425 967 31.0966
52.7593 988 31.4325
52.876 1010 31.7805
52.9927 1045 32.3265
53.1094 980 31.305
53.226 941 30.6757
53.3426 976 31.241
53.4591 985 31.3847
53.5756 1060 32.5576
53.692 1176 34.2929
53.8084 1240 35.2136
53.9248 1212 34.8138
54.0411 1255 35.426
54.1573 1274 35.6931
54.2735 0 1
54.3896 0 1
54.5057 0 1
54.6217 0 1
54.7377 0 1
54.8537 0 1
54.9695 0 1
55.0853 0 1
55.2011 0 1
55.3168 0 1
55.4324 0 1
57.824 0 1
57.9396 0 1
58.0553 0 1
58.1711 0 1
58.2869 0 1
58.4028 0 1
58.5187 0 1
58.6347 0 1
58.7508 0 1
58.8669 0 1
58.983 1328 36.4417
59.0992 1390 37.2827
59.2155 1411 37.5633
59.3318 1490 38.6005
59.4482 1515 38.923
59.5646 1516 38.9358
59.681 1514 38.9102
59.7975 1435 37.8814
59.9141 1455 38.1445
60.0306 1321 36.3456
60.1473 1287 35.8748
60.2639 1155 33.9853
60.3807 1076 32.8024
60.4974 1092 33.0454
60.6142 1046 32.3419
60.731 1036 32.187
60.8479 1027 32.0468
60.9648 1053 32.45
61.0818 1070 32.7109
61.1987 1143 33.8083
61.3158 1151 33.9264
61.4328 1144 33.8231
61.5499 1161 34.0735
61.667 1203 34.6843
61.7841 1138 33.7343
61.9013 1151 33.9264
62.0185 1207 34.7419
62.1357 1176 34.2929
62.253 1179 34.3366
62.3702 1242 35.242
62.4875 1278 35.7491
62.6049 1386 37.229
62.7222 1357 36.8375
62.8396 1371 37.027
62.9569 1433 37.855
63.0743 1483 38.5097
63.1918 1374 37.0675
63.3092 1403 37.4566
63.4267 1371 37.027
63.5441 1252 35.3836
63.6616 1232 35.0999
63.7791 1085 32.9393
63.8966 1043 32.2955
64.0142 973 31.1929
64.1317 1075 32.7872
64.2492 994 31.5278
64.3668 1088 32.9848
64.4843 1126 33.5559
64.6019 1201 34.6554
64.7195 1240 35.2136
64.837 1255 35.426
64.9546 1241 35.2278
65.0722 1261 35.5106
65.1898 1189 34.4819
65.3074 1208 34.7563
65.4249 1172 34.2345
65.5425 1137 33.7194
65.6601 1174 34.2637
65.7777 1196 34.5832
65.8952 1230 35.0714
66.0128 1281 35.7911
66.1304 1400 37.4166
66.2479 1346 36.6879
66.3655 1396 37.3631
66.483 1453 38.1182
66.6005 1449 38.0657
66.718 1386 37.229
66.8355 1346 36.6879
66.953 1321 36.3456
67.0705 1296 36
67.1879 1183 34.3948
67.3054 1106 33.2566
67.4228 1040 32.249
67.5402 1026 32.0312
67.6576 914 30.2324
67.7749 958 30.9516
67.8923 925 30.4138
68.0096 948 30.7896
68.1269 982 31.3369
68.2442 1017 31.8904
68.3614 1157 34.0147
68.4787 1134 33.6749
68.5958 1199 34.6266
68.713 1190 34.4964
68.8302 1141 33.7787
68.9473 1045 32.3265
69.0643 1176 34.2929
69.1814 1139 33.7491
69.2984 1161 34.0735
69.4154 1095 33.0908
69.5323 1114 33.3766
69.6492 1291 35.9305
69.7661 1309 36.1801
69.8829 1381 37.1618
69.9997 1413 37.5899
70.1165 1387 37.2424
70.2332 1410 37.55
70.3499 1436 37.8946
70.4665 1412 37.5766
70.5831 1311 36.2077
70.6996 1257 35.4542
70.8161 1194 34.5543
70.9326 1135 33.6898
71.049 1024 32
71.1653 943 30.7083
71.2817 941 30.6757
71.3979 855 29.2404
71.5141 876 29.5973
71.6303 890 29.8329
71.7464 842 29.0172
71.8624 0 1
71.9784 0 1
72.0944 0 1
72.2102 0 1
72.3261 0 1
72.4418 0 1
72.5575 0 1
72.6732 0 1
75.1054 0 1
75.2209 0 1
75.3365 0 1
75.4521 0 1
75.5678 0 1
75.6835 0 1
75.7993 0 1
75.9151 0 1
76.031 0 1
76.147 1195 34.5688
76.263 1174 34.2637
76.3791 1117 33.4215
76.4952 1010 31.7805
76.6113 942 30.692
76.7276 937 30.6105
76.8438 872 29.5296
76.9601 954 30.8869
77.0765 1031 32.1092
77.1929 1127 33.5708
77.3093 1195 34.5688
77.4258 1333 36.5103
77.5423 1310 36.1939
77.6589 1255 35.426
77.7755 1198 34.6121
77.8921 1207 34.7419
78.0088 1121 33.4813
78.1256 1119 33.4515
78.2423 1124 33.5261
78.3591 1127 33.5708
78.4759 1120 33.4664
78.5928 1293 35.9583
78.7097 1317 36.2905
78.8266 1305 36.1248
78.9436 1517 38.9487
79.0606 1393 37.3229
79.1776 1450 38.0789
79.2946 1377 37.108
79.4117 1432 37.8418
79.5288 1383 37.1887
79.6459 1351 36.756
79.7631 1301 36.0694
79.8802 1113 33.3617
79.9974 1026 32.0312
80.1147 893 29.8831
80.2319 851 29.1719
80.3491 833 28.8617
80.4664 797 28.2312
80.5837 863 29.3769
80.701 934 30.5614
80.8183 925 30.4138
80.9357 1007 31.7333
81.053 1065 32.6343
81.1704 1174 34.2637
81.2877 1103 33.2114
81.4051 1090 33.0151
81.5225 1026 32.0312
81.6399 1010 31.7805
81.7573 1025 32.0156
81.8747 966 31.0805
81.9922 994 31.5278
82.1096 968 31.1127
82.227 1081 32.8786
82.3444 1113 33.3617
82.4619 1178 34.322
82.5793 1215 34.8569
82.6967 1134 33.6749
82.8142 1228 35.0428
82.9316 1233 35.1141
83.049 1230 35.0714
83.1664 1126 33.5559
83.2838 1116 33.4066
83.4012 1035 32.1714
83.5186 923 30.3809
83.636 865 29.4109
83.7534 751 27.4044
83.8708 732 27.0555
83.9881 701 26.4764
84.1055 702 26.4953
84.2228 773 27.8029
84.3401 782 27.9643
84.4575 851 29.1719
84.5747 930 30.4959
84.692 1032 32.1248
84.8093 994 31.5278
84.9265 1058 32.5269
85.0437 946 30.7571
85.1609 951 30.8383
85.2781 892 29.8664
85.3952 905 30.0832
85.5123 909 30.1496
85.6294 935 30.5778
85.7465 1008 31.749
85.8636 1073 32.7567
85.9806 1158 34.0294
86.0976 1208 34.7563
86.2145 1270 35.6371
86.3315 1313 36.2353
86.4484 1306 36.1386
86.5652 1331 36.4829
86.682 1260 35.4965
86.7988 1268 35.609
86.9156 1209 34.7707
87.0323 1122 33.4963
87.149 1020 31.9374
87.2657 924 30.3974
87.3823 884 29.7321
87.4988 804 28.3549
87.6154 875 29.5804
87.7318 887 29.7825
87.8483 981 31.3209
87.9647 1031 32.1092
88.081 1141 33.7787
88.1973 1254 35.4119
88.3136 1291 35.9305
88.4298 1284 35.8329
88.546 1253 35.3977
88.6621 1230 35.0714
88.7781 1087 32.9697
88.8942 0 1
89.0101 0 1
89.126 0 1
89.2419 0 1
89.3577 0 1
89.4734 0 1
89.5891 0 1
89.7047 0 1
89.8203 0 1
89.9358 0 1
92.3269 0 1
92.4424 0 1
92.558 0 1
92.6736 0 1
92.7893 0 1
92.905 0 1
93.0208 0 1
93.1366 0 1
93.2525 0 1
93.3685 0 1
93.4845 0 1
93.6005 1159 34.0441
93.7167 1308 36.1663
93.8328 1249 35.3412
93.949 1300 36.0555
94.0653 1209 34.7707
94.1816 1183 34.3948
94.2979 1194 34.5543
94.4143 1107 33.2716
94.5307 1109 33.3017
94.6472 1087 32.9697
94.7637 1124 33.5261
94.8803 1285 35.8469
94.9969 1283 35.819
95.1135 1357 36.8375
95.2302 1437 37.9078
95.3469 1442 37.9737
95.4637 1507 38.8201
95.5805 1463 38.2492
95.6973 1513 38.8973
95.8142 1515 38.923
95.9311 1406 37.4967
96.048 1290 35.9166
96.1649 1264 35.5528
96.2819 1189 34.4819
96.3989 1051 32.4191
96.516 1038 32.218
96.633 911 30.1828
96.7501 835 28.8964
96.8673 883 29.7153
96.9844 939 30.6431
97.1016 1055 32.4808
97.2188 1148 33.8821
97.336 1230 35.0714
97.4532 1364 36.9324
97.5704 1280 35.7771
97.6877 1309 36.1801
97.805 1174 34.2637
97.9223 1096 33.1059
98.0396 1139 33.7491
98.1569 1123 33.5112
98.2743 1166 34.1467
98.3916 1140 33.7639
98.509 1216 34.8712
98.6264 1210 34.7851
98.7438 1354 36.7967
98.8612 1373 37.054
98.9786 1452 38.1051
99.096 1478 38.4448
99.2134 1442 37.9737
99.3308 1520 38.9872
99.4482 1478 38.4448
99.5656 1521 39
99.6831 1350 36.7423
99.8005 1311 36.2077
99.9179 1211 34.7994
100.035 1128 33.5857
100.153 984 31.3688
100.27 899 29.9833
100.388 970 31.1448
100.505 942 30.692
100.622 1078 32.8329
100.74 1127 33.5708
100.857 1259 35.4824
100.975 1278 35.7491
101.092 1277 35.7351
101.209 1234 35.1283
101.327 1280 35.7771
101.444 1228 35.0428
101.561 1175 34.2783
101.679 1182 34.3802
101.796 1184 34.4093
101.913 1115 33.3916
102.03 1203 34.6843
102.148 1359 36.8646
102.265 1355 36.8103
102.382 1515 38.923
102.499 1501 38.7427
102.616 1490 38.6005
102.733 1495 38.6652
102.851 1551 39.3827
102.968 1512 38.8844
103.085 1619 40.2368
103.202 1454 38.1314
103.319 1361 36.8917
103.436 1314 36.2491
103.552 1175 34.2783
103.669 1065 32.6343
103.786 972 31.1769
103.903 991 31.4802
104.02 1046 32.3419
104.137 1163 34.1028
104.253 1213 34.8281
104.37 1376 37.0945
104.487 1412 37.5766
104.603 1387 37.2424
104.72 1348 36.7151
104.836 1278 35.7491
104.953 1242 35.242
105.069 1277 35.7351
105.186 1311 36.2077
105.302 1306 36.1386
105.418 1284 35.8329
105.535 1416 37.6298
105.651 1468 38.3145
105.767 1586 39.8246
105.883 1638 40.4722
105.999 1605 40.0625
106.115 0 1
106.231 0 1
106.347 0 1
106.463 0 1
106.579 0 1
106.694 0 1
106.81 0 1
106.926 0 1
107.041 0 1
107.157 0 1
109.576 0 1
109.692 0 1
109.807 0 1
109.923 0 1
110.039 0 1
110.155 0 1
110.27 0 1
110.386 0 1
110.502 0 1
110.618 1326 36.4143
110.735 1492 38.6264
110.851 1519 38.9744
110.967 1577 39.7115
111.083 1621 40.2616
111.199 1544 39.2938
111.316 1695 41.1704
111.432 1657 40.7063
111.549 1602 40.025
111.665 1592 39.8999
111.782 1420 37.6829
111.898 1433 37.855
112.015 1339 36.5923
112.132 1209 34.7707
112.248 1153 33.9559
112.365 1019 31.9218
112.482 1025 32.0156
112.599 1063 32.6037
112.716 1199 34.6266
112.832 1199 34.6266
112.949 1254 35.4119
113.066 1301 36.0694
113.183 1227 35.0286
113.3 1218 34.8999
113.417 1232 35.0999
113.534 1211 34.7994
113.652 1196 34.5832
113.769 1220 34.9285
113.886 1203 34.6843
114.003 1255 35.426
114.12 1318 36.3043
114.238 1384 37.2022
114.355 1473 38.3797
114.472 1561 39.5095
114.589 1615 40.1871
114.707 1507 38.8201
114.824 1624 40.2989
114.942 1591 39.8873
115.059 1562 39.5221
115.176 1559 39.4842
115.294 1468 38.3145
115.411 1454 38.1314
115.529 1330 36.4692
115.646 1288 35.8887
115.764 1181 34.3657
115.881 1023 31.9844
115.999 1028 32.0624
116.116 1076 32.8024
116.234 1150 33.9116
116.351 1183 34.3948
116.469 1334 36.524
116.586 1275 35.7071
116.704 1346 36.6879
116.821 1285 35.8469
116.939 1240 35.2136
117.056 1244 35.2704
117.174 1320 36.3318
117.291 1273 35.6791
117.409 1313 36.2353
117.526 1308 36.1663
117.644 1419 37.6696
117.761 1494 38.6523
117.879 1508 38.833
117.996 1540 39.2428
118.114 1625 40.3113
118.231 1648 40.5956
118.349 1651 40.6325
118.466 1670 40.8656
118.584 1737 41.6773
118.701 1709 41.3401
118.819 1618 40.2244
118.936 1516 38.9358
119.053 1448 38.0526
119.171 1413 37.5899
119.288 1373 37.054
119.405 1146 33.8526
119.523 1161 34.0735
119.64 1060 32.5576
119.757 1145 33.8378
119.875 1175 34.2783
119.992 1263 35.5387
120.109 1277 35.7351
120.226 1342 36.6333
120.343 1311 36.2077
120.46 1326 36.4143
120.578 1221 34.9428
120.695 1228 35.0428
120.812 1221 34.9428
120.929 1365 36.9459
121.046 1341 36.6197
121.163 1345 36.6742
121.279 1390 37.2827
121.396 1470 38.3406
121.513 1519 38.9744
121.63 1570 39.6232
121.747 1633 40.4104
121.863 1660 40.7431
121.98 1725 41.5331
122.097 1625 40.3113
122.213 1679 40.9756
122.33 1648 40.5956
122.446 1610 40.1248
122.563 1497 38.6911
122.679 1481 38.4838
122.795 1519 38.9744
122.912 1363 36.9188
123.028 1344 36.6606
123.144 1162 34.0881
123.26 1095 33.0908
123.377 0 1
123.493 0 1
123.609 0 1
123.725 0 1
123.84 0 1
123.956 0 1
124.072 0 1
124.188 0 1
124.303 0 1
124.419 0 1
126.852 0 1
126.968 0 1
127.083 0 1
127.199 0 1
127.315 0 1
127.431 0 1
127.547 0 1
127.663 0 1
127.779 0 1
127.895 0 1
128.011 0 1
128.127 0 1
128.243 0 1
128.359 1330 36.4692
128.476 1239 35.1994
128.592 1257 35.4542
128.708 1219 34.9142
128.825 1430 37.8153
128.941 1416 37.6298
129.058 1453 38.1182
129.174 1403 37.4566
129.291 1403 37.4566
129.408 1344 36.6606
129.524 1359 36.8646
129.641 1429 37.8021
129.758 1346 36.6879
129.875 1440 37.9473
129.992 1425 37.7492
130.108 1466 38.2884
130.225 1496 38.6782
130.342 1618 40.2244
130.459 1659 40.7308
130.576 1753 41.8688
130.693 1726 41.5452
130.81 1714 41.4005
130.928 1664 40.7922
131.045 1758 41.9285
131.162 1792 42.332
131.279 1729 41.5812
131.396 1644 40.5463
131.513 1754 41.8808
131.631 1559 39.4842
131.748 1518 38.9615
131.865 1501 38.7427
131.983 1382 37.1753
132.1 1255 35.426
132.217 1339 36.5923
132.335 1364 36.9324
132.452 1529 39.1024
132.57 1453 38.1182
132.687 1491 38.6135
132.804 1516 38.9358
132.922 1332 36.4966
133.039 1380 37.1484
133.157 1394 37.3363
133.274 1353 36.7831
133.392 1389 37.2693
133.509 1465 38.2753
133.627 1428 37.7889
133.744 1562 39.5221
133.862 1566 39.5727
133.979 1593 39.9124
134.097 1683 41.0244
134.214 1599 39.9875
134.332 1723 41.509
134.449 1683 41.0244
134.567 1680 40.9878
134.684 1743 41.7493
134.802 1675 40.9268
134.919 1743 41.7493
135.037 1708 41.328
135.154 1603 40.0375
135.272 1581 39.7618
135.389 1462 38.2361
135.507 1362 36.9053
135.624 1369 37
135.742 1283 35.819
135.859 1343 36.647
135.977 1428 37.7889
136.094 1445 38.0132
136.211 1634 40.4228
136.329 1575 39.6863
136.446 1433 37.855
136.564 1442 37.9737
136.681 1380 37.1484
136.798 1412 37.5766
136.915 1497 38.6911
137.033 1435 37.8814
137.15 1407 37.51
137.267 1443 37.9868
137.384 1472 38.3667
137.502 1585 39.8121
137.619 1520 38.9872
137.736 1573 39.6611
137.853 1589 39.8623
137.97 1687 41.0731
138.087 1645 40.5586
138.204 1613 40.1622
138.321 1680 40.9878
138.438 1808 42.5206
138.555 1727 41.5572
138.672 1667 40.8289
138.788 1651 40.6325
138.905 1570 39.6232
139.022 1503 38.7685
139.139 1467 38.3014
139.255 1394 37.3363
139.372 1370 37.0135
139.488 1396 37.3631
139.605 1532 39.1408
139.721 1494 38.6523
139.838 1502 38.7556
139.954 1503 38.7685
140.071 1460 38.2099
140.187 1431 37.8286
140.303 1393 37.3229
140.419 1322 36.3593
140.535 1386 37.229
140.652 1389 37.2693
140.768 0 1
140.884 0 1
141 0 1
141.115 0 1
141.231 0 1
141.347 0 1
141.463 0 1
141.578 0 1
141.694 0 1
144.104 0 1
144.219 0 1
144.335 0 1
144.45 0 1
144.566 0 1
144.682 0 1
144.798 0 1
144.914 0 1
145.03 0 1
145.146 1025 32.0156
145.262 1129 33.6006
145.378 1150 33.9116
145.494 1126 33.5559
145.61 1111 33.3317
145.726 1188 34.4674
145.842 1186 34.4384
145.959 1180 34.3511
146.075 1120 33.4664
146.192 1182 34.3802
146.308 1224 34.9857
146.425 1322 36.3593
146.541 1273 35.6791
146.658 1303 36.0971
146.774 1263 35.5387
146.891 1327 36.428
147.008 1336 36.5513
147.125 1307 36.1525
147.241 1332 36.4966
147.358 1372 37.0405
147.475 1349 36.7287
147.592 1367 36.973
147.709 1327 36.428
147.826 1246 35.2987
147.943 1259 35.4824
148.06 1208 34.7563
148.177 1103 33.2114
148.294 1112 33.3467
148.411 1113 33.3617
148.528 1247 35.3129
148.645 1242 35.242
148.762 1248 35.327
148.88 1169 34.1906
148.997 1206 34.7275
149.114 1220 34.9285
149.231 1224 34.9857
149.349 1165 34.1321
149.466 1303 36.0971
149.583 1160 34.0588
149.701 1203 34.6843
149.818 1186 34.4384
149.935 1259 35.4824
150.053 1218 34.8999
150.17 1329 36.4555
150.287 1279 35.7631
150.405 1338 36.5787
150.522 1308 36.1663
150.64 1314 36.2491
150.757 1354 36.7967
150.875 1379 37.1349
150.992 1412 37.5766
151.11 1417 37.6431
151.227 1419 37.6696
151.344 1340 36.606
151.462 1284 35.8329
151.579 1300 36.0555
151.697 1332 36.4966
151.814 1209 34.7707
151.932 1172 34.2345
152.049 1201 34.6554
152.167 1239 35.1994
152.284 1308 36.1663
152.402 1282 35.805
152.519 1401 37.4299
152.636 1294 35.9722
152.754 1298 36.0278
152.871 1310 36.1939
152.989 1285 35.8469
153.106 1217 34.8855
153.223 1250 35.3553
153.341 1222 34.9571
153.458 1313 36.2353
153.575 1257 35.4542
153.693 1323 36.3731
153.81 1340 36.606
153.927 1374 37.0675
154.044 1382 37.1753
154.162 1404 37.47
154.279 1520 38.9872
154.396 1450 38.0789
154.513 1501 38.7427
154.63 1506 38.8072
154.747 1551 39.3827
154.864 1521 39
154.981 1560 39.4968
155.098 1399 37.4032
155.215 1463 38.2492
155.332 1364 36.9324
155.449 1273 35.6791
155.566 1334 36.524
155.683 1302 36.0832
155.8 1431 37.8286
155.917 1382 37.1753
156.033 1460 38.2099
156.15 0 1
156.267 0 1
156.383 0 1
156.5 0 1
156.617 0 1
156.733 0 1
156.85 0 1
156.966 0 1
157.082 0 1
157.199 0 1
157.315 0 1
157.431 0 1
157.547 0 1
157.664 0 1
157.78 0 1
157.896 0 1
158.012 0 1
158.128 0 1
158.244 0 1
158.359 0 1
158.475 0 1
158.591 0 1
158.706 0 1
