
6.15755 0 1
6.2731 0 1
6.3887 0 1
6.50437 0 1
6.62009 0 1
6.73587 0 1
6.8517 0 1
6.96759 0 1
7.08353 0 1
7.19952 0 1
7.31557 0 1
7.43166 0 1
7.54781 0 1
7.664 0 1
7.78024 0 1
7.89653 0 1
8.01286 0 1
8.12924 0 1
8.24567 0 1
8.36213 0 1
8.47864 0 1
8.59519 0 1
8.71178 0 1
8.82841 0 1
8.94508 0 1
9.06179 0 1
9.17853 0 1
9.29531 0 1
9.41212 0 1
9.52897 0 1
9.64584 0 1
9.76276 0 1
9.8797 0 1
9.99667 0 1
10.1137 0 1
10.2307 0 1
10.3478 0 1
10.4648 0 1
10.5819 0 1
10.6991 0 1
10.8162 0 1
10.9334 0 1
11.0506 0 1
11.1678 0 1
11.285 0 1
11.4023 0 1
11.5196 0 1
11.6369 0 1
11.7542 0 1
11.8715 0 1
11.9888 0 1
12.1062 0 1
12.2235 0 1
12.3409 0 1
12.4582 0 1
12.5756 0 1
12.693 0 1
12.8104 0 1
12.9278 0 1
13.0452 0 1
13.1626 0 1
13.28 0 1
13.3974 0 1
13.5149 0 1
13.6323 0 1
13.7497 0 1
13.8671 0 1
13.9845 0 1
14.1019 0 1
14.2193 0 1
14.3367 0 1
14.4541 0 1
14.5714 0 1
14.6888 0 1
14.8062 0 1
14.9235 0 1
15.0408 3054 55.263
15.1581 3199 56.5597
15.2755 3129 55.9375
15.3927 3254 57.0438
15.51 3135 55.9911
15.6273 3128 55.9285
15.7445 3092 55.6058
15.8617 3039 55.1271
15.9789 3175 56.3471
16.0961 3257 57.0701
16.2132 3360 57.9655
16.3304 3529 59.4054
16.4475 3611 60.0916
16.5646 3663 60.5227
16.6816 3660 60.4979
16.7986 3570 59.7495
16.9156 3638 60.3158
17.0326 3493 59.1016
17.1496 3572 59.7662
17.2665 3494 59.1101
17.3833 3563 59.6909
17.5002 3566 59.716
17.617 3627 60.2246
17.7338 3700 60.8276
17.8505 3875 62.2495
17.9672 3800 61.6441
18.0839 3939 62.7615
18.2005 3993 63.1902
18.3171 4021 63.4114
18.4337 4015 63.364
18.5502 4385 66.2193
18.6666 4292 65.5134
18.7831 4245 65.1537
18.8994 4073 63.8201
19.0158 4077 63.8514
19.1321 4052 63.6553
19.2483 3793 61.5873
19.3645 3818 61.79
19.4806 3898 62.434
19.5967 3838 61.9516
19.7128 4069 63.7887
19.8288 4249 65.1844
19.9447 3966 62.9762
20.0606 0 1
20.1764 0 1
20.2922 0 1
20.4079 0 1
20.5236 0 1
20.6392 0 1
20.7548 0 1
20.8702 0 1
23.3078 0 1
23.4233 0 1
23.539 0 1
23.6547 0 1
23.7704 0 1
23.8862 0 1
24.0021 0 1
24.118 0 1
24.234 0 1
24.35 0 1
24.4661 3891 62.3779
24.5822 3884 62.3217
24.6984 3956 62.8967
24.8146 3989 63.1585
24.9309 4346 65.9242
25.0472 4477 66.9104
25.1636 4540 67.3795
25.28 4531 67.3127
25.3965 4464 66.8132
25.513 4435 66.5958
25.6296 4484 66.9627
25.7462 4364 66.0606
25.8628 4448 66.6933
25.9795 4377 66.1589
26.0962 4342 65.8939
26.213 4421 66.4906
26.3298 4368 66.0908
26.4466 4555 67.4907
26.5635 4595 67.7864
26.6804 4758 68.9783
26.7973 4741 68.8549
26.9143 4931 70.2211
27.0313 4976 70.5408
27.1483 4964 70.4557
27.2653 5131 71.631
27.3824 5112 71.4983
27.4996 5129 71.617
27.6167 4915 70.1071
27.7339 4795 69.2459
27.8511 4798 69.2676
27.9683 4536 67.3498
28.0855 4352 65.9697
28.2028 4266 65.3146
28.3201 4239 65.1076
28.4374 4409 66.4003
28.5547 4589 67.7422
28.6721 4747 68.8985
28.7894 4774 69.0941
28.9068 4822 69.4406
29.0242 4693 68.5055
29.1416 4611 67.9043
29.259 4484 66.9627
29.3764 4378 66.1665
29.4939 4341 65.8863
29.6113 4318 65.7115
29.7288 4279 65.4141
29.8463 4406 66.3777
29.9638 4498 67.0671
30.0812 4622 67.9853
30.1987 4935 70.2496
30.3162 4904 70.0286
30.4337 5029 70.9154
30.5512 5166 71.8749
30.6687 5036 70.9648
30.7862 5290 72.7324
30.9037 5293 72.753
31.0212 5281 72.6705
31.1387 5129 71.617
31.2562 4959 70.4202
31.3737 4819 69.419
31.4912 4785 69.1737
31.6087 4746 68.8912
31.7262 4479 66.9253
31.8436 4608 67.8823
31.9611 4616 67.9412
32.0785 4835 69.5342
32.1959 4818 69.4118
32.3134 4956 70.3989
32.4308 4957 70.406
32.5482 5015 70.8167
32.6655 4918 70.1285
32.7829 4810 69.3542
32.9002 4491 67.0149
33.0176 4386 66.2269
33.1349 4511 67.164
33.2522 4502 67.0969
33.3694 4521 67.2384
33.4867 4584 67.7052
33.6039 4710 68.6294
33.7211 4796 69.2532
33.8383 4930 70.214
33.9554 5088 71.3302
34.0725 5145 71.7287
34.1896 5169 71.8958
34.3067 5308 72.856
34.4237 5422 73.6342
34.5407 5206 72.1526
34.6577 5372 73.2939
34.7746 5351 73.1505
34.8915 5154 71.7914
35.0084 5072 71.218
35.1252 4953 70.3776
35.242 4736 68.8186
35.3587 4719 68.695
35.4755 4478 66.9179
35.5921 4560 67.5278
35.7088 4778 69.1231
35.8254 4820 69.4262
35.9419 5014 70.8096
36.0584 5075 71.239
36.1749 5196 72.0833
36.2913 5057 71.1126
36.4077 4939 70.278
36.524 4615 67.9338
36.6403 4646 68.1616
36.7565 4479 66.9253
36.8727 4424 66.5132
36.9889 4423 66.5056
37.1049 4466 66.8281
37.221 0 1
37.3369 0 1
37.4529 0 1
37.5687 0 1
37.6845 0 1
37.8003 0 1
37.916 0 1
38.0316 0 1
38.1472 0 1
40.5851 0 1
40.7008 0 1
40.8164 0 1
40.9322 0 1
41.048 0 1
41.1639 0 1
41.2798 0 1
41.3958 0 1
41.5118 0 1
41.6279 0 1
41.744 3780 61.4817
41.8602 3873 62.2334
41.9765 3859 62.1208
42.0928 3886 62.3378
42.2091 4022 63.4192
42.3255 4155 64.4593
42.4419 4191 64.7379
42.5584 4313 65.6734
42.675 4518 67.2161
42.7915 4810 69.3542
42.9081 4807 69.3325
43.0248 4767 69.0435
43.1415 4930 70.214
43.2582 4889 69.9214
43.375 4891 69.9357
43.4918 4842 69.5845
43.6087 4864 69.7424
43.7256 4638 68.1029
43.8425 4650 68.1909
43.9595 4487 66.9851
44.0765 4315 65.6887
44.1935 4213 64.9076
44.3106 4144 64.3739
44.4277 4087 63.9296
44.5448 4171 64.5833
44.6619 4262 65.284
44.7791 4434 66.5883
44.8963 4162 64.5136
45.0136 4284 65.4523
45.1308 3993 63.1902
45.2481 3839 61.9597
45.3654 3603 60.025
45.4827 3446 58.7026
45.6001 3417 58.4551
45.7174 3412 58.4123
45.8348 3467 58.8812
45.9522 3651 60.4235
46.0697 3708 60.8933
46.1871 3907 62.506
46.3046 4037 63.5374
46.422 3993 63.1902
46.5395 4167 64.5523
46.657 4205 64.846
46.7745 4211 64.8922
46.892 4148 64.405
47.0096 4014 63.3561
47.1271 4081 63.8827
47.2446 4094 63.9844
47.3622 3961 62.9365
47.4797 3886 62.3378
47.5973 3765 61.3596
47.7149 3643 60.3573
47.8324 3460 58.8218
47.95 3530 59.4138
48.0675 3409 58.3866
48.1851 3443 58.6771
48.3027 3568 59.7327
48.4202 3497 59.1354
48.5378 3420 58.4808
48.6554 3408 58.3781
48.7729 3198 56.5509
48.8904 3031 55.0545
49.008 2921 54.0463
49.1255 2864 53.5164
49.243 2851 53.3948
49.3605 2927 54.1018
49.478 3032 55.0636
49.5955 3210 56.6569
49.713 3311 57.5413
49.8304 3526 59.3801
49.9479 3706 60.8769
50.0653 3762 61.3351
50.1827 3816 61.7738
50.3001 3898 62.434
50.4175 3864 62.1611
50.5348 4092 63.9687
50.6521 4034 63.5138
50.7694 3910 62.53
50.8867 3907 62.506
51.004 3986 63.1348
51.1212 3926 62.6578
51.2384 3878 62.2736
51.3556 3753 61.2617
51.4727 3846 62.0161
51.5899 4061 63.726
51.707 4164 64.5291
51.824 4328 65.7875
51.9411 4490 67.0075
52.0581 4471 66.8655
52.175 4450 66.7083
52.2919 4340 65.8787
52.4088 4134 64.2962
52.5257 3901 62.458
52.6425 3862 62.145
52.7593 3856 62.0967
52.876 3890 62.3699
52.9927 4238 65.0999
53.1094 4523 67.2533
53.226 4782 69.152
53.3426 4926 70.1855
53.4591 5319 72.9315
53.5756 5555 74.5319
53.692 5670 75.2994
53.8084 5767 75.9408
53.9248 6022 77.6015
54.0411 5854 76.5114
54.1573 6009 77.5177
54.2735 0 1
54.3896 0 1
54.5057 0 1
54.6217 0 1
54.7377 0 1
54.8537 0 1
54.9695 0 1
55.0853 0 1
55.2011 0 1
55.3168 0 1
55.4324 0 1
57.824 0 1
57.9396 0 1
58.0553 0 1
58.1711 0 1
58.2869 0 1
58.4028 0 1
58.5187 0 1
58.6347 0 1
58.7508 0 1
58.8669 0 1
58.983 6699 81.8474
59.0992 7075 84.113
59.2155 7154 84.5813
59.3318 7238 85.0764
59.4482 7156 84.5931
59.5646 7137 84.4808
59.681 7036 83.8809
59.7975 6991 83.6122
59.9141 6789 82.3954
60.0306 6633 81.4432
60.1473 6672 81.6823
60.2639 6630 81.4248
60.3807 6586 81.1542
60.4974 6634 81.4494
60.6142 6597 81.2219
60.731 6540 80.8703
60.8479 6019 77.5822
60.9648 5769 75.9539
61.0818 5445 73.7902
61.1987 5287 72.7118
61.3158 5308 72.856
61.4328 5255 72.4914
61.5499 5231 72.3257
61.667 5698 75.4851
61.7841 5897 76.7919
61.9013 6298 79.3599
62.0185 6547 80.9135
62.1357 6859 82.8191
62.253 6738 82.0853
62.3702 6821 82.5893
62.4875 7008 83.7138
62.6049 7025 83.8153
62.7222 7083 84.1606
62.8396 7000 83.666
62.9569 6924 83.2106
63.0743 6647 81.5291
63.1918 6677 81.7129
63.3092 6673 81.6884
63.4267 6486 80.5357
63.5441 6359 79.7433
63.6616 6333 79.5801
63.7791 6371 79.8185
63.8966 6266 79.1581
64.0142 6404 80.025
64.1317 6489 80.5543
64.2492 6165 78.5175
64.3668 5943 77.0909
64.4843 5513 74.2496
64.6019 5237 72.3671
64.7195 5051 71.0704
64.837 4816 69.3974
64.9546 4921 70.1498
65.0722 4988 70.6258
65.1898 5333 73.0274
65.3074 5507 74.2092
65.4249 5887 76.7268
65.5425 6076 77.9487
65.6601 6458 80.3617
65.7777 6786 82.3772
65.8952 6830 82.6438
66.0128 7038 83.8928
66.1304 6873 82.9036
66.2479 7041 83.9107
66.3655 6930 83.2466
66.483 6992 83.6182
66.6005 6920 83.1865
66.718 6968 83.4745
66.8355 6792 82.4136
66.953 6775 82.3104
67.0705 6799 82.456
67.1879 6663 81.6272
67.3054 6558 80.9815
67.4228 6623 81.3818
67.5402 6682 81.7435
67.6576 6770 82.28
67.7749 6665 81.6395
67.8923 6715 81.9451
68.0096 6337 79.6053
68.1269 6027 77.6338
68.2442 5472 73.973
68.3614 5181 71.9792
68.4787 5239 72.3809
68.5958 5270 72.5948
68.713 5603 74.8532
68.8302 5748 75.8156
68.9473 6138 78.3454
69.0643 6575 81.0864
69.1814 6933 83.2646
69.2984 7446 86.2902
69.4154 7781 88.21
69.5323 7788 88.2496
69.6492 8024 89.5768
69.7661 8296 91.0824
69.8829 8321 91.2195
69.9997 8204 90.5759
70.1165 8370 91.4877
70.2332 8416 91.7388
70.3499 8206 90.587
70.4665 8269 90.934
70.5831 8196 90.5318
70.6996 8095 89.9722
70.8161 7815 88.4025
70.9326 8003 89.4595
71.049 7815 88.4025
71.1653 7833 88.5042
71.2817 8115 90.0833
71.3979 8124 90.1332
71.5141 7603 87.1952
71.6303 7112 84.3327
71.7464 6042 77.7303
71.8624 0 1
71.9784 0 1
72.0944 0 1
72.2102 0 1
72.3261 0 1
72.4418 0 1
72.5575 0 1
72.6732 0 1
75.1054 0 1
75.2209 0 1
75.3365 0 1
75.4521 0 1
75.5678 0 1
75.6835 0 1
75.7993 0 1
75.9151 0 1
76.031 0 1
76.147 7899 88.8763
76.263 8310 91.1592
76.3791 8584 92.6499
76.4952 9172 95.7706
76.6113 9254 96.1977
76.7276 9263 96.2445
76.8438 9191 95.8697
76.9601 8647 92.9892
77.0765 7774 88.1703
77.1929 7216 84.947
77.3093 6456 80.3492
77.4258 6418 80.1124
77.5423 6335 79.5927
77.6589 6286 79.2843
77.7755 6861 82.8312
77.8921 7580 87.0632
78.0088 8003 89.4595
78.1256 8710 93.3274
78.2423 9453 97.2265
78.3591 9755 98.7674
78.4759 9956 99.7798
78.5928 10175 100.871
78.7097 10060 100.3
78.8266 9784 98.9141
78.9436 10593 102.922
79.0606 10059 100.295
79.1776 10073 100.364
79.2946 9911 99.554
79.4117 9852 99.2572
79.5288 9691 98.4429
79.6459 9717 98.5748
79.7631 9136 95.5824
79.8802 8988 94.8051
79.9974 9183 95.828
80.1147 9293 96.4002
80.2319 9754 98.7623
80.3491 9676 98.3667
80.4664 9660 98.2853
80.5837 9154 95.6765
80.701 8474 92.0543
80.8183 7684 87.6584
80.9357 6890 83.006
81.053 6392 79.95
81.1704 6235 78.962
81.2877 6405 80.0312
81.4051 6473 80.455
81.5225 7000 83.666
81.6399 7980 89.3308
81.7573 8571 92.5797
81.8747 8932 94.5093
81.9922 9740 98.6914
82.1096 10020 100.1
82.227 10023 100.115
82.3444 9973 99.8649
82.4619 10134 100.668
82.5793 10312 101.548
82.6967 9859 99.2925
82.8142 9855 99.2724
82.9316 9741 98.6965
83.049 9554 97.7446
83.1664 9609 98.0255
83.2838 9196 95.8958
83.4012 9125 95.5249
83.5186 8934 94.5198
83.636 8938 94.541
83.7534 9008 94.9105
83.8708 9311 96.4935
83.9881 9297 96.421
84.1055 9197 95.901
84.2228 8968 94.6995
84.3401 8218 90.6532
84.4575 7489 86.539
84.5747 6803 82.4803
84.692 6220 78.867
84.8093 6029 77.6466
84.9265 6128 78.2815
85.0437 6507 80.666
85.1609 7266 85.2408
85.2781 7986 89.3644
85.3952 8703 93.2899
85.5123 9432 97.1185
85.6294 9998 99.99
85.7465 10627 103.087
85.8636 10664 103.267
85.9806 11030 105.024
86.0976 10939 104.59
86.2145 11413 106.832
86.3315 11798 108.619
86.4484 11099 105.352
86.5652 11607 107.736
86.682 11738 108.342
86.7988 11682 108.083
86.9156 11652 107.944
87.0323 11418 106.855
87.149 11398 106.761
87.2657 11469 107.093
87.3823 11701 108.171
87.4988 11902 109.096
87.6154 12178 110.354
87.7318 12005 109.567
87.8483 11315 106.372
87.9647 10239 101.188
88.081 9352 96.7057
88.1973 8878 94.2231
88.3136 8154 90.2995
88.4298 8147 90.2607
88.546 8302 91.1153
88.6621 9066 95.2155
88.7781 10005 100.025
88.8942 0 1
89.0101 0 1
89.126 0 1
89.2419 0 1
89.3577 0 1
89.4734 0 1
89.5891 0 1
89.7047 0 1
89.8203 0 1
89.9358 0 1
92.3269 0 1
92.4424 0 1
92.558 0 1
92.6736 0 1
92.7893 0 1
92.905 0 1
93.0208 0 1
93.1366 0 1
93.2525 0 1
93.3685 0 1
93.4845 0 1
93.6005 9125 95.5249
93.7167 8996 94.8472
93.8328 9007 94.9052
93.949 9351 96.7006
94.0653 9990 99.95
94.1816 10929 104.542
94.2979 12063 109.832
94.4143 12994 113.991
94.5307 13666 116.902
94.6472 14353 119.804
94.7637 14680 121.161
94.8803 14948 122.262
94.9969 14899 122.061
95.1135 15020 122.556
95.2302 15278 123.604
95.3469 15123 122.976
95.4637 15091 122.845
95.5805 14811 121.7
95.6973 15252 123.499
95.8142 15125 122.984
95.9311 14965 122.332
96.048 14467 120.279
96.1649 14306 119.608
96.2819 14139 118.908
96.3989 14418 120.075
96.516 14654 121.054
96.633 15077 122.788
96.7501 14764 121.507
96.8673 14110 118.786
96.9844 13278 115.23
97.1016 12408 111.391
97.2188 11469 107.093
97.336 10421 102.083
97.4532 9686 98.4175
97.5704 9353 96.7109
97.6877 9689 98.4327
97.805 10468 102.313
97.9223 11440 106.958
98.0396 12462 111.633
98.1569 13174 114.778
98.2743 14095 118.722
98.3916 15020 122.556
98.509 15294 123.669
98.6264 15549 124.696
98.7438 15701 125.304
98.8612 15670 125.18
98.9786 15836 125.841
99.096 15683 125.232
99.2134 15530 124.619
99.3308 15457 124.326
99.4482 15641 125.064
99.5656 15379 124.012
99.6831 15144 123.061
99.8005 14845 121.84
99.9179 14982 122.401
100.035 15088 122.833
100.153 15513 124.551
100.27 15688 125.252
100.388 15282 123.62
100.505 14602 120.839
100.622 13728 117.167
100.74 12506 111.83
100.857 11532 107.387
100.975 10673 103.31
101.092 9740 98.6914
101.209 9923 99.6143
101.327 10032 100.16
101.444 10944 104.614
101.561 12318 110.986
101.679 13418 115.836
101.796 14267 119.445
101.913 15430 124.218
102.03 15676 125.204
102.148 16089 126.842
102.265 15913 126.147
102.382 16696 129.213
102.499 16155 127.102
102.616 16315 127.73
102.733 15989 126.448
102.851 16163 127.134
102.968 16500 128.452
103.085 16325 127.769
103.202 16213 127.33
103.319 15777 125.607
103.436 15685 125.24
103.552 15759 125.535
103.669 15993 126.463
103.786 16277 127.581
103.903 16344 127.844
104.02 15837 125.845
104.137 14762 121.499
104.253 13952 118.119
104.37 12643 112.441
104.487 11528 107.369
104.603 10799 103.918
104.72 10614 103.024
104.836 10922 104.508
104.953 12004 109.563
105.069 12987 113.961
105.186 14260 119.415
105.302 15350 123.895
105.418 16426 128.164
105.535 17007 130.411
105.651 17444 132.076
105.767 17703 133.053
105.883 17568 132.544
105.999 17385 131.852
106.115 0 1
106.231 0 1
106.347 0 1
106.463 0 1
106.579 0 1
106.694 0 1
106.81 0 1
106.926 0 1
107.041 0 1
107.157 0 1
109.576 0 1
109.692 0 1
109.807 0 1
109.923 0 1
110.039 0 1
110.155 0 1
110.27 0 1
110.386 0 1
110.502 0 1
110.618 15255 123.511
110.735 15956 126.317
110.851 16154 127.098
110.967 16109 126.921
111.083 16084 126.823
111.199 15882 126.024
111.316 16179 127.197
111.432 16147 127.071
111.549 16184 127.216
111.665 15932 126.222
111.782 15548 124.692
111.898 15242 123.458
112.015 15548 124.692
112.132 15287 123.641
112.248 15847 125.885
112.365 15483 124.431
112.482 14516 120.482
112.599 14523 120.511
112.716 13347 115.529
112.832 12234 110.607
112.949 11226 105.953
113.066 10475 102.347
113.183 10089 100.444
113.3 10316 101.568
113.417 10637 103.136
113.534 11518 107.322
113.652 12493 111.772
113.769 13406 115.784
113.886 14264 119.432
114.003 14535 120.561
114.12 14936 122.213
114.238 14871 121.947
114.355 15140 123.045
114.472 14766 121.515
114.589 15201 123.292
114.707 14939 122.225
114.824 14528 120.532
114.942 14953 122.282
115.059 15298 123.685
115.176 14936 122.213
115.294 14995 122.454
115.411 14312 119.633
115.529 14523 120.511
115.646 14610 120.872
115.764 14957 122.299
115.881 14837 121.807
115.999 14703 121.256
116.116 14101 118.748
116.234 13311 115.373
116.351 12508 111.839
116.469 11622 107.805
116.586 10931 104.551
116.704 10254 101.262
116.821 10043 100.215
116.939 9959 99.7948
117.056 10599 102.951
117.174 11405 106.794
117.291 12215 110.521
117.409 12919 113.662
117.526 13685 116.983
117.644 14291 119.545
117.761 14594 120.806
117.879 14766 121.515
117.996 14797 121.643
118.114 14860 121.902
118.231 14779 121.569
118.349 14487 120.362
118.466 14566 120.69
118.584 14725 121.347
118.701 14484 120.349
118.819 14696 121.227
118.936 14224 119.264
119.053 14066 118.6
119.171 13923 117.996
119.288 14108 118.777
119.405 14108 118.777
119.523 14588 120.781
119.64 14257 119.403
119.757 13896 117.881
119.875 13248 115.1
119.992 12375 111.243
120.109 11739 108.347
120.226 10849 104.159
120.343 10227 101.129
120.46 10137 100.683
120.578 9848 99.2371
120.695 9969 99.8449
120.812 10577 102.845
120.929 11389 106.719
121.046 11964 109.38
121.163 12848 113.349
121.279 13397 115.745
121.396 13866 117.754
121.513 13994 118.296
121.63 14170 119.038
121.747 14211 119.21
121.863 13897 117.886
121.98 14029 118.444
122.097 13579 116.529
122.213 13490 116.146
122.33 13694 117.021
122.446 13873 117.784
122.563 13671 116.923
122.679 13521 116.28
122.795 13109 114.495
122.912 13407 115.789
123.028 13269 115.191
123.144 13311 115.373
123.26 13300 115.326
123.377 0 1
123.493 0 1
123.609 0 1
123.725 0 1
123.84 0 1
123.956 0 1
124.072 0 1
124.188 0 1
124.303 0 1
124.419 0 1
126.852 0 1
126.968 0 1
127.083 0 1
127.199 0 1
127.315 0 1
127.431 0 1
127.547 0 1
127.663 0 1
127.779 0 1
127.895 0 1
128.011 0 1
128.127 0 1
128.243 0 1
128.359 14118 118.819
128.476 14172 119.046
128.592 14127 118.857
128.708 13555 116.426
128.825 13097 114.442
128.941 12608 112.285
129.058 11730 108.305
129.174 11271 106.165
129.291 10783 103.841
129.408 10887 104.341
129.524 10913 104.465
129.641 11331 106.447
129.758 11792 108.591
129.875 12575 112.138
129.992 13085 114.39
130.108 13614 116.679
130.225 13727 117.162
130.342 14085 118.68
130.459 13900 117.898
130.576 14479 120.329
130.693 13874 117.788
130.81 13735 117.196
130.928 13437 115.918
131.045 13785 117.41
131.162 14215 119.227
131.279 14242 119.34
131.396 14120 118.828
131.513 13912 117.949
131.631 13805 117.495
131.748 13861 117.733
131.865 14236 119.315
131.983 14090 118.701
132.1 13854 117.703
132.217 13857 117.716
132.335 13105 114.477
132.452 12734 112.845
132.57 12062 109.827
132.687 11060 105.167
132.804 11065 105.19
132.922 10565 102.786
133.039 10601 102.961
133.157 10588 102.898
133.274 11304 106.32
133.392 11599 107.699
133.509 12313 110.964
133.627 12820 113.225
133.744 13182 114.813
133.862 13292 115.291
133.979 13188 114.839
134.097 13370 115.629
134.214 13356 115.568
134.332 13295 115.304
134.449 12908 113.613
134.567 13019 114.101
134.684 13239 115.061
134.802 13706 117.073
134.919 13725 117.154
135.037 13504 116.207
135.154 13143 114.643
135.272 13367 115.616
135.389 13433 115.901
135.507 13531 116.323
135.624 13376 115.655
135.742 13340 115.499
135.859 13025 114.127
135.977 12580 112.161
136.094 12196 110.436
136.211 11701 108.171
136.329 10992 104.843
136.446 10518 102.557
136.564 10730 103.586
136.681 10519 102.562
136.798 10805 103.947
136.915 11070 105.214
137.033 11362 106.593
137.15 11891 109.046
137.267 12300 110.905
137.384 12640 112.428
137.502 12734 112.845
137.619 12929 113.706
137.736 12879 113.486
137.853 12624 112.357
137.97 12670 112.561
138.087 12081 109.914
138.204 12254 110.698
138.321 12508 111.839
138.438 12929 113.706
138.555 13039 114.188
138.672 12981 113.934
138.788 12745 112.894
138.905 12774 113.022
139.022 13101 114.46
139.139 13115 114.521
139.255 13113 114.512
139.372 13063 114.293
139.488 12657 112.503
139.605 12341 111.09
139.721 11993 109.513
139.838 11524 107.35
139.954 11023 104.99
140.071 10638 103.141
140.187 10650 103.199
140.303 10199 100.99
140.419 10343 101.701
140.535 10508 102.509
140.652 10592 102.917
140.768 0 1
140.884 0 1
141 0 1
141.115 0 1
141.231 0 1
141.347 0 1
141.463 0 1
141.578 0 1
141.694 0 1
144.104 0 1
144.219 0 1
144.335 0 1
144.45 0 1
144.566 0 1
144.682 0 1
144.798 0 1
144.914 0 1
145.03 0 1
145.146 7427 86.18
145.262 8013 89.5154
145.378 8120 90.111
145.494 8200 90.5539
145.61 8300 91.1043
145.726 8819 93.9095
145.842 8932 94.5093
145.959 9463 97.278
146.075 9418 97.0464
146.192 9561 97.7804
146.308 9489 97.4115
146.425 9492 97.4269
146.541 9683 98.4022
146.658 9489 97.4115
146.774 9467 97.2985
146.891 9279 96.3276
147.008 9468 97.3036
147.125 9561 97.7804
147.241 9962 99.8098
147.358 9894 99.4686
147.475 9882 99.4082
147.592 9909 99.544
147.709 9871 99.3529
147.826 9881 99.4032
147.943 10021 100.105
148.06 10045 100.225
148.177 9971 99.8549
148.294 9798 98.9848
148.411 9632 98.1428
148.528 9494 97.4372
148.645 9216 96
148.762 9079 95.2838
148.88 8659 93.0537
148.997 8377 91.526
149.114 8825 93.9415
149.231 8520 92.3038
149.349 8652 93.0161
149.466 8834 93.9894
149.583 9076 95.268
149.701 9098 95.3834
149.818 9600 97.9796
149.935 9651 98.2395
150.053 9698 98.4784
150.17 9860 99.2975
150.287 9751 98.7472
150.405 9579 97.8724
150.522 9269 96.2756
150.64 9430 97.1082
150.757 9496 97.4474
150.875 9786 98.9242
150.992 9888 99.4384
151.11 10088 100.439
151.227 9969 99.8449
151.344 10028 100.14
151.462 9980 99.8999
151.579 10010 100.05
151.697 10307 101.523
151.814 10008 100.04
151.932 9978 99.8899
152.049 9606 98.0102
152.167 9702 98.4987
152.284 9180 95.8123
152.402 9246 96.1561
152.519 9103 95.4096
152.636 8933 94.5145
152.754 8802 93.819
152.871 8792 93.7657
152.989 9103 95.4096
153.106 8929 94.4934
153.223 9366 96.7781
153.341 9430 97.1082
153.458 9535 97.6473
153.575 9761 98.7978
153.693 9788 98.9343
153.81 9817 99.0808
153.927 9768 98.8332
154.044 9474 97.3345
154.162 9449 97.206
154.279 9535 97.6473
154.396 9515 97.5449
154.513 10028 100.14
154.63 10176 100.876
154.747 10471 102.328
154.864 10398 101.971
154.981 10637 103.136
155.098 10385 101.907
155.215 10384 101.902
155.332 10504 102.489
155.449 10450 102.225
155.566 10275 101.366
155.683 9860 99.2975
155.8 9908 99.5389
155.917 9760 98.7927
156.033 9466 97.2934
156.15 0 1
156.267 0 1
156.383 0 1
156.5 0 1
156.617 0 1
156.733 0 1
156.85 0 1
156.966 0 1
157.082 0 1
157.199 0 1
157.315 0 1
157.431 0 1
157.547 0 1
157.664 0 1
157.78 0 1
157.896 0 1
158.012 0 1
158.128 0 1
158.244 0 1
158.359 0 1
158.475 0 1
158.591 0 1
158.706 0 1
