
6.15755 0 1
6.2731 0 1
6.3887 0 1
6.50437 0 1
6.62009 0 1
6.73587 0 1
6.8517 0 1
6.96759 0 1
7.08353 0 1
7.19952 0 1
7.31557 0 1
7.43166 0 1
7.54781 0 1
7.664 0 1
7.78024 0 1
7.89653 0 1
8.01286 0 1
8.12924 0 1
8.24567 0 1
8.36213 0 1
8.47864 0 1
8.59519 0 1
8.71178 0 1
8.82841 0 1
8.94508 0 1
9.06179 0 1
9.17853 0 1
9.29531 0 1
9.41212 0 1
9.52897 0 1
9.64584 0 1
9.76276 0 1
9.8797 0 1
9.99667 0 1
10.1137 0 1
10.2307 0 1
10.3478 0 1
10.4648 0 1
10.5819 0 1
10.6991 0 1
10.8162 0 1
10.9334 0 1
11.0506 0 1
11.1678 0 1
11.285 0 1
11.4023 0 1
11.5196 0 1
11.6369 0 1
11.7542 0 1
11.8715 0 1
11.9888 0 1
12.1062 0 1
12.2235 0 1
12.3409 0 1
12.4582 0 1
12.5756 0 1
12.693 0 1
12.8104 0 1
12.9278 0 1
13.0452 0 1
13.1626 0 1
13.28 0 1
13.3974 0 1
13.5149 0 1
13.6323 0 1
13.7497 0 1
13.8671 0 1
13.9845 0 1
14.1019 0 1
14.2193 0 1
14.3367 0 1
14.4541 0 1
14.5714 0 1
14.6888 0 1
14.8062 0 1
14.9235 0 1
15.0408 0 0
15.1581 0 0
15.2755 0 0
15.3927 0 0
15.51 0 0
15.6273 0 0
15.7445 0 0
15.8617 0 0
15.9789 0 0
16.0961 0 0
16.2132 0 0
16.3304 0 0
16.4475 0 0
16.5646 0 0
16.6816 0 0
16.7986 0 0
16.9156 0 0
17.0326 0 0
17.1496 0 0
17.2665 0 0
17.3833 0 0
17.5002 0 0
17.617 0 0
17.7338 0 0
17.8505 0 0
17.9672 0 0
18.0839 0 0
18.2005 0 0
18.3171 0 0
18.4337 0 0
18.5502 0 0
18.6666 0 0
18.7831 0 0
18.8994 0 0
19.0158 0 0
19.1321 0 0
19.2483 0 0
19.3645 0 0
19.4806 0 0
19.5967 0 0
19.7128 0 0
19.8288 0 0
19.9447 0 0
20.0606 0 1
20.1764 0 1
20.2922 0 1
20.4079 0 1
20.5236 0 1
20.6392 0 1
20.7548 0 1
20.8702 0 1
23.3078 0 1
23.4233 0 1
23.539 0 1
23.6547 0 1
23.7704 0 1
23.8862 0 1
24.0021 0 1
24.118 0 1
24.234 0 1
24.35 0 1
24.4661 2221 47.1275
24.5822 2272 47.6655
24.6984 2389 48.8774
24.8146 2409 49.0816
24.9309 2449 49.4874
25.0472 2522 50.2195
25.1636 2457 49.5681
25.28 2598 50.9706
25.3965 2588 50.8724
25.513 2557 50.5668
25.6296 2606 51.049
25.7462 2539 50.3885
25.8628 2414 49.1325
25.9795 2337 48.3425
26.0962 2261 47.55
26.213 2329 48.2597
26.3298 2240 47.3286
26.4466 2235 47.2758
26.5635 2078 45.5851
26.6804 2115 45.9891
26.7973 2131 46.1628
26.9143 2096 45.7821
27.0313 1972 44.4072
27.1483 1865 43.1856
27.2653 1781 42.2019
27.3824 1974 44.4297
27.4996 1916 43.7721
27.6167 1941 44.0568
27.7339 2093 45.7493
27.8511 2147 46.3357
27.9683 2216 47.0744
28.0855 2239 47.3181
28.2028 2297 47.927
28.3201 2162 46.4973
28.4374 2212 47.0319
28.5547 2193 46.8295
28.6721 2151 46.3789
28.7894 2147 46.3357
28.9068 2099 45.8148
29.0242 1955 44.2154
29.1416 1999 44.7102
29.259 1925 43.8748
29.3764 1879 43.3474
29.4939 1845 42.9535
29.6113 1854 43.0581
29.7288 1899 43.5775
29.8463 1970 44.3847
29.9638 1989 44.5982
30.0812 1956 44.2267
30.1987 1892 43.4971
30.3162 1972 44.4072
30.4337 1930 43.9318
30.5512 1876 43.3128
30.6687 1906 43.6578
30.7862 1957 44.238
30.9037 1892 43.4971
31.0212 2059 45.3762
31.1387 2118 46.0217
31.2562 2178 46.669
31.3737 2218 47.0956
31.4912 2279 47.7389
31.6087 2311 48.0729
31.7262 2219 47.1063
31.8436 2135 46.2061
31.9611 2077 45.5741
32.0785 1998 44.699
32.1959 2030 45.0555
32.3134 1942 44.0681
32.4308 1816 42.6146
32.5482 1736 41.6653
32.6655 1611 40.1373
32.7829 1674 40.9145
32.9002 1554 39.4208
33.0176 1631 40.3856
33.1349 1600 40
33.2522 1562 39.5221
33.3694 1629 40.3609
33.4867 1634 40.4228
33.6039 1631 40.3856
33.7211 1702 41.2553
33.8383 1698 41.2068
33.9554 1780 42.19
34.0725 1820 42.6615
34.1896 1795 42.3674
34.3067 1861 43.1393
34.4237 1751 41.845
34.5407 1717 41.4367
34.6577 1832 42.8019
34.7746 1762 41.9762
34.8915 1833 42.8135
35.0084 1690 41.1096
35.1252 1740 41.7133
35.242 1739 41.7013
35.3587 1679 40.9756
35.4755 1581 39.7618
35.5921 1581 39.7618
35.7088 1551 39.3827
35.8254 1567 39.5854
35.9419 1565 39.5601
36.0584 1442 37.9737
36.1749 1467 38.3014
36.2913 1419 37.6696
36.4077 1398 37.3898
36.524 1394 37.3363
36.6403 1344 36.6606
36.7565 1427 37.7757
36.8727 1425 37.7492
36.9889 1449 38.0657
37.1049 1439 37.9342
37.221 0 1
37.3369 0 1
37.4529 0 1
37.5687 0 1
37.6845 0 1
37.8003 0 1
37.916 0 1
38.0316 0 1
38.1472 0 1
40.5851 0 1
40.7008 0 1
40.8164 0 1
40.9322 0 1
41.048 0 1
41.1639 0 1
41.2798 0 1
41.3958 0 1
41.5118 0 1
41.6279 0 1
41.744 1162 34.0881
41.8602 1208 34.7563
41.9765 1175 34.2783
42.0928 1201 34.6554
42.2091 1189 34.4819
42.3255 1217 34.8855
42.4419 1264 35.5528
42.5584 1141 33.7787
42.675 1114 33.3766
42.7915 1071 32.7261
42.9081 981 31.3209
43.0248 1068 32.6803
43.1415 903 30.05
43.2582 890 29.8329
43.375 919 30.315
43.4918 911 30.1828
43.6087 946 30.7571
43.7256 954 30.8869
43.8425 919 30.315
43.9595 942 30.692
44.0765 942 30.692
44.1935 1000 31.6228
44.3106 904 30.0666
44.4277 925 30.4138
44.5448 905 30.0832
44.6619 877 29.6142
44.7791 870 29.4958
44.8963 893 29.8831
45.0136 899 29.9833
45.1308 871 29.5127
45.2481 937 30.6105
45.3654 941 30.6757
45.4827 951 30.8383
45.6001 915 30.249
45.7174 886 29.7658
45.8348 829 28.7924
45.9522 840 28.9828
46.0697 749 27.3679
46.1871 786 28.0357
46.3046 727 26.9629
46.422 740 27.2029
46.5395 706 26.5707
46.657 683 26.1343
46.7745 624 24.98
46.892 636 25.219
47.0096 601 24.5153
47.1271 669 25.865
47.2446 614 24.779
47.3622 658 25.6515
47.4797 614 24.779
47.5973 596 24.4131
47.7149 651 25.5147
47.8324 619 24.8797
47.95 626 25.02
48.0675 625 25
48.1851 644 25.3772
48.3027 637 25.2389
48.4202 624 24.98
48.5378 699 26.4386
48.6554 694 26.3439
48.7729 658 25.6515
48.8904 679 26.0576
49.008 664 25.7682
49.1255 641 25.318
49.243 605 24.5967
49.3605 674 25.9615
49.478 671 25.9037
49.5955 701 26.4764
49.713 658 25.6515
49.8304 626 25.02
49.9479 655 25.593
50.0653 603 24.5561
50.1827 604 24.5764
50.3001 583 24.1454
50.4175 565 23.7697
50.5348 593 24.3516
50.6521 675 25.9808
50.7694 591 24.3105
50.8867 642 25.3377
51.004 669 25.865
51.1212 695 26.3629
51.2384 746 27.313
51.3556 722 26.8701
51.4727 708 26.6083
51.5899 737 27.1477
51.707 755 27.4773
51.824 794 28.178
51.9411 793 28.1603
52.0581 766 27.6767
52.175 801 28.3019
52.2919 819 28.6182
52.4088 846 29.0861
52.5257 839 28.9655
52.6425 822 28.6705
52.7593 876 29.5973
52.876 869 29.4788
52.9927 852 29.189
53.1094 846 29.0861
53.226 883 29.7153
53.3426 848 29.1204
53.4591 884 29.7321
53.5756 847 29.1033
53.692 778 27.8927
53.8084 756 27.4955
53.9248 748 27.3496
54.0411 738 27.1662
54.1573 721 26.8514
54.2735 0 1
54.3896 0 1
54.5057 0 1
54.6217 0 1
54.7377 0 1
54.8537 0 1
54.9695 0 1
55.0853 0 1
55.2011 0 1
55.3168 0 1
55.4324 0 1
57.824 0 1
57.9396 0 1
58.0553 0 1
58.1711 0 1
58.2869 0 1
58.4028 0 1
58.5187 0 1
58.6347 0 1
58.7508 0 1
58.8669 0 1
58.983 919 30.315
59.0992 892 29.8664
59.2155 918 30.2985
59.3318 938 30.6268
59.4482 1000 31.6228
59.5646 1012 31.8119
59.681 1039 32.2335
59.7975 1036 32.187
59.9141 1116 33.4066
60.0306 1116 33.4066
60.1473 1223 34.9714
60.2639 1262 35.5246
60.3807 1145 33.8378
60.4974 1182 34.3802
60.6142 1214 34.8425
60.731 1239 35.1994
60.8479 1277 35.7351
60.9648 1243 35.2562
61.0818 1295 35.9861
61.1987 1264 35.5528
61.3158 1260 35.4965
61.4328 1226 35.0143
61.5499 1155 33.9853
61.667 1244 35.2704
61.7841 1285 35.8469
61.9013 1235 35.1426
62.0185 1257 35.4542
62.1357 1209 34.7707
62.253 1153 33.9559
62.3702 1181 34.3657
62.4875 1059 32.5423
62.6049 1098 33.1361
62.7222 1180 34.3511
62.8396 1200 34.641
62.9569 1200 34.641
63.0743 1198 34.6121
63.1918 1239 35.1994
63.3092 1276 35.7211
63.4267 1255 35.426
63.5441 1251 35.3695
63.6616 1284 35.8329
63.7791 1242 35.242
63.8966 1333 36.5103
64.0142 1307 36.1525
64.1317 1287 35.8748
64.2492 1362 36.9053
64.3668 1370 37.0135
64.4843 1359 36.8646
64.6019 1302 36.0832
64.7195 1346 36.6879
64.837 1250 35.3553
64.9546 1335 36.5377
65.0722 1301 36.0694
65.1898 1319 36.318
65.3074 1276 35.7211
65.4249 1249 35.3412
65.5425 1285 35.8469
65.6601 1282 35.805
65.7777 1164 34.1174
65.8952 1107 33.2716
66.0128 1043 32.2955
66.1304 1070 32.7109
66.2479 991 31.4802
66.3655 1015 31.8591
66.483 1069 32.6956
66.6005 1097 33.121
66.718 1061 32.573
66.8355 1099 33.1512
66.953 1072 32.7414
67.0705 1138 33.7343
67.1879 1125 33.541
67.3054 1086 32.9545
67.4228 1086 32.9545
67.5402 1075 32.7872
67.6576 1122 33.4963
67.7749 1140 33.7639
67.8923 1040 32.249
68.0096 1125 33.541
68.1269 1113 33.3617
68.2442 1155 33.9853
68.3614 1148 33.8821
68.4787 1102 33.1964
68.5958 1046 32.3419
68.713 1093 33.0606
68.8302 1066 32.6497
68.9473 1073 32.7567
69.0643 1090 33.0151
69.1814 1042 32.28
69.2984 963 31.0322
69.4154 995 31.5436
69.5323 925 30.4138
69.6492 842 29.0172
69.7661 822 28.6705
69.8829 848 29.1204
69.9997 822 28.6705
70.1165 810 28.4605
70.2332 881 29.6816
70.3499 842 29.0172
70.4665 935 30.5778
70.5831 861 29.3428
70.6996 897 29.95
70.8161 971 31.1609
70.9326 901 30.0167
71.049 916 30.2655
71.1653 887 29.7825
71.2817 855 29.2404
71.3979 896 29.9333
71.5141 868 29.4618
71.6303 872 29.5296
71.7464 769 27.7308
71.8624 0 1
71.9784 0 1
72.0944 0 1
72.2102 0 1
72.3261 0 1
72.4418 0 1
72.5575 0 1
72.6732 0 1
75.1054 0 1
75.2209 0 1
75.3365 0 1
75.4521 0 1
75.5678 0 1
75.6835 0 1
75.7993 0 1
75.9151 0 1
76.031 0 1
76.147 782 27.9643
76.263 841 29
76.3791 878 29.6311
76.4952 916 30.2655
76.6113 922 30.3645
76.7276 907 30.1164
76.8438 889 29.8161
76.9601 979 31.289
77.0765 972 31.1769
77.1929 953 30.8707
77.3093 1006 31.7175
77.4258 972 31.1769
77.5423 985 31.3847
77.6589 1009 31.7648
77.7755 936 30.5941
77.8921 953 30.8707
78.0088 952 30.8545
78.1256 930 30.4959
78.2423 966 31.0805
78.3591 889 29.8161
78.4759 895 29.9166
78.5928 898 29.9666
78.7097 765 27.6586
78.8266 723 26.8887
78.9436 725 26.9258
79.0606 787 28.0535
79.1776 842 29.0172
79.2946 864 29.3939
79.4117 879 29.6479
79.5288 857 29.2746
79.6459 882 29.6985
79.7631 916 30.2655
79.8802 948 30.7896
79.9974 964 31.0483
80.1147 1018 31.9061
80.2319 983 31.3528
80.3491 939 30.6431
80.4664 1021 31.9531
80.5837 1016 31.8748
80.701 1061 32.573
80.8183 1079 32.8481
80.9357 1074 32.7719
81.053 1068 32.6803
81.1704 1039 32.2335
81.2877 1052 32.4345
81.4051 968 31.1127
81.5225 968 31.1127
81.6399 949 30.8058
81.7573 975 31.225
81.8747 974 31.209
81.9922 945 30.7409
82.1096 927 30.4467
82.227 921 30.348
82.3444 823 28.688
82.4619 817 28.5832
82.5793 782 27.9643
82.6967 831 28.8271
82.8142 795 28.1957
82.9316 824 28.7054
83.049 823 28.688
83.1664 836 28.9137
83.2838 895 29.9166
83.4012 951 30.8383
83.5186 877 29.6142
83.636 910 30.1662
83.7534 939 30.6431
83.8708 876 29.5973
83.9881 965 31.0644
84.1055 931 30.5123
84.2228 929 30.4795
84.3401 1031 32.1092
84.4575 983 31.3528
84.5747 1008 31.749
84.692 1021 31.9531
84.8093 955 30.9031
84.9265 963 31.0322
85.0437 948 30.7896
85.1609 981 31.3209
85.2781 934 30.5614
85.3952 926 30.4302
85.5123 934 30.5614
85.6294 943 30.7083
85.7465 921 30.348
85.8636 882 29.6985
85.9806 874 29.5635
86.0976 801 28.3019
86.2145 842 29.0172
86.3315 802 28.3196
86.4484 852 29.189
86.5652 895 29.9166
86.682 864 29.3939
86.7988 928 30.4631
86.9156 951 30.8383
87.0323 949 30.8058
87.149 959 30.9677
87.2657 1015 31.8591
87.3823 1069 32.6956
87.4988 1043 32.2955
87.6154 980 31.305
87.7318 1112 33.3467
87.8483 1128 33.5857
87.9647 1131 33.6303
88.081 1141 33.7787
88.1973 1127 33.5708
88.3136 1094 33.0757
88.4298 1053 32.45
88.546 1126 33.5559
88.6621 1058 32.5269
88.7781 1080 32.8634
88.8942 0 1
89.0101 0 1
89.126 0 1
89.2419 0 1
89.3577 0 1
89.4734 0 1
89.5891 0 1
89.7047 0 1
89.8203 0 1
89.9358 0 1
92.3269 0 1
92.4424 0 1
92.558 0 1
92.6736 0 1
92.7893 0 1
92.905 0 1
93.0208 0 1
93.1366 0 1
93.2525 0 1
93.3685 0 1
93.4845 0 1
93.6005 1143 33.8083
93.7167 1137 33.7194
93.8328 1162 34.0881
93.949 1143 33.8083
94.0653 1112 33.3467
94.1816 1072 32.7414
94.2979 1059 32.5423
94.4143 1058 32.5269
94.5307 1064 32.619
94.6472 1097 33.121
94.7637 1066 32.6497
94.8803 1015 31.8591
94.9969 984 31.3688
95.1135 995 31.5436
95.2302 913 30.2159
95.3469 960 30.9839
95.4637 924 30.3974
95.5805 944 30.7246
95.6973 981 31.3209
95.8142 996 31.5595
95.9311 1038 32.218
96.048 962 31.0161
96.1649 1100 33.1662
96.2819 1093 33.0606
96.3989 1092 33.0454
96.516 1114 33.3766
96.633 1183 34.3948
96.7501 1220 34.9285
96.8673 1169 34.1906
96.9844 1244 35.2704
97.1016 1205 34.7131
97.2188 1297 36.0139
97.336 1219 34.9142
97.4532 1240 35.2136
97.5704 1305 36.1248
97.6877 1212 34.8138
97.805 1282 35.805
97.9223 1175 34.2783
98.0396 1206 34.7275
98.1569 1246 35.2987
98.2743 1156 34
98.3916 1193 34.5398
98.509 1154 33.9706
98.6264 1064 32.619
98.7438 1042 32.28
98.8612 949 30.8058
98.9786 910 30.1662
99.096 1004 31.686
99.2134 998 31.5911
99.3308 1033 32.1403
99.4482 1036 32.187
99.5656 1075 32.7872
99.6831 1050 32.4037
99.8005 1156 34
99.9179 1223 34.9714
100.035 1094 33.0757
100.153 1244 35.2704
100.27 1221 34.9428
100.388 1238 35.1852
100.505 1234 35.1283
100.622 1266 35.5809
100.74 1304 36.1109
100.857 1353 36.7831
100.975 1364 36.9324
101.092 1294 35.9722
101.209 1278 35.7491
101.327 1385 37.2156
101.444 1319 36.318
101.561 1281 35.7911
101.679 1313 36.2353
101.796 1187 34.4529
101.913 1276 35.7211
102.03 1243 35.2562
102.148 1191 34.5109
102.265 1265 35.5668
102.382 1117 33.4215
102.499 1192 34.5254
102.616 1083 32.909
102.733 1102 33.1964
102.851 1114 33.3766
102.968 1208 34.7563
103.085 1174 34.2637
103.202 1127 33.5708
103.319 1167 34.1614
103.436 1205 34.7131
103.552 1298 36.0278
103.669 1267 35.5949
103.786 1387 37.2424
103.903 1383 37.1887
104.02 1363 36.9188
104.137 1421 37.6962
104.253 1500 38.7298
104.37 1476 38.4187
104.487 1554 39.4208
104.603 1511 38.8716
104.72 1516 38.9358
104.836 1530 39.1152
104.953 1485 38.5357
105.069 1466 38.2884
105.186 1456 38.1576
105.302 1493 38.6394
105.418 1521 39
105.535 1433 37.855
105.651 1462 38.2361
105.767 1388 37.2559
105.883 1378 37.1214
105.999 1371 37.027
106.115 0 1
106.231 0 1
106.347 0 1
106.463 0 1
106.579 0 1
106.694 0 1
106.81 0 1
106.926 0 1
107.041 0 1
107.157 0 1
109.576 0 1
109.692 0 1
109.807 0 1
109.923 0 1
110.039 0 1
110.155 0 1
110.27 0 1
110.386 0 1
110.502 0 1
110.618 2034 45.0999
110.735 2018 44.9222
110.851 2035 45.111
110.967 1781 42.2019
111.083 1827 42.7434
111.199 1815 42.6028
111.316 1843 42.9302
111.432 1895 43.5316
111.549 1872 43.2666
111.665 1879 43.3474
111.782 1974 44.4297
111.898 1948 44.1362
112.015 2040 45.1664
112.132 2031 45.0666
112.248 2075 45.5522
112.365 2114 45.9783
112.482 2015 44.8888
112.599 1987 44.5758
112.716 2129 46.1411
112.832 2178 46.669
112.949 2030 45.0555
113.066 2232 47.244
113.183 2015 44.8888
113.3 2120 46.0435
113.417 2076 45.5631
113.534 2087 45.6837
113.652 2067 45.4643
113.769 1946 44.1135
113.886 1911 43.715
114.003 1993 44.643
114.12 1843 42.9302
114.238 1927 43.8976
114.355 1854 43.0581
114.472 1762 41.9762
114.589 1679 40.9756
114.707 1565 39.5601
114.824 1602 40.025
114.942 1629 40.3609
115.059 1782 42.2137
115.176 1768 42.0476
115.294 1684 41.0366
115.411 1816 42.6146
115.529 1853 43.0465
115.646 1876 43.3128
115.764 1897 43.5546
115.881 1959 44.2606
115.999 1913 43.7379
116.116 1946 44.1135
116.234 1917 43.7836
116.351 2012 44.8553
116.469 2035 45.111
116.586 2076 45.5631
116.704 2121 46.0543
116.821 2056 45.3431
116.939 2002 44.7437
117.056 1992 44.6318
117.174 1976 44.4522
117.291 2019 44.9333
117.409 1896 43.5431
117.526 1911 43.715
117.644 1945 44.1022
117.761 1972 44.4072
117.879 1939 44.0341
117.996 1849 43
118.114 1714 41.4005
118.231 1673 40.9023
118.349 1640 40.4969
118.466 1717 41.4367
118.584 1799 42.4146
118.701 1755 41.8927
118.819 1779 42.1782
118.936 1743 41.7493
119.053 1793 42.3438
119.171 1821 42.6732
119.288 1892 43.4971
119.405 1886 43.4281
119.523 1916 43.7721
119.64 1903 43.6234
119.757 1961 44.2832
119.875 2004 44.7661
119.992 1869 43.2319
120.109 2067 45.4643
120.226 1881 43.3705
120.343 2034 45.0999
120.46 2013 44.8665
120.578 1938 44.0227
120.695 1938 44.0227
120.812 1922 43.8406
120.929 1986 44.5646
121.046 1940 44.0454
121.163 1967 44.3509
121.279 1978 44.4747
121.396 1908 43.6807
121.513 1903 43.6234
121.63 1938 44.0227
121.747 1800 42.4264
121.863 1735 41.6533
121.98 1659 40.7308
122.097 1601 40.0125
122.213 1576 39.6989
122.33 1730 41.5933
122.446 1650 40.6202
122.563 1707 41.3159
122.679 1689 41.0974
122.795 1764 42
122.912 1782 42.2137
123.028 1872 43.2666
123.144 1867 43.2088
123.26 1813 42.5793
123.377 0 1
123.493 0 1
123.609 0 1
123.725 0 1
123.84 0 1
123.956 0 1
124.072 0 1
124.188 0 1
124.303 0 1
124.419 0 1
126.852 0 1
126.968 0 1
127.083 0 1
127.199 0 1
127.315 0 1
127.431 0 1
127.547 0 1
127.663 0 1
127.779 0 1
127.895 0 1
128.011 0 1
128.127 0 1
128.243 0 1
128.359 1938 44.0227
128.476 1846 42.9651
128.592 1793 42.3438
128.708 1873 43.2782
128.825 1688 41.0853
128.941 1834 42.8252
129.058 1797 42.391
129.174 1781 42.2019
129.291 1739 41.7013
129.408 1715 41.4126
129.524 1700 41.2311
129.641 1680 40.9878
129.758 1534 39.1663
129.875 1616 40.1995
129.992 1597 39.9625
130.108 1554 39.4208
130.225 1445 38.0132
130.342 1435 37.8814
130.459 1394 37.3363
130.576 1420 37.6829
130.693 1364 36.9324
130.81 1202 34.6699
130.928 1205 34.7131
131.045 1249 35.3412
131.162 1170 34.2053
131.279 1293 35.9583
131.396 1290 35.9166
131.513 1241 35.2278
131.631 1261 35.5106
131.748 1379 37.1349
131.865 1417 37.6431
131.983 1397 37.3765
132.1 1378 37.1214
132.217 1448 38.0526
132.335 1457 38.1707
132.452 1503 38.7685
132.57 1597 39.9625
132.687 1437 37.9078
132.804 1623 40.2865
132.922 1480 38.4708
133.039 1534 39.1663
133.157 1548 39.3446
133.274 1507 38.8201
133.392 1503 38.7685
133.509 1472 38.3667
133.627 1457 38.1707
133.744 1434 37.8682
133.862 1459 38.1969
133.979 1491 38.6135
134.097 1471 38.3536
134.214 1445 38.0132
134.332 1382 37.1753
134.449 1382 37.1753
134.567 1344 36.6606
134.684 1337 36.565
134.802 1406 37.4967
134.919 1498 38.704
135.037 1455 38.1445
135.154 1473 38.3797
135.272 1513 38.8973
135.389 1596 39.95
135.507 1671 40.8779
135.624 1648 40.5956
135.742 1598 39.975
135.859 1687 41.0731
135.977 1577 39.7115
136.094 1646 40.5709
136.211 1745 41.7732
136.329 1650 40.6202
136.446 1724 41.5211
136.564 1738 41.6893
136.681 1693 41.1461
136.798 1680 40.9878
136.915 1632 40.398
137.033 1635 40.4351
137.15 1594 39.9249
137.267 1640 40.4969
137.384 1589 39.8623
137.502 1626 40.3237
137.619 1574 39.6737
137.736 1582 39.7744
137.853 1469 38.3275
137.97 1496 38.6782
138.087 1499 38.7169
138.204 1442 37.9737
138.321 1517 38.9487
138.438 1549 39.3573
138.555 1624 40.2989
138.672 1779 42.1782
138.788 1778 42.1663
138.905 1847 42.9767
139.022 1975 44.441
139.139 2015 44.8888
139.255 2105 45.8803
139.372 2083 45.6399
139.488 2125 46.0977
139.605 2188 46.7761
139.721 2246 47.392
139.838 2395 48.9387
139.954 2437 49.366
140.071 2587 50.8626
140.187 2725 52.2015
140.303 2819 53.0943
140.419 2876 53.6284
140.535 2938 54.2033
140.652 3070 55.4076
140.768 0 1
140.884 0 1
141 0 1
141.115 0 1
141.231 0 1
141.347 0 1
141.463 0 1
141.578 0 1
141.694 0 1
144.104 0 1
144.219 0 1
144.335 0 1
144.45 0 1
144.566 0 1
144.682 0 1
144.798 0 1
144.914 0 1
145.03 0 1
145.146 3123 55.8838
145.262 3140 56.0357
145.378 3187 56.4535
145.494 3256 57.0614
145.61 3182 56.4092
145.726 3306 57.4978
145.842 3325 57.6628
145.959 3261 57.1052
146.075 3480 58.9915
146.192 3554 59.6154
146.308 3550 59.5819
146.425 3638 60.3158
146.541 3735 61.1146
146.658 3543 59.5231
146.774 3318 57.6021
146.891 3197 56.542
147.008 3217 56.7186
147.125 3350 57.8792
147.241 3275 57.2276
147.358 3316 57.5847
147.475 3361 57.9741
147.592 3315 57.576
147.709 3484 59.0254
147.826 3356 57.931
147.943 3360 57.9655
148.06 3306 57.4978
148.177 3265 57.1402
148.294 3238 56.9034
148.411 3237 56.8946
148.528 3222 56.7627
148.645 3082 55.5158
148.762 3159 56.205
148.88 3142 56.0535
148.997 3109 55.7584
149.114 3298 57.4282
149.231 3242 56.9386
149.349 3265 57.1402
149.466 3278 57.2538
149.583 3340 57.7927
149.701 3328 57.6888
149.818 3377 58.112
149.935 3436 58.6174
150.053 3451 58.7452
150.17 3398 58.2924
150.287 3180 56.3915
150.405 3039 55.1271
150.522 2954 54.3507
150.64 2932 54.1479
150.757 3012 54.8817
150.875 3028 55.0273
150.992 2993 54.7083
151.11 2901 53.8609
151.227 3085 55.5428
151.344 3113 55.7943
151.462 3167 56.2761
151.579 3158 56.1961
151.697 3139 56.0268
151.814 3179 56.3826
151.932 3221 56.7539
152.049 3215 56.701
152.167 3246 56.9737
152.284 3274 57.2189
152.402 3221 56.7539
152.519 3246 56.9737
152.636 3336 57.7581
152.754 3367 58.0259
152.871 3418 58.4637
152.989 3492 59.0931
153.106 3359 57.9569
153.223 3477 58.9661
153.341 3454 58.7707
153.458 3416 58.4466
153.575 3447 58.7112
153.693 3463 58.8473
153.81 3434 58.6003
153.927 3290 57.3585
154.044 3099 55.6687
154.162 2962 54.4243
154.279 2956 54.3691
154.396 3176 56.356
154.513 3255 57.0526
154.63 3169 56.2939
154.747 3047 55.1996
154.864 3292 57.376
154.981 3394 58.258
155.098 3492 59.0931
155.215 3577 59.808
155.332 3654 60.4483
155.449 3630 60.2495
155.566 3737 61.131
155.683 3723 61.0164
155.8 3770 61.4003
155.917 3919 62.6019
156.033 3876 62.2575
156.15 0 1
156.267 0 1
156.383 0 1
156.5 0 1
156.617 0 1
156.733 0 1
156.85 0 1
156.966 0 1
157.082 0 1
157.199 0 1
157.315 0 1
157.431 0 1
157.547 0 1
157.664 0 1
157.78 0 1
157.896 0 1
158.012 0 1
158.128 0 1
158.244 0 1
158.359 0 1
158.475 0 1
158.591 0 1
158.706 0 1
