
6.15755 0 1
6.2731 0 1
6.3887 0 1
6.50437 0 1
6.62009 0 1
6.73587 0 1
6.8517 0 1
6.96759 0 1
7.08353 0 1
7.19952 0 1
7.31557 0 1
7.43166 0 1
7.54781 0 1
7.664 0 1
7.78024 0 1
7.89653 0 1
8.01286 0 1
8.12924 0 1
8.24567 0 1
8.36213 0 1
8.47864 0 1
8.59519 0 1
8.71178 0 1
8.82841 0 1
8.94508 0 1
9.06179 0 1
9.17853 0 1
9.29531 0 1
9.41212 0 1
9.52897 0 1
9.64584 0 1
9.76276 0 1
9.8797 0 1
9.99667 0 1
10.1137 0 1
10.2307 0 1
10.3478 0 1
10.4648 0 1
10.5819 0 1
10.6991 0 1
10.8162 0 1
10.9334 0 1
11.0506 0 1
11.1678 0 1
11.285 0 1
11.4023 0 1
11.5196 0 1
11.6369 0 1
11.7542 0 1
11.8715 0 1
11.9888 0 1
12.1062 0 1
12.2235 0 1
12.3409 0 1
12.4582 0 1
12.5756 0 1
12.693 0 1
12.8104 0 1
12.9278 0 1
13.0452 0 1
13.1626 0 1
13.28 0 1
13.3974 0 1
13.5149 0 1
13.6323 0 1
13.7497 0 1
13.8671 0 1
13.9845 0 1
14.1019 0 1
14.2193 0 1
14.3367 0 1
14.4541 0 1
14.5714 0 1
14.6888 0 1
14.8062 0 1
14.9235 0 1
15.0408 1669 40.8534
15.1581 1661 40.7554
15.2755 1827 42.7434
15.3927 1818 42.638
15.51 1793 42.3438
15.6273 1796 42.3792
15.7445 1859 43.1161
15.8617 1885 43.4166
15.9789 1880 43.359
16.0961 1816 42.6146
16.2132 1845 42.9535
16.3304 1833 42.8135
16.4475 1895 43.5316
16.5646 1956 44.2267
16.6816 2140 46.2601
16.7986 2188 46.7761
16.9156 2250 47.4342
17.0326 2178 46.669
17.1496 2216 47.0744
17.2665 2219 47.1063
17.3833 2219 47.1063
17.5002 2101 45.8367
17.617 1971 44.3959
17.7338 1922 43.8406
17.8505 1909 43.6921
17.9672 1905 43.6463
18.0839 1893 43.5086
18.2005 1894 43.5201
18.3171 2037 45.1331
18.4337 2108 45.913
18.5502 2171 46.594
18.6666 2163 46.5081
18.7831 2168 46.5618
18.8994 2054 45.3211
19.0158 2090 45.7165
19.1321 1966 44.3396
19.2483 2026 45.0111
19.3645 1900 43.589
19.4806 1776 42.1426
19.5967 1629 40.3609
19.7128 1498 38.704
19.8288 1470 38.3406
19.9447 1323 36.3731
20.0606 0 1
20.1764 0 1
20.2922 0 1
20.4079 0 1
20.5236 0 1
20.6392 0 1
20.7548 0 1
20.8702 0 1
23.3078 0 1
23.4233 0 1
23.539 0 1
23.6547 0 1
23.7704 0 1
23.8862 0 1
24.0021 0 1
24.118 0 1
24.234 0 1
24.35 0 1
24.4661 869 29.4788
24.5822 1018 31.9061
24.6984 1180 34.3511
24.8146 1267 35.5949
24.9309 1425 37.7492
25.0472 1565 39.5601
25.1636 1760 41.9524
25.28 1891 43.4856
25.3965 2038 45.1442
25.513 2194 46.8402
25.6296 2190 46.7974
25.7462 2324 48.2079
25.8628 2318 48.1456
25.9795 2402 49.0102
26.0962 2334 48.3115
26.213 2178 46.669
26.3298 2182 46.7119
26.4466 2031 45.0666
26.5635 1945 44.1022
26.6804 1969 44.3734
26.7973 2025 45
26.9143 2027 45.0222
27.0313 2137 46.2277
27.1483 2142 46.2817
27.2653 2155 46.422
27.3824 2224 47.1593
27.4996 2266 47.6025
27.6167 2220 47.1169
27.7339 2169 46.5725
27.8511 2048 45.2548
27.9683 2052 45.299
28.0855 2004 44.7661
28.2028 1935 43.9886
28.3201 1850 43.0116
28.4374 1855 43.0697
28.5547 1909 43.6921
28.6721 1946 44.1135
28.7894 2168 46.5618
28.9068 2161 46.4866
29.0242 2270 47.6445
29.1416 2289 47.8435
29.259 2313 48.0937
29.3764 2284 47.7912
29.4939 2229 47.2123
29.6113 2141 46.2709
29.7288 2073 45.5302
29.8463 1975 44.441
29.9638 1944 44.0908
30.0812 1874 43.2897
30.1987 1812 42.5676
30.3162 1930 43.9318
30.4337 1966 44.3396
30.5512 1959 44.2606
30.6687 2074 45.5412
30.7862 2039 45.1553
30.9037 2190 46.7974
31.0212 2204 46.9468
31.1387 2131 46.1628
31.2562 2087 45.6837
31.3737 2095 45.7712
31.4912 2080 45.607
31.6087 1962 44.2945
31.7262 1922 43.8406
31.8436 1896 43.5431
31.9611 1890 43.4741
32.0785 1841 42.9069
32.1959 1902 43.6119
32.3134 1965 44.3283
32.4308 2054 45.3211
32.5482 2214 47.0532
32.6655 2179 46.6798
32.7829 2226 47.1805
32.9002 2199 46.8935
33.0176 2106 45.8912
33.1349 2163 46.5081
33.2522 2212 47.0319
33.3694 2001 44.7325
33.4867 1974 44.4297
33.6039 1791 42.3202
33.7211 1780 42.19
33.8383 1733 41.6293
33.9554 1829 42.7668
34.0725 1829 42.7668
34.1896 1962 44.2945
34.3067 1938 44.0227
34.4237 2008 44.8107
34.5407 2012 44.8553
34.6577 2044 45.2106
34.7746 1994 44.6542
34.8915 2027 45.0222
35.0084 1993 44.643
35.1252 1873 43.2782
35.242 1882 43.382
35.3587 1901 43.6005
35.4755 1807 42.5088
35.5921 1818 42.638
35.7088 1770 42.0714
35.8254 1768 42.0476
35.9419 1799 42.4146
36.0584 1860 43.1277
36.1749 1938 44.0227
36.2913 1925 43.8748
36.4077 1832 42.8019
36.524 1838 42.8719
36.6403 1840 42.8952
36.7565 1755 41.8927
36.8727 1640 40.4969
36.9889 1469 38.3275
37.1049 1381 37.1618
37.221 0 1
37.3369 0 1
37.4529 0 1
37.5687 0 1
37.6845 0 1
37.8003 0 1
37.916 0 1
38.0316 0 1
38.1472 0 1
40.5851 0 1
40.7008 0 1
40.8164 0 1
40.9322 0 1
41.048 0 1
41.1639 0 1
41.2798 0 1
41.3958 0 1
41.5118 0 1
41.6279 0 1
41.744 1024 32
41.8602 1080 32.8634
41.9765 1222 34.9571
42.0928 1182 34.3802
42.2091 1188 34.4674
42.3255 1250 35.3553
42.4419 1178 34.322
42.5584 1212 34.8138
42.675 1280 35.7771
42.7915 1406 37.4967
42.9081 1560 39.4968
43.0248 1531 39.128
43.1415 1620 40.2492
43.2582 1572 39.6485
43.375 1764 42
43.4918 1686 41.0609
43.6087 1712 41.3763
43.7256 1680 40.9878
43.8425 1605 40.0625
43.9595 1623 40.2865
44.0765 1633 40.4104
44.1935 1492 38.6264
44.3106 1518 38.9615
44.4277 1484 38.5227
44.5448 1329 36.4555
44.6619 1496 38.6782
44.7791 1448 38.0526
44.8963 1570 39.6232
45.0136 1705 41.2916
45.1308 1693 41.1461
45.2481 1740 41.7133
45.3654 1832 42.8019
45.4827 1703 41.2674
45.6001 1688 41.0853
45.7174 1709 41.3401
45.8348 1562 39.5221
45.9522 1458 38.1838
46.0697 1410 37.55
46.1871 1360 36.8782
46.3046 1457 38.1707
46.422 1421 37.6962
46.5395 1570 39.6232
46.657 1647 40.5832
46.7745 1696 41.1825
46.892 1678 40.9634
47.0096 1668 40.8412
47.1271 1673 40.9023
47.2446 1851 43.0232
47.3622 1730 41.5933
47.4797 1726 41.5452
47.5973 1676 40.939
47.7149 1578 39.724
47.8324 1574 39.6737
47.95 1542 39.2683
48.0675 1494 38.6523
48.1851 1450 38.0789
48.3027 1468 38.3145
48.4202 1592 39.8999
48.5378 1708 41.328
48.6554 1765 42.0119
48.7729 1750 41.833
48.8904 1738 41.6893
49.008 1736 41.6653
49.1255 1720 41.4729
49.243 1643 40.5339
49.3605 1542 39.2683
49.478 1514 38.9102
49.5955 1312 36.2215
49.713 1341 36.6197
49.8304 1350 36.7423
49.9479 1449 38.0657
50.0653 1574 39.6737
50.1827 1614 40.1746
50.3001 1708 41.328
50.4175 1698 41.2068
50.5348 1684 41.0366
50.6521 1784 42.2374
50.7694 1782 42.2137
50.8867 1741 41.7253
51.004 1729 41.5812
51.1212 1677 40.9512
51.2384 1719 41.4608
51.3556 1613 40.1622
51.4727 1520 38.9872
51.5899 1521 39
51.707 1541 39.2556
51.824 1616 40.1995
51.9411 1708 41.328
52.0581 1887 43.4396
52.175 1969 44.3734
52.2919 2068 45.4753
52.4088 2095 45.7712
52.5257 2084 45.6508
52.6425 2200 46.9042
52.7593 2254 47.4763
52.876 2033 45.0888
52.9927 1983 44.5309
53.1094 1892 43.4971
53.226 1820 42.6615
53.3426 1735 41.6533
53.4591 1764 42
53.5756 1719 41.4608
53.692 1781 42.2019
53.8084 1781 42.2019
53.9248 1662 40.7676
54.0411 1602 40.025
54.1573 1617 40.2119
54.2735 0 1
54.3896 0 1
54.5057 0 1
54.6217 0 1
54.7377 0 1
54.8537 0 1
54.9695 0 1
55.0853 0 1
55.2011 0 1
55.3168 0 1
55.4324 0 1
57.824 0 1
57.9396 0 1
58.0553 0 1
58.1711 0 1
58.2869 0 1
58.4028 0 1
58.5187 0 1
58.6347 0 1
58.7508 0 1
58.8669 0 1
58.983 1460 38.2099
59.0992 1634 40.4228
59.2155 1699 41.2189
59.3318 1777 42.1545
59.4482 1897 43.5546
59.5646 1978 44.4747
59.681 2030 45.0555
59.7975 1953 44.1928
59.9141 1984 44.5421
60.0306 1986 44.5646
60.1473 1905 43.6463
60.2639 1882 43.382
60.3807 1819 42.6497
60.4974 1899 43.5775
60.6142 1940 44.0454
60.731 2011 44.8442
60.8479 2195 46.8508
60.9648 2144 46.3033
61.0818 2148 46.3465
61.1987 2205 46.9574
61.3158 2206 46.9681
61.4328 2079 45.5961
61.5499 1952 44.1814
61.667 1795 42.3674
61.7841 1721 41.4849
61.9013 1614 40.1746
62.0185 1638 40.4722
62.1357 1734 41.6413
62.253 1860 43.1277
62.3702 2021 44.9555
62.4875 2048 45.2548
62.6049 2075 45.5522
62.7222 2163 46.5081
62.8396 2165 46.5296
62.9569 2148 46.3465
63.0743 2139 46.2493
63.1918 2130 46.1519
63.3092 2084 45.6508
63.4267 2083 45.6399
63.5441 1969 44.3734
63.6616 1816 42.6146
63.7791 1865 43.1856
63.8966 1820 42.6615
64.0142 1800 42.4264
64.1317 1793 42.3438
64.2492 1972 44.4072
64.3668 2066 45.4533
64.4843 2128 46.1303
64.6019 2138 46.2385
64.7195 2061 45.3982
64.837 2110 45.9347
64.9546 2095 45.7712
65.0722 2017 44.911
65.1898 1824 42.7083
65.3074 1755 41.8927
65.4249 1654 40.6694
65.5425 1562 39.5221
65.6601 1578 39.724
65.7777 1702 41.2553
65.8952 1839 42.8836
66.0128 1906 43.6578
66.1304 1903 43.6234
66.2479 1999 44.7102
66.3655 2056 45.3431
66.483 2033 45.0888
66.6005 2121 46.0543
66.718 2028 45.0333
66.8355 2080 45.607
66.953 2021 44.9555
67.0705 1931 43.9431
67.1879 1858 43.1045
67.3054 1832 42.8019
67.4228 1694 41.1582
67.5402 1647 40.5832
67.6576 1604 40.05
67.7749 1678 40.9634
67.8923 1876 43.3128
68.0096 1929 43.9204
68.1269 2033 45.0888
68.2442 2066 45.4533
68.3614 2085 45.6618
68.4787 2098 45.8039
68.5958 2037 45.1331
68.713 1917 43.7836
68.8302 1823 42.6966
68.9473 1660 40.7431
69.0643 1585 39.8121
69.1814 1493 38.6394
69.2984 1529 39.1024
69.4154 1630 40.3733
69.5323 1688 41.0853
69.6492 1722 41.497
69.7661 1891 43.4856
69.8829 1940 44.0454
69.9997 1920 43.8178
70.1165 1838 42.8719
70.2332 1848 42.9884
70.3499 1681 41
70.4665 1640 40.4969
70.5831 1558 39.4715
70.6996 1518 38.9615
70.8161 1403 37.4566
70.9326 1275 35.7071
71.049 1157 34.0147
71.1653 909 30.1496
71.2817 889 29.8161
71.3979 826 28.7402
71.5141 765 27.6586
71.6303 749 27.3679
71.7464 665 25.7876
71.8624 0 1
71.9784 0 1
72.0944 0 1
72.2102 0 1
72.3261 0 1
72.4418 0 1
72.5575 0 1
72.6732 0 1
75.1054 0 1
75.2209 0 1
75.3365 0 1
75.4521 0 1
75.5678 0 1
75.6835 0 1
75.7993 0 1
75.9151 0 1
76.031 0 1
76.147 1191 34.5109
76.263 1299 36.0416
76.3791 1294 35.9722
76.4952 1331 36.4829
76.6113 1354 36.7967
76.7276 1363 36.9188
76.8438 1538 39.2173
76.9601 1678 40.9634
77.0765 1711 41.3642
77.1929 1760 41.9524
77.3093 1818 42.638
77.4258 1798 42.4028
77.5423 1719 41.4608
77.6589 1726 41.5452
77.7755 1481 38.4838
77.8921 1398 37.3898
78.0088 1352 36.7696
78.1256 1273 35.6791
78.2423 1220 34.9285
78.3591 1304 36.1109
78.4759 1343 36.647
78.5928 1507 38.8201
78.7097 1626 40.3237
78.8266 1730 41.5933
78.9436 1728 41.5692
79.0606 1711 41.3642
79.1776 1825 42.72
79.2946 1754 41.8808
79.4117 1771 42.0833
79.5288 1630 40.3733
79.6459 1772 42.0951
79.7631 1727 41.5572
79.8802 1657 40.7063
79.9974 1572 39.6485
80.1147 1405 37.4833
80.2319 1418 37.6563
80.3491 1438 37.921
80.4664 1494 38.6523
80.5837 1712 41.3763
80.701 1750 41.833
80.8183 1778 42.1663
80.9357 1843 42.9302
81.053 1810 42.5441
81.1704 1790 42.3084
81.2877 1863 43.1625
81.4051 1782 42.2137
81.5225 1623 40.2865
81.6399 1487 38.5616
81.7573 1325 36.4005
81.8747 1271 35.6511
81.9922 1282 35.805
82.1096 1416 37.6298
82.227 1562 39.5221
82.3444 1599 39.9875
82.4619 1703 41.2674
82.5793 1742 41.7373
82.6967 1847 42.9767
82.8142 1770 42.0714
82.9316 1811 42.5558
83.049 1835 42.8369
83.1664 1897 43.5546
83.2838 1770 42.0714
83.4012 1836 42.8486
83.5186 1739 41.7013
83.636 1725 41.5331
83.7534 1506 38.8072
83.8708 1479 38.4578
83.9881 1457 38.1707
84.1055 1468 38.3145
84.2228 1665 40.8044
84.3401 1757 41.9166
84.4575 1871 43.2551
84.5747 1936 44
84.692 1899 43.5775
84.8093 1980 44.4972
84.9265 1851 43.0232
85.0437 1691 41.1218
85.1609 1511 38.8716
85.2781 1369 37
85.3952 1355 36.8103
85.5123 1301 36.0694
85.6294 1337 36.565
85.7465 1437 37.9078
85.8636 1601 40.0125
85.9806 1631 40.3856
86.0976 1792 42.332
86.2145 1725 41.5331
86.3315 1788 42.2847
86.4484 1874 43.2897
86.5652 1894 43.5201
86.682 1909 43.6921
86.7988 1842 42.9185
86.9156 1795 42.3674
87.0323 1902 43.6119
87.149 1693 41.1461
87.2657 1597 39.9625
87.3823 1468 38.3145
87.4988 1323 36.3731
87.6154 1317 36.2905
87.7318 1310 36.1939
87.8483 1367 36.973
87.9647 1446 38.0263
88.081 1445 38.0132
88.1973 1457 38.1707
88.3136 1450 38.0789
88.4298 1357 36.8375
88.546 1285 35.8469
88.6621 1065 32.6343
88.7781 836 28.9137
88.8942 0 1
89.0101 0 1
89.126 0 1
89.2419 0 1
89.3577 0 1
89.4734 0 1
89.5891 0 1
89.7047 0 1
89.8203 0 1
89.9358 0 1
92.3269 0 1
92.4424 0 1
92.558 0 1
92.6736 0 1
92.7893 0 1
92.905 0 1
93.0208 0 1
93.1366 0 1
93.2525 0 1
93.3685 0 1
93.4845 0 1
93.6005 1451 38.092
93.7167 1510 38.8587
93.8328 1578 39.724
93.949 1607 40.0874
94.0653 1623 40.2865
94.1816 1600 40
94.2979 1521 39
94.4143 1543 39.281
94.5307 1361 36.8917
94.6472 1352 36.7696
94.7637 1397 37.3765
94.8803 1473 38.3797
94.9969 1698 41.2068
95.1135 1776 42.1426
95.2302 1642 40.5216
95.3469 1717 41.4367
95.4637 1857 43.0929
95.5805 1912 43.7264
95.6973 1886 43.4281
95.8142 1832 42.8019
95.9311 1839 42.8836
96.048 1881 43.3705
96.1649 1834 42.8252
96.2819 1850 43.0116
96.3989 1738 41.6893
96.516 1675 40.9268
96.633 1599 39.9875
96.7501 1507 38.8201
96.8673 1572 39.6485
96.9844 1664 40.7922
97.1016 1714 41.4005
97.2188 1840 42.8952
97.336 1901 43.6005
97.4532 2055 45.3321
97.5704 1928 43.909
97.6877 1882 43.382
97.805 1807 42.5088
97.9223 1745 41.7732
98.0396 1595 39.9375
98.1569 1417 37.6431
98.2743 1345 36.6742
98.3916 1233 35.1141
98.509 1477 38.4318
98.6264 1661 40.7554
98.7438 1742 41.7373
98.8612 1800 42.4264
98.9786 1877 43.3244
99.096 1903 43.6234
99.2134 1876 43.3128
99.3308 1953 44.1928
99.4482 2051 45.288
99.5656 1970 44.3847
99.6831 1999 44.7102
99.8005 1892 43.4971
99.9179 1865 43.1856
100.035 1777 42.1545
100.153 1748 41.8091
100.27 1706 41.3038
100.388 1621 40.2616
100.505 1705 41.2916
100.622 1782 42.2137
100.74 1983 44.5309
100.857 2001 44.7325
100.975 2047 45.2438
101.092 1999 44.7102
101.209 2113 45.9674
101.327 2017 44.911
101.444 1881 43.3705
101.561 1736 41.6653
101.679 1607 40.0874
101.796 1488 38.5746
101.913 1390 37.2827
102.03 1454 38.1314
102.148 1675 40.9268
102.265 1741 41.7253
102.382 1937 44.0114
102.499 1919 43.8064
102.616 1947 44.1248
102.733 2139 46.2493
102.851 2023 44.9778
102.968 2041 45.1774
103.085 2175 46.6369
103.202 2128 46.1303
103.319 2036 45.1221
103.436 2002 44.7437
103.552 1942 44.0681
103.669 1857 43.0929
103.786 1764 42
103.903 1706 41.3038
104.02 1716 41.4246
104.137 1884 43.4051
104.253 1974 44.4297
104.37 2073 45.5302
104.487 2101 45.8367
104.603 2159 46.465
104.72 2209 47
104.836 2133 46.1844
104.953 1923 43.852
105.069 1687 41.0731
105.186 1498 38.704
105.302 1390 37.2827
105.418 1261 35.5106
105.535 1320 36.3318
105.651 1313 36.2353
105.767 1331 36.4829
105.883 1339 36.5923
105.999 1315 36.2629
106.115 0 1
106.231 0 1
106.347 0 1
106.463 0 1
106.579 0 1
106.694 0 1
106.81 0 1
106.926 0 1
107.041 0 1
107.157 0 1
109.576 0 1
109.692 0 1
109.807 0 1
109.923 0 1
110.039 0 1
110.155 0 1
110.27 0 1
110.386 0 1
110.502 0 1
110.618 896 29.9333
110.735 1182 34.3802
110.851 1298 36.0278
110.967 1494 38.6523
111.083 1693 41.1461
111.199 1724 41.5211
111.316 1811 42.5558
111.432 1812 42.5676
111.549 1878 43.3359
111.665 1971 44.3959
111.782 1947 44.1248
111.898 2011 44.8442
112.015 1828 42.7551
112.132 1733 41.6293
112.248 1654 40.6694
112.365 1631 40.3856
112.482 1609 40.1123
112.599 1704 41.2795
112.716 1778 42.1663
112.832 1881 43.3705
112.949 1919 43.8064
113.066 1884 43.4051
113.183 1927 43.8976
113.3 1944 44.0908
113.417 1993 44.643
113.534 1852 43.0349
113.652 1691 41.1218
113.769 1493 38.6394
113.886 1391 37.2961
114.003 1336 36.5513
114.12 1435 37.8814
114.238 1561 39.5095
114.355 1721 41.4849
114.472 1690 41.1096
114.589 1918 43.795
114.707 1978 44.4747
114.824 1892 43.4971
114.942 1928 43.909
115.059 1977 44.4635
115.176 1958 44.2493
115.294 1854 43.0581
115.411 1900 43.589
115.529 1952 44.1814
115.646 1795 42.3674
115.764 1772 42.0951
115.881 1641 40.5093
115.999 1543 39.281
116.116 1702 41.2553
116.234 1816 42.6146
116.351 1847 42.9767
116.469 1935 43.9886
116.586 1971 44.3959
116.704 1921 43.8292
116.821 1969 44.3734
116.939 1909 43.6921
117.056 1885 43.4166
117.174 1827 42.7434
117.291 1574 39.6737
117.409 1512 38.8844
117.526 1361 36.8917
117.644 1398 37.3898
117.761 1519 38.9744
117.879 1643 40.5339
117.996 1717 41.4367
118.114 1790 42.3084
118.231 1830 42.7785
118.349 1904 43.6348
118.466 1868 43.2204
118.584 2007 44.7996
118.701 1921 43.8292
118.819 1860 43.1277
118.936 1909 43.6921
119.053 1850 43.0116
119.171 1758 41.9285
119.288 1776 42.1426
119.405 1623 40.2865
119.523 1650 40.6202
119.64 1624 40.2989
119.757 1647 40.5832
119.875 1674 40.9145
119.992 1733 41.6293
120.109 1857 43.0929
120.226 1896 43.5431
120.343 1813 42.5793
120.46 1803 42.4617
120.578 1875 43.3013
120.695 1847 42.9767
120.812 1751 41.845
120.929 1483 38.5097
121.046 1382 37.1753
121.163 1269 35.623
121.279 1208 34.7563
121.396 1327 36.428
121.513 1407 37.51
121.63 1461 38.223
121.747 1469 38.3275
121.863 1542 39.2683
121.98 1496 38.6782
122.097 1508 38.833
122.213 1521 39
122.33 1429 37.8021
122.446 1369 37
122.563 1346 36.6879
122.679 1268 35.609
122.795 1121 33.4813
122.912 1130 33.6155
123.028 951 30.8383
123.144 820 28.6356
123.26 800 28.2843
123.377 0 1
123.493 0 1
123.609 0 1
123.725 0 1
123.84 0 1
123.956 0 1
124.072 0 1
124.188 0 1
124.303 0 1
124.419 0 1
126.852 0 1
126.968 0 1
127.083 0 1
127.199 0 1
127.315 0 1
127.431 0 1
127.547 0 1
127.663 0 1
127.779 0 1
127.895 0 1
128.011 0 1
128.127 0 1
128.243 0 1
128.359 1752 41.8569
128.476 1785 42.2493
128.592 1711 41.3642
128.708 1728 41.5692
128.825 1761 41.9643
128.941 1820 42.6615
129.058 1872 43.2666
129.174 2013 44.8665
129.291 2001 44.7325
129.408 2037 45.1331
129.524 2033 45.0888
129.641 2008 44.8107
129.758 2006 44.7884
129.875 1903 43.6234
129.992 1642 40.5216
130.108 1536 39.1918
130.225 1415 37.6165
130.342 1430 37.8153
130.459 1513 38.8973
130.576 1745 41.7732
130.693 1786 42.2611
130.81 1789 42.2966
130.928 1874 43.2897
131.045 1850 43.0116
131.162 1905 43.6463
131.279 2007 44.7996
131.396 2069 45.4863
131.513 2050 45.2769
131.631 1953 44.1928
131.748 1976 44.4522
131.865 1906 43.6578
131.983 1833 42.8135
132.1 1816 42.6146
132.217 1724 41.5211
132.335 1744 41.7612
132.452 1847 42.9767
132.57 1977 44.4635
132.687 2137 46.2277
132.804 1996 44.6766
132.922 2060 45.3872
133.039 2072 45.5192
133.157 2046 45.2327
133.274 2010 44.833
133.392 2006 44.7884
133.509 1799 42.4146
133.627 1673 40.9023
133.744 1564 39.5474
133.862 1423 37.7227
133.979 1513 38.8973
134.097 1696 41.1825
134.214 1838 42.8719
134.332 1830 42.7785
134.449 1878 43.3359
134.567 1891 43.4856
134.684 2033 45.0888
134.802 1970 44.3847
134.919 2010 44.833
135.037 2013 44.8665
135.154 2022 44.9667
135.272 1886 43.4281
135.389 1902 43.6119
135.507 1820 42.6615
135.624 1841 42.9069
135.742 1815 42.6028
135.859 1805 42.4853
135.977 1875 43.3013
136.094 1905 43.6463
136.211 1961 44.2832
136.329 2027 45.0222
136.446 2055 45.3321
136.564 2110 45.9347
136.681 2001 44.7325
136.798 2065 45.4423
136.915 2061 45.3982
137.033 1997 44.6878
137.15 1805 42.4853
137.267 1694 41.1582
137.384 1594 39.9249
137.502 1518 38.9615
137.619 1561 39.5095
137.736 1617 40.2119
137.853 1721 41.4849
137.97 1885 43.4166
138.087 1917 43.7836
138.204 1884 43.4051
138.321 1931 43.9431
138.438 2008 44.8107
138.555 2054 45.3211
138.672 1954 44.2041
138.788 1882 43.382
138.905 1783 42.2256
139.022 1680 40.9878
139.139 1605 40.0625
139.255 1545 39.3065
139.372 1415 37.6165
139.488 1427 37.7757
139.605 1393 37.3229
139.721 1347 36.7015
139.838 1339 36.5923
139.954 1400 37.4166
140.071 1266 35.5809
140.187 1236 35.1568
140.303 1060 32.5576
140.419 1012 31.8119
140.535 1031 32.1092
140.652 931 30.5123
140.768 0 1
140.884 0 1
141 0 1
141.115 0 1
141.231 0 1
141.347 0 1
141.463 0 1
141.578 0 1
141.694 0 1
144.104 0 1
144.219 0 1
144.335 0 1
144.45 0 1
144.566 0 1
144.682 0 1
144.798 0 1
144.914 0 1
145.03 0 1
145.146 1433 37.855
145.262 1644 40.5463
145.378 1592 39.8999
145.494 1518 38.9615
145.61 1728 41.5692
145.726 1549 39.3573
145.842 1442 37.9737
145.959 1337 36.565
146.075 1258 35.4683
146.192 1276 35.7211
146.308 1295 35.9861
146.425 1236 35.1568
146.541 1329 36.4555
146.658 1319 36.318
146.774 1395 37.3497
146.891 1399 37.4032
147.008 1489 38.5876
147.125 1549 39.3573
147.241 1571 39.6358
147.358 1538 39.2173
147.475 1541 39.2556
147.592 1485 38.5357
147.709 1494 38.6523
147.826 1479 38.4578
147.943 1475 38.4057
148.06 1406 37.4967
148.177 1320 36.3318
148.294 1395 37.3497
148.411 1380 37.1484
148.528 1520 38.9872
148.645 1529 39.1024
148.762 1610 40.1248
148.88 1591 39.8873
148.997 1566 39.5727
149.114 1534 39.1663
149.231 1565 39.5601
149.349 1547 39.3319
149.466 1533 39.1535
149.583 1503 38.7685
149.701 1429 37.8021
149.818 1302 36.0832
149.935 1227 35.0286
150.053 1192 34.5254
150.17 1262 35.5246
150.287 1313 36.2353
150.405 1370 37.0135
150.522 1400 37.4166
150.64 1454 38.1314
150.757 1458 38.1838
150.875 1473 38.3797
150.992 1496 38.6782
151.11 1488 38.5746
151.227 1478 38.4448
151.344 1510 38.8587
151.462 1455 38.1445
151.579 1418 37.6563
151.697 1432 37.8418
151.814 1363 36.9188
151.932 1287 35.8748
152.049 1415 37.6165
152.167 1352 36.7696
152.284 1462 38.2361
152.402 1543 39.281
152.519 1514 38.9102
152.636 1448 38.0526
152.754 1516 38.9358
152.871 1496 38.6782
152.989 1525 39.0512
153.106 1407 37.51
153.223 1299 36.0416
153.341 1275 35.7071
153.458 1203 34.6843
153.575 1141 33.7787
153.693 1251 35.3695
153.81 1221 34.9428
153.927 1253 35.3977
154.044 1259 35.4824
154.162 1308 36.1663
154.279 1341 36.6197
154.396 1406 37.4967
154.513 1436 37.8946
154.63 1449 38.0657
154.747 1404 37.47
154.864 1399 37.4032
154.981 1397 37.3765
155.098 1324 36.3868
155.215 1284 35.8329
155.332 1307 36.1525
155.449 1181 34.3657
155.566 1241 35.2278
155.683 1291 35.9305
155.8 1295 35.9861
155.917 1350 36.7423
156.033 1299 36.0416
156.15 0 1
156.267 0 1
156.383 0 1
156.5 0 1
156.617 0 1
156.733 0 1
156.85 0 1
156.966 0 1
157.082 0 1
157.199 0 1
157.315 0 1
157.431 0 1
157.547 0 1
157.664 0 1
157.78 0 1
157.896 0 1
158.012 0 1
158.128 0 1
158.244 0 1
158.359 0 1
158.475 0 1
158.591 0 1
158.706 0 1
