
6.15755 0 1
6.2731 0 1
6.3887 0 1
6.50437 0 1
6.62009 0 1
6.73587 0 1
6.8517 0 1
6.96759 0 1
7.08353 0 1
7.19952 0 1
7.31557 0 1
7.43166 0 1
7.54781 0 1
7.664 0 1
7.78024 0 1
7.89653 0 1
8.01286 0 1
8.12924 0 1
8.24567 0 1
8.36213 0 1
8.47864 0 1
8.59519 0 1
8.71178 0 1
8.82841 0 1
8.94508 0 1
9.06179 0 1
9.17853 0 1
9.29531 0 1
9.41212 0 1
9.52897 0 1
9.64584 0 1
9.76276 0 1
9.8797 0 1
9.99667 0 1
10.1137 0 1
10.2307 0 1
10.3478 0 1
10.4648 0 1
10.5819 0 1
10.6991 0 1
10.8162 0 1
10.9334 0 1
11.0506 0 1
11.1678 0 1
11.285 0 1
11.4023 0 1
11.5196 0 1
11.6369 0 1
11.7542 0 1
11.8715 0 1
11.9888 0 1
12.1062 0 1
12.2235 0 1
12.3409 0 1
12.4582 0 1
12.5756 0 1
12.693 0 1
12.8104 0 1
12.9278 0 1
13.0452 0 1
13.1626 0 1
13.28 0 1
13.3974 0 1
13.5149 0 1
13.6323 0 1
13.7497 0 1
13.8671 0 1
13.9845 0 1
14.1019 0 1
14.2193 0 1
14.3367 0 1
14.4541 0 1
14.5714 0 1
14.6888 0 1
14.8062 0 1
14.9235 0 1
15.0408 2233 47.2546
15.1581 2284 47.7912
15.2755 2342 48.3942
15.3927 2415 49.1426
15.51 2361 48.5901
15.6273 2353 48.5077
15.7445 2344 48.4149
15.8617 2344 48.4149
15.9789 2169 46.5725
16.0961 2230 47.2229
16.2132 2092 45.7384
16.3304 2164 46.5188
16.4475 2050 45.2769
16.5646 2150 46.3681
16.6816 2245 47.3814
16.7986 2110 45.9347
16.9156 2220 47.1169
17.0326 2090 45.7165
17.1496 2074 45.5412
17.2665 2071 45.5082
17.3833 1991 44.6206
17.5002 2044 45.2106
17.617 2143 46.2925
17.7338 2124 46.0869
17.8505 2116 46
17.9672 2100 45.8258
18.0839 2154 46.4112
18.2005 2192 46.8188
18.3171 2298 47.9375
18.4337 2296 47.9166
18.5502 2361 48.5901
18.6666 2345 48.4252
18.7831 2347 48.4458
18.8994 2246 47.392
19.0158 2217 47.085
19.1321 2133 46.1844
19.2483 2012 44.8553
19.3645 1836 42.8486
19.4806 1758 41.9285
19.5967 1621 40.2616
19.7128 1430 37.8153
19.8288 1364 36.9324
19.9447 1273 35.6791
20.0606 0 1
20.1764 0 1
20.2922 0 1
20.4079 0 1
20.5236 0 1
20.6392 0 1
20.7548 0 1
20.8702 0 1
23.3078 0 1
23.4233 0 1
23.539 0 1
23.6547 0 1
23.7704 0 1
23.8862 0 1
24.0021 0 1
24.118 0 1
24.234 0 1
24.35 0 1
24.4661 947 30.7734
24.5822 1037 32.2025
24.6984 1194 34.5543
24.8146 1268 35.609
24.9309 1249 35.3412
25.0472 1393 37.3229
25.1636 1525 39.0512
25.28 1681 41
25.3965 1836 42.8486
25.513 1957 44.238
25.6296 2125 46.0977
25.7462 2146 46.3249
25.8628 2297 47.927
25.9795 2313 48.0937
26.0962 2288 47.833
26.213 2283 47.7807
26.3298 2301 47.9687
26.4466 2145 46.3141
26.5635 2194 46.8402
26.6804 2173 46.6154
26.7973 2177 46.6583
26.9143 2213 47.0425
27.0313 2234 47.2652
27.1483 2223 47.1487
27.2653 2280 47.7493
27.3824 2277 47.7179
27.4996 2258 47.5184
27.6167 2219 47.1063
27.7339 2182 46.7119
27.8511 2114 45.9783
27.9683 2087 45.6837
28.0855 1927 43.8976
28.2028 1889 43.4626
28.3201 1760 41.9524
28.4374 1742 41.7373
28.5547 1649 40.6079
28.6721 1837 42.8602
28.7894 1880 43.359
28.9068 2022 44.9667
29.0242 1986 44.5646
29.1416 2076 45.5631
29.259 2122 46.0652
29.3764 2083 45.6399
29.4939 2101 45.8367
29.6113 2153 46.4004
29.7288 2162 46.4973
29.8463 2070 45.4973
29.9638 2086 45.6727
30.0812 2014 44.8776
30.1987 2003 44.7549
30.3162 2037 45.1331
30.4337 2058 45.3652
30.5512 2153 46.4004
30.6687 2205 46.9574
30.7862 2170 46.5833
30.9037 2244 47.3709
31.0212 2251 47.4447
31.1387 2232 47.244
31.2562 2185 46.744
31.3737 2009 44.8219
31.4912 2134 46.1952
31.6087 1975 44.441
31.7262 1892 43.4971
31.8436 1774 42.1189
31.9611 1684 41.0366
32.0785 1690 41.1096
32.1959 1739 41.7013
32.3134 1856 43.0813
32.4308 1895 43.5316
32.5482 1989 44.5982
32.6655 1995 44.6654
32.7829 2009 44.8219
32.9002 2049 45.2659
33.0176 1988 44.587
33.1349 2067 45.4643
33.2522 2165 46.5296
33.3694 2035 45.111
33.4867 2068 45.4753
33.6039 2108 45.913
33.7211 2021 44.9555
33.8383 1995 44.6654
33.9554 2063 45.4203
34.0725 2169 46.5725
34.1896 2213 47.0425
34.3067 2145 46.3141
34.4237 2233 47.2546
34.5407 2232 47.244
34.6577 2228 47.2017
34.7746 2170 46.5833
34.8915 2156 46.4327
35.0084 2097 45.793
35.1252 1944 44.0908
35.242 1957 44.238
35.3587 1942 44.0681
35.4755 1807 42.5088
35.5921 1741 41.7253
35.7088 1632 40.398
35.8254 1658 40.7185
35.9419 1603 40.0375
36.0584 1816 42.6146
36.1749 1803 42.4617
36.2913 1908 43.6807
36.4077 1816 42.6146
36.524 1819 42.6497
36.6403 1739 41.7013
36.7565 1738 41.6893
36.8727 1733 41.6293
36.9889 1780 42.19
37.1049 1582 39.7744
37.221 0 1
37.3369 0 1
37.4529 0 1
37.5687 0 1
37.6845 0 1
37.8003 0 1
37.916 0 1
38.0316 0 1
38.1472 0 1
40.5851 0 1
40.7008 0 1
40.8164 0 1
40.9322 0 1
41.048 0 1
41.1639 0 1
41.2798 0 1
41.3958 0 1
41.5118 0 1
41.6279 0 1
41.744 959 30.9677
41.8602 1101 33.1813
41.9765 1144 33.8231
42.0928 1248 35.327
42.2091 1267 35.5949
42.3255 1381 37.1618
42.4419 1384 37.2022
42.5584 1398 37.3898
42.675 1547 39.3319
42.7915 1692 41.1339
42.9081 1787 42.2729
43.0248 1943 44.0795
43.1415 1886 43.4281
43.2582 1977 44.4635
43.375 2057 45.3542
43.4918 1944 44.0908
43.6087 1939 44.0341
43.7256 2086 45.6727
43.8425 1901 43.6005
43.9595 1965 44.3283
44.0765 1849 43
44.1935 1868 43.2204
44.3106 1725 41.5331
44.4277 1700 41.2311
44.5448 1580 39.7492
44.6619 1592 39.8999
44.7791 1550 39.37
44.8963 1701 41.2432
45.0136 1937 44.0114
45.1308 1865 43.1856
45.2481 1913 43.7379
45.3654 1948 44.1362
45.4827 1876 43.3128
45.6001 1955 44.2154
45.7174 1956 44.2267
45.8348 1916 43.7721
45.9522 1796 42.3792
46.0697 1890 43.4741
46.1871 1940 44.0454
46.3046 1945 44.1022
46.422 2009 44.8219
46.5395 2084 45.6508
46.657 2150 46.3681
46.7745 2136 46.2169
46.892 2177 46.6583
47.0096 2257 47.5079
47.1271 2252 47.4552
47.2446 2282 47.7703
47.3622 2202 46.9255
47.4797 2167 46.551
47.5973 2070 45.4973
47.7149 2027 45.0222
47.8324 2041 45.1774
47.95 1862 43.1509
48.0675 1721 41.4849
48.1851 1690 41.1096
48.3027 1779 42.1782
48.4202 1857 43.0929
48.5378 2022 44.9667
48.6554 2052 45.299
48.7729 2017 44.911
48.8904 2135 46.2061
49.008 2225 47.1699
49.1255 2146 46.3249
49.243 2177 46.6583
49.3605 2197 46.8722
49.478 2020 44.9444
49.5955 2081 45.618
49.713 2127 46.1194
49.8304 2211 47.0213
49.9479 2248 47.4131
50.0653 2280 47.7493
50.1827 2416 49.1528
50.3001 2374 48.7237
50.4175 2435 49.3457
50.5348 2390 48.8876
50.6521 2460 49.5984
50.7694 2333 48.3011
50.8867 2436 49.3559
51.004 2383 48.816
51.1212 2351 48.4871
51.2384 2292 47.8748
51.3556 2198 46.8828
51.4727 2017 44.911
51.5899 1839 42.8836
51.707 1890 43.4741
51.824 2018 44.9222
51.9411 2025 45
52.0581 2286 47.8121
52.175 2363 48.6107
52.2919 2280 47.7493
52.4088 2297 47.927
52.5257 2353 48.5077
52.6425 2404 49.0306
52.7593 2479 49.7896
52.876 2326 48.2286
52.9927 2391 48.8979
53.1094 2324 48.2079
53.226 2304 48
53.3426 2339 48.3632
53.4591 2380 48.7852
53.5756 2298 47.9375
53.692 2338 48.3529
53.8084 2369 48.6724
53.9248 2304 48
54.0411 2169 46.5725
54.1573 2047 45.2438
54.2735 0 1
54.3896 0 1
54.5057 0 1
54.6217 0 1
54.7377 0 1
54.8537 0 1
54.9695 0 1
55.0853 0 1
55.2011 0 1
55.3168 0 1
55.4324 0 1
57.824 0 1
57.9396 0 1
58.0553 0 1
58.1711 0 1
58.2869 0 1
58.4028 0 1
58.5187 0 1
58.6347 0 1
58.7508 0 1
58.8669 0 1
58.983 1865 43.1856
59.0992 2187 46.7654
59.2155 2409 49.0816
59.3318 2697 51.9326
59.4482 2870 53.5724
59.5646 3069 55.3986
59.681 3201 56.5774
59.7975 3329 57.6975
59.9141 3317 57.5934
60.0306 3305 57.4891
60.1473 3212 56.6745
60.2639 3078 55.4797
60.3807 2961 54.4151
60.4974 2953 54.3415
60.6142 3179 56.3826
60.731 3495 59.1185
60.8479 3682 60.6795
60.9648 3836 61.9355
61.0818 3834 61.9193
61.1987 3853 62.0725
61.3158 4042 63.5767
61.4328 4021 63.4114
61.5499 4062 63.7338
61.667 3971 63.0159
61.7841 3905 62.49
61.9013 3884 62.3217
62.0185 3956 62.8967
62.1357 3884 62.3217
62.253 4029 63.4744
62.3702 4163 64.5213
62.4875 4223 64.9846
62.6049 4358 66.0151
62.7222 4340 65.8787
62.8396 4488 66.9925
62.9569 4515 67.1937
63.0743 4441 66.6408
63.1918 4532 67.3201
63.3092 4365 66.0681
63.4267 4042 63.5767
63.5441 3968 62.9921
63.6616 3590 59.9166
63.7791 3339 57.7841
63.8966 3171 56.3116
64.0142 3188 56.4624
64.1317 3466 58.8727
64.2492 3714 60.9426
64.3668 3953 62.8729
64.4843 4245 65.1537
64.6019 4159 64.4903
64.7195 4162 64.5136
64.837 4281 65.4294
64.9546 4311 65.6582
65.0722 4335 65.8407
65.1898 4194 64.7611
65.3074 4233 65.0615
65.4249 4200 64.8074
65.5425 4151 64.4283
65.6601 4171 64.5833
65.7777 4248 65.1767
65.8952 4419 66.4756
66.0128 4433 66.5808
66.1304 4387 66.2344
66.2479 4557 67.5056
66.3655 4731 68.7823
66.483 4814 69.383
66.6005 4743 68.8694
66.718 4637 68.0955
66.8355 4546 67.424
66.953 4343 65.9014
67.0705 4324 65.7571
67.1879 3993 63.1902
67.3054 3568 59.7327
67.4228 3105 55.7225
67.5402 3188 56.4624
67.6576 3244 56.9561
67.7749 3578 59.8164
67.8923 3728 61.0574
68.0096 4155 64.4593
68.1269 4221 64.9692
68.2442 4352 65.9697
68.3614 4344 65.909
68.4787 4449 66.7008
68.5958 4362 66.0454
68.713 4238 65.0999
68.8302 4294 65.5286
68.9473 4199 64.7997
69.0643 4152 64.436
69.1814 4067 63.773
69.2984 4210 64.8845
69.4154 4109 64.1015
69.5323 4189 64.7225
69.6492 4250 65.192
69.7661 4274 65.3758
69.8829 4295 65.5362
69.9997 4486 66.9776
70.1165 4438 66.6183
70.2332 4422 66.4981
70.3499 4269 65.3376
70.4665 4055 63.6789
70.5831 3822 61.8223
70.6996 3626 60.2163
70.8161 3242 56.9386
70.9326 2751 52.45
71.049 2302 47.9792
71.1653 1809 42.5323
71.2817 1682 41.0122
71.3979 1681 41
71.5141 1597 39.9625
71.6303 1619 40.2368
71.7464 1491 38.6135
71.8624 0 1
71.9784 0 1
72.0944 0 1
72.2102 0 1
72.3261 0 1
72.4418 0 1
72.5575 0 1
72.6732 0 1
75.1054 0 1
75.2209 0 1
75.3365 0 1
75.4521 0 1
75.5678 0 1
75.6835 0 1
75.7993 0 1
75.9151 0 1
76.031 0 1
76.147 2323 48.1975
76.263 2256 47.4974
76.3791 2232 47.244
76.4952 2167 46.551
76.6113 2371 48.6929
76.7276 2675 51.7204
76.8438 3140 56.0357
76.9601 3399 58.3009
77.0765 3584 59.8665
77.1929 3753 61.2617
77.3093 3806 61.6928
77.4258 3928 62.6738
77.5423 3913 62.554
77.6589 3889 62.3618
77.7755 3859 62.1208
77.8921 3850 62.0484
78.0088 3737 61.131
78.1256 3554 59.6154
78.2423 3679 60.6548
78.3591 3600 60
78.4759 3548 59.5651
78.5928 3813 61.7495
78.7097 3928 62.6738
78.8266 3977 63.0635
78.9436 4237 65.0922
79.0606 4168 64.56
79.1776 4154 64.4515
79.2946 4122 64.2028
79.4117 4168 64.56
79.5288 4051 63.6475
79.6459 3942 62.7853
79.7631 3819 61.7981
79.8802 3409 58.3866
79.9974 3049 55.2178
80.1147 2739 52.3355
80.2319 2725 52.2015
80.3491 2984 54.626
80.4664 3438 58.6345
80.5837 3625 60.208
80.701 3915 62.57
80.8183 3873 62.2334
80.9357 3904 62.482
81.053 3905 62.49
81.1704 3926 62.6578
81.2877 4093 63.9766
81.4051 4086 63.9218
81.5225 4111 64.1171
81.6399 3894 62.4019
81.7573 3831 61.8951
81.8747 3718 60.9754
81.9922 3815 61.7657
82.1096 3911 62.538
82.227 3924 62.6418
82.3444 4011 63.3325
82.4619 4194 64.7611
82.5793 4286 65.4675
82.6967 4375 66.1438
82.8142 4413 66.4304
82.9316 4542 67.3944
83.049 4303 65.5973
83.1664 4081 63.8827
83.2838 4028 63.4665
83.4012 3940 62.7694
83.5186 3672 60.597
83.636 3062 55.3353
83.7534 2819 53.0943
83.8708 2696 51.923
83.9881 2900 53.8516
84.1055 3262 57.1139
84.2228 3559 59.6574
84.3401 3867 62.1852
84.4575 3950 62.849
84.5747 4236 65.0846
84.692 4234 65.0692
84.8093 4258 65.2534
84.9265 4166 64.5446
85.0437 3992 63.1823
85.1609 4040 63.561
85.2781 3977 63.0635
85.3952 3971 63.0159
85.5123 3778 61.4654
85.6294 3833 61.9112
85.7465 3946 62.8172
85.8636 4010 63.3246
85.9806 4208 64.8691
86.0976 4244 65.146
86.2145 4208 64.8691
86.3315 4528 67.2904
86.4484 4432 66.5733
86.5652 4390 66.2571
86.682 4467 66.8356
86.7988 4263 65.2917
86.9156 4112 64.1249
87.0323 3684 60.696
87.149 3265 57.1402
87.2657 2981 54.5985
87.3823 2852 53.4041
87.4988 2750 52.4404
87.6154 3073 55.4346
87.7318 3307 57.5065
87.8483 3540 59.4979
87.9647 3619 60.1581
88.081 3607 60.0583
88.1973 3499 59.1523
88.3136 3348 57.8619
88.4298 3095 55.6327
88.546 2654 51.517
88.6621 2364 48.621
88.7781 1966 44.3396
88.8942 0 1
89.0101 0 1
89.126 0 1
89.2419 0 1
89.3577 0 1
89.4734 0 1
89.5891 0 1
89.7047 0 1
89.8203 0 1
89.9358 0 1
92.3269 0 1
92.4424 0 1
92.558 0 1
92.6736 0 1
92.7893 0 1
92.905 0 1
93.0208 0 1
93.1366 0 1
93.2525 0 1
93.3685 0 1
93.4845 0 1
93.6005 2902 53.8702
93.7167 3116 55.8211
93.8328 3550 59.5819
93.949 3645 60.3738
94.0653 3923 62.6339
94.1816 3939 62.7615
94.2979 4146 64.3894
94.4143 4125 64.2262
94.5307 4098 64.0156
94.6472 4076 63.8436
94.7637 4117 64.1639
94.8803 4278 65.4064
94.9969 4249 65.1844
95.1135 4367 66.0833
95.2302 4457 66.7608
95.3469 4628 68.0294
95.4637 4677 68.3886
95.5805 4771 69.0724
95.6973 4603 67.8454
95.8142 4573 67.624
95.9311 4287 65.4752
96.048 4143 64.3661
96.1649 3919 62.6019
96.2819 3605 60.0417
96.3989 3355 57.9224
96.516 3107 55.7405
96.633 3267 57.1577
96.7501 3518 59.3127
96.8673 3698 60.8112
96.9844 4011 63.3325
97.1016 4259 65.261
97.2188 4446 66.6783
97.336 4468 66.8431
97.4532 4363 66.053
97.5704 4461 66.7907
97.6877 4309 65.643
97.805 4310 65.6506
97.9223 4182 64.6684
98.0396 4099 64.0234
98.1569 4109 64.1015
98.2743 4111 64.1171
98.3916 4142 64.3584
98.509 4228 65.0231
98.6264 4399 66.325
98.7438 4449 66.7008
98.8612 4501 67.0895
98.9786 4655 68.2276
99.096 4816 69.3974
99.2134 4721 68.7095
99.3308 4692 68.4982
99.4482 4610 67.897
99.5656 4415 66.4455
99.6831 4199 64.7997
99.8005 3914 62.562
99.9179 3716 60.959
100.035 3599 59.9917
100.153 3502 59.1777
100.27 3625 60.208
100.388 4003 63.2693
100.505 4261 65.2763
100.622 4308 65.6354
100.74 4467 66.8356
100.857 4363 66.053
100.975 4396 66.3023
101.092 4337 65.8559
101.209 4426 66.5282
101.327 4255 65.2304
101.444 4234 65.0692
101.561 4080 63.8749
101.679 4021 63.4114
101.796 4194 64.7611
101.913 4255 65.2304
102.03 4382 66.1967
102.148 4425 66.5207
102.265 4683 68.4324
102.382 4656 68.2349
102.499 4791 69.217
102.616 4684 68.4398
102.733 4854 69.6707
102.851 4811 69.3614
102.968 4718 68.6877
103.085 4604 67.8528
103.202 4263 65.2917
103.319 3983 63.111
103.436 3840 61.9677
103.552 3629 60.2412
103.669 3472 58.9237
103.786 3627 60.2246
103.903 3860 62.1289
104.02 4102 64.0469
104.137 4229 65.0308
104.253 4271 65.3529
104.37 4392 66.2722
104.487 4338 65.8635
104.603 4454 66.7383
104.72 4208 64.8691
104.836 4032 63.498
104.953 3897 62.426
105.069 3798 61.6279
105.186 3802 61.6604
105.302 3678 60.6465
105.418 3595 59.9583
105.535 3464 58.8558
105.651 3341 57.8014
105.767 3119 55.848
105.883 2809 53
105.999 2484 49.8397
106.115 0 1
106.231 0 1
106.347 0 1
106.463 0 1
106.579 0 1
106.694 0 1
106.81 0 1
106.926 0 1
107.041 0 1
107.157 0 1
109.576 0 1
109.692 0 1
109.807 0 1
109.923 0 1
110.039 0 1
110.155 0 1
110.27 0 1
110.386 0 1
110.502 0 1
110.618 1985 44.5533
110.735 2515 50.1498
110.851 2774 52.6688
110.967 3140 56.0357
111.083 3430 58.5662
111.199 3774 61.4329
111.316 3967 62.9841
111.432 4107 64.0859
111.549 4255 65.2304
111.665 4199 64.7997
111.782 4029 63.4744
111.898 3813 61.7495
112.015 3681 60.6712
112.132 3431 58.5747
112.248 3299 57.4369
112.365 3187 56.4535
112.482 3458 58.8048
112.599 3690 60.7454
112.716 3885 62.3298
112.832 3932 62.7057
112.949 3998 63.2297
113.066 4010 63.3246
113.183 3979 63.0793
113.3 4085 63.914
113.417 3958 62.9126
113.534 3847 62.0242
113.652 3727 61.0492
113.769 3599 59.9917
113.886 3569 59.7411
114.003 3555 59.6238
114.12 3560 59.6657
114.238 3929 62.6817
114.355 3978 63.0714
114.472 4127 64.2417
114.589 4292 65.5134
114.707 4336 65.8483
114.824 4299 65.5668
114.942 4352 65.9697
115.059 4389 66.2495
115.176 4209 64.8768
115.294 4000 63.2456
115.411 3903 62.474
115.529 3694 60.7783
115.646 3601 60.0083
115.764 3237 56.8946
115.881 3071 55.4166
115.999 3382 58.155
116.116 3557 59.6406
116.234 3781 61.4898
116.351 3749 61.2291
116.469 3890 62.3699
116.586 3828 61.8708
116.704 3840 61.9677
116.821 3913 62.554
116.939 3791 61.5711
117.056 3639 60.3241
117.174 3611 60.0916
117.291 3619 60.1581
117.409 3479 58.983
117.526 3526 59.3801
117.644 3637 60.3075
117.761 3746 61.2046
117.879 3757 61.2944
117.996 3939 62.7615
118.114 3991 63.1744
118.231 3916 62.578
118.349 4147 64.3972
118.466 4039 63.5531
118.584 4155 64.4593
118.701 4055 63.6789
118.819 3847 62.0242
118.936 3776 61.4492
119.053 3638 60.3158
119.171 3490 59.0762
119.288 3128 55.9285
119.405 3087 55.5608
119.523 3126 55.9106
119.64 3378 58.1206
119.757 3566 59.716
119.875 3547 59.5567
119.992 3581 59.8415
120.109 3668 60.564
120.226 3647 60.3904
120.343 3651 60.4235
120.46 3552 59.5987
120.578 3533 59.439
120.695 3474 58.9406
120.812 3355 57.9224
120.929 3274 57.2189
121.046 3241 56.9298
121.163 3122 55.8749
121.279 3262 57.1139
121.396 3269 57.1752
121.513 3416 58.4466
121.63 3435 58.6089
121.747 3318 57.6021
121.863 3451 58.7452
121.98 3481 59
122.097 3411 58.4038
122.213 3291 57.3672
122.33 3184 56.4269
122.446 3073 55.4346
122.563 2820 53.1037
122.679 2624 51.225
122.795 2349 48.4665
122.912 1936 44
123.028 1732 41.6173
123.144 1563 39.5348
123.26 1521 39
123.377 0 1
123.493 0 1
123.609 0 1
123.725 0 1
123.84 0 1
123.956 0 1
124.072 0 1
124.188 0 1
124.303 0 1
124.419 0 1
126.852 0 1
126.968 0 1
127.083 0 1
127.199 0 1
127.315 0 1
127.431 0 1
127.547 0 1
127.663 0 1
127.779 0 1
127.895 0 1
128.011 0 1
128.127 0 1
128.243 0 1
128.359 3389 58.2151
128.476 3471 58.9152
128.592 3374 58.0861
128.708 3372 58.0689
128.825 3785 61.5224
128.941 3972 63.0238
129.058 3989 63.1585
129.174 4095 63.9922
129.291 4060 63.7181
129.408 4029 63.4744
129.524 4037 63.5374
129.641 3962 62.9444
129.758 3778 61.4654
129.875 3726 61.041
129.992 3628 60.2329
130.108 3487 59.0508
130.225 3714 60.9426
130.342 3770 61.4003
130.459 3924 62.6418
130.576 4134 64.2962
130.693 4073 63.8201
130.81 4110 64.1093
130.928 4238 65.0999
131.045 4300 65.5744
131.162 4288 65.4828
131.279 4281 65.4294
131.396 4274 65.3758
131.513 4265 65.307
131.631 4080 63.8749
131.748 4027 63.4586
131.865 3792 61.5792
131.983 3595 59.9583
132.1 3532 59.4306
132.217 3718 60.9754
132.335 3897 62.426
132.452 4048 63.6239
132.57 3995 63.206
132.687 4123 64.2106
132.804 4137 64.3195
132.922 3960 62.9285
133.039 4054 63.671
133.157 4068 63.7809
133.274 3841 61.9758
133.392 3810 61.7252
133.509 3631 60.2578
133.627 3553 59.607
133.744 3581 59.8415
133.862 3812 61.7414
133.979 3937 62.7455
134.097 4028 63.4665
134.214 4152 64.436
134.332 4100 64.0312
134.449 4052 63.6553
134.567 4120 64.1872
134.684 4189 64.7225
134.802 4226 65.0077
134.919 4249 65.1844
135.037 4163 64.5213
135.154 4055 63.6789
135.272 3920 62.6099
135.389 3812 61.7414
135.507 3638 60.3158
135.624 3553 59.607
135.742 3672 60.597
135.859 3725 61.0328
135.977 3865 62.1691
136.094 4107 64.0859
136.211 3939 62.7615
136.329 4019 63.3956
136.446 3990 63.1664
136.564 3995 63.206
136.681 3839 61.9597
136.798 3915 62.57
136.915 3757 61.2944
137.033 3660 60.4979
137.15 3524 59.3633
137.267 3535 59.4559
137.384 3496 59.127
137.502 3724 61.0246
137.619 3844 62
137.736 4003 63.2693
137.853 3949 62.8411
137.97 4005 63.2851
138.087 3908 62.514
138.204 4083 63.8984
138.321 3957 62.9047
138.438 3969 63
138.555 4074 63.8279
138.672 3901 62.458
138.788 3796 61.6117
138.905 3544 59.5315
139.022 3341 57.8014
139.139 3205 56.6127
139.255 2939 54.2125
139.372 2913 53.9722
139.488 2969 54.4885
139.605 2983 54.6168
139.721 2958 54.3875
139.838 2678 51.7494
139.954 2563 50.6261
140.071 2369 48.6724
140.187 2183 46.7226
140.303 2092 45.7384
140.419 1896 43.5431
140.535 1719 41.4608
140.652 1574 39.6737
140.768 0 1
140.884 0 1
141 0 1
141.115 0 1
141.231 0 1
141.347 0 1
141.463 0 1
141.578 0 1
141.694 0 1
144.104 0 1
144.219 0 1
144.335 0 1
144.45 0 1
144.566 0 1
144.682 0 1
144.798 0 1
144.914 0 1
145.03 0 1
145.146 2738 52.3259
145.262 2922 54.0555
145.378 2967 54.4702
145.494 2995 54.7266
145.61 2970 54.4977
145.726 2887 53.7308
145.842 2719 52.144
145.959 2801 52.9245
146.075 2728 52.2303
146.192 2778 52.7067
146.308 2861 53.4883
146.425 2914 53.9815
146.541 3025 55
146.658 2947 54.2863
146.774 3023 54.9818
146.891 2992 54.6992
147.008 2997 54.7449
147.125 3038 55.1181
147.241 3099 55.6687
147.358 3151 56.1338
147.475 3154 56.1605
147.592 3025 55
147.709 2994 54.7175
147.826 2836 53.2541
147.943 2795 52.8678
148.06 2726 52.2111
148.177 2786 52.7826
148.294 2936 54.1849
148.411 2968 54.4794
148.528 3037 55.109
148.645 3119 55.848
148.762 3039 55.1271
148.88 3061 55.3263
148.997 3123 55.8838
149.114 2988 54.6626
149.231 2873 53.6004
149.349 2799 52.9056
149.466 2728 52.2303
149.583 2732 52.2685
149.701 2691 51.8748
149.818 2682 51.788
149.935 2693 51.8941
150.053 2824 53.1413
150.17 2856 53.4416
150.287 2955 54.3599
150.405 2939 54.2125
150.522 3004 54.8088
150.64 2948 54.2955
150.757 2881 53.6749
150.875 2965 54.4518
150.992 3063 55.3444
151.11 3059 55.3082
151.227 3085 55.5428
151.344 3009 54.8544
151.462 2873 53.6004
151.579 2710 52.0577
151.697 2662 51.5946
151.814 2620 51.1859
151.932 2802 52.9339
152.049 2903 53.8795
152.167 2912 53.963
152.284 2903 53.8795
152.402 2931 54.1387
152.519 2955 54.3599
152.636 2835 53.2447
152.754 2849 53.376
152.871 2798 52.8961
152.989 2772 52.6498
153.106 2661 51.5849
153.223 2535 50.3488
153.341 2518 50.1797
153.458 2485 49.8498
153.575 2654 51.517
153.693 2717 52.1249
153.81 2812 53.0283
153.927 2794 52.8583
154.044 2701 51.9711
154.162 2808 52.9906
154.279 2884 53.7029
154.396 2866 53.535
154.513 2884 53.7029
154.63 2915 53.9907
154.747 2904 53.8888
154.864 2909 53.9351
154.981 2728 52.2303
155.098 2609 51.0784
155.215 2591 50.9019
155.332 2625 51.2348
155.449 2619 51.1762
155.566 2591 50.9019
155.683 2760 52.5357
155.8 2703 51.9904
155.917 2642 51.4004
156.033 2583 50.8232
156.15 0 1
156.267 0 1
156.383 0 1
156.5 0 1
156.617 0 1
156.733 0 1
156.85 0 1
156.966 0 1
157.082 0 1
157.199 0 1
157.315 0 1
157.431 0 1
157.547 0 1
157.664 0 1
157.78 0 1
157.896 0 1
158.012 0 1
158.128 0 1
158.244 0 1
158.359 0 1
158.475 0 1
158.591 0 1
158.706 0 1
