
6.15755 0 1
6.2731 0 1
6.3887 0 1
6.50437 0 1
6.62009 0 1
6.73587 0 1
6.8517 0 1
6.96759 0 1
7.08353 0 1
7.19952 0 1
7.31557 0 1
7.43166 0 1
7.54781 0 1
7.664 0 1
7.78024 0 1
7.89653 0 1
8.01286 0 1
8.12924 0 1
8.24567 0 1
8.36213 0 1
8.47864 0 1
8.59519 0 1
8.71178 0 1
8.82841 0 1
8.94508 0 1
9.06179 0 1
9.17853 0 1
9.29531 0 1
9.41212 0 1
9.52897 0 1
9.64584 0 1
9.76276 0 1
9.8797 0 1
9.99667 0 1
10.1137 0 1
10.2307 0 1
10.3478 0 1
10.4648 0 1
10.5819 0 1
10.6991 0 1
10.8162 0 1
10.9334 0 1
11.0506 0 1
11.1678 0 1
11.285 0 1
11.4023 0 1
11.5196 0 1
11.6369 0 1
11.7542 0 1
11.8715 0 1
11.9888 0 1
12.1062 0 1
12.2235 0 1
12.3409 0 1
12.4582 0 1
12.5756 0 1
12.693 0 1
12.8104 0 1
12.9278 0 1
13.0452 0 1
13.1626 0 1
13.28 0 1
13.3974 0 1
13.5149 0 1
13.6323 0 1
13.7497 0 1
13.8671 0 1
13.9845 0 1
14.1019 0 1
14.2193 0 1
14.3367 0 1
14.4541 0 1
14.5714 0 1
14.6888 0 1
14.8062 0 1
14.9235 0 1
15.0408 1797 42.391
15.1581 1827 42.7434
15.2755 1775 42.1307
15.3927 1766 42.0238
15.51 1817 42.6263
15.6273 1780 42.19
15.7445 1727 41.5572
15.8617 1823 42.6966
15.9789 1699 41.2189
16.0961 1732 41.6173
16.2132 1774 42.1189
16.3304 1705 41.2916
16.4475 1743 41.7493
16.5646 1731 41.6053
16.6816 1686 41.0609
16.7986 1751 41.845
16.9156 1761 41.9643
17.0326 1693 41.1461
17.1496 1672 40.8901
17.2665 1687 41.0731
17.3833 1714 41.4005
17.5002 1745 41.7732
17.617 1616 40.1995
17.7338 1596 39.95
17.8505 1490 38.6005
17.9672 1551 39.3827
18.0839 1781 42.2019
18.2005 1829 42.7668
18.3171 1903 43.6234
18.4337 1995 44.6654
18.5502 1997 44.6878
18.6666 1932 43.9545
18.7831 1943 44.0795
18.8994 1850 43.0116
19.0158 1875 43.3013
19.1321 1846 42.9651
19.2483 1794 42.3556
19.3645 1789 42.2966
19.4806 1734 41.6413
19.5967 1668 40.8412
19.7128 1623 40.2865
19.8288 1275 35.7071
19.9447 594 24.3721
20.0606 0 1
20.1764 0 1
20.2922 0 1
20.4079 0 1
20.5236 0 1
20.6392 0 1
20.7548 0 1
20.8702 0 1
23.3078 0 1
23.4233 0 1
23.539 0 1
23.6547 0 1
23.7704 0 1
23.8862 0 1
24.0021 0 1
24.118 0 1
24.234 0 1
24.35 0 1
24.4661 1719 41.4608
24.5822 1768 42.0476
24.6984 1766 42.0238
24.8146 1719 41.4608
24.9309 1821 42.6732
25.0472 1819 42.6497
25.1636 1725 41.5331
25.28 1844 42.9418
25.3965 1846 42.9651
25.513 1824 42.7083
25.6296 1855 43.0697
25.7462 1899 43.5775
25.8628 1849 43
25.9795 1961 44.2832
26.0962 1870 43.2435
26.213 1979 44.486
26.3298 1880 43.359
26.4466 1794 42.3556
26.5635 1785 42.2493
26.6804 1538 39.2173
26.7973 1529 39.1024
26.9143 1605 40.0625
27.0313 1721 41.4849
27.1483 1804 42.4735
27.2653 1941 44.0568
27.3824 1935 43.9886
27.4996 1883 43.3935
27.6167 1878 43.3359
27.7339 1931 43.9431
27.8511 1879 43.3474
27.9683 1840 42.8952
28.0855 1871 43.2551
28.2028 1750 41.833
28.3201 1859 43.1161
28.4374 1836 42.8486
28.5547 1733 41.6293
28.6721 1803 42.4617
28.7894 1724 41.5211
28.9068 1710 41.3521
29.0242 1795 42.3674
29.1416 1805 42.4853
29.259 1684 41.0366
29.3764 1778 42.1663
29.4939 1793 42.3438
29.6113 1752 41.8569
29.7288 1870 43.2435
29.8463 1683 41.0244
29.9638 1748 41.8091
30.0812 1502 38.7556
30.1987 1428 37.7889
30.3162 1418 37.6563
30.4337 1513 38.8973
30.5512 1647 40.5832
30.6687 1720 41.4729
30.7862 1831 42.7902
30.9037 1801 42.4382
31.0212 1838 42.8719
31.1387 1773 42.107
31.2562 1820 42.6615
31.3737 1711 41.3642
31.4912 1908 43.6807
31.6087 1755 41.8927
31.7262 1786 42.2611
31.8436 1776 42.1426
31.9611 1728 41.5692
32.0785 1743 41.7493
32.1959 1753 41.8688
32.3134 1777 42.1545
32.4308 1701 41.2432
32.5482 1740 41.7133
32.6655 1712 41.3763
32.7829 1729 41.5812
32.9002 1715 41.4126
33.0176 1793 42.3438
33.1349 1798 42.4028
33.2522 1836 42.8486
33.3694 1754 41.8808
33.4867 1731 41.6053
33.6039 1619 40.2368
33.7211 1677 40.9512
33.8383 1441 37.9605
33.9554 1412 37.5766
34.0725 1433 37.855
34.1896 1599 39.9875
34.3067 1591 39.8873
34.4237 1733 41.6293
34.5407 1727 41.5572
34.6577 1722 41.497
34.7746 1798 42.4028
34.8915 1714 41.4005
35.0084 1717 41.4367
35.1252 1691 41.1218
35.242 1751 41.845
35.3587 1834 42.8252
35.4755 1752 41.8569
35.5921 1709 41.3401
35.7088 1714 41.4005
35.8254 1604 40.05
35.9419 1732 41.6173
36.0584 1676 40.939
36.1749 1650 40.6202
36.2913 1689 41.0974
36.4077 1640 40.4969
36.524 1618 40.2244
36.6403 1571 39.6358
36.7565 1678 40.9634
36.8727 1685 41.0488
36.9889 1702 41.2553
37.1049 1726 41.5452
37.221 0 1
37.3369 0 1
37.4529 0 1
37.5687 0 1
37.6845 0 1
37.8003 0 1
37.916 0 1
38.0316 0 1
38.1472 0 1
40.5851 0 1
40.7008 0 1
40.8164 0 1
40.9322 0 1
41.048 0 1
41.1639 0 1
41.2798 0 1
41.3958 0 1
41.5118 0 1
41.6279 0 1
41.744 1244 35.2704
41.8602 1364 36.9324
41.9765 1358 36.8511
42.0928 1363 36.9188
42.2091 1352 36.7696
42.3255 1373 37.054
42.4419 1265 35.5668
42.5584 1171 34.2199
42.675 1112 33.3467
42.7915 1079 32.8481
42.9081 1091 33.0303
43.0248 1198 34.6121
43.1415 1332 36.4966
43.2582 1340 36.606
43.375 1341 36.6197
43.4918 1398 37.3898
43.6087 1400 37.4166
43.7256 1319 36.318
43.8425 1283 35.819
43.9595 1286 35.8608
44.0765 1232 35.0999
44.1935 1244 35.2704
44.3106 1209 34.7707
44.4277 1228 35.0428
44.5448 1197 34.5977
44.6619 1109 33.3017
44.7791 1125 33.541
44.8963 1049 32.3883
45.0136 1034 32.1559
45.1308 1080 32.8634
45.2481 1021 31.9531
45.3654 1035 32.1714
45.4827 1013 31.8277
45.6001 1022 31.9687
45.7174 1029 32.078
45.8348 1033 32.1403
45.9522 972 31.1769
46.0697 904 30.0666
46.1871 836 28.9137
46.3046 732 27.0555
46.422 748 27.3496
46.5395 840 28.9828
46.657 900 30
46.7745 933 30.545
46.892 945 30.7409
47.0096 974 31.209
47.1271 922 30.3645
47.2446 899 29.9833
47.3622 987 31.4166
47.4797 919 30.315
47.5973 910 30.1662
47.7149 805 28.3725
47.8324 858 29.2916
47.95 830 28.8097
48.0675 819 28.6182
48.1851 782 27.9643
48.3027 739 27.1846
48.4202 746 27.313
48.5378 762 27.6043
48.6554 731 27.037
48.7729 733 27.074
48.8904 739 27.1846
49.008 782 27.9643
49.1255 731 27.037
49.243 800 28.2843
49.3605 748 27.3496
49.478 753 27.4408
49.5955 679 26.0576
49.713 595 24.3926
49.8304 554 23.5372
49.9479 647 25.4362
50.0653 686 26.1916
50.1827 754 27.4591
50.3001 846 29.0861
50.4175 850 29.1548
50.5348 957 30.9354
50.6521 898 29.9666
50.7694 1023 31.9844
50.8867 978 31.273
51.004 959 30.9677
51.1212 1043 32.2955
51.2384 995 31.5436
51.3556 1065 32.6343
51.4727 1043 32.2955
51.5899 1058 32.5269
51.707 1042 32.28
51.824 1118 33.4365
51.9411 1123 33.5112
52.0581 1155 33.9853
52.175 1080 32.8634
52.2919 1204 34.6987
52.4088 1181 34.3657
52.5257 1235 35.1426
52.6425 1216 34.8712
52.7593 1246 35.2987
52.876 1303 36.0971
52.9927 1258 35.4683
53.1094 1317 36.2905
53.226 1089 33
53.3426 988 31.4325
53.4591 1040 32.249
53.5756 948 30.7896
53.692 1247 35.3129
53.8084 1296 36
53.9248 1467 38.3014
54.0411 1484 38.5227
54.1573 1475 38.4057
54.2735 0 1
54.3896 0 1
54.5057 0 1
54.6217 0 1
54.7377 0 1
54.8537 0 1
54.9695 0 1
55.0853 0 1
55.2011 0 1
55.3168 0 1
55.4324 0 1
57.824 0 1
57.9396 0 1
58.0553 0 1
58.1711 0 1
58.2869 0 1
58.4028 0 1
58.5187 0 1
58.6347 0 1
58.7508 0 1
58.8669 0 1
58.983 1498 38.704
59.0992 1593 39.9124
59.2155 1734 41.6413
59.3318 1722 41.497
59.4482 1719 41.4608
59.5646 1823 42.6966
59.681 1728 41.5692
59.7975 1779 42.1782
59.9141 1741 41.7253
60.0306 1676 40.939
60.1473 1592 39.8999
60.2639 1587 39.8372
60.3807 1559 39.4842
60.4974 1519 38.9744
60.6142 1521 39
60.731 1514 38.9102
60.8479 1396 37.3631
60.9648 1521 39
61.0818 1527 39.0768
61.1987 1536 39.1918
61.3158 1485 38.5357
61.4328 1459 38.1969
61.5499 1491 38.6135
61.667 1412 37.5766
61.7841 1286 35.8608
61.9013 1207 34.7419
62.0185 1187 34.4529
62.1357 1216 34.8712
62.253 1396 37.3631
62.3702 1470 38.3406
62.4875 1591 39.8873
62.6049 1592 39.8999
62.7222 1679 40.9756
62.8396 1731 41.6053
62.9569 1753 41.8688
63.0743 1731 41.6053
63.1918 1721 41.4849
63.3092 1680 40.9878
63.4267 1766 42.0238
63.5441 1659 40.7308
63.6616 1606 40.0749
63.7791 1558 39.4715
63.8966 1576 39.6989
64.0142 1584 39.7995
64.1317 1590 39.8748
64.2492 1572 39.6485
64.3668 1544 39.2938
64.4843 1606 40.0749
64.6019 1531 39.128
64.7195 1641 40.5093
64.837 1612 40.1497
64.9546 1535 39.1791
65.0722 1611 40.1373
65.1898 1520 38.9872
65.3074 1389 37.2693
65.4249 1215 34.8569
65.5425 1120 33.4664
65.6601 1206 34.7275
65.7777 1278 35.7491
65.8952 1424 37.7359
66.0128 1492 38.6264
66.1304 1560 39.4968
66.2479 1670 40.8656
66.3655 1718 41.4488
66.483 1705 41.2916
66.6005 1769 42.0595
66.718 1680 40.9878
66.8355 1712 41.3763
66.953 1715 41.4126
67.0705 1591 39.8873
67.1879 1520 38.9872
67.3054 1475 38.4057
67.4228 1479 38.4578
67.5402 1474 38.3927
67.6576 1374 37.0675
67.7749 1416 37.6298
67.8923 1464 38.2623
68.0096 1374 37.0675
68.1269 1430 37.8153
68.2442 1510 38.8587
68.3614 1538 39.2173
68.4787 1503 38.7685
68.5958 1511 38.8716
68.713 1413 37.5899
68.8302 1356 36.8239
68.9473 1273 35.6791
69.0643 1088 32.9848
69.1814 1092 33.0454
69.2984 1158 34.0294
69.4154 1223 34.9714
69.5323 1338 36.5787
69.6492 1422 37.7094
69.7661 1410 37.55
69.8829 1582 39.7744
69.9997 1632 40.398
70.1165 1685 41.0488
70.2332 1664 40.7922
70.3499 1691 41.1218
70.4665 1741 41.7253
70.5831 1733 41.6293
70.6996 1599 39.9875
70.8161 1574 39.6737
70.9326 1470 38.3406
71.049 1481 38.4838
71.1653 1440 37.9473
71.2817 1364 36.9324
71.3979 1393 37.3229
71.5141 1348 36.7151
71.6303 1319 36.318
71.7464 1365 36.9459
71.8624 0 1
71.9784 0 1
72.0944 0 1
72.2102 0 1
72.3261 0 1
72.4418 0 1
72.5575 0 1
72.6732 0 1
75.1054 0 1
75.2209 0 1
75.3365 0 1
75.4521 0 1
75.5678 0 1
75.6835 0 1
75.7993 0 1
75.9151 0 1
76.031 0 1
76.147 1412 37.5766
76.263 1500 38.7298
76.3791 1544 39.2938
76.4952 1376 37.0945
76.6113 1404 37.47
76.7276 1452 38.1051
76.8438 1439 37.9342
76.9601 1449 38.0657
77.0765 1463 38.2492
77.1929 1572 39.6485
77.3093 1607 40.0874
77.4258 1564 39.5474
77.5423 1608 40.0999
77.6589 1559 39.4842
77.7755 1491 38.6135
77.8921 1285 35.8469
78.0088 1153 33.9559
78.1256 1058 32.5269
78.2423 1010 31.7805
78.3591 1045 32.3265
78.4759 1153 33.9559
78.5928 1318 36.3043
78.7097 1462 38.2361
78.8266 1446 38.0263
78.9436 1650 40.6202
79.0606 1616 40.1995
79.1776 1624 40.2989
79.2946 1686 41.0609
79.4117 1611 40.1373
79.5288 1570 39.6232
79.6459 1617 40.2119
79.7631 1547 39.3319
79.8802 1417 37.6431
79.9974 1364 36.9324
80.1147 1255 35.426
80.2319 1303 36.0971
80.3491 1273 35.6791
80.4664 1282 35.805
80.5837 1282 35.805
80.701 1327 36.428
80.8183 1316 36.2767
80.9357 1313 36.2353
81.053 1412 37.5766
81.1704 1368 36.9865
81.2877 1355 36.8103
81.4051 1306 36.1386
81.5225 1211 34.7994
81.6399 1087 32.9697
81.7573 1016 31.8748
81.8747 920 30.3315
81.9922 927 30.4467
82.1096 1010 31.7805
82.227 1188 34.4674
82.3444 1249 35.3412
82.4619 1308 36.1663
82.5793 1344 36.6606
82.6967 1400 37.4166
82.8142 1435 37.8814
82.9316 1368 36.9865
83.049 1440 37.9473
83.1664 1431 37.8286
83.2838 1344 36.6606
83.4012 1321 36.3456
83.5186 1211 34.7994
83.636 1204 34.6987
83.7534 1181 34.3657
83.8708 1067 32.665
83.9881 1108 33.2866
84.1055 1074 32.7719
84.2228 1151 33.9264
84.3401 1180 34.3511
84.4575 1232 35.0999
84.5747 1244 35.2704
84.692 1288 35.8887
84.8093 1320 36.3318
84.9265 1246 35.2987
85.0437 1192 34.5254
85.1609 1029 32.078
85.2781 946 30.7571
85.3952 886 29.7658
85.5123 877 29.6142
85.6294 966 31.0805
85.7465 1068 32.6803
85.8636 1175 34.2783
85.9806 1280 35.7771
86.0976 1378 37.1214
86.2145 1440 37.9473
86.3315 1550 39.37
86.4484 1499 38.7169
86.5652 1622 40.2741
86.682 1605 40.0625
86.7988 1493 38.6394
86.9156 1484 38.5227
87.0323 1482 38.4968
87.149 1356 36.8239
87.2657 1386 37.229
87.3823 1333 36.5103
87.4988 1362 36.9053
87.6154 1307 36.1525
87.7318 1350 36.7423
87.8483 1344 36.6606
87.9647 1434 37.8682
88.081 1474 38.3927
88.1973 1629 40.3609
88.3136 1554 39.4208
88.4298 1513 38.8973
88.546 1510 38.8587
88.6621 1345 36.6742
88.7781 1237 35.171
88.8942 0 1
89.0101 0 1
89.126 0 1
89.2419 0 1
89.3577 0 1
89.4734 0 1
89.5891 0 1
89.7047 0 1
89.8203 0 1
89.9358 0 1
92.3269 0 1
92.4424 0 1
92.558 0 1
92.6736 0 1
92.7893 0 1
92.905 0 1
93.0208 0 1
93.1366 0 1
93.2525 0 1
93.3685 0 1
93.4845 0 1
93.6005 1490 38.6005
93.7167 1567 39.5854
93.8328 1514 38.9102
93.949 1480 38.4708
94.0653 1446 38.0263
94.1816 1281 35.7911
94.2979 1208 34.7563
94.4143 1093 33.0606
94.5307 1095 33.0908
94.6472 1125 33.541
94.7637 1146 33.8526
94.8803 1340 36.606
94.9969 1470 38.3406
95.1135 1554 39.4208
95.2302 1628 40.3485
95.3469 1668 40.8412
95.4637 1684 41.0366
95.5805 1769 42.0595
95.6973 1788 42.2847
95.8142 1763 41.9881
95.9311 1735 41.6533
96.048 1647 40.5832
96.1649 1581 39.7618
96.2819 1478 38.4448
96.3989 1590 39.8748
96.516 1466 38.2884
96.633 1475 38.4057
96.7501 1439 37.9342
96.8673 1514 38.9102
96.9844 1539 39.2301
97.1016 1542 39.2683
97.2188 1569 39.6106
97.336 1698 41.2068
97.4532 1591 39.8873
97.5704 1585 39.8121
97.6877 1489 38.5876
97.805 1397 37.3765
97.9223 1217 34.8855
98.0396 1124 33.5261
98.1569 1055 32.4808
98.2743 1069 32.6956
98.3916 1185 34.4238
98.509 1300 36.0555
98.6264 1409 37.5366
98.7438 1542 39.2683
98.8612 1647 40.5832
98.9786 1690 41.1096
99.096 1778 42.1663
99.2134 1777 42.1545
99.3308 1731 41.6053
99.4482 1756 41.9047
99.5656 1696 41.1825
99.6831 1698 41.2068
99.8005 1609 40.1123
99.9179 1628 40.3485
100.035 1435 37.8814
100.153 1535 39.1791
100.27 1501 38.7427
100.388 1519 38.9744
100.505 1461 38.223
100.622 1471 38.3536
100.74 1582 39.7744
100.857 1607 40.0874
100.975 1647 40.5832
101.092 1625 40.3113
101.209 1480 38.4708
101.327 1515 38.923
101.444 1337 36.565
101.561 1288 35.8887
101.679 1163 34.1028
101.796 1047 32.3574
101.913 1186 34.4384
102.03 1329 36.4555
102.148 1468 38.3145
102.265 1585 39.8121
102.382 1668 40.8412
102.499 1736 41.6653
102.616 1731 41.6053
102.733 1879 43.3474
102.851 1807 42.5088
102.968 1812 42.5676
103.085 1878 43.3359
103.202 1819 42.6497
103.319 1715 41.4126
103.436 1667 40.8289
103.552 1619 40.2368
103.669 1509 38.8458
103.786 1580 39.7492
103.903 1473 38.3797
104.02 1578 39.724
104.137 1544 39.2938
104.253 1694 41.1582
104.37 1767 42.0357
104.487 1825 42.72
104.603 1751 41.845
104.72 1677 40.9512
104.836 1545 39.3065
104.953 1470 38.3406
105.069 1306 36.1386
105.186 1254 35.4119
105.302 1281 35.7911
105.418 1269 35.623
105.535 1509 38.8458
105.651 1690 41.1096
105.767 1801 42.4382
105.883 1910 43.7035
105.999 1943 44.0795
106.115 0 1
106.231 0 1
106.347 0 1
106.463 0 1
106.579 0 1
106.694 0 1
106.81 0 1
106.926 0 1
107.041 0 1
107.157 0 1
109.576 0 1
109.692 0 1
109.807 0 1
109.923 0 1
110.039 0 1
110.155 0 1
110.27 0 1
110.386 0 1
110.502 0 1
110.618 1424 37.7359
110.735 1632 40.398
110.851 1762 41.9762
110.967 1905 43.6463
111.083 1809 42.5323
111.199 1901 43.6005
111.316 1831 42.7902
111.432 1904 43.6348
111.549 1973 44.4185
111.665 1925 43.8748
111.782 1853 43.0465
111.898 1633 40.4104
112.015 1751 41.845
112.132 1658 40.7185
112.248 1635 40.4351
112.365 1512 38.8844
112.482 1386 37.229
112.599 1554 39.4208
112.716 1625 40.3113
112.832 1592 39.8999
112.949 1694 41.1582
113.066 1616 40.1995
113.183 1575 39.6863
113.3 1563 39.5348
113.417 1521 39
113.534 1279 35.7631
113.652 1263 35.5387
113.769 1180 34.3511
113.886 1120 33.4664
114.003 1200 34.641
114.12 1385 37.2156
114.238 1534 39.1663
114.355 1655 40.6817
114.472 1652 40.6448
114.589 1781 42.2019
114.707 1819 42.6497
114.824 1810 42.5441
114.942 1764 42
115.059 1831 42.7902
115.176 1789 42.2966
115.294 1825 42.72
115.411 1646 40.5709
115.529 1738 41.6893
115.646 1702 41.2553
115.764 1511 38.8716
115.881 1528 39.0896
115.999 1556 39.4462
116.116 1572 39.6485
116.234 1612 40.1497
116.351 1613 40.1622
116.469 1694 41.1582
116.586 1678 40.9634
116.704 1687 41.0731
116.821 1669 40.8534
116.939 1593 39.9124
117.056 1495 38.6652
117.174 1347 36.7015
117.291 1333 36.5103
117.409 1240 35.2136
117.526 1255 35.426
117.644 1454 38.1314
117.761 1576 39.6989
117.879 1661 40.7554
117.996 1771 42.0833
118.114 1807 42.5088
118.231 1824 42.7083
118.349 1930 43.9318
118.466 1841 42.9069
118.584 1923 43.852
118.701 1920 43.8178
118.819 1821 42.6732
118.936 1777 42.1545
119.053 1827 42.7434
119.171 1643 40.5339
119.288 1652 40.6448
119.405 1599 39.9875
119.523 1638 40.4722
119.64 1571 39.6358
119.757 1631 40.3856
119.875 1602 40.025
119.992 1607 40.0874
120.109 1661 40.7554
120.226 1664 40.7922
120.343 1665 40.8044
120.46 1625 40.3113
120.578 1524 39.0384
120.695 1427 37.7757
120.812 1375 37.081
120.929 1288 35.8887
121.046 1386 37.229
121.163 1318 36.3043
121.279 1397 37.3765
121.396 1451 38.092
121.513 1635 40.4351
121.63 1726 41.5452
121.747 1731 41.6053
121.863 1817 42.6263
121.98 1817 42.6263
122.097 1812 42.5676
122.213 1832 42.8019
122.33 1919 43.8064
122.446 1846 42.9651
122.563 1773 42.107
122.679 1677 40.9512
122.795 1654 40.6694
122.912 1713 41.3884
123.028 1581 39.7618
123.144 1507 38.8201
123.26 1519 38.9744
123.377 0 1
123.493 0 1
123.609 0 1
123.725 0 1
123.84 0 1
123.956 0 1
124.072 0 1
124.188 0 1
124.303 0 1
124.419 0 1
126.852 0 1
126.968 0 1
127.083 0 1
127.199 0 1
127.315 0 1
127.431 0 1
127.547 0 1
127.663 0 1
127.779 0 1
127.895 0 1
128.011 0 1
128.127 0 1
128.243 0 1
128.359 1780 42.19
128.476 1685 41.0488
128.592 1730 41.5933
128.708 1698 41.2068
128.825 1730 41.5933
128.941 1761 41.9643
129.058 1787 42.2729
129.174 1818 42.638
129.291 1770 42.0714
129.408 1768 42.0476
129.524 1653 40.6571
129.641 1536 39.1918
129.758 1518 38.9615
129.875 1549 39.3573
129.992 1447 38.0395
130.108 1464 38.2623
130.225 1511 38.8716
130.342 1719 41.4608
130.459 1779 42.1782
130.576 1923 43.852
130.693 1970 44.3847
130.81 1969 44.3734
130.928 1979 44.486
131.045 1991 44.6206
131.162 1994 44.6542
131.279 1992 44.6318
131.396 2083 45.6399
131.513 1984 44.5421
131.631 1987 44.5758
131.748 1940 44.0454
131.865 1797 42.391
131.983 1737 41.6773
132.1 1670 40.8656
132.217 1813 42.5793
132.335 1813 42.5793
132.452 1906 43.6578
132.57 1835 42.8369
132.687 1914 43.7493
132.804 1875 43.3013
132.922 1872 43.2666
133.039 1772 42.0951
133.157 1743 41.7493
133.274 1624 40.2989
133.392 1560 39.4968
133.509 1557 39.4588
133.627 1422 37.7094
133.744 1636 40.4475
133.862 1588 39.8497
133.979 1733 41.6293
134.097 1856 43.0813
134.214 1840 42.8952
134.332 1944 44.0908
134.449 1990 44.6094
134.567 2003 44.7549
134.684 2010 44.833
134.802 2059 45.3762
134.919 2028 45.0333
135.037 2029 45.0444
135.154 1945 44.1022
135.272 1853 43.0465
135.389 1926 43.8862
135.507 1818 42.638
135.624 1649 40.6079
135.742 1724 41.5211
135.859 1782 42.2137
135.977 1821 42.6732
136.094 1878 43.3359
136.211 1889 43.4626
136.329 1874 43.2897
136.446 1874 43.2897
136.564 1820 42.6615
136.681 1748 41.8091
136.798 1655 40.6817
136.915 1589 39.8623
137.033 1511 38.8716
137.15 1496 38.6782
137.267 1535 39.1791
137.384 1584 39.7995
137.502 1650 40.6202
137.619 1754 41.8808
137.736 1830 42.7785
137.853 1795 42.3674
137.97 1867 43.2088
138.087 1841 42.9069
138.204 1966 44.3396
138.321 1990 44.6094
138.438 1928 43.909
138.555 2024 44.9889
138.672 1991 44.6206
138.788 1919 43.8064
138.905 1895 43.5316
139.022 1936 44
139.139 1705 41.2916
139.255 1737 41.6773
139.372 1752 41.8569
139.488 1810 42.5441
139.605 1893 43.5086
139.721 1931 43.9431
139.838 1944 44.0908
139.954 1851 43.0232
140.071 1857 43.0929
140.187 1843 42.9302
140.303 1803 42.4617
140.419 1648 40.5956
140.535 1567 39.5854
140.652 1501 38.7427
140.768 0 1
140.884 0 1
141 0 1
141.115 0 1
141.231 0 1
141.347 0 1
141.463 0 1
141.578 0 1
141.694 0 1
144.104 0 1
144.219 0 1
144.335 0 1
144.45 0 1
144.566 0 1
144.682 0 1
144.798 0 1
144.914 0 1
145.03 0 1
145.146 1315 36.2629
145.262 1430 37.8153
145.378 1443 37.9868
145.494 1330 36.4692
145.61 1276 35.7211
145.726 1228 35.0428
145.842 1319 36.318
145.959 1217 34.8855
146.075 1275 35.7071
146.192 1245 35.2846
146.308 1317 36.2905
146.425 1368 36.9865
146.541 1471 38.3536
146.658 1422 37.7094
146.774 1406 37.4967
146.891 1488 38.5746
147.008 1639 40.4846
147.125 1643 40.5339
147.241 1596 39.95
147.358 1534 39.1663
147.475 1581 39.7618
147.592 1524 39.0384
147.709 1562 39.5221
147.826 1464 38.2623
147.943 1545 39.3065
148.06 1366 36.9594
148.177 1374 37.0675
148.294 1400 37.4166
148.411 1406 37.4967
148.528 1600 40
148.645 1572 39.6485
148.762 1560 39.4968
148.88 1517 38.9487
148.997 1525 39.0512
149.114 1530 39.1152
149.231 1463 38.2492
149.349 1399 37.4032
149.466 1442 37.9737
149.583 1357 36.8375
149.701 1314 36.2491
149.818 1251 35.3695
149.935 1300 36.0555
150.053 1331 36.4829
150.17 1383 37.1887
150.287 1433 37.855
150.405 1484 38.5227
150.522 1480 38.4708
150.64 1537 39.2046
150.757 1667 40.8289
150.875 1662 40.7676
150.992 1632 40.398
151.11 1588 39.8497
151.227 1581 39.7618
151.344 1546 39.3192
151.462 1461 38.223
151.579 1567 39.5854
151.697 1474 38.3927
151.814 1463 38.2492
151.932 1449 38.0657
152.049 1450 38.0789
152.167 1553 39.4081
152.284 1595 39.9375
152.402 1514 38.9102
152.519 1626 40.3237
152.636 1586 39.8246
152.754 1641 40.5093
152.871 1538 39.2173
152.989 1437 37.9078
153.106 1354 36.7967
153.223 1491 38.6135
153.341 1354 36.7967
153.458 1424 37.7359
153.575 1415 37.6165
153.693 1463 38.2492
153.81 1524 39.0384
153.927 1563 39.5348
154.044 1557 39.4588
154.162 1639 40.4846
154.279 1687 41.0731
154.396 1728 41.5692
154.513 1705 41.2916
154.63 1709 41.3401
154.747 1749 41.821
154.864 1810 42.5441
154.981 1668 40.8412
155.098 1690 41.1096
155.215 1662 40.7676
155.332 1550 39.37
155.449 1523 39.0256
155.566 1602 40.025
155.683 1616 40.1995
155.8 1590 39.8748
155.917 1669 40.8534
156.033 1610 40.1248
156.15 0 1
156.267 0 1
156.383 0 1
156.5 0 1
156.617 0 1
156.733 0 1
156.85 0 1
156.966 0 1
157.082 0 1
157.199 0 1
157.315 0 1
157.431 0 1
157.547 0 1
157.664 0 1
157.78 0 1
157.896 0 1
158.012 0 1
158.128 0 1
158.244 0 1
158.359 0 1
158.475 0 1
158.591 0 1
158.706 0 1
