
6.15755 0 1
6.2731 0 1
6.3887 0 1
6.50437 0 1
6.62009 0 1
6.73587 0 1
6.8517 0 1
6.96759 0 1
7.08353 0 1
7.19952 0 1
7.31557 0 1
7.43166 0 1
7.54781 0 1
7.664 0 1
7.78024 0 1
7.89653 0 1
8.01286 0 1
8.12924 0 1
8.24567 0 1
8.36213 0 1
8.47864 0 1
8.59519 0 1
8.71178 0 1
8.82841 0 1
8.94508 0 1
9.06179 0 1
9.17853 0 1
9.29531 0 1
9.41212 0 1
9.52897 0 1
9.64584 0 1
9.76276 0 1
9.8797 0 1
9.99667 0 1
10.1137 0 1
10.2307 0 1
10.3478 0 1
10.4648 0 1
10.5819 0 1
10.6991 0 1
10.8162 0 1
10.9334 0 1
11.0506 0 1
11.1678 0 1
11.285 0 1
11.4023 0 1
11.5196 0 1
11.6369 0 1
11.7542 0 1
11.8715 0 1
11.9888 0 1
12.1062 0 1
12.2235 0 1
12.3409 0 1
12.4582 0 1
12.5756 0 1
12.693 0 1
12.8104 0 1
12.9278 0 1
13.0452 0 1
13.1626 0 1
13.28 0 1
13.3974 0 1
13.5149 0 1
13.6323 0 1
13.7497 0 1
13.8671 0 1
13.9845 0 1
14.1019 0 1
14.2193 0 1
14.3367 0 1
14.4541 0 1
14.5714 0 1
14.6888 0 1
14.8062 0 1
14.9235 0 1
15.0408 802 28.3196
15.1581 807 28.4077
15.2755 885 29.7489
15.3927 866 29.4279
15.51 825 28.7228
15.6273 936 30.5941
15.7445 920 30.3315
15.8617 808 28.4253
15.9789 891 29.8496
16.0961 845 29.0689
16.2132 764 27.6405
16.3304 784 28
16.4475 789 28.0891
16.5646 805 28.3725
16.6816 789 28.0891
16.7986 860 29.3258
16.9156 788 28.0713
17.0326 771 27.7669
17.1496 741 27.2213
17.2665 791 28.1247
17.3833 756 27.4955
17.5002 761 27.5862
17.617 837 28.931
17.7338 758 27.5318
17.8505 851 29.1719
17.9672 773 27.8029
18.0839 734 27.0924
18.2005 752 27.4226
18.3171 699 26.4386
18.4337 781 27.9464
18.5502 810 28.4605
18.6666 851 29.1719
18.7831 777 27.8747
18.8994 784 28
19.0158 730 27.0185
19.1321 746 27.313
19.2483 710 26.6458
19.3645 696 26.3818
19.4806 588 24.2487
19.5967 545 23.3452
19.7128 546 23.3666
19.8288 533 23.0868
19.9447 474 21.7715
20.0606 0 1
20.1764 0 1
20.2922 0 1
20.4079 0 1
20.5236 0 1
20.6392 0 1
20.7548 0 1
20.8702 0 1
23.3078 0 1
23.4233 0 1
23.539 0 1
23.6547 0 1
23.7704 0 1
23.8862 0 1
24.0021 0 1
24.118 0 1
24.234 0 1
24.35 0 1
24.4661 320 17.8885
24.5822 381 19.5192
24.6984 422 20.5426
24.8146 483 21.9773
24.9309 577 24.0208
25.0472 646 25.4165
25.1636 696 26.3818
25.28 738 27.1662
25.3965 820 28.6356
25.513 842 29.0172
25.6296 798 28.2489
25.7462 848 29.1204
25.8628 855 29.2404
25.9795 913 30.2159
26.0962 827 28.7576
26.213 874 29.5635
26.3298 767 27.6948
26.4466 745 27.2947
26.5635 731 27.037
26.6804 714 26.7208
26.7973 673 25.9422
26.9143 683 26.1343
27.0313 643 25.3574
27.1483 693 26.3249
27.2653 706 26.5707
27.3824 756 27.4955
27.4996 775 27.8388
27.6167 731 27.037
27.7339 732 27.0555
27.8511 766 27.6767
27.9683 744 27.2764
28.0855 700 26.4575
28.2028 702 26.4953
28.3201 633 25.1595
28.4374 693 26.3249
28.5547 736 27.1293
28.6721 766 27.6767
28.7894 718 26.7955
28.9068 764 27.6405
29.0242 727 26.9629
29.1416 763 27.6225
29.259 803 28.3373
29.3764 754 27.4591
29.4939 715 26.7395
29.6113 681 26.096
29.7288 709 26.6271
29.8463 709 26.6271
29.9638 657 25.632
30.0812 652 25.5343
30.1987 632 25.1396
30.3162 552 23.4947
30.4337 609 24.6779
30.5512 686 26.1916
30.6687 675 25.9808
30.7862 703 26.5141
30.9037 742 27.2397
31.0212 790 28.1069
31.1387 704 26.533
31.2562 708 26.6083
31.3737 762 27.6043
31.4912 759 27.55
31.6087 700 26.4575
31.7262 659 25.671
31.8436 674 25.9615
31.9611 698 26.4197
32.0785 703 26.5141
32.1959 698 26.4197
32.3134 667 25.8263
32.4308 642 25.3377
32.5482 656 25.6125
32.6655 672 25.923
32.7829 646 25.4165
32.9002 636 25.219
33.0176 660 25.6905
33.1349 651 25.5147
33.2522 629 25.0799
33.3694 610 24.6982
33.4867 646 25.4165
33.6039 563 23.7276
33.7211 628 25.0599
33.8383 660 25.6905
33.9554 555 23.5584
34.0725 565 23.7697
34.1896 595 24.3926
34.3067 689 26.2488
34.4237 678 26.0384
34.5407 697 26.4008
34.6577 688 26.2298
34.7746 720 26.8328
34.8915 622 24.9399
35.0084 609 24.6779
35.1252 649 25.4755
35.242 589 24.2693
35.3587 568 23.8328
35.4755 574 23.9583
35.5921 590 24.2899
35.7088 668 25.8457
35.8254 660 25.6905
35.9419 654 25.5734
36.0584 625 25
36.1749 626 25.02
36.2913 583 24.1454
36.4077 575 23.9792
36.524 497 22.2935
36.6403 543 23.3024
36.7565 526 22.9347
36.8727 526 22.9347
36.9889 463 21.5174
37.1049 457 21.3776
37.221 0 1
37.3369 0 1
37.4529 0 1
37.5687 0 1
37.6845 0 1
37.8003 0 1
37.916 0 1
38.0316 0 1
38.1472 0 1
40.5851 0 1
40.7008 0 1
40.8164 0 1
40.9322 0 1
41.048 0 1
41.1639 0 1
41.2798 0 1
41.3958 0 1
41.5118 0 1
41.6279 0 1
41.744 283 16.8226
41.8602 307 17.5214
41.9765 355 18.8414
42.0928 417 20.4206
42.2091 415 20.3715
42.3255 431 20.7605
42.4419 466 21.587
42.5584 507 22.5167
42.675 474 21.7715
42.7915 454 21.3073
42.9081 472 21.7256
43.0248 477 21.8403
43.1415 482 21.9545
43.2582 490 22.1359
43.375 498 22.3159
43.4918 526 22.9347
43.6087 523 22.8692
43.7256 466 21.587
43.8425 459 21.4243
43.9595 448 21.166
44.0765 477 21.8403
44.1935 451 21.2368
44.3106 504 22.4499
44.4277 447 21.1424
44.5448 491 22.1585
44.6619 510 22.5832
44.7791 461 21.4709
44.8963 507 22.5167
45.0136 467 21.6102
45.1308 462 21.4942
45.2481 493 22.2036
45.3654 480 21.9089
45.4827 537 23.1733
45.6001 506 22.4944
45.7174 512 22.6274
45.8348 487 22.0681
45.9522 501 22.383
46.0697 482 21.9545
46.1871 431 20.7605
46.3046 442 21.0238
46.422 405 20.1246
46.5395 413 20.3224
46.657 412 20.2978
46.7745 447 21.1424
46.892 477 21.8403
47.0096 486 22.0454
47.1271 468 21.6333
47.2446 474 21.7715
47.3622 499 22.3383
47.4797 470 21.6795
47.5973 431 20.7605
47.7149 407 20.1742
47.8324 458 21.4009
47.95 430 20.7364
48.0675 476 21.8174
48.1851 547 23.388
48.3027 505 22.4722
48.4202 495 22.2486
48.5378 444 21.0713
48.6554 510 22.5832
48.7729 449 21.1896
48.8904 498 22.3159
49.008 506 22.4944
49.1255 469 21.6564
49.243 452 21.2603
49.3605 482 21.9545
49.478 471 21.7025
49.5955 468 21.6333
49.713 414 20.347
49.8304 380 19.4936
49.9479 416 20.3961
50.0653 378 19.4422
50.1827 422 20.5426
50.3001 450 21.2132
50.4175 437 20.9045
50.5348 511 22.6053
50.6521 480 21.9089
50.7694 444 21.0713
50.8867 419 20.4695
51.004 438 20.9284
51.1212 388 19.6977
51.2384 421 20.5183
51.3556 434 20.8327
51.4727 464 21.5407
51.5899 485 22.0227
51.707 493 22.2036
51.824 472 21.7256
51.9411 485 22.0227
52.0581 492 22.1811
52.175 449 21.1896
52.2919 398 19.9499
52.4088 465 21.5639
52.5257 472 21.7256
52.6425 467 21.6102
52.7593 435 20.8567
52.876 476 21.8174
52.9927 472 21.7256
53.1094 459 21.4243
53.226 406 20.1494
53.3426 418 20.445
53.4591 378 19.4422
53.5756 376 19.3907
53.692 368 19.1833
53.8084 346 18.6011
53.9248 393 19.8242
54.0411 370 19.2354
54.1573 326 18.0555
54.2735 0 1
54.3896 0 1
54.5057 0 1
54.6217 0 1
54.7377 0 1
54.8537 0 1
54.9695 0 1
55.0853 0 1
55.2011 0 1
55.3168 0 1
55.4324 0 1
57.824 0 1
57.9396 0 1
58.0553 0 1
58.1711 0 1
58.2869 0 1
58.4028 0 1
58.5187 0 1
58.6347 0 1
58.7508 0 1
58.8669 0 1
58.983 1621 40.2616
59.0992 2210 47.0106
59.2155 2802 52.9339
59.3318 3341 57.8014
59.4482 3617 60.1415
59.5646 3712 60.9262
59.681 3750 61.2372
59.7975 3731 61.0819
59.9141 3762 61.3351
60.0306 3698 60.8112
60.1473 3700 60.8276
60.2639 3519 59.3212
60.3807 3476 58.9576
60.4974 3476 58.9576
60.6142 3375 58.0948
60.731 3282 57.2887
60.8479 3053 55.254
60.9648 2945 54.2679
61.0818 2578 50.774
61.1987 2192 46.8188
61.3158 1918 43.795
61.4328 1565 39.5601
61.5499 1365 36.9459
61.667 1176 34.2929
61.7841 992 31.496
61.9013 852 29.189
62.0185 823 28.688
62.1357 755 27.4773
62.253 753 27.4408
62.3702 720 26.8328
62.4875 748 27.3496
62.6049 726 26.9444
62.7222 776 27.8568
62.8396 734 27.0924
62.9569 729 27
63.0743 722 26.8701
63.1918 675 25.9808
63.3092 602 24.5357
63.4267 620 24.8998
63.5441 621 24.9199
63.6616 607 24.6374
63.7791 608 24.6577
63.8966 629 25.0799
64.0142 593 24.3516
64.1317 597 24.4336
64.2492 608 24.6577
64.3668 580 24.0832
64.4843 593 24.3516
64.6019 618 24.8596
64.7195 579 24.0624
64.837 559 23.6432
64.9546 515 22.6936
65.0722 479 21.8861
65.1898 508 22.5389
65.3074 552 23.4947
65.4249 529 23
65.5425 503 22.4277
65.6601 495 22.2486
65.7777 507 22.5167
65.8952 516 22.7156
66.0128 534 23.1084
66.1304 576 24
66.2479 544 23.3238
66.3655 550 23.4521
66.483 564 23.7487
66.6005 552 23.4947
66.718 582 24.1247
66.8355 525 22.9129
66.953 507 22.5167
67.0705 485 22.0227
67.1879 508 22.5389
67.3054 544 23.3238
67.4228 563 23.7276
67.5402 590 24.2899
67.6576 578 24.0416
67.7749 574 23.9583
67.8923 594 24.3721
68.0096 628 25.0599
68.1269 583 24.1454
68.2442 521 22.8254
68.3614 588 24.2487
68.4787 624 24.98
68.5958 613 24.7588
68.713 653 25.5539
68.8302 617 24.8395
68.9473 585 24.1868
69.0643 639 25.2784
69.1814 613 24.7588
69.2984 559 23.6432
69.4154 567 23.8118
69.5323 547 23.388
69.6492 553 23.516
69.7661 544 23.3238
69.8829 480 21.9089
69.9997 539 23.2164
70.1165 508 22.5389
70.2332 503 22.4277
70.3499 537 23.1733
70.4665 454 21.3073
70.5831 431 20.7605
70.6996 407 20.1742
70.8161 370 19.2354
70.9326 374 19.3391
71.049 349 18.6815
71.1653 270 16.4317
71.2817 290 17.0294
71.3979 269 16.4012
71.5141 290 17.0294
71.6303 244 15.6205
71.7464 193 13.8924
71.8624 0 1
71.9784 0 1
72.0944 0 1
72.2102 0 1
72.3261 0 1
72.4418 0 1
72.5575 0 1
72.6732 0 1
75.1054 0 1
75.2209 0 1
75.3365 0 1
75.4521 0 1
75.5678 0 1
75.6835 0 1
75.7993 0 1
75.9151 0 1
76.031 0 1
76.147 320 17.8885
76.263 358 18.9209
76.3791 432 20.7846
76.4952 449 21.1896
76.6113 474 21.7715
76.7276 458 21.4009
76.8438 476 21.8174
76.9601 440 20.9762
77.0765 454 21.3073
77.1929 478 21.8632
77.3093 456 21.3542
77.4258 482 21.9545
77.5423 477 21.8403
77.6589 475 21.7945
77.7755 498 22.3159
77.8921 451 21.2368
78.0088 459 21.4243
78.1256 489 22.1133
78.2423 454 21.3073
78.3591 436 20.8806
78.4759 423 20.567
78.5928 412 20.2978
78.7097 429 20.7123
78.8266 421 20.5183
78.9436 424 20.5913
79.0606 478 21.8632
79.1776 438 20.9284
79.2946 485 22.0227
79.4117 486 22.0454
79.5288 476 21.8174
79.6459 440 20.9762
79.7631 482 21.9545
79.8802 458 21.4009
79.9974 473 21.7486
80.1147 498 22.3159
80.2319 509 22.561
80.3491 510 22.5832
80.4664 494 22.2261
80.5837 548 23.4094
80.701 490 22.1359
80.8183 462 21.4942
80.9357 486 22.0454
81.053 466 21.587
81.1704 493 22.2036
81.2877 497 22.2935
81.4051 493 22.2036
81.5225 489 22.1133
81.6399 492 22.1811
81.7573 482 21.9545
81.8747 467 21.6102
81.9922 423 20.567
82.1096 436 20.8806
82.227 450 21.2132
82.3444 430 20.7364
82.4619 427 20.664
82.5793 459 21.4243
82.6967 473 21.7486
82.8142 472 21.7256
82.9316 461 21.4709
83.049 503 22.4277
83.1664 498 22.3159
83.2838 482 21.9545
83.4012 490 22.1359
83.5186 510 22.5832
83.636 471 21.7025
83.7534 519 22.7816
83.8708 490 22.1359
83.9881 520 22.8035
84.1055 495 22.2486
84.2228 510 22.5832
84.3401 506 22.4944
84.4575 467 21.6102
84.5747 474 21.7715
84.692 487 22.0681
84.8093 461 21.4709
84.9265 454 21.3073
85.0437 494 22.2261
85.1609 450 21.2132
85.2781 517 22.7376
85.3952 477 21.8403
85.5123 495 22.2486
85.6294 452 21.2603
85.7465 426 20.6398
85.8636 485 22.0227
85.9806 445 21.095
86.0976 479 21.8861
86.2145 465 21.5639
86.3315 441 21
86.4484 502 22.4054
86.5652 516 22.7156
86.682 472 21.7256
86.7988 469 21.6564
86.9156 493 22.2036
87.0323 474 21.7715
87.149 472 21.7256
87.2657 463 21.5174
87.3823 459 21.4243
87.4988 472 21.7256
87.6154 461 21.4709
87.7318 442 21.0238
87.8483 437 20.9045
87.9647 386 19.6469
88.081 345 18.5742
88.1973 324 18
88.3136 310 17.6068
88.4298 311 17.6352
88.546 257 16.0312
88.6621 271 16.4621
88.7781 270 16.4317
88.8942 0 1
89.0101 0 1
89.126 0 1
89.2419 0 1
89.3577 0 1
89.4734 0 1
89.5891 0 1
89.7047 0 1
89.8203 0 1
89.9358 0 1
92.3269 0 1
92.4424 0 1
92.558 0 1
92.6736 0 1
92.7893 0 1
92.905 0 1
93.0208 0 1
93.1366 0 1
93.2525 0 1
93.3685 0 1
93.4845 0 1
93.6005 362 19.0263
93.7167 444 21.0713
93.8328 413 20.3224
93.949 424 20.5913
94.0653 448 21.166
94.1816 461 21.4709
94.2979 505 22.4722
94.4143 510 22.5832
94.5307 475 21.7945
94.6472 485 22.0227
94.7637 477 21.8403
94.8803 480 21.9089
94.9969 439 20.9523
95.1135 442 21.0238
95.2302 479 21.8861
95.3469 515 22.6936
95.4637 487 22.0681
95.5805 527 22.9565
95.6973 525 22.9129
95.8142 499 22.3383
95.9311 500 22.3607
96.048 521 22.8254
96.1649 510 22.5832
96.2819 513 22.6495
96.3989 483 21.9773
96.516 512 22.6274
96.633 509 22.561
96.7501 557 23.6008
96.8673 515 22.6936
96.9844 535 23.1301
97.1016 530 23.0217
97.2188 452 21.2603
97.336 488 22.0907
97.4532 499 22.3383
97.5704 509 22.561
97.6877 505 22.4722
97.805 534 23.1084
97.9223 487 22.0681
98.0396 521 22.8254
98.1569 524 22.891
98.2743 463 21.5174
98.3916 467 21.6102
98.509 465 21.5639
98.6264 460 21.4476
98.7438 501 22.383
98.8612 521 22.8254
98.9786 524 22.891
99.096 503 22.4277
99.2134 540 23.2379
99.3308 572 23.9165
99.4482 568 23.8328
99.5656 542 23.2809
99.6831 571 23.8956
99.8005 547 23.388
99.9179 494 22.2261
100.035 522 22.8473
100.153 531 23.0434
100.27 548 23.4094
100.388 556 23.5797
100.505 553 23.516
100.622 518 22.7596
100.74 518 22.7596
100.857 511 22.6053
100.975 511 22.6053
101.092 501 22.383
101.209 470 21.6795
101.327 561 23.6854
101.444 572 23.9165
101.561 526 22.9347
101.679 525 22.9129
101.796 542 23.2809
101.913 534 23.1084
102.03 511 22.6053
102.148 501 22.383
102.265 592 24.3311
102.382 516 22.7156
102.499 544 23.3238
102.616 551 23.4734
102.733 545 23.3452
102.851 577 24.0208
102.968 571 23.8956
103.085 591 24.3105
103.202 587 24.2281
103.319 595 24.3926
103.436 532 23.0651
103.552 511 22.6053
103.669 550 23.4521
103.786 582 24.1247
103.903 586 24.2074
104.02 575 23.9792
104.137 552 23.4947
104.253 559 23.6432
104.37 557 23.6008
104.487 516 22.7156
104.603 568 23.8328
104.72 535 23.1301
104.836 523 22.8692
104.953 507 22.5167
105.069 534 23.1084
105.186 493 22.2036
105.302 465 21.5639
105.418 406 20.1494
105.535 383 19.5704
105.651 325 18.0278
105.767 341 18.4662
105.883 332 18.2209
105.999 289 17
106.115 0 1
106.231 0 1
106.347 0 1
106.463 0 1
106.579 0 1
106.694 0 1
106.81 0 1
106.926 0 1
107.041 0 1
107.157 0 1
109.576 0 1
109.692 0 1
109.807 0 1
109.923 0 1
110.039 0 1
110.155 0 1
110.27 0 1
110.386 0 1
110.502 0 1
110.618 273 16.5227
110.735 306 17.4929
110.851 349 18.6815
110.967 361 19
111.083 420 20.4939
111.199 458 21.4009
111.316 509 22.561
111.432 462 21.4942
111.549 514 22.6716
111.665 530 23.0217
111.782 552 23.4947
111.898 526 22.9347
112.015 578 24.0416
112.132 544 23.3238
112.248 500 22.3607
112.365 501 22.383
112.482 495 22.2486
112.599 525 22.9129
112.716 508 22.5389
112.832 498 22.3159
112.949 495 22.2486
113.066 469 21.6564
113.183 458 21.4009
113.3 492 22.1811
113.417 530 23.0217
113.534 478 21.8632
113.652 518 22.7596
113.769 508 22.5389
113.886 491 22.1585
114.003 464 21.5407
114.12 485 22.0227
114.238 418 20.445
114.355 423 20.567
114.472 450 21.2132
114.589 474 21.7715
114.707 454 21.3073
114.824 463 21.5174
114.942 442 21.0238
115.059 479 21.8861
115.176 527 22.9565
115.294 529 23
115.411 523 22.8692
115.529 482 21.9545
115.646 497 22.2935
115.764 447 21.1424
115.881 467 21.6102
115.999 482 21.9545
116.116 445 21.095
116.234 471 21.7025
116.351 535 23.1301
116.469 473 21.7486
116.586 424 20.5913
116.704 444 21.0713
116.821 461 21.4709
116.939 444 21.0713
117.056 431 20.7605
117.174 484 22
117.291 450 21.2132
117.409 465 21.5639
117.526 443 21.0476
117.644 449 21.1896
117.761 411 20.2731
117.879 394 19.8494
117.996 417 20.4206
118.114 409 20.2237
118.231 456 21.3542
118.349 479 21.8861
118.466 443 21.0476
118.584 446 21.1187
118.701 478 21.8632
118.819 452 21.2603
118.936 468 21.6333
119.053 452 21.2603
119.171 469 21.6564
119.288 467 21.6102
119.405 421 20.5183
119.523 410 20.2485
119.64 420 20.4939
119.757 448 21.166
119.875 454 21.3073
119.992 451 21.2368
120.109 445 21.095
120.226 445 21.095
120.343 421 20.5183
120.46 424 20.5913
120.578 429 20.7123
120.695 432 20.7846
120.812 439 20.9523
120.929 443 21.0476
121.046 433 20.8087
121.163 389 19.7231
121.279 411 20.2731
121.396 408 20.199
121.513 432 20.7846
121.63 346 18.6011
121.747 370 19.2354
121.863 342 18.4932
121.98 350 18.7083
122.097 301 17.3494
122.213 348 18.6548
122.33 345 18.5742
122.446 333 18.2483
122.563 327 18.0831
122.679 331 18.1934
122.795 280 16.7332
122.912 268 16.3707
123.028 244 15.6205
123.144 239 15.4596
123.26 231 15.1987
123.377 0 1
123.493 0 1
123.609 0 1
123.725 0 1
123.84 0 1
123.956 0 1
124.072 0 1
124.188 0 1
124.303 0 1
124.419 0 1
126.852 0 1
126.968 0 1
127.083 0 1
127.199 0 1
127.315 0 1
127.431 0 1
127.547 0 1
127.663 0 1
127.779 0 1
127.895 0 1
128.011 0 1
128.127 0 1
128.243 0 1
128.359 506 22.4944
128.476 467 21.6102
128.592 463 21.5174
128.708 464 21.5407
128.825 493 22.2036
128.941 469 21.6564
129.058 515 22.6936
129.174 500 22.3607
129.291 488 22.0907
129.408 500 22.3607
129.524 460 21.4476
129.641 502 22.4054
129.758 473 21.7486
129.875 499 22.3383
129.992 543 23.3024
130.108 513 22.6495
130.225 518 22.7596
130.342 496 22.2711
130.459 512 22.6274
130.576 534 23.1084
130.693 534 23.1084
130.81 499 22.3383
130.928 528 22.9783
131.045 498 22.3159
131.162 578 24.0416
131.279 593 24.3516
131.396 626 25.02
131.513 656 25.6125
131.631 665 25.7876
131.748 633 25.1595
131.865 698 26.4197
131.983 740 27.2029
132.1 674 25.9615
132.217 763 27.6225
132.335 728 26.9815
132.452 764 27.6405
132.57 824 28.7054
132.687 833 28.8617
132.804 816 28.5657
132.922 811 28.4781
133.039 787 28.0535
133.157 846 29.0861
133.274 847 29.1033
133.392 815 28.5482
133.509 786 28.0357
133.627 805 28.3725
133.744 807 28.4077
133.862 847 29.1033
133.979 834 28.8791
134.097 772 27.7849
134.214 699 26.4386
134.332 684 26.1534
134.449 649 25.4755
134.567 683 26.1343
134.684 748 27.3496
134.802 823 28.688
134.919 850 29.1548
135.037 809 28.4429
135.154 784 28
135.272 779 27.9106
135.389 858 29.2916
135.507 782 27.9643
135.624 817 28.5832
135.742 789 28.0891
135.859 866 29.4279
135.977 807 28.4077
136.094 838 28.9482
136.211 873 29.5466
136.329 845 29.0689
136.446 786 28.0357
136.564 832 28.8444
136.681 889 29.8161
136.798 809 28.4429
136.915 859 29.3087
137.033 780 27.9285
137.15 822 28.6705
137.267 807 28.4077
137.384 758 27.5318
137.502 828 28.775
137.619 817 28.5832
137.736 810 28.4605
137.853 699 26.4386
137.97 702 26.4953
138.087 662 25.7294
138.204 726 26.9444
138.321 770 27.7489
138.438 801 28.3019
138.555 755 27.4773
138.672 807 28.4077
138.788 796 28.2135
138.905 788 28.0713
139.022 776 27.8568
139.139 771 27.7669
139.255 744 27.2764
139.372 721 26.8514
139.488 665 25.7876
139.605 658 25.6515
139.721 637 25.2389
139.838 565 23.7697
139.954 554 23.5372
140.071 472 21.7256
140.187 517 22.7376
140.303 485 22.0227
140.419 473 21.7486
140.535 445 21.095
140.652 437 20.9045
140.768 0 1
140.884 0 1
141 0 1
141.115 0 1
141.231 0 1
141.347 0 1
141.463 0 1
141.578 0 1
141.694 0 1
144.104 0 1
144.219 0 1
144.335 0 1
144.45 0 1
144.566 0 1
144.682 0 1
144.798 0 1
144.914 0 1
145.03 0 1
145.146 1362 36.9053
145.262 1432 37.8418
145.378 1535 39.1791
145.494 1541 39.2556
145.61 1617 40.2119
145.726 1638 40.4722
145.842 1713 41.3884
145.959 1784 42.2374
146.075 1793 42.3438
146.192 1870 43.2435
146.308 1877 43.3244
146.425 1918 43.795
146.541 1971 44.3959
146.658 1996 44.6766
146.774 1914 43.7493
146.891 1899 43.5775
147.008 1884 43.4051
147.125 1935 43.9886
147.241 2205 46.9574
147.358 2258 47.5184
147.475 2120 46.0435
147.592 2242 47.3498
147.709 2339 48.3632
147.826 2574 50.7346
147.943 2586 50.8527
148.06 2636 51.342
148.177 2608 51.0686
148.294 2648 51.4587
148.411 2651 51.4879
148.528 2818 53.0848
148.645 2791 52.8299
148.762 2966 54.461
148.88 2873 53.6004
148.997 3006 54.827
149.114 2926 54.0925
149.231 3000 54.7723
149.349 3002 54.7905
149.466 3053 55.254
149.583 2917 54.0093
149.701 2731 52.259
149.818 2432 49.3153
149.935 2469 49.689
150.053 2539 50.3885
150.17 2904 53.8888
150.287 3243 56.9473
150.405 3307 57.5065
150.522 3122 55.8749
150.64 2968 54.4794
150.757 2881 53.6749
150.875 2951 54.3231
150.992 3267 57.1577
151.11 3125 55.9017
151.227 3054 55.263
151.344 3100 55.6776
151.462 3259 57.0877
151.579 3155 56.1694
151.697 3433 58.5918
151.814 3412 58.4123
151.932 3423 58.5064
152.049 3458 58.8048
152.167 3709 60.9016
152.284 3730 61.0737
152.402 3851 62.0564
152.519 3692 60.7618
152.636 3787 61.5386
152.754 3881 62.2977
152.871 3962 62.9444
152.989 3872 62.2254
153.106 3812 61.7414
153.223 3538 59.4811
153.341 3216 56.7098
153.458 2935 54.1756
153.575 3034 55.0818
153.693 3915 62.57
153.81 4834 69.527
153.927 6008 77.5113
154.044 6320 79.4984
154.162 6561 81
154.279 6659 81.6027
154.396 6752 82.1706
154.513 7120 84.3801
154.63 7418 86.1278
154.747 7657 87.5043
154.864 7824 88.4534
154.981 7976 89.3085
155.098 8132 90.1776
155.215 8316 91.1921
155.332 8392 91.6079
155.449 8727 93.4184
155.566 8675 93.1397
155.683 8911 94.3981
155.8 8645 92.9785
155.917 8161 90.3383
156.033 7902 88.8932
156.15 0 1
156.267 0 1
156.383 0 1
156.5 0 1
156.617 0 1
156.733 0 1
156.85 0 1
156.966 0 1
157.082 0 1
157.199 0 1
157.315 0 1
157.431 0 1
157.547 0 1
157.664 0 1
157.78 0 1
157.896 0 1
158.012 0 1
158.128 0 1
158.244 0 1
158.359 0 1
158.475 0 1
158.591 0 1
158.706 0 1
