
6.15755 0 1
6.2731 0 1
6.3887 0 1
6.50437 0 1
6.62009 0 1
6.73587 0 1
6.8517 0 1
6.96759 0 1
7.08353 0 1
7.19952 0 1
7.31557 0 1
7.43166 0 1
7.54781 0 1
7.664 0 1
7.78024 0 1
7.89653 0 1
8.01286 0 1
8.12924 0 1
8.24567 0 1
8.36213 0 1
8.47864 0 1
8.59519 0 1
8.71178 0 1
8.82841 0 1
8.94508 0 1
9.06179 0 1
9.17853 0 1
9.29531 0 1
9.41212 0 1
9.52897 0 1
9.64584 0 1
9.76276 0 1
9.8797 0 1
9.99667 0 1
10.1137 0 1
10.2307 0 1
10.3478 0 1
10.4648 0 1
10.5819 0 1
10.6991 0 1
10.8162 0 1
10.9334 0 1
11.0506 0 1
11.1678 0 1
11.285 0 1
11.4023 0 1
11.5196 0 1
11.6369 0 1
11.7542 0 1
11.8715 0 1
11.9888 0 1
12.1062 0 1
12.2235 0 1
12.3409 0 1
12.4582 0 1
12.5756 0 1
12.693 0 1
12.8104 0 1
12.9278 0 1
13.0452 0 1
13.1626 0 1
13.28 0 1
13.3974 0 1
13.5149 0 1
13.6323 0 1
13.7497 0 1
13.8671 0 1
13.9845 0 1
14.1019 0 1
14.2193 0 1
14.3367 0 1
14.4541 0 1
14.5714 0 1
14.6888 0 1
14.8062 0 1
14.9235 0 1
15.0408 1044 32.311
15.1581 1161 34.0735
15.2755 1113 33.3617
15.3927 1113 33.3617
15.51 1116 33.4066
15.6273 1129 33.6006
15.7445 1003 31.6702
15.8617 970 31.1448
15.9789 968 31.1127
16.0961 1036 32.187
16.2132 1003 31.6702
16.3304 994 31.5278
16.4475 1025 32.0156
16.5646 963 31.0322
16.6816 892 29.8664
16.7986 910 30.1662
16.9156 892 29.8664
17.0326 892 29.8664
17.1496 869 29.4788
17.2665 934 30.5614
17.3833 937 30.6105
17.5002 931 30.5123
17.617 892 29.8664
17.7338 921 30.348
17.8505 934 30.5614
17.9672 855 29.2404
18.0839 891 29.8496
18.2005 884 29.7321
18.3171 860 29.3258
18.4337 939 30.6431
18.5502 854 29.2233
18.6666 896 29.9333
18.7831 933 30.545
18.8994 847 29.1033
19.0158 887 29.7825
19.1321 814 28.5307
19.2483 808 28.4253
19.3645 715 26.7395
19.4806 766 27.6767
19.5967 710 26.6458
19.7128 749 27.3679
19.8288 739 27.1846
19.9447 609 24.6779
20.0606 0 1
20.1764 0 1
20.2922 0 1
20.4079 0 1
20.5236 0 1
20.6392 0 1
20.7548 0 1
20.8702 0 1
23.3078 0 1
23.4233 0 1
23.539 0 1
23.6547 0 1
23.7704 0 1
23.8862 0 1
24.0021 0 1
24.118 0 1
24.234 0 1
24.35 0 1
24.4661 375 19.3649
24.5822 398 19.9499
24.6984 506 22.4944
24.8146 571 23.8956
24.9309 713 26.7021
25.0472 835 28.8964
25.1636 847 29.1033
25.28 925 30.4138
25.3965 912 30.1993
25.513 975 31.225
25.6296 1009 31.7648
25.7462 985 31.3847
25.8628 1034 32.1559
25.9795 1006 31.7175
26.0962 993 31.5119
26.213 987 31.4166
26.3298 914 30.2324
26.4466 860 29.3258
26.5635 854 29.2233
26.6804 791 28.1247
26.7973 808 28.4253
26.9143 733 27.074
27.0313 749 27.3679
27.1483 811 28.4781
27.2653 814 28.5307
27.3824 843 29.0345
27.4996 881 29.6816
27.6167 879 29.6479
27.7339 864 29.3939
27.8511 865 29.4109
27.9683 883 29.7153
28.0855 807 28.4077
28.2028 818 28.6007
28.3201 814 28.5307
28.4374 876 29.5973
28.5547 929 30.4795
28.6721 899 29.9833
28.7894 878 29.6311
28.9068 877 29.6142
29.0242 860 29.3258
29.1416 937 30.6105
29.259 830 28.8097
29.3764 843 29.0345
29.4939 853 29.2062
29.6113 821 28.6531
29.7288 840 28.9828
29.8463 842 29.0172
29.9638 772 27.7849
30.0812 804 28.3549
30.1987 740 27.2029
30.3162 744 27.2764
30.4337 737 27.1477
30.5512 766 27.6767
30.6687 808 28.4253
30.7862 853 29.2062
30.9037 815 28.5482
31.0212 880 29.6648
31.1387 884 29.7321
31.2562 893 29.8831
31.3737 896 29.9333
31.4912 837 28.931
31.6087 811 28.4781
31.7262 806 28.3901
31.8436 818 28.6007
31.9611 815 28.5482
32.0785 864 29.3939
32.1959 825 28.7228
32.3134 847 29.1033
32.4308 771 27.7669
32.5482 827 28.7576
32.6655 764 27.6405
32.7829 729 27
32.9002 757 27.5136
33.0176 723 26.8887
33.1349 748 27.3496
33.2522 768 27.7128
33.3694 779 27.9106
33.4867 739 27.1846
33.6039 748 27.3496
33.7211 704 26.533
33.8383 684 26.1534
33.9554 675 25.9808
34.0725 700 26.4575
34.1896 712 26.6833
34.3067 724 26.9072
34.4237 757 27.5136
34.5407 793 28.1603
34.6577 801 28.3019
34.7746 808 28.4253
34.8915 765 27.6586
35.0084 785 28.0179
35.1252 786 28.0357
35.242 776 27.8568
35.3587 728 26.9815
35.4755 731 27.037
35.5921 715 26.7395
35.7088 766 27.6767
35.8254 749 27.3679
35.9419 766 27.6767
36.0584 771 27.7669
36.1749 710 26.6458
36.2913 674 25.9615
36.4077 650 25.4951
36.524 657 25.632
36.6403 623 24.96
36.7565 575 23.9792
36.8727 523 22.8692
36.9889 498 22.3159
37.1049 494 22.2261
37.221 0 1
37.3369 0 1
37.4529 0 1
37.5687 0 1
37.6845 0 1
37.8003 0 1
37.916 0 1
38.0316 0 1
38.1472 0 1
40.5851 0 1
40.7008 0 1
40.8164 0 1
40.9322 0 1
41.048 0 1
41.1639 0 1
41.2798 0 1
41.3958 0 1
41.5118 0 1
41.6279 0 1
41.744 331 18.1934
41.8602 405 20.1246
41.9765 479 21.8861
42.0928 506 22.4944
42.2091 559 23.6432
42.3255 541 23.2594
42.4419 536 23.1517
42.5584 552 23.4947
42.675 525 22.9129
42.7915 568 23.8328
42.9081 509 22.561
43.0248 521 22.8254
43.1415 543 23.3024
43.2582 571 23.8956
43.375 516 22.7156
43.4918 584 24.1661
43.6087 586 24.2074
43.7256 614 24.779
43.8425 600 24.4949
43.9595 547 23.388
44.0765 557 23.6008
44.1935 531 23.0434
44.3106 583 24.1454
44.4277 541 23.2594
44.5448 580 24.0832
44.6619 531 23.0434
44.7791 548 23.4094
44.8963 569 23.8537
45.0136 600 24.4949
45.1308 645 25.3969
45.2481 601 24.5153
45.3654 603 24.5561
45.4827 608 24.6577
45.6001 593 24.3516
45.7174 604 24.5764
45.8348 617 24.8395
45.9522 537 23.1733
46.0697 580 24.0832
46.1871 522 22.8473
46.3046 464 21.5407
46.422 472 21.7256
46.5395 468 21.6333
46.657 518 22.7596
46.7745 470 21.6795
46.892 526 22.9347
47.0096 586 24.2074
47.1271 585 24.1868
47.2446 585 24.1868
47.3622 620 24.8998
47.4797 579 24.0624
47.5973 556 23.5797
47.7149 546 23.3666
47.8324 571 23.8956
47.95 575 23.9792
48.0675 560 23.6643
48.1851 620 24.8998
48.3027 567 23.8118
48.4202 588 24.2487
48.5378 550 23.4521
48.6554 564 23.7487
48.7729 572 23.9165
48.8904 588 24.2487
49.008 588 24.2487
49.1255 590 24.2899
49.243 586 24.2074
49.3605 492 22.1811
49.478 591 24.3105
49.5955 465 21.5639
49.713 508 22.5389
49.8304 482 21.9545
49.9479 424 20.5913
50.0653 477 21.8403
50.1827 522 22.8473
50.3001 492 22.1811
50.4175 534 23.1084
50.5348 523 22.8692
50.6521 572 23.9165
50.7694 579 24.0624
50.8867 563 23.7276
51.004 557 23.6008
51.1212 548 23.4094
51.2384 507 22.5167
51.3556 532 23.0651
51.4727 543 23.3024
51.5899 538 23.1948
51.707 581 24.1039
51.824 543 23.3024
51.9411 578 24.0416
52.0581 585 24.1868
52.175 525 22.9129
52.2919 544 23.3238
52.4088 511 22.6053
52.5257 526 22.9347
52.6425 576 24
52.7593 561 23.6854
52.876 540 23.2379
52.9927 492 22.1811
53.1094 488 22.0907
53.226 479 21.8861
53.3426 453 21.2838
53.4591 456 21.3542
53.5756 406 20.1494
53.692 438 20.9284
53.8084 400 20
53.9248 378 19.4422
54.0411 350 18.7083
54.1573 334 18.2757
54.2735 0 1
54.3896 0 1
54.5057 0 1
54.6217 0 1
54.7377 0 1
54.8537 0 1
54.9695 0 1
55.0853 0 1
55.2011 0 1
55.3168 0 1
55.4324 0 1
57.824 0 1
57.9396 0 1
58.0553 0 1
58.1711 0 1
58.2869 0 1
58.4028 0 1
58.5187 0 1
58.6347 0 1
58.7508 0 1
58.8669 0 1
58.983 474 21.7715
59.0992 619 24.8797
59.2155 669 25.865
59.3318 753 27.4408
59.4482 890 29.8329
59.5646 931 30.5123
59.681 1002 31.6544
59.7975 975 31.225
59.9141 984 31.3688
60.0306 995 31.5436
60.1473 1018 31.9061
60.2639 981 31.3209
60.3807 984 31.3688
60.4974 983 31.3528
60.6142 964 31.0483
60.731 943 30.7083
60.8479 944 30.7246
60.9648 928 30.4631
61.0818 893 29.8831
61.1987 872 29.5296
61.3158 781 27.9464
61.4328 814 28.5307
61.5499 767 27.6948
61.667 769 27.7308
61.7841 750 27.3861
61.9013 754 27.4591
62.0185 726 26.9444
62.1357 742 27.2397
62.253 669 25.865
62.3702 719 26.8142
62.4875 685 26.1725
62.6049 656 25.6125
62.7222 673 25.9422
62.8396 710 26.6458
62.9569 696 26.3818
63.0743 687 26.2107
63.1918 691 26.2869
63.3092 631 25.1197
63.4267 633 25.1595
63.5441 629 25.0799
63.6616 608 24.6577
63.7791 605 24.5967
63.8966 632 25.1396
64.0142 614 24.779
64.1317 619 24.8797
64.2492 686 26.1916
64.3668 626 25.02
64.4843 601 24.5153
64.6019 650 25.4951
64.7195 572 23.9165
64.837 623 24.96
64.9546 602 24.5357
65.0722 582 24.1247
65.1898 572 23.9165
65.3074 508 22.5389
65.4249 516 22.7156
65.5425 517 22.7376
65.6601 550 23.4521
65.7777 566 23.7908
65.8952 548 23.4094
66.0128 578 24.0416
66.1304 580 24.0832
66.2479 583 24.1454
66.3655 581 24.1039
66.483 580 24.0832
66.6005 567 23.8118
66.718 632 25.1396
66.8355 647 25.4362
66.953 630 25.0998
67.0705 613 24.7588
67.1879 610 24.6982
67.3054 616 24.8193
67.4228 597 24.4336
67.5402 623 24.96
67.6576 635 25.1992
67.7749 563 23.7276
67.8923 579 24.0624
68.0096 617 24.8395
68.1269 571 23.8956
68.2442 573 23.9374
68.3614 580 24.0832
68.4787 560 23.6643
68.5958 565 23.7697
68.713 546 23.3666
68.8302 512 22.6274
68.9473 555 23.5584
69.0643 499 22.3383
69.1814 564 23.7487
69.2984 547 23.388
69.4154 543 23.3024
69.5323 545 23.3452
69.6492 496 22.2711
69.7661 539 23.2164
69.8829 560 23.6643
69.9997 569 23.8537
70.1165 535 23.1301
70.2332 560 23.6643
70.3499 520 22.8035
70.4665 469 21.6564
70.5831 487 22.0681
70.6996 500 22.3607
70.8161 448 21.166
70.9326 376 19.3907
71.049 392 19.799
71.1653 335 18.303
71.2817 333 18.2483
71.3979 291 17.0587
71.5141 322 17.9444
71.6303 250 15.8114
71.7464 224 14.9666
71.8624 0 1
71.9784 0 1
72.0944 0 1
72.2102 0 1
72.3261 0 1
72.4418 0 1
72.5575 0 1
72.6732 0 1
75.1054 0 1
75.2209 0 1
75.3365 0 1
75.4521 0 1
75.5678 0 1
75.6835 0 1
75.7993 0 1
75.9151 0 1
76.031 0 1
76.147 411 20.2731
76.263 402 20.0499
76.3791 457 21.3776
76.4952 480 21.9089
76.6113 498 22.3159
76.7276 486 22.0454
76.8438 529 23
76.9601 473 21.7486
77.0765 487 22.0681
77.1929 417 20.4206
77.3093 481 21.9317
77.4258 468 21.6333
77.5423 455 21.3307
77.6589 430 20.7364
77.7755 430 20.7364
77.8921 446 21.1187
78.0088 440 20.9762
78.1256 458 21.4009
78.2423 479 21.8861
78.3591 469 21.6564
78.4759 489 22.1133
78.5928 528 22.9783
78.7097 475 21.7945
78.8266 449 21.1896
78.9436 426 20.6398
79.0606 474 21.7715
79.1776 527 22.9565
79.2946 573 23.9374
79.4117 509 22.561
79.5288 498 22.3159
79.6459 550 23.4521
79.7631 525 22.9129
79.8802 523 22.8692
79.9974 493 22.2036
80.1147 528 22.9783
80.2319 483 21.9773
80.3491 568 23.8328
80.4664 522 22.8473
80.5837 488 22.0907
80.701 554 23.5372
80.8183 481 21.9317
80.9357 537 23.1733
81.053 525 22.9129
81.1704 515 22.6936
81.2877 481 21.9317
81.4051 464 21.5407
81.5225 443 21.0476
81.6399 481 21.9317
81.7573 467 21.6102
81.8747 469 21.6564
81.9922 511 22.6053
82.1096 539 23.2164
82.227 470 21.6795
82.3444 476 21.8174
82.4619 480 21.9089
82.5793 511 22.6053
82.6967 503 22.4277
82.8142 515 22.6936
82.9316 554 23.5372
83.049 532 23.0651
83.1664 519 22.7816
83.2838 510 22.5832
83.4012 524 22.891
83.5186 520 22.8035
83.636 509 22.561
83.7534 546 23.3666
83.8708 529 23
83.9881 577 24.0208
84.1055 553 23.516
84.2228 569 23.8537
84.3401 528 22.9783
84.4575 528 22.9783
84.5747 565 23.7697
84.692 546 23.3666
84.8093 499 22.3383
84.9265 502 22.4054
85.0437 471 21.7025
85.1609 434 20.8327
85.2781 477 21.8403
85.3952 504 22.4499
85.5123 477 21.8403
85.6294 573 23.9374
85.7465 529 23
85.8636 515 22.6936
85.9806 509 22.561
86.0976 488 22.0907
86.2145 535 23.1301
86.3315 521 22.8254
86.4484 537 23.1733
86.5652 530 23.0217
86.682 524 22.891
86.7988 530 23.0217
86.9156 510 22.5832
87.0323 537 23.1733
87.149 492 22.1811
87.2657 530 23.0217
87.3823 540 23.2379
87.4988 509 22.561
87.6154 490 22.1359
87.7318 495 22.2486
87.8483 432 20.7846
87.9647 401 20.025
88.081 417 20.4206
88.1973 368 19.1833
88.3136 310 17.6068
88.4298 314 17.72
88.546 281 16.7631
88.6621 260 16.1245
88.7781 263 16.2173
88.8942 0 1
89.0101 0 1
89.126 0 1
89.2419 0 1
89.3577 0 1
89.4734 0 1
89.5891 0 1
89.7047 0 1
89.8203 0 1
89.9358 0 1
92.3269 0 1
92.4424 0 1
92.558 0 1
92.6736 0 1
92.7893 0 1
92.905 0 1
93.0208 0 1
93.1366 0 1
93.2525 0 1
93.3685 0 1
93.4845 0 1
93.6005 431 20.7605
93.7167 462 21.4942
93.8328 429 20.7123
93.949 456 21.3542
94.0653 441 21
94.1816 444 21.0713
94.2979 435 20.8567
94.4143 427 20.664
94.5307 471 21.7025
94.6472 527 22.9565
94.7637 534 23.1084
94.8803 549 23.4307
94.9969 520 22.8035
95.1135 537 23.1733
95.2302 543 23.3024
95.3469 511 22.6053
95.4637 502 22.4054
95.5805 551 23.4734
95.6973 502 22.4054
95.8142 535 23.1301
95.9311 523 22.8692
96.048 519 22.7816
96.1649 502 22.4054
96.2819 494 22.2261
96.3989 542 23.2809
96.516 506 22.4944
96.633 545 23.3452
96.7501 563 23.7276
96.8673 541 23.2594
96.9844 564 23.7487
97.1016 509 22.561
97.2188 552 23.4947
97.336 452 21.2603
97.4532 527 22.9565
97.5704 495 22.2486
97.6877 452 21.2603
97.805 436 20.8806
97.9223 498 22.3159
98.0396 462 21.4942
98.1569 497 22.2935
98.2743 517 22.7376
98.3916 574 23.9583
98.509 511 22.6053
98.6264 580 24.0832
98.7438 625 25
98.8612 628 25.0599
98.9786 607 24.6374
99.096 597 24.4336
99.2134 560 23.6643
99.3308 590 24.2899
99.4482 591 24.3105
99.5656 594 24.3721
99.6831 581 24.1039
99.8005 615 24.7992
99.9179 632 25.1396
100.035 720 26.8328
100.153 904 30.0666
100.27 1111 33.3317
100.388 1551 39.3827
100.505 1988 44.587
100.622 2463 49.6286
100.74 3233 56.8595
100.857 4074 63.8279
100.975 4789 69.2026
101.092 5215 72.215
101.209 5462 73.9053
101.327 5856 76.5245
101.444 6199 78.7337
101.561 7052 83.9762
101.679 7852 88.6115
101.796 9404 96.9742
101.913 11206 105.858
102.03 12118 110.082
102.148 11982 109.462
102.265 12695 112.672
102.382 12391 111.315
102.499 12969 113.882
102.616 13560 116.447
102.733 14398 119.992
102.851 15180 123.207
102.968 15128 122.996
103.085 15004 122.491
103.202 13919 117.979
103.319 13836 117.627
103.436 13744 117.235
103.552 14219 119.243
103.669 14299 119.578
103.786 14364 119.85
103.903 14022 118.415
104.02 13740 117.218
104.137 13270 115.195
104.253 12562 112.08
104.37 11679 108.069
104.487 10804 103.942
104.603 9061 95.1893
104.72 7384 85.9302
104.836 5772 75.9737
104.953 4880 69.857
105.069 4107 64.0859
105.186 3816 61.7738
105.302 4111 64.1171
105.418 4050 63.6396
105.535 4140 64.3428
105.651 3820 61.8061
105.767 3299 57.4369
105.883 2994 54.7175
105.999 2577 50.7642
106.115 0 1
106.231 0 1
106.347 0 1
106.463 0 1
106.579 0 1
106.694 0 1
106.81 0 1
106.926 0 1
107.041 0 1
107.157 0 1
109.576 0 1
109.692 0 1
109.807 0 1
109.923 0 1
110.039 0 1
110.155 0 1
110.27 0 1
110.386 0 1
110.502 0 1
110.618 647 25.4362
110.735 816 28.5657
110.851 870 29.4958
110.967 876 29.5973
111.083 874 29.5635
111.199 877 29.6142
111.316 882 29.6985
111.432 867 29.4449
111.549 868 29.4618
111.665 847 29.1033
111.782 785 28.0179
111.898 739 27.1846
112.015 727 26.9629
112.132 728 26.9815
112.248 702 26.4953
112.365 695 26.3629
112.482 622 24.9399
112.599 640 25.2982
112.716 637 25.2389
112.832 603 24.5561
112.949 616 24.8193
113.066 594 24.3721
113.183 588 24.2487
113.3 574 23.9583
113.417 585 24.1868
113.534 547 23.388
113.652 517 22.7376
113.769 460 21.4476
113.886 495 22.2486
114.003 504 22.4499
114.12 513 22.6495
114.238 520 22.8035
114.355 536 23.1517
114.472 561 23.6854
114.589 546 23.3666
114.707 560 23.6643
114.824 519 22.7816
114.942 518 22.7596
115.059 557 23.6008
115.176 550 23.4521
115.294 551 23.4734
115.411 521 22.8254
115.529 515 22.6936
115.646 527 22.9565
115.764 547 23.388
115.881 530 23.0217
115.999 504 22.4499
116.116 529 23
116.234 514 22.6716
116.351 502 22.4054
116.469 530 23.0217
116.586 507 22.5167
116.704 460 21.4476
116.821 462 21.4942
116.939 467 21.6102
117.056 451 21.2368
117.174 431 20.7605
117.291 425 20.6155
117.409 395 19.8746
117.526 418 20.445
117.644 457 21.3776
117.761 486 22.0454
117.879 472 21.7256
117.996 503 22.4277
118.114 457 21.3776
118.231 508 22.5389
118.349 470 21.6795
118.466 473 21.7486
118.584 506 22.4944
118.701 478 21.8632
118.819 483 21.9773
118.936 472 21.7256
119.053 459 21.4243
119.171 480 21.9089
119.288 495 22.2486
119.405 479 21.8861
119.523 500 22.3607
119.64 508 22.5389
119.757 505 22.4722
119.875 434 20.8327
119.992 477 21.8403
120.109 445 21.095
120.226 424 20.5913
120.343 437 20.9045
120.46 461 21.4709
120.578 432 20.7846
120.695 457 21.3776
120.812 442 21.0238
120.929 379 19.4679
121.046 368 19.1833
121.163 380 19.4936
121.279 372 19.2873
121.396 389 19.7231
121.513 419 20.4695
121.63 438 20.9284
121.747 431 20.7605
121.863 409 20.2237
121.98 414 20.347
122.097 394 19.8494
122.213 358 18.9209
122.33 375 19.3649
122.446 354 18.8149
122.563 367 19.1572
122.679 295 17.1756
122.795 302 17.3781
122.912 294 17.1464
123.028 270 16.4317
123.144 274 16.5529
123.26 268 16.3707
123.377 0 1
123.493 0 1
123.609 0 1
123.725 0 1
123.84 0 1
123.956 0 1
124.072 0 1
124.188 0 1
124.303 0 1
124.419 0 1
126.852 0 1
126.968 0 1
127.083 0 1
127.199 0 1
127.315 0 1
127.431 0 1
127.547 0 1
127.663 0 1
127.779 0 1
127.895 0 1
128.011 0 1
128.127 0 1
128.243 0 1
128.359 453 21.2838
128.476 525 22.9129
128.592 524 22.891
128.708 498 22.3159
128.825 552 23.4947
128.941 584 24.1661
129.058 555 23.5584
129.174 540 23.2379
129.291 532 23.0651
129.408 530 23.0217
129.524 563 23.7276
129.641 553 23.516
129.758 515 22.6936
129.875 539 23.2164
129.992 534 23.1084
130.108 472 21.7256
130.225 511 22.6053
130.342 501 22.383
130.459 477 21.8403
130.576 606 24.6171
130.693 619 24.8797
130.81 626 25.02
130.928 584 24.1661
131.045 625 25
131.162 686 26.1916
131.279 694 26.3439
131.396 721 26.8514
131.513 728 26.9815
131.631 776 27.8568
131.748 786 28.0357
131.865 831 28.8271
131.983 868 29.4618
132.1 904 30.0666
132.217 1001 31.6386
132.335 1014 31.8434
132.452 986 31.4006
132.57 1068 32.6803
132.687 1102 33.1964
132.804 1121 33.4813
132.922 1083 32.909
133.039 1090 33.0151
133.157 1185 34.4238
133.274 1096 33.1059
133.392 1123 33.5112
133.509 1127 33.5708
133.627 1149 33.8969
133.744 1018 31.9061
133.862 1052 32.4345
133.979 1042 32.28
134.097 1111 33.3317
134.214 1209 34.7707
134.332 1215 34.8569
134.449 1217 34.8855
134.567 1048 32.3728
134.684 1089 33
134.802 1143 33.8083
134.919 1151 33.9264
135.037 1163 34.1028
135.154 1091 33.0303
135.272 1178 34.322
135.389 1101 33.1813
135.507 1103 33.2114
135.624 1147 33.8674
135.742 1153 33.9559
135.859 1221 34.9428
135.977 1188 34.4674
136.094 1172 34.2345
136.211 1239 35.1994
136.329 1153 33.9559
136.446 1139 33.7491
136.564 1158 34.0294
136.681 1183 34.3948
136.798 1209 34.7707
136.915 1153 33.9559
137.033 1150 33.9116
137.15 1093 33.0606
137.267 1114 33.3766
137.384 1020 31.9374
137.502 1014 31.8434
137.619 979 31.289
137.736 1055 32.4808
137.853 1082 32.8938
137.97 1135 33.6898
138.087 1080 32.8634
138.204 1004 31.686
138.321 1105 33.2415
138.438 1077 32.8177
138.555 1129 33.6006
138.672 1146 33.8526
138.788 1124 33.5261
138.905 1085 32.9393
139.022 1042 32.28
139.139 943 30.7083
139.255 935 30.5778
139.372 931 30.5123
139.488 917 30.282
139.605 905 30.0832
139.721 912 30.1993
139.838 805 28.3725
139.954 762 27.6043
140.071 773 27.8029
140.187 753 27.4408
140.303 711 26.6646
140.419 733 27.074
140.535 633 25.1595
140.652 618 24.8596
140.768 0 1
140.884 0 1
141 0 1
141.115 0 1
141.231 0 1
141.347 0 1
141.463 0 1
141.578 0 1
141.694 0 1
144.104 0 1
144.219 0 1
144.335 0 1
144.45 0 1
144.566 0 1
144.682 0 1
144.798 0 1
144.914 0 1
145.03 0 1
145.146 5599 74.8265
145.262 8053 89.7385
145.378 10316 101.568
145.494 12018 109.627
145.61 13339 115.495
145.726 14421 120.087
145.842 15865 125.956
145.959 17669 132.925
146.075 19816 140.769
146.192 21869 147.882
146.308 24153 155.412
146.425 27293 165.206
146.541 29912 172.951
146.658 33030 181.742
146.774 35477 188.353
146.891 35896 189.462
147.008 34159 184.822
147.125 30654 175.083
147.241 30101 173.496
147.358 32757 180.989
147.475 36390 190.762
147.592 40318 200.793
147.709 41873 204.629
147.826 42224 205.485
147.943 41820 204.499
148.06 40862 202.144
148.177 39505 198.759
148.294 38104 195.202
148.411 36367 190.701
148.528 34766 186.456
148.645 32422 180.061
148.762 30566 174.831
148.88 28773 169.626
148.997 26992 164.292
149.114 24369 156.106
149.231 23295 152.627
149.349 21203 145.612
149.466 18984 137.782
149.583 17300 131.529
149.701 15516 124.563
149.818 13987 118.267
149.935 12487 111.745
150.053 10903 104.417
150.17 9212 95.9792
150.287 7607 87.2181
150.405 4691 68.4909
150.522 3290 57.3585
150.64 3523 59.3549
150.757 4366 66.0757
150.875 4263 65.2917
150.992 3839 61.9597
151.11 3571 59.7578
151.227 3137 56.0089
151.344 2882 53.6843
151.462 2628 51.264
151.579 2299 47.9479
151.697 2169 46.5725
151.814 2131 46.1628
151.932 2059 45.3762
152.049 1983 44.5309
152.167 2009 44.8219
152.284 1895 43.5316
152.402 1847 42.9767
152.519 1804 42.4735
152.636 1900 43.589
152.754 1829 42.7668
152.871 1781 42.2019
152.989 1846 42.9651
153.106 1897 43.5546
153.223 1868 43.2204
153.341 1868 43.2204
153.458 1822 42.6849
153.575 1845 42.9535
153.693 1864 43.1741
153.81 1660 40.7431
153.927 1572 39.6485
154.044 1530 39.1152
154.162 1642 40.5216
154.279 1751 41.845
154.396 1925 43.8748
154.513 2062 45.4093
154.63 2111 45.9456
154.747 2108 45.913
154.864 2011 44.8442
154.981 1914 43.7493
155.098 1848 42.9884
155.215 1859 43.1161
155.332 1920 43.8178
155.449 1993 44.643
155.566 2081 45.618
155.683 2182 46.7119
155.8 2191 46.8081
155.917 2340 48.3735
156.033 2409 49.0816
156.15 0 1
156.267 0 1
156.383 0 1
156.5 0 1
156.617 0 1
156.733 0 1
156.85 0 1
156.966 0 1
157.082 0 1
157.199 0 1
157.315 0 1
157.431 0 1
157.547 0 1
157.664 0 1
157.78 0 1
157.896 0 1
158.012 0 1
158.128 0 1
158.244 0 1
158.359 0 1
158.475 0 1
158.591 0 1
158.706 0 1
