
6.15755 0 1
6.2731 0 1
6.3887 0 1
6.50437 0 1
6.62009 0 1
6.73587 0 1
6.8517 0 1
6.96759 0 1
7.08353 0 1
7.19952 0 1
7.31557 0 1
7.43166 0 1
7.54781 0 1
7.664 0 1
7.78024 0 1
7.89653 0 1
8.01286 0 1
8.12924 0 1
8.24567 0 1
8.36213 0 1
8.47864 0 1
8.59519 0 1
8.71178 0 1
8.82841 0 1
8.94508 0 1
9.06179 0 1
9.17853 0 1
9.29531 0 1
9.41212 0 1
9.52897 0 1
9.64584 0 1
9.76276 0 1
9.8797 0 1
9.99667 0 1
10.1137 0 1
10.2307 0 1
10.3478 0 1
10.4648 0 1
10.5819 0 1
10.6991 0 1
10.8162 0 1
10.9334 0 1
11.0506 0 1
11.1678 0 1
11.285 0 1
11.4023 0 1
11.5196 0 1
11.6369 0 1
11.7542 0 1
11.8715 0 1
11.9888 0 1
12.1062 0 1
12.2235 0 1
12.3409 0 1
12.4582 0 1
12.5756 0 1
12.693 0 1
12.8104 0 1
12.9278 0 1
13.0452 0 1
13.1626 0 1
13.28 0 1
13.3974 0 1
13.5149 0 1
13.6323 0 1
13.7497 0 1
13.8671 0 1
13.9845 0 1
14.1019 0 1
14.2193 0 1
14.3367 0 1
14.4541 0 1
14.5714 0 1
14.6888 0 1
14.8062 0 1
14.9235 0 1
15.0408 3547 59.5567
15.1581 3579 59.8247
15.2755 3752 61.2536
15.3927 3750 61.2372
15.51 3747 61.2127
15.6273 3830 61.887
15.7445 3772 61.4166
15.8617 3767 61.3759
15.9789 3953 62.8729
16.0961 3706 60.8769
16.2132 3929 62.6817
16.3304 3898 62.434
16.4475 3950 62.849
16.5646 3985 63.1269
16.6816 4002 63.2614
16.7986 4045 63.6003
16.9156 3999 63.2376
17.0326 4041 63.5689
17.1496 3942 62.7853
17.2665 4158 64.4826
17.3833 4054 63.671
17.5002 3994 63.1981
17.617 4119 64.1794
17.7338 4126 64.2339
17.8505 3941 62.7774
17.9672 3791 61.5711
18.0839 3492 59.0931
18.2005 3434 58.6003
18.3171 3588 59.8999
18.4337 3789 61.5549
18.5502 4067 63.773
18.6666 4359 66.0227
18.7831 4389 66.2495
18.8994 4604 67.8528
19.0158 4562 67.5426
19.1321 4541 67.3869
19.2483 4626 68.0147
19.3645 4623 67.9926
19.4806 4567 67.5796
19.5967 4500 67.082
19.7128 4583 67.6979
19.8288 4382 66.1967
19.9447 3940 62.7694
20.0606 0 1
20.1764 0 1
20.2922 0 1
20.4079 0 1
20.5236 0 1
20.6392 0 1
20.7548 0 1
20.8702 0 1
23.3078 0 1
23.4233 0 1
23.539 0 1
23.6547 0 1
23.7704 0 1
23.8862 0 1
24.0021 0 1
24.118 0 1
24.234 0 1
24.35 0 1
24.4661 4927 70.1926
24.5822 4914 70.0999
24.6984 4839 69.5629
24.8146 4941 70.2922
24.9309 4977 70.5479
25.0472 4838 69.5557
25.1636 4683 68.4324
25.28 4741 68.8549
25.3965 4803 69.3037
25.513 4920 70.1427
25.6296 4910 70.0714
25.7462 5047 71.0422
25.8628 5164 71.861
25.9795 5314 72.8972
26.0962 5227 72.298
26.213 5243 72.4086
26.3298 5177 71.9514
26.4466 5205 72.1457
26.5635 5349 73.1369
26.6804 4936 70.2567
26.7973 4609 67.8896
26.9143 4589 67.7422
27.0313 4410 66.4078
27.1483 4364 66.0606
27.2653 4505 67.1193
27.3824 4904 70.0286
27.4996 5008 70.7672
27.6167 5127 71.6031
27.7339 4966 70.4699
27.8511 5155 71.7983
27.9683 5078 71.2601
28.0855 5103 71.4353
28.2028 5145 71.7287
28.3201 5186 72.0139
28.4374 5038 70.9789
28.5547 5067 71.1829
28.6721 4746 68.8912
28.7894 4983 70.5904
28.9068 4807 69.3325
29.0242 4964 70.4557
29.1416 4948 70.342
29.259 4956 70.3989
29.3764 5195 72.0763
29.4939 5318 72.9246
29.6113 5381 73.3553
29.7288 5260 72.5259
29.8463 5160 71.8331
29.9638 5140 71.6938
30.0812 5188 72.0278
30.1987 4920 70.1427
30.3162 4857 69.6922
30.4337 4433 66.5808
30.5512 4360 66.0303
30.6687 4296 65.5439
30.7862 4605 67.8602
30.9037 4733 68.7968
31.0212 4897 69.9786
31.1387 5106 71.4563
31.2562 5091 71.3512
31.3737 5105 71.4493
31.4912 5054 71.0915
31.6087 5107 71.4633
31.7262 5085 71.3092
31.8436 4992 70.6541
31.9611 5085 71.3092
32.0785 5016 70.8237
32.1959 4901 70.0071
32.3134 4731 68.7823
32.4308 4991 70.647
32.5482 4973 70.5195
32.6655 4916 70.1142
32.7829 5102 71.4283
32.9002 5123 71.5751
33.0176 5215 72.215
33.1349 5314 72.8972
33.2522 5295 72.7668
33.3694 5295 72.7668
33.4867 5106 71.4563
33.6039 5272 72.6085
33.7211 5086 71.3162
33.8383 5026 70.8943
33.9554 4819 69.419
34.0725 4641 68.1249
34.1896 4482 66.9477
34.3067 4380 66.1816
34.4237 4341 65.8863
34.5407 4440 66.6333
34.6577 4764 69.0217
34.7746 4623 67.9926
34.8915 4811 69.3614
35.0084 4901 70.0071
35.1252 4927 70.1926
35.242 5042 71.007
35.3587 5036 70.9648
35.4755 4982 70.5833
35.5921 4970 70.4982
35.7088 4973 70.5195
35.8254 4789 69.2026
35.9419 4827 69.4766
36.0584 4771 69.0724
36.1749 4874 69.814
36.2913 4810 69.3542
36.4077 4758 68.9783
36.524 4961 70.4344
36.6403 5081 71.2811
36.7565 4979 70.562
36.8727 5001 70.7177
36.9889 5003 70.7319
37.1049 5015 70.8167
37.221 0 1
37.3369 0 1
37.4529 0 1
37.5687 0 1
37.6845 0 1
37.8003 0 1
37.916 0 1
38.0316 0 1
38.1472 0 1
40.5851 0 1
40.7008 0 1
40.8164 0 1
40.9322 0 1
41.048 0 1
41.1639 0 1
41.2798 0 1
41.3958 0 1
41.5118 0 1
41.6279 0 1
41.744 4048 63.6239
41.8602 4170 64.5755
41.9765 4232 65.0538
42.0928 4340 65.8787
42.2091 4331 65.8103
42.3255 4304 65.6049
42.4419 4084 63.9062
42.5584 4268 65.3299
42.675 4183 64.6761
42.7915 4166 64.5446
42.9081 4043 63.5846
43.0248 3758 61.3025
43.1415 3735 61.1146
43.2582 3698 60.8112
43.375 3818 61.79
43.4918 3949 62.8411
43.6087 3998 63.2297
43.7256 3865 62.1691
43.8425 3696 60.7947
43.9595 3741 61.1637
44.0765 3864 62.1611
44.1935 3898 62.434
44.3106 3802 61.6604
44.4277 3733 61.0983
44.5448 3489 59.0678
44.6619 3487 59.0508
44.7791 3480 58.9915
44.8963 3379 58.1292
45.0136 3481 59
45.1308 3419 58.4722
45.2481 3378 58.1206
45.3654 3485 59.0339
45.4827 3389 58.2151
45.6001 3524 59.3633
45.7174 3419 58.4722
45.8348 3508 59.2284
45.9522 3419 58.4722
46.0697 3357 57.9396
46.1871 3223 56.7715
46.3046 3219 56.7362
46.422 3201 56.5774
46.5395 3061 55.3263
46.657 2979 54.5802
46.7745 2791 52.8299
46.892 2904 53.8888
47.0096 2883 53.6936
47.1271 3004 54.8088
47.2446 3024 54.9909
47.3622 2754 52.4786
47.4797 2889 53.7494
47.5973 2794 52.8583
47.7149 2926 54.0925
47.8324 2905 53.8981
47.95 2804 52.9528
48.0675 2777 52.6972
48.1851 2699 51.9519
48.3027 2595 50.9411
48.4202 2589 50.8822
48.5378 2739 52.3355
48.6554 2787 52.792
48.7729 2825 53.1507
48.8904 3008 54.8452
49.008 2947 54.2863
49.1255 2892 53.7773
49.243 3015 54.909
49.3605 2973 54.5252
49.478 2927 54.1018
49.5955 2869 53.563
49.713 2869 53.563
49.8304 2857 53.4509
49.9479 2907 53.9166
50.0653 2701 51.9711
50.1827 2833 53.2259
50.3001 2602 51.0098
50.4175 2670 51.672
50.5348 2697 51.9326
50.6521 2804 52.9528
50.7694 2874 53.6097
50.8867 2838 53.2729
51.004 3104 55.7136
51.1212 3095 55.6327
51.2384 3136 56
51.3556 3335 57.7495
51.4727 3265 57.1402
51.5899 3319 57.6108
51.707 3302 57.463
51.824 3233 56.8595
51.9411 3408 58.3781
52.0581 3464 58.8558
52.175 3666 60.5475
52.2919 3713 60.9344
52.4088 3835 61.9274
52.5257 3873 62.2334
52.6425 3884 62.3217
52.7593 4026 63.4508
52.876 4088 63.9375
52.9927 4047 63.616
53.1094 3880 62.2896
53.226 4040 63.561
53.3426 4043 63.5846
53.4591 3924 62.6418
53.5756 3943 62.7933
53.692 3864 62.1611
53.8084 3839 61.9597
53.9248 3816 61.7738
54.0411 3795 61.6036
54.1573 3922 62.6259
54.2735 0 1
54.3896 0 1
54.5057 0 1
54.6217 0 1
54.7377 0 1
54.8537 0 1
54.9695 0 1
55.0853 0 1
55.2011 0 1
55.3168 0 1
55.4324 0 1
57.824 0 1
57.9396 0 1
58.0553 0 1
58.1711 0 1
58.2869 0 1
58.4028 0 1
58.5187 0 1
58.6347 0 1
58.7508 0 1
58.8669 0 1
58.983 4437 66.6108
59.0992 4636 68.0882
59.2155 4603 67.8454
59.3318 4517 67.2086
59.4482 4464 66.8132
59.5646 4511 67.164
59.681 4402 66.3476
59.7975 4360 66.0303
59.9141 4573 67.624
60.0306 4706 68.6003
60.1473 4568 67.587
60.2639 4637 68.0955
60.3807 4445 66.6708
60.4974 4426 66.5282
60.6142 4511 67.164
60.731 4541 67.3869
60.8479 4613 67.9191
60.9648 4769 69.0579
61.0818 4782 69.152
61.1987 4810 69.3542
61.3158 4784 69.1665
61.4328 4574 67.6314
61.5499 4723 68.7241
61.667 4595 67.7864
61.7841 4554 67.4833
61.9013 4565 67.5648
62.0185 4604 67.8528
62.1357 4655 68.2276
62.253 4466 66.8281
62.3702 4399 66.325
62.4875 4240 65.1153
62.6049 4261 65.2763
62.7222 4343 65.9014
62.8396 4288 65.4828
62.9569 4249 65.1844
63.0743 4242 65.1306
63.1918 4047 63.616
63.3092 4116 64.1561
63.4267 4099 64.0234
63.5441 4048 63.6239
63.6616 4163 64.5213
63.7791 4217 64.9384
63.8966 4187 64.707
64.0142 4009 63.3167
64.1317 4100 64.0312
64.2492 4168 64.56
64.3668 4307 65.6277
64.4843 4218 64.9461
64.6019 4224 64.9923
64.7195 4215 64.923
64.837 4256 65.238
64.9546 4351 65.9621
65.0722 4335 65.8407
65.1898 4288 65.4828
65.3074 4283 65.4446
65.4249 4121 64.195
65.5425 4149 64.4127
65.6601 4260 65.2687
65.7777 4120 64.1872
65.8952 4019 63.3956
66.0128 4128 64.2495
66.1304 4121 64.195
66.2479 4076 63.8436
66.3655 4042 63.5767
66.483 4033 63.5059
66.6005 4106 64.0781
66.718 3890 62.3699
66.8355 3829 61.8789
66.953 3715 60.9508
67.0705 3719 60.9836
67.1879 3922 62.6259
67.3054 3869 62.2013
67.4228 3845 62.0081
67.5402 3832 61.9032
67.6576 3825 61.8466
67.7749 3990 63.1664
67.8923 4115 64.1483
68.0096 4164 64.5291
68.1269 4234 65.0692
68.2442 4141 64.3506
68.3614 4147 64.3972
68.4787 4374 66.1362
68.5958 4230 65.0385
68.713 4331 65.8103
68.8302 4303 65.5973
68.9473 4272 65.3605
69.0643 4257 65.2457
69.1814 4254 65.2227
69.2984 4267 65.3223
69.4154 4312 65.6658
69.5323 4339 65.8711
69.6492 4304 65.6049
69.7661 4283 65.4446
69.8829 4326 65.7723
69.9997 4373 66.1287
70.1165 4365 66.0681
70.2332 4416 66.453
70.3499 4268 65.3299
70.4665 4060 63.7181
70.5831 3975 63.0476
70.6996 3815 61.7657
70.8161 3854 62.0806
70.9326 3875 62.2495
71.049 3886 62.3378
71.1653 3980 63.0872
71.2817 4066 63.7652
71.3979 3925 62.6498
71.5141 4086 63.9218
71.6303 4041 63.5689
71.7464 3890 62.3699
71.8624 0 1
71.9784 0 1
72.0944 0 1
72.2102 0 1
72.3261 0 1
72.4418 0 1
72.5575 0 1
72.6732 0 1
75.1054 0 1
75.2209 0 1
75.3365 0 1
75.4521 0 1
75.5678 0 1
75.6835 0 1
75.7993 0 1
75.9151 0 1
76.031 0 1
76.147 3352 57.8965
76.263 3583 59.8582
76.3791 3711 60.918
76.4952 3771 61.4085
76.6113 3965 62.9682
76.7276 3974 63.0397
76.8438 4065 63.7574
76.9601 4118 64.1716
77.0765 4282 65.437
77.1929 4307 65.6277
77.3093 4420 66.4831
77.4258 4283 65.4446
77.5423 4411 66.4154
77.6589 4345 65.9166
77.7755 4386 66.2269
77.8921 4195 64.7688
78.0088 4323 65.7495
78.1256 4298 65.5591
78.2423 4170 64.5755
78.3591 4210 64.8845
78.4759 4253 65.215
78.5928 4438 66.6183
78.7097 4311 65.6582
78.8266 4103 64.0547
78.9436 4429 66.5507
79.0606 4297 65.5515
79.1776 4133 64.2884
79.2946 4165 64.5368
79.4117 4018 63.3877
79.5288 3703 60.8523
79.6459 3621 60.1747
79.7631 3534 59.4475
79.8802 3403 58.3352
79.9974 3513 59.2706
80.1147 3465 58.8643
80.2319 3760 61.3188
80.3491 3835 61.9274
80.4664 4010 63.3246
80.5837 4062 63.7338
80.701 4189 64.7225
80.8183 4071 63.8044
80.9357 4180 64.6529
81.053 4194 64.7611
81.1704 4201 64.8151
81.2877 4084 63.9062
81.4051 4164 64.5291
81.5225 3981 63.0952
81.6399 3976 63.0555
81.7573 3913 62.554
81.8747 3854 62.0806
81.9922 3923 62.6339
82.1096 3959 62.9206
82.227 3919 62.6019
82.3444 3899 62.442
82.4619 4068 63.7809
82.5793 3906 62.498
82.6967 3879 62.2816
82.8142 3750 61.2372
82.9316 3848 62.0322
83.049 3711 60.918
83.1664 3521 59.338
83.2838 3234 56.8683
83.4012 2956 54.3691
83.5186 2867 53.5444
83.636 2965 54.4518
83.7534 3088 55.5698
83.8708 3208 56.6392
83.9881 3423 58.5064
84.1055 3451 58.7452
84.2228 3780 61.4817
84.3401 3752 61.2536
84.4575 3768 61.384
84.5747 3788 61.5467
84.692 3914 62.562
84.8093 3805 61.6847
84.9265 3744 61.1882
85.0437 3737 61.131
85.1609 3736 61.1228
85.2781 3731 61.0819
85.3952 3773 61.4248
85.5123 3884 62.3217
85.6294 3940 62.7694
85.7465 3990 63.1664
85.8636 3929 62.6817
85.9806 4032 63.498
86.0976 4089 63.9453
86.2145 4044 63.5925
86.3315 4267 65.3223
86.4484 3819 61.7981
86.5652 3978 63.0714
86.682 3998 63.2297
86.7988 3768 61.384
86.9156 3521 59.338
87.0323 3353 57.9051
87.149 3241 56.9298
87.2657 3258 57.0789
87.3823 3526 59.3801
87.4988 3914 62.562
87.6154 3980 63.0872
87.7318 4225 65
87.8483 4239 65.1076
87.9647 4325 65.7647
88.081 4305 65.6125
88.1973 4309 65.643
88.3136 4340 65.8787
88.4298 4313 65.6734
88.546 4271 65.3529
88.6621 4242 65.1306
88.7781 4246 65.1613
88.8942 0 1
89.0101 0 1
89.126 0 1
89.2419 0 1
89.3577 0 1
89.4734 0 1
89.5891 0 1
89.7047 0 1
89.8203 0 1
89.9358 0 1
92.3269 0 1
92.4424 0 1
92.558 0 1
92.6736 0 1
92.7893 0 1
92.905 0 1
93.0208 0 1
93.1366 0 1
93.2525 0 1
93.3685 0 1
93.4845 0 1
93.6005 4202 64.8228
93.7167 4274 65.3758
93.8328 4376 66.1513
93.949 4284 65.4523
94.0653 4236 65.0846
94.1816 4091 63.9609
94.2979 4204 64.8383
94.4143 4237 65.0922
94.5307 4255 65.2304
94.6472 4147 64.3972
94.7637 4342 65.8939
94.8803 4326 65.7723
94.9969 4494 67.0373
95.1135 4489 67
95.2302 4471 66.8655
95.3469 4423 66.5056
95.4637 4517 67.2086
95.5805 4575 67.6387
95.6973 4415 66.4455
95.8142 4316 65.6963
95.9311 4012 63.3404
96.048 3724 61.0246
96.1649 3437 58.6259
96.2819 3091 55.5968
96.3989 3273 57.2101
96.516 3346 57.8446
96.633 3628 60.2329
96.7501 3983 63.111
96.8673 4293 65.521
96.9844 4398 66.3174
97.1016 4482 66.9477
97.2188 4507 67.1342
97.336 4475 66.8954
97.4532 4577 67.6535
97.5704 4505 67.1193
97.6877 4327 65.7799
97.805 4358 66.0151
97.9223 4382 66.1967
98.0396 4294 65.5286
98.1569 4356 66
98.2743 4543 67.4018
98.3916 4418 66.468
98.509 4593 67.7717
98.6264 4475 66.8954
98.7438 4428 66.5432
98.8612 4535 67.3424
98.9786 4520 67.2309
99.096 4597 67.8012
99.2134 4454 66.7383
99.3308 4623 67.9926
99.4482 4579 67.6683
99.5656 4219 64.9538
99.6831 4033 63.5059
99.8005 3691 60.7536
99.9179 3340 57.7927
100.035 3292 57.376
100.153 3721 61
100.27 3957 62.9047
100.388 4286 65.4675
100.505 4357 66.0076
100.622 4571 67.6092
100.74 4484 66.9627
100.857 4586 67.72
100.975 4630 68.0441
101.092 4515 67.1937
101.209 4503 67.1044
101.327 4433 66.5808
101.444 4555 67.4907
101.561 4452 66.7233
101.679 4507 67.1342
101.796 4426 66.5282
101.913 4576 67.6461
102.03 4395 66.2948
102.148 4545 67.4166
102.265 4500 67.082
102.382 4937 70.2638
102.499 4851 69.6491
102.616 4769 69.0579
102.733 4759 68.9855
102.851 4834 69.527
102.968 4687 68.4617
103.085 4693 68.5055
103.202 4392 66.2722
103.319 3915 62.57
103.436 3468 58.8897
103.552 3291 57.3672
103.669 3470 58.9067
103.786 3904 62.482
103.903 4531 67.3127
104.02 4665 68.3008
104.137 4841 69.5773
104.253 4798 69.2676
104.37 4871 69.7925
104.487 4911 70.0785
104.603 4888 69.9142
104.72 4918 70.1285
104.836 4684 68.4398
104.953 4742 68.8622
105.069 4802 69.2965
105.186 4889 69.9214
105.302 4825 69.4622
105.418 4803 69.3037
105.535 5038 70.9789
105.651 4982 70.5833
105.767 5002 70.7248
105.883 5131 71.631
105.999 5205 72.1457
106.115 0 1
106.231 0 1
106.347 0 1
106.463 0 1
106.579 0 1
106.694 0 1
106.81 0 1
106.926 0 1
107.041 0 1
107.157 0 1
109.576 0 1
109.692 0 1
109.807 0 1
109.923 0 1
110.039 0 1
110.155 0 1
110.27 0 1
110.386 0 1
110.502 0 1
110.618 4730 68.775
110.735 4707 68.6076
110.851 4728 68.7605
110.967 4704 68.5857
111.083 4917 70.1213
111.199 4905 70.0357
111.316 4870 69.7854
111.432 4795 69.2459
111.549 4696 68.5274
111.665 4701 68.5638
111.782 4198 64.792
111.898 3911 62.538
112.015 3175 56.3471
112.132 2915 53.9907
112.248 3170 56.3028
112.365 3688 60.7289
112.482 4159 64.4903
112.599 4565 67.5648
112.716 4431 66.5658
112.832 4594 67.7791
112.949 4566 67.5722
113.066 4644 68.1469
113.183 4417 66.4605
113.3 4399 66.325
113.417 4365 66.0681
113.534 4503 67.1044
113.652 4372 66.1211
113.769 4424 66.5132
113.886 4485 66.9701
114.003 4394 66.2873
114.12 4462 66.7982
114.238 4600 67.8233
114.355 4624 68
114.472 4605 67.8602
114.589 4735 68.8113
114.707 4614 67.9264
114.824 4577 67.6535
114.942 4599 67.8159
115.059 4612 67.9117
115.176 4454 66.7383
115.294 4251 65.1997
115.411 3963 62.9524
115.529 3401 58.3181
115.646 2769 52.6213
115.764 2849 53.376
115.881 3227 56.8067
115.999 3893 62.3939
116.116 4254 65.2227
116.234 4362 66.0454
116.351 4423 66.5056
116.469 4249 65.1844
116.586 4369 66.0984
116.704 4345 65.9166
116.821 4222 64.9769
116.939 4330 65.8027
117.056 4182 64.6684
117.174 4073 63.8201
117.291 4165 64.5368
117.409 4199 64.7997
117.526 4245 65.1537
117.644 4391 66.2646
117.761 4185 64.6916
117.879 4431 66.5658
117.996 4384 66.2118
118.114 4456 66.7533
118.231 4330 65.8027
118.349 4395 66.2948
118.466 4218 64.9461
118.584 4276 65.3911
118.701 4313 65.6734
118.819 4199 64.7997
118.936 4074 63.8279
119.053 3690 60.7454
119.171 3135 55.9911
119.288 2517 50.1697
119.405 2491 49.9099
119.523 2875 53.619
119.64 3506 59.2115
119.757 3887 62.3458
119.875 4014 63.3561
119.992 3915 62.57
120.109 4049 63.6318
120.226 3998 63.2297
120.343 4000 63.2456
120.46 3978 63.0714
120.578 3874 62.2415
120.695 3843 61.9919
120.812 3814 61.7576
120.929 3715 60.9508
121.046 3875 62.2495
121.163 3910 62.53
121.279 3932 62.7057
121.396 4103 64.0547
121.513 3904 62.482
121.63 4081 63.8827
121.747 4098 64.0156
121.863 4135 64.304
121.98 4046 63.6082
122.097 4128 64.2495
122.213 3982 63.1031
122.33 4020 63.4035
122.446 4081 63.8827
122.563 3909 62.522
122.679 3680 60.663
122.795 3415 58.438
122.912 2920 54.037
123.028 2418 49.1732
123.144 2261 47.55
123.26 2576 50.7543
123.377 0 1
123.493 0 1
123.609 0 1
123.725 0 1
123.84 0 1
123.956 0 1
124.072 0 1
124.188 0 1
124.303 0 1
124.419 0 1
126.852 0 1
126.968 0 1
127.083 0 1
127.199 0 1
127.315 0 1
127.431 0 1
127.547 0 1
127.663 0 1
127.779 0 1
127.895 0 1
128.011 0 1
128.127 0 1
128.243 0 1
128.359 2360 48.5798
128.476 2557 50.5668
128.592 3307 57.5065
128.708 3778 61.4654
128.825 3973 63.0317
128.941 4109 64.1015
129.058 4118 64.1716
129.174 4024 63.435
129.291 3894 62.4019
129.408 3923 62.6339
129.524 3819 61.7981
129.641 3919 62.6019
129.758 3740 61.1555
129.875 3862 62.145
129.992 3807 61.7009
130.108 3878 62.2736
130.225 3909 62.522
130.342 4012 63.3404
130.459 3962 62.9444
130.576 4114 64.1405
130.693 3981 63.0952
130.81 3917 62.5859
130.928 3968 62.9921
131.045 4069 63.7887
131.162 3965 62.9682
131.279 4027 63.4586
131.396 3855 62.0886
131.513 3781 61.4898
131.631 3498 59.1439
131.748 2907 53.9166
131.865 2260 47.5395
131.983 2177 46.6583
132.1 2891 53.768
132.217 3427 58.5406
132.335 3725 61.0328
132.452 3791 61.5711
132.57 3793 61.5873
132.687 3824 61.8385
132.804 3723 61.0164
132.922 3726 61.041
133.039 3665 60.5392
133.157 3601 60.0083
133.274 3611 60.0916
133.392 3590 59.9166
133.509 3622 60.1831
133.627 3621 60.1747
133.744 3698 60.8112
133.862 3681 60.6712
133.979 3694 60.7783
134.097 3719 60.9836
134.214 3618 60.1498
134.332 3791 61.5711
134.449 3708 60.8933
134.567 3653 60.4401
134.684 3815 61.7657
134.802 3821 61.8142
134.919 3744 61.1882
135.037 3701 60.8358
135.154 3524 59.3633
135.272 3162 56.2317
135.389 2247 47.4025
135.507 1945 44.1022
135.624 2235 47.2758
135.742 2848 53.3667
135.859 3415 58.438
135.977 3625 60.208
136.094 3702 60.8441
136.211 3636 60.2993
136.329 3473 58.9322
136.446 3599 59.9917
136.564 3462 58.8388
136.681 3446 58.7026
136.798 3547 59.5567
136.915 3459 58.8133
137.033 3428 58.5491
137.15 3371 58.0603
137.267 3497 59.1354
137.384 3385 58.1808
137.502 3471 58.9152
137.619 3488 59.0593
137.736 3531 59.4222
137.853 3492 59.0931
137.97 3462 58.8388
138.087 3532 59.4306
138.204 3603 60.025
138.321 3632 60.2661
138.438 3499 59.1523
138.555 3510 59.2453
138.672 3602 60.0167
138.788 3437 58.6259
138.905 3098 55.6597
139.022 2459 49.5883
139.139 1939 44.0341
139.255 2146 46.3249
139.372 2822 53.1225
139.488 3369 58.0431
139.605 3407 58.3695
139.721 3491 59.0847
139.838 3563 59.6909
139.954 3538 59.4811
140.071 3546 59.5483
140.187 3450 58.7367
140.303 3347 57.8533
140.419 3269 57.1752
140.535 3331 57.7148
140.652 3317 57.5934
140.768 0 1
140.884 0 1
141 0 1
141.115 0 1
141.231 0 1
141.347 0 1
141.463 0 1
141.578 0 1
141.694 0 1
144.104 0 1
144.219 0 1
144.335 0 1
144.45 0 1
144.566 0 1
144.682 0 1
144.798 0 1
144.914 0 1
145.03 0 1
145.146 2334 48.3115
145.262 2475 49.7494
145.378 2451 49.5076
145.494 2387 48.8569
145.61 2430 49.295
145.726 2431 49.3052
145.842 2436 49.3559
145.959 2450 49.4975
146.075 2473 49.7293
146.192 2411 49.1019
146.308 2511 50.1099
146.425 2378 48.7647
146.541 2473 49.7293
146.658 2559 50.5866
146.774 2607 51.0588
146.891 2564 50.636
147.008 2544 50.4381
147.125 2497 49.97
147.241 2595 50.9411
147.358 2698 51.9423
147.475 2632 51.303
147.592 2717 52.1249
147.709 2451 49.5076
147.826 2276 47.7074
147.943 1743 41.7493
148.06 1389 37.2693
148.177 1460 38.2099
148.294 1853 43.0465
148.411 2433 49.3254
148.528 2536 50.3587
148.645 2524 50.2394
148.762 2641 51.3907
148.88 2560 50.5964
148.997 2455 49.548
149.114 2570 50.6952
149.231 2607 51.0588
149.349 2376 48.7442
149.466 2494 49.94
149.583 2304 48
149.701 2414 49.1325
149.818 2406 49.051
149.935 2388 48.8672
150.053 2475 49.7494
150.17 2306 48.0208
150.287 2408 49.0714
150.405 2479 49.7896
150.522 2499 49.99
150.64 2615 51.1371
150.757 2720 52.1536
150.875 2590 50.892
150.992 2518 50.1797
151.11 2575 50.7445
151.227 2628 51.264
151.344 2656 51.5364
151.462 2496 49.96
151.579 2296 47.9166
151.697 1716 41.4246
151.814 1348 36.7151
151.932 1653 40.6571
152.049 2094 45.7602
152.167 2592 50.9117
152.284 2711 52.0673
152.402 2696 51.923
152.519 2639 51.3712
152.636 2664 51.614
152.754 2671 51.6817
152.871 2699 51.9519
152.989 2641 51.3907
153.106 2630 51.2835
153.223 2576 50.7543
153.341 2545 50.448
153.458 2553 50.5272
153.575 2657 51.5461
153.693 2582 50.8134
153.81 2720 52.1536
153.927 2773 52.6593
154.044 2775 52.6783
154.162 2786 52.7826
154.279 2838 53.2729
154.396 2894 53.7959
154.513 3023 54.9818
154.63 3019 54.9454
154.747 2976 54.5527
154.864 3048 55.2087
154.981 3165 56.2583
155.098 2732 52.2685
155.215 2312 48.0833
155.332 2003 44.7549
155.449 2124 46.0869
155.566 2576 50.7543
155.683 2920 54.037
155.8 3018 54.9363
155.917 3154 56.1605
156.033 3194 56.5155
156.15 0 1
156.267 0 1
156.383 0 1
156.5 0 1
156.617 0 1
156.733 0 1
156.85 0 1
156.966 0 1
157.082 0 1
157.199 0 1
157.315 0 1
157.431 0 1
157.547 0 1
157.664 0 1
157.78 0 1
157.896 0 1
158.012 0 1
158.128 0 1
158.244 0 1
158.359 0 1
158.475 0 1
158.591 0 1
158.706 0 1
