
6.15755 0 1
6.2731 0 1
6.3887 0 1
6.50437 0 1
6.62009 0 1
6.73587 0 1
6.8517 0 1
6.96759 0 1
7.08353 0 1
7.19952 0 1
7.31557 0 1
7.43166 0 1
7.54781 0 1
7.664 0 1
7.78024 0 1
7.89653 0 1
8.01286 0 1
8.12924 0 1
8.24567 0 1
8.36213 0 1
8.47864 0 1
8.59519 0 1
8.71178 0 1
8.82841 0 1
8.94508 0 1
9.06179 0 1
9.17853 0 1
9.29531 0 1
9.41212 0 1
9.52897 0 1
9.64584 0 1
9.76276 0 1
9.8797 0 1
9.99667 0 1
10.1137 0 1
10.2307 0 1
10.3478 0 1
10.4648 0 1
10.5819 0 1
10.6991 0 1
10.8162 0 1
10.9334 0 1
11.0506 0 1
11.1678 0 1
11.285 0 1
11.4023 0 1
11.5196 0 1
11.6369 0 1
11.7542 0 1
11.8715 0 1
11.9888 0 1
12.1062 0 1
12.2235 0 1
12.3409 0 1
12.4582 0 1
12.5756 0 1
12.693 0 1
12.8104 0 1
12.9278 0 1
13.0452 0 1
13.1626 0 1
13.28 0 1
13.3974 0 1
13.5149 0 1
13.6323 0 1
13.7497 0 1
13.8671 0 1
13.9845 0 1
14.1019 0 1
14.2193 0 1
14.3367 0 1
14.4541 0 1
14.5714 0 1
14.6888 0 1
14.8062 0 1
14.9235 0 1
15.0408 13357 115.572
15.1581 14108 118.777
15.2755 14460 120.25
15.3927 14312 119.633
15.51 14188 119.113
15.6273 15112 122.931
15.7445 15046 122.662
15.8617 14829 121.774
15.9789 14352 119.8
16.0961 13740 117.218
16.2132 13565 116.469
16.3304 13226 115.004
16.4475 12972 113.895
16.5646 12979 113.925
16.6816 12736 112.854
16.7986 12849 113.353
16.9156 12979 113.925
17.0326 12928 113.701
17.1496 13033 114.162
17.2665 13247 115.096
17.3833 13218 114.97
17.5002 13157 114.704
17.617 13526 116.301
17.7338 13754 117.277
17.8505 14234 119.306
17.9672 14589 120.785
18.0839 14741 121.413
18.2005 15016 122.54
18.3171 14198 119.155
18.4337 13797 117.461
18.5502 13819 117.554
18.6666 13808 117.507
18.7831 13435 115.909
18.8994 12509 111.844
19.0158 12173 110.331
19.1321 12383 111.279
19.2483 12998 114.009
19.3645 13209 114.93
19.4806 13372 115.637
19.5967 13718 117.124
19.7128 13433 115.901
19.8288 13663 116.889
19.9447 12192 110.417
20.0606 0 1
20.1764 0 1
20.2922 0 1
20.4079 0 1
20.5236 0 1
20.6392 0 1
20.7548 0 1
20.8702 0 1
23.3078 0 1
23.4233 0 1
23.539 0 1
23.6547 0 1
23.7704 0 1
23.8862 0 1
24.0021 0 1
24.118 0 1
24.234 0 1
24.35 0 1
24.4661 14136 118.895
24.5822 14704 121.26
24.6984 14930 122.188
24.8146 14907 122.094
24.9309 15394 124.073
25.0472 15751 125.503
25.1636 15581 124.824
25.28 15856 125.921
25.3965 16078 126.799
25.513 16189 127.236
25.6296 16406 128.086
25.7462 16185 127.22
25.8628 15971 126.376
25.9795 15483 124.431
26.0962 15234 123.426
26.213 15144 123.061
26.3298 15079 122.797
26.4466 14708 121.277
26.5635 14563 120.677
26.6804 14859 121.897
26.7973 15088 122.833
26.9143 14734 121.384
27.0313 14092 118.71
27.1483 13473 116.073
27.2653 12983 113.943
27.3824 13612 116.67
27.4996 13419 115.84
27.6167 13191 114.852
27.7339 12550 112.027
27.8511 12693 112.663
27.9683 13818 117.55
28.0855 15038 122.63
28.2028 15528 124.611
28.3201 14890 122.025
28.4374 15389 124.052
28.5547 15156 123.11
28.6721 15003 122.487
28.7894 14797 121.643
28.9068 14932 122.197
29.0242 14566 120.69
29.1416 14429 120.121
29.259 14318 119.658
29.3764 14217 119.235
29.4939 14097 118.731
29.6113 14005 118.343
29.7288 14029 118.444
29.8463 14093 118.714
29.9638 14043 118.503
30.0812 13917 117.97
30.1987 14190 119.122
30.3162 14244 119.348
30.4337 14367 119.862
30.5512 14079 118.655
30.6687 13309 115.365
30.7862 13204 114.909
30.9037 13217 114.965
31.0212 13970 118.195
31.1387 14264 119.432
31.2562 13327 115.443
31.3737 13292 115.291
31.4912 14308 119.616
31.6087 15080 122.801
31.7262 15307 123.721
31.8436 15006 122.499
31.9611 14833 121.791
32.0785 14404 120.017
32.1959 14641 121
32.3134 14356 119.817
32.4308 14079 118.655
32.5482 13882 117.822
32.6655 13667 116.906
32.7829 13758 117.295
32.9002 13430 115.888
33.0176 13490 116.146
33.1349 13599 116.615
33.2522 13743 117.231
33.3694 13469 116.056
33.4867 13449 115.97
33.6039 13594 116.593
33.7211 13914 117.958
33.8383 14031 118.453
33.9554 14387 119.946
34.0725 14623 120.926
34.1896 14379 119.912
34.3067 13787 117.418
34.4237 13296 115.308
34.5407 13236 115.048
34.6577 13358 115.577
34.7746 13340 115.499
34.8915 12361 111.18
35.0084 11865 108.927
35.1252 12490 111.759
35.242 13264 115.169
35.3587 14021 118.41
35.4755 14040 118.491
35.5921 14229 119.285
35.7088 13812 117.524
35.8254 13884 117.83
35.9419 13795 117.452
36.0584 13858 117.72
36.1749 13996 118.305
36.2913 13611 116.666
36.4077 13406 115.784
36.524 13187 114.835
36.6403 13468 116.052
36.7565 13552 116.413
36.8727 13170 114.761
36.9889 13486 116.129
37.1049 13321 115.417
37.221 0 1
37.3369 0 1
37.4529 0 1
37.5687 0 1
37.6845 0 1
37.8003 0 1
37.916 0 1
38.0316 0 1
38.1472 0 1
40.5851 0 1
40.7008 0 1
40.8164 0 1
40.9322 0 1
41.048 0 1
41.1639 0 1
41.2798 0 1
41.3958 0 1
41.5118 0 1
41.6279 0 1
41.744 10763 103.745
41.8602 11104 105.376
41.9765 11429 106.907
42.0928 11410 106.818
42.2091 11374 106.649
42.3255 11406 106.799
42.4419 11262 106.123
42.5584 11224 105.943
42.675 11022 104.986
42.7915 10771 103.783
42.9081 10726 103.566
43.0248 10483 102.387
43.1415 9971 99.8549
43.2582 9372 96.8091
43.375 9222 96.0312
43.4918 9496 97.4474
43.6087 9440 97.1597
43.7256 9135 95.5772
43.8425 8561 92.5257
43.9595 8371 91.4932
44.0765 9160 95.7079
44.1935 9662 98.2955
44.3106 9858 99.2875
44.4277 9630 98.1326
44.5448 9537 97.6576
44.6619 9562 97.7855
44.7791 9553 97.7394
44.8963 9225 96.0469
45.0136 9240 96.1249
45.1308 9279 96.3276
45.2481 9357 96.7316
45.3654 9147 95.6399
45.4827 9017 94.9579
45.6001 9173 95.7758
45.7174 9119 95.4935
45.8348 9049 95.1262
45.9522 8537 92.3959
46.0697 8524 92.3255
46.1871 8467 92.0163
46.3046 8377 91.526
46.422 8519 92.2984
46.5395 8113 90.0722
46.657 8204 90.5759
46.7745 7885 88.7975
46.892 7297 85.4225
47.0096 7372 85.8604
47.1271 7592 87.1321
47.2446 7477 86.4696
47.3622 7073 84.1011
47.4797 6812 82.5348
47.5973 6816 82.5591
47.7149 7542 86.8447
47.8324 7547 86.8735
47.95 7384 85.9302
48.0675 7151 84.5636
48.1851 7446 86.2902
48.3027 7249 85.1411
48.4202 7294 85.4049
48.5378 7166 84.6522
48.6554 7193 84.8116
48.7729 7274 85.2877
48.8904 7157 84.5991
49.008 7179 84.729
49.1255 7136 84.4748
49.243 7092 84.214
49.3605 6860 82.8251
49.478 7216 84.947
49.5955 6794 82.4257
49.713 6915 83.1565
49.8304 6958 83.4146
49.9479 6886 82.9819
50.0653 7089 84.1962
50.1827 6917 83.1685
50.3001 6476 80.4736
50.4175 6016 77.5629
50.5348 6294 79.3347
50.6521 6351 79.6932
50.7694 6545 80.9012
50.8867 6448 80.2994
51.004 6148 78.4092
51.1212 6885 82.9759
51.2384 7577 87.046
51.3556 7975 89.3029
51.4727 8002 89.4539
51.5899 8293 91.0659
51.707 8508 92.2388
51.824 8476 92.0652
51.9411 8767 93.6323
52.0581 8756 93.5735
52.175 9043 95.0947
52.2919 9200 95.9166
52.4088 9269 96.2756
52.5257 9658 98.2751
52.6425 9632 98.1428
52.7593 9739 98.6864
52.876 10016 100.08
52.9927 9885 99.4233
53.1094 10327 101.622
53.226 10358 101.774
53.3426 10471 102.328
53.4591 10570 102.811
53.5756 10860 104.211
53.692 10855 104.187
53.8084 10799 103.918
53.9248 10267 101.326
54.0411 9885 99.4233
54.1573 9866 99.3277
54.2735 0 1
54.3896 0 1
54.5057 0 1
54.6217 0 1
54.7377 0 1
54.8537 0 1
54.9695 0 1
55.0853 0 1
55.2011 0 1
55.3168 0 1
55.4324 0 1
57.824 0 1
57.9396 0 1
58.0553 0 1
58.1711 0 1
58.2869 0 1
58.4028 0 1
58.5187 0 1
58.6347 0 1
58.7508 0 1
58.8669 0 1
58.983 12188 110.399
59.0992 12375 111.243
59.2155 11811 108.678
59.3318 11480 107.145
59.4482 11629 107.838
59.5646 11330 106.442
59.681 11486 107.173
59.7975 11605 107.727
59.9141 11966 109.389
60.0306 12410 111.4
60.1473 12782 113.058
60.2639 12837 113.3
60.3807 12788 113.084
60.4974 12599 112.245
60.6142 12727 112.814
60.731 12701 112.699
60.8479 12353 111.144
60.9648 12447 111.566
61.0818 12459 111.62
61.1987 12358 111.167
61.3158 12353 111.144
61.4328 12325 111.018
61.5499 12015 109.613
61.667 12056 109.8
61.7841 12091 109.959
61.9013 12110 110.045
62.0185 12007 109.576
62.1357 11779 108.531
62.253 11599 107.699
62.3702 11319 106.391
62.4875 11272 106.17
62.6049 10848 104.154
62.7222 10664 103.267
62.8396 10664 103.267
62.9569 10543 102.679
63.0743 10281 101.395
63.1918 9986 99.93
63.3092 10283 101.405
63.4267 10412 102.039
63.5441 11016 104.957
63.6616 11204 105.849
63.7791 11290 106.254
63.8966 11479 107.14
64.0142 11392 106.733
64.1317 11234 105.991
64.2492 11198 105.821
64.3668 11225 105.948
64.4843 11116 105.432
64.6019 11145 105.57
64.7195 11189 105.778
64.837 10903 104.417
64.9546 11078 105.252
65.0722 10916 104.48
65.1898 10758 103.721
65.3074 11055 105.143
65.4249 10860 104.211
65.5425 10845 104.139
65.6601 11066 105.195
65.7777 10807 103.957
65.8952 11055 105.143
66.0128 10522 102.577
66.1304 10221 101.099
66.2479 9781 98.8989
66.3655 9760 98.7927
66.483 9645 98.209
66.6005 9666 98.3158
66.718 9596 97.9592
66.8355 9602 97.9898
66.953 9696 98.4683
67.0705 10085 100.424
67.1879 10577 102.845
67.3054 10982 104.795
67.4228 10807 103.957
67.5402 10945 104.618
67.6576 10915 104.475
67.7749 11129 105.494
67.8923 11171 105.693
68.0096 11175 105.712
68.1269 11197 105.816
68.2442 11053 105.133
68.3614 11202 105.84
68.4787 11423 106.878
68.5958 11183 105.75
68.713 11557 107.503
68.8302 11291 106.259
68.9473 11530 107.378
69.0643 11558 107.508
69.1814 11792 108.591
69.2984 11846 108.839
69.4154 11904 109.105
69.5323 11877 108.982
69.6492 11786 108.563
69.7661 11389 106.719
69.8829 11197 105.816
69.9997 10921 104.504
70.1165 10865 104.235
70.2332 11134 105.518
70.3499 10802 103.933
70.4665 10554 102.733
70.5831 10777 103.812
70.6996 11033 105.038
70.8161 11846 108.839
70.9326 11862 108.913
71.049 12256 110.707
71.1653 12254 110.698
71.2817 12674 112.579
71.3979 12543 111.996
71.5141 12184 110.381
71.6303 11817 108.706
71.7464 10372 101.843
71.8624 0 1
71.9784 0 1
72.0944 0 1
72.2102 0 1
72.3261 0 1
72.4418 0 1
72.5575 0 1
72.6732 0 1
75.1054 0 1
75.2209 0 1
75.3365 0 1
75.4521 0 1
75.5678 0 1
75.6835 0 1
75.7993 0 1
75.9151 0 1
76.031 0 1
76.147 10674 103.315
76.263 12265 110.747
76.3791 12575 112.138
76.4952 12804 113.155
76.6113 12820 113.225
76.7276 12969 113.882
76.8438 12733 112.841
76.9601 12843 113.327
77.0765 12627 112.37
77.1929 12710 112.739
77.3093 12482 111.723
77.4258 12673 112.574
77.5423 12587 112.192
77.6589 12527 111.924
77.7755 12488 111.75
77.8921 12564 112.089
78.0088 12373 111.234
78.1256 12505 111.826
78.2423 12355 111.153
78.3591 12473 111.683
78.4759 12298 110.896
78.5928 12197 110.44
78.7097 12024 109.654
78.8266 10926 104.528
78.9436 11147 105.579
79.0606 9958 99.7898
79.1776 10131 100.653
79.2946 10579 102.854
79.4117 10389 101.926
79.5288 10015 100.075
79.6459 10018 100.09
79.7631 10356 101.764
79.8802 11264 106.132
79.9974 11373 106.644
80.1147 11551 107.476
80.2319 11498 107.229
80.3491 11353 106.55
80.4664 11193 105.797
80.5837 11323 106.41
80.701 11054 105.138
80.8183 11197 105.816
80.9357 10958 104.68
81.053 10792 103.885
81.1704 11051 105.124
81.2877 10766 103.759
81.4051 10856 104.192
81.5225 10893 104.37
81.6399 11169 105.683
81.7573 11027 105.01
81.8747 10759 103.726
81.9922 10413 102.044
82.1096 10622 103.063
82.227 10548 102.703
82.3444 10213 101.059
82.4619 10139 100.693
82.5793 9658 98.2751
82.6967 8822 93.9255
82.8142 8817 93.8989
82.9316 9066 95.2155
83.049 8701 93.2792
83.1664 8517 92.2876
83.2838 8225 90.6918
83.4012 8348 91.3674
83.5186 9588 97.9183
83.636 9781 98.8989
83.7534 9799 98.9899
83.8708 9772 98.8534
83.9881 9851 99.2522
84.1055 9806 99.0252
84.2228 9857 99.2824
84.3401 9743 98.7066
84.4575 9753 98.7573
84.5747 9930 99.6494
84.692 10096 100.479
84.8093 9933 99.6644
84.9265 9943 99.7146
85.0437 10147 100.732
85.1609 10093 100.464
85.2781 10233 101.158
85.3952 10200 100.995
85.5123 10394 101.951
85.6294 10399 101.975
85.7465 10334 101.656
85.8636 10316 101.568
85.9806 10462 102.284
86.0976 10139 100.693
86.2145 9614 98.051
86.3315 9694 98.4581
86.4484 9276 96.312
86.5652 9941 99.7046
86.682 10177 100.881
86.7988 9870 99.3479
86.9156 9821 99.101
87.0323 10261 101.297
87.149 11078 105.252
87.2657 11531 107.382
87.3823 11705 108.19
87.4988 11636 107.87
87.6154 11794 108.6
87.7318 11887 109.028
87.8483 12031 109.686
87.9647 12153 110.241
88.081 12095 109.977
88.1973 12352 111.14
88.3136 12363 111.189
88.4298 12275 110.793
88.546 12468 111.66
88.6621 12675 112.583
88.7781 12658 112.508
88.8942 0 1
89.0101 0 1
89.126 0 1
89.2419 0 1
89.3577 0 1
89.4734 0 1
89.5891 0 1
89.7047 0 1
89.8203 0 1
89.9358 0 1
92.3269 0 1
92.4424 0 1
92.558 0 1
92.6736 0 1
92.7893 0 1
92.905 0 1
93.0208 0 1
93.1366 0 1
93.2525 0 1
93.3685 0 1
93.4845 0 1
93.6005 12422 111.454
93.7167 12556 112.054
93.8328 12583 112.174
93.949 12845 113.336
94.0653 12797 113.124
94.1816 12635 112.406
94.2979 12774 113.022
94.4143 12546 112.009
94.5307 12642 112.437
94.6472 12551 112.031
94.7637 12627 112.37
94.8803 12591 112.21
94.9969 12306 110.932
95.1135 12183 110.377
95.2302 12194 110.426
95.3469 11693 108.134
95.4637 11055 105.143
95.5805 11104 105.376
95.6973 11374 106.649
95.8142 10916 104.48
95.9311 10697 103.426
96.048 10550 102.713
96.1649 10655 103.223
96.2819 11493 107.205
96.3989 12368 111.212
96.516 12866 113.428
96.633 12468 111.66
96.7501 12887 113.521
96.8673 12786 113.075
96.9844 13020 114.105
97.1016 12876 113.472
97.2188 12801 113.142
97.336 12751 112.92
97.4532 12599 112.245
97.5704 12708 112.73
97.6877 12721 112.787
97.805 12587 112.192
97.9223 12800 113.137
98.0396 12770 113.004
98.1569 12520 111.893
98.2743 12482 111.723
98.3916 12604 112.268
98.509 12526 111.92
98.6264 12498 111.794
98.7438 12313 110.964
98.8612 11968 109.398
98.9786 11815 108.697
99.096 11062 105.176
99.2134 11003 104.895
99.3308 11555 107.494
99.4482 11691 108.125
99.5656 11465 107.075
99.6831 11432 106.921
99.8005 11118 105.442
99.9179 11870 108.95
100.035 12518 111.884
100.153 12534 111.955
100.27 12724 112.801
100.388 12665 112.539
100.505 12703 112.708
100.622 12698 112.685
100.74 12655 112.494
100.857 12628 112.374
100.975 12735 112.849
101.092 12657 112.503
101.209 12734 112.845
101.327 13017 114.092
101.444 12947 113.785
101.561 12773 113.018
101.679 12678 112.597
101.796 12716 112.765
101.913 12723 112.796
102.03 12706 112.721
102.148 13000 114.018
102.265 12471 111.674
102.382 13059 114.276
102.499 12574 112.134
102.616 11877 108.982
102.733 11630 107.842
102.851 11840 108.812
102.968 12100 110
103.085 11818 108.711
103.202 11614 107.768
103.319 11561 107.522
103.436 12441 111.539
103.552 13022 114.114
103.669 13059 114.276
103.786 13171 114.765
103.903 13397 115.745
104.02 13680 116.962
104.137 13921 117.987
104.253 13646 116.816
104.37 13471 116.065
104.487 13667 116.906
104.603 13901 117.903
104.72 13974 118.212
104.836 13921 117.987
104.953 14097 118.731
105.069 14061 118.579
105.186 14336 119.733
105.302 14387 119.946
105.418 14373 119.887
105.535 14391 119.962
105.651 14492 120.383
105.767 14344 119.766
105.883 14032 118.457
105.999 13787 117.418
106.115 0 1
106.231 0 1
106.347 0 1
106.463 0 1
106.579 0 1
106.694 0 1
106.81 0 1
106.926 0 1
107.041 0 1
107.157 0 1
109.576 0 1
109.692 0 1
109.807 0 1
109.923 0 1
110.039 0 1
110.155 0 1
110.27 0 1
110.386 0 1
110.502 0 1
110.618 13608 116.653
110.735 14003 118.334
110.851 14160 118.996
110.967 14021 118.41
111.083 13584 116.55
111.199 12872 113.455
111.316 12552 112.036
111.432 12987 113.961
111.549 12828 113.261
111.665 12401 111.36
111.782 11994 109.517
111.898 11925 109.202
112.015 12543 111.996
112.132 13560 116.447
112.248 13307 115.356
112.365 13707 117.077
112.482 13132 114.595
112.599 14071 118.621
112.716 13762 117.312
112.832 13646 116.816
112.949 13591 116.58
113.066 13593 116.589
113.183 13221 114.983
113.3 13250 115.109
113.417 13410 115.802
113.534 13281 115.243
113.652 13388 115.707
113.769 13450 115.974
113.886 13452 115.983
114.003 13377 115.659
114.12 13348 115.534
114.238 13498 116.181
114.355 13355 115.564
114.472 13115 114.521
114.589 13133 114.599
114.707 12444 111.553
114.824 11608 107.74
114.942 12137 110.168
115.059 12293 110.874
115.176 12075 109.886
115.294 12162 110.281
115.411 11497 107.224
115.529 11980 109.453
115.646 12828 113.261
115.764 13410 115.802
115.881 13325 115.434
115.999 13468 116.052
116.116 13558 116.439
116.234 13516 116.258
116.351 13391 115.719
116.469 13240 115.065
116.586 13533 116.331
116.704 13385 115.694
116.821 13449 115.97
116.939 13677 116.949
117.056 13419 115.84
117.174 13506 116.215
117.291 13611 116.666
117.409 13581 116.538
117.526 13743 117.231
117.644 13845 117.665
117.761 13627 116.735
117.879 13851 117.69
117.996 13443 115.944
118.114 13556 116.43
118.231 13365 115.607
118.349 12567 112.103
118.466 12203 110.467
118.584 12626 112.365
118.701 12644 112.446
118.819 12379 111.261
118.936 11809 108.669
119.053 11257 106.099
119.171 11995 109.522
119.288 12780 113.049
119.405 13446 115.957
119.523 13422 115.853
119.64 13520 116.276
119.757 13649 116.829
119.875 13363 115.598
119.992 13329 115.451
120.109 13566 116.473
120.226 13452 115.983
120.343 13464 116.034
120.46 13515 116.254
120.578 13582 116.542
120.695 13760 117.303
120.812 13901 117.903
120.929 13934 118.042
121.046 13611 116.666
121.163 13743 117.231
121.279 13998 118.313
121.396 13843 117.656
121.513 13868 117.762
121.63 13919 117.979
121.747 13734 117.192
121.863 13800 117.473
121.98 13148 114.665
122.097 12655 112.494
122.213 12148 110.218
122.33 12320 110.995
122.446 12359 111.171
122.563 12096 109.982
122.679 11687 108.106
122.795 11387 106.71
122.912 12109 110.041
123.028 12736 112.854
123.144 13232 115.03
123.26 13222 114.987
123.377 0 1
123.493 0 1
123.609 0 1
123.725 0 1
123.84 0 1
123.956 0 1
124.072 0 1
124.188 0 1
124.303 0 1
124.419 0 1
126.852 0 1
126.968 0 1
127.083 0 1
127.199 0 1
127.315 0 1
127.431 0 1
127.547 0 1
127.663 0 1
127.779 0 1
127.895 0 1
128.011 0 1
128.127 0 1
128.243 0 1
128.359 14611 120.876
128.476 15032 122.605
128.592 14921 122.152
128.708 14823 121.75
128.825 15135 123.024
128.941 15113 122.935
129.058 15386 124.04
129.174 15420 124.177
129.291 15317 123.762
129.408 15381 124.02
129.524 15426 124.201
129.641 15521 124.583
129.758 15076 122.784
129.875 15278 123.604
129.992 15288 123.645
130.108 15259 123.527
130.225 15101 122.886
130.342 15123 122.976
130.459 14861 121.906
130.576 15750 125.499
130.693 15000 122.474
130.81 15097 122.87
130.928 14038 118.482
131.045 13347 115.529
131.162 13115 114.521
131.279 13615 116.683
131.396 13533 116.331
131.513 13303 115.339
131.631 12985 113.952
131.748 13509 116.228
131.865 14445 120.187
131.983 14866 121.926
132.1 15215 123.349
132.217 15152 123.093
132.335 15087 122.829
132.452 15411 124.141
132.57 15250 123.491
132.687 15131 123.008
132.804 15432 124.226
132.922 15006 122.499
133.039 15326 123.798
133.157 14917 122.135
133.274 15179 123.203
133.392 15215 123.349
133.509 15187 123.236
133.627 15094 122.858
133.744 15129 123
133.862 14936 122.213
133.979 14809 121.692
134.097 14943 122.242
134.214 14986 122.417
134.332 15116 122.947
134.449 14462 120.258
134.567 13185 114.826
134.684 13242 115.074
134.802 13775 117.367
134.919 13710 117.09
135.037 13301 115.33
135.154 12810 113.181
135.272 13319 115.408
135.389 14053 118.545
135.507 15164 123.142
135.624 15390 124.056
135.742 15607 124.928
135.859 15383 124.028
135.977 15588 124.852
136.094 15253 123.503
136.211 15265 123.552
136.329 15438 124.25
136.446 15396 124.081
136.564 15353 123.907
136.681 15427 124.205
136.798 15543 124.672
136.915 15343 123.867
137.033 15119 122.959
137.15 15179 123.203
137.267 15008 122.507
137.384 15127 122.992
137.502 15038 122.63
137.619 14798 121.647
137.736 14966 122.336
137.853 14551 120.628
137.97 15146 123.069
138.087 14156 118.979
138.204 13300 115.326
138.321 13247 115.096
138.438 13835 117.622
138.555 14010 118.364
138.672 13708 117.081
138.788 13523 116.288
138.905 13756 117.286
139.022 14280 119.499
139.139 15351 123.899
139.255 15616 124.964
139.372 15443 124.27
139.488 15415 124.157
139.605 15354 123.911
139.721 15156 123.11
139.838 15124 122.98
139.954 15062 122.727
140.071 14911 122.111
140.187 15655 125.12
140.303 15210 123.329
140.419 15123 122.976
140.535 15076 122.784
140.652 15015 122.536
140.768 0 1
140.884 0 1
141 0 1
141.115 0 1
141.231 0 1
141.347 0 1
141.463 0 1
141.578 0 1
141.694 0 1
144.104 0 1
144.219 0 1
144.335 0 1
144.45 0 1
144.566 0 1
144.682 0 1
144.798 0 1
144.914 0 1
145.03 0 1
145.146 9952 99.7597
145.262 10897 104.389
145.378 11036 105.052
145.494 11113 105.418
145.61 11077 105.247
145.726 11158 105.631
145.842 11216 105.906
145.959 11376 106.658
146.075 11512 107.294
146.192 12126 110.118
146.308 12034 109.7
146.425 12391 111.315
146.541 12664 112.534
146.658 12833 113.283
146.774 12731 112.832
146.891 12525 111.915
147.008 12482 111.723
147.125 11510 107.285
147.241 11839 108.807
147.358 11695 108.143
147.475 11584 107.629
147.592 11545 107.448
147.709 11108 105.394
147.826 11082 105.271
147.943 11580 107.61
148.06 12069 109.859
148.177 12015 109.613
148.294 12099 109.995
148.411 11925 109.202
148.528 11836 108.793
148.645 11444 106.977
148.762 11625 107.819
148.88 11645 107.912
148.997 11567 107.55
149.114 11939 109.266
149.231 11869 108.945
149.349 11773 108.503
149.466 12078 109.9
149.583 12100 110
149.701 12285 110.838
149.818 12386 111.292
149.935 12541 111.987
150.053 12531 111.942
150.17 12624 112.357
150.287 12915 113.644
150.405 13199 114.887
150.522 13056 114.263
150.64 12749 112.911
150.757 12271 110.775
150.875 11624 107.815
150.992 11414 106.836
151.11 11539 107.42
151.227 11488 107.182
151.344 10789 103.87
151.462 10438 102.167
151.579 10986 104.814
151.697 11489 107.187
151.814 11740 108.351
151.932 12188 110.399
152.049 12486 111.741
152.167 12189 110.404
152.284 12448 111.571
152.402 12185 110.386
152.519 12616 112.321
152.636 12467 111.656
152.754 12586 112.187
152.871 12698 112.685
152.989 12891 113.539
153.106 13010 114.061
153.223 13346 115.525
153.341 13048 114.228
153.458 13188 114.839
153.575 13202 114.9
153.693 13323 115.425
153.81 13523 116.288
153.927 13443 115.944
154.044 13519 116.271
154.162 13236 115.048
154.279 12880 113.49
154.396 12081 109.914
154.513 11631 107.847
154.63 11856 108.885
154.747 11944 109.289
154.864 11994 109.517
154.981 11711 108.217
155.098 11797 108.614
155.215 12273 110.784
155.332 12856 113.384
155.449 13097 114.442
155.566 13395 115.737
155.683 13339 115.495
155.8 13437 115.918
155.917 13593 116.589
156.033 13580 116.533
156.15 0 1
156.267 0 1
156.383 0 1
156.5 0 1
156.617 0 1
156.733 0 1
156.85 0 1
156.966 0 1
157.082 0 1
157.199 0 1
157.315 0 1
157.431 0 1
157.547 0 1
157.664 0 1
157.78 0 1
157.896 0 1
158.012 0 1
158.128 0 1
158.244 0 1
158.359 0 1
158.475 0 1
158.591 0 1
158.706 0 1
