
6.15755 0 1
6.2731 0 1
6.3887 0 1
6.50437 0 1
6.62009 0 1
6.73587 0 1
6.8517 0 1
6.96759 0 1
7.08353 0 1
7.19952 0 1
7.31557 0 1
7.43166 0 1
7.54781 0 1
7.664 0 1
7.78024 0 1
7.89653 0 1
8.01286 0 1
8.12924 0 1
8.24567 0 1
8.36213 0 1
8.47864 0 1
8.59519 0 1
8.71178 0 1
8.82841 0 1
8.94508 0 1
9.06179 0 1
9.17853 0 1
9.29531 0 1
9.41212 0 1
9.52897 0 1
9.64584 0 1
9.76276 0 1
9.8797 0 1
9.99667 0 1
10.1137 0 1
10.2307 0 1
10.3478 0 1
10.4648 0 1
10.5819 0 1
10.6991 0 1
10.8162 0 1
10.9334 0 1
11.0506 0 1
11.1678 0 1
11.285 0 1
11.4023 0 1
11.5196 0 1
11.6369 0 1
11.7542 0 1
11.8715 0 1
11.9888 0 1
12.1062 0 1
12.2235 0 1
12.3409 0 1
12.4582 0 1
12.5756 0 1
12.693 0 1
12.8104 0 1
12.9278 0 1
13.0452 0 1
13.1626 0 1
13.28 0 1
13.3974 0 1
13.5149 0 1
13.6323 0 1
13.7497 0 1
13.8671 0 1
13.9845 0 1
14.1019 0 1
14.2193 0 1
14.3367 0 1
14.4541 0 1
14.5714 0 1
14.6888 0 1
14.8062 0 1
14.9235 0 1
15.0408 0 0
15.1581 0 0
15.2755 0 0
15.3927 0 0
15.51 0 0
15.6273 0 0
15.7445 0 0
15.8617 0 0
15.9789 0 0
16.0961 0 0
16.2132 0 0
16.3304 0 0
16.4475 0 0
16.5646 0 0
16.6816 0 0
16.7986 0 0
16.9156 0 0
17.0326 0 0
17.1496 0 0
17.2665 0 0
17.3833 0 0
17.5002 0 0
17.617 0 0
17.7338 0 0
17.8505 0 0
17.9672 0 0
18.0839 0 0
18.2005 0 0
18.3171 0 0
18.4337 0 0
18.5502 0 0
18.6666 0 0
18.7831 0 0
18.8994 0 0
19.0158 0 0
19.1321 0 0
19.2483 0 0
19.3645 0 0
19.4806 0 0
19.5967 0 0
19.7128 0 0
19.8288 0 0
19.9447 0 0
20.0606 0 1
20.1764 0 1
20.2922 0 1
20.4079 0 1
20.5236 0 1
20.6392 0 1
20.7548 0 1
20.8702 0 1
23.3078 0 1
23.4233 0 1
23.539 0 1
23.6547 0 1
23.7704 0 1
23.8862 0 1
24.0021 0 1
24.118 0 1
24.234 0 1
24.35 0 1
24.4661 16086 126.831
24.5822 16036 126.633
24.6984 15925 126.194
24.8146 15453 124.31
24.9309 15250 123.491
25.0472 14942 122.237
25.1636 15006 122.499
25.28 15213 123.341
25.3965 15301 123.697
25.513 15371 123.98
25.6296 16317 127.738
25.7462 16780 129.538
25.8628 16709 129.263
25.9795 16676 129.136
26.0962 16727 129.333
26.213 16863 129.858
26.3298 16543 128.62
26.4466 16086 126.831
26.5635 15619 124.976
26.6804 15348 123.887
26.7973 15399 124.093
26.9143 15679 125.216
27.0313 16317 127.738
27.1483 16459 128.293
27.2653 16906 130.023
27.3824 16993 130.357
27.4996 16950 130.192
27.6167 17019 130.457
27.7339 16744 129.399
27.8511 16166 127.146
27.9683 16195 127.26
28.0855 15850 125.897
28.2028 15632 125.028
28.3201 14635 120.975
28.4374 14681 121.165
28.5547 14316 119.649
28.6721 13946 118.093
28.7894 14056 118.558
28.9068 14194 119.139
29.0242 14261 119.419
29.1416 14408 120.033
29.259 14770 121.532
29.3764 15059 122.715
29.4939 15130 123.004
29.6113 15255 123.511
29.7288 15024 122.572
29.8463 14987 122.421
29.9638 14607 120.859
30.0812 14182 119.088
30.1987 14082 118.668
30.3162 14114 118.802
30.4337 14691 121.206
30.5512 14889 122.02
30.6687 15381 124.02
30.7862 16084 126.823
30.9037 15741 125.463
31.0212 15924 126.19
31.1387 16326 127.773
31.2562 15949 126.289
31.3737 15764 125.555
31.4912 15380 124.016
31.6087 15176 123.191
31.7262 15144 123.061
31.8436 14776 121.557
31.9611 14256 119.398
32.0785 13814 117.533
32.1959 13715 117.111
32.3134 13420 115.845
32.4308 13681 116.966
32.5482 13918 117.975
32.6655 14021 118.41
32.7829 14330 119.708
32.9002 14749 121.445
33.0176 14501 120.42
33.1349 14799 121.651
33.2522 15007 122.503
33.3694 14737 121.396
33.4867 14783 121.585
33.6039 14718 121.318
33.7211 14259 119.411
33.8383 13906 117.924
33.9554 13892 117.864
34.0725 14167 119.025
34.1896 14634 120.971
34.3067 15185 123.227
34.4237 15730 125.419
34.5407 15638 125.052
34.6577 15915 126.155
34.7746 15946 126.277
34.8915 15927 126.202
35.0084 15859 125.933
35.1252 15357 123.923
35.242 15183 123.219
35.3587 15231 123.414
35.4755 14799 121.651
35.5921 14476 120.316
35.7088 14227 119.277
35.8254 13418 115.836
35.9419 13225 115
36.0584 13361 115.59
36.1749 13297 115.313
36.2913 13586 116.559
36.4077 13478 116.095
36.524 13687 116.991
36.6403 14005 118.343
36.7565 14247 119.361
36.8727 14220 119.248
36.9889 14420 120.083
37.1049 14211 119.21
37.221 0 1
37.3369 0 1
37.4529 0 1
37.5687 0 1
37.6845 0 1
37.8003 0 1
37.916 0 1
38.0316 0 1
38.1472 0 1
40.5851 0 1
40.7008 0 1
40.8164 0 1
40.9322 0 1
41.048 0 1
41.1639 0 1
41.2798 0 1
41.3958 0 1
41.5118 0 1
41.6279 0 1
41.744 11656 107.963
41.8602 12044 109.745
41.9765 12365 111.198
42.0928 12190 110.408
42.2091 12364 111.194
42.3255 12443 111.548
42.4419 11960 109.362
42.5584 11742 108.361
42.675 11594 107.675
42.7915 11833 108.78
42.9081 12286 110.842
43.0248 12695 112.672
43.1415 13043 114.206
43.2582 13258 115.143
43.375 13464 116.034
43.4918 13832 117.61
43.6087 13420 115.845
43.7256 13218 114.97
43.8425 13048 114.228
43.9595 13083 114.381
44.0765 12670 112.561
44.1935 12500 111.803
44.3106 12325 111.018
44.4277 11773 108.503
44.5448 11039 105.067
44.6619 10402 101.99
44.7791 10470 102.323
44.8963 10343 101.701
45.0136 10529 102.611
45.1308 10493 102.435
45.2481 10562 102.772
45.3654 10724 103.557
45.4827 10875 104.283
45.6001 10973 104.752
45.7174 10910 104.451
45.8348 10808 103.962
45.9522 10638 103.141
46.0697 10225 101.119
46.1871 9778 98.8838
46.3046 9849 99.2421
46.422 10049 100.245
46.5395 10422 102.088
46.657 10841 104.12
46.7745 11119 105.447
46.892 11204 105.849
47.0096 11285 106.231
47.1271 11274 106.179
47.2446 11087 105.295
47.3622 11004 104.9
47.4797 10810 103.971
47.5973 10588 102.898
47.7149 10445 102.201
47.8324 10153 100.762
47.95 9754 98.7623
48.0675 9271 96.286
48.1851 8656 93.0376
48.3027 8432 91.8259
48.4202 8332 91.2798
48.5378 8367 91.4713
48.6554 8533 92.3742
48.7729 8526 92.3363
48.8904 8957 94.6414
49.008 9101 95.3992
49.1255 9207 95.9531
49.243 9258 96.2185
49.3605 9176 95.7914
49.478 9160 95.7079
49.5955 8909 94.3875
49.713 8888 94.2762
49.8304 9024 94.9947
49.9479 9222 96.0312
50.0653 9944 99.7196
50.1827 10370 101.833
50.3001 10935 104.571
50.4175 11447 106.991
50.5348 11543 107.438
50.6521 12328 111.032
50.7694 12363 111.189
50.8867 12451 111.584
51.004 12884 113.508
51.1212 12804 113.155
51.2384 12806 113.164
51.3556 12823 113.239
51.4727 12494 111.777
51.5899 11954 109.334
51.707 11545 107.448
51.824 11061 105.171
51.9411 11393 106.738
52.0581 11261 106.118
52.175 11582 107.62
52.2919 12032 109.69
52.4088 12393 111.324
52.5257 12393 111.324
52.6425 12527 111.924
52.7593 12669 112.557
52.876 13114 114.516
52.9927 13295 115.304
53.1094 12990 113.974
53.226 12760 112.96
53.3426 12604 112.268
53.4591 12671 112.566
53.5756 13326 115.438
53.692 14250 119.373
53.8084 14806 121.68
53.9248 15301 123.697
54.0411 15641 125.064
54.1573 16315 127.73
54.2735 0 1
54.3896 0 1
54.5057 0 1
54.6217 0 1
54.7377 0 1
54.8537 0 1
54.9695 0 1
55.0853 0 1
55.2011 0 1
55.3168 0 1
55.4324 0 1
57.824 0 1
57.9396 0 1
58.0553 0 1
58.1711 0 1
58.2869 0 1
58.4028 0 1
58.5187 0 1
58.6347 0 1
58.7508 0 1
58.8669 0 1
58.983 17716 133.101
59.0992 18245 135.074
59.2155 18805 137.131
59.3318 19597 139.989
59.4482 19469 139.531
59.5646 19478 139.564
59.681 19677 140.275
59.7975 19228 138.665
59.9141 19060 138.058
60.0306 18081 134.466
60.1473 17107 130.794
60.2639 16457 128.285
60.3807 15199 123.284
60.4974 14842 121.828
60.6142 14241 119.336
60.731 14174 119.055
60.8479 14744 121.425
60.9648 15062 122.727
61.0818 15670 125.18
61.1987 15730 125.419
61.3158 15768 125.571
61.4328 15580 124.82
61.5499 15492 124.467
61.667 15238 123.442
61.7841 14864 121.918
61.9013 14530 120.54
62.0185 14774 121.548
62.1357 15194 123.264
62.253 16063 126.74
62.3702 16822 129.7
62.4875 17448 132.091
62.6049 17730 133.154
62.7222 18306 135.3
62.8396 18762 136.974
62.9569 18781 137.044
63.0743 18879 137.401
63.1918 18402 135.654
63.3092 18148 134.715
63.4267 17660 132.891
63.5441 16890 129.962
63.6616 15966 126.357
63.7791 15167 123.154
63.8966 14087 118.689
64.0142 13383 115.685
64.1317 13438 115.922
64.2492 13130 114.586
64.3668 13284 115.256
64.4843 13996 118.305
64.6019 13956 118.136
64.7195 14365 119.854
64.837 14481 120.337
64.9546 14746 121.433
65.0722 14477 120.32
65.1898 13982 118.246
65.3074 13962 118.161
65.4249 13382 115.681
65.5425 13238 115.057
65.6601 13672 116.927
65.7777 14640 120.996
65.8952 15184 123.223
66.0128 16041 126.653
66.1304 16629 128.953
66.2479 17024 130.476
66.3655 17544 132.454
66.483 17890 133.754
66.6005 18084 134.477
66.718 17835 133.548
66.8355 17796 133.402
66.953 17324 131.621
67.0705 17069 130.648
67.1879 16128 126.996
67.3054 15347 123.883
67.4228 14032 118.457
67.5402 13046 114.219
67.6576 12592 112.214
67.7749 12349 111.126
67.8923 12591 112.21
68.0096 12854 113.375
68.1269 13650 116.833
68.2442 14186 119.105
68.3614 14662 121.087
68.4787 14951 122.274
68.5958 15006 122.499
68.713 14929 122.184
68.8302 14594 120.806
68.9473 14181 119.084
69.0643 13872 117.779
69.1814 13689 117
69.2984 13885 117.835
69.4154 14858 121.893
69.5323 15871 125.98
69.6492 16795 129.596
69.7661 17542 132.446
69.8829 17938 133.933
69.9997 18601 136.385
70.1165 18985 137.786
70.2332 19488 139.599
70.3499 19165 138.438
70.4665 18987 137.793
70.5831 18641 136.532
70.6996 18129 134.644
70.8161 17264 131.393
70.9326 16604 128.857
71.049 15570 124.78
71.1653 14277 119.486
71.2817 13310 115.369
71.3979 12712 112.748
71.5141 12575 112.138
71.6303 12919 113.662
71.7464 12654 112.49
71.8624 0 1
71.9784 0 1
72.0944 0 1
72.2102 0 1
72.3261 0 1
72.4418 0 1
72.5575 0 1
72.6732 0 1
75.1054 0 1
75.2209 0 1
75.3365 0 1
75.4521 0 1
75.5678 0 1
75.6835 0 1
75.7993 0 1
75.9151 0 1
76.031 0 1
76.147 16786 129.561
76.263 16940 130.154
76.3791 16311 127.715
76.4952 14958 122.303
76.6113 14364 119.85
76.7276 13920 117.983
76.8438 13962 118.161
76.9601 14092 118.71
77.0765 15065 122.74
77.1929 15702 125.308
77.3093 16198 127.271
77.4258 16553 128.658
77.5423 16348 127.859
77.6589 16634 128.973
77.7755 16283 127.605
77.8921 15532 124.627
78.0088 15388 124.048
78.1256 14453 120.221
78.2423 14525 120.52
78.3591 14664 121.095
78.4759 15691 125.264
78.5928 17115 130.824
78.7097 18094 134.514
78.8266 19569 139.889
78.9436 18739 136.89
79.0606 19743 140.51
79.1776 19811 140.752
79.2946 20002 141.428
79.4117 19703 140.367
79.5288 19533 139.761
79.6459 19044 138
79.7631 18472 135.912
79.8802 17168 131.027
79.9974 16320 127.75
80.1147 15304 123.709
80.2319 13778 117.38
80.3491 13118 114.534
80.4664 12959 113.838
80.5837 13269 115.191
80.701 13600 116.619
80.8183 14280 119.499
80.9357 14975 122.372
81.053 15418 124.169
81.1704 15413 124.149
81.2877 15213 123.341
81.4051 14750 121.45
81.5225 14496 120.399
81.6399 13534 116.336
81.7573 13332 115.464
81.8747 12861 113.406
81.9922 13334 115.473
82.1096 13874 117.788
82.227 15207 123.317
82.3444 16162 127.13
82.4619 17013 130.434
82.5793 17014 130.438
82.6967 18195 134.889
82.8142 17739 133.188
82.9316 17971 134.056
83.049 17514 132.34
83.1664 17336 131.666
83.2838 16836 129.754
83.4012 16261 127.519
83.5186 15266 123.556
83.636 14353 119.804
83.7534 13656 116.859
83.8708 12333 111.054
83.9881 11704 108.185
84.1055 11948 109.307
84.2228 11948 109.307
84.3401 12407 111.387
84.4575 13127 114.573
84.5747 14110 118.786
84.692 14759 121.487
84.8093 14685 121.182
84.9265 14451 120.212
85.0437 13845 117.665
85.1609 13244 115.083
85.2781 12842 113.323
85.3952 12473 111.683
85.5123 12199 110.449
85.6294 13189 114.843
85.7465 14191 119.126
85.8636 15461 124.342
85.9806 16473 128.347
86.0976 17189 131.107
86.2145 18078 134.454
86.3315 18146 134.707
86.4484 19294 138.903
86.5652 19025 137.931
86.682 19071 138.098
86.7988 18695 136.73
86.9156 18039 134.309
87.0323 17335 131.662
87.149 16550 128.647
87.2657 15613 124.952
87.3823 14388 119.95
87.4988 13739 117.213
87.6154 13536 116.344
87.7318 13628 116.739
87.8483 14367 119.862
87.9647 15211 123.333
88.081 16097 126.874
88.1973 16909 130.035
88.3136 17060 130.614
88.4298 16688 129.182
88.546 16133 127.016
88.6621 15521 124.583
88.7781 14391 119.962
88.8942 0 1
89.0101 0 1
89.126 0 1
89.2419 0 1
89.3577 0 1
89.4734 0 1
89.5891 0 1
89.7047 0 1
89.8203 0 1
89.9358 0 1
92.3269 0 1
92.4424 0 1
92.558 0 1
92.6736 0 1
92.7893 0 1
92.905 0 1
93.0208 0 1
93.1366 0 1
93.2525 0 1
93.3685 0 1
93.4845 0 1
93.6005 19236 138.694
93.7167 20548 143.346
93.8328 20837 144.35
93.949 21331 146.051
94.0653 21750 147.479
94.1816 21270 145.842
94.2979 20986 144.865
94.4143 20865 144.447
94.5307 21399 146.284
94.6472 22117 148.718
94.7637 23938 154.719
94.8803 26779 163.643
94.9969 28836 169.812
95.1135 31008 176.091
95.2302 32728 180.909
95.3469 34137 184.762
95.4637 35397 188.141
95.5805 36920 192.146
95.6973 37623 193.966
95.8142 38889 197.203
95.9311 39123 197.795
96.048 38596 196.459
96.1649 38276 195.643
96.2819 37629 193.982
96.3989 36175 190.197
96.516 34577 185.949
96.633 32636 180.654
96.7501 31562 177.657
96.8673 31594 177.747
96.9844 33598 183.298
97.1016 36104 190.011
97.2188 39036 197.575
97.336 41215 203.015
97.4532 41957 204.834
97.5704 42403 205.92
97.6877 41340 203.322
97.805 39863 199.657
97.9223 37008 192.375
98.0396 35087 187.315
98.1569 33716 183.619
98.2743 33012 181.692
98.3916 33157 182.091
98.509 36090 189.974
98.6264 38797 196.97
98.7438 40890 202.213
98.8612 42744 206.746
98.9786 44145 210.107
99.096 44761 211.568
99.2134 45465 213.225
99.3308 45550 213.424
99.4482 46000 214.476
99.5656 45643 213.642
99.6831 44455 210.844
99.8005 42882 207.08
99.9179 42333 205.75
100.035 40325 200.811
100.153 37497 193.641
100.27 34677 186.218
100.388 33578 183.243
100.505 34954 186.96
100.622 37011 192.382
100.74 39436 198.585
100.857 41514 203.75
100.975 42183 205.385
101.092 41928 204.763
101.209 41952 204.822
101.327 40964 202.396
101.444 38806 196.992
101.561 35796 189.198
101.679 33870 184.038
101.796 32784 181.064
101.913 32043 179.006
102.03 33962 184.288
102.148 36594 191.296
102.265 40802 201.995
102.382 38427 196.028
102.499 41175 202.916
102.616 41414 203.504
102.733 41742 204.309
102.851 41637 204.051
102.968 41221 203.03
103.085 40334 200.833
103.202 38790 196.952
103.319 36965 192.263
103.436 35197 187.609
103.552 32560 180.444
103.669 29821 172.688
103.786 27171 164.836
103.903 25634 160.106
104.02 25780 160.562
104.137 25860 160.81
104.253 27320 165.288
104.37 27046 164.457
104.487 26979 164.253
104.603 26500 162.788
104.72 25047 158.262
104.836 23976 154.842
104.953 22131 148.765
105.069 20258 142.331
105.186 19131 138.315
105.302 18864 137.346
105.418 18835 137.241
105.535 19874 140.975
105.651 21206 145.623
105.767 22121 148.731
105.883 22978 151.585
105.999 23409 153
106.115 0 1
106.231 0 1
106.347 0 1
106.463 0 1
106.579 0 1
106.694 0 1
106.81 0 1
106.926 0 1
107.041 0 1
107.157 0 1
109.576 0 1
109.692 0 1
109.807 0 1
109.923 0 1
110.039 0 1
110.155 0 1
110.27 0 1
110.386 0 1
110.502 0 1
110.618 16709 129.263
110.735 18727 136.847
110.851 19719 140.424
110.967 20775 144.135
111.083 21009 144.945
111.199 21325 146.031
111.316 21395 146.27
111.432 21530 146.731
111.549 21389 146.25
111.665 20867 144.454
111.782 20213 142.172
111.898 19456 139.485
112.015 18653 136.576
112.132 17330 131.643
112.248 16068 126.76
112.365 15380 124.016
112.482 15024 122.572
112.599 15226 123.394
112.716 15983 126.424
112.832 16704 129.244
112.949 16624 128.934
113.066 16783 129.549
113.183 16626 128.942
113.3 16191 127.244
113.417 15717 125.367
113.534 14839 121.815
113.652 15045 122.658
113.769 14612 120.88
113.886 14637 120.983
114.003 15317 123.762
114.12 16356 127.891
114.238 17787 133.368
114.355 18747 136.92
114.472 19923 141.149
114.589 20282 142.415
114.707 20301 142.482
114.824 20647 143.691
114.942 20899 144.565
115.059 20895 144.551
115.176 20843 144.371
115.294 20426 142.92
115.411 19429 139.388
115.529 19129 138.308
115.646 18055 134.369
115.764 17102 130.775
115.881 16266 127.538
115.999 15745 125.479
116.116 16032 126.618
116.234 16471 128.339
116.351 17010 130.422
116.469 17088 130.721
116.586 17112 130.813
116.704 17196 131.134
116.821 16743 129.395
116.939 16597 128.829
117.056 16206 127.303
117.174 15865 125.956
117.291 15694 125.276
117.409 15692 125.268
117.526 16255 127.495
117.644 17171 131.038
117.761 18488 135.971
117.879 19896 141.053
117.996 20412 142.871
118.114 21439 146.421
118.231 21988 148.284
118.349 21654 147.153
118.466 22110 148.694
118.584 22272 149.238
118.701 22404 149.68
118.819 21863 147.861
118.936 21314 145.993
119.053 20658 143.729
119.171 19850 140.89
119.288 19219 138.633
119.405 18081 134.466
119.523 16900 130
119.64 16748 129.414
119.757 16672 129.12
119.875 17021 130.465
119.992 17578 132.582
120.109 17816 133.477
120.226 17711 133.083
120.343 17442 132.068
120.46 17188 131.103
120.578 16998 130.376
120.695 16574 128.74
120.812 16333 127.801
120.929 16110 126.925
121.046 16257 127.503
121.163 16516 128.515
121.279 16853 129.819
121.396 18265 135.148
121.513 19498 139.635
121.63 20350 142.653
121.747 20887 144.523
121.863 21453 146.468
121.98 21823 147.726
122.097 21845 147.801
122.213 21963 148.199
122.33 21906 148.007
122.446 21932 148.095
122.563 21383 146.229
122.679 20805 144.239
122.795 20441 142.972
122.912 19998 141.414
123.028 19228 138.665
123.144 18019 134.235
123.26 17056 130.599
123.377 0 1
123.493 0 1
123.609 0 1
123.725 0 1
123.84 0 1
123.956 0 1
124.072 0 1
124.188 0 1
124.303 0 1
124.419 0 1
126.852 0 1
126.968 0 1
127.083 0 1
127.199 0 1
127.315 0 1
127.431 0 1
127.547 0 1
127.663 0 1
127.779 0 1
127.895 0 1
128.011 0 1
128.127 0 1
128.243 0 1
128.359 20747 144.038
128.476 19431 139.395
128.592 18924 137.565
128.708 18972 137.739
128.825 19303 138.935
128.941 19742 140.506
129.058 20070 141.669
129.174 19749 140.531
129.291 19785 140.659
129.408 19263 138.791
129.524 19173 138.467
129.641 18427 135.746
129.758 18306 135.3
129.875 17965 134.034
129.992 17942 133.948
130.108 17945 133.959
130.225 18431 135.761
130.342 19677 140.275
130.459 19953 141.255
130.576 21821 147.719
130.693 21849 147.814
130.81 22107 148.684
130.928 22285 149.282
131.045 22249 149.161
131.162 22232 149.104
131.279 22319 149.395
131.396 22142 148.802
131.513 21766 147.533
131.631 21281 145.88
131.748 20468 143.066
131.865 20063 141.644
131.983 18935 137.605
132.1 18116 134.596
132.217 17980 134.09
132.335 18494 135.993
132.452 18831 137.226
132.57 18893 137.452
132.687 18735 136.876
132.804 19578 139.921
132.922 18734 136.872
133.039 18692 136.719
133.157 18261 135.133
133.274 17875 133.697
133.392 17641 132.819
133.509 17473 132.185
133.627 17537 132.427
133.744 18013 134.213
133.862 18668 136.631
133.979 19676 140.271
134.097 20330 142.583
134.214 21095 145.241
134.332 20814 144.271
134.449 21555 146.816
134.567 21668 147.201
134.684 22044 148.472
134.802 22095 148.644
134.919 21903 147.997
135.037 22166 148.883
135.154 21521 146.7
135.272 21284 145.89
135.389 20680 143.805
135.507 19842 140.862
135.624 18930 137.586
135.742 18773 137.015
135.859 18644 136.543
135.977 19227 138.661
136.094 19716 140.414
136.211 19773 140.616
136.329 19702 140.364
136.446 19584 139.943
136.564 19569 139.889
136.681 19141 138.351
136.798 18652 136.572
136.915 18361 135.503
137.033 18224 134.996
137.15 18223 134.993
137.267 18271 135.17
137.384 18505 136.033
137.502 19384 139.226
137.619 19998 141.414
137.736 20805 144.239
137.853 20631 143.635
137.97 21213 145.647
138.087 22052 148.499
138.204 21927 148.078
138.321 22550 150.167
138.438 22851 151.165
138.555 22582 150.273
138.672 22520 150.067
138.788 22108 148.688
138.905 22234 149.111
139.022 21315 145.997
139.139 20494 143.157
139.255 19775 140.624
139.372 19009 137.873
139.488 19210 138.6
139.605 19834 140.833
139.721 20109 141.806
139.838 20356 142.674
139.954 19977 141.34
140.071 19697 140.346
140.187 19525 139.732
140.303 18796 137.099
140.419 18890 137.441
140.535 18154 134.737
140.652 17880 133.716
140.768 0 1
140.884 0 1
141 0 1
141.115 0 1
141.231 0 1
141.347 0 1
141.463 0 1
141.578 0 1
141.694 0 1
144.104 0 1
144.219 0 1
144.335 0 1
144.45 0 1
144.566 0 1
144.682 0 1
144.798 0 1
144.914 0 1
145.03 0 1
145.146 18687 136.7
145.262 18446 135.816
145.378 18354 135.477
145.494 18034 134.291
145.61 17636 132.801
145.726 17469 132.17
145.842 17496 132.272
145.959 17660 132.891
146.075 17975 134.071
146.192 18585 136.327
146.308 18976 137.753
146.425 19612 140.043
146.541 19455 139.481
146.658 20120 141.845
146.774 20563 143.398
146.891 20654 143.715
147.008 21119 145.324
147.125 21049 145.083
147.241 21038 145.045
147.358 20561 143.391
147.475 20379 142.755
147.592 20129 141.877
147.709 19370 139.176
147.826 18608 136.411
147.943 18337 135.414
148.06 18147 134.711
148.177 18660 136.602
148.294 19028 137.942
148.411 19213 138.611
148.528 19172 138.463
148.645 18737 136.883
148.762 18848 137.288
148.88 18389 135.606
148.997 17759 133.263
149.114 18695 136.73
149.231 17958 134.007
149.349 17544 132.454
149.466 17108 130.798
149.583 17239 131.297
149.701 17406 131.932
149.818 18050 134.35
149.935 19054 138.036
150.053 19159 138.416
150.17 19686 140.307
150.287 20085 141.722
150.405 20308 142.506
150.522 20932 144.679
150.64 21005 144.931
150.757 21542 146.772
150.875 21773 147.557
150.992 21552 146.806
151.11 20944 144.72
151.227 20571 143.426
151.344 20132 141.887
151.462 19459 139.496
151.579 19438 139.42
151.697 19135 138.329
151.814 19993 141.397
151.932 20301 142.482
152.049 20690 143.84
152.167 20644 143.68
152.284 20652 143.708
152.402 20522 143.255
152.519 20234 142.246
152.636 20011 141.46
152.754 19538 139.778
152.871 19529 139.746
152.989 19167 138.445
153.106 18954 137.674
153.223 18879 137.401
153.341 19669 140.246
153.458 20074 141.683
153.575 20547 143.342
153.693 21018 144.976
153.81 21651 147.143
153.927 21687 147.265
154.044 22694 150.645
154.162 23011 151.694
154.279 23338 152.768
154.396 23452 153.14
154.513 23695 153.932
154.63 23408 152.997
154.747 23288 152.604
154.864 22681 150.602
154.981 22321 149.402
155.098 21585 146.918
155.215 20903 144.579
155.332 21059 145.117
155.449 21481 146.564
155.566 21937 148.111
155.683 21758 147.506
155.8 21764 147.526
155.917 21441 146.427
156.033 21457 146.482
156.15 0 1
156.267 0 1
156.383 0 1
156.5 0 1
156.617 0 1
156.733 0 1
156.85 0 1
156.966 0 1
157.082 0 1
157.199 0 1
157.315 0 1
157.431 0 1
157.547 0 1
157.664 0 1
157.78 0 1
157.896 0 1
158.012 0 1
158.128 0 1
158.244 0 1
158.359 0 1
158.475 0 1
158.591 0 1
158.706 0 1
