
6.15755 0 1
6.2731 0 1
6.3887 0 1
6.50437 0 1
6.62009 0 1
6.73587 0 1
6.8517 0 1
6.96759 0 1
7.08353 0 1
7.19952 0 1
7.31557 0 1
7.43166 0 1
7.54781 0 1
7.664 0 1
7.78024 0 1
7.89653 0 1
8.01286 0 1
8.12924 0 1
8.24567 0 1
8.36213 0 1
8.47864 0 1
8.59519 0 1
8.71178 0 1
8.82841 0 1
8.94508 0 1
9.06179 0 1
9.17853 0 1
9.29531 0 1
9.41212 0 1
9.52897 0 1
9.64584 0 1
9.76276 0 1
9.8797 0 1
9.99667 0 1
10.1137 0 1
10.2307 0 1
10.3478 0 1
10.4648 0 1
10.5819 0 1
10.6991 0 1
10.8162 0 1
10.9334 0 1
11.0506 0 1
11.1678 0 1
11.285 0 1
11.4023 0 1
11.5196 0 1
11.6369 0 1
11.7542 0 1
11.8715 0 1
11.9888 0 1
12.1062 0 1
12.2235 0 1
12.3409 0 1
12.4582 0 1
12.5756 0 1
12.693 0 1
12.8104 0 1
12.9278 0 1
13.0452 0 1
13.1626 0 1
13.28 0 1
13.3974 0 1
13.5149 0 1
13.6323 0 1
13.7497 0 1
13.8671 0 1
13.9845 0 1
14.1019 0 1
14.2193 0 1
14.3367 0 1
14.4541 0 1
14.5714 0 1
14.6888 0 1
14.8062 0 1
14.9235 0 1
15.0408 0 0
15.1581 0 0
15.2755 0 0
15.3927 0 0
15.51 0 0
15.6273 0 0
15.7445 0 0
15.8617 0 0
15.9789 0 0
16.0961 0 0
16.2132 0 0
16.3304 0 0
16.4475 0 0
16.5646 0 0
16.6816 0 0
16.7986 0 0
16.9156 0 0
17.0326 0 0
17.1496 0 0
17.2665 0 0
17.3833 0 0
17.5002 0 0
17.617 0 0
17.7338 0 0
17.8505 0 0
17.9672 0 0
18.0839 0 0
18.2005 0 0
18.3171 0 0
18.4337 0 0
18.5502 0 0
18.6666 0 0
18.7831 0 0
18.8994 0 0
19.0158 0 0
19.1321 0 0
19.2483 0 0
19.3645 0 0
19.4806 0 0
19.5967 0 0
19.7128 0 0
19.8288 0 0
19.9447 0 0
20.0606 0 1
20.1764 0 1
20.2922 0 1
20.4079 0 1
20.5236 0 1
20.6392 0 1
20.7548 0 1
20.8702 0 1
23.3078 0 1
23.4233 0 1
23.539 0 1
23.6547 0 1
23.7704 0 1
23.8862 0 1
24.0021 0 1
24.118 0 1
24.234 0 1
24.35 0 1
24.4661 1215 34.8569
24.5822 1228 35.0428
24.6984 1188 34.4674
24.8146 1219 34.9142
24.9309 1199 34.6266
25.0472 1195 34.5688
25.1636 1201 34.6554
25.28 1250 35.3553
25.3965 1218 34.8999
25.513 1305 36.1248
25.6296 1247 35.3129
25.7462 1392 37.3095
25.8628 1350 36.7423
25.9795 1409 37.5366
26.0962 1474 38.3927
26.213 1429 37.8021
26.3298 1437 37.9078
26.4466 1469 38.3275
26.5635 1371 37.027
26.6804 1303 36.0971
26.7973 1324 36.3868
26.9143 1260 35.4965
27.0313 1277 35.7351
27.1483 1397 37.3765
27.2653 1348 36.7151
27.3824 1482 38.4968
27.4996 1424 37.7359
27.6167 1432 37.8418
27.7339 1327 36.428
27.8511 1407 37.51
27.9683 1348 36.7151
28.0855 1342 36.6333
28.2028 1466 38.2884
28.3201 1421 37.6962
28.4374 1399 37.4032
28.5547 1371 37.027
28.6721 1378 37.1214
28.7894 1417 37.6431
28.9068 1367 36.973
29.0242 1415 37.6165
29.1416 1398 37.3898
29.259 1414 37.6032
29.3764 1496 38.6782
29.4939 1467 38.3014
29.6113 1456 38.1576
29.7288 1499 38.7169
29.8463 1503 38.7685
29.9638 1427 37.7757
30.0812 1432 37.8418
30.1987 1345 36.6742
30.3162 1299 36.0416
30.4337 1317 36.2905
30.5512 1329 36.4555
30.6687 1254 35.4119
30.7862 1431 37.8286
30.9037 1304 36.1109
31.0212 1447 38.0395
31.1387 1371 37.027
31.2562 1410 37.55
31.3737 1300 36.0555
31.4912 1363 36.9188
31.6087 1309 36.1801
31.7262 1274 35.6931
31.8436 1311 36.2077
31.9611 1288 35.8887
32.0785 1216 34.8712
32.1959 1244 35.2704
32.3134 1277 35.7351
32.4308 1205 34.7131
32.5482 1254 35.4119
32.6655 1211 34.7994
32.7829 1243 35.2562
32.9002 1293 35.9583
33.0176 1358 36.8511
33.1349 1359 36.8646
33.2522 1349 36.7287
33.3694 1256 35.4401
33.4867 1280 35.7771
33.6039 1260 35.4965
33.7211 1261 35.5106
33.8383 1251 35.3695
33.9554 1198 34.6121
34.0725 1088 32.9848
34.1896 1118 33.4365
34.3067 1207 34.7419
34.4237 1179 34.3366
34.5407 1152 33.9411
34.6577 1269 35.623
34.7746 1216 34.8712
34.8915 1210 34.7851
35.0084 1189 34.4819
35.1252 1176 34.2929
35.242 1245 35.2846
35.3587 1163 34.1028
35.4755 1264 35.5528
35.5921 1195 34.5688
35.7088 1200 34.641
35.8254 1131 33.6303
35.9419 1092 33.0454
36.0584 1143 33.8083
36.1749 1114 33.3766
36.2913 1163 34.1028
36.4077 1182 34.3802
36.524 1192 34.5254
36.6403 1239 35.1994
36.7565 1216 34.8712
36.8727 1257 35.4542
36.9889 1265 35.5668
37.1049 1180 34.3511
37.221 0 1
37.3369 0 1
37.4529 0 1
37.5687 0 1
37.6845 0 1
37.8003 0 1
37.916 0 1
38.0316 0 1
38.1472 0 1
40.5851 0 1
40.7008 0 1
40.8164 0 1
40.9322 0 1
41.048 0 1
41.1639 0 1
41.2798 0 1
41.3958 0 1
41.5118 0 1
41.6279 0 1
41.744 979 31.289
41.8602 1041 32.2645
41.9765 1016 31.8748
42.0928 1105 33.2415
42.2091 1025 32.0156
42.3255 1089 33
42.4419 1106 33.2566
42.5584 1035 32.1714
42.675 1055 32.4808
42.7915 993 31.5119
42.9081 968 31.1127
43.0248 918 30.2985
43.1415 927 30.4467
43.2582 1000 31.6228
43.375 951 30.8383
43.4918 973 31.1929
43.6087 1017 31.8904
43.7256 943 30.7083
43.8425 910 30.1662
43.9595 957 30.9354
44.0765 888 29.7993
44.1935 953 30.8707
44.3106 914 30.2324
44.4277 885 29.7489
44.5448 797 28.2312
44.6619 784 28
44.7791 795 28.1957
44.8963 788 28.0713
45.0136 772 27.7849
45.1308 811 28.4781
45.2481 769 27.7308
45.3654 840 28.9828
45.4827 792 28.1425
45.6001 798 28.2489
45.7174 812 28.4956
45.8348 801 28.3019
45.9522 885 29.7489
46.0697 791 28.1247
46.1871 867 29.4449
46.3046 737 27.1477
46.422 757 27.5136
46.5395 665 25.7876
46.657 674 25.9615
46.7745 696 26.3818
46.892 751 27.4044
47.0096 735 27.1109
47.1271 782 27.9643
47.2446 766 27.6767
47.3622 711 26.6646
47.4797 705 26.5518
47.5973 698 26.4197
47.7149 711 26.6646
47.8324 704 26.533
47.95 725 26.9258
48.0675 630 25.0998
48.1851 659 25.671
48.3027 599 24.4745
48.4202 642 25.3377
48.5378 613 24.7588
48.6554 636 25.219
48.7729 638 25.2587
48.8904 640 25.2982
49.008 649 25.4755
49.1255 667 25.8263
49.243 702 26.4953
49.3605 673 25.9422
49.478 702 26.4953
49.5955 591 24.3105
49.713 655 25.593
49.8304 609 24.6779
49.9479 579 24.0624
50.0653 569 23.8537
50.1827 590 24.2899
50.3001 685 26.1725
50.4175 674 25.9615
50.5348 692 26.3059
50.6521 711 26.6646
50.7694 690 26.2679
50.8867 679 26.0576
51.004 657 25.632
51.1212 746 27.313
51.2384 757 27.5136
51.3556 736 27.1293
51.4727 698 26.4197
51.5899 793 28.1603
51.707 741 27.2213
51.824 801 28.3019
51.9411 769 27.7308
52.0581 836 28.9137
52.175 833 28.8617
52.2919 865 29.4109
52.4088 854 29.2233
52.5257 909 30.1496
52.6425 877 29.6142
52.7593 972 31.1769
52.876 1002 31.6544
52.9927 930 30.4959
53.1094 1002 31.6544
53.226 1017 31.8904
53.3426 938 30.6268
53.4591 935 30.5778
53.5756 878 29.6311
53.692 889 29.8161
53.8084 867 29.4449
53.9248 908 30.133
54.0411 957 30.9354
54.1573 1036 32.187
54.2735 0 1
54.3896 0 1
54.5057 0 1
54.6217 0 1
54.7377 0 1
54.8537 0 1
54.9695 0 1
55.0853 0 1
55.2011 0 1
55.3168 0 1
55.4324 0 1
57.824 0 1
57.9396 0 1
58.0553 0 1
58.1711 0 1
58.2869 0 1
58.4028 0 1
58.5187 0 1
58.6347 0 1
58.7508 0 1
58.8669 0 1
58.983 975 31.225
59.0992 1006 31.7175
59.2155 1158 34.0294
59.3318 1165 34.1321
59.4482 1207 34.7419
59.5646 1201 34.6554
59.681 1156 34
59.7975 1157 34.0147
59.9141 1037 32.2025
60.0306 1044 32.311
60.1473 1073 32.7567
60.2639 1110 33.3167
60.3807 1108 33.2866
60.4974 980 31.305
60.6142 1074 32.7719
60.731 1032 32.1248
60.8479 1035 32.1714
60.9648 1074 32.7719
61.0818 1091 33.0303
61.1987 1087 32.9697
61.3158 1078 32.8329
61.4328 1109 33.3017
61.5499 1097 33.121
61.667 1070 32.7109
61.7841 1126 33.5559
61.9013 978 31.273
62.0185 1055 32.4808
62.1357 928 30.4631
62.253 860 29.3258
62.3702 933 30.545
62.4875 1000 31.6228
62.6049 1071 32.7261
62.7222 1075 32.7872
62.8396 1092 33.0454
62.9569 1117 33.4215
63.0743 1116 33.4066
63.1918 1044 32.311
63.3092 1019 31.9218
63.4267 977 31.257
63.5441 967 31.0966
63.6616 996 31.5595
63.7791 938 30.6268
63.8966 922 30.3645
64.0142 974 31.209
64.1317 945 30.7409
64.2492 998 31.5911
64.3668 1014 31.8434
64.4843 1027 32.0468
64.6019 975 31.225
64.7195 1031 32.1092
64.837 982 31.3369
64.9546 1030 32.0936
65.0722 988 31.4325
65.1898 1022 31.9687
65.3074 1044 32.311
65.4249 988 31.4325
65.5425 981 31.3209
65.6601 872 29.5296
65.7777 800 28.2843
65.8952 828 28.775
66.0128 844 29.0517
66.1304 919 30.315
66.2479 977 31.257
66.3655 997 31.5753
66.483 1032 32.1248
66.6005 1018 31.9061
66.718 1100 33.1662
66.8355 1014 31.8434
66.953 963 31.0322
67.0705 895 29.9166
67.1879 877 29.6142
67.3054 900 30
67.4228 942 30.692
67.5402 876 29.5973
67.6576 901 30.0167
67.7749 912 30.1993
67.8923 972 31.1769
68.0096 984 31.3688
68.1269 1001 31.6386
68.2442 1028 32.0624
68.3614 990 31.4643
68.4787 1017 31.8904
68.5958 1061 32.573
68.713 993 31.5119
68.8302 1027 32.0468
68.9473 1054 32.4654
69.0643 1001 31.6386
69.1814 1047 32.3574
69.2984 917 30.282
69.4154 908 30.133
69.5323 840 28.9828
69.6492 923 30.3809
69.7661 1075 32.7872
69.8829 1103 33.2114
69.9997 1023 31.9844
70.1165 1110 33.3167
70.2332 1101 33.1813
70.3499 1079 32.8481
70.4665 1141 33.7787
70.5831 1084 32.9242
70.6996 972 31.1769
70.8161 897 29.95
70.9326 940 30.6594
71.049 951 30.8383
71.1653 1009 31.7648
71.2817 903 30.05
71.3979 964 31.0483
71.5141 964 31.0483
71.6303 983 31.3528
71.7464 928 30.4631
71.8624 0 1
71.9784 0 1
72.0944 0 1
72.2102 0 1
72.3261 0 1
72.4418 0 1
72.5575 0 1
72.6732 0 1
75.1054 0 1
75.2209 0 1
75.3365 0 1
75.4521 0 1
75.5678 0 1
75.6835 0 1
75.7993 0 1
75.9151 0 1
76.031 0 1
76.147 859 29.3087
76.263 960 30.9839
76.3791 945 30.7409
76.4952 985 31.3847
76.6113 962 31.0161
76.7276 987 31.4166
76.8438 1053 32.45
76.9601 1004 31.686
77.0765 1063 32.6037
77.1929 1060 32.5576
77.3093 1062 32.5883
77.4258 1126 33.5559
77.5423 1136 33.7046
77.6589 1082 32.8938
77.7755 1102 33.1964
77.8921 1075 32.7872
78.0088 1041 32.2645
78.1256 1011 31.7962
78.2423 1012 31.8119
78.3591 936 30.5941
78.4759 841 29
78.5928 910 30.1662
78.7097 928 30.4631
78.8266 982 31.3369
78.9436 1109 33.3017
79.0606 1105 33.2415
79.1776 1098 33.1361
79.2946 1110 33.3167
79.4117 1096 33.1059
79.5288 1091 33.0303
79.6459 1030 32.0936
79.7631 954 30.8869
79.8802 824 28.7054
79.9974 861 29.3428
80.1147 861 29.3428
80.2319 877 29.6142
80.3491 906 30.0998
80.4664 932 30.5287
80.5837 978 31.273
80.701 960 30.9839
80.8183 989 31.4484
80.9357 965 31.0644
81.053 1045 32.3265
81.1704 1014 31.8434
81.2877 980 31.305
81.4051 1020 31.9374
81.5225 961 31
81.6399 983 31.3528
81.7573 923 30.3809
81.8747 953 30.8707
81.9922 791 28.1247
82.1096 835 28.8964
82.227 880 29.6648
82.3444 936 30.5941
82.4619 912 30.1993
82.5793 980 31.305
82.6967 986 31.4006
82.8142 1067 32.665
82.9316 1008 31.749
83.049 1029 32.078
83.1664 960 30.9839
83.2838 965 31.0644
83.4012 885 29.7489
83.5186 761 27.5862
83.636 751 27.4044
83.7534 721 26.8514
83.8708 792 28.1425
83.9881 860 29.3258
84.1055 906 30.0998
84.2228 907 30.1164
84.3401 899 29.9833
84.4575 925 30.4138
84.5747 935 30.5778
84.692 1005 31.7017
84.8093 976 31.241
84.9265 968 31.1127
85.0437 1017 31.8904
85.1609 996 31.5595
85.2781 891 29.8496
85.3952 877 29.6142
85.5123 838 28.9482
85.6294 824 28.7054
85.7465 845 29.0689
85.8636 852 29.189
85.9806 1001 31.6386
86.0976 987 31.4166
86.2145 1170 34.2053
86.3315 1090 33.0151
86.4484 1020 31.9374
86.5652 1129 33.6006
86.682 1119 33.4515
86.7988 1069 32.6956
86.9156 1038 32.218
87.0323 955 30.9031
87.149 910 30.1662
87.2657 849 29.1376
87.3823 879 29.6479
87.4988 960 30.9839
87.6154 1054 32.4654
87.7318 1011 31.7962
87.8483 1088 32.9848
87.9647 1097 33.121
88.081 1118 33.4365
88.1973 1174 34.2637
88.3136 1139 33.7491
88.4298 1169 34.1906
88.546 1094 33.0757
88.6621 1134 33.6749
88.7781 1116 33.4066
88.8942 0 1
89.0101 0 1
89.126 0 1
89.2419 0 1
89.3577 0 1
89.4734 0 1
89.5891 0 1
89.7047 0 1
89.8203 0 1
89.9358 0 1
92.3269 0 1
92.4424 0 1
92.558 0 1
92.6736 0 1
92.7893 0 1
92.905 0 1
93.0208 0 1
93.1366 0 1
93.2525 0 1
93.3685 0 1
93.4845 0 1
93.6005 1097 33.121
93.7167 1161 34.0735
93.8328 1144 33.8231
93.949 1136 33.7046
94.0653 1050 32.4037
94.1816 1093 33.0606
94.2979 1105 33.2415
94.4143 1051 32.4191
94.5307 942 30.692
94.6472 925 30.4138
94.7637 981 31.3209
94.8803 1023 31.9844
94.9969 1105 33.2415
95.1135 1135 33.6898
95.2302 1113 33.3617
95.3469 1147 33.8674
95.4637 1141 33.7787
95.5805 1221 34.9428
95.6973 1220 34.9285
95.8142 1285 35.8469
95.9311 1214 34.8425
96.048 1193 34.5398
96.1649 1134 33.6749
96.2819 957 30.9354
96.3989 915 30.249
96.516 844 29.0517
96.633 993 31.5119
96.7501 1084 32.9242
96.8673 1096 33.1059
96.9844 1157 34.0147
97.1016 1158 34.0294
97.2188 1140 33.7639
97.336 1152 33.9411
97.4532 1188 34.4674
97.5704 1182 34.3802
97.6877 1147 33.8674
97.805 1094 33.0757
97.9223 1144 33.8231
98.0396 1084 32.9242
98.1569 1000 31.6228
98.2743 1010 31.7805
98.3916 939 30.6431
98.509 973 31.1929
98.6264 1072 32.7414
98.7438 1093 33.0606
98.8612 1174 34.2637
98.9786 1177 34.3074
99.096 1157 34.0147
99.2134 1193 34.5398
99.3308 1185 34.4238
99.4482 1218 34.8999
99.5656 1177 34.3074
99.6831 1190 34.4964
99.8005 1059 32.5423
99.9179 1063 32.6037
100.035 863 29.3769
100.153 941 30.6757
100.27 1049 32.3883
100.388 1135 33.6898
100.505 1063 32.6037
100.622 1137 33.7194
100.74 1126 33.5559
100.857 1225 35
100.975 1202 34.6699
101.092 1195 34.5688
101.209 1143 33.8083
101.327 1208 34.7563
101.444 1220 34.9285
101.561 1125 33.541
101.679 1128 33.5857
101.796 943 30.7083
101.913 987 31.4166
102.03 1081 32.8786
102.148 1074 32.7719
102.265 1131 33.6303
102.382 1256 35.4401
102.499 1157 34.0147
102.616 1264 35.5528
102.733 1347 36.7015
102.851 1272 35.6651
102.968 1283 35.819
103.085 1290 35.9166
103.202 1262 35.5246
103.319 1195 34.5688
103.436 1073 32.7567
103.552 922 30.3645
103.669 926 30.4302
103.786 1127 33.5708
103.903 1211 34.7994
104.02 1258 35.4683
104.137 1199 34.6266
104.253 1209 34.7707
104.37 1199 34.6266
104.487 1279 35.7631
104.603 1293 35.9583
104.72 1240 35.2136
104.836 1216 34.8712
104.953 1241 35.2278
105.069 1151 33.9264
105.186 1080 32.8634
105.302 1063 32.6037
105.418 1132 33.6452
105.535 1086 32.9545
105.651 1242 35.242
105.767 1288 35.8887
105.883 1357 36.8375
105.999 1289 35.9026
106.115 0 1
106.231 0 1
106.347 0 1
106.463 0 1
106.579 0 1
106.694 0 1
106.81 0 1
106.926 0 1
107.041 0 1
107.157 0 1
109.576 0 1
109.692 0 1
109.807 0 1
109.923 0 1
110.039 0 1
110.155 0 1
110.27 0 1
110.386 0 1
110.502 0 1
110.618 1147 33.8674
110.735 1245 35.2846
110.851 1195 34.5688
110.967 1297 36.0139
111.083 1279 35.7631
111.199 1295 35.9861
111.316 1310 36.1939
111.432 1393 37.3229
111.549 1326 36.4143
111.665 1261 35.5106
111.782 1280 35.7771
111.898 1208 34.7563
112.015 1094 33.0757
112.132 975 31.225
112.248 970 31.1448
112.365 1116 33.4066
112.482 1175 34.2783
112.599 1265 35.5668
112.716 1232 35.0999
112.832 1207 34.7419
112.949 1233 35.1141
113.066 1199 34.6266
113.183 1181 34.3657
113.3 1189 34.4819
113.417 1168 34.176
113.534 1124 33.5261
113.652 1069 32.6956
113.769 1005 31.7017
113.886 974 31.209
114.003 984 31.3688
114.12 1047 32.3574
114.238 1148 33.8821
114.355 1305 36.1248
114.472 1220 34.9285
114.589 1256 35.4401
114.707 1242 35.242
114.824 1198 34.6121
114.942 1235 35.1426
115.059 1309 36.1801
115.176 1218 34.8999
115.294 1307 36.1525
115.411 1171 34.2199
115.529 1117 33.4215
115.646 970 31.1448
115.764 945 30.7409
115.881 998 31.5911
115.999 1164 34.1174
116.116 1166 34.1467
116.234 1114 33.3766
116.351 1160 34.0588
116.469 1242 35.242
116.586 1206 34.7275
116.704 1182 34.3802
116.821 1235 35.1426
116.939 1157 34.0147
117.056 1124 33.5261
117.174 1060 32.5576
117.291 1031 32.1092
117.409 1002 31.6544
117.526 1002 31.6544
117.644 993 31.5119
117.761 1091 33.0303
117.879 1145 33.8378
117.996 1234 35.1283
118.114 1215 34.8569
118.231 1256 35.4401
118.349 1270 35.6371
118.466 1268 35.609
118.584 1253 35.3977
118.701 1293 35.9583
118.819 1220 34.9285
118.936 1174 34.2637
119.053 1238 35.1852
119.171 1036 32.187
119.288 1003 31.6702
119.405 947 30.7734
119.523 951 30.8383
119.64 1107 33.2716
119.757 1223 34.9714
119.875 1142 33.7935
119.992 1160 34.0588
120.109 1102 33.1964
120.226 1178 34.322
120.343 1182 34.3802
120.46 1155 33.9853
120.578 1158 34.0294
120.695 1090 33.0151
120.812 1042 32.28
120.929 983 31.3528
121.046 1011 31.7962
121.163 964 31.0483
121.279 1007 31.7333
121.396 1100 33.1662
121.513 1118 33.4365
121.63 1213 34.8281
121.747 1284 35.8329
121.863 1190 34.4964
121.98 1140 33.7639
122.097 1192 34.5254
122.213 1217 34.8855
122.33 1226 35.0143
122.446 1214 34.8425
122.563 1201 34.6554
122.679 1119 33.4515
122.795 1100 33.1662
122.912 1063 32.6037
123.028 930 30.4959
123.144 852 29.189
123.26 965 31.0644
123.377 0 1
123.493 0 1
123.609 0 1
123.725 0 1
123.84 0 1
123.956 0 1
124.072 0 1
124.188 0 1
124.303 0 1
124.419 0 1
126.852 0 1
126.968 0 1
127.083 0 1
127.199 0 1
127.315 0 1
127.431 0 1
127.547 0 1
127.663 0 1
127.779 0 1
127.895 0 1
128.011 0 1
128.127 0 1
128.243 0 1
128.359 969 31.1288
128.476 1001 31.6386
128.592 1096 33.1059
128.708 1238 35.1852
128.825 1251 35.3695
128.941 1311 36.2077
129.058 1316 36.2767
129.174 1287 35.8748
129.291 1246 35.2987
129.408 1183 34.3948
129.524 1227 35.0286
129.641 1214 34.8425
129.758 1139 33.7491
129.875 1114 33.3766
129.992 1065 32.6343
130.108 1053 32.45
130.225 1019 31.9218
130.342 1145 33.8378
130.459 1170 34.2053
130.576 1267 35.5949
130.693 1294 35.9722
130.81 1347 36.7015
130.928 1281 35.7911
131.045 1278 35.7491
131.162 1301 36.0694
131.279 1271 35.6511
131.396 1240 35.2136
131.513 1298 36.0278
131.631 1295 35.9861
131.748 1198 34.6121
131.865 1029 32.078
131.983 971 31.1609
132.1 1023 31.9844
132.217 1153 33.9559
132.335 1269 35.623
132.452 1270 35.6371
132.57 1249 35.3412
132.687 1216 34.8712
132.804 1277 35.7351
132.922 1323 36.3731
133.039 1244 35.2704
133.157 1227 35.0286
133.274 1150 33.9116
133.392 1136 33.7046
133.509 1091 33.0303
133.627 1106 33.2566
133.744 1103 33.2114
133.862 1170 34.2053
133.979 1282 35.805
134.097 1262 35.5246
134.214 1307 36.1525
134.332 1310 36.1939
134.449 1314 36.2491
134.567 1342 36.6333
134.684 1238 35.1852
134.802 1345 36.6742
134.919 1354 36.7967
135.037 1241 35.2278
135.154 1254 35.4119
135.272 1289 35.9026
135.389 1146 33.8526
135.507 983 31.3528
135.624 1017 31.8904
135.742 1100 33.1662
135.859 1221 34.9428
135.977 1257 35.4542
136.094 1228 35.0428
136.211 1283 35.819
136.329 1217 34.8855
136.446 1278 35.7491
136.564 1289 35.9026
136.681 1186 34.4384
136.798 1163 34.1028
136.915 1154 33.9706
137.033 1107 33.2716
137.15 1130 33.6155
137.267 1046 32.3419
137.384 1093 33.0606
137.502 1160 34.0588
137.619 1273 35.6791
137.736 1237 35.171
137.853 1257 35.4542
137.97 1250 35.3553
138.087 1363 36.9188
138.204 1256 35.4401
138.321 1320 36.3318
138.438 1351 36.756
138.555 1324 36.3868
138.672 1322 36.3593
138.788 1281 35.7911
138.905 1244 35.2704
139.022 1104 33.2265
139.139 1021 31.9531
139.255 1042 32.28
139.372 1078 32.8329
139.488 1242 35.242
139.605 1290 35.9166
139.721 1321 36.3456
139.838 1264 35.5528
139.954 1324 36.3868
140.071 1291 35.9305
140.187 1288 35.8887
140.303 1321 36.3456
140.419 1246 35.2987
140.535 1165 34.1321
140.652 1112 33.3467
140.768 0 1
140.884 0 1
141 0 1
141.115 0 1
141.231 0 1
141.347 0 1
141.463 0 1
141.578 0 1
141.694 0 1
144.104 0 1
144.219 0 1
144.335 0 1
144.45 0 1
144.566 0 1
144.682 0 1
144.798 0 1
144.914 0 1
145.03 0 1
145.146 919 30.315
145.262 1004 31.686
145.378 1050 32.4037
145.494 943 30.7083
145.61 1001 31.6386
145.726 912 30.1993
145.842 974 31.209
145.959 872 29.5296
146.075 900 30
146.192 825 28.7228
146.308 922 30.3645
146.425 952 30.8545
146.541 924 30.3974
146.658 964 31.0483
146.774 1054 32.4654
146.891 1012 31.8119
147.008 1065 32.6343
147.125 1037 32.2025
147.241 1023 31.9844
147.358 1067 32.665
147.475 1069 32.6956
147.592 1101 33.1813
147.709 1025 32.0156
147.826 1005 31.7017
147.943 910 30.1662
148.06 817 28.5832
148.177 822 28.6705
148.294 965 31.0644
148.411 959 30.9677
148.528 1023 31.9844
148.645 1026 32.0312
148.762 1057 32.5115
148.88 1030 32.0936
148.997 1018 31.9061
149.114 1074 32.7719
149.231 994 31.5278
149.349 979 31.289
149.466 1003 31.6702
149.583 982 31.3369
149.701 886 29.7658
149.818 878 29.6311
149.935 910 30.1662
150.053 912 30.1993
150.17 957 30.9354
150.287 977 31.257
150.405 1068 32.6803
150.522 1058 32.5269
150.64 1038 32.218
150.757 1116 33.4066
150.875 1120 33.4664
150.992 1073 32.7567
151.11 1091 33.0303
151.227 1048 32.3728
151.344 985 31.3847
151.462 1056 32.4962
151.579 971 31.1609
151.697 892 29.8664
151.814 897 29.95
151.932 887 29.7825
152.049 982 31.3369
152.167 1045 32.3265
152.284 1096 33.1059
152.402 1078 32.8329
152.519 1093 33.0606
152.636 1148 33.8821
152.754 1093 33.0606
152.871 1063 32.6037
152.989 1083 32.909
153.106 1006 31.7175
153.223 1057 32.5115
153.341 961 31
153.458 892 29.8664
153.575 867 29.4449
153.693 944 30.7246
153.81 985 31.3847
153.927 997 31.5753
154.044 1030 32.0936
154.162 1064 32.619
154.279 1187 34.4529
154.396 1133 33.6601
154.513 1171 34.2199
154.63 1194 34.5543
154.747 1192 34.5254
154.864 1208 34.7563
154.981 1151 33.9264
155.098 1138 33.7343
155.215 1090 33.0151
155.332 939 30.6431
155.449 956 30.9192
155.566 1077 32.8177
155.683 1091 33.0303
155.8 1123 33.5112
155.917 1200 34.641
156.033 1176 34.2929
156.15 0 1
156.267 0 1
156.383 0 1
156.5 0 1
156.617 0 1
156.733 0 1
156.85 0 1
156.966 0 1
157.082 0 1
157.199 0 1
157.315 0 1
157.431 0 1
157.547 0 1
157.664 0 1
157.78 0 1
157.896 0 1
158.012 0 1
158.128 0 1
158.244 0 1
158.359 0 1
158.475 0 1
158.591 0 1
158.706 0 1
