
6.15755 0 1
6.2731 0 1
6.3887 0 1
6.50437 0 1
6.62009 0 1
6.73587 0 1
6.8517 0 1
6.96759 0 1
7.08353 0 1
7.19952 0 1
7.31557 0 1
7.43166 0 1
7.54781 0 1
7.664 0 1
7.78024 0 1
7.89653 0 1
8.01286 0 1
8.12924 0 1
8.24567 0 1
8.36213 0 1
8.47864 0 1
8.59519 0 1
8.71178 0 1
8.82841 0 1
8.94508 0 1
9.06179 0 1
9.17853 0 1
9.29531 0 1
9.41212 0 1
9.52897 0 1
9.64584 0 1
9.76276 0 1
9.8797 0 1
9.99667 0 1
10.1137 0 1
10.2307 0 1
10.3478 0 1
10.4648 0 1
10.5819 0 1
10.6991 0 1
10.8162 0 1
10.9334 0 1
11.0506 0 1
11.1678 0 1
11.285 0 1
11.4023 0 1
11.5196 0 1
11.6369 0 1
11.7542 0 1
11.8715 0 1
11.9888 0 1
12.1062 0 1
12.2235 0 1
12.3409 0 1
12.4582 0 1
12.5756 0 1
12.693 0 1
12.8104 0 1
12.9278 0 1
13.0452 0 1
13.1626 0 1
13.28 0 1
13.3974 0 1
13.5149 0 1
13.6323 0 1
13.7497 0 1
13.8671 0 1
13.9845 0 1
14.1019 0 1
14.2193 0 1
14.3367 0 1
14.4541 0 1
14.5714 0 1
14.6888 0 1
14.8062 0 1
14.9235 0 1
15.0408 9632 98.1428
15.1581 9622 98.0918
15.2755 10046 100.23
15.3927 10010 100.05
15.51 9808 99.0353
15.6273 9635 98.158
15.7445 9419 97.0515
15.8617 9433 97.1236
15.9789 9765 98.818
16.0961 10145 100.722
16.2132 10701 103.446
16.3304 11060 105.167
16.4475 11134 105.518
16.5646 11191 105.788
16.6816 11350 106.536
16.7986 11267 106.146
16.9156 11310 106.348
17.0326 11181 105.74
17.1496 10986 104.814
17.2665 11140 105.546
17.3833 10888 104.346
17.5002 11126 105.48
17.617 11077 105.247
17.7338 11342 106.499
17.8505 11639 107.884
17.9672 11882 109.005
18.0839 11973 109.421
18.2005 12446 111.562
18.3171 12533 111.951
18.4337 12778 113.04
18.5502 12933 113.723
18.6666 13142 114.639
18.7831 12979 113.925
18.8994 12795 113.115
19.0158 12713 112.752
19.1321 12279 110.811
19.2483 12031 109.686
19.3645 11801 108.632
19.4806 11852 108.867
19.5967 12182 110.372
19.7128 12723 112.796
19.8288 12834 113.287
19.9447 11775 108.513
20.0606 0 1
20.1764 0 1
20.2922 0 1
20.4079 0 1
20.5236 0 1
20.6392 0 1
20.7548 0 1
20.8702 0 1
23.3078 0 1
23.4233 0 1
23.539 0 1
23.6547 0 1
23.7704 0 1
23.8862 0 1
24.0021 0 1
24.118 0 1
24.234 0 1
24.35 0 1
24.4661 12191 110.413
24.5822 12160 110.272
24.6984 12326 111.023
24.8146 12578 112.152
24.9309 13372 115.637
25.0472 13738 117.209
25.1636 13907 117.928
25.28 14029 118.444
25.3965 14194 119.139
25.513 13808 117.507
25.6296 13717 117.12
25.7462 13532 116.327
25.8628 13508 116.224
25.9795 13351 115.547
26.0962 13728 117.167
26.213 13828 117.593
26.3298 14081 118.663
26.4466 14215 119.227
26.5635 14705 121.264
26.6804 14733 121.38
26.7973 15426 124.201
26.9143 15440 124.258
27.0313 15373 123.988
27.1483 15880 126.016
27.2653 15970 126.372
27.3824 15877 126.004
27.4996 15769 125.575
27.6167 15545 124.68
27.7339 14983 122.405
27.8511 14583 120.76
27.9683 14151 118.958
28.0855 13535 116.34
28.2028 13274 115.213
28.3201 13354 115.56
28.4374 13734 117.192
28.5547 14335 119.729
28.6721 14791 121.618
28.7894 14910 122.107
28.9068 15020 122.556
29.0242 14605 120.851
29.1416 14215 119.227
29.259 13806 117.499
29.3764 13591 116.58
29.4939 13320 115.412
29.6113 13119 114.538
29.7288 13511 116.237
29.8463 13797 117.461
29.9638 14155 118.975
30.0812 14504 120.433
30.1987 15097 122.87
30.3162 15416 124.161
30.4337 15694 125.276
30.5512 15585 124.84
30.6687 15942 126.262
30.7862 16356 127.891
30.9037 16027 126.598
31.0212 16540 128.608
31.1387 15945 126.274
31.2562 15570 124.78
31.3737 15321 123.778
31.4912 14693 121.215
31.6087 14420 120.083
31.7262 13851 117.69
31.8436 13891 117.86
31.9611 14231 119.294
32.0785 14983 122.405
32.1959 15188 123.24
32.3134 15469 124.374
32.4308 15707 125.328
32.5482 15574 124.796
32.6655 15284 123.628
32.7829 14767 121.52
32.9002 14165 119.017
33.0176 14087 118.689
33.1349 13900 117.898
33.2522 14013 118.377
33.3694 13937 118.055
33.4867 14431 120.129
33.6039 14656 121.062
33.7211 15339 123.851
33.8383 15695 125.28
33.9554 16068 126.76
34.0725 16187 127.228
34.1896 16391 128.027
34.3067 16566 128.709
34.4237 16562 128.693
34.5407 16708 129.259
34.6577 17076 130.675
34.7746 16738 129.375
34.8915 16234 127.413
35.0084 15833 125.829
35.1252 15617 124.968
35.242 15008 122.507
35.3587 14749 121.445
35.4755 14239 119.327
35.5921 14510 120.457
35.7088 15070 122.76
35.8254 15607 124.928
35.9419 15962 126.341
36.0584 15971 126.376
36.1749 16169 127.157
36.2913 16050 126.689
36.4077 15545 124.68
36.524 14871 121.947
36.6403 14178 119.071
36.7565 14072 118.625
36.8727 13889 117.852
36.9889 13955 118.131
37.1049 13903 117.911
37.221 0 1
37.3369 0 1
37.4529 0 1
37.5687 0 1
37.6845 0 1
37.8003 0 1
37.916 0 1
38.0316 0 1
38.1472 0 1
40.5851 0 1
40.7008 0 1
40.8164 0 1
40.9322 0 1
41.048 0 1
41.1639 0 1
41.2798 0 1
41.3958 0 1
41.5118 0 1
41.6279 0 1
41.744 11824 108.738
41.8602 12117 110.077
41.9765 12059 109.813
42.0928 12216 110.526
42.2091 12446 111.562
42.3255 12996 114
42.4419 13338 115.49
42.5584 13941 118.072
42.675 14404 120.017
42.7915 14740 121.408
42.9081 15134 123.02
43.0248 15344 123.871
43.1415 15311 123.738
43.2582 15431 124.222
43.375 15478 124.411
43.4918 15327 123.802
43.6087 15224 123.386
43.7256 14715 121.305
43.8425 14327 119.695
43.9595 13854 117.703
44.0765 13335 115.477
44.1935 12860 113.402
44.3106 12710 112.739
44.4277 12981 113.934
44.5448 13067 114.311
44.6619 13291 115.287
44.7791 13427 115.875
44.8963 13603 116.632
45.0136 13211 114.939
45.1308 12818 113.217
45.2481 11891 109.046
45.3654 11360 106.583
45.4827 10823 104.034
45.6001 10873 104.274
45.7174 10774 103.798
45.8348 10865 104.235
45.9522 11210 105.877
46.0697 11436 106.939
46.1871 12264 110.743
46.3046 12469 111.665
46.422 12920 113.666
46.5395 13017 114.092
46.657 12951 113.802
46.7745 13219 114.974
46.892 13270 115.195
47.0096 13006 114.044
47.1271 13151 114.678
47.2446 12882 113.499
47.3622 12339 111.081
47.4797 12260 110.725
47.5973 11862 108.913
47.7149 11292 106.264
47.8324 11194 105.802
47.95 10649 103.194
48.0675 10751 103.687
48.1851 11212 105.887
48.3027 11250 106.066
48.4202 11278 106.198
48.5378 11139 105.541
48.6554 10488 102.411
48.7729 10061 100.305
48.8904 9515 97.5449
49.008 9214 95.9896
49.1255 9037 95.0631
49.243 8837 94.0053
49.3605 9259 96.2237
49.478 9776 98.8737
49.5955 10204 101.015
49.713 10414 102.049
49.8304 11064 105.186
49.9479 11486 107.173
50.0653 11900 109.087
50.1827 12340 111.086
50.3001 12448 111.571
50.4175 12512 111.857
50.5348 12713 112.752
50.6521 12578 112.152
50.7694 12779 113.044
50.8867 12495 111.781
51.004 12407 111.387
51.1212 12271 110.775
51.2384 12082 109.918
51.3556 12129 110.132
51.4727 12013 109.604
51.5899 12495 111.781
51.707 13296 115.308
51.824 13679 116.957
51.9411 14143 118.924
52.0581 14062 118.583
52.175 13908 117.932
52.2919 13368 115.62
52.4088 12621 112.343
52.5257 12328 111.032
52.6425 12146 110.209
52.7593 12352 111.14
52.876 12578 112.152
52.9927 13145 114.652
53.1094 14071 118.621
53.226 15150 123.085
53.3426 16005 126.511
53.4591 16964 130.246
53.5756 17746 133.214
53.692 18211 134.948
53.8084 18363 135.51
53.9248 18685 136.693
54.0411 18810 137.15
54.1573 19301 138.928
54.2735 0 1
54.3896 0 1
54.5057 0 1
54.6217 0 1
54.7377 0 1
54.8537 0 1
54.9695 0 1
55.0853 0 1
55.2011 0 1
55.3168 0 1
55.4324 0 1
57.824 0 1
57.9396 0 1
58.0553 0 1
58.1711 0 1
58.2869 0 1
58.4028 0 1
58.5187 0 1
58.6347 0 1
58.7508 0 1
58.8669 0 1
58.983 21372 146.192
59.0992 22396 149.653
59.2155 22729 150.761
59.3318 22993 151.634
59.4482 22716 150.718
59.5646 22702 150.672
59.681 22506 150.02
59.7975 21800 147.648
59.9141 21445 146.441
60.0306 21293 145.921
60.1473 20849 144.392
60.2639 21341 146.086
60.3807 21110 145.293
60.4974 21065 145.138
60.6142 21014 144.962
60.731 20251 142.306
60.8479 18984 137.782
60.9648 18023 134.25
61.0818 17489 132.246
61.1987 16785 129.557
61.3158 16457 128.285
61.4328 16323 127.761
61.5499 17062 130.622
61.667 17917 133.854
61.7841 18913 137.525
61.9013 19751 140.538
62.0185 20615 143.579
62.1357 21049 145.083
62.253 21939 148.118
62.3702 22169 148.893
62.4875 22460 149.867
62.6049 22620 150.399
62.7222 22415 149.716
62.8396 22521 150.07
62.9569 22046 148.479
63.0743 21851 147.821
63.1918 21692 147.282
63.3092 20775 144.135
63.4267 20733 143.99
63.5441 20097 141.764
63.6616 20413 142.874
63.7791 20295 142.461
63.8966 20667 143.76
64.0142 20594 143.506
64.1317 20279 142.404
64.2492 19986 141.372
64.3668 19079 138.127
64.4843 17771 133.308
64.6019 16755 129.441
64.7195 15949 126.289
64.837 15738 125.451
64.9546 15715 125.359
65.0722 15883 126.028
65.1898 16575 128.744
65.3074 18132 134.655
65.4249 18644 136.543
65.5425 19826 140.805
65.6601 20720 143.944
65.7777 21018 144.976
65.8952 21752 147.486
66.0128 22014 148.371
66.1304 22358 149.526
66.2479 22544 150.147
66.3655 22540 150.133
66.483 22575 150.25
66.6005 22347 149.489
66.718 22207 149.02
66.8355 21933 148.098
66.953 21457 146.482
67.0705 20977 144.834
67.1879 21076 145.176
67.3054 20965 144.793
67.4228 21319 146.01
67.5402 21557 146.823
67.6576 21666 147.194
67.7749 21500 146.629
67.8923 21337 146.072
68.0096 20092 141.746
68.1269 19122 138.282
68.2442 18188 134.863
68.3614 17331 131.647
68.4787 16907 130.027
68.5958 16613 128.891
68.713 17157 130.985
68.8302 18089 134.495
68.9473 19702 140.364
69.0643 21108 145.286
69.1814 22591 150.303
69.2984 23219 152.378
69.4154 24645 156.987
69.5323 25587 159.959
69.6492 25768 160.524
69.7661 26279 162.108
69.8829 27087 164.581
69.9997 27281 165.17
70.1165 27121 164.685
70.2332 26954 164.177
70.3499 26871 163.924
70.4665 26400 162.481
70.5831 26490 162.757
70.6996 25855 160.795
70.8161 25421 159.44
70.9326 25409 159.402
71.049 25702 160.318
71.1653 25908 160.96
71.2817 26130 161.648
71.3979 25666 160.206
71.5141 24969 158.016
71.6303 23075 151.905
71.7464 19939 141.206
71.8624 0 1
71.9784 0 1
72.0944 0 1
72.2102 0 1
72.3261 0 1
72.4418 0 1
72.5575 0 1
72.6732 0 1
75.1054 0 1
75.2209 0 1
75.3365 0 1
75.4521 0 1
75.5678 0 1
75.6835 0 1
75.7993 0 1
75.9151 0 1
76.031 0 1
76.147 25893 160.913
76.263 27230 165.015
76.3791 28023 167.401
76.4952 29201 170.883
76.6113 29724 172.406
76.7276 30092 173.47
76.8438 29243 171.006
76.9601 28093 167.61
77.0765 25909 160.963
77.1929 23703 153.958
77.3093 21517 146.687
77.4258 20421 142.902
77.5423 20075 141.686
77.6589 20560 143.388
77.7755 21821 147.719
77.8921 24000 154.919
78.0088 26078 161.487
78.1256 28262 168.113
78.2423 30183 173.733
78.3591 31499 177.48
78.4759 32548 180.411
78.5928 32794 181.091
78.7097 33234 182.302
78.8266 32035 178.983
78.9436 34310 185.23
79.0606 32912 181.417
79.1776 32356 179.878
79.2946 32290 179.694
79.4117 32032 178.975
79.5288 31459 177.367
79.6459 31014 176.108
79.7631 30705 175.228
79.8802 29654 172.203
79.9974 30014 173.245
80.1147 30547 174.777
80.2319 31077 176.287
80.3491 31587 177.727
80.4664 31219 176.689
80.5837 29742 172.459
80.701 27785 166.688
80.8183 25109 158.458
80.9357 22823 151.073
81.053 21161 145.468
81.1704 20429 142.93
81.2877 20055 141.616
81.4051 21164 145.479
81.5225 22485 149.95
81.6399 25594 159.981
81.7573 28055 167.496
81.8747 29401 171.467
81.9922 31127 176.428
82.1096 31935 178.704
82.227 32238 179.549
82.3444 32606 180.571
82.4619 32809 181.133
82.5793 32939 181.491
82.6967 32000 178.885
82.8142 31779 178.267
82.9316 31661 177.935
83.049 31062 176.244
83.1664 30432 174.448
83.2838 29915 172.96
83.4012 29686 172.296
83.5186 29193 170.86
83.636 28919 170.056
83.7534 29070 170.499
83.8708 29615 172.09
83.9881 30330 174.155
84.1055 30177 173.715
84.2228 29048 170.435
84.3401 26916 164.061
84.4575 24387 156.163
84.5747 22408 149.693
84.692 20950 144.741
84.8093 19894 141.046
84.9265 20212 142.169
85.0437 20975 144.827
85.1609 23372 152.879
85.2781 26406 162.499
85.3952 28587 169.077
85.5123 30792 175.476
85.6294 32764 181.008
85.7465 35044 187.2
85.8636 35759 189.101
85.9806 36669 191.492
86.0976 36783 191.789
86.2145 37313 193.166
86.3315 38747 196.843
86.4484 36572 191.238
86.5652 37862 194.582
86.682 37723 194.224
86.7988 37945 194.795
86.9156 37822 194.479
87.0323 37323 193.192
87.149 37377 193.331
87.2657 37699 194.162
87.3823 38213 195.481
87.4988 39392 198.474
87.6154 40052 200.13
87.7318 39264 198.151
87.8483 37325 193.197
87.9647 34749 186.411
88.081 31800 178.326
88.1973 29238 170.991
88.3136 26898 164.006
88.4298 26485 162.742
88.546 27044 164.451
88.6621 29330 171.26
88.7781 32683 180.784
88.8942 0 1
89.0101 0 1
89.126 0 1
89.2419 0 1
89.3577 0 1
89.4734 0 1
89.5891 0 1
89.7047 0 1
89.8203 0 1
89.9358 0 1
92.3269 0 1
92.4424 0 1
92.558 0 1
92.6736 0 1
92.7893 0 1
92.905 0 1
93.0208 0 1
93.1366 0 1
93.2525 0 1
93.3685 0 1
93.4845 0 1
93.6005 30627 175.006
93.7167 29597 172.038
93.8328 29829 172.711
93.949 30564 174.826
94.0653 32762 181.003
94.1816 36183 190.218
94.2979 39681 199.201
94.4143 42400 205.913
94.5307 45099 212.365
94.6472 47268 217.412
94.7637 48670 220.613
94.8803 49047 221.466
94.9969 49263 221.953
95.1135 49643 222.807
95.2302 50132 223.902
95.3469 49925 223.439
95.4637 49597 222.704
95.5805 49583 222.672
95.6973 49710 222.957
95.8142 49784 223.123
95.9311 48852 221.025
96.048 48430 220.068
96.1649 48027 219.151
96.2819 46850 216.449
96.3989 47688 218.376
96.516 48292 219.754
96.633 49114 221.617
96.7501 48967 221.285
96.8673 47333 217.561
96.9844 44077 209.945
97.1016 40806 202.005
97.2188 37653 194.044
97.336 34801 186.55
97.4532 31929 178.687
97.5704 31049 176.207
97.6877 31356 177.076
97.805 33598 183.298
97.9223 36922 192.151
98.0396 40475 201.184
98.1569 43365 208.243
98.2743 46468 215.564
98.3916 49008 221.378
98.509 50694 225.153
98.6264 51318 226.535
98.7438 51773 227.537
98.8612 51755 227.497
98.9786 51734 227.451
99.096 51180 226.23
99.2134 51033 225.905
99.3308 51643 227.251
99.4482 51586 227.126
99.5656 51558 227.064
99.6831 50984 225.796
99.8005 49619 222.753
99.9179 49169 221.741
100.035 48935 221.213
100.153 50883 225.573
100.27 51085 226.02
100.388 50816 225.424
100.505 49253 221.93
100.622 45483 213.267
100.74 41859 204.595
100.857 38535 196.303
100.975 35235 187.71
101.092 32878 181.323
101.209 32689 180.801
101.327 33250 182.346
101.444 36012 189.768
101.561 40232 200.579
101.679 44031 209.836
101.796 47407 217.731
101.913 50270 224.21
102.03 51951 227.928
102.148 52678 229.517
102.265 52145 228.353
102.382 55707 236.023
102.499 54501 233.454
102.616 54224 232.86
102.733 53259 230.779
102.851 53431 231.151
102.968 53903 232.17
103.085 53543 231.394
103.202 53019 230.259
103.319 52376 228.858
103.436 51699 227.374
103.552 51446 226.817
103.669 52550 229.238
103.786 53581 231.476
103.903 53885 232.131
104.02 52194 228.46
104.137 49185 221.777
104.253 45754 213.902
104.37 41999 204.937
104.487 38568 196.387
104.603 35957 189.623
104.72 35338 187.984
104.836 36078 189.942
104.953 38897 197.223
105.069 42773 206.816
105.186 46980 216.749
105.302 50703 225.173
105.418 54061 232.51
105.535 56083 236.818
105.651 56944 238.629
105.767 57604 240.008
105.883 57893 240.61
105.999 57646 240.096
106.115 0 1
106.231 0 1
106.347 0 1
106.463 0 1
106.579 0 1
106.694 0 1
106.81 0 1
106.926 0 1
107.041 0 1
107.157 0 1
109.576 0 1
109.692 0 1
109.807 0 1
109.923 0 1
110.039 0 1
110.155 0 1
110.27 0 1
110.386 0 1
110.502 0 1
110.618 50953 225.728
110.735 52065 228.178
110.851 53036 230.295
110.967 53210 230.673
111.083 53574 231.461
111.199 52608 229.364
111.316 52766 229.709
111.432 53360 230.998
111.549 52839 229.867
111.665 52602 229.351
111.782 51084 226.018
111.898 50397 224.493
112.015 50197 224.047
112.132 50599 224.942
112.248 51288 226.469
112.365 51844 227.693
112.482 48082 219.276
112.599 47365 217.635
112.716 44004 209.771
112.832 40621 201.547
112.949 37149 192.741
113.066 34231 185.016
113.183 33170 182.126
113.3 33229 182.288
113.417 34753 186.422
113.534 37399 193.388
113.652 40624 201.554
113.769 43574 208.744
113.886 46728 216.167
114.003 47792 218.614
114.12 49007 221.375
114.238 49787 223.13
114.355 49637 222.794
114.472 49608 222.729
114.589 49999 223.605
114.707 48465 220.148
114.824 48508 220.245
114.942 48742 220.776
115.059 49423 222.313
115.176 49265 221.957
115.294 48824 220.962
115.411 47620 218.22
115.529 47255 217.382
115.646 47821 218.68
115.764 48385 219.966
115.881 49196 221.802
115.999 48498 220.223
116.116 46715 216.137
116.234 44454 210.841
116.351 41840 204.548
116.469 39114 197.773
116.586 36079 189.945
116.704 34182 184.884
116.821 33190 182.181
116.939 33263 182.381
117.056 34443 185.588
117.174 37063 192.518
117.291 39566 198.912
117.409 43096 207.596
117.526 45126 212.429
117.644 46951 216.682
117.761 47887 218.831
117.879 48579 220.406
117.996 48441 220.093
118.114 48750 220.794
118.231 48213 219.575
118.349 47090 217.002
118.466 46854 216.458
118.584 47592 218.156
118.701 47949 218.973
118.819 48086 219.285
118.936 46726 216.162
119.053 46002 214.481
119.171 45446 213.181
119.288 45718 213.818
119.405 46562 215.782
119.523 47269 217.414
119.64 46380 215.36
119.757 45270 212.767
119.875 42956 207.258
119.992 41282 203.18
120.109 39050 197.611
120.226 35697 188.936
120.343 33723 183.638
120.46 32675 180.762
120.578 32691 180.807
120.695 32968 181.571
120.812 34281 185.151
120.929 36803 191.841
121.046 39201 197.992
121.163 41707 204.223
121.279 43607 208.823
121.396 44758 211.561
121.513 45531 213.38
121.63 46398 215.402
121.747 45958 214.378
121.863 46386 215.374
121.98 45755 213.904
122.097 45040 212.226
122.213 44814 211.693
122.33 44655 211.317
122.446 45290 212.814
122.563 44890 211.873
122.679 44049 209.879
122.795 43282 208.043
122.912 42955 207.256
123.028 42959 207.266
123.144 43282 208.043
123.26 43428 208.394
123.377 0 1
123.493 0 1
123.609 0 1
123.725 0 1
123.84 0 1
123.956 0 1
124.072 0 1
124.188 0 1
124.303 0 1
124.419 0 1
126.852 0 1
126.968 0 1
127.083 0 1
127.199 0 1
127.315 0 1
127.431 0 1
127.547 0 1
127.663 0 1
127.779 0 1
127.895 0 1
128.011 0 1
128.127 0 1
128.243 0 1
128.359 46418 215.448
128.476 46685 216.067
128.592 46002 214.481
128.708 44962 212.042
128.825 42989 207.338
128.941 40927 202.304
129.058 38901 197.233
129.174 36633 191.397
129.291 35196 187.606
129.408 35406 188.165
129.524 35448 188.276
129.641 36355 190.67
129.758 38377 195.9
129.875 40383 200.955
129.992 42455 206.046
130.108 43927 209.588
130.225 44970 212.061
130.342 45898 214.238
130.459 45088 212.339
130.576 47377 217.663
130.693 45339 212.93
130.81 44910 211.92
130.928 44091 209.979
131.045 44648 211.301
131.162 45799 214.007
131.279 46280 215.128
131.396 45782 213.967
131.513 44732 211.499
131.631 44678 211.372
131.748 44933 211.974
131.865 45699 213.773
131.983 45510 213.331
132.1 45520 213.354
132.217 44406 210.727
132.335 42713 206.671
132.452 41398 203.465
132.57 39059 197.633
132.687 36710 191.599
132.804 36335 190.617
132.922 34891 186.791
133.039 34624 186.075
133.157 35154 187.494
133.274 36306 190.541
133.392 38100 195.192
133.509 40133 200.332
133.627 41638 204.054
133.744 43345 208.195
133.862 43486 208.533
133.979 43789 209.258
134.097 44171 210.169
134.214 43455 208.459
134.332 43277 208.031
134.449 42544 206.262
134.567 42173 205.361
134.684 43291 208.065
134.802 43958 209.662
134.919 44080 209.952
135.037 43830 209.356
135.154 42875 207.063
135.272 43327 208.151
135.389 43281 208.041
135.507 43836 209.37
135.624 43939 209.616
135.742 43342 208.187
135.859 42246 205.538
135.977 41211 203.005
136.094 39594 198.982
136.211 37661 194.064
136.329 35871 189.396
136.446 34423 185.534
136.564 34086 184.624
136.681 33926 184.19
136.798 34602 186.016
136.915 35370 188.069
137.033 37133 192.699
137.15 38196 195.438
137.267 39530 198.822
137.384 40502 201.251
137.502 41210 203.002
137.619 41182 202.933
137.736 41689 204.179
137.853 40830 202.064
137.97 40785 201.953
138.087 39224 198.05
138.204 39812 199.529
138.321 41240 203.076
138.438 41747 204.321
138.555 42354 205.801
138.672 42071 205.112
138.788 41509 203.738
138.905 41558 203.858
139.022 42348 205.786
139.139 42189 205.4
139.255 42505 206.167
139.372 42040 205.037
139.488 41844 204.558
139.605 39956 199.89
139.721 38862 197.134
139.838 37943 194.79
139.954 36215 190.302
140.071 34566 185.919
140.187 34235 185.027
140.303 33355 182.634
140.419 33281 182.431
140.535 33719 183.627
140.652 33790 183.821
140.768 0 1
140.884 0 1
141 0 1
141.115 0 1
141.231 0 1
141.347 0 1
141.463 0 1
141.578 0 1
141.694 0 1
144.104 0 1
144.219 0 1
144.335 0 1
144.45 0 1
144.566 0 1
144.682 0 1
144.798 0 1
144.914 0 1
145.03 0 1
145.146 24024 154.997
145.262 25727 160.396
145.378 25873 160.851
145.494 26862 163.896
145.61 27126 164.7
145.726 28263 168.116
145.842 28886 169.959
145.959 29445 171.595
146.075 30337 174.175
146.192 30841 175.616
146.308 31179 176.576
146.425 30814 175.539
146.541 30940 175.898
146.658 30305 174.083
146.774 29782 172.575
146.891 29630 172.134
147.008 30051 173.352
147.125 30450 174.499
147.241 31123 176.417
147.358 31932 178.695
147.475 31376 177.133
147.592 32113 179.201
147.709 31515 177.525
147.826 32158 179.327
147.943 32205 179.458
148.06 32277 179.658
148.177 31994 178.869
148.294 31740 178.157
148.411 30799 175.496
148.528 30425 174.428
148.645 28996 170.282
148.762 28748 169.552
148.88 28127 167.711
148.997 27412 165.566
149.114 28096 167.619
149.231 27589 166.099
149.349 27865 166.928
149.466 29093 170.567
149.583 29210 170.909
149.701 30110 173.522
149.818 30206 173.799
149.935 30613 174.966
150.053 30937 175.889
150.17 31306 176.935
150.287 31077 176.287
150.405 30962 175.96
150.522 30255 173.94
150.64 29740 172.453
150.757 30487 174.605
150.875 30533 174.737
150.992 31675 177.975
151.11 32344 179.844
151.227 32180 179.388
151.344 31419 177.254
151.462 31690 178.017
151.579 32621 180.613
151.697 32628 180.632
151.814 32016 178.93
151.932 31878 178.544
152.049 31378 177.138
152.167 30650 175.071
152.284 29948 173.055
152.402 29678 172.273
152.519 28835 169.809
152.636 28751 169.561
152.754 28283 168.176
152.871 28570 169.027
152.989 28834 169.806
153.106 28870 169.912
153.223 29648 172.186
153.341 30208 173.804
153.458 31104 176.363
153.575 31063 176.247
153.693 31446 177.33
153.81 31640 177.876
153.927 31339 177.028
154.044 30846 175.63
154.162 30184 173.735
154.279 30339 174.181
154.396 30950 175.926
154.513 31669 177.958
154.63 32997 181.651
154.747 33418 182.806
154.864 33291 182.458
154.981 33810 183.875
155.098 33596 183.292
155.215 33626 183.374
155.332 33292 182.461
155.449 33135 182.03
155.566 33205 182.222
155.683 32331 179.808
155.8 31526 177.556
155.917 31184 176.59
156.033 30771 175.417
156.15 0 1
156.267 0 1
156.383 0 1
156.5 0 1
156.617 0 1
156.733 0 1
156.85 0 1
156.966 0 1
157.082 0 1
157.199 0 1
157.315 0 1
157.431 0 1
157.547 0 1
157.664 0 1
157.78 0 1
157.896 0 1
158.012 0 1
158.128 0 1
158.244 0 1
158.359 0 1
158.475 0 1
158.591 0 1
158.706 0 1
