
6.15755 0 1
6.2731 0 1
6.3887 0 1
6.50437 0 1
6.62009 0 1
6.73587 0 1
6.8517 0 1
6.96759 0 1
7.08353 0 1
7.19952 0 1
7.31557 0 1
7.43166 0 1
7.54781 0 1
7.664 0 1
7.78024 0 1
7.89653 0 1
8.01286 0 1
8.12924 0 1
8.24567 0 1
8.36213 0 1
8.47864 0 1
8.59519 0 1
8.71178 0 1
8.82841 0 1
8.94508 0 1
9.06179 0 1
9.17853 0 1
9.29531 0 1
9.41212 0 1
9.52897 0 1
9.64584 0 1
9.76276 0 1
9.8797 0 1
9.99667 0 1
10.1137 0 1
10.2307 0 1
10.3478 0 1
10.4648 0 1
10.5819 0 1
10.6991 0 1
10.8162 0 1
10.9334 0 1
11.0506 0 1
11.1678 0 1
11.285 0 1
11.4023 0 1
11.5196 0 1
11.6369 0 1
11.7542 0 1
11.8715 0 1
11.9888 0 1
12.1062 0 1
12.2235 0 1
12.3409 0 1
12.4582 0 1
12.5756 0 1
12.693 0 1
12.8104 0 1
12.9278 0 1
13.0452 0 1
13.1626 0 1
13.28 0 1
13.3974 0 1
13.5149 0 1
13.6323 0 1
13.7497 0 1
13.8671 0 1
13.9845 0 1
14.1019 0 1
14.2193 0 1
14.3367 0 1
14.4541 0 1
14.5714 0 1
14.6888 0 1
14.8062 0 1
14.9235 0 1
15.0408 0 0
15.1581 0 0
15.2755 0 0
15.3927 0 0
15.51 0 0
15.6273 0 0
15.7445 0 0
15.8617 0 0
15.9789 0 0
16.0961 0 0
16.2132 0 0
16.3304 0 0
16.4475 0 0
16.5646 0 0
16.6816 0 0
16.7986 0 0
16.9156 0 0
17.0326 0 0
17.1496 0 0
17.2665 0 0
17.3833 0 0
17.5002 0 0
17.617 0 0
17.7338 0 0
17.8505 0 0
17.9672 0 0
18.0839 0 0
18.2005 0 0
18.3171 0 0
18.4337 0 0
18.5502 0 0
18.6666 0 0
18.7831 0 0
18.8994 0 0
19.0158 0 0
19.1321 0 0
19.2483 0 0
19.3645 0 0
19.4806 0 0
19.5967 0 0
19.7128 0 0
19.8288 0 0
19.9447 0 0
20.0606 0 1
20.1764 0 1
20.2922 0 1
20.4079 0 1
20.5236 0 1
20.6392 0 1
20.7548 0 1
20.8702 0 1
23.3078 0 1
23.4233 0 1
23.539 0 1
23.6547 0 1
23.7704 0 1
23.8862 0 1
24.0021 0 1
24.118 0 1
24.234 0 1
24.35 0 1
24.4661 1117 33.4215
24.5822 1161 34.0735
24.6984 1118 33.4365
24.8146 1136 33.7046
24.9309 1161 34.0735
25.0472 1096 33.1059
25.1636 1222 34.9571
25.28 1187 34.4529
25.3965 1248 35.327
25.513 1232 35.0999
25.6296 1233 35.1141
25.7462 1337 36.565
25.8628 1335 36.5377
25.9795 1285 35.8469
26.0962 1351 36.756
26.213 1397 37.3765
26.3298 1352 36.7696
26.4466 1441 37.9605
26.5635 1323 36.3731
26.6804 1261 35.5106
26.7973 1211 34.7994
26.9143 1261 35.5106
27.0313 1241 35.2278
27.1483 1327 36.428
27.2653 1367 36.973
27.3824 1312 36.2215
27.4996 1378 37.1214
27.6167 1416 37.6298
27.7339 1279 35.7631
27.8511 1309 36.1801
27.9683 1379 37.1349
28.0855 1294 35.9722
28.2028 1361 36.8917
28.3201 1388 37.2559
28.4374 1329 36.4555
28.5547 1333 36.5103
28.6721 1258 35.4683
28.7894 1252 35.3836
28.9068 1302 36.0832
29.0242 1276 35.7211
29.1416 1384 37.2022
29.259 1432 37.8418
29.3764 1380 37.1484
29.4939 1361 36.8917
29.6113 1470 38.3406
29.7288 1404 37.47
29.8463 1425 37.7492
29.9638 1351 36.756
30.0812 1403 37.4566
30.1987 1336 36.5513
30.3162 1259 35.4824
30.4337 1269 35.623
30.5512 1210 34.7851
30.6687 1218 34.8999
30.7862 1304 36.1109
30.9037 1232 35.0999
31.0212 1315 36.2629
31.1387 1298 36.0278
31.2562 1228 35.0428
31.3737 1280 35.7771
31.4912 1311 36.2077
31.6087 1298 36.0278
31.7262 1235 35.1426
31.8436 1241 35.2278
31.9611 1243 35.2562
32.0785 1188 34.4674
32.1959 1147 33.8674
32.3134 1172 34.2345
32.4308 1183 34.3948
32.5482 1213 34.8281
32.6655 1233 35.1141
32.7829 1256 35.4401
32.9002 1268 35.609
33.0176 1270 35.6371
33.1349 1241 35.2278
33.2522 1208 34.7563
33.3694 1206 34.7275
33.4867 1262 35.5246
33.6039 1297 36.0139
33.7211 1211 34.7994
33.8383 1234 35.1283
33.9554 1146 33.8526
34.0725 1058 32.5269
34.1896 1081 32.8786
34.3067 1169 34.1906
34.4237 1190 34.4964
34.5407 1215 34.8569
34.6577 1097 33.121
34.7746 1118 33.4365
34.8915 1122 33.4963
35.0084 1162 34.0881
35.1252 1178 34.322
35.242 1163 34.1028
35.3587 1199 34.6266
35.4755 1154 33.9706
35.5921 1185 34.4238
35.7088 1157 34.0147
35.8254 1086 32.9545
35.9419 1028 32.0624
36.0584 1159 34.0441
36.1749 1039 32.2335
36.2913 1097 33.121
36.4077 1074 32.7719
36.524 1142 33.7935
36.6403 1183 34.3948
36.7565 1211 34.7994
36.8727 1200 34.641
36.9889 1211 34.7994
37.1049 1106 33.2566
37.221 0 1
37.3369 0 1
37.4529 0 1
37.5687 0 1
37.6845 0 1
37.8003 0 1
37.916 0 1
38.0316 0 1
38.1472 0 1
40.5851 0 1
40.7008 0 1
40.8164 0 1
40.9322 0 1
41.048 0 1
41.1639 0 1
41.2798 0 1
41.3958 0 1
41.5118 0 1
41.6279 0 1
41.744 894 29.8998
41.8602 969 31.1288
41.9765 965 31.0644
42.0928 999 31.607
42.2091 962 31.0161
42.3255 1008 31.749
42.4419 1014 31.8434
42.5584 1003 31.6702
42.675 975 31.225
42.7915 950 30.8221
42.9081 855 29.2404
43.0248 882 29.6985
43.1415 857 29.2746
43.2582 866 29.4279
43.375 905 30.0832
43.4918 973 31.1929
43.6087 938 30.6268
43.7256 895 29.9166
43.8425 921 30.348
43.9595 863 29.3769
44.0765 837 28.931
44.1935 858 29.2916
44.3106 886 29.7658
44.4277 793 28.1603
44.5448 787 28.0535
44.6619 733 27.074
44.7791 768 27.7128
44.8963 742 27.2397
45.0136 757 27.5136
45.1308 790 28.1069
45.2481 779 27.9106
45.3654 811 28.4781
45.4827 763 27.6225
45.6001 785 28.0179
45.7174 800 28.2843
45.8348 724 26.9072
45.9522 732 27.0555
46.0697 770 27.7489
46.1871 829 28.7924
46.3046 710 26.6458
46.422 683 26.1343
46.5395 671 25.9037
46.657 622 24.9399
46.7745 708 26.6083
46.892 713 26.7021
47.0096 726 26.9444
47.1271 692 26.3059
47.2446 751 27.4044
47.3622 699 26.4386
47.4797 676 26
47.5973 649 25.4755
47.7149 636 25.219
47.8324 642 25.3377
47.95 637 25.2389
48.0675 611 24.7184
48.1851 600 24.4949
48.3027 601 24.5153
48.4202 585 24.1868
48.5378 616 24.8193
48.6554 564 23.7487
48.7729 625 25
48.8904 637 25.2389
49.008 638 25.2587
49.1255 668 25.8457
49.243 612 24.7386
49.3605 595 24.3926
49.478 641 25.318
49.5955 613 24.7588
49.713 576 24
49.8304 581 24.1039
49.9479 532 23.0651
50.0653 567 23.8118
50.1827 538 23.1948
50.3001 605 24.5967
50.4175 645 25.3969
50.5348 630 25.0998
50.6521 657 25.632
50.7694 642 25.3377
50.8867 717 26.7769
51.004 684 26.1534
51.1212 635 25.1992
51.2384 737 27.1477
51.3556 758 27.5318
51.4727 783 27.9821
51.5899 707 26.5895
51.707 706 26.5707
51.824 718 26.7955
51.9411 783 27.9821
52.0581 794 28.178
52.175 805 28.3725
52.2919 837 28.931
52.4088 854 29.2233
52.5257 848 29.1204
52.6425 820 28.6356
52.7593 909 30.1496
52.876 911 30.1828
52.9927 900 30
53.1094 931 30.5123
53.226 980 31.305
53.3426 912 30.1993
53.4591 825 28.7228
53.5756 851 29.1719
53.692 819 28.6182
53.8084 824 28.7054
53.9248 875 29.5804
54.0411 925 30.4138
54.1573 917 30.282
54.2735 0 1
54.3896 0 1
54.5057 0 1
54.6217 0 1
54.7377 0 1
54.8537 0 1
54.9695 0 1
55.0853 0 1
55.2011 0 1
55.3168 0 1
55.4324 0 1
57.824 0 1
57.9396 0 1
58.0553 0 1
58.1711 0 1
58.2869 0 1
58.4028 0 1
58.5187 0 1
58.6347 0 1
58.7508 0 1
58.8669 0 1
58.983 949 30.8058
59.0992 1046 32.3419
59.2155 1061 32.573
59.3318 1096 33.1059
59.4482 1071 32.7261
59.5646 1141 33.7787
59.681 1066 32.6497
59.7975 1018 31.9061
59.9141 1025 32.0156
60.0306 1046 32.3419
60.1473 1015 31.8591
60.2639 1068 32.6803
60.3807 958 30.9516
60.4974 996 31.5595
60.6142 960 30.9839
60.731 1004 31.686
60.8479 1048 32.3728
60.9648 1077 32.8177
61.0818 993 31.5119
61.1987 1023 31.9844
61.3158 1071 32.7261
61.4328 1031 32.1092
61.5499 1023 31.9844
61.667 1018 31.9061
61.7841 985 31.3847
61.9013 1043 32.2955
62.0185 980 31.305
62.1357 926 30.4302
62.253 926 30.4302
62.3702 914 30.2324
62.4875 890 29.8329
62.6049 999 31.607
62.7222 1060 32.5576
62.8396 1086 32.9545
62.9569 1041 32.2645
63.0743 1045 32.3265
63.1918 980 31.305
63.3092 953 30.8707
63.4267 960 30.9839
63.5441 908 30.133
63.6616 915 30.249
63.7791 893 29.8831
63.8966 874 29.5635
64.0142 959 30.9677
64.1317 908 30.133
64.2492 899 29.9833
64.3668 917 30.282
64.4843 960 30.9839
64.6019 933 30.545
64.7195 947 30.7734
64.837 977 31.257
64.9546 951 30.8383
65.0722 892 29.8664
65.1898 1017 31.8904
65.3074 935 30.5778
65.4249 898 29.9666
65.5425 890 29.8329
65.6601 874 29.5635
65.7777 840 28.9828
65.8952 832 28.8444
66.0128 850 29.1548
66.1304 839 28.9655
66.2479 886 29.7658
66.3655 938 30.6268
66.483 968 31.1127
66.6005 946 30.7571
66.718 968 31.1127
66.8355 884 29.7321
66.953 836 28.9137
67.0705 840 28.9828
67.1879 821 28.6531
67.3054 826 28.7402
67.4228 837 28.931
67.5402 844 29.0517
67.6576 891 29.8496
67.7749 887 29.7825
67.8923 902 30.0333
68.0096 924 30.3974
68.1269 919 30.315
68.2442 955 30.9031
68.3614 954 30.8869
68.4787 983 31.3528
68.5958 878 29.6311
68.713 971 31.1609
68.8302 968 31.1127
68.9473 997 31.5753
69.0643 1032 32.1248
69.1814 1003 31.6702
69.2984 923 30.3809
69.4154 871 29.5127
69.5323 849 29.1376
69.6492 926 30.4302
69.7661 913 30.2159
69.8829 990 31.4643
69.9997 1042 32.28
70.1165 1073 32.7567
70.2332 1080 32.8634
70.3499 1091 33.0303
70.4665 1021 31.9531
70.5831 996 31.5595
70.6996 938 30.6268
70.8161 873 29.5466
70.9326 892 29.8664
71.049 871 29.5127
71.1653 876 29.5973
71.2817 904 30.0666
71.3979 900 30
71.5141 898 29.9666
71.6303 993 31.5119
71.7464 874 29.5635
71.8624 0 1
71.9784 0 1
72.0944 0 1
72.2102 0 1
72.3261 0 1
72.4418 0 1
72.5575 0 1
72.6732 0 1
75.1054 0 1
75.2209 0 1
75.3365 0 1
75.4521 0 1
75.5678 0 1
75.6835 0 1
75.7993 0 1
75.9151 0 1
76.031 0 1
76.147 755 27.4773
76.263 919 30.315
76.3791 889 29.8161
76.4952 904 30.0666
76.6113 933 30.545
76.7276 934 30.5614
76.8438 953 30.8707
76.9601 1001 31.6386
77.0765 998 31.5911
77.1929 987 31.4166
77.3093 1003 31.6702
77.4258 1031 32.1092
77.5423 1079 32.8481
77.6589 1002 31.6544
77.7755 1042 32.28
77.8921 1020 31.9374
78.0088 950 30.8221
78.1256 1001 31.6386
78.2423 893 29.8831
78.3591 828 28.775
78.4759 829 28.7924
78.5928 851 29.1719
78.7097 884 29.7321
78.8266 961 31
78.9436 1029 32.078
79.0606 1019 31.9218
79.1776 1027 32.0468
79.2946 1110 33.3167
79.4117 1033 32.1403
79.5288 1033 32.1403
79.6459 992 31.496
79.7631 876 29.5973
79.8802 803 28.3373
79.9974 798 28.2489
80.1147 886 29.7658
80.2319 861 29.3428
80.3491 910 30.1662
80.4664 912 30.1993
80.5837 907 30.1164
80.701 903 30.05
80.8183 978 31.273
80.9357 1000 31.6228
81.053 953 30.8707
81.1704 952 30.8545
81.2877 889 29.8161
81.4051 930 30.4959
81.5225 895 29.9166
81.6399 1007 31.7333
81.7573 840 28.9828
81.8747 793 28.1603
81.9922 819 28.6182
82.1096 838 28.9482
82.227 768 27.7128
82.3444 768 27.7128
82.4619 836 28.9137
82.5793 944 30.7246
82.6967 889 29.8161
82.8142 896 29.9333
82.9316 944 30.7246
83.049 917 30.282
83.1664 952 30.8545
83.2838 945 30.7409
83.4012 784 28
83.5186 689 26.2488
83.636 664 25.7682
83.7534 695 26.3629
83.8708 795 28.1957
83.9881 779 27.9106
84.1055 809 28.4429
84.2228 905 30.0832
84.3401 849 29.1376
84.4575 920 30.3315
84.5747 854 29.2233
84.692 944 30.7246
84.8093 923 30.3809
84.9265 900 30
85.0437 923 30.3809
85.1609 971 31.1609
85.2781 908 30.133
85.3952 825 28.7228
85.5123 796 28.2135
85.6294 823 28.688
85.7465 818 28.6007
85.8636 839 28.9655
85.9806 905 30.0832
86.0976 955 30.9031
86.2145 1025 32.0156
86.3315 1058 32.5269
86.4484 1026 32.0312
86.5652 1064 32.619
86.682 1033 32.1403
86.7988 1014 31.8434
86.9156 1019 31.9218
87.0323 911 30.1828
87.149 831 28.8271
87.2657 853 29.2062
87.3823 825 28.7228
87.4988 996 31.5595
87.6154 1018 31.9061
87.7318 977 31.257
87.8483 1067 32.665
87.9647 1045 32.3265
88.081 1182 34.3802
88.1973 1104 33.2265
88.3136 1086 32.9545
88.4298 1095 33.0908
88.546 1064 32.619
88.6621 1128 33.5857
88.7781 1109 33.3017
88.8942 0 1
89.0101 0 1
89.126 0 1
89.2419 0 1
89.3577 0 1
89.4734 0 1
89.5891 0 1
89.7047 0 1
89.8203 0 1
89.9358 0 1
92.3269 0 1
92.4424 0 1
92.558 0 1
92.6736 0 1
92.7893 0 1
92.905 0 1
93.0208 0 1
93.1366 0 1
93.2525 0 1
93.3685 0 1
93.4845 0 1
93.6005 1076 32.8024
93.7167 1057 32.5115
93.8328 1101 33.1813
93.949 1092 33.0454
94.0653 1108 33.2866
94.1816 1057 32.5115
94.2979 1014 31.8434
94.4143 988 31.4325
94.5307 937 30.6105
94.6472 948 30.7896
94.7637 906 30.0998
94.8803 1019 31.9218
94.9969 1020 31.9374
95.1135 1080 32.8634
95.2302 1083 32.909
95.3469 1111 33.3317
95.4637 1106 33.2566
95.5805 1142 33.7935
95.6973 1149 33.8969
95.8142 1187 34.4529
95.9311 1134 33.6749
96.048 1078 32.8329
96.1649 1022 31.9687
96.2819 926 30.4302
96.3989 872 29.5296
96.516 882 29.6985
96.633 913 30.2159
96.7501 1003 31.6702
96.8673 1145 33.8378
96.9844 1069 32.6956
97.1016 1140 33.7639
97.2188 1043 32.2955
97.336 1149 33.8969
97.4532 1180 34.3511
97.5704 1163 34.1028
97.6877 1148 33.8821
97.805 1090 33.0151
97.9223 1061 32.573
98.0396 1007 31.7333
98.1569 957 30.9354
98.2743 880 29.6648
98.3916 971 31.1609
98.509 939 30.6431
98.6264 961 31
98.7438 1067 32.665
98.8612 1062 32.5883
98.9786 1095 33.0908
99.096 1136 33.7046
99.2134 1123 33.5112
99.3308 1137 33.7194
99.4482 1123 33.5112
99.5656 1160 34.0588
99.6831 1165 34.1321
99.8005 1076 32.8024
99.9179 920 30.3315
100.035 884 29.7321
100.153 904 30.0666
100.27 1032 32.1248
100.388 1096 33.1059
100.505 1089 33
100.622 1163 34.1028
100.74 1157 34.0147
100.857 1093 33.0606
100.975 1178 34.322
101.092 1106 33.2566
101.209 1125 33.541
101.327 1134 33.6749
101.444 1070 32.7109
101.561 1107 33.2716
101.679 1008 31.749
101.796 964 31.0483
101.913 909 30.1496
102.03 1019 31.9218
102.148 1062 32.5883
102.265 1032 32.1248
102.382 1168 34.176
102.499 1164 34.1174
102.616 1190 34.4964
102.733 1182 34.3802
102.851 1278 35.7491
102.968 1195 34.5688
103.085 1205 34.7131
103.202 1189 34.4819
103.319 1127 33.5708
103.436 1039 32.2335
103.552 918 30.2985
103.669 873 29.5466
103.786 1004 31.686
103.903 1118 33.4365
104.02 1193 34.5398
104.137 1146 33.8526
104.253 1140 33.7639
104.37 1193 34.5398
104.487 1151 33.9264
104.603 1213 34.8281
104.72 1246 35.2987
104.836 1227 35.0286
104.953 1168 34.176
105.069 1100 33.1662
105.186 1050 32.4037
105.302 1046 32.3419
105.418 1046 32.3419
105.535 1075 32.7872
105.651 1164 34.1174
105.767 1254 35.4119
105.883 1265 35.5668
105.999 1276 35.7211
106.115 0 1
106.231 0 1
106.347 0 1
106.463 0 1
106.579 0 1
106.694 0 1
106.81 0 1
106.926 0 1
107.041 0 1
107.157 0 1
109.576 0 1
109.692 0 1
109.807 0 1
109.923 0 1
110.039 0 1
110.155 0 1
110.27 0 1
110.386 0 1
110.502 0 1
110.618 1062 32.5883
110.735 1139 33.7491
110.851 1202 34.6699
110.967 1156 34
111.083 1212 34.8138
111.199 1193 34.5398
111.316 1255 35.426
111.432 1219 34.9142
111.549 1281 35.7911
111.665 1180 34.3511
111.782 1185 34.4238
111.898 1092 33.0454
112.015 951 30.8383
112.132 896 29.9333
112.248 880 29.6648
112.365 996 31.5595
112.482 1119 33.4515
112.599 1156 34
112.716 1198 34.6121
112.832 1147 33.8674
112.949 1141 33.7787
113.066 1168 34.176
113.183 1214 34.8425
113.3 1208 34.7563
113.417 1054 32.4654
113.534 1036 32.187
113.652 987 31.4166
113.769 963 31.0322
113.886 961 31
114.003 924 30.3974
114.12 1005 31.7017
114.238 1168 34.176
114.355 1186 34.4384
114.472 1119 33.4515
114.589 1173 34.2491
114.707 1091 33.0303
114.824 1179 34.3366
114.942 1211 34.7994
115.059 1200 34.641
115.176 1144 33.8231
115.294 1161 34.0735
115.411 1119 33.4515
115.529 992 31.496
115.646 951 30.8383
115.764 867 29.4449
115.881 917 30.282
115.999 1004 31.686
116.116 1125 33.541
116.234 1117 33.4215
116.351 1101 33.1813
116.469 1147 33.8674
116.586 1093 33.0606
116.704 1140 33.7639
116.821 1126 33.5559
116.939 1130 33.6155
117.056 1052 32.4345
117.174 1001 31.6386
117.291 986 31.4006
117.409 952 30.8545
117.526 956 30.9192
117.644 1000 31.6228
117.761 1040 32.249
117.879 1214 34.8425
117.996 1195 34.5688
118.114 1215 34.8569
118.231 1196 34.5832
118.349 1142 33.7935
118.466 1194 34.5543
118.584 1201 34.6554
118.701 1261 35.5106
118.819 1165 34.1321
118.936 1161 34.0735
119.053 1137 33.7194
119.171 1097 33.121
119.288 943 30.7083
119.405 891 29.8496
119.523 905 30.0832
119.64 1075 32.7872
119.757 1090 33.0151
119.875 1152 33.9411
119.992 1119 33.4515
120.109 1129 33.6006
120.226 1112 33.3467
120.343 1103 33.2114
120.46 1078 32.8329
120.578 1139 33.7491
120.695 1083 32.909
120.812 1025 32.0156
120.929 1005 31.7017
121.046 910 30.1662
121.163 920 30.3315
121.279 985 31.3847
121.396 1018 31.9061
121.513 1009 31.7648
121.63 1132 33.6452
121.747 1111 33.3317
121.863 1203 34.6843
121.98 1273 35.6791
122.097 1179 34.3366
122.213 1165 34.1321
122.33 1183 34.3948
122.446 1098 33.1361
122.563 1088 32.9848
122.679 1120 33.4664
122.795 1051 32.4191
122.912 1026 32.0312
123.028 923 30.3809
123.144 854 29.2233
123.26 806 28.3901
123.377 0 1
123.493 0 1
123.609 0 1
123.725 0 1
123.84 0 1
123.956 0 1
124.072 0 1
124.188 0 1
124.303 0 1
124.419 0 1
126.852 0 1
126.968 0 1
127.083 0 1
127.199 0 1
127.315 0 1
127.431 0 1
127.547 0 1
127.663 0 1
127.779 0 1
127.895 0 1
128.011 0 1
128.127 0 1
128.243 0 1
128.359 908 30.133
128.476 859 29.3087
128.592 1028 32.0624
128.708 1153 33.9559
128.825 1118 33.4365
128.941 1139 33.7491
129.058 1144 33.8231
129.174 1241 35.2278
129.291 1201 34.6554
129.408 1154 33.9706
129.524 1207 34.7419
129.641 1148 33.8821
129.758 1060 32.5576
129.875 1056 32.4962
129.992 1035 32.1714
130.108 998 31.5911
130.225 1038 32.218
130.342 1126 33.5559
130.459 1149 33.8969
130.576 1178 34.322
130.693 1194 34.5543
130.81 1242 35.242
130.928 1204 34.6987
131.045 1198 34.6121
131.162 1240 35.2136
131.279 1273 35.6791
131.396 1222 34.9571
131.513 1238 35.1852
131.631 1140 33.7639
131.748 1104 33.2265
131.865 1012 31.8119
131.983 927 30.4467
132.1 993 31.5119
132.217 1081 32.8786
132.335 1227 35.0286
132.452 1209 34.7707
132.57 1203 34.6843
132.687 1218 34.8999
132.804 1227 35.0286
132.922 1230 35.0714
133.039 1203 34.6843
133.157 1186 34.4384
133.274 1141 33.7787
133.392 1090 33.0151
133.509 1027 32.0468
133.627 998 31.5911
133.744 1022 31.9687
133.862 1126 33.5559
133.979 1164 34.1174
134.097 1210 34.7851
134.214 1139 33.7491
134.332 1247 35.3129
134.449 1163 34.1028
134.567 1238 35.1852
134.684 1263 35.5387
134.802 1243 35.2562
134.919 1265 35.5668
135.037 1226 35.0143
135.154 1166 34.1467
135.272 1171 34.2199
135.389 977 31.257
135.507 930 30.4959
135.624 942 30.692
135.742 1035 32.1714
135.859 1180 34.3511
135.977 1166 34.1467
136.094 1168 34.176
136.211 1204 34.6987
136.329 1194 34.5543
136.446 1199 34.6266
136.564 1186 34.4384
136.681 1164 34.1174
136.798 1162 34.0881
136.915 1145 33.8378
137.033 1058 32.5269
137.15 1011 31.7962
137.267 1006 31.7175
137.384 937 30.6105
137.502 1048 32.3728
137.619 1153 33.9559
137.736 1180 34.3511
137.853 1158 34.0294
137.97 1196 34.5832
138.087 1169 34.1906
138.204 1204 34.6987
138.321 1269 35.623
138.438 1214 34.8425
138.555 1260 35.4965
138.672 1164 34.1174
138.788 1202 34.6699
138.905 1115 33.3916
139.022 1093 33.0606
139.139 938 30.6268
139.255 954 30.8869
139.372 1050 32.4037
139.488 1175 34.2783
139.605 1249 35.3412
139.721 1257 35.4542
139.838 1187 34.4529
139.954 1260 35.4965
140.071 1278 35.7491
140.187 1196 34.5832
140.303 1173 34.2491
140.419 1177 34.3074
140.535 1104 33.2265
140.652 1041 32.2645
140.768 0 1
140.884 0 1
141 0 1
141.115 0 1
141.231 0 1
141.347 0 1
141.463 0 1
141.578 0 1
141.694 0 1
144.104 0 1
144.219 0 1
144.335 0 1
144.45 0 1
144.566 0 1
144.682 0 1
144.798 0 1
144.914 0 1
145.03 0 1
145.146 892 29.8664
145.262 895 29.9166
145.378 984 31.3688
145.494 929 30.4795
145.61 917 30.282
145.726 873 29.5466
145.842 888 29.7993
145.959 826 28.7402
146.075 825 28.7228
146.192 833 28.8617
146.308 858 29.2916
146.425 874 29.5635
146.541 954 30.8869
146.658 978 31.273
146.774 979 31.289
146.891 964 31.0483
147.008 1011 31.7962
147.125 956 30.9192
147.241 962 31.0161
147.358 987 31.4166
147.475 1008 31.749
147.592 1050 32.4037
147.709 978 31.273
147.826 927 30.4467
147.943 813 28.5132
148.06 758 27.5318
148.177 793 28.1603
148.294 859 29.3087
148.411 940 30.6594
148.528 1016 31.8748
148.645 1008 31.749
148.762 950 30.8221
148.88 970 31.1448
148.997 949 30.8058
149.114 1003 31.6702
149.231 977 31.257
149.349 916 30.2655
149.466 923 30.3809
149.583 901 30.0167
149.701 829 28.7924
149.818 858 29.2916
149.935 789 28.0891
150.053 827 28.7576
150.17 882 29.6985
150.287 847 29.1033
150.405 930 30.4959
150.522 953 30.8707
150.64 943 30.7083
150.757 1012 31.8119
150.875 1036 32.187
150.992 993 31.5119
151.11 1073 32.7567
151.227 1010 31.7805
151.344 1055 32.4808
151.462 938 30.6268
151.579 974 31.209
151.697 893 29.8831
151.814 839 28.9655
151.932 800 28.2843
152.049 887 29.7825
152.167 935 30.5778
152.284 940 30.6594
152.402 997 31.5753
152.519 979 31.289
152.636 1039 32.2335
152.754 998 31.5911
152.871 1042 32.28
152.989 947 30.7734
153.106 931 30.5123
153.223 919 30.315
153.341 890 29.8329
153.458 853 29.2062
153.575 845 29.0689
153.693 880 29.6648
153.81 924 30.3974
153.927 925 30.4138
154.044 1037 32.2025
154.162 1047 32.3574
154.279 1089 33
154.396 1006 31.7175
154.513 1015 31.8591
154.63 1085 32.9393
154.747 1049 32.3883
154.864 1092 33.0454
154.981 1075 32.7872
155.098 1005 31.7017
155.215 920 30.3315
155.332 877 29.6142
155.449 962 31.0161
155.566 982 31.3369
155.683 1039 32.2335
155.8 1093 33.0606
155.917 1104 33.2265
156.033 1059 32.5423
156.15 0 1
156.267 0 1
156.383 0 1
156.5 0 1
156.617 0 1
156.733 0 1
156.85 0 1
156.966 0 1
157.082 0 1
157.199 0 1
157.315 0 1
157.431 0 1
157.547 0 1
157.664 0 1
157.78 0 1
157.896 0 1
158.012 0 1
158.128 0 1
158.244 0 1
158.359 0 1
158.475 0 1
158.591 0 1
158.706 0 1
