
6.15755 0 1
6.2731 0 1
6.3887 0 1
6.50437 0 1
6.62009 0 1
6.73587 0 1
6.8517 0 1
6.96759 0 1
7.08353 0 1
7.19952 0 1
7.31557 0 1
7.43166 0 1
7.54781 0 1
7.664 0 1
7.78024 0 1
7.89653 0 1
8.01286 0 1
8.12924 0 1
8.24567 0 1
8.36213 0 1
8.47864 0 1
8.59519 0 1
8.71178 0 1
8.82841 0 1
8.94508 0 1
9.06179 0 1
9.17853 0 1
9.29531 0 1
9.41212 0 1
9.52897 0 1
9.64584 0 1
9.76276 0 1
9.8797 0 1
9.99667 0 1
10.1137 0 1
10.2307 0 1
10.3478 0 1
10.4648 0 1
10.5819 0 1
10.6991 0 1
10.8162 0 1
10.9334 0 1
11.0506 0 1
11.1678 0 1
11.285 0 1
11.4023 0 1
11.5196 0 1
11.6369 0 1
11.7542 0 1
11.8715 0 1
11.9888 0 1
12.1062 0 1
12.2235 0 1
12.3409 0 1
12.4582 0 1
12.5756 0 1
12.693 0 1
12.8104 0 1
12.9278 0 1
13.0452 0 1
13.1626 0 1
13.28 0 1
13.3974 0 1
13.5149 0 1
13.6323 0 1
13.7497 0 1
13.8671 0 1
13.9845 0 1
14.1019 0 1
14.2193 0 1
14.3367 0 1
14.4541 0 1
14.5714 0 1
14.6888 0 1
14.8062 0 1
14.9235 0 1
15.0408 22927 151.417
15.1581 24186 155.518
15.2755 24563 156.726
15.3927 24890 157.766
15.51 24683 157.108
15.6273 24614 156.888
15.7445 24489 156.49
15.8617 24774 157.398
15.9789 24346 156.032
16.0961 25091 158.401
16.2132 25516 159.737
16.3304 26169 161.768
16.4475 27027 164.399
16.5646 28153 167.789
16.6816 29095 170.573
16.7986 28972 170.212
16.9156 30273 173.991
17.0326 31257 176.796
17.1496 31951 178.748
17.2665 32371 179.919
17.3833 32659 180.718
17.5002 33602 183.308
17.617 33624 183.368
17.7338 33613 183.338
17.8505 33797 183.84
17.9672 32916 181.428
18.0839 31006 176.085
18.2005 30395 174.342
18.3171 30930 175.869
18.4337 32097 179.156
18.5502 33199 182.206
18.6666 34172 184.857
18.7831 34600 186.011
18.8994 34398 185.467
19.0158 33847 183.976
19.1321 33513 183.066
19.2483 32727 180.906
19.3645 32167 179.352
19.4806 31502 177.488
19.5967 30954 175.937
19.7128 30482 174.591
19.8288 29738 172.447
19.9447 27143 164.751
20.0606 0 1
20.1764 0 1
20.2922 0 1
20.4079 0 1
20.5236 0 1
20.6392 0 1
20.7548 0 1
20.8702 0 1
23.3078 0 1
23.4233 0 1
23.539 0 1
23.6547 0 1
23.7704 0 1
23.8862 0 1
24.0021 0 1
24.118 0 1
24.234 0 1
24.35 0 1
24.4661 30504 174.654
24.5822 30698 175.208
24.6984 30820 175.556
24.8146 30673 175.137
24.9309 30149 173.635
25.0472 30180 173.724
25.1636 30194 173.764
25.28 31201 176.638
25.3965 32093 179.145
25.513 33349 182.617
25.6296 34309 185.227
25.7462 35476 188.351
25.8628 35502 188.42
25.9795 35845 189.328
26.0962 36440 190.893
26.213 36464 190.955
26.3298 36627 191.382
26.4466 36089 189.971
26.5635 35211 187.646
26.6804 33762 183.744
26.7973 32258 179.605
26.9143 32017 178.933
27.0313 33265 182.387
27.1483 34789 186.518
27.2653 35280 187.83
27.3824 35378 188.09
27.4996 35564 188.584
27.6167 34393 185.453
27.7339 34149 184.794
27.8511 33383 182.71
27.9683 32599 180.552
28.0855 32012 178.919
28.2028 32054 179.036
28.3201 30956 175.943
28.4374 30925 175.855
28.5547 30502 174.648
28.6721 30406 174.373
28.7894 30178 173.718
28.9068 30691 175.188
29.0242 31350 177.059
29.1416 32492 180.255
29.259 33065 181.838
29.3764 33886 184.082
29.4939 34559 185.901
29.6113 34892 186.794
29.7288 35283 187.838
29.8463 35493 188.396
29.9638 35027 187.155
30.0812 34284 185.159
30.1987 32407 180.019
30.3162 31058 176.233
30.4337 29522 171.82
30.5512 30610 174.957
30.6687 31584 177.719
30.7862 32995 181.645
30.9037 33687 183.54
31.0212 33964 184.293
31.1387 33735 183.671
31.2562 33249 182.343
31.3737 33152 182.077
31.4912 32088 179.131
31.6087 31714 178.084
31.7262 31306 176.935
31.8436 30529 174.725
31.9611 30287 174.032
32.0785 30205 173.796
32.1959 29859 172.798
32.3134 29422 171.528
32.4308 29660 172.221
32.5482 30827 175.576
32.6655 31254 176.788
32.7829 32096 179.154
32.9002 32600 180.555
33.0176 33562 183.199
33.1349 34215 184.973
33.2522 34404 185.483
33.3694 33859 184.008
33.4867 34207 184.951
33.6039 34140 184.77
33.7211 33852 183.989
33.8383 31968 178.796
33.9554 30346 174.201
34.0725 28373 168.443
34.1896 28551 168.97
34.3067 29636 172.151
34.4237 31022 176.131
34.5407 31543 177.603
34.6577 32272 179.644
34.7746 32465 180.18
34.8915 32108 179.187
35.0084 31756 178.202
35.1252 31214 176.675
35.242 31056 176.227
35.3587 29781 172.572
35.4755 29730 172.424
35.5921 29537 171.863
35.7088 28759 169.585
35.8254 28821 169.767
35.9419 28462 168.707
36.0584 27963 167.221
36.1749 28242 168.054
36.2913 28692 169.387
36.4077 29353 171.327
36.524 30347 174.204
36.6403 31085 176.309
36.7565 31819 178.379
36.8727 32122 179.226
36.9889 32671 180.751
37.1049 32223 179.508
37.221 0 1
37.3369 0 1
37.4529 0 1
37.5687 0 1
37.6845 0 1
37.8003 0 1
37.916 0 1
38.0316 0 1
38.1472 0 1
40.5851 0 1
40.7008 0 1
40.8164 0 1
40.9322 0 1
41.048 0 1
41.1639 0 1
41.2798 0 1
41.3958 0 1
41.5118 0 1
41.6279 0 1
41.744 23074 151.901
41.8602 25413 159.415
41.9765 26363 162.367
42.0928 27459 165.708
42.2091 27588 166.096
42.3255 27271 165.139
42.4419 27402 165.535
42.5584 26973 164.235
42.675 26035 161.354
42.7915 24319 155.946
42.9081 22795 150.98
43.0248 22408 149.693
43.1415 22837 151.119
43.2582 23982 154.861
43.375 25234 158.852
43.4918 25440 159.499
43.6087 25592 159.975
43.7256 25427 159.458
43.8425 24919 157.858
43.9595 24241 155.695
44.0765 24070 155.145
44.1935 23141 152.122
44.3106 22630 150.433
44.4277 22052 148.499
44.5448 21532 146.738
44.6619 20663 143.746
44.7791 20251 142.306
44.8963 19624 140.086
45.0136 19245 138.726
45.1308 19498 139.635
45.2481 19979 141.347
45.3654 20126 141.866
45.4827 20956 144.762
45.6001 20966 144.796
45.7174 21584 146.915
45.8348 21109 145.289
45.9522 20907 144.593
46.0697 20791 144.191
46.1871 20017 141.481
46.3046 19276 138.838
46.422 17835 133.548
46.5395 16899 129.996
46.657 16792 129.584
46.7745 17467 132.163
46.892 18380 135.573
47.0096 18692 136.719
47.1271 18962 137.703
47.2446 19228 138.665
47.3622 18941 137.626
47.4797 18500 136.015
47.5973 18226 135.004
47.7149 17979 134.086
47.8324 17744 133.207
47.95 17432 132.03
48.0675 16922 130.085
48.1851 16328 127.781
48.3027 16056 126.712
48.4202 15611 124.944
48.5378 15545 124.68
48.6554 15629 125.016
48.7729 16034 126.625
48.8904 16734 129.36
49.008 17232 131.271
49.1255 17740 133.192
49.243 18269 135.163
49.3605 18465 135.886
49.478 18334 135.403
49.5955 18669 136.635
49.713 17984 134.104
49.8304 17154 130.973
49.9479 16246 127.46
50.0653 15316 123.758
50.1827 15628 125.012
50.3001 16720 129.306
50.4175 17604 132.68
50.5348 18139 134.681
50.6521 19202 138.571
50.7694 20029 141.524
50.8867 20233 142.243
51.004 20435 142.951
51.1212 20643 143.677
51.2384 20665 143.753
51.3556 20757 144.073
51.4727 20858 144.423
51.5899 20880 144.499
51.707 20441 142.972
51.824 20177 142.046
51.9411 19796 140.698
52.0581 19846 140.876
52.175 20094 141.753
52.2919 21285 145.894
52.4088 22258 149.191
52.5257 23287 152.601
52.6425 23979 154.852
52.7593 24646 156.99
52.876 24984 158.063
52.9927 25235 158.855
53.1094 25765 160.515
53.226 25973 161.161
53.3426 25048 158.266
53.4591 24178 155.493
53.5756 22282 149.272
53.692 21127 145.351
53.8084 21602 146.976
53.9248 22679 150.595
54.0411 23989 154.884
54.1573 25018 158.171
54.2735 0 1
54.3896 0 1
54.5057 0 1
54.6217 0 1
54.7377 0 1
54.8537 0 1
54.9695 0 1
55.0853 0 1
55.2011 0 1
55.3168 0 1
55.4324 0 1
57.824 0 1
57.9396 0 1
58.0553 0 1
58.1711 0 1
58.2869 0 1
58.4028 0 1
58.5187 0 1
58.6347 0 1
58.7508 0 1
58.8669 0 1
58.983 24977 158.041
59.0992 27344 165.36
59.2155 28952 170.153
59.3318 30177 173.715
59.4482 31430 177.285
59.5646 32357 179.881
59.681 32318 179.772
59.7975 32718 180.881
59.9141 32150 179.304
60.0306 31900 178.606
60.1473 31162 176.528
60.2639 30635 175.029
60.3807 30051 173.352
60.4974 28984 170.247
60.6142 28182 167.875
60.731 27229 165.012
60.8479 26862 163.896
60.9648 27374 165.451
61.0818 28366 168.422
61.1987 28743 169.538
61.3158 30112 173.528
61.4328 30866 175.687
61.5499 31199 176.632
61.667 31348 177.054
61.7841 31061 176.241
61.9013 30652 175.077
62.0185 29188 170.845
62.1357 27208 164.948
62.253 25632 160.1
62.3702 25024 158.19
62.4875 25814 160.667
62.6049 27087 164.581
62.7222 28573 169.035
62.8396 29902 172.922
62.9569 30295 174.055
63.0743 31266 176.822
63.1918 31233 176.729
63.3092 31229 176.717
63.4267 31087 176.315
63.5441 30185 173.738
63.6616 30053 173.358
63.7791 29579 171.985
63.8966 28552 168.973
64.0142 27418 165.584
64.1317 26533 162.89
64.2492 25320 159.123
64.3668 25074 158.348
64.4843 25480 159.625
64.6019 26470 162.696
64.7195 27400 165.529
64.837 28211 167.961
64.9546 29713 172.375
65.0722 30029 173.289
65.1898 29966 173.107
65.3074 30196 173.77
65.4249 29630 172.134
65.5425 28770 169.617
65.6601 27051 164.472
65.7777 25124 158.506
65.8952 23744 154.091
66.0128 23621 153.691
66.1304 24954 157.968
66.2479 26514 162.831
66.3655 27739 166.55
66.483 28860 169.882
66.6005 29912 172.951
66.718 30434 174.453
66.8355 30478 174.579
66.953 30228 173.862
67.0705 30047 173.341
67.1879 29847 172.763
67.3054 29338 171.283
67.4228 28898 169.994
67.5402 28225 168.003
67.6576 27108 164.645
67.7749 25738 160.431
67.8923 24840 157.607
68.0096 24412 156.243
68.1269 24671 157.07
68.2442 25695 160.297
68.3614 26832 163.805
68.4787 28201 167.932
68.5958 29810 172.656
68.713 30233 173.876
68.8302 30596 174.917
68.9473 30882 175.733
69.0643 30405 174.37
69.1814 29776 172.557
69.2984 28488 168.784
69.4154 26347 162.318
69.5323 24738 157.283
69.6492 24546 156.672
69.7661 25750 160.468
69.8829 27308 165.251
69.9997 29172 170.798
70.1165 30333 174.164
70.2332 31653 177.913
70.3499 31925 178.676
70.4665 32746 180.959
70.5831 32575 180.485
70.6996 32145 179.29
70.8161 32052 179.031
70.9326 31745 178.171
71.049 30638 175.037
71.1653 29950 173.061
71.2817 29263 171.064
71.3979 27925 167.108
71.5141 25725 160.39
71.6303 24361 156.08
71.7464 22492 149.973
71.8624 0 1
71.9784 0 1
72.0944 0 1
72.2102 0 1
72.3261 0 1
72.4418 0 1
72.5575 0 1
72.6732 0 1
75.1054 0 1
75.2209 0 1
75.3365 0 1
75.4521 0 1
75.5678 0 1
75.6835 0 1
75.7993 0 1
75.9151 0 1
76.031 0 1
76.147 28625 169.189
76.263 30151 173.64
76.3791 30078 173.43
76.4952 29220 170.939
76.6113 27742 166.559
76.7276 26319 162.231
76.8438 25523 159.759
76.9601 26329 162.262
77.0765 27087 164.581
77.1929 28713 169.449
77.3093 30348 174.207
77.4258 32240 179.555
77.5423 32345 179.847
77.6589 32503 180.286
77.7755 32453 180.147
77.8921 32193 179.424
78.0088 30701 175.217
78.1256 28073 167.55
78.2423 26010 161.276
78.3591 24574 156.761
78.4759 23388 152.931
78.5928 24584 156.793
78.7097 26968 164.219
78.8266 28736 169.517
78.9436 31066 176.255
79.0606 30985 176.026
79.1776 31816 178.37
79.2946 32338 179.828
79.4117 32751 180.972
79.5288 32449 180.136
79.6459 32294 179.705
79.7631 31649 177.902
79.8802 31808 178.348
79.9974 30754 175.368
80.1147 29587 172.009
80.2319 28055 167.496
80.3491 26245 162.003
80.4664 24866 157.69
80.5837 25312 159.097
80.701 26661 163.282
80.8183 28301 168.229
80.9357 30356 174.23
81.053 31520 177.539
81.1704 32046 179.014
81.2877 32294 179.705
81.4051 32359 179.886
81.5225 32130 179.248
81.6399 30567 174.834
81.7573 29599 172.044
81.8747 26472 162.702
81.9922 24743 157.299
82.1096 23763 154.153
82.227 24429 156.298
82.3444 26701 163.404
82.4619 28689 169.378
82.5793 30808 175.522
82.6967 30989 176.037
82.8142 31805 178.34
82.9316 32571 180.474
83.049 32656 180.71
83.1664 32738 180.936
83.2838 32420 180.056
83.4012 32138 179.271
83.5186 31403 177.209
83.636 30904 175.795
83.7534 29859 172.798
83.8708 28787 169.667
83.9881 26367 162.379
84.1055 25284 159.009
84.2228 25764 160.512
84.3401 26850 163.86
84.4575 28286 168.184
84.5747 30104 173.505
84.692 31975 178.816
84.8093 33234 182.302
84.9265 33430 182.839
85.0437 33269 182.398
85.1609 32343 179.842
85.2781 30942 175.903
85.3952 28395 168.508
85.5123 26335 162.281
85.6294 25181 158.685
85.7465 24970 158.019
85.8636 26964 164.207
85.9806 29338 171.283
86.0976 30441 174.473
86.2145 32009 178.911
86.3315 33210 182.236
86.4484 33884 184.076
86.5652 34328 185.278
86.682 34765 186.454
86.7988 35087 187.315
86.9156 34572 185.935
87.0323 34345 185.324
87.149 33753 183.72
87.2657 33022 181.72
87.3823 31819 178.379
87.4988 30202 173.787
87.6154 28026 167.41
87.7318 27411 165.563
87.8483 27870 166.943
87.9647 29295 171.158
88.081 31668 177.955
88.1973 33694 183.559
88.3136 34688 186.247
88.4298 34729 186.357
88.546 34904 186.826
88.6621 34351 185.34
88.7781 32794 181.091
88.8942 0 1
89.0101 0 1
89.126 0 1
89.2419 0 1
89.3577 0 1
89.4734 0 1
89.5891 0 1
89.7047 0 1
89.8203 0 1
89.9358 0 1
92.3269 0 1
92.4424 0 1
92.558 0 1
92.6736 0 1
92.7893 0 1
92.905 0 1
93.0208 0 1
93.1366 0 1
93.2525 0 1
93.3685 0 1
93.4845 0 1
93.6005 32977 181.596
93.7167 33385 182.716
93.8328 32909 181.408
93.949 32044 179.008
94.0653 30700 175.214
94.1816 28697 169.402
94.2979 27354 165.39
94.4143 26808 163.731
94.5307 26176 161.79
94.6472 27162 164.809
94.7637 29063 170.479
94.8803 30255 173.94
94.9969 31441 177.316
95.1135 32805 181.122
95.2302 33382 182.707
95.3469 34203 184.941
95.4637 34512 185.774
95.5805 34697 186.271
95.6973 35427 188.221
95.8142 35148 187.478
95.9311 34868 186.73
96.048 34513 185.777
96.1649 33207 182.228
96.2819 32354 179.872
96.3989 30783 175.451
96.516 28995 170.279
96.633 27374 165.451
96.7501 27385 165.484
96.8673 29387 171.426
96.9844 30316 174.115
97.1016 32625 180.624
97.2188 33937 184.22
97.336 34985 187.043
97.4532 34526 185.812
97.5704 34184 184.889
97.6877 33263 182.381
97.805 31488 177.449
97.9223 29095 170.573
98.0396 27148 164.767
98.1569 26492 162.764
98.2743 26506 162.807
98.3916 27460 165.711
98.509 29263 171.064
98.6264 30991 176.043
98.7438 32308 179.744
98.8612 32895 181.37
98.9786 33650 183.439
99.096 33846 183.973
99.2134 34596 186
99.3308 34551 185.879
99.4482 34542 185.855
99.5656 33807 183.867
99.6831 33262 182.379
99.8005 32640 180.665
99.9179 31884 178.561
100.035 29842 172.748
100.153 27987 167.293
100.27 27045 164.454
100.388 27424 165.602
100.505 29192 170.857
100.622 31065 176.253
100.74 32712 180.865
100.857 33909 184.144
100.975 34248 185.062
101.092 34092 184.64
101.209 33647 183.431
101.327 32955 181.535
101.444 30993 176.048
101.561 28664 169.304
101.679 27533 165.931
101.796 26688 163.365
101.913 26707 163.423
102.03 28419 168.579
102.148 30665 175.114
102.265 29853 172.78
102.382 36048 189.863
102.499 34398 185.467
102.616 35267 187.795
102.733 35189 187.587
102.851 36062 189.9
102.968 36663 191.476
103.085 36211 190.292
103.202 36283 190.481
103.319 34705 186.293
103.436 34258 185.089
103.552 32792 181.086
103.669 30920 175.841
103.786 29105 170.602
103.903 29519 171.811
104.02 31115 176.394
104.137 33614 183.341
104.253 35835 189.301
104.37 36740 191.677
104.487 37513 193.683
104.603 36663 191.476
104.72 36046 189.858
104.836 34844 186.665
104.953 32618 180.605
105.069 30601 174.931
105.186 28858 169.876
105.302 28606 169.133
105.418 28881 169.944
105.535 31658 177.927
105.651 33329 182.562
105.767 34687 186.244
105.883 35331 187.965
105.999 36362 190.688
106.115 0 1
106.231 0 1
106.347 0 1
106.463 0 1
106.579 0 1
106.694 0 1
106.81 0 1
106.926 0 1
107.041 0 1
107.157 0 1
109.576 0 1
109.692 0 1
109.807 0 1
109.923 0 1
110.039 0 1
110.155 0 1
110.27 0 1
110.386 0 1
110.502 0 1
110.618 28055 167.496
110.735 30169 173.692
110.851 30720 175.271
110.967 31656 177.921
111.083 32252 179.588
111.199 32528 180.355
111.316 32775 181.039
111.432 33092 181.912
111.549 32639 180.663
111.665 32318 179.772
111.782 31247 176.768
111.898 29855 172.786
112.015 28576 169.044
112.132 26635 163.202
112.248 25086 158.386
112.365 25315 159.107
112.482 27475 165.756
112.599 28126 167.708
112.716 29979 173.144
112.832 30096 173.482
112.949 30320 174.126
113.066 29815 172.67
113.183 29218 170.933
113.3 27960 167.212
113.417 26183 161.812
113.534 24277 155.811
113.652 23259 152.509
113.769 22174 148.909
113.886 22010 148.358
114.003 22989 151.621
114.12 24611 156.879
114.238 25152 158.594
114.355 26341 162.299
114.472 26760 163.585
114.589 26289 162.139
114.707 26694 163.383
114.824 26636 163.205
114.942 26890 163.982
115.059 26468 162.69
115.176 25772 160.537
115.294 25457 159.552
115.411 24381 156.144
115.529 23551 153.463
115.646 21663 147.184
115.764 20173 142.032
115.881 19691 140.325
115.999 20674 143.785
116.116 21935 148.105
116.234 22676 150.586
116.351 23111 152.023
116.469 22958 151.519
116.586 22784 150.944
116.704 22470 149.9
116.821 21918 148.047
116.939 20483 143.119
117.056 19664 140.228
117.174 18502 136.022
117.291 17744 133.207
117.409 17512 132.333
117.526 17760 133.267
117.644 19005 137.859
117.761 19827 140.808
117.879 20592 143.499
117.996 20652 143.708
118.114 21429 146.386
118.231 21887 147.943
118.349 21580 146.901
118.466 21923 148.064
118.584 22456 149.853
118.701 22198 148.99
118.819 21665 147.19
118.936 21937 148.111
119.053 21115 145.31
119.171 20774 144.132
119.288 19325 139.014
119.405 18383 135.584
119.523 18684 136.689
119.64 19433 139.402
119.757 21266 145.829
119.875 22088 148.62
119.992 22506 150.02
120.109 22734 150.778
120.226 23118 152.046
120.343 22786 150.95
120.46 22319 149.395
120.578 21811 147.685
120.695 20891 144.537
120.812 19789 140.673
120.929 19442 139.435
121.046 18906 137.499
121.163 19122 138.282
121.279 20146 141.937
121.396 21480 146.561
121.513 22632 150.439
121.63 23258 152.506
121.747 23947 154.748
121.863 24623 156.917
121.98 25186 158.701
122.097 25321 159.126
122.213 25764 160.512
122.33 25837 160.739
122.446 25786 160.58
122.563 25699 160.309
122.679 25312 159.097
122.795 24861 157.674
122.912 24230 155.66
123.028 22846 151.149
123.144 22127 148.751
123.26 21870 147.885
123.377 0 1
123.493 0 1
123.609 0 1
123.725 0 1
123.84 0 1
123.956 0 1
124.072 0 1
124.188 0 1
124.303 0 1
124.419 0 1
126.852 0 1
126.968 0 1
127.083 0 1
127.199 0 1
127.315 0 1
127.431 0 1
127.547 0 1
127.663 0 1
127.779 0 1
127.895 0 1
128.011 0 1
128.127 0 1
128.243 0 1
128.359 25832 160.723
128.476 25815 160.67
128.592 26272 162.086
128.708 28063 167.52
128.825 30096 173.482
128.941 30634 175.026
129.058 30922 175.847
129.174 30843 175.622
129.291 30564 174.826
129.408 30205 173.796
129.524 28935 170.103
129.641 27003 164.326
129.758 26180 161.802
129.875 24931 157.896
129.992 24169 155.464
130.108 23727 154.036
130.225 24163 155.445
130.342 25786 160.58
130.459 26519 162.847
130.576 26884 163.963
130.693 26947 164.155
130.81 27597 166.123
130.928 27644 166.265
131.045 28066 167.529
131.162 28185 167.884
131.279 28433 168.621
131.396 28176 167.857
131.513 27764 166.625
131.631 26818 163.762
131.748 25828 160.711
131.865 24223 155.637
131.983 23122 152.059
132.1 23529 153.392
132.217 24711 157.197
132.335 26176 161.79
132.452 26538 162.905
132.57 26918 164.067
132.687 25747 160.459
132.804 27607 166.154
132.922 26119 161.614
133.039 24927 157.883
133.157 23676 153.87
133.274 22611 150.37
133.392 21878 147.912
133.509 20919 144.634
133.627 20561 143.391
133.744 20667 143.76
133.862 21322 146.021
133.979 21648 147.133
134.097 22126 148.748
134.214 22821 151.066
134.332 22210 149.03
134.449 22615 150.383
134.567 22410 149.7
134.684 22810 151.03
134.802 22764 150.877
134.919 22530 150.1
135.037 22091 148.63
135.154 21357 146.14
135.272 20542 143.325
135.389 19651 140.182
135.507 18333 135.399
135.624 18313 135.326
135.742 18790 137.077
135.859 19879 140.993
135.977 20511 143.217
136.094 20494 143.157
136.211 20160 141.986
136.329 20059 141.63
136.446 19977 141.34
136.564 19157 138.409
136.681 18085 134.48
136.798 17621 132.744
136.915 17025 130.48
137.033 16171 127.165
137.15 16004 126.507
137.267 15768 125.571
137.384 16185 127.22
137.502 16851 129.811
137.619 17140 130.92
137.736 17609 132.699
137.853 17544 132.454
137.97 18112 134.581
138.087 18593 136.356
138.204 19103 138.214
138.321 19278 138.845
138.438 19853 140.901
138.555 19938 141.202
138.672 19866 140.947
138.788 19840 140.855
138.905 19483 139.582
139.022 18979 137.764
139.139 18230 135.019
139.255 18574 136.286
139.372 19827 140.808
139.488 21114 145.307
139.605 21998 148.317
139.721 22271 149.235
139.838 22904 151.341
139.954 22489 149.963
140.071 22231 149.101
140.187 22544 150.147
140.303 21718 147.37
140.419 21068 145.148
140.535 20541 143.321
140.652 19929 141.17
140.768 0 1
140.884 0 1
141 0 1
141.115 0 1
141.231 0 1
141.347 0 1
141.463 0 1
141.578 0 1
141.694 0 1
144.104 0 1
144.219 0 1
144.335 0 1
144.45 0 1
144.566 0 1
144.682 0 1
144.798 0 1
144.914 0 1
145.03 0 1
145.146 19464 139.513
145.262 19288 138.881
145.378 18754 136.945
145.494 17858 133.634
145.61 17335 131.662
145.726 16681 129.155
145.842 16371 127.949
145.959 15911 126.139
146.075 15976 126.396
146.192 16285 127.613
146.308 16447 128.246
146.425 16886 129.946
146.541 16566 128.709
146.658 16847 129.796
146.774 16660 129.074
146.891 16630 128.957
147.008 16895 129.981
147.125 17043 130.549
147.241 16680 129.151
147.358 16603 128.853
147.475 16197 127.267
147.592 15763 125.551
147.709 14673 121.132
147.826 14241 119.336
147.943 14515 120.478
148.06 14805 121.676
148.177 15236 123.434
148.294 15591 124.864
148.411 15783 125.63
148.528 15599 124.896
148.645 15582 124.828
148.762 15346 123.879
148.88 15024 122.572
148.997 14679 121.157
149.114 13321 115.417
149.231 13325 115.434
149.349 12834 113.287
149.466 12854 113.375
149.583 12585 112.183
149.701 12862 113.411
149.818 12766 112.987
149.935 13198 114.883
150.053 12990 113.974
150.17 13595 116.598
150.287 13812 117.524
150.405 13755 117.282
150.522 14142 118.92
150.64 14222 119.256
150.757 14661 121.083
150.875 14494 120.391
150.992 14166 119.021
151.11 14673 121.132
151.227 14007 118.351
151.344 13342 115.508
151.462 13205 114.913
151.579 13178 114.795
151.697 14259 119.411
151.814 14993 122.446
151.932 15177 123.195
152.049 15489 124.455
152.167 15793 125.67
152.284 15498 124.491
152.402 15603 124.912
152.519 15203 123.3
152.636 14922 122.156
152.754 14528 120.532
152.871 14171 119.042
152.989 14077 118.647
153.106 13796 117.456
153.223 13813 117.529
153.341 13951 118.114
153.458 14450 120.208
153.575 14782 121.581
153.693 14858 121.893
153.81 15189 123.244
153.927 15403 124.109
154.044 15780 125.618
154.162 15972 126.38
154.279 16658 129.066
154.396 16789 129.572
154.513 16984 130.323
154.63 17402 131.917
154.747 17255 131.358
154.864 16940 130.154
154.981 16347 127.855
155.098 16155 127.102
155.215 16646 129.019
155.332 17393 131.883
155.449 18088 134.492
155.566 18311 135.318
155.683 18676 136.66
155.8 18782 137.047
155.917 18773 137.015
156.033 18553 136.209
156.15 0 1
156.267 0 1
156.383 0 1
156.5 0 1
156.617 0 1
156.733 0 1
156.85 0 1
156.966 0 1
157.082 0 1
157.199 0 1
157.315 0 1
157.431 0 1
157.547 0 1
157.664 0 1
157.78 0 1
157.896 0 1
158.012 0 1
158.128 0 1
158.244 0 1
158.359 0 1
158.475 0 1
158.591 0 1
158.706 0 1
