
6.15755 0 1
6.2731 0 1
6.3887 0 1
6.50437 0 1
6.62009 0 1
6.73587 0 1
6.8517 0 1
6.96759 0 1
7.08353 0 1
7.19952 0 1
7.31557 0 1
7.43166 0 1
7.54781 0 1
7.664 0 1
7.78024 0 1
7.89653 0 1
8.01286 0 1
8.12924 0 1
8.24567 0 1
8.36213 0 1
8.47864 0 1
8.59519 0 1
8.71178 0 1
8.82841 0 1
8.94508 0 1
9.06179 0 1
9.17853 0 1
9.29531 0 1
9.41212 0 1
9.52897 0 1
9.64584 0 1
9.76276 0 1
9.8797 0 1
9.99667 0 1
10.1137 0 1
10.2307 0 1
10.3478 0 1
10.4648 0 1
10.5819 0 1
10.6991 0 1
10.8162 0 1
10.9334 0 1
11.0506 0 1
11.1678 0 1
11.285 0 1
11.4023 0 1
11.5196 0 1
11.6369 0 1
11.7542 0 1
11.8715 0 1
11.9888 0 1
12.1062 0 1
12.2235 0 1
12.3409 0 1
12.4582 0 1
12.5756 0 1
12.693 0 1
12.8104 0 1
12.9278 0 1
13.0452 0 1
13.1626 0 1
13.28 0 1
13.3974 0 1
13.5149 0 1
13.6323 0 1
13.7497 0 1
13.8671 0 1
13.9845 0 1
14.1019 0 1
14.2193 0 1
14.3367 0 1
14.4541 0 1
14.5714 0 1
14.6888 0 1
14.8062 0 1
14.9235 0 1
15.0408 0 0
15.1581 0 0
15.2755 0 0
15.3927 0 0
15.51 0 0
15.6273 0 0
15.7445 0 0
15.8617 0 0
15.9789 0 0
16.0961 0 0
16.2132 0 0
16.3304 0 0
16.4475 0 0
16.5646 0 0
16.6816 0 0
16.7986 0 0
16.9156 0 0
17.0326 0 0
17.1496 0 0
17.2665 0 0
17.3833 0 0
17.5002 0 0
17.617 0 0
17.7338 0 0
17.8505 0 0
17.9672 0 0
18.0839 0 0
18.2005 0 0
18.3171 0 0
18.4337 0 0
18.5502 0 0
18.6666 0 0
18.7831 0 0
18.8994 0 0
19.0158 0 0
19.1321 0 0
19.2483 0 0
19.3645 0 0
19.4806 0 0
19.5967 0 0
19.7128 0 0
19.8288 0 0
19.9447 0 0
20.0606 0 1
20.1764 0 1
20.2922 0 1
20.4079 0 1
20.5236 0 1
20.6392 0 1
20.7548 0 1
20.8702 0 1
23.3078 0 1
23.4233 0 1
23.539 0 1
23.6547 0 1
23.7704 0 1
23.8862 0 1
24.0021 0 1
24.118 0 1
24.234 0 1
24.35 0 1
24.4661 22071 148.563
24.5822 21995 148.307
24.6984 21998 148.317
24.8146 21820 147.716
24.9309 21497 146.619
25.0472 21277 145.866
25.1636 21014 144.962
25.28 21060 145.121
25.3965 21625 147.054
25.513 21594 146.949
25.6296 22345 149.482
25.7462 23169 152.214
25.8628 23223 152.391
25.9795 23513 153.339
26.0962 23671 153.854
26.213 23655 153.802
26.3298 23387 152.928
26.4466 23258 152.506
26.5635 23059 151.852
26.6804 22215 149.047
26.7973 22350 149.499
26.9143 22971 151.562
27.0313 23361 152.843
27.1483 24043 155.058
27.2653 24578 156.774
27.3824 24354 156.058
27.4996 24211 155.599
27.6167 24095 155.226
27.7339 23608 153.649
27.8511 23179 152.247
27.9683 23088 151.947
28.0855 22925 151.41
28.2028 22285 149.282
28.3201 21247 145.764
28.4374 21260 145.808
28.5547 20319 142.545
28.6721 19988 141.379
28.7894 19573 139.904
28.9068 19894 141.046
29.0242 20183 142.067
29.1416 19935 141.191
29.259 20473 143.084
29.3764 20882 144.506
29.4939 21215 145.654
29.6113 21231 145.709
29.7288 21237 145.729
29.8463 21548 146.792
29.9638 21484 146.574
30.0812 21336 146.068
30.1987 20665 143.753
30.3162 20936 144.693
30.4337 20989 144.876
30.5512 22083 148.603
30.6687 22372 149.573
30.7862 22758 150.858
30.9037 22712 150.705
31.0212 22967 151.549
31.1387 23101 151.99
31.2562 22626 150.419
31.3737 22417 149.723
31.4912 22057 148.516
31.6087 21853 147.828
31.7262 21508 146.656
31.8436 20895 144.551
31.9611 20382 142.766
32.0785 19642 140.15
32.1959 19112 138.246
32.3134 18757 136.956
32.4308 18705 136.766
32.5482 18978 137.761
32.6655 19151 138.387
32.7829 19521 139.718
32.9002 19515 139.696
33.0176 20371 142.727
33.1349 20539 143.314
33.2522 20897 144.558
33.3694 20859 144.426
33.4867 20969 144.807
33.6039 21374 146.198
33.7211 20575 143.44
33.8383 20432 142.941
33.9554 19994 141.4
34.0725 20372 142.731
34.1896 21403 146.298
34.3067 21591 146.939
34.4237 21752 147.486
34.5407 21854 147.831
34.6577 22030 148.425
34.7746 22380 149.599
34.8915 22047 148.482
35.0084 21890 147.953
35.1252 21783 147.591
35.242 21070 145.155
35.3587 20961 144.779
35.4755 20705 143.892
35.5921 19765 140.588
35.7088 19505 139.66
35.8254 18683 136.686
35.9419 17791 133.383
36.0584 17671 132.932
36.1749 17769 133.3
36.2913 17860 133.641
36.4077 18137 134.674
36.524 18498 136.007
36.6403 18833 137.233
36.7565 19579 139.925
36.8727 19910 141.103
36.9889 20037 141.552
37.1049 19898 141.06
37.221 0 1
37.3369 0 1
37.4529 0 1
37.5687 0 1
37.6845 0 1
37.8003 0 1
37.916 0 1
38.0316 0 1
38.1472 0 1
40.5851 0 1
40.7008 0 1
40.8164 0 1
40.9322 0 1
41.048 0 1
41.1639 0 1
41.2798 0 1
41.3958 0 1
41.5118 0 1
41.6279 0 1
41.744 13917 117.97
41.8602 14860 121.902
41.9765 15458 124.33
42.0928 15524 124.595
42.2091 16014 126.546
42.3255 16468 128.328
42.4419 16066 126.752
42.5584 15759 125.535
42.675 15797 125.686
42.7915 15330 123.814
42.9081 15146 123.069
43.0248 15676 125.204
43.1415 16057 126.716
43.2582 16223 127.37
43.375 16387 128.012
43.4918 16166 127.146
43.6087 16395 128.043
43.7256 15981 126.416
43.8425 15635 125.04
43.9595 15088 122.833
44.0765 14921 122.152
44.1935 14634 120.971
44.3106 14075 118.638
44.4277 13560 116.447
44.5448 12795 113.115
44.6619 11885 109.018
44.7791 11489 107.187
44.8963 10747 103.668
45.0136 10722 103.547
45.1308 10571 102.815
45.2481 10695 103.417
45.3654 11046 105.1
45.4827 11348 106.527
45.6001 11569 107.559
45.7174 11632 107.852
45.8348 11687 108.106
45.9522 11762 108.453
46.0697 11478 107.135
46.1871 11448 106.995
46.3046 11021 104.981
46.422 10831 104.072
46.5395 11023 104.99
46.657 11163 105.655
46.7745 11271 106.165
46.892 11355 106.56
47.0096 11571 107.569
47.1271 11553 107.485
47.2446 11464 107.07
47.3622 11325 106.419
47.4797 11070 105.214
47.5973 10840 104.115
47.7149 10259 101.287
47.8324 9858 99.2875
47.95 9706 98.519
48.0675 9021 94.9789
48.1851 8368 91.4768
48.3027 8010 89.4986
48.4202 7652 87.4757
48.5378 7573 87.023
48.6554 7545 86.862
48.7729 7761 88.0965
48.8904 8153 90.294
49.008 8439 91.864
49.1255 8727 93.4184
49.243 8808 93.8509
49.3605 8842 94.0319
49.478 9123 95.5144
49.5955 9014 94.9421
49.713 8824 93.9361
49.8304 8879 94.2284
49.9479 8842 94.0319
50.0653 9131 95.5563
50.1827 9571 97.8315
50.3001 9958 99.7898
50.4175 10442 102.186
50.5348 10558 102.752
50.6521 10983 104.8
50.7694 11331 106.447
50.8867 11420 106.864
51.004 11422 106.874
51.1212 11634 107.861
51.2384 12042 109.736
51.3556 12067 109.85
51.4727 11611 107.754
51.5899 11153 105.608
51.707 10857 104.197
51.824 10370 101.833
51.9411 10382 101.892
52.0581 10406 102.01
52.175 11092 105.319
52.2919 11449 107
52.4088 12197 110.44
52.5257 12952 113.807
52.6425 13343 115.512
52.7593 13826 117.584
52.876 14127 118.857
52.9927 14485 120.354
53.1094 14944 122.246
53.226 14933 122.201
53.3426 15217 123.357
53.4591 15074 122.776
53.5756 15024 122.572
53.692 15521 124.583
53.8084 16400 128.062
53.9248 16993 130.357
54.0411 17799 133.413
54.1573 18217 134.97
54.2735 0 1
54.3896 0 1
54.5057 0 1
54.6217 0 1
54.7377 0 1
54.8537 0 1
54.9695 0 1
55.0853 0 1
55.2011 0 1
55.3168 0 1
55.4324 0 1
57.824 0 1
57.9396 0 1
58.0553 0 1
58.1711 0 1
58.2869 0 1
58.4028 0 1
58.5187 0 1
58.6347 0 1
58.7508 0 1
58.8669 0 1
58.983 18397 135.636
59.0992 19807 140.737
59.2155 20565 143.405
59.3318 21425 146.373
59.4482 21410 146.322
59.5646 21533 146.741
59.681 21370 146.185
59.7975 20943 144.717
59.9141 20262 142.345
60.0306 19318 138.989
60.1473 18098 134.529
60.2639 17218 131.217
60.3807 16048 126.681
60.4974 14954 122.287
60.6142 14606 120.855
60.731 14592 120.797
60.8479 14509 120.453
60.9648 15014 122.532
61.0818 16053 126.7
61.1987 16831 129.734
61.3158 17129 130.878
61.4328 17179 131.069
61.5499 17363 131.769
61.667 17017 130.449
61.7841 17122 130.851
61.9013 17272 131.423
62.0185 17235 131.282
62.1357 17274 131.431
62.253 17472 132.182
62.3702 17989 134.123
62.4875 18775 137.022
62.6049 19397 139.273
62.7222 19920 141.138
62.8396 20470 143.073
62.9569 20670 143.771
63.0743 20603 143.537
63.1918 20555 143.37
63.3092 20511 143.217
63.4267 19799 140.709
63.5441 18677 136.664
63.6616 17680 132.966
63.7791 16644 129.012
63.8966 15600 124.9
64.0142 14599 120.826
64.1317 14296 119.566
64.2492 14135 118.891
64.3668 14914 122.123
64.4843 15251 123.495
64.6019 16532 128.577
64.7195 16845 129.788
64.837 17550 132.476
64.9546 17899 133.787
65.0722 17828 133.522
65.1898 17964 134.03
65.3074 18101 134.54
65.4249 17590 132.627
65.5425 17241 131.305
65.6601 17157 130.985
65.7777 17178 131.065
65.8952 17863 133.653
66.0128 18207 134.933
66.1304 19203 138.575
66.2479 19503 139.653
66.3655 20651 143.705
66.483 20749 144.045
66.6005 20721 143.948
66.718 20876 144.485
66.8355 20261 142.341
66.953 19819 140.78
67.0705 19260 138.78
67.1879 17952 133.985
67.3054 16853 129.819
67.4228 15584 124.836
67.5402 14323 119.679
67.6576 13460 116.017
67.7749 13003 114.031
67.8923 13418 115.836
68.0096 13720 117.132
68.1269 14639 120.992
68.2442 15577 124.808
68.3614 16301 127.675
68.4787 16563 128.697
68.5958 16599 128.837
68.713 16834 129.746
68.8302 16845 129.788
68.9473 16933 130.127
69.0643 16610 128.88
69.1814 16421 128.144
69.2984 16176 127.185
69.4154 16571 128.728
69.5323 16858 129.838
69.6492 17883 133.727
69.7661 18854 137.31
69.8829 19457 139.488
69.9997 20096 141.76
70.1165 20625 143.614
70.2332 20589 143.489
70.3499 20675 143.788
70.4665 20389 142.79
70.5831 20034 141.542
70.6996 18663 136.613
70.8161 17603 132.676
70.9326 16996 130.369
71.049 15368 123.968
71.1653 14228 119.281
71.2817 13169 114.756
71.3979 12490 111.759
71.5141 12646 112.454
71.6303 12541 111.987
71.7464 12217 110.531
71.8624 0 1
71.9784 0 1
72.0944 0 1
72.2102 0 1
72.3261 0 1
72.4418 0 1
72.5575 0 1
72.6732 0 1
75.1054 0 1
75.2209 0 1
75.3365 0 1
75.4521 0 1
75.5678 0 1
75.6835 0 1
75.7993 0 1
75.9151 0 1
76.031 0 1
76.147 16562 128.693
76.263 16861 129.85
76.3791 16339 127.824
76.4952 15211 123.333
76.6113 13648 116.825
76.7276 13210 114.935
76.8438 13262 115.161
76.9601 13705 117.068
77.0765 14750 121.45
77.1929 15994 126.467
77.3093 17166 131.019
77.4258 17962 134.022
77.5423 17677 132.955
77.6589 17579 132.586
77.7755 17403 131.92
77.8921 16990 130.346
78.0088 16646 129.019
78.1256 16138 127.035
78.2423 15780 125.618
78.3591 15903 126.107
78.4759 16262 127.523
78.5928 17327 131.632
78.7097 18205 134.926
78.8266 18385 135.591
78.9436 20207 142.151
79.0606 19913 141.113
79.1776 20030 141.527
79.2946 20459 143.035
79.4117 20267 142.362
79.5288 20109 141.806
79.6459 19534 139.764
79.7631 17932 133.91
79.8802 16716 129.29
79.9974 15333 123.826
80.1147 13727 117.162
80.2319 12643 112.441
80.3491 11899 109.083
80.4664 11862 108.913
80.5837 12216 110.526
80.701 12834 113.287
80.8183 13689 117
80.9357 14931 122.192
81.053 15450 124.298
81.1704 15596 124.884
81.2877 15016 122.54
81.4051 14882 121.992
81.5225 14221 119.252
81.6399 14449 120.204
81.7573 13949 118.106
81.8747 13435 115.909
81.9922 13706 117.073
82.1096 14375 119.896
82.227 15052 122.687
82.3444 15659 125.136
82.4619 16549 128.643
82.5793 16903 130.012
82.6967 16730 129.345
82.8142 17254 131.354
82.9316 17330 131.643
83.049 17043 130.549
83.1664 16668 129.105
83.2838 15498 124.491
83.4012 14648 121.029
83.5186 13564 116.465
83.636 12636 112.41
83.7534 11297 106.287
83.8708 10411 102.034
83.9881 9843 99.2119
84.1055 9961 99.8048
84.2228 10297 101.474
84.3401 11057 105.152
84.4575 12414 111.418
84.5747 13459 116.013
84.692 13928 118.017
84.8093 14150 118.954
84.9265 13723 117.145
85.0437 13251 115.113
85.1609 13268 115.187
85.2781 12802 113.146
85.3952 12841 113.318
85.5123 12771 113.009
85.6294 13670 116.919
85.7465 14265 119.436
85.8636 15110 122.923
85.9806 16319 127.746
86.0976 16832 129.738
86.2145 17820 133.492
86.3315 18673 136.649
86.4484 18067 134.414
86.5652 19043 137.996
86.682 19128 138.304
86.7988 18368 135.529
86.9156 17378 131.826
87.0323 16256 127.499
87.149 15361 123.94
87.2657 14163 119.008
87.3823 13133 114.599
87.4988 12257 110.711
87.6154 12131 110.141
87.7318 12452 111.589
87.8483 13692 117.013
87.9647 14909 122.102
88.081 16520 128.53
88.1973 17520 132.363
88.3136 17664 132.906
88.4298 17269 131.412
88.546 16782 129.545
88.6621 16451 128.261
88.7781 15803 125.71
88.8942 0 1
89.0101 0 1
89.126 0 1
89.2419 0 1
89.3577 0 1
89.4734 0 1
89.5891 0 1
89.7047 0 1
89.8203 0 1
89.9358 0 1
92.3269 0 1
92.4424 0 1
92.558 0 1
92.6736 0 1
92.7893 0 1
92.905 0 1
93.0208 0 1
93.1366 0 1
93.2525 0 1
93.3685 0 1
93.4845 0 1
93.6005 16469 128.332
93.7167 17377 131.822
93.8328 17050 130.576
93.949 16853 129.819
94.0653 16388 128.016
94.1816 16117 126.953
94.2979 15697 125.288
94.4143 15567 124.768
94.5307 15786 125.642
94.6472 16273 127.566
94.7637 16828 129.723
94.8803 17671 132.932
94.9969 18956 137.681
95.1135 19891 141.035
95.2302 20211 142.165
95.3469 20576 143.443
95.4637 20649 143.698
95.5805 21501 146.632
95.6973 21150 145.43
95.8142 21144 145.41
95.9311 20506 143.199
96.048 19268 138.809
96.1649 18660 136.602
96.2819 17194 131.126
96.3989 16045 126.669
96.516 14664 121.095
96.633 13657 116.863
96.7501 13016 114.088
96.8673 13224 114.996
96.9844 14115 118.807
97.1016 15253 123.503
97.2188 16605 128.86
97.336 17822 133.499
97.4532 18228 135.011
97.5704 17918 133.858
97.6877 17408 131.939
97.805 16263 127.526
97.9223 15783 125.63
98.0396 15659 125.136
98.1569 15480 124.419
98.2743 15869 125.972
98.3916 16451 128.261
98.509 17479 132.208
98.6264 18490 135.978
98.7438 19186 138.514
98.8612 20207 142.151
98.9786 20874 144.478
99.096 21118 145.32
99.2134 21121 145.331
99.3308 21561 146.837
99.4482 21243 145.75
99.5656 20582 143.464
99.6831 19549 139.818
99.8005 18498 136.007
99.9179 17233 131.275
100.035 16380 127.984
100.153 14741 121.413
100.27 13576 116.516
100.388 13665 116.897
100.505 14232 119.298
100.622 15576 124.804
100.74 16551 128.651
100.857 17485 132.231
100.975 18335 135.407
101.092 17864 133.656
101.209 17430 132.023
101.327 16780 129.538
101.444 16523 128.542
101.561 16148 127.075
101.679 16064 126.744
101.796 16070 126.768
101.913 16647 129.023
102.03 17917 133.854
102.148 19330 139.032
102.265 20097 141.764
102.382 22048 148.486
102.499 21703 147.319
102.616 22366 149.553
102.733 22387 149.623
102.851 22591 150.303
102.968 22493 149.977
103.085 22128 148.755
103.202 20800 144.222
103.319 20085 141.722
103.436 18885 137.423
103.552 17469 132.17
103.669 15795 125.678
103.786 14875 121.963
103.903 14633 120.967
104.02 15784 125.634
104.137 16938 130.146
104.253 18297 135.266
104.37 19111 138.243
104.487 19679 140.282
104.603 19729 140.46
104.72 19198 138.557
104.836 18409 135.68
104.953 17663 132.902
105.069 17373 131.807
105.186 17720 133.116
105.302 18030 134.276
105.418 19072 138.101
105.535 20629 143.628
105.651 22215 149.047
105.767 23534 153.408
105.883 24598 156.837
105.999 24676 157.086
106.115 0 1
106.231 0 1
106.347 0 1
106.463 0 1
106.579 0 1
106.694 0 1
106.81 0 1
106.926 0 1
107.041 0 1
107.157 0 1
109.576 0 1
109.692 0 1
109.807 0 1
109.923 0 1
110.039 0 1
110.155 0 1
110.27 0 1
110.386 0 1
110.502 0 1
110.618 19472 139.542
110.735 21146 145.417
110.851 22371 149.569
110.967 23124 152.066
111.083 23122 152.059
111.199 23408 152.997
111.316 23679 153.88
111.432 23706 153.968
111.549 23351 152.81
111.665 22599 150.33
111.782 21259 145.805
111.898 20602 143.534
112.015 19108 138.232
112.132 17695 133.023
112.248 16209 127.315
112.365 15116 122.947
112.482 14769 121.528
112.599 16291 127.636
112.716 17133 130.893
112.832 18088 134.492
112.949 18445 135.812
113.066 18616 136.44
113.183 18025 134.257
113.3 17482 132.22
113.417 16602 128.849
113.534 16088 126.838
113.652 15864 125.952
113.769 16197 127.267
113.886 16819 129.688
114.003 17576 132.575
114.12 19269 138.813
114.238 20849 144.392
114.355 22054 148.506
114.472 22172 148.903
114.589 22794 150.977
114.707 23224 152.394
114.824 22876 151.248
114.942 23127 152.076
115.059 22805 151.013
115.176 22581 150.27
115.294 21460 146.492
115.411 20772 144.125
115.529 20024 141.506
115.646 19050 138.022
115.764 17179 131.069
115.881 16064 126.744
115.999 16049 126.685
116.116 16376 127.969
116.234 17655 132.872
116.351 18520 136.088
116.469 19552 139.828
116.586 19603 140.011
116.704 19531 139.753
116.821 18628 136.484
116.939 18167 134.785
117.056 17464 132.151
117.174 17032 130.507
117.291 17525 132.382
117.409 17979 134.086
117.526 18698 136.741
117.644 20510 143.213
117.761 21538 146.758
117.879 23205 152.332
117.996 23465 153.183
118.114 23982 154.861
118.231 24691 157.134
118.349 24243 155.702
118.466 24627 156.93
118.584 24715 157.21
118.701 24321 155.952
118.819 23683 153.893
118.936 22288 149.292
119.053 21746 147.465
119.171 20906 144.589
119.288 19573 139.904
119.405 18066 134.41
119.523 17153 130.969
119.64 17159 130.992
119.757 17414 131.962
119.875 18705 136.766
119.992 19094 138.181
120.109 19189 138.524
120.226 19499 139.639
120.343 18997 137.83
120.46 18748 136.923
120.578 18160 134.759
120.695 17596 132.65
120.812 17669 132.925
120.929 18105 134.555
121.046 18483 135.952
121.163 18910 137.514
121.279 20005 141.439
121.396 21543 146.775
121.513 22875 151.245
121.63 23733 154.055
121.747 23940 154.726
121.863 24317 155.939
121.98 24272 155.795
122.097 24293 155.862
122.213 24351 156.048
122.33 23688 153.909
122.446 23107 152.01
122.563 22334 149.446
122.679 22049 148.489
122.795 21184 145.547
122.912 20452 143.01
123.028 19249 138.741
123.144 17778 133.334
123.26 17032 130.507
123.377 0 1
123.493 0 1
123.609 0 1
123.725 0 1
123.84 0 1
123.956 0 1
124.072 0 1
124.188 0 1
124.303 0 1
124.419 0 1
126.852 0 1
126.968 0 1
127.083 0 1
127.199 0 1
127.315 0 1
127.431 0 1
127.547 0 1
127.663 0 1
127.779 0 1
127.895 0 1
128.011 0 1
128.127 0 1
128.243 0 1
128.359 20644 143.68
128.476 19231 138.676
128.592 18858 137.324
128.708 19741 140.503
128.825 20764 144.097
128.941 21405 146.304
129.058 21337 146.072
129.174 20929 144.669
129.291 20904 144.582
129.408 20306 142.499
129.524 19975 141.333
129.641 19498 139.635
129.758 19662 140.221
129.875 19582 139.936
129.992 20013 141.467
130.108 20355 142.671
130.225 21651 147.143
130.342 23070 151.888
130.459 23521 153.366
130.576 25220 158.808
130.693 24977 158.041
130.81 25080 158.367
130.928 24944 157.937
131.045 24462 156.403
131.162 24505 156.541
131.279 24523 156.598
131.396 24368 156.103
131.513 23381 152.908
131.631 22784 150.944
131.748 21880 147.919
131.865 21208 145.63
131.983 19534 139.764
132.1 19351 139.108
132.217 19339 139.065
132.335 20606 143.548
132.452 21650 147.139
132.57 21203 145.612
132.687 20844 144.375
132.804 21223 145.681
132.922 20447 142.993
133.039 20467 143.063
133.157 19536 139.771
133.274 19514 139.693
133.392 19637 140.132
133.509 19712 140.399
133.627 20154 141.965
133.744 20850 144.395
133.862 22285 149.282
133.979 23384 152.918
134.097 23816 154.324
134.214 23838 154.396
134.332 24763 157.363
134.449 24196 155.551
134.567 24157 155.425
134.684 24588 156.806
134.802 24403 156.215
134.919 24133 155.348
135.037 23207 152.338
135.154 22758 150.858
135.272 22112 148.701
135.389 21359 146.147
135.507 20091 141.743
135.624 19729 140.46
135.742 20022 141.499
135.859 20357 142.678
135.977 21363 146.161
136.094 21502 146.636
136.211 21169 145.496
136.329 21567 146.857
136.446 21067 145.145
136.564 20844 144.375
136.681 20333 142.594
136.798 20142 141.923
136.915 19896 141.053
137.033 19554 139.836
137.15 20040 141.563
137.267 20300 142.478
137.384 21161 145.468
137.502 22301 149.335
137.619 23236 152.434
137.736 23571 153.528
137.853 23486 153.251
137.97 24021 154.987
138.087 23467 153.189
138.204 23871 154.502
138.321 24050 155.081
138.438 24030 155.016
138.555 24113 155.284
138.672 23686 153.903
138.788 23222 152.388
138.905 22368 149.559
139.022 21576 146.888
139.139 20783 144.163
139.255 19757 140.56
139.372 20321 142.552
139.488 20947 144.731
139.605 21917 148.044
139.721 21790 147.614
139.838 21945 148.138
139.954 21383 146.229
140.071 20734 143.993
140.187 20880 144.499
140.303 20138 141.908
140.419 19999 141.418
140.535 19379 139.208
140.652 19064 138.072
140.768 0 1
140.884 0 1
141 0 1
141.115 0 1
141.231 0 1
141.347 0 1
141.463 0 1
141.578 0 1
141.694 0 1
144.104 0 1
144.219 0 1
144.335 0 1
144.45 0 1
144.566 0 1
144.682 0 1
144.798 0 1
144.914 0 1
145.03 0 1
145.146 14844 121.836
145.262 16054 126.704
145.378 16040 126.649
145.494 16027 126.598
145.61 16014 126.546
145.726 15632 125.028
145.842 15693 125.272
145.959 15871 125.98
146.075 15929 126.21
146.192 16107 126.913
146.308 16754 129.437
146.425 17228 131.255
146.541 17752 133.237
146.658 18131 134.651
146.774 18502 136.022
146.891 18577 136.297
147.008 18589 136.341
147.125 18561 136.239
147.241 19196 138.55
147.358 19314 138.975
147.475 19026 137.935
147.592 18631 136.495
147.709 18218 134.974
147.826 17832 133.537
147.943 16912 130.046
148.06 16239 127.432
148.177 16282 127.601
148.294 16524 128.546
148.411 17078 130.683
148.528 17894 133.768
148.645 17390 131.871
148.762 17738 133.184
148.88 17309 131.564
148.997 17054 130.591
149.114 17483 132.223
149.231 16973 130.28
149.349 16401 128.066
149.466 16843 129.781
149.583 16618 128.911
149.701 16314 127.726
149.818 16372 127.953
149.935 16479 128.371
150.053 16799 129.611
150.17 17403 131.92
150.287 17720 133.116
150.405 18195 134.889
150.522 18606 136.404
150.64 18816 137.171
150.757 19132 138.318
150.875 19424 139.37
150.992 19547 139.811
151.11 19817 140.773
151.227 19322 139.004
151.344 19431 139.395
151.462 19058 138.051
151.579 18710 136.785
151.697 17454 132.114
151.814 16776 129.522
151.932 16931 130.119
152.049 17572 132.559
152.167 18187 134.859
152.284 18606 136.404
152.402 18388 135.602
152.519 18616 136.44
152.636 18529 136.121
152.754 18179 134.83
152.871 17800 133.417
152.989 17934 133.918
153.106 17595 132.646
153.223 17701 133.045
153.341 17616 132.725
153.458 17543 132.45
153.575 17956 134
153.693 18340 135.425
153.81 18565 136.253
153.927 19286 138.874
154.044 20261 142.341
154.162 20186 142.077
154.279 21030 145.017
154.396 21142 145.403
154.513 21533 146.741
154.63 21906 148.007
154.747 22362 149.539
154.864 21881 147.922
154.981 22204 149.01
155.098 21423 146.366
155.215 20815 144.274
155.332 20021 141.496
155.449 19783 140.652
155.566 20643 143.677
155.683 20844 144.375
155.8 21102 145.265
155.917 21225 145.688
156.033 20733 143.99
156.15 0 1
156.267 0 1
156.383 0 1
156.5 0 1
156.617 0 1
156.733 0 1
156.85 0 1
156.966 0 1
157.082 0 1
157.199 0 1
157.315 0 1
157.431 0 1
157.547 0 1
157.664 0 1
157.78 0 1
157.896 0 1
158.012 0 1
158.128 0 1
158.244 0 1
158.359 0 1
158.475 0 1
158.591 0 1
158.706 0 1
