
6.15755 0 1
6.2731 0 1
6.3887 0 1
6.50437 0 1
6.62009 0 1
6.73587 0 1
6.8517 0 1
6.96759 0 1
7.08353 0 1
7.19952 0 1
7.31557 0 1
7.43166 0 1
7.54781 0 1
7.664 0 1
7.78024 0 1
7.89653 0 1
8.01286 0 1
8.12924 0 1
8.24567 0 1
8.36213 0 1
8.47864 0 1
8.59519 0 1
8.71178 0 1
8.82841 0 1
8.94508 0 1
9.06179 0 1
9.17853 0 1
9.29531 0 1
9.41212 0 1
9.52897 0 1
9.64584 0 1
9.76276 0 1
9.8797 0 1
9.99667 0 1
10.1137 0 1
10.2307 0 1
10.3478 0 1
10.4648 0 1
10.5819 0 1
10.6991 0 1
10.8162 0 1
10.9334 0 1
11.0506 0 1
11.1678 0 1
11.285 0 1
11.4023 0 1
11.5196 0 1
11.6369 0 1
11.7542 0 1
11.8715 0 1
11.9888 0 1
12.1062 0 1
12.2235 0 1
12.3409 0 1
12.4582 0 1
12.5756 0 1
12.693 0 1
12.8104 0 1
12.9278 0 1
13.0452 0 1
13.1626 0 1
13.28 0 1
13.3974 0 1
13.5149 0 1
13.6323 0 1
13.7497 0 1
13.8671 0 1
13.9845 0 1
14.1019 0 1
14.2193 0 1
14.3367 0 1
14.4541 0 1
14.5714 0 1
14.6888 0 1
14.8062 0 1
14.9235 0 1
15.0408 0 0
15.1581 0 0
15.2755 0 0
15.3927 0 0
15.51 0 0
15.6273 0 0
15.7445 0 0
15.8617 0 0
15.9789 0 0
16.0961 0 0
16.2132 0 0
16.3304 0 0
16.4475 0 0
16.5646 0 0
16.6816 0 0
16.7986 0 0
16.9156 0 0
17.0326 0 0
17.1496 0 0
17.2665 0 0
17.3833 0 0
17.5002 0 0
17.617 0 0
17.7338 0 0
17.8505 0 0
17.9672 0 0
18.0839 0 0
18.2005 0 0
18.3171 0 0
18.4337 0 0
18.5502 0 0
18.6666 0 0
18.7831 0 0
18.8994 0 0
19.0158 0 0
19.1321 0 0
19.2483 0 0
19.3645 0 0
19.4806 0 0
19.5967 0 0
19.7128 0 0
19.8288 0 0
19.9447 0 0
20.0606 0 1
20.1764 0 1
20.2922 0 1
20.4079 0 1
20.5236 0 1
20.6392 0 1
20.7548 0 1
20.8702 0 1
23.3078 0 1
23.4233 0 1
23.539 0 1
23.6547 0 1
23.7704 0 1
23.8862 0 1
24.0021 0 1
24.118 0 1
24.234 0 1
24.35 0 1
24.4661 90080 300.133
24.5822 90094 300.157
24.6984 89634 299.389
24.8146 91290 302.142
24.9309 92733 304.521
25.0472 94068 306.705
25.1636 95975 309.798
25.28 98181 313.338
25.3965 100069 316.337
25.513 101466 318.537
25.6296 103188 321.229
25.7462 104001 322.492
25.8628 103558 321.804
25.9795 103102 321.095
26.0962 102473 320.114
26.213 102929 320.825
26.3298 101034 317.858
26.4466 101295 318.269
26.5635 100115 316.41
26.6804 97933 312.942
26.7973 94766 307.841
26.9143 92739 304.531
27.0313 90371 300.618
27.1483 90707 301.176
27.2653 91284 302.132
27.3824 92400 303.974
27.4996 91360 302.258
27.6167 89055 298.421
27.7339 86048 293.339
27.8511 83142 288.344
27.9683 81642 285.731
28.0855 80371 283.498
28.2028 80389 283.53
28.3201 79140 281.318
28.4374 81246 285.037
28.5547 83141 288.342
28.6721 84707 291.045
28.7894 86859 294.719
28.9068 88948 298.242
29.0242 90576 300.958
29.1416 91284 302.132
29.259 91273 302.114
29.3764 91432 302.377
29.4939 91181 301.962
29.6113 91727 302.865
29.7288 90719 301.196
29.8463 91268 302.106
29.9638 90795 301.322
30.0812 90741 301.232
30.1987 89530 299.216
30.3162 87153 295.217
30.4337 84625 290.904
30.5512 82875 287.88
30.6687 81879 286.145
30.7862 84078 289.962
30.9037 84808 291.218
31.0212 85666 292.688
31.1387 85230 291.942
31.2562 83322 288.656
31.3737 80461 283.656
31.4912 79003 281.075
31.6087 78364 279.936
31.7262 78515 280.205
31.8436 78335 279.884
31.9611 80022 282.882
32.0785 81648 285.741
32.1959 83945 289.733
32.3134 84940 291.445
32.4308 86533 294.165
32.5482 88233 297.04
32.6655 89154 298.587
32.7829 88710 297.842
32.9002 89821 299.702
33.0176 88851 298.079
33.1349 89103 298.501
33.2522 88781 297.961
33.3694 88813 298.015
33.4867 89009 298.344
33.6039 88470 297.439
33.7211 88015 296.673
33.8383 88156 296.911
33.9554 85940 293.155
34.0725 83428 288.839
34.1896 80658 284.004
34.3067 79649 282.222
34.4237 79879 282.629
34.5407 81117 284.81
34.6577 81776 285.965
34.7746 81317 285.161
34.8915 80755 284.174
35.0084 78074 279.417
35.1252 76709 276.964
35.242 74735 273.377
35.3587 75081 274.009
35.4755 75887 275.476
35.5921 76721 276.986
35.7088 77641 278.641
35.8254 80296 283.365
35.9419 81413 285.33
36.0584 83361 288.723
36.1749 84301 290.346
36.2913 86041 293.327
36.4077 86193 293.586
36.524 85692 292.732
36.6403 85895 293.078
36.7565 85659 292.676
36.8727 85476 292.363
36.9889 84927 291.422
37.1049 83999 289.826
37.221 0 1
37.3369 0 1
37.4529 0 1
37.5687 0 1
37.6845 0 1
37.8003 0 1
37.916 0 1
38.0316 0 1
38.1472 0 1
40.5851 0 1
40.7008 0 1
40.8164 0 1
40.9322 0 1
41.048 0 1
41.1639 0 1
41.2798 0 1
41.3958 0 1
41.5118 0 1
41.6279 0 1
41.744 69124 262.914
41.8602 71321 267.06
41.9765 71091 266.629
42.0928 71715 267.797
42.2091 72763 269.746
42.3255 72132 268.574
42.4419 72141 268.591
42.5584 72476 269.214
42.675 71613 267.606
42.7915 69584 263.788
42.9081 66909 258.668
43.0248 65285 255.509
43.1415 64798 254.555
43.2582 65570 256.066
43.375 66454 257.787
43.4918 68172 261.098
43.6087 66517 257.909
43.7256 64430 253.831
43.8425 62335 249.67
43.9595 60341 245.644
44.0765 59676 244.287
44.1935 59269 243.452
44.3106 59739 244.416
44.4277 60836 246.65
44.5448 61486 247.964
44.6619 62823 250.645
44.7791 63885 252.755
44.8963 64022 253.026
45.0136 63753 252.494
45.1308 63474 251.94
45.2481 62715 250.43
45.3654 61987 248.972
45.4827 61609 248.212
45.6001 61337 247.663
45.7174 60273 245.506
45.8348 59956 244.859
45.9522 59520 243.967
46.0697 58790 242.466
46.1871 58473 241.812
46.3046 57427 239.639
46.422 55178 234.9
46.5395 53130 230.499
46.657 51681 227.335
46.7745 49957 223.511
46.892 50538 224.807
47.0096 51579 227.11
47.1271 52147 228.357
47.2446 50817 225.426
47.3622 48922 221.183
47.4797 47156 217.154
47.5973 45352 212.96
47.7149 45344 212.941
47.8324 45465 213.225
47.95 45929 214.311
48.0675 46761 216.243
48.1851 47319 217.529
48.3027 48098 219.313
48.4202 48924 221.188
48.5378 48804 220.916
48.6554 49009 221.38
48.7729 48788 220.88
48.8904 48954 221.256
49.008 48902 221.138
49.1255 49441 222.353
49.243 49549 222.596
49.3605 49324 222.09
49.478 50130 223.897
49.5955 50398 224.495
49.713 51374 226.658
49.8304 51595 227.145
49.9479 50272 224.214
50.0653 49219 221.854
50.1827 48260 219.682
50.3001 47156 217.154
50.4175 48410 220.023
50.5348 49727 222.996
50.6521 52502 229.133
50.7694 53966 232.306
50.8867 54590 233.645
51.004 53842 232.039
51.1212 53936 232.241
51.2384 55651 235.905
51.3556 56762 238.248
51.4727 59170 243.249
51.5899 61650 248.294
51.707 64213 253.403
51.824 65918 256.745
51.9411 67154 259.141
52.0581 67335 259.49
52.175 68698 262.103
52.2919 68996 262.671
52.4088 70463 265.449
52.5257 70966 266.394
52.6425 70453 265.43
52.7593 70863 266.201
52.876 71965 268.263
52.9927 72393 269.059
53.1094 72601 269.446
53.226 73579 271.254
53.3426 74365 272.699
53.4591 74656 273.233
53.5756 74290 272.562
53.692 72355 268.989
53.8084 69080 262.831
53.9248 67670 260.135
54.0411 67743 260.275
54.1573 69282 263.215
54.2735 0 1
54.3896 0 1
54.5057 0 1
54.6217 0 1
54.7377 0 1
54.8537 0 1
54.9695 0 1
55.0853 0 1
55.2011 0 1
55.3168 0 1
55.4324 0 1
57.824 0 1
57.9396 0 1
58.0553 0 1
58.1711 0 1
58.2869 0 1
58.4028 0 1
58.5187 0 1
58.6347 0 1
58.7508 0 1
58.8669 0 1
58.983 79113 281.27
59.0992 78968 281.012
59.2155 79083 281.217
59.3318 79809 282.505
59.4482 80991 284.589
59.5646 81224 284.998
59.681 81444 285.384
59.7975 81415 285.333
59.9141 82195 286.697
60.0306 83151 288.359
60.1473 85234 291.949
60.2639 86636 294.34
60.3807 87496 295.797
60.4974 87516 295.831
60.6142 87189 295.278
60.731 86251 293.685
60.8479 86631 294.331
60.9648 86467 294.053
61.0818 86352 293.857
61.1987 85003 291.553
61.3158 84803 291.21
61.4328 84038 289.893
61.5499 84396 290.51
61.667 83484 288.936
61.7841 83718 289.341
61.9013 83583 289.107
62.0185 83271 288.567
62.1357 81965 286.295
62.253 80077 282.979
62.3702 76789 277.108
62.4875 74441 272.839
62.6049 73771 271.608
62.7222 74995 273.852
62.8396 75805 275.327
62.9569 76296 276.217
63.0743 75307 274.421
63.1918 74347 272.666
63.3092 74688 273.291
63.4267 75957 275.603
63.5441 77897 279.1
63.6616 79340 281.674
63.7791 79814 282.514
63.8966 80508 283.739
64.0142 79627 282.183
64.1317 79926 282.712
64.2492 79763 282.423
64.3668 79356 281.702
64.4843 78335 279.884
64.6019 78780 280.678
64.7195 78594 280.346
64.837 78552 280.271
64.9546 77966 279.224
65.0722 77053 277.584
65.1898 77073 277.62
65.3074 77668 278.69
65.4249 76837 277.195
65.5425 76318 276.257
65.6601 76592 276.753
65.7777 76141 275.937
65.8952 74220 272.433
66.0128 70039 264.649
66.1304 67264 259.353
66.2479 66655 258.176
66.3655 67953 260.678
66.483 69750 264.102
66.6005 70502 265.522
66.718 70073 264.713
66.8355 69780 264.159
66.953 71192 266.818
67.0705 73063 270.302
67.1879 75268 274.35
67.3054 76257 276.147
67.4228 76363 276.339
67.5402 75817 275.349
67.6576 76235 276.107
67.7749 75037 273.929
67.8923 77033 277.548
68.0096 76503 276.592
68.1269 75976 275.637
68.2442 76881 277.274
68.3614 76120 275.899
68.4787 76632 276.825
68.5958 76777 277.087
68.713 76171 275.991
68.8302 76313 276.248
68.9473 76719 276.982
69.0643 76610 276.785
69.1814 76786 277.103
69.2984 77019 277.523
69.4154 77274 277.982
69.5323 76435 276.469
69.6492 75123 274.086
69.7661 71344 267.103
69.8829 68164 261.082
69.9997 68734 262.172
70.1165 70395 265.321
70.2332 71998 268.324
70.3499 71828 268.007
70.4665 71460 267.32
70.5831 72804 269.822
70.6996 74375 272.718
70.8161 76935 277.372
70.9326 77577 278.526
71.049 77803 278.932
71.1653 77219 277.883
71.2817 75652 275.049
71.3979 74854 273.595
71.5141 74038 272.099
71.6303 71606 267.593
71.7464 68112 260.983
71.8624 0 1
71.9784 0 1
72.0944 0 1
72.2102 0 1
72.3261 0 1
72.4418 0 1
72.5575 0 1
72.6732 0 1
75.1054 0 1
75.2209 0 1
75.3365 0 1
75.4521 0 1
75.5678 0 1
75.6835 0 1
75.7993 0 1
75.9151 0 1
76.031 0 1
76.147 67356 259.53
76.263 72439 269.145
76.3791 74369 272.707
76.4952 73848 271.75
76.6113 74232 272.456
76.7276 74694 273.302
76.8438 73776 271.617
76.9601 74183 272.366
77.0765 74106 272.224
77.1929 74086 272.187
77.3093 74138 272.283
77.4258 73898 271.842
77.5423 73937 271.914
77.6589 73418 270.958
77.7755 73477 271.066
77.8921 73055 270.287
78.0088 73328 270.791
78.1256 72174 268.652
78.2423 72222 268.742
78.3591 71926 268.19
78.4759 72121 268.554
78.5928 71604 267.589
78.7097 69023 262.722
78.8266 66480 257.837
78.9436 55291 235.14
79.0606 53627 231.575
79.1776 55596 235.788
79.2946 60857 246.692
79.4117 64371 253.714
79.5288 67973 260.716
79.6459 69186 263.032
79.7631 69392 263.424
79.8802 69138 262.941
79.9974 69108 262.884
80.1147 69066 262.804
80.2319 67730 260.25
80.3491 67882 260.542
80.4664 67961 260.693
80.5837 66843 258.54
80.701 66328 257.542
80.8183 66344 257.573
80.9357 66249 257.389
81.053 66688 258.24
81.1704 65596 256.117
81.2877 65945 256.798
81.4051 65122 255.19
81.5225 65944 256.796
81.6399 63258 251.511
81.7573 64122 253.223
81.8747 63029 251.056
81.9922 62624 250.248
82.1096 63365 251.724
82.227 62398 249.796
82.3444 61079 247.142
82.4619 60046 245.043
82.5793 53618 231.556
82.6967 49738 223.02
82.8142 47230 217.325
82.9316 51357 226.621
83.049 55816 236.254
83.1664 57470 239.729
83.2838 59319 243.555
83.4012 59316 243.549
83.5186 58332 241.52
83.636 57725 240.26
83.7534 57431 239.648
83.8708 57093 238.941
83.9881 56600 237.908
84.1055 56856 238.445
84.2228 55448 235.474
84.3401 56176 237.015
84.4575 55812 236.246
84.5747 55975 236.59
84.692 55952 236.542
84.8093 56029 236.704
84.9265 55347 235.259
85.0437 55070 234.67
85.1609 55304 235.168
85.2781 54788 234.068
85.3952 55091 234.715
85.5123 54972 234.461
85.6294 54377 233.189
85.7465 54459 233.365
85.8636 54436 233.315
85.9806 54308 233.041
86.0976 51899 227.814
86.2145 46175 214.884
86.3315 39470 198.671
86.4484 42409 205.934
86.5652 48163 219.461
86.682 52806 229.796
86.7988 53637 231.597
86.9156 54288 232.998
87.0323 53297 230.861
87.149 53780 231.905
87.2657 52680 229.521
87.3823 52824 229.835
87.4988 52143 228.348
87.6154 51788 227.57
87.7318 51244 226.371
87.8483 51017 225.869
87.9647 50758 225.295
88.081 50650 225.056
88.1973 51140 226.142
88.3136 50853 225.506
88.4298 50399 224.497
88.546 49733 223.009
88.6621 48503 220.234
88.7781 47103 217.032
88.8942 0 1
89.0101 0 1
89.126 0 1
89.2419 0 1
89.3577 0 1
89.4734 0 1
89.5891 0 1
89.7047 0 1
89.8203 0 1
89.9358 0 1
92.3269 0 1
92.4424 0 1
92.558 0 1
92.6736 0 1
92.7893 0 1
92.905 0 1
93.0208 0 1
93.1366 0 1
93.2525 0 1
93.3685 0 1
93.4845 0 1
93.6005 28787 169.667
93.7167 28789 169.673
93.8328 28050 167.481
93.949 27203 164.933
94.0653 26650 163.248
94.1816 25795 160.608
94.2979 25049 158.269
94.4143 24092 155.216
94.5307 23395 152.954
94.6472 22753 150.841
94.7637 21962 148.196
94.8803 21976 148.243
94.9969 20985 144.862
95.1135 20600 143.527
95.2302 19832 140.826
95.3469 18422 135.728
95.4637 15973 126.384
95.5805 14007 118.351
95.6973 15915 126.155
95.8142 17572 132.559
95.9311 17385 131.852
96.048 16658 129.066
96.1649 16360 127.906
96.2819 16179 127.197
96.3989 15615 124.96
96.516 15544 124.676
96.633 15520 124.579
96.7501 15763 125.551
96.8673 15677 125.208
96.9844 15701 125.304
97.1016 16310 127.711
97.2188 16874 129.9
97.336 17964 134.03
97.4532 18596 136.367
97.5704 19342 139.076
97.6877 20069 141.665
97.805 20486 143.129
97.9223 21329 146.045
98.0396 22082 148.6
98.1569 22776 150.917
98.2743 23677 153.873
98.3916 24174 155.48
98.509 25051 158.275
98.6264 25840 160.748
98.7438 26771 163.618
98.8612 26770 163.615
98.9786 25788 160.586
99.096 22542 150.14
99.2134 20913 144.613
99.3308 26944 164.146
99.4482 31599 177.761
99.5656 33209 182.233
99.6831 34247 185.059
99.8005 34404 185.483
99.9179 34735 186.373
100.035 35884 189.431
100.153 36342 190.636
100.27 36613 191.345
100.388 37240 192.977
100.505 37829 194.497
100.622 38517 196.257
100.74 39395 198.482
100.857 39852 199.63
100.975 41363 203.379
101.092 42012 204.968
101.209 42668 206.562
101.327 43164 207.759
101.444 43915 209.559
101.561 44207 210.255
101.679 45101 212.37
101.796 45869 214.17
101.913 46421 215.455
102.03 47034 216.873
102.148 47296 217.476
102.265 50188 224.027
102.382 45536 213.392
102.499 45463 213.221
102.616 38450 196.087
102.733 33028 181.736
102.851 38880 197.18
102.968 47294 217.472
103.085 49413 222.29
103.202 49874 223.325
103.319 49842 223.253
103.436 49569 222.641
103.552 49939 223.47
103.669 49523 222.538
103.786 49704 222.944
103.903 50188 224.027
104.02 50279 224.23
104.137 50165 223.975
104.253 52135 228.331
104.37 49579 222.663
104.487 51481 226.894
104.603 51917 227.853
104.72 51814 227.627
104.836 52605 229.358
104.953 52078 228.206
105.069 52927 230.059
105.186 52752 229.678
105.302 53260 230.781
105.418 53752 231.845
105.535 53578 231.469
105.651 53498 231.296
105.767 52777 229.732
105.883 50038 223.692
105.999 44560 211.092
106.115 0 1
106.231 0 1
106.347 0 1
106.463 0 1
106.579 0 1
106.694 0 1
106.81 0 1
106.926 0 1
107.041 0 1
107.157 0 1
109.576 0 1
109.692 0 1
109.807 0 1
109.923 0 1
110.039 0 1
110.155 0 1
110.27 0 1
110.386 0 1
110.502 0 1
110.618 43134 207.687
110.735 43748 209.16
110.851 43003 207.372
110.967 41477 203.659
111.083 36638 191.411
111.199 32885 181.342
111.316 33423 182.82
111.432 36708 191.593
111.549 39725 199.311
111.665 40209 200.522
111.782 39478 198.691
111.898 39100 197.737
112.015 38203 195.456
112.132 37464 193.556
112.248 36184 190.221
112.365 35612 188.711
112.482 35301 187.886
112.599 33826 183.918
112.716 33787 183.812
112.832 32851 181.248
112.949 31972 178.807
113.066 31916 178.65
113.183 31193 176.615
113.3 30599 174.926
113.417 29932 173.009
113.534 29747 172.473
113.652 29249 171.023
113.769 28723 169.479
113.886 27738 166.547
114.003 27664 166.325
114.12 27401 165.532
114.238 26634 163.199
114.355 26477 162.718
114.472 25958 161.115
114.589 25581 159.941
114.707 23774 154.188
114.824 21413 146.332
114.942 20844 144.375
115.059 22492 149.973
115.176 24278 155.814
115.294 24441 156.336
115.411 24087 155.2
115.529 23852 154.441
115.646 23576 153.545
115.764 23294 152.624
115.881 23148 152.145
115.999 22735 150.781
116.116 22829 151.093
116.234 22334 149.446
116.351 22587 150.29
116.469 22289 149.295
116.586 22134 148.775
116.704 22326 149.419
116.821 21846 147.804
116.939 22241 149.134
117.056 22028 148.418
117.174 22222 149.07
117.291 22138 148.788
117.409 22313 149.375
117.526 22414 149.713
117.644 22413 149.71
117.761 21256 145.794
117.879 19535 139.768
117.996 18355 135.481
118.114 19298 138.917
118.231 21923 148.064
118.349 22709 150.695
118.466 22691 150.635
118.584 22503 150.01
118.701 22202 149.003
118.819 22899 151.324
118.936 23273 152.555
119.053 23568 153.519
119.171 23883 154.541
119.288 23425 153.052
119.405 23511 153.333
119.523 23775 154.191
119.64 23897 154.587
119.757 23760 154.143
119.875 23847 154.425
119.992 23807 154.295
120.109 24023 154.994
120.226 24144 155.383
120.343 24449 156.362
120.46 24720 157.226
120.578 24781 157.42
120.695 24656 157.022
120.812 25247 158.893
120.929 25561 159.878
121.046 25787 160.583
121.163 25694 160.293
121.279 25592 159.975
121.396 24403 156.215
121.513 21069 145.152
121.63 17759 133.263
121.747 16417 128.129
121.863 19632 140.114
121.98 24212 155.602
122.097 27114 164.663
122.213 28807 169.726
122.33 28707 169.431
122.446 27599 166.129
122.563 27908 167.057
122.679 28477 168.751
122.795 29082 170.534
122.912 29460 171.639
123.028 29562 171.936
123.144 29818 172.679
123.26 29918 172.968
123.377 0 1
123.493 0 1
123.609 0 1
123.725 0 1
123.84 0 1
123.956 0 1
124.072 0 1
124.188 0 1
124.303 0 1
124.419 0 1
126.852 0 1
126.968 0 1
127.083 0 1
127.199 0 1
127.315 0 1
127.431 0 1
127.547 0 1
127.663 0 1
127.779 0 1
127.895 0 1
128.011 0 1
128.127 0 1
128.243 0 1
128.359 42347 205.784
128.476 42479 206.104
128.592 42799 206.879
128.708 43443 208.43
128.825 43806 209.299
128.941 43902 209.528
129.058 43928 209.59
129.174 44197 210.231
129.291 45251 212.723
129.408 44950 212.014
129.524 45205 212.615
129.641 45524 213.364
129.758 45699 213.773
129.875 45473 213.244
129.992 45492 213.289
130.108 44677 211.369
130.225 42311 205.696
130.342 38352 195.837
130.459 33158 182.093
130.576 30457 174.519
130.693 27702 166.439
130.81 29355 171.333
130.928 36835 191.924
131.045 44641 211.284
131.162 48284 219.736
131.279 49758 223.065
131.396 49888 223.356
131.513 49543 222.583
131.631 49884 223.347
131.748 50309 224.297
131.865 49864 223.302
131.983 50228 224.116
132.1 51035 225.909
132.217 50897 225.604
132.335 50979 225.785
132.452 51239 226.36
132.57 51535 227.013
132.687 50130 223.897
132.804 53422 231.132
132.922 52007 228.05
133.039 52094 228.241
133.157 52757 229.689
133.274 52910 230.022
133.392 53589 231.493
133.509 52410 228.932
133.627 51758 227.504
133.744 48894 221.12
133.862 45470 213.237
133.979 42324 205.728
134.097 38122 195.249
134.214 36419 190.838
134.332 35172 187.542
134.449 37918 194.725
134.567 43893 209.507
134.684 51909 227.835
134.802 55594 235.784
134.919 57358 239.495
135.037 57658 240.121
135.154 57866 240.554
135.272 58326 241.508
135.389 57636 240.075
135.507 58211 241.27
135.624 58925 242.745
135.742 59019 242.938
135.859 59061 243.025
135.977 58984 242.866
136.094 59785 244.51
136.211 59721 244.379
136.329 60281 245.522
136.446 59566 244.061
136.564 60456 245.878
136.681 61096 247.176
136.798 60122 245.198
136.915 61230 247.447
137.033 60743 246.461
137.15 59682 244.299
137.267 57767 240.348
137.384 55327 235.217
137.502 51747 227.48
137.619 47765 218.552
137.736 45342 212.937
137.853 42961 207.27
137.97 42755 206.773
138.087 46060 214.616
138.204 49027 221.42
138.321 55196 234.938
138.438 61250 247.487
138.555 63979 252.941
138.672 65199 255.341
138.788 65274 255.488
138.905 65733 256.384
139.022 65765 256.447
139.139 66672 258.209
139.255 66459 257.796
139.372 66276 257.441
139.488 66358 257.6
139.605 66462 257.802
139.721 66819 258.494
139.838 66846 258.546
139.954 66999 258.842
140.071 65886 256.683
140.187 66651 258.169
140.303 66156 257.208
140.419 66888 258.627
140.535 66014 256.932
140.652 65413 255.76
140.768 0 1
140.884 0 1
141 0 1
141.115 0 1
141.231 0 1
141.347 0 1
141.463 0 1
141.578 0 1
141.694 0 1
144.104 0 1
144.219 0 1
144.335 0 1
144.45 0 1
144.566 0 1
144.682 0 1
144.798 0 1
144.914 0 1
145.03 0 1
145.146 64549 254.065
145.262 65191 255.325
145.378 65377 255.689
145.494 64807 254.572
145.61 64583 254.132
145.726 63148 251.293
145.842 61170 247.326
145.959 58398 241.657
146.075 55771 236.159
146.192 52859 229.911
146.308 51487 226.907
146.425 49730 223.002
146.541 49514 222.517
146.658 50481 224.68
146.774 52828 229.843
146.891 55153 234.847
147.008 58978 242.854
147.125 62461 249.922
147.241 65945 256.798
147.358 66324 257.534
147.475 66392 257.666
147.592 66257 257.404
147.709 66986 258.817
147.826 65963 256.833
147.943 66323 257.533
148.06 65890 256.69
148.177 66039 256.981
148.294 65793 256.501
148.411 65634 256.191
148.528 66082 257.064
148.645 65817 256.548
148.762 65607 256.139
148.88 65721 256.361
148.997 63170 251.336
149.114 67010 258.863
149.231 64414 253.799
149.349 63432 251.857
149.466 60503 245.974
149.583 57885 240.593
149.701 55893 236.417
149.818 53793 231.933
149.935 51766 227.521
150.053 50639 225.031
150.17 51052 225.947
150.287 52566 229.273
150.405 54245 232.906
150.522 57319 239.414
150.64 59707 244.35
150.757 61819 248.634
150.875 64525 254.018
150.992 67406 259.627
151.11 66407 257.696
151.227 67336 259.492
151.344 67132 259.098
151.462 67341 259.501
151.579 67209 259.247
151.697 68078 260.918
151.814 67611 260.021
151.932 67219 259.266
152.049 68023 260.812
152.167 67257 259.34
152.284 67779 260.344
152.402 68164 261.082
152.519 68214 261.178
152.636 67690 260.173
152.754 67127 259.089
152.871 65411 255.756
152.989 64026 253.034
153.106 62749 250.498
153.223 59655 244.244
153.341 57538 239.871
153.458 55850 236.326
153.575 54654 233.782
153.693 54351 233.133
153.81 54709 233.9
153.927 56285 237.245
154.044 58845 242.58
154.162 61599 248.191
154.279 64638 254.24
154.396 67751 260.29
154.513 68620 261.954
154.63 69651 263.915
154.747 70485 265.49
154.864 70925 266.317
154.981 71755 267.871
155.098 70852 266.18
155.215 70851 266.179
155.332 71193 266.82
155.449 70640 265.782
155.566 71469 267.337
155.683 70749 265.987
155.8 71197 266.828
155.917 71339 267.094
156.033 71952 268.239
156.15 0 1
156.267 0 1
156.383 0 1
156.5 0 1
156.617 0 1
156.733 0 1
156.85 0 1
156.966 0 1
157.082 0 1
157.199 0 1
157.315 0 1
157.431 0 1
157.547 0 1
157.664 0 1
157.78 0 1
157.896 0 1
158.012 0 1
158.128 0 1
158.244 0 1
158.359 0 1
158.475 0 1
158.591 0 1
158.706 0 1
