
6.15755 0 1
6.2731 0 1
6.3887 0 1
6.50437 0 1
6.62009 0 1
6.73587 0 1
6.8517 0 1
6.96759 0 1
7.08353 0 1
7.19952 0 1
7.31557 0 1
7.43166 0 1
7.54781 0 1
7.664 0 1
7.78024 0 1
7.89653 0 1
8.01286 0 1
8.12924 0 1
8.24567 0 1
8.36213 0 1
8.47864 0 1
8.59519 0 1
8.71178 0 1
8.82841 0 1
8.94508 0 1
9.06179 0 1
9.17853 0 1
9.29531 0 1
9.41212 0 1
9.52897 0 1
9.64584 0 1
9.76276 0 1
9.8797 0 1
9.99667 0 1
10.1137 0 1
10.2307 0 1
10.3478 0 1
10.4648 0 1
10.5819 0 1
10.6991 0 1
10.8162 0 1
10.9334 0 1
11.0506 0 1
11.1678 0 1
11.285 0 1
11.4023 0 1
11.5196 0 1
11.6369 0 1
11.7542 0 1
11.8715 0 1
11.9888 0 1
12.1062 0 1
12.2235 0 1
12.3409 0 1
12.4582 0 1
12.5756 0 1
12.693 0 1
12.8104 0 1
12.9278 0 1
13.0452 0 1
13.1626 0 1
13.28 0 1
13.3974 0 1
13.5149 0 1
13.6323 0 1
13.7497 0 1
13.8671 0 1
13.9845 0 1
14.1019 0 1
14.2193 0 1
14.3367 0 1
14.4541 0 1
14.5714 0 1
14.6888 0 1
14.8062 0 1
14.9235 0 1
15.0408 0 0
15.1581 0 0
15.2755 0 0
15.3927 0 0
15.51 0 0
15.6273 0 0
15.7445 0 0
15.8617 0 0
15.9789 0 0
16.0961 0 0
16.2132 0 0
16.3304 0 0
16.4475 0 0
16.5646 0 0
16.6816 0 0
16.7986 0 0
16.9156 0 0
17.0326 0 0
17.1496 0 0
17.2665 0 0
17.3833 0 0
17.5002 0 0
17.617 0 0
17.7338 0 0
17.8505 0 0
17.9672 0 0
18.0839 0 0
18.2005 0 0
18.3171 0 0
18.4337 0 0
18.5502 0 0
18.6666 0 0
18.7831 0 0
18.8994 0 0
19.0158 0 0
19.1321 0 0
19.2483 0 0
19.3645 0 0
19.4806 0 0
19.5967 0 0
19.7128 0 0
19.8288 0 0
19.9447 0 0
20.0606 0 1
20.1764 0 1
20.2922 0 1
20.4079 0 1
20.5236 0 1
20.6392 0 1
20.7548 0 1
20.8702 0 1
23.3078 0 1
23.4233 0 1
23.539 0 1
23.6547 0 1
23.7704 0 1
23.8862 0 1
24.0021 0 1
24.118 0 1
24.234 0 1
24.35 0 1
24.4661 1177 34.3074
24.5822 1165 34.1321
24.6984 1199 34.6266
24.8146 1231 35.0856
24.9309 1242 35.242
25.0472 1325 36.4005
25.1636 1311 36.2077
25.28 1356 36.8239
25.3965 1288 35.8887
25.513 1259 35.4824
25.6296 1384 37.2022
25.7462 1277 35.7351
25.8628 1329 36.4555
25.9795 1308 36.1663
26.0962 1364 36.9324
26.213 1385 37.2156
26.3298 1333 36.5103
26.4466 1379 37.1349
26.5635 1282 35.805
26.6804 1313 36.2353
26.7973 1197 34.5977
26.9143 1214 34.8425
27.0313 1130 33.6155
27.1483 1131 33.6303
27.2653 1144 33.8231
27.3824 1214 34.8425
27.4996 1223 34.9714
27.6167 1191 34.5109
27.7339 1191 34.5109
27.8511 1084 32.9242
27.9683 1130 33.6155
28.0855 1139 33.7491
28.2028 1155 33.9853
28.3201 1049 32.3883
28.4374 1192 34.5254
28.5547 1188 34.4674
28.6721 1192 34.5254
28.7894 1158 34.0294
28.9068 1184 34.4093
29.0242 1288 35.8887
29.1416 1289 35.9026
29.259 1264 35.5528
29.3764 1229 35.0571
29.4939 1263 35.5387
29.6113 1322 36.3593
29.7288 1214 34.8425
29.8463 1244 35.2704
29.9638 1215 34.8569
30.0812 1157 34.0147
30.1987 1225 35
30.3162 1183 34.3948
30.4337 1070 32.7109
30.5512 1036 32.187
30.6687 1060 32.5576
30.7862 1129 33.6006
30.9037 1062 32.5883
31.0212 1148 33.8821
31.1387 1130 33.6155
31.2562 1172 34.2345
31.3737 1201 34.6554
31.4912 1096 33.1059
31.6087 1087 32.9697
31.7262 1109 33.3017
31.8436 1122 33.4963
31.9611 1181 34.3657
32.0785 1110 33.3167
32.1959 1126 33.5559
32.3134 1160 34.0588
32.4308 1190 34.4964
32.5482 1186 34.4384
32.6655 1200 34.641
32.7829 1122 33.4963
32.9002 1176 34.2929
33.0176 1180 34.3511
33.1349 1238 35.1852
33.2522 1228 35.0428
33.3694 1161 34.0735
33.4867 1219 34.9142
33.6039 1144 33.8231
33.7211 1240 35.2136
33.8383 1213 34.8281
33.9554 1227 35.0286
34.0725 1065 32.6343
34.1896 1091 33.0303
34.3067 1001 31.6386
34.4237 1048 32.3728
34.5407 1083 32.909
34.6577 1048 32.3728
34.7746 1122 33.4963
34.8915 1132 33.6452
35.0084 1122 33.4963
35.1252 1113 33.3617
35.242 1043 32.2955
35.3587 1044 32.311
35.4755 1054 32.4654
35.5921 1088 32.9848
35.7088 1053 32.45
35.8254 1138 33.7343
35.9419 1196 34.5832
36.0584 1159 34.0441
36.1749 1165 34.1321
36.2913 1146 33.8526
36.4077 1184 34.4093
36.524 1135 33.6898
36.6403 1202 34.6699
36.7565 1154 33.9706
36.8727 1168 34.176
36.9889 1203 34.6843
37.1049 1122 33.4963
37.221 0 1
37.3369 0 1
37.4529 0 1
37.5687 0 1
37.6845 0 1
37.8003 0 1
37.916 0 1
38.0316 0 1
38.1472 0 1
40.5851 0 1
40.7008 0 1
40.8164 0 1
40.9322 0 1
41.048 0 1
41.1639 0 1
41.2798 0 1
41.3958 0 1
41.5118 0 1
41.6279 0 1
41.744 928 30.4631
41.8602 969 31.1288
41.9765 966 31.0805
42.0928 1010 31.7805
42.2091 968 31.1127
42.3255 931 30.5123
42.4419 914 30.2324
42.5584 919 30.315
42.675 1011 31.7962
42.7915 939 30.6431
42.9081 956 30.9192
43.0248 812 28.4956
43.1415 799 28.2666
43.2582 834 28.8791
43.375 887 29.7825
43.4918 899 29.9833
43.6087 876 29.5973
43.7256 893 29.8831
43.8425 800 28.2843
43.9595 847 29.1033
44.0765 844 29.0517
44.1935 783 27.9821
44.3106 809 28.4429
44.4277 845 29.0689
44.5448 873 29.5466
44.6619 828 28.775
44.7791 837 28.931
44.8963 866 29.4279
45.0136 879 29.6479
45.1308 810 28.4605
45.2481 827 28.7576
45.3654 839 28.9655
45.4827 828 28.775
45.6001 862 29.3598
45.7174 812 28.4956
45.8348 861 29.3428
45.9522 775 27.8388
46.0697 765 27.6586
46.1871 824 28.7054
46.3046 771 27.7669
46.422 793 28.1603
46.5395 702 26.4953
46.657 658 25.6515
46.7745 660 25.6905
46.892 661 25.7099
47.0096 707 26.5895
47.1271 699 26.4386
47.2446 709 26.6271
47.3622 650 25.4951
47.4797 663 25.7488
47.5973 634 25.1794
47.7149 613 24.7588
47.8324 677 26.0192
47.95 686 26.1916
48.0675 684 26.1534
48.1851 648 25.4558
48.3027 670 25.8844
48.4202 658 25.6515
48.5378 676 26
48.6554 663 25.7488
48.7729 677 26.0192
48.8904 660 25.6905
49.008 682 26.1151
49.1255 656 25.6125
49.243 632 25.1396
49.3605 663 25.7488
49.478 728 26.9815
49.5955 698 26.4197
49.713 746 27.313
49.8304 684 26.1534
49.9479 771 27.7669
50.0653 712 26.6833
50.1827 629 25.0799
50.3001 619 24.8797
50.4175 596 24.4131
50.5348 586 24.2074
50.6521 665 25.7876
50.7694 689 26.2488
50.8867 683 26.1343
51.004 764 27.6405
51.1212 730 27.0185
51.2384 752 27.4226
51.3556 783 27.9821
51.4727 829 28.7924
51.5899 764 27.6405
51.707 861 29.3428
51.824 865 29.4109
51.9411 896 29.9333
52.0581 891 29.8496
52.175 874 29.5635
52.2919 874 29.5635
52.4088 866 29.4279
52.5257 863 29.3769
52.6425 864 29.3939
52.7593 862 29.3598
52.876 830 28.8097
52.9927 910 30.1662
53.1094 903 30.05
53.226 931 30.5123
53.3426 894 29.8998
53.4591 910 30.1662
53.5756 835 28.8964
53.692 942 30.692
53.8084 869 29.4788
53.9248 814 28.5307
54.0411 797 28.2312
54.1573 793 28.1603
54.2735 0 1
54.3896 0 1
54.5057 0 1
54.6217 0 1
54.7377 0 1
54.8537 0 1
54.9695 0 1
55.0853 0 1
55.2011 0 1
55.3168 0 1
55.4324 0 1
57.824 0 1
57.9396 0 1
58.0553 0 1
58.1711 0 1
58.2869 0 1
58.4028 0 1
58.5187 0 1
58.6347 0 1
58.7508 0 1
58.8669 0 1
58.983 930 30.4959
59.0992 958 30.9516
59.2155 925 30.4138
59.3318 855 29.2404
59.4482 932 30.5287
59.5646 983 31.3528
59.681 970 31.1448
59.7975 946 30.7571
59.9141 960 30.9839
60.0306 1029 32.078
60.1473 952 30.8545
60.2639 1043 32.2955
60.3807 981 31.3209
60.4974 988 31.4325
60.6142 976 31.241
60.731 1023 31.9844
60.8479 960 30.9839
60.9648 1005 31.7017
61.0818 1018 31.9061
61.1987 941 30.6757
61.3158 958 30.9516
61.4328 959 30.9677
61.5499 1000 31.6228
61.667 913 30.2159
61.7841 961 31
61.9013 877 29.6142
62.0185 962 31.0161
62.1357 948 30.7896
62.253 858 29.2916
62.3702 863 29.3769
62.4875 892 29.8664
62.6049 810 28.4605
62.7222 847 29.1033
62.8396 856 29.2575
62.9569 872 29.5296
63.0743 830 28.8097
63.1918 801 28.3019
63.3092 828 28.775
63.4267 831 28.8271
63.5441 886 29.7658
63.6616 909 30.1496
63.7791 848 29.1204
63.8966 850 29.1548
64.0142 916 30.2655
64.1317 888 29.7993
64.2492 861 29.3428
64.3668 825 28.7228
64.4843 825 28.7228
64.6019 832 28.8444
64.7195 809 28.4429
64.837 836 28.9137
64.9546 831 28.8271
65.0722 802 28.3196
65.1898 773 27.8029
65.3074 870 29.4958
65.4249 834 28.8791
65.5425 782 27.9643
65.6601 796 28.2135
65.7777 810 28.4605
65.8952 808 28.4253
66.0128 786 28.0357
66.1304 727 26.9629
66.2479 664 25.7682
66.3655 690 26.2679
66.483 740 27.2029
66.6005 723 26.8887
66.718 712 26.6833
66.8355 704 26.533
66.953 767 27.6948
67.0705 768 27.7128
67.1879 783 27.9821
67.3054 750 27.3861
67.4228 768 27.7128
67.5402 721 26.8514
67.6576 805 28.3725
67.7749 783 27.9821
67.8923 755 27.4773
68.0096 783 27.9821
68.1269 717 26.7769
68.2442 714 26.7208
68.3614 759 27.55
68.4787 742 27.2397
68.5958 733 27.074
68.713 754 27.4591
68.8302 753 27.4408
68.9473 745 27.2947
69.0643 734 27.0924
69.1814 751 27.4044
69.2984 694 26.3439
69.4154 760 27.5681
69.5323 731 27.037
69.6492 759 27.55
69.7661 719 26.8142
69.8829 692 26.3059
69.9997 653 25.5539
70.1165 626 25.02
70.2332 650 25.4951
70.3499 691 26.2869
70.4665 703 26.5141
70.5831 706 26.5707
70.6996 646 25.4165
70.8161 675 25.9808
70.9326 704 26.533
71.049 654 25.5734
71.1653 662 25.7294
71.2817 685 26.1725
71.3979 669 25.865
71.5141 611 24.7184
71.6303 591 24.3105
71.7464 562 23.7065
71.8624 0 1
71.9784 0 1
72.0944 0 1
72.2102 0 1
72.3261 0 1
72.4418 0 1
72.5575 0 1
72.6732 0 1
75.1054 0 1
75.2209 0 1
75.3365 0 1
75.4521 0 1
75.5678 0 1
75.6835 0 1
75.7993 0 1
75.9151 0 1
76.031 0 1
76.147 520 22.8035
76.263 550 23.4521
76.3791 519 22.7816
76.4952 556 23.5797
76.6113 523 22.8692
76.7276 550 23.4521
76.8438 540 23.2379
76.9601 533 23.0868
77.0765 567 23.8118
77.1929 524 22.891
77.3093 532 23.0651
77.4258 513 22.6495
77.5423 506 22.4944
77.6589 470 21.6795
77.7755 453 21.2838
77.8921 459 21.4243
78.0088 466 21.587
78.1256 487 22.0681
78.2423 445 21.095
78.3591 482 21.9545
78.4759 448 21.166
78.5928 414 20.347
78.7097 460 21.4476
78.8266 439 20.9523
78.9436 415 20.3715
79.0606 423 20.567
79.1776 304 17.4356
79.2946 335 18.303
79.4117 349 18.6815
79.5288 374 19.3391
79.6459 417 20.4206
79.7631 394 19.8494
79.8802 366 19.1311
79.9974 381 19.5192
80.1147 335 18.303
80.2319 329 18.1384
80.3491 318 17.8326
80.4664 326 18.0555
80.5837 320 17.8885
80.701 338 18.3848
80.8183 291 17.0587
80.9357 297 17.2337
81.053 331 18.1934
81.1704 285 16.8819
81.2877 293 17.1172
81.4051 295 17.1756
81.5225 294 17.1464
81.6399 273 16.5227
81.7573 238 15.4272
81.8747 235 15.3297
81.9922 215 14.6629
82.1096 234 15.2971
82.227 247 15.7162
82.3444 245 15.6525
82.4619 230 15.1658
82.5793 204 14.2829
82.6967 238 15.4272
82.8142 184 13.5647
82.9316 149 12.2066
83.049 173 13.1529
83.1664 184 13.5647
83.2838 182 13.4907
83.4012 150 12.2474
83.5186 156 12.49
83.636 139 11.7898
83.7534 161 12.6886
83.8708 147 12.1244
83.9881 141 11.8743
84.1055 122 11.0454
84.2228 119 10.9087
84.3401 140 11.8322
84.4575 103 10.1489
84.5747 124 11.1355
84.692 122 11.0454
84.8093 117 10.8167
84.9265 128 11.3137
85.0437 123 11.0905
85.1609 104 10.198
85.2781 97 9.84886
85.3952 99 9.94987
85.5123 95 9.74679
85.6294 95 9.74679
85.7465 95 9.74679
85.8636 101 10.0499
85.9806 103 10.1489
86.0976 88 9.38083
86.2145 57 7.54983
86.3315 99 9.94987
86.4484 138 11.7473
86.5652 106 10.2956
86.682 120 10.9545
86.7988 128 11.3137
86.9156 121 11
87.0323 133 11.5326
87.149 146 12.083
87.2657 148 12.1655
87.3823 153 12.3693
87.4988 164 12.8062
87.6154 139 11.7898
87.7318 169 13
87.8483 167 12.9228
87.9647 196 14
88.081 206 14.3527
88.1973 219 14.7986
88.3136 213 14.5945
88.4298 225 15
88.546 241 15.5242
88.6621 250 15.8114
88.7781 237 15.3948
88.8942 0 1
89.0101 0 1
89.126 0 1
89.2419 0 1
89.3577 0 1
89.4734 0 1
89.5891 0 1
89.7047 0 1
89.8203 0 1
89.9358 0 1
92.3269 0 1
92.4424 0 1
92.558 0 1
92.6736 0 1
92.7893 0 1
92.905 0 1
93.0208 0 1
93.1366 0 1
93.2525 0 1
93.3685 0 1
93.4845 0 1
93.6005 369 19.2094
93.7167 390 19.7484
93.8328 337 18.3576
93.949 386 19.6469
94.0653 336 18.3303
94.1816 354 18.8149
94.2979 347 18.6279
94.4143 357 18.8944
94.5307 324 18
94.6472 291 17.0587
94.7637 295 17.1756
94.8803 309 17.5784
94.9969 297 17.2337
95.1135 291 17.0587
95.2302 287 16.9411
95.3469 264 16.2481
95.4637 243 15.5885
95.5805 239 15.4596
95.6973 266 16.3095
95.8142 353 18.7883
95.9311 339 18.412
96.048 371 19.2614
96.1649 358 18.9209
96.2819 365 19.105
96.3989 379 19.4679
96.516 389 19.7231
96.633 388 19.6977
96.7501 365 19.105
96.8673 375 19.3649
96.9844 358 18.9209
97.1016 411 20.2731
97.2188 413 20.3224
97.336 460 21.4476
97.4532 443 21.0476
97.5704 469 21.6564
97.6877 504 22.4499
97.805 483 21.9773
97.9223 487 22.0681
98.0396 478 21.8632
98.1569 517 22.7376
98.2743 495 22.2486
98.3916 527 22.9565
98.509 500 22.3607
98.6264 521 22.8254
98.7438 510 22.5832
98.8612 533 23.0868
98.9786 485 22.0227
99.096 437 20.9045
99.2134 381 19.5192
99.3308 544 23.3238
99.4482 610 24.6982
99.5656 632 25.1396
99.6831 644 25.3772
99.8005 635 25.1992
99.9179 617 24.8395
100.035 631 25.1197
100.153 644 25.3772
100.27 679 26.0576
100.388 690 26.2679
100.505 632 25.1396
100.622 712 26.6833
100.74 678 26.0384
100.857 733 27.074
100.975 708 26.6083
101.092 732 27.0555
101.209 732 27.0555
101.327 695 26.3629
101.444 702 26.4953
101.561 709 26.6271
101.679 755 27.4773
101.796 728 26.9815
101.913 751 27.4044
102.03 747 27.3313
102.148 726 26.9444
102.265 841 29
102.382 665 25.7876
102.499 700 26.4575
102.616 562 23.7065
102.733 526 22.9347
102.851 613 24.7588
102.968 743 27.258
103.085 778 27.8927
103.202 789 28.0891
103.319 747 27.3313
103.436 778 27.8927
103.552 867 29.4449
103.669 808 28.4253
103.786 759 27.55
103.903 780 27.9285
104.02 777 27.8747
104.137 811 28.4781
104.253 768 27.7128
104.37 792 28.1425
104.487 767 27.6948
104.603 777 27.8747
104.72 879 29.6479
104.836 833 28.8617
104.953 854 29.2233
105.069 828 28.775
105.186 819 28.6182
105.302 849 29.1376
105.418 798 28.2489
105.535 823 28.688
105.651 811 28.4781
105.767 795 28.1957
105.883 760 27.5681
105.999 688 26.2298
106.115 0 1
106.231 0 1
106.347 0 1
106.463 0 1
106.579 0 1
106.694 0 1
106.81 0 1
106.926 0 1
107.041 0 1
107.157 0 1
109.576 0 1
109.692 0 1
109.807 0 1
109.923 0 1
110.039 0 1
110.155 0 1
110.27 0 1
110.386 0 1
110.502 0 1
110.618 667 25.8263
110.735 674 25.9615
110.851 641 25.318
110.967 642 25.3377
111.083 572 23.9165
111.199 478 21.8632
111.316 497 22.2935
111.432 528 22.9783
111.549 544 23.3238
111.665 621 24.9199
111.782 606 24.6171
111.898 638 25.2587
112.015 592 24.3311
112.132 562 23.7065
112.248 571 23.8956
112.365 579 24.0624
112.482 571 23.8956
112.599 564 23.7487
112.716 582 24.1247
112.832 526 22.9347
112.949 529 23
113.066 522 22.8473
113.183 564 23.7487
113.3 540 23.2379
113.417 538 23.1948
113.534 496 22.2711
113.652 490 22.1359
113.769 493 22.2036
113.886 485 22.0227
114.003 461 21.4709
114.12 489 22.1133
114.238 472 21.7256
114.355 466 21.587
114.472 443 21.0476
114.589 486 22.0454
114.707 444 21.0713
114.824 431 20.7605
114.942 408 20.199
115.059 433 20.8087
115.176 478 21.8632
115.294 434 20.8327
115.411 511 22.6053
115.529 481 21.9317
115.646 477 21.8403
115.764 450 21.2132
115.881 455 21.3307
115.999 457 21.3776
116.116 451 21.2368
116.234 455 21.3307
116.351 445 21.095
116.469 468 21.6333
116.586 430 20.7364
116.704 500 22.3607
116.821 447 21.1424
116.939 486 22.0454
117.056 470 21.6795
117.174 443 21.0476
117.291 451 21.2368
117.409 475 21.7945
117.526 504 22.4499
117.644 461 21.4709
117.761 444 21.0713
117.879 430 20.7364
117.996 384 19.5959
118.114 343 18.5203
118.231 392 19.799
118.349 437 20.9045
118.466 437 20.9045
118.584 447 21.1424
118.701 430 20.7364
118.819 453 21.2838
118.936 471 21.7025
119.053 475 21.7945
119.171 450 21.2132
119.288 467 21.6102
119.405 511 22.6053
119.523 452 21.2603
119.64 474 21.7715
119.757 488 22.0907
119.875 470 21.6795
119.992 446 21.1187
120.109 462 21.4942
120.226 489 22.1133
120.343 493 22.2036
120.46 513 22.6495
120.578 484 22
120.695 474 21.7715
120.812 483 21.9773
120.929 496 22.2711
121.046 482 21.9545
121.163 480 21.9089
121.279 447 21.1424
121.396 452 21.2603
121.513 429 20.7123
121.63 397 19.9249
121.747 338 18.3848
121.863 343 18.5203
121.98 429 20.7123
122.097 460 21.4476
122.213 469 21.6564
122.33 490 22.1359
122.446 429 20.7123
122.563 472 21.7256
122.679 507 22.5167
122.795 510 22.5832
122.912 522 22.8473
123.028 552 23.4947
123.144 485 22.0227
123.26 479 21.8861
123.377 0 1
123.493 0 1
123.609 0 1
123.725 0 1
123.84 0 1
123.956 0 1
124.072 0 1
124.188 0 1
124.303 0 1
124.419 0 1
126.852 0 1
126.968 0 1
127.083 0 1
127.199 0 1
127.315 0 1
127.431 0 1
127.547 0 1
127.663 0 1
127.779 0 1
127.895 0 1
128.011 0 1
128.127 0 1
128.243 0 1
128.359 618 24.8596
128.476 658 25.6515
128.592 719 26.8142
128.708 610 24.6982
128.825 667 25.8263
128.941 639 25.2784
129.058 638 25.2587
129.174 649 25.4755
129.291 639 25.2784
129.408 665 25.7876
129.524 617 24.8395
129.641 684 26.1534
129.758 629 25.0799
129.875 612 24.7386
129.992 635 25.1992
130.108 649 25.4755
130.225 630 25.0998
130.342 596 24.4131
130.459 535 23.1301
130.576 519 22.7816
130.693 464 21.5407
130.81 458 21.4009
130.928 465 21.5639
131.045 580 24.0832
131.162 651 25.5147
131.279 632 25.1396
131.396 717 26.7769
131.513 719 26.8142
131.631 735 27.1109
131.748 734 27.0924
131.865 729 27
131.983 691 26.2869
132.1 663 25.7488
132.217 655 25.593
132.335 729 27
132.452 712 26.6833
132.57 732 27.0555
132.687 700 26.4575
132.804 702 26.4953
132.922 746 27.313
133.039 711 26.6646
133.157 709 26.6271
133.274 708 26.6083
133.392 766 27.6767
133.509 694 26.3439
133.627 736 27.1293
133.744 693 26.3249
133.862 656 25.6125
133.979 598 24.454
134.097 571 23.8956
134.214 554 23.5372
134.332 526 22.9347
134.449 489 22.1133
134.567 540 23.2379
134.684 640 25.2982
134.802 721 26.8514
134.919 743 27.258
135.037 731 27.037
135.154 726 26.9444
135.272 755 27.4773
135.389 737 27.1477
135.507 814 28.5307
135.624 787 28.0535
135.742 765 27.6586
135.859 828 28.775
135.977 704 26.533
136.094 740 27.2029
136.211 763 27.6225
136.329 757 27.5136
136.446 782 27.9643
136.564 816 28.5657
136.681 796 28.2135
136.798 753 27.4408
136.915 831 28.8271
137.033 806 28.3901
137.15 815 28.5482
137.267 751 27.4044
137.384 773 27.8029
137.502 682 26.1151
137.619 720 26.8328
137.736 640 25.2982
137.853 585 24.1868
137.97 548 23.4094
138.087 618 24.8596
138.204 631 25.1197
138.321 648 25.4558
138.438 767 27.6948
138.555 790 28.1069
138.672 820 28.6356
138.788 838 28.9482
138.905 819 28.6182
139.022 879 29.6479
139.139 863 29.3769
139.255 866 29.4279
139.372 872 29.5296
139.488 846 29.0861
139.605 892 29.8664
139.721 899 29.9833
139.838 863 29.3769
139.954 859 29.3087
140.071 808 28.4253
140.187 887 29.7825
140.303 847 29.1033
140.419 822 28.6705
140.535 853 29.2062
140.652 832 28.8444
140.768 0 1
140.884 0 1
141 0 1
141.115 0 1
141.231 0 1
141.347 0 1
141.463 0 1
141.578 0 1
141.694 0 1
144.104 0 1
144.219 0 1
144.335 0 1
144.45 0 1
144.566 0 1
144.682 0 1
144.798 0 1
144.914 0 1
145.03 0 1
145.146 807 28.4077
145.262 846 29.0861
145.378 846 29.0861
145.494 875 29.5804
145.61 902 30.0333
145.726 824 28.7054
145.842 856 29.2575
145.959 756 27.4955
146.075 780 27.9285
146.192 715 26.7395
146.308 673 25.9422
146.425 697 26.4008
146.541 695 26.3629
146.658 645 25.3969
146.774 663 25.7488
146.891 711 26.6646
147.008 672 25.923
147.125 721 26.8514
147.241 858 29.2916
147.358 776 27.8568
147.475 833 28.8617
147.592 887 29.7825
147.709 823 28.688
147.826 831 28.8271
147.943 844 29.0517
148.06 821 28.6531
148.177 827 28.7576
148.294 884 29.7321
148.411 836 28.9137
148.528 804 28.3549
148.645 818 28.6007
148.762 831 28.8271
148.88 811 28.4781
148.997 812 28.4956
149.114 817 28.5832
149.231 770 27.7489
149.349 804 28.3549
149.466 765 27.6586
149.583 789 28.0891
149.701 739 27.1846
149.818 699 26.4386
149.935 694 26.3439
150.053 680 26.0768
150.17 628 25.0599
150.287 709 26.6271
150.405 749 27.3679
150.522 730 27.0185
150.64 718 26.7955
150.757 712 26.6833
150.875 723 26.8887
150.992 816 28.5657
151.11 853 29.2062
151.227 905 30.0832
151.344 812 28.4956
151.462 869 29.4788
151.579 856 29.2575
151.697 847 29.1033
151.814 895 29.9166
151.932 841 29
152.049 835 28.8964
152.167 864 29.3939
152.284 830 28.8097
152.402 865 29.4109
152.519 886 29.7658
152.636 810 28.4605
152.754 846 29.0861
152.871 794 28.178
152.989 858 29.2916
153.106 849 29.1376
153.223 760 27.5681
153.341 781 27.9464
153.458 775 27.8388
153.575 704 26.533
153.693 736 27.1293
153.81 691 26.2869
153.927 715 26.7395
154.044 749 27.3679
154.162 765 27.6586
154.279 781 27.9464
154.396 818 28.6007
154.513 843 29.0345
154.63 831 28.8271
154.747 818 28.6007
154.864 922 30.3645
154.981 905 30.0832
155.098 962 31.0161
155.215 900 30
155.332 938 30.6268
155.449 837 28.931
155.566 871 29.5127
155.683 910 30.1662
155.8 936 30.5941
155.917 901 30.0167
156.033 888 29.7993
156.15 0 1
156.267 0 1
156.383 0 1
156.5 0 1
156.617 0 1
156.733 0 1
156.85 0 1
156.966 0 1
157.082 0 1
157.199 0 1
157.315 0 1
157.431 0 1
157.547 0 1
157.664 0 1
157.78 0 1
157.896 0 1
158.012 0 1
158.128 0 1
158.244 0 1
158.359 0 1
158.475 0 1
158.591 0 1
158.706 0 1
