
6.15755 0 1
6.2731 0 1
6.3887 0 1
6.50437 0 1
6.62009 0 1
6.73587 0 1
6.8517 0 1
6.96759 0 1
7.08353 0 1
7.19952 0 1
7.31557 0 1
7.43166 0 1
7.54781 0 1
7.664 0 1
7.78024 0 1
7.89653 0 1
8.01286 0 1
8.12924 0 1
8.24567 0 1
8.36213 0 1
8.47864 0 1
8.59519 0 1
8.71178 0 1
8.82841 0 1
8.94508 0 1
9.06179 0 1
9.17853 0 1
9.29531 0 1
9.41212 0 1
9.52897 0 1
9.64584 0 1
9.76276 0 1
9.8797 0 1
9.99667 0 1
10.1137 0 1
10.2307 0 1
10.3478 0 1
10.4648 0 1
10.5819 0 1
10.6991 0 1
10.8162 0 1
10.9334 0 1
11.0506 0 1
11.1678 0 1
11.285 0 1
11.4023 0 1
11.5196 0 1
11.6369 0 1
11.7542 0 1
11.8715 0 1
11.9888 0 1
12.1062 0 1
12.2235 0 1
12.3409 0 1
12.4582 0 1
12.5756 0 1
12.693 0 1
12.8104 0 1
12.9278 0 1
13.0452 0 1
13.1626 0 1
13.28 0 1
13.3974 0 1
13.5149 0 1
13.6323 0 1
13.7497 0 1
13.8671 0 1
13.9845 0 1
14.1019 0 1
14.2193 0 1
14.3367 0 1
14.4541 0 1
14.5714 0 1
14.6888 0 1
14.8062 0 1
14.9235 0 1
15.0408 840 28.9828
15.1581 878 29.6311
15.2755 986 31.4006
15.3927 926 30.4302
15.51 947 30.7734
15.6273 905 30.0832
15.7445 868 29.4618
15.8617 839 28.9655
15.9789 831 28.8271
16.0961 815 28.5482
16.2132 811 28.4781
16.3304 766 27.6767
16.4475 781 27.9464
16.5646 841 29
16.6816 758 27.5318
16.7986 749 27.3679
16.9156 750 27.3861
17.0326 755 27.4773
17.1496 707 26.5895
17.2665 726 26.9444
17.3833 739 27.1846
17.5002 781 27.9464
17.617 782 27.9643
17.7338 752 27.4226
17.8505 734 27.0924
17.9672 752 27.4226
18.0839 739 27.1846
18.2005 688 26.2298
18.3171 699 26.4386
18.4337 750 27.3861
18.5502 767 27.6948
18.6666 776 27.8568
18.7831 765 27.6586
18.8994 787 28.0535
19.0158 708 26.6083
19.1321 802 28.3196
19.2483 703 26.5141
19.3645 617 24.8395
19.4806 589 24.2693
19.5967 555 23.5584
19.7128 554 23.5372
19.8288 519 22.7816
19.9447 444 21.0713
20.0606 0 1
20.1764 0 1
20.2922 0 1
20.4079 0 1
20.5236 0 1
20.6392 0 1
20.7548 0 1
20.8702 0 1
23.3078 0 1
23.4233 0 1
23.539 0 1
23.6547 0 1
23.7704 0 1
23.8862 0 1
24.0021 0 1
24.118 0 1
24.234 0 1
24.35 0 1
24.4661 311 17.6352
24.5822 397 19.9249
24.6984 471 21.7025
24.8146 518 22.7596
24.9309 630 25.0998
25.0472 624 24.98
25.1636 741 27.2213
25.28 804 28.3549
25.3965 773 27.8029
25.513 811 28.4781
25.6296 876 29.5973
25.7462 855 29.2404
25.8628 826 28.7402
25.9795 825 28.7228
26.0962 812 28.4956
26.213 826 28.7402
26.3298 750 27.3861
26.4466 722 26.8701
26.5635 730 27.0185
26.6804 608 24.6577
26.7973 642 25.3377
26.9143 627 25.04
27.0313 668 25.8457
27.1483 679 26.0576
27.2653 688 26.2298
27.3824 666 25.807
27.4996 681 26.096
27.6167 665 25.7876
27.7339 773 27.8029
27.8511 766 27.6767
27.9683 733 27.074
28.0855 700 26.4575
28.2028 779 27.9106
28.3201 752 27.4226
28.4374 772 27.7849
28.5547 761 27.5862
28.6721 803 28.3373
28.7894 770 27.7489
28.9068 752 27.4226
29.0242 770 27.7489
29.1416 689 26.2488
29.259 724 26.9072
29.3764 731 27.037
29.4939 784 28
29.6113 706 26.5707
29.7288 683 26.1343
29.8463 685 26.1725
29.9638 631 25.1197
30.0812 617 24.8395
30.1987 577 24.0208
30.3162 620 24.8998
30.4337 561 23.6854
30.5512 674 25.9615
30.6687 695 26.3629
30.7862 683 26.1343
30.9037 698 26.4197
31.0212 753 27.4408
31.1387 767 27.6948
31.2562 776 27.8568
31.3737 812 28.4956
31.4912 743 27.258
31.6087 771 27.7669
31.7262 692 26.3059
31.8436 643 25.3574
31.9611 670 25.8844
32.0785 741 27.2213
32.1959 712 26.6833
32.3134 747 27.3313
32.4308 690 26.2679
32.5482 661 25.7099
32.6655 659 25.671
32.7829 645 25.3969
32.9002 622 24.9399
33.0176 658 25.6515
33.1349 650 25.4951
33.2522 691 26.2869
33.3694 625 25
33.4867 632 25.1396
33.6039 624 24.98
33.7211 573 23.9374
33.8383 606 24.6171
33.9554 604 24.5764
34.0725 637 25.2389
34.1896 631 25.1197
34.3067 674 25.9615
34.4237 625 25
34.5407 666 25.807
34.6577 672 25.923
34.7746 729 27
34.8915 689 26.2488
35.0084 731 27.037
35.1252 665 25.7876
35.242 680 26.0768
35.3587 629 25.0799
35.4755 653 25.5539
35.5921 661 25.7099
35.7088 677 26.0192
35.8254 672 25.923
35.9419 620 24.8998
36.0584 592 24.3311
36.1749 613 24.7588
36.2913 581 24.1039
36.4077 597 24.4336
36.524 527 22.9565
36.6403 511 22.6053
36.7565 455 21.3307
36.8727 446 21.1187
36.9889 444 21.0713
37.1049 364 19.0788
37.221 0 1
37.3369 0 1
37.4529 0 1
37.5687 0 1
37.6845 0 1
37.8003 0 1
37.916 0 1
38.0316 0 1
38.1472 0 1
40.5851 0 1
40.7008 0 1
40.8164 0 1
40.9322 0 1
41.048 0 1
41.1639 0 1
41.2798 0 1
41.3958 0 1
41.5118 0 1
41.6279 0 1
41.744 301 17.3494
41.8602 346 18.6011
41.9765 402 20.0499
42.0928 378 19.4422
42.2091 423 20.567
42.3255 430 20.7364
42.4419 442 21.0238
42.5584 425 20.6155
42.675 473 21.7486
42.7915 472 21.7256
42.9081 513 22.6495
43.0248 475 21.7945
43.1415 458 21.4009
43.2582 481 21.9317
43.375 483 21.9773
43.4918 532 23.0651
43.6087 523 22.8692
43.7256 507 22.5167
43.8425 493 22.2036
43.9595 489 22.1133
44.0765 484 22
44.1935 483 21.9773
44.3106 435 20.8567
44.4277 491 22.1585
44.5448 505 22.4722
44.6619 505 22.4722
44.7791 479 21.8861
44.8963 507 22.5167
45.0136 471 21.7025
45.1308 532 23.0651
45.2481 497 22.2935
45.3654 504 22.4499
45.4827 498 22.3159
45.6001 496 22.2711
45.7174 483 21.9773
45.8348 459 21.4243
45.9522 435 20.8567
46.0697 443 21.0476
46.1871 452 21.2603
46.3046 493 22.2036
46.422 460 21.4476
46.5395 503 22.4277
46.657 445 21.095
46.7745 474 21.7715
46.892 458 21.4009
47.0096 507 22.5167
47.1271 456 21.3542
47.2446 503 22.4277
47.3622 527 22.9565
47.4797 454 21.3073
47.5973 452 21.2603
47.7149 467 21.6102
47.8324 495 22.2486
47.95 460 21.4476
48.0675 481 21.9317
48.1851 491 22.1585
48.3027 503 22.4277
48.4202 498 22.3159
48.5378 510 22.5832
48.6554 472 21.7256
48.7729 463 21.5174
48.8904 499 22.3383
49.008 478 21.8632
49.1255 484 22
49.243 420 20.4939
49.3605 431 20.7605
49.478 390 19.7484
49.5955 421 20.5183
49.713 402 20.0499
49.8304 456 21.3542
49.9479 455 21.3307
50.0653 449 21.1896
50.1827 381 19.5192
50.3001 405 20.1246
50.4175 401 20.025
50.5348 461 21.4709
50.6521 502 22.4054
50.7694 443 21.0476
50.8867 450 21.2132
51.004 428 20.6882
51.1212 458 21.4009
51.2384 449 21.1896
51.3556 429 20.7123
51.4727 460 21.4476
51.5899 437 20.9045
51.707 499 22.3383
51.824 468 21.6333
51.9411 428 20.6882
52.0581 471 21.7025
52.175 430 20.7364
52.2919 474 21.7715
52.4088 456 21.3542
52.5257 453 21.2838
52.6425 444 21.0713
52.7593 405 20.1246
52.876 439 20.9523
52.9927 422 20.5426
53.1094 392 19.799
53.226 407 20.1742
53.3426 457 21.3776
53.4591 405 20.1246
53.5756 422 20.5426
53.692 357 18.8944
53.8084 322 17.9444
53.9248 315 17.7482
54.0411 288 16.9706
54.1573 275 16.5831
54.2735 0 1
54.3896 0 1
54.5057 0 1
54.6217 0 1
54.7377 0 1
54.8537 0 1
54.9695 0 1
55.0853 0 1
55.2011 0 1
55.3168 0 1
55.4324 0 1
57.824 0 1
57.9396 0 1
58.0553 0 1
58.1711 0 1
58.2869 0 1
58.4028 0 1
58.5187 0 1
58.6347 0 1
58.7508 0 1
58.8669 0 1
58.983 368 19.1833
59.0992 400 20
59.2155 471 21.7025
59.3318 567 23.8118
59.4482 551 23.4734
59.5646 571 23.8956
59.681 576 24
59.7975 641 25.318
59.9141 616 24.8193
60.0306 652 25.5343
60.1473 644 25.3772
60.2639 599 24.4745
60.3807 699 26.4386
60.4974 654 25.5734
60.6142 690 26.2679
60.731 707 26.5895
60.8479 641 25.318
60.9648 649 25.4755
61.0818 639 25.2784
61.1987 613 24.7588
61.3158 589 24.2693
61.4328 572 23.9165
61.5499 567 23.8118
61.667 535 23.1301
61.7841 564 23.7487
61.9013 529 23
62.0185 567 23.8118
62.1357 586 24.2074
62.253 590 24.2899
62.3702 537 23.1733
62.4875 543 23.3024
62.6049 540 23.2379
62.7222 526 22.9347
62.8396 495 22.2486
62.9569 547 23.388
63.0743 572 23.9165
63.1918 502 22.4054
63.3092 535 23.1301
63.4267 560 23.6643
63.5441 511 22.6053
63.6616 530 23.0217
63.7791 521 22.8254
63.8966 545 23.3452
64.0142 536 23.1517
64.1317 575 23.9792
64.2492 531 23.0434
64.3668 519 22.7816
64.4843 500 22.3607
64.6019 502 22.4054
64.7195 513 22.6495
64.837 517 22.7376
64.9546 420 20.4939
65.0722 477 21.8403
65.1898 433 20.8087
65.3074 468 21.6333
65.4249 451 21.2368
65.5425 485 22.0227
65.6601 515 22.6936
65.7777 554 23.5372
65.8952 507 22.5167
66.0128 497 22.2935
66.1304 514 22.6716
66.2479 467 21.6102
66.3655 498 22.3159
66.483 550 23.4521
66.6005 523 22.8692
66.718 501 22.383
66.8355 515 22.6936
66.953 505 22.4722
67.0705 538 23.1948
67.1879 509 22.561
67.3054 540 23.2379
67.4228 518 22.7596
67.5402 520 22.8035
67.6576 538 23.1948
67.7749 525 22.9129
67.8923 526 22.9347
68.0096 514 22.6716
68.1269 560 23.6643
68.2442 462 21.4942
68.3614 498 22.3159
68.4787 472 21.7256
68.5958 477 21.8403
68.713 436 20.8806
68.8302 452 21.2603
68.9473 439 20.9523
69.0643 433 20.8087
69.1814 470 21.6795
69.2984 499 22.3383
69.4154 503 22.4277
69.5323 472 21.7256
69.6492 468 21.6333
69.7661 478 21.8632
69.8829 485 22.0227
69.9997 496 22.2711
70.1165 445 21.095
70.2332 502 22.4054
70.3499 443 21.0476
70.4665 426 20.6398
70.5831 412 20.2978
70.6996 385 19.6214
70.8161 351 18.735
70.9326 351 18.735
71.049 311 17.6352
71.1653 290 17.0294
71.2817 300 17.3205
71.3979 268 16.3707
71.5141 256 16
71.6303 245 15.6525
71.7464 171 13.0767
71.8624 0 1
71.9784 0 1
72.0944 0 1
72.2102 0 1
72.3261 0 1
72.4418 0 1
72.5575 0 1
72.6732 0 1
75.1054 0 1
75.2209 0 1
75.3365 0 1
75.4521 0 1
75.5678 0 1
75.6835 0 1
75.7993 0 1
75.9151 0 1
76.031 0 1
76.147 321 17.9165
76.263 379 19.4679
76.3791 420 20.4939
76.4952 426 20.6398
76.6113 427 20.664
76.7276 421 20.5183
76.8438 435 20.8567
76.9601 426 20.6398
77.0765 395 19.8746
77.1929 435 20.8567
77.3093 411 20.2731
77.4258 418 20.445
77.5423 398 19.9499
77.6589 396 19.8997
77.7755 375 19.3649
77.8921 391 19.7737
78.0088 381 19.5192
78.1256 393 19.8242
78.2423 370 19.2354
78.3591 426 20.6398
78.4759 423 20.567
78.5928 431 20.7605
78.7097 426 20.6398
78.8266 380 19.4936
78.9436 393 19.8242
79.0606 428 20.6882
79.1776 425 20.6155
79.2946 448 21.166
79.4117 457 21.3776
79.5288 408 20.199
79.6459 432 20.7846
79.7631 411 20.2731
79.8802 483 21.9773
79.9974 460 21.4476
80.1147 440 20.9762
80.2319 456 21.3542
80.3491 477 21.8403
80.4664 461 21.4709
80.5837 409 20.2237
80.701 453 21.2838
80.8183 421 20.5183
80.9357 473 21.7486
81.053 423 20.567
81.1704 450 21.2132
81.2877 403 20.0749
81.4051 425 20.6155
81.5225 460 21.4476
81.6399 383 19.5704
81.7573 422 20.5426
81.8747 351 18.735
81.9922 449 21.1896
82.1096 444 21.0713
82.227 434 20.8327
82.3444 478 21.8632
82.4619 477 21.8403
82.5793 435 20.8567
82.6967 429 20.7123
82.8142 424 20.5913
82.9316 524 22.891
83.049 428 20.6882
83.1664 453 21.2838
83.2838 445 21.095
83.4012 415 20.3715
83.5186 454 21.3073
83.636 456 21.3542
83.7534 462 21.4942
83.8708 488 22.0907
83.9881 483 21.9773
84.1055 445 21.095
84.2228 505 22.4722
84.3401 425 20.6155
84.4575 450 21.2132
84.5747 432 20.7846
84.692 465 21.5639
84.8093 448 21.166
84.9265 428 20.6882
85.0437 414 20.347
85.1609 398 19.9499
85.2781 402 20.0499
85.3952 415 20.3715
85.5123 408 20.199
85.6294 438 20.9284
85.7465 465 21.5639
85.8636 484 22
85.9806 480 21.9089
86.0976 502 22.4054
86.2145 472 21.7256
86.3315 463 21.5174
86.4484 497 22.2935
86.5652 485 22.0227
86.682 473 21.7486
86.7988 488 22.0907
86.9156 470 21.6795
87.0323 447 21.1424
87.149 455 21.3307
87.2657 488 22.0907
87.3823 499 22.3383
87.4988 488 22.0907
87.6154 458 21.4009
87.7318 445 21.095
87.8483 421 20.5183
87.9647 379 19.4679
88.081 335 18.303
88.1973 324 18
88.3136 294 17.1464
88.4298 284 16.8523
88.546 267 16.3401
88.6621 223 14.9332
88.7781 224 14.9666
88.8942 0 1
89.0101 0 1
89.126 0 1
89.2419 0 1
89.3577 0 1
89.4734 0 1
89.5891 0 1
89.7047 0 1
89.8203 0 1
89.9358 0 1
92.3269 0 1
92.4424 0 1
92.558 0 1
92.6736 0 1
92.7893 0 1
92.905 0 1
93.0208 0 1
93.1366 0 1
93.2525 0 1
93.3685 0 1
93.4845 0 1
93.6005 404 20.0998
93.7167 404 20.0998
93.8328 421 20.5183
93.949 433 20.8087
94.0653 401 20.025
94.1816 445 21.095
94.2979 407 20.1742
94.4143 381 19.5192
94.5307 376 19.3907
94.6472 421 20.5183
94.7637 412 20.2978
94.8803 485 22.0227
94.9969 449 21.1896
95.1135 458 21.4009
95.2302 503 22.4277
95.3469 471 21.7025
95.4637 517 22.7376
95.5805 502 22.4054
95.6973 484 22
95.8142 444 21.0713
95.9311 483 21.9773
96.048 450 21.2132
96.1649 493 22.2036
96.2819 486 22.0454
96.3989 526 22.9347
96.516 518 22.7596
96.633 459 21.4243
96.7501 528 22.9783
96.8673 536 23.1517
96.9844 510 22.5832
97.1016 472 21.7256
97.2188 500 22.3607
97.336 435 20.8567
97.4532 519 22.7816
97.5704 448 21.166
97.6877 430 20.7364
97.805 405 20.1246
97.9223 405 20.1246
98.0396 463 21.5174
98.1569 432 20.7846
98.2743 445 21.095
98.3916 493 22.2036
98.509 459 21.4243
98.6264 510 22.5832
98.7438 536 23.1517
98.8612 559 23.6432
98.9786 551 23.4734
99.096 592 24.3311
99.2134 546 23.3666
99.3308 538 23.1948
99.4482 560 23.6643
99.5656 506 22.4944
99.6831 519 22.7816
99.8005 523 22.8692
99.9179 550 23.4521
100.035 588 24.2487
100.153 563 23.7276
100.27 563 23.7276
100.388 543 23.3024
100.505 564 23.7487
100.622 491 22.1585
100.74 504 22.4499
100.857 475 21.7945
100.975 509 22.561
101.092 507 22.5167
101.209 507 22.5167
101.327 447 21.1424
101.444 488 22.0907
101.561 506 22.4944
101.679 433 20.8087
101.796 471 21.7025
101.913 483 21.9773
102.03 529 23
102.148 565 23.7697
102.265 554 23.5372
102.382 511 22.6053
102.499 543 23.3024
102.616 537 23.1733
102.733 513 22.6495
102.851 572 23.9165
102.968 550 23.4521
103.085 560 23.6643
103.202 514 22.6716
103.319 535 23.1301
103.436 559 23.6432
103.552 538 23.1948
103.669 568 23.8328
103.786 558 23.622
103.903 608 24.6577
104.02 536 23.1517
104.137 538 23.1948
104.253 545 23.3452
104.37 597 24.4336
104.487 510 22.5832
104.603 557 23.6008
104.72 493 22.2036
104.836 539 23.2164
104.953 509 22.561
105.069 462 21.4942
105.186 357 18.8944
105.302 388 19.6977
105.418 361 19
105.535 404 20.0998
105.651 358 18.9209
105.767 338 18.3848
105.883 329 18.1384
105.999 288 16.9706
106.115 0 1
106.231 0 1
106.347 0 1
106.463 0 1
106.579 0 1
106.694 0 1
106.81 0 1
106.926 0 1
107.041 0 1
107.157 0 1
109.576 0 1
109.692 0 1
109.807 0 1
109.923 0 1
110.039 0 1
110.155 0 1
110.27 0 1
110.386 0 1
110.502 0 1
110.618 261 16.1555
110.735 368 19.1833
110.851 388 19.6977
110.967 448 21.166
111.083 462 21.4942
111.199 491 22.1585
111.316 481 21.9317
111.432 559 23.6432
111.549 561 23.6854
111.665 580 24.0832
111.782 547 23.388
111.898 528 22.9783
112.015 533 23.0868
112.132 536 23.1517
112.248 576 24
112.365 519 22.7816
112.482 514 22.6716
112.599 565 23.7697
112.716 513 22.6495
112.832 567 23.8118
112.949 520 22.8035
113.066 560 23.6643
113.183 498 22.3159
113.3 507 22.5167
113.417 577 24.0208
113.534 503 22.4277
113.652 489 22.1133
113.769 463 21.5174
113.886 445 21.095
114.003 430 20.7364
114.12 460 21.4476
114.238 442 21.0238
114.355 502 22.4054
114.472 528 22.9783
114.589 496 22.2711
114.707 508 22.5389
114.824 497 22.2935
114.942 479 21.8861
115.059 533 23.0868
115.176 518 22.7596
115.294 503 22.4277
115.411 480 21.9089
115.529 454 21.3073
115.646 507 22.5167
115.764 467 21.6102
115.881 495 22.2486
115.999 501 22.383
116.116 493 22.2036
116.234 455 21.3307
116.351 452 21.2603
116.469 468 21.6333
116.586 467 21.6102
116.704 516 22.7156
116.821 465 21.5639
116.939 465 21.5639
117.056 462 21.4942
117.174 473 21.7486
117.291 450 21.2132
117.409 441 21
117.526 407 20.1742
117.644 392 19.799
117.761 384 19.5959
117.879 390 19.7484
117.996 444 21.0713
118.114 445 21.095
118.231 440 20.9762
118.349 477 21.8403
118.466 457 21.3776
118.584 478 21.8632
118.701 486 22.0454
118.819 472 21.7256
118.936 498 22.3159
119.053 498 22.3159
119.171 452 21.2603
119.288 445 21.095
119.405 486 22.0454
119.523 458 21.4009
119.64 498 22.3159
119.757 444 21.0713
119.875 462 21.4942
119.992 464 21.5407
120.109 426 20.6398
120.226 460 21.4476
120.343 464 21.5407
120.46 422 20.5426
120.578 452 21.2603
120.695 478 21.8632
120.812 468 21.6333
120.929 435 20.8567
121.046 425 20.6155
121.163 418 20.445
121.279 422 20.5426
121.396 357 18.8944
121.513 349 18.6815
121.63 428 20.6882
121.747 363 19.0526
121.863 376 19.3907
121.98 425 20.6155
122.097 410 20.2485
122.213 358 18.9209
122.33 341 18.4662
122.446 369 19.2094
122.563 320 17.8885
122.679 334 18.2757
122.795 242 15.5563
122.912 272 16.4924
123.028 238 15.4272
123.144 265 16.2788
123.26 258 16.0624
123.377 0 1
123.493 0 1
123.609 0 1
123.725 0 1
123.84 0 1
123.956 0 1
124.072 0 1
124.188 0 1
124.303 0 1
124.419 0 1
126.852 0 1
126.968 0 1
127.083 0 1
127.199 0 1
127.315 0 1
127.431 0 1
127.547 0 1
127.663 0 1
127.779 0 1
127.895 0 1
128.011 0 1
128.127 0 1
128.243 0 1
128.359 514 22.6716
128.476 523 22.8692
128.592 506 22.4944
128.708 544 23.3238
128.825 521 22.8254
128.941 543 23.3024
129.058 535 23.1301
129.174 550 23.4521
129.291 481 21.9317
129.408 547 23.388
129.524 504 22.4499
129.641 507 22.5167
129.758 565 23.7697
129.875 526 22.9347
129.992 570 23.8747
130.108 541 23.2594
130.225 509 22.561
130.342 513 22.6495
130.459 463 21.5174
130.576 490 22.1359
130.693 537 23.1733
130.81 510 22.5832
130.928 578 24.0416
131.045 617 24.8395
131.162 607 24.6374
131.279 642 25.3377
131.396 739 27.1846
131.513 748 27.3496
131.631 721 26.8514
131.748 702 26.4953
131.865 751 27.4044
131.983 750 27.3861
132.1 718 26.7955
132.217 788 28.0713
132.335 822 28.6705
132.452 925 30.4138
132.57 920 30.3315
132.687 917 30.282
132.804 1017 31.8904
132.922 1061 32.573
133.039 991 31.4802
133.157 1034 32.1559
133.274 1027 32.0468
133.392 963 31.0322
133.509 1025 32.0156
133.627 996 31.5595
133.744 1065 32.6343
133.862 968 31.1127
133.979 895 29.9166
134.097 882 29.6985
134.214 890 29.8329
134.332 846 29.0861
134.449 845 29.0689
134.567 869 29.4788
134.684 891 29.8496
134.802 959 30.9677
134.919 1035 32.1714
135.037 961 31
135.154 961 31
135.272 946 30.7571
135.389 872 29.5296
135.507 871 29.5127
135.624 939 30.6431
135.742 856 29.2575
135.859 884 29.7321
135.977 953 30.8707
136.094 891 29.8496
136.211 988 31.4325
136.329 897 29.95
136.446 910 30.1662
136.564 899 29.9833
136.681 918 30.2985
136.798 915 30.249
136.915 918 30.2985
137.033 924 30.3974
137.15 913 30.2159
137.267 885 29.7489
137.384 904 30.0666
137.502 877 29.6142
137.619 825 28.7228
137.736 764 27.6405
137.853 719 26.8142
137.97 732 27.0555
138.087 711 26.6646
138.204 783 27.9821
138.321 846 29.0861
138.438 900 30
138.555 942 30.692
138.672 891 29.8496
138.788 922 30.3645
138.905 862 29.3598
139.022 878 29.6311
139.139 705 26.5518
139.255 727 26.9629
139.372 750 27.3861
139.488 733 27.074
139.605 699 26.4386
139.721 723 26.8887
139.838 671 25.9037
139.954 667 25.8263
140.071 619 24.8797
140.187 571 23.8956
140.303 574 23.9583
140.419 571 23.8956
140.535 519 22.7816
140.652 488 22.0907
140.768 0 1
140.884 0 1
141 0 1
141.115 0 1
141.231 0 1
141.347 0 1
141.463 0 1
141.578 0 1
141.694 0 1
144.104 0 1
144.219 0 1
144.335 0 1
144.45 0 1
144.566 0 1
144.682 0 1
144.798 0 1
144.914 0 1
145.03 0 1
145.146 1293 35.9583
145.262 1373 37.054
145.378 1430 37.8153
145.494 1491 38.6135
145.61 1573 39.6611
145.726 1568 39.598
145.842 1703 41.2674
145.959 1704 41.2795
146.075 1716 41.4246
146.192 1683 41.0244
146.308 1568 39.598
146.425 1475 38.4057
146.541 1568 39.598
146.658 1565 39.5601
146.774 1607 40.0874
146.891 1628 40.3485
147.008 1996 44.6766
147.125 2198 46.8828
147.241 2522 50.2195
147.358 2703 51.9904
147.475 2842 53.3104
147.592 3013 54.8908
147.709 3081 55.5068
147.826 3215 56.701
147.943 3271 57.1927
148.06 3343 57.8187
148.177 3523 59.3549
148.294 3732 61.0901
148.411 3872 62.2254
148.528 3931 62.6977
148.645 3954 62.8808
148.762 4109 64.1015
148.88 4292 65.5134
148.997 4463 66.8057
149.114 4321 65.7343
149.231 4589 67.7422
149.349 4703 68.5784
149.466 4631 68.0515
149.583 4860 69.7137
149.701 4838 69.5557
149.818 4939 70.278
149.935 5061 71.1407
150.053 5080 71.2741
150.17 4857 69.6922
150.287 4703 68.5784
150.405 3393 58.2495
150.522 2067 45.4643
150.64 2887 53.7308
150.757 4796 69.2532
150.875 5394 73.4439
150.992 5376 73.3212
151.11 5231 72.3257
151.227 5211 72.1873
151.344 5140 71.6938
151.462 4926 70.1855
151.579 4666 68.3081
151.697 4557 67.5056
151.814 4424 66.5132
151.932 4179 64.6452
152.049 4042 63.5767
152.167 4038 63.5453
152.284 3826 61.8547
152.402 3657 60.4731
152.519 3524 59.3633
152.636 3469 58.8982
152.754 3467 58.8812
152.871 3242 56.9386
152.989 3268 57.1664
153.106 3178 56.3738
153.223 3015 54.909
153.341 2933 54.1572
153.458 2769 52.6213
153.575 2640 51.3809
153.693 2211 47.0213
153.81 1826 42.7317
153.927 1433 37.855
154.044 1230 35.0714
154.162 1389 37.2693
154.279 1721 41.4849
154.396 1920 43.8178
154.513 1871 43.2551
154.63 1932 43.9545
154.747 1809 42.5323
154.864 1861 43.1393
154.981 1748 41.8091
155.098 1756 41.9047
155.215 1625 40.3113
155.332 1714 41.4005
155.449 1744 41.7612
155.566 1729 41.5812
155.683 1806 42.4971
155.8 1761 41.9643
155.917 1884 43.4051
156.033 1923 43.852
156.15 0 1
156.267 0 1
156.383 0 1
156.5 0 1
156.617 0 1
156.733 0 1
156.85 0 1
156.966 0 1
157.082 0 1
157.199 0 1
157.315 0 1
157.431 0 1
157.547 0 1
157.664 0 1
157.78 0 1
157.896 0 1
158.012 0 1
158.128 0 1
158.244 0 1
158.359 0 1
158.475 0 1
158.591 0 1
158.706 0 1
