
6.15755 0 1
6.2731 0 1
6.3887 0 1
6.50437 0 1
6.62009 0 1
6.73587 0 1
6.8517 0 1
6.96759 0 1
7.08353 0 1
7.19952 0 1
7.31557 0 1
7.43166 0 1
7.54781 0 1
7.664 0 1
7.78024 0 1
7.89653 0 1
8.01286 0 1
8.12924 0 1
8.24567 0 1
8.36213 0 1
8.47864 0 1
8.59519 0 1
8.71178 0 1
8.82841 0 1
8.94508 0 1
9.06179 0 1
9.17853 0 1
9.29531 0 1
9.41212 0 1
9.52897 0 1
9.64584 0 1
9.76276 0 1
9.8797 0 1
9.99667 0 1
10.1137 0 1
10.2307 0 1
10.3478 0 1
10.4648 0 1
10.5819 0 1
10.6991 0 1
10.8162 0 1
10.9334 0 1
11.0506 0 1
11.1678 0 1
11.285 0 1
11.4023 0 1
11.5196 0 1
11.6369 0 1
11.7542 0 1
11.8715 0 1
11.9888 0 1
12.1062 0 1
12.2235 0 1
12.3409 0 1
12.4582 0 1
12.5756 0 1
12.693 0 1
12.8104 0 1
12.9278 0 1
13.0452 0 1
13.1626 0 1
13.28 0 1
13.3974 0 1
13.5149 0 1
13.6323 0 1
13.7497 0 1
13.8671 0 1
13.9845 0 1
14.1019 0 1
14.2193 0 1
14.3367 0 1
14.4541 0 1
14.5714 0 1
14.6888 0 1
14.8062 0 1
14.9235 0 1
15.0408 0 0
15.1581 0 0
15.2755 0 0
15.3927 0 0
15.51 0 0
15.6273 0 0
15.7445 0 0
15.8617 0 0
15.9789 0 0
16.0961 0 0
16.2132 0 0
16.3304 0 0
16.4475 0 0
16.5646 0 0
16.6816 0 0
16.7986 0 0
16.9156 0 0
17.0326 0 0
17.1496 0 0
17.2665 0 0
17.3833 0 0
17.5002 0 0
17.617 0 0
17.7338 0 0
17.8505 0 0
17.9672 0 0
18.0839 0 0
18.2005 0 0
18.3171 0 0
18.4337 0 0
18.5502 0 0
18.6666 0 0
18.7831 0 0
18.8994 0 0
19.0158 0 0
19.1321 0 0
19.2483 0 0
19.3645 0 0
19.4806 0 0
19.5967 0 0
19.7128 0 0
19.8288 0 0
19.9447 0 0
20.0606 0 1
20.1764 0 1
20.2922 0 1
20.4079 0 1
20.5236 0 1
20.6392 0 1
20.7548 0 1
20.8702 0 1
23.3078 0 1
23.4233 0 1
23.539 0 1
23.6547 0 1
23.7704 0 1
23.8862 0 1
24.0021 0 1
24.118 0 1
24.234 0 1
24.35 0 1
24.4661 21017 144.972
24.5822 26573 163.012
24.6984 29900 172.916
24.8146 32907 181.403
24.9309 36645 191.429
25.0472 40051 200.127
25.1636 43178 207.793
25.28 46478 215.588
25.3965 49153 221.705
25.513 52309 228.712
25.6296 53918 232.202
25.7462 55267 235.089
25.8628 56466 237.626
25.9795 56575 237.855
26.0962 56600 237.908
26.213 53587 231.489
26.3298 49936 223.464
26.4466 46680 216.056
26.5635 44865 211.814
26.6804 44854 211.788
26.7973 46882 216.523
26.9143 48528 220.291
27.0313 48727 220.742
27.1483 50142 223.924
27.2653 51423 226.766
27.3824 52497 229.122
27.4996 52633 229.419
27.6167 51767 227.524
27.7339 50689 225.142
27.8511 49101 221.587
27.9683 48082 219.276
28.0855 47037 216.88
28.2028 45778 213.958
28.3201 44513 210.981
28.4374 44109 210.021
28.5547 46152 214.83
28.6721 48413 220.03
28.7894 50313 224.306
28.9068 52228 228.534
29.0242 53144 230.53
29.1416 53690 231.711
29.259 53990 232.357
29.3764 53704 231.741
29.4939 53780 231.905
29.6113 52516 229.164
29.7288 49568 222.639
29.8463 46882 216.523
29.9638 45163 212.516
30.0812 43707 209.062
30.1987 43762 209.194
30.3162 45622 213.593
30.4337 47073 216.963
30.5512 47292 217.467
30.6687 47994 219.075
30.7862 50039 223.694
30.9037 50951 225.723
31.0212 51501 226.938
31.1387 51139 226.139
31.2562 49467 222.412
31.3737 48717 220.719
31.4912 47588 218.147
31.6087 46604 215.88
31.7262 45393 213.056
31.8436 43274 208.024
31.9611 42834 206.964
32.0785 44533 211.028
32.1959 46626 215.931
32.3134 49403 222.268
32.4308 51323 226.546
32.5482 52752 229.678
32.6655 52779 229.737
32.7829 53014 230.248
32.9002 52859 229.911
33.0176 53359 230.996
33.1349 53064 230.356
33.2522 51975 227.98
33.3694 49211 221.836
33.4867 46330 215.244
33.6039 44539 211.043
33.7211 43004 207.374
33.8383 43206 207.861
33.9554 45364 212.988
34.0725 46462 215.55
34.1896 47020 216.841
34.3067 47563 218.089
34.4237 48799 220.905
34.5407 49509 222.506
34.6577 50842 225.482
34.7746 50320 224.321
34.8915 49526 222.544
35.0084 48373 219.939
35.1252 46611 215.896
35.242 45640 213.635
35.3587 44297 210.469
35.4755 42760 206.785
35.5921 41236 203.066
35.7088 41463 203.625
35.8254 42964 207.278
35.9419 45132 212.443
36.0584 47452 217.835
36.1749 48367 219.925
36.2913 48266 219.695
36.4077 47830 218.701
36.524 46789 216.308
36.6403 45321 212.887
36.7565 43676 208.988
36.8727 42024 204.998
36.9889 39116 197.778
37.1049 35168 187.531
37.221 0 1
37.3369 0 1
37.4529 0 1
37.5687 0 1
37.6845 0 1
37.8003 0 1
37.916 0 1
38.0316 0 1
38.1472 0 1
40.5851 0 1
40.7008 0 1
40.8164 0 1
40.9322 0 1
41.048 0 1
41.1639 0 1
41.2798 0 1
41.3958 0 1
41.5118 0 1
41.6279 0 1
41.744 24192 155.538
41.8602 27278 165.161
41.9765 29832 172.719
42.0928 31309 176.943
42.2091 30940 175.898
42.3255 30584 174.883
42.4419 30756 175.374
42.5584 31055 176.224
42.675 33151 182.074
42.7915 35782 189.161
42.9081 37798 194.417
43.0248 38379 195.906
43.1415 39342 198.348
43.2582 40136 200.34
43.375 40899 202.235
43.4918 41067 202.65
43.6087 41563 203.87
43.7256 40769 201.913
43.8425 40015 200.037
43.9595 38854 197.114
44.0765 37936 194.772
44.1935 36873 192.023
44.3106 35053 187.224
44.4277 33560 183.194
44.5448 32808 181.13
44.6619 33779 183.791
44.7791 36062 189.9
44.8963 38496 196.204
45.0136 41317 203.266
45.1308 42233 205.507
45.2481 42803 206.889
45.3654 42899 207.121
45.4827 42755 206.773
45.6001 42463 206.066
45.7174 41711 204.233
45.8348 39464 198.655
45.9522 37486 193.613
46.0697 36319 190.575
46.1871 35292 187.862
46.3046 36588 191.28
46.422 37785 194.384
46.5395 38476 196.153
46.657 39611 199.025
46.7745 40933 202.319
46.892 41164 202.889
47.0096 42205 205.439
47.1271 42012 204.968
47.2446 42324 205.728
47.3622 41715 204.243
47.4797 41399 203.467
47.5973 39793 199.482
47.7149 38285 195.666
47.8324 36849 191.961
47.95 34537 185.841
48.0675 33236 182.307
48.1851 33382 182.707
48.3027 35328 187.957
48.4202 37767 194.337
48.5378 40802 201.995
48.6554 42644 206.504
48.7729 43163 207.757
48.8904 42413 205.944
49.008 43186 207.812
49.1255 42729 206.71
49.243 40583 201.452
49.3605 39207 198.008
49.478 37131 192.694
49.5955 35772 189.135
49.713 34983 187.037
49.8304 34996 187.072
49.9479 37049 192.481
50.0653 38339 195.803
50.1827 39487 198.713
50.3001 39619 199.045
50.4175 40291 200.726
50.5348 41184 202.938
50.6521 41743 204.311
50.7694 41442 203.573
50.8867 41485 203.679
51.004 40551 201.373
51.1212 39683 199.206
51.2384 37964 194.844
51.3556 36203 190.271
51.4727 33474 182.959
51.5899 31951 178.748
51.707 32605 180.569
51.824 34825 186.615
51.9411 37984 194.895
52.0581 41360 203.372
52.175 42900 207.123
52.2919 43963 209.674
52.4088 43719 209.091
52.5257 43690 209.022
52.6425 44631 211.261
52.7593 43545 208.674
52.876 42624 206.456
52.9927 40763 201.898
53.1094 39509 198.769
53.226 37095 192.601
53.3426 36222 190.321
53.4591 36200 190.263
53.5756 36378 190.73
53.692 37266 193.044
53.8084 36120 190.053
53.9248 35545 188.534
54.0411 34239 185.038
54.1573 32696 180.82
54.2735 0 1
54.3896 0 1
54.5057 0 1
54.6217 0 1
54.7377 0 1
54.8537 0 1
54.9695 0 1
55.0853 0 1
55.2011 0 1
55.3168 0 1
55.4324 0 1
57.824 0 1
57.9396 0 1
58.0553 0 1
58.1711 0 1
58.2869 0 1
58.4028 0 1
58.5187 0 1
58.6347 0 1
58.7508 0 1
58.8669 0 1
58.983 24818 157.537
59.0992 29695 172.322
59.2155 32544 180.4
59.3318 36572 191.238
59.4482 39969 199.922
59.5646 42896 207.113
59.681 45136 212.452
59.7975 46301 215.177
59.9141 46559 215.775
60.0306 44654 211.315
60.1473 42887 207.092
60.2639 40469 201.169
60.3807 39258 198.136
60.4974 40029 200.072
60.6142 42781 206.836
60.731 46779 216.285
60.8479 50036 223.687
60.9648 51465 226.859
61.0818 52348 228.797
61.1987 52091 228.235
61.3158 51669 227.308
61.4328 51191 226.254
61.5499 50103 223.837
61.667 47924 218.916
61.7841 46400 215.407
61.9013 44667 211.346
62.0185 44593 211.171
62.1357 45343 212.939
62.253 47016 216.832
62.3702 48394 219.986
62.4875 49293 222.02
62.6049 50241 224.145
62.7222 50747 225.271
62.8396 50896 225.601
62.9569 52237 228.554
63.0743 51239 226.36
63.1918 50531 224.791
63.3092 49779 223.112
63.4267 48585 220.42
63.5441 46529 215.706
63.6616 43014 207.398
63.7791 38757 196.868
63.8966 36881 192.044
64.0142 37886 194.643
64.1317 40140 200.35
64.2492 44286 210.442
64.3668 48284 219.736
64.4843 50274 224.219
64.6019 50586 224.913
64.7195 50742 225.26
64.837 50559 224.853
64.9546 50076 223.777
65.0722 49703 222.942
65.1898 48381 219.957
65.3074 45706 213.79
65.4249 43993 209.745
65.5425 43014 207.398
65.6601 43270 208.014
65.7777 44600 211.187
65.8952 46448 215.518
66.0128 47944 218.961
66.1304 48069 219.246
66.2479 49272 221.973
66.3655 49791 223.139
66.483 50522 224.771
66.6005 50302 224.281
66.718 50029 223.672
66.8355 49133 221.66
66.953 48301 219.775
67.0705 46519 215.683
67.1879 44667 211.346
67.3054 40683 201.7
67.4228 36209 190.287
67.5402 33428 182.833
67.6576 34573 185.938
67.7749 37037 192.45
67.8923 41686 204.171
68.0096 46529 215.706
68.1269 48503 220.234
68.2442 48686 220.649
68.3614 49579 222.663
68.4787 48731 220.751
68.5958 48622 220.504
68.713 48251 219.661
68.8302 46047 214.586
68.9473 44568 211.111
69.0643 43147 207.719
69.1814 42426 205.976
69.2984 42856 207.017
69.4154 43813 209.316
69.5323 45038 212.222
69.6492 46671 216.035
69.7661 47733 218.479
69.8829 48641 220.547
69.9997 48044 219.189
70.1165 47622 218.225
70.2332 47118 217.067
70.3499 46047 214.586
70.4665 44322 210.528
70.5831 42793 206.865
70.6996 40726 201.807
70.8161 38149 195.318
70.9326 33617 183.349
71.049 27135 164.727
71.1653 20837 144.35
71.2817 17873 133.69
71.3979 17016 130.445
71.5141 16959 130.227
71.6303 17421 131.989
71.7464 15808 125.73
71.8624 0 1
71.9784 0 1
72.0944 0 1
72.2102 0 1
72.3261 0 1
72.4418 0 1
72.5575 0 1
72.6732 0 1
75.1054 0 1
75.2209 0 1
75.3365 0 1
75.4521 0 1
75.5678 0 1
75.6835 0 1
75.7993 0 1
75.9151 0 1
76.031 0 1
76.147 24660 157.035
76.263 26371 162.392
76.3791 25234 158.852
76.4952 23778 154.201
76.6113 24122 155.313
76.7276 26742 163.53
76.8438 30873 175.707
76.9601 36914 192.13
77.0765 41438 203.563
77.1929 42240 205.524
77.3093 42340 205.767
77.4258 42273 205.604
77.5423 41829 204.521
77.6589 41938 204.788
77.7755 40717 201.785
77.8921 38964 197.393
78.0088 38177 195.389
78.1256 36978 192.297
78.2423 36532 191.133
78.3591 36745 191.69
78.4759 37929 194.754
78.5928 39147 197.856
78.7097 40189 200.472
78.8266 42260 205.572
78.9436 41356 203.362
79.0606 42208 205.446
79.1776 42727 206.705
79.2946 42719 206.686
79.4117 42667 206.56
79.5288 41794 204.436
79.6459 41459 203.615
79.7631 40148 200.37
79.8802 38067 195.108
79.9974 34274 185.132
80.1147 28360 168.404
80.2319 24944 157.937
80.3491 26732 163.499
80.4664 30264 173.966
80.5837 35617 188.725
80.701 40200 200.499
80.8183 42523 206.211
80.9357 42420 205.961
81.053 42973 207.299
81.1704 42794 206.867
81.2877 42597 206.39
81.4051 42280 205.621
81.5225 41419 203.517
81.6399 39452 198.625
81.7573 38603 196.476
81.8747 37925 194.743
81.9922 37260 193.028
82.1096 38644 196.581
82.227 39101 197.74
82.3444 39800 199.499
82.4619 42578 206.344
82.5793 42845 206.99
82.6967 43636 208.892
82.8142 43581 208.761
82.9316 43622 208.859
83.049 43668 208.969
83.1664 42265 205.585
83.2838 41778 204.397
83.4012 41075 202.67
83.5186 39334 198.328
83.636 35681 188.894
83.7534 29998 173.199
83.8708 25310 159.091
83.9881 25056 158.291
84.1055 26847 163.851
84.2228 31614 177.803
84.3401 37322 193.189
84.4575 41795 204.438
84.5747 42926 207.186
84.692 43154 207.735
84.8093 42455 206.046
84.9265 42800 206.882
85.0437 41554 203.848
85.1609 40380 200.948
85.2781 39294 198.227
85.3952 38447 196.079
85.5123 37667 194.08
85.6294 37938 194.777
85.7465 39281 198.194
85.8636 40239 200.597
85.9806 41081 202.684
86.0976 42008 204.959
86.2145 42691 206.618
86.3315 42713 206.671
86.4484 43810 209.308
86.5652 43429 208.396
86.682 43384 208.288
86.7988 42427 205.978
86.9156 41979 204.888
87.0323 40480 201.196
87.149 38139 195.292
87.2657 34471 185.664
87.3823 27259 165.103
87.4988 23390 152.938
87.6154 24317 155.939
87.7318 27598 166.126
87.8483 32522 180.339
87.9647 37579 193.853
88.081 38710 196.749
88.1973 38278 195.648
88.3136 37383 193.347
88.4298 35409 188.173
88.546 32811 181.138
88.6621 27609 166.16
88.7781 21112 145.3
88.8942 0 1
89.0101 0 1
89.126 0 1
89.2419 0 1
89.3577 0 1
89.4734 0 1
89.5891 0 1
89.7047 0 1
89.8203 0 1
89.9358 0 1
92.3269 0 1
92.4424 0 1
92.558 0 1
92.6736 0 1
92.7893 0 1
92.905 0 1
93.0208 0 1
93.1366 0 1
93.2525 0 1
93.3685 0 1
93.4845 0 1
93.6005 25337 159.176
93.7167 27143 164.751
93.8328 29261 171.058
93.949 31186 176.596
94.0653 32769 181.022
94.1816 35133 187.438
94.2979 37030 192.432
94.4143 39019 197.532
94.5307 39593 198.98
94.6472 39194 197.975
94.7637 39477 198.688
94.8803 40028 200.07
94.9969 40807 202.007
95.1135 41465 203.63
95.2302 41821 204.502
95.3469 42587 206.366
95.4637 42971 207.294
95.5805 44049 209.879
95.6973 43657 208.943
95.8142 43569 208.732
95.9311 42846 206.993
96.048 42097 205.176
96.1649 41317 203.266
96.2819 39263 198.149
96.3989 37135 192.704
96.516 33522 183.09
96.633 27871 166.946
96.7501 23826 154.357
96.8673 24496 156.512
96.9844 27121 164.685
97.1016 31721 178.104
97.2188 37499 193.647
97.336 41342 203.327
97.4532 42330 205.743
97.5704 42591 206.376
97.6877 42672 206.572
97.805 42514 206.189
97.9223 41540 203.814
98.0396 40287 200.716
98.1569 39235 198.078
98.2743 38854 197.114
98.3916 38525 196.278
98.509 39904 199.76
98.6264 40631 201.571
98.7438 41461 203.62
98.8612 41912 204.724
98.9786 42343 205.774
99.096 43343 208.19
99.2134 43188 207.817
99.3308 43982 209.719
99.4482 44022 209.814
99.5656 44368 210.637
99.6831 44068 209.924
99.8005 42114 205.217
99.9179 39945 199.862
100.035 37408 193.411
100.153 32276 179.655
100.27 26937 164.125
100.388 26177 161.793
100.505 29133 170.684
100.622 34013 184.426
100.74 39920 199.8
100.857 43465 208.483
100.975 43801 209.287
101.092 43706 209.06
101.209 44441 210.81
101.327 43839 209.378
101.444 43600 208.806
101.561 41831 204.526
101.679 41016 202.524
101.796 40199 200.497
101.913 40313 200.781
102.03 40779 201.938
102.148 41790 204.426
102.265 41821 204.502
102.382 44583 211.147
102.499 44258 210.376
102.616 44581 211.142
102.733 45112 212.396
102.851 45832 214.084
102.968 46203 214.949
103.085 46146 214.816
103.202 45634 213.621
103.319 44350 210.594
103.436 41949 204.815
103.552 38688 196.693
103.669 33339 182.59
103.786 27425 165.605
103.903 26245 162.003
104.02 29246 171.015
104.137 33865 184.024
104.253 40895 202.225
104.37 44703 211.431
104.487 45932 214.318
104.603 45923 214.297
104.72 45713 213.806
104.836 45260 212.744
104.953 43877 209.468
105.069 42488 206.126
105.186 41776 204.392
105.302 41025 202.546
105.418 40623 201.551
105.535 40136 200.34
105.651 40311 200.776
105.767 39456 198.635
105.883 37748 194.288
105.999 33253 182.354
106.115 0 1
106.231 0 1
106.347 0 1
106.463 0 1
106.579 0 1
106.694 0 1
106.81 0 1
106.926 0 1
107.041 0 1
107.157 0 1
109.576 0 1
109.692 0 1
109.807 0 1
109.923 0 1
110.039 0 1
110.155 0 1
110.27 0 1
110.386 0 1
110.502 0 1
110.618 15900 126.095
110.735 19985 141.368
110.851 22989 151.621
110.967 26028 161.332
111.083 29358 171.342
111.199 32337 179.825
111.316 35068 187.265
111.432 36561 191.209
111.549 38376 195.898
111.665 39925 199.812
111.782 40397 200.99
111.898 39154 197.874
112.015 36675 191.507
112.132 33065 181.838
112.248 28069 167.538
112.365 23389 152.935
112.482 22449 149.83
112.599 25617 160.053
112.716 29472 171.674
112.832 35040 187.19
112.949 38684 196.682
113.066 39264 198.151
113.183 39746 199.364
113.3 39593 198.98
113.417 39187 197.957
113.534 39089 197.709
113.652 37744 194.278
113.769 36778 191.776
113.886 36248 190.389
114.003 36311 190.554
114.12 36811 191.862
114.238 38042 195.044
114.355 38705 196.736
114.472 40436 201.087
114.589 38389 195.931
114.707 39851 199.627
114.824 40850 202.114
114.942 41395 203.458
115.059 41255 203.113
115.176 40839 202.087
115.294 40548 201.365
115.411 39179 197.937
115.529 37384 193.349
115.646 34082 184.613
115.764 30004 173.217
115.881 24860 157.671
115.999 22286 149.285
116.116 23625 153.704
116.234 27574 166.054
116.351 32551 180.419
116.469 36807 191.852
116.586 38335 195.793
116.704 38117 195.236
116.821 39139 197.836
116.939 38588 196.438
117.056 38291 195.681
117.174 37962 194.838
117.291 36846 191.953
117.409 36525 191.115
117.526 36238 190.363
117.644 36205 190.276
117.761 36984 192.312
117.879 37992 194.915
117.996 38313 195.737
118.114 39381 198.446
118.231 39629 199.07
118.349 39599 198.995
118.466 40048 200.12
118.584 40206 200.514
118.701 40303 200.756
118.819 39675 199.186
118.936 38628 196.54
119.053 37292 193.111
119.171 34740 186.387
119.288 31866 178.511
119.405 27031 164.411
119.523 22531 150.103
119.64 21378 146.212
119.757 23135 152.102
119.875 26488 162.751
119.992 31197 176.627
120.109 35009 187.107
120.226 36386 190.751
120.343 36377 190.728
120.46 36542 191.16
120.578 36941 192.2
120.695 36704 191.583
120.812 36659 191.465
120.929 35843 189.322
121.046 34879 186.759
121.163 34226 185.003
121.279 34478 185.683
121.396 34839 186.652
121.513 35450 188.282
121.63 36180 190.21
121.747 36328 190.599
121.863 36768 191.75
121.98 36877 192.034
122.097 36366 190.699
122.213 36144 190.116
122.33 35583 188.635
122.446 35181 187.566
122.563 32902 181.389
122.679 31374 177.127
122.795 28450 168.671
122.912 23941 154.729
123.028 18672 136.646
123.144 14089 118.697
123.26 11244 106.038
123.377 0 1
123.493 0 1
123.609 0 1
123.725 0 1
123.84 0 1
123.956 0 1
124.072 0 1
124.188 0 1
124.303 0 1
124.419 0 1
126.852 0 1
126.968 0 1
127.083 0 1
127.199 0 1
127.315 0 1
127.431 0 1
127.547 0 1
127.663 0 1
127.779 0 1
127.895 0 1
128.011 0 1
128.127 0 1
128.243 0 1
128.359 29168 170.786
128.476 29903 172.925
128.592 27080 164.56
128.708 23902 154.603
128.825 24027 155.006
128.941 27494 165.813
129.058 32110 179.193
129.174 36949 192.221
129.291 39572 198.927
129.408 40389 200.97
129.524 40772 201.921
129.641 40630 201.569
129.758 40497 201.239
129.875 39981 199.952
129.992 39657 199.141
130.108 38626 196.535
130.225 38297 195.696
130.342 38186 195.412
130.459 38485 196.176
130.576 38281 195.655
130.693 39825 199.562
130.81 40191 200.477
130.928 40224 200.559
131.045 39872 199.68
131.162 39709 199.271
131.279 39769 199.422
131.396 39496 198.736
131.513 38942 197.337
131.631 37904 194.689
131.748 36648 191.437
131.865 34980 187.029
131.983 32848 181.24
132.1 28009 167.359
132.217 23526 153.382
132.335 22896 151.314
132.452 26061 161.434
132.57 30226 173.856
132.687 35236 187.713
132.804 38007 194.954
132.922 38728 196.794
133.039 39145 197.851
133.157 39416 198.535
133.274 39176 197.929
133.392 39368 198.414
133.509 39011 197.512
133.627 38489 196.186
133.744 37651 194.039
133.862 37232 192.956
133.979 37025 192.419
134.097 37107 192.632
134.214 38241 195.553
134.332 38410 195.985
134.449 38807 196.995
134.567 38634 196.555
134.684 38411 195.987
134.802 38104 195.202
134.919 37722 194.222
135.037 37044 192.468
135.154 36617 191.356
135.272 35496 188.404
135.389 34424 185.537
135.507 32045 179.011
135.624 28784 169.658
135.742 24293 155.862
135.859 22424 149.746
135.977 23975 154.839
136.094 27497 165.822
136.211 31932 178.695
136.329 36210 190.289
136.446 38009 194.959
136.564 38060 195.09
136.681 38515 196.252
136.798 38874 197.165
136.915 38835 197.066
137.033 38366 195.872
137.15 38365 195.87
137.267 37395 193.378
137.384 37002 192.359
137.502 36549 191.178
137.619 36093 189.982
137.736 36259 190.418
137.853 35481 188.364
137.97 36012 189.768
138.087 37872 194.607
138.204 37267 193.047
138.321 37022 192.411
138.438 36622 191.369
138.555 37058 192.505
138.672 36464 190.955
138.788 35338 187.984
138.905 34041 184.502
139.022 32404 180.011
139.139 30843 175.622
139.255 27857 166.904
139.372 23842 154.409
139.488 20522 143.255
139.605 21162 145.472
139.721 22614 150.38
139.838 25247 158.893
139.954 28084 167.583
140.071 27585 166.087
140.187 23325 152.725
140.303 20471 143.077
140.419 19247 138.734
140.535 18480 135.941
140.652 16986 130.33
140.768 0 1
140.884 0 1
141 0 1
141.115 0 1
141.231 0 1
141.347 0 1
141.463 0 1
141.578 0 1
141.694 0 1
144.104 0 1
144.219 0 1
144.335 0 1
144.45 0 1
144.566 0 1
144.682 0 1
144.798 0 1
144.914 0 1
145.03 0 1
145.146 21773 147.557
145.262 24370 156.109
145.378 27152 164.779
145.494 28361 168.407
145.61 28619 169.172
145.726 28302 168.232
145.842 28590 169.086
145.959 27927 167.114
146.075 27765 166.628
146.192 27693 166.412
146.308 26809 163.735
146.425 26575 163.018
146.541 26846 163.847
146.658 26914 164.055
146.774 26841 163.832
146.891 27274 165.148
147.008 27287 165.188
147.125 27408 165.554
147.241 27132 164.718
147.358 27109 164.648
147.475 26840 163.829
147.592 26381 162.422
147.709 25185 158.698
147.826 24129 155.335
147.943 22554 150.18
148.06 21117 145.317
148.177 18743 136.905
148.294 17225 131.244
148.411 18408 135.676
148.528 20075 141.686
148.645 22671 150.569
148.762 26025 161.323
148.88 27620 166.193
148.997 28385 168.478
149.114 27697 166.424
149.231 27838 166.847
149.349 28181 167.872
149.466 27936 167.141
149.583 27959 167.209
149.701 27793 166.712
149.818 26762 163.591
149.935 27200 164.924
150.053 27089 164.587
150.17 26946 164.152
150.287 26563 162.982
150.405 26661 163.282
150.522 26741 163.527
150.64 26730 163.493
150.757 26500 162.788
150.875 26780 163.646
150.992 26966 164.213
151.11 26639 163.215
151.227 25913 160.975
151.344 25405 159.389
151.462 23834 154.383
151.579 22943 151.469
151.697 21200 145.602
151.814 19361 139.144
151.932 17456 132.121
152.049 18314 135.329
152.167 20026 141.513
152.284 22540 150.133
152.402 25539 159.809
152.519 26976 164.244
152.636 27588 166.096
152.754 27079 164.557
152.871 27326 165.306
152.989 27447 165.671
153.106 27235 165.03
153.223 27226 165.003
153.341 26783 163.655
153.458 26885 163.966
153.575 26367 162.379
153.693 25948 161.084
153.81 26132 161.654
153.927 26100 161.555
154.044 26142 161.685
154.162 26136 161.666
154.279 26343 162.305
154.396 26669 163.306
154.513 26537 162.902
154.63 26751 163.557
154.747 26605 163.11
154.864 26265 162.065
154.981 25119 158.49
155.098 23921 154.664
155.215 22466 149.887
155.332 21136 145.382
155.449 18976 137.753
155.566 18299 135.274
155.683 19745 140.517
155.8 21795 147.631
155.917 24254 155.737
156.033 25716 160.362
156.15 0 1
156.267 0 1
156.383 0 1
156.5 0 1
156.617 0 1
156.733 0 1
156.85 0 1
156.966 0 1
157.082 0 1
157.199 0 1
157.315 0 1
157.431 0 1
157.547 0 1
157.664 0 1
157.78 0 1
157.896 0 1
158.012 0 1
158.128 0 1
158.244 0 1
158.359 0 1
158.475 0 1
158.591 0 1
158.706 0 1
