
6.15755 0 1
6.2731 0 1
6.3887 0 1
6.50437 0 1
6.62009 0 1
6.73587 0 1
6.8517 0 1
6.96759 0 1
7.08353 0 1
7.19952 0 1
7.31557 0 1
7.43166 0 1
7.54781 0 1
7.664 0 1
7.78024 0 1
7.89653 0 1
8.01286 0 1
8.12924 0 1
8.24567 0 1
8.36213 0 1
8.47864 0 1
8.59519 0 1
8.71178 0 1
8.82841 0 1
8.94508 0 1
9.06179 0 1
9.17853 0 1
9.29531 0 1
9.41212 0 1
9.52897 0 1
9.64584 0 1
9.76276 0 1
9.8797 0 1
9.99667 0 1
10.1137 0 1
10.2307 0 1
10.3478 0 1
10.4648 0 1
10.5819 0 1
10.6991 0 1
10.8162 0 1
10.9334 0 1
11.0506 0 1
11.1678 0 1
11.285 0 1
11.4023 0 1
11.5196 0 1
11.6369 0 1
11.7542 0 1
11.8715 0 1
11.9888 0 1
12.1062 0 1
12.2235 0 1
12.3409 0 1
12.4582 0 1
12.5756 0 1
12.693 0 1
12.8104 0 1
12.9278 0 1
13.0452 0 1
13.1626 0 1
13.28 0 1
13.3974 0 1
13.5149 0 1
13.6323 0 1
13.7497 0 1
13.8671 0 1
13.9845 0 1
14.1019 0 1
14.2193 0 1
14.3367 0 1
14.4541 0 1
14.5714 0 1
14.6888 0 1
14.8062 0 1
14.9235 0 1
15.0408 57617 240.035
15.1581 61183 247.352
15.2755 63495 251.982
15.3927 65338 255.613
15.51 66582 258.035
15.6273 66334 257.554
15.7445 65369 255.674
15.8617 62273 249.546
15.9789 59030 242.961
16.0961 59773 244.485
16.2132 61282 247.552
16.3304 65716 256.351
16.4475 69586 263.792
16.5646 70914 266.297
16.6816 71689 267.748
16.7986 71101 266.648
16.9156 71713 267.793
17.0326 71190 266.815
17.1496 71052 266.556
17.2665 70958 266.379
17.3833 70736 265.962
17.5002 70657 265.814
17.617 70566 265.643
17.7338 69778 264.155
17.8505 69094 262.857
17.9672 68051 260.866
18.0839 67249 259.324
18.2005 68006 260.78
18.3171 69352 263.348
18.4337 71382 267.174
18.5502 73776 271.617
18.6666 75677 275.095
18.7831 75392 274.576
18.8994 75168 274.168
19.0158 73251 270.649
19.1321 71447 267.296
19.2483 68053 260.87
19.3645 65152 255.249
19.4806 61619 248.232
19.5967 59616 244.164
19.7128 61442 247.875
19.8288 64477 253.923
19.9447 61935 248.867
20.0606 0 1
20.1764 0 1
20.2922 0 1
20.4079 0 1
20.5236 0 1
20.6392 0 1
20.7548 0 1
20.8702 0 1
23.3078 0 1
23.4233 0 1
23.539 0 1
23.6547 0 1
23.7704 0 1
23.8862 0 1
24.0021 0 1
24.118 0 1
24.234 0 1
24.35 0 1
24.4661 63965 252.913
24.5822 61257 247.502
24.6984 60772 246.52
24.8146 63391 251.776
24.9309 68074 260.91
25.0472 72409 269.089
25.1636 74787 273.472
25.28 75669 275.08
25.3965 76479 276.548
25.513 77166 277.788
25.6296 77798 278.923
25.7462 79070 281.194
25.8628 79128 281.297
25.9795 77983 279.254
26.0962 77939 279.176
26.213 76093 275.85
26.3298 75686 275.111
26.4466 74048 272.118
26.5635 71786 267.929
26.6804 72064 268.447
26.7973 72383 269.041
26.9143 72505 269.268
27.0313 73282 270.706
27.1483 76356 276.326
27.2653 76978 277.449
27.3824 78139 279.534
27.4996 78517 280.209
27.6167 76016 275.71
27.7339 74696 273.306
27.8511 72321 268.926
27.9683 69922 264.428
28.0855 65732 256.383
28.2028 62350 249.7
28.3201 61164 247.314
28.4374 65132 255.21
28.5547 68690 262.088
28.6721 73061 270.298
28.7894 75856 275.42
28.9068 76059 275.788
29.0242 75940 275.572
29.1416 74868 273.62
29.259 75413 274.614
29.3764 74912 273.701
29.4939 74087 272.189
29.6113 73355 270.841
29.7288 72584 269.414
29.8463 70640 265.782
29.9638 69140 262.945
30.0812 67770 260.327
30.1987 68046 260.856
30.3162 68105 260.969
30.4337 69164 262.99
30.5512 69462 263.556
30.6687 70341 265.219
30.7862 72721 269.668
30.9037 73146 270.455
31.0212 74895 273.67
31.1387 74158 272.32
31.2562 73033 270.246
31.3737 71616 267.612
31.4912 68784 262.267
31.6087 65248 255.437
31.7262 61044 247.071
31.8436 60003 244.955
31.9611 62926 250.851
32.0785 67124 259.083
32.1959 71895 268.132
32.3134 74124 272.257
32.4308 74454 272.863
32.5482 74256 272.5
32.6655 73905 271.855
32.7829 73820 271.698
32.9002 72958 270.107
33.0176 73337 270.808
33.1349 73125 270.416
33.2522 72781 269.78
33.3694 70414 265.356
33.4867 69702 264.011
33.6039 67953 260.678
33.7211 66510 257.895
33.8383 65984 256.874
33.9554 65830 256.574
34.0725 66944 258.735
34.1896 67529 259.863
34.3067 68238 261.224
34.4237 68848 262.389
34.5407 70634 265.771
34.6577 71124 266.691
34.7746 71159 266.756
34.8915 71177 266.79
35.0084 70236 265.021
35.1252 67407 259.629
35.242 65660 256.242
35.3587 60625 246.221
35.4755 57959 240.747
35.5921 57971 240.772
35.7088 60407 245.778
35.8254 64477 253.923
35.9419 69030 262.736
36.0584 71690 267.75
36.1749 72216 268.73
36.2913 71756 267.873
36.4077 71208 266.848
36.524 71413 267.232
36.6403 70831 266.141
36.7565 71418 267.241
36.8727 70886 266.244
36.9889 69691 263.991
37.1049 66898 258.646
37.221 0 1
37.3369 0 1
37.4529 0 1
37.5687 0 1
37.6845 0 1
37.8003 0 1
37.916 0 1
38.0316 0 1
38.1472 0 1
40.5851 0 1
40.7008 0 1
40.8164 0 1
40.9322 0 1
41.048 0 1
41.1639 0 1
41.2798 0 1
41.3958 0 1
41.5118 0 1
41.6279 0 1
41.744 56566 237.836
41.8602 59894 244.733
41.9765 60653 246.278
42.0928 59778 244.495
42.2091 58708 242.297
42.3255 57048 238.847
42.4419 55570 235.733
42.5584 53582 231.478
42.675 52978 230.17
42.7915 53463 231.221
42.9081 53722 231.78
43.0248 54608 233.684
43.1415 55121 234.779
43.2582 55304 235.168
43.375 55421 235.417
43.4918 55236 235.023
43.6087 55854 236.335
43.7256 55622 235.843
43.8425 54009 232.398
43.9595 52101 228.256
44.0765 50911 225.635
44.1935 47831 218.703
44.3106 45062 212.278
44.4277 41642 204.064
44.5448 41845 204.561
44.6619 43476 208.509
44.7791 46460 215.546
44.8963 47915 218.895
45.0136 47740 218.495
45.1308 47288 217.458
45.2481 46539 215.729
45.3654 46121 214.758
45.4827 45596 213.532
45.6001 44969 212.059
45.7174 44162 210.148
45.8348 42916 207.162
45.9522 41611 203.988
46.0697 40248 200.619
46.1871 39262 198.146
46.3046 39047 197.603
46.422 39247 198.109
46.5395 39769 199.422
46.657 39766 199.414
46.7745 40433 201.08
46.892 40527 201.313
47.0096 40226 200.564
47.1271 40482 201.201
47.2446 40438 201.092
47.3622 39114 197.773
47.4797 38713 196.756
47.5973 38109 195.215
47.7149 36314 190.562
47.8324 34455 185.621
47.95 31466 177.387
48.0675 31067 176.258
48.1851 32319 179.775
48.3027 34516 185.785
48.4202 35997 189.729
48.5378 37446 193.51
48.6554 37318 193.179
48.7729 37255 193.016
48.8904 37155 192.756
49.008 37601 193.91
49.1255 36960 192.25
49.243 36613 191.345
49.3605 35810 189.235
49.478 35439 188.252
49.5955 34759 186.438
49.713 34775 186.481
49.8304 35208 187.638
49.9479 36314 190.562
50.0653 37650 194.036
50.1827 39015 197.522
50.3001 40252 200.629
50.4175 40908 202.257
50.5348 41878 204.641
50.6521 42979 207.314
50.7694 43593 208.789
50.8867 45067 212.29
51.004 45207 212.619
51.1212 45352 212.96
51.2384 45208 212.622
51.3556 44014 209.795
51.4727 42461 206.061
51.5899 42194 205.412
51.707 44743 211.525
51.824 49205 221.822
51.9411 52970 230.152
52.0581 54925 234.361
52.175 56138 236.935
52.2919 57748 240.308
52.4088 58585 242.043
52.5257 59861 244.665
52.6425 60239 245.436
52.7593 60202 245.361
52.876 59958 244.863
52.9927 59246 243.405
53.1094 58645 242.167
53.226 57792 240.4
53.3426 57626 240.054
53.4591 58559 241.99
53.5756 60533 246.035
53.692 62716 250.432
53.8084 65622 256.168
53.9248 67410 259.634
54.0411 68497 261.719
54.1573 69834 264.261
54.2735 0 1
54.3896 0 1
54.5057 0 1
54.6217 0 1
54.7377 0 1
54.8537 0 1
54.9695 0 1
55.0853 0 1
55.2011 0 1
55.3168 0 1
55.4324 0 1
57.824 0 1
57.9396 0 1
58.0553 0 1
58.1711 0 1
58.2869 0 1
58.4028 0 1
58.5187 0 1
58.6347 0 1
58.7508 0 1
58.8669 0 1
58.983 77673 278.699
59.0992 81659 285.76
59.2155 83527 289.01
59.3318 83609 289.152
59.4482 84712 291.053
59.5646 84587 290.838
59.681 83816 289.51
59.7975 83042 288.17
59.9141 81280 285.096
60.0306 78400 280
60.1473 75784 275.289
60.2639 71145 266.73
60.3807 70343 265.223
60.4974 71549 267.486
60.6142 75790 275.3
60.731 79381 281.746
60.8479 81884 286.154
60.9648 82437 287.118
61.0818 82812 287.771
61.1987 81240 285.026
61.3158 81252 285.047
61.4328 79732 282.369
61.5499 77815 278.953
61.667 75657 275.058
61.7841 72552 269.355
61.9013 70490 265.5
62.0185 70126 264.813
62.1357 70539 265.592
62.253 72393 269.059
62.3702 74257 272.501
62.4875 75704 275.144
62.6049 76202 276.047
62.7222 76412 276.427
62.8396 77935 279.168
62.9569 77675 278.702
63.0743 77881 279.072
63.1918 76720 276.984
63.3092 75865 275.436
63.4267 73996 272.022
63.5441 71724 267.813
63.6616 69061 262.795
63.7791 65279 255.498
63.8966 63326 251.647
64.0142 64649 254.262
64.1317 68607 261.929
64.2492 72559 269.368
64.3668 75276 274.365
64.4843 75268 274.35
64.6019 74876 273.635
64.7195 74363 272.696
64.837 74257 272.501
64.9546 73612 271.315
65.0722 71899 268.14
65.1898 68935 262.555
65.3074 68274 261.293
65.4249 64089 253.158
65.5425 63275 251.545
65.6601 62658 250.316
65.7777 65102 255.151
65.8952 67134 259.102
66.0128 68269 261.283
66.1304 69641 263.896
66.2479 70749 265.987
66.3655 70198 264.949
66.483 70932 266.331
66.6005 72043 268.408
66.718 73183 270.524
66.8355 72312 268.909
66.953 71330 267.077
67.0705 69081 262.833
67.1879 67329 259.478
67.3054 64817 254.592
67.4228 61614 248.222
67.5402 59917 244.779
67.6576 60636 246.244
67.7749 63048 251.094
67.8923 68905 262.498
68.0096 71766 267.892
68.1269 72608 269.459
68.2442 72779 269.776
68.3614 73037 270.254
68.4787 72179 268.661
68.5958 73089 270.35
68.713 71306 267.032
68.8302 69538 263.701
68.9473 67249 259.324
69.0643 64479 253.927
69.1814 63610 252.21
69.2984 63417 251.827
69.4154 65302 255.543
69.5323 67136 259.106
69.6492 70198 264.949
69.7661 72161 268.628
69.8829 72629 269.498
69.9997 73851 271.755
70.1165 74054 272.129
70.2332 75674 275.089
70.3499 75291 274.392
70.4665 76503 276.592
70.5831 76355 276.324
70.6996 74645 273.212
70.8161 73413 270.948
70.9326 70380 265.292
71.049 67499 259.806
71.1653 63217 251.43
71.2817 61232 247.451
71.3979 62094 249.187
71.5141 64509 253.986
71.6303 67827 260.436
71.7464 68667 262.044
71.8624 0 1
71.9784 0 1
72.0944 0 1
72.2102 0 1
72.3261 0 1
72.4418 0 1
72.5575 0 1
72.6732 0 1
75.1054 0 1
75.2209 0 1
75.3365 0 1
75.4521 0 1
75.5678 0 1
75.6835 0 1
75.7993 0 1
75.9151 0 1
76.031 0 1
76.147 65731 256.381
76.263 67532 259.869
76.3791 64997 254.945
76.4952 62073 249.145
76.6113 63910 252.804
76.7276 68657 262.025
76.8438 74931 273.735
76.9601 77416 278.237
77.0765 78288 279.8
77.1929 77499 278.386
77.3093 77004 277.496
77.4258 77179 277.811
77.5423 76663 276.881
77.6589 73142 270.448
77.7755 69387 263.414
77.8921 66545 257.963
78.0088 64781 254.521
78.1256 63608 252.206
78.2423 62707 250.414
78.3591 64534 254.035
78.4759 68227 261.203
78.5928 70382 265.296
78.7097 70887 266.246
78.8266 70872 266.218
78.9436 74516 272.976
79.0606 72573 269.394
79.1776 73768 271.603
79.2946 73961 271.958
79.4117 75094 274.033
79.5288 74605 273.139
79.6459 73154 270.47
79.7631 70370 265.273
79.8802 67994 260.757
79.9974 64459 253.888
80.1147 60570 246.11
80.2319 60850 246.678
80.3491 65245 255.431
80.4664 70870 266.214
80.5837 74229 272.45
80.701 75083 274.013
80.8183 74735 273.377
80.9357 74642 273.207
81.053 73903 271.851
81.1704 73824 271.706
81.2877 73350 270.832
81.4051 70579 265.667
81.5225 67250 259.326
81.6399 62999 250.996
81.7573 63209 251.414
81.8747 61113 247.21
81.9922 62156 249.311
82.1096 66297 257.482
82.227 69494 263.617
82.3444 69370 263.382
82.4619 71965 268.263
82.5793 72883 269.969
82.6967 71956 268.246
82.8142 73093 270.357
82.9316 74334 272.643
83.049 74601 273.132
83.1664 74234 272.459
83.2838 73884 271.816
83.4012 72046 268.414
83.5186 69182 263.025
83.636 66188 257.27
83.7534 61092 247.168
83.8708 60770 246.516
83.9881 64635 254.234
84.1055 69306 263.26
84.2228 76182 276.011
84.3401 78428 280.05
84.4575 78694 280.525
84.5747 78431 280.055
84.692 77863 279.039
84.8093 78087 279.441
84.9265 76505 276.595
85.0437 71907 268.155
85.1609 68798 262.294
85.2781 67023 258.888
85.3952 66018 256.94
85.5123 66951 258.749
85.6294 69320 263.287
85.7465 74726 273.361
85.8636 77247 277.933
85.9806 78665 280.473
86.0976 80206 283.207
86.2145 81875 286.138
86.3315 83191 288.429
86.4484 85485 292.378
86.5652 85957 293.184
86.682 87980 296.614
86.7988 89291 298.816
86.9156 87583 295.944
87.0323 86478 294.071
87.149 83412 288.811
87.2657 79592 282.121
87.3823 75504 274.78
87.4988 76195 276.034
87.6154 81884 286.154
87.7318 91267 302.104
87.8483 96167 310.108
87.9647 98249 313.447
88.081 97347 312.005
88.1973 98479 313.814
88.3136 98703 314.17
88.4298 98354 313.614
88.546 94986 308.198
88.6621 88383 297.293
88.7781 84733 291.089
88.8942 0 1
89.0101 0 1
89.126 0 1
89.2419 0 1
89.3577 0 1
89.4734 0 1
89.5891 0 1
89.7047 0 1
89.8203 0 1
89.9358 0 1
92.3269 0 1
92.4424 0 1
92.558 0 1
92.6736 0 1
92.7893 0 1
92.905 0 1
93.0208 0 1
93.1366 0 1
93.2525 0 1
93.3685 0 1
93.4845 0 1
93.6005 93610 305.958
93.7167 93407 305.626
93.8328 90560 300.932
93.949 85690 292.729
94.0653 81307 285.144
94.1816 78502 280.182
94.2979 77563 278.501
94.4143 77384 278.18
94.5307 79336 281.666
94.6472 84155 290.095
94.7637 87706 296.152
94.8803 89808 299.68
94.9969 90119 300.198
95.1135 91429 302.372
95.2302 91564 302.595
95.3469 92461 304.074
95.4637 92801 304.633
95.5805 92717 304.495
95.6973 92643 304.373
95.8142 93027 305.003
95.9311 91519 302.521
96.048 89346 298.908
96.1649 85387 292.211
96.2819 80124 283.062
96.3989 74595 273.121
96.516 73080 270.333
96.633 75144 274.124
96.7501 79645 282.214
96.8673 85358 292.161
96.9844 87399 295.633
97.1016 87453 295.725
97.2188 86522 294.146
97.336 85928 293.135
97.4532 84768 291.149
97.5704 80775 284.209
97.6877 75825 275.363
97.805 70634 265.771
97.9223 66759 258.378
98.0396 64850 254.657
98.1569 64746 254.452
98.2743 66975 258.795
98.3916 70579 265.667
98.509 73587 271.269
98.6264 74786 273.47
98.7438 75260 274.336
98.8612 75793 275.305
98.9786 76202 276.047
99.096 76453 276.501
99.2134 76073 275.813
99.3308 75952 275.594
99.4482 76572 276.716
99.5656 74971 273.808
99.6831 73189 270.535
99.8005 71541 267.471
99.9179 68039 260.843
100.035 63105 251.207
100.153 61992 248.982
100.27 64343 253.659
100.388 69427 263.49
100.505 73984 272
100.622 75314 274.434
100.74 75027 273.911
100.857 74327 272.63
100.975 74582 273.097
101.092 74335 272.644
101.209 73872 271.794
101.327 69627 263.869
101.444 64676 254.315
101.561 61226 247.439
101.679 60172 245.3
101.796 59732 244.401
101.913 62540 250.08
102.03 67620 260.038
102.148 70737 265.964
102.265 66772 258.403
102.382 78007 279.297
102.499 74230 272.452
102.616 74553 273.044
102.733 75015 273.889
102.851 75252 274.321
102.968 76566 276.706
103.085 75612 274.976
103.202 74346 272.665
103.319 73194 270.544
103.436 70309 265.158
103.552 66081 257.062
103.669 62047 249.092
103.786 63989 252.96
103.903 68329 261.398
104.02 73047 270.272
104.137 75836 275.383
104.253 75895 275.49
104.37 76187 276.02
104.487 75724 275.18
104.603 75192 274.212
104.72 73956 271.949
104.836 69897 264.38
104.953 65057 255.063
105.069 61851 248.699
105.186 59900 244.745
105.302 59490 243.906
105.418 62854 250.707
105.535 67576 259.954
105.651 70249 265.045
105.767 71109 266.663
105.883 72396 269.065
105.999 72566 269.381
106.115 0 1
106.231 0 1
106.347 0 1
106.463 0 1
106.579 0 1
106.694 0 1
106.81 0 1
106.926 0 1
107.041 0 1
107.157 0 1
109.576 0 1
109.692 0 1
109.807 0 1
109.923 0 1
110.039 0 1
110.155 0 1
110.27 0 1
110.386 0 1
110.502 0 1
110.618 57615 240.031
110.735 62505 250.01
110.851 63988 252.958
110.967 65037 255.024
111.083 65463 255.857
111.199 66083 257.066
111.316 67738 260.265
111.432 67110 259.056
111.549 66904 258.658
111.665 66485 257.847
111.782 65603 256.131
111.898 63517 252.026
112.015 60678 246.329
112.132 56943 238.627
112.248 53885 232.131
112.365 54384 233.204
112.482 58741 242.365
112.599 61470 247.931
112.716 64062 253.105
112.832 64694 254.35
112.949 63711 252.41
113.066 63215 251.426
113.183 63427 251.847
113.3 62616 250.232
113.417 60345 245.652
113.534 55649 235.9
113.652 52256 228.596
113.769 48815 220.941
113.886 47065 216.945
114.003 48382 219.959
114.12 52122 228.302
114.238 56057 236.764
114.355 58157 241.158
114.472 59819 244.579
114.589 58229 241.307
114.707 59259 243.432
114.824 59357 243.633
114.942 59660 244.254
115.059 59110 243.125
115.176 59230 243.372
115.294 57488 239.767
115.411 56091 236.835
115.529 54500 233.452
115.646 51667 227.304
115.764 47734 218.481
115.881 46841 216.428
115.999 47869 218.79
116.116 50365 224.421
116.234 53737 231.812
116.351 54917 234.344
116.469 53771 231.886
116.586 54023 232.428
116.704 53464 231.223
116.821 54491 233.433
116.939 53682 231.694
117.056 50978 225.783
117.174 46958 216.698
117.291 44504 210.96
117.409 42023 204.995
117.526 40839 202.087
117.644 42448 206.029
117.761 46025 214.534
117.879 49665 222.856
117.996 51353 226.612
118.114 53056 230.339
118.231 53835 232.024
118.349 53831 232.015
118.466 53909 232.183
118.584 54520 233.495
118.701 54629 233.728
118.819 54506 233.465
118.936 53415 231.117
119.053 52636 229.425
119.171 51909 227.835
119.288 50284 224.241
119.405 47433 217.791
119.523 46780 216.287
119.64 47881 218.817
119.757 49883 223.345
119.875 53594 231.504
119.992 56279 237.232
120.109 56866 238.466
120.226 56754 238.231
120.343 57492 239.775
120.46 57817 240.452
120.578 58421 241.704
120.695 57108 238.973
120.812 54287 232.996
120.929 50493 224.706
121.046 47012 216.823
121.163 45197 212.596
121.279 44970 212.061
121.396 48059 219.224
121.513 52822 229.83
121.63 56902 238.541
121.747 59466 243.857
121.863 60580 246.13
121.98 61846 248.689
122.097 62476 249.952
122.213 63392 251.778
122.33 63615 252.22
122.446 63455 251.903
122.563 62801 250.601
122.679 62575 250.15
122.795 60884 246.747
122.912 60118 245.19
123.028 58177 241.199
123.144 54552 233.564
123.26 52538 229.212
123.377 0 1
123.493 0 1
123.609 0 1
123.725 0 1
123.84 0 1
123.956 0 1
124.072 0 1
124.188 0 1
124.303 0 1
124.419 0 1
126.852 0 1
126.968 0 1
127.083 0 1
127.199 0 1
127.315 0 1
127.431 0 1
127.547 0 1
127.663 0 1
127.779 0 1
127.895 0 1
128.011 0 1
128.127 0 1
128.243 0 1
128.359 67261 259.347
128.476 63916 252.816
128.592 61228 247.443
128.708 60229 245.416
128.825 62503 250.006
128.941 66145 257.187
129.058 69830 264.254
129.174 71313 267.045
129.291 71140 266.721
129.408 71668 267.709
129.524 71746 267.854
129.641 71221 266.873
129.758 69964 264.507
129.875 66102 257.103
129.992 61568 248.129
130.108 57547 239.89
130.225 53442 231.175
130.342 52295 228.681
130.459 54181 232.768
130.576 56984 238.713
130.693 61427 247.845
130.81 63876 252.737
130.928 65419 255.771
131.045 66066 257.033
131.162 67438 259.688
131.279 67405 259.625
131.396 66568 258.008
131.513 66099 257.097
131.631 64552 254.071
131.748 63071 251.139
131.865 61950 248.898
131.983 59707 244.35
132.1 56270 237.213
132.217 53932 232.233
132.335 54036 232.456
132.452 56245 237.16
132.57 59107 243.119
132.687 59407 243.736
132.804 62874 250.747
132.922 60326 245.614
133.039 60004 244.957
133.157 59699 244.334
133.274 58994 242.887
133.392 56489 237.674
133.509 52477 229.079
133.627 48844 221.007
133.744 46008 214.495
133.862 43671 208.976
133.979 43827 209.349
134.097 45962 214.387
134.214 48926 221.192
134.332 49270 221.968
134.449 51979 227.989
134.567 52996 230.209
134.684 53521 231.346
134.802 53600 231.517
134.919 52728 229.626
135.037 52755 229.685
135.154 51067 225.98
135.272 49918 223.423
135.389 49045 221.461
135.507 47397 217.709
135.624 45466 213.228
135.742 42246 205.538
135.859 41768 204.372
135.977 42113 205.215
136.094 43689 209.019
136.211 46112 214.737
136.329 46469 215.567
136.446 46488 215.611
136.564 46202 214.947
136.681 45599 213.539
136.798 46771 216.266
136.915 46108 214.728
137.033 43777 209.23
137.15 41507 203.733
137.267 39057 197.628
137.384 36884 192.052
137.502 35581 188.629
137.619 35790 189.182
137.736 38477 196.156
137.853 39737 199.341
137.97 42494 206.141
138.087 44629 211.256
138.204 46531 215.71
138.321 47770 218.563
138.438 48947 221.24
138.555 48817 220.946
138.672 49529 222.551
138.788 49198 221.806
138.905 49438 222.347
139.022 48568 220.381
139.139 48216 219.581
139.255 47022 216.846
139.372 45144 212.471
139.488 44826 211.722
139.605 46034 214.555
139.721 48050 219.203
139.838 50843 225.484
139.954 52300 228.692
140.071 52513 229.157
140.187 54167 232.738
140.303 53632 231.586
140.419 54027 232.437
140.535 54205 232.82
140.652 52985 230.185
140.768 0 1
140.884 0 1
141 0 1
141.115 0 1
141.231 0 1
141.347 0 1
141.463 0 1
141.578 0 1
141.694 0 1
144.104 0 1
144.219 0 1
144.335 0 1
144.45 0 1
144.566 0 1
144.682 0 1
144.798 0 1
144.914 0 1
145.03 0 1
145.146 46578 215.819
145.262 47675 218.346
145.378 47703 218.41
145.494 48055 219.215
145.61 47729 218.47
145.726 46624 215.926
145.842 44890 211.873
145.959 41862 204.602
146.075 39319 198.29
146.192 37067 192.528
146.308 35619 188.73
146.425 36070 189.921
146.541 37416 193.432
146.658 38789 196.949
146.774 39945 199.862
146.891 40987 202.452
147.008 42232 205.504
147.125 42736 206.727
147.241 42898 207.118
147.358 42594 206.383
147.475 41879 204.644
147.592 41452 203.598
147.709 40608 201.514
147.826 39706 199.264
147.943 39062 197.641
148.06 36520 191.102
148.177 34924 186.88
148.294 35372 188.074
148.411 35869 189.391
148.528 37244 192.987
148.645 37840 194.525
148.762 38300 195.704
148.88 38235 195.538
148.997 39458 198.64
149.114 35701 188.947
149.231 37832 194.504
149.349 36667 191.486
149.466 36276 190.463
149.583 34000 184.391
149.701 32163 179.34
149.818 30621 174.989
149.935 29911 172.948
150.053 29937 173.023
150.17 31581 177.71
150.287 32757 180.989
150.405 33969 184.307
150.522 34797 186.54
150.64 35991 189.713
150.757 36413 190.822
150.875 37291 193.109
150.992 37055 192.497
151.11 38022 194.992
151.227 37527 193.719
151.344 36721 191.627
151.462 36550 191.181
151.579 35761 189.106
151.697 35075 187.283
151.814 33745 183.698
151.932 34268 185.116
152.049 35415 188.189
152.167 36616 191.353
152.284 37915 194.718
152.402 39001 197.487
152.519 39056 197.626
152.636 39677 199.191
152.754 40184 200.459
152.871 40598 201.489
152.989 39970 199.925
153.106 38329 195.778
153.223 36095 189.987
153.341 35087 187.315
153.458 33305 182.497
153.575 33081 181.882
153.693 34019 184.442
153.81 35721 189
153.927 37448 193.515
154.044 38929 197.304
154.162 40457 201.139
154.279 42528 206.223
154.396 44201 210.24
154.513 45509 213.328
154.63 46657 216.002
154.747 46145 214.814
154.864 46208 214.96
154.981 46409 215.427
155.098 46188 214.914
155.215 45081 212.323
155.332 44173 210.174
155.449 42972 207.297
155.566 43267 208.007
155.683 44725 211.483
155.8 46646 215.977
155.917 48410 220.023
156.033 48828 220.971
156.15 0 1
156.267 0 1
156.383 0 1
156.5 0 1
156.617 0 1
156.733 0 1
156.85 0 1
156.966 0 1
157.082 0 1
157.199 0 1
157.315 0 1
157.431 0 1
157.547 0 1
157.664 0 1
157.78 0 1
157.896 0 1
158.012 0 1
158.128 0 1
158.244 0 1
158.359 0 1
158.475 0 1
158.591 0 1
158.706 0 1
