
6.15755 0 1
6.2731 0 1
6.3887 0 1
6.50437 0 1
6.62009 0 1
6.73587 0 1
6.8517 0 1
6.96759 0 1
7.08353 0 1
7.19952 0 1
7.31557 0 1
7.43166 0 1
7.54781 0 1
7.664 0 1
7.78024 0 1
7.89653 0 1
8.01286 0 1
8.12924 0 1
8.24567 0 1
8.36213 0 1
8.47864 0 1
8.59519 0 1
8.71178 0 1
8.82841 0 1
8.94508 0 1
9.06179 0 1
9.17853 0 1
9.29531 0 1
9.41212 0 1
9.52897 0 1
9.64584 0 1
9.76276 0 1
9.8797 0 1
9.99667 0 1
10.1137 0 1
10.2307 0 1
10.3478 0 1
10.4648 0 1
10.5819 0 1
10.6991 0 1
10.8162 0 1
10.9334 0 1
11.0506 0 1
11.1678 0 1
11.285 0 1
11.4023 0 1
11.5196 0 1
11.6369 0 1
11.7542 0 1
11.8715 0 1
11.9888 0 1
12.1062 0 1
12.2235 0 1
12.3409 0 1
12.4582 0 1
12.5756 0 1
12.693 0 1
12.8104 0 1
12.9278 0 1
13.0452 0 1
13.1626 0 1
13.28 0 1
13.3974 0 1
13.5149 0 1
13.6323 0 1
13.7497 0 1
13.8671 0 1
13.9845 0 1
14.1019 0 1
14.2193 0 1
14.3367 0 1
14.4541 0 1
14.5714 0 1
14.6888 0 1
14.8062 0 1
14.9235 0 1
15.0408 1472 38.3667
15.1581 1469 38.3275
15.2755 1524 39.0384
15.3927 1546 39.3192
15.51 1559 39.4842
15.6273 1533 39.1535
15.7445 1550 39.37
15.8617 1436 37.8946
15.9789 1424 37.7359
16.0961 1470 38.3406
16.2132 1439 37.9342
16.3304 1556 39.4462
16.4475 1473 38.3797
16.5646 1571 39.6358
16.6816 1454 38.1314
16.7986 1526 39.064
16.9156 1632 40.398
17.0326 1587 39.8372
17.1496 1508 38.833
17.2665 1624 40.2989
17.3833 1553 39.4081
17.5002 1530 39.1152
17.617 1395 37.3497
17.7338 1379 37.1349
17.8505 1341 36.6197
17.9672 1245 35.2846
18.0839 1344 36.6606
18.2005 1334 36.524
18.3171 1362 36.9053
18.4337 1407 37.51
18.5502 1414 37.6032
18.6666 1448 38.0526
18.7831 1444 38
18.8994 1448 38.0526
19.0158 1383 37.1887
19.1321 1371 37.027
19.2483 1284 35.8329
19.3645 1197 34.5977
19.4806 1184 34.4093
19.5967 1118 33.4365
19.7128 935 30.5778
19.8288 952 30.8545
19.9447 887 29.7825
20.0606 0 1
20.1764 0 1
20.2922 0 1
20.4079 0 1
20.5236 0 1
20.6392 0 1
20.7548 0 1
20.8702 0 1
23.3078 0 1
23.4233 0 1
23.539 0 1
23.6547 0 1
23.7704 0 1
23.8862 0 1
24.0021 0 1
24.118 0 1
24.234 0 1
24.35 0 1
24.4661 486 22.0454
24.5822 572 23.9165
24.6984 599 24.4745
24.8146 728 26.9815
24.9309 737 27.1477
25.0472 843 29.0345
25.1636 923 30.3809
25.28 1032 32.1248
25.3965 1022 31.9687
25.513 1140 33.7639
25.6296 1166 34.1467
25.7462 1223 34.9714
25.8628 1177 34.3074
25.9795 1224 34.9857
26.0962 1267 35.5949
26.213 1149 33.8969
26.3298 1158 34.0294
26.4466 1079 32.8481
26.5635 1078 32.8329
26.6804 1113 33.3617
26.7973 1072 32.7414
26.9143 1022 31.9687
27.0313 1114 33.3766
27.1483 1132 33.6452
27.2653 1108 33.2866
27.3824 1103 33.2114
27.4996 1166 34.1467
27.6167 1091 33.0303
27.7339 1061 32.573
27.8511 1021 31.9531
27.9683 1042 32.28
28.0855 1039 32.2335
28.2028 1009 31.7648
28.3201 984 31.3688
28.4374 917 30.282
28.5547 958 30.9516
28.6721 977 31.257
28.7894 963 31.0322
28.9068 991 31.4802
29.0242 1116 33.4066
29.1416 1042 32.28
29.259 1064 32.619
29.3764 1100 33.1662
29.4939 1101 33.1813
29.6113 1080 32.8634
29.7288 1018 31.9061
29.8463 1003 31.6702
29.9638 976 31.241
30.0812 887 29.7825
30.1987 948 30.7896
30.3162 901 30.0167
30.4337 965 31.0644
30.5512 970 31.1448
30.6687 957 30.9354
30.7862 954 30.8869
30.9037 971 31.1609
31.0212 986 31.4006
31.1387 961 31
31.2562 1024 32
31.3737 947 30.7734
31.4912 954 30.8869
31.6087 970 31.1448
31.7262 888 29.7993
31.8436 871 29.5127
31.9611 862 29.3598
32.0785 895 29.9166
32.1959 882 29.6985
32.3134 884 29.7321
32.4308 913 30.2159
32.5482 890 29.8329
32.6655 979 31.289
32.7829 955 30.9031
32.9002 941 30.6757
33.0176 934 30.5614
33.1349 956 30.9192
33.2522 1031 32.1092
33.3694 903 30.05
33.4867 933 30.545
33.6039 885 29.7489
33.7211 832 28.8444
33.8383 908 30.133
33.9554 899 29.9833
34.0725 882 29.6985
34.1896 868 29.4618
34.3067 912 30.1993
34.4237 907 30.1164
34.5407 900 30
34.6577 971 31.1609
34.7746 976 31.241
34.8915 924 30.3974
35.0084 893 29.8831
35.1252 887 29.7825
35.242 896 29.9333
35.3587 851 29.1719
35.4755 835 28.8964
35.5921 839 28.9655
35.7088 803 28.3373
35.8254 827 28.7576
35.9419 844 29.0517
36.0584 812 28.4956
36.1749 877 29.6142
36.2913 819 28.6182
36.4077 878 29.6311
36.524 821 28.6531
36.6403 757 27.5136
36.7565 793 28.1603
36.8727 676 26
36.9889 688 26.2298
37.1049 593 24.3516
37.221 0 1
37.3369 0 1
37.4529 0 1
37.5687 0 1
37.6845 0 1
37.8003 0 1
37.916 0 1
38.0316 0 1
38.1472 0 1
40.5851 0 1
40.7008 0 1
40.8164 0 1
40.9322 0 1
41.048 0 1
41.1639 0 1
41.2798 0 1
41.3958 0 1
41.5118 0 1
41.6279 0 1
41.744 417 20.4206
41.8602 471 21.7025
41.9765 539 23.2164
42.0928 585 24.1868
42.2091 550 23.4521
42.3255 551 23.4734
42.4419 553 23.516
42.5584 548 23.4094
42.675 620 24.8998
42.7915 608 24.6577
42.9081 664 25.7682
43.0248 696 26.3818
43.1415 694 26.3439
43.2582 756 27.4955
43.375 812 28.4956
43.4918 729 27
43.6087 780 27.9285
43.7256 693 26.3249
43.8425 783 27.9821
43.9595 773 27.8029
44.0765 711 26.6646
44.1935 686 26.1916
44.3106 731 27.037
44.4277 764 27.6405
44.5448 653 25.5539
44.6619 628 25.0599
44.7791 627 25.04
44.8963 666 25.807
45.0136 697 26.4008
45.1308 732 27.0555
45.2481 775 27.8388
45.3654 708 26.6083
45.4827 779 27.9106
45.6001 732 27.0555
45.7174 797 28.2312
45.8348 691 26.2869
45.9522 682 26.1151
46.0697 652 25.5343
46.1871 655 25.593
46.3046 655 25.593
46.422 713 26.7021
46.5395 695 26.3629
46.657 752 27.4226
46.7745 717 26.7769
46.892 757 27.5136
47.0096 814 28.5307
47.1271 792 28.1425
47.2446 794 28.178
47.3622 792 28.1425
47.4797 721 26.8514
47.5973 776 27.8568
47.7149 740 27.2029
47.8324 697 26.4008
47.95 780 27.9285
48.0675 707 26.5895
48.1851 693 26.3249
48.3027 664 25.7682
48.4202 686 26.1916
48.5378 781 27.9464
48.6554 728 26.9815
48.7729 776 27.8568
48.8904 795 28.1957
49.008 835 28.8964
49.1255 731 27.037
49.243 740 27.2029
49.3605 705 26.5518
49.478 654 25.5734
49.5955 612 24.7386
49.713 639 25.2784
49.8304 592 24.3311
49.9479 647 25.4362
50.0653 651 25.5147
50.1827 740 27.2029
50.3001 793 28.1603
50.4175 760 27.5681
50.5348 794 28.178
50.6521 773 27.8029
50.7694 799 28.2666
50.8867 796 28.2135
51.004 798 28.2489
51.1212 723 26.8887
51.2384 749 27.3679
51.3556 716 26.7582
51.4727 754 27.4591
51.5899 703 26.5141
51.707 686 26.1916
51.824 716 26.7582
51.9411 765 27.6586
52.0581 730 27.0185
52.175 756 27.4955
52.2919 789 28.0891
52.4088 808 28.4253
52.5257 798 28.2489
52.6425 787 28.0535
52.7593 804 28.3549
52.876 758 27.5318
52.9927 679 26.0576
53.1094 702 26.4953
53.226 652 25.5343
53.3426 619 24.8797
53.4591 637 25.2389
53.5756 665 25.7876
53.692 586 24.2074
53.8084 595 24.3926
53.9248 592 24.3311
54.0411 552 23.4947
54.1573 481 21.9317
54.2735 0 1
54.3896 0 1
54.5057 0 1
54.6217 0 1
54.7377 0 1
54.8537 0 1
54.9695 0 1
55.0853 0 1
55.2011 0 1
55.3168 0 1
55.4324 0 1
57.824 0 1
57.9396 0 1
58.0553 0 1
58.1711 0 1
58.2869 0 1
58.4028 0 1
58.5187 0 1
58.6347 0 1
58.7508 0 1
58.8669 0 1
58.983 592 24.3311
59.0992 660 25.6905
59.2155 738 27.1662
59.3318 759 27.55
59.4482 799 28.2666
59.5646 874 29.5635
59.681 936 30.5941
59.7975 929 30.4795
59.9141 962 31.0161
60.0306 945 30.7409
60.1473 948 30.7896
60.2639 918 30.2985
60.3807 960 30.9839
60.4974 899 29.9833
60.6142 946 30.7571
60.731 891 29.8496
60.8479 1004 31.686
60.9648 1062 32.5883
61.0818 1082 32.8938
61.1987 1097 33.121
61.3158 1058 32.5269
61.4328 998 31.5911
61.5499 972 31.1769
61.667 923 30.3809
61.7841 916 30.2655
61.9013 822 28.6705
62.0185 839 28.9655
62.1357 881 29.6816
62.253 850 29.1548
62.3702 946 30.7571
62.4875 1053 32.45
62.6049 1033 32.1403
62.7222 1051 32.4191
62.8396 1079 32.8481
62.9569 1120 33.4664
63.0743 1162 34.0881
63.1918 1108 33.2866
63.3092 1122 33.4963
63.4267 1077 32.8177
63.5441 1025 32.0156
63.6616 1060 32.5576
63.7791 1011 31.7962
63.8966 986 31.4006
64.0142 909 30.1496
64.1317 1005 31.7017
64.2492 989 31.4484
64.3668 1050 32.4037
64.4843 1079 32.8481
64.6019 1111 33.3317
64.7195 1045 32.3265
64.837 1053 32.45
64.9546 1077 32.8177
65.0722 1066 32.6497
65.1898 1014 31.8434
65.3074 920 30.3315
65.4249 903 30.05
65.5425 842 29.0172
65.6601 885 29.7489
65.7777 932 30.5287
65.8952 1029 32.078
66.0128 1022 31.9687
66.1304 1112 33.3467
66.2479 1145 33.8378
66.3655 1172 34.2345
66.483 1166 34.1467
66.6005 1141 33.7787
66.718 1138 33.7343
66.8355 1201 34.6554
66.953 1159 34.0441
67.0705 1185 34.4238
67.1879 1092 33.0454
67.3054 1094 33.0757
67.4228 1076 32.8024
67.5402 965 31.0644
67.6576 965 31.0644
67.7749 1026 32.0312
67.8923 1011 31.7962
68.0096 1071 32.7261
68.1269 1127 33.5708
68.2442 1166 34.1467
68.3614 1163 34.1028
68.4787 1178 34.322
68.5958 1128 33.5857
68.713 1107 33.2716
68.8302 1017 31.8904
68.9473 962 31.0161
69.0643 919 30.315
69.1814 836 28.9137
69.2984 903 30.05
69.4154 997 31.5753
69.5323 1030 32.0936
69.6492 1125 33.541
69.7661 1128 33.5857
69.8829 1177 34.3074
69.9997 1188 34.4674
70.1165 1127 33.5708
70.2332 1139 33.7491
70.3499 1080 32.8634
70.4665 975 31.225
70.5831 939 30.6431
70.6996 876 29.5973
70.8161 888 29.7993
70.9326 743 27.258
71.049 721 26.8514
71.1653 616 24.8193
71.2817 511 22.6053
71.3979 423 20.567
71.5141 480 21.9089
71.6303 461 21.4709
71.7464 395 19.8746
71.8624 0 1
71.9784 0 1
72.0944 0 1
72.2102 0 1
72.3261 0 1
72.4418 0 1
72.5575 0 1
72.6732 0 1
75.1054 0 1
75.2209 0 1
75.3365 0 1
75.4521 0 1
75.5678 0 1
75.6835 0 1
75.7993 0 1
75.9151 0 1
76.031 0 1
76.147 824 28.7054
76.263 877 29.6142
76.3791 929 30.4795
76.4952 911 30.1828
76.6113 887 29.7825
76.7276 890 29.8329
76.8438 970 31.1448
76.9601 973 31.1929
77.0765 1072 32.7414
77.1929 1123 33.5112
77.3093 1146 33.8526
77.4258 1153 33.9559
77.5423 1158 34.0294
77.6589 1123 33.5112
77.7755 1060 32.5576
77.8921 1040 32.249
78.0088 919 30.315
78.1256 816 28.5657
78.2423 818 28.6007
78.3591 837 28.931
78.4759 877 29.6142
78.5928 999 31.607
78.7097 1032 32.1248
78.8266 1122 33.4963
78.9436 1213 34.8281
79.0606 1251 35.3695
79.1776 1230 35.0714
79.2946 1265 35.5668
79.4117 1168 34.176
79.5288 1233 35.1141
79.6459 1218 34.8999
79.7631 1202 34.6699
79.8802 1104 33.2265
79.9974 1109 33.3017
80.1147 1130 33.6155
80.2319 1037 32.2025
80.3491 978 31.273
80.4664 1010 31.7805
80.5837 1045 32.3265
80.701 1092 33.0454
80.8183 1119 33.4515
80.9357 1217 34.8855
81.053 1278 35.7491
81.1704 1175 34.2783
81.2877 1203 34.6843
81.4051 1162 34.0881
81.5225 1112 33.3467
81.6399 1010 31.7805
81.7573 871 29.5127
81.8747 821 28.6531
81.9922 761 27.5862
82.1096 932 30.5287
82.227 969 31.1288
82.3444 1152 33.9411
82.4619 1147 33.8674
82.5793 1164 34.1174
82.6967 1123 33.5112
82.8142 1179 34.3366
82.9316 1271 35.6511
83.049 1224 34.9857
83.1664 1240 35.2136
83.2838 1141 33.7787
83.4012 1195 34.5688
83.5186 1194 34.5543
83.636 1106 33.2566
83.7534 1073 32.7567
83.8708 994 31.5278
83.9881 977 31.257
84.1055 944 30.7246
84.2228 991 31.4802
84.3401 928 30.4631
84.4575 1051 32.4191
84.5747 1140 33.7639
84.692 1104 33.2265
84.8093 1179 34.3366
84.9265 1108 33.2866
85.0437 1127 33.5708
85.1609 962 31.0161
85.2781 871 29.5127
85.3952 757 27.5136
85.5123 693 26.3249
85.6294 819 28.6182
85.7465 902 30.0333
85.8636 986 31.4006
85.9806 1074 32.7719
86.0976 1101 33.1813
86.2145 1148 33.8821
86.3315 1115 33.3916
86.4484 1142 33.7935
86.5652 1151 33.9264
86.682 1177 34.3074
86.7988 1130 33.6155
86.9156 1110 33.3167
87.0323 1143 33.8083
87.149 1087 32.9697
87.2657 1056 32.4962
87.3823 918 30.2985
87.4988 773 27.8029
87.6154 750 27.3861
87.7318 713 26.7021
87.8483 711 26.6646
87.9647 776 27.8568
88.081 795 28.1957
88.1973 793 28.1603
88.3136 769 27.7308
88.4298 735 27.1109
88.546 695 26.3629
88.6621 593 24.3516
88.7781 452 21.2603
88.8942 0 1
89.0101 0 1
89.126 0 1
89.2419 0 1
89.3577 0 1
89.4734 0 1
89.5891 0 1
89.7047 0 1
89.8203 0 1
89.9358 0 1
92.3269 0 1
92.4424 0 1
92.558 0 1
92.6736 0 1
92.7893 0 1
92.905 0 1
93.0208 0 1
93.1366 0 1
93.2525 0 1
93.3685 0 1
93.4845 0 1
93.6005 711 26.6646
93.7167 770 27.7489
93.8328 847 29.1033
93.949 846 29.0861
94.0653 882 29.6985
94.1816 873 29.5466
94.2979 867 29.4449
94.4143 773 27.8029
94.5307 751 27.4044
94.6472 647 25.4362
94.7637 659 25.671
94.8803 744 27.2764
94.9969 834 28.8791
95.1135 942 30.692
95.2302 906 30.0998
95.3469 958 30.9516
95.4637 1010 31.7805
95.5805 1001 31.6386
95.6973 1020 31.9374
95.8142 977 31.257
95.9311 1082 32.8938
96.048 1027 32.0468
96.1649 1000 31.6228
96.2819 977 31.257
96.3989 976 31.241
96.516 925 30.4138
96.633 941 30.6757
96.7501 811 28.4781
96.8673 771 27.7669
96.9844 795 28.1957
97.1016 811 28.4781
97.2188 852 29.189
97.336 877 29.6142
97.4532 903 30.05
97.5704 968 31.1127
97.6877 1023 31.9844
97.805 1008 31.749
97.9223 892 29.8664
98.0396 768 27.7128
98.1569 774 27.8209
98.2743 646 25.4165
98.3916 651 25.5147
98.509 673 25.9422
98.6264 787 28.0535
98.7438 854 29.2233
98.8612 915 30.249
98.9786 954 30.8869
99.096 999 31.607
99.2134 995 31.5436
99.3308 1058 32.5269
99.4482 1014 31.8434
99.5656 1034 32.1559
99.6831 1002 31.6544
99.8005 1062 32.5883
99.9179 984 31.3688
100.035 954 30.8869
100.153 943 30.7083
100.27 897 29.95
100.388 805 28.3725
100.505 791 28.1247
100.622 843 29.0345
100.74 855 29.2404
100.857 881 29.6816
100.975 933 30.545
101.092 985 31.3847
101.209 989 31.4484
101.327 940 30.6594
101.444 951 30.8383
101.561 876 29.5973
101.679 718 26.7955
101.796 672 25.923
101.913 624 24.98
102.03 635 25.1992
102.148 703 26.5141
102.265 852 29.189
102.382 953 30.8707
102.499 1017 31.8904
102.616 1036 32.187
102.733 1042 32.28
102.851 1094 33.0757
102.968 1017 31.8904
103.085 1011 31.7962
103.202 1075 32.7872
103.319 1018 31.9061
103.436 1122 33.4963
103.552 908 30.133
103.669 1000 31.6228
103.786 940 30.6594
103.903 792 28.1425
104.02 810 28.4605
104.137 761 27.5862
104.253 849 29.1376
104.37 898 29.9666
104.487 944 30.7246
104.603 939 30.6431
104.72 974 31.209
104.836 933 30.545
104.953 814 28.5307
105.069 716 26.7582
105.186 613 24.7588
105.302 570 23.8747
105.418 527 22.9565
105.535 527 22.9565
105.651 545 23.3452
105.767 580 24.0832
105.883 592 24.3311
105.999 606 24.6171
106.115 0 1
106.231 0 1
106.347 0 1
106.463 0 1
106.579 0 1
106.694 0 1
106.81 0 1
106.926 0 1
107.041 0 1
107.157 0 1
109.576 0 1
109.692 0 1
109.807 0 1
109.923 0 1
110.039 0 1
110.155 0 1
110.27 0 1
110.386 0 1
110.502 0 1
110.618 355 18.8414
110.735 472 21.7256
110.851 611 24.7184
110.967 623 24.96
111.083 663 25.7488
111.199 756 27.4955
111.316 886 29.7658
111.432 822 28.6705
111.549 831 28.8271
111.665 861 29.3428
111.782 909 30.1496
111.898 925 30.4138
112.015 852 29.189
112.132 881 29.6816
112.248 779 27.9106
112.365 731 27.037
112.482 693 26.3249
112.599 715 26.7395
112.716 681 26.096
112.832 727 26.9629
112.949 802 28.3196
113.066 840 28.9828
113.183 786 28.0357
113.3 850 29.1548
113.417 806 28.3901
113.534 803 28.3373
113.652 703 26.5141
113.769 609 24.6779
113.886 571 23.8956
114.003 531 23.0434
114.12 557 23.6008
114.238 651 25.5147
114.355 737 27.1477
114.472 790 28.1069
114.589 905 30.0832
114.707 885 29.7489
114.824 868 29.4618
114.942 833 28.8617
115.059 875 29.5804
115.176 869 29.4788
115.294 895 29.9166
115.411 897 29.95
115.529 881 29.6816
115.646 860 29.3258
115.764 770 27.7489
115.881 738 27.1662
115.999 747 27.3313
116.116 680 26.0768
116.234 707 26.5895
116.351 737 27.1477
116.469 782 27.9643
116.586 754 27.4591
116.704 823 28.688
116.821 834 28.8791
116.939 824 28.7054
117.056 799 28.2666
117.174 762 27.6043
117.291 663 25.7488
117.409 591 24.3105
117.526 519 22.7816
117.644 551 23.4734
117.761 607 24.6374
117.879 650 25.4951
117.996 798 28.2489
118.114 803 28.3373
118.231 843 29.0345
118.349 804 28.3549
118.466 885 29.7489
118.584 875 29.5804
118.701 869 29.4788
118.819 863 29.3769
118.936 923 30.3809
119.053 809 28.4429
119.171 838 28.9482
119.288 840 28.9828
119.405 760 27.5681
119.523 695 26.3629
119.64 714 26.7208
119.757 635 25.1992
119.875 650 25.4951
119.992 699 26.4386
120.109 701 26.4764
120.226 703 26.5141
120.343 744 27.2764
120.46 783 27.9821
120.578 739 27.1846
120.695 774 27.8209
120.812 674 25.9615
120.929 694 26.3439
121.046 634 25.1794
121.163 508 22.5389
121.279 541 23.2594
121.396 553 23.516
121.513 535 23.1301
121.63 633 25.1595
121.747 660 25.6905
121.863 649 25.4755
121.98 688 26.2298
122.097 661 25.7099
122.213 639 25.2784
122.33 663 25.7488
122.446 620 24.8998
122.563 554 23.5372
122.679 527 22.9565
122.795 508 22.5389
122.912 455 21.3307
123.028 434 20.8327
123.144 405 20.1246
123.26 344 18.5472
123.377 0 1
123.493 0 1
123.609 0 1
123.725 0 1
123.84 0 1
123.956 0 1
124.072 0 1
124.188 0 1
124.303 0 1
124.419 0 1
126.852 0 1
126.968 0 1
127.083 0 1
127.199 0 1
127.315 0 1
127.431 0 1
127.547 0 1
127.663 0 1
127.779 0 1
127.895 0 1
128.011 0 1
128.127 0 1
128.243 0 1
128.359 776 27.8568
128.476 754 27.4591
128.592 842 29.0172
128.708 735 27.1109
128.825 683 26.1343
128.941 768 27.7128
129.058 805 28.3725
129.174 783 27.9821
129.291 830 28.8097
129.408 870 29.4958
129.524 879 29.6479
129.641 845 29.0689
129.758 838 28.9482
129.875 787 28.0535
129.992 740 27.2029
130.108 652 25.5343
130.225 594 24.3721
130.342 611 24.7184
130.459 575 23.9792
130.576 676 26
130.693 778 27.8927
130.81 789 28.0891
130.928 844 29.0517
131.045 897 29.95
131.162 904 30.0666
131.279 836 28.9137
131.396 891 29.8496
131.513 882 29.6985
131.631 848 29.1204
131.748 886 29.7658
131.865 864 29.3939
131.983 827 28.7576
132.1 807 28.4077
132.217 759 27.55
132.335 697 26.4008
132.452 755 27.4773
132.57 796 28.2135
132.687 788 28.0713
132.804 790 28.1069
132.922 843 29.0345
133.039 864 29.3939
133.157 854 29.2233
133.274 843 29.0345
133.392 883 29.7153
133.509 784 28
133.627 690 26.2679
133.744 660 25.6905
133.862 634 25.1794
133.979 617 24.8395
134.097 723 26.8887
134.214 743 27.258
134.332 818 28.6007
134.449 812 28.4956
134.567 877 29.6142
134.684 929 30.4795
134.802 900 30
134.919 892 29.8664
135.037 908 30.133
135.154 900 30
135.272 927 30.4467
135.389 812 28.4956
135.507 842 29.0172
135.624 843 29.0345
135.742 787 28.0535
135.859 804 28.3549
135.977 768 27.7128
136.094 756 27.4955
136.211 739 27.1846
136.329 804 28.3549
136.446 797 28.2312
136.564 906 30.0998
136.681 876 29.5973
136.798 873 29.5466
136.915 887 29.7825
137.033 831 28.8271
137.15 704 26.533
137.267 671 25.9037
137.384 630 25.0998
137.502 621 24.9199
137.619 621 24.9199
137.736 713 26.7021
137.853 735 27.1109
137.97 811 28.4781
138.087 800 28.2843
138.204 835 28.8964
138.321 874 29.5635
138.438 856 29.2575
138.555 873 29.5466
138.672 887 29.7825
138.788 826 28.7402
138.905 765 27.6586
139.022 690 26.2679
139.139 692 26.3059
139.255 653 25.5539
139.372 615 24.7992
139.488 539 23.2164
139.605 530 23.0217
139.721 541 23.2594
139.838 507 22.5167
139.954 493 22.2036
140.071 540 23.2379
140.187 491 22.1585
140.303 429 20.7123
140.419 429 20.7123
140.535 388 19.6977
140.652 349 18.6815
140.768 0 1
140.884 0 1
141 0 1
141.115 0 1
141.231 0 1
141.347 0 1
141.463 0 1
141.578 0 1
141.694 0 1
144.104 0 1
144.219 0 1
144.335 0 1
144.45 0 1
144.566 0 1
144.682 0 1
144.798 0 1
144.914 0 1
145.03 0 1
145.146 590 24.2899
145.262 618 24.8596
145.378 635 25.1992
145.494 658 25.6515
145.61 694 26.3439
145.726 661 25.7099
145.842 660 25.6905
145.959 578 24.0416
146.075 503 22.4277
146.192 511 22.6053
146.308 518 22.7596
146.425 554 23.5372
146.541 587 24.2281
146.658 605 24.5967
146.774 593 24.3516
146.891 639 25.2784
147.008 612 24.7386
147.125 677 26.0192
147.241 709 26.6271
147.358 752 27.4226
147.475 676 26
147.592 707 26.5895
147.709 633 25.1595
147.826 660 25.6905
147.943 670 25.8844
148.06 612 24.7386
148.177 608 24.6577
148.294 616 24.8193
148.411 574 23.9583
148.528 625 25
148.645 628 25.0599
148.762 597 24.4336
148.88 620 24.8998
148.997 637 25.2389
149.114 645 25.3969
149.231 645 25.3969
149.349 678 26.0384
149.466 634 25.1794
149.583 638 25.2587
149.701 537 23.1733
149.818 510 22.5832
149.935 503 22.4277
150.053 490 22.1359
150.17 516 22.7156
150.287 556 23.5797
150.405 526 22.9347
150.522 626 25.02
150.64 678 26.0384
150.757 611 24.7184
150.875 647 25.4362
150.992 616 24.8193
151.11 653 25.5539
151.227 650 25.4951
151.344 648 25.4558
151.462 600 24.4949
151.579 711 26.6646
151.697 669 25.865
151.814 577 24.0208
151.932 568 23.8328
152.049 585 24.1868
152.167 581 24.1039
152.284 606 24.6171
152.402 646 25.4165
152.519 623 24.96
152.636 627 25.04
152.754 611 24.7184
152.871 621 24.9199
152.989 631 25.1197
153.106 635 25.1992
153.223 526 22.9347
153.341 516 22.7156
153.458 513 22.6495
153.575 481 21.9317
153.693 489 22.1133
153.81 507 22.5167
153.927 559 23.6432
154.044 578 24.0416
154.162 630 25.0998
154.279 607 24.6374
154.396 632 25.1396
154.513 684 26.1534
154.63 631 25.1197
154.747 627 25.04
154.864 647 25.4362
154.981 669 25.865
155.098 639 25.2784
155.215 619 24.8797
155.332 625 25
155.449 581 24.1039
155.566 557 23.6008
155.683 548 23.4094
155.8 577 24.0208
155.917 522 22.8473
156.033 530 23.0217
156.15 0 1
156.267 0 1
156.383 0 1
156.5 0 1
156.617 0 1
156.733 0 1
156.85 0 1
156.966 0 1
157.082 0 1
157.199 0 1
157.315 0 1
157.431 0 1
157.547 0 1
157.664 0 1
157.78 0 1
157.896 0 1
158.012 0 1
158.128 0 1
158.244 0 1
158.359 0 1
158.475 0 1
158.591 0 1
158.706 0 1
