
6.15755 0 1
6.2731 0 1
6.3887 0 1
6.50437 0 1
6.62009 0 1
6.73587 0 1
6.8517 0 1
6.96759 0 1
7.08353 0 1
7.19952 0 1
7.31557 0 1
7.43166 0 1
7.54781 0 1
7.664 0 1
7.78024 0 1
7.89653 0 1
8.01286 0 1
8.12924 0 1
8.24567 0 1
8.36213 0 1
8.47864 0 1
8.59519 0 1
8.71178 0 1
8.82841 0 1
8.94508 0 1
9.06179 0 1
9.17853 0 1
9.29531 0 1
9.41212 0 1
9.52897 0 1
9.64584 0 1
9.76276 0 1
9.8797 0 1
9.99667 0 1
10.1137 0 1
10.2307 0 1
10.3478 0 1
10.4648 0 1
10.5819 0 1
10.6991 0 1
10.8162 0 1
10.9334 0 1
11.0506 0 1
11.1678 0 1
11.285 0 1
11.4023 0 1
11.5196 0 1
11.6369 0 1
11.7542 0 1
11.8715 0 1
11.9888 0 1
12.1062 0 1
12.2235 0 1
12.3409 0 1
12.4582 0 1
12.5756 0 1
12.693 0 1
12.8104 0 1
12.9278 0 1
13.0452 0 1
13.1626 0 1
13.28 0 1
13.3974 0 1
13.5149 0 1
13.6323 0 1
13.7497 0 1
13.8671 0 1
13.9845 0 1
14.1019 0 1
14.2193 0 1
14.3367 0 1
14.4541 0 1
14.5714 0 1
14.6888 0 1
14.8062 0 1
14.9235 0 1
15.0408 988 31.4325
15.1581 1025 32.0156
15.2755 1098 33.1361
15.3927 1053 32.45
15.51 1042 32.28
15.6273 991 31.4802
15.7445 915 30.249
15.8617 918 30.2985
15.9789 918 30.2985
16.0961 922 30.3645
16.2132 927 30.4467
16.3304 941 30.6757
16.4475 862 29.3598
16.5646 890 29.8329
16.6816 845 29.0689
16.7986 878 29.6311
16.9156 860 29.3258
17.0326 810 28.4605
17.1496 844 29.0517
17.2665 795 28.1957
17.3833 774 27.8209
17.5002 838 28.9482
17.617 874 29.5635
17.7338 886 29.7658
17.8505 785 28.0179
17.9672 810 28.4605
18.0839 803 28.3373
18.2005 837 28.931
18.3171 842 29.0172
18.4337 806 28.3901
18.5502 817 28.5832
18.6666 821 28.6531
18.7831 824 28.7054
18.8994 798 28.2489
19.0158 780 27.9285
19.1321 788 28.0713
19.2483 677 26.0192
19.3645 622 24.9399
19.4806 613 24.7588
19.5967 675 25.9808
19.7128 650 25.4951
19.8288 600 24.4949
19.9447 569 23.8537
20.0606 0 1
20.1764 0 1
20.2922 0 1
20.4079 0 1
20.5236 0 1
20.6392 0 1
20.7548 0 1
20.8702 0 1
23.3078 0 1
23.4233 0 1
23.539 0 1
23.6547 0 1
23.7704 0 1
23.8862 0 1
24.0021 0 1
24.118 0 1
24.234 0 1
24.35 0 1
24.4661 279 16.7033
24.5822 384 19.5959
24.6984 417 20.4206
24.8146 510 22.5832
24.9309 569 23.8537
25.0472 694 26.3439
25.1636 679 26.0576
25.28 874 29.5635
25.3965 875 29.5804
25.513 865 29.4109
25.6296 881 29.6816
25.7462 827 28.7576
25.8628 884 29.7321
25.9795 902 30.0333
26.0962 850 29.1548
26.213 859 29.3087
26.3298 775 27.8388
26.4466 757 27.5136
26.5635 727 26.9629
26.6804 730 27.0185
26.7973 668 25.8457
26.9143 696 26.3818
27.0313 662 25.7294
27.1483 690 26.2679
27.2653 690 26.2679
27.3824 703 26.5141
27.4996 762 27.6043
27.6167 751 27.4044
27.7339 786 28.0357
27.8511 695 26.3629
27.9683 713 26.7021
28.0855 698 26.4197
28.2028 717 26.7769
28.3201 719 26.8142
28.4374 732 27.0555
28.5547 784 28
28.6721 731 27.037
28.7894 796 28.2135
28.9068 732 27.0555
29.0242 787 28.0535
29.1416 692 26.3059
29.259 719 26.8142
29.3764 711 26.6646
29.4939 704 26.533
29.6113 716 26.7582
29.7288 725 26.9258
29.8463 670 25.8844
29.9638 662 25.7294
30.0812 607 24.6374
30.1987 592 24.3311
30.3162 619 24.8797
30.4337 614 24.779
30.5512 625 25
30.6687 615 24.7992
30.7862 688 26.2298
30.9037 708 26.6083
31.0212 740 27.2029
31.1387 801 28.3019
31.2562 728 26.9815
31.3737 742 27.2397
31.4912 706 26.5707
31.6087 675 25.9808
31.7262 713 26.7021
31.8436 683 26.1343
31.9611 676 26
32.0785 709 26.6271
32.1959 689 26.2488
32.3134 673 25.9422
32.4308 644 25.3772
32.5482 662 25.7294
32.6655 668 25.8457
32.7829 639 25.2784
32.9002 663 25.7488
33.0176 613 24.7588
33.1349 608 24.6577
33.2522 605 24.5967
33.3694 614 24.779
33.4867 634 25.1794
33.6039 661 25.7099
33.7211 643 25.3574
33.8383 599 24.4745
33.9554 601 24.5153
34.0725 546 23.3666
34.1896 556 23.5797
34.3067 601 24.5153
34.4237 589 24.2693
34.5407 670 25.8844
34.6577 704 26.533
34.7746 709 26.6271
34.8915 678 26.0384
35.0084 648 25.4558
35.1252 684 26.1534
35.242 618 24.8596
35.3587 612 24.7386
35.4755 607 24.6374
35.5921 641 25.318
35.7088 649 25.4755
35.8254 646 25.4165
35.9419 642 25.3377
36.0584 654 25.5734
36.1749 611 24.7184
36.2913 622 24.9399
36.4077 627 25.04
36.524 566 23.7908
36.6403 477 21.8403
36.7565 512 22.6274
36.8727 487 22.0681
36.9889 461 21.4709
37.1049 408 20.199
37.221 0 1
37.3369 0 1
37.4529 0 1
37.5687 0 1
37.6845 0 1
37.8003 0 1
37.916 0 1
38.0316 0 1
38.1472 0 1
40.5851 0 1
40.7008 0 1
40.8164 0 1
40.9322 0 1
41.048 0 1
41.1639 0 1
41.2798 0 1
41.3958 0 1
41.5118 0 1
41.6279 0 1
41.744 284 16.8523
41.8602 337 18.3576
41.9765 415 20.3715
42.0928 421 20.5183
42.2091 441 21
42.3255 518 22.7596
42.4419 481 21.9317
42.5584 503 22.4277
42.675 499 22.3383
42.7915 476 21.8174
42.9081 414 20.347
43.0248 474 21.7715
43.1415 488 22.0907
43.2582 461 21.4709
43.375 502 22.4054
43.4918 503 22.4277
43.6087 510 22.5832
43.7256 486 22.0454
43.8425 512 22.6274
43.9595 519 22.7816
44.0765 501 22.383
44.1935 534 23.1084
44.3106 513 22.6495
44.4277 496 22.2711
44.5448 530 23.0217
44.6619 538 23.1948
44.7791 542 23.2809
44.8963 514 22.6716
45.0136 516 22.7156
45.1308 533 23.0868
45.2481 539 23.2164
45.3654 560 23.6643
45.4827 520 22.8035
45.6001 532 23.0651
45.7174 567 23.8118
45.8348 577 24.0208
45.9522 533 23.0868
46.0697 501 22.383
46.1871 485 22.0227
46.3046 478 21.8632
46.422 426 20.6398
46.5395 444 21.0713
46.657 408 20.199
46.7745 462 21.4942
46.892 480 21.9089
47.0096 514 22.6716
47.1271 477 21.8403
47.2446 539 23.2164
47.3622 498 22.3159
47.4797 517 22.7376
47.5973 468 21.6333
47.7149 473 21.7486
47.8324 431 20.7605
47.95 489 22.1133
48.0675 467 21.6102
48.1851 491 22.1585
48.3027 497 22.2935
48.4202 535 23.1301
48.5378 487 22.0681
48.6554 492 22.1811
48.7729 481 21.9317
48.8904 496 22.2711
49.008 515 22.6936
49.1255 526 22.9347
49.243 548 23.4094
49.3605 497 22.2935
49.478 456 21.3542
49.5955 433 20.8087
49.713 434 20.8327
49.8304 424 20.5913
49.9479 352 18.7617
50.0653 416 20.3961
50.1827 435 20.8567
50.3001 463 21.5174
50.4175 466 21.587
50.5348 484 22
50.6521 446 21.1187
50.7694 558 23.622
50.8867 620 24.8998
51.004 674 25.9615
51.1212 658 25.6515
51.2384 679 26.0576
51.3556 635 25.1992
51.4727 635 25.1992
51.5899 632 25.1396
51.707 610 24.6982
51.824 655 25.593
51.9411 641 25.318
52.0581 630 25.0998
52.175 601 24.5153
52.2919 614 24.779
52.4088 597 24.4336
52.5257 565 23.7697
52.6425 535 23.1301
52.7593 533 23.0868
52.876 544 23.3238
52.9927 510 22.5832
53.1094 508 22.5389
53.226 473 21.7486
53.3426 500 22.3607
53.4591 473 21.7486
53.5756 586 24.2074
53.692 697 26.4008
53.8084 850 29.1548
53.9248 933 30.545
54.0411 1235 35.1426
54.1573 1729 41.5812
54.2735 0 1
54.3896 0 1
54.5057 0 1
54.6217 0 1
54.7377 0 1
54.8537 0 1
54.9695 0 1
55.0853 0 1
55.2011 0 1
55.3168 0 1
55.4324 0 1
57.824 0 1
57.9396 0 1
58.0553 0 1
58.1711 0 1
58.2869 0 1
58.4028 0 1
58.5187 0 1
58.6347 0 1
58.7508 0 1
58.8669 0 1
58.983 4562 67.5426
59.0992 5086 71.3162
59.2155 4933 70.2353
59.3318 4864 69.7424
59.4482 4586 67.72
59.5646 4290 65.4981
59.681 3988 63.1506
59.7975 3481 59
59.9141 3024 54.9909
60.0306 2715 52.1057
60.1473 2289 47.8435
60.2639 1964 44.317
60.3807 1765 42.0119
60.4974 1672 40.8901
60.6142 1779 42.1782
60.731 1747 41.7971
60.8479 1954 44.2041
60.9648 2142 46.2817
61.0818 2339 48.3632
61.1987 2480 49.7996
61.3158 2574 50.7346
61.4328 2574 50.7346
61.5499 2599 50.9804
61.667 2574 50.7346
61.7841 2536 50.3587
61.9013 2222 47.1381
62.0185 1971 44.3959
62.1357 1571 39.6358
62.253 1335 36.5377
62.3702 1165 34.1321
62.4875 959 30.9677
62.6049 834 28.8791
62.7222 744 27.2764
62.8396 675 25.9808
62.9569 669 25.865
63.0743 640 25.2982
63.1918 646 25.4165
63.3092 616 24.8193
63.4267 592 24.3311
63.5441 516 22.7156
63.6616 581 24.1039
63.7791 577 24.0208
63.8966 567 23.8118
64.0142 559 23.6432
64.1317 543 23.3024
64.2492 571 23.8956
64.3668 561 23.6854
64.4843 598 24.454
64.6019 523 22.8692
64.7195 535 23.1301
64.837 531 23.0434
64.9546 540 23.2379
65.0722 499 22.3383
65.1898 528 22.9783
65.3074 519 22.7816
65.4249 525 22.9129
65.5425 470 21.6795
65.6601 464 21.5407
65.7777 469 21.6564
65.8952 493 22.2036
66.0128 484 22
66.1304 540 23.2379
66.2479 464 21.5407
66.3655 506 22.4944
66.483 545 23.3452
66.6005 577 24.0208
66.718 588 24.2487
66.8355 546 23.3666
66.953 544 23.3238
67.0705 523 22.8692
67.1879 553 23.516
67.3054 580 24.0832
67.4228 535 23.1301
67.5402 518 22.7596
67.6576 551 23.4734
67.7749 534 23.1084
67.8923 524 22.891
68.0096 546 23.3666
68.1269 464 21.5407
68.2442 537 23.1733
68.3614 508 22.5389
68.4787 536 23.1517
68.5958 511 22.6053
68.713 480 21.9089
68.8302 491 22.1585
68.9473 465 21.5639
69.0643 451 21.2368
69.1814 454 21.3073
69.2984 503 22.4277
69.4154 471 21.7025
69.5323 489 22.1133
69.6492 496 22.2711
69.7661 496 22.2711
69.8829 482 21.9545
69.9997 473 21.7486
70.1165 505 22.4722
70.2332 474 21.7715
70.3499 418 20.445
70.4665 394 19.8494
70.5831 403 20.0749
70.6996 407 20.1742
70.8161 394 19.8494
70.9326 355 18.8414
71.049 328 18.1108
71.1653 280 16.7332
71.2817 325 18.0278
71.3979 272 16.4924
71.5141 222 14.8997
71.6303 243 15.5885
71.7464 175 13.2288
71.8624 0 1
71.9784 0 1
72.0944 0 1
72.2102 0 1
72.3261 0 1
72.4418 0 1
72.5575 0 1
72.6732 0 1
75.1054 0 1
75.2209 0 1
75.3365 0 1
75.4521 0 1
75.5678 0 1
75.6835 0 1
75.7993 0 1
75.9151 0 1
76.031 0 1
76.147 353 18.7883
76.263 345 18.5742
76.3791 421 20.5183
76.4952 387 19.6723
76.6113 480 21.9089
76.7276 453 21.2838
76.8438 423 20.567
76.9601 462 21.4942
77.0765 413 20.3224
77.1929 429 20.7123
77.3093 430 20.7364
77.4258 426 20.6398
77.5423 417 20.4206
77.6589 398 19.9499
77.7755 389 19.7231
77.8921 387 19.6723
78.0088 387 19.6723
78.1256 397 19.9249
78.2423 405 20.1246
78.3591 422 20.5426
78.4759 419 20.4695
78.5928 412 20.2978
78.7097 370 19.2354
78.8266 373 19.3132
78.9436 410 20.2485
79.0606 404 20.0998
79.1776 443 21.0476
79.2946 486 22.0454
79.4117 468 21.6333
79.5288 474 21.7715
79.6459 445 21.095
79.7631 509 22.561
79.8802 460 21.4476
79.9974 481 21.9317
80.1147 420 20.4939
80.2319 480 21.9089
80.3491 470 21.6795
80.4664 484 22
80.5837 456 21.3542
80.701 440 20.9762
80.8183 438 20.9284
80.9357 477 21.8403
81.053 426 20.6398
81.1704 408 20.199
81.2877 406 20.1494
81.4051 403 20.0749
81.5225 409 20.2237
81.6399 380 19.4936
81.7573 430 20.7364
81.8747 385 19.6214
81.9922 415 20.3715
82.1096 422 20.5426
82.227 471 21.7025
82.3444 368 19.1833
82.4619 383 19.5704
82.5793 390 19.7484
82.6967 449 21.1896
82.8142 463 21.5174
82.9316 464 21.5407
83.049 386 19.6469
83.1664 464 21.5407
83.2838 485 22.0227
83.4012 438 20.9284
83.5186 465 21.5639
83.636 443 21.0476
83.7534 449 21.1896
83.8708 472 21.7256
83.9881 476 21.8174
84.1055 497 22.2935
84.2228 455 21.3307
84.3401 435 20.8567
84.4575 406 20.1494
84.5747 431 20.7605
84.692 446 21.1187
84.8093 443 21.0476
84.9265 363 19.0526
85.0437 434 20.8327
85.1609 399 19.975
85.2781 434 20.8327
85.3952 410 20.2485
85.5123 420 20.4939
85.6294 434 20.8327
85.7465 469 21.6564
85.8636 395 19.8746
85.9806 415 20.3715
86.0976 407 20.1742
86.2145 397 19.9249
86.3315 432 20.7846
86.4484 479 21.8861
86.5652 458 21.4009
86.682 447 21.1424
86.7988 480 21.9089
86.9156 480 21.9089
87.0323 483 21.9773
87.149 424 20.5913
87.2657 436 20.8806
87.3823 452 21.2603
87.4988 510 22.5832
87.6154 430 20.7364
87.7318 453 21.2838
87.8483 368 19.1833
87.9647 359 18.9473
88.081 338 18.3848
88.1973 309 17.5784
88.3136 305 17.4642
88.4298 242 15.5563
88.546 256 16
88.6621 185 13.6015
88.7781 226 15.0333
88.8942 0 1
89.0101 0 1
89.126 0 1
89.2419 0 1
89.3577 0 1
89.4734 0 1
89.5891 0 1
89.7047 0 1
89.8203 0 1
89.9358 0 1
92.3269 0 1
92.4424 0 1
92.558 0 1
92.6736 0 1
92.7893 0 1
92.905 0 1
93.0208 0 1
93.1366 0 1
93.2525 0 1
93.3685 0 1
93.4845 0 1
93.6005 365 19.105
93.7167 384 19.5959
93.8328 385 19.6214
93.949 389 19.7231
94.0653 412 20.2978
94.1816 424 20.5913
94.2979 365 19.105
94.4143 423 20.567
94.5307 438 20.9284
94.6472 403 20.0749
94.7637 463 21.5174
94.8803 442 21.0238
94.9969 456 21.3542
95.1135 497 22.2935
95.2302 443 21.0476
95.3469 452 21.2603
95.4637 410 20.2485
95.5805 410 20.2485
95.6973 466 21.587
95.8142 418 20.445
95.9311 462 21.4942
96.048 476 21.8174
96.1649 462 21.4942
96.2819 447 21.1424
96.3989 463 21.5174
96.516 447 21.1424
96.633 455 21.3307
96.7501 510 22.5832
96.8673 469 21.6564
96.9844 473 21.7486
97.1016 490 22.1359
97.2188 457 21.3776
97.336 425 20.6155
97.4532 479 21.8861
97.5704 441 21
97.6877 420 20.4939
97.805 390 19.7484
97.9223 408 20.199
98.0396 429 20.7123
98.1569 452 21.2603
98.2743 455 21.3307
98.3916 437 20.9045
98.509 494 22.2261
98.6264 464 21.5407
98.7438 462 21.4942
98.8612 456 21.3542
98.9786 447 21.1424
99.096 423 20.567
99.2134 480 21.9089
99.3308 457 21.3776
99.4482 479 21.8861
99.5656 530 23.0217
99.6831 511 22.6053
99.8005 517 22.7376
99.9179 505 22.4722
100.035 487 22.0681
100.153 503 22.4277
100.27 488 22.0907
100.388 516 22.7156
100.505 493 22.2036
100.622 514 22.6716
100.74 470 21.6795
100.857 452 21.2603
100.975 462 21.4942
101.092 483 21.9773
101.209 479 21.8861
101.327 457 21.3776
101.444 479 21.8861
101.561 447 21.1424
101.679 486 22.0454
101.796 503 22.4277
101.913 511 22.6053
102.03 519 22.7816
102.148 553 23.516
102.265 551 23.4734
102.382 530 23.0217
102.499 599 24.4745
102.616 539 23.2164
102.733 595 24.3926
102.851 591 24.3105
102.968 623 24.96
103.085 704 26.533
103.202 719 26.8142
103.319 759 27.55
103.436 840 28.9828
103.552 935 30.5778
103.669 1000 31.6228
103.786 1063 32.6037
103.903 1035 32.1714
104.02 1144 33.8231
104.137 1095 33.0908
104.253 1161 34.0735
104.37 1161 34.0735
104.487 1214 34.8425
104.603 1166 34.1467
104.72 1105 33.2415
104.836 1145 33.8378
104.953 1029 32.078
105.069 1030 32.0936
105.186 1016 31.8748
105.302 904 30.0666
105.418 839 28.9655
105.535 829 28.7924
105.651 755 27.4773
105.767 700 26.4575
105.883 659 25.671
105.999 650 25.4951
106.115 0 1
106.231 0 1
106.347 0 1
106.463 0 1
106.579 0 1
106.694 0 1
106.81 0 1
106.926 0 1
107.041 0 1
107.157 0 1
109.576 0 1
109.692 0 1
109.807 0 1
109.923 0 1
110.039 0 1
110.155 0 1
110.27 0 1
110.386 0 1
110.502 0 1
110.618 1127 33.5708
110.735 1840 42.8952
110.851 2155 46.422
110.967 2272 47.6655
111.083 2357 48.5489
111.199 2343 48.4045
111.316 2432 49.3153
111.432 2395 48.9387
111.549 2552 50.5173
111.665 2458 49.5782
111.782 2489 49.8899
111.898 2517 50.1697
112.015 2705 52.0096
112.132 2717 52.1249
112.248 2879 53.6563
112.365 3028 55.0273
112.482 3255 57.0526
112.599 3438 58.6345
112.716 3641 60.3407
112.832 3979 63.0793
112.949 4042 63.5767
113.066 4154 64.4515
113.183 4295 65.5362
113.3 4526 67.2756
113.417 4061 63.726
113.534 3394 58.258
113.652 2800 52.915
113.769 2633 51.3128
113.886 2961 54.4151
114.003 3450 58.7367
114.12 4789 69.2026
114.238 5538 74.4177
114.355 5632 75.0467
114.472 5560 74.5654
114.589 5431 73.6953
114.707 5230 72.3187
114.824 5224 72.2772
114.942 4861 69.7209
115.059 5010 70.7814
115.176 4774 69.0941
115.294 4175 64.6142
115.411 3795 61.6036
115.529 3344 57.8273
115.646 2927 54.1018
115.764 2631 51.2933
115.881 2193 46.8295
115.999 1808 42.5206
116.116 1475 38.4057
116.234 1203 34.6843
116.351 906 30.0998
116.469 650 25.4951
116.586 510 22.5832
116.704 439 20.9523
116.821 456 21.3542
116.939 464 21.5407
117.056 401 20.025
117.174 394 19.8494
117.291 358 18.9209
117.409 355 18.8414
117.526 387 19.6723
117.644 403 20.0749
117.761 406 20.1494
117.879 401 20.025
117.996 392 19.799
118.114 446 21.1187
118.231 463 21.5174
118.349 418 20.445
118.466 434 20.8327
118.584 464 21.5407
118.701 443 21.0476
118.819 429 20.7123
118.936 404 20.0998
119.053 433 20.8087
119.171 417 20.4206
119.288 408 20.199
119.405 416 20.3961
119.523 411 20.2731
119.64 394 19.8494
119.757 419 20.4695
119.875 375 19.3649
119.992 396 19.8997
120.109 392 19.799
120.226 363 19.0526
120.343 372 19.2873
120.46 382 19.5448
120.578 373 19.3132
120.695 360 18.9737
120.812 343 18.5203
120.929 344 18.5472
121.046 344 18.5472
121.163 349 18.6815
121.279 345 18.5742
121.396 348 18.6548
121.513 377 19.4165
121.63 355 18.8414
121.747 363 19.0526
121.863 389 19.7231
121.98 337 18.3576
122.097 339 18.412
122.213 335 18.303
122.33 350 18.7083
122.446 328 18.1108
122.563 273 16.5227
122.679 273 16.5227
122.795 250 15.8114
122.912 246 15.6844
123.028 247 15.7162
123.144 238 15.4272
123.26 246 15.6844
123.377 0 1
123.493 0 1
123.609 0 1
123.725 0 1
123.84 0 1
123.956 0 1
124.072 0 1
124.188 0 1
124.303 0 1
124.419 0 1
126.852 0 1
126.968 0 1
127.083 0 1
127.199 0 1
127.315 0 1
127.431 0 1
127.547 0 1
127.663 0 1
127.779 0 1
127.895 0 1
128.011 0 1
128.127 0 1
128.243 0 1
128.359 416 20.3961
128.476 489 22.1133
128.592 464 21.5407
128.708 447 21.1424
128.825 494 22.2261
128.941 488 22.0907
129.058 461 21.4709
129.174 479 21.8861
129.291 454 21.3073
129.408 445 21.095
129.524 449 21.1896
129.641 476 21.8174
129.758 472 21.7256
129.875 426 20.6398
129.992 412 20.2978
130.108 417 20.4206
130.225 402 20.0499
130.342 417 20.4206
130.459 431 20.7605
130.576 481 21.9317
130.693 530 23.0217
130.81 546 23.3666
130.928 578 24.0416
131.045 572 23.9165
131.162 629 25.0799
131.279 646 25.4165
131.396 676 26
131.513 711 26.6646
131.631 683 26.1343
131.748 704 26.533
131.865 763 27.6225
131.983 840 28.9828
132.1 909 30.1496
132.217 922 30.3645
132.335 949 30.8058
132.452 993 31.5119
132.57 1066 32.6497
132.687 1015 31.8591
132.804 1015 31.8591
132.922 1036 32.187
133.039 1086 32.9545
133.157 1101 33.1813
133.274 1103 33.2114
133.392 1051 32.4191
133.509 1004 31.686
133.627 1063 32.6037
133.744 1001 31.6386
133.862 1035 32.1714
133.979 995 31.5436
134.097 1015 31.8591
134.214 1011 31.7962
134.332 1099 33.1512
134.449 1036 32.187
134.567 1090 33.0151
134.684 1002 31.6544
134.802 1051 32.4191
134.919 1077 32.8177
135.037 1017 31.8904
135.154 1032 32.1248
135.272 981 31.3209
135.389 966 31.0805
135.507 956 30.9192
135.624 1054 32.4654
135.742 1118 33.4365
135.859 1047 32.3574
135.977 1095 33.0908
136.094 1162 34.0881
136.211 1052 32.4345
136.329 1112 33.3467
136.446 1054 32.4654
136.564 1090 33.0151
136.681 1027 32.0468
136.798 1059 32.5423
136.915 1037 32.2025
137.033 1128 33.5857
137.15 1013 31.8277
137.267 979 31.289
137.384 1009 31.7648
137.502 915 30.249
137.619 959 30.9677
137.736 983 31.3528
137.853 978 31.273
137.97 1011 31.7962
138.087 1031 32.1092
138.204 1032 32.1248
138.321 1020 31.9374
138.438 1056 32.4962
138.555 1036 32.187
138.672 1018 31.9061
138.788 947 30.7734
138.905 941 30.6757
139.022 881 29.6816
139.139 952 30.8545
139.255 890 29.8329
139.372 879 29.6479
139.488 846 29.0861
139.605 835 28.8964
139.721 795 28.1957
139.838 725 26.9258
139.954 741 27.2213
140.071 604 24.5764
140.187 594 24.3721
140.303 557 23.6008
140.419 536 23.1517
140.535 514 22.6716
140.652 500 22.3607
140.768 0 1
140.884 0 1
141 0 1
141.115 0 1
141.231 0 1
141.347 0 1
141.463 0 1
141.578 0 1
141.694 0 1
144.104 0 1
144.219 0 1
144.335 0 1
144.45 0 1
144.566 0 1
144.682 0 1
144.798 0 1
144.914 0 1
145.03 0 1
145.146 796 28.2135
145.262 840 28.9828
145.378 841 29
145.494 851 29.1719
145.61 879 29.6479
145.726 917 30.282
145.842 912 30.1993
145.959 878 29.6311
146.075 869 29.4788
146.192 860 29.3258
146.308 864 29.3939
146.425 838 28.9482
146.541 839 28.9655
146.658 885 29.7489
146.774 946 30.7571
146.891 872 29.5296
147.008 875 29.5804
147.125 821 28.6531
147.241 918 30.2985
147.358 925 30.4138
147.475 998 31.5911
147.592 986 31.4006
147.709 937 30.6105
147.826 886 29.7658
147.943 914 30.2324
148.06 906 30.0998
148.177 954 30.8869
148.294 1022 31.9687
148.411 1041 32.2645
148.528 1032 32.1248
148.645 952 30.8545
148.762 960 30.9839
148.88 908 30.133
148.997 969 31.1288
149.114 1028 32.0624
149.231 973 31.1929
149.349 1032 32.1248
149.466 1034 32.1559
149.583 1076 32.8024
149.701 981 31.3209
149.818 991 31.4802
149.935 1124 33.5261
150.053 1073 32.7567
150.17 1034 32.1559
150.287 949 30.8058
150.405 921 30.348
150.522 984 31.3688
150.64 919 30.315
150.757 946 30.7571
150.875 975 31.225
150.992 978 31.273
151.11 1019 31.9218
151.227 991 31.4802
151.344 916 30.2655
151.462 885 29.7489
151.579 862 29.3598
151.697 949 30.8058
151.814 974 31.209
151.932 988 31.4325
152.049 1026 32.0312
152.167 1092 33.0454
152.284 1072 32.7414
152.402 1091 33.0303
152.519 1081 32.8786
152.636 1115 33.3916
152.754 1109 33.3017
152.871 1163 34.1028
152.989 1089 33
153.106 1077 32.8177
153.223 1179 34.3366
153.341 1136 33.7046
153.458 1135 33.6898
153.575 1134 33.6749
153.693 1171 34.2199
153.81 1167 34.1614
153.927 1290 35.9166
154.044 1310 36.1939
154.162 1433 37.855
154.279 1596 39.95
154.396 1893 43.5086
154.513 1909 43.6921
154.63 2282 47.7703
154.747 2590 50.892
154.864 2729 52.2398
154.981 3014 54.8999
155.098 3140 56.0357
155.215 3266 57.1489
155.332 3538 59.4811
155.449 3740 61.1555
155.566 4009 63.3167
155.683 4153 64.4438
155.8 4268 65.3299
155.917 4384 66.2118
156.033 4439 66.6258
156.15 0 1
156.267 0 1
156.383 0 1
156.5 0 1
156.617 0 1
156.733 0 1
156.85 0 1
156.966 0 1
157.082 0 1
157.199 0 1
157.315 0 1
157.431 0 1
157.547 0 1
157.664 0 1
157.78 0 1
157.896 0 1
158.012 0 1
158.128 0 1
158.244 0 1
158.359 0 1
158.475 0 1
158.591 0 1
158.706 0 1
