
6.15755 0 1
6.2731 0 1
6.3887 0 1
6.50437 0 1
6.62009 0 1
6.73587 0 1
6.8517 0 1
6.96759 0 1
7.08353 0 1
7.19952 0 1
7.31557 0 1
7.43166 0 1
7.54781 0 1
7.664 0 1
7.78024 0 1
7.89653 0 1
8.01286 0 1
8.12924 0 1
8.24567 0 1
8.36213 0 1
8.47864 0 1
8.59519 0 1
8.71178 0 1
8.82841 0 1
8.94508 0 1
9.06179 0 1
9.17853 0 1
9.29531 0 1
9.41212 0 1
9.52897 0 1
9.64584 0 1
9.76276 0 1
9.8797 0 1
9.99667 0 1
10.1137 0 1
10.2307 0 1
10.3478 0 1
10.4648 0 1
10.5819 0 1
10.6991 0 1
10.8162 0 1
10.9334 0 1
11.0506 0 1
11.1678 0 1
11.285 0 1
11.4023 0 1
11.5196 0 1
11.6369 0 1
11.7542 0 1
11.8715 0 1
11.9888 0 1
12.1062 0 1
12.2235 0 1
12.3409 0 1
12.4582 0 1
12.5756 0 1
12.693 0 1
12.8104 0 1
12.9278 0 1
13.0452 0 1
13.1626 0 1
13.28 0 1
13.3974 0 1
13.5149 0 1
13.6323 0 1
13.7497 0 1
13.8671 0 1
13.9845 0 1
14.1019 0 1
14.2193 0 1
14.3367 0 1
14.4541 0 1
14.5714 0 1
14.6888 0 1
14.8062 0 1
14.9235 0 1
15.0408 2254 47.4763
15.1581 2335 48.3218
15.2755 2452 49.5177
15.3927 2501 50.01
15.51 2409 49.0816
15.6273 2489 49.8899
15.7445 2486 49.8598
15.8617 2384 48.8262
15.9789 2326 48.2286
16.0961 2316 48.1248
16.2132 2375 48.734
16.3304 2475 49.7494
16.4475 2611 51.0979
16.5646 2658 51.5558
16.6816 2725 52.2015
16.7986 2589 50.8822
16.9156 2681 51.7784
17.0326 2723 52.1824
17.1496 2628 51.264
17.2665 2617 51.1566
17.3833 2429 49.2849
17.5002 2339 48.3632
17.617 2307 48.0312
17.7338 2305 48.0104
17.8505 2297 47.927
17.9672 2498 49.98
18.0839 2439 49.3862
18.2005 2574 50.7346
18.3171 2703 51.9904
18.4337 2684 51.8073
18.5502 2642 51.4004
18.6666 2719 52.144
18.7831 2764 52.5738
18.8994 2931 54.1387
19.0158 2734 52.2877
19.1321 2598 50.9706
19.2483 2451 49.5076
19.3645 2432 49.3153
19.4806 2284 47.7912
19.5967 2354 48.518
19.7128 2420 49.1935
19.8288 2437 49.366
19.9447 2264 47.5815
20.0606 0 1
20.1764 0 1
20.2922 0 1
20.4079 0 1
20.5236 0 1
20.6392 0 1
20.7548 0 1
20.8702 0 1
23.3078 0 1
23.4233 0 1
23.539 0 1
23.6547 0 1
23.7704 0 1
23.8862 0 1
24.0021 0 1
24.118 0 1
24.234 0 1
24.35 0 1
24.4661 2357 48.5489
24.5822 2261 47.55
24.6984 2309 48.0521
24.8146 2463 49.6286
24.9309 2561 50.6063
25.0472 2699 51.9519
25.1636 2751 52.45
25.28 2987 54.6535
25.3965 2857 53.4509
25.513 2857 53.4509
25.6296 2766 52.5928
25.7462 2855 53.4322
25.8628 2830 53.1977
25.9795 2718 52.1344
26.0962 2563 50.6261
26.213 2592 50.9117
26.3298 2428 49.2747
26.4466 2350 48.4768
26.5635 2478 49.7795
26.6804 2583 50.8232
26.7973 2586 50.8527
26.9143 2669 51.6624
27.0313 2652 51.4976
27.1483 2851 53.3948
27.2653 2788 52.8015
27.3824 2788 52.8015
27.4996 2816 53.066
27.6167 2757 52.5071
27.7339 2661 51.5849
27.8511 2526 50.2593
27.9683 2447 49.4672
28.0855 2251 47.4447
28.2028 2403 49.0204
28.3201 2435 49.3457
28.4374 2510 50.0999
28.5547 2570 50.6952
28.6721 2769 52.6213
28.7894 2760 52.5357
28.9068 2607 51.0588
29.0242 2653 51.5073
29.1416 2710 52.0577
29.259 2679 51.7591
29.3764 2587 50.8626
29.4939 2535 50.3488
29.6113 2345 48.4252
29.7288 2235 47.2758
29.8463 2108 45.913
29.9638 2108 45.913
30.0812 2112 45.9565
30.1987 2264 47.5815
30.3162 2419 49.1833
30.4337 2496 49.96
30.5512 2669 51.6624
30.6687 2519 50.1896
30.7862 2618 51.1664
30.9037 2685 51.817
31.0212 2624 51.225
31.1387 2714 52.0961
31.2562 2541 50.4083
31.3737 2441 49.4065
31.4912 2322 48.1871
31.6087 2190 46.7974
31.7262 2139 46.2493
31.8436 2190 46.7974
31.9611 2335 48.3218
32.0785 2507 50.07
32.1959 2575 50.7445
32.3134 2607 51.0588
32.4308 2578 50.774
32.5482 2471 49.7092
32.6655 2515 50.1498
32.7829 2567 50.6656
32.9002 2469 49.689
33.0176 2436 49.3559
33.1349 2433 49.3254
33.2522 2305 48.0104
33.3694 2068 45.4753
33.4867 2050 45.2769
33.6039 2027 45.0222
33.7211 1935 43.9886
33.8383 2047 45.2438
33.9554 2221 47.1275
34.0725 2169 46.5725
34.1896 2279 47.7389
34.3067 2343 48.4045
34.4237 2416 49.1528
34.5407 2482 49.8197
34.6577 2497 49.97
34.7746 2439 49.3862
34.8915 2383 48.816
35.0084 2276 47.7074
35.1252 2218 47.0956
35.242 2103 45.8585
35.3587 1960 44.2719
35.4755 2030 45.0555
35.5921 2145 46.3141
35.7088 2162 46.4973
35.8254 2304 48
35.9419 2370 48.6826
36.0584 2451 49.5076
36.1749 2503 50.03
36.2913 2465 49.6488
36.4077 2454 49.5379
36.524 2425 49.2443
36.6403 2337 48.3425
36.7565 2352 48.4974
36.8727 2191 46.8081
36.9889 2098 45.8039
37.1049 1959 44.2606
37.221 0 1
37.3369 0 1
37.4529 0 1
37.5687 0 1
37.6845 0 1
37.8003 0 1
37.916 0 1
38.0316 0 1
38.1472 0 1
40.5851 0 1
40.7008 0 1
40.8164 0 1
40.9322 0 1
41.048 0 1
41.1639 0 1
41.2798 0 1
41.3958 0 1
41.5118 0 1
41.6279 0 1
41.744 1858 43.1045
41.8602 1970 44.3847
41.9765 1851 43.0232
42.0928 1893 43.5086
42.2091 1631 40.3856
42.3255 1564 39.5474
42.4419 1498 38.704
42.5584 1471 38.3536
42.675 1514 38.9102
42.7915 1544 39.2938
42.9081 1644 40.5463
43.0248 1628 40.3485
43.1415 1792 42.332
43.2582 1784 42.2374
43.375 1732 41.6173
43.4918 1743 41.7493
43.6087 1700 41.2311
43.7256 1720 41.4729
43.8425 1656 40.694
43.9595 1635 40.4351
44.0765 1529 39.1024
44.1935 1465 38.2753
44.3106 1367 36.973
44.4277 1308 36.1663
44.5448 1391 37.2961
44.6619 1398 37.3898
44.7791 1505 38.7943
44.8963 1474 38.3927
45.0136 1504 38.7814
45.1308 1476 38.4187
45.2481 1429 37.8021
45.3654 1348 36.7151
45.4827 1408 37.5233
45.6001 1285 35.8469
45.7174 1139 33.7491
45.8348 1162 34.0881
45.9522 1087 32.9697
46.0697 1001 31.6386
46.1871 1011 31.7962
46.3046 1027 32.0468
46.422 1169 34.1906
46.5395 1137 33.7194
46.657 1137 33.7194
46.7745 1278 35.7491
46.892 1133 33.6601
47.0096 1159 34.0441
47.1271 1158 34.0294
47.2446 1188 34.4674
47.3622 1164 34.1174
47.4797 1141 33.7787
47.5973 1079 32.8481
47.7149 1082 32.8938
47.8324 938 30.6268
47.95 942 30.692
48.0675 907 30.1164
48.1851 957 30.9354
48.3027 1032 32.1248
48.4202 1051 32.4191
48.5378 1091 33.0303
48.6554 1113 33.3617
48.7729 1053 32.45
48.8904 1080 32.8634
49.008 1068 32.6803
49.1255 1094 33.0757
49.243 1004 31.686
49.3605 943 30.7083
49.478 958 30.9516
49.5955 891 29.8496
49.713 915 30.249
49.8304 974 31.209
49.9479 1086 32.9545
50.0653 1152 33.9411
50.1827 1229 35.0571
50.3001 1246 35.2987
50.4175 1298 36.0278
50.5348 1283 35.819
50.6521 1473 38.3797
50.7694 1501 38.7427
50.8867 1460 38.2099
51.004 1545 39.3065
51.1212 1565 39.5601
51.2384 1496 38.6782
51.3556 1526 39.064
51.4727 1490 38.6005
51.5899 1593 39.9124
51.707 1721 41.4849
51.824 1823 42.6966
51.9411 2025 45
52.0581 2084 45.6508
52.175 2188 46.7761
52.2919 2259 47.5289
52.4088 2313 48.0937
52.5257 2333 48.3011
52.6425 2334 48.3115
52.7593 2316 48.1248
52.876 2137 46.2277
52.9927 2093 45.7493
53.1094 1919 43.8064
53.226 1864 43.1741
53.3426 1817 42.6263
53.4591 1963 44.3058
53.5756 2227 47.1911
53.692 2446 49.4571
53.8084 2575 50.7445
53.9248 2596 50.951
54.0411 2693 51.8941
54.1573 2838 53.2729
54.2735 0 1
54.3896 0 1
54.5057 0 1
54.6217 0 1
54.7377 0 1
54.8537 0 1
54.9695 0 1
55.0853 0 1
55.2011 0 1
55.3168 0 1
55.4324 0 1
57.824 0 1
57.9396 0 1
58.0553 0 1
58.1711 0 1
58.2869 0 1
58.4028 0 1
58.5187 0 1
58.6347 0 1
58.7508 0 1
58.8669 0 1
58.983 2305 48.0104
59.0992 2528 50.2792
59.2155 2569 50.6853
59.3318 2613 51.1175
59.4482 2640 51.3809
59.5646 2607 51.0588
59.681 2661 51.5849
59.7975 2668 51.6527
59.9141 2540 50.3984
60.0306 2533 50.3289
60.1473 2488 49.8799
60.2639 2427 49.2646
60.3807 2383 48.816
60.4974 2456 49.558
60.6142 2544 50.4381
60.731 2650 51.4782
60.8479 2728 52.2303
60.9648 2641 51.3907
61.0818 2667 51.643
61.1987 2615 51.1371
61.3158 2579 50.7839
61.4328 2472 49.7192
61.5499 2276 47.7074
61.667 2186 46.7547
61.7841 1928 43.909
61.9013 1825 42.72
62.0185 1898 43.566
62.1357 1902 43.6119
62.253 2119 46.0326
62.3702 2259 47.5289
62.4875 2437 49.366
62.6049 2487 49.8698
62.7222 2350 48.4768
62.8396 2466 49.6588
62.9569 2546 50.4579
63.0743 2442 49.4166
63.1918 2472 49.7192
63.3092 2451 49.5076
63.4267 2462 49.6185
63.5441 2331 48.2804
63.6616 2219 47.1063
63.7791 2100 45.8258
63.8966 2132 46.1736
64.0142 2194 46.8402
64.1317 2307 48.0312
64.2492 2316 48.1248
64.3668 2387 48.8569
64.4843 2355 48.5283
64.6019 2374 48.7237
64.7195 2322 48.1871
64.837 2255 47.4868
64.9546 2250 47.4342
65.0722 2178 46.669
65.1898 1951 44.1701
65.3074 1741 41.7253
65.4249 1636 40.4475
65.5425 1558 39.4715
65.6601 1619 40.2368
65.7777 1763 41.9881
65.8952 1960 44.2719
66.0128 2083 45.6399
66.1304 2171 46.594
66.2479 2175 46.6369
66.3655 2307 48.0312
66.483 2360 48.5798
66.6005 2348 48.4562
66.718 2334 48.3115
66.8355 2434 49.3356
66.953 2438 49.3761
67.0705 2397 48.9592
67.1879 2472 49.7192
67.3054 2401 49
67.4228 2351 48.4871
67.5402 2260 47.5395
67.6576 2296 47.9166
67.7749 2531 50.309
67.8923 2655 51.5267
68.0096 2754 52.4786
68.1269 2842 53.3104
68.2442 2917 54.0093
68.3614 2965 54.4518
68.4787 2904 53.8888
68.5958 2895 53.8052
68.713 2904 53.8888
68.8302 2691 51.8748
68.9473 2421 49.2037
69.0643 2203 46.9361
69.1814 2145 46.3141
69.2984 2103 45.8585
69.4154 2251 47.4447
69.5323 2589 50.8822
69.6492 2752 52.4595
69.7661 2988 54.6626
69.8829 3153 56.1516
69.9997 3217 56.7186
70.1165 3162 56.2317
70.2332 3204 56.6039
70.3499 3455 58.7792
70.4665 3428 58.5491
70.5831 3249 57
70.6996 3357 57.9396
70.8161 3318 57.6021
70.9326 3220 56.745
71.049 3236 56.8859
71.1653 2835 53.2447
71.2817 2834 53.2353
71.3979 2816 53.066
71.5141 2948 54.2955
71.6303 3023 54.9818
71.7464 2929 54.1202
71.8624 0 1
71.9784 0 1
72.0944 0 1
72.2102 0 1
72.3261 0 1
72.4418 0 1
72.5575 0 1
72.6732 0 1
75.1054 0 1
75.2209 0 1
75.3365 0 1
75.4521 0 1
75.5678 0 1
75.6835 0 1
75.7993 0 1
75.9151 0 1
76.031 0 1
76.147 2343 48.4045
76.263 2446 49.4571
76.3791 2366 48.6415
76.4952 2138 46.2385
76.6113 2206 46.9681
76.7276 2254 47.4763
76.8438 2479 49.7896
76.9601 2419 49.1833
77.0765 2460 49.5984
77.1929 2362 48.6004
77.3093 2394 48.9285
77.4258 2419 49.1833
77.5423 2215 47.0638
77.6589 2193 46.8295
77.7755 1983 44.5309
77.8921 1742 41.7373
78.0088 1645 40.5586
78.1256 1489 38.5876
78.2423 1460 38.2099
78.3591 1574 39.6737
78.4759 1822 42.6849
78.5928 1977 44.4635
78.7097 2109 45.9239
78.8266 2093 45.7493
78.9436 2228 47.2017
79.0606 2187 46.7654
79.1776 2200 46.9042
79.2946 2176 46.6476
79.4117 2267 47.613
79.5288 2275 47.697
79.6459 2268 47.6235
79.7631 2283 47.7807
79.8802 2178 46.669
79.9974 2180 46.6905
80.1147 2063 45.4203
80.2319 2009 44.8219
80.3491 2110 45.9347
80.4664 2232 47.244
80.5837 2318 48.1456
80.701 2306 48.0208
80.8183 2278 47.7284
80.9357 2283 47.7807
81.053 2200 46.9042
81.1704 2270 47.6445
81.2877 2160 46.4758
81.4051 2080 45.607
81.5225 1877 43.3244
81.6399 1675 40.9268
81.7573 1570 39.6232
81.8747 1510 38.8587
81.9922 1484 38.5227
82.1096 1712 41.3763
82.227 1917 43.7836
82.3444 2012 44.8553
82.4619 1974 44.4297
82.5793 2255 47.4868
82.6967 2180 46.6905
82.8142 2220 47.1169
82.9316 2269 47.634
83.049 2317 48.1352
83.1664 2332 48.2908
83.2838 2263 47.571
83.4012 2291 47.8644
83.5186 2276 47.7074
83.636 2274 47.6865
83.7534 2083 45.6399
83.8708 1960 44.2719
83.9881 2180 46.6905
84.1055 2200 46.9042
84.2228 2410 49.0918
84.3401 2402 49.0102
84.4575 2485 49.8498
84.5747 2421 49.2037
84.692 2341 48.3839
84.8093 2365 48.6313
84.9265 2326 48.2286
85.0437 2102 45.8476
85.1609 1896 43.5431
85.2781 1676 40.939
85.3952 1585 39.8121
85.5123 1574 39.6737
85.6294 1744 41.7612
85.7465 2071 45.5082
85.8636 2017 44.911
85.9806 2246 47.392
86.0976 2343 48.4045
86.2145 2404 49.0306
86.3315 2407 49.0612
86.4484 2573 50.7247
86.5652 2580 50.7937
86.682 2591 50.9019
86.7988 2666 51.6333
86.9156 2576 50.7543
87.0323 2597 50.9608
87.149 2569 50.6853
87.2657 2487 49.8698
87.3823 2455 49.548
87.4988 2480 49.7996
87.6154 2642 51.4004
87.7318 2785 52.7731
87.8483 2960 54.4059
87.9647 3043 55.1634
88.081 3107 55.7405
88.1973 3066 55.3715
88.3136 3116 55.8211
88.4298 3032 55.0636
88.546 3015 54.909
88.6621 2583 50.8232
88.7781 2433 49.3254
88.8942 0 1
89.0101 0 1
89.126 0 1
89.2419 0 1
89.3577 0 1
89.4734 0 1
89.5891 0 1
89.7047 0 1
89.8203 0 1
89.9358 0 1
92.3269 0 1
92.4424 0 1
92.558 0 1
92.6736 0 1
92.7893 0 1
92.905 0 1
93.0208 0 1
93.1366 0 1
93.2525 0 1
93.3685 0 1
93.4845 0 1
93.6005 3638 60.3158
93.7167 3694 60.7783
93.8328 3525 59.3717
93.949 3257 57.0701
94.0653 2978 54.5711
94.1816 2827 53.1695
94.2979 2658 51.5558
94.4143 2606 51.049
94.5307 2747 52.4118
94.6472 2905 53.8981
94.7637 3343 57.8187
94.8803 3273 57.2101
94.9969 3545 59.5399
95.1135 3679 60.6548
95.2302 3819 61.7981
95.3469 3923 62.6339
95.4637 3968 62.9921
95.5805 4138 64.3273
95.6973 4054 63.671
95.8142 4285 65.4599
95.9311 4269 65.3376
96.048 4109 64.1015
96.1649 4176 64.622
96.2819 3943 62.7933
96.3989 3889 62.3618
96.516 3763 61.3433
96.633 4055 63.6789
96.7501 4179 64.6452
96.8673 4232 65.0538
96.9844 4402 66.3476
97.1016 4502 67.0969
97.2188 4280 65.4217
97.336 4343 65.9014
97.4532 4264 65.2993
97.5704 3998 63.2297
97.6877 3473 58.9322
97.805 3227 56.8067
97.9223 3006 54.827
98.0396 2771 52.6403
98.1569 2846 53.3479
98.2743 2801 52.9245
98.3916 2857 53.4509
98.509 3244 56.9561
98.6264 3376 58.1034
98.7438 3458 58.8048
98.8612 3607 60.0583
98.9786 3748 61.2209
99.096 3736 61.1228
99.2134 3883 62.3137
99.3308 3757 61.2944
99.4482 3679 60.6548
99.5656 3561 59.6741
99.6831 3516 59.2959
99.8005 3600 60
99.9179 3417 58.4551
100.035 3231 56.8419
100.153 3147 56.0981
100.27 3262 57.1139
100.388 3485 59.0339
100.505 3469 58.8982
100.622 3456 58.7878
100.74 3408 58.3781
100.857 3395 58.2666
100.975 3284 57.3062
101.092 3300 57.4456
101.209 3129 55.9375
101.327 2903 53.8795
101.444 2618 51.1664
101.561 2413 49.1223
101.679 2331 48.2804
101.796 2281 47.7598
101.913 2272 47.6655
102.03 2457 49.5681
102.148 2604 51.0294
102.265 2529 50.2892
102.382 3142 56.0535
102.499 3176 56.356
102.616 3189 56.4712
102.733 3214 56.6922
102.851 3223 56.7715
102.968 3155 56.1694
103.085 3190 56.4801
103.202 3167 56.2761
103.319 3135 55.9911
103.436 3022 54.9727
103.552 2923 54.0648
103.669 2920 54.037
103.786 2942 54.2402
103.903 3024 54.9909
104.02 3089 55.5788
104.137 3080 55.4977
104.253 3110 55.7674
104.37 3067 55.3805
104.487 3015 54.909
104.603 3073 55.4346
104.72 2885 53.7122
104.836 2655 51.5267
104.953 2392 48.9081
105.069 2243 47.3603
105.186 2079 45.5961
105.302 1981 44.5084
105.418 2068 45.4753
105.535 2177 46.6583
105.651 2277 47.7179
105.767 2423 49.224
105.883 2472 49.7192
105.999 2616 51.1468
106.115 0 1
106.231 0 1
106.347 0 1
106.463 0 1
106.579 0 1
106.694 0 1
106.81 0 1
106.926 0 1
107.041 0 1
107.157 0 1
109.576 0 1
109.692 0 1
109.807 0 1
109.923 0 1
110.039 0 1
110.155 0 1
110.27 0 1
110.386 0 1
110.502 0 1
110.618 1739 41.7013
110.735 1841 42.9069
110.851 2000 44.7214
110.967 2099 45.8148
111.083 2158 46.4543
111.199 2301 47.9687
111.316 2307 48.0312
111.432 2359 48.5695
111.549 2334 48.3115
111.665 2339 48.3632
111.782 2298 47.9375
111.898 2228 47.2017
112.015 2169 46.5725
112.132 2079 45.5961
112.248 2158 46.4543
112.365 2136 46.2169
112.482 2330 48.2701
112.599 2355 48.5283
112.716 2324 48.2079
112.832 2289 47.8435
112.949 2321 48.1768
113.066 2315 48.1144
113.183 2301 47.9687
113.3 2331 48.2804
113.417 2112 45.9565
113.534 1914 43.7493
113.652 1771 42.0833
113.769 1747 41.7971
113.886 1616 40.1995
114.003 1675 40.9268
114.12 1749 41.821
114.238 1864 43.1741
114.355 2034 45.0999
114.472 2073 45.5302
114.589 2109 45.9239
114.707 2200 46.9042
114.824 2252 47.4552
114.942 2334 48.3115
115.059 2366 48.6415
115.176 2286 47.8121
115.294 2309 48.0521
115.411 2222 47.1381
115.529 2079 45.5961
115.646 2090 45.7165
115.764 2035 45.111
115.881 2011 44.8442
115.999 2152 46.3897
116.116 2171 46.594
116.234 2256 47.4974
116.351 2233 47.2546
116.469 2252 47.4552
116.586 2272 47.6655
116.704 2178 46.669
116.821 2138 46.2385
116.939 2133 46.1844
117.056 1955 44.2154
117.174 1785 42.2493
117.291 1576 39.6989
117.409 1576 39.6989
117.526 1463 38.2492
117.644 1527 39.0768
117.761 1761 41.9643
117.879 1805 42.4853
117.996 1933 43.9659
118.114 2003 44.7549
118.231 2125 46.0977
118.349 2162 46.4973
118.466 2123 46.076
118.584 2190 46.7974
118.701 2223 47.1487
118.819 2203 46.9361
118.936 2201 46.9148
119.053 2185 46.744
119.171 2143 46.2925
119.288 2098 45.8039
119.405 2158 46.4543
119.523 2133 46.1844
119.64 2230 47.2229
119.757 2215 47.0638
119.875 2248 47.4131
119.992 2255 47.4868
120.109 2378 48.7647
120.226 2384 48.8262
120.343 2369 48.6724
120.46 2384 48.8262
120.578 2396 48.949
120.695 2312 48.0833
120.812 2115 45.9891
120.929 1996 44.6766
121.046 1806 42.4971
121.163 1659 40.7308
121.279 1759 41.9404
121.396 1914 43.7493
121.513 2035 45.111
121.63 2249 47.4236
121.747 2345 48.4252
121.863 2411 49.1019
121.98 2554 50.5371
122.097 2618 51.1664
122.213 2682 51.788
122.33 2631 51.2933
122.446 2712 52.0769
122.563 2671 51.6817
122.679 2713 52.0865
122.795 2703 51.9904
122.912 2652 51.4976
123.028 2491 49.9099
123.144 2491 49.9099
123.26 2567 50.6656
123.377 0 1
123.493 0 1
123.609 0 1
123.725 0 1
123.84 0 1
123.956 0 1
124.072 0 1
124.188 0 1
124.303 0 1
124.419 0 1
126.852 0 1
126.968 0 1
127.083 0 1
127.199 0 1
127.315 0 1
127.431 0 1
127.547 0 1
127.663 0 1
127.779 0 1
127.895 0 1
128.011 0 1
128.127 0 1
128.243 0 1
128.359 2836 53.2541
128.476 2720 52.1536
128.592 2778 52.7067
128.708 2996 54.7357
128.825 3043 55.1634
128.941 3059 55.3082
129.058 2993 54.7083
129.174 3011 54.8726
129.291 3009 54.8544
129.408 2936 54.1849
129.524 2965 54.4518
129.641 2819 53.0943
129.758 2686 51.8266
129.875 2511 50.1099
129.992 2267 47.613
130.108 2041 45.1774
130.225 1794 42.3556
130.342 1843 42.9302
130.459 1889 43.4626
130.576 2039 45.1553
130.693 2213 47.0425
130.81 2349 48.4665
130.928 2419 49.1833
131.045 2538 50.3786
131.162 2565 50.6458
131.279 2542 50.4183
131.396 2565 50.6458
131.513 2507 50.07
131.631 2403 49.0204
131.748 2402 49.0102
131.865 2354 48.518
131.983 2339 48.3632
132.1 2306 48.0208
132.217 2430 49.295
132.335 2370 48.6826
132.452 2416 49.1528
132.57 2395 48.9387
132.687 2368 48.6621
132.804 2411 49.1019
132.922 2408 49.0714
133.039 2360 48.5798
133.157 2414 49.1325
133.274 2283 47.7807
133.392 2137 46.2277
133.509 1953 44.1928
133.627 1720 41.4729
133.744 1565 39.5601
133.862 1482 38.4968
133.979 1603 40.0375
134.097 1651 40.6325
134.214 1819 42.6497
134.332 1795 42.3674
134.449 2001 44.7325
134.567 2038 45.1442
134.684 2012 44.8553
134.802 1960 44.2719
134.919 2001 44.7325
135.037 1907 43.6692
135.154 1934 43.9773
135.272 1819 42.6497
135.389 1787 42.2729
135.507 1879 43.3474
135.624 1853 43.0465
135.742 1808 42.5206
135.859 1842 42.9185
135.977 1833 42.8135
136.094 1895 43.5316
136.211 1952 44.1814
136.329 1938 44.0227
136.446 1826 42.7317
136.564 1767 42.0357
136.681 1847 42.9767
136.798 1841 42.9069
136.915 1811 42.5558
137.033 1690 41.1096
137.15 1488 38.5746
137.267 1466 38.2884
137.384 1357 36.8375
137.502 1267 35.5949
137.619 1346 36.6879
137.736 1511 38.8716
137.853 1624 40.2989
137.97 1715 41.4126
138.087 1845 42.9535
138.204 1927 43.8976
138.321 1938 44.0227
138.438 2005 44.7772
138.555 1975 44.441
138.672 2028 45.0333
138.788 2019 44.9333
138.905 1847 42.9767
139.022 1957 44.238
139.139 1925 43.8748
139.255 2084 45.6508
139.372 2105 45.8803
139.488 2114 45.9783
139.605 2183 46.7226
139.721 2076 45.5631
139.838 2239 47.3181
139.954 2260 47.5395
140.071 2311 48.0729
140.187 2361 48.5901
140.303 2341 48.3839
140.419 2359 48.5695
140.535 2347 48.4458
140.652 2113 45.9674
140.768 0 1
140.884 0 1
141 0 1
141.115 0 1
141.231 0 1
141.347 0 1
141.463 0 1
141.578 0 1
141.694 0 1
144.104 0 1
144.219 0 1
144.335 0 1
144.45 0 1
144.566 0 1
144.682 0 1
144.798 0 1
144.914 0 1
145.03 0 1
145.146 1951 44.1701
145.262 2053 45.31
145.378 1985 44.5533
145.494 2019 44.9333
145.61 1946 44.1135
145.726 1856 43.0813
145.842 1675 40.9268
145.959 1537 39.2046
146.075 1459 38.1969
146.192 1412 37.5766
146.308 1322 36.3593
146.425 1417 37.6431
146.541 1528 39.0896
146.658 1515 38.923
146.774 1591 39.8873
146.891 1672 40.8901
147.008 1715 41.4126
147.125 1724 41.5211
147.241 1697 41.1947
147.358 1624 40.2989
147.475 1625 40.3113
147.592 1554 39.4208
147.709 1553 39.4081
147.826 1502 38.7556
147.943 1557 39.4588
148.06 1507 38.8201
148.177 1585 39.8121
148.294 1491 38.6135
148.411 1654 40.6694
148.528 1580 39.7492
148.645 1590 39.8748
148.762 1626 40.3237
148.88 1509 38.8458
148.997 1490 38.6005
149.114 1447 38.0395
149.231 1469 38.3275
149.349 1369 37
149.466 1346 36.6879
149.583 1258 35.4683
149.701 1165 34.1321
149.818 1135 33.6898
149.935 1134 33.6749
150.053 1133 33.6601
150.17 1226 35.0143
150.287 1274 35.6931
150.405 1326 36.4143
150.522 1406 37.4967
150.64 1430 37.8153
150.757 1440 37.9473
150.875 1392 37.3095
150.992 1392 37.3095
151.11 1465 38.2753
151.227 1401 37.4299
151.344 1463 38.2492
151.462 1344 36.6606
151.579 1396 37.3631
151.697 1424 37.7359
151.814 1471 38.3536
151.932 1509 38.8458
152.049 1555 39.4335
152.167 1489 38.5876
152.284 1548 39.3446
152.402 1513 38.8973
152.519 1493 38.6394
152.636 1568 39.598
152.754 1552 39.3954
152.871 1571 39.6358
152.989 1520 38.9872
153.106 1391 37.2961
153.223 1288 35.8887
153.341 1307 36.1525
153.458 1286 35.8608
153.575 1159 34.0441
153.693 1258 35.4683
153.81 1354 36.7967
153.927 1428 37.7889
154.044 1462 38.2361
154.162 1579 39.7366
154.279 1598 39.975
154.396 1644 40.5463
154.513 1679 40.9756
154.63 1772 42.0951
154.747 1755 41.8927
154.864 1711 41.3642
154.981 1675 40.9268
155.098 1700 41.2311
155.215 1726 41.5452
155.332 1755 41.8927
155.449 1792 42.332
155.566 1874 43.2897
155.683 1900 43.589
155.8 1876 43.3128
155.917 1947 44.1248
156.033 1952 44.1814
156.15 0 1
156.267 0 1
156.383 0 1
156.5 0 1
156.617 0 1
156.733 0 1
156.85 0 1
156.966 0 1
157.082 0 1
157.199 0 1
157.315 0 1
157.431 0 1
157.547 0 1
157.664 0 1
157.78 0 1
157.896 0 1
158.012 0 1
158.128 0 1
158.244 0 1
158.359 0 1
158.475 0 1
158.591 0 1
158.706 0 1
