
6.15755 0 1
6.2731 0 1
6.3887 0 1
6.50437 0 1
6.62009 0 1
6.73587 0 1
6.8517 0 1
6.96759 0 1
7.08353 0 1
7.19952 0 1
7.31557 0 1
7.43166 0 1
7.54781 0 1
7.664 0 1
7.78024 0 1
7.89653 0 1
8.01286 0 1
8.12924 0 1
8.24567 0 1
8.36213 0 1
8.47864 0 1
8.59519 0 1
8.71178 0 1
8.82841 0 1
8.94508 0 1
9.06179 0 1
9.17853 0 1
9.29531 0 1
9.41212 0 1
9.52897 0 1
9.64584 0 1
9.76276 0 1
9.8797 0 1
9.99667 0 1
10.1137 0 1
10.2307 0 1
10.3478 0 1
10.4648 0 1
10.5819 0 1
10.6991 0 1
10.8162 0 1
10.9334 0 1
11.0506 0 1
11.1678 0 1
11.285 0 1
11.4023 0 1
11.5196 0 1
11.6369 0 1
11.7542 0 1
11.8715 0 1
11.9888 0 1
12.1062 0 1
12.2235 0 1
12.3409 0 1
12.4582 0 1
12.5756 0 1
12.693 0 1
12.8104 0 1
12.9278 0 1
13.0452 0 1
13.1626 0 1
13.28 0 1
13.3974 0 1
13.5149 0 1
13.6323 0 1
13.7497 0 1
13.8671 0 1
13.9845 0 1
14.1019 0 1
14.2193 0 1
14.3367 0 1
14.4541 0 1
14.5714 0 1
14.6888 0 1
14.8062 0 1
14.9235 0 1
15.0408 0 0
15.1581 0 0
15.2755 0 0
15.3927 0 0
15.51 0 0
15.6273 0 0
15.7445 0 0
15.8617 0 0
15.9789 0 0
16.0961 0 0
16.2132 0 0
16.3304 0 0
16.4475 0 0
16.5646 0 0
16.6816 0 0
16.7986 0 0
16.9156 0 0
17.0326 0 0
17.1496 0 0
17.2665 0 0
17.3833 0 0
17.5002 0 0
17.617 0 0
17.7338 0 0
17.8505 0 0
17.9672 0 0
18.0839 0 0
18.2005 0 0
18.3171 0 0
18.4337 0 0
18.5502 0 0
18.6666 0 0
18.7831 0 0
18.8994 0 0
19.0158 0 0
19.1321 0 0
19.2483 0 0
19.3645 0 0
19.4806 0 0
19.5967 0 0
19.7128 0 0
19.8288 0 0
19.9447 0 0
20.0606 0 1
20.1764 0 1
20.2922 0 1
20.4079 0 1
20.5236 0 1
20.6392 0 1
20.7548 0 1
20.8702 0 1
23.3078 0 1
23.4233 0 1
23.539 0 1
23.6547 0 1
23.7704 0 1
23.8862 0 1
24.0021 0 1
24.118 0 1
24.234 0 1
24.35 0 1
24.4661 1073 32.7567
24.5822 1071 32.7261
24.6984 989 31.4484
24.8146 1129 33.6006
24.9309 1076 32.8024
25.0472 1053 32.45
25.1636 1144 33.8231
25.28 1166 34.1467
25.3965 1178 34.322
25.513 1134 33.6749
25.6296 1181 34.3657
25.7462 1218 34.8999
25.8628 1174 34.2637
25.9795 1112 33.3467
26.0962 1162 34.0881
26.213 1144 33.8231
26.3298 1125 33.541
26.4466 1108 33.2866
26.5635 1151 33.9264
26.6804 1174 34.2637
26.7973 1027 32.0468
26.9143 1027 32.0468
27.0313 990 31.4643
27.1483 1013 31.8277
27.2653 1051 32.4191
27.3824 1031 32.1092
27.4996 1066 32.6497
27.6167 1097 33.121
27.7339 1053 32.45
27.8511 995 31.5436
27.9683 971 31.1609
28.0855 962 31.0161
28.2028 904 30.0666
28.3201 973 31.1929
28.4374 972 31.1769
28.5547 1026 32.0312
28.6721 1035 32.1714
28.7894 1115 33.3916
28.9068 1080 32.8634
29.0242 1102 33.1964
29.1416 1121 33.4813
29.259 1048 32.3728
29.3764 1133 33.6601
29.4939 1067 32.665
29.6113 1157 34.0147
29.7288 1136 33.7046
29.8463 1052 32.4345
29.9638 1093 33.0606
30.0812 1058 32.5269
30.1987 1097 33.121
30.3162 971 31.1609
30.4337 1010 31.7805
30.5512 1006 31.7175
30.6687 961 31
30.7862 964 31.0483
30.9037 1020 31.9374
31.0212 1053 32.45
31.1387 990 31.4643
31.2562 949 30.8058
31.3737 972 31.1769
31.4912 1004 31.686
31.6087 973 31.1929
31.7262 940 30.6594
31.8436 1009 31.7648
31.9611 1017 31.8904
32.0785 1005 31.7017
32.1959 1002 31.6544
32.3134 1070 32.7109
32.4308 1006 31.7175
32.5482 1082 32.8938
32.6655 1123 33.5112
32.7829 1051 32.4191
32.9002 1021 31.9531
33.0176 1018 31.9061
33.1349 1042 32.28
33.2522 1122 33.4963
33.3694 1029 32.078
33.4867 1020 31.9374
33.6039 1076 32.8024
33.7211 1051 32.4191
33.8383 1030 32.0936
33.9554 1005 31.7017
34.0725 970 31.1448
34.1896 881 29.6816
34.3067 836 28.9137
34.4237 880 29.6648
34.5407 900 30
34.6577 977 31.257
34.7746 934 30.5614
34.8915 946 30.7571
35.0084 885 29.7489
35.1252 933 30.545
35.242 960 30.9839
35.3587 929 30.4795
35.4755 953 30.8707
35.5921 940 30.6594
35.7088 986 31.4006
35.8254 1015 31.8591
35.9419 1076 32.8024
36.0584 1028 32.0624
36.1749 1016 31.8748
36.2913 1065 32.6343
36.4077 1034 32.1559
36.524 1010 31.7805
36.6403 1026 32.0312
36.7565 1002 31.6544
36.8727 1041 32.2645
36.9889 1035 32.1714
37.1049 1027 32.0468
37.221 0 1
37.3369 0 1
37.4529 0 1
37.5687 0 1
37.6845 0 1
37.8003 0 1
37.916 0 1
38.0316 0 1
38.1472 0 1
40.5851 0 1
40.7008 0 1
40.8164 0 1
40.9322 0 1
41.048 0 1
41.1639 0 1
41.2798 0 1
41.3958 0 1
41.5118 0 1
41.6279 0 1
41.744 806 28.3901
41.8602 862 29.3598
41.9765 852 29.189
42.0928 823 28.688
42.2091 876 29.5973
42.3255 882 29.6985
42.4419 876 29.5973
42.5584 884 29.7321
42.675 820 28.6356
42.7915 842 29.0172
42.9081 839 28.9655
43.0248 762 27.6043
43.1415 715 26.7395
43.2582 760 27.5681
43.375 784 28
43.4918 797 28.2312
43.6087 734 27.0924
43.7256 784 28
43.8425 733 27.074
43.9595 791 28.1247
44.0765 751 27.4044
44.1935 767 27.6948
44.3106 796 28.2135
44.4277 771 27.7669
44.5448 785 28.0179
44.6619 850 29.1548
44.7791 788 28.0713
44.8963 791 28.1247
45.0136 811 28.4781
45.1308 802 28.3196
45.2481 702 26.4953
45.3654 699 26.4386
45.4827 743 27.258
45.6001 728 26.9815
45.7174 700 26.4575
45.8348 742 27.2397
45.9522 749 27.3679
46.0697 703 26.5141
46.1871 683 26.1343
46.3046 710 26.6458
46.422 676 26
46.5395 669 25.865
46.657 611 24.7184
46.7745 541 23.2594
46.892 562 23.7065
47.0096 605 24.5967
47.1271 627 25.04
47.2446 598 24.454
47.3622 569 23.8537
47.4797 562 23.7065
47.5973 543 23.3024
47.7149 553 23.516
47.8324 579 24.0624
47.95 550 23.4521
48.0675 635 25.1992
48.1851 629 25.0799
48.3027 586 24.2074
48.4202 609 24.6779
48.5378 574 23.9583
48.6554 594 24.3721
48.7729 577 24.0208
48.8904 563 23.7276
49.008 542 23.2809
49.1255 584 24.1661
49.243 597 24.4336
49.3605 609 24.6779
49.478 572 23.9165
49.5955 599 24.4745
49.713 618 24.8596
49.8304 647 25.4362
49.9479 631 25.1197
50.0653 559 23.6432
50.1827 557 23.6008
50.3001 531 23.0434
50.4175 469 21.6564
50.5348 538 23.1948
50.6521 571 23.8956
50.7694 637 25.2389
50.8867 627 25.04
51.004 607 24.6374
51.1212 642 25.3377
51.2384 634 25.1794
51.3556 657 25.632
51.4727 662 25.7294
51.5899 724 26.9072
51.707 722 26.8701
51.824 717 26.7769
51.9411 737 27.1477
52.0581 740 27.2029
52.175 780 27.9285
52.2919 719 26.8142
52.4088 802 28.3196
52.5257 708 26.6083
52.6425 801 28.3019
52.7593 773 27.8029
52.876 781 27.9464
52.9927 829 28.7924
53.1094 765 27.6586
53.226 770 27.7489
53.3426 785 28.0179
53.4591 805 28.3725
53.5756 821 28.6531
53.692 842 29.0172
53.8084 808 28.4253
53.9248 700 26.4575
54.0411 718 26.7955
54.1573 700 26.4575
54.2735 0 1
54.3896 0 1
54.5057 0 1
54.6217 0 1
54.7377 0 1
54.8537 0 1
54.9695 0 1
55.0853 0 1
55.2011 0 1
55.3168 0 1
55.4324 0 1
57.824 0 1
57.9396 0 1
58.0553 0 1
58.1711 0 1
58.2869 0 1
58.4028 0 1
58.5187 0 1
58.6347 0 1
58.7508 0 1
58.8669 0 1
58.983 869 29.4788
59.0992 810 28.4605
59.2155 761 27.5862
59.3318 764 27.6405
59.4482 798 28.2489
59.5646 810 28.4605
59.681 876 29.5973
59.7975 816 28.5657
59.9141 788 28.0713
60.0306 901 30.0167
60.1473 900 30
60.2639 849 29.1376
60.3807 804 28.3549
60.4974 897 29.95
60.6142 865 29.4109
60.731 859 29.3087
60.8479 828 28.775
60.9648 807 28.4077
61.0818 850 29.1548
61.1987 891 29.8496
61.3158 855 29.2404
61.4328 820 28.6356
61.5499 742 27.2397
61.667 839 28.9655
61.7841 799 28.2666
61.9013 808 28.4253
62.0185 818 28.6007
62.1357 795 28.1957
62.253 769 27.7308
62.3702 788 28.0713
62.4875 774 27.8209
62.6049 671 25.9037
62.7222 638 25.2587
62.8396 675 25.9808
62.9569 717 26.7769
63.0743 719 26.8142
63.1918 719 26.8142
63.3092 726 26.9444
63.4267 757 27.5136
63.5441 733 27.074
63.6616 730 27.0185
63.7791 793 28.1603
63.8966 724 26.9072
64.0142 731 27.037
64.1317 724 26.9072
64.2492 716 26.7582
64.3668 722 26.8701
64.4843 718 26.7955
64.6019 710 26.6458
64.7195 735 27.1109
64.837 714 26.7208
64.9546 695 26.3629
65.0722 695 26.3629
65.1898 721 26.8514
65.3074 676 26
65.4249 679 26.0576
65.5425 663 25.7488
65.6601 707 26.5895
65.7777 680 26.0768
65.8952 628 25.0599
66.0128 706 26.5707
66.1304 648 25.4558
66.2479 616 24.8193
66.3655 557 23.6008
66.483 622 24.9399
66.6005 617 24.8395
66.718 637 25.2389
66.8355 677 26.0192
66.953 669 25.865
67.0705 680 26.0768
67.1879 678 26.0384
67.3054 677 26.0192
67.4228 645 25.3969
67.5402 662 25.7294
67.6576 667 25.8263
67.7749 683 26.1343
67.8923 655 25.593
68.0096 610 24.6982
68.1269 654 25.5734
68.2442 639 25.2784
68.3614 610 24.6982
68.4787 676 26
68.5958 658 25.6515
68.713 695 26.3629
68.8302 634 25.1794
68.9473 690 26.2679
69.0643 590 24.2899
69.1814 637 25.2389
69.2984 648 25.4558
69.4154 643 25.3574
69.5323 602 24.5357
69.6492 638 25.2587
69.7661 599 24.4745
69.8829 544 23.3238
69.9997 590 24.2899
70.1165 520 22.8035
70.2332 535 23.1301
70.3499 569 23.8537
70.4665 537 23.1733
70.5831 581 24.1039
70.6996 604 24.5764
70.8161 628 25.0599
70.9326 634 25.1794
71.049 579 24.0624
71.1653 604 24.5764
71.2817 599 24.4745
71.3979 553 23.516
71.5141 580 24.0832
71.6303 505 22.4722
71.7464 536 23.1517
71.8624 0 1
71.9784 0 1
72.0944 0 1
72.2102 0 1
72.3261 0 1
72.4418 0 1
72.5575 0 1
72.6732 0 1
75.1054 0 1
75.2209 0 1
75.3365 0 1
75.4521 0 1
75.5678 0 1
75.6835 0 1
75.7993 0 1
75.9151 0 1
76.031 0 1
76.147 427 20.664
76.263 464 21.5407
76.3791 507 22.5167
76.4952 476 21.8174
76.6113 498 22.3159
76.7276 455 21.3307
76.8438 486 22.0454
76.9601 436 20.8806
77.0765 414 20.347
77.1929 454 21.3073
77.3093 469 21.6564
77.4258 430 20.7364
77.5423 433 20.8087
77.6589 431 20.7605
77.7755 423 20.567
77.8921 468 21.6333
78.0088 411 20.2731
78.1256 415 20.3715
78.2423 388 19.6977
78.3591 386 19.6469
78.4759 372 19.2873
78.5928 413 20.3224
78.7097 360 18.9737
78.8266 392 19.799
78.9436 359 18.9473
79.0606 332 18.2209
79.1776 247 15.7162
79.2946 302 17.3781
79.4117 307 17.5214
79.5288 344 18.5472
79.6459 354 18.8149
79.7631 359 18.9473
79.8802 332 18.2209
79.9974 297 17.2337
80.1147 310 17.6068
80.2319 292 17.088
80.3491 291 17.0587
80.4664 296 17.2047
80.5837 301 17.3494
80.701 278 16.6733
80.8183 254 15.9374
80.9357 276 16.6132
81.053 273 16.5227
81.1704 270 16.4317
81.2877 234 15.2971
81.4051 220 14.8324
81.5225 226 15.0333
81.6399 215 14.6629
81.7573 205 14.3178
81.8747 216 14.6969
81.9922 217 14.7309
82.1096 201 14.1774
82.227 193 13.8924
82.3444 212 14.5602
82.4619 189 13.7477
82.5793 179 13.3791
82.6967 184 13.5647
82.8142 163 12.7671
82.9316 136 11.6619
83.049 148 12.1655
83.1664 142 11.9164
83.2838 173 13.1529
83.4012 159 12.6095
83.5186 128 11.3137
83.636 124 11.1355
83.7534 109 10.4403
83.8708 99 9.94987
83.9881 116 10.7703
84.1055 109 10.4403
84.2228 89 9.43398
84.3401 90 9.48683
84.4575 100 10
84.5747 86 9.27362
84.692 116 10.7703
84.8093 92 9.59166
84.9265 95 9.74679
85.0437 93 9.64365
85.1609 82 9.05539
85.2781 79 8.88819
85.3952 62 7.87401
85.5123 69 8.30662
85.6294 82 9.05539
85.7465 71 8.42615
85.8636 70 8.3666
85.9806 82 9.05539
86.0976 82 9.05539
86.2145 52 7.2111
86.3315 92 9.59166
86.4484 89 9.43398
86.5652 82 9.05539
86.682 106 10.2956
86.7988 116 10.7703
86.9156 108 10.3923
87.0323 114 10.6771
87.149 105 10.247
87.2657 128 11.3137
87.3823 136 11.6619
87.4988 137 11.7047
87.6154 136 11.6619
87.7318 141 11.8743
87.8483 142 11.9164
87.9647 152 12.3288
88.081 169 13
88.1973 173 13.1529
88.3136 183 13.5277
88.4298 210 14.4914
88.546 183 13.5277
88.6621 201 14.1774
88.7781 183 13.5277
88.8942 0 1
89.0101 0 1
89.126 0 1
89.2419 0 1
89.3577 0 1
89.4734 0 1
89.5891 0 1
89.7047 0 1
89.8203 0 1
89.9358 0 1
92.3269 0 1
92.4424 0 1
92.558 0 1
92.6736 0 1
92.7893 0 1
92.905 0 1
93.0208 0 1
93.1366 0 1
93.2525 0 1
93.3685 0 1
93.4845 0 1
93.6005 328 18.1108
93.7167 320 17.8885
93.8328 308 17.5499
93.949 301 17.3494
94.0653 301 17.3494
94.1816 322 17.9444
94.2979 335 18.303
94.4143 293 17.1172
94.5307 293 17.1172
94.6472 259 16.0935
94.7637 252 15.8745
94.8803 258 16.0624
94.9969 268 16.3707
95.1135 238 15.4272
95.2302 259 16.0935
95.3469 227 15.0665
95.4637 189 13.7477
95.5805 179 13.3791
95.6973 254 15.9374
95.8142 283 16.8226
95.9311 292 17.088
96.048 364 19.0788
96.1649 302 17.3781
96.2819 313 17.6918
96.3989 297 17.2337
96.516 305 17.4642
96.633 304 17.4356
96.7501 332 18.2209
96.8673 318 17.8326
96.9844 358 18.9209
97.1016 359 18.9473
97.2188 368 19.1833
97.336 413 20.3224
97.4532 405 20.1246
97.5704 390 19.7484
97.6877 390 19.7484
97.805 424 20.5913
97.9223 418 20.445
98.0396 426 20.6398
98.1569 439 20.9523
98.2743 425 20.6155
98.3916 466 21.587
98.509 447 21.1424
98.6264 493 22.2036
98.7438 493 22.2036
98.8612 444 21.0713
98.9786 409 20.2237
99.096 321 17.9165
99.2134 337 18.3576
99.3308 418 20.445
99.4482 537 23.1733
99.5656 507 22.5167
99.6831 543 23.3024
99.8005 534 23.1084
99.9179 555 23.5584
100.035 558 23.622
100.153 580 24.0832
100.27 573 23.9374
100.388 554 23.5372
100.505 610 24.6982
100.622 623 24.96
100.74 599 24.4745
100.857 624 24.98
100.975 610 24.6982
101.092 634 25.1794
101.209 633 25.1595
101.327 614 24.779
101.444 614 24.779
101.561 641 25.318
101.679 647 25.4362
101.796 642 25.3377
101.913 642 25.3377
102.03 620 24.8998
102.148 694 26.3439
102.265 678 26.0384
102.382 612 24.7386
102.499 584 24.1661
102.616 518 22.7596
102.733 421 20.5183
102.851 523 22.8692
102.968 641 25.318
103.085 706 26.5707
103.202 657 25.632
103.319 647 25.4362
103.436 711 26.6646
103.552 698 26.4197
103.669 658 25.6515
103.786 718 26.7955
103.903 690 26.2679
104.02 703 26.5141
104.137 739 27.1846
104.253 693 26.3249
104.37 669 25.865
104.487 756 27.4955
104.603 670 25.8844
104.72 731 27.037
104.836 745 27.2947
104.953 693 26.3249
105.069 729 27
105.186 713 26.7021
105.302 769 27.7308
105.418 752 27.4226
105.535 712 26.6833
105.651 797 28.2312
105.767 665 25.7876
105.883 667 25.8263
105.999 607 24.6374
106.115 0 1
106.231 0 1
106.347 0 1
106.463 0 1
106.579 0 1
106.694 0 1
106.81 0 1
106.926 0 1
107.041 0 1
107.157 0 1
109.576 0 1
109.692 0 1
109.807 0 1
109.923 0 1
110.039 0 1
110.155 0 1
110.27 0 1
110.386 0 1
110.502 0 1
110.618 560 23.6643
110.735 576 24
110.851 546 23.3666
110.967 563 23.7276
111.083 495 22.2486
111.199 430 20.7364
111.316 431 20.7605
111.432 500 22.3607
111.549 570 23.8747
111.665 516 22.7156
111.782 567 23.8118
111.898 561 23.6854
112.015 491 22.1585
112.132 538 23.1948
112.248 517 22.7376
112.365 521 22.8254
112.482 483 21.9773
112.599 460 21.4476
112.716 469 21.6564
112.832 457 21.3776
112.949 436 20.8806
113.066 433 20.8087
113.183 478 21.8632
113.3 497 22.2935
113.417 406 20.1494
113.534 429 20.7123
113.652 454 21.3073
113.769 433 20.8087
113.886 428 20.6882
114.003 415 20.3715
114.12 427 20.664
114.238 389 19.7231
114.355 428 20.6882
114.472 405 20.1246
114.589 378 19.4422
114.707 397 19.9249
114.824 338 18.3848
114.942 322 17.9444
115.059 404 20.0998
115.176 391 19.7737
115.294 438 20.9284
115.411 410 20.2485
115.529 392 19.799
115.646 426 20.6398
115.764 378 19.4422
115.881 399 19.975
115.999 341 18.4662
116.116 354 18.8149
116.234 396 19.8997
116.351 356 18.868
116.469 376 19.3907
116.586 414 20.347
116.704 388 19.6977
116.821 412 20.2978
116.939 410 20.2485
117.056 416 20.3961
117.174 373 19.3132
117.291 363 19.0526
117.409 421 20.5183
117.526 392 19.799
117.644 383 19.5704
117.761 363 19.0526
117.879 345 18.5742
117.996 330 18.1659
118.114 305 17.4642
118.231 325 18.0278
118.349 342 18.4932
118.466 385 19.6214
118.584 403 20.0749
118.701 396 19.8997
118.819 415 20.3715
118.936 380 19.4936
119.053 401 20.025
119.171 397 19.9249
119.288 408 20.199
119.405 442 21.0238
119.523 408 20.199
119.64 455 21.3307
119.757 404 20.0998
119.875 428 20.6882
119.992 403 20.0749
120.109 421 20.5183
120.226 415 20.3715
120.343 377 19.4165
120.46 416 20.3961
120.578 404 20.0998
120.695 417 20.4206
120.812 428 20.6882
120.929 405 20.1246
121.046 439 20.9523
121.163 441 21
121.279 405 20.1246
121.396 434 20.8327
121.513 385 19.6214
121.63 325 18.0278
121.747 301 17.3494
121.863 306 17.4929
121.98 342 18.4932
122.097 404 20.0998
122.213 400 20
122.33 441 21
122.446 426 20.6398
122.563 396 19.8997
122.679 465 21.5639
122.795 446 21.1187
122.912 462 21.4942
123.028 466 21.587
123.144 474 21.7715
123.26 432 20.7846
123.377 0 1
123.493 0 1
123.609 0 1
123.725 0 1
123.84 0 1
123.956 0 1
124.072 0 1
124.188 0 1
124.303 0 1
124.419 0 1
126.852 0 1
126.968 0 1
127.083 0 1
127.199 0 1
127.315 0 1
127.431 0 1
127.547 0 1
127.663 0 1
127.779 0 1
127.895 0 1
128.011 0 1
128.127 0 1
128.243 0 1
128.359 502 22.4054
128.476 566 23.7908
128.592 561 23.6854
128.708 601 24.5153
128.825 577 24.0208
128.941 566 23.7908
129.058 559 23.6432
129.174 576 24
129.291 604 24.5764
129.408 559 23.6432
129.524 575 23.9792
129.641 596 24.4131
129.758 584 24.1661
129.875 557 23.6008
129.992 605 24.5967
130.108 555 23.5584
130.225 564 23.7487
130.342 529 23
130.459 505 22.4722
130.576 468 21.6333
130.693 385 19.6214
130.81 372 19.2873
130.928 367 19.1572
131.045 445 21.095
131.162 573 23.9374
131.279 640 25.2982
131.396 616 24.8193
131.513 603 24.5561
131.631 597 24.4336
131.748 636 25.219
131.865 657 25.632
131.983 658 25.6515
132.1 624 24.98
132.217 611 24.7184
132.335 624 24.98
132.452 632 25.1396
132.57 645 25.3969
132.687 650 25.4951
132.804 639 25.2784
132.922 658 25.6515
133.039 614 24.779
133.157 599 24.4745
133.274 607 24.6374
133.392 636 25.219
133.509 637 25.2389
133.627 636 25.219
133.744 650 25.4951
133.862 597 24.4336
133.979 502 22.4054
134.097 519 22.7816
134.214 489 22.1133
134.332 438 20.9284
134.449 482 21.9545
134.567 490 22.1359
134.684 510 22.5832
134.802 631 25.1197
134.919 672 25.923
135.037 642 25.3377
135.154 661 25.7099
135.272 659 25.671
135.389 702 26.4953
135.507 687 26.2107
135.624 653 25.5539
135.742 677 26.0192
135.859 692 26.3059
135.977 635 25.1992
136.094 657 25.632
136.211 691 26.2869
136.329 704 26.533
136.446 720 26.8328
136.564 663 25.7488
136.681 726 26.9444
136.798 657 25.632
136.915 710 26.6458
137.033 694 26.3439
137.15 657 25.632
137.267 726 26.9444
137.384 675 25.9808
137.502 630 25.0998
137.619 617 24.8395
137.736 522 22.8473
137.853 532 23.0651
137.97 575 23.9792
138.087 530 23.0217
138.204 555 23.5584
138.321 568 23.8328
138.438 634 25.1794
138.555 729 27
138.672 751 27.4044
138.788 700 26.4575
138.905 779 27.9106
139.022 683 26.1343
139.139 798 28.2489
139.255 755 27.4773
139.372 760 27.5681
139.488 771 27.7669
139.605 763 27.6225
139.721 732 27.0555
139.838 736 27.1293
139.954 769 27.7308
140.071 757 27.5136
140.187 708 26.6083
140.303 776 27.8568
140.419 789 28.0891
140.535 771 27.7669
140.652 735 27.1109
140.768 0 1
140.884 0 1
141 0 1
141.115 0 1
141.231 0 1
141.347 0 1
141.463 0 1
141.578 0 1
141.694 0 1
144.104 0 1
144.219 0 1
144.335 0 1
144.45 0 1
144.566 0 1
144.682 0 1
144.798 0 1
144.914 0 1
145.03 0 1
145.146 690 26.2679
145.262 768 27.7128
145.378 694 26.3439
145.494 778 27.8927
145.61 711 26.6646
145.726 756 27.4955
145.842 713 26.7021
145.959 727 26.9629
146.075 644 25.3772
146.192 655 25.593
146.308 644 25.3772
146.425 632 25.1396
146.541 574 23.9583
146.658 593 24.3516
146.774 571 23.8956
146.891 620 24.8998
147.008 660 25.6905
147.125 700 26.4575
147.241 729 27
147.358 748 27.3496
147.475 753 27.4408
147.592 704 26.533
147.709 729 27
147.826 747 27.3313
147.943 703 26.5141
148.06 719 26.8142
148.177 703 26.5141
148.294 694 26.3439
148.411 743 27.258
148.528 672 25.923
148.645 706 26.5707
148.762 723 26.8887
148.88 720 26.8328
148.997 645 25.3969
149.114 767 27.6948
149.231 730 27.0185
149.349 720 26.8328
149.466 767 27.6948
149.583 670 25.8844
149.701 657 25.632
149.818 660 25.6905
149.935 614 24.779
150.053 592 24.3311
150.17 601 24.5153
150.287 597 24.4336
150.405 581 24.1039
150.522 609 24.6779
150.64 607 24.6374
150.757 699 26.4386
150.875 687 26.2107
150.992 695 26.3629
151.11 728 26.9815
151.227 776 27.8568
151.344 734 27.0924
151.462 717 26.7769
151.579 734 27.0924
151.697 753 27.4408
151.814 713 26.7021
151.932 741 27.2213
152.049 761 27.5862
152.167 722 26.8701
152.284 744 27.2764
152.402 764 27.6405
152.519 724 26.9072
152.636 703 26.5141
152.754 738 27.1662
152.871 728 26.9815
152.989 784 28
153.106 697 26.4008
153.223 653 25.5539
153.341 681 26.096
153.458 629 25.0799
153.575 662 25.7294
153.693 617 24.8395
153.81 617 24.8395
153.927 625 25
154.044 680 26.0768
154.162 698 26.4197
154.279 698 26.4197
154.396 705 26.5518
154.513 739 27.1846
154.63 770 27.7489
154.747 747 27.3313
154.864 793 28.1603
154.981 790 28.1069
155.098 809 28.4429
155.215 780 27.9285
155.332 772 27.7849
155.449 764 27.6405
155.566 789 28.0891
155.683 814 28.5307
155.8 790 28.1069
155.917 814 28.5307
156.033 804 28.3549
156.15 0 1
156.267 0 1
156.383 0 1
156.5 0 1
156.617 0 1
156.733 0 1
156.85 0 1
156.966 0 1
157.082 0 1
157.199 0 1
157.315 0 1
157.431 0 1
157.547 0 1
157.664 0 1
157.78 0 1
157.896 0 1
158.012 0 1
158.128 0 1
158.244 0 1
158.359 0 1
158.475 0 1
158.591 0 1
158.706 0 1
