
6.15755 0 1
6.2731 0 1
6.3887 0 1
6.50437 0 1
6.62009 0 1
6.73587 0 1
6.8517 0 1
6.96759 0 1
7.08353 0 1
7.19952 0 1
7.31557 0 1
7.43166 0 1
7.54781 0 1
7.664 0 1
7.78024 0 1
7.89653 0 1
8.01286 0 1
8.12924 0 1
8.24567 0 1
8.36213 0 1
8.47864 0 1
8.59519 0 1
8.71178 0 1
8.82841 0 1
8.94508 0 1
9.06179 0 1
9.17853 0 1
9.29531 0 1
9.41212 0 1
9.52897 0 1
9.64584 0 1
9.76276 0 1
9.8797 0 1
9.99667 0 1
10.1137 0 1
10.2307 0 1
10.3478 0 1
10.4648 0 1
10.5819 0 1
10.6991 0 1
10.8162 0 1
10.9334 0 1
11.0506 0 1
11.1678 0 1
11.285 0 1
11.4023 0 1
11.5196 0 1
11.6369 0 1
11.7542 0 1
11.8715 0 1
11.9888 0 1
12.1062 0 1
12.2235 0 1
12.3409 0 1
12.4582 0 1
12.5756 0 1
12.693 0 1
12.8104 0 1
12.9278 0 1
13.0452 0 1
13.1626 0 1
13.28 0 1
13.3974 0 1
13.5149 0 1
13.6323 0 1
13.7497 0 1
13.8671 0 1
13.9845 0 1
14.1019 0 1
14.2193 0 1
14.3367 0 1
14.4541 0 1
14.5714 0 1
14.6888 0 1
14.8062 0 1
14.9235 0 1
15.0408 0 0
15.1581 0 0
15.2755 0 0
15.3927 0 0
15.51 0 0
15.6273 0 0
15.7445 0 0
15.8617 0 0
15.9789 0 0
16.0961 0 0
16.2132 0 0
16.3304 0 0
16.4475 0 0
16.5646 0 0
16.6816 0 0
16.7986 0 0
16.9156 0 0
17.0326 0 0
17.1496 0 0
17.2665 0 0
17.3833 0 0
17.5002 0 0
17.617 0 0
17.7338 0 0
17.8505 0 0
17.9672 0 0
18.0839 0 0
18.2005 0 0
18.3171 0 0
18.4337 0 0
18.5502 0 0
18.6666 0 0
18.7831 0 0
18.8994 0 0
19.0158 0 0
19.1321 0 0
19.2483 0 0
19.3645 0 0
19.4806 0 0
19.5967 0 0
19.7128 0 0
19.8288 0 0
19.9447 0 0
20.0606 0 1
20.1764 0 1
20.2922 0 1
20.4079 0 1
20.5236 0 1
20.6392 0 1
20.7548 0 1
20.8702 0 1
23.3078 0 1
23.4233 0 1
23.539 0 1
23.6547 0 1
23.7704 0 1
23.8862 0 1
24.0021 0 1
24.118 0 1
24.234 0 1
24.35 0 1
24.4661 4717 68.6804
24.5822 5677 75.3459
24.6984 6477 80.4798
24.8146 7261 85.2115
24.9309 8067 89.8165
25.0472 8506 92.228
25.1636 9402 96.9639
25.28 10123 100.613
25.3965 11000 104.881
25.513 11299 106.297
25.6296 11776 108.517
25.7462 11893 109.055
25.8628 12240 110.635
25.9795 12525 111.915
26.0962 12419 111.441
26.213 11929 109.22
26.3298 11131 105.504
26.4466 10547 102.699
26.5635 10115 100.573
26.6804 10178 100.886
26.7973 10655 103.223
26.9143 11037 105.057
27.0313 11026 105.005
27.1483 11391 106.729
27.2653 11566 107.545
27.3824 11771 108.494
27.4996 11901 109.092
27.6167 11739 108.347
27.7339 11384 106.696
27.8511 10950 104.642
27.9683 10749 103.677
28.0855 10674 103.315
28.2028 10381 101.887
28.3201 10071 100.354
28.4374 9932 99.6594
28.5547 10112 100.558
28.6721 10473 102.338
28.7894 11030 105.024
28.9068 11422 106.874
29.0242 11742 108.361
29.1416 11871 108.954
29.259 11696 108.148
29.3764 11953 109.33
29.4939 11666 108.009
29.6113 11559 107.513
29.7288 10812 103.981
29.8463 10308 101.528
29.9638 9954 99.7697
30.0812 9718 98.5799
30.1987 9762 98.8028
30.3162 10276 101.371
30.4337 10420 102.078
30.5512 10600 102.956
30.6687 10818 104.01
30.7862 11021 104.981
30.9037 11357 106.569
31.0212 11393 106.738
31.1387 11258 106.104
31.2562 11189 105.778
31.3737 10942 104.604
31.4912 10417 102.064
31.6087 10309 101.533
31.7262 9959 99.7948
31.8436 9612 98.0408
31.9611 9564 97.7957
32.0785 9643 98.1988
32.1959 10148 100.737
32.3134 10636 103.131
32.4308 11011 104.933
32.5482 11361 106.588
32.6655 11431 106.916
32.7829 11432 106.921
32.9002 11408 106.808
33.0176 11344 106.508
33.1349 11143 105.56
33.2522 11113 105.418
33.3694 10821 104.024
33.4867 10068 100.339
33.6039 9877 99.3831
33.7211 9380 96.8504
33.8383 9813 99.0606
33.9554 9945 99.7246
34.0725 10171 100.851
34.1896 10384 101.902
34.3067 10680 103.344
34.4237 10816 104
34.5407 10802 103.933
34.6577 10982 104.795
34.7746 11041 105.076
34.8915 10686 103.373
35.0084 10753 103.697
35.1252 10460 102.274
35.242 10198 100.985
35.3587 9966 99.8299
35.4755 9502 97.4782
35.5921 9203 95.9323
35.7088 9092 95.352
35.8254 9571 97.8315
35.9419 9798 98.9848
36.0584 9972 99.8599
36.1749 10256 101.272
36.2913 10549 102.708
36.4077 10213 101.059
36.524 9966 99.8299
36.6403 9481 97.3704
36.7565 9347 96.6799
36.8727 8886 94.2656
36.9889 8271 90.945
37.1049 7537 86.8159
37.221 0 1
37.3369 0 1
37.4529 0 1
37.5687 0 1
37.6845 0 1
37.8003 0 1
37.916 0 1
38.0316 0 1
38.1472 0 1
40.5851 0 1
40.7008 0 1
40.8164 0 1
40.9322 0 1
41.048 0 1
41.1639 0 1
41.2798 0 1
41.3958 0 1
41.5118 0 1
41.6279 0 1
41.744 5267 72.5741
41.8602 5750 75.8288
41.9765 6563 81.0123
42.0928 6893 83.0241
42.2091 6762 82.2314
42.3255 6719 81.9695
42.4419 6710 81.9146
42.5584 6866 82.8613
42.675 7364 85.8138
42.7915 8173 90.4046
42.9081 8513 92.2659
43.0248 8622 92.8547
43.1415 9021 94.9789
43.2582 9209 95.9635
43.375 9135 95.5772
43.4918 9520 97.5705
43.6087 9529 97.6166
43.7256 9334 96.6126
43.8425 9356 96.7264
43.9595 9085 95.3153
44.0765 8787 93.739
44.1935 8376 91.5205
44.3106 8182 90.4544
44.4277 7717 87.8465
44.5448 7483 86.5043
44.6619 7747 88.017
44.7791 8162 90.3438
44.8963 8755 93.5682
45.0136 9344 96.6644
45.1308 9522 97.5807
45.2481 9489 97.4115
45.3654 9412 97.0155
45.4827 9447 97.1957
45.6001 9693 98.453
45.7174 9148 95.6452
45.8348 8904 94.361
45.9522 8510 92.2497
46.0697 8363 91.4494
46.1871 8194 90.5207
46.3046 8142 90.233
46.422 8817 93.8989
46.5395 9065 95.2103
46.657 9131 95.5563
46.7745 9273 96.2964
46.892 9319 96.535
47.0096 9505 97.4936
47.1271 9923 99.6143
47.2446 9681 98.3921
47.3622 9737 98.6762
47.4797 9404 96.9742
47.5973 9240 96.1249
47.7149 8983 94.7787
47.8324 8611 92.7955
47.95 8083 89.9055
48.0675 7676 87.6128
48.1851 7683 87.6527
48.3027 8117 90.0944
48.4202 8599 92.7308
48.5378 9230 96.0729
48.6554 9618 98.0714
48.7729 9568 97.8162
48.8904 9614 98.051
49.008 9670 98.3362
49.1255 9525 97.5961
49.243 9191 95.8697
49.3605 8756 93.5735
49.478 8441 91.8749
49.5955 8070 89.8332
49.713 8007 89.4818
49.8304 8175 90.4157
49.9479 8566 92.5527
50.0653 8873 94.1966
50.1827 9259 96.2237
50.3001 9378 96.8401
50.4175 9365 96.7729
50.5348 9873 99.363
50.6521 9730 98.6408
50.7694 9943 99.7146
50.8867 9623 98.0969
51.004 9545 97.6985
51.1212 9309 96.4832
51.2384 9005 94.8947
51.3556 8639 92.9462
51.4727 8028 89.5991
51.5899 7686 87.6698
51.707 7600 87.178
51.824 7935 89.0786
51.9411 8572 92.5851
52.0581 9291 96.3898
52.175 9769 98.8383
52.2919 9933 99.6644
52.4088 9758 98.7826
52.5257 9858 99.2875
52.6425 9773 98.8585
52.7593 9615 98.0561
52.876 9219 96.0156
52.9927 8936 94.5304
53.1094 8829 93.9628
53.226 8601 92.7416
53.3426 8121 90.1166
53.4591 8258 90.8735
53.5756 8411 91.7115
53.692 8329 91.2634
53.8084 8190 90.4986
53.9248 8113 90.0722
54.0411 7801 88.3233
54.1573 7437 86.238
54.2735 0 1
54.3896 0 1
54.5057 0 1
54.6217 0 1
54.7377 0 1
54.8537 0 1
54.9695 0 1
55.0853 0 1
55.2011 0 1
55.3168 0 1
55.4324 0 1
57.824 0 1
57.9396 0 1
58.0553 0 1
58.1711 0 1
58.2869 0 1
58.4028 0 1
58.5187 0 1
58.6347 0 1
58.7508 0 1
58.8669 0 1
58.983 5905 76.844
59.0992 6821 82.5893
59.2155 7785 88.2326
59.3318 8358 91.4221
59.4482 9091 95.3467
59.5646 9784 98.9141
59.681 10314 101.558
59.7975 10503 102.484
59.9141 10501 102.474
60.0306 10164 100.817
60.1473 9790 98.9444
60.2639 9341 96.6488
60.3807 9141 95.6086
60.4974 9214 95.9896
60.6142 9767 98.8281
60.731 10523 102.582
60.8479 11137 105.532
60.9648 11585 107.634
61.0818 11760 108.444
61.1987 11742 108.361
61.3158 11561 107.522
61.4328 11405 106.794
61.5499 11196 105.811
61.667 10780 103.827
61.7841 10599 102.951
61.9013 10091 100.454
62.0185 10154 100.767
62.1357 10512 102.528
62.253 10986 104.814
62.3702 11427 106.897
62.4875 11554 107.49
62.6049 11645 107.912
62.7222 11997 109.531
62.8396 12149 110.223
62.9569 12154 110.245
63.0743 12382 111.274
63.1918 12112 110.055
63.3092 11828 108.757
63.4267 11425 106.888
63.5441 10944 104.614
63.6616 10207 101.03
63.7791 9290 96.3846
63.8966 8696 93.2523
64.0142 8715 93.3542
64.1317 9335 96.6178
64.2492 9796 98.9747
64.3668 10647 103.184
64.4843 11370 106.63
64.6019 11266 106.141
64.7195 11389 106.719
64.837 11196 105.811
64.9546 11274 106.179
65.0722 10976 104.766
65.1898 10552 102.723
65.3074 10327 101.622
65.4249 10084 100.419
65.5425 10014 100.07
65.6601 9858 99.2875
65.7777 10304 101.509
65.8952 10660 103.247
66.0128 11072 105.224
66.1304 11370 106.63
66.2479 11446 106.986
66.3655 11514 107.303
66.483 11723 108.273
66.6005 11888 109.032
66.718 11713 108.227
66.8355 11649 107.931
66.953 11230 105.972
67.0705 11123 105.466
67.1879 10473 102.338
67.3054 9787 98.9293
67.4228 8539 92.4067
67.5402 8033 89.627
67.6576 7967 89.2581
67.7749 8519 92.2984
67.8923 9358 96.7368
68.0096 10195 100.97
68.1269 10791 103.88
68.2442 10871 104.264
68.3614 11052 105.128
68.4787 10857 104.197
68.5958 10682 103.354
68.713 10571 102.815
68.8302 10202 101.005
68.9473 10011 100.055
69.0643 9927 99.6343
69.1814 9570 97.8264
69.2984 9575 97.8519
69.4154 9804 99.0152
69.5323 10356 101.764
69.6492 10665 103.271
69.7661 10589 102.903
69.8829 10869 104.254
69.9997 10934 104.566
70.1165 10718 103.528
70.2332 10841 104.12
70.3499 10509 102.513
70.4665 9865 99.3227
70.5831 9667 98.3209
70.6996 9039 95.0737
70.8161 8675 93.1397
70.9326 7717 87.8465
71.049 6371 79.8185
71.1653 4965 70.4628
71.2817 4414 66.4379
71.3979 4021 63.4114
71.5141 3798 61.6279
71.6303 3926 62.6578
71.7464 3498 59.1439
71.8624 0 1
71.9784 0 1
72.0944 0 1
72.2102 0 1
72.3261 0 1
72.4418 0 1
72.5575 0 1
72.6732 0 1
75.1054 0 1
75.2209 0 1
75.3365 0 1
75.4521 0 1
75.5678 0 1
75.6835 0 1
75.7993 0 1
75.9151 0 1
76.031 0 1
76.147 5614 74.9266
76.263 5892 76.7594
76.3791 5666 75.2728
76.4952 5369 73.2735
76.6113 5323 72.9589
76.7276 6040 77.7174
76.8438 6813 82.5409
76.9601 7836 88.5212
77.0765 8890 94.2868
77.1929 9164 95.7288
77.3093 9258 96.2185
77.4258 9320 96.5401
77.5423 9421 97.0618
77.6589 9107 95.4306
77.7755 8979 94.7576
77.8921 8502 92.2063
78.0088 8324 91.236
78.1256 8387 91.5806
78.2423 8202 90.5649
78.3591 8462 91.9891
78.4759 8654 93.0269
78.5928 8899 94.3345
78.7097 9403 96.9691
78.8266 9963 99.8148
78.9436 9908 99.5389
79.0606 10066 100.329
79.1776 10012 100.06
79.2946 9964 99.8198
79.4117 9920 99.5992
79.5288 9846 99.227
79.6459 9614 98.051
79.7631 9655 98.2599
79.8802 8909 94.3875
79.9974 8161 90.3383
80.1147 7033 83.863
80.2319 5940 77.0714
80.3491 6141 78.3645
80.4664 6964 83.4506
80.5837 7988 89.3756
80.701 8865 94.1541
80.8183 9445 97.1854
80.9357 9288 96.3743
81.053 9820 99.0959
81.1704 9534 97.6422
81.2877 9638 98.1733
81.4051 9362 96.7574
81.5225 9135 95.5772
81.6399 8796 93.787
81.7573 8613 92.8062
81.8747 8643 92.9677
81.9922 8411 91.7115
82.1096 8671 93.1182
82.227 9123 95.5144
82.3444 9462 97.2728
82.4619 10076 100.379
82.5793 10023 100.115
82.6967 10058 100.29
82.8142 10391 101.936
82.9316 10396 101.961
83.049 10355 101.76
83.1664 9928 99.6393
83.2838 9782 98.904
83.4012 9470 97.3139
83.5186 9018 94.9632
83.636 8448 91.913
83.7534 7151 84.5636
83.8708 6213 78.8226
83.9881 5802 76.1709
84.1055 6361 79.7559
84.2228 7299 85.4342
84.3401 8381 91.5478
84.4575 9189 95.8593
84.5747 9879 99.3932
84.692 9900 99.4987
84.8093 9781 98.8989
84.9265 9746 98.7218
85.0437 9548 97.7139
85.1609 9106 95.4254
85.2781 8883 94.2497
85.3952 8637 92.9355
85.5123 8635 92.9247
85.6294 8709 93.322
85.7465 9146 95.6347
85.8636 9241 96.1301
85.9806 9535 97.6473
86.0976 9760 98.7927
86.2145 10147 100.732
86.3315 10146 100.727
86.4484 10395 101.956
86.5652 10392 101.941
86.682 10196 100.975
86.7988 9947 99.7346
86.9156 9916 99.5791
87.0323 9394 96.9226
87.149 8957 94.6414
87.2657 8173 90.4046
87.3823 6677 81.7129
87.4988 5752 75.8419
87.6154 5656 75.2064
87.7318 6236 78.9683
87.8483 7286 85.3581
87.9647 8052 89.7329
88.081 8606 92.7685
88.1973 8695 93.247
88.3136 8327 91.2524
88.4298 7968 89.2637
88.546 7227 85.0118
88.6621 6134 78.3199
88.7781 4693 68.5055
88.8942 0 1
89.0101 0 1
89.126 0 1
89.2419 0 1
89.3577 0 1
89.4734 0 1
89.5891 0 1
89.7047 0 1
89.8203 0 1
89.9358 0 1
92.3269 0 1
92.4424 0 1
92.558 0 1
92.6736 0 1
92.7893 0 1
92.905 0 1
93.0208 0 1
93.1366 0 1
93.2525 0 1
93.3685 0 1
93.4845 0 1
93.6005 5513 74.2496
93.7167 6091 78.0449
93.8328 6794 82.4257
93.949 7318 85.5453
94.0653 7606 87.2124
94.1816 7989 89.3812
94.2979 8490 92.1412
94.4143 8763 93.6109
94.5307 8980 94.7629
94.6472 9091 95.3467
94.7637 8956 94.6361
94.8803 9305 96.4624
94.9969 9452 97.2214
95.1135 9753 98.7573
95.2302 9751 98.7472
95.3469 10155 100.772
95.4637 10366 101.814
95.5805 10371 101.838
95.6973 10651 103.204
95.8142 10473 102.338
95.9311 10394 101.951
96.048 10128 100.638
96.1649 9983 99.915
96.2819 9404 96.9742
96.3989 8737 93.4719
96.516 8063 89.7942
96.633 6816 82.5591
96.7501 5906 76.8505
96.8673 5912 76.8895
96.9844 6490 80.5605
97.1016 7360 85.7904
97.2188 8328 91.2579
97.336 9406 96.9845
97.4532 9992 99.96
97.5704 10165 100.822
97.6877 9876 99.3781
97.805 9950 99.7497
97.9223 9458 97.2522
98.0396 9152 95.6661
98.1569 9097 95.3782
98.2743 8946 94.5833
98.3916 8911 94.3981
98.509 9269 96.2756
98.6264 9426 97.0876
98.7438 9746 98.7218
98.8612 9921 99.6042
98.9786 10199 100.99
99.096 10535 102.64
99.2134 10795 103.899
99.3308 10789 103.87
99.4482 10804 103.942
99.5656 10708 103.479
99.6831 10737 103.619
99.8005 10234 101.163
99.9179 9718 98.5799
100.035 9056 95.163
100.153 7971 89.2805
100.27 6685 81.7618
100.388 6489 80.5543
100.505 6757 82.201
100.622 7706 87.7838
100.74 9130 95.551
100.857 9633 98.1478
100.975 10115 100.573
101.092 10270 101.341
101.209 10295 101.464
101.327 10213 101.059
101.444 9863 99.3126
101.561 9618 98.0714
101.679 9549 97.719
101.796 9339 96.6385
101.913 9213 95.9844
102.03 9501 97.4731
102.148 9972 99.8599
102.265 10040 100.2
102.382 10633 103.116
102.499 10565 102.786
102.616 10862 104.221
102.733 11024 104.995
102.851 11259 106.108
102.968 11355 106.56
103.085 11209 105.873
103.202 10990 104.833
103.319 10681 103.349
103.436 9998 99.99
103.552 9179 95.8071
103.669 8251 90.835
103.786 6929 83.2406
103.903 6321 79.5047
104.02 7036 83.8809
104.137 7845 88.572
104.253 9159 95.7027
104.37 10071 100.354
104.487 10480 102.372
104.603 10508 102.509
104.72 10337 101.671
104.836 10122 100.608
104.953 9814 99.0656
105.069 9504 97.4885
105.186 9123 95.5144
105.302 9172 95.7706
105.418 8939 94.5463
105.535 8923 94.4616
105.651 8950 94.6044
105.767 8688 93.2094
105.883 8346 91.3564
105.999 7605 87.2067
106.115 0 1
106.231 0 1
106.347 0 1
106.463 0 1
106.579 0 1
106.694 0 1
106.81 0 1
106.926 0 1
107.041 0 1
107.157 0 1
109.576 0 1
109.692 0 1
109.807 0 1
109.923 0 1
110.039 0 1
110.155 0 1
110.27 0 1
110.386 0 1
110.502 0 1
110.618 3790 61.563
110.735 4803 69.3037
110.851 5669 75.2928
110.967 6352 79.6994
111.083 7091 84.2081
111.199 7667 87.5614
111.316 8350 91.3783
111.432 8800 93.8083
111.549 9236 96.1041
111.665 9552 97.7343
111.782 9744 98.7117
111.898 9682 98.3972
112.015 8942 94.5621
112.132 7889 88.82
112.248 6848 82.7526
112.365 5928 76.9935
112.482 5523 74.3169
112.599 6042 77.7303
112.716 6944 83.3307
112.832 8078 89.8777
112.949 8850 94.0744
113.066 9035 95.0526
113.183 9374 96.8194
113.3 9400 96.9536
113.417 9264 96.2497
113.534 9088 95.331
113.652 9051 95.1367
113.769 8597 92.72
113.886 8626 92.8763
114.003 8634 92.9193
114.12 8745 93.5147
114.238 9024 94.9947
114.355 9336 96.623
114.472 9739 98.6864
114.589 9326 96.5712
114.707 9874 99.368
114.824 9870 99.3479
114.942 10332 101.646
115.059 10149 100.742
115.176 10112 100.558
115.294 10051 100.255
115.411 9717 98.5748
115.529 9412 97.0155
115.646 8539 92.4067
115.764 7686 87.6698
115.881 6426 80.1623
115.999 5688 75.4188
116.116 5848 76.4722
116.234 6591 81.185
116.351 7501 86.6083
116.469 8472 92.0435
116.586 8874 94.2019
116.704 9059 95.1788
116.821 9262 96.2393
116.939 9244 96.1457
117.056 9332 96.6023
117.174 8921 94.451
117.291 8772 93.659
117.409 8535 92.3851
117.526 8551 92.4716
117.644 8516 92.2822
117.761 9025 95
117.879 9167 95.7445
117.996 9442 97.17
118.114 9786 98.9242
118.231 9654 98.2548
118.349 9810 99.0454
118.466 9931 99.6544
118.584 9919 99.5942
118.701 9992 99.96
118.819 9681 98.3921
118.936 9544 97.6934
119.053 9357 96.7316
119.171 8710 93.3274
119.288 7945 89.1347
119.405 7149 84.5518
119.523 5868 76.6029
119.64 5458 73.8783
119.757 5718 75.6175
119.875 6470 80.4363
119.992 7265 85.235
120.109 8102 90.0111
120.226 8526 92.3363
120.343 8590 92.6823
120.46 8662 93.0699
120.578 8607 92.7739
120.695 8650 93.0054
120.812 8499 92.19
120.929 8407 91.6897
121.046 8167 90.3715
121.163 8244 90.7965
121.279 8150 90.2774
121.396 8195 90.5262
121.513 8483 92.1032
121.63 8419 91.7551
121.747 8672 93.1236
121.863 8716 93.3595
121.98 8722 93.3916
122.097 8776 93.6803
122.213 8686 93.1987
122.33 8520 92.3038
122.446 8357 91.4166
122.563 8030 89.6103
122.679 7624 87.3155
122.795 6841 82.7103
122.912 5908 76.8635
123.028 4710 68.6294
123.144 3612 60.0999
123.26 2873 53.6004
123.377 0 1
123.493 0 1
123.609 0 1
123.725 0 1
123.84 0 1
123.956 0 1
124.072 0 1
124.188 0 1
124.303 0 1
124.419 0 1
126.852 0 1
126.968 0 1
127.083 0 1
127.199 0 1
127.315 0 1
127.431 0 1
127.547 0 1
127.663 0 1
127.779 0 1
127.895 0 1
128.011 0 1
128.127 0 1
128.243 0 1
128.359 7087 84.1843
128.476 7334 85.6388
128.592 6790 82.4015
128.708 5893 76.7659
128.825 5889 76.7398
128.941 6594 81.2034
129.058 7490 86.5448
129.174 8777 93.6856
129.291 9252 96.1873
129.408 9349 96.6902
129.524 9401 96.9588
129.641 9549 97.719
129.758 9545 97.6985
129.875 9372 96.8091
129.992 9337 96.6282
130.108 9254 96.1977
130.225 9217 96.0052
130.342 9141 95.6086
130.459 9508 97.509
130.576 9398 96.9433
130.693 9721 98.5951
130.81 9776 98.8737
130.928 9911 99.554
131.045 9892 99.4585
131.162 9889 99.4435
131.279 9880 99.3982
131.396 9950 99.7497
131.513 9697 98.4733
131.631 9614 98.051
131.748 9205 95.9427
131.865 8980 94.7629
131.983 8318 91.2031
132.1 7287 85.3639
132.217 6415 80.0937
132.335 6109 78.1601
132.452 6429 80.181
132.57 7323 85.5745
132.687 8380 91.5423
132.804 8946 94.5833
132.922 9002 94.8789
133.039 9330 96.5919
133.157 9243 96.1405
133.274 9305 96.4624
133.392 9284 96.3535
133.509 9391 96.9072
133.627 9245 96.1509
133.744 9123 95.5144
133.862 9016 94.9526
133.979 9168 95.7497
134.097 9156 95.687
134.214 9359 96.7419
134.332 9651 98.2395
134.449 9797 98.9798
134.567 9843 99.2119
134.684 9711 98.5444
134.802 9614 98.051
134.919 9808 99.0353
135.037 9694 98.4581
135.154 9404 96.9742
135.272 8976 94.7418
135.389 8871 94.186
135.507 8383 91.5587
135.624 7509 86.6545
135.742 6565 81.0247
135.859 6144 78.3837
135.977 6266 79.1581
136.094 6750 82.1584
136.211 7720 87.8635
136.329 8705 93.3006
136.446 9065 95.2103
136.564 9091 95.3467
136.681 9140 95.6033
136.798 9433 97.1236
136.915 9449 97.206
137.033 9204 95.9375
137.15 9305 96.4624
137.267 9181 95.8175
137.384 9039 95.0737
137.502 8921 94.451
137.619 8846 94.0532
137.736 8788 93.7443
137.853 8806 93.8403
137.97 8975 94.7365
138.087 9713 98.5546
138.204 9440 97.1597
138.321 9152 95.6661
138.438 9178 95.8019
138.555 9359 96.7419
138.672 9182 95.8228
138.788 8922 94.4563
138.905 8561 92.5257
139.022 8037 89.6493
139.139 7619 87.2869
139.255 7162 84.6286
139.372 6170 78.5493
139.488 5241 72.3948
139.605 5160 71.8331
139.721 5366 73.253
139.838 5788 76.0789
139.954 6337 79.6053
140.071 6460 80.3741
140.187 5258 72.5121
140.303 4581 67.6831
140.419 4231 65.0461
140.535 3957 62.9047
140.652 3703 60.8523
140.768 0 1
140.884 0 1
141 0 1
141.115 0 1
141.231 0 1
141.347 0 1
141.463 0 1
141.578 0 1
141.694 0 1
144.104 0 1
144.219 0 1
144.335 0 1
144.45 0 1
144.566 0 1
144.682 0 1
144.798 0 1
144.914 0 1
145.03 0 1
145.146 5352 73.1574
145.262 6046 77.756
145.378 6496 80.5978
145.494 6964 83.4506
145.61 6876 82.9216
145.726 7136 84.4748
145.842 7074 84.1071
145.959 6961 83.4326
146.075 6969 83.4805
146.192 6984 83.5703
146.308 6811 82.5288
146.425 6812 82.5348
146.541 7059 84.0179
146.658 6984 83.5703
146.774 7025 83.8153
146.891 7079 84.1368
147.008 7297 85.4225
147.125 7151 84.5636
147.241 7042 83.9166
147.358 7172 84.6877
147.475 7100 84.2615
147.592 6959 83.4206
147.709 6747 82.1401
147.826 6453 80.3306
147.943 6166 78.5239
148.06 5789 76.0855
148.177 5243 72.4086
148.294 4966 70.4699
148.411 5021 70.859
148.528 5446 73.797
148.645 5980 77.3305
148.762 6528 80.796
148.88 6984 83.5703
148.997 7114 84.3445
149.114 6891 83.012
149.231 7054 83.9881
149.349 6906 83.1023
149.466 6988 83.5943
149.583 7046 83.9405
149.701 7039 83.8987
149.818 6828 82.6317
149.935 6791 82.4075
150.053 6793 82.4197
150.17 6976 83.5225
150.287 6890 83.006
150.405 7007 83.7078
150.522 7030 83.8451
150.64 7022 83.7974
150.757 7091 84.2081
150.875 7125 84.4097
150.992 7137 84.4808
151.11 6958 83.4146
151.227 7023 83.8033
151.344 6911 83.1324
151.462 6596 81.2158
151.579 6258 79.1075
151.697 5830 76.3544
151.814 5610 74.8999
151.932 4991 70.647
152.049 5104 71.4423
152.167 5310 72.8697
152.284 5703 75.5182
152.402 6575 81.0864
152.519 7017 83.7675
152.636 7070 84.0833
152.754 6990 83.6062
152.871 6901 83.0723
152.989 6984 83.5703
153.106 6856 82.801
153.223 6946 83.3427
153.341 6930 83.2466
153.458 6789 82.3954
153.575 7013 83.7437
153.693 6887 82.988
153.81 6850 82.7647
153.927 6909 83.1204
154.044 6875 82.9156
154.162 6897 83.0482
154.279 7140 84.4985
154.396 7155 84.5872
154.513 7206 84.8882
154.63 7174 84.6995
154.747 7194 84.8175
154.864 7064 84.0476
154.981 6694 81.8169
155.098 6371 79.8185
155.215 6118 78.2176
155.332 5897 76.7919
155.449 5181 71.9792
155.566 5018 70.8378
155.683 5352 73.1574
155.8 5670 75.2994
155.917 6124 78.256
156.033 6379 79.8686
156.15 0 1
156.267 0 1
156.383 0 1
156.5 0 1
156.617 0 1
156.733 0 1
156.85 0 1
156.966 0 1
157.082 0 1
157.199 0 1
157.315 0 1
157.431 0 1
157.547 0 1
157.664 0 1
157.78 0 1
157.896 0 1
158.012 0 1
158.128 0 1
158.244 0 1
158.359 0 1
158.475 0 1
158.591 0 1
158.706 0 1
