
6.15755 0 1
6.2731 0 1
6.3887 0 1
6.50437 0 1
6.62009 0 1
6.73587 0 1
6.8517 0 1
6.96759 0 1
7.08353 0 1
7.19952 0 1
7.31557 0 1
7.43166 0 1
7.54781 0 1
7.664 0 1
7.78024 0 1
7.89653 0 1
8.01286 0 1
8.12924 0 1
8.24567 0 1
8.36213 0 1
8.47864 0 1
8.59519 0 1
8.71178 0 1
8.82841 0 1
8.94508 0 1
9.06179 0 1
9.17853 0 1
9.29531 0 1
9.41212 0 1
9.52897 0 1
9.64584 0 1
9.76276 0 1
9.8797 0 1
9.99667 0 1
10.1137 0 1
10.2307 0 1
10.3478 0 1
10.4648 0 1
10.5819 0 1
10.6991 0 1
10.8162 0 1
10.9334 0 1
11.0506 0 1
11.1678 0 1
11.285 0 1
11.4023 0 1
11.5196 0 1
11.6369 0 1
11.7542 0 1
11.8715 0 1
11.9888 0 1
12.1062 0 1
12.2235 0 1
12.3409 0 1
12.4582 0 1
12.5756 0 1
12.693 0 1
12.8104 0 1
12.9278 0 1
13.0452 0 1
13.1626 0 1
13.28 0 1
13.3974 0 1
13.5149 0 1
13.6323 0 1
13.7497 0 1
13.8671 0 1
13.9845 0 1
14.1019 0 1
14.2193 0 1
14.3367 0 1
14.4541 0 1
14.5714 0 1
14.6888 0 1
14.8062 0 1
14.9235 0 1
15.0408 1044 32.311
15.1581 1034 32.1559
15.2755 1074 32.7719
15.3927 1120 33.4664
15.51 1084 32.9242
15.6273 1107 33.2716
15.7445 1006 31.7175
15.8617 1033 32.1403
15.9789 975 31.225
16.0961 965 31.0644
16.2132 955 30.9031
16.3304 967 31.0966
16.4475 973 31.1929
16.5646 896 29.9333
16.6816 926 30.4302
16.7986 873 29.5466
16.9156 918 30.2985
17.0326 894 29.8998
17.1496 848 29.1204
17.2665 923 30.3809
17.3833 917 30.282
17.5002 899 29.9833
17.617 909 30.1496
17.7338 911 30.1828
17.8505 913 30.2159
17.9672 867 29.4449
18.0839 863 29.3769
18.2005 844 29.0517
18.3171 835 28.8964
18.4337 850 29.1548
18.5502 852 29.189
18.6666 842 29.0172
18.7831 937 30.6105
18.8994 884 29.7321
19.0158 843 29.0345
19.1321 817 28.5832
19.2483 784 28
19.3645 789 28.0891
19.4806 699 26.4386
19.5967 704 26.533
19.7128 654 25.5734
19.8288 636 25.219
19.9447 570 23.8747
20.0606 0 1
20.1764 0 1
20.2922 0 1
20.4079 0 1
20.5236 0 1
20.6392 0 1
20.7548 0 1
20.8702 0 1
23.3078 0 1
23.4233 0 1
23.539 0 1
23.6547 0 1
23.7704 0 1
23.8862 0 1
24.0021 0 1
24.118 0 1
24.234 0 1
24.35 0 1
24.4661 355 18.8414
24.5822 428 20.6882
24.6984 508 22.5389
24.8146 628 25.0599
24.9309 736 27.1293
25.0472 779 27.9106
25.1636 875 29.5804
25.28 944 30.7246
25.3965 945 30.7409
25.513 959 30.9677
25.6296 993 31.5119
25.7462 1001 31.6386
25.8628 983 31.3528
25.9795 971 31.1609
26.0962 1002 31.6544
26.213 965 31.0644
26.3298 961 31
26.4466 903 30.05
26.5635 796 28.2135
26.6804 803 28.3373
26.7973 755 27.4773
26.9143 719 26.8142
27.0313 692 26.3059
27.1483 771 27.7669
27.2653 770 27.7489
27.3824 823 28.688
27.4996 846 29.0861
27.6167 826 28.7402
27.7339 886 29.7658
27.8511 905 30.0832
27.9683 848 29.1204
28.0855 895 29.9166
28.2028 827 28.7576
28.3201 860 29.3258
28.4374 877 29.6142
28.5547 870 29.4958
28.6721 871 29.5127
28.7894 866 29.4279
28.9068 893 29.8831
29.0242 841 29
29.1416 816 28.5657
29.259 869 29.4788
29.3764 816 28.5657
29.4939 839 28.9655
29.6113 852 29.189
29.7288 831 28.8271
29.8463 825 28.7228
29.9638 706 26.5707
30.0812 743 27.258
30.1987 782 27.9643
30.3162 674 25.9615
30.4337 763 27.6225
30.5512 784 28
30.6687 773 27.8029
30.7862 793 28.1603
30.9037 817 28.5832
31.0212 813 28.5132
31.1387 933 30.545
31.2562 884 29.7321
31.3737 851 29.1719
31.4912 868 29.4618
31.6087 825 28.7228
31.7262 802 28.3196
31.8436 829 28.7924
31.9611 791 28.1247
32.0785 833 28.8617
32.1959 837 28.931
32.3134 804 28.3549
32.4308 846 29.0861
32.5482 794 28.178
32.6655 749 27.3679
32.7829 737 27.1477
32.9002 752 27.4226
33.0176 716 26.7582
33.1349 798 28.2489
33.2522 791 28.1247
33.3694 693 26.3249
33.4867 744 27.2764
33.6039 706 26.5707
33.7211 678 26.0384
33.8383 673 25.9422
33.9554 704 26.533
34.0725 699 26.4386
34.1896 692 26.3059
34.3067 772 27.7849
34.4237 744 27.2764
34.5407 779 27.9106
34.6577 757 27.5136
34.7746 785 28.0179
34.8915 856 29.2575
35.0084 826 28.7402
35.1252 766 27.6767
35.242 756 27.4955
35.3587 744 27.2764
35.4755 780 27.9285
35.5921 787 28.0535
35.7088 750 27.3861
35.8254 751 27.4044
35.9419 744 27.2764
36.0584 777 27.8747
36.1749 708 26.6083
36.2913 703 26.5141
36.4077 682 26.1151
36.524 654 25.5734
36.6403 573 23.9374
36.7565 560 23.6643
36.8727 533 23.0868
36.9889 483 21.9773
37.1049 467 21.6102
37.221 0 1
37.3369 0 1
37.4529 0 1
37.5687 0 1
37.6845 0 1
37.8003 0 1
37.916 0 1
38.0316 0 1
38.1472 0 1
40.5851 0 1
40.7008 0 1
40.8164 0 1
40.9322 0 1
41.048 0 1
41.1639 0 1
41.2798 0 1
41.3958 0 1
41.5118 0 1
41.6279 0 1
41.744 373 19.3132
41.8602 378 19.4422
41.9765 470 21.6795
42.0928 497 22.2935
42.2091 538 23.1948
42.3255 543 23.3024
42.4419 553 23.516
42.5584 578 24.0416
42.675 513 22.6495
42.7915 536 23.1517
42.9081 535 23.1301
43.0248 570 23.8747
43.1415 555 23.5584
43.2582 559 23.6432
43.375 576 24
43.4918 516 22.7156
43.6087 589 24.2693
43.7256 578 24.0416
43.8425 586 24.2074
43.9595 567 23.8118
44.0765 554 23.5372
44.1935 582 24.1247
44.3106 556 23.5797
44.4277 588 24.2487
44.5448 565 23.7697
44.6619 604 24.5764
44.7791 652 25.5343
44.8963 563 23.7276
45.0136 589 24.2693
45.1308 629 25.0799
45.2481 610 24.6982
45.3654 604 24.5764
45.4827 609 24.6779
45.6001 618 24.8596
45.7174 589 24.2693
45.8348 574 23.9583
45.9522 550 23.4521
46.0697 533 23.0868
46.1871 520 22.8035
46.3046 519 22.7816
46.422 478 21.8632
46.5395 551 23.4734
46.657 530 23.0217
46.7745 539 23.2164
46.892 538 23.1948
47.0096 532 23.0651
47.1271 566 23.7908
47.2446 572 23.9165
47.3622 584 24.1661
47.4797 597 24.4336
47.5973 557 23.6008
47.7149 584 24.1661
47.8324 541 23.2594
47.95 560 23.6643
48.0675 579 24.0624
48.1851 600 24.4949
48.3027 536 23.1517
48.4202 572 23.9165
48.5378 581 24.1039
48.6554 575 23.9792
48.7729 573 23.9374
48.8904 564 23.7487
49.008 580 24.0832
49.1255 561 23.6854
49.243 519 22.7816
49.3605 479 21.8861
49.478 520 22.8035
49.5955 455 21.3307
49.713 476 21.8174
49.8304 523 22.8692
49.9479 511 22.6053
50.0653 548 23.4094
50.1827 462 21.4942
50.3001 456 21.3542
50.4175 497 22.2935
50.5348 538 23.1948
50.6521 507 22.5167
50.7694 564 23.7487
50.8867 534 23.1084
51.004 567 23.8118
51.1212 554 23.5372
51.2384 548 23.4094
51.3556 519 22.7816
51.4727 539 23.2164
51.5899 586 24.2074
51.707 546 23.3666
51.824 540 23.2379
51.9411 539 23.2164
52.0581 560 23.6643
52.175 521 22.8254
52.2919 507 22.5167
52.4088 525 22.9129
52.5257 553 23.516
52.6425 489 22.1133
52.7593 466 21.587
52.876 477 21.8403
52.9927 473 21.7486
53.1094 475 21.7945
53.226 452 21.2603
53.3426 440 20.9762
53.4591 492 22.1811
53.5756 469 21.6564
53.692 462 21.4942
53.8084 373 19.3132
53.9248 349 18.6815
54.0411 309 17.5784
54.1573 305 17.4642
54.2735 0 1
54.3896 0 1
54.5057 0 1
54.6217 0 1
54.7377 0 1
54.8537 0 1
54.9695 0 1
55.0853 0 1
55.2011 0 1
55.3168 0 1
55.4324 0 1
57.824 0 1
57.9396 0 1
58.0553 0 1
58.1711 0 1
58.2869 0 1
58.4028 0 1
58.5187 0 1
58.6347 0 1
58.7508 0 1
58.8669 0 1
58.983 414 20.347
59.0992 480 21.9089
59.2155 539 23.2164
59.3318 630 25.0998
59.4482 645 25.3969
59.5646 716 26.7582
59.681 713 26.7021
59.7975 739 27.1846
59.9141 798 28.2489
60.0306 786 28.0357
60.1473 765 27.6586
60.2639 744 27.2764
60.3807 777 27.8747
60.4974 798 28.2489
60.6142 821 28.6531
60.731 773 27.8029
60.8479 774 27.8209
60.9648 793 28.1603
61.0818 720 26.8328
61.1987 796 28.2135
61.3158 737 27.1477
61.4328 676 26
61.5499 670 25.8844
61.667 656 25.6125
61.7841 653 25.5539
61.9013 655 25.593
62.0185 665 25.7876
62.1357 658 25.6515
62.253 638 25.2587
62.3702 633 25.1595
62.4875 604 24.5764
62.6049 606 24.6171
62.7222 632 25.1396
62.8396 666 25.807
62.9569 653 25.5539
63.0743 666 25.807
63.1918 626 25.02
63.3092 665 25.7876
63.4267 646 25.4165
63.5441 621 24.9199
63.6616 643 25.3574
63.7791 606 24.6171
63.8966 621 24.9199
64.0142 650 25.4951
64.1317 668 25.8457
64.2492 619 24.8797
64.3668 574 23.9583
64.4843 596 24.4131
64.6019 577 24.0208
64.7195 606 24.6171
64.837 581 24.1039
64.9546 599 24.4745
65.0722 529 23
65.1898 519 22.7816
65.3074 509 22.561
65.4249 550 23.4521
65.5425 564 23.7487
65.6601 555 23.5584
65.7777 599 24.4745
65.8952 572 23.9165
66.0128 573 23.9374
66.1304 569 23.8537
66.2479 568 23.8328
66.3655 571 23.8956
66.483 603 24.5561
66.6005 633 25.1595
66.718 607 24.6374
66.8355 623 24.96
66.953 632 25.1396
67.0705 602 24.5357
67.1879 635 25.1992
67.3054 596 24.4131
67.4228 649 25.4755
67.5402 655 25.593
67.6576 607 24.6374
67.7749 623 24.96
67.8923 602 24.5357
68.0096 617 24.8395
68.1269 561 23.6854
68.2442 588 24.2487
68.3614 527 22.9565
68.4787 583 24.1454
68.5958 540 23.2379
68.713 497 22.2935
68.8302 495 22.2486
68.9473 485 22.0227
69.0643 532 23.0651
69.1814 594 24.3721
69.2984 561 23.6854
69.4154 559 23.6432
69.5323 600 24.4949
69.6492 546 23.3666
69.7661 545 23.3452
69.8829 507 22.5167
69.9997 549 23.4307
70.1165 557 23.6008
70.2332 515 22.6936
70.3499 507 22.5167
70.4665 465 21.5639
70.5831 446 21.1187
70.6996 452 21.2603
70.8161 442 21.0238
70.9326 384 19.5959
71.049 355 18.8414
71.1653 360 18.9737
71.2817 308 17.5499
71.3979 324 18
71.5141 272 16.4924
71.6303 221 14.8661
71.7464 230 15.1658
71.8624 0 1
71.9784 0 1
72.0944 0 1
72.2102 0 1
72.3261 0 1
72.4418 0 1
72.5575 0 1
72.6732 0 1
75.1054 0 1
75.2209 0 1
75.3365 0 1
75.4521 0 1
75.5678 0 1
75.6835 0 1
75.7993 0 1
75.9151 0 1
76.031 0 1
76.147 396 19.8997
76.263 430 20.7364
76.3791 412 20.2978
76.4952 471 21.7025
76.6113 476 21.8174
76.7276 487 22.0681
76.8438 517 22.7376
76.9601 476 21.8174
77.0765 448 21.166
77.1929 481 21.9317
77.3093 496 22.2711
77.4258 475 21.7945
77.5423 439 20.9523
77.6589 509 22.561
77.7755 419 20.4695
77.8921 439 20.9523
78.0088 449 21.1896
78.1256 458 21.4009
78.2423 418 20.445
78.3591 465 21.5639
78.4759 504 22.4499
78.5928 495 22.2486
78.7097 486 22.0454
78.8266 438 20.9284
78.9436 405 20.1246
79.0606 498 22.3159
79.1776 475 21.7945
79.2946 491 22.1585
79.4117 497 22.2935
79.5288 483 21.9773
79.6459 511 22.6053
79.7631 484 22
79.8802 554 23.5372
79.9974 495 22.2486
80.1147 544 23.3238
80.2319 573 23.9374
80.3491 551 23.4734
80.4664 489 22.1133
80.5837 521 22.8254
80.701 535 23.1301
80.8183 545 23.3452
80.9357 521 22.8254
81.053 474 21.7715
81.1704 512 22.6274
81.2877 459 21.4243
81.4051 469 21.6564
81.5225 471 21.7025
81.6399 421 20.5183
81.7573 445 21.095
81.8747 506 22.4944
81.9922 473 21.7486
82.1096 538 23.1948
82.227 493 22.2036
82.3444 482 21.9545
82.4619 494 22.2261
82.5793 527 22.9565
82.6967 513 22.6495
82.8142 556 23.5797
82.9316 549 23.4307
83.049 534 23.1084
83.1664 529 23
83.2838 475 21.7945
83.4012 483 21.9773
83.5186 519 22.7816
83.636 488 22.0907
83.7534 536 23.1517
83.8708 552 23.4947
83.9881 561 23.6854
84.1055 539 23.2164
84.2228 559 23.6432
84.3401 518 22.7596
84.4575 530 23.0217
84.5747 499 22.3383
84.692 483 21.9773
84.8093 497 22.2935
84.9265 470 21.6795
85.0437 468 21.6333
85.1609 446 21.1187
85.2781 476 21.8174
85.3952 451 21.2368
85.5123 504 22.4499
85.6294 556 23.5797
85.7465 495 22.2486
85.8636 495 22.2486
85.9806 506 22.4944
86.0976 542 23.2809
86.2145 521 22.8254
86.3315 589 24.2693
86.4484 535 23.1301
86.5652 537 23.1733
86.682 506 22.4944
86.7988 525 22.9129
86.9156 556 23.5797
87.0323 478 21.8632
87.149 548 23.4094
87.2657 496 22.2711
87.3823 545 23.3452
87.4988 530 23.0217
87.6154 495 22.2486
87.7318 477 21.8403
87.8483 473 21.7486
87.9647 435 20.8567
88.081 399 19.975
88.1973 374 19.3391
88.3136 315 17.7482
88.4298 298 17.2627
88.546 295 17.1756
88.6621 264 16.2481
88.7781 214 14.6287
88.8942 0 1
89.0101 0 1
89.126 0 1
89.2419 0 1
89.3577 0 1
89.4734 0 1
89.5891 0 1
89.7047 0 1
89.8203 0 1
89.9358 0 1
92.3269 0 1
92.4424 0 1
92.558 0 1
92.6736 0 1
92.7893 0 1
92.905 0 1
93.0208 0 1
93.1366 0 1
93.2525 0 1
93.3685 0 1
93.4845 0 1
93.6005 414 20.347
93.7167 465 21.5639
93.8328 465 21.5639
93.949 470 21.6795
94.0653 533 23.0868
94.1816 474 21.7715
94.2979 479 21.8861
94.4143 437 20.9045
94.5307 504 22.4499
94.6472 467 21.6102
94.7637 489 22.1133
94.8803 541 23.2594
94.9969 516 22.7156
95.1135 500 22.3607
95.2302 559 23.6432
95.3469 549 23.4307
95.4637 536 23.1517
95.5805 536 23.1517
95.6973 545 23.3452
95.8142 533 23.0868
95.9311 543 23.3024
96.048 513 22.6495
96.1649 507 22.5167
96.2819 539 23.2164
96.3989 609 24.6779
96.516 567 23.8118
96.633 588 24.2487
96.7501 595 24.3926
96.8673 593 24.3516
96.9844 582 24.1247
97.1016 566 23.7908
97.2188 569 23.8537
97.336 552 23.4947
97.4532 548 23.4094
97.5704 514 22.6716
97.6877 509 22.561
97.805 519 22.7816
97.9223 503 22.4277
98.0396 503 22.4277
98.1569 493 22.2036
98.2743 485 22.0227
98.3916 530 23.0217
98.509 547 23.388
98.6264 538 23.1948
98.7438 569 23.8537
98.8612 577 24.0208
98.9786 589 24.2693
99.096 576 24
99.2134 579 24.0624
99.3308 610 24.6982
99.4482 551 23.4734
99.5656 572 23.9165
99.6831 581 24.1039
99.8005 578 24.0416
99.9179 555 23.5584
100.035 618 24.8596
100.153 614 24.779
100.27 637 25.2389
100.388 587 24.2281
100.505 635 25.1992
100.622 576 24
100.74 598 24.454
100.857 565 23.7697
100.975 532 23.0651
101.092 588 24.2487
101.209 575 23.9792
101.327 535 23.1301
101.444 529 23
101.561 518 22.7596
101.679 500 22.3607
101.796 520 22.8035
101.913 543 23.3024
102.03 582 24.1247
102.148 616 24.8193
102.265 566 23.7908
102.382 576 24
102.499 625 25
102.616 599 24.4745
102.733 607 24.6374
102.851 656 25.6125
102.968 659 25.671
103.085 622 24.9399
103.202 605 24.5967
103.319 597 24.4336
103.436 644 25.3772
103.552 637 25.2389
103.669 648 25.4558
103.786 705 26.5518
103.903 657 25.632
104.02 673 25.9422
104.137 637 25.2389
104.253 618 24.8596
104.37 603 24.5561
104.487 586 24.2074
104.603 572 23.9165
104.72 611 24.7184
104.836 548 23.4094
104.953 537 23.1733
105.069 517 22.7376
105.186 517 22.7376
105.302 511 22.6053
105.418 440 20.9762
105.535 439 20.9523
105.651 414 20.347
105.767 383 19.5704
105.883 322 17.9444
105.999 333 18.2483
106.115 0 1
106.231 0 1
106.347 0 1
106.463 0 1
106.579 0 1
106.694 0 1
106.81 0 1
106.926 0 1
107.041 0 1
107.157 0 1
109.576 0 1
109.692 0 1
109.807 0 1
109.923 0 1
110.039 0 1
110.155 0 1
110.27 0 1
110.386 0 1
110.502 0 1
110.618 291 17.0587
110.735 416 20.3961
110.851 426 20.6398
110.967 517 22.7376
111.083 501 22.383
111.199 504 22.4499
111.316 595 24.3926
111.432 593 24.3516
111.549 584 24.1661
111.665 573 23.9374
111.782 532 23.0651
111.898 566 23.7908
112.015 529 23
112.132 595 24.3926
112.248 608 24.6577
112.365 606 24.6171
112.482 606 24.6171
112.599 608 24.6577
112.716 571 23.8956
112.832 556 23.5797
112.949 531 23.0434
113.066 548 23.4094
113.183 518 22.7596
113.3 537 23.1733
113.417 562 23.7065
113.534 503 22.4277
113.652 510 22.5832
113.769 520 22.8035
113.886 449 21.1896
114.003 493 22.2036
114.12 460 21.4476
114.238 470 21.6795
114.355 543 23.3024
114.472 586 24.2074
114.589 575 23.9792
114.707 531 23.0434
114.824 537 23.1733
114.942 509 22.561
115.059 548 23.4094
115.176 557 23.6008
115.294 550 23.4521
115.411 511 22.6053
115.529 537 23.1733
115.646 498 22.3159
115.764 533 23.0868
115.881 568 23.8328
115.999 559 23.6432
116.116 542 23.2809
116.234 539 23.2164
116.351 548 23.4094
116.469 539 23.2164
116.586 481 21.9317
116.704 515 22.6936
116.821 485 22.0227
116.939 496 22.2711
117.056 501 22.383
117.174 525 22.9129
117.291 474 21.7715
117.409 460 21.4476
117.526 412 20.2978
117.644 417 20.4206
117.761 448 21.166
117.879 504 22.4499
117.996 508 22.5389
118.114 486 22.0454
118.231 501 22.383
118.349 509 22.561
118.466 517 22.7376
118.584 506 22.4944
118.701 528 22.9783
118.819 484 22
118.936 487 22.0681
119.053 503 22.4277
119.171 497 22.2935
119.288 488 22.0907
119.405 503 22.4277
119.523 500 22.3607
119.64 486 22.0454
119.757 475 21.7945
119.875 480 21.9089
119.992 494 22.2261
120.109 497 22.2935
120.226 489 22.1133
120.343 481 21.9317
120.46 453 21.2838
120.578 507 22.5167
120.695 519 22.7816
120.812 469 21.6564
120.929 454 21.3073
121.046 429 20.7123
121.163 406 20.1494
121.279 446 21.1187
121.396 414 20.347
121.513 414 20.347
121.63 438 20.9284
121.747 491 22.1585
121.863 451 21.2368
121.98 420 20.4939
122.097 461 21.4709
122.213 406 20.1494
122.33 386 19.6469
122.446 390 19.7484
122.563 371 19.2614
122.679 332 18.2209
122.795 319 17.8606
122.912 311 17.6352
123.028 308 17.5499
123.144 270 16.4317
123.26 253 15.906
123.377 0 1
123.493 0 1
123.609 0 1
123.725 0 1
123.84 0 1
123.956 0 1
124.072 0 1
124.188 0 1
124.303 0 1
124.419 0 1
126.852 0 1
126.968 0 1
127.083 0 1
127.199 0 1
127.315 0 1
127.431 0 1
127.547 0 1
127.663 0 1
127.779 0 1
127.895 0 1
128.011 0 1
128.127 0 1
128.243 0 1
128.359 497 22.2935
128.476 561 23.6854
128.592 557 23.6008
128.708 572 23.9165
128.825 614 24.779
128.941 575 23.9792
129.058 588 24.2487
129.174 637 25.2389
129.291 592 24.3311
129.408 521 22.8254
129.524 600 24.4949
129.641 576 24
129.758 597 24.4336
129.875 650 25.4951
129.992 623 24.96
130.108 598 24.454
130.225 545 23.3452
130.342 567 23.8118
130.459 541 23.2594
130.576 662 25.7294
130.693 685 26.1725
130.81 741 27.2213
130.928 777 27.8747
131.045 814 28.5307
131.162 924 30.3974
131.279 879 29.6479
131.396 896 29.9333
131.513 901 30.0167
131.631 993 31.5119
131.748 1290 35.9166
131.865 1431 37.8286
131.983 1648 40.5956
132.1 1823 42.6966
132.217 1952 44.1814
132.335 2116 46
132.452 2419 49.1833
132.57 2457 49.5681
132.687 2476 49.7594
132.804 2765 52.5833
132.922 2782 52.7447
133.039 2889 53.7494
133.157 2921 54.0463
133.274 2969 54.4885
133.392 2980 54.5894
133.509 3063 55.3444
133.627 3140 56.0357
133.744 3044 55.1725
133.862 3038 55.1181
133.979 3025 55
134.097 2948 54.2955
134.214 3128 55.9285
134.332 3249 57
134.449 3227 56.8067
134.567 3272 57.2014
134.684 3178 56.3738
134.802 3031 55.0545
134.919 2987 54.6535
135.037 2925 54.0833
135.154 2723 52.1824
135.272 2631 51.2933
135.389 2378 48.7647
135.507 1830 42.7785
135.624 1255 35.426
135.742 1087 32.9697
135.859 1382 37.1753
135.977 1764 42
136.094 1895 43.5316
136.211 1971 44.3959
136.329 1872 43.2666
136.446 1822 42.6849
136.564 1620 40.2492
136.681 1551 39.3827
136.798 1509 38.8458
136.915 1421 37.6962
137.033 1316 36.2767
137.15 1268 35.609
137.267 1252 35.3836
137.384 1218 34.8999
137.502 1194 34.5543
137.619 1070 32.7109
137.736 1098 33.1361
137.853 996 31.5595
137.97 1073 32.7567
138.087 1079 32.8481
138.204 1056 32.4962
138.321 1156 34
138.438 1204 34.6987
138.555 1231 35.0856
138.672 1219 34.9142
138.788 1255 35.426
138.905 1151 33.9264
139.022 1094 33.0757
139.139 1053 32.45
139.255 1070 32.7109
139.372 1000 31.6228
139.488 993 31.5119
139.605 986 31.4006
139.721 960 30.9839
139.838 918 30.2985
139.954 934 30.5614
140.071 874 29.5635
140.187 825 28.7228
140.303 811 28.4781
140.419 804 28.3549
140.535 765 27.6586
140.652 832 28.8444
140.768 0 1
140.884 0 1
141 0 1
141.115 0 1
141.231 0 1
141.347 0 1
141.463 0 1
141.578 0 1
141.694 0 1
144.104 0 1
144.219 0 1
144.335 0 1
144.45 0 1
144.566 0 1
144.682 0 1
144.798 0 1
144.914 0 1
145.03 0 1
145.146 2470 49.6991
145.262 3653 60.4401
145.378 5671 75.306
145.494 9359 96.7419
145.61 15453 124.31
145.726 24554 156.697
145.842 36892 192.073
145.959 51381 226.674
146.075 67009 258.861
146.192 83084 288.243
146.308 98189 313.351
146.425 111359 333.705
146.541 122247 349.638
146.658 129324 359.616
146.774 134719 367.041
146.891 136495 369.452
147.008 136798 369.862
147.125 131738 362.957
147.241 126804 356.095
147.358 118780 344.645
147.475 108067 328.735
147.592 96291 310.308
147.709 84334 290.403
147.826 71052 266.556
147.943 61239 247.465
148.06 52810 229.804
148.177 46199 214.94
148.294 41233 203.059
148.411 36793 191.815
148.528 33424 182.822
148.645 30284 174.023
148.762 28343 168.354
148.88 26431 162.576
148.997 24982 158.057
149.114 22663 150.542
149.231 21603 146.98
149.349 20486 143.129
149.466 18676 136.66
149.583 17450 132.098
149.701 16303 127.683
149.818 15176 123.191
149.935 13643 116.803
150.053 12585 112.183
150.17 11283 106.221
150.287 9248 96.1665
150.405 6652 81.5598
150.522 4981 70.5762
150.64 5581 74.7061
150.757 6656 81.5843
150.875 7144 84.5222
150.992 6781 82.3468
151.11 6360 79.7496
151.227 6086 78.0128
151.344 5672 75.3127
151.462 5311 72.8766
151.579 4985 70.6045
151.697 4781 69.1448
151.814 4335 65.8407
151.932 4117 64.1639
152.049 3915 62.57
152.167 3748 61.2209
152.284 3405 58.3524
152.402 3260 57.0964
152.519 3121 55.8659
152.636 2997 54.7449
152.754 2748 52.4214
152.871 2793 52.8488
152.989 2561 50.6063
153.106 2487 49.8698
153.223 2340 48.3735
153.341 2387 48.8569
153.458 2267 47.613
153.575 2252 47.4552
153.693 2099 45.8148
153.81 1898 43.566
153.927 1832 42.8019
154.044 1742 41.7373
154.162 1642 40.5216
154.279 1548 39.3446
154.396 1764 42
154.513 1874 43.2897
154.63 2016 44.8999
154.747 2033 45.0888
154.864 2005 44.7772
154.981 2052 45.299
155.098 1987 44.5758
155.215 1830 42.7785
155.332 1898 43.566
155.449 1927 43.8976
155.566 1910 43.7035
155.683 1883 43.3935
155.8 1932 43.9545
155.917 1911 43.715
156.033 1878 43.3359
156.15 0 1
156.267 0 1
156.383 0 1
156.5 0 1
156.617 0 1
156.733 0 1
156.85 0 1
156.966 0 1
157.082 0 1
157.199 0 1
157.315 0 1
157.431 0 1
157.547 0 1
157.664 0 1
157.78 0 1
157.896 0 1
158.012 0 1
158.128 0 1
158.244 0 1
158.359 0 1
158.475 0 1
158.591 0 1
158.706 0 1
