
6.15755 0 1
6.2731 0 1
6.3887 0 1
6.50437 0 1
6.62009 0 1
6.73587 0 1
6.8517 0 1
6.96759 0 1
7.08353 0 1
7.19952 0 1
7.31557 0 1
7.43166 0 1
7.54781 0 1
7.664 0 1
7.78024 0 1
7.89653 0 1
8.01286 0 1
8.12924 0 1
8.24567 0 1
8.36213 0 1
8.47864 0 1
8.59519 0 1
8.71178 0 1
8.82841 0 1
8.94508 0 1
9.06179 0 1
9.17853 0 1
9.29531 0 1
9.41212 0 1
9.52897 0 1
9.64584 0 1
9.76276 0 1
9.8797 0 1
9.99667 0 1
10.1137 0 1
10.2307 0 1
10.3478 0 1
10.4648 0 1
10.5819 0 1
10.6991 0 1
10.8162 0 1
10.9334 0 1
11.0506 0 1
11.1678 0 1
11.285 0 1
11.4023 0 1
11.5196 0 1
11.6369 0 1
11.7542 0 1
11.8715 0 1
11.9888 0 1
12.1062 0 1
12.2235 0 1
12.3409 0 1
12.4582 0 1
12.5756 0 1
12.693 0 1
12.8104 0 1
12.9278 0 1
13.0452 0 1
13.1626 0 1
13.28 0 1
13.3974 0 1
13.5149 0 1
13.6323 0 1
13.7497 0 1
13.8671 0 1
13.9845 0 1
14.1019 0 1
14.2193 0 1
14.3367 0 1
14.4541 0 1
14.5714 0 1
14.6888 0 1
14.8062 0 1
14.9235 0 1
15.0408 1399 37.4032
15.1581 1412 37.5766
15.2755 1439 37.9342
15.3927 1524 39.0384
15.51 1549 39.3573
15.6273 1523 39.0256
15.7445 1547 39.3319
15.8617 1463 38.2492
15.9789 1502 38.7556
16.0961 1528 39.0896
16.2132 1418 37.6563
16.3304 1443 37.9868
16.4475 1512 38.8844
16.5646 1608 40.0999
16.6816 1715 41.4126
16.7986 1722 41.497
16.9156 1792 42.332
17.0326 1785 42.2493
17.1496 1756 41.9047
17.2665 1735 41.6533
17.3833 1763 41.9881
17.5002 1641 40.5093
17.617 1665 40.8044
17.7338 1579 39.7366
17.8505 1420 37.6829
17.9672 1533 39.1535
18.0839 1526 39.064
18.2005 1564 39.5474
18.3171 1628 40.3485
18.4337 1674 40.9145
18.5502 1660 40.7431
18.6666 1703 41.2674
18.7831 1678 40.9634
18.8994 1720 41.4729
19.0158 1720 41.4729
19.1321 1667 40.8289
19.2483 1554 39.4208
19.3645 1473 38.3797
19.4806 1476 38.4187
19.5967 1335 36.5377
19.7128 1235 35.1426
19.8288 1169 34.1906
19.9447 1013 31.8277
20.0606 0 1
20.1764 0 1
20.2922 0 1
20.4079 0 1
20.5236 0 1
20.6392 0 1
20.7548 0 1
20.8702 0 1
23.3078 0 1
23.4233 0 1
23.539 0 1
23.6547 0 1
23.7704 0 1
23.8862 0 1
24.0021 0 1
24.118 0 1
24.234 0 1
24.35 0 1
24.4661 668 25.8457
24.5822 832 28.8444
24.6984 963 31.0322
24.8146 1043 32.2955
24.9309 1157 34.0147
25.0472 1228 35.0428
25.1636 1310 36.1939
25.28 1467 38.3014
25.3965 1529 39.1024
25.513 1585 39.8121
25.6296 1828 42.7551
25.7462 1897 43.5546
25.8628 1932 43.9545
25.9795 1866 43.1972
26.0962 1914 43.7493
26.213 1822 42.6849
26.3298 1705 41.2916
26.4466 1574 39.6737
26.5635 1639 40.4846
26.6804 1599 39.9875
26.7973 1672 40.8901
26.9143 1650 40.6202
27.0313 1655 40.6817
27.1483 1762 41.9762
27.2653 1694 41.1582
27.3824 1799 42.4146
27.4996 1796 42.3792
27.6167 1795 42.3674
27.7339 1709 41.3401
27.8511 1758 41.9285
27.9683 1750 41.833
28.0855 1582 39.7744
28.2028 1582 39.7744
28.3201 1508 38.833
28.4374 1512 38.8844
28.5547 1532 39.1408
28.6721 1599 39.9875
28.7894 1576 39.6989
28.9068 1714 41.4005
29.0242 1817 42.6263
29.1416 1796 42.3792
29.259 1821 42.6732
29.3764 1861 43.1393
29.4939 1879 43.3474
29.6113 1735 41.6533
29.7288 1733 41.6293
29.8463 1617 40.2119
29.9638 1541 39.2556
30.0812 1502 38.7556
30.1987 1514 38.9102
30.3162 1549 39.3573
30.4337 1655 40.6817
30.5512 1657 40.7063
30.6687 1570 39.6232
30.7862 1709 41.3401
30.9037 1775 42.1307
31.0212 1729 41.5812
31.1387 1730 41.5933
31.2562 1722 41.497
31.3737 1678 40.9634
31.4912 1623 40.2865
31.6087 1610 40.1248
31.7262 1631 40.3856
31.8436 1456 38.1576
31.9611 1504 38.7814
32.0785 1482 38.4968
32.1959 1480 38.4708
32.3134 1625 40.3113
32.4308 1567 39.5854
32.5482 1654 40.6694
32.6655 1763 41.9881
32.7829 1796 42.3792
32.9002 1743 41.7493
33.0176 1727 41.5572
33.1349 1833 42.8135
33.2522 1715 41.4126
33.3694 1630 40.3733
33.4867 1571 39.6358
33.6039 1448 38.0526
33.7211 1424 37.7359
33.8383 1367 36.973
33.9554 1439 37.9342
34.0725 1548 39.3446
34.1896 1554 39.4208
34.3067 1564 39.5474
34.4237 1673 40.9023
34.5407 1683 41.0244
34.6577 1644 40.5463
34.7746 1688 41.0853
34.8915 1644 40.5463
35.0084 1637 40.4599
35.1252 1569 39.6106
35.242 1582 39.7744
35.3587 1456 38.1576
35.4755 1396 37.3631
35.5921 1402 37.4433
35.7088 1304 36.1109
35.8254 1429 37.8021
35.9419 1514 38.9102
36.0584 1462 38.2361
36.1749 1522 39.0128
36.2913 1556 39.4462
36.4077 1574 39.6737
36.524 1491 38.6135
36.6403 1457 38.1707
36.7565 1378 37.1214
36.8727 1340 36.606
36.9889 1272 35.6651
37.1049 1188 34.4674
37.221 0 1
37.3369 0 1
37.4529 0 1
37.5687 0 1
37.6845 0 1
37.8003 0 1
37.916 0 1
38.0316 0 1
38.1472 0 1
40.5851 0 1
40.7008 0 1
40.8164 0 1
40.9322 0 1
41.048 0 1
41.1639 0 1
41.2798 0 1
41.3958 0 1
41.5118 0 1
41.6279 0 1
41.744 753 27.4408
41.8602 866 29.4279
41.9765 994 31.5278
42.0928 1012 31.8119
42.2091 992 31.496
42.3255 925 30.4138
42.4419 1001 31.6386
42.5584 985 31.3847
42.675 1060 32.5576
42.7915 1115 33.3916
42.9081 1231 35.0856
43.0248 1249 35.3412
43.1415 1287 35.8748
43.2582 1329 36.4555
43.375 1275 35.7071
43.4918 1381 37.1618
43.6087 1355 36.8103
43.7256 1368 36.9865
43.8425 1344 36.6606
43.9595 1308 36.1663
44.0765 1288 35.8887
44.1935 1254 35.4119
44.3106 1310 36.1939
44.4277 1130 33.6155
44.5448 1103 33.2114
44.6619 1179 34.3366
44.7791 1172 34.2345
44.8963 1286 35.8608
45.0136 1407 37.51
45.1308 1355 36.8103
45.2481 1417 37.6431
45.3654 1350 36.7423
45.4827 1405 37.4833
45.6001 1389 37.2693
45.7174 1328 36.4417
45.8348 1267 35.5949
45.9522 1161 34.0735
46.0697 1151 33.9264
46.1871 1162 34.0881
46.3046 1200 34.641
46.422 1243 35.2562
46.5395 1273 35.6791
46.657 1360 36.8782
46.7745 1342 36.6333
46.892 1402 37.4433
47.0096 1465 38.2753
47.1271 1501 38.7427
47.2446 1376 37.0945
47.3622 1407 37.51
47.4797 1427 37.7757
47.5973 1385 37.2156
47.7149 1291 35.9305
47.8324 1347 36.7015
47.95 1248 35.327
48.0675 1166 34.1467
48.1851 1163 34.1028
48.3027 1209 34.7707
48.4202 1248 35.327
48.5378 1356 36.8239
48.6554 1416 37.6298
48.7729 1421 37.6962
48.8904 1438 37.921
49.008 1381 37.1618
49.1255 1437 37.9078
49.243 1311 36.2077
49.3605 1220 34.9285
49.478 1254 35.4119
49.5955 1143 33.8083
49.713 1071 32.7261
49.8304 1154 33.9706
49.9479 1188 34.4674
50.0653 1244 35.2704
50.1827 1309 36.1801
50.3001 1397 37.3765
50.4175 1351 36.756
50.5348 1502 38.7556
50.6521 1481 38.4838
50.7694 1556 39.4462
50.8867 1411 37.5633
51.004 1507 38.8201
51.1212 1470 38.3406
51.2384 1471 38.3536
51.3556 1394 37.3363
51.4727 1373 37.054
51.5899 1264 35.5528
51.707 1229 35.0571
51.824 1386 37.229
51.9411 1515 38.923
52.0581 1628 40.3485
52.175 1712 41.3763
52.2919 1895 43.5316
52.4088 1813 42.5793
52.5257 1908 43.6807
52.6425 1943 44.0795
52.7593 1995 44.6654
52.876 1896 43.5431
52.9927 1777 42.1545
53.1094 1727 41.5572
53.226 1603 40.0375
53.3426 1609 40.1123
53.4591 1620 40.2492
53.5756 1697 41.1947
53.692 1644 40.5463
53.8084 1634 40.4228
53.9248 1547 39.3319
54.0411 1564 39.5474
54.1573 1518 38.9615
54.2735 0 1
54.3896 0 1
54.5057 0 1
54.6217 0 1
54.7377 0 1
54.8537 0 1
54.9695 0 1
55.0853 0 1
55.2011 0 1
55.3168 0 1
55.4324 0 1
57.824 0 1
57.9396 0 1
58.0553 0 1
58.1711 0 1
58.2869 0 1
58.4028 0 1
58.5187 0 1
58.6347 0 1
58.7508 0 1
58.8669 0 1
58.983 1065 32.6343
59.0992 1253 35.3977
59.2155 1400 37.4166
59.3318 1486 38.5487
59.4482 1543 39.281
59.5646 1606 40.0749
59.681 1637 40.4599
59.7975 1607 40.0874
59.9141 1663 40.7799
60.0306 1591 39.8873
60.1473 1585 39.8121
60.2639 1627 40.3361
60.3807 1453 38.1182
60.4974 1504 38.7814
60.6142 1575 39.6863
60.731 1727 41.5572
60.8479 1787 42.2729
60.9648 1799 42.4146
61.0818 1786 42.2611
61.1987 1761 41.9643
61.3158 1886 43.4281
61.4328 1755 41.8927
61.5499 1654 40.6694
61.667 1583 39.7869
61.7841 1402 37.4433
61.9013 1383 37.1887
62.0185 1338 36.5787
62.1357 1470 38.3406
62.253 1521 39
62.3702 1694 41.1582
62.4875 1719 41.4608
62.6049 1676 40.939
62.7222 1738 41.6893
62.8396 1803 42.4617
62.9569 1779 42.1782
63.0743 1731 41.6053
63.1918 1782 42.2137
63.3092 1750 41.833
63.4267 1736 41.6653
63.5441 1567 39.5854
63.6616 1548 39.3446
63.7791 1522 39.0128
63.8966 1373 37.054
64.0142 1349 36.7287
64.1317 1513 38.8973
64.2492 1626 40.3237
64.3668 1714 41.4005
64.4843 1709 41.3401
64.6019 1745 41.7732
64.7195 1744 41.7612
64.837 1724 41.5211
64.9546 1726 41.5452
65.0722 1708 41.328
65.1898 1586 39.8246
65.3074 1342 36.6333
65.4249 1386 37.229
65.5425 1326 36.4143
65.6601 1286 35.8608
65.7777 1404 37.47
65.8952 1531 39.128
66.0128 1603 40.0375
66.1304 1664 40.7922
66.2479 1765 42.0119
66.3655 1691 41.1218
66.483 1754 41.8808
66.6005 1745 41.7732
66.718 1826 42.7317
66.8355 1701 41.2432
66.953 1688 41.0853
67.0705 1657 40.7063
67.1879 1491 38.6135
67.3054 1572 39.6485
67.4228 1433 37.855
67.5402 1348 36.7151
67.6576 1374 37.0675
67.7749 1374 37.0675
67.8923 1478 38.4448
68.0096 1637 40.4599
68.1269 1664 40.7922
68.2442 1635 40.4351
68.3614 1676 40.939
68.4787 1631 40.3856
68.5958 1647 40.5832
68.713 1610 40.1248
68.8302 1510 38.8587
68.9473 1425 37.7492
69.0643 1353 36.7831
69.1814 1118 33.4365
69.2984 1332 36.4966
69.4154 1324 36.3868
69.5323 1423 37.7227
69.6492 1496 38.6782
69.7661 1557 39.4588
69.8829 1640 40.4969
69.9997 1533 39.1535
70.1165 1522 39.0128
70.2332 1455 38.1445
70.3499 1466 38.2884
70.4665 1358 36.8511
70.5831 1262 35.5246
70.6996 1197 34.5977
70.8161 1141 33.7787
70.9326 1093 33.0606
71.049 922 30.3645
71.1653 786 28.0357
71.2817 659 25.671
71.3979 603 24.5561
71.5141 589 24.2693
71.6303 607 24.6374
71.7464 528 22.9783
71.8624 0 1
71.9784 0 1
72.0944 0 1
72.2102 0 1
72.3261 0 1
72.4418 0 1
72.5575 0 1
72.6732 0 1
75.1054 0 1
75.2209 0 1
75.3365 0 1
75.4521 0 1
75.5678 0 1
75.6835 0 1
75.7993 0 1
75.9151 0 1
76.031 0 1
76.147 996 31.5595
76.263 1160 34.0588
76.3791 1132 33.6452
76.4952 1086 32.9545
76.6113 1144 33.8231
76.7276 1104 33.2265
76.8438 1293 35.9583
76.9601 1348 36.7151
77.0765 1459 38.1969
77.1929 1470 38.3406
77.3093 1463 38.2492
77.4258 1495 38.6652
77.5423 1392 37.3095
77.6589 1430 37.8153
77.7755 1305 36.1248
77.8921 1219 34.9142
78.0088 1099 33.1512
78.1256 1032 32.1248
78.2423 1026 32.0312
78.3591 1020 31.9374
78.4759 1146 33.8526
78.5928 1213 34.8281
78.7097 1342 36.6333
78.8266 1370 37.0135
78.9436 1434 37.8682
79.0606 1482 38.4968
79.1776 1522 39.0128
79.2946 1447 38.0395
79.4117 1511 38.8716
79.5288 1438 37.921
79.6459 1503 38.7685
79.7631 1478 38.4448
79.8802 1423 37.7227
79.9974 1301 36.0694
80.1147 1193 34.5398
80.2319 1234 35.1283
80.3491 1274 35.6931
80.4664 1297 36.0139
80.5837 1372 37.0405
80.701 1501 38.7427
80.8183 1477 38.4318
80.9357 1510 38.8587
81.053 1482 38.4968
81.1704 1490 38.6005
81.2877 1477 38.4318
81.4051 1428 37.7889
81.5225 1369 37
81.6399 1304 36.1109
81.7573 1194 34.5543
81.8747 1148 33.8821
81.9922 1054 32.4654
82.1096 1225 35
82.227 1311 36.2077
82.3444 1351 36.756
82.4619 1417 37.6431
82.5793 1508 38.833
82.6967 1517 38.9487
82.8142 1609 40.1123
82.9316 1487 38.5616
83.049 1508 38.833
83.1664 1516 38.9358
83.2838 1551 39.3827
83.4012 1458 38.1838
83.5186 1480 38.4708
83.636 1487 38.5616
83.7534 1280 35.7771
83.8708 1241 35.2278
83.9881 1178 34.322
84.1055 1221 34.9428
84.2228 1216 34.8712
84.3401 1401 37.4299
84.4575 1574 39.6737
84.5747 1566 39.5727
84.692 1625 40.3113
84.8093 1591 39.8873
84.9265 1504 38.7814
85.0437 1455 38.1445
85.1609 1390 37.2827
85.2781 1237 35.171
85.3952 1148 33.8821
85.5123 1148 33.8821
85.6294 1142 33.7935
85.7465 1259 35.4824
85.8636 1378 37.1214
85.9806 1484 38.5227
86.0976 1516 38.9358
86.2145 1480 38.4708
86.3315 1527 39.0768
86.4484 1521 39
86.5652 1551 39.3827
86.682 1587 39.8372
86.7988 1515 38.923
86.9156 1577 39.7115
87.0323 1480 38.4708
87.149 1543 39.281
87.2657 1440 37.9473
87.3823 1222 34.9571
87.4988 1073 32.7567
87.6154 1067 32.665
87.7318 1030 32.0936
87.8483 1119 33.4515
87.9647 1182 34.3802
88.081 1252 35.3836
88.1973 1205 34.7131
88.3136 1147 33.8674
88.4298 1155 33.9853
88.546 1083 32.909
88.6621 971 31.1609
88.7781 734 27.0924
88.8942 0 1
89.0101 0 1
89.126 0 1
89.2419 0 1
89.3577 0 1
89.4734 0 1
89.5891 0 1
89.7047 0 1
89.8203 0 1
89.9358 0 1
92.3269 0 1
92.4424 0 1
92.558 0 1
92.6736 0 1
92.7893 0 1
92.905 0 1
93.0208 0 1
93.1366 0 1
93.2525 0 1
93.3685 0 1
93.4845 0 1
93.6005 1096 33.1059
93.7167 1190 34.4964
93.8328 1234 35.1283
93.949 1329 36.4555
94.0653 1342 36.6333
94.1816 1358 36.8511
94.2979 1316 36.2767
94.4143 1298 36.0278
94.5307 1181 34.3657
94.6472 1146 33.8526
94.7637 1155 33.9853
94.8803 1259 35.4824
94.9969 1396 37.3631
95.1135 1387 37.2424
95.2302 1504 38.7814
95.3469 1504 38.7814
95.4637 1582 39.7744
95.5805 1578 39.724
95.6973 1566 39.5727
95.8142 1572 39.6485
95.9311 1658 40.7185
96.048 1527 39.0768
96.1649 1623 40.2865
96.2819 1479 38.4578
96.3989 1505 38.7943
96.516 1474 38.3927
96.633 1314 36.2491
96.7501 1288 35.8887
96.8673 1311 36.2077
96.9844 1343 36.647
97.1016 1450 38.0789
97.2188 1407 37.51
97.336 1594 39.9249
97.4532 1635 40.4351
97.5704 1649 40.6079
97.6877 1639 40.4846
97.805 1609 40.1123
97.9223 1537 39.2046
98.0396 1367 36.973
98.1569 1307 36.1525
98.2743 1250 35.3553
98.3916 1124 33.5261
98.509 1269 35.623
98.6264 1382 37.1753
98.7438 1473 38.3797
98.8612 1587 39.8372
98.9786 1591 39.8873
99.096 1547 39.3319
99.2134 1612 40.1497
99.3308 1762 41.9762
99.4482 1690 41.1096
99.5656 1677 40.9512
99.6831 1756 41.9047
99.8005 1618 40.2244
99.9179 1692 41.1339
100.035 1595 39.9375
100.153 1461 38.223
100.27 1437 37.9078
100.388 1319 36.318
100.505 1437 37.9078
100.622 1491 38.6135
100.74 1545 39.3065
100.857 1686 41.0609
100.975 1697 41.1947
101.092 1725 41.5331
101.209 1744 41.7612
101.327 1677 40.9512
101.444 1643 40.5339
101.561 1540 39.2428
101.679 1418 37.6563
101.796 1308 36.1663
101.913 1225 35
102.03 1319 36.318
102.148 1432 37.8418
102.265 1521 39
102.382 1631 40.3856
102.499 1649 40.6079
102.616 1734 41.6413
102.733 1719 41.4608
102.851 1781 42.2019
102.968 1782 42.2137
103.085 1754 41.8808
103.202 1716 41.4246
103.319 1782 42.2137
103.436 1782 42.2137
103.552 1664 40.7922
103.669 1559 39.4842
103.786 1476 38.4187
103.903 1500 38.7298
104.02 1439 37.9342
104.137 1514 38.9102
104.253 1670 40.8656
104.37 1772 42.0951
104.487 1855 43.0697
104.603 1870 43.2435
104.72 1767 42.0357
104.836 1652 40.6448
104.953 1672 40.8901
105.069 1380 37.1484
105.186 1320 36.3318
105.302 1205 34.7131
105.418 1108 33.2866
105.535 1094 33.0757
105.651 1096 33.1059
105.767 1166 34.1467
105.883 1151 33.9264
105.999 1050 32.4037
106.115 0 1
106.231 0 1
106.347 0 1
106.463 0 1
106.579 0 1
106.694 0 1
106.81 0 1
106.926 0 1
107.041 0 1
107.157 0 1
109.576 0 1
109.692 0 1
109.807 0 1
109.923 0 1
110.039 0 1
110.155 0 1
110.27 0 1
110.386 0 1
110.502 0 1
110.618 688 26.2298
110.735 908 30.133
110.851 1101 33.1813
110.967 1254 35.4119
111.083 1391 37.2961
111.199 1468 38.3145
111.316 1505 38.7943
111.432 1548 39.3446
111.549 1703 41.2674
111.665 1675 40.9268
111.782 1656 40.694
111.898 1694 41.1582
112.015 1613 40.1622
112.132 1554 39.4208
112.248 1447 38.0395
112.365 1316 36.2767
112.482 1394 37.3363
112.599 1465 38.2753
112.716 1515 38.923
112.832 1621 40.2616
112.949 1699 41.2189
113.066 1689 41.0974
113.183 1719 41.4608
113.3 1696 41.1825
113.417 1693 41.1461
113.534 1768 42.0476
113.652 1427 37.7757
113.769 1370 37.0135
113.886 1280 35.7771
114.003 1202 34.6699
114.12 1246 35.2987
114.238 1398 37.3898
114.355 1429 37.8021
114.472 1499 38.7169
114.589 1750 41.833
114.707 1666 40.8167
114.824 1688 41.0853
114.942 1744 41.7612
115.059 1639 40.4846
115.176 1737 41.6773
115.294 1695 41.1704
115.411 1675 40.9268
115.529 1707 41.3159
115.646 1574 39.6737
115.764 1510 38.8587
115.881 1431 37.8286
115.999 1370 37.0135
116.116 1471 38.3536
116.234 1482 38.4968
116.351 1622 40.2741
116.469 1647 40.5832
116.586 1640 40.4969
116.704 1657 40.7063
116.821 1741 41.7253
116.939 1697 41.1947
117.056 1709 41.3401
117.174 1554 39.4208
117.291 1411 37.5633
117.409 1307 36.1525
117.526 1158 34.0294
117.644 1184 34.4093
117.761 1310 36.1939
117.879 1430 37.8153
117.996 1562 39.5221
118.114 1636 40.4475
118.231 1700 41.2311
118.349 1584 39.7995
118.466 1745 41.7732
118.584 1659 40.7308
118.701 1626 40.3237
118.819 1670 40.8656
118.936 1601 40.0125
119.053 1612 40.1497
119.171 1572 39.6485
119.288 1550 39.37
119.405 1449 38.0657
119.523 1339 36.5923
119.64 1410 37.55
119.757 1379 37.1349
119.875 1455 38.1445
119.992 1488 38.5746
120.109 1545 39.3065
120.226 1557 39.4588
120.343 1595 39.9375
120.46 1600 40
120.578 1571 39.6358
120.695 1557 39.4588
120.812 1486 38.5487
120.929 1360 36.8782
121.046 1296 36
121.163 1230 35.0714
121.279 1122 33.4963
121.396 1131 33.6303
121.513 1212 34.8138
121.63 1243 35.2562
121.747 1353 36.7831
121.863 1274 35.6931
121.98 1309 36.1801
122.097 1292 35.9444
122.213 1297 36.0139
122.33 1230 35.0714
122.446 1187 34.4529
122.563 1105 33.2415
122.679 1087 32.9697
122.795 1013 31.8277
122.912 930 30.4959
123.028 871 29.5127
123.144 694 26.3439
123.26 671 25.9037
123.377 0 1
123.493 0 1
123.609 0 1
123.725 0 1
123.84 0 1
123.956 0 1
124.072 0 1
124.188 0 1
124.303 0 1
124.419 0 1
126.852 0 1
126.968 0 1
127.083 0 1
127.199 0 1
127.315 0 1
127.431 0 1
127.547 0 1
127.663 0 1
127.779 0 1
127.895 0 1
128.011 0 1
128.127 0 1
128.243 0 1
128.359 1475 38.4057
128.476 1513 38.8973
128.592 1470 38.3406
128.708 1479 38.4578
128.825 1435 37.8814
128.941 1477 38.4318
129.058 1609 40.1123
129.174 1649 40.6079
129.291 1667 40.8289
129.408 1766 42.0238
129.524 1654 40.6694
129.641 1704 41.2795
129.758 1739 41.7013
129.875 1575 39.6863
129.992 1470 38.3406
130.108 1373 37.054
130.225 1341 36.6197
130.342 1257 35.4542
130.459 1296 36
130.576 1432 37.8418
130.693 1438 37.921
130.81 1574 39.6737
130.928 1528 39.0896
131.045 1552 39.3954
131.162 1675 40.9268
131.279 1731 41.6053
131.396 1719 41.4608
131.513 1706 41.3038
131.631 1682 41.0122
131.748 1660 40.7431
131.865 1652 40.6448
131.983 1516 38.9358
132.1 1538 39.2173
132.217 1501 38.7427
132.335 1443 37.9868
132.452 1536 39.1918
132.57 1558 39.4715
132.687 1756 41.9047
132.804 1754 41.8808
132.922 1740 41.7133
133.039 1765 42.0119
133.157 1763 41.9881
133.274 1800 42.4264
133.392 1650 40.6202
133.509 1536 39.1918
133.627 1459 38.1969
133.744 1304 36.1109
133.862 1312 36.2215
133.979 1349 36.7287
134.097 1401 37.4299
134.214 1541 39.2556
134.332 1596 39.95
134.449 1637 40.4599
134.567 1707 41.3159
134.684 1701 41.2432
134.802 1763 41.9881
134.919 1640 40.4969
135.037 1764 42
135.154 1725 41.5331
135.272 1675 40.9268
135.389 1614 40.1746
135.507 1559 39.4842
135.624 1483 38.5097
135.742 1507 38.8201
135.859 1474 38.3927
135.977 1500 38.7298
136.094 1615 40.1871
136.211 1537 39.2046
136.329 1716 41.4246
136.446 1688 41.0853
136.564 1751 41.845
136.681 1807 42.5088
136.798 1761 41.9643
136.915 1785 42.2493
137.033 1751 41.845
137.15 1570 39.6232
137.267 1486 38.5487
137.384 1347 36.7015
137.502 1264 35.5528
137.619 1311 36.2077
137.736 1446 38.0263
137.853 1526 39.064
137.97 1562 39.5221
138.087 1604 40.05
138.204 1673 40.9023
138.321 1617 40.2119
138.438 1673 40.9023
138.555 1762 41.9762
138.672 1668 40.8412
138.788 1687 41.0731
138.905 1618 40.2244
139.022 1470 38.3406
139.139 1387 37.2424
139.255 1301 36.0694
139.372 1197 34.5977
139.488 1152 33.9411
139.605 1104 33.2265
139.721 1151 33.9264
139.838 1148 33.8821
139.954 1129 33.6006
140.071 1112 33.3467
140.187 1066 32.6497
140.303 915 30.249
140.419 908 30.133
140.535 817 28.5832
140.652 778 27.8927
140.768 0 1
140.884 0 1
141 0 1
141.115 0 1
141.231 0 1
141.347 0 1
141.463 0 1
141.578 0 1
141.694 0 1
144.104 0 1
144.219 0 1
144.335 0 1
144.45 0 1
144.566 0 1
144.682 0 1
144.798 0 1
144.914 0 1
145.03 0 1
145.146 1197 34.5977
145.262 1351 36.756
145.378 1405 37.4833
145.494 1355 36.8103
145.61 1462 38.2361
145.726 1362 36.9053
145.842 1354 36.7967
145.959 1226 35.0143
146.075 1230 35.0714
146.192 1095 33.0908
146.308 1047 32.3574
146.425 1069 32.6956
146.541 1169 34.1906
146.658 1200 34.641
146.774 1215 34.8569
146.891 1209 34.7707
147.008 1223 34.9714
147.125 1329 36.4555
147.241 1332 36.4966
147.358 1322 36.3593
147.475 1366 36.9594
147.592 1287 35.8748
147.709 1255 35.426
147.826 1263 35.5387
147.943 1211 34.7994
148.06 1214 34.8425
148.177 1117 33.4215
148.294 1116 33.4066
148.411 1149 33.8969
148.528 1232 35.0999
148.645 1292 35.9444
148.762 1358 36.8511
148.88 1355 36.8103
148.997 1428 37.7889
149.114 1285 35.8469
149.231 1391 37.2961
149.349 1401 37.4299
149.466 1314 36.2491
149.583 1231 35.0856
149.701 1131 33.6303
149.818 1150 33.9116
149.935 1105 33.2415
150.053 1101 33.1813
150.17 1066 32.6497
150.287 1169 34.1906
150.405 1138 33.7343
150.522 1163 34.1028
150.64 1268 35.609
150.757 1231 35.0856
150.875 1310 36.1939
150.992 1312 36.2215
151.11 1310 36.1939
151.227 1299 36.0416
151.344 1246 35.2987
151.462 1237 35.171
151.579 1253 35.3977
151.697 1199 34.6266
151.814 1214 34.8425
151.932 1173 34.2491
152.049 1159 34.0441
152.167 1120 33.4664
152.284 1201 34.6554
152.402 1256 35.4401
152.519 1217 34.8855
152.636 1380 37.1484
152.754 1344 36.6606
152.871 1332 36.4966
152.989 1255 35.426
153.106 1228 35.0428
153.223 1149 33.8969
153.341 1097 33.121
153.458 1032 32.1248
153.575 1030 32.0936
153.693 1074 32.7719
153.81 1018 31.9061
153.927 1082 32.8938
154.044 1142 33.7935
154.162 1164 34.1174
154.279 1207 34.7419
154.396 1175 34.2783
154.513 1234 35.1283
154.63 1219 34.9142
154.747 1196 34.5832
154.864 1179 34.3366
154.981 1184 34.4093
155.098 1080 32.8634
155.215 1085 32.9393
155.332 1049 32.3883
155.449 1079 32.8481
155.566 1011 31.7962
155.683 1050 32.4037
155.8 1074 32.7719
155.917 1069 32.6956
156.033 1105 33.2415
156.15 0 1
156.267 0 1
156.383 0 1
156.5 0 1
156.617 0 1
156.733 0 1
156.85 0 1
156.966 0 1
157.082 0 1
157.199 0 1
157.315 0 1
157.431 0 1
157.547 0 1
157.664 0 1
157.78 0 1
157.896 0 1
158.012 0 1
158.128 0 1
158.244 0 1
158.359 0 1
158.475 0 1
158.591 0 1
158.706 0 1
