
6.15755 0 1
6.2731 0 1
6.3887 0 1
6.50437 0 1
6.62009 0 1
6.73587 0 1
6.8517 0 1
6.96759 0 1
7.08353 0 1
7.19952 0 1
7.31557 0 1
7.43166 0 1
7.54781 0 1
7.664 0 1
7.78024 0 1
7.89653 0 1
8.01286 0 1
8.12924 0 1
8.24567 0 1
8.36213 0 1
8.47864 0 1
8.59519 0 1
8.71178 0 1
8.82841 0 1
8.94508 0 1
9.06179 0 1
9.17853 0 1
9.29531 0 1
9.41212 0 1
9.52897 0 1
9.64584 0 1
9.76276 0 1
9.8797 0 1
9.99667 0 1
10.1137 0 1
10.2307 0 1
10.3478 0 1
10.4648 0 1
10.5819 0 1
10.6991 0 1
10.8162 0 1
10.9334 0 1
11.0506 0 1
11.1678 0 1
11.285 0 1
11.4023 0 1
11.5196 0 1
11.6369 0 1
11.7542 0 1
11.8715 0 1
11.9888 0 1
12.1062 0 1
12.2235 0 1
12.3409 0 1
12.4582 0 1
12.5756 0 1
12.693 0 1
12.8104 0 1
12.9278 0 1
13.0452 0 1
13.1626 0 1
13.28 0 1
13.3974 0 1
13.5149 0 1
13.6323 0 1
13.7497 0 1
13.8671 0 1
13.9845 0 1
14.1019 0 1
14.2193 0 1
14.3367 0 1
14.4541 0 1
14.5714 0 1
14.6888 0 1
14.8062 0 1
14.9235 0 1
15.0408 1387 37.2424
15.1581 1463 38.2492
15.2755 1471 38.3536
15.3927 1559 39.4842
15.51 1535 39.1791
15.6273 1521 39
15.7445 1575 39.6863
15.8617 1606 40.0749
15.9789 1552 39.3954
16.0961 1511 38.8716
16.2132 1499 38.7169
16.3304 1521 39
16.4475 1539 39.2301
16.5646 1683 41.0244
16.6816 1690 41.1096
16.7986 1747 41.7971
16.9156 1755 41.8927
17.0326 1846 42.9651
17.1496 1812 42.5676
17.2665 1778 42.1663
17.3833 1890 43.4741
17.5002 1748 41.8091
17.617 1711 41.3642
17.7338 1580 39.7492
17.8505 1590 39.8748
17.9672 1495 38.6652
18.0839 1594 39.9249
18.2005 1618 40.2244
18.3171 1634 40.4228
18.4337 1698 41.2068
18.5502 1676 40.939
18.6666 1761 41.9643
18.7831 1817 42.6263
18.8994 1868 43.2204
19.0158 1737 41.6773
19.1321 1761 41.9643
19.2483 1667 40.8289
19.3645 1596 39.95
19.4806 1359 36.8646
19.5967 1309 36.1801
19.7128 1267 35.5949
19.8288 1188 34.4674
19.9447 1054 32.4654
20.0606 0 1
20.1764 0 1
20.2922 0 1
20.4079 0 1
20.5236 0 1
20.6392 0 1
20.7548 0 1
20.8702 0 1
23.3078 0 1
23.4233 0 1
23.539 0 1
23.6547 0 1
23.7704 0 1
23.8862 0 1
24.0021 0 1
24.118 0 1
24.234 0 1
24.35 0 1
24.4661 743 27.258
24.5822 844 29.0517
24.6984 993 31.5119
24.8146 1131 33.6303
24.9309 1182 34.3802
25.0472 1289 35.9026
25.1636 1398 37.3898
25.28 1433 37.855
25.3965 1553 39.4081
25.513 1701 41.2432
25.6296 1811 42.5558
25.7462 1848 42.9884
25.8628 1953 44.1928
25.9795 1955 44.2154
26.0962 1943 44.0795
26.213 1834 42.8252
26.3298 1787 42.2729
26.4466 1710 41.3521
26.5635 1659 40.7308
26.6804 1704 41.2795
26.7973 1702 41.2553
26.9143 1741 41.7253
27.0313 1766 42.0238
27.1483 1775 42.1307
27.2653 1801 42.4382
27.3824 1813 42.5793
27.4996 1874 43.2897
27.6167 1888 43.4511
27.7339 1820 42.6615
27.8511 1775 42.1307
27.9683 1718 41.4488
28.0855 1643 40.5339
28.2028 1595 39.9375
28.3201 1573 39.6611
28.4374 1629 40.3609
28.5547 1591 39.8873
28.6721 1620 40.2492
28.7894 1689 41.0974
28.9068 1748 41.8091
29.0242 1906 43.6578
29.1416 1902 43.6119
29.259 1882 43.382
29.3764 1905 43.6463
29.4939 1807 42.5088
29.6113 1836 42.8486
29.7288 1768 42.0476
29.8463 1647 40.5832
29.9638 1565 39.5601
30.0812 1636 40.4475
30.1987 1614 40.1746
30.3162 1515 38.923
30.4337 1696 41.1825
30.5512 1652 40.6448
30.6687 1768 42.0476
30.7862 1722 41.497
30.9037 1795 42.3674
31.0212 1872 43.2666
31.1387 1798 42.4028
31.2562 1767 42.0357
31.3737 1727 41.5572
31.4912 1689 41.0974
31.6087 1760 41.9524
31.7262 1567 39.5854
31.8436 1525 39.0512
31.9611 1503 38.7685
32.0785 1537 39.2046
32.1959 1555 39.4335
32.3134 1624 40.2989
32.4308 1665 40.8044
32.5482 1771 42.0833
32.6655 1823 42.6966
32.7829 1794 42.3556
32.9002 1863 43.1625
33.0176 1747 41.7971
33.1349 1755 41.8927
33.2522 1766 42.0238
33.3694 1792 42.332
33.4867 1665 40.8044
33.6039 1556 39.4462
33.7211 1432 37.8418
33.8383 1464 38.2623
33.9554 1531 39.128
34.0725 1585 39.8121
34.1896 1656 40.694
34.3067 1664 40.7922
34.4237 1733 41.6293
34.5407 1675 40.9268
34.6577 1716 41.4246
34.7746 1724 41.5211
34.8915 1667 40.8289
35.0084 1691 41.1218
35.1252 1657 40.7063
35.242 1706 41.3038
35.3587 1583 39.7869
35.4755 1486 38.5487
35.5921 1442 37.9737
35.7088 1434 37.8682
35.8254 1402 37.4433
35.9419 1486 38.5487
36.0584 1524 39.0384
36.1749 1567 39.5854
36.2913 1560 39.4968
36.4077 1566 39.5727
36.524 1537 39.2046
36.6403 1576 39.6989
36.7565 1498 38.704
36.8727 1434 37.8682
36.9889 1265 35.5668
37.1049 1138 33.7343
37.221 0 1
37.3369 0 1
37.4529 0 1
37.5687 0 1
37.6845 0 1
37.8003 0 1
37.916 0 1
38.0316 0 1
38.1472 0 1
40.5851 0 1
40.7008 0 1
40.8164 0 1
40.9322 0 1
41.048 0 1
41.1639 0 1
41.2798 0 1
41.3958 0 1
41.5118 0 1
41.6279 0 1
41.744 875 29.5804
41.8602 863 29.3769
41.9765 990 31.4643
42.0928 1051 32.4191
42.2091 1009 31.7648
42.3255 1010 31.7805
42.4419 976 31.241
42.5584 974 31.209
42.675 1066 32.6497
42.7915 1258 35.4683
42.9081 1290 35.9166
43.0248 1384 37.2022
43.1415 1365 36.9459
43.2582 1390 37.2827
43.375 1410 37.55
43.4918 1425 37.7492
43.6087 1430 37.8153
43.7256 1407 37.51
43.8425 1456 38.1576
43.9595 1337 36.565
44.0765 1301 36.0694
44.1935 1298 36.0278
44.3106 1262 35.5246
44.4277 1205 34.7131
44.5448 1204 34.6987
44.6619 1222 34.9571
44.7791 1227 35.0286
44.8963 1351 36.756
45.0136 1404 37.47
45.1308 1481 38.4838
45.2481 1431 37.8286
45.3654 1497 38.6911
45.4827 1495 38.6652
45.6001 1484 38.5227
45.7174 1444 38
45.8348 1377 37.108
45.9522 1251 35.3695
46.0697 1148 33.8821
46.1871 1225 35
46.3046 1253 35.3977
46.422 1296 36
46.5395 1340 36.606
46.657 1372 37.0405
46.7745 1390 37.2827
46.892 1417 37.6431
47.0096 1481 38.4838
47.1271 1526 39.064
47.2446 1461 38.223
47.3622 1515 38.923
47.4797 1457 38.1707
47.5973 1421 37.6962
47.7149 1433 37.855
47.8324 1282 35.805
47.95 1324 36.3868
48.0675 1230 35.0714
48.1851 1174 34.2637
48.3027 1266 35.5809
48.4202 1230 35.0714
48.5378 1423 37.7227
48.6554 1413 37.5899
48.7729 1465 38.2753
48.8904 1414 37.6032
49.008 1522 39.0128
49.1255 1511 38.8716
49.243 1391 37.2961
49.3605 1305 36.1248
49.478 1252 35.3836
49.5955 1200 34.641
49.713 1158 34.0294
49.8304 1124 33.5261
49.9479 1217 34.8855
50.0653 1270 35.6371
50.1827 1397 37.3765
50.3001 1452 38.1051
50.4175 1474 38.3927
50.5348 1473 38.3797
50.6521 1511 38.8716
50.7694 1499 38.7169
50.8867 1555 39.4335
51.004 1640 40.4969
51.1212 1528 39.0896
51.2384 1519 38.9744
51.3556 1525 39.0512
51.4727 1451 38.092
51.5899 1368 36.9865
51.707 1441 37.9605
51.824 1494 38.6523
51.9411 1548 39.3446
52.0581 1610 40.1248
52.175 1809 42.5323
52.2919 1914 43.7493
52.4088 1861 43.1393
52.5257 1991 44.6206
52.6425 2030 45.0555
52.7593 1987 44.5758
52.876 1929 43.9204
52.9927 1846 42.9651
53.1094 1779 42.1782
53.226 1717 41.4367
53.3426 1614 40.1746
53.4591 1571 39.6358
53.5756 1704 41.2795
53.692 1662 40.7676
53.8084 1684 41.0366
53.9248 1630 40.3733
54.0411 1529 39.1024
54.1573 1507 38.8201
54.2735 0 1
54.3896 0 1
54.5057 0 1
54.6217 0 1
54.7377 0 1
54.8537 0 1
54.9695 0 1
55.0853 0 1
55.2011 0 1
55.3168 0 1
55.4324 0 1
57.824 0 1
57.9396 0 1
58.0553 0 1
58.1711 0 1
58.2869 0 1
58.4028 0 1
58.5187 0 1
58.6347 0 1
58.7508 0 1
58.8669 0 1
58.983 1124 33.5261
59.0992 1294 35.9722
59.2155 1480 38.4708
59.3318 1522 39.0128
59.4482 1609 40.1123
59.5646 1622 40.2741
59.681 1763 41.9881
59.7975 1725 41.5331
59.9141 1750 41.833
60.0306 1646 40.5709
60.1473 1572 39.6485
60.2639 1551 39.3827
60.3807 1558 39.4715
60.4974 1563 39.5348
60.6142 1531 39.128
60.731 1662 40.7676
60.8479 1818 42.638
60.9648 1827 42.7434
61.0818 1858 43.1045
61.1987 1818 42.638
61.3158 1867 43.2088
61.4328 1800 42.4264
61.5499 1726 41.5452
61.667 1549 39.3573
61.7841 1484 38.5227
61.9013 1408 37.5233
62.0185 1420 37.6829
62.1357 1538 39.2173
62.253 1605 40.0625
62.3702 1626 40.3237
62.4875 1805 42.4853
62.6049 1784 42.2374
62.7222 1795 42.3674
62.8396 1783 42.2256
62.9569 1812 42.5676
63.0743 1867 43.2088
63.1918 1831 42.7902
63.3092 1753 41.8688
63.4267 1752 41.8569
63.5441 1762 41.9762
63.6616 1609 40.1123
63.7791 1532 39.1408
63.8966 1487 38.5616
64.0142 1460 38.2099
64.1317 1550 39.37
64.2492 1654 40.6694
64.3668 1766 42.0238
64.4843 1790 42.3084
64.6019 1897 43.5546
64.7195 1753 41.8688
64.837 1835 42.8369
64.9546 1865 43.1856
65.0722 1736 41.6653
65.1898 1689 41.0974
65.3074 1504 38.7814
65.4249 1418 37.6563
65.5425 1352 36.7696
65.6601 1436 37.8946
65.7777 1497 38.6911
65.8952 1507 38.8201
66.0128 1721 41.4849
66.1304 1640 40.4969
66.2479 1684 41.0366
66.3655 1731 41.6053
66.483 1834 42.8252
66.6005 1786 42.2611
66.718 1787 42.2729
66.8355 1704 41.2795
66.953 1719 41.4608
67.0705 1767 42.0357
67.1879 1614 40.1746
67.3054 1586 39.8246
67.4228 1463 38.2492
67.5402 1380 37.1484
67.6576 1458 38.1838
67.7749 1486 38.5487
67.8923 1630 40.3733
68.0096 1664 40.7922
68.1269 1694 41.1582
68.2442 1798 42.4028
68.3614 1778 42.1663
68.4787 1785 42.2493
68.5958 1795 42.3674
68.713 1584 39.7995
68.8302 1547 39.3319
68.9473 1455 38.1445
69.0643 1400 37.4166
69.1814 1291 35.9305
69.2984 1352 36.7696
69.4154 1390 37.2827
69.5323 1454 38.1314
69.6492 1603 40.0375
69.7661 1677 40.9512
69.8829 1621 40.2616
69.9997 1649 40.6079
70.1165 1667 40.8289
70.2332 1477 38.4318
70.3499 1507 38.8201
70.4665 1408 37.5233
70.5831 1370 37.0135
70.6996 1278 35.7491
70.8161 1227 35.0286
70.9326 1078 32.8329
71.049 1031 32.1092
71.1653 774 27.8209
71.2817 760 27.5681
71.3979 620 24.8998
71.5141 601 24.5153
71.6303 589 24.2693
71.7464 540 23.2379
71.8624 0 1
71.9784 0 1
72.0944 0 1
72.2102 0 1
72.3261 0 1
72.4418 0 1
72.5575 0 1
72.6732 0 1
75.1054 0 1
75.2209 0 1
75.3365 0 1
75.4521 0 1
75.5678 0 1
75.6835 0 1
75.7993 0 1
75.9151 0 1
76.031 0 1
76.147 1008 31.749
76.263 1139 33.7491
76.3791 1086 32.9545
76.4952 1100 33.1662
76.6113 1161 34.0735
76.7276 1163 34.1028
76.8438 1341 36.6197
76.9601 1365 36.9459
77.0765 1416 37.6298
77.1929 1574 39.6737
77.3093 1527 39.0768
77.4258 1563 39.5348
77.5423 1496 38.6782
77.6589 1498 38.704
77.7755 1373 37.054
77.8921 1246 35.2987
78.0088 1187 34.4529
78.1256 1156 34
78.2423 1092 33.0454
78.3591 1106 33.2566
78.4759 1262 35.5246
78.5928 1301 36.0694
78.7097 1368 36.9865
78.8266 1528 39.0896
78.9436 1526 39.064
79.0606 1513 38.8973
79.1776 1566 39.5727
79.2946 1487 38.5616
79.4117 1611 40.1373
79.5288 1550 39.37
79.6459 1546 39.3192
79.7631 1484 38.5227
79.8802 1441 37.9605
79.9974 1345 36.6742
80.1147 1303 36.0971
80.2319 1204 34.6987
80.3491 1319 36.318
80.4664 1363 36.9188
80.5837 1433 37.855
80.701 1541 39.2556
80.8183 1618 40.2244
80.9357 1592 39.8999
81.053 1615 40.1871
81.1704 1598 39.975
81.2877 1546 39.3192
81.4051 1592 39.8999
81.5225 1406 37.4967
81.6399 1294 35.9722
81.7573 1198 34.6121
81.8747 1178 34.322
81.9922 1136 33.7046
82.1096 1253 35.3977
82.227 1374 37.0675
82.3444 1410 37.55
82.4619 1502 38.7556
82.5793 1545 39.3065
82.6967 1538 39.2173
82.8142 1595 39.9375
82.9316 1586 39.8246
83.049 1632 40.398
83.1664 1625 40.3113
83.2838 1607 40.0874
83.4012 1531 39.128
83.5186 1584 39.7995
83.636 1457 38.1707
83.7534 1405 37.4833
83.8708 1276 35.7211
83.9881 1253 35.3977
84.1055 1287 35.8748
84.2228 1386 37.229
84.3401 1423 37.7227
84.4575 1561 39.5095
84.5747 1634 40.4228
84.692 1572 39.6485
84.8093 1645 40.5586
84.9265 1608 40.0999
85.0437 1526 39.064
85.1609 1398 37.3898
85.2781 1249 35.3412
85.3952 1154 33.9706
85.5123 1109 33.3017
85.6294 1161 34.0735
85.7465 1335 36.5377
85.8636 1399 37.4032
85.9806 1436 37.8946
86.0976 1563 39.5348
86.2145 1589 39.8623
86.3315 1580 39.7492
86.4484 1605 40.0625
86.5652 1629 40.3609
86.682 1576 39.6989
86.7988 1804 42.4735
86.9156 1524 39.0384
87.0323 1663 40.7799
87.149 1525 39.0512
87.2657 1417 37.6431
87.3823 1278 35.7491
87.4988 1154 33.9706
87.6154 1078 32.8329
87.7318 1126 33.5559
87.8483 1138 33.7343
87.9647 1227 35.0286
88.081 1200 34.641
88.1973 1219 34.9142
88.3136 1342 36.6333
88.4298 1184 34.4093
88.546 1094 33.0757
88.6621 973 31.1929
88.7781 769 27.7308
88.8942 0 1
89.0101 0 1
89.126 0 1
89.2419 0 1
89.3577 0 1
89.4734 0 1
89.5891 0 1
89.7047 0 1
89.8203 0 1
89.9358 0 1
92.3269 0 1
92.4424 0 1
92.558 0 1
92.6736 0 1
92.7893 0 1
92.905 0 1
93.0208 0 1
93.1366 0 1
93.2525 0 1
93.3685 0 1
93.4845 0 1
93.6005 1160 34.0588
93.7167 1266 35.5809
93.8328 1339 36.5923
93.949 1402 37.4433
94.0653 1434 37.8682
94.1816 1479 38.4578
94.2979 1352 36.7696
94.4143 1360 36.8782
94.5307 1257 35.4542
94.6472 1181 34.3657
94.7637 1240 35.2136
94.8803 1242 35.242
94.9969 1377 37.108
95.1135 1517 38.9487
95.2302 1550 39.37
95.3469 1655 40.6817
95.4637 1627 40.3361
95.5805 1696 41.1825
95.6973 1631 40.3856
95.8142 1724 41.5211
95.9311 1602 40.025
96.048 1624 40.2989
96.1649 1661 40.7554
96.2819 1583 39.7869
96.3989 1488 38.5746
96.516 1435 37.8814
96.633 1460 38.2099
96.7501 1337 36.565
96.8673 1361 36.8917
96.9844 1388 37.2559
97.1016 1462 38.2361
97.2188 1566 39.5727
97.336 1631 40.3856
97.4532 1748 41.8091
97.5704 1712 41.3763
97.6877 1658 40.7185
97.805 1568 39.598
97.9223 1600 40
98.0396 1440 37.9473
98.1569 1375 37.081
98.2743 1217 34.8855
98.3916 1274 35.6931
98.509 1252 35.3836
98.6264 1416 37.6298
98.7438 1508 38.833
98.8612 1629 40.3609
98.9786 1667 40.8289
99.096 1675 40.9268
99.2134 1680 40.9878
99.3308 1689 41.0974
99.4482 1726 41.5452
99.5656 1667 40.8289
99.6831 1757 41.9166
99.8005 1765 42.0119
99.9179 1635 40.4351
100.035 1566 39.5727
100.153 1509 38.8458
100.27 1440 37.9473
100.388 1374 37.0675
100.505 1432 37.8418
100.622 1500 38.7298
100.74 1729 41.5812
100.857 1707 41.3159
100.975 1739 41.7013
101.092 1784 42.2374
101.209 1829 42.7668
101.327 1795 42.3674
101.444 1715 41.4126
101.561 1664 40.7922
101.679 1405 37.4833
101.796 1311 36.2077
101.913 1249 35.3412
102.03 1342 36.6333
102.148 1495 38.6652
102.265 1499 38.7169
102.382 1706 41.3038
102.499 1744 41.7612
102.616 1762 41.9762
102.733 1848 42.9884
102.851 1769 42.0595
102.968 1915 43.7607
103.085 1892 43.4971
103.202 1794 42.3556
103.319 1840 42.8952
103.436 1749 41.821
103.552 1734 41.6413
103.669 1619 40.2368
103.786 1589 39.8623
103.903 1550 39.37
104.02 1465 38.2753
104.137 1647 40.5832
104.253 1713 41.3884
104.37 1826 42.7317
104.487 1878 43.3359
104.603 1887 43.4396
104.72 1896 43.5431
104.836 1740 41.7133
104.953 1748 41.8091
105.069 1474 38.3927
105.186 1291 35.9305
105.302 1214 34.8425
105.418 1133 33.6601
105.535 1155 33.9853
105.651 1201 34.6554
105.767 1191 34.5109
105.883 1146 33.8526
105.999 1125 33.541
106.115 0 1
106.231 0 1
106.347 0 1
106.463 0 1
106.579 0 1
106.694 0 1
106.81 0 1
106.926 0 1
107.041 0 1
107.157 0 1
109.576 0 1
109.692 0 1
109.807 0 1
109.923 0 1
110.039 0 1
110.155 0 1
110.27 0 1
110.386 0 1
110.502 0 1
110.618 731 27.037
110.735 964 31.0483
110.851 1241 35.2278
110.967 1287 35.8748
111.083 1471 38.3536
111.199 1588 39.8497
111.316 1610 40.1248
111.432 1710 41.3521
111.549 1627 40.3361
111.665 1703 41.2674
111.782 1716 41.4246
111.898 1695 41.1704
112.015 1682 41.0122
112.132 1579 39.7366
112.248 1494 38.6523
112.365 1441 37.9605
112.482 1390 37.2827
112.599 1496 38.6782
112.716 1595 39.9375
112.832 1572 39.6485
112.949 1737 41.6773
113.066 1808 42.5206
113.183 1786 42.2611
113.3 1763 41.9881
113.417 1702 41.2553
113.534 1660 40.7431
113.652 1468 38.3145
113.769 1417 37.6431
113.886 1374 37.0675
114.003 1144 33.8231
114.12 1306 36.1386
114.238 1418 37.6563
114.355 1524 39.0384
114.472 1520 38.9872
114.589 1692 41.1339
114.707 1765 42.0119
114.824 1757 41.9166
114.942 1744 41.7612
115.059 1774 42.1189
115.176 1818 42.638
115.294 1775 42.1307
115.411 1729 41.5812
115.529 1724 41.5211
115.646 1648 40.5956
115.764 1581 39.7618
115.881 1467 38.3014
115.999 1418 37.6563
116.116 1472 38.3667
116.234 1561 39.5095
116.351 1710 41.3521
116.469 1790 42.3084
116.586 1785 42.2493
116.704 1763 41.9881
116.821 1782 42.2137
116.939 1708 41.328
117.056 1742 41.7373
117.174 1573 39.6611
117.291 1566 39.5727
117.409 1381 37.1618
117.526 1257 35.4542
117.644 1272 35.6651
117.761 1293 35.9583
117.879 1472 38.3667
117.996 1623 40.2865
118.114 1602 40.025
118.231 1667 40.8289
118.349 1738 41.6893
118.466 1754 41.8808
118.584 1704 41.2795
118.701 1774 42.1189
118.819 1755 41.8927
118.936 1786 42.2611
119.053 1698 41.2068
119.171 1639 40.4846
119.288 1564 39.5474
119.405 1514 38.9102
119.523 1403 37.4566
119.64 1359 36.8646
119.757 1430 37.8153
119.875 1351 36.756
119.992 1604 40.05
120.109 1575 39.6863
120.226 1633 40.4104
120.343 1663 40.7799
120.46 1680 40.9878
120.578 1661 40.7554
120.695 1559 39.4842
120.812 1612 40.1497
120.929 1472 38.3667
121.046 1310 36.1939
121.163 1183 34.3948
121.279 1186 34.4384
121.396 1131 33.6303
121.513 1301 36.0694
121.63 1312 36.2215
121.747 1316 36.2767
121.863 1379 37.1349
121.98 1344 36.6606
122.097 1314 36.2491
122.213 1325 36.4005
122.33 1229 35.0571
122.446 1296 36
122.563 1190 34.4964
122.679 1107 33.2716
122.795 1046 32.3419
122.912 946 30.7571
123.028 847 29.1033
123.144 744 27.2764
123.26 695 26.3629
123.377 0 1
123.493 0 1
123.609 0 1
123.725 0 1
123.84 0 1
123.956 0 1
124.072 0 1
124.188 0 1
124.303 0 1
124.419 0 1
126.852 0 1
126.968 0 1
127.083 0 1
127.199 0 1
127.315 0 1
127.431 0 1
127.547 0 1
127.663 0 1
127.779 0 1
127.895 0 1
128.011 0 1
128.127 0 1
128.243 0 1
128.359 1576 39.6989
128.476 1586 39.8246
128.592 1526 39.064
128.708 1544 39.2938
128.825 1558 39.4715
128.941 1512 38.8844
129.058 1564 39.5474
129.174 1693 41.1461
129.291 1788 42.2847
129.408 1704 41.2795
129.524 1730 41.5933
129.641 1774 42.1189
129.758 1767 42.0357
129.875 1692 41.1339
129.992 1562 39.5221
130.108 1440 37.9473
130.225 1340 36.606
130.342 1305 36.1248
130.459 1346 36.6879
130.576 1529 39.1024
130.693 1669 40.8534
130.81 1708 41.328
130.928 1753 41.8688
131.045 1666 40.8167
131.162 1686 41.0609
131.279 1779 42.1782
131.396 1753 41.8688
131.513 1757 41.9166
131.631 1740 41.7133
131.748 1758 41.9285
131.865 1633 40.4104
131.983 1591 39.8873
132.1 1563 39.5348
132.217 1503 38.7685
132.335 1552 39.3954
132.452 1551 39.3827
132.57 1698 41.2068
132.687 1743 41.7493
132.804 1824 42.7083
132.922 1773 42.107
133.039 1848 42.9884
133.157 1905 43.6463
133.274 1791 42.3202
133.392 1753 41.8688
133.509 1580 39.7492
133.627 1448 38.0526
133.744 1437 37.9078
133.862 1439 37.9342
133.979 1299 36.0416
134.097 1464 38.2623
134.214 1637 40.4599
134.332 1625 40.3113
134.449 1697 41.1947
134.567 1651 40.6325
134.684 1757 41.9166
134.802 1813 42.5793
134.919 1840 42.8952
135.037 1730 41.5933
135.154 1795 42.3674
135.272 1774 42.1189
135.389 1729 41.5812
135.507 1764 42
135.624 1675 40.9268
135.742 1549 39.3573
135.859 1525 39.0512
135.977 1550 39.37
136.094 1683 41.0244
136.211 1717 41.4367
136.329 1747 41.7971
136.446 1781 42.2019
136.564 1759 41.9404
136.681 1818 42.638
136.798 1813 42.5793
136.915 1782 42.2137
137.033 1734 41.6413
137.15 1549 39.3573
137.267 1516 38.9358
137.384 1450 38.0789
137.502 1402 37.4433
137.619 1396 37.3631
137.736 1441 37.9605
137.853 1534 39.1663
137.97 1635 40.4351
138.087 1646 40.5709
138.204 1665 40.8044
138.321 1740 41.7133
138.438 1786 42.2611
138.555 1766 42.0238
138.672 1791 42.3202
138.788 1684 41.0366
138.905 1593 39.9124
139.022 1462 38.2361
139.139 1504 38.7814
139.255 1403 37.4566
139.372 1262 35.5246
139.488 1260 35.4965
139.605 1124 33.5261
139.721 1162 34.0881
139.838 1221 34.9428
139.954 1219 34.9142
140.071 1163 34.1028
140.187 1095 33.0908
140.303 961 31
140.419 903 30.05
140.535 837 28.931
140.652 755 27.4773
140.768 0 1
140.884 0 1
141 0 1
141.115 0 1
141.231 0 1
141.347 0 1
141.463 0 1
141.578 0 1
141.694 0 1
144.104 0 1
144.219 0 1
144.335 0 1
144.45 0 1
144.566 0 1
144.682 0 1
144.798 0 1
144.914 0 1
145.03 0 1
145.146 1255 35.426
145.262 1355 36.8103
145.378 1443 37.9868
145.494 1440 37.9473
145.61 1401 37.4299
145.726 1446 38.0263
145.842 1390 37.2827
145.959 1263 35.5387
146.075 1233 35.1141
146.192 1185 34.4238
146.308 1183 34.3948
146.425 1121 33.4813
146.541 1201 34.6554
146.658 1234 35.1283
146.774 1308 36.1663
146.891 1346 36.6879
147.008 1361 36.8917
147.125 1456 38.1576
147.241 1397 37.3765
147.358 1330 36.4692
147.475 1396 37.3631
147.592 1363 36.9188
147.709 1400 37.4166
147.826 1394 37.3363
147.943 1241 35.2278
148.06 1276 35.7211
148.177 1186 34.4384
148.294 1212 34.8138
148.411 1261 35.5106
148.528 1269 35.623
148.645 1268 35.609
148.762 1377 37.108
148.88 1342 36.6333
148.997 1459 38.1969
149.114 1375 37.081
149.231 1387 37.2424
149.349 1469 38.3275
149.466 1293 35.9583
149.583 1313 36.2353
149.701 1259 35.4824
149.818 1120 33.4664
149.935 1101 33.1813
150.053 1087 32.9697
150.17 1126 33.5559
150.287 1199 34.6266
150.405 1296 36
150.522 1311 36.2077
150.64 1349 36.7287
150.757 1348 36.7151
150.875 1344 36.6606
150.992 1318 36.3043
151.11 1367 36.973
151.227 1336 36.5513
151.344 1286 35.8608
151.462 1303 36.0971
151.579 1349 36.7287
151.697 1265 35.5668
151.814 1198 34.6121
151.932 1198 34.6121
152.049 1219 34.9142
152.167 1255 35.426
152.284 1243 35.2562
152.402 1338 36.5787
152.519 1348 36.7151
152.636 1342 36.6333
152.754 1360 36.8782
152.871 1385 37.2156
152.989 1384 37.2022
153.106 1265 35.5668
153.223 1201 34.6554
153.341 1118 33.4365
153.458 1083 32.909
153.575 1025 32.0156
153.693 1032 32.1248
153.81 1106 33.2566
153.927 1168 34.176
154.044 1250 35.3553
154.162 1177 34.3074
154.279 1266 35.5809
154.396 1241 35.2278
154.513 1251 35.3695
154.63 1266 35.5809
154.747 1231 35.0856
154.864 1222 34.9571
154.981 1197 34.5977
155.098 1229 35.0571
155.215 1195 34.5688
155.332 1079 32.8481
155.449 1158 34.0294
155.566 1098 33.1361
155.683 1155 33.9853
155.8 1166 34.1467
155.917 1101 33.1813
156.033 1199 34.6266
156.15 0 1
156.267 0 1
156.383 0 1
156.5 0 1
156.617 0 1
156.733 0 1
156.85 0 1
156.966 0 1
157.082 0 1
157.199 0 1
157.315 0 1
157.431 0 1
157.547 0 1
157.664 0 1
157.78 0 1
157.896 0 1
158.012 0 1
158.128 0 1
158.244 0 1
158.359 0 1
158.475 0 1
158.591 0 1
158.706 0 1
