
6.15755 0 1
6.2731 0 1
6.3887 0 1
6.50437 0 1
6.62009 0 1
6.73587 0 1
6.8517 0 1
6.96759 0 1
7.08353 0 1
7.19952 0 1
7.31557 0 1
7.43166 0 1
7.54781 0 1
7.664 0 1
7.78024 0 1
7.89653 0 1
8.01286 0 1
8.12924 0 1
8.24567 0 1
8.36213 0 1
8.47864 0 1
8.59519 0 1
8.71178 0 1
8.82841 0 1
8.94508 0 1
9.06179 0 1
9.17853 0 1
9.29531 0 1
9.41212 0 1
9.52897 0 1
9.64584 0 1
9.76276 0 1
9.8797 0 1
9.99667 0 1
10.1137 0 1
10.2307 0 1
10.3478 0 1
10.4648 0 1
10.5819 0 1
10.6991 0 1
10.8162 0 1
10.9334 0 1
11.0506 0 1
11.1678 0 1
11.285 0 1
11.4023 0 1
11.5196 0 1
11.6369 0 1
11.7542 0 1
11.8715 0 1
11.9888 0 1
12.1062 0 1
12.2235 0 1
12.3409 0 1
12.4582 0 1
12.5756 0 1
12.693 0 1
12.8104 0 1
12.9278 0 1
13.0452 0 1
13.1626 0 1
13.28 0 1
13.3974 0 1
13.5149 0 1
13.6323 0 1
13.7497 0 1
13.8671 0 1
13.9845 0 1
14.1019 0 1
14.2193 0 1
14.3367 0 1
14.4541 0 1
14.5714 0 1
14.6888 0 1
14.8062 0 1
14.9235 0 1
15.0408 19908 141.096
15.1581 20949 144.738
15.2755 21419 146.352
15.3927 21400 146.287
15.51 21425 146.373
15.6273 21295 145.928
15.7445 20841 144.364
15.8617 20601 143.53
15.9789 19961 141.283
16.0961 19401 139.287
16.2132 18780 137.04
16.3304 18131 134.651
16.4475 17658 132.883
16.5646 16994 130.361
16.6816 16819 129.688
16.7986 16210 127.318
16.9156 15789 125.654
17.0326 15544 124.676
17.1496 15215 123.349
17.2665 14857 121.889
17.3833 14919 122.143
17.5002 15008 122.507
17.617 15199 123.284
17.7338 15633 125.032
17.8505 16097 126.874
17.9672 16649 129.031
18.0839 17033 130.511
18.2005 17307 131.556
18.3171 17760 133.267
18.4337 17991 134.131
18.5502 18366 135.521
18.6666 18456 135.853
18.7831 18338 135.418
18.8994 17938 133.933
19.0158 17084 130.706
19.1321 16502 128.46
19.2483 15657 125.128
19.3645 14760 121.491
19.4806 13864 117.745
19.5967 12881 113.494
19.7128 12027 109.668
19.8288 10745 103.658
19.9447 9508 97.509
20.0606 0 1
20.1764 0 1
20.2922 0 1
20.4079 0 1
20.5236 0 1
20.6392 0 1
20.7548 0 1
20.8702 0 1
23.3078 0 1
23.4233 0 1
23.539 0 1
23.6547 0 1
23.7704 0 1
23.8862 0 1
24.0021 0 1
24.118 0 1
24.234 0 1
24.35 0 1
24.4661 8343 91.34
24.5822 8969 94.7048
24.6984 9543 97.6883
24.8146 10532 102.626
24.9309 11168 105.679
25.0472 11844 108.83
25.1636 12206 110.481
25.28 13097 114.442
25.3965 13229 115.017
25.513 13498 116.181
25.6296 14212 119.214
25.7462 14935 122.209
25.8628 15109 122.919
25.9795 15092 122.85
26.0962 15046 122.662
26.213 15549 124.696
26.3298 15325 123.794
26.4466 15157 123.114
26.5635 15054 122.695
26.6804 14907 122.094
26.7973 15218 123.361
26.9143 15435 124.238
27.0313 15506 124.523
27.1483 15918 126.167
27.2653 16165 127.142
27.3824 16377 127.973
27.4996 16473 128.347
27.6167 16054 126.704
27.7339 16025 126.59
27.8511 15469 124.374
27.9683 15211 123.333
28.0855 15045 122.658
28.2028 14707 121.272
28.3201 14267 119.445
28.4374 14111 118.79
28.5547 13720 117.132
28.6721 13295 115.304
28.7894 13128 114.577
28.9068 13043 114.206
29.0242 13165 114.739
29.1416 13002 114.026
29.259 12934 113.728
29.3764 13130 114.586
29.4939 13082 114.377
29.6113 13437 115.918
29.7288 13639 116.786
29.8463 13795 117.452
29.9638 13864 117.745
30.0812 13789 117.427
30.1987 14024 118.423
30.3162 14040 118.491
30.4337 14483 120.345
30.5512 14872 121.951
30.6687 15296 123.677
30.7862 15444 124.274
30.9037 15625 125
31.0212 15525 124.599
31.1387 15401 124.101
31.2562 15325 123.794
31.3737 15233 123.422
31.4912 15044 122.654
31.6087 14723 121.338
31.7262 14402 120.008
31.8436 14065 118.596
31.9611 13844 117.661
32.0785 13242 115.074
32.1959 13055 114.258
32.3134 12927 113.697
32.4308 12688 112.641
32.5482 12523 111.906
32.6655 12400 111.355
32.7829 12278 110.806
32.9002 12430 111.49
33.0176 12462 111.633
33.1349 12777 113.035
33.2522 13114 114.516
33.3694 13365 115.607
33.4867 13605 116.64
33.6039 13549 116.4
33.7211 13317 115.399
33.8383 13553 116.417
33.9554 13749 117.256
34.0725 14466 120.275
34.1896 14836 121.803
34.3067 14760 121.491
34.4237 15012 122.523
34.5407 15376 124
34.6577 15274 123.588
34.7746 15099 122.878
34.8915 15013 122.528
35.0084 15034 122.613
35.1252 14664 121.095
35.242 14434 120.142
35.3587 14141 118.916
35.4755 13739 117.213
35.5921 13314 115.386
35.7088 12599 112.245
35.8254 12129 110.132
35.9419 11796 108.609
36.0584 11547 107.457
36.1749 11047 105.105
36.2913 10399 101.975
36.4077 10316 101.568
36.524 9981 99.905
36.6403 9795 98.9697
36.7565 9663 98.3006
36.8727 9650 98.2344
36.9889 9378 96.8401
37.1049 9053 95.1473
37.221 0 1
37.3369 0 1
37.4529 0 1
37.5687 0 1
37.6845 0 1
37.8003 0 1
37.916 0 1
38.0316 0 1
38.1472 0 1
40.5851 0 1
40.7008 0 1
40.8164 0 1
40.9322 0 1
41.048 0 1
41.1639 0 1
41.2798 0 1
41.3958 0 1
41.5118 0 1
41.6279 0 1
41.744 6575 81.0864
41.8602 7275 85.2936
41.9765 7935 89.0786
42.0928 8092 89.9555
42.2091 8521 92.3093
42.3255 8839 94.016
42.4419 9066 95.2155
42.5584 9515 97.5449
42.675 9979 99.8949
42.7915 10715 103.513
42.9081 11286 106.236
43.0248 11806 108.655
43.1415 12397 111.342
43.2582 12518 111.884
43.375 13065 114.302
43.4918 13358 115.577
43.6087 13393 115.728
43.7256 13443 115.944
43.8425 13604 116.636
43.9595 13556 116.43
44.0765 13435 115.909
44.1935 13183 114.817
44.3106 12971 113.89
44.4277 12478 111.705
44.5448 11979 109.449
44.6619 11576 107.592
44.7791 10970 104.738
44.8963 10818 104.01
45.0136 10644 103.17
45.1308 10340 101.686
45.2481 10504 102.489
45.3654 10481 102.377
45.4827 10555 102.738
45.6001 10746 103.663
45.7174 10869 104.254
45.8348 10920 104.499
45.9522 10985 104.809
46.0697 11245 106.042
46.1871 11802 108.637
46.3046 12169 110.313
46.422 12793 113.106
46.5395 13287 115.269
46.657 13901 117.903
46.7745 14235 119.311
46.892 14607 120.859
47.0096 14577 120.735
47.1271 14793 121.626
47.2446 14643 121.008
47.3622 14740 121.408
47.4797 14867 121.93
47.5973 14434 120.142
47.7149 13819 117.554
47.8324 14081 118.663
47.95 13183 114.817
48.0675 12460 111.624
48.1851 12001 109.549
48.3027 11513 107.299
48.4202 11121 105.456
48.5378 11172 105.698
48.6554 10755 103.706
48.7729 10787 103.86
48.8904 10836 104.096
49.008 11094 105.328
49.1255 10748 103.673
49.243 10702 103.45
49.3605 10720 103.537
49.478 11225 105.948
49.5955 11665 108.005
49.713 12055 109.795
49.8304 12640 112.428
49.9479 13547 116.392
50.0653 13906 117.924
50.1827 14444 120.183
50.3001 14893 122.037
50.4175 15362 123.944
50.5348 15544 124.676
50.6521 15479 124.415
50.7694 15538 124.652
50.8867 15413 124.149
51.004 15703 125.312
51.1212 15161 123.13
51.2384 14818 121.729
51.3556 14560 120.665
51.4727 13441 115.935
51.5899 12689 112.645
51.707 12286 110.842
51.824 11739 108.347
51.9411 11269 106.156
52.0581 11208 105.868
52.175 11008 104.919
52.2919 10473 102.338
52.4088 10172 100.856
52.5257 9941 99.7046
52.6425 10225 101.119
52.7593 9903 99.5138
52.876 9811 99.0505
52.9927 10416 102.059
53.1094 10108 100.539
53.226 10462 102.284
53.3426 10803 103.937
53.4591 10945 104.618
53.5756 11295 106.278
53.692 11484 107.163
53.8084 11515 107.308
53.9248 11635 107.866
54.0411 11257 106.099
54.1573 10864 104.231
54.2735 0 1
54.3896 0 1
54.5057 0 1
54.6217 0 1
54.7377 0 1
54.8537 0 1
54.9695 0 1
55.0853 0 1
55.2011 0 1
55.3168 0 1
55.4324 0 1
57.824 0 1
57.9396 0 1
58.0553 0 1
58.1711 0 1
58.2869 0 1
58.4028 0 1
58.5187 0 1
58.6347 0 1
58.7508 0 1
58.8669 0 1
58.983 10991 104.838
59.0992 12234 110.607
59.2155 13000 114.018
59.3318 13974 118.212
59.4482 14970 122.352
59.5646 15870 125.976
59.681 16232 127.405
59.7975 15863 125.948
59.9141 15696 125.284
60.0306 15228 123.402
60.1473 15190 123.248
60.2639 14373 119.887
60.3807 14002 118.33
60.4974 13550 116.404
60.6142 12927 113.697
60.731 12505 111.826
60.8479 12435 111.512
60.9648 12858 113.393
61.0818 13140 114.63
61.1987 13554 116.422
61.3158 13537 116.349
61.4328 13496 116.172
61.5499 13419 115.84
61.667 13874 117.788
61.7841 14308 119.616
61.9013 14554 120.64
62.0185 15554 124.716
62.1357 16225 127.377
62.253 17084 130.706
62.3702 18101 134.54
62.4875 18814 137.164
62.6049 19453 139.474
62.7222 20353 142.664
62.8396 20525 143.265
62.9569 20960 144.776
63.0743 20946 144.727
63.1918 20735 143.997
63.3092 19890 141.032
63.4267 18986 137.79
63.5441 18008 134.194
63.6616 17210 131.187
63.7791 16054 126.704
63.8966 14822 121.746
64.0142 13913 117.953
64.1317 13386 115.698
64.2492 12770 113.004
64.3668 12442 111.544
64.4843 12571 112.12
64.6019 13190 114.848
64.7195 13351 115.547
64.837 13195 114.869
64.9546 13207 114.922
65.0722 13169 114.756
65.1898 13417 115.832
65.3074 13989 118.275
65.4249 14175 119.059
65.5425 14865 121.922
65.6601 15904 126.111
65.7777 16859 129.842
65.8952 17785 133.36
66.0128 18500 136.015
66.1304 19589 139.961
66.2479 20191 142.095
66.3655 20669 143.767
66.483 20590 143.492
66.6005 20952 144.748
66.718 20541 143.321
66.8355 20426 142.92
66.953 19187 138.517
67.0705 18328 135.381
67.1879 17166 131.019
67.3054 15731 125.423
67.4228 14540 120.582
67.5402 13453 115.987
67.6576 12620 112.339
67.7749 12242 110.644
67.8923 11990 109.499
68.0096 12409 111.396
68.1269 12951 113.802
68.2442 13252 115.117
68.3614 13485 116.125
68.4787 13675 116.94
68.5958 13154 114.691
68.713 13057 114.267
68.8302 13175 114.782
68.9473 13084 114.385
69.0643 13189 114.843
69.1814 13600 116.619
69.2984 14113 118.798
69.4154 14915 122.127
69.5323 15482 124.427
69.6492 16642 129.004
69.7661 17208 131.179
69.8829 17677 132.955
69.9997 17326 131.628
70.1165 17003 130.396
70.2332 16762 129.468
70.3499 16313 127.722
70.4665 15189 123.244
70.5831 14227 119.277
70.6996 13419 115.84
70.8161 12277 110.802
70.9326 11193 105.797
71.049 10323 101.602
71.1653 9261 96.2341
71.2817 8484 92.1086
71.3979 7923 89.0112
71.5141 7539 86.8274
71.6303 7439 86.2496
71.7464 7119 84.3742
71.8624 0 1
71.9784 0 1
72.0944 0 1
72.2102 0 1
72.3261 0 1
72.4418 0 1
72.5575 0 1
72.6732 0 1
75.1054 0 1
75.2209 0 1
75.3365 0 1
75.4521 0 1
75.5678 0 1
75.6835 0 1
75.7993 0 1
75.9151 0 1
76.031 0 1
76.147 9316 96.5194
76.263 9275 96.3068
76.3791 8818 93.9042
76.4952 8444 91.8912
76.6113 8282 91.0055
76.7276 8340 91.3236
76.8438 8570 92.5743
76.9601 9036 95.0579
77.0765 9658 98.2751
77.1929 10695 103.417
77.3093 11514 107.303
77.4258 11784 108.554
77.5423 11618 107.787
77.6589 11491 107.196
77.7755 11633 107.856
77.8921 11696 108.148
78.0088 11821 108.724
78.1256 12113 110.059
78.2423 13006 114.044
78.3591 13896 117.881
78.4759 14884 122
78.5928 15941 126.258
78.7097 17138 130.912
78.8266 17399 131.905
78.9436 18820 137.186
79.0606 18401 135.65
79.1776 18710 136.785
79.2946 18938 137.615
79.4117 18845 137.277
79.5288 18041 134.317
79.6459 16533 128.581
79.7631 15426 124.201
79.8802 14309 119.62
79.9974 13154 114.691
80.1147 12052 109.782
80.2319 11559 107.513
80.3491 11253 106.08
80.4664 11126 105.48
80.5837 11396 106.752
80.701 11634 107.861
80.8183 12170 110.318
80.9357 12792 113.102
81.053 12980 113.93
81.1704 12816 113.208
81.2877 12475 111.692
81.4051 12106 110.027
81.5225 12389 111.306
81.6399 11993 109.513
81.7573 12610 112.294
81.8747 13244 115.083
81.9922 14507 120.445
82.1096 15630 125.02
82.227 17143 130.931
82.3444 18174 134.811
82.4619 19329 139.029
82.5793 19422 139.363
82.6967 19659 140.211
82.8142 19944 141.223
82.9316 19825 140.801
83.049 19318 138.989
83.1664 17898 133.783
83.2838 16428 128.172
83.4012 15235 123.43
83.5186 14337 119.737
83.636 13414 115.819
83.7534 12060 109.818
83.8708 11592 107.666
83.9881 11320 106.395
84.1055 11146 105.575
84.2228 11579 107.606
84.3401 12524 111.911
84.4575 13658 116.867
84.5747 14811 121.7
84.692 14629 120.95
84.8093 14093 118.714
84.9265 12902 113.587
85.0437 12351 111.135
85.1609 12176 110.345
85.2781 12193 110.422
85.3952 12734 112.845
85.5123 13930 118.025
85.6294 15167 123.154
85.7465 15947 126.281
85.8636 17172 131.042
85.9806 18281 135.207
86.0976 19016 137.899
86.2145 19435 139.409
86.3315 19787 140.666
86.4484 18495 135.996
86.5652 18737 136.883
86.682 17912 133.836
86.7988 17015 130.442
86.9156 15710 125.34
87.0323 14987 122.421
87.149 13718 117.124
87.2657 12335 111.063
87.3823 11530 107.378
87.4988 10973 104.752
87.6154 10826 104.048
87.7318 10798 103.913
87.8483 10896 104.384
87.9647 11264 106.132
88.081 11377 106.663
88.1973 11469 107.093
88.3136 10162 100.807
88.4298 8947 94.5886
88.546 7548 86.8792
88.6621 6869 82.8794
88.7781 6447 80.2932
88.8942 0 1
89.0101 0 1
89.126 0 1
89.2419 0 1
89.3577 0 1
89.4734 0 1
89.5891 0 1
89.7047 0 1
89.8203 0 1
89.9358 0 1
92.3269 0 1
92.4424 0 1
92.558 0 1
92.6736 0 1
92.7893 0 1
92.905 0 1
93.0208 0 1
93.1366 0 1
93.2525 0 1
93.3685 0 1
93.4845 0 1
93.6005 10123 100.613
93.7167 11274 106.179
93.8328 11940 109.27
93.949 12131 110.141
94.0653 12413 111.414
94.1816 12385 111.288
94.2979 12974 113.903
94.4143 13837 117.631
94.5307 14200 119.164
94.6472 15183 123.219
94.7637 16299 127.668
94.8803 17137 130.908
94.9969 18469 135.901
95.1135 19100 138.203
95.2302 20419 142.895
95.3469 20348 142.646
95.4637 20908 144.596
95.5805 20677 143.795
95.6973 20364 142.702
95.8142 19312 138.968
95.9311 18560 136.235
96.048 17101 130.771
96.1649 15981 126.416
96.2819 14798 121.647
96.3989 14034 118.465
96.516 13157 114.704
96.633 13106 114.481
96.7501 12622 112.348
96.8673 12781 113.053
96.9844 13633 116.76
97.1016 14156 118.979
97.2188 14682 121.169
97.336 14706 121.268
97.4532 14600 120.83
97.5704 13933 118.038
97.6877 13690 117.004
97.805 13279 115.235
97.9223 13526 116.301
98.0396 13988 118.271
98.1569 14789 121.61
98.2743 15788 125.65
98.3916 16740 129.383
98.509 18178 134.826
98.6264 19336 139.054
98.7438 20281 142.411
98.8612 20943 144.717
98.9786 21757 147.503
99.096 22010 148.358
99.2134 21731 147.414
99.3308 21118 145.32
99.4482 20276 142.394
99.5656 19082 138.138
99.6831 17844 133.581
99.8005 16670 129.112
99.9179 15730 125.419
100.035 14758 121.483
100.153 13993 118.292
100.27 13650 116.833
100.388 13764 117.32
100.505 14121 118.832
100.622 14242 119.34
100.74 14958 122.303
100.857 15386 124.04
100.975 15208 123.321
101.092 14839 121.815
101.209 14621 120.917
101.327 14157 118.983
101.444 14279 119.495
101.561 14960 122.311
101.679 15668 125.172
101.796 16791 129.58
101.913 17657 132.88
102.03 18784 137.055
102.148 19826 140.805
102.265 21411 146.325
102.382 21759 147.509
102.499 22203 149.007
102.616 22310 149.365
102.733 22603 150.343
102.851 21574 146.881
102.968 21322 146.021
103.085 19955 141.262
103.202 18628 136.484
103.319 17443 132.072
103.436 16003 126.503
103.552 15070 122.76
103.669 14437 120.154
103.786 14065 118.596
103.903 13941 118.072
104.02 14169 119.034
104.137 14162 119.004
104.253 14154 118.971
104.37 14032 118.457
104.487 13555 116.426
104.603 12861 113.406
104.72 12161 110.277
104.836 11541 107.429
104.953 11424 106.883
105.069 11032 105.033
105.186 11427 106.897
105.302 11647 107.921
105.418 12079 109.905
105.535 12597 112.236
105.651 12828 113.261
105.767 13029 114.145
105.883 12813 113.195
105.999 11784 108.554
106.115 0 1
106.231 0 1
106.347 0 1
106.463 0 1
106.579 0 1
106.694 0 1
106.81 0 1
106.926 0 1
107.041 0 1
107.157 0 1
109.576 0 1
109.692 0 1
109.807 0 1
109.923 0 1
110.039 0 1
110.155 0 1
110.27 0 1
110.386 0 1
110.502 0 1
110.618 11023 104.99
110.735 12496 111.786
110.851 13608 116.653
110.967 14340 119.75
111.083 15534 124.635
111.199 16219 127.354
111.316 16845 129.788
111.432 17578 132.582
111.549 17819 133.488
111.665 17577 132.578
111.782 16837 129.757
111.898 16082 126.815
112.015 15718 125.371
112.132 14681 121.165
112.248 13763 117.316
112.365 13382 115.681
112.482 13376 115.655
112.599 13629 116.743
112.716 13677 116.949
112.832 13511 116.237
112.949 13698 117.038
113.066 14202 119.172
113.183 13934 118.042
113.3 13119 114.538
113.417 12815 113.203
113.534 12641 112.432
113.652 13257 115.139
113.769 13991 118.284
113.886 14795 121.635
114.003 16130 127.004
114.12 17134 130.897
114.238 18370 135.536
114.355 19054 138.036
114.472 20177 142.046
114.589 20466 143.059
114.707 20432 142.941
114.824 20915 144.62
114.942 20880 144.499
115.059 20672 143.778
115.176 19931 141.177
115.294 18808 137.142
115.411 17724 133.132
115.529 16813 129.665
115.646 15745 125.479
115.764 14698 121.235
115.881 13974 118.212
115.999 13623 116.718
116.116 13860 117.729
116.234 13669 116.914
116.351 13654 116.85
116.469 13798 117.465
116.586 14099 118.739
116.704 13900 117.898
116.821 13407 115.789
116.939 12861 113.406
117.056 12872 113.455
117.174 13137 114.617
117.291 13865 117.75
117.409 14783 121.585
117.526 15941 126.258
117.644 16613 128.891
117.761 17669 132.925
117.879 18243 135.067
117.996 19112 138.246
118.114 19864 140.94
118.231 19933 141.184
118.349 20194 142.106
118.466 20315 142.531
118.584 20143 141.926
118.701 19683 140.296
118.819 18743 136.905
118.936 17946 133.963
119.053 17072 130.66
119.171 16326 127.773
119.288 15702 125.308
119.405 14851 121.865
119.523 14392 119.967
119.64 13723 117.145
119.757 13769 117.341
119.875 13600 116.619
119.992 13395 115.737
120.109 13510 116.233
120.226 13424 115.862
120.343 13444 115.948
120.46 12725 112.805
120.578 12280 110.815
120.695 12487 111.745
120.812 12665 112.539
120.929 13223 114.991
121.046 13638 116.782
121.163 14282 119.507
121.279 14975 122.372
121.396 15295 123.673
121.513 16038 126.641
121.63 16496 128.437
121.747 16459 128.293
121.863 16543 128.62
121.98 16690 129.19
122.097 16440 128.219
122.213 16150 127.083
122.33 15374 123.992
122.446 14694 121.219
122.563 14051 118.537
122.679 13164 114.734
122.795 11992 109.508
122.912 10928 104.537
123.028 10131 100.653
123.144 9241 96.1301
123.26 8663 93.0752
123.377 0 1
123.493 0 1
123.609 0 1
123.725 0 1
123.84 0 1
123.956 0 1
124.072 0 1
124.188 0 1
124.303 0 1
124.419 0 1
126.852 0 1
126.968 0 1
127.083 0 1
127.199 0 1
127.315 0 1
127.431 0 1
127.547 0 1
127.663 0 1
127.779 0 1
127.895 0 1
128.011 0 1
128.127 0 1
128.243 0 1
128.359 16053 126.7
128.476 15479 124.415
128.592 15212 123.337
128.708 15166 123.15
128.825 15438 124.25
128.941 15886 126.04
129.058 15837 125.845
129.174 15671 125.184
129.291 15892 126.063
129.408 15987 126.44
129.524 15609 124.936
129.641 15514 124.555
129.758 15469 124.374
129.875 15952 126.301
129.992 16485 128.394
130.108 17320 131.605
130.225 18351 135.466
130.342 19314 138.975
130.459 19553 139.832
130.576 21174 145.513
130.693 21114 145.307
130.81 21837 147.773
130.928 21628 147.065
131.045 21840 147.784
131.162 21923 148.064
131.279 21888 147.946
131.396 21925 148.071
131.513 21690 147.275
131.631 21003 144.924
131.748 20646 143.687
131.865 19420 139.356
131.983 18265 135.148
132.1 18014 134.216
132.217 17383 131.845
132.335 17430 132.023
132.452 17611 132.706
132.57 17518 132.356
132.687 16608 128.872
132.804 16844 129.784
132.922 16756 129.445
133.039 16366 127.93
133.157 16129 127
133.274 16324 127.765
133.392 16688 129.182
133.509 17026 130.484
133.627 17606 132.688
133.744 18639 136.525
133.862 19562 139.864
133.979 20230 142.232
134.097 20714 143.924
134.214 21618 147.031
134.332 21554 146.813
134.449 21694 147.289
134.567 21766 147.533
134.684 21790 147.614
134.802 22272 149.238
134.919 22354 149.513
135.037 22266 149.218
135.154 21657 147.163
135.272 21100 145.258
135.389 20884 144.513
135.507 19968 141.308
135.624 18856 137.317
135.742 18303 135.289
135.859 18524 136.103
135.977 18296 135.263
136.094 18121 134.614
136.211 17679 132.962
136.329 17294 131.507
136.446 17223 131.236
136.564 17000 130.384
136.681 16602 128.849
136.798 16489 128.41
136.915 16913 130.05
137.033 17160 130.996
137.15 17491 132.254
137.267 18101 134.54
137.384 18589 136.341
137.502 19451 139.467
137.619 19976 141.336
137.736 20533 143.293
137.853 19898 141.06
137.97 20604 143.541
138.087 20309 142.51
138.204 20510 143.213
138.321 20639 143.663
138.438 20231 142.236
138.555 20120 141.845
138.672 19765 140.588
138.788 19156 138.405
138.905 18589 136.341
139.022 17534 132.416
139.139 16485 128.394
139.255 15558 124.732
139.372 14614 120.888
139.488 14346 119.775
139.605 13793 117.444
139.721 13397 115.745
139.838 12701 112.699
139.954 11765 108.467
140.071 10627 103.087
140.187 9745 98.7168
140.303 8789 93.7497
140.419 8345 91.351
140.535 7756 88.0682
140.652 8006 89.4763
140.768 0 1
140.884 0 1
141 0 1
141.115 0 1
141.231 0 1
141.347 0 1
141.463 0 1
141.578 0 1
141.694 0 1
144.104 0 1
144.219 0 1
144.335 0 1
144.45 0 1
144.566 0 1
144.682 0 1
144.798 0 1
144.914 0 1
145.03 0 1
145.146 12395 111.333
145.262 13111 114.503
145.378 13416 115.827
145.494 13529 116.314
145.61 13608 116.653
145.726 13905 117.919
145.842 14261 119.419
145.959 14514 120.474
146.075 14711 121.289
146.192 15272 123.58
146.308 15546 124.684
146.425 15857 125.925
146.541 16309 127.707
146.658 16543 128.62
146.774 16868 129.877
146.891 16886 129.946
147.008 17301 131.533
147.125 17190 131.111
147.241 17602 132.673
147.358 17641 132.819
147.475 17747 133.218
147.592 17485 132.231
147.709 17155 130.977
147.826 16918 130.069
147.943 16446 128.242
148.06 15645 125.08
148.177 15063 122.731
148.294 15359 123.931
148.411 15249 123.487
148.528 15230 123.41
148.645 15003 122.487
148.762 14990 122.434
148.88 14444 120.183
148.997 14585 120.768
149.114 13936 118.051
149.231 14225 119.269
149.349 14307 119.612
149.466 14299 119.578
149.583 14832 121.787
149.701 14288 119.532
149.818 14672 121.128
149.935 15293 123.665
150.053 15686 125.244
150.17 16025 126.59
150.287 16344 127.844
150.405 16448 128.25
150.522 16754 129.437
150.64 16847 129.796
150.757 17172 131.042
150.875 17540 132.439
150.992 17312 131.575
151.11 17234 131.278
151.227 17020 130.461
151.344 17036 130.522
151.462 16682 129.159
151.579 16065 126.748
151.697 15481 124.423
151.814 15314 123.75
151.932 15114 122.939
152.049 15127 122.992
152.167 15108 122.915
152.284 14874 121.959
152.402 14658 121.07
152.519 14562 120.673
152.636 14035 118.469
152.754 14164 119.013
152.871 13940 118.068
152.989 13492 116.155
153.106 13992 118.288
153.223 14017 118.393
153.341 14296 119.566
153.458 14751 121.454
153.575 14842 121.828
153.693 15317 123.762
153.81 15301 123.697
153.927 15584 124.836
154.044 15841 125.861
154.162 16142 127.051
154.279 16168 127.153
154.396 16458 128.289
154.513 16445 128.238
154.63 16576 128.748
154.747 16701 129.232
154.864 16516 128.515
154.981 16095 126.866
155.098 15658 125.132
155.215 15115 122.943
155.332 14673 121.132
155.449 14284 119.516
155.566 14110 118.786
155.683 13921 117.987
155.8 13718 117.124
155.917 13097 114.442
156.033 12859 113.398
156.15 0 1
156.267 0 1
156.383 0 1
156.5 0 1
156.617 0 1
156.733 0 1
156.85 0 1
156.966 0 1
157.082 0 1
157.199 0 1
157.315 0 1
157.431 0 1
157.547 0 1
157.664 0 1
157.78 0 1
157.896 0 1
158.012 0 1
158.128 0 1
158.244 0 1
158.359 0 1
158.475 0 1
158.591 0 1
158.706 0 1
