
6.15755 0 1
6.2731 0 1
6.3887 0 1
6.50437 0 1
6.62009 0 1
6.73587 0 1
6.8517 0 1
6.96759 0 1
7.08353 0 1
7.19952 0 1
7.31557 0 1
7.43166 0 1
7.54781 0 1
7.664 0 1
7.78024 0 1
7.89653 0 1
8.01286 0 1
8.12924 0 1
8.24567 0 1
8.36213 0 1
8.47864 0 1
8.59519 0 1
8.71178 0 1
8.82841 0 1
8.94508 0 1
9.06179 0 1
9.17853 0 1
9.29531 0 1
9.41212 0 1
9.52897 0 1
9.64584 0 1
9.76276 0 1
9.8797 0 1
9.99667 0 1
10.1137 0 1
10.2307 0 1
10.3478 0 1
10.4648 0 1
10.5819 0 1
10.6991 0 1
10.8162 0 1
10.9334 0 1
11.0506 0 1
11.1678 0 1
11.285 0 1
11.4023 0 1
11.5196 0 1
11.6369 0 1
11.7542 0 1
11.8715 0 1
11.9888 0 1
12.1062 0 1
12.2235 0 1
12.3409 0 1
12.4582 0 1
12.5756 0 1
12.693 0 1
12.8104 0 1
12.9278 0 1
13.0452 0 1
13.1626 0 1
13.28 0 1
13.3974 0 1
13.5149 0 1
13.6323 0 1
13.7497 0 1
13.8671 0 1
13.9845 0 1
14.1019 0 1
14.2193 0 1
14.3367 0 1
14.4541 0 1
14.5714 0 1
14.6888 0 1
14.8062 0 1
14.9235 0 1
15.0408 0 0
15.1581 0 0
15.2755 0 0
15.3927 0 0
15.51 0 0
15.6273 0 0
15.7445 0 0
15.8617 0 0
15.9789 0 0
16.0961 0 0
16.2132 0 0
16.3304 0 0
16.4475 0 0
16.5646 0 0
16.6816 0 0
16.7986 0 0
16.9156 0 0
17.0326 0 0
17.1496 0 0
17.2665 0 0
17.3833 0 0
17.5002 0 0
17.617 0 0
17.7338 0 0
17.8505 0 0
17.9672 0 0
18.0839 0 0
18.2005 0 0
18.3171 0 0
18.4337 0 0
18.5502 0 0
18.6666 0 0
18.7831 0 0
18.8994 0 0
19.0158 0 0
19.1321 0 0
19.2483 0 0
19.3645 0 0
19.4806 0 0
19.5967 0 0
19.7128 0 0
19.8288 0 0
19.9447 0 0
20.0606 0 1
20.1764 0 1
20.2922 0 1
20.4079 0 1
20.5236 0 1
20.6392 0 1
20.7548 0 1
20.8702 0 1
23.3078 0 1
23.4233 0 1
23.539 0 1
23.6547 0 1
23.7704 0 1
23.8862 0 1
24.0021 0 1
24.118 0 1
24.234 0 1
24.35 0 1
24.4661 1387 37.2424
24.5822 1338 36.5787
24.6984 1339 36.5923
24.8146 1361 36.8917
24.9309 1334 36.524
25.0472 1187 34.4529
25.1636 1409 37.5366
25.28 1399 37.4032
25.3965 1451 38.092
25.513 1477 38.4318
25.6296 1561 39.5095
25.7462 1644 40.5463
25.8628 1625 40.3113
25.9795 1608 40.0999
26.0962 1577 39.7115
26.213 1611 40.1373
26.3298 1632 40.398
26.4466 1624 40.2989
26.5635 1506 38.8072
26.6804 1518 38.9615
26.7973 1437 37.9078
26.9143 1502 38.7556
27.0313 1463 38.2492
27.1483 1472 38.3667
27.2653 1543 39.281
27.3824 1640 40.4969
27.4996 1633 40.4104
27.6167 1603 40.0375
27.7339 1495 38.6652
27.8511 1590 39.8748
27.9683 1472 38.3667
28.0855 1514 38.9102
28.2028 1434 37.8682
28.3201 1365 36.9459
28.4374 1320 36.3318
28.5547 1275 35.7071
28.6721 1307 36.1525
28.7894 1274 35.6931
28.9068 1431 37.8286
29.0242 1429 37.8021
29.1416 1454 38.1314
29.259 1449 38.0657
29.3764 1537 39.2046
29.4939 1488 38.5746
29.6113 1587 39.8372
29.7288 1605 40.0625
29.8463 1531 39.128
29.9638 1547 39.3319
30.0812 1548 39.3446
30.1987 1315 36.2629
30.3162 1416 37.6298
30.4337 1432 37.8418
30.5512 1433 37.855
30.6687 1521 39
30.7862 1580 39.7492
30.9037 1510 38.8587
31.0212 1585 39.8121
31.1387 1667 40.8289
31.2562 1581 39.7618
31.3737 1553 39.4081
31.4912 1529 39.1024
31.6087 1516 38.9358
31.7262 1456 38.1576
31.8436 1430 37.8153
31.9611 1307 36.1525
32.0785 1343 36.647
32.1959 1315 36.2629
32.3134 1353 36.7831
32.4308 1355 36.8103
32.5482 1457 38.1707
32.6655 1590 39.8748
32.7829 1560 39.4968
32.9002 1598 39.975
33.0176 1531 39.128
33.1349 1546 39.3192
33.2522 1579 39.7366
33.3694 1614 40.1746
33.4867 1562 39.5221
33.6039 1542 39.2683
33.7211 1515 38.923
33.8383 1517 38.9487
33.9554 1411 37.5633
34.0725 1505 38.7943
34.1896 1498 38.704
34.3067 1536 39.1918
34.4237 1558 39.4715
34.5407 1612 40.1497
34.6577 1647 40.5832
34.7746 1653 40.6571
34.8915 1596 39.95
35.0084 1562 39.5221
35.1252 1565 39.5601
35.242 1536 39.1918
35.3587 1494 38.6523
35.4755 1414 37.6032
35.5921 1347 36.7015
35.7088 1306 36.1386
35.8254 1233 35.1141
35.9419 1266 35.5809
36.0584 1357 36.8375
36.1749 1343 36.647
36.2913 1362 36.9053
36.4077 1458 38.1838
36.524 1553 39.4081
36.6403 1617 40.2119
36.7565 1555 39.4335
36.8727 1518 38.9615
36.9889 1571 39.6358
37.1049 1557 39.4588
37.221 0 1
37.3369 0 1
37.4529 0 1
37.5687 0 1
37.6845 0 1
37.8003 0 1
37.916 0 1
38.0316 0 1
38.1472 0 1
40.5851 0 1
40.7008 0 1
40.8164 0 1
40.9322 0 1
41.048 0 1
41.1639 0 1
41.2798 0 1
41.3958 0 1
41.5118 0 1
41.6279 0 1
41.744 1405 37.4833
41.8602 1470 38.3406
41.9765 1443 37.9868
42.0928 1351 36.756
42.2091 1439 37.9342
42.3255 1459 38.1969
42.4419 1422 37.7094
42.5584 1392 37.3095
42.675 1321 36.3456
42.7915 1320 36.3318
42.9081 1322 36.3593
43.0248 1299 36.0416
43.1415 1429 37.8021
43.2582 1396 37.3631
43.375 1465 38.2753
43.4918 1513 38.8973
43.6087 1494 38.6523
43.7256 1395 37.3497
43.8425 1428 37.7889
43.9595 1426 37.7624
44.0765 1413 37.5899
44.1935 1284 35.8329
44.3106 1219 34.9142
44.4277 1164 34.1174
44.5448 1062 32.5883
44.6619 1062 32.5883
44.7791 1102 33.1964
44.8963 1112 33.3467
45.0136 1177 34.3074
45.1308 1198 34.6121
45.2481 1237 35.171
45.3654 1250 35.3553
45.4827 1233 35.1141
45.6001 1166 34.1467
45.7174 1259 35.4824
45.8348 1246 35.2987
45.9522 1241 35.2278
46.0697 1190 34.4964
46.1871 1127 33.5708
46.3046 1082 32.8938
46.422 1087 32.9697
46.5395 1060 32.5576
46.657 1167 34.1614
46.7745 1171 34.2199
46.892 1154 33.9706
47.0096 1151 33.9264
47.1271 1123 33.5112
47.2446 1119 33.4515
47.3622 1142 33.7935
47.4797 1129 33.6006
47.5973 1104 33.2265
47.7149 1030 32.0936
47.8324 991 31.4802
47.95 881 29.6816
48.0675 893 29.8831
48.1851 809 28.4429
48.3027 827 28.7576
48.4202 858 29.2916
48.5378 877 29.6142
48.6554 950 30.8221
48.7729 1046 32.3419
48.8904 1069 32.6956
49.008 1041 32.2645
49.1255 1071 32.7261
49.243 1043 32.2955
49.3605 997 31.5753
49.478 1070 32.7109
49.5955 960 30.9839
49.713 907 30.1164
49.8304 970 31.1448
49.9479 979 31.289
50.0653 1066 32.6497
50.1827 1162 34.0881
50.3001 1181 34.3657
50.4175 1175 34.2783
50.5348 1178 34.322
50.6521 1257 35.4542
50.7694 1313 36.2353
50.8867 1252 35.3836
51.004 1345 36.6742
51.1212 1315 36.2629
51.2384 1300 36.0555
51.3556 1242 35.242
51.4727 1216 34.8712
51.5899 1065 32.6343
51.707 1051 32.4191
51.824 1119 33.4515
51.9411 1155 33.9853
52.0581 1210 34.7851
52.175 1385 37.2156
52.2919 1404 37.47
52.4088 1477 38.4318
52.5257 1498 38.704
52.6425 1583 39.7869
52.7593 1477 38.4318
52.876 1506 38.8072
52.9927 1601 40.0125
53.1094 1561 39.5095
53.226 1503 38.7685
53.3426 1521 39
53.4591 1616 40.1995
53.5756 1504 38.7814
53.692 1565 39.5601
53.8084 1665 40.8044
53.9248 1727 41.5572
54.0411 1698 41.2068
54.1573 1660 40.7431
54.2735 0 1
54.3896 0 1
54.5057 0 1
54.6217 0 1
54.7377 0 1
54.8537 0 1
54.9695 0 1
55.0853 0 1
55.2011 0 1
55.3168 0 1
55.4324 0 1
57.824 0 1
57.9396 0 1
58.0553 0 1
58.1711 0 1
58.2869 0 1
58.4028 0 1
58.5187 0 1
58.6347 0 1
58.7508 0 1
58.8669 0 1
58.983 2068 45.4753
59.0992 2165 46.5296
59.2155 2225 47.1699
59.3318 2180 46.6905
59.4482 2182 46.7119
59.5646 2161 46.4866
59.681 2226 47.1805
59.7975 2097 45.793
59.9141 2077 45.5741
60.0306 1931 43.9431
60.1473 1773 42.107
60.2639 1657 40.7063
60.3807 1596 39.95
60.4974 1534 39.1663
60.6142 1644 40.5463
60.731 1710 41.3521
60.8479 1870 43.2435
60.9648 1973 44.4185
61.0818 2068 45.4753
61.1987 2060 45.3872
61.3158 2147 46.3357
61.4328 2049 45.2659
61.5499 2100 45.8258
61.667 2158 46.4543
61.7841 1966 44.3396
61.9013 2006 44.7884
62.0185 1993 44.643
62.1357 1921 43.8292
62.253 2049 45.2659
62.3702 2170 46.5833
62.4875 2193 46.8295
62.6049 2182 46.7119
62.7222 2257 47.5079
62.8396 2231 47.2335
62.9569 2238 47.3075
63.0743 2180 46.6905
63.1918 2194 46.8402
63.3092 2093 45.7493
63.4267 2030 45.0555
63.5441 1977 44.4635
63.6616 1894 43.5201
63.7791 1657 40.7063
63.8966 1584 39.7995
64.0142 1615 40.1871
64.1317 1579 39.7366
64.2492 1685 41.0488
64.3668 1918 43.795
64.4843 2067 45.4643
64.6019 2066 45.4533
64.7195 2193 46.8295
64.837 2166 46.5403
64.9546 2268 47.6235
65.0722 2154 46.4112
65.1898 2131 46.1628
65.3074 2159 46.465
65.4249 2081 45.618
65.5425 2063 45.4203
65.6601 2118 46.0217
65.7777 2121 46.0543
65.8952 2101 45.8367
66.0128 2171 46.594
66.1304 2233 47.2546
66.2479 2221 47.1275
66.3655 2314 48.1041
66.483 2320 48.1664
66.6005 2373 48.7134
66.718 2250 47.4342
66.8355 2202 46.9255
66.953 2148 46.3465
67.0705 2121 46.0543
67.1879 2101 45.8367
67.3054 1809 42.5323
67.4228 1730 41.5933
67.5402 1580 39.7492
67.6576 1578 39.724
67.7749 1635 40.4351
67.8923 1877 43.3244
68.0096 1913 43.7379
68.1269 2049 45.2659
68.2442 2281 47.7598
68.3614 2267 47.613
68.4787 2349 48.4665
68.5958 2408 49.0714
68.713 2303 47.9896
68.8302 2440 49.3964
68.9473 2364 48.621
69.0643 2200 46.9042
69.1814 2279 47.7389
69.2984 2212 47.0319
69.4154 2308 48.0416
69.5323 2485 49.8498
69.6492 2469 49.689
69.7661 2505 50.05
69.8829 2531 50.309
69.9997 2589 50.8822
70.1165 2632 51.303
70.2332 2674 51.7107
70.3499 2605 51.0392
70.4665 2554 50.5371
70.5831 2506 50.06
70.6996 2425 49.2443
70.8161 2287 47.8226
70.9326 2123 46.076
71.049 1873 43.2782
71.1653 1741 41.7253
71.2817 1508 38.833
71.3979 1550 39.37
71.5141 1845 42.9535
71.6303 1902 43.6119
71.7464 1970 44.3847
71.8624 0 1
71.9784 0 1
72.0944 0 1
72.2102 0 1
72.3261 0 1
72.4418 0 1
72.5575 0 1
72.6732 0 1
75.1054 0 1
75.2209 0 1
75.3365 0 1
75.4521 0 1
75.5678 0 1
75.6835 0 1
75.7993 0 1
75.9151 0 1
76.031 0 1
76.147 2275 47.697
76.263 2337 48.3425
76.3791 2176 46.6476
76.4952 1918 43.795
76.6113 1743 41.7493
76.7276 1778 42.1663
76.8438 1992 44.6318
76.9601 2295 47.9062
77.0765 2516 50.1597
77.1929 2698 51.9423
77.3093 2917 54.0093
77.4258 2798 52.8961
77.5423 2969 54.4885
77.6589 2944 54.2586
77.7755 2957 54.3783
77.8921 2913 53.9722
78.0088 2870 53.5724
78.1256 2749 52.4309
78.2423 2742 52.3641
78.3591 2685 51.817
78.4759 2776 52.6878
78.5928 2992 54.6992
78.7097 2998 54.754
78.8266 3106 55.7315
78.9436 3015 54.909
79.0606 3143 56.0625
79.1776 3032 55.0636
79.2946 3042 55.1543
79.4117 3146 56.0892
79.5288 3107 55.7405
79.6459 3000 54.7723
79.7631 2887 53.7308
79.8802 2743 52.3737
79.9974 2549 50.4876
80.1147 2292 47.8748
80.2319 2028 45.0333
80.3491 1913 43.7379
80.4664 2212 47.0319
80.5837 2480 49.7996
80.701 2765 52.5833
80.8183 2910 53.9444
80.9357 3071 55.4166
81.053 3074 55.4437
81.1704 3070 55.4076
81.2877 3115 55.8122
81.4051 3151 56.1338
81.5225 3167 56.2761
81.6399 3088 55.5698
81.7573 3058 55.2992
81.8747 2914 53.9815
81.9922 2919 54.0278
82.1096 2818 53.0848
82.227 3091 55.5968
82.3444 3072 55.4256
82.4619 3267 57.1577
82.5793 3096 55.6417
82.6967 3293 57.3847
82.8142 3271 57.1927
82.9316 3263 57.1227
83.049 3256 57.0614
83.1664 3145 56.0803
83.2838 3066 55.3715
83.4012 3004 54.8088
83.5186 2812 53.0283
83.636 2665 51.6236
83.7534 2281 47.7598
83.8708 2031 45.0666
83.9881 2003 44.7549
84.1055 2134 46.1952
84.2228 2389 48.8774
84.3401 2866 53.535
84.4575 3131 55.9553
84.5747 3189 56.4712
84.692 3231 56.8419
84.8093 3335 57.7495
84.9265 3392 58.2409
85.0437 3362 57.9828
85.1609 3319 57.6108
85.2781 3296 57.4108
85.3952 3327 57.6802
85.5123 3203 56.5951
85.6294 3219 56.7362
85.7465 3250 57.0088
85.8636 3308 57.5152
85.9806 3526 59.3801
86.0976 3665 60.5392
86.2145 3810 61.7252
86.3315 3632 60.2661
86.4484 3883 62.3137
86.5652 3810 61.7252
86.682 3876 62.2575
86.7988 3717 60.9672
86.9156 3694 60.7783
87.0323 3548 59.5651
87.149 3271 57.1927
87.2657 2974 54.5344
87.3823 2579 50.7839
87.4988 2411 49.1019
87.6154 2589 50.8822
87.7318 2859 53.4696
87.8483 3290 57.3585
87.9647 3659 60.4897
88.081 3934 62.7216
88.1973 4135 64.304
88.3136 4102 64.0469
88.4298 4112 64.1249
88.546 4117 64.1639
88.6621 4034 63.5138
88.7781 3990 63.1664
88.8942 0 1
89.0101 0 1
89.126 0 1
89.2419 0 1
89.3577 0 1
89.4734 0 1
89.5891 0 1
89.7047 0 1
89.8203 0 1
89.9358 0 1
92.3269 0 1
92.4424 0 1
92.558 0 1
92.6736 0 1
92.7893 0 1
92.905 0 1
93.0208 0 1
93.1366 0 1
93.2525 0 1
93.3685 0 1
93.4845 0 1
93.6005 4102 64.0469
93.7167 4225 65
93.8328 4329 65.7951
93.949 4295 65.5362
94.0653 4322 65.7419
94.1816 4338 65.8635
94.2979 4282 65.437
94.4143 4152 64.436
94.5307 4213 64.9076
94.6472 4183 64.6761
94.7637 4086 63.9218
94.8803 4167 64.5523
94.9969 4271 65.3529
95.1135 4367 66.0833
95.2302 4507 67.1342
95.3469 4526 67.2756
95.4637 4693 68.5055
95.5805 4602 67.838
95.6973 4734 68.8041
95.8142 4702 68.5711
95.9311 4659 68.2569
96.048 4498 67.0671
96.1649 4253 65.215
96.2819 4172 64.591
96.3989 3851 62.0564
96.516 3343 57.8187
96.633 2995 54.7266
96.7501 2876 53.6284
96.8673 3140 56.0357
96.9844 3432 58.5833
97.1016 3989 63.1585
97.2188 4454 66.7383
97.336 4799 69.2748
97.4532 4778 69.1231
97.5704 4919 70.1356
97.6877 4783 69.1592
97.805 4703 68.5784
97.9223 4779 69.1303
98.0396 4866 69.7567
98.1569 4744 68.8767
98.2743 4577 67.6535
98.3916 4520 67.2309
98.509 4541 67.3869
98.6264 4598 67.8086
98.7438 4661 68.2715
98.8612 4892 69.9428
98.9786 4873 69.8069
99.096 5076 71.2461
99.2134 5173 71.9236
99.3308 5200 72.111
99.4482 5086 71.3162
99.5656 4877 69.8355
99.6831 4865 69.7496
99.8005 4737 68.8259
99.9179 4459 66.7757
100.035 4064 63.7495
100.153 3646 60.3821
100.27 3159 56.205
100.388 3352 57.8965
100.505 3706 60.8769
100.622 4286 65.4675
100.74 4801 69.2892
100.857 5186 72.0139
100.975 5259 72.519
101.092 5136 71.6659
101.209 5354 73.171
101.327 5190 72.0417
101.444 5169 71.8958
101.561 5088 71.3302
101.679 5203 72.1318
101.796 5014 70.8096
101.913 5109 71.4773
102.03 4918 70.1285
102.148 4815 69.3902
102.265 5204 72.1388
102.382 4967 70.4769
102.499 5425 73.6546
102.616 5454 73.8512
102.733 5482 74.0405
102.851 5598 74.8198
102.968 5672 75.3127
103.085 5615 74.9333
103.202 5343 73.0958
103.319 5206 72.1526
103.436 4910 70.0714
103.552 4498 67.0671
103.669 3988 63.1506
103.786 3491 59.0847
103.903 3567 59.7244
104.02 4050 63.6396
104.137 4758 68.9783
104.253 5446 73.797
104.37 5518 74.2832
104.487 5715 75.5976
104.603 5799 76.1512
104.72 5601 74.8398
104.836 5785 76.0592
104.953 5700 75.4983
105.069 5682 75.379
105.186 5617 74.9466
105.302 5606 74.8732
105.418 5416 73.5935
105.535 5308 72.856
105.651 5302 72.8148
105.767 5610 74.8999
105.883 5701 75.505
105.999 5709 75.5579
106.115 0 1
106.231 0 1
106.347 0 1
106.463 0 1
106.579 0 1
106.694 0 1
106.81 0 1
106.926 0 1
107.041 0 1
107.157 0 1
109.576 0 1
109.692 0 1
109.807 0 1
109.923 0 1
110.039 0 1
110.155 0 1
110.27 0 1
110.386 0 1
110.502 0 1
110.618 4981 70.5762
110.735 5228 72.3049
110.851 5238 72.374
110.967 5508 74.2159
111.083 5410 73.5527
111.199 5612 74.9133
111.316 5660 75.233
111.432 5573 74.6525
111.549 5398 73.4711
111.665 5267 72.5741
111.782 5111 71.4913
111.898 4900 70
112.015 4516 67.2012
112.132 3843 61.9919
112.248 3376 58.1034
112.365 3297 57.4195
112.482 3790 61.563
112.599 4116 64.1561
112.716 4736 68.8186
112.832 4893 69.95
112.949 4948 70.342
113.066 5204 72.1388
113.183 5074 71.232
113.3 5036 70.9648
113.417 5030 70.9225
113.534 4994 70.6682
113.652 4987 70.6187
113.769 4882 69.8713
113.886 4801 69.2892
114.003 4736 68.8186
114.12 4681 68.4178
114.238 4591 67.7569
114.355 4465 66.8207
114.472 4586 67.72
114.589 4606 67.8675
114.707 4881 69.8642
114.824 4844 69.5989
114.942 4981 70.5762
115.059 4832 69.5126
115.176 4903 70.0214
115.294 4640 68.1175
115.411 4601 67.8307
115.529 4299 65.5668
115.646 3795 61.6036
115.764 3350 57.8792
115.881 3037 55.109
115.999 3209 56.648
116.116 3649 60.407
116.234 4152 64.436
116.351 4611 67.9043
116.469 4649 68.1836
116.586 4733 68.7968
116.704 4817 69.4046
116.821 4824 69.455
116.939 4737 68.8259
117.056 4666 68.3081
117.174 4718 68.6877
117.291 4745 68.884
117.409 4445 66.6708
117.526 4471 66.8655
117.644 4609 67.8896
117.761 4559 67.5204
117.879 4455 66.7458
117.996 4566 67.5722
118.114 4530 67.3053
118.231 4705 68.593
118.349 4624 68
118.466 4859 69.7065
118.584 4819 69.419
118.701 5000 70.7107
118.819 4798 69.2676
118.936 4625 68.0074
119.053 4490 67.0075
119.171 4254 65.2227
119.288 3620 60.1664
119.405 3244 56.9561
119.523 2977 54.5619
119.64 3102 55.6956
119.757 3581 59.8415
119.875 3962 62.9444
119.992 4349 65.9469
120.109 4426 66.5282
120.226 4611 67.9043
120.343 4560 67.5278
120.46 4704 68.5857
120.578 4591 67.7569
120.695 4531 67.3127
120.812 4581 67.6831
120.929 4618 67.9559
121.046 4581 67.6831
121.163 4553 67.4759
121.279 4430 66.5582
121.396 4334 65.8331
121.513 4374 66.1362
121.63 4311 65.6582
121.747 4414 66.4379
121.863 4385 66.2193
121.98 4658 68.2495
122.097 4467 66.8356
122.213 4585 67.7126
122.33 4441 66.6408
122.446 4639 68.1102
122.563 4463 66.8057
122.679 4278 65.4064
122.795 4080 63.8749
122.912 3889 62.3618
123.028 3467 58.8812
123.144 3102 55.6956
123.26 2907 53.9166
123.377 0 1
123.493 0 1
123.609 0 1
123.725 0 1
123.84 0 1
123.956 0 1
124.072 0 1
124.188 0 1
124.303 0 1
124.419 0 1
126.852 0 1
126.968 0 1
127.083 0 1
127.199 0 1
127.315 0 1
127.431 0 1
127.547 0 1
127.663 0 1
127.779 0 1
127.895 0 1
128.011 0 1
128.127 0 1
128.243 0 1
128.359 3446 58.7026
128.476 3106 55.7315
128.592 3254 57.0438
128.708 3743 61.1801
128.825 4314 65.681
128.941 4597 67.8012
129.058 4784 69.1665
129.174 4869 69.7782
129.291 5000 70.7107
129.408 4902 70.0143
129.524 4665 68.3008
129.641 4814 69.383
129.758 4698 68.542
129.875 4661 68.2715
129.992 4746 68.8912
130.108 4509 67.1491
130.225 4683 68.4324
130.342 4578 67.6609
130.459 4539 67.3721
130.576 4732 68.7895
130.693 4569 67.5944
130.81 4603 67.8454
130.928 4625 68.0074
131.045 4814 69.383
131.162 4761 69
131.279 4761 69
131.396 4712 68.644
131.513 4491 67.0149
131.631 4316 65.6963
131.748 4203 64.8305
131.865 3591 59.925
131.983 3369 58.0431
132.1 3175 56.3471
132.217 3456 58.7878
132.335 3845 62.0081
132.452 4344 65.909
132.57 4419 66.4756
132.687 4464 66.8132
132.804 4862 69.728
132.922 4594 67.7791
133.039 4545 67.4166
133.157 4612 67.9117
133.274 4467 66.8356
133.392 4495 67.0448
133.509 4434 66.5883
133.627 4524 67.2607
133.744 4514 67.1863
133.862 4357 66.0076
133.979 4340 65.8787
134.097 4429 66.5507
134.214 4539 67.3721
134.332 4212 64.8999
134.449 4369 66.0984
134.567 4448 66.6933
134.684 4455 66.7458
134.802 4597 67.8012
134.919 4553 67.4759
135.037 4483 66.9552
135.154 4311 65.6582
135.272 4181 64.6607
135.389 3713 60.9344
135.507 3420 58.4808
135.624 3172 56.3205
135.742 3287 57.3324
135.859 3600 60
135.977 3948 62.8331
136.094 4361 66.0379
136.211 4395 66.2948
136.329 4539 67.3721
136.446 4411 66.4154
136.564 4432 66.5733
136.681 4491 67.0149
136.798 4484 66.9627
136.915 4432 66.5733
137.033 4464 66.8132
137.15 4338 65.8635
137.267 4197 64.7843
137.384 4249 65.1844
137.502 4276 65.3911
137.619 4271 65.3529
137.736 4223 64.9846
137.853 4041 63.5689
137.97 4185 64.6916
138.087 4378 66.1665
138.204 4231 65.0461
138.321 4402 66.3476
138.438 4333 65.8255
138.555 4390 66.2571
138.672 4310 65.6506
138.788 4213 64.9076
138.905 4100 64.0312
139.022 3787 61.5386
139.139 3438 58.6345
139.255 3237 56.8946
139.372 3125 55.9017
139.488 3453 58.7622
139.605 3779 61.4736
139.721 4171 64.5833
139.838 4286 65.4675
139.954 4321 65.7343
140.071 4294 65.5286
140.187 4322 65.7419
140.303 4172 64.591
140.419 4405 66.3702
140.535 4371 66.1135
140.652 4221 64.9692
140.768 0 1
140.884 0 1
141 0 1
141.115 0 1
141.231 0 1
141.347 0 1
141.463 0 1
141.578 0 1
141.694 0 1
144.104 0 1
144.219 0 1
144.335 0 1
144.45 0 1
144.566 0 1
144.682 0 1
144.798 0 1
144.914 0 1
145.03 0 1
145.146 3711 60.918
145.262 3609 60.075
145.378 3723 61.0164
145.494 3761 61.327
145.61 3661 60.5062
145.726 3568 59.7327
145.842 3649 60.407
145.959 3553 59.607
146.075 3509 59.2368
146.192 3574 59.7829
146.308 3673 60.6053
146.425 3504 59.1946
146.541 3570 59.7495
146.658 3621 60.1747
146.774 3484 59.0254
146.891 3516 59.2959
147.008 3540 59.4979
147.125 3491 59.0847
147.241 3561 59.6741
147.358 3478 58.9746
147.475 3352 57.8965
147.592 3216 56.7098
147.709 2881 53.6749
147.826 2770 52.6308
147.943 2721 52.1632
148.06 2793 52.8488
148.177 3182 56.4092
148.294 3400 58.3095
148.411 3368 58.0345
148.528 3563 59.6909
148.645 3390 58.2237
148.762 3480 58.9915
148.88 3474 58.9406
148.997 3297 57.4195
149.114 3507 59.2199
149.231 3363 57.9914
149.349 3366 58.0172
149.466 3277 57.2451
149.583 3133 55.9732
149.701 3197 56.542
149.818 3196 56.5332
149.935 3296 57.4108
150.053 3272 57.2014
150.17 3272 57.2014
150.287 3254 57.0438
150.405 3333 57.7321
150.522 3209 56.648
150.64 3311 57.5413
150.757 3353 57.9051
150.875 3330 57.7062
150.992 3362 57.9828
151.11 3060 55.3173
151.227 3030 55.0454
151.344 2817 53.0754
151.462 2554 50.5371
151.579 2580 50.7937
151.697 2689 51.8556
151.814 2984 54.626
151.932 3202 56.5862
152.049 3441 58.66
152.167 3332 57.7235
152.284 3371 58.0603
152.402 3326 57.6715
152.519 3432 58.5833
152.636 3424 58.515
152.754 3352 57.8965
152.871 3322 57.6368
152.989 3259 57.0877
153.106 3213 56.6833
153.223 3218 56.7274
153.341 3169 56.2939
153.458 3255 57.0526
153.575 3465 58.8643
153.693 3386 58.1893
153.81 3401 58.3181
153.927 3408 58.3781
154.044 3264 57.1314
154.162 3294 57.3934
154.279 3394 58.258
154.396 3394 58.258
154.513 3419 58.4722
154.63 3440 58.6515
154.747 3336 57.7581
154.864 3303 57.4717
154.981 3203 56.5951
155.098 2920 54.037
155.215 2768 52.6118
155.332 2848 53.3667
155.449 3161 56.2228
155.566 3226 56.7979
155.683 3435 58.6089
155.8 3373 58.0775
155.917 3360 57.9655
156.033 3449 58.7282
156.15 0 1
156.267 0 1
156.383 0 1
156.5 0 1
156.617 0 1
156.733 0 1
156.85 0 1
156.966 0 1
157.082 0 1
157.199 0 1
157.315 0 1
157.431 0 1
157.547 0 1
157.664 0 1
157.78 0 1
157.896 0 1
158.012 0 1
158.128 0 1
158.244 0 1
158.359 0 1
158.475 0 1
158.591 0 1
158.706 0 1
