
6.15755 0 1
6.2731 0 1
6.3887 0 1
6.50437 0 1
6.62009 0 1
6.73587 0 1
6.8517 0 1
6.96759 0 1
7.08353 0 1
7.19952 0 1
7.31557 0 1
7.43166 0 1
7.54781 0 1
7.664 0 1
7.78024 0 1
7.89653 0 1
8.01286 0 1
8.12924 0 1
8.24567 0 1
8.36213 0 1
8.47864 0 1
8.59519 0 1
8.71178 0 1
8.82841 0 1
8.94508 0 1
9.06179 0 1
9.17853 0 1
9.29531 0 1
9.41212 0 1
9.52897 0 1
9.64584 0 1
9.76276 0 1
9.8797 0 1
9.99667 0 1
10.1137 0 1
10.2307 0 1
10.3478 0 1
10.4648 0 1
10.5819 0 1
10.6991 0 1
10.8162 0 1
10.9334 0 1
11.0506 0 1
11.1678 0 1
11.285 0 1
11.4023 0 1
11.5196 0 1
11.6369 0 1
11.7542 0 1
11.8715 0 1
11.9888 0 1
12.1062 0 1
12.2235 0 1
12.3409 0 1
12.4582 0 1
12.5756 0 1
12.693 0 1
12.8104 0 1
12.9278 0 1
13.0452 0 1
13.1626 0 1
13.28 0 1
13.3974 0 1
13.5149 0 1
13.6323 0 1
13.7497 0 1
13.8671 0 1
13.9845 0 1
14.1019 0 1
14.2193 0 1
14.3367 0 1
14.4541 0 1
14.5714 0 1
14.6888 0 1
14.8062 0 1
14.9235 0 1
15.0408 1566 39.5727
15.1581 1688 41.0853
15.2755 1681 41
15.3927 1710 41.3521
15.51 1723 41.509
15.6273 1701 41.2432
15.7445 1718 41.4488
15.8617 1731 41.6053
15.9789 1737 41.6773
16.0961 1683 41.0244
16.2132 1691 41.1218
16.3304 1743 41.7493
16.4475 1823 42.6966
16.5646 1832 42.8019
16.6816 1892 43.4971
16.7986 2045 45.2217
16.9156 2146 46.3249
17.0326 2117 46.0109
17.1496 2112 45.9565
17.2665 2014 44.8776
17.3833 2043 45.1996
17.5002 2028 45.0333
17.617 1867 43.2088
17.7338 1934 43.9773
17.8505 1800 42.4264
17.9672 1726 41.5452
18.0839 1775 42.1307
18.2005 1840 42.8952
18.3171 1916 43.7721
18.4337 1914 43.7493
18.5502 1904 43.6348
18.6666 1963 44.3058
18.7831 1975 44.441
18.8994 2025 45
19.0158 2022 44.9667
19.1321 1990 44.6094
19.2483 1812 42.5676
19.3645 1765 42.0119
19.4806 1592 39.8999
19.5967 1529 39.1024
19.7128 1477 38.4318
19.8288 1290 35.9166
19.9447 1187 34.4529
20.0606 0 1
20.1764 0 1
20.2922 0 1
20.4079 0 1
20.5236 0 1
20.6392 0 1
20.7548 0 1
20.8702 0 1
23.3078 0 1
23.4233 0 1
23.539 0 1
23.6547 0 1
23.7704 0 1
23.8862 0 1
24.0021 0 1
24.118 0 1
24.234 0 1
24.35 0 1
24.4661 807 28.4077
24.5822 1024 32
24.6984 1174 34.2637
24.8146 1212 34.8138
24.9309 1357 36.8375
25.0472 1449 38.0657
25.1636 1591 39.8873
25.28 1736 41.6653
25.3965 1901 43.6005
25.513 2046 45.2327
25.6296 2140 46.2601
25.7462 2161 46.4866
25.8628 2139 46.2493
25.9795 2191 46.8081
26.0962 2188 46.7761
26.213 2073 45.5302
26.3298 1967 44.3509
26.4466 1915 43.7607
26.5635 1863 43.1625
26.6804 1875 43.3013
26.7973 1893 43.5086
26.9143 1904 43.6348
27.0313 2012 44.8553
27.1483 1998 44.699
27.2653 2012 44.8553
27.3824 2105 45.8803
27.4996 2154 46.4112
27.6167 2083 45.6399
27.7339 2024 44.9889
27.8511 2041 45.1774
27.9683 1912 43.7264
28.0855 1885 43.4166
28.2028 1777 42.1545
28.3201 1726 41.5452
28.4374 1736 41.6653
28.5547 1803 42.4617
28.6721 1845 42.9535
28.7894 1959 44.2606
28.9068 2044 45.2106
29.0242 1954 44.2041
29.1416 2099 45.8148
29.259 2178 46.669
29.3764 2126 46.1086
29.4939 2072 45.5192
29.6113 2124 46.0869
29.7288 2041 45.1774
29.8463 1889 43.4626
29.9638 1848 42.9884
30.0812 1721 41.4849
30.1987 1823 42.6966
30.3162 1866 43.1972
30.4337 1883 43.3935
30.5512 1925 43.8748
30.6687 1905 43.6463
30.7862 1971 44.3959
30.9037 2021 44.9555
31.0212 1933 43.9659
31.1387 1899 43.5775
31.2562 1959 44.2606
31.3737 1928 43.909
31.4912 1853 43.0465
31.6087 1808 42.5206
31.7262 1815 42.6028
31.8436 1753 41.8688
31.9611 1732 41.6173
32.0785 1660 40.7431
32.1959 1779 42.1782
32.3134 1887 43.4396
32.4308 1889 43.4626
32.5482 1955 44.2154
32.6655 2021 44.9555
32.7829 2018 44.9222
32.9002 1998 44.699
33.0176 2036 45.1221
33.1349 1994 44.6542
33.2522 2025 45
33.3694 1945 44.1022
33.4867 1765 42.0119
33.6039 1773 42.107
33.7211 1587 39.8372
33.8383 1604 40.05
33.9554 1592 39.8999
34.0725 1727 41.5572
34.1896 1735 41.6533
34.3067 1829 42.7668
34.4237 1910 43.7035
34.5407 1825 42.72
34.6577 1928 43.909
34.7746 1852 43.0349
34.8915 1962 44.2945
35.0084 1828 42.7551
35.1252 1816 42.6146
35.242 1772 42.0951
35.3587 1749 41.821
35.4755 1768 42.0476
35.5921 1635 40.4351
35.7088 1650 40.6202
35.8254 1660 40.7431
35.9419 1684 41.0366
36.0584 1718 41.4488
36.1749 1735 41.6533
36.2913 1740 41.7133
36.4077 1731 41.6053
36.524 1689 41.0974
36.6403 1714 41.4005
36.7565 1613 40.1622
36.8727 1531 39.128
36.9889 1461 38.223
37.1049 1292 35.9444
37.221 0 1
37.3369 0 1
37.4529 0 1
37.5687 0 1
37.6845 0 1
37.8003 0 1
37.916 0 1
38.0316 0 1
38.1472 0 1
40.5851 0 1
40.7008 0 1
40.8164 0 1
40.9322 0 1
41.048 0 1
41.1639 0 1
41.2798 0 1
41.3958 0 1
41.5118 0 1
41.6279 0 1
41.744 861 29.3428
41.8602 1004 31.686
41.9765 1150 33.9116
42.0928 1226 35.0143
42.2091 1109 33.3017
42.3255 1081 32.8786
42.4419 1109 33.3017
42.5584 1145 33.8378
42.675 1257 35.4542
42.7915 1407 37.51
42.9081 1432 37.8418
43.0248 1519 38.9744
43.1415 1476 38.4187
43.2582 1598 39.975
43.375 1609 40.1123
43.4918 1644 40.5463
43.6087 1552 39.3954
43.7256 1617 40.2119
43.8425 1577 39.7115
43.9595 1506 38.8072
44.0765 1431 37.8286
44.1935 1466 38.2884
44.3106 1353 36.7831
44.4277 1321 36.3456
44.5448 1295 35.9861
44.6619 1337 36.565
44.7791 1410 37.55
44.8963 1445 38.0132
45.0136 1542 39.2683
45.1308 1710 41.3521
45.2481 1637 40.4599
45.3654 1570 39.6232
45.4827 1585 39.8121
45.6001 1621 40.2616
45.7174 1546 39.3192
45.8348 1398 37.3898
45.9522 1353 36.7831
46.0697 1318 36.3043
46.1871 1287 35.8748
46.3046 1326 36.4143
46.422 1442 37.9737
46.5395 1522 39.0128
46.657 1557 39.4588
46.7745 1585 39.8121
46.892 1601 40.0125
47.0096 1693 41.1461
47.1271 1677 40.9512
47.2446 1703 41.2674
47.3622 1619 40.2368
47.4797 1600 40
47.5973 1538 39.2173
47.7149 1601 40.0125
47.8324 1465 38.2753
47.95 1452 38.1051
48.0675 1337 36.565
48.1851 1246 35.2987
48.3027 1441 37.9605
48.4202 1446 38.0263
48.5378 1545 39.3065
48.6554 1624 40.2989
48.7729 1650 40.6202
48.8904 1706 41.3038
49.008 1572 39.6485
49.1255 1552 39.3954
49.243 1540 39.2428
49.3605 1462 38.2361
49.478 1366 36.9594
49.5955 1225 35
49.713 1209 34.7707
49.8304 1287 35.8748
49.9479 1407 37.51
50.0653 1468 38.3145
50.1827 1525 39.0512
50.3001 1534 39.1663
50.4175 1516 38.9358
50.5348 1587 39.8372
50.6521 1592 39.8999
50.7694 1628 40.3485
50.8867 1627 40.3361
51.004 1681 41
51.1212 1646 40.5709
51.2384 1556 39.4462
51.3556 1573 39.6611
51.4727 1516 38.9358
51.5899 1421 37.6962
51.707 1459 38.1969
51.824 1544 39.2938
51.9411 1636 40.4475
52.0581 1847 42.9767
52.175 1865 43.1856
52.2919 1960 44.2719
52.4088 1983 44.5309
52.5257 1981 44.5084
52.6425 2024 44.9889
52.7593 1991 44.6206
52.876 2076 45.5631
52.9927 1899 43.5775
53.1094 1724 41.5211
53.226 1659 40.7308
53.3426 1665 40.8044
53.4591 1640 40.4969
53.5756 1658 40.7185
53.692 1741 41.7253
53.8084 1679 40.9756
53.9248 1655 40.6817
54.0411 1571 39.6358
54.1573 1539 39.2301
54.2735 0 1
54.3896 0 1
54.5057 0 1
54.6217 0 1
54.7377 0 1
54.8537 0 1
54.9695 0 1
55.0853 0 1
55.2011 0 1
55.3168 0 1
55.4324 0 1
57.824 0 1
57.9396 0 1
58.0553 0 1
58.1711 0 1
58.2869 0 1
58.4028 0 1
58.5187 0 1
58.6347 0 1
58.7508 0 1
58.8669 0 1
58.983 1289 35.9026
59.0992 1465 38.2753
59.2155 1577 39.7115
59.3318 1738 41.6893
59.4482 1812 42.5676
59.5646 1750 41.833
59.681 1915 43.7607
59.7975 1823 42.6966
59.9141 1786 42.2611
60.0306 1871 43.2551
60.1473 1826 42.7317
60.2639 1758 41.9285
60.3807 1656 40.694
60.4974 1782 42.2137
60.6142 1802 42.45
60.731 1917 43.7836
60.8479 1977 44.4635
60.9648 2043 45.1996
61.0818 2027 45.0222
61.1987 2048 45.2548
61.3158 1987 44.5758
61.4328 1866 43.1972
61.5499 1854 43.0581
61.667 1724 41.5211
61.7841 1537 39.2046
61.9013 1564 39.5474
62.0185 1497 38.6911
62.1357 1642 40.5216
62.253 1727 41.5572
62.3702 1775 42.1307
62.4875 1821 42.6732
62.6049 1958 44.2493
62.7222 2008 44.8107
62.8396 2059 45.3762
62.9569 1999 44.7102
63.0743 1956 44.2267
63.1918 1992 44.6318
63.3092 1934 43.9773
63.4267 1844 42.9418
63.5441 1898 43.566
63.6616 1756 41.9047
63.7791 1770 42.0714
63.8966 1673 40.9023
64.0142 1587 39.8372
64.1317 1779 42.1782
64.2492 1868 43.2204
64.3668 1903 43.6234
64.4843 2075 45.5522
64.6019 2025 45
64.7195 1950 44.1588
64.837 2041 45.1774
64.9546 1954 44.2041
65.0722 1835 42.8369
65.1898 1748 41.8091
65.3074 1568 39.598
65.4249 1525 39.0512
65.5425 1420 37.6829
65.6601 1511 38.8716
65.7777 1665 40.8044
65.8952 1728 41.5692
66.0128 1864 43.1741
66.1304 1854 43.0581
66.2479 1792 42.332
66.3655 1908 43.6807
66.483 1891 43.4856
66.6005 1973 44.4185
66.718 1922 43.8406
66.8355 1878 43.3359
66.953 1910 43.7035
67.0705 1819 42.6497
67.1879 1735 41.6533
67.3054 1716 41.4246
67.4228 1540 39.2428
67.5402 1586 39.8246
67.6576 1567 39.5854
67.7749 1667 40.8289
67.8923 1629 40.3609
68.0096 1852 43.0349
68.1269 1879 43.3474
68.2442 1946 44.1135
68.3614 1740 41.7133
68.4787 1982 44.5197
68.5958 1932 43.9545
68.713 1813 42.5793
68.8302 1686 41.0609
68.9473 1502 38.7556
69.0643 1515 38.923
69.1814 1405 37.4833
69.2984 1374 37.0675
69.4154 1495 38.6652
69.5323 1675 40.9268
69.6492 1723 41.509
69.7661 1762 41.9762
69.8829 1747 41.7971
69.9997 1820 42.6615
70.1165 1733 41.6293
70.2332 1687 41.0731
70.3499 1707 41.3159
70.4665 1525 39.0512
70.5831 1517 38.9487
70.6996 1411 37.5633
70.8161 1337 36.565
70.9326 1179 34.3366
71.049 1037 32.2025
71.1653 878 29.6311
71.2817 746 27.313
71.3979 729 27
71.5141 728 26.9815
71.6303 716 26.7582
71.7464 628 25.0599
71.8624 0 1
71.9784 0 1
72.0944 0 1
72.2102 0 1
72.3261 0 1
72.4418 0 1
72.5575 0 1
72.6732 0 1
75.1054 0 1
75.2209 0 1
75.3365 0 1
75.4521 0 1
75.5678 0 1
75.6835 0 1
75.7993 0 1
75.9151 0 1
76.031 0 1
76.147 1118 33.4365
76.263 1204 34.6987
76.3791 1194 34.5543
76.4952 1189 34.4819
76.6113 1282 35.805
76.7276 1373 37.054
76.8438 1465 38.2753
76.9601 1565 39.5601
77.0765 1586 39.8246
77.1929 1730 41.5933
77.3093 1690 41.1096
77.4258 1737 41.6773
77.5423 1633 40.4104
77.6589 1599 39.9875
77.7755 1405 37.4833
77.8921 1369 37
78.0088 1166 34.1467
78.1256 1151 33.9264
78.2423 1140 33.7639
78.3591 1247 35.3129
78.4759 1404 37.47
78.5928 1439 37.9342
78.7097 1570 39.6232
78.8266 1565 39.5601
78.9436 1594 39.9249
79.0606 1563 39.5348
79.1776 1645 40.5586
79.2946 1599 39.9875
79.4117 1723 41.509
79.5288 1682 41.0122
79.6459 1634 40.4228
79.7631 1680 40.9878
79.8802 1557 39.4588
79.9974 1434 37.8682
80.1147 1439 37.9342
80.2319 1358 36.8511
80.3491 1349 36.7287
80.4664 1422 37.7094
80.5837 1590 39.8748
80.701 1710 41.3521
80.8183 1664 40.7922
80.9357 1643 40.5339
81.053 1757 41.9166
81.1704 1763 41.9881
81.2877 1729 41.5812
81.4051 1687 41.0731
81.5225 1457 38.1707
81.6399 1444 38
81.7573 1221 34.9428
81.8747 1201 34.6554
81.9922 1206 34.7275
82.1096 1316 36.2767
82.227 1444 38
82.3444 1589 39.8623
82.4619 1640 40.4969
82.5793 1661 40.7554
82.6967 1719 41.4608
82.8142 1733 41.6293
82.9316 1622 40.2741
83.049 1770 42.0714
83.1664 1779 42.1782
83.2838 1727 41.5572
83.4012 1685 41.0488
83.5186 1627 40.3361
83.636 1651 40.6325
83.7534 1438 37.921
83.8708 1385 37.2156
83.9881 1387 37.2424
84.1055 1432 37.8418
84.2228 1483 38.5097
84.3401 1615 40.1871
84.4575 1640 40.4969
84.5747 1778 42.1663
84.692 1730 41.5933
84.8093 1739 41.7013
84.9265 1768 42.0476
85.0437 1638 40.4722
85.1609 1556 39.4462
85.2781 1326 36.4143
85.3952 1202 34.6699
85.5123 1176 34.2929
85.6294 1303 36.0971
85.7465 1337 36.565
85.8636 1438 37.921
85.9806 1567 39.5854
86.0976 1596 39.95
86.2145 1667 40.8289
86.3315 1766 42.0238
86.4484 1742 41.7373
86.5652 1784 42.2374
86.682 1783 42.2256
86.7988 1742 41.7373
86.9156 1750 41.833
87.0323 1772 42.0951
87.149 1614 40.1746
87.2657 1468 38.3145
87.3823 1409 37.5366
87.4988 1208 34.7563
87.6154 1141 33.7787
87.7318 1225 35
87.8483 1303 36.0971
87.9647 1353 36.7831
88.081 1446 38.0263
88.1973 1362 36.9053
88.3136 1276 35.7211
88.4298 1302 36.0832
88.546 1158 34.0294
88.6621 1027 32.0468
88.7781 766 27.6767
88.8942 0 1
89.0101 0 1
89.126 0 1
89.2419 0 1
89.3577 0 1
89.4734 0 1
89.5891 0 1
89.7047 0 1
89.8203 0 1
89.9358 0 1
92.3269 0 1
92.4424 0 1
92.558 0 1
92.6736 0 1
92.7893 0 1
92.905 0 1
93.0208 0 1
93.1366 0 1
93.2525 0 1
93.3685 0 1
93.4845 0 1
93.6005 1302 36.0832
93.7167 1384 37.2022
93.8328 1483 38.5097
93.949 1560 39.4968
94.0653 1546 39.3192
94.1816 1481 38.4838
94.2979 1447 38.0395
94.4143 1348 36.7151
94.5307 1343 36.647
94.6472 1292 35.9444
94.7637 1261 35.5106
94.8803 1419 37.6696
94.9969 1493 38.6394
95.1135 1529 39.1024
95.2302 1699 41.2189
95.3469 1680 40.9878
95.4637 1658 40.7185
95.5805 1718 41.4488
95.6973 1851 43.0232
95.8142 1777 42.1545
95.9311 1730 41.5933
96.048 1786 42.2611
96.1649 1777 42.1545
96.2819 1672 40.8901
96.3989 1647 40.5832
96.516 1501 38.7427
96.633 1466 38.2884
96.7501 1398 37.3898
96.8673 1462 38.2361
96.9844 1546 39.3192
97.1016 1643 40.5339
97.2188 1663 40.7799
97.336 1741 41.7253
97.4532 1799 42.4146
97.5704 1820 42.6615
97.6877 1820 42.6615
97.805 1735 41.6533
97.9223 1667 40.8289
98.0396 1560 39.4968
98.1569 1400 37.4166
98.2743 1292 35.9444
98.3916 1277 35.7351
98.509 1346 36.6879
98.6264 1499 38.7169
98.7438 1562 39.5221
98.8612 1641 40.5093
98.9786 1685 41.0488
99.096 1765 42.0119
99.2134 1830 42.7785
99.3308 1876 43.3128
99.4482 1894 43.5201
99.5656 1923 43.852
99.6831 1756 41.9047
99.8005 1831 42.7902
99.9179 1756 41.9047
100.035 1770 42.0714
100.153 1674 40.9145
100.27 1551 39.3827
100.388 1559 39.4842
100.505 1594 39.9249
100.622 1659 40.7308
100.74 1759 41.9404
100.857 1857 43.0929
100.975 1859 43.1161
101.092 1986 44.5646
101.209 1975 44.441
101.327 1850 43.0116
101.444 1766 42.0238
101.561 1673 40.9023
101.679 1517 38.9487
101.796 1372 37.0405
101.913 1271 35.6511
102.03 1382 37.1753
102.148 1525 39.0512
102.265 1645 40.5586
102.382 1733 41.6293
102.499 1817 42.6263
102.616 1907 43.6692
102.733 1865 43.1856
102.851 2029 45.0444
102.968 1919 43.8064
103.085 1983 44.5309
103.202 1979 44.486
103.319 1889 43.4626
103.436 1818 42.638
103.552 1865 43.1856
103.669 1728 41.5692
103.786 1644 40.5463
103.903 1678 40.9634
104.02 1642 40.5216
104.137 1743 41.7493
104.253 1900 43.589
104.37 1969 44.3734
104.487 2035 45.111
104.603 2006 44.7884
104.72 2005 44.7772
104.836 1926 43.8862
104.953 1738 41.6893
105.069 1534 39.1663
105.186 1422 37.7094
105.302 1303 36.0971
105.418 1257 35.4542
105.535 1224 34.9857
105.651 1231 35.0856
105.767 1263 35.5387
105.883 1225 35
105.999 1144 33.8231
106.115 0 1
106.231 0 1
106.347 0 1
106.463 0 1
106.579 0 1
106.694 0 1
106.81 0 1
106.926 0 1
107.041 0 1
107.157 0 1
109.576 0 1
109.692 0 1
109.807 0 1
109.923 0 1
110.039 0 1
110.155 0 1
110.27 0 1
110.386 0 1
110.502 0 1
110.618 829 28.7924
110.735 1086 32.9545
110.851 1212 34.8138
110.967 1386 37.229
111.083 1555 39.4335
111.199 1696 41.1825
111.316 1689 41.0974
111.432 1719 41.4608
111.549 1850 43.0116
111.665 1829 42.7668
111.782 1762 41.9762
111.898 1831 42.7902
112.015 1687 41.0731
112.132 1644 40.5463
112.248 1563 39.5348
112.365 1519 38.9744
112.482 1528 39.0896
112.599 1665 40.8044
112.716 1622 40.2741
112.832 1826 42.7317
112.949 1847 42.9767
113.066 1895 43.5316
113.183 1843 42.9302
113.3 1856 43.0813
113.417 1877 43.3244
113.534 1683 41.0244
113.652 1565 39.5601
113.769 1461 38.223
113.886 1314 36.2491
114.003 1304 36.1109
114.12 1274 35.6931
114.238 1444 38
114.355 1551 39.3827
114.472 1600 40
114.589 1851 43.0232
114.707 1789 42.2966
114.824 1837 42.8602
114.942 1835 42.8369
115.059 1888 43.4511
115.176 1833 42.8135
115.294 1824 42.7083
115.411 1784 42.2374
115.529 1738 41.6893
115.646 1674 40.9145
115.764 1672 40.8901
115.881 1536 39.1918
115.999 1498 38.704
116.116 1652 40.6448
116.234 1679 40.9756
116.351 1688 41.0853
116.469 1882 43.382
116.586 1922 43.8406
116.704 1799 42.4146
116.821 1855 43.0697
116.939 1815 42.6028
117.056 1801 42.4382
117.174 1657 40.7063
117.291 1567 39.5854
117.409 1468 38.3145
117.526 1319 36.318
117.644 1284 35.8329
117.761 1438 37.921
117.879 1578 39.724
117.996 1649 40.6079
118.114 1634 40.4228
118.231 1808 42.5206
118.349 1799 42.4146
118.466 1817 42.6263
118.584 1720 41.4729
118.701 1852 43.0349
118.819 1803 42.4617
118.936 1803 42.4617
119.053 1715 41.4126
119.171 1660 40.7431
119.288 1649 40.6079
119.405 1591 39.8873
119.523 1516 38.9358
119.64 1426 37.7624
119.757 1508 38.833
119.875 1604 40.05
119.992 1624 40.2989
120.109 1759 41.9404
120.226 1750 41.833
120.343 1756 41.9047
120.46 1732 41.6173
120.578 1787 42.2729
120.695 1764 42
120.812 1585 39.8121
120.929 1543 39.281
121.046 1370 37.0135
121.163 1179 34.3366
121.279 1184 34.4093
121.396 1180 34.3511
121.513 1276 35.7211
121.63 1370 37.0135
121.747 1334 36.524
121.863 1381 37.1618
121.98 1350 36.7423
122.097 1414 37.6032
122.213 1402 37.4433
122.33 1362 36.9053
122.446 1354 36.7967
122.563 1199 34.6266
122.679 1196 34.5832
122.795 1141 33.7787
122.912 1031 32.1092
123.028 922 30.3645
123.144 781 27.9464
123.26 726 26.9444
123.377 0 1
123.493 0 1
123.609 0 1
123.725 0 1
123.84 0 1
123.956 0 1
124.072 0 1
124.188 0 1
124.303 0 1
124.419 0 1
126.852 0 1
126.968 0 1
127.083 0 1
127.199 0 1
127.315 0 1
127.431 0 1
127.547 0 1
127.663 0 1
127.779 0 1
127.895 0 1
128.011 0 1
128.127 0 1
128.243 0 1
128.359 1666 40.8167
128.476 1576 39.6989
128.592 1563 39.5348
128.708 1606 40.0749
128.825 1667 40.8289
128.941 1748 41.8091
129.058 1856 43.0813
129.174 1858 43.1045
129.291 1936 44
129.408 1869 43.2319
129.524 1917 43.7836
129.641 1840 42.8952
129.758 1860 43.1277
129.875 1797 42.391
129.992 1515 38.923
130.108 1509 38.8458
130.225 1369 37
130.342 1372 37.0405
130.459 1492 38.6264
130.576 1538 39.2173
130.693 1702 41.2553
130.81 1752 41.8569
130.928 1777 42.1545
131.045 1830 42.7785
131.162 1835 42.8369
131.279 1940 44.0454
131.396 1874 43.2897
131.513 1920 43.8178
131.631 1840 42.8952
131.748 1702 41.2553
131.865 1823 42.6966
131.983 1800 42.4264
132.1 1731 41.6053
132.217 1676 40.939
132.335 1637 40.4599
132.452 1695 41.1704
132.57 1820 42.6615
132.687 1897 43.5546
132.804 1859 43.1161
132.922 1942 44.0681
133.039 1877 43.3244
133.157 1910 43.7035
133.274 1905 43.6463
133.392 1792 42.332
133.509 1647 40.5832
133.627 1582 39.7744
133.744 1496 38.6782
133.862 1395 37.3497
133.979 1408 37.5233
134.097 1591 39.8873
134.214 1668 40.8412
134.332 1706 41.3038
134.449 1759 41.9404
134.567 1824 42.7083
134.684 1866 43.1972
134.802 1943 44.0795
134.919 1921 43.8292
135.037 1988 44.587
135.154 1921 43.8292
135.272 1843 42.9302
135.389 1808 42.5206
135.507 1763 41.9881
135.624 1748 41.8091
135.742 1658 40.7185
135.859 1663 40.7799
135.977 1690 41.1096
136.094 1764 42
136.211 1835 42.8369
136.329 1896 43.5431
136.446 1967 44.3509
136.564 2000 44.7214
136.681 1981 44.5084
136.798 1936 44
136.915 2028 45.0333
137.033 1848 42.9884
137.15 1724 41.5211
137.267 1571 39.6358
137.384 1457 38.1707
137.502 1405 37.4833
137.619 1402 37.4433
137.736 1550 39.37
137.853 1594 39.9249
137.97 1677 40.9512
138.087 1726 41.5452
138.204 1772 42.0951
138.321 1843 42.9302
138.438 1865 43.1856
138.555 1928 43.909
138.672 1891 43.4856
138.788 1835 42.8369
138.905 1730 41.5933
139.022 1626 40.3237
139.139 1579 39.7366
139.255 1485 38.5357
139.372 1401 37.4299
139.488 1291 35.9305
139.605 1283 35.819
139.721 1243 35.2562
139.838 1262 35.5246
139.954 1305 36.1248
140.071 1203 34.6843
140.187 1097 33.121
140.303 1081 32.8786
140.419 1055 32.4808
140.535 972 31.1769
140.652 927 30.4467
140.768 0 1
140.884 0 1
141 0 1
141.115 0 1
141.231 0 1
141.347 0 1
141.463 0 1
141.578 0 1
141.694 0 1
144.104 0 1
144.219 0 1
144.335 0 1
144.45 0 1
144.566 0 1
144.682 0 1
144.798 0 1
144.914 0 1
145.03 0 1
145.146 1360 36.8782
145.262 1409 37.5366
145.378 1492 38.6264
145.494 1497 38.6911
145.61 1524 39.0384
145.726 1482 38.4968
145.842 1465 38.2753
145.959 1342 36.6333
146.075 1148 33.8821
146.192 1200 34.641
146.308 1196 34.5832
146.425 1184 34.4093
146.541 1265 35.5668
146.658 1249 35.3412
146.774 1343 36.647
146.891 1390 37.2827
147.008 1436 37.8946
147.125 1370 37.0135
147.241 1438 37.921
147.358 1428 37.7889
147.475 1416 37.6298
147.592 1487 38.5616
147.709 1444 38
147.826 1443 37.9868
147.943 1339 36.5923
148.06 1364 36.9324
148.177 1270 35.6371
148.294 1317 36.2905
148.411 1405 37.4833
148.528 1360 36.8782
148.645 1411 37.5633
148.762 1508 38.833
148.88 1501 38.7427
148.997 1509 38.8458
149.114 1483 38.5097
149.231 1521 39
149.349 1566 39.5727
149.466 1404 37.47
149.583 1311 36.2077
149.701 1228 35.0428
149.818 1205 34.7131
149.935 1165 34.1321
150.053 1170 34.2053
150.17 1136 33.7046
150.287 1233 35.1141
150.405 1288 35.8887
150.522 1349 36.7287
150.64 1372 37.0405
150.757 1385 37.2156
150.875 1381 37.1618
150.992 1439 37.9342
151.11 1473 38.3797
151.227 1396 37.3631
151.344 1386 37.229
151.462 1323 36.3731
151.579 1300 36.0555
151.697 1306 36.1386
151.814 1226 35.0143
151.932 1265 35.5668
152.049 1332 36.4966
152.167 1266 35.5809
152.284 1351 36.756
152.402 1408 37.5233
152.519 1430 37.8153
152.636 1473 38.3797
152.754 1399 37.4032
152.871 1449 38.0657
152.989 1307 36.1525
153.106 1388 37.2559
153.223 1303 36.0971
153.341 1165 34.1321
153.458 1154 33.9706
153.575 1054 32.4654
153.693 1111 33.3317
153.81 1188 34.4674
153.927 1217 34.8855
154.044 1268 35.609
154.162 1250 35.3553
154.279 1271 35.6511
154.396 1334 36.524
154.513 1337 36.565
154.63 1361 36.8917
154.747 1337 36.565
154.864 1342 36.6333
154.981 1328 36.4417
155.098 1260 35.4965
155.215 1209 34.7707
155.332 1141 33.7787
155.449 1174 34.2637
155.566 1135 33.6898
155.683 1202 34.6699
155.8 1178 34.322
155.917 1223 34.9714
156.033 1168 34.176
156.15 0 1
156.267 0 1
156.383 0 1
156.5 0 1
156.617 0 1
156.733 0 1
156.85 0 1
156.966 0 1
157.082 0 1
157.199 0 1
157.315 0 1
157.431 0 1
157.547 0 1
157.664 0 1
157.78 0 1
157.896 0 1
158.012 0 1
158.128 0 1
158.244 0 1
158.359 0 1
158.475 0 1
158.591 0 1
158.706 0 1
