
6.15755 0 1
6.2731 0 1
6.3887 0 1
6.50437 0 1
6.62009 0 1
6.73587 0 1
6.8517 0 1
6.96759 0 1
7.08353 0 1
7.19952 0 1
7.31557 0 1
7.43166 0 1
7.54781 0 1
7.664 0 1
7.78024 0 1
7.89653 0 1
8.01286 0 1
8.12924 0 1
8.24567 0 1
8.36213 0 1
8.47864 0 1
8.59519 0 1
8.71178 0 1
8.82841 0 1
8.94508 0 1
9.06179 0 1
9.17853 0 1
9.29531 0 1
9.41212 0 1
9.52897 0 1
9.64584 0 1
9.76276 0 1
9.8797 0 1
9.99667 0 1
10.1137 0 1
10.2307 0 1
10.3478 0 1
10.4648 0 1
10.5819 0 1
10.6991 0 1
10.8162 0 1
10.9334 0 1
11.0506 0 1
11.1678 0 1
11.285 0 1
11.4023 0 1
11.5196 0 1
11.6369 0 1
11.7542 0 1
11.8715 0 1
11.9888 0 1
12.1062 0 1
12.2235 0 1
12.3409 0 1
12.4582 0 1
12.5756 0 1
12.693 0 1
12.8104 0 1
12.9278 0 1
13.0452 0 1
13.1626 0 1
13.28 0 1
13.3974 0 1
13.5149 0 1
13.6323 0 1
13.7497 0 1
13.8671 0 1
13.9845 0 1
14.1019 0 1
14.2193 0 1
14.3367 0 1
14.4541 0 1
14.5714 0 1
14.6888 0 1
14.8062 0 1
14.9235 0 1
15.0408 0 0
15.1581 0 0
15.2755 0 0
15.3927 0 0
15.51 0 0
15.6273 0 0
15.7445 0 0
15.8617 0 0
15.9789 0 0
16.0961 0 0
16.2132 0 0
16.3304 0 0
16.4475 0 0
16.5646 0 0
16.6816 0 0
16.7986 0 0
16.9156 0 0
17.0326 0 0
17.1496 0 0
17.2665 0 0
17.3833 0 0
17.5002 0 0
17.617 0 0
17.7338 0 0
17.8505 0 0
17.9672 0 0
18.0839 0 0
18.2005 0 0
18.3171 0 0
18.4337 0 0
18.5502 0 0
18.6666 0 0
18.7831 0 0
18.8994 0 0
19.0158 0 0
19.1321 0 0
19.2483 0 0
19.3645 0 0
19.4806 0 0
19.5967 0 0
19.7128 0 0
19.8288 0 0
19.9447 0 0
20.0606 0 1
20.1764 0 1
20.2922 0 1
20.4079 0 1
20.5236 0 1
20.6392 0 1
20.7548 0 1
20.8702 0 1
23.3078 0 1
23.4233 0 1
23.539 0 1
23.6547 0 1
23.7704 0 1
23.8862 0 1
24.0021 0 1
24.118 0 1
24.234 0 1
24.35 0 1
24.4661 1092 33.0454
24.5822 1122 33.4963
24.6984 1082 32.8938
24.8146 1107 33.2716
24.9309 1152 33.9411
25.0472 1082 32.8938
25.1636 1065 32.6343
25.28 1080 32.8634
25.3965 1101 33.1813
25.513 1088 32.9848
25.6296 1202 34.6699
25.7462 1174 34.2637
25.8628 1228 35.0428
25.9795 1245 35.2846
26.0962 1232 35.0999
26.213 1319 36.318
26.3298 1271 35.6511
26.4466 1215 34.8569
26.5635 1235 35.1426
26.6804 1161 34.0735
26.7973 1131 33.6303
26.9143 1205 34.7131
27.0313 1267 35.5949
27.1483 1226 35.0143
27.2653 1257 35.4542
27.3824 1302 36.0832
27.4996 1269 35.623
27.6167 1302 36.0832
27.7339 1187 34.4529
27.8511 1223 34.9714
27.9683 1167 34.1614
28.0855 1160 34.0588
28.2028 1180 34.3511
28.3201 1113 33.3617
28.4374 1084 32.9242
28.5547 1042 32.28
28.6721 1053 32.45
28.7894 973 31.1929
28.9068 1022 31.9687
29.0242 1044 32.311
29.1416 1012 31.8119
29.259 1056 32.4962
29.3764 1076 32.8024
29.4939 1147 33.8674
29.6113 1110 33.3167
29.7288 1092 33.0454
29.8463 1090 33.0151
29.9638 1069 32.6956
30.0812 1102 33.1964
30.1987 1109 33.3017
30.3162 1098 33.1361
30.4337 1096 33.1059
30.5512 1191 34.5109
30.6687 1118 33.4365
30.7862 1209 34.7707
30.9037 1223 34.9714
31.0212 1157 34.0147
31.1387 1223 34.9714
31.2562 1254 35.4119
31.3737 1174 34.2637
31.4912 1192 34.5254
31.6087 1132 33.6452
31.7262 1126 33.5559
31.8436 1117 33.4215
31.9611 1041 32.2645
32.0785 1042 32.28
32.1959 1020 31.9374
32.3134 997 31.5753
32.4308 973 31.1929
32.5482 1027 32.0468
32.6655 995 31.5436
32.7829 1048 32.3728
32.9002 1085 32.9393
33.0176 1087 32.9697
33.1349 1039 32.2335
33.2522 1084 32.9242
33.3694 1156 34
33.4867 1096 33.1059
33.6039 1129 33.6006
33.7211 1115 33.3916
33.8383 1024 32
33.9554 1124 33.5261
34.0725 1077 32.8177
34.1896 1047 32.3574
34.3067 1134 33.6749
34.4237 1139 33.7491
34.5407 1253 35.3977
34.6577 1174 34.2637
34.7746 1151 33.9264
34.8915 1147 33.8674
35.0084 1168 34.176
35.1252 1134 33.6749
35.242 1122 33.4963
35.3587 1151 33.9264
35.4755 1089 33
35.5921 1058 32.5269
35.7088 1003 31.6702
35.8254 978 31.273
35.9419 962 31.0161
36.0584 892 29.8664
36.1749 947 30.7734
36.2913 946 30.7571
36.4077 930 30.4959
36.524 934 30.5614
36.6403 990 31.4643
36.7565 1064 32.619
36.8727 1029 32.078
36.9889 1015 31.8591
37.1049 1065 32.6343
37.221 0 1
37.3369 0 1
37.4529 0 1
37.5687 0 1
37.6845 0 1
37.8003 0 1
37.916 0 1
38.0316 0 1
38.1472 0 1
40.5851 0 1
40.7008 0 1
40.8164 0 1
40.9322 0 1
41.048 0 1
41.1639 0 1
41.2798 0 1
41.3958 0 1
41.5118 0 1
41.6279 0 1
41.744 704 26.533
41.8602 804 28.3549
41.9765 831 28.8271
42.0928 903 30.05
42.2091 864 29.3939
42.3255 881 29.6816
42.4419 810 28.4605
42.5584 877 29.6142
42.675 885 29.7489
42.7915 800 28.2843
42.9081 767 27.6948
43.0248 854 29.2233
43.1415 830 28.8097
43.2582 837 28.931
43.375 872 29.5296
43.4918 885 29.7489
43.6087 870 29.4958
43.7256 884 29.7321
43.8425 799 28.2666
43.9595 815 28.5482
44.0765 826 28.7402
44.1935 765 27.6586
44.3106 781 27.9464
44.4277 738 27.1662
44.5448 742 27.2397
44.6619 660 25.6905
44.7791 611 24.7184
44.8963 592 24.3311
45.0136 559 23.6432
45.1308 575 23.9792
45.2481 582 24.1247
45.3654 590 24.2899
45.4827 623 24.96
45.6001 604 24.5764
45.7174 630 25.0998
45.8348 685 26.1725
45.9522 633 25.1595
46.0697 627 25.04
46.1871 553 23.516
46.3046 631 25.1197
46.422 564 23.7487
46.5395 581 24.1039
46.657 591 24.3105
46.7745 580 24.0832
46.892 631 25.1197
47.0096 632 25.1396
47.1271 578 24.0416
47.2446 649 25.4755
47.3622 622 24.9399
47.4797 577 24.0208
47.5973 624 24.98
47.7149 549 23.4307
47.8324 580 24.0832
47.95 555 23.5584
48.0675 503 22.4277
48.1851 425 20.6155
48.3027 409 20.2237
48.4202 435 20.8567
48.5378 435 20.8567
48.6554 421 20.5183
48.7729 427 20.664
48.8904 439 20.9523
49.008 461 21.4709
49.1255 474 21.7715
49.243 479 21.8861
49.3605 481 21.9317
49.478 525 22.9129
49.5955 513 22.6495
49.713 508 22.5389
49.8304 478 21.8632
49.9479 486 22.0454
50.0653 488 22.0907
50.1827 531 23.0434
50.3001 533 23.0868
50.4175 547 23.388
50.5348 666 25.807
50.6521 581 24.1039
50.7694 641 25.318
50.8867 624 24.98
51.004 610 24.6982
51.1212 654 25.5734
51.2384 651 25.5147
51.3556 635 25.1992
51.4727 633 25.1595
51.5899 600 24.4949
51.707 597 24.4336
51.824 557 23.6008
51.9411 571 23.8956
52.0581 547 23.388
52.175 584 24.1661
52.2919 618 24.8596
52.4088 652 25.5343
52.5257 701 26.4764
52.6425 713 26.7021
52.7593 726 26.9444
52.876 714 26.7208
52.9927 768 27.7128
53.1094 825 28.7228
53.226 827 28.7576
53.3426 807 28.4077
53.4591 810 28.4605
53.5756 819 28.6182
53.692 850 29.1548
53.8084 920 30.3315
53.9248 904 30.0666
54.0411 963 31.0322
54.1573 984 31.3688
54.2735 0 1
54.3896 0 1
54.5057 0 1
54.6217 0 1
54.7377 0 1
54.8537 0 1
54.9695 0 1
55.0853 0 1
55.2011 0 1
55.3168 0 1
55.4324 0 1
57.824 0 1
57.9396 0 1
58.0553 0 1
58.1711 0 1
58.2869 0 1
58.4028 0 1
58.5187 0 1
58.6347 0 1
58.7508 0 1
58.8669 0 1
58.983 996 31.5595
59.0992 1084 32.9242
59.2155 1103 33.2114
59.3318 1155 33.9853
59.4482 1195 34.5688
59.5646 1116 33.4066
59.681 1199 34.6266
59.7975 1121 33.4813
59.9141 1074 32.7719
60.0306 1086 32.9545
60.1473 1002 31.6544
60.2639 900 30
60.3807 873 29.5466
60.4974 814 28.5307
60.6142 795 28.1957
60.731 809 28.4429
60.8479 781 27.9464
60.9648 872 29.5296
61.0818 811 28.4781
61.1987 921 30.348
61.3158 922 30.3645
61.4328 922 30.3645
61.5499 877 29.6142
61.667 910 30.1662
61.7841 986 31.4006
61.9013 924 30.3974
62.0185 918 30.2985
62.1357 902 30.0333
62.253 993 31.5119
62.3702 931 30.5123
62.4875 1035 32.1714
62.6049 1052 32.4345
62.7222 1067 32.665
62.8396 1097 33.121
62.9569 1109 33.3017
63.0743 1153 33.9559
63.1918 1104 33.2265
63.3092 1096 33.1059
63.4267 1111 33.3317
63.5441 1004 31.686
63.6616 946 30.7571
63.7791 916 30.2655
63.8966 811 28.4781
64.0142 748 27.3496
64.1317 783 27.9821
64.2492 783 27.9821
64.3668 788 28.0713
64.4843 844 29.0517
64.6019 893 29.8831
64.7195 970 31.1448
64.837 947 30.7734
64.9546 995 31.5436
65.0722 986 31.4006
65.1898 934 30.5614
65.3074 976 31.241
65.4249 928 30.4631
65.5425 901 30.0167
65.6601 912 30.1993
65.7777 942 30.692
65.8952 882 29.6985
66.0128 1000 31.6228
66.1304 1045 32.3265
66.2479 1133 33.6601
66.3655 1076 32.8024
66.483 1095 33.0908
66.6005 1117 33.4215
66.718 1136 33.7046
66.8355 1097 33.121
66.953 1009 31.7648
67.0705 1040 32.249
67.1879 975 31.225
67.3054 963 31.0322
67.4228 811 28.4781
67.5402 785 28.0179
67.6576 725 26.9258
67.7749 697 26.4008
67.8923 708 26.6083
68.0096 688 26.2298
68.1269 843 29.0345
68.2442 861 29.3428
68.3614 886 29.7658
68.4787 875 29.5804
68.5958 899 29.9833
68.713 891 29.8496
68.8302 849 29.1376
68.9473 913 30.2159
69.0643 901 30.0167
69.1814 867 29.4449
69.2984 866 29.4279
69.4154 894 29.8998
69.5323 896 29.9333
69.6492 985 31.3847
69.7661 1020 31.9374
69.8829 1094 33.0757
69.9997 1024 32
70.1165 1122 33.4963
70.2332 1078 32.8329
70.3499 1107 33.2716
70.4665 1060 32.5576
70.5831 1037 32.2025
70.6996 1033 32.1403
70.8161 884 29.7321
70.9326 890 29.8329
71.049 826 28.7402
71.1653 759 27.55
71.2817 670 25.8844
71.3979 675 25.9808
71.5141 682 26.1151
71.6303 693 26.3249
71.7464 614 24.779
71.8624 0 1
71.9784 0 1
72.0944 0 1
72.2102 0 1
72.3261 0 1
72.4418 0 1
72.5575 0 1
72.6732 0 1
75.1054 0 1
75.2209 0 1
75.3365 0 1
75.4521 0 1
75.5678 0 1
75.6835 0 1
75.7993 0 1
75.9151 0 1
76.031 0 1
76.147 918 30.2985
76.263 936 30.5941
76.3791 906 30.0998
76.4952 856 29.2575
76.6113 718 26.7955
76.7276 694 26.3439
76.8438 698 26.4197
76.9601 716 26.7582
77.0765 792 28.1425
77.1929 921 30.348
77.3093 930 30.4959
77.4258 990 31.4643
77.5423 975 31.225
77.6589 945 30.7409
77.7755 964 31.0483
77.8921 910 30.1662
78.0088 901 30.0167
78.1256 881 29.6816
78.2423 886 29.7658
78.3591 844 29.0517
78.4759 856 29.2575
78.5928 894 29.8998
78.7097 979 31.289
78.8266 1006 31.7175
78.9436 1159 34.0441
79.0606 1144 33.8231
79.1776 1134 33.6749
79.2946 1174 34.2637
79.4117 1081 32.8786
79.5288 1013 31.8277
79.6459 1018 31.9061
79.7631 952 30.8545
79.8802 933 30.545
79.9974 810 28.4605
80.1147 759 27.55
80.2319 642 25.3377
80.3491 663 25.7488
80.4664 642 25.3377
80.5837 700 26.4575
80.701 736 27.1293
80.8183 750 27.3861
80.9357 842 29.0172
81.053 862 29.3598
81.1704 852 29.189
81.2877 798 28.2489
81.4051 816 28.5657
81.5225 851 29.1719
81.6399 834 28.8791
81.7573 781 27.9464
81.8747 746 27.313
81.9922 694 26.3439
82.1096 834 28.8791
82.227 839 28.9655
82.3444 821 28.6531
82.4619 920 30.3315
82.5793 956 30.9192
82.6967 903 30.05
82.8142 903 30.05
82.9316 949 30.8058
83.049 894 29.8998
83.1664 940 30.6594
83.2838 816 28.5657
83.4012 854 29.2233
83.5186 721 26.8514
83.636 681 26.096
83.7534 571 23.8956
83.8708 603 24.5561
83.9881 559 23.6432
84.1055 563 23.7276
84.2228 548 23.4094
84.3401 630 25.0998
84.4575 711 26.6646
84.5747 778 27.8927
84.692 753 27.4408
84.8093 802 28.3196
84.9265 763 27.6225
85.0437 681 26.096
85.1609 744 27.2764
85.2781 680 26.0768
85.3952 760 27.5681
85.5123 697 26.4008
85.6294 726 26.9444
85.7465 795 28.1957
85.8636 864 29.3939
85.9806 863 29.3769
86.0976 949 30.8058
86.2145 945 30.7409
86.3315 1026 32.0312
86.4484 1000 31.6228
86.5652 1035 32.1714
86.682 1043 32.2955
86.7988 976 31.241
86.9156 983 31.3528
87.0323 847 29.1033
87.149 855 29.2404
87.2657 773 27.8029
87.3823 707 26.5895
87.4988 657 25.632
87.6154 693 26.3249
87.7318 668 25.8457
87.8483 784 28
87.9647 788 28.0713
88.081 884 29.7321
88.1973 1020 31.9374
88.3136 971 31.1609
88.4298 985 31.3847
88.546 905 30.0832
88.6621 925 30.4138
88.7781 905 30.0832
88.8942 0 1
89.0101 0 1
89.126 0 1
89.2419 0 1
89.3577 0 1
89.4734 0 1
89.5891 0 1
89.7047 0 1
89.8203 0 1
89.9358 0 1
92.3269 0 1
92.4424 0 1
92.558 0 1
92.6736 0 1
92.7893 0 1
92.905 0 1
93.0208 0 1
93.1366 0 1
93.2525 0 1
93.3685 0 1
93.4845 0 1
93.6005 919 30.315
93.7167 936 30.5941
93.8328 925 30.4138
93.949 967 31.0966
94.0653 906 30.0998
94.1816 899 29.9833
94.2979 895 29.9166
94.4143 873 29.5466
94.5307 886 29.7658
94.6472 868 29.4618
94.7637 917 30.282
94.8803 913 30.2159
94.9969 992 31.496
95.1135 1070 32.7109
95.2302 1111 33.3317
95.3469 1149 33.8969
95.4637 1189 34.4819
95.5805 1118 33.4365
95.6973 1182 34.3802
95.8142 1192 34.5254
95.9311 1073 32.7567
96.048 1010 31.7805
96.1649 975 31.225
96.2819 899 29.9833
96.3989 886 29.7658
96.516 786 28.0357
96.633 730 27.0185
96.7501 719 26.8142
96.8673 730 27.0185
96.9844 783 27.9821
97.1016 769 27.7308
97.2188 887 29.7825
97.336 1042 32.28
97.4532 991 31.4802
97.5704 1017 31.8904
97.6877 933 30.545
97.805 871 29.5127
97.9223 882 29.6985
98.0396 865 29.4109
98.1569 837 28.931
98.2743 878 29.6311
98.3916 885 29.7489
98.509 959 30.9677
98.6264 949 30.8058
98.7438 999 31.607
98.8612 1127 33.5708
98.9786 1097 33.121
99.096 1106 33.2566
99.2134 1126 33.5559
99.3308 1171 34.2199
99.4482 1137 33.7194
99.5656 1149 33.8969
99.6831 1093 33.0606
99.8005 963 31.0322
99.9179 970 31.1448
100.035 853 29.2062
100.153 824 28.7054
100.27 760 27.5681
100.388 735 27.1109
100.505 753 27.4408
100.622 838 28.9482
100.74 902 30.0333
100.857 969 31.1288
100.975 990 31.4643
101.092 978 31.273
101.209 963 31.0322
101.327 892 29.8664
101.444 881 29.6816
101.561 808 28.4253
101.679 899 29.9833
101.796 841 29
101.913 896 29.9333
102.03 975 31.225
102.148 1032 32.1248
102.265 1129 33.6006
102.382 1187 34.4529
102.499 1179 34.3366
102.616 1187 34.4529
102.733 1246 35.2987
102.851 1231 35.0856
102.968 1161 34.0735
103.085 1224 34.9857
103.202 1123 33.5112
103.319 1128 33.5857
103.436 979 31.289
103.552 965 31.0644
103.669 866 29.4279
103.786 795 28.1957
103.903 852 29.189
104.02 849 29.1376
104.137 907 30.1164
104.253 1024 32
104.37 991 31.4802
104.487 1064 32.619
104.603 1101 33.1813
104.72 1020 31.9374
104.836 945 30.7409
104.953 944 30.7246
105.069 954 30.8869
105.186 935 30.5778
105.302 971 31.1609
105.418 1029 32.078
105.535 1057 32.5115
105.651 1213 34.8281
105.767 1255 35.426
105.883 1311 36.2077
105.999 1330 36.4692
106.115 0 1
106.231 0 1
106.347 0 1
106.463 0 1
106.579 0 1
106.694 0 1
106.81 0 1
106.926 0 1
107.041 0 1
107.157 0 1
109.576 0 1
109.692 0 1
109.807 0 1
109.923 0 1
110.039 0 1
110.155 0 1
110.27 0 1
110.386 0 1
110.502 0 1
110.618 1066 32.6497
110.735 1182 34.3802
110.851 1246 35.2987
110.967 1247 35.3129
111.083 1238 35.1852
111.199 1325 36.4005
111.316 1221 34.9428
111.432 1258 35.4683
111.549 1273 35.6791
111.665 1208 34.7563
111.782 1151 33.9264
111.898 1078 32.8329
112.015 1070 32.7109
112.132 963 31.0322
112.248 923 30.3809
112.365 856 29.2575
112.482 798 28.2489
112.599 916 30.2655
112.716 929 30.4795
112.832 1008 31.749
112.949 1003 31.6702
113.066 987 31.4166
113.183 991 31.4802
113.3 1040 32.249
113.417 908 30.133
113.534 875 29.5804
113.652 847 29.1033
113.769 883 29.7153
113.886 894 29.8998
114.003 910 30.1662
114.12 1018 31.9061
114.238 1148 33.8821
114.355 1229 35.0571
114.472 1177 34.3074
114.589 1269 35.623
114.707 1223 34.9714
114.824 1302 36.0832
114.942 1240 35.2136
115.059 1251 35.3695
115.176 1263 35.5387
115.294 1156 34
115.411 1059 32.5423
115.529 1086 32.9545
115.646 1036 32.187
115.764 947 30.7734
115.881 887 29.7825
115.999 875 29.5804
116.116 855 29.2404
116.234 978 31.273
116.351 1023 31.9844
116.469 1026 32.0312
116.586 1045 32.3265
116.704 1095 33.0908
116.821 987 31.4166
116.939 1007 31.7333
117.056 949 30.8058
117.174 950 30.8221
117.291 952 30.8545
117.409 956 30.9192
117.526 1031 32.1092
117.644 1099 33.1512
117.761 1224 34.9857
117.879 1283 35.819
117.996 1239 35.1994
118.114 1357 36.8375
118.231 1371 37.027
118.349 1327 36.428
118.466 1363 36.9188
118.584 1359 36.8646
118.701 1327 36.428
118.819 1290 35.9166
118.936 1207 34.7419
119.053 1173 34.2491
119.171 1110 33.3167
119.288 1110 33.3167
119.405 983 31.3528
119.523 944 30.7246
119.64 939 30.6431
119.757 1009 31.7648
119.875 999 31.607
119.992 1009 31.7648
120.109 1046 32.3419
120.226 1055 32.4808
120.343 1002 31.6544
120.46 974 31.209
120.578 956 30.9192
120.695 959 30.9677
120.812 947 30.7734
120.929 1022 31.9687
121.046 969 31.1288
121.163 952 30.8545
121.279 1018 31.9061
121.396 1166 34.1467
121.513 1217 34.8855
121.63 1324 36.3868
121.747 1262 35.5246
121.863 1284 35.8329
121.98 1294 35.9722
122.097 1300 36.0555
122.213 1275 35.7071
122.33 1319 36.318
122.446 1250 35.3553
122.563 1246 35.2987
122.679 1211 34.7994
122.795 1144 33.8231
122.912 1079 32.8481
123.028 1055 32.4808
123.144 992 31.496
123.26 912 30.1993
123.377 0 1
123.493 0 1
123.609 0 1
123.725 0 1
123.84 0 1
123.956 0 1
124.072 0 1
124.188 0 1
124.303 0 1
124.419 0 1
126.852 0 1
126.968 0 1
127.083 0 1
127.199 0 1
127.315 0 1
127.431 0 1
127.547 0 1
127.663 0 1
127.779 0 1
127.895 0 1
128.011 0 1
128.127 0 1
128.243 0 1
128.359 1099 33.1512
128.476 1071 32.7261
128.592 1025 32.0156
128.708 1033 32.1403
128.825 1063 32.6037
128.941 1094 33.0757
129.058 1142 33.7935
129.174 1187 34.4529
129.291 1116 33.4066
129.408 1122 33.4963
129.524 1086 32.9545
129.641 1078 32.8329
129.758 1106 33.2566
129.875 1071 32.7261
129.992 1034 32.1559
130.108 1107 33.2716
130.225 1163 34.1028
130.342 1203 34.6843
130.459 1228 35.0428
130.576 1429 37.8021
130.693 1343 36.647
130.81 1322 36.3593
130.928 1380 37.1484
131.045 1350 36.7423
131.162 1395 37.3497
131.279 1313 36.2353
131.396 1342 36.6333
131.513 1333 36.5103
131.631 1161 34.0735
131.748 1166 34.1467
131.865 1203 34.6843
131.983 1114 33.3766
132.1 1046 32.3419
132.217 1028 32.0624
132.335 1170 34.2053
132.452 1171 34.2199
132.57 1113 33.3617
132.687 1202 34.6699
132.804 1179 34.3366
132.922 1145 33.8378
133.039 1097 33.121
133.157 1112 33.3467
133.274 1124 33.5261
133.392 1035 32.1714
133.509 1106 33.2566
133.627 1093 33.0606
133.744 1185 34.4238
133.862 1200 34.641
133.979 1276 35.7211
134.097 1280 35.7771
134.214 1380 37.1484
134.332 1379 37.1349
134.449 1295 35.9861
134.567 1321 36.3456
134.684 1384 37.2022
134.802 1358 36.8511
134.919 1335 36.5377
135.037 1317 36.2905
135.154 1222 34.9571
135.272 1287 35.8748
135.389 1214 34.8425
135.507 1154 33.9706
135.624 1142 33.7935
135.742 1120 33.4664
135.859 1125 33.541
135.977 1133 33.6601
136.094 1149 33.8969
136.211 1175 34.2783
136.329 1140 33.7639
136.446 1131 33.6303
136.564 1084 32.9242
136.681 1149 33.8969
136.798 1110 33.3167
136.915 1071 32.7261
137.033 1118 33.4365
137.15 1115 33.3916
137.267 1104 33.2265
137.384 1112 33.3467
137.502 1199 34.6266
137.619 1276 35.7211
137.736 1202 34.6699
137.853 1300 36.0555
137.97 1361 36.8917
138.087 1345 36.6742
138.204 1307 36.1525
138.321 1349 36.7287
138.438 1327 36.428
138.555 1325 36.4005
138.672 1317 36.2905
138.788 1252 35.3836
138.905 1228 35.0428
139.022 1238 35.1852
139.139 1145 33.8378
139.255 1093 33.0606
139.372 1116 33.4066
139.488 1165 34.1321
139.605 1188 34.4674
139.721 1216 34.8712
139.838 1169 34.1906
139.954 1182 34.3802
140.071 1171 34.2199
140.187 1162 34.0881
140.303 1139 33.7491
140.419 1081 32.8786
140.535 1037 32.2025
140.652 1087 32.9697
140.768 0 1
140.884 0 1
141 0 1
141.115 0 1
141.231 0 1
141.347 0 1
141.463 0 1
141.578 0 1
141.694 0 1
144.104 0 1
144.219 0 1
144.335 0 1
144.45 0 1
144.566 0 1
144.682 0 1
144.798 0 1
144.914 0 1
145.03 0 1
145.146 855 29.2404
145.262 919 30.315
145.378 915 30.249
145.494 864 29.3939
145.61 849 29.1376
145.726 883 29.7153
145.842 882 29.6985
145.959 865 29.4109
146.075 900 30
146.192 884 29.7321
146.308 919 30.315
146.425 901 30.0167
146.541 963 31.0322
146.658 1030 32.0936
146.774 1011 31.7962
146.891 1002 31.6544
147.008 1058 32.5269
147.125 1057 32.5115
147.241 1109 33.3017
147.358 1096 33.1059
147.475 1065 32.6343
147.592 1066 32.6497
147.709 1011 31.7962
147.826 1038 32.218
147.943 992 31.496
148.06 923 30.3809
148.177 885 29.7489
148.294 934 30.5614
148.411 961 31
148.528 1014 31.8434
148.645 1003 31.6702
148.762 1022 31.9687
148.88 955 30.9031
148.997 964 31.0483
149.114 980 31.305
149.231 964 31.0483
149.349 903 30.05
149.466 916 30.2655
149.583 876 29.5973
149.701 941 30.6757
149.818 874 29.5635
149.935 895 29.9166
150.053 918 30.2985
150.17 995 31.5436
150.287 1013 31.8277
150.405 1031 32.1092
150.522 1012 31.8119
150.64 1095 33.0908
150.757 1074 32.7719
150.875 1058 32.5269
150.992 1095 33.0908
151.11 1105 33.2415
151.227 1089 33
151.344 1039 32.2335
151.462 1054 32.4654
151.579 991 31.4802
151.697 969 31.1288
151.814 952 30.8545
151.932 931 30.5123
152.049 1021 31.9531
152.167 1041 32.2645
152.284 1018 31.9061
152.402 1039 32.2335
152.519 1006 31.7175
152.636 1009 31.7648
152.754 1014 31.8434
152.871 981 31.3209
152.989 991 31.4802
153.106 933 30.545
153.223 1029 32.078
153.341 966 31.0805
153.458 987 31.4166
153.575 984 31.3688
153.693 1033 32.1403
153.81 1036 32.187
153.927 1075 32.7872
154.044 1036 32.187
154.162 1147 33.8674
154.279 1163 34.1028
154.396 1106 33.2566
154.513 1201 34.6554
154.63 1227 35.0286
154.747 1252 35.3836
154.864 1210 34.7851
154.981 1210 34.7851
155.098 1140 33.7639
155.215 1095 33.0908
155.332 1115 33.3916
155.449 1089 33
155.566 1153 33.9559
155.683 1198 34.6121
155.8 1128 33.5857
155.917 1153 33.9559
156.033 1154 33.9706
156.15 0 1
156.267 0 1
156.383 0 1
156.5 0 1
156.617 0 1
156.733 0 1
156.85 0 1
156.966 0 1
157.082 0 1
157.199 0 1
157.315 0 1
157.431 0 1
157.547 0 1
157.664 0 1
157.78 0 1
157.896 0 1
158.012 0 1
158.128 0 1
158.244 0 1
158.359 0 1
158.475 0 1
158.591 0 1
158.706 0 1
