
6.15755 0 1
6.2731 0 1
6.3887 0 1
6.50437 0 1
6.62009 0 1
6.73587 0 1
6.8517 0 1
6.96759 0 1
7.08353 0 1
7.19952 0 1
7.31557 0 1
7.43166 0 1
7.54781 0 1
7.664 0 1
7.78024 0 1
7.89653 0 1
8.01286 0 1
8.12924 0 1
8.24567 0 1
8.36213 0 1
8.47864 0 1
8.59519 0 1
8.71178 0 1
8.82841 0 1
8.94508 0 1
9.06179 0 1
9.17853 0 1
9.29531 0 1
9.41212 0 1
9.52897 0 1
9.64584 0 1
9.76276 0 1
9.8797 0 1
9.99667 0 1
10.1137 0 1
10.2307 0 1
10.3478 0 1
10.4648 0 1
10.5819 0 1
10.6991 0 1
10.8162 0 1
10.9334 0 1
11.0506 0 1
11.1678 0 1
11.285 0 1
11.4023 0 1
11.5196 0 1
11.6369 0 1
11.7542 0 1
11.8715 0 1
11.9888 0 1
12.1062 0 1
12.2235 0 1
12.3409 0 1
12.4582 0 1
12.5756 0 1
12.693 0 1
12.8104 0 1
12.9278 0 1
13.0452 0 1
13.1626 0 1
13.28 0 1
13.3974 0 1
13.5149 0 1
13.6323 0 1
13.7497 0 1
13.8671 0 1
13.9845 0 1
14.1019 0 1
14.2193 0 1
14.3367 0 1
14.4541 0 1
14.5714 0 1
14.6888 0 1
14.8062 0 1
14.9235 0 1
15.0408 0 0
15.1581 0 0
15.2755 0 0
15.3927 0 0
15.51 0 0
15.6273 0 0
15.7445 0 0
15.8617 0 0
15.9789 0 0
16.0961 0 0
16.2132 0 0
16.3304 0 0
16.4475 0 0
16.5646 0 0
16.6816 0 0
16.7986 0 0
16.9156 0 0
17.0326 0 0
17.1496 0 0
17.2665 0 0
17.3833 0 0
17.5002 0 0
17.617 0 0
17.7338 0 0
17.8505 0 0
17.9672 0 0
18.0839 0 0
18.2005 0 0
18.3171 0 0
18.4337 0 0
18.5502 0 0
18.6666 0 0
18.7831 0 0
18.8994 0 0
19.0158 0 0
19.1321 0 0
19.2483 0 0
19.3645 0 0
19.4806 0 0
19.5967 0 0
19.7128 0 0
19.8288 0 0
19.9447 0 0
20.0606 0 1
20.1764 0 1
20.2922 0 1
20.4079 0 1
20.5236 0 1
20.6392 0 1
20.7548 0 1
20.8702 0 1
23.3078 0 1
23.4233 0 1
23.539 0 1
23.6547 0 1
23.7704 0 1
23.8862 0 1
24.0021 0 1
24.118 0 1
24.234 0 1
24.35 0 1
24.4661 1147 33.8674
24.5822 1145 33.8378
24.6984 1100 33.1662
24.8146 1153 33.9559
24.9309 1074 32.7719
25.0472 1118 33.4365
25.1636 1062 32.5883
25.28 1149 33.8969
25.3965 1186 34.4384
25.513 1185 34.4238
25.6296 1190 34.4964
25.7462 1230 35.0714
25.8628 1322 36.3593
25.9795 1347 36.7015
26.0962 1237 35.171
26.213 1332 36.4966
26.3298 1240 35.2136
26.4466 1358 36.8511
26.5635 1344 36.6606
26.6804 1272 35.6651
26.7973 1250 35.3553
26.9143 1213 34.8281
27.0313 1211 34.7994
27.1483 1247 35.3129
27.2653 1307 36.1525
27.3824 1345 36.6742
27.4996 1287 35.8748
27.6167 1284 35.8329
27.7339 1254 35.4119
27.8511 1314 36.2491
27.9683 1295 35.9861
28.0855 1227 35.0286
28.2028 1312 36.2215
28.3201 1345 36.6742
28.4374 1331 36.4829
28.5547 1259 35.4824
28.6721 1287 35.8748
28.7894 1267 35.5949
28.9068 1304 36.1109
29.0242 1285 35.8469
29.1416 1311 36.2077
29.259 1337 36.565
29.3764 1423 37.7227
29.4939 1414 37.6032
29.6113 1398 37.3898
29.7288 1404 37.47
29.8463 1410 37.55
29.9638 1380 37.1484
30.0812 1351 36.756
30.1987 1245 35.2846
30.3162 1239 35.1994
30.4337 1104 33.2265
30.5512 1157 34.0147
30.6687 1250 35.3553
30.7862 1266 35.5809
30.9037 1317 36.2905
31.0212 1348 36.7151
31.1387 1258 35.4683
31.2562 1251 35.3695
31.3737 1228 35.0428
31.4912 1236 35.1568
31.6087 1264 35.5528
31.7262 1260 35.4965
31.8436 1151 33.9264
31.9611 1182 34.3802
32.0785 1130 33.6155
32.1959 1126 33.5559
32.3134 1089 33
32.4308 1164 34.1174
32.5482 1190 34.4964
32.6655 1215 34.8569
32.7829 1251 35.3695
32.9002 1269 35.623
33.0176 1159 34.0441
33.1349 1204 34.6987
33.2522 1210 34.7851
33.3694 1239 35.1994
33.4867 1195 34.5688
33.6039 1319 36.318
33.7211 1269 35.623
33.8383 1151 33.9264
33.9554 1155 33.9853
34.0725 959 30.9677
34.1896 1103 33.2114
34.3067 1068 32.6803
34.4237 1110 33.3167
34.5407 1122 33.4963
34.6577 1101 33.1813
34.7746 1134 33.6749
34.8915 1067 32.665
35.0084 1097 33.121
35.1252 1071 32.7261
35.242 1083 32.909
35.3587 1183 34.3948
35.4755 1108 33.2866
35.5921 1147 33.8674
35.7088 1102 33.1964
35.8254 1056 32.4962
35.9419 1049 32.3883
36.0584 967 31.0966
36.1749 1039 32.2335
36.2913 1072 32.7414
36.4077 1101 33.1813
36.524 1103 33.2114
36.6403 1122 33.4963
36.7565 1154 33.9706
36.8727 1104 33.2265
36.9889 1168 34.176
37.1049 1163 34.1028
37.221 0 1
37.3369 0 1
37.4529 0 1
37.5687 0 1
37.6845 0 1
37.8003 0 1
37.916 0 1
38.0316 0 1
38.1472 0 1
40.5851 0 1
40.7008 0 1
40.8164 0 1
40.9322 0 1
41.048 0 1
41.1639 0 1
41.2798 0 1
41.3958 0 1
41.5118 0 1
41.6279 0 1
41.744 868 29.4618
41.8602 977 31.257
41.9765 977 31.257
42.0928 991 31.4802
42.2091 958 30.9516
42.3255 981 31.3209
42.4419 1002 31.6544
42.5584 968 31.1127
42.675 953 30.8707
42.7915 906 30.0998
42.9081 784 28
43.0248 818 28.6007
43.1415 902 30.0333
43.2582 876 29.5973
43.375 861 29.3428
43.4918 910 30.1662
43.6087 900 30
43.7256 848 29.1204
43.8425 803 28.3373
43.9595 771 27.7669
44.0765 796 28.2135
44.1935 846 29.0861
44.3106 810 28.4605
44.4277 825 28.7228
44.5448 747 27.3313
44.6619 765 27.6586
44.7791 735 27.1109
44.8963 701 26.4764
45.0136 742 27.2397
45.1308 718 26.7955
45.2481 779 27.9106
45.3654 720 26.8328
45.4827 751 27.4044
45.6001 765 27.6586
45.7174 738 27.1662
45.8348 764 27.6405
45.9522 764 27.6405
46.0697 785 28.0179
46.1871 733 27.074
46.3046 754 27.4591
46.422 682 26.1151
46.5395 641 25.318
46.657 655 25.593
46.7745 655 25.593
46.892 705 26.5518
47.0096 749 27.3679
47.1271 701 26.4764
47.2446 667 25.8263
47.3622 695 26.3629
47.4797 614 24.779
47.5973 609 24.6779
47.7149 620 24.8998
47.8324 667 25.8263
47.95 669 25.865
48.0675 596 24.4131
48.1851 573 23.9374
48.3027 551 23.4734
48.4202 585 24.1868
48.5378 578 24.0416
48.6554 630 25.0998
48.7729 586 24.2074
48.8904 593 24.3516
49.008 604 24.5764
49.1255 664 25.7682
49.243 634 25.1794
49.3605 590 24.2899
49.478 586 24.2074
49.5955 620 24.8998
49.713 657 25.632
49.8304 528 22.9783
49.9479 499 22.3383
50.0653 529 23
50.1827 545 23.3452
50.3001 601 24.5153
50.4175 594 24.3721
50.5348 623 24.96
50.6521 667 25.8263
50.7694 636 25.219
50.8867 654 25.5734
51.004 663 25.7488
51.1212 637 25.2389
51.2384 715 26.7395
51.3556 645 25.3969
51.4727 709 26.6271
51.5899 725 26.9258
51.707 641 25.318
51.824 687 26.2107
51.9411 745 27.2947
52.0581 762 27.6043
52.175 818 28.6007
52.2919 807 28.4077
52.4088 827 28.7576
52.5257 874 29.5635
52.6425 872 29.5296
52.7593 879 29.6479
52.876 865 29.4109
52.9927 914 30.2324
53.1094 915 30.249
53.226 882 29.6985
53.3426 934 30.5614
53.4591 902 30.0333
53.5756 811 28.4781
53.692 762 27.6043
53.8084 849 29.1376
53.9248 908 30.133
54.0411 886 29.7658
54.1573 890 29.8329
54.2735 0 1
54.3896 0 1
54.5057 0 1
54.6217 0 1
54.7377 0 1
54.8537 0 1
54.9695 0 1
55.0853 0 1
55.2011 0 1
55.3168 0 1
55.4324 0 1
57.824 0 1
57.9396 0 1
58.0553 0 1
58.1711 0 1
58.2869 0 1
58.4028 0 1
58.5187 0 1
58.6347 0 1
58.7508 0 1
58.8669 0 1
58.983 915 30.249
59.0992 1006 31.7175
59.2155 1035 32.1714
59.3318 1075 32.7872
59.4482 1052 32.4345
59.5646 1051 32.4191
59.681 1068 32.6803
59.7975 1013 31.8277
59.9141 1056 32.4962
60.0306 1003 31.6702
60.1473 1008 31.749
60.2639 982 31.3369
60.3807 999 31.607
60.4974 978 31.273
60.6142 939 30.6431
60.731 1033 32.1403
60.8479 997 31.5753
60.9648 1011 31.7962
61.0818 1018 31.9061
61.1987 1060 32.5576
61.3158 1015 31.8591
61.4328 996 31.5595
61.5499 1020 31.9374
61.667 1015 31.8591
61.7841 1003 31.6702
61.9013 1014 31.8434
62.0185 925 30.4138
62.1357 926 30.4302
62.253 870 29.4958
62.3702 870 29.4958
62.4875 884 29.7321
62.6049 931 30.5123
62.7222 981 31.3209
62.8396 960 30.9839
62.9569 978 31.273
63.0743 986 31.4006
63.1918 928 30.4631
63.3092 908 30.133
63.4267 818 28.6007
63.5441 897 29.95
63.6616 870 29.4958
63.7791 862 29.3598
63.8966 822 28.6705
64.0142 893 29.8831
64.1317 918 30.2985
64.2492 884 29.7321
64.3668 942 30.692
64.4843 870 29.4958
64.6019 927 30.4467
64.7195 882 29.6985
64.837 974 31.209
64.9546 864 29.3939
65.0722 931 30.5123
65.1898 900 30
65.3074 914 30.2324
65.4249 844 29.0517
65.5425 822 28.6705
65.6601 850 29.1548
65.7777 779 27.9106
65.8952 748 27.3496
66.0128 766 27.6767
66.1304 838 28.9482
66.2479 917 30.282
66.3655 980 31.305
66.483 866 29.4279
66.6005 943 30.7083
66.718 921 30.348
66.8355 863 29.3769
66.953 856 29.2575
67.0705 812 28.4956
67.1879 816 28.5657
67.3054 835 28.8964
67.4228 783 27.9821
67.5402 853 29.2062
67.6576 859 29.3087
67.7749 852 29.189
67.8923 876 29.5973
68.0096 874 29.5635
68.1269 955 30.9031
68.2442 919 30.315
68.3614 934 30.5614
68.4787 1036 32.187
68.5958 942 30.692
68.713 919 30.315
68.8302 912 30.1993
68.9473 1019 31.9218
69.0643 967 31.0966
69.1814 912 30.1993
69.2984 892 29.8664
69.4154 868 29.4618
69.5323 783 27.9821
69.6492 872 29.5296
69.7661 909 30.1496
69.8829 939 30.6431
69.9997 973 31.1929
70.1165 1010 31.7805
70.2332 1039 32.2335
70.3499 1047 32.3574
70.4665 988 31.4325
70.5831 992 31.496
70.6996 958 30.9516
70.8161 827 28.7576
70.9326 861 29.3428
71.049 915 30.249
71.1653 915 30.249
71.2817 899 29.9833
71.3979 852 29.189
71.5141 828 28.775
71.6303 922 30.3645
71.7464 854 29.2233
71.8624 0 1
71.9784 0 1
72.0944 0 1
72.2102 0 1
72.3261 0 1
72.4418 0 1
72.5575 0 1
72.6732 0 1
75.1054 0 1
75.2209 0 1
75.3365 0 1
75.4521 0 1
75.5678 0 1
75.6835 0 1
75.7993 0 1
75.9151 0 1
76.031 0 1
76.147 763 27.6225
76.263 823 28.688
76.3791 850 29.1548
76.4952 903 30.05
76.6113 902 30.0333
76.7276 903 30.05
76.8438 900 30
76.9601 903 30.05
77.0765 979 31.289
77.1929 945 30.7409
77.3093 969 31.1288
77.4258 995 31.5436
77.5423 981 31.3209
77.6589 1012 31.8119
77.7755 970 31.1448
77.8921 915 30.249
78.0088 961 31
78.1256 904 30.0666
78.2423 911 30.1828
78.3591 800 28.2843
78.4759 790 28.1069
78.5928 819 28.6182
78.7097 903 30.05
78.8266 850 29.1548
78.9436 996 31.5595
79.0606 1019 31.9218
79.1776 995 31.5436
79.2946 960 30.9839
79.4117 1038 32.218
79.5288 1020 31.9374
79.6459 953 30.8707
79.7631 869 29.4788
79.8802 770 27.7489
79.9974 745 27.2947
80.1147 803 28.3373
80.2319 814 28.5307
80.3491 840 28.9828
80.4664 856 29.2575
80.5837 896 29.9333
80.701 909 30.1496
80.8183 909 30.1496
80.9357 894 29.8998
81.053 976 31.241
81.1704 900 30
81.2877 967 31.0966
81.4051 906 30.0998
81.5225 887 29.7825
81.6399 857 29.2746
81.7573 895 29.9166
81.8747 779 27.9106
81.9922 770 27.7489
82.1096 761 27.5862
82.227 764 27.6405
82.3444 768 27.7128
82.4619 829 28.7924
82.5793 919 30.315
82.6967 914 30.2324
82.8142 871 29.5127
82.9316 901 30.0167
83.049 916 30.2655
83.1664 905 30.0832
83.2838 842 29.0172
83.4012 731 27.037
83.5186 704 26.533
83.636 634 25.1794
83.7534 710 26.6458
83.8708 735 27.1109
83.9881 729 27
84.1055 751 27.4044
84.2228 794 28.178
84.3401 827 28.7576
84.4575 847 29.1033
84.5747 871 29.5127
84.692 919 30.315
84.8093 914 30.2324
84.9265 881 29.6816
85.0437 884 29.7321
85.1609 867 29.4449
85.2781 855 29.2404
85.3952 838 28.9482
85.5123 784 28
85.6294 734 27.0924
85.7465 799 28.2666
85.8636 818 28.6007
85.9806 891 29.8496
86.0976 880 29.6648
86.2145 966 31.0805
86.3315 981 31.3209
86.4484 991 31.4802
86.5652 1078 32.8329
86.682 998 31.5911
86.7988 1030 32.0936
86.9156 993 31.5119
87.0323 872 29.5296
87.149 770 27.7489
87.2657 803 28.3373
87.3823 802 28.3196
87.4988 889 29.8161
87.6154 923 30.3809
87.7318 1005 31.7017
87.8483 1015 31.8591
87.9647 1039 32.2335
88.081 1102 33.1964
88.1973 1046 32.3419
88.3136 1068 32.6803
88.4298 1048 32.3728
88.546 988 31.4325
88.6621 1011 31.7962
88.7781 1079 32.8481
88.8942 0 1
89.0101 0 1
89.126 0 1
89.2419 0 1
89.3577 0 1
89.4734 0 1
89.5891 0 1
89.7047 0 1
89.8203 0 1
89.9358 0 1
92.3269 0 1
92.4424 0 1
92.558 0 1
92.6736 0 1
92.7893 0 1
92.905 0 1
93.0208 0 1
93.1366 0 1
93.2525 0 1
93.3685 0 1
93.4845 0 1
93.6005 1019 31.9218
93.7167 1049 32.3883
93.8328 982 31.3369
93.949 1058 32.5269
94.0653 1027 32.0468
94.1816 1012 31.8119
94.2979 1030 32.0936
94.4143 969 31.1288
94.5307 890 29.8329
94.6472 880 29.6648
94.7637 916 30.2655
94.8803 970 31.1448
94.9969 1000 31.6228
95.1135 1056 32.4962
95.2302 1026 32.0312
95.3469 1072 32.7414
95.4637 1089 33
95.5805 1127 33.5708
95.6973 1159 34.0441
95.8142 1131 33.6303
95.9311 1026 32.0312
96.048 1031 32.1092
96.1649 980 31.305
96.2819 868 29.4618
96.3989 804 28.3549
96.516 794 28.178
96.633 906 30.0998
96.7501 984 31.3688
96.8673 980 31.305
96.9844 1004 31.686
97.1016 1045 32.3265
97.2188 1067 32.665
97.336 1094 33.0757
97.4532 1159 34.0441
97.5704 1130 33.6155
97.6877 1079 32.8481
97.805 1029 32.078
97.9223 1010 31.7805
98.0396 931 30.5123
98.1569 880 29.6648
98.2743 945 30.7409
98.3916 946 30.7571
98.509 960 30.9839
98.6264 1027 32.0468
98.7438 1017 31.8904
98.8612 1035 32.1714
98.9786 1034 32.1559
99.096 1086 32.9545
99.2134 1104 33.2265
99.3308 1094 33.0757
99.4482 1155 33.9853
99.5656 1117 33.4215
99.6831 1047 32.3574
99.8005 992 31.496
99.9179 882 29.6985
100.035 887 29.7825
100.153 873 29.5466
100.27 932 30.5287
100.388 1013 31.8277
100.505 1017 31.8904
100.622 1007 31.7333
100.74 1115 33.3916
100.857 1073 32.7567
100.975 1142 33.7935
101.092 1093 33.0606
101.209 1102 33.1964
101.327 1059 32.5423
101.444 1070 32.7109
101.561 1069 32.6956
101.679 916 30.2655
101.796 876 29.5973
101.913 884 29.7321
102.03 969 31.1288
102.148 1083 32.909
102.265 976 31.241
102.382 1112 33.3467
102.499 1122 33.4963
102.616 1181 34.3657
102.733 1213 34.8281
102.851 1176 34.2929
102.968 1236 35.1568
103.085 1165 34.1321
103.202 1210 34.7851
103.319 1032 32.1248
103.436 1037 32.2025
103.552 867 29.4449
103.669 887 29.7825
103.786 998 31.5911
103.903 1111 33.3317
104.02 1169 34.1906
104.137 1137 33.7194
104.253 1106 33.2566
104.37 1078 32.8329
104.487 1225 35
104.603 1205 34.7131
104.72 1207 34.7419
104.836 1108 33.2866
104.953 1075 32.7872
105.069 1110 33.3167
105.186 1044 32.311
105.302 943 30.7083
105.418 1008 31.749
105.535 1016 31.8748
105.651 1142 33.7935
105.767 1186 34.4384
105.883 1237 35.171
105.999 1222 34.9571
106.115 0 1
106.231 0 1
106.347 0 1
106.463 0 1
106.579 0 1
106.694 0 1
106.81 0 1
106.926 0 1
107.041 0 1
107.157 0 1
109.576 0 1
109.692 0 1
109.807 0 1
109.923 0 1
110.039 0 1
110.155 0 1
110.27 0 1
110.386 0 1
110.502 0 1
110.618 1036 32.187
110.735 1106 33.2566
110.851 1126 33.5559
110.967 1222 34.9571
111.083 1139 33.7491
111.199 1108 33.2866
111.316 1269 35.623
111.432 1240 35.2136
111.549 1244 35.2704
111.665 1185 34.4238
111.782 1169 34.1906
111.898 1083 32.909
112.015 923 30.3809
112.132 827 28.7576
112.248 913 30.2159
112.365 955 30.9031
112.482 1035 32.1714
112.599 1058 32.5269
112.716 1181 34.3657
112.832 1080 32.8634
112.949 1198 34.6121
113.066 1130 33.6155
113.183 1111 33.3317
113.3 1040 32.249
113.417 1096 33.1059
113.534 995 31.5436
113.652 998 31.5911
113.769 939 30.6431
113.886 885 29.7489
114.003 929 30.4795
114.12 976 31.241
114.238 972 31.1769
114.355 1027 32.0468
114.472 1158 34.0294
114.589 1105 33.2415
114.707 1098 33.1361
114.824 1169 34.1906
114.942 1077 32.8177
115.059 1124 33.5261
115.176 1233 35.1141
115.294 1120 33.4664
115.411 1075 32.7872
115.529 1022 31.9687
115.646 932 30.5287
115.764 852 29.189
115.881 857 29.2746
115.999 981 31.3209
116.116 1098 33.1361
116.234 1098 33.1361
116.351 1067 32.665
116.469 1064 32.619
116.586 1097 33.121
116.704 1091 33.0303
116.821 1109 33.3017
116.939 1071 32.7261
117.056 1003 31.6702
117.174 978 31.273
117.291 959 30.9677
117.409 938 30.6268
117.526 890 29.8329
117.644 924 30.3974
117.761 1049 32.3883
117.879 1099 33.1512
117.996 1061 32.573
118.114 1116 33.4066
118.231 1149 33.8969
118.349 1158 34.0294
118.466 1104 33.2265
118.584 1143 33.8083
118.701 1185 34.4238
118.819 1178 34.322
118.936 1125 33.541
119.053 1076 32.8024
119.171 1017 31.8904
119.288 891 29.8496
119.405 847 29.1033
119.523 949 30.8058
119.64 1029 32.078
119.757 1039 32.2335
119.875 1099 33.1512
119.992 1054 32.4654
120.109 1033 32.1403
120.226 1132 33.6452
120.343 1088 32.9848
120.46 1095 33.0908
120.578 1068 32.6803
120.695 1079 32.8481
120.812 1023 31.9844
120.929 961 31
121.046 946 30.7571
121.163 891 29.8496
121.279 889 29.8161
121.396 963 31.0322
121.513 1012 31.8119
121.63 1062 32.5883
121.747 1126 33.5559
121.863 1122 33.4963
121.98 1088 32.9848
122.097 1171 34.2199
122.213 1127 33.5708
122.33 1141 33.7787
122.446 1126 33.5559
122.563 1076 32.8024
122.679 1021 31.9531
122.795 981 31.3209
122.912 999 31.607
123.028 895 29.9166
123.144 794 28.178
123.26 813 28.5132
123.377 0 1
123.493 0 1
123.609 0 1
123.725 0 1
123.84 0 1
123.956 0 1
124.072 0 1
124.188 0 1
124.303 0 1
124.419 0 1
126.852 0 1
126.968 0 1
127.083 0 1
127.199 0 1
127.315 0 1
127.431 0 1
127.547 0 1
127.663 0 1
127.779 0 1
127.895 0 1
128.011 0 1
128.127 0 1
128.243 0 1
128.359 885 29.7489
128.476 915 30.249
128.592 1003 31.6702
128.708 1066 32.6497
128.825 1129 33.6006
128.941 1226 35.0143
129.058 1142 33.7935
129.174 1158 34.0294
129.291 1168 34.176
129.408 1225 35
129.524 1148 33.8821
129.641 1134 33.6749
129.758 1023 31.9844
129.875 1037 32.2025
129.992 1011 31.7962
130.108 984 31.3688
130.225 1001 31.6386
130.342 1115 33.3916
130.459 1092 33.0454
130.576 1241 35.2278
130.693 1176 34.2929
130.81 1159 34.0441
130.928 1177 34.3074
131.045 1158 34.0294
131.162 1175 34.2783
131.279 1114 33.3766
131.396 1264 35.5528
131.513 1172 34.2345
131.631 1176 34.2929
131.748 1083 32.909
131.865 952 30.8545
131.983 959 30.9677
132.1 976 31.241
132.217 1096 33.1059
132.335 1165 34.1321
132.452 1151 33.9264
132.57 1166 34.1467
132.687 1142 33.7935
132.804 1206 34.7275
132.922 1193 34.5398
133.039 1116 33.4066
133.157 1151 33.9264
133.274 1011 31.7962
133.392 1036 32.187
133.509 976 31.241
133.627 962 31.0161
133.744 1040 32.249
133.862 1011 31.7962
133.979 1133 33.6601
134.097 1098 33.1361
134.214 1161 34.0735
134.332 1178 34.322
134.449 1207 34.7419
134.567 1211 34.7994
134.684 1173 34.2491
134.802 1212 34.8138
134.919 1192 34.5254
135.037 1209 34.7707
135.154 1125 33.541
135.272 1138 33.7343
135.389 1060 32.5576
135.507 895 29.9166
135.624 912 30.1993
135.742 1007 31.7333
135.859 1125 33.541
135.977 1173 34.2491
136.094 1209 34.7707
136.211 1224 34.9857
136.329 1137 33.7194
136.446 1180 34.3511
136.564 1161 34.0735
136.681 1128 33.5857
136.798 1097 33.121
136.915 1052 32.4345
137.033 1014 31.8434
137.15 993 31.5119
137.267 961 31
137.384 964 31.0483
137.502 1042 32.28
137.619 1045 32.3265
137.736 1102 33.1964
137.853 1190 34.4964
137.97 1187 34.4529
138.087 1175 34.2783
138.204 1122 33.4963
138.321 1121 33.4813
138.438 1189 34.4819
138.555 1191 34.5109
138.672 1169 34.1906
138.788 1215 34.8569
138.905 1106 33.2566
139.022 1047 32.3574
139.139 964 31.0483
139.255 918 30.2985
139.372 1002 31.6544
139.488 1062 32.5883
139.605 1232 35.0999
139.721 1202 34.6699
139.838 1204 34.6987
139.954 1160 34.0588
140.071 1186 34.4384
140.187 1182 34.3802
140.303 1152 33.9411
140.419 1167 34.1614
140.535 1122 33.4963
140.652 1054 32.4654
140.768 0 1
140.884 0 1
141 0 1
141.115 0 1
141.231 0 1
141.347 0 1
141.463 0 1
141.578 0 1
141.694 0 1
144.104 0 1
144.219 0 1
144.335 0 1
144.45 0 1
144.566 0 1
144.682 0 1
144.798 0 1
144.914 0 1
145.03 0 1
145.146 852 29.189
145.262 930 30.4959
145.378 921 30.348
145.494 911 30.1828
145.61 885 29.7489
145.726 836 28.9137
145.842 806 28.3901
145.959 763 27.6225
146.075 788 28.0713
146.192 761 27.5862
146.308 801 28.3019
146.425 854 29.2233
146.541 918 30.2985
146.658 937 30.6105
146.774 919 30.315
146.891 977 31.257
147.008 890 29.8329
147.125 874 29.5635
147.241 890 29.8329
147.358 960 30.9839
147.475 1022 31.9687
147.592 991 31.4802
147.709 912 30.1993
147.826 871 29.5127
147.943 765 27.6586
148.06 764 27.6405
148.177 767 27.6948
148.294 816 28.5657
148.411 857 29.2746
148.528 965 31.0644
148.645 977 31.257
148.762 929 30.4795
148.88 949 30.8058
148.997 894 29.8998
149.114 940 30.6594
149.231 921 30.348
149.349 843 29.0345
149.466 951 30.8383
149.583 824 28.7054
149.701 785 28.0179
149.818 856 29.2575
149.935 795 28.1957
150.053 839 28.9655
150.17 878 29.6311
150.287 906 30.0998
150.405 884 29.7321
150.522 939 30.6431
150.64 892 29.8664
150.757 960 30.9839
150.875 926 30.4302
150.992 954 30.8869
151.11 946 30.7571
151.227 985 31.3847
151.344 971 31.1609
151.462 902 30.0333
151.579 862 29.3598
151.697 755 27.4773
151.814 760 27.5681
151.932 765 27.6586
152.049 924 30.3974
152.167 911 30.1828
152.284 974 31.209
152.402 952 30.8545
152.519 976 31.241
152.636 991 31.4802
152.754 1005 31.7017
152.871 990 31.4643
152.989 977 31.257
153.106 872 29.5296
153.223 888 29.7993
153.341 811 28.4781
153.458 807 28.4077
153.575 829 28.7924
153.693 856 29.2575
153.81 906 30.0998
153.927 946 30.7571
154.044 954 30.8869
154.162 962 31.0161
154.279 962 31.0161
154.396 947 30.7734
154.513 1021 31.9531
154.63 1049 32.3883
154.747 1038 32.218
154.864 978 31.273
154.981 1039 32.2335
155.098 966 31.0805
155.215 960 30.9839
155.332 896 29.9333
155.449 893 29.8831
155.566 904 30.0666
155.683 1012 31.8119
155.8 1005 31.7017
155.917 1024 32
156.033 1056 32.4962
156.15 0 1
156.267 0 1
156.383 0 1
156.5 0 1
156.617 0 1
156.733 0 1
156.85 0 1
156.966 0 1
157.082 0 1
157.199 0 1
157.315 0 1
157.431 0 1
157.547 0 1
157.664 0 1
157.78 0 1
157.896 0 1
158.012 0 1
158.128 0 1
158.244 0 1
158.359 0 1
158.475 0 1
158.591 0 1
158.706 0 1
