
6.15755 0 1
6.2731 0 1
6.3887 0 1
6.50437 0 1
6.62009 0 1
6.73587 0 1
6.8517 0 1
6.96759 0 1
7.08353 0 1
7.19952 0 1
7.31557 0 1
7.43166 0 1
7.54781 0 1
7.664 0 1
7.78024 0 1
7.89653 0 1
8.01286 0 1
8.12924 0 1
8.24567 0 1
8.36213 0 1
8.47864 0 1
8.59519 0 1
8.71178 0 1
8.82841 0 1
8.94508 0 1
9.06179 0 1
9.17853 0 1
9.29531 0 1
9.41212 0 1
9.52897 0 1
9.64584 0 1
9.76276 0 1
9.8797 0 1
9.99667 0 1
10.1137 0 1
10.2307 0 1
10.3478 0 1
10.4648 0 1
10.5819 0 1
10.6991 0 1
10.8162 0 1
10.9334 0 1
11.0506 0 1
11.1678 0 1
11.285 0 1
11.4023 0 1
11.5196 0 1
11.6369 0 1
11.7542 0 1
11.8715 0 1
11.9888 0 1
12.1062 0 1
12.2235 0 1
12.3409 0 1
12.4582 0 1
12.5756 0 1
12.693 0 1
12.8104 0 1
12.9278 0 1
13.0452 0 1
13.1626 0 1
13.28 0 1
13.3974 0 1
13.5149 0 1
13.6323 0 1
13.7497 0 1
13.8671 0 1
13.9845 0 1
14.1019 0 1
14.2193 0 1
14.3367 0 1
14.4541 0 1
14.5714 0 1
14.6888 0 1
14.8062 0 1
14.9235 0 1
15.0408 3240 56.921
15.1581 3329 57.6975
15.2755 3550 59.5819
15.3927 3634 60.2827
15.51 3532 59.4306
15.6273 3421 58.4893
15.7445 3367 58.0259
15.8617 3374 58.0861
15.9789 3504 59.1946
16.0961 3511 59.2537
16.2132 3320 57.6194
16.3304 3443 58.6771
16.4475 3467 58.8812
16.5646 3468 58.8897
16.6816 3446 58.7026
16.7986 3429 58.5577
16.9156 3608 60.0666
17.0326 3615 60.1249
17.1496 3479 58.983
17.2665 3631 60.2578
17.3833 3570 59.7495
17.5002 3562 59.6825
17.617 3647 60.3904
17.7338 3688 60.7289
17.8505 3656 60.4649
17.9672 3579 59.8247
18.0839 3611 60.0916
18.2005 3540 59.4979
18.3171 3633 60.2744
18.4337 3760 61.3188
18.5502 3838 61.9516
18.6666 3822 61.8223
18.7831 3912 62.546
18.8994 3874 62.2415
19.0158 3650 60.4152
19.1321 3617 60.1415
19.2483 3453 58.7622
19.3645 3373 58.0775
19.4806 3244 56.9561
19.5967 3270 57.1839
19.7128 2957 54.3783
19.8288 2817 53.0754
19.9447 2328 48.2494
20.0606 0 1
20.1764 0 1
20.2922 0 1
20.4079 0 1
20.5236 0 1
20.6392 0 1
20.7548 0 1
20.8702 0 1
23.3078 0 1
23.4233 0 1
23.539 0 1
23.6547 0 1
23.7704 0 1
23.8862 0 1
24.0021 0 1
24.118 0 1
24.234 0 1
24.35 0 1
24.4661 1982 44.5197
24.5822 2260 47.5395
24.6984 2527 50.2693
24.8146 2892 53.7773
24.9309 3048 55.2087
25.0472 3209 56.648
25.1636 3311 57.5413
25.28 3465 58.8643
25.3965 3593 59.9416
25.513 3693 60.7701
25.6296 3957 62.9047
25.7462 3898 62.434
25.8628 4017 63.3798
25.9795 4142 64.3584
26.0962 4129 64.2573
26.213 4225 65
26.3298 4089 63.9453
26.4466 4204 64.8383
26.5635 4155 64.4593
26.6804 4118 64.1716
26.7973 4069 63.7887
26.9143 4148 64.405
27.0313 4302 65.5896
27.1483 4351 65.9621
27.2653 4364 66.0606
27.3824 4475 66.8954
27.4996 4348 65.9394
27.6167 4441 66.6408
27.7339 4229 65.0308
27.8511 4202 64.8228
27.9683 4162 64.5136
28.0855 4176 64.622
28.2028 4126 64.2339
28.3201 4031 63.4902
28.4374 4108 64.0937
28.5547 3987 63.1427
28.6721 4012 63.3404
28.7894 3684 60.696
28.9068 3750 61.2372
29.0242 3758 61.3025
29.1416 3707 60.8851
29.259 3797 61.6198
29.3764 3848 62.0322
29.4939 3930 62.6897
29.6113 3991 63.1744
29.7288 4119 64.1794
29.8463 4057 63.6946
29.9638 4248 65.1767
30.0812 4185 64.6916
30.1987 4112 64.1249
30.3162 4028 63.4665
30.4337 4017 63.3798
30.5512 4312 65.6658
30.6687 4399 66.325
30.7862 4330 65.8027
30.9037 4517 67.2086
31.0212 4470 66.8581
31.1387 4384 66.2118
31.2562 4137 64.3195
31.3737 4229 65.0308
31.4912 4257 65.2457
31.6087 4284 65.4523
31.7262 4218 64.9461
31.8436 4277 65.3988
31.9611 4204 64.8383
32.0785 4056 63.6867
32.1959 3990 63.1664
32.3134 3828 61.8708
32.4308 3707 60.8851
32.5482 3777 61.4573
32.6655 3806 61.6928
32.7829 3920 62.6099
32.9002 3849 62.0403
33.0176 4112 64.1249
33.1349 4052 63.6553
33.2522 4086 63.9218
33.3694 4097 64.0078
33.4867 4124 64.2184
33.6039 4200 64.8074
33.7211 4040 63.561
33.8383 4209 64.8768
33.9554 4211 64.8922
34.0725 4168 64.56
34.1896 4274 65.3758
34.3067 4393 66.2797
34.4237 4362 66.0454
34.5407 4486 66.9776
34.6577 4371 66.1135
34.7746 4480 66.9328
34.8915 4422 66.4981
35.0084 4282 65.437
35.1252 4308 65.6354
35.242 4296 65.5439
35.3587 4357 66.0076
35.4755 4291 65.5057
35.5921 4348 65.9394
35.7088 4241 65.123
35.8254 3923 62.6339
35.9419 3931 62.6977
36.0584 3674 60.6135
36.1749 3538 59.4811
36.2913 3316 57.5847
36.4077 3326 57.6715
36.524 3206 56.6216
36.6403 3257 57.0701
36.7565 3220 56.745
36.8727 3298 57.4282
36.9889 3079 55.4887
37.1049 2864 53.5164
37.221 0 1
37.3369 0 1
37.4529 0 1
37.5687 0 1
37.6845 0 1
37.8003 0 1
37.916 0 1
38.0316 0 1
38.1472 0 1
40.5851 0 1
40.7008 0 1
40.8164 0 1
40.9322 0 1
41.048 0 1
41.1639 0 1
41.2798 0 1
41.3958 0 1
41.5118 0 1
41.6279 0 1
41.744 1972 44.4072
41.8602 2122 46.0652
41.9765 2463 49.6286
42.0928 2721 52.1632
42.2091 2980 54.5894
42.3255 3171 56.3116
42.4419 3367 58.0259
42.5584 3600 60
42.675 3628 60.2329
42.7915 3702 60.8441
42.9081 3848 62.0322
43.0248 4074 63.8279
43.1415 4096 64
43.2582 4241 65.123
43.375 4505 67.1193
43.4918 4645 68.1542
43.6087 4518 67.2161
43.7256 4611 67.9043
43.8425 4358 66.0151
43.9595 4447 66.6858
44.0765 4435 66.5958
44.1935 4506 67.1267
44.3106 4458 66.7683
44.4277 4439 66.6258
44.5448 4366 66.0757
44.6619 4207 64.8614
44.7791 4040 63.561
44.8963 3671 60.5888
45.0136 3576 59.7997
45.1308 3438 58.6345
45.2481 3444 58.6856
45.3654 3437 58.6259
45.4827 3606 60.05
45.6001 3737 61.131
45.7174 3815 61.7657
45.8348 4223 64.9846
45.9522 4335 65.8407
46.0697 4409 66.4003
46.1871 4482 66.9477
46.3046 4451 66.7158
46.422 4613 67.9191
46.5395 4514 67.1863
46.657 4526 67.2756
46.7745 4965 70.4628
46.892 4807 69.3325
47.0096 4890 69.9285
47.1271 5060 71.1337
47.2446 4976 70.5408
47.3622 5022 70.8661
47.4797 4915 70.1071
47.5973 4857 69.6922
47.7149 4827 69.4766
47.8324 4807 69.3325
47.95 4815 69.3902
48.0675 4686 68.4544
48.1851 4618 67.9559
48.3027 4405 66.3702
48.4202 4111 64.1171
48.5378 3819 61.7981
48.6554 3578 59.8164
48.7729 3565 59.7076
48.8904 3556 59.6322
49.008 3638 60.3158
49.1255 3843 61.9919
49.243 4078 63.8592
49.3605 4326 65.7723
49.478 4684 68.4398
49.5955 4688 68.469
49.713 4816 69.3974
49.8304 4668 68.3228
49.9479 4763 69.0145
50.0653 4750 68.9202
50.1827 4748 68.9057
50.3001 5019 70.8449
50.4175 5263 72.5465
50.5348 5216 72.2219
50.6521 5251 72.4638
50.7694 5170 71.9027
50.8867 5248 72.4431
51.004 5259 72.519
51.1212 5027 70.9013
51.2384 5011 70.7884
51.3556 5020 70.852
51.4727 5108 71.4703
51.5899 4922 70.157
51.707 4907 70.05
51.824 4653 68.2129
51.9411 4339 65.8711
52.0581 3977 63.0635
52.175 3665 60.5392
52.2919 3612 60.0999
52.4088 3633 60.2744
52.5257 3716 60.959
52.6425 3903 62.474
52.7593 4290 65.4981
52.876 4589 67.7422
52.9927 4572 67.6166
53.1094 4549 67.4463
53.226 4534 67.335
53.3426 4603 67.8454
53.4591 4486 66.9776
53.5756 4362 66.0454
53.692 4254 65.2227
53.8084 4111 64.1171
53.9248 4036 63.5295
54.0411 3922 62.6259
54.1573 3737 61.131
54.2735 0 1
54.3896 0 1
54.5057 0 1
54.6217 0 1
54.7377 0 1
54.8537 0 1
54.9695 0 1
55.0853 0 1
55.2011 0 1
55.3168 0 1
55.4324 0 1
57.824 0 1
57.9396 0 1
58.0553 0 1
58.1711 0 1
58.2869 0 1
58.4028 0 1
58.5187 0 1
58.6347 0 1
58.7508 0 1
58.8669 0 1
58.983 4123 64.2106
59.0992 4722 68.7168
59.2155 5171 71.9097
59.3318 5546 74.4715
59.4482 5865 76.5833
59.5646 6040 77.7174
59.681 6242 79.0063
59.7975 6440 80.2496
59.9141 6415 80.0937
60.0306 6569 81.0494
60.1473 6990 83.6062
60.2639 6871 82.8915
60.3807 6702 81.8657
60.4974 6448 80.2994
60.6142 6237 78.9747
60.731 5617 74.9466
60.8479 4917 70.1213
60.9648 4716 68.6731
61.0818 4657 68.2422
61.1987 4785 69.1737
61.3158 4993 70.6612
61.4328 5460 73.8918
61.5499 6032 77.666
61.667 6721 81.9817
61.7841 7007 83.7078
61.9013 7260 85.2056
62.0185 7368 85.8371
62.1357 7392 85.9767
62.253 7175 84.7054
62.3702 7339 85.668
62.4875 7413 86.0988
62.6049 7549 86.885
62.7222 7784 88.227
62.8396 7933 89.0674
62.9569 7883 88.7863
63.0743 8068 89.822
63.1918 7899 88.8763
63.3092 7822 88.4421
63.4267 7733 87.9375
63.5441 7739 87.9716
63.6616 7802 88.3289
63.7791 7582 87.0747
63.8966 7590 87.1206
64.0142 7110 84.3208
64.1317 6437 80.2309
64.2492 5840 76.4199
64.3668 5307 72.8492
64.4843 4922 70.157
64.6019 4590 67.7495
64.7195 4661 68.2715
64.837 4958 70.4131
64.9546 5383 73.3689
65.0722 6196 78.7147
65.1898 6853 82.7828
65.3074 7353 85.7496
65.4249 7758 88.0795
65.5425 7721 87.8692
65.6601 7834 88.5099
65.7777 7561 86.954
65.8952 7713 87.8237
66.0128 7918 88.9831
66.1304 8077 89.8721
66.2479 8265 90.912
66.3655 8313 91.1757
66.483 8515 92.2768
66.6005 8546 92.4446
66.718 8525 92.3309
66.8355 8393 91.6133
66.953 8182 90.4544
67.0705 8294 91.0714
67.1879 8205 90.5815
67.3054 8178 90.4323
67.4228 8339 91.3181
67.5402 8006 89.4763
67.6576 7448 86.3018
67.7749 6858 82.813
67.8923 5965 77.2334
68.0096 5463 73.9121
68.1269 4843 69.5917
68.2442 4620 67.9706
68.3614 4713 68.6513
68.4787 4952 70.3704
68.5958 5579 74.6927
68.713 6433 80.206
68.8302 7172 84.6877
68.9473 7930 89.0505
69.0643 8411 91.7115
69.1814 8729 93.4291
69.2984 8743 93.504
69.4154 8150 90.2774
69.5323 7804 88.3403
69.6492 7890 88.8257
69.7661 8119 90.1055
69.8829 8018 89.5433
69.9997 8141 90.2275
70.1165 8118 90.0999
70.2332 7743 87.9943
70.3499 7775 88.176
70.4665 7664 87.5443
70.5831 7178 84.7231
70.6996 6801 82.4682
70.8161 6615 81.3327
70.9326 6477 80.4798
71.049 6154 78.4474
71.1653 5843 76.4395
71.2817 5323 72.9589
71.3979 4709 68.6222
71.5141 4012 63.3404
71.6303 3066 55.3715
71.7464 2095 45.7712
71.8624 0 1
71.9784 0 1
72.0944 0 1
72.2102 0 1
72.3261 0 1
72.4418 0 1
72.5575 0 1
72.6732 0 1
75.1054 0 1
75.2209 0 1
75.3365 0 1
75.4521 0 1
75.5678 0 1
75.6835 0 1
75.7993 0 1
75.9151 0 1
76.031 0 1
76.147 6289 79.3032
76.263 7010 83.7257
76.3791 7146 84.534
76.4952 7253 85.1645
76.6113 6814 82.547
76.7276 6575 81.0864
76.8438 5912 76.8895
76.9601 5227 72.298
77.0765 4848 69.6276
77.1929 4491 67.0149
77.3093 4304 65.6049
77.4258 4607 67.8749
77.5423 5267 72.5741
77.6589 6471 80.4425
77.7755 7634 87.3728
77.8921 8404 91.6733
78.0088 9075 95.2628
78.1256 9484 97.3858
78.2423 9471 97.3191
78.3591 9430 97.1082
78.4759 9425 97.0824
78.5928 9322 96.5505
78.7097 9459 97.2574
78.8266 9516 97.55
78.9436 10062 100.31
79.0606 9991 99.955
79.1776 10104 100.519
79.2946 10509 102.513
79.4117 10459 102.269
79.5288 10335 101.661
79.6459 10210 101.045
79.7631 10071 100.354
79.8802 10200 100.995
79.9974 10371 101.838
80.1147 10475 102.347
80.2319 9912 99.559
80.3491 9447 97.1957
80.4664 8452 91.9348
80.5837 7296 85.4166
80.701 6147 78.4028
80.8183 5436 73.7292
80.9357 5216 72.2219
81.053 5237 72.3671
81.1704 5700 75.4983
81.2877 6740 82.0975
81.4051 8024 89.5768
81.5225 9758 98.7826
81.6399 10631 103.107
81.7573 11271 106.165
81.8747 11265 106.137
81.9922 11522 107.341
82.1096 11132 105.508
82.227 11003 104.895
82.3444 10991 104.838
82.4619 11373 106.644
82.5793 11633 107.856
82.6967 12092 109.964
82.8142 12252 110.689
82.9316 12332 111.05
83.049 12339 111.081
83.1664 12040 109.727
83.2838 12126 110.118
83.4012 12141 110.186
83.5186 11940 109.27
83.636 11923 109.192
83.7534 11809 108.669
83.8708 11436 106.939
83.9881 10387 101.917
84.1055 9401 96.9588
84.2228 8340 91.3236
84.3401 7003 83.6839
84.4575 6064 77.8717
84.5747 5899 76.8049
84.692 5890 76.7463
84.8093 6495 80.5916
84.9265 7795 88.2893
85.0437 9597 97.9643
85.1609 10913 104.465
85.2781 12387 111.297
85.3952 12970 113.886
85.5123 13456 116
85.6294 13251 115.113
85.7465 13002 114.026
85.8636 12587 112.192
85.9806 12753 112.929
86.0976 13201 114.896
86.2145 13448 115.966
86.3315 14146 118.937
86.4484 13663 116.889
86.5652 13998 118.313
86.682 13560 116.447
86.7988 13363 115.598
86.9156 12981 113.934
87.0323 12508 111.839
87.149 12311 110.955
87.2657 12168 110.309
87.3823 12136 110.164
87.4988 11617 107.782
87.6154 10433 102.142
87.7318 9092 95.352
87.8483 7752 88.0454
87.9647 6063 77.8653
88.081 5119 71.5472
88.1973 4976 70.5408
88.3136 4914 70.0999
88.4298 5292 72.7461
88.546 6232 78.943
88.6621 7364 85.8138
88.7781 8144 90.2441
88.8942 0 1
89.0101 0 1
89.126 0 1
89.2419 0 1
89.3577 0 1
89.4734 0 1
89.5891 0 1
89.7047 0 1
89.8203 0 1
89.9358 0 1
92.3269 0 1
92.4424 0 1
92.558 0 1
92.6736 0 1
92.7893 0 1
92.905 0 1
93.0208 0 1
93.1366 0 1
93.2525 0 1
93.3685 0 1
93.4845 0 1
93.6005 5709 75.5579
93.7167 6027 77.6338
93.8328 7018 83.7735
93.949 8560 92.5203
94.0653 10565 102.786
94.1816 12499 111.799
94.2979 13562 116.456
94.4143 14698 121.235
94.5307 15330 123.814
94.6472 15711 125.344
94.7637 16068 126.76
94.8803 15908 126.127
94.9969 15691 125.264
95.1135 15808 125.73
95.2302 16474 128.351
95.3469 16730 129.345
95.4637 16698 129.221
95.5805 16902 130.008
95.6973 17089 130.725
95.8142 16854 129.823
95.9311 16720 129.306
96.048 16697 129.217
96.1649 16297 127.66
96.2819 16182 127.208
96.3989 16089 126.842
96.516 15783 125.63
96.633 14977 122.381
96.7501 13426 115.871
96.8673 11892 109.05
96.9844 10420 102.078
97.1016 9082 95.2995
97.2188 8313 91.1757
97.336 7695 87.7211
97.4532 7967 89.2581
97.5704 9237 96.1093
97.6877 11008 104.919
97.805 13078 114.359
97.9223 14666 121.103
98.0396 16065 126.748
98.1569 17236 131.286
98.2743 17387 131.86
98.3916 17148 130.95
98.509 16940 130.154
98.6264 16563 128.697
98.7438 16597 128.829
98.8612 17237 131.29
98.9786 17566 132.537
99.096 17739 133.188
99.2134 18032 134.283
99.3308 17861 133.645
99.4482 18135 134.666
99.5656 17623 132.752
99.6831 17436 132.045
99.8005 17554 132.492
99.9179 17249 131.335
100.035 17137 130.908
100.153 16770 129.499
100.27 15387 124.044
100.388 13767 117.333
100.505 11940 109.27
100.622 10410 102.029
100.74 9443 97.1751
100.857 8540 92.4121
100.975 8477 92.0706
101.092 9183 95.828
101.209 10893 104.37
101.327 13164 114.734
101.444 15262 123.539
101.561 16902 130.008
101.679 17615 132.722
101.796 18009 134.198
101.913 18073 134.436
102.03 17913 133.839
102.148 17518 132.356
102.265 17699 133.038
102.382 17755 133.248
102.499 18074 134.44
102.616 18185 134.852
102.733 18509 136.048
102.851 18600 136.382
102.968 18499 136.011
103.085 18294 135.255
103.202 18219 134.978
103.319 17589 132.624
103.436 17570 132.552
103.552 17679 132.962
103.669 17198 131.141
103.786 16556 128.67
103.903 15109 122.919
104.02 12993 113.987
104.137 11344 106.508
104.253 10198 100.985
104.37 9087 95.3258
104.487 8909 94.3875
104.603 9090 95.3415
104.72 9966 99.8299
104.836 11207 105.863
104.953 12492 111.768
105.069 13465 116.039
105.186 14231 119.294
105.302 14686 121.186
105.418 14164 119.013
105.535 13601 116.623
105.651 12818 113.217
105.767 11782 108.545
105.883 10782 103.836
105.999 9881 99.4032
106.115 0 1
106.231 0 1
106.347 0 1
106.463 0 1
106.579 0 1
106.694 0 1
106.81 0 1
106.926 0 1
107.041 0 1
107.157 0 1
109.576 0 1
109.692 0 1
109.807 0 1
109.923 0 1
110.039 0 1
110.155 0 1
110.27 0 1
110.386 0 1
110.502 0 1
110.618 10241 101.198
110.735 11046 105.1
110.851 11400 106.771
110.967 12105 110.023
111.083 12994 113.991
111.199 13852 117.695
111.316 14780 121.573
111.432 15234 123.426
111.549 15736 125.443
111.665 16207 127.307
111.782 15849 125.893
111.898 16048 126.681
112.015 15722 125.387
112.132 15306 123.717
112.248 15386 124.04
112.365 15760 125.539
112.482 15087 122.829
112.599 13622 116.713
112.716 11561 107.522
112.832 10266 101.321
112.949 9056 95.163
113.066 8173 90.4046
113.183 8052 89.7329
113.3 8098 89.9889
113.417 8885 94.2603
113.534 10780 103.827
113.652 12720 112.783
113.769 14110 118.786
113.886 14861 121.906
114.003 15410 124.137
114.12 15795 125.678
114.238 15404 124.113
114.355 14956 122.295
114.472 14741 121.413
114.589 14637 120.983
114.707 15025 122.577
114.824 15159 123.122
114.942 15600 124.9
115.059 15506 124.523
115.176 15346 123.879
115.294 15344 123.871
115.411 15214 123.345
115.529 14846 121.844
115.646 14462 120.258
115.764 14265 119.436
115.881 14081 118.663
115.999 14076 118.642
116.116 13437 115.918
116.234 11892 109.05
116.351 10470 102.323
116.469 9278 96.3224
116.586 8386 91.5751
116.704 7834 88.5099
116.821 7832 88.4986
116.939 7844 88.5664
117.056 8949 94.5992
117.174 10522 102.577
117.291 12095 109.977
117.409 13022 114.114
117.526 13590 116.576
117.644 14382 119.925
117.761 14300 119.583
117.879 13694 117.021
117.996 13318 115.404
118.114 13327 115.443
118.231 13508 116.224
118.349 13935 118.047
118.466 13896 117.881
118.584 13886 117.839
118.701 13699 117.043
118.819 13898 117.89
118.936 13591 116.58
119.053 13534 116.336
119.171 13043 114.206
119.288 12875 113.468
119.405 12629 112.379
119.523 12519 111.888
119.64 12372 111.229
119.757 11962 109.371
119.875 11068 105.205
119.992 9745 98.7168
120.109 8671 93.1182
120.226 7836 88.5212
120.343 7380 85.9069
120.46 7420 86.1394
120.578 7288 85.3698
120.695 7614 87.2582
120.812 8676 93.145
120.929 9871 99.3529
121.046 10613 103.019
121.163 11036 105.052
121.279 11372 106.64
121.396 11377 106.663
121.513 11230 105.972
121.63 10698 103.431
121.747 10407 102.015
121.863 10202 101.005
121.98 10403 101.995
122.097 10487 102.406
122.213 10132 100.658
122.33 9907 99.5339
122.446 10012 100.06
122.563 9468 97.3036
122.679 8750 93.5414
122.795 8394 91.6188
122.912 7760 88.0909
123.028 7400 86.0233
123.144 6851 82.7708
123.26 6436 80.2247
123.377 0 1
123.493 0 1
123.609 0 1
123.725 0 1
123.84 0 1
123.956 0 1
124.072 0 1
124.188 0 1
124.303 0 1
124.419 0 1
126.852 0 1
126.968 0 1
127.083 0 1
127.199 0 1
127.315 0 1
127.431 0 1
127.547 0 1
127.663 0 1
127.779 0 1
127.895 0 1
128.011 0 1
128.127 0 1
128.243 0 1
128.359 11599 107.699
128.476 11691 108.125
128.592 11702 108.176
128.708 11932 109.234
128.825 11874 108.968
128.941 11582 107.62
129.058 10850 104.163
129.174 9856 99.2774
129.291 9137 95.5877
129.408 8699 93.2684
129.524 8315 91.1866
129.641 8237 90.7579
129.758 8248 90.8185
129.875 9084 95.31
129.992 10088 100.439
130.108 10977 104.771
130.225 11792 108.591
130.342 12260 110.725
130.459 12263 110.738
130.576 12753 112.929
130.693 12077 109.895
130.81 11918 109.17
130.928 12279 110.811
131.045 12687 112.637
131.162 13002 114.026
131.279 12971 113.89
131.396 12665 112.539
131.513 12881 113.494
131.631 12799 113.133
131.748 12657 112.503
131.865 12334 111.059
131.983 11956 109.343
132.1 11951 109.321
132.217 11916 109.16
132.335 11981 109.458
132.452 11612 107.759
132.57 10976 104.766
132.687 10095 100.474
132.804 9594 97.949
132.922 8950 94.6044
133.039 8734 93.4559
133.157 8342 91.3345
133.274 8287 91.033
133.392 8665 93.086
133.509 9427 97.0927
133.627 10307 101.523
133.744 11120 105.451
133.862 11536 107.406
133.979 11931 109.229
134.097 12011 109.595
134.214 11944 109.289
134.332 11490 107.191
134.449 11758 108.434
134.567 12272 110.779
134.684 12412 111.409
134.802 12100 110
134.919 12580 112.161
135.037 12406 111.382
135.154 12207 110.485
135.272 12076 109.891
135.389 12005 109.567
135.507 11738 108.342
135.624 11487 107.177
135.742 11465 107.075
135.859 11574 107.583
135.977 11578 107.601
136.094 11246 106.047
136.211 10515 102.543
136.329 9994 99.97
136.446 9362 96.7574
136.564 9040 95.0789
136.681 8907 94.3769
136.798 8528 92.3472
136.915 8324 91.236
137.033 8644 92.9731
137.15 9139 95.5981
137.267 9790 98.9444
137.384 10198 100.985
137.502 10929 104.542
137.619 11119 105.447
137.736 11223 105.939
137.853 10713 103.504
137.97 10655 103.223
138.087 10724 103.557
138.204 11289 106.25
138.321 11369 106.626
138.438 11079 105.257
138.555 11365 106.607
138.672 10881 104.312
138.788 10678 103.334
138.905 10449 102.22
139.022 10022 100.11
139.139 9676 98.3667
139.255 9075 95.2628
139.372 8776 93.6803
139.488 8551 92.4716
139.605 8217 90.6477
139.721 7809 88.3685
139.838 7403 86.0407
139.954 6570 81.0555
140.071 5858 76.5376
140.187 5433 73.7089
140.303 4889 69.9214
140.419 4529 67.2978
140.535 4187 64.707
140.652 3867 62.1852
140.768 0 1
140.884 0 1
141 0 1
141.115 0 1
141.231 0 1
141.347 0 1
141.463 0 1
141.578 0 1
141.694 0 1
144.104 0 1
144.219 0 1
144.335 0 1
144.45 0 1
144.566 0 1
144.682 0 1
144.798 0 1
144.914 0 1
145.03 0 1
145.146 6612 81.3142
145.262 6632 81.4371
145.378 6554 80.9568
145.494 6610 81.3019
145.61 6652 81.5598
145.726 6487 80.5419
145.842 6386 79.9125
145.959 6592 81.1911
146.075 6963 83.4446
146.192 7226 85.0059
146.308 7236 85.0647
146.425 7519 86.7122
146.541 7654 87.4871
146.658 7429 86.1916
146.774 7379 85.9011
146.891 7369 85.8429
147.008 7676 87.6128
147.125 7890 88.8257
147.241 7999 89.4371
147.358 8172 90.3991
147.475 7913 88.955
147.592 8255 90.857
147.709 7915 88.9663
147.826 7866 88.6905
147.943 7669 87.5728
148.06 7543 86.8504
148.177 7469 86.4234
148.294 7390 85.9651
148.411 7510 86.6603
148.528 7671 87.5842
148.645 7461 86.3771
148.762 7414 86.1046
148.88 7281 85.3288
148.997 7181 84.7408
149.114 6783 82.359
149.231 6827 82.6257
149.349 6685 81.7618
149.466 6573 81.074
149.583 6428 80.1748
149.701 6646 81.523
149.818 6436 80.2247
149.935 6948 83.3547
150.053 6917 83.1685
150.17 7314 85.5219
150.287 7210 84.9117
150.405 7066 84.0595
150.522 7077 84.1249
150.64 7186 84.7703
150.757 7418 86.1278
150.875 7661 87.5271
150.992 7570 87.0057
151.11 7662 87.5329
151.227 7526 86.7525
151.344 7613 87.2525
151.462 7546 86.8677
151.579 7363 85.8079
151.697 7295 85.4108
151.814 7095 84.2318
151.932 6924 83.2106
152.049 7113 84.3386
152.167 7160 84.6168
152.284 6999 83.66
152.402 6963 83.4446
152.519 6774 82.3043
152.636 6605 81.2712
152.754 6611 81.3081
152.871 6516 80.7217
152.989 6293 79.3284
153.106 6166 78.5239
153.223 6256 79.0949
153.341 6158 78.4729
153.458 6336 79.599
153.575 6482 80.5109
153.693 6486 80.5357
153.81 6697 81.8352
153.927 6620 81.3634
154.044 6503 80.6412
154.162 6477 80.4798
154.279 6576 81.0925
154.396 6746 82.134
154.513 6984 83.5703
154.63 7095 84.2318
154.747 7016 83.7616
154.864 6821 82.5893
154.981 6809 82.5167
155.098 6519 80.7403
155.215 6491 80.5667
155.332 6613 81.3204
155.449 6314 79.4607
155.566 6336 79.599
155.683 6245 79.0253
155.8 6254 79.0822
155.917 6160 78.4857
156.033 5963 77.2205
156.15 0 1
156.267 0 1
156.383 0 1
156.5 0 1
156.617 0 1
156.733 0 1
156.85 0 1
156.966 0 1
157.082 0 1
157.199 0 1
157.315 0 1
157.431 0 1
157.547 0 1
157.664 0 1
157.78 0 1
157.896 0 1
158.012 0 1
158.128 0 1
158.244 0 1
158.359 0 1
158.475 0 1
158.591 0 1
158.706 0 1
