
6.15755 0 1
6.2731 0 1
6.3887 0 1
6.50437 0 1
6.62009 0 1
6.73587 0 1
6.8517 0 1
6.96759 0 1
7.08353 0 1
7.19952 0 1
7.31557 0 1
7.43166 0 1
7.54781 0 1
7.664 0 1
7.78024 0 1
7.89653 0 1
8.01286 0 1
8.12924 0 1
8.24567 0 1
8.36213 0 1
8.47864 0 1
8.59519 0 1
8.71178 0 1
8.82841 0 1
8.94508 0 1
9.06179 0 1
9.17853 0 1
9.29531 0 1
9.41212 0 1
9.52897 0 1
9.64584 0 1
9.76276 0 1
9.8797 0 1
9.99667 0 1
10.1137 0 1
10.2307 0 1
10.3478 0 1
10.4648 0 1
10.5819 0 1
10.6991 0 1
10.8162 0 1
10.9334 0 1
11.0506 0 1
11.1678 0 1
11.285 0 1
11.4023 0 1
11.5196 0 1
11.6369 0 1
11.7542 0 1
11.8715 0 1
11.9888 0 1
12.1062 0 1
12.2235 0 1
12.3409 0 1
12.4582 0 1
12.5756 0 1
12.693 0 1
12.8104 0 1
12.9278 0 1
13.0452 0 1
13.1626 0 1
13.28 0 1
13.3974 0 1
13.5149 0 1
13.6323 0 1
13.7497 0 1
13.8671 0 1
13.9845 0 1
14.1019 0 1
14.2193 0 1
14.3367 0 1
14.4541 0 1
14.5714 0 1
14.6888 0 1
14.8062 0 1
14.9235 0 1
15.0408 0 0
15.1581 0 0
15.2755 0 0
15.3927 0 0
15.51 0 0
15.6273 0 0
15.7445 0 0
15.8617 0 0
15.9789 0 0
16.0961 0 0
16.2132 0 0
16.3304 0 0
16.4475 0 0
16.5646 0 0
16.6816 0 0
16.7986 0 0
16.9156 0 0
17.0326 0 0
17.1496 0 0
17.2665 0 0
17.3833 0 0
17.5002 0 0
17.617 0 0
17.7338 0 0
17.8505 0 0
17.9672 0 0
18.0839 0 0
18.2005 0 0
18.3171 0 0
18.4337 0 0
18.5502 0 0
18.6666 0 0
18.7831 0 0
18.8994 0 0
19.0158 0 0
19.1321 0 0
19.2483 0 0
19.3645 0 0
19.4806 0 0
19.5967 0 0
19.7128 0 0
19.8288 0 0
19.9447 0 0
20.0606 0 1
20.1764 0 1
20.2922 0 1
20.4079 0 1
20.5236 0 1
20.6392 0 1
20.7548 0 1
20.8702 0 1
23.3078 0 1
23.4233 0 1
23.539 0 1
23.6547 0 1
23.7704 0 1
23.8862 0 1
24.0021 0 1
24.118 0 1
24.234 0 1
24.35 0 1
24.4661 1166 34.1467
24.5822 1137 33.7194
24.6984 1183 34.3948
24.8146 1216 34.8712
24.9309 1221 34.9428
25.0472 1191 34.5109
25.1636 1217 34.8855
25.28 1179 34.3366
25.3965 1282 35.805
25.513 1243 35.2562
25.6296 1223 34.9714
25.7462 1341 36.6197
25.8628 1265 35.5668
25.9795 1320 36.3318
26.0962 1292 35.9444
26.213 1313 36.2353
26.3298 1285 35.8469
26.4466 1236 35.1568
26.5635 1287 35.8748
26.6804 1228 35.0428
26.7973 1175 34.2783
26.9143 1179 34.3366
27.0313 1103 33.2114
27.1483 1047 32.3574
27.2653 1141 33.7787
27.3824 1157 34.0147
27.4996 1150 33.9116
27.6167 1111 33.3317
27.7339 1121 33.4813
27.8511 1113 33.3617
27.9683 1059 32.5423
28.0855 1030 32.0936
28.2028 1068 32.6803
28.3201 1019 31.9218
28.4374 1123 33.5112
28.5547 1106 33.2566
28.6721 1097 33.121
28.7894 1181 34.3657
28.9068 1230 35.0714
29.0242 1229 35.0571
29.1416 1295 35.9861
29.259 1231 35.0856
29.3764 1172 34.2345
29.4939 1214 34.8425
29.6113 1223 34.9714
29.7288 1205 34.7131
29.8463 1168 34.176
29.9638 1200 34.641
30.0812 1275 35.7071
30.1987 1165 34.1321
30.3162 1200 34.641
30.4337 1069 32.6956
30.5512 1030 32.0936
30.6687 1031 32.1092
30.7862 1015 31.8591
30.9037 1042 32.28
31.0212 1089 33
31.1387 1140 33.7639
31.2562 1085 32.9393
31.3737 1106 33.2566
31.4912 1030 32.0936
31.6087 1051 32.4191
31.7262 1031 32.1092
31.8436 1081 32.8786
31.9611 1141 33.7787
32.0785 1134 33.6749
32.1959 1160 34.0588
32.3134 1123 33.5112
32.4308 1149 33.8969
32.5482 1175 34.2783
32.6655 1137 33.7194
32.7829 1172 34.2345
32.9002 1214 34.8425
33.0176 1209 34.7707
33.1349 1123 33.5112
33.2522 1097 33.121
33.3694 1152 33.9411
33.4867 1149 33.8969
33.6039 1181 34.3657
33.7211 1177 34.3074
33.8383 1101 33.1813
33.9554 1135 33.6898
34.0725 1055 32.4808
34.1896 1050 32.4037
34.3067 957 30.9354
34.4237 1018 31.9061
34.5407 1016 31.8748
34.6577 1106 33.2566
34.7746 1015 31.8591
34.8915 1082 32.8938
35.0084 1059 32.5423
35.1252 1113 33.3617
35.242 1071 32.7261
35.3587 1045 32.3265
35.4755 1024 32
35.5921 1077 32.8177
35.7088 1004 31.686
35.8254 1117 33.4215
35.9419 1187 34.4529
36.0584 1163 34.1028
36.1749 1225 35
36.2913 1123 33.5112
36.4077 1166 34.1467
36.524 1112 33.3467
36.6403 1123 33.5112
36.7565 1170 34.2053
36.8727 1089 33
36.9889 1144 33.8231
37.1049 1117 33.4215
37.221 0 1
37.3369 0 1
37.4529 0 1
37.5687 0 1
37.6845 0 1
37.8003 0 1
37.916 0 1
38.0316 0 1
38.1472 0 1
40.5851 0 1
40.7008 0 1
40.8164 0 1
40.9322 0 1
41.048 0 1
41.1639 0 1
41.2798 0 1
41.3958 0 1
41.5118 0 1
41.6279 0 1
41.744 906 30.0998
41.8602 969 31.1288
41.9765 980 31.305
42.0928 963 31.0322
42.2091 984 31.3688
42.3255 873 29.5466
42.4419 905 30.0832
42.5584 925 30.4138
42.675 934 30.5614
42.7915 900 30
42.9081 896 29.9333
43.0248 811 28.4781
43.1415 822 28.6705
43.2582 793 28.1603
43.375 821 28.6531
43.4918 878 29.6311
43.6087 840 28.9828
43.7256 847 29.1033
43.8425 799 28.2666
43.9595 842 29.0172
44.0765 788 28.0713
44.1935 799 28.2666
44.3106 804 28.3549
44.4277 841 29
44.5448 815 28.5482
44.6619 843 29.0345
44.7791 853 29.2062
44.8963 870 29.4958
45.0136 808 28.4253
45.1308 816 28.5657
45.2481 832 28.8444
45.3654 810 28.4605
45.4827 817 28.5832
45.6001 827 28.7576
45.7174 847 29.1033
45.8348 803 28.3373
45.9522 811 28.4781
46.0697 825 28.7228
46.1871 840 28.9828
46.3046 771 27.7669
46.422 729 27
46.5395 739 27.1846
46.657 678 26.0384
46.7745 660 25.6905
46.892 633 25.1595
47.0096 647 25.4362
47.1271 691 26.2869
47.2446 690 26.2679
47.3622 646 25.4165
47.4797 657 25.632
47.5973 621 24.9199
47.7149 658 25.6515
47.8324 685 26.1725
47.95 683 26.1343
48.0675 625 25
48.1851 639 25.2784
48.3027 678 26.0384
48.4202 625 25
48.5378 654 25.5734
48.6554 647 25.4362
48.7729 637 25.2389
48.8904 679 26.0576
49.008 634 25.1794
49.1255 652 25.5343
49.243 696 26.3818
49.3605 589 24.2693
49.478 690 26.2679
49.5955 639 25.2784
49.713 628 25.0599
49.8304 666 25.807
49.9479 654 25.5734
50.0653 718 26.7955
50.1827 641 25.318
50.3001 570 23.8747
50.4175 586 24.2074
50.5348 603 24.5561
50.6521 645 25.3969
50.7694 687 26.2107
50.8867 719 26.8142
51.004 685 26.1725
51.1212 680 26.0768
51.2384 695 26.3629
51.3556 767 27.6948
51.4727 780 27.9285
51.5899 822 28.6705
51.707 819 28.6182
51.824 824 28.7054
51.9411 821 28.6531
52.0581 845 29.0689
52.175 832 28.8444
52.2919 884 29.7321
52.4088 811 28.4781
52.5257 880 29.6648
52.6425 857 29.2746
52.7593 845 29.0689
52.876 879 29.6479
52.9927 872 29.5296
53.1094 913 30.2159
53.226 880 29.6648
53.3426 900 30
53.4591 913 30.2159
53.5756 900 30
53.692 862 29.3598
53.8084 857 29.2746
53.9248 824 28.7054
54.0411 756 27.4955
54.1573 755 27.4773
54.2735 0 1
54.3896 0 1
54.5057 0 1
54.6217 0 1
54.7377 0 1
54.8537 0 1
54.9695 0 1
55.0853 0 1
55.2011 0 1
55.3168 0 1
55.4324 0 1
57.824 0 1
57.9396 0 1
58.0553 0 1
58.1711 0 1
58.2869 0 1
58.4028 0 1
58.5187 0 1
58.6347 0 1
58.7508 0 1
58.8669 0 1
58.983 896 29.9333
59.0992 886 29.7658
59.2155 851 29.1719
59.3318 868 29.4618
59.4482 896 29.9333
59.5646 874 29.5635
59.681 902 30.0333
59.7975 959 30.9677
59.9141 952 30.8545
60.0306 916 30.2655
60.1473 944 30.7246
60.2639 965 31.0644
60.3807 985 31.3847
60.4974 965 31.0644
60.6142 927 30.4467
60.731 951 30.8383
60.8479 1039 32.2335
60.9648 944 30.7246
61.0818 969 31.1288
61.1987 951 30.8383
61.3158 980 31.305
61.4328 936 30.5941
61.5499 943 30.7083
61.667 882 29.6985
61.7841 921 30.348
61.9013 805 28.3725
62.0185 906 30.0998
62.1357 884 29.7321
62.253 879 29.6479
62.3702 889 29.8161
62.4875 879 29.6479
62.6049 764 27.6405
62.7222 749 27.3679
62.8396 728 26.9815
62.9569 790 28.1069
63.0743 802 28.3196
63.1918 837 28.931
63.3092 813 28.5132
63.4267 830 28.8097
63.5441 847 29.1033
63.6616 869 29.4788
63.7791 886 29.7658
63.8966 881 29.6816
64.0142 867 29.4449
64.1317 855 29.2404
64.2492 812 28.4956
64.3668 795 28.1957
64.4843 784 28
64.6019 830 28.8097
64.7195 786 28.0357
64.837 800 28.2843
64.9546 806 28.3901
65.0722 781 27.9464
65.1898 811 28.4781
65.3074 815 28.5482
65.4249 766 27.6767
65.5425 797 28.2312
65.6601 810 28.4605
65.7777 781 27.9464
65.8952 768 27.7128
66.0128 719 26.8142
66.1304 694 26.3439
66.2479 713 26.7021
66.3655 620 24.8998
66.483 656 25.6125
66.6005 707 26.5895
66.718 739 27.1846
66.8355 696 26.3818
66.953 680 26.0768
67.0705 724 26.9072
67.1879 742 27.2397
67.3054 720 26.8328
67.4228 802 28.3196
67.5402 742 27.2397
67.6576 756 27.4955
67.7749 711 26.6646
67.8923 741 27.2213
68.0096 691 26.2869
68.1269 730 27.0185
68.2442 721 26.8514
68.3614 732 27.0555
68.4787 702 26.4953
68.5958 705 26.5518
68.713 705 26.5518
68.8302 739 27.1846
68.9473 760 27.5681
69.0643 689 26.2488
69.1814 714 26.7208
69.2984 706 26.5707
69.4154 721 26.8514
69.5323 722 26.8701
69.6492 688 26.2298
69.7661 687 26.2107
69.8829 665 25.7876
69.9997 589 24.2693
70.1165 611 24.7184
70.2332 675 25.9808
70.3499 639 25.2784
70.4665 623 24.96
70.5831 647 25.4362
70.6996 680 26.0768
70.8161 642 25.3377
70.9326 653 25.5539
71.049 672 25.923
71.1653 646 25.4165
71.2817 664 25.7682
71.3979 636 25.219
71.5141 623 24.96
71.6303 609 24.6779
71.7464 527 22.9565
71.8624 0 1
71.9784 0 1
72.0944 0 1
72.2102 0 1
72.3261 0 1
72.4418 0 1
72.5575 0 1
72.6732 0 1
75.1054 0 1
75.2209 0 1
75.3365 0 1
75.4521 0 1
75.5678 0 1
75.6835 0 1
75.7993 0 1
75.9151 0 1
76.031 0 1
76.147 491 22.1585
76.263 487 22.0681
76.3791 557 23.6008
76.4952 502 22.4054
76.6113 507 22.5167
76.7276 538 23.1948
76.8438 527 22.9565
76.9601 520 22.8035
77.0765 507 22.5167
77.1929 496 22.2711
77.3093 481 21.9317
77.4258 527 22.9565
77.5423 471 21.7025
77.6589 506 22.4944
77.7755 514 22.6716
77.8921 470 21.6795
78.0088 469 21.6564
78.1256 487 22.0681
78.2423 484 22
78.3591 450 21.2132
78.4759 411 20.2731
78.5928 439 20.9523
78.7097 400 20
78.8266 392 19.799
78.9436 416 20.3961
79.0606 363 19.0526
79.1776 323 17.9722
79.2946 350 18.7083
79.4117 374 19.3391
79.5288 375 19.3649
79.6459 385 19.6214
79.7631 361 19
79.8802 385 19.6214
79.9974 320 17.8885
80.1147 354 18.8149
80.2319 337 18.3576
80.3491 316 17.7764
80.4664 292 17.088
80.5837 311 17.6352
80.701 311 17.6352
80.8183 284 16.8523
80.9357 328 18.1108
81.053 302 17.3781
81.1704 305 17.4642
81.2877 298 17.2627
81.4051 285 16.8819
81.5225 261 16.1555
81.6399 269 16.4012
81.7573 247 15.7162
81.8747 224 14.9666
81.9922 249 15.7797
82.1096 243 15.5885
82.227 202 14.2127
82.3444 229 15.1327
82.4619 213 14.5945
82.5793 220 14.8324
82.6967 192 13.8564
82.8142 174 13.1909
82.9316 175 13.2288
83.049 165 12.8452
83.1664 163 12.7671
83.2838 194 13.9284
83.4012 164 12.8062
83.5186 170 13.0384
83.636 141 11.8743
83.7534 147 12.1244
83.8708 133 11.5326
83.9881 119 10.9087
84.1055 121 11
84.2228 120 10.9545
84.3401 116 10.7703
84.4575 112 10.583
84.5747 118 10.8628
84.692 104 10.198
84.8093 114 10.6771
84.9265 102 10.0995
85.0437 89 9.43398
85.1609 102 10.0995
85.2781 94 9.69536
85.3952 109 10.4403
85.5123 112 10.583
85.6294 89 9.43398
85.7465 101 10.0499
85.8636 89 9.43398
85.9806 91 9.53939
86.0976 82 9.05539
86.2145 78 8.83176
86.3315 82 9.05539
86.4484 117 10.8167
86.5652 132 11.4891
86.682 106 10.2956
86.7988 143 11.9583
86.9156 138 11.7473
87.0323 127 11.2694
87.149 124 11.1355
87.2657 123 11.0905
87.3823 153 12.3693
87.4988 163 12.7671
87.6154 167 12.9228
87.7318 177 13.3041
87.8483 169 13
87.9647 157 12.53
88.081 196 14
88.1973 214 14.6287
88.3136 221 14.8661
88.4298 228 15.0997
88.546 199 14.1067
88.6621 233 15.2643
88.7781 224 14.9666
88.8942 0 1
89.0101 0 1
89.126 0 1
89.2419 0 1
89.3577 0 1
89.4734 0 1
89.5891 0 1
89.7047 0 1
89.8203 0 1
89.9358 0 1
92.3269 0 1
92.4424 0 1
92.558 0 1
92.6736 0 1
92.7893 0 1
92.905 0 1
93.0208 0 1
93.1366 0 1
93.2525 0 1
93.3685 0 1
93.4845 0 1
93.6005 396 19.8997
93.7167 380 19.4936
93.8328 395 19.8746
93.949 311 17.6352
94.0653 318 17.8326
94.1816 324 18
94.2979 338 18.3848
94.4143 283 16.8226
94.5307 287 16.9411
94.6472 279 16.7033
94.7637 289 17
94.8803 329 18.1384
94.9969 291 17.0587
95.1135 315 17.7482
95.2302 284 16.8523
95.3469 231 15.1987
95.4637 245 15.6525
95.5805 218 14.7648
95.6973 282 16.7929
95.8142 316 17.7764
95.9311 332 18.2209
96.048 312 17.6635
96.1649 342 18.4932
96.2819 345 18.5742
96.3989 338 18.3848
96.516 377 19.4165
96.633 354 18.8149
96.7501 380 19.4936
96.8673 391 19.7737
96.9844 382 19.5448
97.1016 420 20.4939
97.2188 434 20.8327
97.336 436 20.8806
97.4532 429 20.7123
97.5704 432 20.7846
97.6877 452 21.2603
97.805 433 20.8087
97.9223 454 21.3073
98.0396 508 22.5389
98.1569 470 21.6795
98.2743 498 22.3159
98.3916 490 22.1359
98.509 517 22.7376
98.6264 465 21.5639
98.7438 531 23.0434
98.8612 521 22.8254
98.9786 460 21.4476
99.096 391 19.7737
99.2134 391 19.7737
99.3308 515 22.6936
99.4482 622 24.9399
99.5656 601 24.5153
99.6831 642 25.3377
99.8005 639 25.2784
99.9179 608 24.6577
100.035 663 25.7488
100.153 622 24.9399
100.27 633 25.1595
100.388 655 25.593
100.505 693 26.3249
100.622 633 25.1595
100.74 667 25.8263
100.857 678 26.0384
100.975 702 26.4953
101.092 706 26.5707
101.209 663 25.7488
101.327 650 25.4951
101.444 667 25.8263
101.561 729 27
101.679 746 27.313
101.796 735 27.1109
101.913 718 26.7955
102.03 726 26.9444
102.148 739 27.1846
102.265 755 27.4773
102.382 691 26.2869
102.499 722 26.8701
102.616 547 23.388
102.733 465 21.5639
102.851 576 24
102.968 729 27
103.085 688 26.2298
103.202 728 26.9815
103.319 759 27.55
103.436 804 28.3549
103.552 764 27.6405
103.669 743 27.258
103.786 749 27.3679
103.903 734 27.0924
104.02 757 27.5136
104.137 794 28.178
104.253 753 27.4408
104.37 782 27.9643
104.487 814 28.5307
104.603 783 27.9821
104.72 772 27.7849
104.836 825 28.7228
104.953 748 27.3496
105.069 762 27.6043
105.186 762 27.6043
105.302 811 28.4781
105.418 769 27.7308
105.535 821 28.6531
105.651 815 28.5482
105.767 778 27.8927
105.883 688 26.2298
105.999 693 26.3249
106.115 0 1
106.231 0 1
106.347 0 1
106.463 0 1
106.579 0 1
106.694 0 1
106.81 0 1
106.926 0 1
107.041 0 1
107.157 0 1
109.576 0 1
109.692 0 1
109.807 0 1
109.923 0 1
110.039 0 1
110.155 0 1
110.27 0 1
110.386 0 1
110.502 0 1
110.618 647 25.4362
110.735 610 24.6982
110.851 678 26.0384
110.967 676 26
111.083 568 23.8328
111.199 486 22.0454
111.316 454 21.3073
111.432 530 23.0217
111.549 537 23.1733
111.665 579 24.0624
111.782 618 24.8596
111.898 618 24.8596
112.015 651 25.5147
112.132 610 24.6982
112.248 600 24.4949
112.365 536 23.1517
112.482 551 23.4734
112.599 548 23.4094
112.716 514 22.6716
112.832 544 23.3238
112.949 482 21.9545
113.066 503 22.4277
113.183 518 22.7596
113.3 485 22.0227
113.417 502 22.4054
113.534 489 22.1133
113.652 466 21.587
113.769 501 22.383
113.886 506 22.4944
114.003 463 21.5174
114.12 452 21.2603
114.238 490 22.1359
114.355 456 21.3542
114.472 422 20.5426
114.589 445 21.095
114.707 415 20.3715
114.824 406 20.1494
114.942 410 20.2485
115.059 391 19.7737
115.176 431 20.7605
115.294 466 21.587
115.411 471 21.7025
115.529 464 21.5407
115.646 464 21.5407
115.764 506 22.4944
115.881 483 21.9773
115.999 438 20.9284
116.116 480 21.9089
116.234 460 21.4476
116.351 437 20.9045
116.469 413 20.3224
116.586 462 21.4942
116.704 449 21.1896
116.821 415 20.3715
116.939 431 20.7605
117.056 487 22.0681
117.174 425 20.6155
117.291 436 20.8806
117.409 455 21.3307
117.526 452 21.2603
117.644 449 21.1896
117.761 413 20.3224
117.879 394 19.8494
117.996 349 18.6815
118.114 348 18.6548
118.231 371 19.2614
118.349 409 20.2237
118.466 411 20.2731
118.584 459 21.4243
118.701 481 21.9317
118.819 425 20.6155
118.936 428 20.6882
119.053 460 21.4476
119.171 423 20.567
119.288 477 21.8403
119.405 439 20.9523
119.523 445 21.095
119.64 464 21.5407
119.757 450 21.2132
119.875 487 22.0681
119.992 483 21.9773
120.109 479 21.8861
120.226 477 21.8403
120.343 448 21.166
120.46 466 21.587
120.578 448 21.166
120.695 454 21.3073
120.812 492 22.1811
120.929 495 22.2486
121.046 500 22.3607
121.163 494 22.2261
121.279 500 22.3607
121.396 447 21.1424
121.513 433 20.8087
121.63 405 20.1246
121.747 364 19.0788
121.863 344 18.5472
121.98 409 20.2237
122.097 444 21.0713
122.213 486 22.0454
122.33 486 22.0454
122.446 465 21.5639
122.563 460 21.4476
122.679 496 22.2711
122.795 506 22.4944
122.912 516 22.7156
123.028 478 21.8632
123.144 489 22.1133
123.26 542 23.2809
123.377 0 1
123.493 0 1
123.609 0 1
123.725 0 1
123.84 0 1
123.956 0 1
124.072 0 1
124.188 0 1
124.303 0 1
124.419 0 1
126.852 0 1
126.968 0 1
127.083 0 1
127.199 0 1
127.315 0 1
127.431 0 1
127.547 0 1
127.663 0 1
127.779 0 1
127.895 0 1
128.011 0 1
128.127 0 1
128.243 0 1
128.359 593 24.3516
128.476 608 24.6577
128.592 655 25.593
128.708 682 26.1151
128.825 621 24.9199
128.941 617 24.8395
129.058 622 24.9399
129.174 640 25.2982
129.291 636 25.219
129.408 639 25.2784
129.524 621 24.9199
129.641 635 25.1992
129.758 622 24.9399
129.875 612 24.7386
129.992 684 26.1534
130.108 632 25.1396
130.225 643 25.3574
130.342 606 24.6171
130.459 484 22
130.576 483 21.9773
130.693 426 20.6398
130.81 446 21.1187
130.928 471 21.7025
131.045 542 23.2809
131.162 668 25.8457
131.279 682 26.1151
131.396 655 25.593
131.513 655 25.593
131.631 674 25.9615
131.748 700 26.4575
131.865 694 26.3439
131.983 697 26.4008
132.1 703 26.5141
132.217 707 26.5895
132.335 656 25.6125
132.452 709 26.6271
132.57 688 26.2298
132.687 705 26.5518
132.804 705 26.5518
132.922 681 26.096
133.039 717 26.7769
133.157 721 26.8514
133.274 714 26.7208
133.392 699 26.4386
133.509 698 26.4197
133.627 709 26.6271
133.744 671 25.9037
133.862 617 24.8395
133.979 653 25.5539
134.097 558 23.622
134.214 471 21.7025
134.332 550 23.4521
134.449 524 22.891
134.567 576 24
134.684 648 25.4558
134.802 685 26.1725
134.919 668 25.8457
135.037 749 27.3679
135.154 721 26.8514
135.272 777 27.8747
135.389 737 27.1477
135.507 759 27.55
135.624 777 27.8747
135.742 747 27.3313
135.859 802 28.3196
135.977 791 28.1247
136.094 759 27.55
136.211 778 27.8927
136.329 769 27.7308
136.446 756 27.4955
136.564 739 27.1846
136.681 775 27.8388
136.798 789 28.0891
136.915 721 26.8514
137.033 791 28.1247
137.15 823 28.688
137.267 758 27.5318
137.384 760 27.5681
137.502 695 26.3629
137.619 674 25.9615
137.736 585 24.1868
137.853 619 24.8797
137.97 588 24.2487
138.087 625 25
138.204 596 24.4131
138.321 620 24.8998
138.438 707 26.5895
138.555 785 28.0179
138.672 816 28.5657
138.788 745 27.2947
138.905 835 28.8964
139.022 791 28.1247
139.139 841 29
139.255 856 29.2575
139.372 850 29.1548
139.488 868 29.4618
139.605 876 29.5973
139.721 798 28.2489
139.838 813 28.5132
139.954 819 28.6182
140.071 795 28.1957
140.187 868 29.4618
140.303 839 28.9655
140.419 833 28.8617
140.535 819 28.6182
140.652 807 28.4077
140.768 0 1
140.884 0 1
141 0 1
141.115 0 1
141.231 0 1
141.347 0 1
141.463 0 1
141.578 0 1
141.694 0 1
144.104 0 1
144.219 0 1
144.335 0 1
144.45 0 1
144.566 0 1
144.682 0 1
144.798 0 1
144.914 0 1
145.03 0 1
145.146 817 28.5832
145.262 736 27.1293
145.378 778 27.8927
145.494 769 27.7308
145.61 838 28.9482
145.726 787 28.0535
145.842 817 28.5832
145.959 740 27.2029
146.075 705 26.5518
146.192 728 26.9815
146.308 668 25.8457
146.425 700 26.4575
146.541 648 25.4558
146.658 664 25.7682
146.774 660 25.6905
146.891 659 25.671
147.008 685 26.1725
147.125 775 27.8388
147.241 768 27.7128
147.358 804 28.3549
147.475 826 28.7402
147.592 779 27.9106
147.709 848 29.1204
147.826 780 27.9285
147.943 823 28.688
148.06 800 28.2843
148.177 783 27.9821
148.294 823 28.688
148.411 805 28.3725
148.528 772 27.7849
148.645 787 28.0535
148.762 826 28.7402
148.88 812 28.4956
148.997 720 26.8328
149.114 868 29.4618
149.231 801 28.3019
149.349 736 27.1293
149.466 755 27.4773
149.583 703 26.5141
149.701 702 26.4953
149.818 697 26.4008
149.935 666 25.807
150.053 653 25.5539
150.17 666 25.807
150.287 658 25.6515
150.405 696 26.3818
150.522 698 26.4197
150.64 696 26.3818
150.757 702 26.4953
150.875 774 27.8209
150.992 798 28.2489
151.11 816 28.5657
151.227 850 29.1548
151.344 796 28.2135
151.462 851 29.1719
151.579 794 28.178
151.697 813 28.5132
151.814 857 29.2746
151.932 853 29.2062
152.049 842 29.0172
152.167 839 28.9655
152.284 844 29.0517
152.402 795 28.1957
152.519 856 29.2575
152.636 816 28.5657
152.754 807 28.4077
152.871 855 29.2404
152.989 802 28.3196
153.106 741 27.2213
153.223 765 27.6586
153.341 768 27.7128
153.458 745 27.2947
153.575 710 26.6458
153.693 707 26.5895
153.81 692 26.3059
153.927 702 26.4953
154.044 747 27.3313
154.162 750 27.3861
154.279 778 27.8927
154.396 804 28.3549
154.513 821 28.6531
154.63 855 29.2404
154.747 863 29.3769
154.864 913 30.2159
154.981 806 28.3901
155.098 866 29.4279
155.215 863 29.3769
155.332 862 29.3598
155.449 858 29.2916
155.566 880 29.6648
155.683 881 29.6816
155.8 852 29.189
155.917 864 29.3939
156.033 915 30.249
156.15 0 1
156.267 0 1
156.383 0 1
156.5 0 1
156.617 0 1
156.733 0 1
156.85 0 1
156.966 0 1
157.082 0 1
157.199 0 1
157.315 0 1
157.431 0 1
157.547 0 1
157.664 0 1
157.78 0 1
157.896 0 1
158.012 0 1
158.128 0 1
158.244 0 1
158.359 0 1
158.475 0 1
158.591 0 1
158.706 0 1
