
6.15755 0 1
6.2731 0 1
6.3887 0 1
6.50437 0 1
6.62009 0 1
6.73587 0 1
6.8517 0 1
6.96759 0 1
7.08353 0 1
7.19952 0 1
7.31557 0 1
7.43166 0 1
7.54781 0 1
7.664 0 1
7.78024 0 1
7.89653 0 1
8.01286 0 1
8.12924 0 1
8.24567 0 1
8.36213 0 1
8.47864 0 1
8.59519 0 1
8.71178 0 1
8.82841 0 1
8.94508 0 1
9.06179 0 1
9.17853 0 1
9.29531 0 1
9.41212 0 1
9.52897 0 1
9.64584 0 1
9.76276 0 1
9.8797 0 1
9.99667 0 1
10.1137 0 1
10.2307 0 1
10.3478 0 1
10.4648 0 1
10.5819 0 1
10.6991 0 1
10.8162 0 1
10.9334 0 1
11.0506 0 1
11.1678 0 1
11.285 0 1
11.4023 0 1
11.5196 0 1
11.6369 0 1
11.7542 0 1
11.8715 0 1
11.9888 0 1
12.1062 0 1
12.2235 0 1
12.3409 0 1
12.4582 0 1
12.5756 0 1
12.693 0 1
12.8104 0 1
12.9278 0 1
13.0452 0 1
13.1626 0 1
13.28 0 1
13.3974 0 1
13.5149 0 1
13.6323 0 1
13.7497 0 1
13.8671 0 1
13.9845 0 1
14.1019 0 1
14.2193 0 1
14.3367 0 1
14.4541 0 1
14.5714 0 1
14.6888 0 1
14.8062 0 1
14.9235 0 1
15.0408 8512 92.2605
15.1581 8929 94.4934
15.2755 9208 95.9583
15.3927 9330 96.5919
15.51 9224 96.0417
15.6273 9206 95.9479
15.7445 9155 95.6818
15.8617 9202 95.9271
15.9789 9063 95.1998
16.0961 9394 96.9226
16.2132 9460 97.2625
16.3304 9660 98.2853
16.4475 10016 100.08
16.5646 10405 102.005
16.6816 10628 103.092
16.7986 11044 105.09
16.9156 11421 106.869
17.0326 11540 107.424
17.1496 11812 108.683
17.2665 11954 109.334
17.3833 11916 109.16
17.5002 12118 110.082
17.617 12452 111.589
17.7338 12544 112
17.8505 12589 112.201
17.9672 12283 110.829
18.0839 11621 107.801
18.2005 11000 104.881
18.3171 11162 105.65
18.4337 11839 108.807
18.5502 12248 110.671
18.6666 12744 112.889
18.7831 12664 112.534
18.8994 12743 112.885
19.0158 12409 111.396
19.1321 12228 110.58
19.2483 12022 109.645
19.3645 11783 108.55
19.4806 11430 106.911
19.5967 11449 107
19.7128 11169 105.683
19.8288 10691 103.397
19.9447 9896 99.4786
20.0606 0 1
20.1764 0 1
20.2922 0 1
20.4079 0 1
20.5236 0 1
20.6392 0 1
20.7548 0 1
20.8702 0 1
23.3078 0 1
23.4233 0 1
23.539 0 1
23.6547 0 1
23.7704 0 1
23.8862 0 1
24.0021 0 1
24.118 0 1
24.234 0 1
24.35 0 1
24.4661 11403 106.785
24.5822 11416 106.846
24.6984 11314 106.367
24.8146 11076 105.243
24.9309 11324 106.414
25.0472 11219 105.92
25.1636 11151 105.598
25.28 11304 106.32
25.3965 11885 109.018
25.513 12047 109.759
25.6296 12584 112.178
25.7462 12853 113.371
25.8628 12976 113.912
25.9795 13190 114.848
26.0962 13503 116.202
26.213 13332 115.464
26.3298 13354 115.56
26.4466 13276 115.222
26.5635 12923 113.679
26.6804 12496 111.786
26.7973 11929 109.22
26.9143 11600 107.703
27.0313 12159 110.268
27.1483 12978 113.921
27.2653 13005 114.039
27.3824 13131 114.591
27.4996 13090 114.412
27.6167 12738 112.863
27.7339 12404 111.373
27.8511 12234 110.607
27.9683 11762 108.453
28.0855 11693 108.134
28.2028 11674 108.046
28.3201 11214 105.896
28.4374 11240 106.019
28.5547 11202 105.84
28.6721 11118 105.442
28.7894 11152 105.603
28.9068 11253 106.08
29.0242 11471 107.103
29.1416 11898 109.078
29.259 12071 109.868
29.3764 12434 111.508
29.4939 12645 112.45
29.6113 12935 113.732
29.7288 12748 112.907
29.8463 12716 112.765
29.9638 12915 113.644
30.0812 12645 112.45
30.1987 12124 110.109
30.3162 11453 107.019
30.4337 10875 104.283
30.5512 11242 106.028
30.6687 11659 107.977
30.7862 12392 111.319
30.9037 12222 110.553
31.0212 12583 112.174
31.1387 12376 111.247
31.2562 12258 110.716
31.3737 12068 109.854
31.4912 11712 108.222
31.6087 11620 107.796
31.7262 11447 106.991
31.8436 10963 104.704
31.9611 11131 105.504
32.0785 10895 104.379
32.1959 10916 104.48
32.3134 10757 103.716
32.4308 11091 105.314
32.5482 11047 105.105
32.6655 11400 106.771
32.7829 11719 108.254
32.9002 11958 109.353
33.0176 12387 111.297
33.1349 12676 112.588
33.2522 12791 113.097
33.3694 12397 111.342
33.4867 12744 112.889
33.6039 12661 112.521
33.7211 12356 111.158
33.8383 11788 108.573
33.9554 11233 105.986
34.0725 10493 102.435
34.1896 10362 101.794
34.3067 10783 103.841
34.4237 11342 106.499
34.5407 11611 107.754
34.6577 11760 108.444
34.7746 11856 108.885
34.8915 11715 108.236
35.0084 11496 107.219
35.1252 11369 106.626
35.242 11340 106.489
35.3587 11155 105.617
35.4755 10964 104.709
35.5921 10840 104.115
35.7088 10692 103.402
35.8254 10546 102.694
35.9419 10475 102.347
36.0584 10369 101.828
36.1749 10521 102.572
36.2913 10535 102.64
36.4077 10767 103.764
36.524 11273 106.174
36.6403 11301 106.306
36.7565 11764 108.462
36.8727 12039 109.722
36.9889 11849 108.853
37.1049 11690 108.12
37.221 0 1
37.3369 0 1
37.4529 0 1
37.5687 0 1
37.6845 0 1
37.8003 0 1
37.916 0 1
38.0316 0 1
38.1472 0 1
40.5851 0 1
40.7008 0 1
40.8164 0 1
40.9322 0 1
41.048 0 1
41.1639 0 1
41.2798 0 1
41.3958 0 1
41.5118 0 1
41.6279 0 1
41.744 8574 92.5959
41.8602 9127 95.5353
41.9765 9871 99.3529
42.0928 9950 99.7497
42.2091 9844 99.2169
42.3255 10060 100.3
42.4419 9925 99.6243
42.5584 9897 99.4837
42.675 9569 97.8213
42.7915 8841 94.0266
42.9081 8284 91.0165
43.0248 8080 89.8888
43.1415 8464 92
43.2582 8682 93.1773
43.375 8944 94.5727
43.4918 9059 95.1788
43.6087 9220 96.0208
43.7256 9090 95.3415
43.8425 8846 94.0532
43.9595 8850 94.0744
44.0765 8722 93.3916
44.1935 8497 92.1792
44.3106 8218 90.6532
44.4277 7909 88.9326
44.5448 7605 87.2067
44.6619 7397 86.0058
44.7791 7173 84.6936
44.8963 7077 84.1249
45.0136 6877 82.9277
45.1308 6998 83.654
45.2481 7017 83.7675
45.3654 7279 85.3171
45.4827 7277 85.3053
45.6001 7656 87.4986
45.7174 7791 88.2666
45.8348 7707 87.7895
45.9522 7631 87.3556
46.0697 7526 86.7525
46.1871 7254 85.1704
46.3046 6937 83.2887
46.422 6390 79.9375
46.5395 6126 78.2688
46.657 6085 78.0064
46.7745 6414 80.0875
46.892 6633 81.4432
47.0096 6718 81.9634
47.1271 6900 83.0662
47.2446 6829 82.6378
47.3622 6926 83.2226
47.4797 6664 81.6333
47.5973 6517 80.7279
47.7149 6512 80.697
47.8324 6207 78.7845
47.95 6240 78.9937
48.0675 5972 77.2787
48.1851 5891 76.7529
48.3027 5679 75.3591
48.4202 5470 73.9594
48.5378 5471 73.9662
48.6554 5451 73.8309
48.7729 5653 75.1864
48.8904 5923 76.961
49.008 6123 78.2496
49.1255 6199 78.7337
49.243 6507 80.666
49.3605 6604 81.265
49.478 6574 81.0802
49.5955 6635 81.4555
49.713 6520 80.7465
49.8304 6089 78.032
49.9479 5874 76.642
50.0653 5318 72.9246
50.1827 5386 73.3894
50.3001 5819 76.2824
50.4175 6180 78.613
50.5348 6445 80.2808
50.6521 6682 81.7435
50.7694 7205 84.8823
50.8867 7224 84.9941
51.004 7156 84.5931
51.1212 7558 86.9368
51.2384 7352 85.7438
51.3556 7278 85.3112
51.4727 7327 85.5979
51.5899 7380 85.9069
51.707 7110 84.3208
51.824 7101 84.2674
51.9411 7347 85.7146
52.0581 6972 83.4985
52.175 7070 84.0833
52.2919 7641 87.4128
52.4088 7933 89.0674
52.5257 8321 91.2195
52.6425 8769 93.6429
52.7593 8853 94.0904
52.876 9104 95.4149
52.9927 9140 95.6033
53.1094 9193 95.8801
53.226 9331 96.5971
53.3426 9073 95.2523
53.4591 8799 93.803
53.5756 8182 90.4544
53.692 7772 88.1589
53.8084 7511 86.666
53.9248 8087 89.9277
54.0411 8889 94.2815
54.1573 9077 95.2733
54.2735 0 1
54.3896 0 1
54.5057 0 1
54.6217 0 1
54.7377 0 1
54.8537 0 1
54.9695 0 1
55.0853 0 1
55.2011 0 1
55.3168 0 1
55.4324 0 1
57.824 0 1
57.9396 0 1
58.0553 0 1
58.1711 0 1
58.2869 0 1
58.4028 0 1
58.5187 0 1
58.6347 0 1
58.7508 0 1
58.8669 0 1
58.983 9006 94.8999
59.0992 9615 98.0561
59.2155 10524 102.587
59.3318 10990 104.833
59.4482 11457 107.037
59.5646 11587 107.643
59.681 11649 107.931
59.7975 11723 108.273
59.9141 11693 108.134
60.0306 11772 108.499
60.1473 11337 106.475
60.2639 11054 105.138
60.3807 10780 103.827
60.4974 10354 101.755
60.6142 10290 101.44
60.731 9959 99.7948
60.8479 9820 99.0959
60.9648 9750 98.7421
61.0818 10360 101.784
61.1987 10509 102.513
61.3158 10705 103.465
61.4328 11154 105.612
61.5499 11347 106.522
61.667 11237 106.005
61.7841 11343 106.504
61.9013 10948 104.633
62.0185 10429 102.122
62.1357 9960 99.7998
62.253 9246 96.1561
62.3702 9100 95.3939
62.4875 9236 96.1041
62.6049 9744 98.7117
62.7222 10219 101.089
62.8396 10749 103.677
62.9569 11013 104.943
63.0743 11090 105.309
63.1918 11242 106.028
63.3092 11115 105.428
63.4267 11184 105.754
63.5441 11061 105.171
63.6616 10702 103.45
63.7791 10383 101.897
63.8966 10211 101.049
64.0142 9890 99.4485
64.1317 9390 96.902
64.2492 8985 94.7892
64.3668 8990 94.8156
64.4843 9163 95.7236
64.6019 9593 97.9439
64.7195 9731 98.6458
64.837 10295 101.464
64.9546 10436 102.157
65.0722 10623 103.068
65.1898 10685 103.368
65.3074 10844 104.135
65.4249 10724 103.557
65.5425 10360 101.784
65.6601 9649 98.2293
65.7777 9093 95.3572
65.8952 8489 92.1358
66.0128 8244 90.7965
66.1304 8848 94.0638
66.2479 9444 97.1802
66.3655 9782 98.904
66.483 10358 101.774
66.6005 10517 102.552
66.718 10814 103.99
66.8355 10898 104.393
66.953 11006 104.909
67.0705 10792 103.885
67.1879 10597 102.942
67.3054 10409 102.025
67.4228 10263 101.306
67.5402 9933 99.6644
67.6576 9793 98.9596
67.7749 9042 95.0894
67.8923 8953 94.6203
68.0096 8661 93.0645
68.1269 8824 93.9361
68.2442 9105 95.4201
68.3614 9734 98.661
68.4787 9938 99.6895
68.5958 10532 102.626
68.713 10871 104.264
68.8302 11068 105.205
68.9473 10987 104.819
69.0643 11056 105.148
69.1814 10823 104.034
69.2984 10298 101.479
69.4154 9591 97.9337
69.5323 8948 94.5939
69.6492 8664 93.0806
69.7661 9308 96.478
69.8829 9784 98.9141
69.9997 10276 101.371
70.1165 10685 103.368
70.2332 11246 106.047
70.3499 11392 106.733
70.4665 11476 107.126
70.5831 11667 108.014
70.6996 11635 107.866
70.8161 11265 106.137
70.9326 11224 105.943
71.049 11000 104.881
71.1653 10841 104.12
71.2817 10409 102.025
71.3979 10028 100.14
71.5141 9426 97.0876
71.6303 8830 93.9681
71.7464 8083 89.9055
71.8624 0 1
71.9784 0 1
72.0944 0 1
72.2102 0 1
72.3261 0 1
72.4418 0 1
72.5575 0 1
72.6732 0 1
75.1054 0 1
75.2209 0 1
75.3365 0 1
75.4521 0 1
75.5678 0 1
75.6835 0 1
75.7993 0 1
75.9151 0 1
76.031 0 1
76.147 10259 101.287
76.263 10728 103.576
76.3791 10465 102.299
76.4952 10514 102.538
76.6113 9962 99.8098
76.7276 9479 97.3602
76.8438 8908 94.3822
76.9601 9207 95.9531
77.0765 9623 98.0969
77.1929 10010 100.05
77.3093 10624 103.073
77.4258 11318 106.386
77.5423 11321 106.4
77.6589 11475 107.121
77.7755 11493 107.205
77.8921 11383 106.691
78.0088 11152 105.603
78.1256 10242 101.203
78.2423 9244 96.1457
78.3591 8577 92.6121
78.4759 8372 91.4986
78.5928 8449 91.9184
78.7097 9384 96.871
78.8266 9711 98.5444
78.9436 10720 103.537
79.0606 11052 105.128
79.1776 11174 105.707
79.2946 11316 106.377
79.4117 11414 106.836
79.5288 11425 106.888
79.6459 11452 107.014
79.7631 11036 105.052
79.8802 11119 105.447
79.9974 10921 104.504
80.1147 10444 102.196
80.2319 9785 98.9192
80.3491 9411 97.0103
80.4664 8899 94.3345
80.5837 8885 94.2603
80.701 9174 95.781
80.8183 9683 98.4022
80.9357 10469 102.318
81.053 11029 105.019
81.1704 11347 106.522
81.2877 11317 106.381
81.4051 11296 106.283
81.5225 11359 106.579
81.6399 10967 104.723
81.7573 10528 102.606
81.8747 9419 97.0515
81.9922 8789 93.7497
82.1096 8256 90.8625
82.227 8694 93.2416
82.3444 9489 97.4115
82.4619 10161 100.802
82.5793 10787 103.86
82.6967 10843 104.13
82.8142 11201 105.835
82.9316 11352 106.546
83.049 11479 107.14
83.1664 11284 106.226
83.2838 11206 105.858
83.4012 11210 105.877
83.5186 11067 105.2
83.636 10918 104.489
83.7534 10585 102.883
83.8708 10058 100.29
83.9881 9259 96.2237
84.1055 8755 93.5682
84.2228 8663 93.0752
84.3401 9316 96.5194
84.4575 9956 99.7798
84.5747 10545 102.689
84.692 11269 106.156
84.8093 11420 106.864
84.9265 11801 108.632
85.0437 11655 107.958
85.1609 11616 107.778
85.2781 10818 104.01
85.3952 9878 99.3881
85.5123 9446 97.1905
85.6294 8632 92.9086
85.7465 8698 93.2631
85.8636 9388 96.8917
85.9806 10197 100.98
86.0976 10929 104.542
86.2145 11331 106.447
86.3315 11719 108.254
86.4484 12146 110.209
86.5652 12149 110.223
86.682 11960 109.362
86.7988 12282 110.824
86.9156 12139 110.177
87.0323 12213 110.512
87.149 12002 109.554
87.2657 11472 107.107
87.3823 11160 105.641
87.4988 10596 102.937
87.6154 10075 100.374
87.7318 9647 98.2191
87.8483 9846 99.227
87.9647 10690 103.392
88.081 11187 105.769
88.1973 11985 109.476
88.3136 12372 111.229
88.4298 12351 111.135
88.546 12524 111.911
88.6621 12207 110.485
88.7781 11664 108
88.8942 0 1
89.0101 0 1
89.126 0 1
89.2419 0 1
89.3577 0 1
89.4734 0 1
89.5891 0 1
89.7047 0 1
89.8203 0 1
89.9358 0 1
92.3269 0 1
92.4424 0 1
92.558 0 1
92.6736 0 1
92.7893 0 1
92.905 0 1
93.0208 0 1
93.1366 0 1
93.2525 0 1
93.3685 0 1
93.4845 0 1
93.6005 11697 108.153
93.7167 12054 109.791
93.8328 11706 108.194
93.949 11593 107.671
94.0653 11020 104.976
94.1816 10436 102.157
94.2979 9955 99.7747
94.4143 9567 97.811
94.5307 9207 95.9531
94.6472 9612 98.0408
94.7637 10369 101.828
94.8803 11015 104.952
94.9969 11132 105.508
95.1135 11710 108.213
95.2302 12046 109.754
95.3469 12133 110.15
95.4637 12006 109.572
95.5805 12351 111.135
95.6973 12575 112.138
95.8142 12571 112.12
95.9311 12312 110.959
96.048 12050 109.772
96.1649 11833 108.78
96.2819 11373 106.644
96.3989 11046 105.1
96.516 10195 100.97
96.633 9835 99.1716
96.7501 9722 98.6002
96.8673 10387 101.917
96.9844 11037 105.057
97.1016 11697 108.153
97.2188 12162 110.281
97.336 12365 111.198
97.4532 12246 110.662
97.5704 12196 110.436
97.6877 11761 108.448
97.805 11075 105.238
97.9223 10414 102.049
98.0396 9817 99.0808
98.1569 9202 95.9271
98.2743 9322 96.5505
98.3916 9541 97.678
98.509 10347 101.72
98.6264 10948 104.633
98.7438 11198 105.821
98.8612 11628 107.833
98.9786 11983 109.467
99.096 11991 109.503
99.2134 12221 110.549
99.3308 12061 109.823
99.4482 12050 109.772
99.5656 11996 109.526
99.6831 11808 108.665
99.8005 11473 107.112
99.9179 11185 105.759
100.035 10685 103.368
100.153 9802 99.0051
100.27 9559 97.7701
100.388 9669 98.3311
100.505 10320 101.587
100.622 11209 105.873
100.74 11681 108.079
100.857 12049 109.768
100.975 12105 110.023
101.092 12005 109.567
101.209 11832 108.775
101.327 11735 108.328
101.444 10847 104.149
101.561 10002 100.01
101.679 9947 99.7346
101.796 9485 97.391
101.913 9427 97.0927
102.03 9986 99.93
102.148 10924 104.518
102.265 10302 101.499
102.382 12650 112.472
102.499 11997 109.531
102.616 12460 111.624
102.733 12684 112.623
102.851 12749 112.911
102.968 13064 114.298
103.085 12826 113.252
103.202 12682 112.614
103.319 12488 111.75
103.436 12052 109.782
103.552 11533 107.392
103.669 10581 102.864
103.786 10318 101.578
103.903 10249 101.237
104.02 11117 105.437
104.137 11983 109.467
104.253 12528 111.929
104.37 12984 113.947
104.487 13100 114.455
104.603 13117 114.529
104.72 12850 113.358
104.836 12196 110.436
104.953 11457 107.037
105.069 10719 103.533
105.186 10440 102.176
105.302 10004 100.02
105.418 10367 101.818
105.535 11057 105.152
105.651 11962 109.371
105.767 12455 111.602
105.883 12745 112.894
105.999 12929 113.706
106.115 0 1
106.231 0 1
106.347 0 1
106.463 0 1
106.579 0 1
106.694 0 1
106.81 0 1
106.926 0 1
107.041 0 1
107.157 0 1
109.576 0 1
109.692 0 1
109.807 0 1
109.923 0 1
110.039 0 1
110.155 0 1
110.27 0 1
110.386 0 1
110.502 0 1
110.618 9860 99.2975
110.735 10585 102.883
110.851 10831 104.072
110.967 11272 106.17
111.083 11212 105.887
111.199 11536 107.406
111.316 11593 107.671
111.432 11625 107.819
111.549 11464 107.07
111.665 10972 104.747
111.782 10983 104.8
111.898 10530 102.616
112.015 10027 100.135
112.132 9343 96.6592
112.248 8621 92.8493
112.365 8917 94.4299
112.482 9651 98.2395
112.599 9963 99.8148
112.716 10501 102.474
112.832 10674 103.315
112.949 10517 102.552
113.066 10329 101.632
113.183 10377 101.868
113.3 10017 100.085
113.417 9023 94.9895
113.534 8571 92.5797
113.652 8068 89.822
113.769 7785 88.2326
113.886 7634 87.3728
114.003 8190 90.4986
114.12 8424 91.7824
114.238 8900 94.3398
114.355 9106 95.4254
114.472 9333 96.6075
114.589 9187 95.8488
114.707 9276 96.312
114.824 9399 96.9484
114.942 9544 97.6934
115.059 9217 96.0052
115.176 9109 95.4411
115.294 8852 94.0851
115.411 8512 92.2605
115.529 7936 89.0842
115.646 7443 86.2728
115.764 6805 82.4924
115.881 6838 82.6922
115.999 7013 83.7437
116.116 7516 86.6949
116.234 7897 88.8651
116.351 8028 89.5991
116.469 7952 89.174
116.586 7905 88.9101
116.704 7810 88.3742
116.821 7554 86.9138
116.939 7206 84.8882
117.056 6623 81.3818
117.174 6336 79.599
117.291 6207 78.7845
117.409 6106 78.1409
117.526 6226 78.905
117.644 6499 80.6164
117.761 6743 82.1158
117.879 7141 84.5044
117.996 7093 84.22
118.114 7160 84.6168
118.231 7460 86.3713
118.349 7503 86.6199
118.466 7657 87.5043
118.584 7741 87.983
118.701 7739 87.9716
118.819 7672 87.59
118.936 7634 87.3728
119.053 7175 84.7054
119.171 7029 83.8391
119.288 6685 81.7618
119.405 6360 79.7496
119.523 6357 79.7308
119.64 6710 81.9146
119.757 7330 85.6154
119.875 7546 86.8677
119.992 7868 88.7017
120.109 7791 88.2666
120.226 7938 89.0955
120.343 8010 89.4986
120.46 7874 88.7356
120.578 7515 86.6891
120.695 7135 84.4689
120.812 7016 83.7616
120.929 6653 81.5659
121.046 6560 80.9938
121.163 6625 81.3941
121.279 6978 83.5344
121.396 7508 86.6487
121.513 7821 88.4364
121.63 8154 90.2995
121.747 8266 90.9175
121.863 8488 92.1303
121.98 8801 93.8136
122.097 8980 94.7629
122.213 9154 95.6765
122.33 8923 94.4616
122.446 9013 94.9368
122.563 9048 95.121
122.679 8875 94.2072
122.795 8712 93.3381
122.912 8664 93.0806
123.028 7872 88.7243
123.144 7523 86.7352
123.26 7602 87.1894
123.377 0 1
123.493 0 1
123.609 0 1
123.725 0 1
123.84 0 1
123.956 0 1
124.072 0 1
124.188 0 1
124.303 0 1
124.419 0 1
126.852 0 1
126.968 0 1
127.083 0 1
127.199 0 1
127.315 0 1
127.431 0 1
127.547 0 1
127.663 0 1
127.779 0 1
127.895 0 1
128.011 0 1
128.127 0 1
128.243 0 1
128.359 9377 96.8349
128.476 8919 94.4405
128.592 9456 97.242
128.708 9784 98.9141
128.825 10648 103.189
128.941 10909 104.446
129.058 10858 104.202
129.174 10782 103.836
129.291 10667 103.281
129.408 10656 103.228
129.524 10097 100.484
129.641 9815 99.0707
129.758 9197 95.901
129.875 8778 93.691
129.992 8579 92.6229
130.108 8350 91.3783
130.225 8721 93.3863
130.342 8877 94.2178
130.459 9243 96.1405
130.576 9229 96.0677
130.693 9553 97.7394
130.81 9534 97.6422
130.928 9547 97.7088
131.045 9600 97.9796
131.162 9697 98.4733
131.279 9867 99.3328
131.396 9741 98.6965
131.513 9516 97.55
131.631 9303 96.4521
131.748 8985 94.7892
131.865 8312 91.1702
131.983 8086 89.9222
132.1 8191 90.5041
132.217 8686 93.1987
132.335 9080 95.289
132.452 9114 95.4673
132.57 9470 97.3139
132.687 8981 94.7681
132.804 9468 97.3036
132.922 8984 94.784
133.039 8491 92.1466
133.157 8004 89.4651
133.274 7745 88.0057
133.392 7229 85.0235
133.509 7119 84.3742
133.627 7202 84.8646
133.744 7030 83.8451
133.862 7391 85.9709
133.979 7547 86.8735
134.097 7589 87.1149
134.214 7832 88.4986
134.332 7534 86.7986
134.449 7680 87.6356
134.567 7851 88.6059
134.684 7818 88.4195
134.802 7852 88.6115
134.919 7769 88.1419
135.037 7623 87.3098
135.154 7376 85.8836
135.272 7154 84.5813
135.389 6831 82.6499
135.507 6244 79.019
135.624 6141 78.3645
135.742 6538 80.8579
135.859 6757 82.201
135.977 7103 84.2793
136.094 6988 83.5943
136.211 7082 84.1546
136.329 6925 83.2166
136.446 6941 83.3127
136.564 6614 81.3265
136.681 6338 79.6116
136.798 6080 77.9744
136.915 5892 76.7594
137.033 5534 74.3909
137.15 5399 73.4779
137.267 5447 73.8038
137.384 5747 75.809
137.502 5772 75.9737
137.619 5843 76.4395
137.736 6112 78.1793
137.853 6168 78.5366
137.97 6303 79.3914
138.087 6260 79.1202
138.204 6681 81.7374
138.321 6608 81.2896
138.438 6846 82.7406
138.555 6828 82.6317
138.672 7043 83.9226
138.788 6824 82.6075
138.905 6697 81.8352
139.022 6287 79.2906
139.139 6278 79.2338
139.255 6465 80.4052
139.372 6894 83.0301
139.488 7401 86.0291
139.605 7597 87.1608
139.721 7684 87.6584
139.838 7900 88.8819
139.954 7842 88.5551
140.071 7816 88.4081
140.187 7836 88.5212
140.303 7571 87.0115
140.419 7338 85.6621
140.535 7149 84.5518
140.652 6928 83.2346
140.768 0 1
140.884 0 1
141 0 1
141.115 0 1
141.231 0 1
141.347 0 1
141.463 0 1
141.578 0 1
141.694 0 1
144.104 0 1
144.219 0 1
144.335 0 1
144.45 0 1
144.566 0 1
144.682 0 1
144.798 0 1
144.914 0 1
145.03 0 1
145.146 6502 80.635
145.262 6524 80.7713
145.378 6480 80.4984
145.494 6253 79.0759
145.61 5847 76.4657
145.726 5594 74.793
145.842 5523 74.3169
145.959 5467 73.9392
146.075 5428 73.675
146.192 5675 75.3326
146.308 5629 75.0267
146.425 5746 75.8024
146.541 5785 76.0592
146.658 5481 74.0338
146.774 5658 75.2197
146.891 5641 75.1066
147.008 5690 75.4321
147.125 5706 75.5381
147.241 5657 75.213
147.358 5601 74.8398
147.475 5638 75.0866
147.592 5284 72.6911
147.709 4964 70.4557
147.826 4884 69.8856
147.943 4713 68.6513
148.06 4936 70.2567
148.177 5249 72.45
148.294 5343 73.0958
148.411 5234 72.3464
148.528 5291 72.7393
148.645 5273 72.6154
148.762 5181 71.9792
148.88 4993 70.6612
148.997 5128 71.6101
149.114 4440 66.6333
149.231 4551 67.4611
149.349 4303 65.5973
149.466 4297 65.5515
149.583 4253 65.215
149.701 4190 64.7302
149.818 4386 66.2269
149.935 4455 66.7458
150.053 4415 66.4455
150.17 4562 67.5426
150.287 4549 67.4463
150.405 4487 66.9851
150.522 4736 68.8186
150.64 4806 69.3253
150.757 4799 69.2748
150.875 4801 69.2892
150.992 4737 68.8259
151.11 4875 69.8212
151.227 4765 69.029
151.344 4404 66.3626
151.462 4522 67.2458
151.579 4438 66.6183
151.697 4945 70.3207
151.814 4832 69.5126
151.932 5182 71.9861
152.049 5387 73.3962
152.167 5315 72.904
152.284 5278 72.6498
152.402 5233 72.3395
152.519 4947 70.3349
152.636 5073 71.225
152.754 4888 69.9142
152.871 4796 69.2532
152.989 4712 68.644
153.106 4582 67.6905
153.223 4787 69.1881
153.341 4646 68.1616
153.458 4822 69.4406
153.575 4859 69.7065
153.693 4956 70.3989
153.81 5095 71.3793
153.927 5181 71.9792
154.044 5271 72.6017
154.162 5338 73.0616
154.279 5478 74.0135
154.396 5554 74.5252
154.513 5863 76.5702
154.63 5863 76.5702
154.747 5848 76.4722
154.864 5901 76.818
154.981 5672 75.3127
155.098 5496 74.135
155.215 5568 74.619
155.332 5928 76.9935
155.449 6155 78.4538
155.566 6320 79.4984
155.683 6271 79.1896
155.8 6414 80.0875
155.917 6581 81.1234
156.033 6415 80.0937
156.15 0 1
156.267 0 1
156.383 0 1
156.5 0 1
156.617 0 1
156.733 0 1
156.85 0 1
156.966 0 1
157.082 0 1
157.199 0 1
157.315 0 1
157.431 0 1
157.547 0 1
157.664 0 1
157.78 0 1
157.896 0 1
158.012 0 1
158.128 0 1
158.244 0 1
158.359 0 1
158.475 0 1
158.591 0 1
158.706 0 1
