
6.15755 0 1
6.2731 0 1
6.3887 0 1
6.50437 0 1
6.62009 0 1
6.73587 0 1
6.8517 0 1
6.96759 0 1
7.08353 0 1
7.19952 0 1
7.31557 0 1
7.43166 0 1
7.54781 0 1
7.664 0 1
7.78024 0 1
7.89653 0 1
8.01286 0 1
8.12924 0 1
8.24567 0 1
8.36213 0 1
8.47864 0 1
8.59519 0 1
8.71178 0 1
8.82841 0 1
8.94508 0 1
9.06179 0 1
9.17853 0 1
9.29531 0 1
9.41212 0 1
9.52897 0 1
9.64584 0 1
9.76276 0 1
9.8797 0 1
9.99667 0 1
10.1137 0 1
10.2307 0 1
10.3478 0 1
10.4648 0 1
10.5819 0 1
10.6991 0 1
10.8162 0 1
10.9334 0 1
11.0506 0 1
11.1678 0 1
11.285 0 1
11.4023 0 1
11.5196 0 1
11.6369 0 1
11.7542 0 1
11.8715 0 1
11.9888 0 1
12.1062 0 1
12.2235 0 1
12.3409 0 1
12.4582 0 1
12.5756 0 1
12.693 0 1
12.8104 0 1
12.9278 0 1
13.0452 0 1
13.1626 0 1
13.28 0 1
13.3974 0 1
13.5149 0 1
13.6323 0 1
13.7497 0 1
13.8671 0 1
13.9845 0 1
14.1019 0 1
14.2193 0 1
14.3367 0 1
14.4541 0 1
14.5714 0 1
14.6888 0 1
14.8062 0 1
14.9235 0 1
15.0408 0 0
15.1581 0 0
15.2755 0 0
15.3927 0 0
15.51 0 0
15.6273 0 0
15.7445 0 0
15.8617 0 0
15.9789 0 0
16.0961 0 0
16.2132 0 0
16.3304 0 0
16.4475 0 0
16.5646 0 0
16.6816 0 0
16.7986 0 0
16.9156 0 0
17.0326 0 0
17.1496 0 0
17.2665 0 0
17.3833 0 0
17.5002 0 0
17.617 0 0
17.7338 0 0
17.8505 0 0
17.9672 0 0
18.0839 0 0
18.2005 0 0
18.3171 0 0
18.4337 0 0
18.5502 0 0
18.6666 0 0
18.7831 0 0
18.8994 0 0
19.0158 0 0
19.1321 0 0
19.2483 0 0
19.3645 0 0
19.4806 0 0
19.5967 0 0
19.7128 0 0
19.8288 0 0
19.9447 0 0
20.0606 0 1
20.1764 0 1
20.2922 0 1
20.4079 0 1
20.5236 0 1
20.6392 0 1
20.7548 0 1
20.8702 0 1
23.3078 0 1
23.4233 0 1
23.539 0 1
23.6547 0 1
23.7704 0 1
23.8862 0 1
24.0021 0 1
24.118 0 1
24.234 0 1
24.35 0 1
24.4661 2925 54.0833
24.5822 2933 54.1572
24.6984 2802 52.9339
24.8146 2791 52.8299
24.9309 2695 51.9134
25.0472 2625 51.2348
25.1636 2644 51.4198
25.28 2712 52.0769
25.3965 2932 54.1479
25.513 2990 54.6809
25.6296 3255 57.0526
25.7462 3464 58.8558
25.8628 3630 60.2495
25.9795 3563 59.6909
26.0962 3577 59.808
26.213 3630 60.2495
26.3298 3511 59.2537
26.4466 3587 59.8916
26.5635 3531 59.4222
26.6804 3528 59.397
26.7973 3666 60.5475
26.9143 3616 60.1332
27.0313 3570 59.7495
27.1483 3543 59.5231
27.2653 3629 60.2412
27.3824 3626 60.2163
27.4996 3646 60.3821
27.6167 3560 59.6657
27.7339 3467 58.8812
27.8511 3314 57.5674
27.9683 3264 57.1314
28.0855 3175 56.3471
28.2028 3201 56.5774
28.3201 2838 53.2729
28.4374 2710 52.0577
28.5547 2572 50.7149
28.6721 2441 49.4065
28.7894 2599 50.9804
28.9068 2639 51.3712
29.0242 2865 53.5257
29.1416 3094 55.6237
29.259 3331 57.7148
29.3764 3338 57.7754
29.4939 3487 59.0508
29.6113 3478 58.9746
29.7288 3441 58.66
29.8463 3492 59.0931
29.9638 3459 58.8133
30.0812 3452 58.7537
30.1987 3454 58.7707
30.3162 3460 58.8218
30.4337 3499 59.1523
30.5512 3380 58.1378
30.6687 3481 59
30.7862 3468 58.8897
30.9037 3391 58.2323
31.0212 3545 59.5399
31.1387 3497 59.1354
31.2562 3488 59.0593
31.3737 3372 58.0689
31.4912 3142 56.0535
31.6087 3127 55.9196
31.7262 2978 54.5711
31.8436 2897 53.8238
31.9611 2671 51.6817
32.0785 2552 50.5173
32.1959 2412 49.1121
32.3134 2350 48.4768
32.4308 2540 50.3984
32.5482 2756 52.4976
32.6655 2917 54.0093
32.7829 3334 57.7408
32.9002 3412 58.4123
33.0176 3426 58.532
33.1349 3362 57.9828
33.2522 3509 59.2368
33.3694 3495 59.1185
33.4867 3364 58
33.6039 3539 59.4895
33.7211 3445 58.6941
33.8383 3529 59.4054
33.9554 3416 58.4466
34.0725 3491 59.0847
34.1896 3447 58.7112
34.3067 3390 58.2237
34.4237 3439 58.643
34.5407 3429 58.5577
34.6577 3365 58.0086
34.7746 3520 59.3296
34.8915 3307 57.5065
35.0084 3205 56.6127
35.1252 3163 56.2406
35.242 3061 55.3263
35.3587 2994 54.7175
35.4755 2832 53.2165
35.5921 2642 51.4004
35.7088 2405 49.0408
35.8254 2330 48.2701
35.9419 2120 46.0435
36.0584 2322 48.1871
36.1749 2537 50.3686
36.2913 2661 51.5849
36.4077 2773 52.6593
36.524 2962 54.4243
36.6403 3271 57.1927
36.7565 3267 57.1577
36.8727 3264 57.1314
36.9889 3325 57.6628
37.1049 3237 56.8946
37.221 0 1
37.3369 0 1
37.4529 0 1
37.5687 0 1
37.6845 0 1
37.8003 0 1
37.916 0 1
38.0316 0 1
38.1472 0 1
40.5851 0 1
40.7008 0 1
40.8164 0 1
40.9322 0 1
41.048 0 1
41.1639 0 1
41.2798 0 1
41.3958 0 1
41.5118 0 1
41.6279 0 1
41.744 2410 49.0918
41.8602 2563 50.6261
41.9765 2801 52.9245
42.0928 2920 54.037
42.2091 2809 53
42.3255 2847 53.3573
42.4419 2745 52.3927
42.5584 2783 52.7541
42.675 2759 52.5262
42.7915 2814 53.0471
42.9081 2732 52.2685
43.0248 2789 52.811
43.1415 2794 52.8583
43.2582 2745 52.3927
43.375 2773 52.6593
43.4918 2762 52.5547
43.6087 2761 52.5452
43.7256 2650 51.4782
43.8425 2622 51.2055
43.9595 2469 49.689
44.0765 2463 49.6286
44.1935 2371 48.6929
44.3106 2156 46.4327
44.4277 2015 44.8888
44.5448 1811 42.5558
44.6619 1620 40.2492
44.7791 1540 39.2428
44.8963 1600 40
45.0136 1728 41.5692
45.1308 1842 42.9185
45.2481 2052 45.299
45.3654 2170 46.5833
45.4827 2169 46.5725
45.6001 2138 46.2385
45.7174 2249 47.4236
45.8348 2105 45.8803
45.9522 2119 46.0326
46.0697 2070 45.4973
46.1871 2054 45.3211
46.3046 2131 46.1628
46.422 2100 45.8258
46.5395 2005 44.7772
46.657 1975 44.441
46.7745 1995 44.6654
46.892 1904 43.6348
47.0096 1967 44.3509
47.1271 1963 44.3058
47.2446 1892 43.4971
47.3622 1903 43.6234
47.4797 1717 41.4367
47.5973 1744 41.7612
47.7149 1592 39.8999
47.8324 1555 39.4335
47.95 1477 38.4318
48.0675 1363 36.9188
48.1851 1292 35.9444
48.3027 1133 33.6601
48.4202 1165 34.1321
48.5378 1215 34.8569
48.6554 1347 36.7015
48.7729 1364 36.9324
48.8904 1463 38.2492
49.008 1582 39.7744
49.1255 1638 40.4722
49.243 1636 40.4475
49.3605 1644 40.5463
49.478 1599 39.9875
49.5955 1605 40.0625
49.713 1687 41.0731
49.8304 1677 40.9512
49.9479 1694 41.1582
50.0653 1725 41.5331
50.1827 1732 41.6173
50.3001 1781 42.2019
50.4175 1848 42.9884
50.5348 1886 43.4281
50.6521 1980 44.4972
50.7694 1986 44.5646
50.8867 2016 44.8999
51.004 1943 44.0795
51.1212 1934 43.9773
51.2384 1891 43.4856
51.3556 1786 42.2611
51.4727 1798 42.4028
51.5899 1619 40.2368
51.707 1534 39.1663
51.824 1376 37.0945
51.9411 1493 38.6394
52.0581 1610 40.1248
52.175 1852 43.0349
52.2919 2085 45.6618
52.4088 2230 47.2229
52.5257 2404 49.0306
52.6425 2542 50.4183
52.7593 2561 50.6063
52.876 2630 51.2835
52.9927 2668 51.6527
53.1094 2704 52
53.226 2745 52.3927
53.3426 2781 52.7352
53.4591 2694 51.9038
53.5756 2890 53.7587
53.692 2879 53.6563
53.8084 2865 53.5257
53.9248 2794 52.8583
54.0411 3036 55.0999
54.1573 3017 54.9272
54.2735 0 1
54.3896 0 1
54.5057 0 1
54.6217 0 1
54.7377 0 1
54.8537 0 1
54.9695 0 1
55.0853 0 1
55.2011 0 1
55.3168 0 1
55.4324 0 1
57.824 0 1
57.9396 0 1
58.0553 0 1
58.1711 0 1
58.2869 0 1
58.4028 0 1
58.5187 0 1
58.6347 0 1
58.7508 0 1
58.8669 0 1
58.983 3221 56.7539
59.0992 3502 59.1777
59.2155 3498 59.1439
59.3318 3601 60.0083
59.4482 3452 58.7537
59.5646 3450 58.7367
59.681 3465 58.8643
59.7975 3309 57.5239
59.9141 3211 56.6657
60.0306 3065 55.3624
60.1473 2737 52.3163
60.2639 2486 49.8598
60.3807 2224 47.1593
60.4974 2050 45.2769
60.6142 2070 45.4973
60.731 2170 46.5833
60.8479 2323 48.1975
60.9648 2706 52.0192
61.0818 2953 54.3415
61.1987 2933 54.1572
61.3158 3054 55.263
61.4328 3201 56.5774
61.5499 3137 56.0089
61.667 3088 55.5698
61.7841 3174 56.3383
61.9013 3086 55.5518
62.0185 2964 54.4426
62.1357 3002 54.7905
62.253 3156 56.1783
62.3702 3146 56.0892
62.4875 3202 56.5862
62.6049 3065 55.3624
62.7222 3072 55.4256
62.8396 3230 56.8331
62.9569 3027 55.0182
63.0743 3243 56.9473
63.1918 3129 55.9375
63.3092 2998 54.754
63.4267 2859 53.4696
63.5441 2758 52.5167
63.6616 2475 49.7494
63.7791 2276 47.7074
63.8966 1995 44.6654
64.0142 1850 43.0116
64.1317 1777 42.1545
64.2492 1867 43.2088
64.3668 2047 45.2438
64.4843 2313 48.0937
64.6019 2596 50.951
64.7195 2746 52.4023
64.837 2788 52.8015
64.9546 2869 53.563
65.0722 2711 52.0673
65.1898 2788 52.8015
65.3074 2809 53
65.4249 2760 52.5357
65.5425 2793 52.8488
65.6601 2747 52.4118
65.7777 2810 53.0094
65.8952 2844 53.3292
66.0128 2755 52.4881
66.1304 2848 53.3667
66.2479 2907 53.9166
66.3655 2850 53.3854
66.483 2991 54.69
66.6005 3036 55.0999
66.718 2966 54.461
66.8355 2846 53.3479
66.953 2878 53.647
67.0705 2835 53.2447
67.1879 2527 50.2693
67.3054 2414 49.1325
67.4228 2126 46.1086
67.5402 1860 43.1277
67.6576 1638 40.4722
67.7749 1580 39.7492
67.8923 1769 42.0595
68.0096 1872 43.2666
68.1269 2249 47.4236
68.2442 2529 50.2892
68.3614 2681 51.7784
68.4787 2808 52.9906
68.5958 2722 52.1728
68.713 2784 52.7636
68.8302 2925 54.0833
68.9473 2812 53.0283
69.0643 2824 53.1413
69.1814 2885 53.7122
69.2984 2868 53.5537
69.4154 2949 54.3047
69.5323 2910 53.9444
69.6492 2942 54.2402
69.7661 3090 55.5878
69.8829 3159 56.205
69.9997 3182 56.4092
70.1165 3196 56.5332
70.2332 3197 56.542
70.3499 3335 57.7495
70.4665 3228 56.8155
70.5831 3173 56.3294
70.6996 3072 55.4256
70.8161 2866 53.535
70.9326 2759 52.5262
71.049 2472 49.7192
71.1653 2123 46.076
71.2817 1791 42.3202
71.3979 1622 40.2741
71.5141 1630 40.3733
71.6303 1769 42.0595
71.7464 1814 42.5911
71.8624 0 1
71.9784 0 1
72.0944 0 1
72.2102 0 1
72.3261 0 1
72.4418 0 1
72.5575 0 1
72.6732 0 1
75.1054 0 1
75.2209 0 1
75.3365 0 1
75.4521 0 1
75.5678 0 1
75.6835 0 1
75.7993 0 1
75.9151 0 1
76.031 0 1
76.147 2640 51.3809
76.263 2647 51.449
76.3791 2619 51.1762
76.4952 2218 47.0956
76.6113 1893 43.5086
76.7276 1624 40.2989
76.8438 1719 41.4608
76.9601 1928 43.909
77.0765 2209 47
77.1929 2626 51.2445
77.3093 2910 53.9444
77.4258 3007 54.8361
77.5423 3122 55.8749
77.6589 2968 54.4794
77.7755 2900 53.8516
77.8921 2888 53.7401
78.0088 2941 54.231
78.1256 2889 53.7494
78.2423 2901 53.8609
78.3591 2864 53.5164
78.4759 2958 54.3875
78.5928 2961 54.4151
78.7097 3088 55.5698
78.8266 2950 54.3139
78.9436 3235 56.8771
79.0606 3151 56.1338
79.1776 3076 55.4617
79.2946 3156 56.1783
79.4117 3082 55.5158
79.5288 3207 56.6304
79.6459 3118 55.8391
79.7631 2827 53.1695
79.8802 2818 53.0848
79.9974 2535 50.3488
80.1147 2321 48.1768
80.2319 1935 43.9886
80.3491 1566 39.5727
80.4664 1608 40.0999
80.5837 1727 41.5572
80.701 1963 44.3058
80.8183 2230 47.2229
80.9357 2634 51.3225
81.053 2709 52.0481
81.1704 2776 52.6878
81.2877 2851 53.3948
81.4051 2821 53.1131
81.5225 2687 51.8363
81.6399 2722 52.1728
81.7573 2585 50.8429
81.8747 2555 50.547
81.9922 2560 50.5964
82.1096 2602 51.0098
82.227 2695 51.9134
82.3444 2661 51.5849
82.4619 2888 53.7401
82.5793 2832 53.2165
82.6967 2704 52
82.8142 2835 53.2447
82.9316 2856 53.4416
83.049 2768 52.6118
83.1664 2692 51.8845
83.2838 2639 51.3712
83.4012 2509 50.0899
83.5186 2327 48.239
83.636 2277 47.7179
83.7534 1995 44.6654
83.8708 1698 41.2068
83.9881 1385 37.2156
84.1055 1329 36.4555
84.2228 1398 37.3898
84.3401 1575 39.6863
84.4575 1891 43.4856
84.5747 2300 47.9583
84.692 2457 49.5681
84.8093 2531 50.309
84.9265 2419 49.1833
85.0437 2462 49.6185
85.1609 2419 49.1833
85.2781 2503 50.03
85.3952 2457 49.5681
85.5123 2506 50.06
85.6294 2532 50.319
85.7465 2633 51.3128
85.8636 2718 52.1344
85.9806 2683 51.7977
86.0976 2830 53.1977
86.2145 2875 53.619
86.3315 2993 54.7083
86.4484 2957 54.3783
86.5652 2910 53.9444
86.682 2930 54.1295
86.7988 2996 54.7357
86.9156 3003 54.7996
87.0323 2841 53.301
87.149 2743 52.3737
87.2657 2519 50.1896
87.3823 2328 48.2494
87.4988 1939 44.0341
87.6154 1617 40.2119
87.7318 1660 40.7431
87.8483 1870 43.2435
87.9647 2248 47.4131
88.081 2584 50.8331
88.1973 2920 54.037
88.3136 2991 54.69
88.4298 3055 55.2721
88.546 2999 54.7631
88.6621 3009 54.8544
88.7781 2993 54.7083
88.8942 0 1
89.0101 0 1
89.126 0 1
89.2419 0 1
89.3577 0 1
89.4734 0 1
89.5891 0 1
89.7047 0 1
89.8203 0 1
89.9358 0 1
92.3269 0 1
92.4424 0 1
92.558 0 1
92.6736 0 1
92.7893 0 1
92.905 0 1
93.0208 0 1
93.1366 0 1
93.2525 0 1
93.3685 0 1
93.4845 0 1
93.6005 2699 51.9519
93.7167 2876 53.6284
93.8328 2952 54.3323
93.949 2895 53.8052
94.0653 2972 54.5161
94.1816 2804 52.9528
94.2979 2895 53.8052
94.4143 2888 53.7401
94.5307 2965 54.4518
94.6472 2908 53.9259
94.7637 3010 54.8635
94.8803 2955 54.3599
94.9969 3009 54.8544
95.1135 3151 56.1338
95.2302 3212 56.6745
95.3469 3145 56.0803
95.4637 3276 57.2364
95.5805 3262 57.1139
95.6973 3296 57.4108
95.8142 3317 57.5934
95.9311 3204 56.6039
96.048 3177 56.3649
96.1649 3049 55.2178
96.2819 2930 54.1295
96.3989 2880 53.6656
96.516 2564 50.636
96.633 2196 46.8615
96.7501 1913 43.7379
96.8673 1700 41.2311
96.9844 1818 42.638
97.1016 1985 44.5533
97.2188 2270 47.6445
97.336 2736 52.3068
97.4532 3080 55.4977
97.5704 3003 54.7996
97.6877 2972 54.5161
97.805 2887 53.7308
97.9223 2924 54.074
98.0396 2911 53.9537
98.1569 2811 53.0189
98.2743 2884 53.7029
98.3916 2848 53.3667
98.509 2923 54.0648
98.6264 3007 54.8361
98.7438 3014 54.8999
98.8612 2984 54.626
98.9786 3288 57.3411
99.096 3275 57.2276
99.2134 3157 56.1872
99.3308 3296 57.4108
99.4482 3250 57.0088
99.5656 3220 56.745
99.6831 3094 55.6237
99.8005 3057 55.2901
99.9179 2967 54.4702
100.035 2781 52.7352
100.153 2559 50.5866
100.27 2201 46.9148
100.388 1892 43.4971
100.505 1828 42.7551
100.622 1960 44.2719
100.74 2360 48.5798
100.857 2820 53.1037
100.975 2901 53.8609
101.092 2942 54.2402
101.209 3018 54.9363
101.327 3097 55.6507
101.444 3070 55.4076
101.561 2970 54.4977
101.679 2930 54.1295
101.796 2919 54.0278
101.913 2952 54.3323
102.03 3134 55.9821
102.148 3154 56.1605
102.265 3168 56.285
102.382 3359 57.9569
102.499 3291 57.3672
102.616 3307 57.5065
102.733 3347 57.8533
102.851 3481 59
102.968 3498 59.1439
103.085 3394 58.258
103.202 3281 57.28
103.319 3210 56.6569
103.436 3244 56.9561
103.552 3105 55.7225
103.669 2837 53.2635
103.786 2425 49.2443
103.903 2075 45.5522
104.02 2025 45
104.137 2138 46.2385
104.253 2528 50.2792
104.37 2986 54.6443
104.487 3197 56.542
104.603 3229 56.8243
104.72 3267 57.1577
104.836 3240 56.921
104.953 3299 57.4369
105.069 3354 57.9137
105.186 3246 56.9737
105.302 3136 56
105.418 3352 57.8965
105.535 3335 57.7495
105.651 3339 57.7841
105.767 3446 58.7026
105.883 3666 60.5475
105.999 3759 61.3107
106.115 0 1
106.231 0 1
106.347 0 1
106.463 0 1
106.579 0 1
106.694 0 1
106.81 0 1
106.926 0 1
107.041 0 1
107.157 0 1
109.576 0 1
109.692 0 1
109.807 0 1
109.923 0 1
110.039 0 1
110.155 0 1
110.27 0 1
110.386 0 1
110.502 0 1
110.618 3248 56.9912
110.735 3429 58.5577
110.851 3422 58.4979
110.967 3584 59.8665
111.083 3542 59.5147
111.199 3553 59.607
111.316 3623 60.1914
111.432 3650 60.4152
111.549 3717 60.9672
111.665 3638 60.3158
111.782 3407 58.3695
111.898 3463 58.8473
112.015 3287 57.3324
112.132 3100 55.6776
112.248 2767 52.6023
112.365 2481 49.8096
112.482 2172 46.6047
112.599 2266 47.6025
112.716 2387 48.8569
112.832 2780 52.7257
112.949 3053 55.254
113.066 3265 57.1402
113.183 3321 57.6281
113.3 3265 57.1402
113.417 3261 57.1052
113.534 3205 56.6127
113.652 3149 56.116
113.769 3175 56.3471
113.886 3309 57.5239
114.003 3294 57.3934
114.12 3322 57.6368
114.238 3409 58.3866
114.355 3544 59.5315
114.472 3493 59.1016
114.589 3701 60.8358
114.707 3613 60.1082
114.824 3617 60.1415
114.942 3612 60.0999
115.059 3756 61.2862
115.176 3680 60.663
115.294 3573 59.7746
115.411 3576 59.7997
115.529 3412 58.4123
115.646 3417 58.4551
115.764 3066 55.3715
115.881 2809 53
115.999 2477 49.7695
116.116 2322 48.1871
116.234 2410 49.0918
116.351 2729 52.2398
116.469 3110 55.7674
116.586 3375 58.0948
116.704 3351 57.8878
116.821 3448 58.7197
116.939 3428 58.5491
117.056 3486 59.0424
117.174 3332 57.7235
117.291 3442 58.6686
117.409 3439 58.643
117.526 3493 59.1016
117.644 3351 57.8878
117.761 3408 58.3781
117.879 3598 59.9833
117.996 3508 59.2284
118.114 3513 59.2706
118.231 3659 60.4897
118.349 3793 61.5873
118.466 3709 60.9016
118.584 3769 61.3922
118.701 3813 61.7495
118.819 3644 60.3656
118.936 3580 59.8331
119.053 3642 60.349
119.171 3430 58.5662
119.288 3243 56.9473
119.405 3078 55.4797
119.523 2689 51.8556
119.64 2525 50.2494
119.757 2477 49.7695
119.875 2520 50.1996
119.992 2693 51.8941
120.109 3002 54.7905
120.226 3244 56.9561
120.343 3297 57.4195
120.46 3284 57.3062
120.578 3450 58.7367
120.695 3391 58.2323
120.812 3488 59.0593
120.929 3331 57.7148
121.046 3389 58.2151
121.163 3337 57.7668
121.279 3371 58.0603
121.396 3370 58.0517
121.513 3466 58.8727
121.63 3549 59.5735
121.747 3593 59.9416
121.863 3471 58.9152
121.98 3567 59.7244
122.097 3626 60.2163
122.213 3564 59.6992
122.33 3709 60.9016
122.446 3632 60.2661
122.563 3518 59.3127
122.679 3508 59.2284
122.795 3323 57.6455
122.912 3220 56.745
123.028 3179 56.3826
123.144 2927 54.1018
123.26 2660 51.5752
123.377 0 1
123.493 0 1
123.609 0 1
123.725 0 1
123.84 0 1
123.956 0 1
124.072 0 1
124.188 0 1
124.303 0 1
124.419 0 1
126.852 0 1
126.968 0 1
127.083 0 1
127.199 0 1
127.315 0 1
127.431 0 1
127.547 0 1
127.663 0 1
127.779 0 1
127.895 0 1
128.011 0 1
128.127 0 1
128.243 0 1
128.359 3208 56.6392
128.476 2940 54.2218
128.592 2750 52.4404
128.708 2614 51.1273
128.825 2855 53.4322
128.941 3080 55.4977
129.058 3272 57.2014
129.174 3613 60.1082
129.291 3632 60.2661
129.408 3694 60.7783
129.524 3560 59.6657
129.641 3706 60.8769
129.758 3658 60.4814
129.875 3581 59.8415
129.992 3597 59.975
130.108 3597 59.975
130.225 3763 61.3433
130.342 3511 59.2537
130.459 3630 60.2495
130.576 3874 62.2415
130.693 3882 62.3057
130.81 3759 61.3107
130.928 3767 61.3759
131.045 3869 62.2013
131.162 3993 63.1902
131.279 4030 63.4823
131.396 3908 62.514
131.513 3876 62.2575
131.631 3593 59.9416
131.748 3598 59.9833
131.865 3499 59.1523
131.983 3253 57.0351
132.1 2965 54.4518
132.217 2839 53.2823
132.335 2913 53.9722
132.452 3122 55.8749
132.57 3378 58.1206
132.687 3558 59.649
132.804 3736 61.1228
132.922 3619 60.1581
133.039 3729 61.0655
133.157 3751 61.2454
133.274 3795 61.6036
133.392 3789 61.5549
133.509 3749 61.2291
133.627 3658 60.4814
133.744 3676 60.63
133.862 3664 60.531
133.979 3599 59.9917
134.097 3664 60.531
134.214 3691 60.7536
134.332 3876 62.2575
134.449 3802 61.6604
134.567 3886 62.3378
134.684 3928 62.6738
134.802 3887 62.3458
134.919 3911 62.538
135.037 3888 62.3538
135.154 3730 61.0737
135.272 3677 60.6383
135.389 3540 59.4979
135.507 3304 57.4804
135.624 3043 55.1634
135.742 2968 54.4794
135.859 3043 55.1634
135.977 3021 54.9636
136.094 3315 57.576
136.211 3556 59.6322
136.329 3737 61.131
136.446 3744 61.1882
136.564 3683 60.6877
136.681 3688 60.7289
136.798 3707 60.8851
136.915 3824 61.8385
137.033 3662 60.5145
137.15 3646 60.3821
137.267 3778 61.4654
137.384 3459 58.8133
137.502 3621 60.1747
137.619 3526 59.3801
137.736 3608 60.0666
137.853 3669 60.5723
137.97 3745 61.1964
138.087 3757 61.2944
138.204 3905 62.49
138.321 3982 63.1031
138.438 3828 61.8708
138.555 3989 63.1585
138.672 3994 63.1981
138.788 3902 62.466
138.905 3843 61.9919
139.022 3765 61.3596
139.139 3460 58.8218
139.255 3264 57.1314
139.372 3142 56.0535
139.488 3140 56.0357
139.605 3371 58.0603
139.721 3576 59.7997
139.838 3697 60.803
139.954 3930 62.6897
140.071 3728 61.0574
140.187 3833 61.9112
140.303 3817 61.7819
140.419 3909 62.522
140.535 3786 61.5305
140.652 3732 61.0901
140.768 0 1
140.884 0 1
141 0 1
141.115 0 1
141.231 0 1
141.347 0 1
141.463 0 1
141.578 0 1
141.694 0 1
144.104 0 1
144.219 0 1
144.335 0 1
144.45 0 1
144.566 0 1
144.682 0 1
144.798 0 1
144.914 0 1
145.03 0 1
145.146 2987 54.6535
145.262 3012 54.8817
145.378 3139 56.0268
145.494 3146 56.0892
145.61 3158 56.1961
145.726 3127 55.9196
145.842 3110 55.7674
145.959 2871 53.5817
146.075 3146 56.0892
146.192 2990 54.6809
146.308 2981 54.5985
146.425 3051 55.2359
146.541 3091 55.5968
146.658 3121 55.8659
146.774 3172 56.3205
146.891 3218 56.7274
147.008 3302 57.463
147.125 3258 57.0789
147.241 3420 58.4808
147.358 3392 58.2409
147.475 3400 58.3095
147.592 3349 57.8705
147.709 3314 57.5674
147.826 3172 56.3205
147.943 2976 54.5527
148.06 3020 54.9545
148.177 2843 53.3198
148.294 2815 53.0566
148.411 2748 52.4214
148.528 2983 54.6168
148.645 3081 55.5068
148.762 3365 58.0086
148.88 3325 57.6628
148.997 3331 57.7148
149.114 3412 58.4123
149.231 3416 58.4466
149.349 3253 57.0351
149.466 3359 57.9569
149.583 3256 57.0614
149.701 3219 56.7362
149.818 3209 56.648
149.935 3165 56.2583
150.053 3155 56.1694
150.17 3256 57.0614
150.287 3269 57.1752
150.405 3440 58.6515
150.522 3470 58.9067
150.64 3340 57.7927
150.757 3347 57.8533
150.875 3553 59.607
150.992 3539 59.4895
151.11 3598 59.9833
151.227 3611 60.0916
151.344 3444 58.6856
151.462 3409 58.3866
151.579 3316 57.5847
151.697 3244 56.9561
151.814 3100 55.6776
151.932 2890 53.7587
152.049 3036 55.0999
152.167 3161 56.2228
152.284 3340 57.7927
152.402 3379 58.1292
152.519 3399 58.3009
152.636 3682 60.6795
152.754 3429 58.5577
152.871 3485 59.0339
152.989 3590 59.9166
153.106 3445 58.6941
153.223 3459 58.8133
153.341 3303 57.4717
153.458 3303 57.4717
153.575 3168 56.285
153.693 3111 55.7763
153.81 3267 57.1577
153.927 3319 57.6108
154.044 3403 58.3352
154.162 3493 59.1016
154.279 3573 59.7746
154.396 3767 61.3759
154.513 3669 60.5723
154.63 3650 60.4152
154.747 3830 61.887
154.864 3601 60.0083
154.981 3635 60.291
155.098 3533 59.439
155.215 3542 59.5147
155.332 3430 58.5662
155.449 3268 57.1664
155.566 3253 57.0351
155.683 3449 58.7282
155.8 3589 59.9083
155.917 3493 59.1016
156.033 3537 59.4727
156.15 0 1
156.267 0 1
156.383 0 1
156.5 0 1
156.617 0 1
156.733 0 1
156.85 0 1
156.966 0 1
157.082 0 1
157.199 0 1
157.315 0 1
157.431 0 1
157.547 0 1
157.664 0 1
157.78 0 1
157.896 0 1
158.012 0 1
158.128 0 1
158.244 0 1
158.359 0 1
158.475 0 1
158.591 0 1
158.706 0 1
