
6.15755 0 1
6.2731 0 1
6.3887 0 1
6.50437 0 1
6.62009 0 1
6.73587 0 1
6.8517 0 1
6.96759 0 1
7.08353 0 1
7.19952 0 1
7.31557 0 1
7.43166 0 1
7.54781 0 1
7.664 0 1
7.78024 0 1
7.89653 0 1
8.01286 0 1
8.12924 0 1
8.24567 0 1
8.36213 0 1
8.47864 0 1
8.59519 0 1
8.71178 0 1
8.82841 0 1
8.94508 0 1
9.06179 0 1
9.17853 0 1
9.29531 0 1
9.41212 0 1
9.52897 0 1
9.64584 0 1
9.76276 0 1
9.8797 0 1
9.99667 0 1
10.1137 0 1
10.2307 0 1
10.3478 0 1
10.4648 0 1
10.5819 0 1
10.6991 0 1
10.8162 0 1
10.9334 0 1
11.0506 0 1
11.1678 0 1
11.285 0 1
11.4023 0 1
11.5196 0 1
11.6369 0 1
11.7542 0 1
11.8715 0 1
11.9888 0 1
12.1062 0 1
12.2235 0 1
12.3409 0 1
12.4582 0 1
12.5756 0 1
12.693 0 1
12.8104 0 1
12.9278 0 1
13.0452 0 1
13.1626 0 1
13.28 0 1
13.3974 0 1
13.5149 0 1
13.6323 0 1
13.7497 0 1
13.8671 0 1
13.9845 0 1
14.1019 0 1
14.2193 0 1
14.3367 0 1
14.4541 0 1
14.5714 0 1
14.6888 0 1
14.8062 0 1
14.9235 0 1
15.0408 0 0
15.1581 0 0
15.2755 0 0
15.3927 0 0
15.51 0 0
15.6273 0 0
15.7445 0 0
15.8617 0 0
15.9789 0 0
16.0961 0 0
16.2132 0 0
16.3304 0 0
16.4475 0 0
16.5646 0 0
16.6816 0 0
16.7986 0 0
16.9156 0 0
17.0326 0 0
17.1496 0 0
17.2665 0 0
17.3833 0 0
17.5002 0 0
17.617 0 0
17.7338 0 0
17.8505 0 0
17.9672 0 0
18.0839 0 0
18.2005 0 0
18.3171 0 0
18.4337 0 0
18.5502 0 0
18.6666 0 0
18.7831 0 0
18.8994 0 0
19.0158 0 0
19.1321 0 0
19.2483 0 0
19.3645 0 0
19.4806 0 0
19.5967 0 0
19.7128 0 0
19.8288 0 0
19.9447 0 0
20.0606 0 1
20.1764 0 1
20.2922 0 1
20.4079 0 1
20.5236 0 1
20.6392 0 1
20.7548 0 1
20.8702 0 1
23.3078 0 1
23.4233 0 1
23.539 0 1
23.6547 0 1
23.7704 0 1
23.8862 0 1
24.0021 0 1
24.118 0 1
24.234 0 1
24.35 0 1
24.4661 1533 39.1535
24.5822 1507 38.8201
24.6984 1479 38.4578
24.8146 1466 38.2884
24.9309 1519 38.9744
25.0472 1503 38.7685
25.1636 1482 38.4968
25.28 1433 37.855
25.3965 1541 39.2556
25.513 1573 39.6611
25.6296 1635 40.4351
25.7462 1789 42.2966
25.8628 1722 41.497
25.9795 1768 42.0476
26.0962 1798 42.4028
26.213 1771 42.0833
26.3298 1729 41.5812
26.4466 1655 40.6817
26.5635 1663 40.7799
26.6804 1619 40.2368
26.7973 1554 39.4208
26.9143 1615 40.1871
27.0313 1544 39.2938
27.1483 1642 40.5216
27.2653 1712 41.3763
27.3824 1739 41.7013
27.4996 1747 41.7971
27.6167 1734 41.6413
27.7339 1672 40.8901
27.8511 1633 40.4104
27.9683 1632 40.398
28.0855 1559 39.4842
28.2028 1528 39.0896
28.3201 1394 37.3363
28.4374 1449 38.0657
28.5547 1416 37.6298
28.6721 1410 37.55
28.7894 1445 38.0132
28.9068 1441 37.9605
29.0242 1543 39.281
29.1416 1595 39.9375
29.259 1632 40.398
29.3764 1734 41.6413
29.4939 1635 40.4351
29.6113 1667 40.8289
29.7288 1654 40.6694
29.8463 1613 40.1622
29.9638 1658 40.7185
30.0812 1557 39.4588
30.1987 1595 39.9375
30.3162 1613 40.1622
30.4337 1512 38.8844
30.5512 1620 40.2492
30.6687 1681 41
30.7862 1664 40.7922
30.9037 1634 40.4228
31.0212 1721 41.4849
31.1387 1709 41.3401
31.2562 1675 40.9268
31.3737 1688 41.0853
31.4912 1704 41.2795
31.6087 1628 40.3485
31.7262 1544 39.2938
31.8436 1552 39.3954
31.9611 1417 37.6431
32.0785 1395 37.3497
32.1959 1431 37.8286
32.3134 1443 37.9868
32.4308 1486 38.5487
32.5482 1555 39.4335
32.6655 1628 40.3485
32.7829 1617 40.2119
32.9002 1621 40.2616
33.0176 1665 40.8044
33.1349 1642 40.5216
33.2522 1732 41.6173
33.3694 1705 41.2916
33.4867 1686 41.0609
33.6039 1733 41.6293
33.7211 1668 40.8412
33.8383 1667 40.8289
33.9554 1632 40.398
34.0725 1587 39.8372
34.1896 1654 40.6694
34.3067 1672 40.8901
34.4237 1731 41.6053
34.5407 1764 42
34.6577 1717 41.4367
34.7746 1764 42
34.8915 1711 41.3642
35.0084 1648 40.5956
35.1252 1703 41.2674
35.242 1606 40.0749
35.3587 1558 39.4715
35.4755 1522 39.0128
35.5921 1523 39.0256
35.7088 1324 36.3868
35.8254 1417 37.6431
35.9419 1416 37.6298
36.0584 1475 38.4057
36.1749 1481 38.4838
36.2913 1569 39.6106
36.4077 1633 40.4104
36.524 1705 41.2916
36.6403 1669 40.8534
36.7565 1736 41.6653
36.8727 1693 41.1461
36.9889 1751 41.845
37.1049 1693 41.1461
37.221 0 1
37.3369 0 1
37.4529 0 1
37.5687 0 1
37.6845 0 1
37.8003 0 1
37.916 0 1
38.0316 0 1
38.1472 0 1
40.5851 0 1
40.7008 0 1
40.8164 0 1
40.9322 0 1
41.048 0 1
41.1639 0 1
41.2798 0 1
41.3958 0 1
41.5118 0 1
41.6279 0 1
41.744 1491 38.6135
41.8602 1522 39.0128
41.9765 1527 39.0768
42.0928 1538 39.2173
42.2091 1561 39.5095
42.3255 1473 38.3797
42.4419 1488 38.5746
42.5584 1495 38.6652
42.675 1445 38.0132
42.7915 1435 37.8814
42.9081 1528 39.0896
43.0248 1540 39.2428
43.1415 1541 39.2556
43.2582 1617 40.2119
43.375 1594 39.9249
43.4918 1584 39.7995
43.6087 1611 40.1373
43.7256 1634 40.4228
43.8425 1522 39.0128
43.9595 1540 39.2428
44.0765 1543 39.281
44.1935 1412 37.5766
44.3106 1343 36.647
44.4277 1304 36.1109
44.5448 1195 34.5688
44.6619 1186 34.4384
44.7791 1166 34.1467
44.8963 1237 35.171
45.0136 1316 36.2767
45.1308 1312 36.2215
45.2481 1390 37.2827
45.3654 1372 37.0405
45.4827 1362 36.9053
45.6001 1425 37.7492
45.7174 1462 38.2361
45.8348 1341 36.6197
45.9522 1379 37.1349
46.0697 1297 36.0139
46.1871 1224 34.9857
46.3046 1184 34.4093
46.422 1236 35.1568
46.5395 1258 35.4683
46.657 1266 35.5809
46.7745 1294 35.9722
46.892 1205 34.7131
47.0096 1209 34.7707
47.1271 1306 36.1386
47.2446 1244 35.2704
47.3622 1327 36.428
47.4797 1201 34.6554
47.5973 1214 34.8425
47.7149 1188 34.4674
47.8324 1084 32.9242
47.95 1012 31.8119
48.0675 949 30.8058
48.1851 929 30.4795
48.3027 924 30.3974
48.4202 874 29.5635
48.5378 993 31.5119
48.6554 1004 31.686
48.7729 1041 32.2645
48.8904 1174 34.2637
49.008 1153 33.9559
49.1255 1096 33.1059
49.243 1186 34.4384
49.3605 1113 33.3617
49.478 1099 33.1512
49.5955 1081 32.8786
49.713 1122 33.4963
49.8304 1099 33.1512
49.9479 1106 33.2566
50.0653 1133 33.6601
50.1827 1249 35.3412
50.3001 1270 35.6371
50.4175 1309 36.1801
50.5348 1270 35.6371
50.6521 1385 37.2156
50.7694 1413 37.5899
50.8867 1473 38.3797
51.004 1496 38.6782
51.1212 1458 38.1838
51.2384 1446 38.0263
51.3556 1409 37.5366
51.4727 1335 36.5377
51.5899 1224 34.9857
51.707 1120 33.4664
51.824 1265 35.5668
51.9411 1298 36.0278
52.0581 1335 36.5377
52.175 1498 38.704
52.2919 1623 40.2865
52.4088 1653 40.6571
52.5257 1636 40.4475
52.6425 1705 41.2916
52.7593 1746 41.7852
52.876 1670 40.8656
52.9927 1714 41.4005
53.1094 1732 41.6173
53.226 1621 40.2616
53.3426 1738 41.6893
53.4591 1686 41.0609
53.5756 1749 41.821
53.692 1647 40.5832
53.8084 1864 43.1741
53.9248 1846 42.9651
54.0411 1790 42.3084
54.1573 1890 43.4741
54.2735 0 1
54.3896 0 1
54.5057 0 1
54.6217 0 1
54.7377 0 1
54.8537 0 1
54.9695 0 1
55.0853 0 1
55.2011 0 1
55.3168 0 1
55.4324 0 1
57.824 0 1
57.9396 0 1
58.0553 0 1
58.1711 0 1
58.2869 0 1
58.4028 0 1
58.5187 0 1
58.6347 0 1
58.7508 0 1
58.8669 0 1
58.983 2246 47.392
59.0992 2362 48.6004
59.2155 2337 48.3425
59.3318 2376 48.7442
59.4482 2301 47.9687
59.5646 2406 49.051
59.681 2361 48.5901
59.7975 2247 47.4025
59.9141 2222 47.1381
60.0306 2151 46.3789
60.1473 2026 45.0111
60.2639 1821 42.6732
60.3807 1691 41.1218
60.4974 1698 41.2068
60.6142 1799 42.4146
60.731 1893 43.5086
60.8479 2063 45.4203
60.9648 2184 46.7333
61.0818 2248 47.4131
61.1987 2245 47.3814
61.3158 2273 47.676
61.4328 2274 47.6865
61.5499 2188 46.7761
61.667 2336 48.3322
61.7841 2217 47.085
61.9013 2228 47.2017
62.0185 2214 47.0532
62.1357 2110 45.9347
62.253 2313 48.0937
62.3702 2252 47.4552
62.4875 2373 48.7134
62.6049 2455 49.548
62.7222 2369 48.6724
62.8396 2458 49.5782
62.9569 2390 48.8876
63.0743 2420 49.1935
63.1918 2408 49.0714
63.3092 2293 47.8853
63.4267 2250 47.4342
63.5441 2191 46.8081
63.6616 1942 44.0681
63.7791 1810 42.5441
63.8966 1696 41.1825
64.0142 1539 39.2301
64.1317 1725 41.5331
64.2492 1832 42.8019
64.3668 1960 44.2719
64.4843 2137 46.2277
64.6019 2242 47.3498
64.7195 2344 48.4149
64.837 2348 48.4562
64.9546 2348 48.4562
65.0722 2217 47.085
65.1898 2214 47.0532
65.3074 2264 47.5815
65.4249 2179 46.6798
65.5425 2180 46.6905
65.6601 2120 46.0435
65.7777 2285 47.8017
65.8952 2338 48.3529
66.0128 2300 47.9583
66.1304 2311 48.0729
66.2479 2414 49.1325
66.3655 2454 49.5379
66.483 2470 49.6991
66.6005 2555 50.547
66.718 2413 49.1223
66.8355 2381 48.7955
66.953 2410 49.0918
67.0705 2175 46.6369
67.1879 2146 46.3249
67.3054 2025 45
67.4228 1749 41.821
67.5402 1655 40.6817
67.6576 1711 41.3642
67.7749 1784 42.2374
67.8923 1863 43.1625
68.0096 2191 46.8081
68.1269 2311 48.0729
68.2442 2416 49.1528
68.3614 2459 49.5883
68.4787 2381 48.7955
68.5958 2446 49.4571
68.713 2447 49.4672
68.8302 2446 49.4571
68.9473 2539 50.3885
69.0643 2318 48.1456
69.1814 2396 48.949
69.2984 2402 49.0102
69.4154 2390 48.8876
69.5323 2591 50.9019
69.6492 2687 51.8363
69.7661 2748 52.4214
69.8829 2702 51.9808
69.9997 2802 52.9339
70.1165 2807 52.9811
70.2332 2860 53.479
70.3499 2808 52.9906
70.4665 2642 51.4004
70.5831 2735 52.2972
70.6996 2561 50.6063
70.8161 2443 49.4267
70.9326 2340 48.3735
71.049 1992 44.6318
71.1653 1861 43.1393
71.2817 1711 41.3642
71.3979 1699 41.2189
71.5141 1902 43.6119
71.6303 1981 44.5084
71.7464 2032 45.0777
71.8624 0 1
71.9784 0 1
72.0944 0 1
72.2102 0 1
72.3261 0 1
72.4418 0 1
72.5575 0 1
72.6732 0 1
75.1054 0 1
75.2209 0 1
75.3365 0 1
75.4521 0 1
75.5678 0 1
75.6835 0 1
75.7993 0 1
75.9151 0 1
76.031 0 1
76.147 2357 48.5489
76.263 2391 48.8979
76.3791 2236 47.2864
76.4952 1975 44.441
76.6113 1812 42.5676
76.7276 1892 43.4971
76.8438 2008 44.8107
76.9601 2416 49.1528
77.0765 2698 51.9423
77.1929 2972 54.5161
77.3093 2965 54.4518
77.4258 3091 55.5968
77.5423 3057 55.2901
77.6589 2970 54.4977
77.7755 3130 55.9464
77.8921 3012 54.8817
78.0088 2899 53.8424
78.1256 2851 53.3948
78.2423 2846 53.3479
78.3591 2879 53.6563
78.4759 2874 53.6097
78.5928 2940 54.2218
78.7097 3073 55.4346
78.8266 3306 57.4978
78.9436 3120 55.857
79.0606 3284 57.3062
79.1776 3228 56.8155
79.2946 3256 57.0614
79.4117 3279 57.2626
79.5288 3178 56.3738
79.6459 3043 55.1634
79.7631 3088 55.5698
79.8802 2832 53.2165
79.9974 2611 51.0979
80.1147 2245 47.3814
80.2319 1956 44.2267
80.3491 2104 45.8694
80.4664 2210 47.0106
80.5837 2597 50.9608
80.701 2906 53.9073
80.8183 2949 54.3047
80.9357 3230 56.8331
81.053 3320 57.6194
81.1704 3191 56.4889
81.2877 3311 57.5413
81.4051 3227 56.8067
81.5225 3240 56.921
81.6399 3232 56.8507
81.7573 3075 55.4527
81.8747 3076 55.4617
81.9922 3078 55.4797
82.1096 3025 55
82.227 3244 56.9561
82.3444 3256 57.0614
82.4619 3320 57.6194
82.5793 3327 57.6802
82.6967 3566 59.716
82.8142 3276 57.2364
82.9316 3406 58.3609
83.049 3423 58.5064
83.1664 3169 56.2939
83.2838 3246 56.9737
83.4012 3112 55.7853
83.5186 2969 54.4885
83.636 2656 51.5364
83.7534 2421 49.2037
83.8708 2116 46
83.9881 2019 44.9333
84.1055 2147 46.3357
84.2228 2494 49.94
84.3401 2884 53.7029
84.4575 3194 56.5155
84.5747 3365 58.0086
84.692 3445 58.6941
84.8093 3455 58.7792
84.9265 3389 58.2151
85.0437 3409 58.3866
85.1609 3400 58.3095
85.2781 3383 58.1636
85.3952 3303 57.4717
85.5123 3315 57.576
85.6294 3347 57.8533
85.7465 3487 59.0508
85.8636 3479 58.983
85.9806 3648 60.3987
86.0976 3768 61.384
86.2145 3796 61.6117
86.3315 3845 62.0081
86.4484 4004 63.2772
86.5652 3958 62.9126
86.682 3942 62.7853
86.7988 3841 61.9758
86.9156 3819 61.7981
87.0323 3577 59.808
87.149 3413 58.4209
87.2657 3049 55.2178
87.3823 2718 52.1344
87.4988 2523 50.2295
87.6154 2525 50.2494
87.7318 2903 53.8795
87.8483 3502 59.1777
87.9647 3731 61.0819
88.081 3931 62.6977
88.1973 4223 64.9846
88.3136 4199 64.7997
88.4298 4160 64.4981
88.546 4107 64.0859
88.6621 4113 64.1327
88.7781 4079 63.867
88.8942 0 1
89.0101 0 1
89.126 0 1
89.2419 0 1
89.3577 0 1
89.4734 0 1
89.5891 0 1
89.7047 0 1
89.8203 0 1
89.9358 0 1
92.3269 0 1
92.4424 0 1
92.558 0 1
92.6736 0 1
92.7893 0 1
92.905 0 1
93.0208 0 1
93.1366 0 1
93.2525 0 1
93.3685 0 1
93.4845 0 1
93.6005 4244 65.146
93.7167 4442 66.6483
93.8328 4341 65.8863
93.949 4423 66.5056
94.0653 4334 65.8331
94.1816 4400 66.3325
94.2979 4208 64.8691
94.4143 4342 65.8939
94.5307 4330 65.8027
94.6472 4302 65.5896
94.7637 4070 63.7966
94.8803 4243 65.1383
94.9969 4343 65.9014
95.1135 4417 66.4605
95.2302 4660 68.2642
95.3469 4600 67.8233
95.4637 4814 69.383
95.5805 4732 68.7895
95.6973 4752 68.9348
95.8142 4855 69.6778
95.9311 4739 68.8404
96.048 4656 68.2349
96.1649 4474 66.888
96.2819 4182 64.6684
96.3989 3830 61.887
96.516 3466 58.8727
96.633 3059 55.3082
96.7501 2862 53.4977
96.8673 3112 55.7853
96.9844 3550 59.5819
97.1016 4074 63.8279
97.2188 4608 67.8823
97.336 4828 69.4838
97.4532 5063 71.1548
97.5704 4931 70.2211
97.6877 4942 70.2994
97.805 5038 70.9789
97.9223 4849 69.6348
98.0396 4766 69.0362
98.1569 4767 69.0435
98.2743 4824 69.455
98.3916 4656 68.2349
98.509 4608 67.8823
98.6264 4722 68.7168
98.7438 4733 68.7968
98.8612 4922 70.157
98.9786 5109 71.4773
99.096 5082 71.2881
99.2134 5326 72.9794
99.3308 5274 72.6223
99.4482 5130 71.624
99.5656 5138 71.6798
99.6831 5005 70.746
99.8005 4937 70.2638
99.9179 4446 66.6783
100.035 4270 65.3452
100.153 3636 60.2993
100.27 3301 57.4543
100.388 3318 57.6021
100.505 3728 61.0574
100.622 4385 66.2193
100.74 4829 69.491
100.857 5064 71.1618
100.975 5276 72.6361
101.092 5311 72.8766
101.209 5365 73.2462
101.327 5221 72.2565
101.444 5378 73.3348
101.561 5232 72.3326
101.679 5264 72.5534
101.796 5085 71.3092
101.913 4991 70.647
102.03 4938 70.2709
102.148 5103 71.4353
102.265 5386 73.3894
102.382 5085 71.3092
102.499 5425 73.6546
102.616 5517 74.2765
102.733 5593 74.7864
102.851 5703 75.5182
102.968 5700 75.4983
103.085 5782 76.0395
103.202 5541 74.4379
103.319 5298 72.7874
103.436 4952 70.3704
103.552 4574 67.6314
103.669 3958 62.9126
103.786 3386 58.1893
103.903 3572 59.7662
104.02 3999 63.2376
104.137 4800 69.282
104.253 5380 73.3485
104.37 5488 74.081
104.487 5742 75.776
104.603 5715 75.5976
104.72 5670 75.2994
104.836 5785 76.0592
104.953 5695 75.4652
105.069 5590 74.7663
105.186 5627 75.0133
105.302 5548 74.4849
105.418 5430 73.6885
105.535 5391 73.4234
105.651 5491 74.1013
105.767 5460 73.8918
105.883 5732 75.71
105.999 5942 77.0844
106.115 0 1
106.231 0 1
106.347 0 1
106.463 0 1
106.579 0 1
106.694 0 1
106.81 0 1
106.926 0 1
107.041 0 1
107.157 0 1
109.576 0 1
109.692 0 1
109.807 0 1
109.923 0 1
110.039 0 1
110.155 0 1
110.27 0 1
110.386 0 1
110.502 0 1
110.618 5086 71.3162
110.735 5153 71.7844
110.851 5293 72.753
110.967 5379 73.3417
111.083 5473 73.9797
111.199 5712 75.5778
111.316 5553 74.5185
111.432 5563 74.5855
111.549 5688 75.4188
111.665 5434 73.7157
111.782 5125 71.5891
111.898 4990 70.6399
112.015 4435 66.5958
112.132 3849 62.0403
112.248 3296 57.4108
112.365 3367 58.0259
112.482 3748 61.2209
112.599 4069 63.7887
112.716 4771 69.0724
112.832 4927 70.1926
112.949 5172 71.9166
113.066 5120 71.5542
113.183 5075 71.239
113.3 5066 71.1758
113.417 4995 70.6753
113.534 5057 71.1126
113.652 5035 70.9577
113.769 4857 69.6922
113.886 4724 68.7314
114.003 4710 68.6294
114.12 4639 68.1102
114.238 4699 68.5493
114.355 4436 66.6033
114.472 4666 68.3081
114.589 4832 69.5126
114.707 4859 69.7065
114.824 4838 69.5557
114.942 5076 71.2461
115.059 4959 70.4202
115.176 4855 69.6778
115.294 4862 69.728
115.411 4685 68.4471
115.529 4228 65.0231
115.646 3991 63.1744
115.764 3423 58.5064
115.881 3068 55.3895
115.999 3217 56.7186
116.116 3704 60.8605
116.234 4155 64.4593
116.351 4501 67.0895
116.469 4705 68.593
116.586 4811 69.3614
116.704 4831 69.5054
116.821 4916 70.1142
116.939 4830 69.4982
117.056 4793 69.2315
117.174 4659 68.2569
117.291 4624 68
117.409 4658 68.2495
117.526 4608 67.8823
117.644 4621 67.9779
117.761 4580 67.6757
117.879 4455 66.7458
117.996 4519 67.2235
118.114 4593 67.7717
118.231 4808 69.3397
118.349 4787 69.1881
118.466 4801 69.2892
118.584 4809 69.347
118.701 4868 69.7711
118.819 4991 70.647
118.936 4590 67.7495
119.053 4625 68.0074
119.171 4176 64.622
119.288 3829 61.8789
119.405 3388 58.2065
119.523 3029 55.0364
119.64 3271 57.1927
119.757 3527 59.3886
119.875 4110 64.1093
119.992 4289 65.4905
120.109 4585 67.7126
120.226 4674 68.3667
120.343 4683 68.4324
120.46 4682 68.4251
120.578 4523 67.2533
120.695 4552 67.4685
120.812 4599 67.8159
120.929 4686 68.4544
121.046 4510 67.1565
121.163 4550 67.4537
121.279 4491 67.0149
121.396 4344 65.909
121.513 4379 66.174
121.63 4380 66.1816
121.747 4350 65.9545
121.863 4443 66.6558
121.98 4459 66.7757
122.097 4688 68.469
122.213 4647 68.1689
122.33 4677 68.3886
122.446 4670 68.3374
122.563 4590 67.7495
122.679 4376 66.1513
122.795 4278 65.4064
122.912 3978 63.0714
123.028 3662 60.5145
123.144 3173 56.3294
123.26 2849 53.376
123.377 0 1
123.493 0 1
123.609 0 1
123.725 0 1
123.84 0 1
123.956 0 1
124.072 0 1
124.188 0 1
124.303 0 1
124.419 0 1
126.852 0 1
126.968 0 1
127.083 0 1
127.199 0 1
127.315 0 1
127.431 0 1
127.547 0 1
127.663 0 1
127.779 0 1
127.895 0 1
128.011 0 1
128.127 0 1
128.243 0 1
128.359 3503 59.1861
128.476 3223 56.7715
128.592 3219 56.7362
128.708 3758 61.3025
128.825 4172 64.591
128.941 4744 68.8767
129.058 4710 68.6294
129.174 4764 69.0217
129.291 4862 69.728
129.408 4798 69.2676
129.524 4784 69.1665
129.641 4806 69.3253
129.758 4757 68.971
129.875 4525 67.2681
129.992 4843 69.5917
130.108 4643 68.1396
130.225 4606 67.8675
130.342 4788 69.1954
130.459 4577 67.6535
130.576 4762 69.0072
130.693 4681 68.4178
130.81 4664 68.2935
130.928 4764 69.0217
131.045 4825 69.4622
131.162 4835 69.5342
131.279 4884 69.8856
131.396 4842 69.5845
131.513 4610 67.897
131.631 4496 67.0522
131.748 4131 64.2729
131.865 3701 60.8358
131.983 3353 57.9051
132.1 3246 56.9737
132.217 3652 60.4318
132.335 3913 62.554
132.452 4395 66.2948
132.57 4577 67.6535
132.687 4532 67.3201
132.804 4844 69.5989
132.922 4617 67.9485
133.039 4632 68.0588
133.157 4787 69.1881
133.274 4540 67.3795
133.392 4602 67.838
133.509 4463 66.8057
133.627 4639 68.1102
133.744 4490 67.0075
133.862 4555 67.4907
133.979 4553 67.4759
134.097 4531 67.3127
134.214 4592 67.7643
134.332 4338 65.8635
134.449 4587 67.7274
134.567 4649 68.1836
134.684 4609 67.8896
134.802 4611 67.9043
134.919 4693 68.5055
135.037 4622 67.9853
135.154 4513 67.1789
135.272 4224 64.9923
135.389 3940 62.7694
135.507 3644 60.3656
135.624 3286 57.3236
135.742 3299 57.4369
135.859 3595 59.9583
135.977 4075 63.8357
136.094 4425 66.5207
136.211 4507 67.1342
136.329 4563 67.55
136.446 4403 66.3551
136.564 4483 66.9552
136.681 4655 68.2276
136.798 4514 67.1863
136.915 4370 66.106
137.033 4410 66.4078
137.15 4414 66.4379
137.267 4327 65.7799
137.384 4316 65.6963
137.502 4268 65.3299
137.619 4382 66.1967
137.736 4443 66.6558
137.853 4310 65.6506
137.97 4232 65.0538
138.087 4462 66.7982
138.204 4437 66.6108
138.321 4322 65.7419
138.438 4531 67.3127
138.555 4557 67.5056
138.672 4433 66.5808
138.788 4350 65.9545
138.905 4205 64.846
139.022 3951 62.857
139.139 3525 59.3717
139.255 3271 57.1927
139.372 3315 57.576
139.488 3464 58.8558
139.605 3926 62.6578
139.721 4224 64.9923
139.838 4416 66.453
139.954 4444 66.6633
140.071 4332 65.8179
140.187 4403 66.3551
140.303 4398 66.3174
140.419 4345 65.9166
140.535 4212 64.8999
140.652 4311 65.6582
140.768 0 1
140.884 0 1
141 0 1
141.115 0 1
141.231 0 1
141.347 0 1
141.463 0 1
141.578 0 1
141.694 0 1
144.104 0 1
144.219 0 1
144.335 0 1
144.45 0 1
144.566 0 1
144.682 0 1
144.798 0 1
144.914 0 1
145.03 0 1
145.146 3815 61.7657
145.262 4017 63.3798
145.378 3721 61
145.494 3881 62.2977
145.61 3796 61.6117
145.726 3764 61.3514
145.842 3742 61.1719
145.959 3587 59.8916
146.075 3648 60.3987
146.192 3614 60.1166
146.308 3759 61.3107
146.425 3747 61.2127
146.541 3711 60.918
146.658 3735 61.1146
146.774 3714 60.9426
146.891 3777 61.4573
147.008 3758 61.3025
147.125 3703 60.8523
147.241 3715 60.9508
147.358 3637 60.3075
147.475 3524 59.3633
147.592 3417 58.4551
147.709 3063 55.3444
147.826 2814 53.0471
147.943 2721 52.1632
148.06 2911 53.9537
148.177 3136 56
148.294 3401 58.3181
148.411 3498 59.1439
148.528 3626 60.2163
148.645 3505 59.203
148.762 3712 60.9262
148.88 3484 59.0254
148.997 3369 58.0431
149.114 3699 60.8194
149.231 3430 58.5662
149.349 3514 59.279
149.466 3350 57.8792
149.583 3350 57.8792
149.701 3427 58.5406
149.818 3362 57.9828
149.935 3475 58.9491
150.053 3391 58.2323
150.17 3498 59.1439
150.287 3388 58.2065
150.405 3514 59.279
150.522 3493 59.1016
150.64 3338 57.7754
150.757 3587 59.8916
150.875 3425 58.5235
150.992 3444 58.6856
151.11 3364 58
151.227 3216 56.7098
151.344 3032 55.0636
151.462 2671 51.6817
151.579 2691 51.8748
151.697 2906 53.9073
151.814 3070 55.4076
151.932 3347 57.8533
152.049 3424 58.515
152.167 3559 59.6574
152.284 3516 59.2959
152.402 3419 58.4722
152.519 3473 58.9322
152.636 3471 58.9152
152.754 3448 58.7197
152.871 3468 58.8897
152.989 3486 59.0424
153.106 3327 57.6802
153.223 3328 57.6888
153.341 3337 57.7668
153.458 3359 57.9569
153.575 3375 58.0948
153.693 3476 58.9576
153.81 3469 58.8982
153.927 3376 58.1034
154.044 3441 58.66
154.162 3506 59.2115
154.279 3566 59.716
154.396 3691 60.7536
154.513 3592 59.9333
154.63 3505 59.203
154.747 3383 58.1636
154.864 3255 57.0526
154.981 3252 57.0263
155.098 2917 54.0093
155.215 2946 54.2771
155.332 2991 54.69
155.449 3302 57.463
155.566 3411 58.4038
155.683 3549 59.5735
155.8 3588 59.8999
155.917 3507 59.2199
156.033 3545 59.5399
156.15 0 1
156.267 0 1
156.383 0 1
156.5 0 1
156.617 0 1
156.733 0 1
156.85 0 1
156.966 0 1
157.082 0 1
157.199 0 1
157.315 0 1
157.431 0 1
157.547 0 1
157.664 0 1
157.78 0 1
157.896 0 1
158.012 0 1
158.128 0 1
158.244 0 1
158.359 0 1
158.475 0 1
158.591 0 1
158.706 0 1
