
6.15755 0 1
6.2731 0 1
6.3887 0 1
6.50437 0 1
6.62009 0 1
6.73587 0 1
6.8517 0 1
6.96759 0 1
7.08353 0 1
7.19952 0 1
7.31557 0 1
7.43166 0 1
7.54781 0 1
7.664 0 1
7.78024 0 1
7.89653 0 1
8.01286 0 1
8.12924 0 1
8.24567 0 1
8.36213 0 1
8.47864 0 1
8.59519 0 1
8.71178 0 1
8.82841 0 1
8.94508 0 1
9.06179 0 1
9.17853 0 1
9.29531 0 1
9.41212 0 1
9.52897 0 1
9.64584 0 1
9.76276 0 1
9.8797 0 1
9.99667 0 1
10.1137 0 1
10.2307 0 1
10.3478 0 1
10.4648 0 1
10.5819 0 1
10.6991 0 1
10.8162 0 1
10.9334 0 1
11.0506 0 1
11.1678 0 1
11.285 0 1
11.4023 0 1
11.5196 0 1
11.6369 0 1
11.7542 0 1
11.8715 0 1
11.9888 0 1
12.1062 0 1
12.2235 0 1
12.3409 0 1
12.4582 0 1
12.5756 0 1
12.693 0 1
12.8104 0 1
12.9278 0 1
13.0452 0 1
13.1626 0 1
13.28 0 1
13.3974 0 1
13.5149 0 1
13.6323 0 1
13.7497 0 1
13.8671 0 1
13.9845 0 1
14.1019 0 1
14.2193 0 1
14.3367 0 1
14.4541 0 1
14.5714 0 1
14.6888 0 1
14.8062 0 1
14.9235 0 1
15.0408 5571 74.6391
15.1581 5837 76.4003
15.2755 5930 77.0065
15.3927 5846 76.4591
15.51 5838 76.4068
15.6273 5765 75.9276
15.7445 5403 73.5051
15.8617 5868 76.6029
15.9789 5897 76.7919
16.0961 5745 75.7958
16.2132 5980 77.3305
16.3304 5994 77.4209
16.4475 6246 79.0316
16.5646 6169 78.543
16.6816 6266 79.1581
16.7986 6442 80.2621
16.9156 6559 80.9877
17.0326 6577 81.0987
17.1496 6760 82.2192
17.2665 6944 83.3307
17.3833 6892 83.0181
17.5002 6786 82.3772
17.617 6716 81.9512
17.7338 6668 81.6578
17.8505 6674 81.6946
17.9672 6502 80.635
18.0839 6496 80.5978
18.2005 6520 80.7465
18.3171 6620 81.3634
18.4337 6769 82.2739
18.5502 7077 84.1249
18.6666 7048 83.9524
18.7831 7235 85.0588
18.8994 7058 84.0119
19.0158 6939 83.3007
19.1321 6623 81.3818
19.2483 6377 79.8561
19.3645 6265 79.1518
19.4806 6292 79.3221
19.5967 6101 78.1089
19.7128 5964 77.2269
19.8288 5372 73.2939
19.9447 4552 67.4685
20.0606 0 1
20.1764 0 1
20.2922 0 1
20.4079 0 1
20.5236 0 1
20.6392 0 1
20.7548 0 1
20.8702 0 1
23.3078 0 1
23.4233 0 1
23.539 0 1
23.6547 0 1
23.7704 0 1
23.8862 0 1
24.0021 0 1
24.118 0 1
24.234 0 1
24.35 0 1
24.4661 3682 60.6795
24.5822 4377 66.1589
24.6984 4813 69.3758
24.8146 5436 73.7292
24.9309 5993 77.4145
25.0472 6284 79.2717
25.1636 6875 82.9156
25.28 7460 86.3713
25.3965 7904 88.9044
25.513 8539 92.4067
25.6296 8690 93.2202
25.7462 8897 94.3239
25.8628 8978 94.7523
25.9795 9107 95.4306
26.0962 9130 95.551
26.213 9258 96.2185
26.3298 9097 95.3782
26.4466 8986 94.7945
26.5635 8924 94.4669
26.6804 9020 94.9737
26.7973 8979 94.7576
26.9143 9328 96.5816
27.0313 9352 96.7057
27.1483 9573 97.8417
27.2653 9802 99.0051
27.3824 9842 99.2069
27.4996 9969 99.8449
27.6167 9759 98.7877
27.7339 9650 98.2344
27.8511 9414 97.0258
27.9683 9468 97.3036
28.0855 9303 96.4521
28.2028 9219 96.0156
28.3201 9332 96.6023
28.4374 9225 96.0469
28.5547 8956 94.6361
28.6721 9130 95.551
28.7894 8839 94.016
28.9068 8947 94.5886
29.0242 9030 95.0263
29.1416 9249 96.1717
29.259 9421 97.0618
29.3764 9362 96.7574
29.4939 9568 97.8162
29.6113 9496 97.4474
29.7288 9471 97.3191
29.8463 9424 97.0773
29.9638 9485 97.391
30.0812 9696 98.4683
30.1987 9626 98.1122
30.3162 9582 97.8877
30.4337 9834 99.1665
30.5512 10049 100.245
30.6687 10204 101.015
30.7862 10487 102.406
30.9037 10739 103.629
31.0212 10752 103.692
31.1387 10616 103.034
31.2562 10359 101.779
31.3737 10027 100.135
31.4912 10032 100.16
31.6087 10251 101.247
31.7262 10228 101.134
31.8436 10247 101.227
31.9611 10036 100.18
32.0785 9884 99.4183
32.1959 9823 99.111
32.3134 9843 99.2119
32.4308 9884 99.4183
32.5482 9719 98.585
32.6655 10021 100.105
32.7829 10046 100.23
32.9002 10411 102.034
33.0176 10493 102.435
33.1349 10310 101.538
33.2522 10590 102.908
33.3694 10262 101.302
33.4867 10567 102.796
33.6039 10559 102.757
33.7211 10664 103.267
33.8383 10616 103.034
33.9554 10642 103.16
34.0725 11061 105.171
34.1896 11327 106.428
34.3067 11398 106.761
34.4237 12016 109.618
34.5407 11954 109.334
34.6577 12092 109.964
34.7746 11988 109.49
34.8915 12015 109.613
35.0084 11790 108.582
35.1252 11462 107.061
35.242 11752 108.407
35.3587 11709 108.208
35.4755 11952 109.325
35.5921 11757 108.43
35.7088 11533 107.392
35.8254 11219 105.92
35.9419 10693 103.407
36.0584 10364 101.804
36.1749 10025 100.125
36.2913 9916 99.5791
36.4077 9863 99.3126
36.524 9733 98.656
36.6403 9501 97.4731
36.7565 9466 97.2934
36.8727 9324 96.5609
36.9889 9054 95.1525
37.1049 8534 92.3797
37.221 0 1
37.3369 0 1
37.4529 0 1
37.5687 0 1
37.6845 0 1
37.8003 0 1
37.916 0 1
38.0316 0 1
38.1472 0 1
40.5851 0 1
40.7008 0 1
40.8164 0 1
40.9322 0 1
41.048 0 1
41.1639 0 1
41.2798 0 1
41.3958 0 1
41.5118 0 1
41.6279 0 1
41.744 6471 80.4425
41.8602 7447 86.296
41.9765 8209 90.6035
42.0928 8793 93.771
42.2091 9729 98.6357
42.3255 10531 102.621
42.4419 11630 107.842
42.5584 12345 111.108
42.675 12700 112.694
42.7915 13237 115.052
42.9081 14213 119.218
43.0248 14824 121.754
43.1415 15640 125.06
43.2582 16367 127.934
43.375 17013 130.434
43.4918 16919 130.073
43.6087 17189 131.107
43.7256 17227 131.252
43.8425 17144 130.935
43.9595 16580 128.763
44.0765 16617 128.907
44.1935 16815 129.673
44.3106 16950 130.192
44.4277 17268 131.408
44.5448 16616 128.903
44.6619 16227 127.385
44.7791 15434 124.234
44.8963 14407 120.029
45.0136 14093 118.714
45.1308 14076 118.642
45.2481 13851 117.69
45.3654 14226 119.273
45.4827 14328 119.7
45.6001 15052 122.687
45.7174 15774 125.595
45.8348 16767 129.487
45.9522 17170 131.034
46.0697 17707 133.068
46.1871 17803 133.428
46.3046 18100 134.536
46.422 18069 134.421
46.5395 18808 137.142
46.657 19388 139.241
46.7745 19688 140.314
46.892 20314 142.527
47.0096 20587 143.482
47.1271 20618 143.59
47.2446 20954 144.755
47.3622 20793 144.198
47.4797 20214 142.176
47.5973 19870 140.961
47.7149 19390 139.248
47.8324 20098 141.767
47.95 20072 141.676
48.0675 19597 139.989
48.1851 19374 139.191
48.3027 17897 133.78
48.4202 16189 127.236
48.5378 15252 123.499
48.6554 14386 119.942
48.7729 14209 119.202
48.8904 14153 118.966
49.008 14372 119.883
49.1255 15406 124.121
49.243 16278 127.585
49.3605 17583 132.601
49.478 18151 134.726
49.5955 18747 136.92
49.713 18583 136.319
49.8304 18609 136.415
49.9479 18770 137.004
50.0653 18988 137.797
50.1827 19862 140.933
50.3001 20050 141.598
50.4175 20206 142.148
50.5348 20263 142.348
50.6521 20430 142.934
50.7694 20313 142.524
50.8867 20219 142.194
51.004 19921 141.142
51.1212 19271 138.82
51.2384 19250 138.744
51.3556 19260 138.78
51.4727 19460 139.499
51.5899 19116 138.261
51.707 18556 136.22
51.824 17347 131.708
51.9411 15854 125.913
52.0581 14139 118.908
52.175 13433 115.901
52.2919 13125 114.564
52.4088 13019 114.101
52.5257 13380 115.672
52.6425 13477 116.09
52.7593 14328 119.7
52.876 14999 122.47
52.9927 15280 123.612
53.1094 15443 124.27
53.226 15479 124.415
53.3426 15016 122.54
53.4591 14463 120.262
53.5756 13933 118.038
53.692 13269 115.191
53.8084 12933 113.723
53.9248 12828 113.261
54.0411 11907 109.119
54.1573 11308 106.339
54.2735 0 1
54.3896 0 1
54.5057 0 1
54.6217 0 1
54.7377 0 1
54.8537 0 1
54.9695 0 1
55.0853 0 1
55.2011 0 1
55.3168 0 1
55.4324 0 1
57.824 0 1
57.9396 0 1
58.0553 0 1
58.1711 0 1
58.2869 0 1
58.4028 0 1
58.5187 0 1
58.6347 0 1
58.7508 0 1
58.8669 0 1
58.983 10505 102.494
59.0992 11665 108.005
59.2155 12694 112.668
59.3318 13545 116.383
59.4482 14248 119.365
59.5646 14845 121.84
59.681 15226 123.394
59.7975 15144 123.061
59.9141 15595 124.88
60.0306 15804 125.714
60.1473 16584 128.779
60.2639 16395 128.043
60.3807 16148 127.075
60.4974 15401 124.101
60.6142 14265 119.436
60.731 12790 113.093
60.8479 11341 106.494
60.9648 10486 102.401
61.0818 10201 101
61.1987 10377 101.868
61.3158 10837 104.101
61.4328 11925 109.202
61.5499 13626 116.73
61.667 14873 121.955
61.7841 15546 124.684
61.9013 16098 126.878
62.0185 15914 126.151
62.1357 15705 125.32
62.253 15498 124.491
62.3702 15491 124.463
62.4875 15930 126.214
62.6049 16113 126.937
62.7222 16253 127.487
62.8396 16401 128.066
62.9569 16296 127.656
63.0743 16032 126.618
63.1918 16112 126.933
63.3092 15636 125.044
63.4267 15399 124.093
63.5441 15182 123.215
63.6616 15303 123.705
63.7791 15139 123.041
63.8966 14885 122.004
64.0142 14162 119.004
64.1317 12944 113.772
64.2492 11365 106.607
64.3668 9940 99.6995
64.4843 9124 95.5196
64.6019 8749 93.5361
64.7195 8574 92.5959
64.837 9147 95.6399
64.9546 10098 100.489
65.0722 11448 106.995
65.1898 12690 112.65
65.3074 13842 117.652
65.4249 14014 118.381
65.5425 14472 120.3
65.6601 13918 117.975
65.7777 13795 117.452
65.8952 13773 117.358
66.0128 13724 117.149
66.1304 13970 118.195
66.2479 14264 119.432
66.3655 14154 118.971
66.483 14497 120.403
66.6005 14342 119.758
66.718 14252 119.382
66.8355 14017 118.393
66.953 13693 117.017
67.0705 13500 116.19
67.1879 13449 115.97
67.3054 13744 117.235
67.4228 13653 116.846
67.5402 13237 115.052
67.6576 12519 111.888
67.7749 11607 107.736
67.8923 10064 100.319
68.0096 8732 93.4452
68.1269 7825 88.459
68.2442 7568 86.9943
68.3614 7507 86.6429
68.4787 7955 89.1908
68.5958 8664 93.0806
68.713 10172 100.856
68.8302 11279 106.203
68.9473 12397 111.342
69.0643 12802 113.146
69.1814 12956 113.824
69.2984 12953 113.811
69.4154 12082 109.918
69.5323 11556 107.499
69.6492 11524 107.35
69.7661 11487 107.177
69.8829 11632 107.852
69.9997 11517 107.317
70.1165 11300 106.301
70.2332 11321 106.4
70.3499 10892 104.365
70.4665 10480 102.372
70.5831 9770 98.8433
70.6996 9128 95.5406
70.8161 8619 92.8386
70.9326 8329 91.2634
71.049 7866 88.6905
71.1653 7535 86.8044
71.2817 6909 83.1204
71.3979 6158 78.4729
71.5141 5157 71.8123
71.6303 4160 64.4981
71.7464 2995 54.7266
71.8624 0 1
71.9784 0 1
72.0944 0 1
72.2102 0 1
72.3261 0 1
72.4418 0 1
72.5575 0 1
72.6732 0 1
75.1054 0 1
75.2209 0 1
75.3365 0 1
75.4521 0 1
75.5678 0 1
75.6835 0 1
75.7993 0 1
75.9151 0 1
76.031 0 1
76.147 7595 87.1493
76.263 8407 91.6897
76.3791 8681 93.1719
76.4952 8761 93.6002
76.6113 8598 92.7254
76.7276 8336 91.3017
76.8438 7789 88.2553
76.9601 7014 83.7496
77.0765 6387 79.9187
77.1929 6195 78.7083
77.3093 6097 78.0833
77.4258 6429 80.181
77.5423 7025 83.8153
77.6589 8089 89.9389
77.7755 9384 96.871
77.8921 10668 103.286
78.0088 11628 107.833
78.1256 11530 107.378
78.2423 11308 106.339
78.3591 11201 105.835
78.4759 10707 103.475
78.5928 10804 103.942
78.7097 10671 103.301
78.8266 10543 102.679
78.9436 11626 107.824
79.0606 11064 105.186
79.1776 11314 106.367
79.2946 11391 106.729
79.4117 11459 107.047
79.5288 11445 106.981
79.6459 10950 104.642
79.7631 10924 104.518
79.8802 11144 105.565
79.9974 11199 105.825
80.1147 11229 105.967
80.2319 10904 104.422
80.3491 10434 102.147
80.4664 9463 97.278
80.5837 8536 92.3905
80.701 7366 85.8254
80.8183 6610 81.3019
80.9357 6426 80.1623
81.053 6276 79.2212
81.1704 6656 81.5843
81.2877 7575 87.0345
81.4051 9172 95.7706
81.5225 10395 101.956
81.6399 11004 104.9
81.7573 11798 108.619
81.8747 11489 107.187
81.9922 11568 107.555
82.1096 11135 105.523
82.227 10885 104.331
82.3444 10577 102.845
82.4619 10862 104.221
82.5793 10870 104.259
82.6967 11150 105.594
82.8142 11447 106.991
82.9316 11433 106.925
83.049 11392 106.733
83.1664 11418 106.855
83.2838 11221 105.929
83.4012 11131 105.504
83.5186 11045 105.095
83.636 10907 104.437
83.7534 11017 104.962
83.8708 10832 104.077
83.9881 10019 100.095
84.1055 9343 96.6592
84.2228 8679 93.1612
84.3401 7742 87.9886
84.4575 6849 82.7587
84.5747 6648 81.5353
84.692 6762 82.2314
84.8093 7439 86.2496
84.9265 8548 92.4554
85.0437 9719 98.585
85.1609 10842 104.125
85.2781 11885 109.018
85.3952 12179 110.359
85.5123 12617 112.325
85.6294 12215 110.521
85.7465 11803 108.642
85.8636 11844 108.83
85.9806 12118 110.082
86.0976 12296 110.887
86.2145 12343 111.099
86.3315 12866 113.428
86.4484 12681 112.61
86.5652 12518 111.884
86.682 12167 110.304
86.7988 11917 109.165
86.9156 11444 106.977
87.0323 11281 106.212
87.149 10611 103.01
87.2657 10542 102.674
87.3823 10399 101.975
87.4988 10208 101.035
87.6154 9263 96.2445
87.7318 8876 94.2125
87.8483 7845 88.572
87.9647 6787 82.3833
88.081 5847 76.4657
88.1973 5384 73.3757
88.3136 5272 72.6085
88.4298 5505 74.1957
88.546 6236 78.9683
88.6621 7019 83.7795
88.7781 7637 87.3899
88.8942 0 1
89.0101 0 1
89.126 0 1
89.2419 0 1
89.3577 0 1
89.4734 0 1
89.5891 0 1
89.7047 0 1
89.8203 0 1
89.9358 0 1
92.3269 0 1
92.4424 0 1
92.558 0 1
92.6736 0 1
92.7893 0 1
92.905 0 1
93.0208 0 1
93.1366 0 1
93.2525 0 1
93.3685 0 1
93.4845 0 1
93.6005 7765 88.1192
93.7167 8443 91.8858
93.8328 9664 98.3056
93.949 11363 106.597
94.0653 12875 113.468
94.1816 14363 119.846
94.2979 15990 126.452
94.4143 17180 131.072
94.5307 18645 136.547
94.6472 19429 139.388
94.7637 19759 140.567
94.8803 19723 140.439
94.9969 19513 139.689
95.1135 19002 137.848
95.2302 19545 139.803
95.3469 19749 140.531
95.4637 20057 141.623
95.5805 19791 140.68
95.6973 19855 140.908
95.8142 19438 139.42
95.9311 18953 137.67
96.048 18631 136.495
96.1649 18233 135.03
96.2819 17980 134.09
96.3989 17628 132.77
96.516 17261 131.381
96.633 16763 129.472
96.7501 15420 124.177
96.8673 14382 119.925
96.9844 13540 116.362
97.1016 12522 111.902
97.2188 11968 109.398
97.336 11523 107.345
97.4532 12136 110.164
97.5704 13369 115.624
97.6877 15037 122.625
97.805 17162 131.004
97.9223 19502 139.65
98.0396 21104 145.272
98.1569 22935 151.443
98.2743 23900 154.596
98.3916 24404 156.218
98.509 24777 157.407
98.6264 24206 155.583
98.7438 23520 153.362
98.8612 23393 152.948
98.9786 23814 154.318
99.096 23852 154.441
99.2134 23377 152.895
99.3308 22634 150.446
99.4482 22147 148.819
99.5656 21660 147.173
99.6831 20410 142.864
99.8005 20008 141.45
99.9179 19916 141.124
100.035 19887 141.021
100.153 19181 138.495
100.27 17945 133.959
100.388 16008 126.523
100.505 14572 120.715
100.622 13073 114.337
100.74 12612 112.303
100.857 12030 109.681
100.975 12122 110.1
101.092 12724 112.801
101.209 14416 120.067
101.327 17068 130.645
101.444 19458 139.492
101.561 21577 146.891
101.679 23197 152.306
101.796 24101 155.245
101.913 24666 157.054
102.03 24507 156.547
102.148 23782 154.214
102.265 23264 152.525
102.382 22301 149.335
102.499 22536 150.12
102.616 22553 150.177
102.733 22479 149.93
102.851 21870 147.885
102.968 21795 147.631
103.085 20839 144.357
103.202 20391 142.797
103.319 20021 141.496
103.436 19435 139.409
103.552 19544 139.8
103.669 19400 139.284
103.786 18702 136.755
103.903 16719 129.302
104.02 15191 123.252
104.137 13348 115.534
104.253 12323 111.009
104.37 11520 107.331
104.487 11132 105.508
104.603 11452 107.014
104.72 12099 109.995
104.836 13266 115.178
104.953 14703 121.256
105.069 15100 122.882
105.186 15407 124.125
105.302 15107 122.911
105.418 14527 120.528
105.535 13701 117.051
105.651 12279 110.811
105.767 11117 105.437
105.883 10376 101.863
105.999 9245 96.1509
106.115 0 1
106.231 0 1
106.347 0 1
106.463 0 1
106.579 0 1
106.694 0 1
106.81 0 1
106.926 0 1
107.041 0 1
107.157 0 1
109.576 0 1
109.692 0 1
109.807 0 1
109.923 0 1
110.039 0 1
110.155 0 1
110.27 0 1
110.386 0 1
110.502 0 1
110.618 10925 104.523
110.735 11818 108.711
110.851 12360 111.176
110.967 13214 114.952
111.083 14571 120.71
111.199 15744 125.475
111.316 16892 129.969
111.432 17354 131.735
111.549 18205 134.926
111.665 18593 136.356
111.782 18393 135.621
111.898 18540 136.162
112.015 18359 135.495
112.132 18480 135.941
112.248 18673 136.649
112.365 18643 136.539
112.482 17587 132.616
112.599 16189 127.236
112.716 14187 119.109
112.832 12399 111.351
112.949 11358 106.574
113.066 10942 104.604
113.183 11034 105.043
113.3 11520 107.331
113.417 12417 111.432
113.534 14587 120.777
113.652 17029 130.495
113.769 18821 137.19
113.886 19423 139.366
114.003 19438 139.42
114.12 19776 140.627
114.238 19315 138.978
114.355 18280 135.204
114.472 17772 133.312
114.589 18075 134.443
114.707 18410 135.683
114.824 18689 136.708
114.942 19104 138.217
115.059 19154 138.398
115.176 19513 139.689
115.294 19117 138.264
115.411 18776 137.026
115.529 18460 135.868
115.646 17896 133.776
115.764 18294 135.255
115.881 18001 134.168
115.999 18024 134.253
116.116 17232 131.271
116.234 15421 124.181
116.351 13581 116.538
116.469 12236 110.616
116.586 11409 106.813
116.704 11094 105.328
116.821 11287 106.24
116.939 11579 107.606
117.056 12805 113.159
117.174 14836 121.803
117.291 16743 129.395
117.409 17981 134.093
117.526 18428 135.75
117.644 18533 136.136
117.761 18608 136.411
117.879 17905 133.81
117.996 16898 129.992
118.114 17285 131.472
118.231 17548 132.469
118.349 18060 134.387
118.466 17920 133.866
118.584 18546 136.184
118.701 18416 135.706
118.819 18076 134.447
118.936 17890 133.754
119.053 17612 132.71
119.171 17517 132.352
119.288 17021 130.465
119.405 16898 129.992
119.523 17042 130.545
119.64 16647 129.023
119.757 15983 126.424
119.875 14931 122.192
119.992 13451 115.978
120.109 12116 110.073
120.226 11492 107.201
120.343 10985 104.809
120.46 10791 103.88
120.578 11083 105.276
120.695 11670 108.028
120.812 13110 114.499
120.929 14382 119.925
121.046 15561 124.744
121.163 15895 126.075
121.279 16091 126.85
121.396 15975 126.392
121.513 15624 124.996
121.63 14811 121.7
121.747 14008 118.355
121.863 13707 117.077
121.98 13911 117.945
122.097 13739 117.213
122.213 13749 117.256
122.33 13522 116.284
122.446 12912 113.631
122.563 12351 111.135
122.679 11687 108.106
122.795 10734 103.605
122.912 10109 100.544
123.028 9169 95.7549
123.144 8722 93.3916
123.26 8232 90.7304
123.377 0 1
123.493 0 1
123.609 0 1
123.725 0 1
123.84 0 1
123.956 0 1
124.072 0 1
124.188 0 1
124.303 0 1
124.419 0 1
126.852 0 1
126.968 0 1
127.083 0 1
127.199 0 1
127.315 0 1
127.431 0 1
127.547 0 1
127.663 0 1
127.779 0 1
127.895 0 1
128.011 0 1
128.127 0 1
128.243 0 1
128.359 16059 126.724
128.476 16204 127.295
128.592 16695 129.209
128.708 17275 131.434
128.825 17218 131.217
128.941 16754 129.437
129.058 15695 125.28
129.174 14617 120.901
129.291 13592 116.585
129.408 13064 114.298
129.524 13168 114.752
129.641 12783 113.062
129.758 13089 114.407
129.875 14246 119.357
129.992 15370 123.976
130.108 16670 129.112
130.225 17536 132.424
130.342 18242 135.063
130.459 17713 133.09
130.576 18453 135.842
130.693 17593 132.639
130.81 17146 130.943
130.928 17511 132.329
131.045 17907 133.817
131.162 18092 134.507
131.279 18301 135.281
131.396 18321 135.355
131.513 18468 135.897
131.631 18279 135.2
131.748 17675 132.947
131.865 17406 131.932
131.983 16896 129.985
132.1 16786 129.561
132.217 17073 130.664
132.335 16766 129.484
132.452 16036 126.633
132.57 15515 124.559
132.687 14300 119.583
132.804 13701 117.051
132.922 13181 114.809
133.039 12654 112.49
133.157 12682 112.614
133.274 12440 111.535
133.392 13032 114.158
133.509 13704 117.064
133.627 14885 122.004
133.744 15795 125.678
133.862 16507 128.48
133.979 17117 130.832
134.097 17179 131.069
134.214 16590 128.802
134.332 16368 127.937
134.449 16284 127.609
134.567 16901 130.004
134.684 17202 131.156
134.802 17415 131.966
134.919 17504 132.303
135.037 17602 132.673
135.154 17190 131.111
135.272 17259 131.374
135.389 16812 129.661
135.507 16532 128.577
135.624 16352 127.875
135.742 16214 127.334
135.859 16121 126.969
135.977 16039 126.645
136.094 16029 126.606
136.211 15072 122.768
136.329 14538 120.574
136.446 14192 119.13
136.564 13441 115.935
136.681 13292 115.291
136.798 13155 114.695
136.915 12823 113.239
137.033 13034 114.167
137.15 13378 115.663
137.267 14134 118.887
137.384 15160 123.126
137.502 15548 124.692
137.619 15818 125.77
137.736 16267 127.542
137.853 15498 124.491
137.97 15735 125.439
138.087 15104 122.898
138.204 16012 126.539
138.321 15958 126.325
138.438 15885 126.036
138.555 15839 125.853
138.672 15282 123.62
138.788 15258 123.523
138.905 14418 120.075
139.022 14110 118.786
139.139 13467 116.047
139.255 12534 111.955
139.372 12256 110.707
139.488 11618 107.787
139.605 11256 106.094
139.721 10475 102.347
139.838 10079 100.394
139.954 8996 94.8472
140.071 8205 90.5815
140.187 7785 88.2326
140.303 6839 82.6982
140.419 6404 80.025
140.535 5710 75.5645
140.652 5307 72.8492
140.768 0 1
140.884 0 1
141 0 1
141.115 0 1
141.231 0 1
141.347 0 1
141.463 0 1
141.578 0 1
141.694 0 1
144.104 0 1
144.219 0 1
144.335 0 1
144.45 0 1
144.566 0 1
144.682 0 1
144.798 0 1
144.914 0 1
145.03 0 1
145.146 10296 101.469
145.262 10707 103.475
145.378 10612 103.015
145.494 10658 103.238
145.61 10545 102.689
145.726 10465 102.299
145.842 10371 101.838
145.959 10635 103.126
146.075 10723 103.552
146.192 11002 104.89
146.308 11334 106.461
146.425 11535 107.401
146.541 11698 108.157
146.658 11796 108.609
146.774 11463 107.065
146.891 11755 108.42
147.008 12141 110.186
147.125 12318 110.986
147.241 12521 111.897
147.358 12688 112.641
147.475 12606 112.276
147.592 12796 113.119
147.709 12552 112.036
147.826 12248 110.671
147.943 12143 110.195
148.06 11817 108.706
148.177 11635 107.866
148.294 11768 108.48
148.411 11921 109.183
148.528 12094 109.973
148.645 11847 108.844
148.762 12232 110.598
148.88 12047 109.759
148.997 12193 110.422
149.114 11574 107.583
149.231 11485 107.168
149.349 11408 106.808
149.466 11098 105.347
149.583 10949 104.637
149.701 10939 104.59
149.818 10916 104.48
149.935 11032 105.033
150.053 11447 106.991
150.17 11946 109.298
150.287 11939 109.266
150.405 11681 108.079
150.522 11710 108.213
150.64 11797 108.614
150.757 12286 110.842
150.875 12408 111.391
150.992 12696 112.677
151.11 12743 112.885
151.227 12705 112.716
151.344 12378 111.256
151.462 12298 110.896
151.579 11931 109.229
151.697 11798 108.619
151.814 11709 108.208
151.932 11654 107.954
152.049 11606 107.731
152.167 11911 109.138
152.284 11652 107.944
152.402 11987 109.485
152.519 11959 109.357
152.636 11873 108.963
152.754 11785 108.559
152.871 11318 106.386
152.989 11231 105.976
153.106 11323 106.41
153.223 10724 103.557
153.341 10758 103.721
153.458 10793 103.889
153.575 10846 104.144
153.693 11204 105.849
153.81 11257 106.099
153.927 11445 106.981
154.044 11144 105.565
154.162 10838 104.106
154.279 11327 106.428
154.396 11872 108.959
154.513 11965 109.385
154.63 12138 110.173
154.747 11960 109.362
154.864 12033 109.695
154.981 11713 108.227
155.098 11412 106.827
155.215 11202 105.84
155.332 11240 106.019
155.449 10833 104.082
155.566 10901 104.408
155.683 11034 105.043
155.8 10684 103.363
155.917 10804 103.942
156.033 10369 101.828
156.15 0 1
156.267 0 1
156.383 0 1
156.5 0 1
156.617 0 1
156.733 0 1
156.85 0 1
156.966 0 1
157.082 0 1
157.199 0 1
157.315 0 1
157.431 0 1
157.547 0 1
157.664 0 1
157.78 0 1
157.896 0 1
158.012 0 1
158.128 0 1
158.244 0 1
158.359 0 1
158.475 0 1
158.591 0 1
158.706 0 1
