
6.15755 0 1
6.2731 0 1
6.3887 0 1
6.50437 0 1
6.62009 0 1
6.73587 0 1
6.8517 0 1
6.96759 0 1
7.08353 0 1
7.19952 0 1
7.31557 0 1
7.43166 0 1
7.54781 0 1
7.664 0 1
7.78024 0 1
7.89653 0 1
8.01286 0 1
8.12924 0 1
8.24567 0 1
8.36213 0 1
8.47864 0 1
8.59519 0 1
8.71178 0 1
8.82841 0 1
8.94508 0 1
9.06179 0 1
9.17853 0 1
9.29531 0 1
9.41212 0 1
9.52897 0 1
9.64584 0 1
9.76276 0 1
9.8797 0 1
9.99667 0 1
10.1137 0 1
10.2307 0 1
10.3478 0 1
10.4648 0 1
10.5819 0 1
10.6991 0 1
10.8162 0 1
10.9334 0 1
11.0506 0 1
11.1678 0 1
11.285 0 1
11.4023 0 1
11.5196 0 1
11.6369 0 1
11.7542 0 1
11.8715 0 1
11.9888 0 1
12.1062 0 1
12.2235 0 1
12.3409 0 1
12.4582 0 1
12.5756 0 1
12.693 0 1
12.8104 0 1
12.9278 0 1
13.0452 0 1
13.1626 0 1
13.28 0 1
13.3974 0 1
13.5149 0 1
13.6323 0 1
13.7497 0 1
13.8671 0 1
13.9845 0 1
14.1019 0 1
14.2193 0 1
14.3367 0 1
14.4541 0 1
14.5714 0 1
14.6888 0 1
14.8062 0 1
14.9235 0 1
15.0408 0 0
15.1581 0 0
15.2755 0 0
15.3927 0 0
15.51 0 0
15.6273 0 0
15.7445 0 0
15.8617 0 0
15.9789 0 0
16.0961 0 0
16.2132 0 0
16.3304 0 0
16.4475 0 0
16.5646 0 0
16.6816 0 0
16.7986 0 0
16.9156 0 0
17.0326 0 0
17.1496 0 0
17.2665 0 0
17.3833 0 0
17.5002 0 0
17.617 0 0
17.7338 0 0
17.8505 0 0
17.9672 0 0
18.0839 0 0
18.2005 0 0
18.3171 0 0
18.4337 0 0
18.5502 0 0
18.6666 0 0
18.7831 0 0
18.8994 0 0
19.0158 0 0
19.1321 0 0
19.2483 0 0
19.3645 0 0
19.4806 0 0
19.5967 0 0
19.7128 0 0
19.8288 0 0
19.9447 0 0
20.0606 0 1
20.1764 0 1
20.2922 0 1
20.4079 0 1
20.5236 0 1
20.6392 0 1
20.7548 0 1
20.8702 0 1
23.3078 0 1
23.4233 0 1
23.539 0 1
23.6547 0 1
23.7704 0 1
23.8862 0 1
24.0021 0 1
24.118 0 1
24.234 0 1
24.35 0 1
24.4661 11300 106.301
24.5822 12475 111.692
24.6984 13868 117.762
24.8146 16211 127.322
24.9309 19374 139.191
25.0472 22788 150.957
25.1636 25162 158.625
25.28 25654 160.169
25.3965 25297 159.05
25.513 25112 158.468
25.6296 25049 158.269
25.7462 24953 157.965
25.8628 24143 155.38
25.9795 23629 153.717
26.0962 23719 154.01
26.213 23053 151.832
26.3298 22975 151.575
26.4466 22493 149.977
26.5635 22161 148.866
26.6804 21560 146.833
26.7973 20795 144.205
26.9143 20112 141.817
27.0313 19409 139.316
27.1483 19151 138.387
27.2653 18809 137.146
27.3824 17935 133.922
27.4996 16809 129.65
27.6167 16058 126.72
27.7339 15992 126.459
27.8511 17346 131.704
27.9683 19041 137.989
28.0855 19599 139.996
28.2028 20574 143.436
28.3201 20990 144.879
28.4374 20985 144.862
28.5547 20937 144.696
28.6721 21188 145.561
28.7894 21472 146.533
28.9068 21510 146.663
29.0242 21926 148.074
29.1416 22293 149.308
29.259 22493 149.977
29.3764 21983 148.267
29.4939 21896 147.973
29.6113 20896 144.554
29.7288 20508 143.206
29.8463 20285 142.425
29.9638 20102 141.782
30.0812 19728 140.456
30.1987 19427 139.381
30.3162 19750 140.535
30.4337 19964 141.294
30.5512 19980 141.351
30.6687 19633 140.118
30.7862 19447 139.453
30.9037 18532 136.132
31.0212 18014 134.216
31.1387 17662 132.898
31.2562 18354 135.477
31.3737 19290 138.888
31.4912 20602 143.534
31.6087 20930 144.672
31.7262 21193 145.578
31.8436 20912 144.61
31.9611 20775 144.135
32.0785 20595 143.51
32.1959 20873 144.475
32.3134 20225 142.215
32.4308 19985 141.368
32.5482 19467 139.524
32.6655 19178 138.485
32.7829 18437 135.783
32.9002 17896 133.776
33.0176 17362 131.765
33.1349 17075 130.671
33.2522 16836 129.754
33.3694 16585 128.783
33.4867 16832 129.738
33.6039 17160 130.996
33.7211 17406 131.932
33.8383 17944 133.955
33.9554 18230 135.019
34.0725 18216 134.967
34.1896 18620 136.455
34.3067 19002 137.848
34.4237 18670 136.638
34.5407 18576 136.294
34.6577 18160 134.759
34.7746 18292 135.248
34.8915 18127 134.637
35.0084 19290 138.888
35.1252 19784 140.656
35.242 20001 141.425
35.3587 19614 140.05
35.4755 19408 139.313
35.5921 18847 137.284
35.7088 18312 135.322
35.8254 17403 131.92
35.9419 16868 129.877
36.0584 16170 127.161
36.1749 15731 125.423
36.2913 15328 123.806
36.4077 14464 120.266
36.524 13538 116.353
36.6403 11666 108.009
36.7565 10361 101.789
36.8727 9332 96.6023
36.9889 8540 92.4121
37.1049 8297 91.0879
37.221 0 1
37.3369 0 1
37.4529 0 1
37.5687 0 1
37.6845 0 1
37.8003 0 1
37.916 0 1
38.0316 0 1
38.1472 0 1
40.5851 0 1
40.7008 0 1
40.8164 0 1
40.9322 0 1
41.048 0 1
41.1639 0 1
41.2798 0 1
41.3958 0 1
41.5118 0 1
41.6279 0 1
41.744 7524 86.741
41.8602 9558 97.765
41.9765 11476 107.126
42.0928 12492 111.768
42.2091 12712 112.748
42.3255 13056 114.263
42.4419 13389 115.711
42.5584 13679 116.957
42.675 14514 120.474
42.7915 15024 122.572
42.9081 15942 126.262
43.0248 16424 128.156
43.1415 17095 130.748
43.2582 16636 128.981
43.375 15830 125.817
43.4918 15844 125.873
43.6087 15772 125.587
43.7256 15940 126.254
43.8425 16144 127.059
43.9595 16104 126.902
44.0765 15958 126.325
44.1935 15934 126.23
44.3106 15802 125.706
44.4277 15883 126.028
44.5448 15785 125.638
44.6619 15805 125.718
44.7791 16064 126.744
44.8963 16078 126.799
45.0136 16519 128.526
45.1308 16982 130.315
45.2481 17404 131.924
45.3654 17449 132.095
45.4827 18416 135.706
45.6001 19271 138.82
45.7174 19907 141.092
45.8348 20649 143.698
45.9522 21765 147.53
46.0697 22776 150.917
46.1871 23635 153.737
46.3046 24796 157.467
46.422 25288 159.022
46.5395 25863 160.82
46.657 25489 159.653
46.7745 24708 157.188
46.892 22345 149.482
47.0096 21072 145.162
47.1271 21961 148.192
47.2446 22612 150.373
47.3622 22960 151.526
47.4797 23646 153.773
47.5973 23526 153.382
47.7149 24078 155.171
47.8324 23860 154.467
47.95 24062 155.119
48.0675 23777 154.198
48.1851 24294 155.865
48.3027 24193 155.541
48.4202 24226 155.647
48.5378 23725 154.029
48.6554 23154 152.164
48.7729 23194 152.296
48.8904 22617 150.389
49.008 22720 150.732
49.1255 22052 148.499
49.243 22620 150.399
49.3605 22929 151.423
49.478 23214 152.361
49.5955 23894 154.577
49.713 23914 154.642
49.8304 23648 153.779
49.9479 23122 152.059
50.0653 22446 149.82
50.1827 21629 147.068
50.3001 19418 139.348
50.4175 15698 125.292
50.5348 14202 119.172
50.6521 14894 122.041
50.7694 16371 127.949
50.8867 16681 129.155
51.004 16702 129.236
51.1212 16461 128.3
51.2384 15962 126.341
51.3556 15326 123.798
51.4727 14720 121.326
51.5899 14504 120.433
51.707 14739 121.404
51.824 14549 120.619
51.9411 14300 119.583
52.0581 14279 119.495
52.175 14296 119.566
52.2919 14072 118.625
52.4088 13551 116.409
52.5257 13537 116.349
52.6425 12907 113.609
52.7593 12695 112.672
52.876 12554 112.045
52.9927 12484 111.732
53.1094 12475 111.692
53.226 12351 111.135
53.3426 12354 111.149
53.4591 11794 108.6
53.5756 10505 102.494
53.692 8991 94.8209
53.8084 7819 88.4251
53.9248 6842 82.7164
54.0411 5849 76.4788
54.1573 5547 74.4782
54.2735 0 1
54.3896 0 1
54.5057 0 1
54.6217 0 1
54.7377 0 1
54.8537 0 1
54.9695 0 1
55.0853 0 1
55.2011 0 1
55.3168 0 1
55.4324 0 1
57.824 0 1
57.9396 0 1
58.0553 0 1
58.1711 0 1
58.2869 0 1
58.4028 0 1
58.5187 0 1
58.6347 0 1
58.7508 0 1
58.8669 0 1
58.983 10603 102.971
59.0992 10778 103.817
59.2155 10749 103.677
59.3318 11588 107.648
59.4482 12921 113.671
59.5646 13942 118.076
59.681 14904 122.082
59.7975 15192 123.256
59.9141 15061 122.723
60.0306 14989 122.43
60.1473 14925 122.168
60.2639 14812 121.705
60.3807 14834 121.795
60.4974 14998 122.466
60.6142 15154 123.102
60.731 15456 124.322
60.8479 15934 126.23
60.9648 16122 126.972
61.0818 16170 127.161
61.1987 15598 124.892
61.3158 15056 122.703
61.4328 14841 121.824
61.5499 14630 120.955
61.667 14383 119.929
61.7841 14668 121.112
61.9013 14820 121.737
62.0185 14888 122.016
62.1357 14988 122.425
62.253 15225 123.39
62.3702 14734 121.384
62.4875 13676 116.944
62.6049 12907 113.609
62.7222 13122 114.551
62.8396 13777 117.375
62.9569 14644 121.012
63.0743 15478 124.411
63.1918 15319 123.77
63.3092 15350 123.895
63.4267 15585 124.84
63.5441 15519 124.575
63.6616 15273 123.584
63.7791 14731 121.371
63.8966 15002 122.483
64.0142 14880 121.984
64.1317 14996 122.458
64.2492 15237 123.438
64.3668 15302 123.701
64.4843 14838 121.811
64.6019 14847 121.848
64.7195 14824 121.754
64.837 14917 122.135
64.9546 15037 122.625
65.0722 15801 125.702
65.1898 16270 127.554
65.3074 17567 132.541
65.4249 18695 136.73
65.5425 21054 145.1
65.6601 23092 151.961
65.7777 25874 160.854
65.8952 27383 165.478
66.0128 27398 165.523
66.1304 26222 161.932
66.2479 25914 160.978
66.3655 29730 172.424
66.483 35350 188.016
66.6005 41331 203.3
66.718 44661 211.331
66.8355 46858 216.467
66.953 48386 219.968
67.0705 49274 221.977
67.1879 50638 225.029
67.3054 51400 226.716
67.4228 52165 228.397
67.5402 52179 228.427
67.6576 53125 230.489
67.7749 52976 230.165
67.8923 53589 231.493
68.0096 54548 233.555
68.1269 54318 233.062
68.2442 54269 232.957
68.3614 54843 234.186
68.4787 54147 232.695
68.5958 55027 234.578
68.713 55232 235.015
68.8302 55225 235
68.9473 56320 237.318
69.0643 56751 238.225
69.1814 57497 239.785
69.2984 58759 242.403
69.4154 58418 241.698
69.5323 58073 240.983
69.6492 55144 234.828
69.7661 48264 219.691
69.8829 42952 207.249
69.9997 45977 214.422
70.1165 52188 228.447
70.2332 53596 231.508
70.3499 49752 223.052
70.4665 43269 208.012
70.5831 38355 195.844
70.6996 35902 189.478
70.8161 34080 184.608
70.9326 32711 180.862
71.049 31195 176.621
71.1653 30081 173.439
71.2817 28250 168.077
71.3979 26571 163.006
71.5141 25121 158.496
71.6303 23713 153.99
71.7464 22274 149.245
71.8624 0 1
71.9784 0 1
72.0944 0 1
72.2102 0 1
72.3261 0 1
72.4418 0 1
72.5575 0 1
72.6732 0 1
75.1054 0 1
75.2209 0 1
75.3365 0 1
75.4521 0 1
75.5678 0 1
75.6835 0 1
75.7993 0 1
75.9151 0 1
76.031 0 1
76.147 62582 250.164
76.263 67302 259.426
76.3791 66184 257.263
76.4952 64256 253.488
76.6113 61955 248.908
76.7276 60263 245.485
76.8438 57925 240.676
76.9601 55952 236.542
77.0765 53993 232.364
77.1929 51682 227.337
77.3093 49287 222.007
77.4258 47949 218.973
77.5423 46145 214.814
77.6589 44776 211.603
77.7755 43622 208.859
77.8921 42503 206.163
78.0088 41775 204.389
78.1256 41570 203.887
78.2423 41594 203.946
78.3591 41025 202.546
78.4759 40367 200.915
78.5928 38448 196.082
78.7097 32709 180.856
78.8266 25829 160.714
78.9436 21888 147.946
79.0606 23706 153.968
79.1776 30272 173.989
79.2946 35488 188.383
79.4117 38221 195.502
79.5288 38916 197.271
79.6459 38725 196.787
79.7631 38865 197.142
79.8802 38904 197.241
79.9974 38218 195.494
80.1147 37832 194.504
80.2319 37881 194.63
80.3491 36552 191.186
80.4664 36165 190.171
80.5837 35816 189.251
80.701 34796 186.537
80.8183 34819 186.598
80.9357 34079 184.605
81.053 33373 182.683
81.1704 32530 180.361
81.2877 31243 176.757
81.4051 30939 175.895
81.5225 30864 175.682
81.6399 29712 172.372
81.7573 30055 173.364
81.8747 30285 174.026
81.9922 29980 173.147
82.1096 29605 172.061
82.227 29322 171.237
82.3444 25715 160.359
82.4619 21569 146.864
82.5793 18039 134.309
82.6967 18957 137.684
82.8142 23246 152.466
82.9316 27486 165.789
83.049 29150 170.734
83.1664 29112 170.622
83.2838 29599 172.044
83.4012 29683 172.288
83.5186 29436 171.569
83.636 29429 171.549
83.7534 29237 170.988
83.8708 28802 169.712
83.9881 28491 168.793
84.1055 28817 169.756
84.2228 28009 167.359
84.3401 27764 166.625
84.4575 27080 164.56
84.5747 26489 162.754
84.692 24720 157.226
84.8093 24285 155.836
84.9265 22780 150.93
85.0437 21848 147.811
85.1609 20773 144.128
85.2781 20138 141.908
85.3952 19558 139.85
85.5123 19309 138.957
85.6294 18550 136.198
85.7465 17698 133.034
85.8636 16591 128.806
85.9806 14821 121.742
86.0976 12764 112.978
86.2145 12982 113.939
86.3315 14359 119.829
86.4484 17732 133.162
86.5652 19105 138.221
86.682 19812 140.755
86.7988 20120 141.845
86.9156 20406 142.85
87.0323 20618 143.59
87.149 20876 144.485
87.2657 21095 145.241
87.3823 20748 144.042
87.4988 19933 141.184
87.6154 19007 137.866
87.7318 18000 134.164
87.8483 16920 130.077
87.9647 16432 128.187
88.081 16045 126.669
88.1973 15814 125.754
88.3136 15763 125.551
88.4298 15929 126.21
88.546 15790 125.658
88.6621 15607 124.928
88.7781 16024 126.586
88.8942 0 1
89.0101 0 1
89.126 0 1
89.2419 0 1
89.3577 0 1
89.4734 0 1
89.5891 0 1
89.7047 0 1
89.8203 0 1
89.9358 0 1
92.3269 0 1
92.4424 0 1
92.558 0 1
92.6736 0 1
92.7893 0 1
92.905 0 1
93.0208 0 1
93.1366 0 1
93.2525 0 1
93.3685 0 1
93.4845 0 1
93.6005 33824 183.913
93.7167 35264 187.787
93.8328 36534 191.139
93.949 38479 196.161
94.0653 38899 197.228
94.1816 39929 199.822
94.2979 41183 202.936
94.4143 41552 203.843
94.5307 42222 205.48
94.6472 42019 204.985
94.7637 41164 202.889
94.8803 38014 194.972
94.9969 34840 186.655
95.1135 32534 180.372
95.2302 34733 186.368
95.3469 37972 194.864
95.4637 41565 203.875
95.5805 44400 210.713
95.6973 44367 210.635
95.8142 45014 212.165
95.9311 45121 212.417
96.048 44607 211.204
96.1649 44535 211.033
96.2819 42828 206.949
96.3989 40826 202.054
96.516 40157 200.392
96.633 40812 202.02
96.7501 41753 204.336
96.8673 42152 205.31
96.9844 41839 204.546
97.1016 42440 206.01
97.2188 42873 207.058
97.336 44456 210.846
97.4532 47304 217.495
97.5704 48195 219.534
97.6877 49558 222.616
97.805 51386 226.685
97.9223 53075 230.38
98.0396 54226 232.865
98.1569 53970 232.314
98.2743 52083 228.217
98.3916 48668 220.608
98.509 42492 206.136
98.6264 39472 198.676
98.7438 41385 203.433
98.8612 47004 216.804
98.9786 51654 227.275
99.096 54445 233.335
99.2134 55633 235.866
99.3308 55896 236.423
99.4482 56287 237.249
99.5656 55407 235.387
99.6831 55800 236.22
99.8005 54782 234.056
99.9179 52974 230.161
100.035 50970 225.765
100.153 51049 225.94
100.27 51044 225.929
100.388 51276 226.442
100.505 51276 226.442
100.622 51353 226.612
100.74 52081 228.213
100.857 52445 229.009
100.975 53712 231.758
101.092 55910 236.453
101.209 57212 239.19
101.327 56912 238.562
101.444 58154 241.151
101.561 58762 242.409
101.679 58832 242.553
101.796 58947 242.79
101.913 57120 238.998
102.03 52310 228.714
102.148 46115 214.744
102.265 41544 203.823
102.382 47857 218.762
102.499 52878 229.952
102.616 58235 241.319
102.733 59819 244.579
102.851 59802 244.544
102.968 60270 245.499
103.085 59988 244.924
103.202 60317 245.595
103.319 60164 245.284
103.436 60597 246.165
103.552 60905 246.789
103.669 61246 247.479
103.786 61581 248.155
103.903 62109 249.217
104.02 62547 250.094
104.137 63062 251.121
104.253 64037 253.055
104.37 60966 246.913
104.487 60142 245.239
104.603 58564 242
104.72 56334 237.348
104.836 52941 230.089
104.953 48028 219.153
105.069 42757 206.778
105.186 38944 197.342
105.302 36967 192.268
105.418 35207 187.635
105.535 33340 182.592
105.651 29781 172.572
105.767 26281 162.114
105.883 22979 151.588
105.999 21044 145.066
106.115 0 1
106.231 0 1
106.347 0 1
106.463 0 1
106.579 0 1
106.694 0 1
106.81 0 1
106.926 0 1
107.041 0 1
107.157 0 1
109.576 0 1
109.692 0 1
109.807 0 1
109.923 0 1
110.039 0 1
110.155 0 1
110.27 0 1
110.386 0 1
110.502 0 1
110.618 84499 290.687
110.735 87673 296.096
110.851 84897 291.371
110.967 83011 288.116
111.083 83520 288.998
111.199 86727 294.494
111.316 90084 300.14
111.432 93547 305.855
111.549 94118 306.787
111.665 95103 308.388
111.782 94013 306.615
111.898 92985 304.934
112.015 90651 301.083
112.132 88931 298.213
112.248 89758 299.596
112.365 91233 302.048
112.482 91325 302.2
112.599 97547 312.325
112.716 99276 315.081
112.832 104476 323.227
112.949 108876 329.964
113.066 112212 334.981
113.183 111000 333.167
113.3 109522 330.941
113.417 110323 332.149
113.534 110939 333.075
113.652 109698 331.207
113.769 109181 330.425
113.886 110471 332.372
114.003 110297 332.11
114.12 111993 334.654
114.238 110389 332.248
114.355 106545 326.412
114.472 99592 315.582
114.589 100196 316.538
114.707 102017 319.401
114.824 109146 330.373
114.942 115656 340.082
115.059 117481 342.755
115.176 118078 343.625
115.294 117051 342.127
115.411 117412 342.654
115.529 115536 339.906
115.646 112907 336.016
115.764 109686 331.189
115.881 107936 328.536
115.999 106786 326.781
116.116 107011 327.125
116.234 111548 333.988
116.351 116525 341.358
116.469 119376 345.508
116.586 122840 350.485
116.704 126426 355.564
116.821 126609 355.822
116.939 122850 350.5
117.056 118175 343.766
117.174 114277 338.049
117.291 110975 333.129
117.409 111219 333.495
117.526 112541 335.471
117.644 114293 338.072
117.761 116396 341.169
117.879 112712 335.726
117.996 105686 325.094
118.114 102109 319.545
118.231 102312 319.862
118.349 105470 324.761
118.466 110857 332.952
118.584 110848 332.938
118.701 110499 332.414
118.819 108098 328.783
118.936 104861 323.822
119.053 101222 318.154
119.171 97865 312.834
119.288 94204 306.927
119.405 90069 300.115
119.523 89278 298.794
119.64 88472 297.442
119.757 92852 304.716
119.875 96216 310.187
119.992 99996 316.221
120.109 105265 324.446
120.226 108441 329.304
120.343 107987 328.614
120.46 104982 324.009
120.578 100715 317.356
120.695 96607 310.817
120.812 91846 303.061
120.929 87657 296.069
121.046 86995 294.949
121.163 87792 296.297
121.279 88471 297.441
121.396 88113 296.838
121.513 86266 293.711
121.63 80312 283.394
121.747 74788 273.474
121.863 67241 259.309
121.98 64121 253.221
122.097 61006 246.994
122.213 60625 246.221
122.33 59425 243.772
122.446 57349 239.477
122.563 54993 234.506
122.679 51706 227.39
122.795 49071 221.52
122.912 45570 213.471
123.028 42101 205.185
123.144 39482 198.701
123.26 37966 194.849
123.377 0 1
123.493 0 1
123.609 0 1
123.725 0 1
123.84 0 1
123.956 0 1
124.072 0 1
124.188 0 1
124.303 0 1
124.419 0 1
126.852 0 1
126.968 0 1
127.083 0 1
127.199 0 1
127.315 0 1
127.431 0 1
127.547 0 1
127.663 0 1
127.779 0 1
127.895 0 1
128.011 0 1
128.127 0 1
128.243 0 1
128.359 57878 240.578
128.476 58320 241.495
128.592 57981 240.792
128.708 58084 241.006
128.825 58900 242.693
128.941 60134 245.222
129.058 61641 248.276
129.174 63803 252.593
129.291 67308 259.438
129.408 71152 266.743
129.524 76049 275.77
129.641 80674 284.032
129.758 83106 288.281
129.875 85491 292.388
129.992 85134 291.777
130.108 84254 290.265
130.225 83758 289.41
130.342 81324 285.174
130.459 76754 277.045
130.576 75108 274.058
130.693 69214 263.086
130.81 67304 259.43
130.928 66610 258.089
131.045 68307 261.356
131.162 69884 264.356
131.279 72125 268.561
131.396 72342 268.965
131.513 73215 270.583
131.631 72304 268.894
131.748 71747 267.856
131.865 70960 266.383
131.983 70753 265.994
132.1 72102 268.518
132.217 71955 268.244
132.335 72443 269.152
132.452 72460 269.184
132.57 73599 271.291
132.687 70090 264.745
132.804 75106 274.055
132.922 71961 268.255
133.039 72663 269.561
133.157 72631 269.501
133.274 73939 271.917
133.392 74928 273.73
133.509 75873 275.451
133.627 77157 277.771
133.744 78116 279.492
133.862 77494 278.377
133.979 78387 279.977
134.097 76764 277.063
134.214 75736 275.202
134.332 74114 272.239
134.449 74873 273.629
134.567 76916 277.337
134.684 80005 282.852
134.802 81471 285.431
134.919 83067 288.213
135.037 83376 288.749
135.154 82302 286.883
135.272 80260 283.302
135.389 79751 282.402
135.507 77932 279.163
135.624 77338 278.097
135.742 76698 276.944
135.859 75697 275.131
135.977 73900 271.846
136.094 72999 270.183
136.211 72186 268.675
136.329 71682 267.735
136.446 72005 268.337
136.564 72102 268.518
136.681 72139 268.587
136.798 72562 269.373
136.915 72789 269.794
137.033 73421 270.963
137.15 73051 270.279
137.267 72843 269.894
137.384 71942 268.22
137.502 70997 266.453
137.619 68585 261.887
137.736 65979 256.864
137.853 62625 250.25
137.97 61554 248.101
138.087 58008 240.849
138.204 60958 246.897
138.321 62654 250.308
138.438 64284 253.543
138.555 65412 255.758
138.672 65944 256.796
138.788 65235 255.411
138.905 64342 253.657
139.022 63371 251.736
139.139 60439 245.843
139.255 58155 241.153
139.372 54831 234.16
139.488 52703 229.571
139.605 50738 225.251
139.721 48564 220.372
139.838 46982 216.753
139.954 45720 213.822
140.071 43618 208.849
140.187 43753 209.172
140.303 43802 209.289
140.419 44511 210.976
140.535 47560 218.083
140.652 48854 221.029
140.768 0 1
140.884 0 1
141 0 1
141.115 0 1
141.231 0 1
141.347 0 1
141.463 0 1
141.578 0 1
141.694 0 1
144.104 0 1
144.219 0 1
144.335 0 1
144.45 0 1
144.566 0 1
144.682 0 1
144.798 0 1
144.914 0 1
145.03 0 1
145.146 81211 284.975
145.262 82854 287.844
145.378 83282 288.586
145.494 84783 291.175
145.61 85581 292.542
145.726 86567 294.223
145.842 88012 296.668
145.959 89255 298.756
146.075 88974 298.285
146.192 88964 298.268
146.308 86685 294.423
146.425 84129 290.05
146.541 79864 282.602
146.658 72224 268.745
146.774 66150 257.196
146.891 64606 254.177
147.008 68927 262.54
147.125 78524 280.221
147.241 82947 288.005
147.358 85799 292.915
147.475 87043 295.031
147.592 88483 297.461
147.709 89636 299.393
147.826 91081 301.796
147.943 91537 302.551
148.06 93323 305.488
148.177 91967 303.261
148.294 91154 301.917
148.411 90796 301.324
148.528 91154 301.917
148.645 91892 303.137
148.762 92362 303.911
148.88 93183 305.259
148.997 90964 301.602
149.114 97969 313
149.231 94566 307.516
149.349 97534 312.304
149.466 93996 306.588
149.583 94810 307.912
149.701 94324 307.122
149.818 94440 307.311
149.935 94240 306.985
150.053 92409 303.988
150.17 90262 300.436
150.287 83931 289.708
150.405 76530 276.641
150.522 71802 267.959
150.64 72628 269.496
150.757 78144 279.542
150.875 82596 287.395
150.992 83812 289.503
151.11 80551 283.815
151.227 79055 281.167
151.344 77222 277.888
151.462 76947 277.393
151.579 77933 279.165
151.697 80027 282.89
151.814 83284 288.59
151.932 84355 290.439
152.049 85391 292.217
152.167 86154 293.52
152.284 85898 293.084
152.402 85912 293.107
152.519 86291 293.753
152.636 85971 293.208
152.754 85431 292.286
152.871 87119 295.159
152.989 87066 295.069
153.106 88238 297.049
153.223 87756 296.236
153.341 89176 298.624
153.458 90267 300.445
153.575 91616 302.681
153.693 91228 302.04
153.81 89513 299.187
153.927 83712 289.33
154.044 76367 276.346
154.162 73356 270.843
154.279 75824 275.362
154.396 82186 286.681
154.513 85661 292.679
154.63 86737 294.511
154.747 85893 293.075
154.864 83559 289.066
154.981 82312 286.901
155.098 79569 282.08
155.215 77807 278.939
155.332 72719 269.665
155.449 69474 263.579
155.566 66709 258.281
155.683 63929 252.842
155.8 61181 247.348
155.917 58402 241.665
156.033 55975 236.59
156.15 0 1
156.267 0 1
156.383 0 1
156.5 0 1
156.617 0 1
156.733 0 1
156.85 0 1
156.966 0 1
157.082 0 1
157.199 0 1
157.315 0 1
157.431 0 1
157.547 0 1
157.664 0 1
157.78 0 1
157.896 0 1
158.012 0 1
158.128 0 1
158.244 0 1
158.359 0 1
158.475 0 1
158.591 0 1
158.706 0 1
