
6.15755 0 1
6.2731 0 1
6.3887 0 1
6.50437 0 1
6.62009 0 1
6.73587 0 1
6.8517 0 1
6.96759 0 1
7.08353 0 1
7.19952 0 1
7.31557 0 1
7.43166 0 1
7.54781 0 1
7.664 0 1
7.78024 0 1
7.89653 0 1
8.01286 0 1
8.12924 0 1
8.24567 0 1
8.36213 0 1
8.47864 0 1
8.59519 0 1
8.71178 0 1
8.82841 0 1
8.94508 0 1
9.06179 0 1
9.17853 0 1
9.29531 0 1
9.41212 0 1
9.52897 0 1
9.64584 0 1
9.76276 0 1
9.8797 0 1
9.99667 0 1
10.1137 0 1
10.2307 0 1
10.3478 0 1
10.4648 0 1
10.5819 0 1
10.6991 0 1
10.8162 0 1
10.9334 0 1
11.0506 0 1
11.1678 0 1
11.285 0 1
11.4023 0 1
11.5196 0 1
11.6369 0 1
11.7542 0 1
11.8715 0 1
11.9888 0 1
12.1062 0 1
12.2235 0 1
12.3409 0 1
12.4582 0 1
12.5756 0 1
12.693 0 1
12.8104 0 1
12.9278 0 1
13.0452 0 1
13.1626 0 1
13.28 0 1
13.3974 0 1
13.5149 0 1
13.6323 0 1
13.7497 0 1
13.8671 0 1
13.9845 0 1
14.1019 0 1
14.2193 0 1
14.3367 0 1
14.4541 0 1
14.5714 0 1
14.6888 0 1
14.8062 0 1
14.9235 0 1
15.0408 816 28.5657
15.1581 914 30.2324
15.2755 881 29.6816
15.3927 948 30.7896
15.51 949 30.8058
15.6273 925 30.4138
15.7445 915 30.249
15.8617 921 30.348
15.9789 926 30.4302
16.0961 955 30.9031
16.2132 946 30.7571
16.3304 975 31.225
16.4475 924 30.3974
16.5646 1014 31.8434
16.6816 1010 31.7805
16.7986 1084 32.9242
16.9156 1131 33.6303
17.0326 1131 33.6303
17.1496 1116 33.4066
17.2665 1113 33.3617
17.3833 1111 33.3317
17.5002 1053 32.45
17.617 1080 32.8634
17.7338 1027 32.0468
17.8505 965 31.0644
17.9672 897 29.95
18.0839 1014 31.8434
18.2005 966 31.0805
18.3171 1020 31.9374
18.4337 1059 32.5423
18.5502 1059 32.5423
18.6666 1101 33.1813
18.7831 1126 33.5559
18.8994 1088 32.9848
19.0158 1118 33.4365
19.1321 1072 32.7414
19.2483 1018 31.9061
19.3645 967 31.0966
19.4806 927 30.4467
19.5967 806 28.3901
19.7128 777 27.8747
19.8288 741 27.2213
19.9447 700 26.4575
20.0606 0 1
20.1764 0 1
20.2922 0 1
20.4079 0 1
20.5236 0 1
20.6392 0 1
20.7548 0 1
20.8702 0 1
23.3078 0 1
23.4233 0 1
23.539 0 1
23.6547 0 1
23.7704 0 1
23.8862 0 1
24.0021 0 1
24.118 0 1
24.234 0 1
24.35 0 1
24.4661 483 21.9773
24.5822 552 23.4947
24.6984 643 25.3574
24.8146 676 26
24.9309 696 26.3818
25.0472 776 27.8568
25.1636 820 28.6356
25.28 979 31.289
25.3965 991 31.4802
25.513 1116 33.4066
25.6296 1216 34.8712
25.7462 1182 34.3802
25.8628 1232 35.0999
25.9795 1216 34.8712
26.0962 1217 34.8855
26.213 1169 34.1906
26.3298 1095 33.0908
26.4466 1111 33.3317
26.5635 1041 32.2645
26.6804 1031 32.1092
26.7973 1029 32.078
26.9143 1083 32.909
27.0313 1139 33.7491
27.1483 1189 34.4819
27.2653 1124 33.5261
27.3824 1104 33.2265
27.4996 1128 33.5857
27.6167 1162 34.0881
27.7339 1168 34.176
27.8511 1061 32.573
27.9683 1010 31.7805
28.0855 1001 31.6386
28.2028 1031 32.1092
28.3201 948 30.7896
28.4374 856 29.2575
28.5547 966 31.0805
28.6721 992 31.496
28.7894 1051 32.4191
28.9068 1107 33.2716
29.0242 1086 32.9545
29.1416 1143 33.8083
29.259 1139 33.7491
29.3764 1132 33.6452
29.4939 1136 33.7046
29.6113 1163 34.1028
29.7288 1081 32.8786
29.8463 1012 31.8119
29.9638 975 31.225
30.0812 958 30.9516
30.1987 1001 31.6386
30.3162 963 31.0322
30.4337 1044 32.311
30.5512 1052 32.4345
30.6687 1102 33.1964
30.7862 1101 33.1813
30.9037 1081 32.8786
31.0212 1108 33.2866
31.1387 1043 32.2955
31.2562 1028 32.0624
31.3737 1076 32.8024
31.4912 1059 32.5423
31.6087 1003 31.6702
31.7262 1038 32.218
31.8436 941 30.6757
31.9611 942 30.692
32.0785 939 30.6431
32.1959 958 30.9516
32.3134 990 31.4643
32.4308 1060 32.5576
32.5482 1059 32.5423
32.6655 1105 33.2415
32.7829 1094 33.0757
32.9002 1119 33.4515
33.0176 1152 33.9411
33.1349 1133 33.6601
33.2522 1060 32.5576
33.3694 992 31.496
33.4867 973 31.1929
33.6039 941 30.6757
33.7211 941 30.6757
33.8383 917 30.282
33.9554 946 30.7571
34.0725 1021 31.9531
34.1896 977 31.257
34.3067 1057 32.5115
34.4237 1004 31.686
34.5407 1106 33.2566
34.6577 1047 32.3574
34.7746 1059 32.5423
34.8915 1076 32.8024
35.0084 1001 31.6386
35.1252 1039 32.2335
35.242 1027 32.0468
35.3587 964 31.0483
35.4755 973 31.1929
35.5921 908 30.133
35.7088 893 29.8831
35.8254 923 30.3809
35.9419 929 30.4795
36.0584 927 30.4467
36.1749 1027 32.0468
36.2913 980 31.305
36.4077 977 31.257
36.524 951 30.8383
36.6403 965 31.0644
36.7565 897 29.95
36.8727 864 29.3939
36.9889 790 28.1069
37.1049 646 25.4165
37.221 0 1
37.3369 0 1
37.4529 0 1
37.5687 0 1
37.6845 0 1
37.8003 0 1
37.916 0 1
38.0316 0 1
38.1472 0 1
40.5851 0 1
40.7008 0 1
40.8164 0 1
40.9322 0 1
41.048 0 1
41.1639 0 1
41.2798 0 1
41.3958 0 1
41.5118 0 1
41.6279 0 1
41.744 491 22.1585
41.8602 608 24.6577
41.9765 550 23.4521
42.0928 620 24.8998
42.2091 627 25.04
42.3255 655 25.593
42.4419 670 25.8844
42.5584 602 24.5357
42.675 694 26.3439
42.7915 720 26.8328
42.9081 776 27.8568
43.0248 776 27.8568
43.1415 828 28.775
43.2582 877 29.6142
43.375 848 29.1204
43.4918 868 29.4618
43.6087 850 29.1548
43.7256 817 28.5832
43.8425 854 29.2233
43.9595 809 28.4429
44.0765 852 29.189
44.1935 842 29.0172
44.3106 832 28.8444
44.4277 703 26.5141
44.5448 723 26.8887
44.6619 741 27.2213
44.7791 734 27.0924
44.8963 781 27.9464
45.0136 860 29.3258
45.1308 869 29.4788
45.2481 868 29.4618
45.3654 854 29.2233
45.4827 877 29.6142
45.6001 865 29.4109
45.7174 818 28.6007
45.8348 820 28.6356
45.9522 724 26.9072
46.0697 770 27.7489
46.1871 725 26.9258
46.3046 768 27.7128
46.422 834 28.8791
46.5395 811 28.4781
46.657 836 28.9137
46.7745 853 29.2062
46.892 894 29.8998
47.0096 952 30.8545
47.1271 890 29.8329
47.2446 866 29.4279
47.3622 900 30
47.4797 853 29.2062
47.5973 830 28.8097
47.7149 864 29.3939
47.8324 804 28.3549
47.95 777 27.8747
48.0675 714 26.7208
48.1851 760 27.5681
48.3027 795 28.1957
48.4202 782 27.9643
48.5378 874 29.5635
48.6554 898 29.9666
48.7729 890 29.8329
48.8904 923 30.3809
49.008 942 30.692
49.1255 987 31.4166
49.243 881 29.6816
49.3605 840 28.9828
49.478 780 27.9285
49.5955 759 27.55
49.713 673 25.9422
49.8304 706 26.5707
49.9479 768 27.7128
50.0653 750 27.3861
50.1827 822 28.6705
50.3001 919 30.315
50.4175 927 30.4467
50.5348 900 30
50.6521 978 31.273
50.7694 960 30.9839
50.8867 964 31.0483
51.004 959 30.9677
51.1212 975 31.225
51.2384 929 30.4795
51.3556 942 30.692
51.4727 897 29.95
51.5899 803 28.3373
51.707 836 28.9137
51.824 881 29.6816
51.9411 1049 32.3883
52.0581 1072 32.7414
52.175 1201 34.6554
52.2919 1232 35.0999
52.4088 1224 34.9857
52.5257 1327 36.428
52.6425 1271 35.6511
52.7593 1418 37.6563
52.876 1310 36.1939
52.9927 1226 35.0143
53.1094 1173 34.2491
53.226 1194 34.5543
53.3426 1090 33.0151
53.4591 1115 33.3916
53.5756 1182 34.3802
53.692 1109 33.3017
53.8084 1071 32.7261
53.9248 1097 33.121
54.0411 1021 31.9531
54.1573 962 31.0161
54.2735 0 1
54.3896 0 1
54.5057 0 1
54.6217 0 1
54.7377 0 1
54.8537 0 1
54.9695 0 1
55.0853 0 1
55.2011 0 1
55.3168 0 1
55.4324 0 1
57.824 0 1
57.9396 0 1
58.0553 0 1
58.1711 0 1
58.2869 0 1
58.4028 0 1
58.5187 0 1
58.6347 0 1
58.7508 0 1
58.8669 0 1
58.983 705 26.5518
59.0992 764 27.6405
59.2155 844 29.0517
59.3318 902 30.0333
59.4482 894 29.8998
59.5646 989 31.4484
59.681 1030 32.0936
59.7975 1018 31.9061
59.9141 1011 31.7962
60.0306 999 31.607
60.1473 951 30.8383
60.2639 968 31.1127
60.3807 944 30.7246
60.4974 1041 32.2645
60.6142 1008 31.749
60.731 1008 31.749
60.8479 1105 33.2415
60.9648 1122 33.4963
61.0818 1110 33.3167
61.1987 1101 33.1813
61.3158 1103 33.2114
61.4328 1101 33.1813
61.5499 1020 31.9374
61.667 985 31.3847
61.7841 948 30.7896
61.9013 842 29.0172
62.0185 845 29.0689
62.1357 918 30.2985
62.253 990 31.4643
62.3702 959 30.9677
62.4875 1056 32.4962
62.6049 1091 33.0303
62.7222 1134 33.6749
62.8396 1178 34.322
62.9569 1078 32.8329
63.0743 1150 33.9116
63.1918 1099 33.1512
63.3092 1071 32.7261
63.4267 1070 32.7109
63.5441 1026 32.0312
63.6616 1043 32.2955
63.7791 909 30.1496
63.8966 885 29.7489
64.0142 878 29.6311
64.1317 889 29.8161
64.2492 996 31.5595
64.3668 1029 32.078
64.4843 1155 33.9853
64.6019 1089 33
64.7195 1125 33.541
64.837 1129 33.6006
64.9546 1090 33.0151
65.0722 1090 33.0151
65.1898 975 31.225
65.3074 861 29.3428
65.4249 836 28.9137
65.5425 836 28.9137
65.6601 880 29.6648
65.7777 915 30.249
65.8952 965 31.0644
66.0128 976 31.241
66.1304 1045 32.3265
66.2479 1077 32.8177
66.3655 1090 33.0151
66.483 1086 32.9545
66.6005 1086 32.9545
66.718 1132 33.6452
66.8355 1074 32.7719
66.953 1032 32.1248
67.0705 1029 32.078
67.1879 1031 32.1092
67.3054 956 30.9192
67.4228 868 29.4618
67.5402 862 29.3598
67.6576 845 29.0689
67.7749 884 29.7321
67.8923 917 30.282
68.0096 1013 31.8277
68.1269 1018 31.9061
68.2442 1099 33.1512
68.3614 1139 33.7491
68.4787 1072 32.7414
68.5958 1077 32.8177
68.713 1036 32.187
68.8302 1010 31.7805
68.9473 929 30.4795
69.0643 852 29.189
69.1814 764 27.6405
69.2984 744 27.2764
69.4154 871 29.5127
69.5323 905 30.0832
69.6492 906 30.0998
69.7661 1058 32.5269
69.8829 1029 32.078
69.9997 982 31.3369
70.1165 939 30.6431
70.2332 959 30.9677
70.3499 929 30.4795
70.4665 913 30.2159
70.5831 822 28.6705
70.6996 814 28.5307
70.8161 680 26.0768
70.9326 679 26.0576
71.049 615 24.7992
71.1653 491 22.1585
71.2817 422 20.5426
71.3979 430 20.7364
71.5141 385 19.6214
71.6303 358 18.9209
71.7464 336 18.3303
71.8624 0 1
71.9784 0 1
72.0944 0 1
72.2102 0 1
72.3261 0 1
72.4418 0 1
72.5575 0 1
72.6732 0 1
75.1054 0 1
75.2209 0 1
75.3365 0 1
75.4521 0 1
75.5678 0 1
75.6835 0 1
75.7993 0 1
75.9151 0 1
76.031 0 1
76.147 620 24.8998
76.263 662 25.7294
76.3791 700 26.4575
76.4952 693 26.3249
76.6113 707 26.5895
76.7276 745 27.2947
76.8438 804 28.3549
76.9601 849 29.1376
77.0765 901 30.0167
77.1929 930 30.4959
77.3093 940 30.6594
77.4258 930 30.4959
77.5423 875 29.5804
77.6589 930 30.4959
77.7755 827 28.7576
77.8921 759 27.55
78.0088 701 26.4764
78.1256 684 26.1534
78.2423 658 25.6515
78.3591 635 25.1992
78.4759 737 27.1477
78.5928 810 28.4605
78.7097 828 28.775
78.8266 835 28.8964
78.9436 888 29.7993
79.0606 898 29.9666
79.1776 963 31.0322
79.2946 941 30.6757
79.4117 947 30.7734
79.5288 931 30.5123
79.6459 903 30.05
79.7631 944 30.7246
79.8802 855 29.2404
79.9974 883 29.7153
80.1147 760 27.5681
80.2319 714 26.7208
80.3491 762 27.6043
80.4664 781 27.9464
80.5837 843 29.0345
80.701 883 29.7153
80.8183 953 30.8707
80.9357 953 30.8707
81.053 952 30.8545
81.1704 963 31.0322
81.2877 891 29.8496
81.4051 944 30.7246
81.5225 828 28.775
81.6399 799 28.2666
81.7573 702 26.4953
81.8747 698 26.4197
81.9922 693 26.3249
82.1096 689 26.2488
82.227 814 28.5307
82.3444 819 28.6182
82.4619 884 29.7321
82.5793 906 30.0998
82.6967 968 31.1127
82.8142 1007 31.7333
82.9316 928 30.4631
83.049 1014 31.8434
83.1664 942 30.692
83.2838 906 30.0998
83.4012 960 30.9839
83.5186 910 30.1662
83.636 842 29.0172
83.7534 793 28.1603
83.8708 750 27.3861
83.9881 748 27.3496
84.1055 764 27.6405
84.2228 797 28.2312
84.3401 869 29.4788
84.4575 981 31.3209
84.5747 970 31.1448
84.692 1013 31.8277
84.8093 1022 31.9687
84.9265 1021 31.9531
85.0437 949 30.8058
85.1609 842 29.0172
85.2781 742 27.2397
85.3952 678 26.0384
85.5123 654 25.5734
85.6294 683 26.1343
85.7465 773 27.8029
85.8636 805 28.3725
85.9806 860 29.3258
86.0976 944 30.7246
86.2145 974 31.209
86.3315 980 31.305
86.4484 1026 32.0312
86.5652 1005 31.7017
86.682 983 31.3528
86.7988 989 31.4484
86.9156 965 31.0644
87.0323 954 30.8869
87.149 964 31.0483
87.2657 870 29.4958
87.3823 733 27.074
87.4988 701 26.4764
87.6154 629 25.0799
87.7318 724 26.9072
87.8483 715 26.7395
87.9647 785 28.0179
88.081 772 27.7849
88.1973 785 28.0179
88.3136 768 27.7128
88.4298 689 26.2488
88.546 686 26.1916
88.6621 603 24.5561
88.7781 465 21.5639
88.8942 0 1
89.0101 0 1
89.126 0 1
89.2419 0 1
89.3577 0 1
89.4734 0 1
89.5891 0 1
89.7047 0 1
89.8203 0 1
89.9358 0 1
92.3269 0 1
92.4424 0 1
92.558 0 1
92.6736 0 1
92.7893 0 1
92.905 0 1
93.0208 0 1
93.1366 0 1
93.2525 0 1
93.3685 0 1
93.4845 0 1
93.6005 723 26.8887
93.7167 764 27.6405
93.8328 773 27.8029
93.949 817 28.5832
94.0653 887 29.7825
94.1816 929 30.4795
94.2979 800 28.2843
94.4143 807 28.4077
94.5307 735 27.1109
94.6472 680 26.0768
94.7637 727 26.9629
94.8803 827 28.7576
94.9969 842 29.0172
95.1135 930 30.4959
95.2302 900 30
95.3469 918 30.2985
95.4637 1003 31.6702
95.5805 949 30.8058
95.6973 1080 32.8634
95.8142 987 31.4166
95.9311 968 31.1127
96.048 996 31.5595
96.1649 1006 31.7175
96.2819 916 30.2655
96.3989 868 29.4618
96.516 872 29.5296
96.633 829 28.7924
96.7501 773 27.8029
96.8673 852 29.189
96.9844 796 28.2135
97.1016 884 29.7321
97.2188 934 30.5614
97.336 1033 32.1403
97.4532 1042 32.28
97.5704 1000 31.6228
97.6877 1013 31.8277
97.805 978 31.273
97.9223 980 31.305
98.0396 866 29.4279
98.1569 807 28.4077
98.2743 727 26.9629
98.3916 758 27.5318
98.509 775 27.8388
98.6264 838 28.9482
98.7438 917 30.282
98.8612 948 30.7896
98.9786 985 31.3847
99.096 978 31.273
99.2134 1015 31.8591
99.3308 1064 32.619
99.4482 1065 32.6343
99.5656 1087 32.9697
99.6831 1080 32.8634
99.8005 1032 32.1248
99.9179 1076 32.8024
100.035 1022 31.9687
100.153 924 30.3974
100.27 864 29.3939
100.388 900 30
100.505 838 28.9482
100.622 891 29.8496
100.74 1053 32.45
100.857 1034 32.1559
100.975 1081 32.8786
101.092 1056 32.4962
101.209 1105 33.2415
101.327 1045 32.3265
101.444 1044 32.311
101.561 962 31.0161
101.679 866 29.4279
101.796 769 27.7308
101.913 746 27.313
102.03 788 28.0713
102.148 840 28.9828
102.265 924 30.3974
102.382 993 31.5119
102.499 1058 32.5269
102.616 1056 32.4962
102.733 1108 33.2866
102.851 1131 33.6303
102.968 1126 33.5559
103.085 1109 33.3017
103.202 1090 33.0151
103.319 1054 32.4654
103.436 1106 33.2566
103.552 1028 32.0624
103.669 981 31.3209
103.786 943 30.7083
103.903 919 30.315
104.02 892 29.8664
104.137 1001 31.6386
104.253 1036 32.187
104.37 1124 33.5261
104.487 1135 33.6898
104.603 1162 34.0881
104.72 1175 34.2783
104.836 1101 33.1813
104.953 1076 32.8024
105.069 932 30.5287
105.186 864 29.3939
105.302 729 27
105.418 713 26.7021
105.535 669 25.865
105.651 662 25.7294
105.767 740 27.2029
105.883 714 26.7208
105.999 689 26.2488
106.115 0 1
106.231 0 1
106.347 0 1
106.463 0 1
106.579 0 1
106.694 0 1
106.81 0 1
106.926 0 1
107.041 0 1
107.157 0 1
109.576 0 1
109.692 0 1
109.807 0 1
109.923 0 1
110.039 0 1
110.155 0 1
110.27 0 1
110.386 0 1
110.502 0 1
110.618 417 20.4206
110.735 596 24.4131
110.851 680 26.0768
110.967 806 28.3901
111.083 869 29.4788
111.199 938 30.6268
111.316 954 30.8869
111.432 986 31.4006
111.549 1036 32.187
111.665 1071 32.7261
111.782 1059 32.5423
111.898 1131 33.6303
112.015 1077 32.8177
112.132 970 31.1448
112.248 855 29.2404
112.365 882 29.6985
112.482 842 29.0172
112.599 915 30.249
112.716 953 30.8707
112.832 1088 32.9848
112.949 1098 33.1361
113.066 1064 32.619
113.183 1079 32.8481
113.3 1024 32
113.417 1060 32.5576
113.534 1049 32.3883
113.652 921 30.348
113.769 840 28.9828
113.886 785 28.0179
114.003 792 28.1425
114.12 816 28.5657
114.238 871 29.5127
114.355 906 30.0998
114.472 924 30.3974
114.589 1067 32.665
114.707 1046 32.3419
114.824 1059 32.5423
114.942 1048 32.3728
115.059 1091 33.0303
115.176 1128 33.5857
115.294 1070 32.7109
115.411 1073 32.7567
115.529 1033 32.1403
115.646 1027 32.0468
115.764 948 30.7896
115.881 920 30.3315
115.999 903 30.05
116.116 895 29.9166
116.234 935 30.5778
116.351 1000 31.6228
116.469 1065 32.6343
116.586 1143 33.8083
116.704 1089 33
116.821 1101 33.1813
116.939 1109 33.3017
117.056 1057 32.5115
117.174 1061 32.573
117.291 963 31.0322
117.409 842 29.0172
117.526 707 26.5895
117.644 770 27.7489
117.761 866 29.4279
117.879 916 30.2655
117.996 962 31.0161
118.114 1023 31.9844
118.231 1039 32.2335
118.349 1033 32.1403
118.466 1029 32.078
118.584 1026 32.0312
118.701 1032 32.1248
118.819 981 31.3209
118.936 1041 32.2645
119.053 1034 32.1559
119.171 969 31.1288
119.288 946 30.7571
119.405 905 30.0832
119.523 818 28.6007
119.64 776 27.8568
119.757 888 29.7993
119.875 875 29.5804
119.992 898 29.9666
120.109 979 31.289
120.226 966 31.0805
120.343 983 31.3528
120.46 1028 32.0624
120.578 966 31.0805
120.695 1005 31.7017
120.812 925 30.4138
120.929 843 29.0345
121.046 759 27.55
121.163 682 26.1151
121.279 697 26.4008
121.396 661 25.7099
121.513 732 27.0555
121.63 763 27.6225
121.747 783 27.9821
121.863 824 28.7054
121.98 814 28.5307
122.097 837 28.931
122.213 736 27.1293
122.33 763 27.6225
122.446 773 27.8029
122.563 677 26.0192
122.679 642 25.3377
122.795 627 25.04
122.912 563 23.7276
123.028 489 22.1133
123.144 426 20.6398
123.26 367 19.1572
123.377 0 1
123.493 0 1
123.609 0 1
123.725 0 1
123.84 0 1
123.956 0 1
124.072 0 1
124.188 0 1
124.303 0 1
124.419 0 1
126.852 0 1
126.968 0 1
127.083 0 1
127.199 0 1
127.315 0 1
127.431 0 1
127.547 0 1
127.663 0 1
127.779 0 1
127.895 0 1
128.011 0 1
128.127 0 1
128.243 0 1
128.359 900 30
128.476 869 29.4788
128.592 876 29.5973
128.708 899 29.9833
128.825 919 30.315
128.941 971 31.1609
129.058 1050 32.4037
129.174 1038 32.218
129.291 1038 32.218
129.408 1078 32.8329
129.524 1088 32.9848
129.641 1075 32.7872
129.758 1062 32.5883
129.875 1007 31.7333
129.992 970 31.1448
130.108 862 29.3598
130.225 790 28.1069
130.342 778 27.8927
130.459 809 28.4429
130.576 883 29.7153
130.693 998 31.5911
130.81 972 31.1769
130.928 988 31.4325
131.045 976 31.241
131.162 1021 31.9531
131.279 1034 32.1559
131.396 1052 32.4345
131.513 1096 33.1059
131.631 1065 32.6343
131.748 998 31.5911
131.865 983 31.3528
131.983 985 31.3847
132.1 936 30.5941
132.217 922 30.3645
132.335 905 30.0832
132.452 929 30.4795
132.57 988 31.4325
132.687 1105 33.2415
132.804 1032 32.1248
132.922 1062 32.5883
133.039 1076 32.8024
133.157 1078 32.8329
133.274 1084 32.9242
133.392 1054 32.4654
133.509 962 31.0161
133.627 826 28.7402
133.744 848 29.1204
133.862 831 28.8271
133.979 855 29.2404
134.097 916 30.2655
134.214 983 31.3528
134.332 991 31.4802
134.449 983 31.3528
134.567 1126 33.5559
134.684 1018 31.9061
134.802 1044 32.311
134.919 1049 32.3883
135.037 1069 32.6956
135.154 1049 32.3883
135.272 1013 31.8277
135.389 1055 32.4808
135.507 996 31.5595
135.624 961 31
135.742 947 30.7734
135.859 940 30.6594
135.977 934 30.5614
136.094 944 30.7246
136.211 1061 32.573
136.329 1061 32.573
136.446 1088 32.9848
136.564 1150 33.9116
136.681 1182 34.3802
136.798 1104 33.2265
136.915 1010 31.7805
137.033 1054 32.4654
137.15 961 31
137.267 939 30.6431
137.384 858 29.2916
137.502 778 27.8927
137.619 784 28
137.736 945 30.7409
137.853 910 30.1662
137.97 972 31.1769
138.087 1042 32.28
138.204 1003 31.6702
138.321 1061 32.573
138.438 1072 32.7414
138.555 1101 33.1813
138.672 1067 32.665
138.788 1021 31.9531
138.905 963 31.0322
139.022 952 30.8545
139.139 887 29.7825
139.255 835 28.8964
139.372 776 27.8568
139.488 731 27.037
139.605 723 26.8887
139.721 713 26.7021
139.838 749 27.3679
139.954 742 27.2397
140.071 700 26.4575
140.187 647 25.4362
140.303 610 24.6982
140.419 574 23.9583
140.535 536 23.1517
140.652 518 22.7596
140.768 0 1
140.884 0 1
141 0 1
141.115 0 1
141.231 0 1
141.347 0 1
141.463 0 1
141.578 0 1
141.694 0 1
144.104 0 1
144.219 0 1
144.335 0 1
144.45 0 1
144.566 0 1
144.682 0 1
144.798 0 1
144.914 0 1
145.03 0 1
145.146 744 27.2764
145.262 822 28.6705
145.378 913 30.2159
145.494 812 28.4956
145.61 936 30.5941
145.726 871 29.5127
145.842 846 29.0861
145.959 741 27.2213
146.075 737 27.1477
146.192 705 26.5518
146.308 676 26
146.425 681 26.096
146.541 732 27.0555
146.658 722 26.8701
146.774 784 28
146.891 799 28.2666
147.008 816 28.5657
147.125 889 29.8161
147.241 809 28.4429
147.358 861 29.3428
147.475 846 29.0861
147.592 878 29.6311
147.709 862 29.3598
147.826 841 29
147.943 774 27.8209
148.06 718 26.7955
148.177 781 27.9464
148.294 757 27.5136
148.411 741 27.2213
148.528 832 28.8444
148.645 838 28.9482
148.762 826 28.7402
148.88 844 29.0517
148.997 865 29.4109
149.114 844 29.0517
149.231 831 28.8271
149.349 865 29.4109
149.466 826 28.7402
149.583 762 27.6043
149.701 721 26.8514
149.818 701 26.4764
149.935 690 26.2679
150.053 678 26.0384
150.17 709 26.6271
150.287 684 26.1534
150.405 761 27.5862
150.522 745 27.2947
150.64 826 28.7402
150.757 800 28.2843
150.875 782 27.9643
150.992 817 28.5832
151.11 819 28.6182
151.227 841 29
151.344 807 28.4077
151.462 727 26.9629
151.579 744 27.2764
151.697 712 26.6833
151.814 646 25.4165
151.932 670 25.8844
152.049 700 26.4575
152.167 738 27.1662
152.284 785 28.0179
152.402 817 28.5832
152.519 821 28.6531
152.636 796 28.2135
152.754 795 28.1957
152.871 817 28.5832
152.989 764 27.6405
153.106 797 28.2312
153.223 775 27.8388
153.341 660 25.6905
153.458 615 24.7992
153.575 601 24.5153
153.693 626 25.02
153.81 687 26.2107
153.927 691 26.2869
154.044 693 26.3249
154.162 720 26.8328
154.279 716 26.7582
154.396 744 27.2764
154.513 731 27.037
154.63 749 27.3679
154.747 789 28.0891
154.864 764 27.6405
154.981 736 27.1293
155.098 714 26.7208
155.215 718 26.7955
155.332 679 26.0576
155.449 644 25.3772
155.566 656 25.6125
155.683 666 25.807
155.8 670 25.8844
155.917 635 25.1992
156.033 691 26.2869
156.15 0 1
156.267 0 1
156.383 0 1
156.5 0 1
156.617 0 1
156.733 0 1
156.85 0 1
156.966 0 1
157.082 0 1
157.199 0 1
157.315 0 1
157.431 0 1
157.547 0 1
157.664 0 1
157.78 0 1
157.896 0 1
158.012 0 1
158.128 0 1
158.244 0 1
158.359 0 1
158.475 0 1
158.591 0 1
158.706 0 1
