
6.15755 0 1
6.2731 0 1
6.3887 0 1
6.50437 0 1
6.62009 0 1
6.73587 0 1
6.8517 0 1
6.96759 0 1
7.08353 0 1
7.19952 0 1
7.31557 0 1
7.43166 0 1
7.54781 0 1
7.664 0 1
7.78024 0 1
7.89653 0 1
8.01286 0 1
8.12924 0 1
8.24567 0 1
8.36213 0 1
8.47864 0 1
8.59519 0 1
8.71178 0 1
8.82841 0 1
8.94508 0 1
9.06179 0 1
9.17853 0 1
9.29531 0 1
9.41212 0 1
9.52897 0 1
9.64584 0 1
9.76276 0 1
9.8797 0 1
9.99667 0 1
10.1137 0 1
10.2307 0 1
10.3478 0 1
10.4648 0 1
10.5819 0 1
10.6991 0 1
10.8162 0 1
10.9334 0 1
11.0506 0 1
11.1678 0 1
11.285 0 1
11.4023 0 1
11.5196 0 1
11.6369 0 1
11.7542 0 1
11.8715 0 1
11.9888 0 1
12.1062 0 1
12.2235 0 1
12.3409 0 1
12.4582 0 1
12.5756 0 1
12.693 0 1
12.8104 0 1
12.9278 0 1
13.0452 0 1
13.1626 0 1
13.28 0 1
13.3974 0 1
13.5149 0 1
13.6323 0 1
13.7497 0 1
13.8671 0 1
13.9845 0 1
14.1019 0 1
14.2193 0 1
14.3367 0 1
14.4541 0 1
14.5714 0 1
14.6888 0 1
14.8062 0 1
14.9235 0 1
15.0408 22568 150.226
15.1581 22954 151.506
15.2755 23273 152.555
15.3927 23448 153.127
15.51 23468 153.193
15.6273 23191 152.286
15.7445 22999 151.654
15.8617 22701 150.669
15.9789 21796 147.635
16.0961 21960 148.189
16.2132 21631 147.075
16.3304 21726 147.397
16.4475 21729 147.408
16.5646 21806 147.669
16.6816 22224 149.077
16.7986 22178 148.923
16.9156 22242 149.138
17.0326 22418 149.726
17.1496 22410 149.7
17.2665 22902 151.334
17.3833 22888 151.288
17.5002 23008 151.684
17.617 23647 153.776
17.7338 24325 155.965
17.8505 25320 159.123
17.9672 26496 162.776
18.0839 27229 165.012
18.2005 28243 168.057
18.3171 28624 169.186
18.4337 28732 169.505
18.5502 28969 170.203
18.6666 28688 169.375
18.7831 28660 169.293
18.8994 27860 166.913
19.0158 26572 163.009
19.1321 26135 161.663
19.2483 25216 158.795
19.3645 24500 156.525
19.4806 24036 155.035
19.5967 23059 151.852
19.7128 22933 151.436
19.8288 21835 147.767
19.9447 19452 139.47
20.0606 0 1
20.1764 0 1
20.2922 0 1
20.4079 0 1
20.5236 0 1
20.6392 0 1
20.7548 0 1
20.8702 0 1
23.3078 0 1
23.4233 0 1
23.539 0 1
23.6547 0 1
23.7704 0 1
23.8862 0 1
24.0021 0 1
24.118 0 1
24.234 0 1
24.35 0 1
24.4661 23299 152.64
24.5822 23296 152.63
24.6984 22976 151.578
24.8146 22878 151.255
24.9309 22603 150.343
25.0472 22562 150.207
25.1636 22109 148.691
25.28 22611 150.37
25.3965 22933 151.436
25.513 23417 153.026
25.6296 24422 156.275
25.7462 24435 156.317
25.8628 25046 158.259
25.9795 25043 158.25
26.0962 25664 160.2
26.213 25582 159.944
26.3298 26036 161.357
26.4466 26343 162.305
26.5635 26541 162.914
26.6804 27070 164.53
26.7973 27206 164.942
26.9143 27731 166.526
27.0313 27293 165.206
27.1483 27205 164.939
27.2653 27137 164.733
27.3824 26827 163.789
27.4996 26291 162.145
27.6167 25356 159.236
27.7339 24587 156.802
27.8511 23830 154.37
27.9683 23042 151.796
28.0855 22850 151.162
28.2028 22565 150.217
28.3201 21949 148.152
28.4374 22239 149.127
28.5547 21795 147.631
28.6721 21965 148.206
28.7894 21919 148.051
28.9068 21986 148.277
29.0242 21819 147.713
29.1416 22220 149.064
29.259 22366 149.553
29.3764 22486 149.953
29.4939 22858 151.189
29.6113 23468 153.193
29.7288 23754 154.123
29.8463 24307 155.907
29.9638 24769 157.382
30.0812 25120 158.493
30.1987 25583 159.947
30.3162 26201 161.867
30.4337 25891 160.907
30.5512 26029 161.335
30.6687 25663 160.197
30.7862 25896 160.922
30.9037 25115 158.477
31.0212 24715 157.21
31.1387 23868 154.493
31.2562 22925 151.41
31.3737 22584 150.28
31.4912 22075 148.577
31.6087 21384 146.233
31.7262 21240 145.739
31.8436 21004 144.928
31.9611 21309 145.976
32.0785 21254 145.788
32.1959 21850 147.817
32.3134 21440 146.424
32.4308 21807 147.672
32.5482 22099 148.657
32.6655 22017 148.381
32.7829 21893 147.963
32.9002 21641 147.109
33.0176 21656 147.16
33.1349 21856 147.838
33.2522 22507 150.023
33.3694 22560 150.2
33.4867 23010 151.69
33.6039 23481 153.235
33.7211 24529 156.617
33.8383 24390 156.173
33.9554 24717 157.216
34.0725 24450 156.365
34.1896 24384 156.154
34.3067 23946 154.745
34.4237 23740 154.078
34.5407 23278 152.571
34.6577 22757 150.854
34.7746 22326 149.419
34.8915 21380 146.219
35.0084 20783 144.163
35.1252 20687 143.83
35.242 20218 142.19
35.3587 19766 140.592
35.4755 20011 141.46
35.5921 20122 141.852
35.7088 20545 143.335
35.8254 20980 144.845
35.9419 21385 146.236
36.0584 21807 147.672
36.1749 21631 147.075
36.2913 21562 146.84
36.4077 21482 146.567
36.524 20887 144.523
36.6403 20572 143.429
36.7565 20711 143.913
36.8727 20799 144.219
36.9889 20867 144.454
37.1049 20814 144.271
37.221 0 1
37.3369 0 1
37.4529 0 1
37.5687 0 1
37.6845 0 1
37.8003 0 1
37.916 0 1
38.0316 0 1
38.1472 0 1
40.5851 0 1
40.7008 0 1
40.8164 0 1
40.9322 0 1
41.048 0 1
41.1639 0 1
41.2798 0 1
41.3958 0 1
41.5118 0 1
41.6279 0 1
41.744 16126 126.988
41.8602 16870 129.885
41.9765 17429 132.019
42.0928 17560 132.514
42.2091 17779 133.338
42.3255 18040 134.313
42.4419 18254 135.107
42.5584 18644 136.543
42.675 18977 137.757
42.7915 18864 137.346
42.9081 19405 139.302
43.0248 19384 139.226
43.1415 19389 139.244
43.2582 19665 140.232
43.375 19514 139.693
43.4918 19518 139.707
43.6087 19366 139.162
43.7256 19296 138.91
43.8425 18916 137.535
43.9595 18278 135.196
44.0765 18406 135.669
44.1935 18407 135.672
44.3106 18029 134.272
44.4277 17944 133.955
44.5448 17826 133.514
44.6619 17504 132.303
44.7791 17299 131.526
44.8963 17117 130.832
45.0136 17064 130.629
45.1308 16884 129.938
45.2481 16763 129.472
45.3654 16370 127.945
45.4827 15953 126.305
45.6001 15902 126.103
45.7174 15407 124.125
45.8348 15258 123.523
45.9522 14858 121.893
46.0697 14740 121.408
46.1871 14591 120.793
46.3046 14281 119.503
46.422 14327 119.695
46.5395 14267 119.445
46.657 14099 118.739
46.7745 14267 119.445
46.892 13929 118.021
47.0096 13784 117.405
47.1271 13340 115.499
47.2446 13274 115.213
47.3622 12973 113.899
47.4797 12817 113.212
47.5973 12595 112.227
47.7149 12683 112.619
47.8324 12632 112.392
47.95 12668 112.552
48.0675 12092 109.964
48.1851 12240 110.635
48.3027 11592 107.666
48.4202 11178 105.726
48.5378 11055 105.143
48.6554 11046 105.1
48.7729 11144 105.565
48.8904 10829 104.062
49.008 10740 103.634
49.1255 10772 103.788
49.243 10504 102.489
49.3605 10626 103.082
49.478 10698 103.431
49.5955 10704 103.46
49.713 10833 104.082
49.8304 11134 105.518
49.9479 11060 105.167
50.0653 11317 106.381
50.1827 11601 107.708
50.3001 12025 109.659
50.4175 12080 109.909
50.5348 11804 108.646
50.6521 12321 111
50.7694 12634 112.401
50.8867 12869 113.442
51.004 13134 114.604
51.1212 13597 116.606
51.2384 14198 119.155
51.3556 14683 121.173
51.4727 14892 122.033
51.5899 14820 121.737
51.707 14633 120.967
51.824 14509 120.453
51.9411 14472 120.3
52.0581 14299 119.578
52.175 14360 119.833
52.2919 14592 120.797
52.4088 14065 118.596
52.5257 14221 119.252
52.6425 13882 117.822
52.7593 13769 117.341
52.876 14215 119.227
52.9927 14247 119.361
53.1094 14657 121.066
53.226 14982 122.401
53.3426 15177 123.195
53.4591 15505 124.519
53.5756 15866 125.96
53.692 16149 127.079
53.8084 16626 128.942
53.9248 17031 130.503
54.0411 17481 132.216
54.1573 17341 131.685
54.2735 0 1
54.3896 0 1
54.5057 0 1
54.6217 0 1
54.7377 0 1
54.8537 0 1
54.9695 0 1
55.0853 0 1
55.2011 0 1
55.3168 0 1
55.4324 0 1
57.824 0 1
57.9396 0 1
58.0553 0 1
58.1711 0 1
58.2869 0 1
58.4028 0 1
58.5187 0 1
58.6347 0 1
58.7508 0 1
58.8669 0 1
58.983 19058 138.051
59.0992 20626 143.618
59.2155 20834 144.34
59.3318 21244 145.753
59.4482 21897 147.976
59.5646 22774 150.911
59.681 22995 151.641
59.7975 23368 152.866
59.9141 23570 153.525
60.0306 23267 152.535
60.1473 22793 150.974
60.2639 22042 148.465
60.3807 21222 145.678
60.4974 20296 142.464
60.6142 19537 139.775
60.731 18976 137.753
60.8479 17898 133.783
60.9648 17383 131.845
61.0818 16899 129.996
61.1987 16843 129.781
61.3158 17002 130.392
61.4328 17543 132.45
61.5499 17729 133.15
61.667 18152 134.729
61.7841 17933 133.914
61.9013 18152 134.729
62.0185 18465 135.886
62.1357 18570 136.272
62.253 18523 136.099
62.3702 19143 138.358
62.4875 19103 138.214
62.6049 19383 139.223
62.7222 19404 139.298
62.8396 20228 142.225
62.9569 21260 145.808
63.0743 21830 147.75
63.1918 22052 148.499
63.3092 22456 149.853
63.4267 22135 148.778
63.5441 22061 148.529
63.6616 21493 146.605
63.7791 20892 144.541
63.8966 20008 141.45
64.0142 18812 137.157
64.1317 17989 134.123
64.2492 16783 129.549
64.3668 16136 127.028
64.4843 15199 123.284
64.6019 15067 122.748
64.7195 15270 123.572
64.837 15542 124.668
64.9546 16211 127.322
65.0722 16722 129.314
65.1898 16681 129.155
65.3074 17165 131.015
65.4249 16781 129.541
65.5425 17205 131.168
65.6601 17408 131.939
65.7777 17505 132.306
65.8952 17906 133.813
66.0128 17846 133.589
66.1304 18188 134.863
66.2479 18540 136.162
66.3655 19245 138.726
66.483 20622 143.604
66.6005 21098 145.252
66.718 21391 146.257
66.8355 21579 146.898
66.953 21639 147.102
67.0705 21390 146.253
67.1879 21475 146.544
67.3054 20554 143.367
67.4228 19506 139.664
67.5402 17889 133.75
67.6576 16612 128.888
67.7749 15474 124.395
67.8923 15348 123.887
68.0096 15209 123.325
68.1269 15026 122.581
68.2442 14872 121.951
68.3614 14895 122.045
68.4787 15284 123.628
68.5958 16303 127.683
68.713 16815 129.673
68.8302 17033 130.511
68.9473 17057 130.602
69.0643 16920 130.077
69.1814 17176 131.057
69.2984 17740 133.192
69.4154 18230 135.019
69.5323 18276 135.189
69.6492 19023 137.924
69.7661 19451 139.467
69.8829 20545 143.335
69.9997 21347 146.106
70.1165 21783 147.591
70.2332 22441 149.803
70.3499 22589 150.296
70.4665 23256 152.499
70.5831 22849 151.159
70.6996 22552 150.173
70.8161 22383 149.609
70.9326 21111 145.296
71.049 19122 138.282
71.1653 17856 133.626
71.2817 16780 129.538
71.3979 15932 126.222
71.5141 15609 124.936
71.6303 15001 122.479
71.7464 14180 119.08
71.8624 0 1
71.9784 0 1
72.0944 0 1
72.2102 0 1
72.3261 0 1
72.4418 0 1
72.5575 0 1
72.6732 0 1
75.1054 0 1
75.2209 0 1
75.3365 0 1
75.4521 0 1
75.5678 0 1
75.6835 0 1
75.7993 0 1
75.9151 0 1
76.031 0 1
76.147 19181 138.495
76.263 19609 140.032
76.3791 18487 135.967
76.4952 17044 130.553
76.6113 16568 128.717
76.7276 16317 127.738
76.8438 16288 127.624
76.9601 16384 128
77.0765 15992 126.459
77.1929 15908 126.127
77.3093 15636 125.044
77.4258 15863 125.948
77.5423 17087 130.717
77.6589 17402 131.917
77.7755 17642 132.823
77.8921 17165 131.015
78.0088 17073 130.664
78.1256 17624 132.755
78.2423 17829 133.525
78.3591 18062 134.395
78.4759 18538 136.154
78.5928 19094 138.181
78.7097 19985 141.368
78.8266 20460 143.038
78.9436 21712 147.35
79.0606 21665 147.19
79.1776 21592 146.942
79.2946 22255 149.181
79.4117 22745 150.814
79.5288 22669 150.562
79.6459 22261 149.201
79.7631 20927 144.662
79.8802 20028 141.52
79.9974 18591 136.349
80.1147 17360 131.757
80.2319 16721 129.31
80.3491 16278 127.585
80.4664 16247 127.464
80.5837 15970 126.372
80.701 15962 126.341
80.8183 15544 124.676
80.9357 15559 124.736
81.053 15917 126.163
81.1704 16650 129.035
81.2877 17166 131.019
81.4051 17281 131.457
81.5225 16879 129.919
81.6399 16382 127.992
81.7573 17468 132.167
81.8747 17208 131.179
81.9922 17879 133.712
82.1096 18731 136.861
82.227 19718 140.421
82.3444 20048 141.591
82.4619 21498 146.622
82.5793 22567 150.223
82.6967 22086 148.614
82.8142 22526 150.087
82.9316 22822 151.07
83.049 23117 152.043
83.1664 22397 149.656
83.2838 21337 146.072
83.4012 20618 143.59
83.5186 19026 137.935
83.636 18108 134.566
83.7534 17395 131.89
83.8708 16995 130.365
83.9881 16738 129.375
84.1055 16551 128.651
84.2228 16550 128.647
84.3401 16275 127.574
84.4575 16265 127.534
84.5747 16639 128.992
84.692 17220 131.225
84.8093 18060 134.387
84.9265 18240 135.056
85.0437 17922 133.873
85.1609 17776 133.327
85.2781 17728 133.147
85.3952 18223 134.993
85.5123 18795 137.095
85.6294 19412 139.327
85.7465 20370 142.724
85.8636 21827 147.74
85.9806 22361 149.536
86.0976 22970 151.559
86.2145 23489 153.261
86.3315 23773 154.185
86.4484 24389 156.17
86.5652 24609 156.873
86.682 24649 157
86.7988 24317 155.939
86.9156 23372 152.879
87.0323 21812 147.689
87.149 20387 142.783
87.2657 19446 139.449
87.3823 19301 138.928
87.4988 18618 136.448
87.6154 18259 135.126
87.7318 18248 135.085
87.8483 17808 133.447
87.9647 17833 133.54
88.081 17691 133.008
88.1973 18392 135.617
88.3136 18844 137.273
88.4298 19230 138.672
88.546 19164 138.434
88.6621 18409 135.68
88.7781 18184 134.848
88.8942 0 1
89.0101 0 1
89.126 0 1
89.2419 0 1
89.3577 0 1
89.4734 0 1
89.5891 0 1
89.7047 0 1
89.8203 0 1
89.9358 0 1
92.3269 0 1
92.4424 0 1
92.558 0 1
92.6736 0 1
92.7893 0 1
92.905 0 1
93.0208 0 1
93.1366 0 1
93.2525 0 1
93.3685 0 1
93.4845 0 1
93.6005 17566 132.537
93.7167 18004 134.179
93.8328 17711 133.083
93.949 17599 132.661
94.0653 17976 134.075
94.1816 17994 134.142
94.2979 18520 136.088
94.4143 19241 138.712
94.5307 19506 139.664
94.6472 20511 143.217
94.7637 21683 147.251
94.8803 21828 147.743
94.9969 22649 150.496
95.1135 23089 151.951
95.2302 22710 150.698
95.3469 22950 151.493
95.4637 23082 151.928
95.5805 23361 152.843
95.6973 23412 153.01
95.8142 22851 151.165
95.9311 21677 147.231
96.048 20814 144.271
96.1649 19885 141.014
96.2819 19627 140.096
96.3989 18664 136.616
96.516 18463 135.879
96.633 17789 133.375
96.7501 17509 132.322
96.8673 17568 132.544
96.9844 17356 131.742
97.1016 17336 131.666
97.2188 17313 131.579
97.336 18084 134.477
97.4532 18163 134.77
97.5704 17585 132.608
97.6877 17192 131.118
97.805 17025 130.48
97.9223 17359 131.754
98.0396 17694 133.019
98.1569 18206 134.93
98.2743 18958 137.688
98.3916 19733 140.474
98.509 20751 144.052
98.6264 21396 146.274
98.7438 21752 147.486
98.8612 22368 149.559
98.9786 22039 148.455
99.096 21987 148.28
99.2134 22489 149.963
99.3308 22862 151.202
99.4482 22285 149.282
99.5656 21673 147.218
99.6831 20423 142.909
99.8005 19478 139.564
99.9179 18877 137.394
100.035 17827 133.518
100.153 17277 131.442
100.27 17036 130.522
100.388 16668 129.105
100.505 16685 129.17
100.622 16557 128.674
100.74 16088 126.838
100.857 16759 129.457
100.975 17117 130.832
101.092 16963 130.242
101.209 16714 129.283
101.327 16526 128.553
101.444 16676 129.136
101.561 16652 129.043
101.679 17858 133.634
101.796 18103 134.547
101.913 19037 137.975
102.03 20641 143.67
102.148 21946 148.142
102.265 20750 144.049
102.382 24355 156.061
102.499 22655 150.516
102.616 22729 150.761
102.733 23288 152.604
102.851 23910 154.629
102.968 23726 154.032
103.085 23172 152.224
103.202 22090 148.627
103.319 21416 146.342
103.436 20232 142.239
103.552 19830 140.819
103.669 19080 138.13
103.786 18812 137.157
103.903 18648 136.558
104.02 17924 133.881
104.137 17889 133.75
104.253 17858 133.634
104.37 18339 135.422
104.487 18961 137.699
104.603 18320 135.351
104.72 17897 133.78
104.836 18013 134.213
104.953 18283 135.215
105.069 18843 137.27
105.186 19707 140.382
105.302 20652 143.708
105.418 21740 147.445
105.535 22885 151.278
105.651 23629 153.717
105.767 23850 154.434
105.883 22940 151.46
105.999 22615 150.383
106.115 0 1
106.231 0 1
106.347 0 1
106.463 0 1
106.579 0 1
106.694 0 1
106.81 0 1
106.926 0 1
107.041 0 1
107.157 0 1
109.576 0 1
109.692 0 1
109.807 0 1
109.923 0 1
110.039 0 1
110.155 0 1
110.27 0 1
110.386 0 1
110.502 0 1
110.618 19293 138.899
110.735 20561 143.391
110.851 20619 143.593
110.967 20050 141.598
111.083 19688 140.314
111.199 20129 141.877
111.316 21087 145.214
111.432 21974 148.236
111.549 21358 146.144
111.665 20444 142.983
111.782 19637 140.132
111.898 18583 136.319
112.015 18224 134.996
112.132 17692 133.011
112.248 16725 129.325
112.365 16509 128.487
112.482 16333 127.801
112.599 15279 123.608
112.716 15088 122.833
112.832 14617 120.901
112.949 14593 120.801
113.066 14207 119.193
113.183 13699 117.043
113.3 13637 116.778
113.417 13914 117.958
113.534 14150 118.954
113.652 14561 120.669
113.769 15425 124.197
113.886 15846 125.881
114.003 16079 126.803
114.12 16804 129.63
114.238 17194 131.126
114.355 17130 130.882
114.472 16603 128.853
114.589 15344 123.871
114.707 15959 126.329
114.824 16739 129.379
114.942 17324 131.621
115.059 17111 130.809
115.176 16556 128.67
115.294 15834 125.833
115.411 15280 123.612
115.529 14968 122.344
115.646 14082 118.668
115.764 13688 116.996
115.881 13034 114.167
115.999 12614 112.312
116.116 12313 110.964
116.234 11822 108.729
116.351 11300 106.301
116.469 11309 106.344
116.586 10966 104.719
116.704 10894 104.374
116.821 10632 103.112
116.939 10909 104.446
117.056 11331 106.447
117.174 11625 107.819
117.291 12252 110.689
117.409 12254 110.698
117.526 12703 112.708
117.644 13112 114.508
117.761 13508 116.224
117.879 13629 116.743
117.996 13483 116.116
118.114 12773 113.018
118.231 12783 113.062
118.349 13316 115.395
118.466 14427 120.112
118.584 14783 121.585
118.701 14666 121.103
118.819 14526 120.524
118.936 14130 118.87
119.053 14002 118.33
119.171 13856 117.712
119.288 13445 115.953
119.405 13269 115.191
119.523 13007 114.048
119.64 12746 112.898
119.757 12274 110.788
119.875 12059 109.813
119.992 11573 107.578
120.109 11520 107.331
120.226 11126 105.48
120.343 11485 107.168
120.46 11659 107.977
120.578 11753 108.411
120.695 12482 111.723
120.812 12886 113.517
120.929 13437 115.918
121.046 13637 116.778
121.163 14123 118.84
121.279 14607 120.859
121.396 14871 121.947
121.513 15525 124.599
121.63 15198 123.28
121.747 14005 118.343
121.863 13163 114.73
121.98 13765 117.324
122.097 15648 125.092
122.213 16276 127.577
122.33 16988 130.338
122.446 17084 130.706
122.563 16750 129.422
122.679 16792 129.584
122.795 16394 128.039
122.912 16373 127.957
123.028 15930 126.214
123.144 15679 125.216
123.26 15336 123.839
123.377 0 1
123.493 0 1
123.609 0 1
123.725 0 1
123.84 0 1
123.956 0 1
124.072 0 1
124.188 0 1
124.303 0 1
124.419 0 1
126.852 0 1
126.968 0 1
127.083 0 1
127.199 0 1
127.315 0 1
127.431 0 1
127.547 0 1
127.663 0 1
127.779 0 1
127.895 0 1
128.011 0 1
128.127 0 1
128.243 0 1
128.359 18673 136.649
128.476 18464 135.882
128.592 17612 132.71
128.708 17392 131.879
128.825 17135 130.901
128.941 16574 128.74
129.058 16053 126.7
129.174 15577 124.808
129.291 15698 125.292
129.408 15484 124.435
129.524 15387 124.044
129.641 15926 126.198
129.758 15703 125.312
129.875 15836 125.841
129.992 16090 126.846
130.108 16189 127.236
130.225 16309 127.707
130.342 16510 128.491
130.459 16838 129.761
130.576 16150 127.083
130.693 14341 119.754
130.81 12323 111.009
130.928 12705 112.716
131.045 14861 121.906
131.162 16063 126.74
131.279 16629 128.953
131.396 16421 128.144
131.513 16726 129.329
131.631 16538 128.6
131.748 16415 128.121
131.865 16364 127.922
131.983 16027 126.598
132.1 15750 125.499
132.217 15530 124.619
132.335 15238 123.442
132.452 14826 121.762
132.57 14440 120.167
132.687 13821 117.563
132.804 14279 119.495
132.922 13931 118.03
133.039 13614 116.679
133.157 13429 115.884
133.274 13604 116.636
133.392 13562 116.456
133.509 13644 116.808
133.627 13493 116.159
133.744 13723 117.145
133.862 13790 117.431
133.979 13782 117.397
134.097 13480 116.103
134.214 12081 109.914
134.332 9848 99.2371
134.449 9774 98.8635
134.567 11959 109.357
134.684 12929 113.706
134.802 13228 115.013
134.919 13110 114.499
135.037 13246 115.091
135.154 13271 115.2
135.272 12952 113.807
135.389 12956 113.824
135.507 13045 114.215
135.624 12913 113.635
135.742 12546 112.009
135.859 12074 109.882
135.977 12020 109.636
136.094 11731 108.31
136.211 11663 107.995
136.329 11374 106.649
136.446 11367 106.616
136.564 11160 105.641
136.681 10826 104.048
136.798 11158 105.631
136.915 10711 103.494
137.033 10748 103.673
137.15 10651 103.204
137.267 10863 104.226
137.384 10579 102.854
137.502 10968 104.728
137.619 10788 103.865
137.736 10220 101.094
137.853 8601 92.7416
137.97 7809 88.3685
138.087 8785 93.7283
138.204 10156 100.777
138.321 10993 104.848
138.438 11400 106.771
138.555 11448 106.995
138.672 11659 107.977
138.788 11466 107.079
138.905 11868 108.94
139.022 12001 109.549
139.139 12023 109.649
139.255 11832 108.775
139.372 12004 109.563
139.488 11957 109.348
139.605 12109 110.041
139.721 12017 109.622
139.838 12408 111.391
139.954 12226 110.571
140.071 12044 109.745
140.187 12086 109.936
140.303 11902 109.096
140.419 12061 109.823
140.535 11633 107.856
140.652 11694 108.139
140.768 0 1
140.884 0 1
141 0 1
141.115 0 1
141.231 0 1
141.347 0 1
141.463 0 1
141.578 0 1
141.694 0 1
144.104 0 1
144.219 0 1
144.335 0 1
144.45 0 1
144.566 0 1
144.682 0 1
144.798 0 1
144.914 0 1
145.03 0 1
145.146 10003 100.015
145.262 10069 100.344
145.378 9702 98.4987
145.494 9374 96.8194
145.61 9344 96.6644
145.726 9092 95.352
145.842 9094 95.3625
145.959 9065 95.2103
146.075 9039 95.0737
146.192 9138 95.5929
146.308 8879 94.2284
146.425 8653 93.0215
146.541 7777 88.1873
146.658 7477 86.4696
146.774 7552 86.9022
146.891 7757 88.0738
147.008 8272 90.9505
147.125 8452 91.9348
147.241 8273 90.956
147.358 8157 90.3161
147.475 8136 90.1998
147.592 7793 88.278
147.709 7886 88.8032
147.826 7699 87.7439
147.943 7609 87.2296
148.06 7553 86.908
148.177 7536 86.8101
148.294 7337 85.6563
148.411 7488 86.5332
148.528 7304 85.4634
148.645 7110 84.3208
148.762 7069 84.0773
148.88 6801 82.4682
148.997 6900 83.0662
149.114 6233 78.9494
149.231 6421 80.1311
149.349 6486 80.5357
149.466 6580 81.1172
149.583 6610 81.3019
149.701 6510 80.6846
149.818 6573 81.074
149.935 6454 80.3368
150.053 6441 80.2558
150.17 6355 79.7183
150.287 6413 80.0812
150.405 6395 79.9687
150.522 6615 81.3327
150.64 6749 82.1523
150.757 6838 82.6922
150.875 6835 82.6741
150.992 6893 83.0241
151.11 7028 83.8332
151.227 6894 83.0301
151.344 6848 82.7526
151.462 6930 83.2466
151.579 6747 82.1401
151.697 6706 81.8902
151.814 6927 83.2286
151.932 7067 84.0655
152.049 6887 82.988
152.167 7009 83.7198
152.284 6880 82.9458
152.402 6914 83.1505
152.519 6719 81.9695
152.636 6713 81.9329
152.754 6927 83.2286
152.871 6775 82.3104
152.989 6977 83.5284
153.106 7004 83.6899
153.223 7013 83.7437
153.341 6758 82.2071
153.458 6912 83.1384
153.575 6831 82.6499
153.693 6788 82.3893
153.81 7312 85.5102
153.927 7457 86.3539
154.044 7927 89.0337
154.162 8138 90.2109
154.279 8392 91.6079
154.396 8577 92.6121
154.513 8753 93.5575
154.63 9014 94.9421
154.747 9166 95.7392
154.864 9125 95.5249
154.981 8969 94.7048
155.098 9124 95.5196
155.215 9116 95.4777
155.332 9124 95.5196
155.449 8836 94
155.566 8963 94.6731
155.683 8840 94.0213
155.8 8585 92.6553
155.917 8048 89.7106
156.033 8255 90.857
156.15 0 1
156.267 0 1
156.383 0 1
156.5 0 1
156.617 0 1
156.733 0 1
156.85 0 1
156.966 0 1
157.082 0 1
157.199 0 1
157.315 0 1
157.431 0 1
157.547 0 1
157.664 0 1
157.78 0 1
157.896 0 1
158.012 0 1
158.128 0 1
158.244 0 1
158.359 0 1
158.475 0 1
158.591 0 1
158.706 0 1
