
6.15755 0 1
6.2731 0 1
6.3887 0 1
6.50437 0 1
6.62009 0 1
6.73587 0 1
6.8517 0 1
6.96759 0 1
7.08353 0 1
7.19952 0 1
7.31557 0 1
7.43166 0 1
7.54781 0 1
7.664 0 1
7.78024 0 1
7.89653 0 1
8.01286 0 1
8.12924 0 1
8.24567 0 1
8.36213 0 1
8.47864 0 1
8.59519 0 1
8.71178 0 1
8.82841 0 1
8.94508 0 1
9.06179 0 1
9.17853 0 1
9.29531 0 1
9.41212 0 1
9.52897 0 1
9.64584 0 1
9.76276 0 1
9.8797 0 1
9.99667 0 1
10.1137 0 1
10.2307 0 1
10.3478 0 1
10.4648 0 1
10.5819 0 1
10.6991 0 1
10.8162 0 1
10.9334 0 1
11.0506 0 1
11.1678 0 1
11.285 0 1
11.4023 0 1
11.5196 0 1
11.6369 0 1
11.7542 0 1
11.8715 0 1
11.9888 0 1
12.1062 0 1
12.2235 0 1
12.3409 0 1
12.4582 0 1
12.5756 0 1
12.693 0 1
12.8104 0 1
12.9278 0 1
13.0452 0 1
13.1626 0 1
13.28 0 1
13.3974 0 1
13.5149 0 1
13.6323 0 1
13.7497 0 1
13.8671 0 1
13.9845 0 1
14.1019 0 1
14.2193 0 1
14.3367 0 1
14.4541 0 1
14.5714 0 1
14.6888 0 1
14.8062 0 1
14.9235 0 1
15.0408 0 0
15.1581 0 0
15.2755 0 0
15.3927 0 0
15.51 0 0
15.6273 0 0
15.7445 0 0
15.8617 0 0
15.9789 0 0
16.0961 0 0
16.2132 0 0
16.3304 0 0
16.4475 0 0
16.5646 0 0
16.6816 0 0
16.7986 0 0
16.9156 0 0
17.0326 0 0
17.1496 0 0
17.2665 0 0
17.3833 0 0
17.5002 0 0
17.617 0 0
17.7338 0 0
17.8505 0 0
17.9672 0 0
18.0839 0 0
18.2005 0 0
18.3171 0 0
18.4337 0 0
18.5502 0 0
18.6666 0 0
18.7831 0 0
18.8994 0 0
19.0158 0 0
19.1321 0 0
19.2483 0 0
19.3645 0 0
19.4806 0 0
19.5967 0 0
19.7128 0 0
19.8288 0 0
19.9447 0 0
20.0606 0 1
20.1764 0 1
20.2922 0 1
20.4079 0 1
20.5236 0 1
20.6392 0 1
20.7548 0 1
20.8702 0 1
23.3078 0 1
23.4233 0 1
23.539 0 1
23.6547 0 1
23.7704 0 1
23.8862 0 1
24.0021 0 1
24.118 0 1
24.234 0 1
24.35 0 1
24.4661 1758 41.9285
24.5822 1763 41.9881
24.6984 1717 41.4367
24.8146 1751 41.845
24.9309 1609 40.1123
25.0472 1532 39.1408
25.1636 1587 39.8372
25.28 1625 40.3113
25.3965 1764 42
25.513 1894 43.5201
25.6296 1950 44.1588
25.7462 2127 46.1194
25.8628 1997 44.6878
25.9795 2015 44.8888
26.0962 2065 45.4423
26.213 2091 45.7275
26.3298 2050 45.2769
26.4466 1904 43.6348
26.5635 1961 44.2832
26.6804 1833 42.8135
26.7973 1830 42.7785
26.9143 1874 43.2897
27.0313 1965 44.3283
27.1483 1903 43.6234
27.2653 2094 45.7602
27.3824 2028 45.0333
27.4996 2018 44.9222
27.6167 2008 44.8107
27.7339 1951 44.1701
27.8511 1991 44.6206
27.9683 1921 43.8292
28.0855 1764 42
28.2028 1873 43.2782
28.3201 1614 40.1746
28.4374 1608 40.0999
28.5547 1582 39.7744
28.6721 1540 39.2428
28.7894 1524 39.0384
28.9068 1633 40.4104
29.0242 1766 42.0238
29.1416 1798 42.4028
29.259 1899 43.5775
29.3764 1996 44.6766
29.4939 1963 44.3058
29.6113 1906 43.6578
29.7288 1877 43.3244
29.8463 1964 44.317
29.9638 1941 44.0568
30.0812 1892 43.4971
30.1987 1826 42.7317
30.3162 1784 42.2374
30.4337 1854 43.0581
30.5512 1861 43.1393
30.6687 1943 44.0795
30.7862 1966 44.3396
30.9037 1944 44.0908
31.0212 1987 44.5758
31.1387 1980 44.4972
31.2562 2038 45.1442
31.3737 1977 44.4635
31.4912 1916 43.7721
31.6087 1935 43.9886
31.7262 1842 42.9185
31.8436 1645 40.5586
31.9611 1577 39.7115
32.0785 1491 38.6135
32.1959 1522 39.0128
32.3134 1566 39.5727
32.4308 1671 40.8779
32.5482 1729 41.5812
32.6655 1828 42.7551
32.7829 1895 43.5316
32.9002 2050 45.2769
33.0176 1967 44.3509
33.1349 1975 44.441
33.2522 1911 43.715
33.3694 1943 44.0795
33.4867 1938 44.0227
33.6039 1933 43.9659
33.7211 1866 43.1972
33.8383 1901 43.6005
33.9554 1917 43.7836
34.0725 1788 42.2847
34.1896 1901 43.6005
34.3067 1972 44.4072
34.4237 1977 44.4635
34.5407 1959 44.2606
34.6577 2018 44.9222
34.7746 1991 44.6206
34.8915 2015 44.8888
35.0084 2037 45.1331
35.1252 1893 43.5086
35.242 1898 43.566
35.3587 1951 44.1701
35.4755 1796 42.3792
35.5921 1614 40.1746
35.7088 1562 39.5221
35.8254 1524 39.0384
35.9419 1440 37.9473
36.0584 1592 39.8999
36.1749 1602 40.025
36.2913 1817 42.6263
36.4077 1952 44.1814
36.524 1889 43.4626
36.6403 1960 44.2719
36.7565 1952 44.1814
36.8727 1952 44.1814
36.9889 1958 44.2493
37.1049 2032 45.0777
37.221 0 1
37.3369 0 1
37.4529 0 1
37.5687 0 1
37.6845 0 1
37.8003 0 1
37.916 0 1
38.0316 0 1
38.1472 0 1
40.5851 0 1
40.7008 0 1
40.8164 0 1
40.9322 0 1
41.048 0 1
41.1639 0 1
41.2798 0 1
41.3958 0 1
41.5118 0 1
41.6279 0 1
41.744 1676 40.939
41.8602 1751 41.845
41.9765 1837 42.8602
42.0928 1787 42.2729
42.2091 1824 42.7083
42.3255 1866 43.1972
42.4419 1779 42.1782
42.5584 1747 41.7971
42.675 1682 41.0122
42.7915 1697 41.1947
42.9081 1697 41.1947
43.0248 1739 41.7013
43.1415 1737 41.6773
43.2582 1802 42.45
43.375 1778 42.1663
43.4918 1890 43.4741
43.6087 1833 42.8135
43.7256 1812 42.5676
43.8425 1854 43.0581
43.9595 1774 42.1189
44.0765 1644 40.5463
44.1935 1630 40.3733
44.3106 1593 39.9124
44.4277 1351 36.756
44.5448 1196 34.5832
44.6619 1189 34.4819
44.7791 1257 35.4542
44.8963 1334 36.524
45.0136 1449 38.0657
45.1308 1584 39.7995
45.2481 1563 39.5348
45.3654 1536 39.1918
45.4827 1526 39.064
45.6001 1595 39.9375
45.7174 1585 39.8121
45.8348 1526 39.064
45.9522 1535 39.1791
46.0697 1527 39.0768
46.1871 1495 38.6652
46.3046 1415 37.6165
46.422 1444 38
46.5395 1481 38.4838
46.657 1511 38.8716
46.7745 1452 38.1051
46.892 1510 38.8587
47.0096 1480 38.4708
47.1271 1531 39.128
47.2446 1423 37.7227
47.3622 1397 37.3765
47.4797 1418 37.6563
47.5973 1471 38.3536
47.7149 1348 36.7151
47.8324 1364 36.9324
47.95 1231 35.0856
48.0675 999 31.607
48.1851 974 31.209
48.3027 992 31.496
48.4202 1017 31.8904
48.5378 1153 33.9559
48.6554 1216 34.8712
48.7729 1321 36.3456
48.8904 1332 36.4966
49.008 1334 36.524
49.1255 1367 36.973
49.243 1408 37.5233
49.3605 1412 37.5766
49.478 1378 37.1214
49.5955 1363 36.9188
49.713 1349 36.7287
49.8304 1312 36.2215
49.9479 1388 37.2559
50.0653 1425 37.7492
50.1827 1489 38.5876
50.3001 1521 39
50.4175 1639 40.4846
50.5348 1600 40
50.6521 1664 40.7922
50.7694 1696 41.1825
50.8867 1714 41.4005
51.004 1857 43.0929
51.1212 1732 41.6173
51.2384 1764 42
51.3556 1703 41.2674
51.4727 1654 40.6694
51.5899 1441 37.9605
51.707 1314 36.2491
51.824 1404 37.47
51.9411 1570 39.6232
52.0581 1794 42.3556
52.175 1939 44.0341
52.2919 1965 44.3283
52.4088 2136 46.2169
52.5257 2160 46.4758
52.6425 2142 46.2817
52.7593 2253 47.4658
52.876 2207 46.9787
52.9927 2309 48.0521
53.1094 2346 48.4355
53.226 2237 47.2969
53.3426 2351 48.4871
53.4591 2247 47.4025
53.5756 2252 47.4552
53.692 2322 48.1871
53.8084 2427 49.2646
53.9248 2427 49.2646
54.0411 2518 50.1797
54.1573 2534 50.3389
54.2735 0 1
54.3896 0 1
54.5057 0 1
54.6217 0 1
54.7377 0 1
54.8537 0 1
54.9695 0 1
55.0853 0 1
55.2011 0 1
55.3168 0 1
55.4324 0 1
57.824 0 1
57.9396 0 1
58.0553 0 1
58.1711 0 1
58.2869 0 1
58.4028 0 1
58.5187 0 1
58.6347 0 1
58.7508 0 1
58.8669 0 1
58.983 3138 56.0179
59.0992 3326 57.6715
59.2155 3372 58.0689
59.3318 3418 58.4637
59.4482 3436 58.6174
59.5646 3311 57.5413
59.681 3430 58.5662
59.7975 3374 58.0861
59.9141 3220 56.745
60.0306 3025 55
60.1473 2799 52.9056
60.2639 2558 50.5767
60.3807 2394 48.9285
60.4974 2406 49.051
60.6142 2616 51.1468
60.731 2861 53.4883
60.8479 3133 55.9732
60.9648 3266 57.1489
61.0818 3291 57.3672
61.1987 3512 59.2621
61.3158 3486 59.0424
61.4328 3567 59.7244
61.5499 3471 58.9152
61.667 3468 58.8897
61.7841 3498 59.1439
61.9013 3346 57.8446
62.0185 3325 57.6628
62.1357 3420 58.4808
62.253 3369 58.0431
62.3702 3413 58.4209
62.4875 3586 59.8832
62.6049 3635 60.291
62.7222 3750 61.2372
62.8396 3770 61.4003
62.9569 3648 60.3987
63.0743 3606 60.05
63.1918 3677 60.6383
63.3092 3514 59.279
63.4267 3509 59.2368
63.5441 3252 57.0263
63.6616 2989 54.6717
63.7791 2585 50.8429
63.8966 2440 49.3964
64.0142 2491 49.9099
64.1317 2631 51.2933
64.2492 3013 54.8908
64.3668 3373 58.0775
64.4843 3527 59.3886
64.6019 3649 60.407
64.7195 3647 60.3904
64.837 3747 61.2127
64.9546 3844 62
65.0722 3808 61.709
65.1898 3646 60.3821
65.3074 3651 60.4235
65.4249 3658 60.4814
65.5425 3617 60.1415
65.6601 3720 60.9918
65.7777 3669 60.5723
65.8952 3601 60.0083
66.0128 3693 60.7701
66.1304 3737 61.131
66.2479 3909 62.522
66.3655 4001 63.2535
66.483 4003 63.2693
66.6005 3878 62.2736
66.718 3964 62.9603
66.8355 3862 62.145
66.953 3867 62.1852
67.0705 3658 60.4814
67.1879 3440 58.6515
67.3054 3174 56.3383
67.4228 2780 52.7257
67.5402 2586 50.8527
67.6576 2729 52.2398
67.7749 2864 53.5164
67.8923 3385 58.1808
68.0096 3741 61.1637
68.1269 3947 62.8252
68.2442 4102 64.0469
68.3614 4192 64.7457
68.4787 4213 64.9076
68.5958 4318 65.7115
68.713 4214 64.9153
68.8302 4379 66.174
68.9473 4469 66.8506
69.0643 4240 65.1153
69.1814 4231 65.0461
69.2984 4282 65.437
69.4154 4286 65.4675
69.5323 4163 64.5213
69.6492 4331 65.8103
69.7661 4354 65.9848
69.8829 4465 66.8207
69.9997 4576 67.6461
70.1165 4657 68.2422
70.2332 4675 68.374
70.3499 4623 67.9926
70.4665 4511 67.164
70.5831 4391 66.2646
70.6996 4218 64.9461
70.8161 3937 62.7455
70.9326 3752 61.2536
71.049 3396 58.2752
71.1653 3077 55.4707
71.2817 2838 53.2729
71.3979 2944 54.2586
71.5141 3256 57.0614
71.6303 3504 59.1946
71.7464 3548 59.5651
71.8624 0 1
71.9784 0 1
72.0944 0 1
72.2102 0 1
72.3261 0 1
72.4418 0 1
72.5575 0 1
72.6732 0 1
75.1054 0 1
75.2209 0 1
75.3365 0 1
75.4521 0 1
75.5678 0 1
75.6835 0 1
75.7993 0 1
75.9151 0 1
76.031 0 1
76.147 3834 61.9193
76.263 3813 61.7495
76.3791 3519 59.3212
76.4952 3174 56.3383
76.6113 2990 54.6809
76.7276 3221 56.7539
76.8438 3480 58.9915
76.9601 4105 64.0703
77.0765 4566 67.5722
77.1929 4834 69.527
77.3093 4784 69.1665
77.4258 4862 69.728
77.5423 4879 69.8498
77.6589 5015 70.8167
77.7755 4921 70.1498
77.8921 4794 69.2387
78.0088 5000 70.7107
78.1256 4722 68.7168
78.2423 4739 68.8404
78.3591 4787 69.1881
78.4759 4562 67.5426
78.5928 4524 67.2607
78.7097 4695 68.5201
78.8266 4837 69.5485
78.9436 4689 68.4763
79.0606 4726 68.7459
79.1776 4854 69.6707
79.2946 4925 70.1783
79.4117 4802 69.2965
79.5288 4890 69.9285
79.6459 4490 67.0075
79.7631 4288 65.4828
79.8802 4112 64.1249
79.9974 3856 62.0967
80.1147 3345 57.836
80.2319 3135 55.9911
80.3491 3126 55.9106
80.4664 3543 59.5231
80.5837 3974 63.0397
80.701 4330 65.8027
80.8183 4550 67.4537
80.9357 4682 68.4251
81.053 4698 68.542
81.1704 4845 69.606
81.2877 4712 68.644
81.4051 4689 68.4763
81.5225 4802 69.2965
81.6399 4530 67.3053
81.7573 4697 68.5347
81.8747 4532 67.3201
81.9922 4566 67.5722
82.1096 4550 67.4537
82.227 4566 67.5722
82.3444 4504 67.1118
82.4619 4507 67.1342
82.5793 4510 67.1565
82.6967 4717 68.6804
82.8142 4640 68.1175
82.9316 4651 68.1982
83.049 4660 68.2642
83.1664 4402 66.3476
83.2838 4287 65.4752
83.4012 4059 63.7103
83.5186 3666 60.5475
83.636 3490 59.0762
83.7534 3141 56.0446
83.8708 2860 53.479
83.9881 2916 54
84.1055 3198 56.5509
84.2228 3563 59.6909
84.3401 3953 62.8729
84.4575 4383 66.2042
84.5747 4492 67.0224
84.692 4660 68.2642
84.8093 4741 68.8549
84.9265 4629 68.0368
85.0437 4495 67.0448
85.1609 4349 65.9469
85.2781 4496 67.0522
85.3952 4577 67.6535
85.5123 4570 67.6018
85.6294 4594 67.7791
85.7465 4542 67.3944
85.8636 4643 68.1396
85.9806 4510 67.1565
86.0976 4794 69.2387
86.2145 4760 68.9928
86.3315 4721 68.7095
86.4484 5033 70.9436
86.5652 4967 70.4769
86.682 4945 70.3207
86.7988 4903 70.0214
86.9156 4753 68.942
87.0323 4291 65.5057
87.149 4171 64.5833
87.2657 3858 62.1128
87.3823 3415 58.438
87.4988 3298 57.4282
87.6154 3502 59.1777
87.7318 3956 62.8967
87.8483 4453 66.7308
87.9647 4969 70.4911
88.081 5076 71.2461
88.1973 5036 70.9648
88.3136 5289 72.7255
88.4298 5258 72.5121
88.546 5217 72.2288
88.6621 5140 71.6938
88.7781 5280 72.6636
88.8942 0 1
89.0101 0 1
89.126 0 1
89.2419 0 1
89.3577 0 1
89.4734 0 1
89.5891 0 1
89.7047 0 1
89.8203 0 1
89.9358 0 1
92.3269 0 1
92.4424 0 1
92.558 0 1
92.6736 0 1
92.7893 0 1
92.905 0 1
93.0208 0 1
93.1366 0 1
93.2525 0 1
93.3685 0 1
93.4845 0 1
93.6005 5098 71.4003
93.7167 5254 72.4845
93.8328 5242 72.4017
93.949 5331 73.0137
94.0653 5205 72.1457
94.1816 5134 71.6519
94.2979 5087 71.3232
94.4143 5237 72.3671
94.5307 5358 73.1984
94.6472 5179 71.9653
94.7637 5082 71.2881
94.8803 5200 72.111
94.9969 5158 71.8192
95.1135 5262 72.5396
95.2302 5246 72.4293
95.3469 5333 73.0274
95.4637 5408 73.5391
95.5805 5418 73.6071
95.6973 5409 73.5459
95.8142 5568 74.619
95.9311 5325 72.9726
96.048 5071 71.211
96.1649 4916 70.1142
96.2819 4430 66.5582
96.3989 4134 64.2962
96.516 3845 62.0081
96.633 3597 59.975
96.7501 3626 60.2163
96.8673 3982 63.1031
96.9844 4344 65.909
97.1016 4949 70.3491
97.2188 5259 72.519
97.336 5460 73.8918
97.4532 5510 74.2294
97.5704 5593 74.7864
97.6877 5658 75.2197
97.805 5478 74.0135
97.9223 5554 74.5252
98.0396 5355 73.1779
98.1569 5429 73.6817
98.2743 5501 74.1687
98.3916 5413 73.5731
98.509 5590 74.7663
98.6264 5321 72.9452
98.7438 5401 73.4915
98.8612 5380 73.3485
98.9786 5442 73.7699
99.096 5556 74.5386
99.2134 5575 74.6659
99.3308 5692 75.4453
99.4482 5803 76.1774
99.5656 5651 75.1731
99.6831 5566 74.6056
99.8005 5203 72.1318
99.9179 4868 69.7711
100.035 4369 66.0984
100.153 4136 64.3117
100.27 3938 62.7535
100.388 4078 63.8592
100.505 4616 67.9412
100.622 5089 71.3372
100.74 5518 74.2832
100.857 5508 74.2159
100.975 5751 75.8353
101.092 5822 76.302
101.209 6001 77.4661
101.327 5878 76.6681
101.444 5802 76.1709
101.561 5809 76.2168
101.679 5734 75.7232
101.796 5888 76.7333
101.913 5863 76.5702
102.03 5849 76.4788
102.148 5685 75.3989
102.265 6224 78.8923
102.382 5514 74.2563
102.499 5888 76.7333
102.616 5991 77.4016
102.733 6083 77.9936
102.851 6048 77.7689
102.968 6098 78.0897
103.085 6106 78.1409
103.202 5959 77.1946
103.319 5767 75.9408
103.436 5368 73.2666
103.552 4906 70.0428
103.669 4445 66.6708
103.786 4129 64.2573
103.903 4340 65.8787
104.02 4896 69.9714
104.137 5465 73.9256
104.253 6059 77.8396
104.37 5954 77.1622
104.487 6320 79.4984
104.603 6446 80.287
104.72 6164 78.5111
104.836 6465 80.4052
104.953 6352 79.6994
105.069 6251 79.0633
105.186 6249 79.0506
105.302 6511 80.6908
105.418 6313 79.4544
105.535 6395 79.9687
105.651 6402 80.0125
105.767 6391 79.9437
105.883 6444 80.2745
105.999 6471 80.4425
106.115 0 1
106.231 0 1
106.347 0 1
106.463 0 1
106.579 0 1
106.694 0 1
106.81 0 1
106.926 0 1
107.041 0 1
107.157 0 1
109.576 0 1
109.692 0 1
109.807 0 1
109.923 0 1
110.039 0 1
110.155 0 1
110.27 0 1
110.386 0 1
110.502 0 1
110.618 5829 76.3479
110.735 6018 77.5758
110.851 6006 77.4984
110.967 6160 78.4857
111.083 5996 77.4338
111.199 6171 78.5557
111.316 6097 78.0833
111.432 6140 78.3582
111.549 5985 77.3628
111.665 5892 76.7594
111.782 5664 75.2596
111.898 5192 72.0555
112.015 4940 70.2851
112.132 4239 65.1076
112.248 4015 63.364
112.365 4316 65.6963
112.482 4490 67.0075
112.599 4970 70.4982
112.716 5320 72.9383
112.832 5667 75.2795
112.949 5730 75.6968
113.066 5698 75.4851
113.183 5609 74.8933
113.3 5657 75.213
113.417 5590 74.7663
113.534 5526 74.3371
113.652 5598 74.8198
113.769 5333 73.0274
113.886 5384 73.3757
114.003 5596 74.8064
114.12 5344 73.1027
114.238 5462 73.9053
114.355 5354 73.171
114.472 5414 73.5799
114.589 5328 72.9932
114.707 5321 72.9452
114.824 5352 73.1574
114.942 5417 73.6003
115.059 5361 73.2189
115.176 5377 73.328
115.294 5230 72.3187
115.411 5088 71.3302
115.529 4550 67.4537
115.646 4214 64.9153
115.764 3657 60.4731
115.881 3720 60.9918
115.999 4077 63.8514
116.116 4542 67.3944
116.234 4884 69.8856
116.351 5164 71.861
116.469 5398 73.4711
116.586 5486 74.0675
116.704 5418 73.6071
116.821 5467 73.9392
116.939 5416 73.5935
117.056 5328 72.9932
117.174 5359 73.2052
117.291 5306 72.8423
117.409 5371 73.2871
117.526 5396 73.4575
117.644 5325 72.9726
117.761 5378 73.3348
117.879 5376 73.3212
117.996 5351 73.1505
118.114 5314 72.8972
118.231 5560 74.5654
118.349 5346 73.1163
118.466 5580 74.6994
118.584 5493 74.1148
118.701 5642 75.1132
118.819 5464 73.9189
118.936 5217 72.2288
119.053 4972 70.5124
119.171 4695 68.5201
119.288 4216 64.9307
119.405 3937 62.7455
119.523 3702 60.8441
119.64 4026 63.4508
119.757 4530 67.3053
119.875 4825 69.4622
119.992 4960 70.4273
120.109 5219 72.2426
120.226 5490 74.0945
120.343 5556 74.5386
120.46 5395 73.4507
120.578 5373 73.3008
120.695 5359 73.2052
120.812 5309 72.8629
120.929 5253 72.4776
121.046 5225 72.2842
121.163 5330 73.0068
121.279 5426 73.6614
121.396 5345 73.1095
121.513 5312 72.8835
121.63 5221 72.2565
121.747 5403 73.5051
121.863 5252 72.4707
121.98 5368 73.2666
122.097 5491 74.1013
122.213 5205 72.1457
122.33 5439 73.7496
122.446 5447 73.8038
122.563 5139 71.6868
122.679 5018 70.8378
122.795 4823 69.4478
122.912 4516 67.2012
123.028 4078 63.8592
123.144 3756 61.2862
123.26 3696 60.7947
123.377 0 1
123.493 0 1
123.609 0 1
123.725 0 1
123.84 0 1
123.956 0 1
124.072 0 1
124.188 0 1
124.303 0 1
124.419 0 1
126.852 0 1
126.968 0 1
127.083 0 1
127.199 0 1
127.315 0 1
127.431 0 1
127.547 0 1
127.663 0 1
127.779 0 1
127.895 0 1
128.011 0 1
128.127 0 1
128.243 0 1
128.359 4361 66.0379
128.476 4167 64.5523
128.592 4372 66.1211
128.708 4991 70.647
128.825 5350 73.1437
128.941 5825 76.3217
129.058 5801 76.1643
129.174 5913 76.896
129.291 5882 76.6942
129.408 5945 77.1038
129.524 5779 76.0197
129.641 5942 77.0844
129.758 6029 77.6466
129.875 5954 77.1622
129.992 5846 76.4591
130.108 5729 75.6902
130.225 5647 75.1465
130.342 5756 75.8683
130.459 5562 74.5788
130.576 6035 77.6853
130.693 5579 74.6927
130.81 5794 76.1183
130.928 5824 76.3151
131.045 5719 75.6241
131.162 5767 75.9408
131.279 5799 76.1512
131.396 5656 75.2064
131.513 5589 74.7596
131.631 5390 73.4166
131.748 4994 70.6682
131.865 4670 68.3374
131.983 4370 66.106
132.1 4368 66.0908
132.217 4684 68.4398
132.335 5262 72.5396
132.452 5487 74.0743
132.57 5644 75.1266
132.687 5581 74.7061
132.804 5991 77.4016
132.922 5837 76.4003
133.039 5765 75.9276
133.157 5637 75.08
133.274 5868 76.6029
133.392 5836 76.3937
133.509 5661 75.2396
133.627 5737 75.743
133.744 5566 74.6056
133.862 5458 73.8783
133.979 5571 74.6391
134.097 5493 74.1148
134.214 5653 75.1864
134.332 5519 74.29
134.449 5477 74.0068
134.567 5640 75.0999
134.684 5800 76.1577
134.802 5686 75.4056
134.919 5900 76.8115
135.037 5621 74.9733
135.154 5270 72.5948
135.272 5164 71.861
135.389 4728 68.7605
135.507 4308 65.6354
135.624 4147 64.3972
135.742 4322 65.7419
135.859 4700 68.5565
135.977 5098 71.4003
136.094 5647 75.1465
136.211 5549 74.4916
136.329 5772 75.9737
136.446 5636 75.0733
136.564 5627 75.0133
136.681 5683 75.3857
136.798 5677 75.3459
136.915 5731 75.7034
137.033 5691 75.4387
137.15 5705 75.5315
137.267 5689 75.4255
137.384 5436 73.7292
137.502 5583 74.7195
137.619 5457 73.8715
137.736 5539 74.4245
137.853 5240 72.3878
137.97 5315 72.904
138.087 5657 75.213
138.204 5526 74.3371
138.321 5498 74.1485
138.438 5607 74.8799
138.555 5443 73.7767
138.672 5547 74.4782
138.788 5406 73.5255
138.905 5245 72.4224
139.022 4928 70.1997
139.139 4506 67.1267
139.255 4345 65.9166
139.372 4356 66
139.488 4672 68.352
139.605 5123 71.5751
139.721 5420 73.6206
139.838 5675 75.3326
139.954 5706 75.5381
140.071 5600 74.8331
140.187 5551 74.505
140.303 5676 75.3392
140.419 5490 74.0945
140.535 5486 74.0675
140.652 5321 72.9452
140.768 0 1
140.884 0 1
141 0 1
141.115 0 1
141.231 0 1
141.347 0 1
141.463 0 1
141.578 0 1
141.694 0 1
144.104 0 1
144.219 0 1
144.335 0 1
144.45 0 1
144.566 0 1
144.682 0 1
144.798 0 1
144.914 0 1
145.03 0 1
145.146 4803 69.3037
145.262 5004 70.739
145.378 4953 70.3776
145.494 4850 69.6419
145.61 4864 69.7424
145.726 4770 69.0652
145.842 4736 68.8186
145.959 4546 67.424
146.075 4759 68.9855
146.192 4673 68.3593
146.308 4614 67.9264
146.425 4682 68.4251
146.541 4568 67.587
146.658 4599 67.8159
146.774 4717 68.6804
146.891 4744 68.8767
147.008 4661 68.2715
147.125 4659 68.2569
147.241 4826 69.4694
147.358 4620 67.9706
147.475 4422 66.4981
147.592 4190 64.7302
147.709 3915 62.57
147.826 3550 59.5819
147.943 3537 59.4727
148.06 4036 63.5295
148.177 4326 65.7723
148.294 4517 67.2086
148.411 4748 68.9057
148.528 4637 68.0955
148.645 4843 69.5917
148.762 4520 67.2309
148.88 4633 68.0661
148.997 4526 67.2756
149.114 4719 68.695
149.231 4648 68.1762
149.349 4472 66.873
149.466 4255 65.2304
149.583 4374 66.1362
149.701 4327 65.7799
149.818 4301 65.582
149.935 4277 65.3988
150.053 4251 65.1997
150.17 4326 65.7723
150.287 4280 65.4217
150.405 4281 65.4294
150.522 4301 65.582
150.64 4528 67.2904
150.757 4534 67.335
150.875 4441 66.6408
150.992 4495 67.0448
151.11 4287 65.4752
151.227 4097 64.0078
151.344 3674 60.6135
151.462 3432 58.5833
151.579 3501 59.1692
151.697 3785 61.5224
151.814 4141 64.3506
151.932 4373 66.1287
152.049 4408 66.3928
152.167 4588 67.7348
152.284 4567 67.5796
152.402 4439 66.6258
152.519 4548 67.4389
152.636 4483 66.9552
152.754 4581 67.6831
152.871 4416 66.453
152.989 4330 65.8027
153.106 4401 66.34
153.223 4257 65.2457
153.341 4219 64.9538
153.458 4322 65.7419
153.575 4329 65.7951
153.693 4323 65.7495
153.81 4325 65.7647
153.927 4399 66.325
154.044 4454 66.7383
154.162 4602 67.838
154.279 4552 67.4685
154.396 4526 67.2756
154.513 4599 67.8159
154.63 4547 67.4314
154.747 4506 67.1267
154.864 4215 64.923
154.981 4101 64.0391
155.098 3772 61.4166
155.215 3683 60.6877
155.332 4162 64.5136
155.449 4336 65.8483
155.566 4517 67.2086
155.683 4526 67.2756
155.8 4638 68.1029
155.917 4688 68.469
156.033 4690 68.4836
156.15 0 1
156.267 0 1
156.383 0 1
156.5 0 1
156.617 0 1
156.733 0 1
156.85 0 1
156.966 0 1
157.082 0 1
157.199 0 1
157.315 0 1
157.431 0 1
157.547 0 1
157.664 0 1
157.78 0 1
157.896 0 1
158.012 0 1
158.128 0 1
158.244 0 1
158.359 0 1
158.475 0 1
158.591 0 1
158.706 0 1
