
6.15755 0 1
6.2731 0 1
6.3887 0 1
6.50437 0 1
6.62009 0 1
6.73587 0 1
6.8517 0 1
6.96759 0 1
7.08353 0 1
7.19952 0 1
7.31557 0 1
7.43166 0 1
7.54781 0 1
7.664 0 1
7.78024 0 1
7.89653 0 1
8.01286 0 1
8.12924 0 1
8.24567 0 1
8.36213 0 1
8.47864 0 1
8.59519 0 1
8.71178 0 1
8.82841 0 1
8.94508 0 1
9.06179 0 1
9.17853 0 1
9.29531 0 1
9.41212 0 1
9.52897 0 1
9.64584 0 1
9.76276 0 1
9.8797 0 1
9.99667 0 1
10.1137 0 1
10.2307 0 1
10.3478 0 1
10.4648 0 1
10.5819 0 1
10.6991 0 1
10.8162 0 1
10.9334 0 1
11.0506 0 1
11.1678 0 1
11.285 0 1
11.4023 0 1
11.5196 0 1
11.6369 0 1
11.7542 0 1
11.8715 0 1
11.9888 0 1
12.1062 0 1
12.2235 0 1
12.3409 0 1
12.4582 0 1
12.5756 0 1
12.693 0 1
12.8104 0 1
12.9278 0 1
13.0452 0 1
13.1626 0 1
13.28 0 1
13.3974 0 1
13.5149 0 1
13.6323 0 1
13.7497 0 1
13.8671 0 1
13.9845 0 1
14.1019 0 1
14.2193 0 1
14.3367 0 1
14.4541 0 1
14.5714 0 1
14.6888 0 1
14.8062 0 1
14.9235 0 1
15.0408 2201 46.9148
15.1581 2351 48.4871
15.2755 2444 49.4368
15.3927 2408 49.0714
15.51 2463 49.6286
15.6273 2451 49.5076
15.7445 2434 49.3356
15.8617 2382 48.8057
15.9789 2302 47.9792
16.0961 2235 47.2758
16.2132 2370 48.6826
16.3304 2456 49.558
16.4475 2596 50.951
16.5646 2665 51.6236
16.6816 2651 51.4879
16.7986 2715 52.1057
16.9156 2696 51.923
17.0326 2627 51.2543
17.1496 2545 50.448
17.2665 2597 50.9608
17.3833 2408 49.0714
17.5002 2345 48.4252
17.617 2286 47.8121
17.7338 2242 47.3498
17.8505 2249 47.4236
17.9672 2437 49.366
18.0839 2455 49.548
18.2005 2465 49.6488
18.3171 2539 50.3885
18.4337 2695 51.9134
18.5502 2653 51.5073
18.6666 2709 52.0481
18.7831 2761 52.5452
18.8994 2709 52.0481
19.0158 2744 52.3832
19.1321 2515 50.1498
19.2483 2307 48.0312
19.3645 2359 48.5695
19.4806 2358 48.5592
19.5967 2221 47.1275
19.7128 2332 48.2908
19.8288 2488 49.8799
19.9447 2306 48.0208
20.0606 0 1
20.1764 0 1
20.2922 0 1
20.4079 0 1
20.5236 0 1
20.6392 0 1
20.7548 0 1
20.8702 0 1
23.3078 0 1
23.4233 0 1
23.539 0 1
23.6547 0 1
23.7704 0 1
23.8862 0 1
24.0021 0 1
24.118 0 1
24.234 0 1
24.35 0 1
24.4661 2305 48.0104
24.5822 2141 46.2709
24.6984 2313 48.0937
24.8146 2367 48.6518
24.9309 2657 51.5461
25.0472 2624 51.225
25.1636 2788 52.8015
25.28 2685 51.817
25.3965 2727 52.2207
25.513 2743 52.3737
25.6296 2821 53.1131
25.7462 2836 53.2541
25.8628 2853 53.4135
25.9795 2641 51.3907
26.0962 2559 50.5866
26.213 2431 49.3052
26.3298 2342 48.3942
26.4466 2367 48.6518
26.5635 2432 49.3153
26.6804 2537 50.3686
26.7973 2496 49.96
26.9143 2580 50.7937
27.0313 2664 51.614
27.1483 2774 52.6688
27.2653 2725 52.2015
27.3824 2762 52.5547
27.4996 2830 53.1977
27.6167 2669 51.6624
27.7339 2584 50.8331
27.8511 2319 48.156
27.9683 2353 48.5077
28.0855 2282 47.7703
28.2028 2291 47.8644
28.3201 2337 48.3425
28.4374 2422 49.2138
28.5547 2529 50.2892
28.6721 2744 52.3832
28.7894 2670 51.672
28.9068 2799 52.9056
29.0242 2772 52.6498
29.1416 2676 51.7301
29.259 2610 51.0882
29.3764 2590 50.892
29.4939 2403 49.0204
29.6113 2424 49.2341
29.7288 2243 47.3603
29.8463 2108 45.913
29.9638 2127 46.1194
30.0812 2139 46.2493
30.1987 2302 47.9792
30.3162 2418 49.1732
30.4337 2390 48.8876
30.5512 2538 50.3786
30.6687 2414 49.1325
30.7862 2648 51.4587
30.9037 2567 50.6656
31.0212 2662 51.5946
31.1387 2554 50.5371
31.2562 2538 50.3786
31.3737 2364 48.621
31.4912 2326 48.2286
31.6087 2106 45.8912
31.7262 2142 46.2817
31.8436 2158 46.4543
31.9611 2210 47.0106
32.0785 2470 49.6991
32.1959 2563 50.6261
32.3134 2619 51.1762
32.4308 2587 50.8626
32.5482 2489 49.8899
32.6655 2444 49.4368
32.7829 2503 50.03
32.9002 2456 49.558
33.0176 2516 50.1597
33.1349 2429 49.2849
33.2522 2259 47.5289
33.3694 2075 45.5522
33.4867 2011 44.8442
33.6039 1996 44.6766
33.7211 1937 44.0114
33.8383 2073 45.5302
33.9554 2159 46.465
34.0725 2176 46.6476
34.1896 2141 46.2709
34.3067 2386 48.8467
34.4237 2339 48.3632
34.5407 2446 49.4571
34.6577 2434 49.3356
34.7746 2387 48.8569
34.8915 2367 48.6518
35.0084 2436 49.3559
35.1252 2160 46.4758
35.242 2087 45.6837
35.3587 1953 44.1928
35.4755 1956 44.2267
35.5921 2098 45.8039
35.7088 2210 47.0106
35.8254 2318 48.1456
35.9419 2369 48.6724
36.0584 2374 48.7237
36.1749 2315 48.1144
36.2913 2409 49.0816
36.4077 2350 48.4768
36.524 2323 48.1975
36.6403 2392 48.9081
36.7565 2353 48.5077
36.8727 2185 46.744
36.9889 2014 44.8776
37.1049 1948 44.1362
37.221 0 1
37.3369 0 1
37.4529 0 1
37.5687 0 1
37.6845 0 1
37.8003 0 1
37.916 0 1
38.0316 0 1
38.1472 0 1
40.5851 0 1
40.7008 0 1
40.8164 0 1
40.9322 0 1
41.048 0 1
41.1639 0 1
41.2798 0 1
41.3958 0 1
41.5118 0 1
41.6279 0 1
41.744 1766 42.0238
41.8602 1844 42.9418
41.9765 1919 43.8064
42.0928 1762 41.9762
42.2091 1631 40.3856
42.3255 1538 39.2173
42.4419 1521 39
42.5584 1448 38.0526
42.675 1465 38.2753
42.7915 1554 39.4208
42.9081 1557 39.4588
43.0248 1648 40.5956
43.1415 1714 41.4005
43.2582 1711 41.3642
43.375 1654 40.6694
43.4918 1699 41.2189
43.6087 1679 40.9756
43.7256 1740 41.7133
43.8425 1686 41.0609
43.9595 1642 40.5216
44.0765 1563 39.5348
44.1935 1445 38.0132
44.3106 1389 37.2693
44.4277 1350 36.7423
44.5448 1340 36.606
44.6619 1356 36.8239
44.7791 1459 38.1969
44.8963 1448 38.0526
45.0136 1455 38.1445
45.1308 1335 36.5377
45.2481 1417 37.6431
45.3654 1401 37.4299
45.4827 1358 36.8511
45.6001 1286 35.8608
45.7174 1252 35.3836
45.8348 1131 33.6303
45.9522 1050 32.4037
46.0697 1002 31.6544
46.1871 1036 32.187
46.3046 1006 31.7175
46.422 1047 32.3574
46.5395 1170 34.2053
46.657 1164 34.1174
46.7745 1171 34.2199
46.892 1152 33.9411
47.0096 1129 33.6006
47.1271 1141 33.7787
47.2446 1081 32.8786
47.3622 1111 33.3317
47.4797 1105 33.2415
47.5973 1032 32.1248
47.7149 1027 32.0468
47.8324 970 31.1448
47.95 929 30.4795
48.0675 940 30.6594
48.1851 1002 31.6544
48.3027 1041 32.2645
48.4202 1002 31.6544
48.5378 1046 32.3419
48.6554 1060 32.5576
48.7729 1111 33.3317
48.8904 1048 32.3728
49.008 1052 32.4345
49.1255 1018 31.9061
49.243 981 31.3209
49.3605 921 30.348
49.478 906 30.0998
49.5955 888 29.7993
49.713 867 29.4449
49.8304 950 30.8221
49.9479 1025 32.0156
50.0653 1086 32.9545
50.1827 1182 34.3802
50.3001 1259 35.4824
50.4175 1340 36.606
50.5348 1320 36.3318
50.6521 1418 37.6563
50.7694 1456 38.1576
50.8867 1565 39.5601
51.004 1519 38.9744
51.1212 1486 38.5487
51.2384 1571 39.6358
51.3556 1436 37.8946
51.4727 1523 39.0256
51.5899 1651 40.6325
51.707 1672 40.8901
51.824 1956 44.2267
51.9411 1996 44.6766
52.0581 2024 44.9889
52.175 2159 46.465
52.2919 2176 46.6476
52.4088 2214 47.0532
52.5257 2386 48.8467
52.6425 2294 47.8957
52.7593 2303 47.9896
52.876 2166 46.5403
52.9927 1981 44.5084
53.1094 1950 44.1588
53.226 1810 42.5441
53.3426 1824 42.7083
53.4591 1987 44.5758
53.5756 2150 46.3681
53.692 2451 49.5076
53.8084 2509 50.0899
53.9248 2525 50.2494
54.0411 2715 52.1057
54.1573 2633 51.3128
54.2735 0 1
54.3896 0 1
54.5057 0 1
54.6217 0 1
54.7377 0 1
54.8537 0 1
54.9695 0 1
55.0853 0 1
55.2011 0 1
55.3168 0 1
55.4324 0 1
57.824 0 1
57.9396 0 1
58.0553 0 1
58.1711 0 1
58.2869 0 1
58.4028 0 1
58.5187 0 1
58.6347 0 1
58.7508 0 1
58.8669 0 1
58.983 2248 47.4131
59.0992 2550 50.4975
59.2155 2582 50.8134
59.3318 2625 51.2348
59.4482 2578 50.774
59.5646 2660 51.5752
59.681 2645 51.4296
59.7975 2633 51.3128
59.9141 2616 51.1468
60.0306 2573 50.7247
60.1473 2393 48.9183
60.2639 2345 48.4252
60.3807 2360 48.5798
60.4974 2418 49.1732
60.6142 2534 50.3389
60.731 2608 51.0686
60.8479 2543 50.4282
60.9648 2550 50.4975
61.0818 2656 51.5364
61.1987 2531 50.309
61.3158 2494 49.94
61.4328 2524 50.2394
61.5499 2331 48.2804
61.667 2190 46.7974
61.7841 1979 44.486
61.9013 1794 42.3556
62.0185 1802 42.45
62.1357 1981 44.5084
62.253 2031 45.0666
62.3702 2118 46.0217
62.4875 2320 48.1664
62.6049 2395 48.9387
62.7222 2367 48.6518
62.8396 2405 49.0408
62.9569 2433 49.3254
63.0743 2341 48.3839
63.1918 2392 48.9081
63.3092 2374 48.7237
63.4267 2360 48.5798
63.5441 2309 48.0521
63.6616 2332 48.2908
63.7791 2113 45.9674
63.8966 2094 45.7602
64.0142 2131 46.1628
64.1317 2246 47.392
64.2492 2287 47.8226
64.3668 2345 48.4252
64.4843 2310 48.0625
64.6019 2326 48.2286
64.7195 2276 47.7074
64.837 2208 46.9894
64.9546 2206 46.9681
65.0722 2133 46.1844
65.1898 1878 43.3359
65.3074 1788 42.2847
65.4249 1585 39.8121
65.5425 1565 39.5601
65.6601 1541 39.2556
65.7777 1747 41.7971
65.8952 1868 43.2204
66.0128 2040 45.1664
66.1304 2122 46.0652
66.2479 2172 46.6047
66.3655 2225 47.1699
66.483 2223 47.1487
66.6005 2315 48.1144
66.718 2391 48.8979
66.8355 2405 49.0408
66.953 2420 49.1935
67.0705 2323 48.1975
67.1879 2426 49.2544
67.3054 2319 48.156
67.4228 2299 47.9479
67.5402 2134 46.1952
67.6576 2284 47.7912
67.7749 2370 48.6826
67.8923 2667 51.643
68.0096 2675 51.7204
68.1269 2735 52.2972
68.2442 2874 53.6097
68.3614 2849 53.376
68.4787 2983 54.6168
68.5958 3034 55.0818
68.713 2815 53.0566
68.8302 2727 52.2207
68.9473 2407 49.0612
69.0643 2281 47.7598
69.1814 2172 46.6047
69.2984 2152 46.3897
69.4154 2253 47.4658
69.5323 2583 50.8232
69.6492 2769 52.6213
69.7661 2970 54.4977
69.8829 3065 55.3624
69.9997 3071 55.4166
70.1165 3182 56.4092
70.2332 3217 56.7186
70.3499 3226 56.7979
70.4665 3390 58.2237
70.5831 3490 59.0762
70.6996 3382 58.155
70.8161 3300 57.4456
70.9326 3335 57.7495
71.049 3139 56.0268
71.1653 2945 54.2679
71.2817 2784 52.7636
71.3979 2684 51.8073
71.5141 2837 53.2635
71.6303 3073 55.4346
71.7464 2833 53.2259
71.8624 0 1
71.9784 0 1
72.0944 0 1
72.2102 0 1
72.3261 0 1
72.4418 0 1
72.5575 0 1
72.6732 0 1
75.1054 0 1
75.2209 0 1
75.3365 0 1
75.4521 0 1
75.5678 0 1
75.6835 0 1
75.7993 0 1
75.9151 0 1
76.031 0 1
76.147 2260 47.5395
76.263 2371 48.6929
76.3791 2283 47.7807
76.4952 2084 45.6508
76.6113 2111 45.9456
76.7276 2210 47.0106
76.8438 2306 48.0208
76.9601 2341 48.3839
77.0765 2401 49
77.1929 2374 48.7237
77.3093 2318 48.1456
77.4258 2379 48.775
77.5423 2340 48.3735
77.6589 2149 46.3573
77.7755 1906 43.6578
77.8921 1744 41.7612
78.0088 1552 39.3954
78.1256 1500 38.7298
78.2423 1465 38.2753
78.3591 1576 39.6989
78.4759 1840 42.8952
78.5928 2021 44.9555
78.7097 1998 44.699
78.8266 1996 44.6766
78.9436 2205 46.9574
79.0606 2169 46.5725
79.1776 2196 46.8615
79.2946 2154 46.4112
79.4117 2246 47.392
79.5288 2274 47.6865
79.6459 2164 46.5188
79.7631 2240 47.3286
79.8802 2199 46.8935
79.9974 2203 46.9361
80.1147 2010 44.833
80.2319 1920 43.8178
80.3491 2031 45.0666
80.4664 2163 46.5081
80.5837 2214 47.0532
80.701 2226 47.1805
80.8183 2300 47.9583
80.9357 2248 47.4131
81.053 2146 46.3249
81.1704 2326 48.2286
81.2877 2223 47.1487
81.4051 2154 46.4112
81.5225 1912 43.7264
81.6399 1664 40.7922
81.7573 1611 40.1373
81.8747 1422 37.7094
81.9922 1493 38.6394
82.1096 1785 42.2493
82.227 1909 43.6921
82.3444 2006 44.7884
82.4619 2084 45.6508
82.5793 2121 46.0543
82.6967 2118 46.0217
82.8142 2249 47.4236
82.9316 2275 47.697
83.049 2327 48.239
83.1664 2263 47.571
83.2838 2231 47.2335
83.4012 2303 47.9896
83.5186 2230 47.2229
83.636 2208 46.9894
83.7534 2079 45.5961
83.8708 1938 44.0227
83.9881 2110 45.9347
84.1055 2164 46.5188
84.2228 2302 47.9792
84.3401 2401 49
84.4575 2379 48.775
84.5747 2472 49.7192
84.692 2357 48.5489
84.8093 2331 48.2804
84.9265 2273 47.676
85.0437 2075 45.5522
85.1609 1819 42.6497
85.2781 1689 41.0974
85.3952 1630 40.3733
85.5123 1562 39.5221
85.6294 1676 40.939
85.7465 1871 43.2551
85.8636 2216 47.0744
85.9806 2226 47.1805
86.0976 2385 48.8365
86.2145 2299 47.9479
86.3315 2375 48.734
86.4484 2470 49.6991
86.5652 2490 49.8999
86.682 2600 50.9902
86.7988 2597 50.9608
86.9156 2663 51.6043
87.0323 2621 51.1957
87.149 2618 51.1664
87.2657 2551 50.5074
87.3823 2399 48.9796
87.4988 2377 48.7545
87.6154 2566 50.6557
87.7318 2764 52.5738
87.8483 2854 53.4228
87.9647 2911 53.9537
88.081 3036 55.0999
88.1973 2964 54.4426
88.3136 2977 54.5619
88.4298 3072 55.4256
88.546 2817 53.0754
88.6621 2666 51.6333
88.7781 2401 49
88.8942 0 1
89.0101 0 1
89.126 0 1
89.2419 0 1
89.3577 0 1
89.4734 0 1
89.5891 0 1
89.7047 0 1
89.8203 0 1
89.9358 0 1
92.3269 0 1
92.4424 0 1
92.558 0 1
92.6736 0 1
92.7893 0 1
92.905 0 1
93.0208 0 1
93.1366 0 1
93.2525 0 1
93.3685 0 1
93.4845 0 1
93.6005 3546 59.5483
93.7167 3638 60.3158
93.8328 3428 58.5491
93.949 3247 56.9825
94.0653 2933 54.1572
94.1816 2769 52.6213
94.2979 2634 51.3225
94.4143 2661 51.5849
94.5307 2779 52.7162
94.6472 3022 54.9727
94.7637 3181 56.4004
94.8803 3293 57.3847
94.9969 3528 59.397
95.1135 3731 61.0819
95.2302 3808 61.709
95.3469 3911 62.538
95.4637 3907 62.506
95.5805 4210 64.8845
95.6973 4236 65.0846
95.8142 4084 63.9062
95.9311 4217 64.9384
96.048 4145 64.3817
96.1649 4036 63.5295
96.2819 3852 62.0645
96.3989 3774 61.4329
96.516 3832 61.9032
96.633 3900 62.45
96.7501 4116 64.1561
96.8673 4235 65.0769
96.9844 4294 65.5286
97.1016 4328 65.7875
97.2188 4257 65.2457
97.336 4415 66.4455
97.4532 4266 65.3146
97.5704 3915 62.57
97.6877 3479 58.983
97.805 3257 57.0701
97.9223 2999 54.7631
98.0396 2717 52.1249
98.1569 2639 51.3712
98.2743 2737 52.3163
98.3916 2930 54.1295
98.509 3223 56.7715
98.6264 3321 57.6281
98.7438 3381 58.1464
98.8612 3535 59.4559
98.9786 3614 60.1166
99.096 3659 60.4897
99.2134 3582 59.8498
99.3308 3679 60.6548
99.4482 3631 60.2578
99.5656 3591 59.925
99.6831 3568 59.7327
99.8005 3435 58.6089
99.9179 3300 57.4456
100.035 3152 56.1427
100.153 3152 56.1427
100.27 3268 57.1664
100.388 3300 57.4456
100.505 3379 58.1292
100.622 3362 57.9828
100.74 3356 57.931
100.857 3358 57.9483
100.975 3333 57.7321
101.092 3357 57.9396
101.209 3269 57.1752
101.327 2879 53.6563
101.444 2629 51.2738
101.561 2348 48.4562
101.679 2302 47.9792
101.796 2153 46.4004
101.913 2277 47.7179
102.03 2410 49.0918
102.148 2511 50.1099
102.265 2532 50.319
102.382 3048 55.2087
102.499 3121 55.8659
102.616 3123 55.8838
102.733 3152 56.1427
102.851 3235 56.8771
102.968 3168 56.285
103.085 3185 56.4358
103.202 3161 56.2228
103.319 3176 56.356
103.436 3118 55.8391
103.552 2813 53.0377
103.669 2789 52.811
103.786 2906 53.9073
103.903 2963 54.4334
104.02 3065 55.3624
104.137 3022 54.9727
104.253 3084 55.5338
104.37 3072 55.4256
104.487 3003 54.7996
104.603 3017 54.9272
104.72 2795 52.8678
104.836 2593 50.9215
104.953 2380 48.7852
105.069 2157 46.4435
105.186 2131 46.1628
105.302 1894 43.5201
105.418 2012 44.8553
105.535 2069 45.4863
105.651 2242 47.3498
105.767 2424 49.2341
105.883 2395 48.9387
105.999 2477 49.7695
106.115 0 1
106.231 0 1
106.347 0 1
106.463 0 1
106.579 0 1
106.694 0 1
106.81 0 1
106.926 0 1
107.041 0 1
107.157 0 1
109.576 0 1
109.692 0 1
109.807 0 1
109.923 0 1
110.039 0 1
110.155 0 1
110.27 0 1
110.386 0 1
110.502 0 1
110.618 1697 41.1947
110.735 1824 42.7083
110.851 1912 43.7264
110.967 2051 45.288
111.083 2150 46.3681
111.199 2135 46.2061
111.316 2227 47.1911
111.432 2287 47.8226
111.549 2323 48.1975
111.665 2255 47.4868
111.782 2241 47.3392
111.898 2232 47.244
112.015 2086 45.6727
112.132 2052 45.299
112.248 2102 45.8476
112.365 2132 46.1736
112.482 2362 48.6004
112.599 2218 47.0956
112.716 2237 47.2969
112.832 2282 47.7703
112.949 2214 47.0532
113.066 2335 48.3218
113.183 2282 47.7703
113.3 2211 47.0213
113.417 2121 46.0543
113.534 1924 43.8634
113.652 1706 41.3038
113.769 1727 41.5572
113.886 1570 39.6232
114.003 1644 40.5463
114.12 1741 41.7253
114.238 1817 42.6263
114.355 1945 44.1022
114.472 2069 45.4863
114.589 2081 45.618
114.707 2230 47.2229
114.824 2331 48.2804
114.942 2280 47.7493
115.059 2294 47.8957
115.176 2352 48.4974
115.294 2332 48.2908
115.411 2210 47.0106
115.529 2124 46.0869
115.646 2064 45.4313
115.764 1913 43.7379
115.881 2072 45.5192
115.999 2067 45.4643
116.116 2159 46.465
116.234 2234 47.2652
116.351 2139 46.2493
116.469 2153 46.4004
116.586 2117 46.0109
116.704 2170 46.5833
116.821 2121 46.0543
116.939 2119 46.0326
117.056 2000 44.7214
117.174 1753 41.8688
117.291 1673 40.9023
117.409 1442 37.9737
117.526 1462 38.2361
117.644 1496 38.6782
117.761 1653 40.6571
117.879 1813 42.5793
117.996 1881 43.3705
118.114 1970 44.3847
118.231 1988 44.587
118.349 2109 45.9239
118.466 2238 47.3075
118.584 2191 46.8081
118.701 2181 46.7012
118.819 2129 46.1411
118.936 2266 47.6025
119.053 2189 46.7868
119.171 2123 46.076
119.288 2040 45.1664
119.405 2010 44.833
119.523 2192 46.8188
119.64 2160 46.4758
119.757 2269 47.634
119.875 2343 48.4045
119.992 2398 48.9694
120.109 2414 49.1325
120.226 2335 48.3218
120.343 2449 49.4874
120.46 2391 48.8979
120.578 2325 48.2183
120.695 2293 47.8853
120.812 2153 46.4004
120.929 1951 44.1701
121.046 1824 42.7083
121.163 1620 40.2492
121.279 1683 41.0244
121.396 1897 43.5546
121.513 2065 45.4423
121.63 2135 46.2061
121.747 2444 49.4368
121.863 2394 48.9285
121.98 2554 50.5371
122.097 2572 50.7149
122.213 2589 50.8822
122.33 2694 51.9038
122.446 2755 52.4881
122.563 2648 51.4587
122.679 2665 51.6236
122.795 2532 50.319
122.912 2639 51.3712
123.028 2567 50.6656
123.144 2584 50.8331
123.26 2563 50.6261
123.377 0 1
123.493 0 1
123.609 0 1
123.725 0 1
123.84 0 1
123.956 0 1
124.072 0 1
124.188 0 1
124.303 0 1
124.419 0 1
126.852 0 1
126.968 0 1
127.083 0 1
127.199 0 1
127.315 0 1
127.431 0 1
127.547 0 1
127.663 0 1
127.779 0 1
127.895 0 1
128.011 0 1
128.127 0 1
128.243 0 1
128.359 2819 53.0943
128.476 2725 52.2015
128.592 2775 52.6783
128.708 2814 53.0471
128.825 2935 54.1756
128.941 2890 53.7587
129.058 2927 54.1018
129.174 2851 53.3948
129.291 2881 53.6749
129.408 2844 53.3292
129.524 2785 52.7731
129.641 2756 52.4976
129.758 2642 51.4004
129.875 2353 48.5077
129.992 2276 47.7074
130.108 1982 44.5197
130.225 1823 42.6966
130.342 1842 42.9185
130.459 1922 43.8406
130.576 2096 45.7821
130.693 2212 47.0319
130.81 2274 47.6865
130.928 2330 48.2701
131.045 2417 49.163
131.162 2471 49.7092
131.279 2552 50.5173
131.396 2475 49.7494
131.513 2496 49.96
131.631 2352 48.4974
131.748 2332 48.2908
131.865 2289 47.8435
131.983 2224 47.1593
132.1 2265 47.592
132.217 2211 47.0213
132.335 2348 48.4562
132.452 2369 48.6724
132.57 2363 48.6107
132.687 2280 47.7493
132.804 2423 49.224
132.922 2288 47.833
133.039 2320 48.1664
133.157 2254 47.4763
133.274 2208 46.9894
133.392 2063 45.4203
133.509 1915 43.7607
133.627 1634 40.4228
133.744 1545 39.3065
133.862 1525 39.0512
133.979 1504 38.7814
134.097 1634 40.4228
134.214 1838 42.8719
134.332 1832 42.8019
134.449 1810 42.5441
134.567 2018 44.9222
134.684 1915 43.7607
134.802 1979 44.486
134.919 1980 44.4972
135.037 1920 43.8178
135.154 1956 44.2267
135.272 1765 42.0119
135.389 1808 42.5206
135.507 1838 42.8719
135.624 1809 42.5323
135.742 1811 42.5558
135.859 1833 42.8135
135.977 1854 43.0581
136.094 1852 43.0349
136.211 1818 42.638
136.329 1814 42.5911
136.446 1753 41.8688
136.564 1755 41.8927
136.681 1793 42.3438
136.798 1876 43.3128
136.915 1788 42.2847
137.033 1636 40.4475
137.15 1509 38.8458
137.267 1411 37.5633
137.384 1326 36.4143
137.502 1308 36.1663
137.619 1332 36.4966
137.736 1513 38.8973
137.853 1575 39.6863
137.97 1677 40.9512
138.087 1804 42.4735
138.204 1850 43.0116
138.321 1897 43.5546
138.438 1965 44.3283
138.555 1977 44.4635
138.672 1944 44.0908
138.788 1898 43.566
138.905 1911 43.715
139.022 1915 43.7607
139.139 1991 44.6206
139.255 1953 44.1928
139.372 2073 45.5302
139.488 2110 45.9347
139.605 2142 46.2817
139.721 2195 46.8508
139.838 2202 46.9255
139.954 2210 47.0106
140.071 2217 47.085
140.187 2274 47.6865
140.303 2229 47.2123
140.419 2262 47.5605
140.535 2274 47.6865
140.652 2104 45.8694
140.768 0 1
140.884 0 1
141 0 1
141.115 0 1
141.231 0 1
141.347 0 1
141.463 0 1
141.578 0 1
141.694 0 1
144.104 0 1
144.219 0 1
144.335 0 1
144.45 0 1
144.566 0 1
144.682 0 1
144.798 0 1
144.914 0 1
145.03 0 1
145.146 1883 43.3935
145.262 1995 44.6654
145.378 1894 43.5201
145.494 1998 44.699
145.61 1922 43.8406
145.726 1872 43.2666
145.842 1696 41.1825
145.959 1555 39.4335
146.075 1430 37.8153
146.192 1377 37.108
146.308 1318 36.3043
146.425 1394 37.3363
146.541 1480 38.4708
146.658 1562 39.5221
146.774 1573 39.6611
146.891 1624 40.2989
147.008 1700 41.2311
147.125 1625 40.3113
147.241 1703 41.2674
147.358 1607 40.0874
147.475 1604 40.05
147.592 1608 40.0999
147.709 1527 39.0768
147.826 1559 39.4842
147.943 1532 39.1408
148.06 1473 38.3797
148.177 1546 39.3192
148.294 1535 39.1791
148.411 1573 39.6611
148.528 1551 39.3827
148.645 1473 38.3797
148.762 1504 38.7814
148.88 1447 38.0395
148.997 1587 39.8372
149.114 1428 37.7889
149.231 1426 37.7624
149.349 1401 37.4299
149.466 1376 37.0945
149.583 1171 34.2199
149.701 1204 34.6987
149.818 1071 32.7261
149.935 1090 33.0151
150.053 1154 33.9706
150.17 1195 34.5688
150.287 1300 36.0555
150.405 1303 36.0971
150.522 1328 36.4417
150.64 1351 36.756
150.757 1383 37.1887
150.875 1462 38.2361
150.992 1507 38.8201
151.11 1477 38.4318
151.227 1390 37.2827
151.344 1373 37.054
151.462 1365 36.9459
151.579 1391 37.2961
151.697 1419 37.6696
151.814 1513 38.8973
151.932 1584 39.7995
152.049 1622 40.2741
152.167 1461 38.223
152.284 1536 39.1918
152.402 1531 39.128
152.519 1626 40.3237
152.636 1537 39.2046
152.754 1598 39.975
152.871 1570 39.6232
152.989 1509 38.8458
153.106 1411 37.5633
153.223 1284 35.8329
153.341 1273 35.6791
153.458 1221 34.9428
153.575 1163 34.1028
153.693 1270 35.6371
153.81 1369 37
153.927 1385 37.2156
154.044 1423 37.7227
154.162 1569 39.6106
154.279 1546 39.3192
154.396 1666 40.8167
154.513 1647 40.5832
154.63 1647 40.5832
154.747 1715 41.4126
154.864 1591 39.8873
154.981 1642 40.5216
155.098 1729 41.5812
155.215 1707 41.3159
155.332 1786 42.2611
155.449 1744 41.7612
155.566 1759 41.9404
155.683 1845 42.9535
155.8 1886 43.4281
155.917 1952 44.1814
156.033 1794 42.3556
156.15 0 1
156.267 0 1
156.383 0 1
156.5 0 1
156.617 0 1
156.733 0 1
156.85 0 1
156.966 0 1
157.082 0 1
157.199 0 1
157.315 0 1
157.431 0 1
157.547 0 1
157.664 0 1
157.78 0 1
157.896 0 1
158.012 0 1
158.128 0 1
158.244 0 1
158.359 0 1
158.475 0 1
158.591 0 1
158.706 0 1
