
6.15755 0 1
6.2731 0 1
6.3887 0 1
6.50437 0 1
6.62009 0 1
6.73587 0 1
6.8517 0 1
6.96759 0 1
7.08353 0 1
7.19952 0 1
7.31557 0 1
7.43166 0 1
7.54781 0 1
7.664 0 1
7.78024 0 1
7.89653 0 1
8.01286 0 1
8.12924 0 1
8.24567 0 1
8.36213 0 1
8.47864 0 1
8.59519 0 1
8.71178 0 1
8.82841 0 1
8.94508 0 1
9.06179 0 1
9.17853 0 1
9.29531 0 1
9.41212 0 1
9.52897 0 1
9.64584 0 1
9.76276 0 1
9.8797 0 1
9.99667 0 1
10.1137 0 1
10.2307 0 1
10.3478 0 1
10.4648 0 1
10.5819 0 1
10.6991 0 1
10.8162 0 1
10.9334 0 1
11.0506 0 1
11.1678 0 1
11.285 0 1
11.4023 0 1
11.5196 0 1
11.6369 0 1
11.7542 0 1
11.8715 0 1
11.9888 0 1
12.1062 0 1
12.2235 0 1
12.3409 0 1
12.4582 0 1
12.5756 0 1
12.693 0 1
12.8104 0 1
12.9278 0 1
13.0452 0 1
13.1626 0 1
13.28 0 1
13.3974 0 1
13.5149 0 1
13.6323 0 1
13.7497 0 1
13.8671 0 1
13.9845 0 1
14.1019 0 1
14.2193 0 1
14.3367 0 1
14.4541 0 1
14.5714 0 1
14.6888 0 1
14.8062 0 1
14.9235 0 1
15.0408 0 0
15.1581 0 0
15.2755 0 0
15.3927 0 0
15.51 0 0
15.6273 0 0
15.7445 0 0
15.8617 0 0
15.9789 0 0
16.0961 0 0
16.2132 0 0
16.3304 0 0
16.4475 0 0
16.5646 0 0
16.6816 0 0
16.7986 0 0
16.9156 0 0
17.0326 0 0
17.1496 0 0
17.2665 0 0
17.3833 0 0
17.5002 0 0
17.617 0 0
17.7338 0 0
17.8505 0 0
17.9672 0 0
18.0839 0 0
18.2005 0 0
18.3171 0 0
18.4337 0 0
18.5502 0 0
18.6666 0 0
18.7831 0 0
18.8994 0 0
19.0158 0 0
19.1321 0 0
19.2483 0 0
19.3645 0 0
19.4806 0 0
19.5967 0 0
19.7128 0 0
19.8288 0 0
19.9447 0 0
20.0606 0 1
20.1764 0 1
20.2922 0 1
20.4079 0 1
20.5236 0 1
20.6392 0 1
20.7548 0 1
20.8702 0 1
23.3078 0 1
23.4233 0 1
23.539 0 1
23.6547 0 1
23.7704 0 1
23.8862 0 1
24.0021 0 1
24.118 0 1
24.234 0 1
24.35 0 1
24.4661 1144 33.8231
24.5822 1243 35.2562
24.6984 1282 35.805
24.8146 1283 35.819
24.9309 1470 38.3406
25.0472 1559 39.4842
25.1636 1827 42.7434
25.28 2003 44.7549
25.3965 2189 46.7868
25.513 2203 46.9361
25.6296 2396 48.949
25.7462 2590 50.892
25.8628 2696 51.923
25.9795 2808 52.9906
26.0962 2805 52.9623
26.213 2627 51.2543
26.3298 2664 51.614
26.4466 2681 51.7784
26.5635 2565 50.6458
26.6804 2576 50.7543
26.7973 2733 52.2781
26.9143 2554 50.5371
27.0313 2516 50.1597
27.1483 2692 51.8845
27.2653 2582 50.8134
27.3824 2569 50.6853
27.4996 2703 51.9904
27.6167 2643 51.4101
27.7339 2557 50.5668
27.8511 2480 49.7996
27.9683 2432 49.3153
28.0855 2280 47.7493
28.2028 2093 45.7493
28.3201 1988 44.587
28.4374 1917 43.7836
28.5547 1972 44.4072
28.6721 2141 46.2709
28.7894 2253 47.4658
28.9068 2477 49.7695
29.0242 2393 48.9183
29.1416 2346 48.4355
29.259 2454 49.5379
29.3764 2487 49.8698
29.4939 2360 48.5798
29.6113 2401 49
29.7288 2300 47.9583
29.8463 2383 48.816
29.9638 2438 49.3761
30.0812 2407 49.0612
30.1987 2388 48.8672
30.3162 2455 49.548
30.4337 2525 50.2494
30.5512 2402 49.0102
30.6687 2539 50.3885
30.7862 2504 50.04
30.9037 2463 49.6286
31.0212 2538 50.3786
31.1387 2461 49.6085
31.2562 2492 49.9199
31.3737 2467 49.6689
31.4912 2408 49.0714
31.6087 2163 46.5081
31.7262 2085 45.6618
31.8436 1978 44.4747
31.9611 1772 42.0951
32.0785 1910 43.7035
32.1959 2043 45.1996
32.3134 2159 46.465
32.4308 2305 48.0104
32.5482 2199 46.8935
32.6655 2318 48.1456
32.7829 2324 48.2079
32.9002 2239 47.3181
33.0176 2275 47.697
33.1349 2322 48.1871
33.2522 2324 48.2079
33.3694 2269 47.634
33.4867 2416 49.1528
33.6039 2286 47.8121
33.7211 2357 48.5489
33.8383 2379 48.775
33.9554 2237 47.2969
34.0725 2500 50
34.1896 2339 48.3632
34.3067 2500 50
34.4237 2344 48.4149
34.5407 2507 50.07
34.6577 2335 48.3218
34.7746 2425 49.2443
34.8915 2305 48.0104
35.0084 2288 47.833
35.1252 2211 47.0213
35.242 2206 46.9681
35.3587 2057 45.3542
35.4755 1946 44.1135
35.5921 1726 41.5452
35.7088 1812 42.5676
35.8254 1883 43.3935
35.9419 1964 44.317
36.0584 2048 45.2548
36.1749 2037 45.1331
36.2913 2098 45.8039
36.4077 2027 45.0222
36.524 1966 44.3396
36.6403 1989 44.5982
36.7565 1871 43.2551
36.8727 1951 44.1701
36.9889 1758 41.9285
37.1049 1730 41.5933
37.221 0 1
37.3369 0 1
37.4529 0 1
37.5687 0 1
37.6845 0 1
37.8003 0 1
37.916 0 1
38.0316 0 1
38.1472 0 1
40.5851 0 1
40.7008 0 1
40.8164 0 1
40.9322 0 1
41.048 0 1
41.1639 0 1
41.2798 0 1
41.3958 0 1
41.5118 0 1
41.6279 0 1
41.744 1072 32.7414
41.8602 1150 33.9116
41.9765 1150 33.9116
42.0928 1261 35.5106
42.2091 1362 36.9053
42.3255 1477 38.4318
42.4419 1595 39.9375
42.5584 1617 40.2119
42.675 1715 41.4126
42.7915 1826 42.7317
42.9081 1859 43.1161
43.0248 1935 43.9886
43.1415 1924 43.8634
43.2582 2051 45.288
43.375 2025 45
43.4918 2067 45.4643
43.6087 1980 44.4972
43.7256 2050 45.2769
43.8425 2034 45.0999
43.9595 1989 44.5982
44.0765 2009 44.8219
44.1935 1994 44.6542
44.3106 1819 42.6497
44.4277 1692 41.1339
44.5448 1719 41.4608
44.6619 1769 42.0595
44.7791 1789 42.2966
44.8963 1929 43.9204
45.0136 1993 44.643
45.1308 1949 44.1475
45.2481 1863 43.1625
45.3654 1941 44.0568
45.4827 1930 43.9318
45.6001 1893 43.5086
45.7174 1843 42.9302
45.8348 1879 43.3474
45.9522 1899 43.5775
46.0697 1878 43.3359
46.1871 1929 43.9204
46.3046 1938 44.0227
46.422 2066 45.4533
46.5395 2019 44.9333
46.657 2024 44.9889
46.7745 2129 46.1411
46.892 2153 46.4004
47.0096 2245 47.3814
47.1271 2301 47.9687
47.2446 2270 47.6445
47.3622 2140 46.2601
47.4797 2123 46.076
47.5973 2177 46.6583
47.7149 2014 44.8776
47.8324 2073 45.5302
47.95 1759 41.9404
48.0675 1743 41.7493
48.1851 1745 41.7732
48.3027 1812 42.5676
48.4202 1983 44.5309
48.5378 1986 44.5646
48.6554 1909 43.6921
48.7729 1899 43.5775
48.8904 1931 43.9431
49.008 1881 43.3705
49.1255 1813 42.5793
49.243 1852 43.0349
49.3605 1873 43.2782
49.478 1864 43.1741
49.5955 1866 43.1972
49.713 1862 43.1509
49.8304 1897 43.5546
49.9479 1954 44.2041
50.0653 2008 44.8107
50.1827 2077 45.5741
50.3001 2149 46.3573
50.4175 2167 46.551
50.5348 2201 46.9148
50.6521 2301 47.9687
50.7694 2173 46.6154
50.8867 2326 48.2286
51.004 2273 47.676
51.1212 2248 47.4131
51.2384 2137 46.2277
51.3556 2147 46.3357
51.4727 1849 43
51.5899 1758 41.9285
51.707 1752 41.8569
51.824 1767 42.0357
51.9411 1890 43.4741
52.0581 1979 44.486
52.175 1883 43.3935
52.2919 1947 44.1248
52.4088 1937 44.0114
52.5257 1768 42.0476
52.6425 1675 40.9268
52.7593 1724 41.5211
52.876 1668 40.8412
52.9927 1670 40.8656
53.1094 1696 41.1825
53.226 1664 40.7922
53.3426 1699 41.2189
53.4591 1770 42.0714
53.5756 1764 42
53.692 1784 42.2374
53.8084 1834 42.8252
53.9248 1797 42.391
54.0411 1774 42.1189
54.1573 1580 39.7492
54.2735 0 1
54.3896 0 1
54.5057 0 1
54.6217 0 1
54.7377 0 1
54.8537 0 1
54.9695 0 1
55.0853 0 1
55.2011 0 1
55.3168 0 1
55.4324 0 1
57.824 0 1
57.9396 0 1
58.0553 0 1
58.1711 0 1
58.2869 0 1
58.4028 0 1
58.5187 0 1
58.6347 0 1
58.7508 0 1
58.8669 0 1
58.983 1403 37.4566
59.0992 1535 39.1791
59.2155 1656 40.694
59.3318 1901 43.6005
59.4482 2082 45.6289
59.5646 2156 46.4327
59.681 2228 47.2017
59.7975 2317 48.1352
59.9141 2325 48.2183
60.0306 2255 47.4868
60.1473 2160 46.4758
60.2639 2086 45.6727
60.3807 2126 46.1086
60.4974 2063 45.4203
60.6142 2052 45.299
60.731 2226 47.1805
60.8479 2149 46.3573
60.9648 2253 47.4658
61.0818 2203 46.9361
61.1987 2155 46.422
61.3158 2110 45.9347
61.4328 2149 46.3573
61.5499 2072 45.5192
61.667 2090 45.7165
61.7841 2051 45.288
61.9013 2164 46.5188
62.0185 2188 46.7761
62.1357 2216 47.0744
62.253 2306 48.0208
62.3702 2486 49.8598
62.4875 2580 50.7937
62.6049 2662 51.5946
62.7222 2825 53.1507
62.8396 2867 53.5444
62.9569 2932 54.1479
63.0743 3015 54.909
63.1918 2870 53.5724
63.3092 2904 53.8888
63.4267 2817 53.0754
63.5441 2568 50.6754
63.6616 2539 50.3885
63.7791 2347 48.4458
63.8966 2259 47.5289
64.0142 2208 46.9894
64.1317 2220 47.1169
64.2492 2156 46.4327
64.3668 2164 46.5188
64.4843 2121 46.0543
64.6019 2188 46.7761
64.7195 2147 46.3357
64.837 2039 45.1553
64.9546 2164 46.5188
65.0722 1956 44.2267
65.1898 2080 45.607
65.3074 1974 44.4297
65.4249 2109 45.9239
65.5425 2031 45.0666
65.6601 2210 47.0106
65.7777 2279 47.7389
65.8952 2318 48.1456
66.0128 2412 49.1121
66.1304 2719 52.144
66.2479 2757 52.5071
66.3655 2753 52.469
66.483 2934 54.1664
66.6005 2858 53.4603
66.718 2944 54.2586
66.8355 2921 54.0463
66.953 2810 53.0094
67.0705 2603 51.0196
67.1879 2632 51.303
67.3054 2376 48.7442
67.4228 2220 47.1169
67.5402 2056 45.3431
67.6576 1938 44.0227
67.7749 1901 43.6005
67.8923 1969 44.3734
68.0096 2001 44.7325
68.1269 2028 45.0333
68.2442 2095 45.7712
68.3614 2101 45.8367
68.4787 2105 45.8803
68.5958 1967 44.3509
68.713 1984 44.5421
68.8302 1960 44.2719
68.9473 1873 43.2782
69.0643 1848 42.9884
69.1814 1849 43
69.2984 1844 42.9418
69.4154 1933 43.9659
69.5323 2018 44.9222
69.6492 2103 45.8585
69.7661 2315 48.1144
69.8829 2375 48.734
69.9997 2482 49.8197
70.1165 2470 49.6991
70.2332 2404 49.0306
70.3499 2405 49.0408
70.4665 2359 48.5695
70.5831 2237 47.2969
70.6996 2017 44.911
70.8161 1941 44.0568
70.9326 1745 41.7732
71.049 1631 40.3856
71.1653 1461 38.223
71.2817 1277 35.7351
71.3979 1147 33.8674
71.5141 1116 33.4066
71.6303 977 31.257
71.7464 964 31.0483
71.8624 0 1
71.9784 0 1
72.0944 0 1
72.2102 0 1
72.3261 0 1
72.4418 0 1
72.5575 0 1
72.6732 0 1
75.1054 0 1
75.2209 0 1
75.3365 0 1
75.4521 0 1
75.5678 0 1
75.6835 0 1
75.7993 0 1
75.9151 0 1
76.031 0 1
76.147 1445 38.0132
76.263 1408 37.5233
76.3791 1452 38.1051
76.4952 1375 37.081
76.6113 1309 36.1801
76.7276 1363 36.9188
76.8438 1335 36.5377
76.9601 1440 37.9473
77.0765 1450 38.0789
77.1929 1649 40.6079
77.3093 1670 40.8656
77.4258 1794 42.3556
77.5423 1807 42.5088
77.6589 1775 42.1307
77.7755 1710 41.3521
77.8921 1724 41.5211
78.0088 1750 41.833
78.1256 1671 40.8779
78.2423 1637 40.4599
78.3591 1744 41.7612
78.4759 1768 42.0476
78.5928 1958 44.2493
78.7097 2110 45.9347
78.8266 2361 48.5901
78.9436 2492 49.9199
79.0606 2475 49.7494
79.1776 2523 50.2295
79.2946 2576 50.7543
79.4117 2580 50.7937
79.5288 2586 50.8527
79.6459 2528 50.2792
79.7631 2332 48.2908
79.8802 2222 47.1381
79.9974 1938 44.0227
80.1147 1901 43.6005
80.2319 1820 42.6615
80.3491 1643 40.5339
80.4664 1669 40.8534
80.5837 1757 41.9166
80.701 1713 41.3884
80.8183 1725 41.5331
80.9357 1834 42.8252
81.053 1954 44.2041
81.1704 1929 43.9204
81.2877 1848 42.9884
81.4051 1791 42.3202
81.5225 1765 42.0119
81.6399 1706 41.3038
81.7573 1690 41.1096
81.8747 1772 42.0951
81.9922 1655 40.6817
82.1096 1764 42
82.227 2018 44.9222
82.3444 2129 46.1411
82.4619 2377 48.7545
82.5793 2472 49.7192
82.6967 2648 51.4587
82.8142 2629 51.2738
82.9316 2541 50.4083
83.049 2719 52.144
83.1664 2602 51.0098
83.2838 2529 50.2892
83.4012 2370 48.6826
83.5186 2085 45.6618
83.636 2069 45.4863
83.7534 1931 43.9431
83.8708 1868 43.2204
83.9881 1683 41.0244
84.1055 1687 41.0731
84.2228 1650 40.6202
84.3401 1678 40.9634
84.4575 1811 42.5558
84.5747 2025 45
84.692 2118 46.0217
84.8093 2082 45.6289
84.9265 2003 44.7549
85.0437 1822 42.6849
85.1609 1810 42.5441
85.2781 1770 42.0714
85.3952 1673 40.9023
85.5123 1596 39.95
85.6294 1728 41.5692
85.7465 1822 42.6849
85.8636 1962 44.2945
85.9806 2142 46.2817
86.0976 2328 48.2494
86.2145 2484 49.8397
86.3315 2479 49.7896
86.4484 2537 50.3686
86.5652 2615 51.1371
86.682 2565 50.6458
86.7988 2483 49.8297
86.9156 2473 49.7293
87.0323 2268 47.6235
87.149 2154 46.4112
87.2657 2038 45.1442
87.3823 1921 43.8292
87.4988 1781 42.2019
87.6154 1626 40.3237
87.7318 1627 40.3361
87.8483 1599 39.9875
87.9647 1497 38.6911
88.081 1564 39.5474
88.1973 1674 40.9145
88.3136 1544 39.2938
88.4298 1407 37.51
88.546 1190 34.4964
88.6621 1033 32.1403
88.7781 958 30.9516
88.8942 0 1
89.0101 0 1
89.126 0 1
89.2419 0 1
89.3577 0 1
89.4734 0 1
89.5891 0 1
89.7047 0 1
89.8203 0 1
89.9358 0 1
92.3269 0 1
92.4424 0 1
92.558 0 1
92.6736 0 1
92.7893 0 1
92.905 0 1
93.0208 0 1
93.1366 0 1
93.2525 0 1
93.3685 0 1
93.4845 0 1
93.6005 1185 34.4238
93.7167 1397 37.3765
93.8328 1628 40.3485
93.949 1759 41.9404
94.0653 1789 42.2966
94.1816 1806 42.4971
94.2979 1827 42.7434
94.4143 1793 42.3438
94.5307 1827 42.7434
94.6472 1814 42.5911
94.7637 1830 42.7785
94.8803 1880 43.359
94.9969 2018 44.9222
95.1135 2225 47.1699
95.2302 2404 49.0306
95.3469 2558 50.5767
95.4637 2778 52.7067
95.5805 2789 52.811
95.6973 2943 54.2494
95.8142 2809 53
95.9311 2746 52.4023
96.048 2659 51.5655
96.1649 2664 51.614
96.2819 2472 49.7192
96.3989 2300 47.9583
96.516 2183 46.7226
96.633 1978 44.4747
96.7501 1892 43.4971
96.8673 1753 41.8688
96.9844 1684 41.0366
97.1016 1768 42.0476
97.2188 1657 40.7063
97.336 1812 42.5676
97.4532 2028 45.0333
97.5704 2117 46.0109
97.6877 2139 46.2493
97.805 2075 45.5522
97.9223 1914 43.7493
98.0396 1909 43.6921
98.1569 1843 42.9302
98.2743 1757 41.9166
98.3916 1842 42.9185
98.509 1784 42.2374
98.6264 1934 43.9773
98.7438 2128 46.1303
98.8612 2349 48.4665
98.9786 2533 50.3289
99.096 2664 51.614
99.2134 2718 52.1344
99.3308 2805 52.9623
99.4482 2862 53.4977
99.5656 2858 53.4603
99.6831 2840 53.2917
99.8005 2609 51.0784
99.9179 2431 49.3052
100.035 2341 48.3839
100.153 2148 46.3465
100.27 2063 45.4203
100.388 1898 43.566
100.505 1793 42.3438
100.622 1781 42.2019
100.74 1799 42.4146
100.857 1801 42.4382
100.975 2017 44.911
101.092 2132 46.1736
101.209 2273 47.676
101.327 2038 45.1442
101.444 2153 46.4004
101.561 1962 44.2945
101.679 1940 44.0454
101.796 1881 43.3705
101.913 1890 43.4741
102.03 1919 43.8064
102.148 2016 44.8999
102.265 2167 46.551
102.382 2502 50.02
102.499 2684 51.8073
102.616 2812 53.0283
102.733 2910 53.9444
102.851 2910 53.9444
102.968 2943 54.2494
103.085 2984 54.626
103.202 3051 55.2359
103.319 2923 54.0648
103.436 2756 52.4976
103.552 2482 49.8197
103.669 2299 47.9479
103.786 2165 46.5296
103.903 1981 44.5084
104.02 1854 43.0581
104.137 1892 43.4971
104.253 1881 43.3705
104.37 1967 44.3509
104.487 2052 45.299
104.603 2223 47.1487
104.72 2179 46.6798
104.836 1890 43.4741
104.953 1817 42.6263
105.069 1737 41.6773
105.186 1601 40.0125
105.302 1471 38.3536
105.418 1529 39.1024
105.535 1446 38.0263
105.651 1405 37.4833
105.767 1437 37.9078
105.883 1545 39.3065
105.999 1522 39.0128
106.115 0 1
106.231 0 1
106.347 0 1
106.463 0 1
106.579 0 1
106.694 0 1
106.81 0 1
106.926 0 1
107.041 0 1
107.157 0 1
109.576 0 1
109.692 0 1
109.807 0 1
109.923 0 1
110.039 0 1
110.155 0 1
110.27 0 1
110.386 0 1
110.502 0 1
110.618 1142 33.7935
110.735 1339 36.5923
110.851 1602 40.025
110.967 1751 41.845
111.083 1810 42.5441
111.199 2053 45.31
111.316 2128 46.1303
111.432 2291 47.8644
111.549 2349 48.4665
111.665 2478 49.7795
111.782 2383 48.816
111.898 2328 48.2494
112.015 2208 46.9894
112.132 2068 45.4753
112.248 1970 44.3847
112.365 1854 43.0581
112.482 1779 42.1782
112.599 1762 41.9762
112.716 1747 41.7971
112.832 1728 41.5692
112.949 1661 40.7554
113.066 1747 41.7971
113.183 1890 43.4741
113.3 1926 43.8862
113.417 1922 43.8406
113.534 1911 43.715
113.652 1926 43.8862
113.769 1970 44.3847
113.886 1857 43.0929
114.003 1870 43.2435
114.12 1813 42.5793
114.238 1897 43.5546
114.355 2115 45.9891
114.472 2357 48.5489
114.589 2450 49.4975
114.707 2737 52.3163
114.824 2870 53.5724
114.942 2793 52.8488
115.059 2837 53.2635
115.176 2937 54.1941
115.294 2830 53.1977
115.411 2875 53.619
115.529 2664 51.614
115.646 2465 49.6488
115.764 2240 47.3286
115.881 2131 46.1628
115.999 1995 44.6654
116.116 2010 44.833
116.234 1879 43.3474
116.351 1842 42.9185
116.469 1736 41.6653
116.586 1784 42.2374
116.704 1932 43.9545
116.821 2080 45.607
116.939 2148 46.3465
117.056 2048 45.2548
117.174 2062 45.4093
117.291 1979 44.486
117.409 1989 44.5982
117.526 2018 44.9222
117.644 1948 44.1362
117.761 2065 45.4423
117.879 2225 47.1699
117.996 2350 48.4768
118.114 2687 51.8363
118.231 2764 52.5738
118.349 2844 53.3292
118.466 2864 53.5164
118.584 3004 54.8088
118.701 3043 55.1634
118.819 2990 54.6809
118.936 2920 54.037
119.053 2798 52.8961
119.171 2636 51.342
119.288 2322 48.1871
119.405 2156 46.4327
119.523 2177 46.6583
119.64 2046 45.2327
119.757 1961 44.2832
119.875 1838 42.8719
119.992 1730 41.5933
120.109 1682 41.0122
120.226 1713 41.3884
120.343 1829 42.7668
120.46 1886 43.4281
120.578 1920 43.8178
120.695 1875 43.3013
120.812 1914 43.7493
120.929 1933 43.9659
121.046 1804 42.4735
121.163 1845 42.9535
121.279 1818 42.638
121.396 1874 43.2897
121.513 1919 43.8064
121.63 2004 44.7661
121.747 2189 46.7868
121.863 2309 48.0521
121.98 2284 47.7912
122.097 2282 47.7703
122.213 2265 47.592
122.33 2244 47.3709
122.446 2214 47.0532
122.563 2035 45.111
122.679 1945 44.1022
122.795 1858 43.1045
122.912 1686 41.0609
123.028 1495 38.6652
123.144 1355 36.8103
123.26 1232 35.0999
123.377 0 1
123.493 0 1
123.609 0 1
123.725 0 1
123.84 0 1
123.956 0 1
124.072 0 1
124.188 0 1
124.303 0 1
124.419 0 1
126.852 0 1
126.968 0 1
127.083 0 1
127.199 0 1
127.315 0 1
127.431 0 1
127.547 0 1
127.663 0 1
127.779 0 1
127.895 0 1
128.011 0 1
128.127 0 1
128.243 0 1
128.359 2310 48.0625
128.476 2346 48.4355
128.592 2250 47.4342
128.708 2153 46.4004
128.825 2090 45.7165
128.941 2013 44.8665
129.058 1942 44.0681
129.174 1980 44.4972
129.291 1893 43.5086
129.408 1978 44.4747
129.524 2103 45.8585
129.641 2192 46.8188
129.758 2206 46.9681
129.875 2245 47.3814
129.992 2205 46.9574
130.108 2281 47.7598
130.225 2294 47.8957
130.342 2195 46.8508
130.459 2264 47.5815
130.576 2218 47.0956
130.693 2388 48.8672
130.81 2651 51.4879
130.928 2653 51.5073
131.045 2722 52.1728
131.162 2662 51.5946
131.279 2752 52.4595
131.396 2626 51.2445
131.513 2766 52.5928
131.631 2608 51.0686
131.748 2539 50.3885
131.865 2486 49.8598
131.983 2296 47.9166
132.1 2337 48.3425
132.217 2259 47.5289
132.335 2101 45.8367
132.452 2041 45.1774
132.57 2021 44.9555
132.687 2021 44.9555
132.804 1926 43.8862
132.922 2003 44.7549
133.039 2036 45.1221
133.157 2079 45.5961
133.274 2064 45.4313
133.392 2204 46.9468
133.509 2150 46.3681
133.627 2293 47.8853
133.744 2251 47.4447
133.862 2110 45.9347
133.979 2084 45.6508
134.097 2148 46.3465
134.214 2256 47.4974
134.332 2421 49.2037
134.449 2537 50.3686
134.567 2387 48.8569
134.684 2537 50.3686
134.802 2573 50.7247
134.919 2590 50.892
135.037 2539 50.3885
135.154 2520 50.1996
135.272 2535 50.3488
135.389 2509 50.0899
135.507 2402 49.0102
135.624 2369 48.6724
135.742 2296 47.9166
135.859 2349 48.4665
135.977 2186 46.7547
136.094 2142 46.2817
136.211 2079 45.5961
136.329 2102 45.8476
136.446 2122 46.0652
136.564 2106 45.8912
136.681 2128 46.1303
136.798 2065 45.4423
136.915 2232 47.244
137.033 2296 47.9166
137.15 2298 47.9375
137.267 2186 46.7547
137.384 2293 47.8853
137.502 2206 46.9681
137.619 2183 46.7226
137.736 2165 46.5296
137.853 2188 46.7761
137.97 2214 47.0532
138.087 2420 49.1935
138.204 2337 48.3425
138.321 2319 48.156
138.438 2338 48.3529
138.555 2382 48.8057
138.672 2376 48.7442
138.788 2275 47.697
138.905 2184 46.7333
139.022 2121 46.0543
139.139 1995 44.6654
139.255 1965 44.3283
139.372 1799 42.4146
139.488 1706 41.3038
139.605 1657 40.7063
139.721 1606 40.0749
139.838 1388 37.2559
139.954 1444 38
140.071 1372 37.0405
140.187 1255 35.426
140.303 1144 33.8231
140.419 1143 33.8083
140.535 1075 32.7872
140.652 1036 32.187
140.768 0 1
140.884 0 1
141 0 1
141.115 0 1
141.231 0 1
141.347 0 1
141.463 0 1
141.578 0 1
141.694 0 1
144.104 0 1
144.219 0 1
144.335 0 1
144.45 0 1
144.566 0 1
144.682 0 1
144.798 0 1
144.914 0 1
145.03 0 1
145.146 1456 38.1576
145.262 1513 38.8973
145.378 1585 39.8121
145.494 1618 40.2244
145.61 1720 41.4729
145.726 1836 42.8486
145.842 1778 42.1663
145.959 1866 43.1972
146.075 1834 42.8252
146.192 1705 41.2916
146.308 1720 41.4729
146.425 1697 41.1947
146.541 1671 40.8779
146.658 1773 42.107
146.774 1773 42.107
146.891 1938 44.0227
147.008 1975 44.441
147.125 1981 44.5084
147.241 2002 44.7437
147.358 2040 45.1664
147.475 2088 45.6946
147.592 2054 45.3211
147.709 2038 45.1442
147.826 1994 44.6542
147.943 1975 44.441
148.06 2024 44.9889
148.177 1951 44.1701
148.294 1950 44.1588
148.411 1829 42.7668
148.528 1841 42.9069
148.645 1833 42.8135
148.762 1787 42.2729
148.88 1787 42.2729
148.997 1735 41.6533
149.114 1763 41.9881
149.231 1768 42.0476
149.349 1911 43.715
149.466 1848 42.9884
149.583 1859 43.1161
149.701 1865 43.1856
149.818 1749 41.821
149.935 1741 41.7253
150.053 1686 41.0609
150.17 1736 41.6653
150.287 1785 42.2493
150.405 1903 43.6234
150.522 1921 43.8292
150.64 1954 44.2041
150.757 1997 44.6878
150.875 2092 45.7384
150.992 2085 45.6618
151.11 2090 45.7165
151.227 2064 45.4313
151.344 2071 45.5082
151.462 2051 45.288
151.579 1989 44.5982
151.697 2031 45.0666
151.814 1934 43.9773
151.932 1965 44.3283
152.049 1968 44.3621
152.167 1860 43.1277
152.284 1913 43.7379
152.402 1824 42.7083
152.519 1871 43.2551
152.636 1810 42.5441
152.754 1932 43.9545
152.871 1887 43.4396
152.989 1963 44.3058
153.106 1923 43.852
153.223 1940 44.0454
153.341 1940 44.0454
153.458 1892 43.4971
153.575 1895 43.5316
153.693 1917 43.7836
153.81 1884 43.4051
153.927 2103 45.8585
154.044 2023 44.9778
154.162 2202 46.9255
154.279 2235 47.2758
154.396 2220 47.1169
154.513 2271 47.655
154.63 2356 48.5386
154.747 2372 48.7032
154.864 2346 48.4355
154.981 2327 48.239
155.098 2177 46.6583
155.215 2262 47.5605
155.332 2142 46.2817
155.449 2061 45.3982
155.566 2027 45.0222
155.683 2052 45.299
155.8 1934 43.9773
155.917 1877 43.3244
156.033 1772 42.0951
156.15 0 1
156.267 0 1
156.383 0 1
156.5 0 1
156.617 0 1
156.733 0 1
156.85 0 1
156.966 0 1
157.082 0 1
157.199 0 1
157.315 0 1
157.431 0 1
157.547 0 1
157.664 0 1
157.78 0 1
157.896 0 1
158.012 0 1
158.128 0 1
158.244 0 1
158.359 0 1
158.475 0 1
158.591 0 1
158.706 0 1
