
6.15755 0 1
6.2731 0 1
6.3887 0 1
6.50437 0 1
6.62009 0 1
6.73587 0 1
6.8517 0 1
6.96759 0 1
7.08353 0 1
7.19952 0 1
7.31557 0 1
7.43166 0 1
7.54781 0 1
7.664 0 1
7.78024 0 1
7.89653 0 1
8.01286 0 1
8.12924 0 1
8.24567 0 1
8.36213 0 1
8.47864 0 1
8.59519 0 1
8.71178 0 1
8.82841 0 1
8.94508 0 1
9.06179 0 1
9.17853 0 1
9.29531 0 1
9.41212 0 1
9.52897 0 1
9.64584 0 1
9.76276 0 1
9.8797 0 1
9.99667 0 1
10.1137 0 1
10.2307 0 1
10.3478 0 1
10.4648 0 1
10.5819 0 1
10.6991 0 1
10.8162 0 1
10.9334 0 1
11.0506 0 1
11.1678 0 1
11.285 0 1
11.4023 0 1
11.5196 0 1
11.6369 0 1
11.7542 0 1
11.8715 0 1
11.9888 0 1
12.1062 0 1
12.2235 0 1
12.3409 0 1
12.4582 0 1
12.5756 0 1
12.693 0 1
12.8104 0 1
12.9278 0 1
13.0452 0 1
13.1626 0 1
13.28 0 1
13.3974 0 1
13.5149 0 1
13.6323 0 1
13.7497 0 1
13.8671 0 1
13.9845 0 1
14.1019 0 1
14.2193 0 1
14.3367 0 1
14.4541 0 1
14.5714 0 1
14.6888 0 1
14.8062 0 1
14.9235 0 1
15.0408 3132 55.9643
15.1581 3196 56.5332
15.2755 3111 55.7763
15.3927 3318 57.6021
15.51 3045 55.1815
15.6273 3215 56.701
15.7445 3110 55.7674
15.8617 2979 54.5802
15.9789 2912 53.963
16.0961 2858 53.4603
16.2132 2855 53.4322
16.3304 2859 53.4696
16.4475 2913 53.9722
16.5646 2965 54.4518
16.6816 2940 54.2218
16.7986 2933 54.1572
16.9156 3097 55.6507
17.0326 3135 55.9911
17.1496 3243 56.9473
17.2665 3216 56.7098
17.3833 3292 57.376
17.5002 3253 57.0351
17.617 3263 57.1227
17.7338 3408 58.3781
17.8505 3347 57.8533
17.9672 3108 55.7494
18.0839 2854 53.4228
18.2005 2535 50.3488
18.3171 2607 51.0588
18.4337 2945 54.2679
18.5502 2947 54.2863
18.6666 2957 54.3783
18.7831 2852 53.4041
18.8994 2759 52.5262
19.0158 2524 50.2394
19.1321 2394 48.9285
19.2483 2343 48.4045
19.3645 2289 47.8435
19.4806 2078 45.5851
19.5967 2101 45.8367
19.7128 1888 43.4511
19.8288 1940 44.0454
19.9447 1711 41.3642
20.0606 0 1
20.1764 0 1
20.2922 0 1
20.4079 0 1
20.5236 0 1
20.6392 0 1
20.7548 0 1
20.8702 0 1
23.3078 0 1
23.4233 0 1
23.539 0 1
23.6547 0 1
23.7704 0 1
23.8862 0 1
24.0021 0 1
24.118 0 1
24.234 0 1
24.35 0 1
24.4661 976 31.241
24.5822 1191 34.5109
24.6984 1414 37.6032
24.8146 1739 41.7013
24.9309 1990 44.6094
25.0472 1972 44.4072
25.1636 2248 47.4131
25.28 2418 49.1732
25.3965 2590 50.892
25.513 2649 51.4684
25.6296 2734 52.2877
25.7462 2805 52.9623
25.8628 2829 53.1883
25.9795 2747 52.4118
26.0962 2704 52
26.213 2757 52.5071
26.3298 2566 50.6557
26.4466 2506 50.06
26.5635 2422 49.2138
26.6804 2167 46.551
26.7973 2156 46.4327
26.9143 2186 46.7547
27.0313 2053 45.31
27.1483 2258 47.5184
27.2653 2300 47.9583
27.3824 2322 48.1871
27.4996 2316 48.1248
27.6167 2308 48.0416
27.7339 2253 47.4658
27.8511 2186 46.7547
27.9683 2112 45.9565
28.0855 2193 46.8295
28.2028 2325 48.2183
28.3201 2344 48.4149
28.4374 2185 46.744
28.5547 2234 47.2652
28.6721 2403 49.0204
28.7894 2380 48.7852
28.9068 2407 49.0612
29.0242 2346 48.4355
29.1416 2446 49.4571
29.259 2407 49.0612
29.3764 2338 48.3529
29.4939 2291 47.8644
29.6113 2149 46.3573
29.7288 2307 48.0312
29.8463 2293 47.8853
29.9638 2250 47.4342
30.0812 2122 46.0652
30.1987 2007 44.7996
30.3162 1933 43.9659
30.4337 2131 46.1628
30.5512 2180 46.6905
30.6687 2252 47.4552
30.7862 2259 47.5289
30.9037 2357 48.5489
31.0212 2372 48.7032
31.1387 2423 49.224
31.2562 2254 47.4763
31.3737 2225 47.1699
31.4912 2341 48.3839
31.6087 2259 47.5289
31.7262 2250 47.4342
31.8436 2329 48.2597
31.9611 2262 47.5605
32.0785 2216 47.0744
32.1959 2268 47.6235
32.3134 2211 47.0213
32.4308 2176 46.6476
32.5482 2160 46.4758
32.6655 2136 46.2169
32.7829 2131 46.1628
32.9002 2077 45.5741
33.0176 2088 45.6946
33.1349 1997 44.6878
33.2522 2045 45.2217
33.3694 2100 45.8258
33.4867 2134 46.1952
33.6039 2112 45.9565
33.7211 2061 45.3982
33.8383 1975 44.441
33.9554 1985 44.5533
34.0725 2011 44.8442
34.1896 2211 47.0213
34.3067 2249 47.4236
34.4237 2294 47.8957
34.5407 2324 48.2079
34.6577 2234 47.2652
34.7746 2283 47.7807
34.8915 2179 46.6798
35.0084 2139 46.2493
35.1252 2029 45.0444
35.242 1964 44.317
35.3587 2050 45.2769
35.4755 1984 44.5421
35.5921 2131 46.1628
35.7088 2109 45.9239
35.8254 2092 45.7384
35.9419 2197 46.8722
36.0584 2070 45.4973
36.1749 2149 46.3573
36.2913 1986 44.5646
36.4077 1901 43.6005
36.524 1812 42.5676
36.6403 1844 42.9418
36.7565 1744 41.7612
36.8727 1624 40.2989
36.9889 1602 40.025
37.1049 1348 36.7151
37.221 0 1
37.3369 0 1
37.4529 0 1
37.5687 0 1
37.6845 0 1
37.8003 0 1
37.916 0 1
38.0316 0 1
38.1472 0 1
40.5851 0 1
40.7008 0 1
40.8164 0 1
40.9322 0 1
41.048 0 1
41.1639 0 1
41.2798 0 1
41.3958 0 1
41.5118 0 1
41.6279 0 1
41.744 913 30.2159
41.8602 1061 32.573
41.9765 1176 34.2929
42.0928 1292 35.9444
42.2091 1482 38.4968
42.3255 1544 39.2938
42.4419 1672 40.8901
42.5584 1655 40.6817
42.675 1625 40.3113
42.7915 1664 40.7922
42.9081 1669 40.8534
43.0248 1711 41.3642
43.1415 1840 42.8952
43.2582 1717 41.4367
43.375 1703 41.2674
43.4918 1774 42.1189
43.6087 1714 41.4005
43.7256 1730 41.5933
43.8425 1699 41.2189
43.9595 1706 41.3038
44.0765 1643 40.5339
44.1935 1601 40.0125
44.3106 1590 39.8748
44.4277 1700 41.2311
44.5448 1706 41.3038
44.6619 1785 42.2493
44.7791 1812 42.5676
44.8963 1695 41.1704
45.0136 1793 42.3438
45.1308 1851 43.0232
45.2481 1754 41.8808
45.3654 1835 42.8369
45.4827 1759 41.9404
45.6001 1932 43.9545
45.7174 1853 43.0465
45.8348 1751 41.845
45.9522 1780 42.19
46.0697 1659 40.7308
46.1871 1646 40.5709
46.3046 1554 39.4208
46.422 1535 39.1791
46.5395 1533 39.1535
46.657 1637 40.4599
46.7745 1710 41.3521
46.892 1711 41.3642
47.0096 1596 39.95
47.1271 1699 41.2189
47.2446 1664 40.7922
47.3622 1661 40.7554
47.4797 1627 40.3361
47.5973 1491 38.6135
47.7149 1478 38.4448
47.8324 1498 38.704
47.95 1529 39.1024
48.0675 1582 39.7744
48.1851 1556 39.4462
48.3027 1754 41.8808
48.4202 1734 41.6413
48.5378 1946 44.1135
48.6554 2005 44.7772
48.7729 1935 43.9886
48.8904 1943 44.0795
49.008 1992 44.6318
49.1255 2072 45.5192
49.243 2036 45.1221
49.3605 2083 45.6399
49.478 1975 44.441
49.5955 1949 44.1475
49.713 1886 43.4281
49.8304 1852 43.0349
49.9479 1721 41.4849
50.0653 1625 40.3113
50.1827 1734 41.6413
50.3001 1741 41.7253
50.4175 1711 41.3642
50.5348 1621 40.2616
50.6521 1578 39.724
50.7694 1648 40.5956
50.8867 1564 39.5474
51.004 1554 39.4208
51.1212 1614 40.1746
51.2384 1608 40.0999
51.3556 1479 38.4578
51.4727 1545 39.3065
51.5899 1611 40.1373
51.707 1696 41.1825
51.824 1717 41.4367
51.9411 1681 41
52.0581 1731 41.6053
52.175 1695 41.1704
52.2919 1672 40.8901
52.4088 1570 39.6232
52.5257 1640 40.4969
52.6425 1656 40.694
52.7593 1819 42.6497
52.876 1659 40.7308
52.9927 1597 39.9625
53.1094 1609 40.1123
53.226 1527 39.0768
53.3426 1518 38.9615
53.4591 1487 38.5616
53.5756 1641 40.5093
53.692 1922 43.8406
53.8084 2092 45.7384
53.9248 2323 48.1975
54.0411 2528 50.2792
54.1573 2794 52.8583
54.2735 0 1
54.3896 0 1
54.5057 0 1
54.6217 0 1
54.7377 0 1
54.8537 0 1
54.9695 0 1
55.0853 0 1
55.2011 0 1
55.3168 0 1
55.4324 0 1
57.824 0 1
57.9396 0 1
58.0553 0 1
58.1711 0 1
58.2869 0 1
58.4028 0 1
58.5187 0 1
58.6347 0 1
58.7508 0 1
58.8669 0 1
58.983 2037 45.1331
59.0992 2317 48.1352
59.2155 2600 50.9902
59.3318 2884 53.7029
59.4482 3041 55.1453
59.5646 3391 58.2323
59.681 3751 61.2454
59.7975 4016 63.3719
59.9141 4076 63.8436
60.0306 4069 63.7887
60.1473 3904 62.482
60.2639 3977 63.0635
60.3807 3993 63.1902
60.4974 3983 63.111
60.6142 3892 62.3859
60.731 3849 62.0403
60.8479 3778 61.4654
60.9648 3719 60.9836
61.0818 3613 60.1082
61.1987 3604 60.0333
61.3158 3401 58.3181
61.4328 3436 58.6174
61.5499 3246 56.9737
61.667 3160 56.2139
61.7841 3051 55.2359
61.9013 2980 54.5894
62.0185 2829 53.1883
62.1357 2778 52.7067
62.253 2712 52.0769
62.3702 2631 51.2933
62.4875 2516 50.1597
62.6049 2449 49.4874
62.7222 2414 49.1325
62.8396 2190 46.7974
62.9569 2284 47.7912
63.0743 2241 47.3392
63.1918 2134 46.1952
63.3092 2022 44.9667
63.4267 2111 45.9456
63.5441 2085 45.6618
63.6616 1894 43.5201
63.7791 1936 44
63.8966 1823 42.6966
64.0142 1897 43.5546
64.1317 1915 43.7607
64.2492 1951 44.1701
64.3668 1953 44.1928
64.4843 1956 44.2267
64.6019 1865 43.1856
64.7195 1891 43.4856
64.837 1983 44.5309
64.9546 1969 44.3734
65.0722 1956 44.2267
65.1898 1980 44.4972
65.3074 1924 43.8634
65.4249 1888 43.4511
65.5425 1846 42.9651
65.6601 1813 42.5793
65.7777 1893 43.5086
65.8952 1909 43.6921
66.0128 1874 43.2897
66.1304 1879 43.3474
66.2479 1866 43.1972
66.3655 1868 43.2204
66.483 1882 43.382
66.6005 1866 43.1972
66.718 1881 43.3705
66.8355 1806 42.4971
66.953 1866 43.1972
67.0705 1869 43.2319
67.1879 1848 42.9884
67.3054 1883 43.3935
67.4228 1777 42.1545
67.5402 1752 41.8569
67.6576 1825 42.72
67.7749 1759 41.9404
67.8923 1873 43.2782
68.0096 1856 43.0813
68.1269 1838 42.8719
68.2442 1758 41.9285
68.3614 1840 42.8952
68.4787 1849 43
68.5958 1807 42.5088
68.713 1931 43.9431
68.8302 1904 43.6348
68.9473 1935 43.9886
69.0643 1840 42.8952
69.1814 1786 42.2611
69.2984 1819 42.6497
69.4154 1865 43.1856
69.5323 1925 43.8748
69.6492 1857 43.0929
69.7661 1798 42.4028
69.8829 1828 42.7551
69.9997 1763 41.9881
70.1165 1815 42.6028
70.2332 1823 42.6966
70.3499 1716 41.4246
70.4665 1707 41.3159
70.5831 1570 39.6232
70.6996 1443 37.9868
70.8161 1450 38.0789
70.9326 1261 35.5106
71.049 1161 34.0735
71.1653 1029 32.078
71.2817 1031 32.1092
71.3979 920 30.3315
71.5141 855 29.2404
71.6303 806 28.3901
71.7464 633 25.1595
71.8624 0 1
71.9784 0 1
72.0944 0 1
72.2102 0 1
72.3261 0 1
72.4418 0 1
72.5575 0 1
72.6732 0 1
75.1054 0 1
75.2209 0 1
75.3365 0 1
75.4521 0 1
75.5678 0 1
75.6835 0 1
75.7993 0 1
75.9151 0 1
76.031 0 1
76.147 1102 33.1964
76.263 1282 35.805
76.3791 1379 37.1349
76.4952 1337 36.565
76.6113 1447 38.0395
76.7276 1537 39.2046
76.8438 1464 38.2623
76.9601 1507 38.8201
77.0765 1539 39.2301
77.1929 1499 38.7169
77.3093 1561 39.5095
77.4258 1570 39.6232
77.5423 1615 40.1871
77.6589 1580 39.7492
77.7755 1659 40.7308
77.8921 1678 40.9634
78.0088 1615 40.1871
78.1256 1660 40.7431
78.2423 1602 40.025
78.3591 1521 39
78.4759 1597 39.9625
78.5928 1510 38.8587
78.7097 1569 39.6106
78.8266 1462 38.2361
78.9436 1454 38.1314
79.0606 1454 38.1314
79.1776 1582 39.7744
79.2946 1590 39.8748
79.4117 1647 40.5832
79.5288 1537 39.2046
79.6459 1672 40.8901
79.7631 1608 40.0999
79.8802 1650 40.6202
79.9974 1642 40.5216
80.1147 1629 40.3609
80.2319 1581 39.7618
80.3491 1539 39.2301
80.4664 1495 38.6652
80.5837 1520 38.9872
80.701 1594 39.9249
80.8183 1614 40.1746
80.9357 1588 39.8497
81.053 1627 40.3361
81.1704 1567 39.5854
81.2877 1658 40.7185
81.4051 1721 41.4849
81.5225 1761 41.9643
81.6399 1634 40.4228
81.7573 1683 41.0244
81.8747 1605 40.0625
81.9922 1581 39.7618
82.1096 1632 40.398
82.227 1608 40.0999
82.3444 1531 39.128
82.4619 1579 39.7366
82.5793 1522 39.0128
82.6967 1599 39.9875
82.8142 1728 41.5692
82.9316 1685 41.0488
83.049 1729 41.5812
83.1664 1634 40.4228
83.2838 1639 40.4846
83.4012 1724 41.5211
83.5186 1699 41.2189
83.636 1748 41.8091
83.7534 1625 40.3113
83.8708 1617 40.2119
83.9881 1502 38.7556
84.1055 1551 39.3827
84.2228 1485 38.5357
84.3401 1582 39.7744
84.4575 1626 40.3237
84.5747 1626 40.3237
84.692 1639 40.4846
84.8093 1623 40.2865
84.9265 1637 40.4599
85.0437 1715 41.4126
85.1609 1705 41.2916
85.2781 1727 41.5572
85.3952 1695 41.1704
85.5123 1674 40.9145
85.6294 1688 41.0853
85.7465 1607 40.0874
85.8636 1651 40.6325
85.9806 1583 39.7869
86.0976 1516 38.9358
86.2145 1646 40.5709
86.3315 1683 41.0244
86.4484 1674 40.9145
86.5652 1721 41.4849
86.682 1674 40.9145
86.7988 1623 40.2865
86.9156 1644 40.5463
87.0323 1720 41.4729
87.149 1642 40.5216
87.2657 1741 41.7253
87.3823 1674 40.9145
87.4988 1580 39.7492
87.6154 1476 38.4187
87.7318 1393 37.3229
87.8483 1361 36.8917
87.9647 1296 36
88.081 1344 36.6606
88.1973 1230 35.0714
88.3136 1205 34.7131
88.4298 1168 34.176
88.546 1148 33.8821
88.6621 989 31.4484
88.7781 985 31.3847
88.8942 0 1
89.0101 0 1
89.126 0 1
89.2419 0 1
89.3577 0 1
89.4734 0 1
89.5891 0 1
89.7047 0 1
89.8203 0 1
89.9358 0 1
92.3269 0 1
92.4424 0 1
92.558 0 1
92.6736 0 1
92.7893 0 1
92.905 0 1
93.0208 0 1
93.1366 0 1
93.2525 0 1
93.3685 0 1
93.4845 0 1
93.6005 1278 35.7491
93.7167 1453 38.1182
93.8328 1479 38.4578
93.949 1569 39.6106
94.0653 1660 40.7431
94.1816 1635 40.4351
94.2979 1747 41.7971
94.4143 1801 42.4382
94.5307 1760 41.9524
94.6472 1685 41.0488
94.7637 1786 42.2611
94.8803 1648 40.5956
94.9969 1594 39.9249
95.1135 1651 40.6325
95.2302 1589 39.8623
95.3469 1636 40.4475
95.4637 1679 40.9756
95.5805 1758 41.9285
95.6973 1765 42.0119
95.8142 1733 41.6293
95.9311 1681 41
96.048 1729 41.5812
96.1649 1814 42.5911
96.2819 1855 43.0697
96.3989 1804 42.4735
96.516 1851 43.0232
96.633 1712 41.3763
96.7501 1566 39.5727
96.8673 1686 41.0609
96.9844 1637 40.4599
97.1016 1737 41.6773
97.2188 1669 40.8534
97.336 1693 41.1461
97.4532 1694 41.1582
97.5704 1702 41.2553
97.6877 1703 41.2674
97.805 1827 42.7434
97.9223 1859 43.1161
98.0396 1870 43.2435
98.1569 1835 42.8369
98.2743 1810 42.5441
98.3916 1758 41.9285
98.509 1866 43.1972
98.6264 1688 41.0853
98.7438 1667 40.8289
98.8612 1644 40.5463
98.9786 1735 41.6533
99.096 1802 42.45
99.2134 1842 42.9185
99.3308 1904 43.6348
99.4482 1944 44.0908
99.5656 2024 44.9889
99.6831 1856 43.0813
99.8005 1871 43.2551
99.9179 1795 42.3674
100.035 1784 42.2374
100.153 1755 41.8927
100.27 1816 42.6146
100.388 1711 41.3642
100.505 1701 41.2432
100.622 1762 41.9762
100.74 1753 41.8688
100.857 1822 42.6849
100.975 1959 44.2606
101.092 1986 44.5646
101.209 2068 45.4753
101.327 2260 47.5395
101.444 2486 49.8598
101.561 2564 50.636
101.679 2674 51.7107
101.796 2836 53.2541
101.913 2981 54.5985
102.03 3030 55.0454
102.148 3193 56.5066
102.265 3128 55.9285
102.382 2953 54.3415
102.499 3183 56.4181
102.616 3123 55.8838
102.733 3208 56.6392
102.851 3223 56.7715
102.968 3308 57.5152
103.085 3290 57.3585
103.202 3243 56.9473
103.319 3221 56.7539
103.436 3080 55.4977
103.552 2989 54.6717
103.669 2929 54.1202
103.786 2727 52.2207
103.903 2733 52.2781
104.02 2588 50.8724
104.137 2722 52.1728
104.253 2850 53.3854
104.37 2807 52.9811
104.487 3083 55.5248
104.603 3109 55.7584
104.72 3145 56.0803
104.836 3148 56.107
104.953 3190 56.4801
105.069 3267 57.1577
105.186 3218 56.7274
105.302 3117 55.8301
105.418 3179 56.3826
105.535 3093 55.6147
105.651 3075 55.4527
105.767 3088 55.5698
105.883 2896 53.8145
105.999 2865 53.5257
106.115 0 1
106.231 0 1
106.347 0 1
106.463 0 1
106.579 0 1
106.694 0 1
106.81 0 1
106.926 0 1
107.041 0 1
107.157 0 1
109.576 0 1
109.692 0 1
109.807 0 1
109.923 0 1
110.039 0 1
110.155 0 1
110.27 0 1
110.386 0 1
110.502 0 1
110.618 8661 93.0645
110.735 11038 105.062
110.851 13781 117.393
110.967 14763 121.503
111.083 15001 122.479
111.199 18335 135.407
111.316 23357 152.83
111.432 27072 164.536
111.549 30030 173.292
111.665 32428 180.078
111.782 33351 182.623
111.898 34156 184.813
112.015 34782 186.499
112.132 36163 190.166
112.248 38478 196.158
112.365 38232 195.53
112.482 34986 187.045
112.599 31668 177.955
112.716 31903 178.614
112.832 33871 184.041
112.949 37924 194.741
113.066 42063 205.093
113.183 43326 208.149
113.3 42513 206.187
113.417 40710 201.767
113.534 38369 195.88
113.652 36533 191.136
113.769 33674 183.505
113.886 31061 176.241
114.003 28330 168.315
114.12 25456 159.549
114.238 21748 147.472
114.355 18407 135.672
114.472 16145 127.063
114.589 15290 123.653
114.707 15112 122.931
114.824 14597 120.818
114.942 14248 119.365
115.059 13625 116.726
115.176 12792 113.102
115.294 12326 111.023
115.411 11562 107.527
115.529 10674 103.315
115.646 9691 98.4429
115.764 7922 89.0056
115.881 6121 78.2368
115.999 4401 66.34
116.116 3187 56.4535
116.234 2388 48.8672
116.351 2053 45.31
116.469 1791 42.3202
116.586 1698 41.2068
116.704 1616 40.1995
116.821 1585 39.8121
116.939 1627 40.3361
117.056 1589 39.8623
117.174 1667 40.8289
117.291 1596 39.95
117.409 1643 40.5339
117.526 1745 41.7732
117.644 1744 41.7612
117.761 1684 41.0366
117.879 1557 39.4588
117.996 1374 37.0675
118.114 1400 37.4166
118.231 1460 38.2099
118.349 1536 39.1918
118.466 1562 39.5221
118.584 1642 40.5216
118.701 1635 40.4351
118.819 1542 39.2683
118.936 1660 40.7431
119.053 1573 39.6611
119.171 1571 39.6358
119.288 1581 39.7618
119.405 1628 40.3485
119.523 1463 38.2492
119.64 1369 37
119.757 1407 37.51
119.875 1327 36.428
119.992 1343 36.647
120.109 1517 38.9487
120.226 1518 38.9615
120.343 1472 38.3667
120.46 1473 38.3797
120.578 1487 38.5616
120.695 1496 38.6782
120.812 1512 38.8844
120.929 1477 38.4318
121.046 1554 39.4208
121.163 1527 39.0768
121.279 1564 39.5474
121.396 1545 39.3065
121.513 1373 37.054
121.63 1366 36.9594
121.747 1221 34.9428
121.863 1179 34.3366
121.98 1249 35.3412
122.097 1286 35.8608
122.213 1239 35.1994
122.33 1266 35.5809
122.446 1265 35.5668
122.563 1146 33.8526
122.679 1051 32.4191
122.795 1044 32.311
122.912 1030 32.0936
123.028 910 30.1662
123.144 794 28.178
123.26 768 27.7128
123.377 0 1
123.493 0 1
123.609 0 1
123.725 0 1
123.84 0 1
123.956 0 1
124.072 0 1
124.188 0 1
124.303 0 1
124.419 0 1
126.852 0 1
126.968 0 1
127.083 0 1
127.199 0 1
127.315 0 1
127.431 0 1
127.547 0 1
127.663 0 1
127.779 0 1
127.895 0 1
128.011 0 1
128.127 0 1
128.243 0 1
128.359 1618 40.2244
128.476 1606 40.0749
128.592 1598 39.975
128.708 1508 38.833
128.825 1618 40.2244
128.941 1547 39.3319
129.058 1632 40.398
129.174 1719 41.4608
129.291 1723 41.509
129.408 1731 41.6053
129.524 1681 41
129.641 1740 41.7133
129.758 1785 42.2493
129.875 1836 42.8486
129.992 1823 42.6966
130.108 1931 43.9431
130.225 1946 44.1135
130.342 1903 43.6234
130.459 1870 43.2435
130.576 1913 43.7379
130.693 1705 41.2916
130.81 1709 41.3401
130.928 1839 42.8836
131.045 1994 44.6542
131.162 2193 46.8295
131.279 2257 47.5079
131.396 2428 49.2747
131.513 2478 49.7795
131.631 2518 50.1797
131.748 2631 51.2933
131.865 2738 52.3259
131.983 2886 53.7215
132.1 2747 52.4118
132.217 2790 52.8205
132.335 2828 53.1789
132.452 3044 55.1725
132.57 3137 56.0089
132.687 3239 56.9122
132.804 3456 58.7878
132.922 3497 59.1354
133.039 3512 59.2621
133.157 3473 58.9322
133.274 3520 59.3296
133.392 3764 61.3514
133.509 3720 60.9918
133.627 3881 62.2977
133.744 3778 61.4654
133.862 3824 61.8385
133.979 3538 59.4811
134.097 3458 58.8048
134.214 3299 57.4369
134.332 3198 56.5509
134.449 3171 56.3116
134.567 3279 57.2626
134.684 3546 59.5483
134.802 3718 60.9754
134.919 3962 62.9444
135.037 3742 61.1719
135.154 3791 61.5711
135.272 3894 62.4019
135.389 3975 63.0476
135.507 3938 62.7535
135.624 3887 62.3458
135.742 3696 60.7947
135.859 3696 60.7947
135.977 3684 60.696
136.094 3699 60.8194
136.211 3770 61.4003
136.329 3925 62.6498
136.446 3956 62.8967
136.564 3874 62.2415
136.681 3881 62.2977
136.798 3872 62.2254
136.915 3963 62.9524
137.033 3906 62.498
137.15 3862 62.145
137.267 3867 62.1852
137.384 3918 62.5939
137.502 3694 60.7783
137.619 3522 59.3464
137.736 3378 58.1206
137.853 3031 55.0545
137.97 3188 56.4624
138.087 3192 56.4978
138.204 3371 58.0603
138.321 3473 58.9322
138.438 3506 59.2115
138.555 3621 60.1747
138.672 3619 60.1581
138.788 3552 59.5987
138.905 3641 60.3407
139.022 3485 59.0339
139.139 3463 58.8473
139.255 3201 56.5774
139.372 2985 54.6352
139.488 2713 52.0865
139.605 2626 51.2445
139.721 2588 50.8724
139.838 2585 50.8429
139.954 2483 49.8297
140.071 2324 48.2079
140.187 2211 47.0213
140.303 2107 45.9021
140.419 1987 44.5758
140.535 1939 44.0341
140.652 1867 43.2088
140.768 0 1
140.884 0 1
141 0 1
141.115 0 1
141.231 0 1
141.347 0 1
141.463 0 1
141.578 0 1
141.694 0 1
144.104 0 1
144.219 0 1
144.335 0 1
144.45 0 1
144.566 0 1
144.682 0 1
144.798 0 1
144.914 0 1
145.03 0 1
145.146 2674 51.7107
145.262 2929 54.1202
145.378 3052 55.2449
145.494 3155 56.1694
145.61 3134 55.9821
145.726 3278 57.2538
145.842 3346 57.8446
145.959 3437 58.6259
146.075 3450 58.7367
146.192 3548 59.5651
146.308 3534 59.4475
146.425 3518 59.3127
146.541 3456 58.7878
146.658 3275 57.2276
146.774 3147 56.0981
146.891 3347 57.8533
147.008 3670 60.5805
147.125 3676 60.63
147.241 3753 61.2617
147.358 3837 61.9435
147.475 3798 61.6279
147.592 3756 61.2862
147.709 3918 62.5939
147.826 3969 63
147.943 3949 62.8411
148.06 3846 62.0161
148.177 3768 61.384
148.294 3797 61.6198
148.411 3995 63.206
148.528 4162 64.5136
148.645 4158 64.4826
148.762 4565 67.5648
148.88 4630 68.0441
148.997 4970 70.4982
149.114 4947 70.3349
149.231 5384 73.3757
149.349 5747 75.809
149.466 5684 75.3923
149.583 6286 79.2843
149.701 6645 81.5169
149.818 7126 84.4156
149.935 7910 88.9382
150.053 8332 91.2798
150.17 9263 96.2445
150.287 9775 98.8686
150.405 9930 99.6494
150.522 10780 103.827
150.64 11588 107.648
150.757 12413 111.414
150.875 11726 108.287
150.992 11004 104.9
151.11 12881 113.494
151.227 14604 120.847
151.344 15638 125.052
151.462 16311 127.715
151.579 16760 129.46
151.697 17340 131.681
151.814 17520 132.363
151.932 17825 133.51
152.049 18132 134.655
152.167 18280 135.204
152.284 18446 135.816
152.402 18514 136.066
152.519 18043 134.324
152.636 18514 136.066
152.754 18195 134.889
152.871 17937 133.929
152.989 17893 133.765
153.106 18031 134.28
153.223 18155 134.74
153.341 18163 134.77
153.458 18019 134.235
153.575 17591 132.631
153.693 17177 131.061
153.81 16604 128.857
153.927 16734 129.36
154.044 16785 129.557
154.162 17216 131.21
154.279 17719 133.113
154.396 18040 134.313
154.513 17871 133.682
154.63 16664 129.089
154.747 15221 123.373
154.864 17220 131.225
154.981 20219 142.194
155.098 22223 149.074
155.215 23428 153.062
155.332 24847 157.629
155.449 25366 159.267
155.566 26470 162.696
155.683 28099 167.628
155.8 29572 171.965
155.917 30626 175.003
156.033 31834 178.421
156.15 0 1
156.267 0 1
156.383 0 1
156.5 0 1
156.617 0 1
156.733 0 1
156.85 0 1
156.966 0 1
157.082 0 1
157.199 0 1
157.315 0 1
157.431 0 1
157.547 0 1
157.664 0 1
157.78 0 1
157.896 0 1
158.012 0 1
158.128 0 1
158.244 0 1
158.359 0 1
158.475 0 1
158.591 0 1
158.706 0 1
