
6.15755 0 1
6.2731 0 1
6.3887 0 1
6.50437 0 1
6.62009 0 1
6.73587 0 1
6.8517 0 1
6.96759 0 1
7.08353 0 1
7.19952 0 1
7.31557 0 1
7.43166 0 1
7.54781 0 1
7.664 0 1
7.78024 0 1
7.89653 0 1
8.01286 0 1
8.12924 0 1
8.24567 0 1
8.36213 0 1
8.47864 0 1
8.59519 0 1
8.71178 0 1
8.82841 0 1
8.94508 0 1
9.06179 0 1
9.17853 0 1
9.29531 0 1
9.41212 0 1
9.52897 0 1
9.64584 0 1
9.76276 0 1
9.8797 0 1
9.99667 0 1
10.1137 0 1
10.2307 0 1
10.3478 0 1
10.4648 0 1
10.5819 0 1
10.6991 0 1
10.8162 0 1
10.9334 0 1
11.0506 0 1
11.1678 0 1
11.285 0 1
11.4023 0 1
11.5196 0 1
11.6369 0 1
11.7542 0 1
11.8715 0 1
11.9888 0 1
12.1062 0 1
12.2235 0 1
12.3409 0 1
12.4582 0 1
12.5756 0 1
12.693 0 1
12.8104 0 1
12.9278 0 1
13.0452 0 1
13.1626 0 1
13.28 0 1
13.3974 0 1
13.5149 0 1
13.6323 0 1
13.7497 0 1
13.8671 0 1
13.9845 0 1
14.1019 0 1
14.2193 0 1
14.3367 0 1
14.4541 0 1
14.5714 0 1
14.6888 0 1
14.8062 0 1
14.9235 0 1
15.0408 1034 32.1559
15.1581 1016 31.8748
15.2755 1083 32.909
15.3927 1041 32.2645
15.51 1066 32.6497
15.6273 1024 32
15.7445 1020 31.9374
15.8617 1014 31.8434
15.9789 1060 32.5576
16.0961 997 31.5753
16.2132 960 30.9839
16.3304 976 31.241
16.4475 991 31.4802
16.5646 943 30.7083
16.6816 954 30.8869
16.7986 984 31.3688
16.9156 920 30.3315
17.0326 936 30.5941
17.1496 811 28.4781
17.2665 973 31.1929
17.3833 933 30.545
17.5002 946 30.7571
17.617 956 30.9192
17.7338 939 30.6431
17.8505 962 31.0161
17.9672 908 30.133
18.0839 983 31.3528
18.2005 930 30.4959
18.3171 902 30.0333
18.4337 951 30.8383
18.5502 912 30.1993
18.6666 906 30.0998
18.7831 940 30.6594
18.8994 903 30.05
19.0158 873 29.5466
19.1321 782 27.9643
19.2483 804 28.3549
19.3645 733 27.074
19.4806 837 28.931
19.5967 693 26.3249
19.7128 747 27.3313
19.8288 675 25.9808
19.9447 575 23.9792
20.0606 0 1
20.1764 0 1
20.2922 0 1
20.4079 0 1
20.5236 0 1
20.6392 0 1
20.7548 0 1
20.8702 0 1
23.3078 0 1
23.4233 0 1
23.539 0 1
23.6547 0 1
23.7704 0 1
23.8862 0 1
24.0021 0 1
24.118 0 1
24.234 0 1
24.35 0 1
24.4661 366 19.1311
24.5822 437 20.9045
24.6984 502 22.4054
24.8146 518 22.7596
24.9309 611 24.7184
25.0472 691 26.2869
25.1636 752 27.4226
25.28 839 28.9655
25.3965 913 30.2159
25.513 969 31.1288
25.6296 940 30.6594
25.7462 988 31.4325
25.8628 955 30.9031
25.9795 1057 32.5115
26.0962 980 31.305
26.213 909 30.1496
26.3298 931 30.5123
26.4466 848 29.1204
26.5635 892 29.8664
26.6804 821 28.6531
26.7973 864 29.3939
26.9143 809 28.4429
27.0313 794 28.178
27.1483 788 28.0713
27.2653 788 28.0713
27.3824 817 28.5832
27.4996 885 29.7489
27.6167 812 28.4956
27.7339 818 28.6007
27.8511 785 28.0179
27.9683 860 29.3258
28.0855 828 28.775
28.2028 896 29.9333
28.3201 837 28.931
28.4374 820 28.6356
28.5547 819 28.6182
28.6721 779 27.9106
28.7894 831 28.8271
28.9068 857 29.2746
29.0242 785 28.0179
29.1416 841 29
29.259 887 29.7825
29.3764 846 29.0861
29.4939 872 29.5296
29.6113 756 27.4955
29.7288 841 29
29.8463 808 28.4253
29.9638 813 28.5132
30.0812 758 27.5318
30.1987 775 27.8388
30.3162 842 29.0172
30.4337 813 28.5132
30.5512 776 27.8568
30.6687 706 26.5707
30.7862 818 28.6007
30.9037 794 28.178
31.0212 826 28.7402
31.1387 831 28.8271
31.2562 818 28.6007
31.3737 823 28.688
31.4912 858 29.2916
31.6087 874 29.5635
31.7262 879 29.6479
31.8436 795 28.1957
31.9611 759 27.55
32.0785 748 27.3496
32.1959 767 27.6948
32.3134 820 28.6356
32.4308 805 28.3725
32.5482 728 26.9815
32.6655 744 27.2764
32.7829 724 26.9072
32.9002 738 27.1662
33.0176 727 26.9629
33.1349 727 26.9629
33.2522 721 26.8514
33.3694 747 27.3313
33.4867 791 28.1247
33.6039 774 27.8209
33.7211 773 27.8029
33.8383 752 27.4226
33.9554 763 27.6225
34.0725 754 27.4591
34.1896 741 27.2213
34.3067 711 26.6646
34.4237 749 27.3679
34.5407 717 26.7769
34.6577 800 28.2843
34.7746 776 27.8568
34.8915 761 27.5862
35.0084 719 26.8142
35.1252 753 27.4408
35.242 776 27.8568
35.3587 765 27.6586
35.4755 754 27.4591
35.5921 759 27.55
35.7088 700 26.4575
35.8254 681 26.096
35.9419 690 26.2679
36.0584 691 26.2869
36.1749 724 26.9072
36.2913 737 27.1477
36.4077 785 28.0179
36.524 746 27.313
36.6403 678 26.0384
36.7565 638 25.2587
36.8727 564 23.7487
36.9889 512 22.6274
37.1049 530 23.0217
37.221 0 1
37.3369 0 1
37.4529 0 1
37.5687 0 1
37.6845 0 1
37.8003 0 1
37.916 0 1
38.0316 0 1
38.1472 0 1
40.5851 0 1
40.7008 0 1
40.8164 0 1
40.9322 0 1
41.048 0 1
41.1639 0 1
41.2798 0 1
41.3958 0 1
41.5118 0 1
41.6279 0 1
41.744 288 16.9706
41.8602 362 19.0263
41.9765 459 21.4243
42.0928 455 21.3307
42.2091 598 24.454
42.3255 544 23.3238
42.4419 623 24.96
42.5584 547 23.388
42.675 581 24.1039
42.7915 566 23.7908
42.9081 602 24.5357
43.0248 595 24.3926
43.1415 546 23.3666
43.2582 590 24.2899
43.375 580 24.0832
43.4918 615 24.7992
43.6087 586 24.2074
43.7256 573 23.9374
43.8425 564 23.7487
43.9595 570 23.8747
44.0765 553 23.516
44.1935 643 25.3574
44.3106 588 24.2487
44.4277 558 23.622
44.5448 560 23.6643
44.6619 507 22.5167
44.7791 521 22.8254
44.8963 533 23.0868
45.0136 567 23.8118
45.1308 574 23.9583
45.2481 552 23.4947
45.3654 568 23.8328
45.4827 626 25.02
45.6001 626 25.02
45.7174 647 25.4362
45.8348 624 24.98
45.9522 643 25.3574
46.0697 648 25.4558
46.1871 614 24.779
46.3046 530 23.0217
46.422 602 24.5357
46.5395 520 22.8035
46.657 466 21.587
46.7745 522 22.8473
46.892 559 23.6432
47.0096 562 23.7065
47.1271 634 25.1794
47.2446 613 24.7588
47.3622 570 23.8747
47.4797 588 24.2487
47.5973 600 24.4949
47.7149 563 23.7276
47.8324 543 23.3024
47.95 569 23.8537
48.0675 488 22.0907
48.1851 489 22.1133
48.3027 491 22.1585
48.4202 482 21.9545
48.5378 575 23.9792
48.6554 562 23.7065
48.7729 615 24.7992
48.8904 617 24.8395
49.008 570 23.8747
49.1255 621 24.9199
49.243 556 23.5797
49.3605 589 24.2693
49.478 590 24.2899
49.5955 532 23.0651
49.713 592 24.3311
49.8304 536 23.1517
49.9479 460 21.4476
50.0653 457 21.3776
50.1827 454 21.3073
50.3001 506 22.4944
50.4175 543 23.3024
50.5348 479 21.8861
50.6521 491 22.1585
50.7694 540 23.2379
50.8867 555 23.5584
51.004 549 23.4307
51.1212 541 23.2594
51.2384 577 24.0208
51.3556 545 23.3452
51.4727 510 22.5832
51.5899 485 22.0227
51.707 490 22.1359
51.824 537 23.1733
51.9411 458 21.4009
52.0581 505 22.4722
52.175 525 22.9129
52.2919 563 23.7276
52.4088 519 22.7816
52.5257 543 23.3024
52.6425 545 23.3452
52.7593 544 23.3238
52.876 562 23.7065
52.9927 578 24.0416
53.1094 553 23.516
53.226 560 23.6643
53.3426 552 23.4947
53.4591 575 23.9792
53.5756 519 22.7816
53.692 439 20.9523
53.8084 406 20.1494
53.9248 376 19.3907
54.0411 386 19.6469
54.1573 330 18.1659
54.2735 0 1
54.3896 0 1
54.5057 0 1
54.6217 0 1
54.7377 0 1
54.8537 0 1
54.9695 0 1
55.0853 0 1
55.2011 0 1
55.3168 0 1
55.4324 0 1
57.824 0 1
57.9396 0 1
58.0553 0 1
58.1711 0 1
58.2869 0 1
58.4028 0 1
58.5187 0 1
58.6347 0 1
58.7508 0 1
58.8669 0 1
58.983 633 25.1595
59.0992 708 26.6083
59.2155 893 29.8831
59.3318 979 31.289
59.4482 1123 33.5112
59.5646 1191 34.5109
59.681 1309 36.1801
59.7975 1342 36.6333
59.9141 1427 37.7757
60.0306 1540 39.2428
60.1473 1548 39.3446
60.2639 1347 36.7015
60.3807 1295 35.9861
60.4974 1246 35.2987
60.6142 1357 36.8375
60.731 1816 42.6146
60.8479 2369 48.6724
60.9648 3004 54.8088
61.0818 3897 62.426
61.1987 4424 66.5132
61.3158 4994 70.6682
61.4328 5633 75.0533
61.5499 6211 78.8099
61.667 6355 79.7183
61.7841 6606 81.2773
61.9013 6340 79.6241
62.0185 5852 76.4984
62.1357 5158 71.8192
62.253 4123 64.2106
62.3702 3250 57.0088
62.4875 2620 51.1859
62.6049 2305 48.0104
62.7222 2156 46.4327
62.8396 1988 44.587
62.9569 1842 42.9185
63.0743 1588 39.8497
63.1918 1461 38.223
63.3092 1361 36.8917
63.4267 1294 35.9722
63.5441 1157 34.0147
63.6616 1062 32.5883
63.7791 953 30.8707
63.8966 775 27.8388
64.0142 733 27.074
64.1317 702 26.4953
64.2492 681 26.096
64.3668 708 26.6083
64.4843 683 26.1343
64.6019 792 28.1425
64.7195 730 27.0185
64.837 718 26.7955
64.9546 669 25.865
65.0722 689 26.2488
65.1898 666 25.807
65.3074 695 26.3629
65.4249 725 26.9258
65.5425 672 25.923
65.6601 695 26.3629
65.7777 642 25.3377
65.8952 574 23.9583
66.0128 562 23.7065
66.1304 617 24.8395
66.2479 613 24.7588
66.3655 663 25.7488
66.483 654 25.5734
66.6005 702 26.4953
66.718 776 27.8568
66.8355 713 26.7021
66.953 698 26.4197
67.0705 678 26.0384
67.1879 690 26.2679
67.3054 669 25.865
67.4228 636 25.219
67.5402 556 23.5797
67.6576 619 24.8797
67.7749 642 25.3377
67.8923 584 24.1661
68.0096 603 24.5561
68.1269 646 25.4165
68.2442 607 24.6374
68.3614 671 25.9037
68.4787 675 25.9808
68.5958 689 26.2488
68.713 743 27.258
68.8302 677 26.0192
68.9473 686 26.1916
69.0643 684 26.1534
69.1814 693 26.3249
69.2984 657 25.632
69.4154 627 25.04
69.5323 588 24.2487
69.6492 591 24.3105
69.7661 563 23.7276
69.8829 612 24.7386
69.9997 617 24.8395
70.1165 665 25.7876
70.2332 652 25.5343
70.3499 629 25.0799
70.4665 591 24.3105
70.5831 572 23.9165
70.6996 526 22.9347
70.8161 469 21.6564
70.9326 446 21.1187
71.049 363 19.0526
71.1653 356 18.868
71.2817 340 18.4391
71.3979 284 16.8523
71.5141 304 17.4356
71.6303 263 16.2173
71.7464 202 14.2127
71.8624 0 1
71.9784 0 1
72.0944 0 1
72.2102 0 1
72.3261 0 1
72.4418 0 1
72.5575 0 1
72.6732 0 1
75.1054 0 1
75.2209 0 1
75.3365 0 1
75.4521 0 1
75.5678 0 1
75.6835 0 1
75.7993 0 1
75.9151 0 1
76.031 0 1
76.147 402 20.0499
76.263 456 21.3542
76.3791 477 21.8403
76.4952 433 20.8087
76.6113 428 20.6882
76.7276 489 22.1133
76.8438 491 22.1585
76.9601 510 22.5832
77.0765 535 23.1301
77.1929 568 23.8328
77.3093 531 23.0434
77.4258 549 23.4307
77.5423 555 23.5584
77.6589 563 23.7276
77.7755 590 24.2899
77.8921 562 23.7065
78.0088 571 23.8956
78.1256 576 24
78.2423 583 24.1454
78.3591 508 22.5389
78.4759 479 21.8861
78.5928 451 21.2368
78.7097 450 21.2132
78.8266 484 22
78.9436 510 22.5832
79.0606 497 22.2935
79.1776 565 23.7697
79.2946 550 23.4521
79.4117 527 22.9565
79.5288 534 23.1084
79.6459 582 24.1247
79.7631 589 24.2693
79.8802 517 22.7376
79.9974 544 23.3238
80.1147 478 21.8632
80.2319 502 22.4054
80.3491 486 22.0454
80.4664 569 23.8537
80.5837 526 22.9347
80.701 556 23.5797
80.8183 532 23.0651
80.9357 566 23.7908
81.053 570 23.8747
81.1704 551 23.4734
81.2877 585 24.1868
81.4051 541 23.2594
81.5225 601 24.5153
81.6399 530 23.0217
81.7573 537 23.1733
81.8747 599 24.4745
81.9922 493 22.2036
82.1096 513 22.6495
82.227 498 22.3159
82.3444 489 22.1133
82.4619 514 22.6716
82.5793 565 23.7697
82.6967 602 24.5357
82.8142 540 23.2379
82.9316 594 24.3721
83.049 588 24.2487
83.1664 557 23.6008
83.2838 555 23.5584
83.4012 624 24.98
83.5186 543 23.3024
83.636 557 23.6008
83.7534 505 22.4722
83.8708 502 22.4054
83.9881 523 22.8692
84.1055 541 23.2594
84.2228 525 22.9129
84.3401 597 24.4336
84.4575 587 24.2281
84.5747 586 24.2074
84.692 587 24.2281
84.8093 573 23.9374
84.9265 595 24.3926
85.0437 573 23.9374
85.1609 609 24.6779
85.2781 605 24.5967
85.3952 575 23.9792
85.5123 508 22.5389
85.6294 506 22.4944
85.7465 513 22.6495
85.8636 556 23.5797
85.9806 516 22.7156
86.0976 543 23.3024
86.2145 573 23.9374
86.3315 590 24.2899
86.4484 542 23.2809
86.5652 564 23.7487
86.682 577 24.0208
86.7988 578 24.0416
86.9156 589 24.2693
87.0323 563 23.7276
87.149 563 23.7276
87.2657 512 22.6274
87.3823 460 21.4476
87.4988 530 23.0217
87.6154 513 22.6495
87.7318 485 22.0227
87.8483 501 22.383
87.9647 488 22.0907
88.081 450 21.2132
88.1973 415 20.3715
88.3136 382 19.5448
88.4298 369 19.2094
88.546 374 19.3391
88.6621 353 18.7883
88.7781 331 18.1934
88.8942 0 1
89.0101 0 1
89.126 0 1
89.2419 0 1
89.3577 0 1
89.4734 0 1
89.5891 0 1
89.7047 0 1
89.8203 0 1
89.9358 0 1
92.3269 0 1
92.4424 0 1
92.558 0 1
92.6736 0 1
92.7893 0 1
92.905 0 1
93.0208 0 1
93.1366 0 1
93.2525 0 1
93.3685 0 1
93.4845 0 1
93.6005 432 20.7846
93.7167 459 21.4243
93.8328 452 21.2603
93.949 523 22.8692
94.0653 537 23.1733
94.1816 541 23.2594
94.2979 556 23.5797
94.4143 613 24.7588
94.5307 575 23.9792
94.6472 519 22.7816
94.7637 576 24
94.8803 520 22.8035
94.9969 493 22.2036
95.1135 514 22.6716
95.2302 543 23.3024
95.3469 549 23.4307
95.4637 569 23.8537
95.5805 610 24.6982
95.6973 567 23.8118
95.8142 612 24.7386
95.9311 617 24.8395
96.048 555 23.5584
96.1649 590 24.2899
96.2819 608 24.6577
96.3989 506 22.4944
96.516 529 23
96.633 485 22.0227
96.7501 590 24.2899
96.8673 531 23.0434
96.9844 579 24.0624
97.1016 565 23.7697
97.2188 516 22.7156
97.336 541 23.2594
97.4532 532 23.0651
97.5704 603 24.5561
97.6877 592 24.3311
97.805 598 24.454
97.9223 586 24.2074
98.0396 594 24.3721
98.1569 568 23.8328
98.2743 567 23.8118
98.3916 568 23.8328
98.509 590 24.2899
98.6264 543 23.3024
98.7438 536 23.1517
98.8612 539 23.2164
98.9786 581 24.1039
99.096 601 24.5153
99.2134 645 25.3969
99.3308 663 25.7488
99.4482 574 23.9583
99.5656 596 24.4131
99.6831 549 23.4307
99.8005 566 23.7908
99.9179 574 23.9583
100.035 545 23.3452
100.153 563 23.7276
100.27 595 24.3926
100.388 613 24.7588
100.505 620 24.8998
100.622 592 24.3311
100.74 580 24.0832
100.857 536 23.1517
100.975 596 24.4131
101.092 579 24.0624
101.209 594 24.3721
101.327 621 24.9199
101.444 592 24.3311
101.561 598 24.454
101.679 587 24.2281
101.796 551 23.4734
101.913 581 24.1039
102.03 541 23.2594
102.148 533 23.0868
102.265 596 24.4131
102.382 612 24.7386
102.499 598 24.454
102.616 653 25.5539
102.733 629 25.0799
102.851 627 25.04
102.968 585 24.1868
103.085 614 24.779
103.202 631 25.1197
103.319 617 24.8395
103.436 616 24.8193
103.552 587 24.2281
103.669 629 25.0799
103.786 631 25.1197
103.903 608 24.6577
104.02 618 24.8596
104.137 614 24.779
104.253 628 25.0599
104.37 598 24.454
104.487 628 25.0599
104.603 590 24.2899
104.72 622 24.9399
104.836 599 24.4745
104.953 552 23.4947
105.069 565 23.7697
105.186 579 24.0624
105.302 529 23
105.418 506 22.4944
105.535 444 21.0713
105.651 416 20.3961
105.767 356 18.868
105.883 384 19.5959
105.999 312 17.6635
106.115 0 1
106.231 0 1
106.347 0 1
106.463 0 1
106.579 0 1
106.694 0 1
106.81 0 1
106.926 0 1
107.041 0 1
107.157 0 1
109.576 0 1
109.692 0 1
109.807 0 1
109.923 0 1
110.039 0 1
110.155 0 1
110.27 0 1
110.386 0 1
110.502 0 1
110.618 309 17.5784
110.735 331 18.1934
110.851 393 19.8242
110.967 412 20.2978
111.083 513 22.6495
111.199 561 23.6854
111.316 555 23.5584
111.432 596 24.4131
111.549 643 25.3574
111.665 573 23.9374
111.782 607 24.6374
111.898 562 23.7065
112.015 565 23.7697
112.132 570 23.8747
112.248 528 22.9783
112.365 571 23.8956
112.482 562 23.7065
112.599 511 22.6053
112.716 594 24.3721
112.832 553 23.516
112.949 547 23.388
113.066 543 23.3024
113.183 538 23.1948
113.3 549 23.4307
113.417 534 23.1084
113.534 511 22.6053
113.652 526 22.9347
113.769 511 22.6053
113.886 538 23.1948
114.003 526 22.9347
114.12 469 21.6564
114.238 525 22.9129
114.355 531 23.0434
114.472 455 21.3307
114.589 555 23.5584
114.707 465 21.5639
114.824 500 22.3607
114.942 582 24.1247
115.059 551 23.4734
115.176 502 22.4054
115.294 480 21.9089
115.411 525 22.9129
115.529 504 22.4499
115.646 507 22.5167
115.764 522 22.8473
115.881 484 22
115.999 467 21.6102
116.116 501 22.383
116.234 515 22.6936
116.351 498 22.3159
116.469 469 21.6564
116.586 478 21.8632
116.704 477 21.8403
116.821 462 21.4942
116.939 503 22.4277
117.056 493 22.2036
117.174 465 21.5639
117.291 501 22.383
117.409 487 22.0681
117.526 465 21.5639
117.644 436 20.8806
117.761 452 21.2603
117.879 467 21.6102
117.996 434 20.8327
118.114 493 22.2036
118.231 470 21.6795
118.349 501 22.383
118.466 504 22.4499
118.584 499 22.3383
118.701 513 22.6495
118.819 458 21.4009
118.936 450 21.2132
119.053 438 20.9284
119.171 450 21.2132
119.288 512 22.6274
119.405 461 21.4709
119.523 471 21.7025
119.64 453 21.2838
119.757 498 22.3159
119.875 485 22.0227
119.992 459 21.4243
120.109 450 21.2132
120.226 421 20.5183
120.343 418 20.445
120.46 416 20.3961
120.578 466 21.587
120.695 455 21.3307
120.812 454 21.3073
120.929 436 20.8806
121.046 450 21.2132
121.163 446 21.1187
121.279 401 20.025
121.396 400 20
121.513 389 19.7231
121.63 403 20.0749
121.747 394 19.8494
121.863 376 19.3907
121.98 433 20.8087
122.097 411 20.2731
122.213 367 19.1572
122.33 378 19.4422
122.446 368 19.1833
122.563 328 18.1108
122.679 315 17.7482
122.795 284 16.8523
122.912 286 16.9115
123.028 292 17.088
123.144 290 17.0294
123.26 272 16.4924
123.377 0 1
123.493 0 1
123.609 0 1
123.725 0 1
123.84 0 1
123.956 0 1
124.072 0 1
124.188 0 1
124.303 0 1
124.419 0 1
126.852 0 1
126.968 0 1
127.083 0 1
127.199 0 1
127.315 0 1
127.431 0 1
127.547 0 1
127.663 0 1
127.779 0 1
127.895 0 1
128.011 0 1
128.127 0 1
128.243 0 1
128.359 476 21.8174
128.476 508 22.5389
128.592 510 22.5832
128.708 512 22.6274
128.825 513 22.6495
128.941 559 23.6432
129.058 564 23.7487
129.174 606 24.6171
129.291 596 24.4131
129.408 719 26.8142
129.524 782 27.9643
129.641 891 29.8496
129.758 1080 32.8634
129.875 1303 36.0971
129.992 1742 41.7373
130.108 2182 46.7119
130.225 2687 51.8363
130.342 3317 57.5934
130.459 4097 64.0078
130.576 4944 70.3136
130.693 5973 77.2852
130.81 6934 83.2706
130.928 8439 91.864
131.045 10198 100.985
131.162 12308 110.941
131.279 14015 118.385
131.396 16130 127.004
131.513 18057 134.376
131.631 20805 144.239
131.748 24419 156.266
131.865 28709 169.437
131.983 33512 183.063
132.1 38459 196.11
132.217 43617 208.847
132.335 48405 220.011
132.452 52340 228.779
132.57 56219 237.105
132.687 57949 240.726
132.804 61587 248.167
132.922 61633 248.26
133.039 61914 248.825
133.157 62591 250.182
133.274 61449 247.889
133.392 59585 244.1
133.509 56557 237.817
133.627 53855 232.067
133.744 51673 227.317
133.862 50833 225.462
133.979 50471 224.658
134.097 50477 224.671
134.214 50598 224.94
134.332 49886 223.352
134.449 47725 218.461
134.567 44989 212.106
134.684 42174 205.363
134.802 40285 200.711
134.919 40186 200.464
135.037 40020 200.05
135.154 39017 197.527
135.272 37698 194.16
135.389 35826 189.278
135.507 35046 187.206
135.624 34356 185.354
135.742 33574 183.232
135.859 31842 178.443
135.977 30338 174.178
136.094 29078 170.523
136.211 27815 166.778
136.329 26533 162.89
136.446 24451 156.368
136.564 22940 151.46
136.681 21252 145.781
136.798 19426 139.377
136.915 18357 135.488
137.033 17124 130.859
137.15 15937 126.242
137.267 14337 119.737
137.384 12959 113.838
137.502 11411 106.822
137.619 10222 101.104
137.736 9009 94.9158
137.853 8192 90.5097
137.97 8059 89.7719
138.087 7793 88.278
138.204 6989 83.6002
138.321 6384 79.8999
138.438 5917 76.922
138.555 6108 78.1537
138.672 6257 79.1012
138.788 6331 79.5676
138.905 5707 75.5447
139.022 5152 71.7774
139.139 4668 68.3228
139.255 4616 67.9412
139.372 4313 65.6734
139.488 3804 61.6766
139.605 3400 58.3095
139.721 3119 55.848
139.838 3107 55.7405
139.954 2709 52.0481
140.071 2493 49.93
140.187 2347 48.4458
140.303 2168 46.5618
140.419 2169 46.5725
140.535 1970 44.3847
140.652 1816 42.6146
140.768 0 1
140.884 0 1
141 0 1
141.115 0 1
141.231 0 1
141.347 0 1
141.463 0 1
141.578 0 1
141.694 0 1
144.104 0 1
144.219 0 1
144.335 0 1
144.45 0 1
144.566 0 1
144.682 0 1
144.798 0 1
144.914 0 1
145.03 0 1
145.146 1602 40.025
145.262 1617 40.2119
145.378 1658 40.7185
145.494 1519 38.9744
145.61 1592 39.8999
145.726 1694 41.1582
145.842 1600 40
145.959 1675 40.9268
146.075 1707 41.3159
146.192 1672 40.8901
146.308 1710 41.3521
146.425 1689 41.0974
146.541 1686 41.0609
146.658 1617 40.2119
146.774 1655 40.6817
146.891 1591 39.8873
147.008 1672 40.8901
147.125 1820 42.6615
147.241 1842 42.9185
147.358 1875 43.3013
147.475 2009 44.8219
147.592 1823 42.6966
147.709 1703 41.2674
147.826 1615 40.1871
147.943 1572 39.6485
148.06 1614 40.1746
148.177 1748 41.8091
148.294 1814 42.5911
148.411 1932 43.9545
148.528 1921 43.8292
148.645 1996 44.6766
148.762 2023 44.9778
148.88 2099 45.8148
148.997 2026 45.0111
149.114 1896 43.5431
149.231 1987 44.5758
149.349 2033 45.0888
149.466 1950 44.1588
149.583 2062 45.4093
149.701 1940 44.0454
149.818 1907 43.6692
149.935 1972 44.4072
150.053 1909 43.6921
150.17 1840 42.8952
150.287 1873 43.2782
150.405 1713 41.3884
150.522 1867 43.2088
150.64 1812 42.5676
150.757 1799 42.4146
150.875 1835 42.8369
150.992 1797 42.391
151.11 1834 42.8252
151.227 1750 41.833
151.344 1629 40.3609
151.462 1639 40.4846
151.579 1448 38.0526
151.697 1509 38.8458
151.814 1705 41.2916
151.932 1686 41.0609
152.049 1799 42.4146
152.167 1838 42.8719
152.284 1880 43.359
152.402 1711 41.3642
152.519 1829 42.7668
152.636 1843 42.9302
152.754 1746 41.7852
152.871 1811 42.5558
152.989 1735 41.6533
153.106 1744 41.7612
153.223 1790 42.3084
153.341 1696 41.1825
153.458 1663 40.7799
153.575 1588 39.8497
153.693 1533 39.1535
153.81 1462 38.2361
153.927 1542 39.2683
154.044 1437 37.9078
154.162 1531 39.128
154.279 1537 39.2046
154.396 1566 39.5727
154.513 1612 40.1497
154.63 1640 40.4969
154.747 1554 39.4208
154.864 1516 38.9358
154.981 1569 39.6106
155.098 1459 38.1969
155.215 1438 37.921
155.332 1382 37.1753
155.449 1488 38.5746
155.566 1503 38.7685
155.683 1592 39.8999
155.8 1521 39
155.917 1607 40.0874
156.033 1482 38.4968
156.15 0 1
156.267 0 1
156.383 0 1
156.5 0 1
156.617 0 1
156.733 0 1
156.85 0 1
156.966 0 1
157.082 0 1
157.199 0 1
157.315 0 1
157.431 0 1
157.547 0 1
157.664 0 1
157.78 0 1
157.896 0 1
158.012 0 1
158.128 0 1
158.244 0 1
158.359 0 1
158.475 0 1
158.591 0 1
158.706 0 1
