
6.15755 0 1
6.2731 0 1
6.3887 0 1
6.50437 0 1
6.62009 0 1
6.73587 0 1
6.8517 0 1
6.96759 0 1
7.08353 0 1
7.19952 0 1
7.31557 0 1
7.43166 0 1
7.54781 0 1
7.664 0 1
7.78024 0 1
7.89653 0 1
8.01286 0 1
8.12924 0 1
8.24567 0 1
8.36213 0 1
8.47864 0 1
8.59519 0 1
8.71178 0 1
8.82841 0 1
8.94508 0 1
9.06179 0 1
9.17853 0 1
9.29531 0 1
9.41212 0 1
9.52897 0 1
9.64584 0 1
9.76276 0 1
9.8797 0 1
9.99667 0 1
10.1137 0 1
10.2307 0 1
10.3478 0 1
10.4648 0 1
10.5819 0 1
10.6991 0 1
10.8162 0 1
10.9334 0 1
11.0506 0 1
11.1678 0 1
11.285 0 1
11.4023 0 1
11.5196 0 1
11.6369 0 1
11.7542 0 1
11.8715 0 1
11.9888 0 1
12.1062 0 1
12.2235 0 1
12.3409 0 1
12.4582 0 1
12.5756 0 1
12.693 0 1
12.8104 0 1
12.9278 0 1
13.0452 0 1
13.1626 0 1
13.28 0 1
13.3974 0 1
13.5149 0 1
13.6323 0 1
13.7497 0 1
13.8671 0 1
13.9845 0 1
14.1019 0 1
14.2193 0 1
14.3367 0 1
14.4541 0 1
14.5714 0 1
14.6888 0 1
14.8062 0 1
14.9235 0 1
15.0408 0 0
15.1581 0 0
15.2755 0 0
15.3927 0 0
15.51 0 0
15.6273 0 0
15.7445 0 0
15.8617 0 0
15.9789 0 0
16.0961 0 0
16.2132 0 0
16.3304 0 0
16.4475 0 0
16.5646 0 0
16.6816 0 0
16.7986 0 0
16.9156 0 0
17.0326 0 0
17.1496 0 0
17.2665 0 0
17.3833 0 0
17.5002 0 0
17.617 0 0
17.7338 0 0
17.8505 0 0
17.9672 0 0
18.0839 0 0
18.2005 0 0
18.3171 0 0
18.4337 0 0
18.5502 0 0
18.6666 0 0
18.7831 0 0
18.8994 0 0
19.0158 0 0
19.1321 0 0
19.2483 0 0
19.3645 0 0
19.4806 0 0
19.5967 0 0
19.7128 0 0
19.8288 0 0
19.9447 0 0
20.0606 0 1
20.1764 0 1
20.2922 0 1
20.4079 0 1
20.5236 0 1
20.6392 0 1
20.7548 0 1
20.8702 0 1
23.3078 0 1
23.4233 0 1
23.539 0 1
23.6547 0 1
23.7704 0 1
23.8862 0 1
24.0021 0 1
24.118 0 1
24.234 0 1
24.35 0 1
24.4661 2862 53.4977
24.5822 2722 52.1728
24.6984 2726 52.2111
24.8146 2668 51.6527
24.9309 2604 51.0294
25.0472 2590 50.892
25.1636 2448 49.4773
25.28 2611 51.0979
25.3965 2703 51.9904
25.513 2809 53
25.6296 3074 55.4437
25.7462 3216 56.7098
25.8628 3428 58.5491
25.9795 3426 58.532
26.0962 3416 58.4466
26.213 3465 58.8643
26.3298 3384 58.1722
26.4466 3388 58.2065
26.5635 3401 58.3181
26.6804 3356 57.931
26.7973 3328 57.6888
26.9143 3438 58.6345
27.0313 3351 57.8878
27.1483 3291 57.3672
27.2653 3547 59.5567
27.3824 3438 58.6345
27.4996 3322 57.6368
27.6167 3374 58.0861
27.7339 3230 56.8331
27.8511 3248 56.9912
27.9683 3040 55.1362
28.0855 2950 54.3139
28.2028 2978 54.5711
28.3201 2780 52.7257
28.4374 2546 50.4579
28.5547 2394 48.9285
28.6721 2288 47.833
28.7894 2510 50.0999
28.9068 2585 50.8429
29.0242 2730 52.2494
29.1416 2952 54.3323
29.259 3157 56.1872
29.3764 3120 55.857
29.4939 3354 57.9137
29.6113 3323 57.6455
29.7288 3259 57.0877
29.8463 3291 57.3672
29.9638 3273 57.2101
30.0812 3396 58.2752
30.1987 3254 57.0438
30.3162 3278 57.2538
30.4337 3411 58.4038
30.5512 3334 57.7408
30.6687 3281 57.28
30.7862 3364 58
30.9037 3276 57.2364
31.0212 3404 58.3438
31.1387 3293 57.3847
31.2562 3250 57.0088
31.3737 3160 56.2139
31.4912 3102 55.6956
31.6087 2940 54.2218
31.7262 2913 53.9722
31.8436 2770 52.6308
31.9611 2560 50.5964
32.0785 2388 48.8672
32.1959 2204 46.9468
32.3134 2241 47.3392
32.4308 2413 49.1223
32.5482 2608 51.0686
32.6655 2749 52.4309
32.7829 2975 54.5436
32.9002 3156 56.1783
33.0176 3216 56.7098
33.1349 3264 57.1314
33.2522 3281 57.28
33.3694 3136 56
33.4867 3105 55.7225
33.6039 3314 57.5674
33.7211 3288 57.3411
33.8383 3123 55.8838
33.9554 3303 57.4717
34.0725 3175 56.3471
34.1896 3172 56.3205
34.3067 3245 56.9649
34.4237 3255 57.0526
34.5407 3267 57.1577
34.6577 3203 56.5951
34.7746 3244 56.9561
34.8915 3262 57.1139
35.0084 3037 55.109
35.1252 3065 55.3624
35.242 2839 53.2823
35.3587 2852 53.4041
35.4755 2703 51.9904
35.5921 2597 50.9608
35.7088 2451 49.5076
35.8254 2250 47.4342
35.9419 2020 44.9444
36.0584 2229 47.2123
36.1749 2332 48.2908
36.2913 2441 49.4065
36.4077 2653 51.5073
36.524 2836 53.2541
36.6403 3020 54.9545
36.7565 3068 55.3895
36.8727 3116 55.8211
36.9889 3113 55.7943
37.1049 2959 54.3967
37.221 0 1
37.3369 0 1
37.4529 0 1
37.5687 0 1
37.6845 0 1
37.8003 0 1
37.916 0 1
38.0316 0 1
38.1472 0 1
40.5851 0 1
40.7008 0 1
40.8164 0 1
40.9322 0 1
41.048 0 1
41.1639 0 1
41.2798 0 1
41.3958 0 1
41.5118 0 1
41.6279 0 1
41.744 2249 47.4236
41.8602 2503 50.03
41.9765 2408 49.0714
42.0928 2699 51.9519
42.2091 2700 51.9615
42.3255 2722 52.1728
42.4419 2774 52.6688
42.5584 2631 51.2933
42.675 2575 50.7445
42.7915 2644 51.4198
42.9081 2533 50.3289
43.0248 2663 51.6043
43.1415 2638 51.3615
43.2582 2528 50.2792
43.375 2658 51.5558
43.4918 2585 50.8429
43.6087 2577 50.7642
43.7256 2586 50.8527
43.8425 2417 49.163
43.9595 2315 48.1144
44.0765 2291 47.8644
44.1935 2104 45.8694
44.3106 2088 45.6946
44.4277 1855 43.0697
44.5448 1791 42.3202
44.6619 1531 39.128
44.7791 1491 38.6135
44.8963 1519 38.9744
45.0136 1674 40.9145
45.1308 1712 41.3763
45.2481 1840 42.8952
45.3654 1973 44.4185
45.4827 2019 44.9333
45.6001 2107 45.9021
45.7174 1987 44.5758
45.8348 1947 44.1248
45.9522 2017 44.911
46.0697 2052 45.299
46.1871 1914 43.7493
46.3046 1886 43.4281
46.422 1916 43.7721
46.5395 1911 43.715
46.657 1897 43.5546
46.7745 1922 43.8406
46.892 1792 42.332
47.0096 1852 43.0349
47.1271 1846 42.9651
47.2446 1784 42.2374
47.3622 1763 41.9881
47.4797 1749 41.821
47.5973 1708 41.328
47.7149 1648 40.5956
47.8324 1507 38.8201
47.95 1418 37.6563
48.0675 1283 35.819
48.1851 1203 34.6843
48.3027 1093 33.0606
48.4202 1074 32.7719
48.5378 1164 34.1174
48.6554 1205 34.7131
48.7729 1396 37.3631
48.8904 1525 39.0512
49.008 1537 39.2046
49.1255 1636 40.4475
49.243 1576 39.6989
49.3605 1549 39.3573
49.478 1584 39.7995
49.5955 1567 39.5854
49.713 1616 40.1995
49.8304 1603 40.0375
49.9479 1635 40.4351
50.0653 1616 40.1995
50.1827 1694 41.1582
50.3001 1683 41.0244
50.4175 1713 41.3884
50.5348 1740 41.7133
50.6521 1772 42.0951
50.7694 1860 43.1277
50.8867 1955 44.2154
51.004 1922 43.8406
51.1212 1894 43.5201
51.2384 1773 42.107
51.3556 1851 43.0232
51.4727 1658 40.7185
51.5899 1521 39
51.707 1474 38.3927
51.824 1440 37.9473
51.9411 1433 37.855
52.0581 1569 39.6106
52.175 1707 41.3159
52.2919 2007 44.7996
52.4088 2256 47.4974
52.5257 2387 48.8569
52.6425 2376 48.7442
52.7593 2542 50.4183
52.876 2450 49.4975
52.9927 2534 50.3389
53.1094 2558 50.5767
53.226 2557 50.5668
53.3426 2549 50.4876
53.4591 2514 50.1398
53.5756 2665 51.6236
53.692 2629 51.2738
53.8084 2732 52.2685
53.9248 2887 53.7308
54.0411 2831 53.2071
54.1573 2910 53.9444
54.2735 0 1
54.3896 0 1
54.5057 0 1
54.6217 0 1
54.7377 0 1
54.8537 0 1
54.9695 0 1
55.0853 0 1
55.2011 0 1
55.3168 0 1
55.4324 0 1
57.824 0 1
57.9396 0 1
58.0553 0 1
58.1711 0 1
58.2869 0 1
58.4028 0 1
58.5187 0 1
58.6347 0 1
58.7508 0 1
58.8669 0 1
58.983 3011 54.8726
59.0992 3169 56.2939
59.2155 3205 56.6127
59.3318 3314 57.5674
59.4482 3274 57.2189
59.5646 3395 58.2666
59.681 3301 57.4543
59.7975 3155 56.1694
59.9141 3027 55.0182
60.0306 2871 53.5817
60.1473 2638 51.3615
60.2639 2441 49.4065
60.3807 2171 46.594
60.4974 2052 45.299
60.6142 1925 43.8748
60.731 2120 46.0435
60.8479 2283 47.7807
60.9648 2538 50.3786
61.0818 2712 52.0769
61.1987 2945 54.2679
61.3158 2956 54.3691
61.4328 2980 54.5894
61.5499 2922 54.0555
61.667 2909 53.9351
61.7841 2829 53.1883
61.9013 2945 54.2679
62.0185 2822 53.1225
62.1357 2987 54.6535
62.253 2844 53.3292
62.3702 2838 53.2729
62.4875 2889 53.7494
62.6049 2920 54.037
62.7222 2980 54.5894
62.8396 2931 54.1387
62.9569 3004 54.8088
63.0743 2866 53.535
63.1918 2953 54.3415
63.3092 2806 52.9717
63.4267 2798 52.8961
63.5441 2638 51.3615
63.6616 2327 48.239
63.7791 2113 45.9674
63.8966 1822 42.6849
64.0142 1733 41.6293
64.1317 1638 40.4722
64.2492 1809 42.5323
64.3668 2012 44.8553
64.4843 2101 45.8367
64.6019 2497 49.97
64.7195 2555 50.547
64.837 2624 51.225
64.9546 2727 52.2207
65.0722 2641 51.3907
65.1898 2723 52.1824
65.3074 2623 51.2152
65.4249 2597 50.9608
65.5425 2574 50.7346
65.6601 2602 51.0098
65.7777 2634 51.3225
65.8952 2655 51.5267
66.0128 2718 52.1344
66.1304 2793 52.8488
66.2479 2810 53.0094
66.3655 2778 52.7067
66.483 2833 53.2259
66.6005 2838 53.2729
66.718 2810 53.0094
66.8355 2823 53.1319
66.953 2668 51.6527
67.0705 2627 51.2543
67.1879 2439 49.3862
67.3054 2293 47.8853
67.4228 1994 44.6542
67.5402 1782 42.2137
67.6576 1517 38.9487
67.7749 1537 39.2046
67.8923 1696 41.1825
68.0096 1853 43.0465
68.1269 2171 46.594
68.2442 2448 49.4773
68.3614 2540 50.3984
68.4787 2659 51.5655
68.5958 2586 50.8527
68.713 2760 52.5357
68.8302 2608 51.0686
68.9473 2700 51.9615
69.0643 2764 52.5738
69.1814 2644 51.4198
69.2984 2686 51.8266
69.4154 2771 52.6403
69.5323 2864 53.5164
69.6492 2824 53.1413
69.7661 2850 53.3854
69.8829 3013 54.8908
69.9997 3048 55.2087
70.1165 2983 54.6168
70.2332 3123 55.8838
70.3499 3000 54.7723
70.4665 3086 55.5518
70.5831 3072 55.4256
70.6996 2944 54.2586
70.8161 2808 52.9906
70.9326 2597 50.9608
71.049 2490 49.8999
71.1653 1965 44.3283
71.2817 1698 41.2068
71.3979 1488 38.5746
71.5141 1546 39.3192
71.6303 1585 39.8121
71.7464 1739 41.7013
71.8624 0 1
71.9784 0 1
72.0944 0 1
72.2102 0 1
72.3261 0 1
72.4418 0 1
72.5575 0 1
72.6732 0 1
75.1054 0 1
75.2209 0 1
75.3365 0 1
75.4521 0 1
75.5678 0 1
75.6835 0 1
75.7993 0 1
75.9151 0 1
76.031 0 1
76.147 2443 49.4267
76.263 2567 50.6656
76.3791 2400 48.9898
76.4952 2117 46.0109
76.6113 1697 41.1947
76.7276 1580 39.7492
76.8438 1560 39.4968
76.9601 1737 41.6773
77.0765 2102 45.8476
77.1929 2407 49.0612
77.3093 2734 52.2877
77.4258 2900 53.8516
77.5423 2819 53.0943
77.6589 2841 53.301
77.7755 2892 53.7773
77.8921 2867 53.5444
78.0088 2805 52.9623
78.1256 2750 52.4404
78.2423 2839 53.2823
78.3591 2716 52.1153
78.4759 2803 52.9434
78.5928 2829 53.1883
78.7097 2930 54.1295
78.8266 2884 53.7029
78.9436 3145 56.0803
79.0606 3057 55.2901
79.1776 3054 55.263
79.2946 3011 54.8726
79.4117 2893 53.7866
79.5288 2926 54.0925
79.6459 2886 53.7215
79.7631 2796 52.8772
79.8802 2694 51.9038
79.9974 2483 49.8297
80.1147 2182 46.7119
80.2319 1825 42.72
80.3491 1419 37.6696
80.4664 1357 36.8375
80.5837 1603 40.0375
80.701 1822 42.6849
80.8183 2086 45.6727
80.9357 2417 49.163
81.053 2568 50.6754
81.1704 2670 51.672
81.2877 2596 50.951
81.4051 2557 50.5668
81.5225 2602 51.0098
81.6399 2511 50.1099
81.7573 2551 50.5074
81.8747 2447 49.4672
81.9922 2387 48.8569
82.1096 2595 50.9411
82.227 2513 50.1298
82.3444 2595 50.9411
82.4619 2534 50.3389
82.5793 2838 53.2729
82.6967 2605 51.0392
82.8142 2617 51.1566
82.9316 2575 50.7445
83.049 2596 50.951
83.1664 2615 51.1371
83.2838 2501 50.01
83.4012 2355 48.5283
83.5186 2299 47.9479
83.636 2160 46.4758
83.7534 1944 44.0908
83.8708 1607 40.0874
83.9881 1286 35.8608
84.1055 1225 35
84.2228 1310 36.1939
84.3401 1475 38.4057
84.4575 1789 42.2966
84.5747 2064 45.4313
84.692 2337 48.3425
84.8093 2389 48.8774
84.9265 2353 48.5077
85.0437 2371 48.6929
85.1609 2303 47.9896
85.2781 2263 47.571
85.3952 2277 47.7179
85.5123 2403 49.0204
85.6294 2378 48.7647
85.7465 2461 49.6085
85.8636 2506 50.06
85.9806 2660 51.5752
86.0976 2610 51.0882
86.2145 2844 53.3292
86.3315 2845 53.3385
86.4484 2707 52.0288
86.5652 2789 52.811
86.682 2769 52.6213
86.7988 2772 52.6498
86.9156 2735 52.2972
87.0323 2582 50.8134
87.149 2605 51.0392
87.2657 2430 49.295
87.3823 2180 46.6905
87.4988 1739 41.7013
87.6154 1608 40.0999
87.7318 1638 40.4722
87.8483 1798 42.4028
87.9647 2086 45.6727
88.081 2561 50.6063
88.1973 2793 52.8488
88.3136 2863 53.507
88.4298 2776 52.6878
88.546 2906 53.9073
88.6621 2770 52.6308
88.7781 2929 54.1202
88.8942 0 1
89.0101 0 1
89.126 0 1
89.2419 0 1
89.3577 0 1
89.4734 0 1
89.5891 0 1
89.7047 0 1
89.8203 0 1
89.9358 0 1
92.3269 0 1
92.4424 0 1
92.558 0 1
92.6736 0 1
92.7893 0 1
92.905 0 1
93.0208 0 1
93.1366 0 1
93.2525 0 1
93.3685 0 1
93.4845 0 1
93.6005 2536 50.3587
93.7167 2730 52.2494
93.8328 2923 54.0648
93.949 2718 52.1344
94.0653 2733 52.2781
94.1816 2769 52.6213
94.2979 2691 51.8748
94.4143 2696 51.923
94.5307 2749 52.4309
94.6472 2787 52.792
94.7637 2789 52.811
94.8803 2840 53.2917
94.9969 2779 52.7162
95.1135 2952 54.3323
95.2302 3041 55.1453
95.3469 3092 55.6058
95.4637 3049 55.2178
95.5805 3104 55.7136
95.6973 3169 56.2939
95.8142 3150 56.1249
95.9311 3067 55.3805
96.048 2971 54.5069
96.1649 2867 53.5444
96.2819 2733 52.2781
96.3989 2639 51.3712
96.516 2525 50.2494
96.633 2143 46.2925
96.7501 1799 42.4146
96.8673 1719 41.4608
96.9844 1711 41.3642
97.1016 1850 43.0116
97.2188 2180 46.6905
97.336 2564 50.636
97.4532 2763 52.5642
97.5704 2787 52.792
97.6877 2814 53.0471
97.805 2770 52.6308
97.9223 2782 52.7447
98.0396 2688 51.8459
98.1569 2748 52.4214
98.2743 2756 52.4976
98.3916 2743 52.3737
98.509 2753 52.469
98.6264 2885 53.7122
98.7438 2839 53.2823
98.8612 2953 54.3415
98.9786 3016 54.9181
99.096 3032 55.0636
99.2134 3140 56.0357
99.3308 3068 55.3895
99.4482 3089 55.5788
99.5656 3016 54.9181
99.6831 2947 54.2863
99.8005 2931 54.1387
99.9179 2865 53.5257
100.035 2671 51.6817
100.153 2535 50.3488
100.27 2057 45.3542
100.388 1822 42.6849
100.505 1788 42.2847
100.622 1841 42.9069
100.74 2266 47.6025
100.857 2599 50.9804
100.975 2872 53.591
101.092 2848 53.3667
101.209 2918 54.0185
101.327 2766 52.5928
101.444 2792 52.8394
101.561 2785 52.7731
101.679 2751 52.45
101.796 2767 52.6023
101.913 2739 52.3355
102.03 2896 53.8145
102.148 2952 54.3323
102.265 2998 54.754
102.382 3182 56.4092
102.499 3030 55.0454
102.616 3203 56.5951
102.733 3263 57.1227
102.851 3253 57.0351
102.968 3208 56.6392
103.085 3296 57.4108
103.202 3219 56.7362
103.319 3103 55.7046
103.436 2952 54.3323
103.552 2907 53.9166
103.669 2690 51.8652
103.786 2323 48.1975
103.903 1947 44.1248
104.02 1852 43.0349
104.137 2023 44.9778
104.253 2309 48.0521
104.37 2793 52.8488
104.487 3009 54.8544
104.603 3075 55.4527
104.72 3028 55.0273
104.836 3074 55.4437
104.953 3110 55.7674
105.069 3038 55.1181
105.186 3075 55.4527
105.302 3088 55.5698
105.418 3214 56.6922
105.535 3240 56.921
105.651 3334 57.7408
105.767 3374 58.0861
105.883 3484 59.0254
105.999 3503 59.1861
106.115 0 1
106.231 0 1
106.347 0 1
106.463 0 1
106.579 0 1
106.694 0 1
106.81 0 1
106.926 0 1
107.041 0 1
107.157 0 1
109.576 0 1
109.692 0 1
109.807 0 1
109.923 0 1
110.039 0 1
110.155 0 1
110.27 0 1
110.386 0 1
110.502 0 1
110.618 3088 55.5698
110.735 3163 56.2406
110.851 3220 56.745
110.967 3316 57.5847
111.083 3408 58.3781
111.199 3420 58.4808
111.316 3493 59.1016
111.432 3557 59.6406
111.549 3494 59.1101
111.665 3394 58.258
111.782 3303 57.4717
111.898 3341 57.8014
112.015 3058 55.2992
112.132 2937 54.1941
112.248 2726 52.2111
112.365 2386 48.8467
112.482 2024 44.9889
112.599 2170 46.5833
112.716 2170 46.5833
112.832 2468 49.679
112.949 2939 54.2125
113.066 3140 56.0357
113.183 3195 56.5243
113.3 3200 56.5685
113.417 3163 56.2406
113.534 3100 55.6776
113.652 3030 55.0454
113.769 3060 55.3173
113.886 3232 56.8507
114.003 2947 54.2863
114.12 3114 55.8032
114.238 3312 57.55
114.355 3276 57.2364
114.472 3201 56.5774
114.589 3468 58.8897
114.707 3485 59.0339
114.824 3304 57.4804
114.942 3593 59.9416
115.059 3514 59.279
115.176 3491 59.0847
115.294 3522 59.3464
115.411 3367 58.0259
115.529 3116 55.8211
115.646 3238 56.9034
115.764 3002 54.7905
115.881 2631 51.2933
115.999 2286 47.8121
116.116 2200 46.9042
116.234 2375 48.734
116.351 2612 51.1077
116.469 2945 54.2679
116.586 3143 56.0625
116.704 3334 57.7408
116.821 3235 56.8771
116.939 3232 56.8507
117.056 3220 56.745
117.174 3335 57.7495
117.291 3284 57.3062
117.409 3255 57.0526
117.526 3244 56.9561
117.644 3221 56.7539
117.761 3250 57.0088
117.879 3468 58.8897
117.996 3345 57.836
118.114 3535 59.4559
118.231 3701 60.8358
118.349 3483 59.0169
118.466 3629 60.2412
118.584 3610 60.0833
118.701 3570 59.7495
118.819 3554 59.6154
118.936 3459 58.8133
119.053 3481 59
119.171 3285 57.3149
119.288 3069 55.3986
119.405 2995 54.7266
119.523 2568 50.6754
119.64 2349 48.4665
119.757 2292 47.8748
119.875 2431 49.3052
119.992 2613 51.1175
120.109 2959 54.3967
120.226 3058 55.2992
120.343 3166 56.2672
120.46 3186 56.4447
120.578 3151 56.1338
120.695 3227 56.8067
120.812 3222 56.7627
120.929 3195 56.5243
121.046 3163 56.2406
121.163 3173 56.3294
121.279 3331 57.7148
121.396 3222 56.7627
121.513 3243 56.9473
121.63 3445 58.6941
121.747 3401 58.3181
121.863 3424 58.515
121.98 3331 57.7148
122.097 3566 59.716
122.213 3520 59.3296
122.33 3507 59.2199
122.446 3419 58.4722
122.563 3398 58.2924
122.679 3377 58.112
122.795 3327 57.6802
122.912 3311 57.5413
123.028 2939 54.2125
123.144 2871 53.5817
123.26 2706 52.0192
123.377 0 1
123.493 0 1
123.609 0 1
123.725 0 1
123.84 0 1
123.956 0 1
124.072 0 1
124.188 0 1
124.303 0 1
124.419 0 1
126.852 0 1
126.968 0 1
127.083 0 1
127.199 0 1
127.315 0 1
127.431 0 1
127.547 0 1
127.663 0 1
127.779 0 1
127.895 0 1
128.011 0 1
128.127 0 1
128.243 0 1
128.359 3041 55.1453
128.476 2828 53.1789
128.592 2544 50.4381
128.708 2643 51.4101
128.825 2668 51.6527
128.941 2913 53.9722
129.058 3090 55.5878
129.174 3402 58.3267
129.291 3448 58.7197
129.408 3428 58.5491
129.524 3366 58.0172
129.641 3498 59.1439
129.758 3466 58.8727
129.875 3484 59.0254
129.992 3434 58.6003
130.108 3419 58.4722
130.225 3405 58.3524
130.342 3468 58.8897
130.459 3392 58.2409
130.576 3675 60.6218
130.693 3512 59.2621
130.81 3687 60.7207
130.928 3711 60.918
131.045 3701 60.8358
131.162 3770 61.4003
131.279 3748 61.2209
131.396 3681 60.6712
131.513 3646 60.3821
131.631 3551 59.5903
131.748 3263 57.1227
131.865 3384 58.1722
131.983 3059 55.3082
132.1 2833 53.2259
132.217 2723 52.1824
132.335 2709 52.0481
132.452 2963 54.4334
132.57 3175 56.3471
132.687 3401 58.3181
132.804 3531 59.4222
132.922 3615 60.1249
133.039 3476 58.9576
133.157 3544 59.5315
133.274 3568 59.7327
133.392 3542 59.5147
133.509 3446 58.7026
133.627 3518 59.3127
133.744 3393 58.2495
133.862 3380 58.1378
133.979 3369 58.0431
134.097 3503 59.1861
134.214 3500 59.1608
134.332 3639 60.3241
134.449 3663 60.5227
134.567 3538 59.4811
134.684 3768 61.384
134.802 3817 61.7819
134.919 3655 60.4566
135.037 3888 62.3538
135.154 3550 59.5819
135.272 3606 60.05
135.389 3452 58.7537
135.507 3147 56.0981
135.624 2924 54.074
135.742 2813 53.0377
135.859 2761 52.5452
135.977 2868 53.5537
136.094 3145 56.0803
136.211 3426 58.532
136.329 3431 58.5747
136.446 3614 60.1166
136.564 3544 59.5315
136.681 3591 59.925
136.798 3587 59.8916
136.915 3474 58.9406
137.033 3471 58.9152
137.15 3499 59.1523
137.267 3540 59.4979
137.384 3413 58.4209
137.502 3482 59.0085
137.619 3456 58.7878
137.736 3399 58.3009
137.853 3386 58.1893
137.97 3692 60.7618
138.087 3604 60.0333
138.204 3739 61.1474
138.321 3670 60.5805
138.438 3671 60.5888
138.555 3757 61.2944
138.672 3676 60.63
138.788 3740 61.1555
138.905 3499 59.1523
139.022 3479 58.983
139.139 3292 57.376
139.255 3094 55.6237
139.372 2964 54.4426
139.488 2939 54.2125
139.605 3043 55.1634
139.721 3394 58.258
139.838 3469 58.8982
139.954 3600 60
140.071 3718 60.9754
140.187 3639 60.3241
140.303 3662 60.5145
140.419 3728 61.0574
140.535 3670 60.5805
140.652 3540 59.4979
140.768 0 1
140.884 0 1
141 0 1
141.115 0 1
141.231 0 1
141.347 0 1
141.463 0 1
141.578 0 1
141.694 0 1
144.104 0 1
144.219 0 1
144.335 0 1
144.45 0 1
144.566 0 1
144.682 0 1
144.798 0 1
144.914 0 1
145.03 0 1
145.146 2791 52.8299
145.262 2978 54.5711
145.378 3087 55.5608
145.494 3035 55.0908
145.61 3038 55.1181
145.726 3066 55.3715
145.842 2938 54.2033
145.959 2958 54.3875
146.075 2857 53.4509
146.192 2794 52.8583
146.308 2773 52.6593
146.425 2901 53.8609
146.541 2992 54.6992
146.658 2981 54.5985
146.774 2962 54.4243
146.891 3088 55.5698
147.008 3118 55.8391
147.125 3143 56.0625
147.241 3234 56.8683
147.358 3255 57.0526
147.475 3246 56.9737
147.592 3206 56.6216
147.709 3027 55.0182
147.826 3101 55.6866
147.943 2997 54.7449
148.06 2848 53.3667
148.177 2698 51.9423
148.294 2745 52.3927
148.411 2681 51.7784
148.528 2914 53.9815
148.645 2977 54.5619
148.762 3118 55.8391
148.88 3207 56.6304
148.997 3116 55.8211
149.114 3162 56.2317
149.231 3248 56.9912
149.349 3226 56.7979
149.466 3233 56.8595
149.583 3258 57.0789
149.701 3127 55.9196
149.818 3012 54.8817
149.935 3012 54.8817
150.053 2850 53.3854
150.17 2954 54.3507
150.287 3147 56.0981
150.405 3156 56.1783
150.522 3110 55.7674
150.64 3243 56.9473
150.757 3368 58.0345
150.875 3229 56.8243
150.992 3364 58
151.11 3398 58.2924
151.227 3262 57.1139
151.344 3265 57.1402
151.462 3261 57.1052
151.579 3210 56.6569
151.697 3002 54.7905
151.814 2939 54.2125
151.932 2857 53.4509
152.049 2925 54.0833
152.167 2893 53.7866
152.284 3055 55.2721
152.402 3192 56.4978
152.519 3299 57.4369
152.636 3204 56.6039
152.754 3330 57.7062
152.871 3307 57.5065
152.989 3317 57.5934
153.106 3217 56.7186
153.223 3192 56.4978
153.341 3143 56.0625
153.458 2937 54.1941
153.575 2990 54.6809
153.693 2962 54.4243
153.81 3152 56.1427
153.927 3277 57.2451
154.044 3281 57.28
154.162 3279 57.2626
154.279 3285 57.3149
154.396 3501 59.1692
154.513 3548 59.5651
154.63 3449 58.7282
154.747 3550 59.5819
154.864 3474 58.9406
154.981 3535 59.4559
155.098 3512 59.2621
155.215 3482 59.0085
155.332 3244 56.9561
155.449 3127 55.9196
155.566 3167 56.2761
155.683 3234 56.8683
155.8 3239 56.9122
155.917 3402 58.3267
156.033 3644 60.3656
156.15 0 1
156.267 0 1
156.383 0 1
156.5 0 1
156.617 0 1
156.733 0 1
156.85 0 1
156.966 0 1
157.082 0 1
157.199 0 1
157.315 0 1
157.431 0 1
157.547 0 1
157.664 0 1
157.78 0 1
157.896 0 1
158.012 0 1
158.128 0 1
158.244 0 1
158.359 0 1
158.475 0 1
158.591 0 1
158.706 0 1
