
6.15755 0 1
6.2731 0 1
6.3887 0 1
6.50437 0 1
6.62009 0 1
6.73587 0 1
6.8517 0 1
6.96759 0 1
7.08353 0 1
7.19952 0 1
7.31557 0 1
7.43166 0 1
7.54781 0 1
7.664 0 1
7.78024 0 1
7.89653 0 1
8.01286 0 1
8.12924 0 1
8.24567 0 1
8.36213 0 1
8.47864 0 1
8.59519 0 1
8.71178 0 1
8.82841 0 1
8.94508 0 1
9.06179 0 1
9.17853 0 1
9.29531 0 1
9.41212 0 1
9.52897 0 1
9.64584 0 1
9.76276 0 1
9.8797 0 1
9.99667 0 1
10.1137 0 1
10.2307 0 1
10.3478 0 1
10.4648 0 1
10.5819 0 1
10.6991 0 1
10.8162 0 1
10.9334 0 1
11.0506 0 1
11.1678 0 1
11.285 0 1
11.4023 0 1
11.5196 0 1
11.6369 0 1
11.7542 0 1
11.8715 0 1
11.9888 0 1
12.1062 0 1
12.2235 0 1
12.3409 0 1
12.4582 0 1
12.5756 0 1
12.693 0 1
12.8104 0 1
12.9278 0 1
13.0452 0 1
13.1626 0 1
13.28 0 1
13.3974 0 1
13.5149 0 1
13.6323 0 1
13.7497 0 1
13.8671 0 1
13.9845 0 1
14.1019 0 1
14.2193 0 1
14.3367 0 1
14.4541 0 1
14.5714 0 1
14.6888 0 1
14.8062 0 1
14.9235 0 1
15.0408 913 30.2159
15.1581 950 30.8221
15.2755 998 31.5911
15.3927 1011 31.7962
15.51 1029 32.078
15.6273 1028 32.0624
15.7445 1088 32.9848
15.8617 1033 32.1403
15.9789 1054 32.4654
16.0961 957 30.9354
16.2132 996 31.5595
16.3304 988 31.4325
16.4475 1038 32.218
16.5646 1074 32.7719
16.6816 1094 33.0757
16.7986 1088 32.9848
16.9156 1221 34.9428
17.0326 1168 34.176
17.1496 1217 34.8855
17.2665 1122 33.4963
17.3833 1163 34.1028
17.5002 1167 34.1614
17.617 1105 33.2415
17.7338 1043 32.2955
17.8505 1033 32.1403
17.9672 996 31.5595
18.0839 1034 32.1559
18.2005 1111 33.3317
18.3171 1046 32.3419
18.4337 1085 32.9393
18.5502 1084 32.9242
18.6666 1148 33.8821
18.7831 1106 33.2566
18.8994 1191 34.5109
19.0158 1149 33.8969
19.1321 1048 32.3728
19.2483 1074 32.7719
19.3645 1017 31.8904
19.4806 922 30.3645
19.5967 906 30.0998
19.7128 812 28.4956
19.8288 796 28.2135
19.9447 642 25.3377
20.0606 0 1
20.1764 0 1
20.2922 0 1
20.4079 0 1
20.5236 0 1
20.6392 0 1
20.7548 0 1
20.8702 0 1
23.3078 0 1
23.4233 0 1
23.539 0 1
23.6547 0 1
23.7704 0 1
23.8862 0 1
24.0021 0 1
24.118 0 1
24.234 0 1
24.35 0 1
24.4661 422 20.5426
24.5822 547 23.388
24.6984 600 24.4949
24.8146 680 26.0768
24.9309 768 27.7128
25.0472 782 27.9643
25.1636 907 30.1164
25.28 1004 31.686
25.3965 1042 32.28
25.513 1054 32.4654
25.6296 1146 33.8526
25.7462 1213 34.8281
25.8628 1290 35.9166
25.9795 1232 35.0999
26.0962 1244 35.2704
26.213 1219 34.9142
26.3298 1121 33.4813
26.4466 1045 32.3265
26.5635 1043 32.2955
26.6804 1005 31.7017
26.7973 1023 31.9844
26.9143 1095 33.0908
27.0313 1173 34.2491
27.1483 1116 33.4066
27.2653 1200 34.641
27.3824 1230 35.0714
27.4996 1170 34.2053
27.6167 1211 34.7994
27.7339 1159 34.0441
27.8511 1095 33.0908
27.9683 1112 33.3467
28.0855 1069 32.6956
28.2028 1074 32.7719
28.3201 994 31.5278
28.4374 953 30.8707
28.5547 939 30.6431
28.6721 962 31.0161
28.7894 986 31.4006
28.9068 1084 32.9242
29.0242 1099 33.1512
29.1416 1163 34.1028
29.259 1190 34.4964
29.3764 1164 34.1174
29.4939 1163 34.1028
29.6113 1193 34.5398
29.7288 1110 33.3167
29.8463 1036 32.187
29.9638 1019 31.9218
30.0812 961 31
30.1987 989 31.4484
30.3162 1054 32.4654
30.4337 998 31.5911
30.5512 1067 32.665
30.6687 1094 33.0757
30.7862 1123 33.5112
30.9037 1098 33.1361
31.0212 1168 34.176
31.1387 1155 33.9853
31.2562 1123 33.5112
31.3737 1075 32.7872
31.4912 1104 33.2265
31.6087 1060 32.5576
31.7262 993 31.5119
31.8436 955 30.9031
31.9611 943 30.7083
32.0785 895 29.9166
32.1959 963 31.0322
32.3134 989 31.4484
32.4308 1086 32.9545
32.5482 1122 33.4963
32.6655 1137 33.7194
32.7829 1151 33.9264
32.9002 1180 34.3511
33.0176 1136 33.7046
33.1349 1096 33.1059
33.2522 1113 33.3617
33.3694 1078 32.8329
33.4867 1015 31.8591
33.6039 966 31.0805
33.7211 948 30.7896
33.8383 913 30.2159
33.9554 960 30.9839
34.0725 994 31.5278
34.1896 1009 31.7648
34.3067 1030 32.0936
34.4237 1024 32
34.5407 1111 33.3317
34.6577 1096 33.1059
34.7746 1029 32.078
34.8915 1146 33.8526
35.0084 1049 32.3883
35.1252 1071 32.7261
35.242 1002 31.6544
35.3587 876 29.5973
35.4755 916 30.2655
35.5921 854 29.2233
35.7088 854 29.2233
35.8254 847 29.1033
35.9419 886 29.7658
36.0584 942 30.692
36.1749 959 30.9677
36.2913 916 30.2655
36.4077 1019 31.9218
36.524 943 30.7083
36.6403 980 31.305
36.7565 946 30.7571
36.8727 830 28.8097
36.9889 826 28.7402
37.1049 721 26.8514
37.221 0 1
37.3369 0 1
37.4529 0 1
37.5687 0 1
37.6845 0 1
37.8003 0 1
37.916 0 1
38.0316 0 1
38.1472 0 1
40.5851 0 1
40.7008 0 1
40.8164 0 1
40.9322 0 1
41.048 0 1
41.1639 0 1
41.2798 0 1
41.3958 0 1
41.5118 0 1
41.6279 0 1
41.744 517 22.7376
41.8602 539 23.2164
41.9765 594 24.3721
42.0928 668 25.8457
42.2091 716 26.7582
42.3255 617 24.8395
42.4419 607 24.6374
42.5584 626 25.02
42.675 681 26.096
42.7915 689 26.2488
42.9081 795 28.1957
43.0248 848 29.1204
43.1415 877 29.6142
43.2582 882 29.6985
43.375 856 29.2575
43.4918 918 30.2985
43.6087 891 29.8496
43.7256 878 29.6311
43.8425 889 29.8161
43.9595 907 30.1164
44.0765 817 28.5832
44.1935 834 28.8791
44.3106 789 28.0891
44.4277 743 27.258
44.5448 693 26.3249
44.6619 721 26.8514
44.7791 773 27.8029
44.8963 803 28.3373
45.0136 889 29.8161
45.1308 923 30.3809
45.2481 885 29.7489
45.3654 871 29.5127
45.4827 885 29.7489
45.6001 876 29.5973
45.7174 911 30.1828
45.8348 847 29.1033
45.9522 793 28.1603
46.0697 707 26.5895
46.1871 697 26.4008
46.3046 760 27.5681
46.422 757 27.5136
46.5395 840 28.9828
46.657 956 30.9192
46.7745 847 29.1033
46.892 871 29.5127
47.0096 905 30.0832
47.1271 884 29.7321
47.2446 925 30.4138
47.3622 935 30.5778
47.4797 883 29.7153
47.5973 840 28.9828
47.7149 853 29.2062
47.8324 804 28.3549
47.95 795 28.1957
48.0675 777 27.8747
48.1851 699 26.4386
48.3027 758 27.5318
48.4202 739 27.1846
48.5378 838 28.9482
48.6554 864 29.3939
48.7729 970 31.1448
48.8904 916 30.2655
49.008 888 29.7993
49.1255 955 30.9031
49.243 920 30.3315
49.3605 812 28.4956
49.478 786 28.0357
49.5955 715 26.7395
49.713 682 26.1151
49.8304 740 27.2029
49.9479 745 27.2947
50.0653 781 27.9464
50.1827 851 29.1719
50.3001 885 29.7489
50.4175 924 30.3974
50.5348 898 29.9666
50.6521 896 29.9333
50.7694 883 29.7153
50.8867 906 30.0998
51.004 853 29.2062
51.1212 854 29.2233
51.2384 827 28.7576
51.3556 839 28.9655
51.4727 824 28.7054
51.5899 738 27.1662
51.707 695 26.3629
51.824 757 27.5136
51.9411 809 28.4429
52.0581 830 28.8097
52.175 902 30.0333
52.2919 872 29.5296
52.4088 942 30.692
52.5257 924 30.3974
52.6425 894 29.8998
52.7593 909 30.1496
52.876 879 29.6479
52.9927 833 28.8617
53.1094 821 28.6531
53.226 712 26.6833
53.3426 728 26.9815
53.4591 710 26.6458
53.5756 732 27.0555
53.692 708 26.6083
53.8084 712 26.6833
53.9248 685 26.1725
54.0411 645 25.3969
54.1573 634 25.1794
54.2735 0 1
54.3896 0 1
54.5057 0 1
54.6217 0 1
54.7377 0 1
54.8537 0 1
54.9695 0 1
55.0853 0 1
55.2011 0 1
55.3168 0 1
55.4324 0 1
57.824 0 1
57.9396 0 1
58.0553 0 1
58.1711 0 1
58.2869 0 1
58.4028 0 1
58.5187 0 1
58.6347 0 1
58.7508 0 1
58.8669 0 1
58.983 627 25.04
59.0992 743 27.258
59.2155 786 28.0357
59.3318 853 29.2062
59.4482 946 30.7571
59.5646 956 30.9192
59.681 1026 32.0312
59.7975 1019 31.9218
59.9141 1017 31.8904
60.0306 1037 32.2025
60.1473 1051 32.4191
60.2639 990 31.4643
60.3807 929 30.4795
60.4974 977 31.257
60.6142 1024 32
60.731 1064 32.619
60.8479 1157 34.0147
60.9648 1132 33.6452
61.0818 1179 34.3366
61.1987 1159 34.0441
61.3158 1174 34.2637
61.4328 1126 33.5559
61.5499 1083 32.909
61.667 950 30.8221
61.7841 935 30.5778
61.9013 930 30.4959
62.0185 900 30
62.1357 930 30.4959
62.253 1030 32.0936
62.3702 1073 32.7567
62.4875 1086 32.9545
62.6049 1116 33.4066
62.7222 1122 33.4963
62.8396 1127 33.5708
62.9569 1175 34.2783
63.0743 1145 33.8378
63.1918 1194 34.5543
63.3092 1121 33.4813
63.4267 1089 33
63.5441 1037 32.2025
63.6616 1022 31.9687
63.7791 965 31.0644
63.8966 897 29.95
64.0142 921 30.348
64.1317 964 31.0483
64.2492 1047 32.3574
64.3668 1089 33
64.4843 1140 33.7639
64.6019 1213 34.8281
64.7195 1187 34.4529
64.837 1153 33.9559
64.9546 1148 33.8821
65.0722 1029 32.078
65.1898 984 31.3688
65.3074 936 30.5941
65.4249 896 29.9333
65.5425 867 29.4449
65.6601 924 30.3974
65.7777 972 31.1769
65.8952 978 31.273
66.0128 1064 32.619
66.1304 1122 33.4963
66.2479 1114 33.3766
66.3655 1205 34.7131
66.483 1153 33.9559
66.6005 1171 34.2199
66.718 1134 33.6749
66.8355 1217 34.8855
66.953 1114 33.3766
67.0705 1123 33.5112
67.1879 1093 33.0606
67.3054 1048 32.3728
67.4228 969 31.1288
67.5402 886 29.7658
67.6576 935 30.5778
67.7749 941 30.6757
67.8923 1058 32.5269
68.0096 1089 33
68.1269 1165 34.1321
68.2442 1234 35.1283
68.3614 1126 33.5559
68.4787 1222 34.9571
68.5958 1156 34
68.713 1186 34.4384
68.8302 1156 34
68.9473 1092 33.0454
69.0643 1009 31.7648
69.1814 962 31.0161
69.2984 986 31.4006
69.4154 1015 31.8591
69.5323 1204 34.6987
69.6492 1275 35.7071
69.7661 1291 35.9305
69.8829 1292 35.9444
69.9997 1278 35.7491
70.1165 1266 35.5809
70.2332 1105 33.2415
70.3499 1211 34.7994
70.4665 1142 33.7935
70.5831 1149 33.8969
70.6996 1038 32.218
70.8161 1017 31.8904
70.9326 873 29.5466
71.049 810 28.4605
71.1653 637 25.2389
71.2817 611 24.7184
71.3979 502 22.4054
71.5141 469 21.6564
71.6303 455 21.3307
71.7464 484 22
71.8624 0 1
71.9784 0 1
72.0944 0 1
72.2102 0 1
72.3261 0 1
72.4418 0 1
72.5575 0 1
72.6732 0 1
75.1054 0 1
75.2209 0 1
75.3365 0 1
75.4521 0 1
75.5678 0 1
75.6835 0 1
75.7993 0 1
75.9151 0 1
76.031 0 1
76.147 803 28.3373
76.263 859 29.3087
76.3791 820 28.6356
76.4952 851 29.1719
76.6113 834 28.8791
76.7276 859 29.3087
76.8438 935 30.5778
76.9601 974 31.209
77.0765 1128 33.5857
77.1929 1071 32.7261
77.3093 1125 33.541
77.4258 1117 33.4215
77.5423 1115 33.3916
77.6589 1069 32.6956
77.7755 999 31.607
77.8921 888 29.7993
78.0088 878 29.6311
78.1256 799 28.2666
78.2423 753 27.4408
78.3591 752 27.4226
78.4759 898 29.9666
78.5928 890 29.8329
78.7097 999 31.607
78.8266 977 31.257
78.9436 1026 32.0312
79.0606 988 31.4325
79.1776 997 31.5753
79.2946 1036 32.187
79.4117 1061 32.573
79.5288 1107 33.2716
79.6459 999 31.607
79.7631 1013 31.8277
79.8802 950 30.8221
79.9974 905 30.0832
80.1147 836 28.9137
80.2319 772 27.7849
80.3491 755 27.4773
80.4664 782 27.9643
80.5837 904 30.0666
80.701 925 30.4138
80.8183 1044 32.311
80.9357 979 31.289
81.053 1070 32.7109
81.1704 1020 31.9374
81.2877 1033 32.1403
81.4051 1059 32.5423
81.5225 921 30.348
81.6399 836 28.9137
81.7573 805 28.3725
81.8747 709 26.6271
81.9922 742 27.2397
82.1096 818 28.6007
82.227 901 30.0167
82.3444 932 30.5287
82.4619 944 30.7246
82.5793 994 31.5278
82.6967 995 31.5436
82.8142 988 31.4325
82.9316 1138 33.7343
83.049 1067 32.665
83.1664 1034 32.1559
83.2838 1057 32.5115
83.4012 1015 31.8591
83.5186 955 30.9031
83.636 951 30.8383
83.7534 871 29.5127
83.8708 776 27.8568
83.9881 772 27.7849
84.1055 813 28.5132
84.2228 842 29.0172
84.3401 913 30.2159
84.4575 1024 32
84.5747 1053 32.45
84.692 1076 32.8024
84.8093 1085 32.9393
84.9265 1042 32.28
85.0437 1022 31.9687
85.1609 881 29.6816
85.2781 807 28.4077
85.3952 837 28.931
85.5123 739 27.1846
85.6294 811 28.4781
85.7465 862 29.3598
85.8636 1003 31.6702
85.9806 952 30.8545
86.0976 1024 32
86.2145 1052 32.4345
86.3315 1086 32.9545
86.4484 1088 32.9848
86.5652 1096 33.1059
86.682 1103 33.2114
86.7988 1035 32.1714
86.9156 1046 32.3419
87.0323 1019 31.9218
87.149 978 31.273
87.2657 933 30.545
87.3823 801 28.3019
87.4988 705 26.5518
87.6154 695 26.3629
87.7318 642 25.3377
87.8483 757 27.5136
87.9647 848 29.1204
88.081 838 28.9482
88.1973 846 29.0861
88.3136 815 28.5482
88.4298 730 27.0185
88.546 756 27.4955
88.6621 597 24.4336
88.7781 459 21.4243
88.8942 0 1
89.0101 0 1
89.126 0 1
89.2419 0 1
89.3577 0 1
89.4734 0 1
89.5891 0 1
89.7047 0 1
89.8203 0 1
89.9358 0 1
92.3269 0 1
92.4424 0 1
92.558 0 1
92.6736 0 1
92.7893 0 1
92.905 0 1
93.0208 0 1
93.1366 0 1
93.2525 0 1
93.3685 0 1
93.4845 0 1
93.6005 732 27.0555
93.7167 787 28.0535
93.8328 789 28.0891
93.949 934 30.5614
94.0653 838 28.9482
94.1816 900 30
94.2979 827 28.7576
94.4143 817 28.5832
94.5307 788 28.0713
94.6472 817 28.5832
94.7637 783 27.9821
94.8803 806 28.3901
94.9969 858 29.2916
95.1135 938 30.6268
95.2302 918 30.2985
95.3469 1035 32.1714
95.4637 1029 32.078
95.5805 1026 32.0312
95.6973 1053 32.45
95.8142 1059 32.5423
95.9311 1062 32.5883
96.048 1059 32.5423
96.1649 1048 32.3728
96.2819 1002 31.6544
96.3989 948 30.7896
96.516 914 30.2324
96.633 837 28.931
96.7501 794 28.178
96.8673 824 28.7054
96.9844 835 28.8964
97.1016 857 29.2746
97.2188 927 30.4467
97.336 1003 31.6702
97.4532 1025 32.0156
97.5704 1113 33.3617
97.6877 1054 32.4654
97.805 1049 32.3883
97.9223 965 31.0644
98.0396 860 29.3258
98.1569 833 28.8617
98.2743 732 27.0555
98.3916 784 28
98.509 838 28.9482
98.6264 905 30.0832
98.7438 948 30.7896
98.8612 1017 31.8904
98.9786 1052 32.4345
99.096 1042 32.28
99.2134 1072 32.7414
99.3308 1191 34.5109
99.4482 1107 33.2716
99.5656 1099 33.1512
99.6831 1118 33.4365
99.8005 1120 33.4664
99.9179 1042 32.28
100.035 1004 31.686
100.153 963 31.0322
100.27 923 30.3809
100.388 831 28.8271
100.505 941 30.6757
100.622 933 30.545
100.74 1043 32.2955
100.857 1086 32.9545
100.975 1022 31.9687
101.092 1168 34.176
101.209 1113 33.3617
101.327 1056 32.4962
101.444 1047 32.3574
101.561 1018 31.9061
101.679 911 30.1828
101.796 843 29.0345
101.913 839 28.9655
102.03 821 28.6531
102.148 934 30.5614
102.265 944 30.7246
102.382 1068 32.6803
102.499 1122 33.4963
102.616 1092 33.0454
102.733 1146 33.8526
102.851 1140 33.7639
102.968 1169 34.1906
103.085 1147 33.8674
103.202 1162 34.0881
103.319 1136 33.7046
103.436 1152 33.9411
103.552 1136 33.7046
103.669 994 31.5278
103.786 931 30.5123
103.903 846 29.0861
104.02 919 30.315
104.137 963 31.0322
104.253 1053 32.45
104.37 1191 34.5109
104.487 1231 35.0856
104.603 1151 33.9264
104.72 1129 33.6006
104.836 1114 33.3766
104.953 990 31.4643
105.069 965 31.0644
105.186 869 29.4788
105.302 806 28.3901
105.418 740 27.2029
105.535 803 28.3373
105.651 727 26.9629
105.767 746 27.313
105.883 736 27.1293
105.999 720 26.8328
106.115 0 1
106.231 0 1
106.347 0 1
106.463 0 1
106.579 0 1
106.694 0 1
106.81 0 1
106.926 0 1
107.041 0 1
107.157 0 1
109.576 0 1
109.692 0 1
109.807 0 1
109.923 0 1
110.039 0 1
110.155 0 1
110.27 0 1
110.386 0 1
110.502 0 1
110.618 437 20.9045
110.735 589 24.2693
110.851 741 27.2213
110.967 750 27.3861
111.083 890 29.8329
111.199 969 31.1288
111.316 970 31.1448
111.432 1043 32.2955
111.549 1051 32.4191
111.665 1089 33
111.782 1021 31.9531
111.898 1047 32.3574
112.015 943 30.7083
112.132 903 30.05
112.248 931 30.5123
112.365 848 29.1204
112.482 853 29.2062
112.599 987 31.4166
112.716 943 30.7083
112.832 1023 31.9844
112.949 1024 32
113.066 1015 31.8591
113.183 1018 31.9061
113.3 1067 32.665
113.417 1075 32.7872
113.534 988 31.4325
113.652 898 29.9666
113.769 857 29.2746
113.886 842 29.0172
114.003 738 27.1662
114.12 754 27.4591
114.238 966 31.0805
114.355 938 30.6268
114.472 904 30.0666
114.589 1057 32.5115
114.707 1086 32.9545
114.824 1072 32.7414
114.942 1121 33.4813
115.059 1097 33.121
115.176 1011 31.7962
115.294 1100 33.1662
115.411 1063 32.6037
115.529 1008 31.749
115.646 985 31.3847
115.764 988 31.4325
115.881 895 29.9166
115.999 816 28.5657
116.116 865 29.4109
116.234 854 29.2233
116.351 946 30.7571
116.469 972 31.1769
116.586 1043 32.2955
116.704 1023 31.9844
116.821 1086 32.9545
116.939 1051 32.4191
117.056 1045 32.3265
117.174 994 31.5278
117.291 913 30.2159
117.409 831 28.8271
117.526 763 27.6225
117.644 774 27.8209
117.761 868 29.4618
117.879 855 29.2404
117.996 937 30.6105
118.114 1000 31.6228
118.231 1051 32.4191
118.349 1061 32.573
118.466 1050 32.4037
118.584 1052 32.4345
118.701 1008 31.749
118.819 1049 32.3883
118.936 1062 32.5883
119.053 1014 31.8434
119.171 966 31.0805
119.288 930 30.4959
119.405 893 29.8831
119.523 776 27.8568
119.64 798 28.2489
119.757 784 28
119.875 921 30.348
119.992 996 31.5595
120.109 958 30.9516
120.226 1000 31.6228
120.343 990 31.4643
120.46 1034 32.1559
120.578 1041 32.2645
120.695 993 31.5119
120.812 952 30.8545
120.929 863 29.3769
121.046 802 28.3196
121.163 755 27.4773
121.279 749 27.3679
121.396 782 27.9643
121.513 806 28.3901
121.63 848 29.1204
121.747 866 29.4279
121.863 840 28.9828
121.98 875 29.5804
122.097 828 28.775
122.213 838 28.9482
122.33 801 28.3019
122.446 782 27.9643
122.563 832 28.8444
122.679 719 26.8142
122.795 687 26.2107
122.912 619 24.8797
123.028 502 22.4054
123.144 507 22.5167
123.26 399 19.975
123.377 0 1
123.493 0 1
123.609 0 1
123.725 0 1
123.84 0 1
123.956 0 1
124.072 0 1
124.188 0 1
124.303 0 1
124.419 0 1
126.852 0 1
126.968 0 1
127.083 0 1
127.199 0 1
127.315 0 1
127.431 0 1
127.547 0 1
127.663 0 1
127.779 0 1
127.895 0 1
128.011 0 1
128.127 0 1
128.243 0 1
128.359 1039 32.2335
128.476 1076 32.8024
128.592 1054 32.4654
128.708 1033 32.1403
128.825 1063 32.6037
128.941 1123 33.5112
129.058 1186 34.4384
129.174 1194 34.5543
129.291 1248 35.327
129.408 1232 35.0999
129.524 1255 35.426
129.641 1244 35.2704
129.758 1197 34.5977
129.875 1209 34.7707
129.992 1175 34.2783
130.108 1032 32.1248
130.225 993 31.5119
130.342 972 31.1769
130.459 1027 32.0468
130.576 1090 33.0151
130.693 1139 33.7491
130.81 1101 33.1813
130.928 1202 34.6699
131.045 1225 35
131.162 1259 35.4824
131.279 1246 35.2987
131.396 1254 35.4119
131.513 1212 34.8138
131.631 1164 34.1174
131.748 1200 34.641
131.865 1205 34.7131
131.983 1202 34.6699
132.1 1034 32.1559
132.217 1087 32.9697
132.335 1018 31.9061
132.452 1104 33.2265
132.57 1181 34.3657
132.687 1225 35
132.804 1287 35.8748
132.922 1308 36.1663
133.039 1309 36.1801
133.157 1191 34.5109
133.274 1271 35.6511
133.392 1258 35.4683
133.509 1152 33.9411
133.627 1066 32.6497
133.744 1012 31.8119
133.862 979 31.289
133.979 1035 32.1714
134.097 1087 32.9697
134.214 1099 33.1512
134.332 1146 33.8526
134.449 1191 34.5109
134.567 1204 34.6987
134.684 1192 34.5254
134.802 1248 35.327
134.919 1245 35.2846
135.037 1260 35.4965
135.154 1262 35.5246
135.272 1170 34.2053
135.389 1251 35.3695
135.507 1203 34.6843
135.624 1229 35.0571
135.742 1048 32.3728
135.859 1003 31.6702
135.977 1090 33.0151
136.094 1075 32.7872
136.211 1239 35.1994
136.329 1202 34.6699
136.446 1303 36.0971
136.564 1315 36.2629
136.681 1232 35.0999
136.798 1288 35.8887
136.915 1228 35.0428
137.033 1179 34.3366
137.15 1121 33.4813
137.267 1055 32.4808
137.384 938 30.6268
137.502 921 30.348
137.619 973 31.1929
137.736 1076 32.8024
137.853 1021 31.9531
137.97 1139 33.7491
138.087 1160 34.0588
138.204 1138 33.7343
138.321 1251 35.3695
138.438 1181 34.3657
138.555 1237 35.171
138.672 1182 34.3802
138.788 1106 33.2566
138.905 1144 33.8231
139.022 1032 32.1248
139.139 996 31.5595
139.255 921 30.348
139.372 876 29.5973
139.488 824 28.7054
139.605 754 27.4591
139.721 776 27.8568
139.838 811 28.4781
139.954 772 27.7849
140.071 774 27.8209
140.187 680 26.0768
140.303 666 25.807
140.419 604 24.5764
140.535 546 23.3666
140.652 504 22.4499
140.768 0 1
140.884 0 1
141 0 1
141.115 0 1
141.231 0 1
141.347 0 1
141.463 0 1
141.578 0 1
141.694 0 1
144.104 0 1
144.219 0 1
144.335 0 1
144.45 0 1
144.566 0 1
144.682 0 1
144.798 0 1
144.914 0 1
145.03 0 1
145.146 782 27.9643
145.262 853 29.2062
145.378 822 28.6705
145.494 895 29.9166
145.61 888 29.7993
145.726 873 29.5466
145.842 832 28.8444
145.959 804 28.3549
146.075 752 27.4226
146.192 693 26.3249
146.308 717 26.7769
146.425 701 26.4764
146.541 703 26.5141
146.658 785 28.0179
146.774 748 27.3496
146.891 850 29.1548
147.008 789 28.0891
147.125 868 29.4618
147.241 851 29.1719
147.358 782 27.9643
147.475 917 30.282
147.592 821 28.6531
147.709 801 28.3019
147.826 745 27.2947
147.943 749 27.3679
148.06 755 27.4773
148.177 734 27.0924
148.294 722 26.8701
148.411 754 27.4591
148.528 773 27.8029
148.645 751 27.4044
148.762 797 28.2312
148.88 838 28.9482
148.997 861 29.3428
149.114 809 28.4429
149.231 859 29.3087
149.349 825 28.7228
149.466 830 28.8097
149.583 750 27.3861
149.701 764 27.6405
149.818 661 25.7099
149.935 683 26.1343
150.053 665 25.7876
150.17 682 26.1151
150.287 792 28.1425
150.405 770 27.7489
150.522 758 27.5318
150.64 782 27.9643
150.757 816 28.5657
150.875 817 28.5832
150.992 800 28.2843
151.11 781 27.9464
151.227 818 28.6007
151.344 794 28.178
151.462 797 28.2312
151.579 742 27.2397
151.697 706 26.5707
151.814 701 26.4764
151.932 736 27.1293
152.049 726 26.9444
152.167 709 26.6271
152.284 822 28.6705
152.402 801 28.3019
152.519 762 27.6043
152.636 803 28.3373
152.754 786 28.0357
152.871 790 28.1069
152.989 789 28.0891
153.106 762 27.6043
153.223 675 25.9808
153.341 652 25.5343
153.458 627 25.04
153.575 604 24.5764
153.693 690 26.2679
153.81 646 25.4165
153.927 732 27.0555
154.044 689 26.2488
154.162 752 27.4226
154.279 750 27.3861
154.396 795 28.1957
154.513 757 27.5136
154.63 777 27.8747
154.747 791 28.1247
154.864 670 25.8844
154.981 701 26.4764
155.098 720 26.8328
155.215 708 26.6083
155.332 679 26.0576
155.449 641 25.318
155.566 742 27.2397
155.683 648 25.4558
155.8 703 26.5141
155.917 650 25.4951
156.033 712 26.6833
156.15 0 1
156.267 0 1
156.383 0 1
156.5 0 1
156.617 0 1
156.733 0 1
156.85 0 1
156.966 0 1
157.082 0 1
157.199 0 1
157.315 0 1
157.431 0 1
157.547 0 1
157.664 0 1
157.78 0 1
157.896 0 1
158.012 0 1
158.128 0 1
158.244 0 1
158.359 0 1
158.475 0 1
158.591 0 1
158.706 0 1
