
6.15755 0 1
6.2731 0 1
6.3887 0 1
6.50437 0 1
6.62009 0 1
6.73587 0 1
6.8517 0 1
6.96759 0 1
7.08353 0 1
7.19952 0 1
7.31557 0 1
7.43166 0 1
7.54781 0 1
7.664 0 1
7.78024 0 1
7.89653 0 1
8.01286 0 1
8.12924 0 1
8.24567 0 1
8.36213 0 1
8.47864 0 1
8.59519 0 1
8.71178 0 1
8.82841 0 1
8.94508 0 1
9.06179 0 1
9.17853 0 1
9.29531 0 1
9.41212 0 1
9.52897 0 1
9.64584 0 1
9.76276 0 1
9.8797 0 1
9.99667 0 1
10.1137 0 1
10.2307 0 1
10.3478 0 1
10.4648 0 1
10.5819 0 1
10.6991 0 1
10.8162 0 1
10.9334 0 1
11.0506 0 1
11.1678 0 1
11.285 0 1
11.4023 0 1
11.5196 0 1
11.6369 0 1
11.7542 0 1
11.8715 0 1
11.9888 0 1
12.1062 0 1
12.2235 0 1
12.3409 0 1
12.4582 0 1
12.5756 0 1
12.693 0 1
12.8104 0 1
12.9278 0 1
13.0452 0 1
13.1626 0 1
13.28 0 1
13.3974 0 1
13.5149 0 1
13.6323 0 1
13.7497 0 1
13.8671 0 1
13.9845 0 1
14.1019 0 1
14.2193 0 1
14.3367 0 1
14.4541 0 1
14.5714 0 1
14.6888 0 1
14.8062 0 1
14.9235 0 1
15.0408 0 0
15.1581 0 0
15.2755 0 0
15.3927 0 0
15.51 0 0
15.6273 0 0
15.7445 0 0
15.8617 0 0
15.9789 0 0
16.0961 0 0
16.2132 0 0
16.3304 0 0
16.4475 0 0
16.5646 0 0
16.6816 0 0
16.7986 0 0
16.9156 0 0
17.0326 0 0
17.1496 0 0
17.2665 0 0
17.3833 0 0
17.5002 0 0
17.617 0 0
17.7338 0 0
17.8505 0 0
17.9672 0 0
18.0839 0 0
18.2005 0 0
18.3171 0 0
18.4337 0 0
18.5502 0 0
18.6666 0 0
18.7831 0 0
18.8994 0 0
19.0158 0 0
19.1321 0 0
19.2483 0 0
19.3645 0 0
19.4806 0 0
19.5967 0 0
19.7128 0 0
19.8288 0 0
19.9447 0 0
20.0606 0 1
20.1764 0 1
20.2922 0 1
20.4079 0 1
20.5236 0 1
20.6392 0 1
20.7548 0 1
20.8702 0 1
23.3078 0 1
23.4233 0 1
23.539 0 1
23.6547 0 1
23.7704 0 1
23.8862 0 1
24.0021 0 1
24.118 0 1
24.234 0 1
24.35 0 1
24.4661 1865 43.1856
24.5822 1850 43.0116
24.6984 1818 42.638
24.8146 1696 41.1825
24.9309 1752 41.8569
25.0472 1662 40.7676
25.1636 1738 41.6893
25.28 1845 42.9535
25.3965 1941 44.0568
25.513 1997 44.6878
25.6296 2037 45.1331
25.7462 2094 45.7602
25.8628 2066 45.4533
25.9795 2075 45.5522
26.0962 2010 44.833
26.213 2035 45.111
26.3298 2000 44.7214
26.4466 2045 45.2217
26.5635 1853 43.0465
26.6804 1795 42.3674
26.7973 1857 43.0929
26.9143 1946 44.1135
27.0313 1890 43.4741
27.1483 1943 44.0795
27.2653 2036 45.1221
27.3824 2042 45.1885
27.4996 2056 45.3431
27.6167 2046 45.2327
27.7339 1926 43.8862
27.8511 1884 43.4051
27.9683 1928 43.909
28.0855 1817 42.6263
28.2028 1854 43.0581
28.3201 1813 42.5793
28.4374 1723 41.509
28.5547 1633 40.4104
28.6721 1612 40.1497
28.7894 1709 41.3401
28.9068 1753 41.8688
29.0242 1858 43.1045
29.1416 1911 43.715
29.259 1863 43.1625
29.3764 1991 44.6206
29.4939 1924 43.8634
29.6113 2019 44.9333
29.7288 1907 43.6692
29.8463 1895 43.5316
29.9638 1814 42.5911
30.0812 1810 42.5441
30.1987 1779 42.1782
30.3162 1799 42.4146
30.4337 1824 42.7083
30.5512 1887 43.4396
30.6687 1897 43.5546
30.7862 1899 43.5775
30.9037 1961 44.2832
31.0212 1951 44.1701
31.1387 2004 44.7661
31.2562 1952 44.1814
31.3737 1990 44.6094
31.4912 2017 44.911
31.6087 1897 43.5546
31.7262 1796 42.3792
31.8436 1766 42.0238
31.9611 1690 41.1096
32.0785 1626 40.3237
32.1959 1630 40.3733
32.3134 1755 41.8927
32.4308 1806 42.4971
32.5482 1921 43.8292
32.6655 1874 43.2897
32.7829 2043 45.1996
32.9002 1881 43.3705
33.0176 1985 44.5533
33.1349 1921 43.8292
33.2522 1934 43.9773
33.3694 2055 45.3321
33.4867 1959 44.2606
33.6039 1916 43.7721
33.7211 1750 41.833
33.8383 1831 42.7902
33.9554 1834 42.8252
34.0725 1828 42.7551
34.1896 1857 43.0929
34.3067 1924 43.8634
34.4237 1964 44.317
34.5407 1983 44.5309
34.6577 2068 45.4753
34.7746 1999 44.7102
34.8915 2068 45.4753
35.0084 1933 43.9659
35.1252 1915 43.7607
35.242 1881 43.3705
35.3587 1861 43.1393
35.4755 1873 43.2782
35.5921 1735 41.6533
35.7088 1633 40.4104
35.8254 1697 41.1947
35.9419 1652 40.6448
36.0584 1713 41.3884
36.1749 1832 42.8019
36.2913 1787 42.2729
36.4077 1898 43.566
36.524 1869 43.2319
36.6403 1963 44.3058
36.7565 1956 44.2267
36.8727 1980 44.4972
36.9889 1955 44.2154
37.1049 1921 43.8292
37.221 0 1
37.3369 0 1
37.4529 0 1
37.5687 0 1
37.6845 0 1
37.8003 0 1
37.916 0 1
38.0316 0 1
38.1472 0 1
40.5851 0 1
40.7008 0 1
40.8164 0 1
40.9322 0 1
41.048 0 1
41.1639 0 1
41.2798 0 1
41.3958 0 1
41.5118 0 1
41.6279 0 1
41.744 1638 40.4722
41.8602 1618 40.2244
41.9765 1667 40.8289
42.0928 1627 40.3361
42.2091 1714 41.4005
42.3255 1714 41.4005
42.4419 1692 41.1339
42.5584 1581 39.7618
42.675 1533 39.1535
42.7915 1551 39.3827
42.9081 1634 40.4228
43.0248 1654 40.6694
43.1415 1634 40.4228
43.2582 1777 42.1545
43.375 1759 41.9404
43.4918 1709 41.3401
43.6087 1757 41.9166
43.7256 1672 40.8901
43.8425 1700 41.2311
43.9595 1589 39.8623
44.0765 1618 40.2244
44.1935 1552 39.3954
44.3106 1493 38.6394
44.4277 1338 36.5787
44.5448 1317 36.2905
44.6619 1250 35.3553
44.7791 1287 35.8748
44.8963 1382 37.1753
45.0136 1413 37.5899
45.1308 1495 38.6652
45.2481 1463 38.2492
45.3654 1463 38.2492
45.4827 1460 38.2099
45.6001 1486 38.5487
45.7174 1530 39.1152
45.8348 1412 37.5766
45.9522 1389 37.2693
46.0697 1351 36.756
46.1871 1298 36.0278
46.3046 1256 35.4401
46.422 1215 34.8569
46.5395 1360 36.8782
46.657 1384 37.2022
46.7745 1361 36.8917
46.892 1380 37.1484
47.0096 1452 38.1051
47.1271 1374 37.0675
47.2446 1353 36.7831
47.3622 1376 37.0945
47.4797 1326 36.4143
47.5973 1292 35.9444
47.7149 1212 34.8138
47.8324 1231 35.0856
47.95 1164 34.1174
48.0675 1023 31.9844
48.1851 987 31.4166
48.3027 998 31.5911
48.4202 972 31.1769
48.5378 1090 33.0151
48.6554 1110 33.3167
48.7729 1215 34.8569
48.8904 1206 34.7275
49.008 1225 35
49.1255 1213 34.8281
49.243 1207 34.7419
49.3605 1159 34.0441
49.478 1148 33.8821
49.5955 1163 34.1028
49.713 1096 33.1059
49.8304 1079 32.8481
49.9479 1158 34.0294
50.0653 1258 35.4683
50.1827 1344 36.6606
50.3001 1388 37.2559
50.4175 1467 38.3014
50.5348 1393 37.3229
50.6521 1465 38.2753
50.7694 1573 39.6611
50.8867 1555 39.4335
51.004 1585 39.8121
51.1212 1562 39.5221
51.2384 1609 40.1123
51.3556 1454 38.1314
51.4727 1401 37.4299
51.5899 1421 37.6962
51.707 1338 36.5787
51.824 1365 36.9459
51.9411 1409 37.5366
52.0581 1593 39.9124
52.175 1641 40.5093
52.2919 1717 41.4367
52.4088 1874 43.2897
52.5257 1812 42.5676
52.6425 1782 42.2137
52.7593 1839 42.8836
52.876 1889 43.4626
52.9927 1838 42.8719
53.1094 1789 42.2966
53.226 1778 42.1663
53.3426 1710 41.3521
53.4591 1754 41.8808
53.5756 1811 42.5558
53.692 1900 43.589
53.8084 1951 44.1701
53.9248 2096 45.7821
54.0411 2061 45.3982
54.1573 1994 44.6542
54.2735 0 1
54.3896 0 1
54.5057 0 1
54.6217 0 1
54.7377 0 1
54.8537 0 1
54.9695 0 1
55.0853 0 1
55.2011 0 1
55.3168 0 1
55.4324 0 1
57.824 0 1
57.9396 0 1
58.0553 0 1
58.1711 0 1
58.2869 0 1
58.4028 0 1
58.5187 0 1
58.6347 0 1
58.7508 0 1
58.8669 0 1
58.983 2382 48.8057
59.0992 2568 50.6754
59.2155 2510 50.0999
59.3318 2634 51.3225
59.4482 2684 51.8073
59.5646 2723 52.1824
59.681 2624 51.225
59.7975 2596 50.951
59.9141 2432 49.3153
60.0306 2238 47.3075
60.1473 2095 45.7712
60.2639 2048 45.2548
60.3807 1946 44.1135
60.4974 1844 42.9418
60.6142 2033 45.0888
60.731 2185 46.744
60.8479 2284 47.7912
60.9648 2395 48.9387
61.0818 2496 49.96
61.1987 2460 49.5984
61.3158 2447 49.4672
61.4328 2422 49.2138
61.5499 2369 48.6724
61.667 2343 48.4045
61.7841 2277 47.7179
61.9013 2149 46.3573
62.0185 2251 47.4447
62.1357 2222 47.1381
62.253 2350 48.4768
62.3702 2409 49.0816
62.4875 2402 49.0102
62.6049 2551 50.5074
62.7222 2563 50.6261
62.8396 2519 50.1896
62.9569 2557 50.5668
63.0743 2563 50.6261
63.1918 2513 50.1298
63.3092 2465 49.6488
63.4267 2303 47.9896
63.5441 2323 48.1975
63.6616 2177 46.6583
63.7791 1887 43.4396
63.8966 1826 42.7317
64.0142 1888 43.4511
64.1317 1926 43.8862
64.2492 2099 45.8148
64.3668 2146 46.3249
64.4843 2263 47.571
64.6019 2354 48.518
64.7195 2397 48.9592
64.837 2459 49.5883
64.9546 2459 49.5883
65.0722 2373 48.7134
65.1898 2252 47.4552
65.3074 2248 47.4131
65.4249 2215 47.0638
65.5425 2116 46
65.6601 2231 47.2335
65.7777 2228 47.2017
65.8952 2352 48.4974
66.0128 2458 49.5782
66.1304 2457 49.5681
66.2479 2556 50.5569
66.3655 2635 51.3323
66.483 2634 51.3225
66.6005 2658 51.5558
66.718 2675 51.7204
66.8355 2474 49.7393
66.953 2547 50.4678
67.0705 2386 48.8467
67.1879 2270 47.6445
67.3054 2190 46.7974
67.4228 1920 43.8178
67.5402 1767 42.0357
67.6576 1875 43.3013
67.7749 1984 44.5421
67.8923 2127 46.1194
68.0096 2357 48.5489
68.1269 2493 49.93
68.2442 2604 51.0294
68.3614 2695 51.9134
68.4787 2591 50.9019
68.5958 2667 51.643
68.713 2623 51.2152
68.8302 2543 50.4282
68.9473 2402 49.0102
69.0643 2423 49.224
69.1814 2434 49.3356
69.2984 2314 48.1041
69.4154 2505 50.05
69.5323 2576 50.7543
69.6492 2704 52
69.7661 2771 52.6403
69.8829 2785 52.7731
69.9997 2900 53.8516
70.1165 2914 53.9815
70.2332 2986 54.6443
70.3499 2985 54.6352
70.4665 2883 53.6936
70.5831 2864 53.5164
70.6996 2692 51.8845
70.8161 2669 51.6624
70.9326 2468 49.679
71.049 2156 46.4327
71.1653 1977 44.4635
71.2817 1913 43.7379
71.3979 1914 43.7493
71.5141 2095 45.7712
71.6303 2189 46.7868
71.7464 2290 47.8539
71.8624 0 1
71.9784 0 1
72.0944 0 1
72.2102 0 1
72.3261 0 1
72.4418 0 1
72.5575 0 1
72.6732 0 1
75.1054 0 1
75.2209 0 1
75.3365 0 1
75.4521 0 1
75.5678 0 1
75.6835 0 1
75.7993 0 1
75.9151 0 1
76.031 0 1
76.147 2684 51.8073
76.263 2620 51.1859
76.3791 2483 49.8297
76.4952 2166 46.5403
76.6113 2079 45.5961
76.7276 2252 47.4552
76.8438 2439 49.3862
76.9601 2800 52.915
77.0765 2941 54.231
77.1929 3196 56.5332
77.3093 3227 56.8067
77.4258 3295 57.4021
77.5423 3254 57.0438
77.6589 3209 56.648
77.7755 3268 57.1664
77.8921 3099 55.6687
78.0088 3024 54.9909
78.1256 2940 54.2218
78.2423 2887 53.7308
78.3591 2839 53.2823
78.4759 2907 53.9166
78.5928 3167 56.2761
78.7097 3216 56.7098
78.8266 3434 58.6003
78.9436 3230 56.8331
79.0606 3373 58.0775
79.1776 3422 58.4979
79.2946 3497 59.1354
79.4117 3529 59.4054
79.5288 3433 58.5918
79.6459 3481 59
79.7631 3175 56.3471
79.8802 2986 54.6443
79.9974 2850 53.3854
80.1147 2560 50.5964
80.2319 2325 48.2183
80.3491 2374 48.7237
80.4664 2507 50.07
80.5837 2860 53.479
80.701 3138 56.0179
80.8183 3251 57.0175
80.9357 3432 58.5833
81.053 3489 59.0678
81.1704 3505 59.203
81.2877 3389 58.2151
81.4051 3402 58.3267
81.5225 3470 58.9067
81.6399 3177 56.3649
81.7573 3225 56.7891
81.8747 3046 55.1906
81.9922 3071 55.4166
82.1096 3145 56.0803
82.227 3277 57.2451
82.3444 3257 57.0701
82.4619 3445 58.6941
82.5793 3395 58.2666
82.6967 3738 61.1392
82.8142 3571 59.7578
82.9316 3642 60.349
83.049 3567 59.7244
83.1664 3544 59.5315
83.2838 3475 58.9491
83.4012 3408 58.3781
83.5186 3224 56.7803
83.636 2879 53.6563
83.7534 2665 51.6236
83.8708 2370 48.6826
83.9881 2365 48.6313
84.1055 2572 50.7149
84.2228 2731 52.259
84.3401 3142 56.0535
84.4575 3529 59.4054
84.5747 3591 59.925
84.692 3794 61.5955
84.8093 3758 61.3025
84.9265 3615 60.1249
85.0437 3673 60.6053
85.1609 3626 60.2163
85.2781 3501 59.1692
85.3952 3395 58.2666
85.5123 3432 58.5833
85.6294 3409 58.3866
85.7465 3421 58.4893
85.8636 3616 60.1332
85.9806 3803 61.6685
86.0976 3932 62.7057
86.2145 4242 65.1306
86.3315 4204 64.8383
86.4484 4416 66.453
86.5652 4173 64.5988
86.682 4480 66.9328
86.7988 4337 65.8559
86.9156 4356 66
87.0323 4094 63.9844
87.149 3993 63.1902
87.2657 3500 59.1608
87.3823 3304 57.4804
87.4988 2885 53.7122
87.6154 3162 56.2317
87.7318 3610 60.0833
87.8483 3967 62.9841
87.9647 4345 65.9166
88.081 4713 68.6513
88.1973 4740 68.8477
88.3136 4836 69.5414
88.4298 4971 70.5053
88.546 4764 69.0217
88.6621 4690 68.4836
88.7781 4573 67.624
88.8942 0 1
89.0101 0 1
89.126 0 1
89.2419 0 1
89.3577 0 1
89.4734 0 1
89.5891 0 1
89.7047 0 1
89.8203 0 1
89.9358 0 1
92.3269 0 1
92.4424 0 1
92.558 0 1
92.6736 0 1
92.7893 0 1
92.905 0 1
93.0208 0 1
93.1366 0 1
93.2525 0 1
93.3685 0 1
93.4845 0 1
93.6005 5282 72.6774
93.7167 5147 71.7426
93.8328 5215 72.215
93.949 5354 73.171
94.0653 5326 72.9794
94.1816 5083 71.2952
94.2979 5071 71.211
94.4143 4873 69.8069
94.5307 4939 70.278
94.6472 4830 69.4982
94.7637 4749 68.913
94.8803 4988 70.6258
94.9969 5107 71.4633
95.1135 5456 73.8647
95.2302 5512 74.2428
95.3469 5639 75.0933
95.4637 5564 74.5922
95.5805 5845 76.4526
95.6973 5930 77.0065
95.8142 5803 76.1774
95.9311 5741 75.7694
96.048 5608 74.8866
96.1649 5451 73.8309
96.2819 5189 72.0347
96.3989 4944 70.3136
96.516 4393 66.2797
96.633 3987 63.1427
96.7501 3968 62.9921
96.8673 4214 64.9153
96.9844 4611 67.9043
97.1016 5256 72.4983
97.2188 5700 75.4983
97.336 5943 77.0909
97.4532 6067 77.8909
97.5704 6180 78.613
97.6877 5982 77.3434
97.805 6149 78.4156
97.9223 5895 76.7789
98.0396 5774 75.9868
98.1569 5546 74.4715
98.2743 5312 72.8835
98.3916 5384 73.3757
98.509 5525 74.3303
98.6264 5483 74.0473
98.7438 5925 76.974
98.8612 5968 77.2528
98.9786 6118 78.2176
99.096 6152 78.4347
99.2134 6658 81.5966
99.3308 6557 80.9753
99.4482 6586 81.1542
99.5656 6567 81.037
99.6831 6288 79.2969
99.8005 6223 78.886
99.9179 5769 75.9539
100.035 5529 74.3572
100.153 4947 70.3349
100.27 4607 67.8749
100.388 4630 68.0441
100.505 5093 71.3653
100.622 5656 75.2064
100.74 6196 78.7147
100.857 6557 80.9753
100.975 6620 81.3634
101.092 6809 82.5167
101.209 6824 82.6075
101.327 6729 82.0305
101.444 6686 81.768
101.561 6521 80.7527
101.679 6313 79.4544
101.796 6217 78.848
101.913 6156 78.4602
102.03 6091 78.0449
102.148 6161 78.492
102.265 6890 83.006
102.382 6510 80.6846
102.499 6948 83.3547
102.616 7052 83.9762
102.733 7206 84.8882
102.851 7237 85.0706
102.968 7353 85.7496
103.085 7333 85.6329
103.202 7116 84.3564
103.319 6932 83.2586
103.436 6473 80.455
103.552 6295 79.341
103.669 5599 74.8265
103.786 5232 72.3326
103.903 5040 70.993
104.02 5554 74.5252
104.137 6161 78.492
104.253 7070 84.0833
104.37 7174 84.6995
104.487 7540 86.8332
104.603 7415 86.1104
104.72 7564 86.9713
104.836 7428 86.1858
104.953 7236 85.0647
105.069 7129 84.4334
105.186 7072 84.0952
105.302 6906 83.1023
105.418 6808 82.5106
105.535 6810 82.5227
105.651 7084 84.1665
105.767 7146 84.534
105.883 7355 85.7613
105.999 7574 87.0287
106.115 0 1
106.231 0 1
106.347 0 1
106.463 0 1
106.579 0 1
106.694 0 1
106.81 0 1
106.926 0 1
107.041 0 1
107.157 0 1
109.576 0 1
109.692 0 1
109.807 0 1
109.923 0 1
110.039 0 1
110.155 0 1
110.27 0 1
110.386 0 1
110.502 0 1
110.618 6458 80.3617
110.735 6818 82.5712
110.851 6820 82.5833
110.967 7066 84.0595
111.083 7048 83.9524
111.199 7113 84.3386
111.316 7169 84.6699
111.432 7122 84.3919
111.549 7262 85.2174
111.665 6948 83.3547
111.782 6729 82.0305
111.898 6392 79.95
112.015 6024 77.6144
112.132 5429 73.6817
112.248 4895 69.9643
112.365 5006 70.7531
112.482 5017 70.8308
112.599 5354 73.171
112.716 6087 78.0192
112.832 6559 80.9877
112.949 6516 80.7217
113.066 6503 80.6412
113.183 6489 80.5543
113.3 6448 80.2994
113.417 6280 79.2465
113.534 6148 78.4092
113.652 6008 77.5113
113.769 5709 75.5579
113.886 5584 74.7262
114.003 5683 75.3857
114.12 5440 73.7564
114.238 5765 75.9276
114.355 5808 76.2102
114.472 5903 76.831
114.589 5965 77.2334
114.707 5975 77.2981
114.824 5958 77.1881
114.942 6044 77.7432
115.059 6098 78.0897
115.176 5952 77.1492
115.294 6057 77.8267
115.411 5732 75.71
115.529 5340 73.0753
115.646 5078 71.2601
115.764 4689 68.4763
115.881 4373 66.1287
115.999 4251 65.1997
116.116 4769 69.0579
116.234 5222 72.2634
116.351 5743 75.7826
116.469 5873 76.6355
116.586 5948 77.1233
116.704 5934 77.0325
116.821 5938 77.0584
116.939 5944 77.0973
117.056 5968 77.2528
117.174 5824 76.3151
117.291 5710 75.5645
117.409 5486 74.0675
117.526 5478 74.0135
117.644 5381 73.3553
117.761 5443 73.7767
117.879 5639 75.0933
117.996 5807 76.2037
118.114 5689 75.4255
118.231 5902 76.8245
118.349 5805 76.1906
118.466 5974 77.2917
118.584 6032 77.666
118.701 5939 77.0649
118.819 5889 76.7398
118.936 5634 75.06
119.053 5691 75.4387
119.171 5337 73.0548
119.288 4998 70.6965
119.405 4655 68.2276
119.523 4187 64.707
119.64 4167 64.5523
119.757 4320 65.7267
119.875 5056 71.1056
119.992 5218 72.2357
120.109 5699 75.4917
120.226 5684 75.3923
120.343 5698 75.4851
120.46 5746 75.8024
120.578 5696 75.4718
120.695 5525 74.3303
120.812 5608 74.8866
120.929 5493 74.1148
121.046 5349 73.1369
121.163 5171 71.9097
121.279 5070 71.2039
121.396 5236 72.3602
121.513 5131 71.631
121.63 5257 72.5052
121.747 5559 74.5587
121.863 5548 74.4849
121.98 5488 74.081
122.097 5521 74.3034
122.213 5505 74.1957
122.33 5684 75.3923
122.446 5691 75.4387
122.563 5535 74.3976
122.679 5371 73.2871
122.795 5132 71.638
122.912 5041 71
123.028 4722 68.7168
123.144 4216 64.9307
123.26 4095 63.9922
123.377 0 1
123.493 0 1
123.609 0 1
123.725 0 1
123.84 0 1
123.956 0 1
124.072 0 1
124.188 0 1
124.303 0 1
124.419 0 1
126.852 0 1
126.968 0 1
127.083 0 1
127.199 0 1
127.315 0 1
127.431 0 1
127.547 0 1
127.663 0 1
127.779 0 1
127.895 0 1
128.011 0 1
128.127 0 1
128.243 0 1
128.359 4752 68.9348
128.476 4298 65.5591
128.592 4364 66.0606
128.708 4648 68.1762
128.825 5086 71.3162
128.941 5627 75.0133
129.058 5898 76.7984
129.174 6074 77.9359
129.291 5948 77.1233
129.408 5892 76.7594
129.524 6029 77.6466
129.641 5894 76.7724
129.758 5697 75.4785
129.875 5568 74.619
129.992 5540 74.4312
130.108 5378 73.3348
130.225 5268 72.581
130.342 5584 74.7262
130.459 5307 72.8492
130.576 5733 75.7166
130.693 5512 74.2428
130.81 5798 76.1446
130.928 5628 75.02
131.045 5726 75.6703
131.162 5717 75.6108
131.279 5906 76.8505
131.396 5846 76.4591
131.513 5598 74.8198
131.631 5494 74.1215
131.748 5440 73.7564
131.865 4951 70.3633
131.983 4402 66.3476
132.1 4145 64.3817
132.217 4386 66.2269
132.335 4876 69.8284
132.452 5159 71.8262
132.57 5490 74.0945
132.687 5378 73.3348
132.804 5732 75.71
132.922 5693 75.452
133.039 5622 74.98
133.157 5568 74.619
133.274 5482 74.0405
133.392 5390 73.4166
133.509 5324 72.9657
133.627 5052 71.0774
133.744 5129 71.617
133.862 5221 72.2565
133.979 5383 73.3689
134.097 5258 72.5121
134.214 5405 73.5187
134.332 5229 72.3118
134.449 5466 73.9324
134.567 5403 73.5051
134.684 5440 73.7564
134.802 5555 74.5319
134.919 5535 74.3976
135.037 5517 74.2765
135.154 5433 73.7089
135.272 5248 72.4431
135.389 4762 69.0072
135.507 4487 66.9851
135.624 4234 65.0692
135.742 4120 64.1872
135.859 4399 66.325
135.977 4772 69.0797
136.094 5184 72
136.211 5311 72.8766
136.329 5511 74.2361
136.446 5459 73.885
136.564 5461 73.8986
136.681 5450 73.8241
136.798 5309 72.8629
136.915 5271 72.6017
137.033 5297 72.7805
137.15 5169 71.8958
137.267 4911 70.0785
137.384 4966 70.4699
137.502 4898 69.9857
137.619 5040 70.993
137.736 5198 72.0972
137.853 5095 71.3793
137.97 5060 71.1337
138.087 5513 74.2496
138.204 5207 72.1595
138.321 5246 72.4293
138.438 5445 73.7902
138.555 5526 74.3371
138.672 5469 73.9527
138.788 5178 71.9583
138.905 5172 71.9166
139.022 4937 70.2638
139.139 4552 67.4685
139.255 4256 65.238
139.372 4118 64.1716
139.488 4334 65.8331
139.605 4744 68.8767
139.721 4987 70.6187
139.838 5383 73.3689
139.954 5331 73.0137
140.071 5278 72.6498
140.187 5251 72.4638
140.303 5252 72.4707
140.419 5282 72.6774
140.535 5253 72.4776
140.652 5061 71.1407
140.768 0 1
140.884 0 1
141 0 1
141.115 0 1
141.231 0 1
141.347 0 1
141.463 0 1
141.578 0 1
141.694 0 1
144.104 0 1
144.219 0 1
144.335 0 1
144.45 0 1
144.566 0 1
144.682 0 1
144.798 0 1
144.914 0 1
145.03 0 1
145.146 4633 68.0661
145.262 4695 68.5201
145.378 4531 67.3127
145.494 4549 67.4463
145.61 4483 66.9552
145.726 4364 66.0606
145.842 4303 65.5973
145.959 4267 65.3223
146.075 4261 65.2763
146.192 4288 65.4828
146.308 4315 65.6887
146.425 4300 65.5744
146.541 4380 66.1816
146.658 4318 65.7115
146.774 4381 66.1891
146.891 4317 65.7039
147.008 4443 66.6558
147.125 4488 66.9925
147.241 4526 67.2756
147.358 4444 66.6633
147.475 4269 65.3376
147.592 4007 63.3009
147.709 3895 62.4099
147.826 3512 59.2621
147.943 3436 58.6174
148.06 3545 59.5399
148.177 3807 61.7009
148.294 4060 63.7181
148.411 4244 65.146
148.528 4427 66.5357
148.645 4325 65.7647
148.762 4329 65.7951
148.88 4231 65.0461
148.997 4280 65.4217
149.114 4407 66.3852
149.231 4127 64.2417
149.349 4116 64.1561
149.466 3961 62.9365
149.583 3922 62.6259
149.701 3836 61.9355
149.818 3872 62.2254
149.935 3976 63.0555
150.053 4014 63.3561
150.17 3984 63.1189
150.287 4086 63.9218
150.405 4082 63.8905
150.522 4086 63.9218
150.64 4216 64.9307
150.757 4186 64.6993
150.875 4236 65.0846
150.992 4082 63.8905
151.11 3877 62.2656
151.227 3870 62.2093
151.344 3577 59.808
151.462 3433 58.5918
151.579 3257 57.0701
151.697 3286 57.3236
151.814 3647 60.3904
151.932 3970 63.0079
152.049 4114 64.1405
152.167 4168 64.56
152.284 4273 65.3682
152.402 4097 64.0078
152.519 4313 65.6734
152.636 4157 64.4748
152.754 4204 64.8383
152.871 4173 64.5988
152.989 4001 63.2535
153.106 3911 62.538
153.223 3901 62.458
153.341 3791 61.5711
153.458 3876 62.2575
153.575 4030 63.4823
153.693 4013 63.3482
153.81 4001 63.2535
153.927 4011 63.3325
154.044 4078 63.8592
154.162 4186 64.6993
154.279 4299 65.5668
154.396 4329 65.7951
154.513 4338 65.8635
154.63 4273 65.3682
154.747 4109 64.1015
154.864 4046 63.6082
154.981 3821 61.8142
155.098 3617 60.1415
155.215 3502 59.1777
155.332 3493 59.1016
155.449 3849 62.0403
155.566 4178 64.6375
155.683 4271 65.3529
155.8 4402 66.3476
155.917 4197 64.7843
156.033 4118 64.1716
156.15 0 1
156.267 0 1
156.383 0 1
156.5 0 1
156.617 0 1
156.733 0 1
156.85 0 1
156.966 0 1
157.082 0 1
157.199 0 1
157.315 0 1
157.431 0 1
157.547 0 1
157.664 0 1
157.78 0 1
157.896 0 1
158.012 0 1
158.128 0 1
158.244 0 1
158.359 0 1
158.475 0 1
158.591 0 1
158.706 0 1
