
6.15755 0 1
6.2731 0 1
6.3887 0 1
6.50437 0 1
6.62009 0 1
6.73587 0 1
6.8517 0 1
6.96759 0 1
7.08353 0 1
7.19952 0 1
7.31557 0 1
7.43166 0 1
7.54781 0 1
7.664 0 1
7.78024 0 1
7.89653 0 1
8.01286 0 1
8.12924 0 1
8.24567 0 1
8.36213 0 1
8.47864 0 1
8.59519 0 1
8.71178 0 1
8.82841 0 1
8.94508 0 1
9.06179 0 1
9.17853 0 1
9.29531 0 1
9.41212 0 1
9.52897 0 1
9.64584 0 1
9.76276 0 1
9.8797 0 1
9.99667 0 1
10.1137 0 1
10.2307 0 1
10.3478 0 1
10.4648 0 1
10.5819 0 1
10.6991 0 1
10.8162 0 1
10.9334 0 1
11.0506 0 1
11.1678 0 1
11.285 0 1
11.4023 0 1
11.5196 0 1
11.6369 0 1
11.7542 0 1
11.8715 0 1
11.9888 0 1
12.1062 0 1
12.2235 0 1
12.3409 0 1
12.4582 0 1
12.5756 0 1
12.693 0 1
12.8104 0 1
12.9278 0 1
13.0452 0 1
13.1626 0 1
13.28 0 1
13.3974 0 1
13.5149 0 1
13.6323 0 1
13.7497 0 1
13.8671 0 1
13.9845 0 1
14.1019 0 1
14.2193 0 1
14.3367 0 1
14.4541 0 1
14.5714 0 1
14.6888 0 1
14.8062 0 1
14.9235 0 1
15.0408 0 0
15.1581 0 0
15.2755 0 0
15.3927 0 0
15.51 0 0
15.6273 0 0
15.7445 0 0
15.8617 0 0
15.9789 0 0
16.0961 0 0
16.2132 0 0
16.3304 0 0
16.4475 0 0
16.5646 0 0
16.6816 0 0
16.7986 0 0
16.9156 0 0
17.0326 0 0
17.1496 0 0
17.2665 0 0
17.3833 0 0
17.5002 0 0
17.617 0 0
17.7338 0 0
17.8505 0 0
17.9672 0 0
18.0839 0 0
18.2005 0 0
18.3171 0 0
18.4337 0 0
18.5502 0 0
18.6666 0 0
18.7831 0 0
18.8994 0 0
19.0158 0 0
19.1321 0 0
19.2483 0 0
19.3645 0 0
19.4806 0 0
19.5967 0 0
19.7128 0 0
19.8288 0 0
19.9447 0 0
20.0606 0 1
20.1764 0 1
20.2922 0 1
20.4079 0 1
20.5236 0 1
20.6392 0 1
20.7548 0 1
20.8702 0 1
23.3078 0 1
23.4233 0 1
23.539 0 1
23.6547 0 1
23.7704 0 1
23.8862 0 1
24.0021 0 1
24.118 0 1
24.234 0 1
24.35 0 1
24.4661 10205 101.02
24.5822 10623 103.068
24.6984 10591 102.913
24.8146 10356 101.764
24.9309 10319 101.582
25.0472 10193 100.96
25.1636 10285 101.415
25.28 10397 101.966
25.3965 10455 102.25
25.513 10804 103.942
25.6296 11258 106.104
25.7462 11462 107.061
25.8628 11530 107.378
25.9795 11510 107.285
26.0962 11555 107.494
26.213 11458 107.042
26.3298 11125 105.475
26.4466 10957 104.676
26.5635 10539 102.66
26.6804 10562 102.772
26.7973 10621 103.058
26.9143 11020 104.976
27.0313 11104 105.376
27.1483 11473 107.112
27.2653 11490 107.191
27.3824 11722 108.268
27.4996 12001 109.549
27.6167 11659 107.977
27.7339 11368 106.621
27.8511 11427 106.897
27.9683 11154 105.612
28.0855 11086 105.29
28.2028 10766 103.759
28.3201 10909 104.446
28.4374 10286 101.42
28.5547 10020 100.1
28.6721 9749 98.737
28.7894 9843 99.2119
28.9068 9770 98.8433
29.0242 9933 99.6644
29.1416 9939 99.6945
29.259 10431 102.132
29.3764 10211 101.049
29.4939 10470 102.323
29.6113 10583 102.874
29.7288 10510 102.518
29.8463 10477 102.357
29.9638 10291 101.445
30.0812 9962 99.8098
30.1987 9809 99.0404
30.3162 9958 99.7898
30.4337 10328 101.627
30.5512 10654 103.218
30.6687 11007 104.914
30.7862 11019 104.971
30.9037 11368 106.621
31.0212 11528 107.369
31.1387 11184 105.754
31.2562 11437 106.944
31.3737 11355 106.56
31.4912 11203 105.844
31.6087 10861 104.216
31.7262 10972 104.747
31.8436 10456 102.255
31.9611 10116 100.578
32.0785 10014 100.07
32.1959 9523 97.5859
32.3134 9691 98.4429
32.4308 9578 97.8673
32.5482 9457 97.2471
32.6655 9790 98.9444
32.7829 10139 100.693
32.9002 10076 100.379
33.0176 10220 101.094
33.1349 10347 101.72
33.2522 10487 102.406
33.3694 10483 102.387
33.4867 10538 102.655
33.6039 10220 101.094
33.7211 10082 100.409
33.8383 9894 99.4686
33.9554 9847 99.2321
34.0725 10200 100.995
34.1896 10479 102.367
34.3067 10831 104.072
34.4237 11149 105.589
34.5407 11165 105.665
34.6577 11293 106.269
34.7746 11418 106.855
34.8915 11205 105.854
35.0084 11057 105.152
35.1252 10933 104.561
35.242 11021 104.981
35.3587 10925 104.523
35.4755 10716 103.518
35.5921 10289 101.435
35.7088 10187 100.931
35.8254 9837 99.1817
35.9419 9479 97.3602
36.0584 9380 96.8504
36.1749 9346 96.6747
36.2913 9585 97.903
36.4077 9553 97.7394
36.524 9877 99.3831
36.6403 9976 99.8799
36.7565 9922 99.6092
36.8727 10178 100.886
36.9889 10053 100.265
37.1049 10261 101.297
37.221 0 1
37.3369 0 1
37.4529 0 1
37.5687 0 1
37.6845 0 1
37.8003 0 1
37.916 0 1
38.0316 0 1
38.1472 0 1
40.5851 0 1
40.7008 0 1
40.8164 0 1
40.9322 0 1
41.048 0 1
41.1639 0 1
41.2798 0 1
41.3958 0 1
41.5118 0 1
41.6279 0 1
41.744 8116 90.0888
41.8602 8440 91.8695
41.9765 8705 93.3006
42.0928 9006 94.8999
42.2091 9106 95.4254
42.3255 9038 95.0684
42.4419 8788 93.7443
42.5584 8607 92.7739
42.675 8507 92.2334
42.7915 8600 92.7362
42.9081 9028 95.0158
43.0248 9339 96.6385
43.1415 9563 97.7906
43.2582 9693 98.453
43.375 9790 98.9444
43.4918 10226 101.124
43.6087 9921 99.6042
43.7256 10060 100.3
43.8425 9717 98.5748
43.9595 9643 98.1988
44.0765 9562 97.7855
44.1935 9201 95.9218
44.3106 9150 95.6556
44.4277 8546 92.4446
44.5448 8173 90.4046
44.6619 7675 87.6071
44.7791 7602 87.1894
44.8963 7469 86.4234
45.0136 7357 85.773
45.1308 7265 85.235
45.2481 7517 86.7006
45.3654 7699 87.7439
45.4827 7818 88.4195
45.6001 7488 86.5332
45.7174 7586 87.0976
45.8348 7683 87.6527
45.9522 7501 86.6083
46.0697 7345 85.703
46.1871 7038 83.8928
46.3046 7113 84.3386
46.422 7083 84.1606
46.5395 7509 86.6545
46.657 7592 87.1321
46.7745 7740 87.9773
46.892 7908 88.9269
47.0096 8015 89.5265
47.1271 7989 89.3812
47.2446 7908 88.9269
47.3622 7818 88.4195
47.4797 7507 86.6429
47.5973 7545 86.862
47.7149 7246 85.1234
47.8324 6980 83.5464
47.95 6532 80.8208
48.0675 6554 80.9568
48.1851 6109 78.1601
48.3027 5791 76.0986
48.4202 5674 75.326
48.5378 5649 75.1598
48.6554 5590 74.7663
48.7729 5806 76.1971
48.8904 6037 77.6981
49.008 6107 78.1473
49.1255 6265 79.1518
49.243 6116 78.2049
49.3605 6295 79.341
49.478 6124 78.256
49.5955 5878 76.6681
49.713 5933 77.026
49.8304 5823 76.3086
49.9479 6098 78.0897
50.0653 6342 79.6367
50.1827 6983 83.5643
50.3001 6973 83.5045
50.4175 7317 85.5395
50.5348 7649 87.4586
50.6521 7811 88.3799
50.7694 8134 90.1887
50.8867 8043 89.6828
51.004 8298 91.0934
51.1212 8287 91.033
51.2384 8230 90.7193
51.3556 8352 91.3893
51.4727 8154 90.2995
51.5899 7592 87.1321
51.707 7635 87.3785
51.824 7281 85.3288
51.9411 7393 85.9826
52.0581 7368 85.8371
52.175 7621 87.2983
52.2919 7707 87.7895
52.4088 8100 90
52.5257 8112 90.0666
52.6425 8299 91.0988
52.7593 8464 92
52.876 8777 93.6856
52.9927 8896 94.3186
53.1094 9062 95.1945
53.226 8627 92.8816
53.3426 8623 92.8601
53.4591 8789 93.7497
53.5756 9290 96.3846
53.692 9895 99.4736
53.8084 10325 101.612
53.9248 10760 103.73
54.0411 11159 105.636
54.1573 11386 106.705
54.2735 0 1
54.3896 0 1
54.5057 0 1
54.6217 0 1
54.7377 0 1
54.8537 0 1
54.9695 0 1
55.0853 0 1
55.2011 0 1
55.3168 0 1
55.4324 0 1
57.824 0 1
57.9396 0 1
58.0553 0 1
58.1711 0 1
58.2869 0 1
58.4028 0 1
58.5187 0 1
58.6347 0 1
58.7508 0 1
58.8669 0 1
58.983 11873 108.963
59.0992 12410 111.4
59.2155 12836 113.296
59.3318 13066 114.307
59.4482 13587 116.563
59.5646 13723 117.145
59.681 13684 116.979
59.7975 13634 116.765
59.9141 13217 114.965
60.0306 12473 111.683
60.1473 12008 109.581
60.2639 11384 106.696
60.3807 10805 103.947
60.4974 10230 101.143
60.6142 9834 99.1665
60.731 9869 99.3428
60.8479 9786 98.9242
60.9648 10157 100.782
61.0818 10404 102
61.1987 10793 103.889
61.3158 10655 103.223
61.4328 10856 104.192
61.5499 10712 103.499
61.667 10273 101.356
61.7841 10258 101.282
61.9013 9880 99.3982
62.0185 10173 100.861
62.1357 10375 101.858
62.253 10782 103.836
62.3702 11084 105.281
62.4875 11656 107.963
62.6049 12206 110.481
62.7222 12604 112.268
62.8396 12662 112.526
62.9569 12757 112.947
63.0743 12795 113.115
63.1918 12594 112.223
63.3092 12318 110.986
63.4267 12089 109.95
63.5441 11299 106.297
63.6616 11214 105.896
63.7791 10153 100.762
63.8966 9495 97.4423
64.0142 9233 96.0885
64.1317 8803 93.8243
64.2492 8672 93.1236
64.3668 8649 93
64.4843 8960 94.6573
64.6019 9368 96.7884
64.7195 9678 98.3768
64.837 9813 99.0606
64.9546 9835 99.1716
65.0722 9741 98.6965
65.1898 9557 97.7599
65.3074 9363 96.7626
65.4249 9152 95.6661
65.5425 8896 94.3186
65.6601 8997 94.8525
65.7777 9482 97.3756
65.8952 10115 100.573
66.0128 10790 103.875
66.1304 11097 105.342
66.2479 11484 107.163
66.3655 11954 109.334
66.483 11928 109.215
66.6005 12278 110.806
66.718 12021 109.64
66.8355 11989 109.494
66.953 11596 107.685
67.0705 11179 105.731
67.1879 10783 103.841
67.3054 10176 100.876
67.4228 9609 98.0255
67.5402 9028 95.0158
67.6576 8549 92.4608
67.7749 8437 91.8531
67.8923 8213 90.6256
68.0096 8606 92.7685
68.1269 8955 94.6309
68.2442 9640 98.1835
68.3614 9902 99.5088
68.4787 10054 100.27
68.5958 10110 100.548
68.713 9985 99.925
68.8302 9877 99.3831
68.9473 9619 98.0765
69.0643 9458 97.2522
69.1814 8964 94.6784
69.2984 9368 96.7884
69.4154 9859 99.2925
69.5323 10640 103.15
69.6492 11351 106.541
69.7661 11796 108.609
69.8829 12697 112.681
69.9997 13238 115.057
70.1165 13259 115.148
70.2332 13181 114.809
70.3499 13260 115.152
70.4665 13051 114.241
70.5831 12839 113.309
70.6996 12286 110.842
70.8161 11767 108.476
70.9326 11253 106.08
71.049 10761 103.735
71.1653 9887 99.4334
71.2817 9264 96.2497
71.3979 8785 93.7283
71.5141 8579 92.6229
71.6303 8565 92.5473
71.7464 8214 90.6311
71.8624 0 1
71.9784 0 1
72.0944 0 1
72.2102 0 1
72.3261 0 1
72.4418 0 1
72.5575 0 1
72.6732 0 1
75.1054 0 1
75.2209 0 1
75.3365 0 1
75.4521 0 1
75.5678 0 1
75.6835 0 1
75.7993 0 1
75.9151 0 1
76.031 0 1
76.147 10945 104.618
76.263 11482 107.154
76.3791 11195 105.806
76.4952 11001 104.886
76.6113 10042 100.21
76.7276 9155 95.6818
76.8438 9238 96.1145
76.9601 9304 96.4572
77.0765 9657 98.27
77.1929 10197 100.98
77.3093 11019 104.971
77.4258 11808 108.665
77.5423 11968 109.398
77.6589 11625 107.819
77.7755 11176 105.717
77.8921 11048 105.109
78.0088 10350 101.735
78.1256 10007 100.035
78.2423 9655 98.2599
78.3591 9627 98.1173
78.4759 10113 100.563
78.5928 10933 104.561
78.7097 11808 108.665
78.8266 12309 110.946
78.9436 13081 114.372
79.0606 13077 114.355
79.1776 13333 115.469
79.2946 13492 116.155
79.4117 13267 115.182
79.5288 13325 115.434
79.6459 13079 114.363
79.7631 11985 109.476
79.8802 11580 107.61
79.9974 10908 104.441
80.1147 10376 101.863
80.2319 9731 98.6458
80.3491 8924 94.4669
80.4664 8870 94.1807
80.5837 8685 93.1933
80.701 8911 94.3981
80.8183 9512 97.5295
80.9357 10148 100.737
81.053 10491 102.426
81.1704 10303 101.504
81.2877 10229 101.139
81.4051 9964 99.8198
81.5225 10067 100.334
81.6399 9273 96.2964
81.7573 9051 95.1367
81.8747 8505 92.2226
81.9922 8320 91.214
82.1096 8949 94.5992
82.227 9827 99.1312
82.3444 10446 102.206
82.4619 11296 106.283
82.5793 11662 107.991
82.6967 11476 107.126
82.8142 11820 108.72
82.9316 11885 109.018
83.049 11759 108.439
83.1664 11488 107.182
83.2838 10940 104.594
83.4012 10587 102.893
83.5186 9902 99.5088
83.636 9577 97.8621
83.7534 9119 95.4935
83.8708 8527 92.3418
83.9881 7818 88.4195
84.1055 7531 86.7813
84.2228 7629 87.3441
84.3401 7737 87.9602
84.4575 8418 91.7497
84.5747 9192 95.8749
84.692 9451 97.2163
84.8093 9875 99.373
84.9265 9635 98.158
85.0437 9299 96.4313
85.1609 8896 94.3186
85.2781 8591 92.6876
85.3952 8334 91.2907
85.5123 8139 90.2164
85.6294 8353 91.3947
85.7465 8937 94.5357
85.8636 9847 99.2321
85.9806 10929 104.542
86.0976 11718 108.25
86.2145 12249 110.675
86.3315 12716 112.765
86.4484 13012 114.07
86.5652 13097 114.442
86.682 13039 114.188
86.7988 12851 113.362
86.9156 12373 111.234
87.0323 12054 109.791
87.149 11272 106.17
87.2657 11229 105.967
87.3823 10551 102.718
87.4988 9830 99.1464
87.6154 9311 96.4935
87.7318 9514 97.5397
87.8483 9778 98.8838
87.9647 10351 101.74
88.081 11061 105.171
88.1973 12002 109.554
88.3136 12219 110.54
88.4298 12109 110.041
88.546 11877 108.982
88.6621 11598 107.694
88.7781 11237 106.005
88.8942 0 1
89.0101 0 1
89.126 0 1
89.2419 0 1
89.3577 0 1
89.4734 0 1
89.5891 0 1
89.7047 0 1
89.8203 0 1
89.9358 0 1
92.3269 0 1
92.4424 0 1
92.558 0 1
92.6736 0 1
92.7893 0 1
92.905 0 1
93.0208 0 1
93.1366 0 1
93.2525 0 1
93.3685 0 1
93.4845 0 1
93.6005 18559 136.231
93.7167 20474 143.087
93.8328 21148 145.424
93.949 22034 148.439
94.0653 22262 149.205
94.1816 22555 150.183
94.2979 22159 148.859
94.4143 21983 148.267
94.5307 21521 146.7
94.6472 21828 147.743
94.7637 22954 151.506
94.8803 25210 158.777
94.9969 27809 166.76
95.1135 30091 173.468
95.2302 32275 179.652
95.3469 33417 182.803
95.4637 35017 187.128
95.5805 35905 189.486
95.6973 36854 191.974
95.8142 37434 193.479
95.9311 37475 193.585
96.048 37364 193.298
96.1649 36160 190.158
96.2819 36445 190.906
96.3989 35382 188.101
96.516 34296 185.192
96.633 32419 180.053
96.7501 31363 177.096
96.8673 31150 176.494
96.9844 31869 178.519
97.1016 33538 183.134
97.2188 35261 187.779
97.336 37259 193.026
97.4532 38109 195.215
97.5704 38455 196.099
97.6877 37511 193.678
97.805 36484 191.008
97.9223 34392 185.451
98.0396 31853 178.474
98.1569 29637 172.154
98.2743 27912 167.069
98.3916 27820 166.793
98.509 29729 172.421
98.6264 32674 180.76
98.7438 34927 186.888
98.8612 36888 192.062
98.9786 38098 195.187
99.096 39328 198.313
99.2134 39213 198.023
99.3308 39719 199.296
99.4482 39580 198.947
99.5656 38413 195.992
99.6831 38401 195.962
99.8005 37207 192.891
99.9179 36329 190.602
100.035 35316 187.926
100.153 33971 184.312
100.27 31932 178.695
100.388 30802 175.505
100.505 30808 175.522
100.622 32159 179.329
100.74 34089 184.632
100.857 35528 188.489
100.975 36541 191.157
101.092 36841 191.94
101.209 36287 190.491
101.327 35388 188.117
101.444 34780 186.494
101.561 31677 177.98
101.679 28787 169.667
101.796 26940 164.134
101.913 25396 159.361
102.03 26194 161.846
102.148 28257 168.098
102.265 32805 181.122
102.382 30131 173.583
102.499 32982 181.609
102.616 32862 181.279
102.733 32579 180.497
102.851 32468 180.189
102.968 31312 176.952
103.085 30653 175.08
103.202 29173 170.801
103.319 27809 166.76
103.436 26166 161.759
103.552 24253 155.734
103.669 22882 151.268
103.786 20943 144.717
103.903 19211 138.604
104.02 18680 136.675
104.137 18313 135.326
104.253 18545 136.18
104.37 18201 134.911
104.487 19079 138.127
104.603 18593 136.356
104.72 17611 132.706
104.836 16893 129.973
104.953 15975 126.392
105.069 14788 121.606
105.186 13759 117.299
105.302 13272 115.204
105.418 12999 114.013
105.535 13465 116.039
105.651 14502 120.424
105.767 15526 124.603
105.883 16536 128.592
105.999 16988 130.338
106.115 0 1
106.231 0 1
106.347 0 1
106.463 0 1
106.579 0 1
106.694 0 1
106.81 0 1
106.926 0 1
107.041 0 1
107.157 0 1
109.576 0 1
109.692 0 1
109.807 0 1
109.923 0 1
110.039 0 1
110.155 0 1
110.27 0 1
110.386 0 1
110.502 0 1
110.618 12072 109.873
110.735 13541 116.366
110.851 14766 121.515
110.967 15870 125.976
111.083 15933 126.226
111.199 16115 126.945
111.316 16613 128.891
111.432 16674 129.128
111.549 16378 127.977
111.665 16065 126.748
111.782 15560 124.74
111.898 15141 123.049
112.015 14338 119.741
112.132 14044 118.507
112.248 13255 115.13
112.365 12421 111.45
112.482 11821 108.724
112.599 11489 107.187
112.716 11829 108.761
112.832 12303 110.919
112.949 12699 112.69
113.066 13219 114.974
113.183 13168 114.752
113.3 12763 112.973
113.417 12600 112.25
113.534 12493 111.772
113.652 12041 109.731
113.769 11878 108.986
113.886 11689 108.116
114.003 11458 107.042
114.12 12114 110.064
114.238 13233 115.035
114.355 14542 120.59
114.472 16095 126.866
114.589 15121 122.967
114.707 16242 127.444
114.824 16607 128.868
114.942 16435 128.199
115.059 16407 128.09
115.176 16322 127.758
115.294 15983 126.424
115.411 15299 123.689
115.529 15066 122.744
115.646 14478 120.325
115.764 13809 117.512
115.881 13169 114.756
115.999 12588 112.196
116.116 12201 110.458
116.234 12244 110.653
116.351 12494 111.777
116.469 13037 114.18
116.586 13580 116.533
116.704 13610 116.662
116.821 13506 116.215
116.939 13087 114.398
117.056 13200 114.891
117.174 13092 114.42
117.291 12714 112.756
117.409 12144 110.2
117.526 12201 110.458
117.644 12811 113.186
117.761 13630 116.748
117.879 14667 121.107
117.996 15665 125.16
118.114 16298 127.664
118.231 16833 129.742
118.349 16907 130.027
118.466 17122 130.851
118.584 17082 130.698
118.701 16965 130.25
118.819 16795 129.596
118.936 16094 126.862
119.053 15886 126.04
119.171 15400 124.097
119.288 14859 121.897
119.405 14300 119.583
119.523 13562 116.456
119.64 13015 114.083
119.757 12663 112.53
119.875 12734 112.845
119.992 12739 112.867
120.109 13357 115.572
120.226 13637 116.778
120.343 13519 116.271
120.46 13452 115.983
120.578 13532 116.327
120.695 13462 116.026
120.812 13511 116.237
120.929 13275 115.217
121.046 12942 113.763
121.163 12710 112.739
121.279 12999 114.013
121.396 13794 117.448
121.513 14570 120.706
121.63 15304 123.709
121.747 16224 127.373
121.863 16807 129.642
121.98 16820 129.692
122.097 17097 130.755
122.213 16720 129.306
122.33 16952 130.2
122.446 16767 129.487
122.563 16491 128.417
122.679 16085 126.827
122.795 15557 124.728
122.912 15408 124.129
123.028 14842 121.828
123.144 14490 120.374
123.26 13725 117.154
123.377 0 1
123.493 0 1
123.609 0 1
123.725 0 1
123.84 0 1
123.956 0 1
124.072 0 1
124.188 0 1
124.303 0 1
124.419 0 1
126.852 0 1
126.968 0 1
127.083 0 1
127.199 0 1
127.315 0 1
127.431 0 1
127.547 0 1
127.663 0 1
127.779 0 1
127.895 0 1
128.011 0 1
128.127 0 1
128.243 0 1
128.359 15847 125.885
128.476 15489 124.455
128.592 14791 121.618
128.708 14263 119.428
128.825 14407 120.029
128.941 14730 121.367
129.058 15269 123.568
129.174 15446 124.282
129.291 15384 124.032
129.408 15160 123.126
129.524 14992 122.442
129.641 14966 122.336
129.758 14904 122.082
129.875 14574 120.723
129.992 14426 120.108
130.108 14342 119.758
130.225 14290 119.541
130.342 14628 120.946
130.459 15724 125.395
130.576 16966 130.254
130.693 17193 131.122
130.81 17390 131.871
130.928 17857 133.63
131.045 17505 132.306
131.162 17742 133.199
131.279 17606 132.688
131.396 17996 134.149
131.513 17019 130.457
131.631 16889 129.958
131.748 16858 129.838
131.865 16116 126.949
131.983 15742 125.467
132.1 15126 122.988
132.217 14556 120.648
132.335 14374 119.892
132.452 14571 120.71
132.57 14794 121.631
132.687 14720 121.326
132.804 15723 125.391
132.922 14711 121.289
133.039 14982 122.401
133.157 15135 123.024
133.274 14937 122.217
133.392 14750 121.45
133.509 14417 120.071
133.627 14332 119.716
133.744 14243 119.344
133.862 14544 120.599
133.979 15382 124.024
134.097 15975 126.392
134.214 16530 128.569
134.332 16738 129.375
134.449 17215 131.206
134.567 17253 131.351
134.684 17764 133.282
134.802 17792 133.387
134.919 17805 133.435
135.037 17712 133.086
135.154 17399 131.905
135.272 16777 129.526
135.389 16652 129.043
135.507 16177 127.189
135.624 15540 124.66
135.742 15144 123.061
135.859 14378 119.908
135.977 14698 121.235
136.094 14980 122.393
136.211 15392 124.064
136.329 15642 125.068
136.446 15625 125
136.564 15496 124.483
136.681 15355 123.915
136.798 15450 124.298
136.915 15222 123.377
137.033 14955 122.291
137.15 14765 121.511
137.267 14564 120.681
137.384 14079 118.655
137.502 14667 121.107
137.619 15311 123.738
137.736 16211 127.322
137.853 16233 127.409
137.97 16915 130.058
138.087 17113 130.817
138.204 17243 131.313
138.321 17475 132.193
138.438 17874 133.694
138.555 18186 134.855
138.672 17841 133.57
138.788 17638 132.808
138.905 17305 131.548
139.022 17136 130.905
139.139 16691 129.194
139.255 16168 127.153
139.372 15781 125.622
139.488 15177 123.195
139.605 15413 124.149
139.721 15470 124.378
139.838 15834 125.833
139.954 15999 126.487
140.071 15565 124.76
140.187 15725 125.399
140.303 15605 124.92
140.419 15453 124.31
140.535 15290 123.653
140.652 14529 120.536
140.768 0 1
140.884 0 1
141 0 1
141.115 0 1
141.231 0 1
141.347 0 1
141.463 0 1
141.578 0 1
141.694 0 1
144.104 0 1
144.219 0 1
144.335 0 1
144.45 0 1
144.566 0 1
144.682 0 1
144.798 0 1
144.914 0 1
145.03 0 1
145.146 14511 120.462
145.262 14561 120.669
145.378 14856 121.885
145.494 14504 120.433
145.61 14494 120.391
145.726 14106 118.769
145.842 14012 118.372
145.959 13767 117.333
146.075 13705 117.068
146.192 14012 118.372
146.308 14932 122.197
146.425 15225 123.39
146.541 15845 125.877
146.658 16081 126.811
146.774 16230 127.397
146.891 16563 128.697
147.008 16401 128.066
147.125 17003 130.396
147.241 17018 130.453
147.358 16810 129.653
147.475 16519 128.526
147.592 16286 127.617
147.709 16047 126.677
147.826 15628 125.012
147.943 15247 123.479
148.06 14416 120.067
148.177 14548 120.615
148.294 14618 120.905
148.411 15136 123.028
148.528 15230 123.41
148.645 15562 124.748
148.762 15557 124.728
148.88 15463 124.35
148.997 15061 122.723
149.114 15803 125.71
149.231 14781 121.577
149.349 15028 122.589
149.466 14071 118.621
149.583 14036 118.474
149.701 13914 117.958
149.818 14161 119
149.935 14939 122.225
150.053 15372 123.984
150.17 15766 125.563
150.287 15906 126.119
150.405 16243 127.448
150.522 16658 129.066
150.64 16963 130.242
150.757 17234 131.278
150.875 17449 132.095
150.992 17387 131.86
151.11 16877 129.912
151.227 16806 129.638
151.344 16427 128.168
151.462 15854 125.913
151.579 15706 125.324
151.697 15203 123.3
151.814 15279 123.608
151.932 15283 123.624
152.049 15551 124.704
152.167 16093 126.858
152.284 16101 126.89
152.402 16464 128.312
152.519 16221 127.362
152.636 16361 127.91
152.754 16045 126.669
152.871 15495 124.479
152.989 15668 125.172
153.106 14936 122.213
153.223 14769 121.528
153.341 14761 121.495
153.458 15140 123.045
153.575 15504 124.515
153.693 16048 126.681
153.81 16623 128.93
153.927 16832 129.738
154.044 17369 131.792
154.162 17700 133.041
154.279 17945 133.959
154.396 17985 134.108
154.513 18531 136.129
154.63 18356 135.484
154.747 18007 134.19
154.864 17943 133.951
154.981 17491 132.254
155.098 17100 130.767
155.215 16324 127.765
155.332 16420 128.141
155.449 15963 126.345
155.566 16390 128.023
155.683 16774 129.514
155.8 16873 129.896
155.917 17035 130.518
156.033 16619 128.915
156.15 0 1
156.267 0 1
156.383 0 1
156.5 0 1
156.617 0 1
156.733 0 1
156.85 0 1
156.966 0 1
157.082 0 1
157.199 0 1
157.315 0 1
157.431 0 1
157.547 0 1
157.664 0 1
157.78 0 1
157.896 0 1
158.012 0 1
158.128 0 1
158.244 0 1
158.359 0 1
158.475 0 1
158.591 0 1
158.706 0 1
