
6.15755 0 1
6.2731 0 1
6.3887 0 1
6.50437 0 1
6.62009 0 1
6.73587 0 1
6.8517 0 1
6.96759 0 1
7.08353 0 1
7.19952 0 1
7.31557 0 1
7.43166 0 1
7.54781 0 1
7.664 0 1
7.78024 0 1
7.89653 0 1
8.01286 0 1
8.12924 0 1
8.24567 0 1
8.36213 0 1
8.47864 0 1
8.59519 0 1
8.71178 0 1
8.82841 0 1
8.94508 0 1
9.06179 0 1
9.17853 0 1
9.29531 0 1
9.41212 0 1
9.52897 0 1
9.64584 0 1
9.76276 0 1
9.8797 0 1
9.99667 0 1
10.1137 0 1
10.2307 0 1
10.3478 0 1
10.4648 0 1
10.5819 0 1
10.6991 0 1
10.8162 0 1
10.9334 0 1
11.0506 0 1
11.1678 0 1
11.285 0 1
11.4023 0 1
11.5196 0 1
11.6369 0 1
11.7542 0 1
11.8715 0 1
11.9888 0 1
12.1062 0 1
12.2235 0 1
12.3409 0 1
12.4582 0 1
12.5756 0 1
12.693 0 1
12.8104 0 1
12.9278 0 1
13.0452 0 1
13.1626 0 1
13.28 0 1
13.3974 0 1
13.5149 0 1
13.6323 0 1
13.7497 0 1
13.8671 0 1
13.9845 0 1
14.1019 0 1
14.2193 0 1
14.3367 0 1
14.4541 0 1
14.5714 0 1
14.6888 0 1
14.8062 0 1
14.9235 0 1
15.0408 0 0
15.1581 0 0
15.2755 0 0
15.3927 0 0
15.51 0 0
15.6273 0 0
15.7445 0 0
15.8617 0 0
15.9789 0 0
16.0961 0 0
16.2132 0 0
16.3304 0 0
16.4475 0 0
16.5646 0 0
16.6816 0 0
16.7986 0 0
16.9156 0 0
17.0326 0 0
17.1496 0 0
17.2665 0 0
17.3833 0 0
17.5002 0 0
17.617 0 0
17.7338 0 0
17.8505 0 0
17.9672 0 0
18.0839 0 0
18.2005 0 0
18.3171 0 0
18.4337 0 0
18.5502 0 0
18.6666 0 0
18.7831 0 0
18.8994 0 0
19.0158 0 0
19.1321 0 0
19.2483 0 0
19.3645 0 0
19.4806 0 0
19.5967 0 0
19.7128 0 0
19.8288 0 0
19.9447 0 0
20.0606 0 1
20.1764 0 1
20.2922 0 1
20.4079 0 1
20.5236 0 1
20.6392 0 1
20.7548 0 1
20.8702 0 1
23.3078 0 1
23.4233 0 1
23.539 0 1
23.6547 0 1
23.7704 0 1
23.8862 0 1
24.0021 0 1
24.118 0 1
24.234 0 1
24.35 0 1
24.4661 562 23.7065
24.5822 553 23.516
24.6984 547 23.388
24.8146 540 23.2379
24.9309 603 24.5561
25.0472 573 23.9374
25.1636 556 23.5797
25.28 580 24.0832
25.3965 641 25.318
25.513 596 24.4131
25.6296 646 25.4165
25.7462 601 24.5153
25.8628 613 24.7588
25.9795 646 25.4165
26.0962 658 25.6515
26.213 651 25.5147
26.3298 644 25.3772
26.4466 621 24.9199
26.5635 608 24.6577
26.6804 613 24.7588
26.7973 611 24.7184
26.9143 548 23.4094
27.0313 525 22.9129
27.1483 530 23.0217
27.2653 509 22.561
27.3824 615 24.7992
27.4996 566 23.7908
27.6167 590 24.2899
27.7339 577 24.0208
27.8511 557 23.6008
27.9683 499 22.3383
28.0855 507 22.5167
28.2028 540 23.2379
28.3201 499 22.3383
28.4374 561 23.6854
28.5547 577 24.0208
28.6721 593 24.3516
28.7894 583 24.1454
28.9068 603 24.5561
29.0242 622 24.9399
29.1416 582 24.1247
29.259 600 24.4949
29.3764 590 24.2899
29.4939 524 22.891
29.6113 611 24.7184
29.7288 636 25.219
29.8463 562 23.7065
29.9638 603 24.5561
30.0812 583 24.1454
30.1987 589 24.2693
30.3162 538 23.1948
30.4337 523 22.8692
30.5512 482 21.9545
30.6687 524 22.891
30.7862 512 22.6274
30.9037 502 22.4054
31.0212 476 21.8174
31.1387 533 23.0868
31.2562 515 22.6936
31.3737 515 22.6936
31.4912 557 23.6008
31.6087 529 23
31.7262 566 23.7908
31.8436 535 23.1301
31.9611 521 22.8254
32.0785 564 23.7487
32.1959 529 23
32.3134 613 24.7588
32.4308 600 24.4949
32.5482 577 24.0208
32.6655 563 23.7276
32.7829 587 24.2281
32.9002 540 23.2379
33.0176 589 24.2693
33.1349 577 24.0208
33.2522 568 23.8328
33.3694 584 24.1661
33.4867 548 23.4094
33.6039 610 24.6982
33.7211 546 23.3666
33.8383 570 23.8747
33.9554 525 22.9129
34.0725 553 23.516
34.1896 516 22.7156
34.3067 482 21.9545
34.4237 491 22.1585
34.5407 492 22.1811
34.6577 525 22.9129
34.7746 508 22.5389
34.8915 508 22.5389
35.0084 461 21.4709
35.1252 494 22.2261
35.242 498 22.3159
35.3587 491 22.1585
35.4755 543 23.3024
35.5921 509 22.561
35.7088 574 23.9583
35.8254 536 23.1517
35.9419 552 23.4947
36.0584 520 22.8035
36.1749 547 23.388
36.2913 569 23.8537
36.4077 573 23.9374
36.524 548 23.4094
36.6403 559 23.6432
36.7565 570 23.8747
36.8727 585 24.1868
36.9889 547 23.388
37.1049 528 22.9783
37.221 0 1
37.3369 0 1
37.4529 0 1
37.5687 0 1
37.6845 0 1
37.8003 0 1
37.916 0 1
38.0316 0 1
38.1472 0 1
40.5851 0 1
40.7008 0 1
40.8164 0 1
40.9322 0 1
41.048 0 1
41.1639 0 1
41.2798 0 1
41.3958 0 1
41.5118 0 1
41.6279 0 1
41.744 410 20.2485
41.8602 451 21.2368
41.9765 439 20.9523
42.0928 467 21.6102
42.2091 469 21.6564
42.3255 466 21.587
42.4419 498 22.3159
42.5584 505 22.4722
42.675 441 21
42.7915 506 22.4944
42.9081 419 20.4695
43.0248 425 20.6155
43.1415 401 20.025
43.2582 385 19.6214
43.375 410 20.2485
43.4918 447 21.1424
43.6087 402 20.0499
43.7256 420 20.4939
43.8425 419 20.4695
43.9595 435 20.8567
44.0765 425 20.6155
44.1935 393 19.8242
44.3106 406 20.1494
44.4277 456 21.3542
44.5448 393 19.8242
44.6619 379 19.4679
44.7791 433 20.8087
44.8963 390 19.7484
45.0136 385 19.6214
45.1308 392 19.799
45.2481 408 20.199
45.3654 403 20.0749
45.4827 418 20.445
45.6001 434 20.8327
45.7174 397 19.9249
45.8348 402 20.0499
45.9522 344 18.5472
46.0697 354 18.8149
46.1871 390 19.7484
46.3046 376 19.3907
46.422 376 19.3907
46.5395 342 18.4932
46.657 324 18
46.7745 315 17.7482
46.892 304 17.4356
47.0096 275 16.5831
47.1271 334 18.2757
47.2446 353 18.7883
47.3622 331 18.1934
47.4797 292 17.088
47.5973 316 17.7764
47.7149 298 17.2627
47.8324 321 17.9165
47.95 311 17.6352
48.0675 280 16.7332
48.1851 316 17.7764
48.3027 293 17.1172
48.4202 323 17.9722
48.5378 328 18.1108
48.6554 326 18.0555
48.7729 322 17.9444
48.8904 291 17.0587
49.008 322 17.9444
49.1255 325 18.0278
49.243 319 17.8606
49.3605 328 18.1108
49.478 317 17.8045
49.5955 339 18.412
49.713 316 17.7764
49.8304 317 17.8045
49.9479 309 17.5784
50.0653 321 17.9165
50.1827 303 17.4069
50.3001 264 16.2481
50.4175 271 16.4621
50.5348 292 17.088
50.6521 336 18.3303
50.7694 322 17.9444
50.8867 354 18.8149
51.004 319 17.8606
51.1212 340 18.4391
51.2384 388 19.6977
51.3556 316 17.7764
51.4727 379 19.4679
51.5899 375 19.3649
51.707 375 19.3649
51.824 365 19.105
51.9411 367 19.1572
52.0581 408 20.199
52.175 404 20.0998
52.2919 440 20.9762
52.4088 404 20.0998
52.5257 421 20.5183
52.6425 409 20.2237
52.7593 394 19.8494
52.876 436 20.8806
52.9927 422 20.5426
53.1094 440 20.9762
53.226 407 20.1742
53.3426 415 20.3715
53.4591 423 20.567
53.5756 423 20.567
53.692 446 21.1187
53.8084 430 20.7364
53.9248 385 19.6214
54.0411 366 19.1311
54.1573 391 19.7737
54.2735 0 1
54.3896 0 1
54.5057 0 1
54.6217 0 1
54.7377 0 1
54.8537 0 1
54.9695 0 1
55.0853 0 1
55.2011 0 1
55.3168 0 1
55.4324 0 1
57.824 0 1
57.9396 0 1
58.0553 0 1
58.1711 0 1
58.2869 0 1
58.4028 0 1
58.5187 0 1
58.6347 0 1
58.7508 0 1
58.8669 0 1
58.983 464 21.5407
59.0992 429 20.7123
59.2155 415 20.3715
59.3318 410 20.2485
59.4482 401 20.025
59.5646 407 20.1742
59.681 483 21.9773
59.7975 422 20.5426
59.9141 468 21.6333
60.0306 442 21.0238
60.1473 456 21.3542
60.2639 437 20.9045
60.3807 494 22.2261
60.4974 497 22.2935
60.6142 457 21.3776
60.731 446 21.1187
60.8479 486 22.0454
60.9648 456 21.3542
61.0818 432 20.7846
61.1987 421 20.5183
61.3158 412 20.2978
61.4328 475 21.7945
61.5499 416 20.3961
61.667 446 21.1187
61.7841 502 22.4054
61.9013 400 20
62.0185 440 20.9762
62.1357 437 20.9045
62.253 424 20.5913
62.3702 415 20.3715
62.4875 401 20.025
62.6049 360 18.9737
62.7222 390 19.7484
62.8396 384 19.5959
62.9569 408 20.199
63.0743 341 18.4662
63.1918 413 20.3224
63.3092 368 19.1833
63.4267 376 19.3907
63.5441 368 19.1833
63.6616 381 19.5192
63.7791 411 20.2731
63.8966 416 20.3961
64.0142 405 20.1246
64.1317 420 20.4939
64.2492 375 19.3649
64.3668 380 19.4936
64.4843 407 20.1742
64.6019 391 19.7737
64.7195 376 19.3907
64.837 365 19.105
64.9546 393 19.8242
65.0722 376 19.3907
65.1898 349 18.6815
65.3074 388 19.6977
65.4249 367 19.1572
65.5425 397 19.9249
65.6601 347 18.6279
65.7777 374 19.3391
65.8952 372 19.2873
66.0128 379 19.4679
66.1304 347 18.6279
66.2479 313 17.6918
66.3655 285 16.8819
66.483 346 18.6011
66.6005 320 17.8885
66.718 345 18.5742
66.8355 351 18.735
66.953 350 18.7083
67.0705 385 19.6214
67.1879 338 18.3848
67.3054 357 18.8944
67.4228 385 19.6214
67.5402 348 18.6548
67.6576 341 18.4662
67.7749 365 19.105
67.8923 389 19.7231
68.0096 343 18.5203
68.1269 347 18.6279
68.2442 366 19.1311
68.3614 353 18.7883
68.4787 310 17.6068
68.5958 353 18.7883
68.713 365 19.105
68.8302 357 18.8944
68.9473 352 18.7617
69.0643 323 17.9722
69.1814 338 18.3848
69.2984 361 19
69.4154 338 18.3848
69.5323 354 18.8149
69.6492 342 18.4932
69.7661 325 18.0278
69.8829 317 17.8045
69.9997 299 17.2916
70.1165 293 17.1172
70.2332 277 16.6433
70.3499 315 17.7482
70.4665 285 16.8819
70.5831 329 18.1384
70.6996 342 18.4932
70.8161 311 17.6352
70.9326 324 18
71.049 309 17.5784
71.1653 298 17.2627
71.2817 311 17.6352
71.3979 326 18.0555
71.5141 313 17.6918
71.6303 326 18.0555
71.7464 259 16.0935
71.8624 0 1
71.9784 0 1
72.0944 0 1
72.2102 0 1
72.3261 0 1
72.4418 0 1
72.5575 0 1
72.6732 0 1
75.1054 0 1
75.2209 0 1
75.3365 0 1
75.4521 0 1
75.5678 0 1
75.6835 0 1
75.7993 0 1
75.9151 0 1
76.031 0 1
76.147 254 15.9374
76.263 229 15.1327
76.3791 255 15.9687
76.4952 255 15.9687
76.6113 247 15.7162
76.7276 243 15.5885
76.8438 227 15.0665
76.9601 226 15.0333
77.0765 266 16.3095
77.1929 269 16.4012
77.3093 232 15.2315
77.4258 264 16.2481
77.5423 243 15.5885
77.6589 220 14.8324
77.7755 235 15.3297
77.8921 244 15.6205
78.0088 222 14.8997
78.1256 255 15.9687
78.2423 202 14.2127
78.3591 209 14.4568
78.4759 203 14.2478
78.5928 212 14.5602
78.7097 184 13.5647
78.8266 226 15.0333
78.9436 193 13.8924
79.0606 182 13.4907
79.1776 138 11.7473
79.2946 142 11.9164
79.4117 178 13.3417
79.5288 176 13.2665
79.6459 183 13.5277
79.7631 183 13.5277
79.8802 169 13
79.9974 171 13.0767
80.1147 174 13.1909
80.2319 154 12.4097
80.3491 159 12.6095
80.4664 173 13.1529
80.5837 149 12.2066
80.701 130 11.4018
80.8183 157 12.53
80.9357 161 12.6886
81.053 133 11.5326
81.1704 134 11.5758
81.2877 127 11.2694
81.4051 129 11.3578
81.5225 133 11.5326
81.6399 99 9.94987
81.7573 120 10.9545
81.8747 95 9.74679
81.9922 102 10.0995
82.1096 100 10
82.227 104 10.198
82.3444 96 9.79796
82.4619 85 9.21954
82.5793 80 8.94427
82.6967 85 9.21954
82.8142 84 9.16515
82.9316 73 8.544
83.049 86 9.27362
83.1664 65 8.06226
83.2838 84 9.16515
83.4012 65 8.06226
83.5186 69 8.30662
83.636 65 8.06226
83.7534 56 7.48331
83.8708 44 6.63325
83.9881 64 8
84.1055 56 7.48331
84.2228 44 6.63325
84.3401 53 7.28011
84.4575 51 7.14143
84.5747 45 6.7082
84.692 50 7.07107
84.8093 53 7.28011
84.9265 48 6.9282
85.0437 43 6.55744
85.1609 55 7.4162
85.2781 43 6.55744
85.3952 55 7.4162
85.5123 28 5.2915
85.6294 29 5.38516
85.7465 45 6.7082
85.8636 33 5.74456
85.9806 34 5.83095
86.0976 30 5.47723
86.2145 42 6.48074
86.3315 43 6.55744
86.4484 54 7.34847
86.5652 47 6.85565
86.682 49 7
86.7988 59 7.68115
86.9156 60 7.74597
87.0323 41 6.40312
87.149 69 8.30662
87.2657 58 7.61577
87.3823 74 8.60233
87.4988 79 8.88819
87.6154 68 8.24621
87.7318 74 8.60233
87.8483 75 8.66025
87.9647 105 10.247
88.081 84 9.16515
88.1973 86 9.27362
88.3136 101 10.0499
88.4298 121 11
88.546 104 10.198
88.6621 113 10.6301
88.7781 113 10.6301
88.8942 0 1
89.0101 0 1
89.126 0 1
89.2419 0 1
89.3577 0 1
89.4734 0 1
89.5891 0 1
89.7047 0 1
89.8203 0 1
89.9358 0 1
92.3269 0 1
92.4424 0 1
92.558 0 1
92.6736 0 1
92.7893 0 1
92.905 0 1
93.0208 0 1
93.1366 0 1
93.2525 0 1
93.3685 0 1
93.4845 0 1
93.6005 203 14.2478
93.7167 156 12.49
93.8328 196 14
93.949 159 12.6095
94.0653 148 12.1655
94.1816 170 13.0384
94.2979 160 12.6491
94.4143 182 13.4907
94.5307 166 12.8841
94.6472 125 11.1803
94.7637 139 11.7898
94.8803 152 12.3288
94.9969 112 10.583
95.1135 123 11.0905
95.2302 129 11.3578
95.3469 111 10.5357
95.4637 112 10.583
95.5805 74 8.60233
95.6973 136 11.6619
95.8142 166 12.8841
95.9311 144 12
96.048 146 12.083
96.1649 169 13
96.2819 168 12.9615
96.3989 150 12.2474
96.516 156 12.49
96.633 182 13.4907
96.7501 174 13.1909
96.8673 203 14.2478
96.9844 199 14.1067
97.1016 190 13.784
97.2188 222 14.8997
97.336 184 13.5647
97.4532 204 14.2829
97.5704 218 14.7648
97.6877 203 14.2478
97.805 239 15.4596
97.9223 212 14.5602
98.0396 236 15.3623
98.1569 262 16.1864
98.2743 260 16.1245
98.3916 244 15.6205
98.509 278 16.6733
98.6264 236 15.3623
98.7438 251 15.843
98.8612 260 16.1245
98.9786 223 14.9332
99.096 193 13.8924
99.2134 191 13.8203
99.3308 235 15.3297
99.4482 273 16.5227
99.5656 294 17.1464
99.6831 289 17
99.8005 286 16.9115
99.9179 299 17.2916
100.035 334 18.2757
100.153 318 17.8326
100.27 324 18
100.388 347 18.6279
100.505 303 17.4069
100.622 307 17.5214
100.74 323 17.9722
100.857 310 17.6068
100.975 320 17.8885
101.092 334 18.2757
101.209 364 19.0788
101.327 341 18.4662
101.444 360 18.9737
101.561 327 18.0831
101.679 361 19
101.796 360 18.9737
101.913 364 19.0788
102.03 332 18.2209
102.148 328 18.1108
102.265 363 19.0526
102.382 385 19.6214
102.499 288 16.9706
102.616 270 16.4317
102.733 215 14.6629
102.851 285 16.8819
102.968 354 18.8149
103.085 348 18.6548
103.202 363 19.0526
103.319 390 19.7484
103.436 375 19.3649
103.552 380 19.4936
103.669 377 19.4165
103.786 360 18.9737
103.903 342 18.4932
104.02 375 19.3649
104.137 403 20.0749
104.253 373 19.3132
104.37 328 18.1108
104.487 378 19.4422
104.603 388 19.6977
104.72 352 18.7617
104.836 353 18.7883
104.953 398 19.9499
105.069 387 19.6723
105.186 404 20.0998
105.302 384 19.5959
105.418 390 19.7484
105.535 367 19.1572
105.651 397 19.9249
105.767 394 19.8494
105.883 365 19.105
105.999 321 17.9165
106.115 0 1
106.231 0 1
106.347 0 1
106.463 0 1
106.579 0 1
106.694 0 1
106.81 0 1
106.926 0 1
107.041 0 1
107.157 0 1
109.576 0 1
109.692 0 1
109.807 0 1
109.923 0 1
110.039 0 1
110.155 0 1
110.27 0 1
110.386 0 1
110.502 0 1
110.618 316 17.7764
110.735 329 18.1384
110.851 310 17.6068
110.967 305 17.4642
111.083 254 15.9374
111.199 252 15.8745
111.316 233 15.2643
111.432 240 15.4919
111.549 280 16.7332
111.665 319 17.8606
111.782 282 16.7929
111.898 266 16.3095
112.015 279 16.7033
112.132 275 16.5831
112.248 282 16.7929
112.365 275 16.5831
112.482 253 15.906
112.599 242 15.5563
112.716 231 15.1987
112.832 246 15.6844
112.949 256 16
113.066 251 15.843
113.183 218 14.7648
113.3 241 15.5242
113.417 245 15.6525
113.534 204 14.2829
113.652 246 15.6844
113.769 242 15.5563
113.886 242 15.5563
114.003 229 15.1327
114.12 241 15.5242
114.238 211 14.5258
114.355 240 15.4919
114.472 206 14.3527
114.589 201 14.1774
114.707 202 14.2127
114.824 184 13.5647
114.942 185 13.6015
115.059 203 14.2478
115.176 221 14.8661
115.294 214 14.6287
115.411 204 14.2829
115.529 214 14.6287
115.646 226 15.0333
115.764 190 13.784
115.881 222 14.8997
115.999 226 15.0333
116.116 205 14.3178
116.234 205 14.3178
116.351 183 13.5277
116.469 187 13.6748
116.586 200 14.1421
116.704 204 14.2829
116.821 212 14.5602
116.939 224 14.9666
117.056 229 15.1327
117.174 210 14.4914
117.291 216 14.6969
117.409 198 14.0712
117.526 199 14.1067
117.644 231 15.1987
117.761 187 13.6748
117.879 197 14.0357
117.996 184 13.5647
118.114 175 13.2288
118.231 183 13.5277
118.349 204 14.2829
118.466 205 14.3178
118.584 201 14.1774
118.701 217 14.7309
118.819 207 14.3875
118.936 213 14.5945
119.053 196 14
119.171 219 14.7986
119.288 250 15.8114
119.405 214 14.6287
119.523 212 14.5602
119.64 209 14.4568
119.757 184 13.5647
119.875 220 14.8324
119.992 183 13.5277
120.109 193 13.8924
120.226 201 14.1774
120.343 234 15.2971
120.46 246 15.6844
120.578 209 14.4568
120.695 193 13.8924
120.812 213 14.5945
120.929 199 14.1067
121.046 237 15.3948
121.163 238 15.4272
121.279 215 14.6629
121.396 180 13.4164
121.513 205 14.3178
121.63 184 13.5647
121.747 136 11.6619
121.863 142 11.9164
121.98 194 13.9284
122.097 213 14.5945
122.213 200 14.1421
122.33 224 14.9666
122.446 214 14.6287
122.563 220 14.8324
122.679 199 14.1067
122.795 240 15.4919
122.912 246 15.6844
123.028 239 15.4596
123.144 219 14.7986
123.26 232 15.2315
123.377 0 1
123.493 0 1
123.609 0 1
123.725 0 1
123.84 0 1
123.956 0 1
124.072 0 1
124.188 0 1
124.303 0 1
124.419 0 1
126.852 0 1
126.968 0 1
127.083 0 1
127.199 0 1
127.315 0 1
127.431 0 1
127.547 0 1
127.663 0 1
127.779 0 1
127.895 0 1
128.011 0 1
128.127 0 1
128.243 0 1
128.359 313 17.6918
128.476 335 18.303
128.592 315 17.7482
128.708 280 16.7332
128.825 350 18.7083
128.941 318 17.8326
129.058 302 17.3781
129.174 297 17.2337
129.291 301 17.3494
129.408 308 17.5499
129.524 269 16.4012
129.641 291 17.0587
129.758 324 18
129.875 334 18.2757
129.992 301 17.3494
130.108 309 17.5784
130.225 280 16.7332
130.342 291 17.0587
130.459 259 16.0935
130.576 242 15.5563
130.693 213 14.5945
130.81 200 14.1421
130.928 235 15.3297
131.045 261 16.1555
131.162 308 17.5499
131.279 301 17.3494
131.396 284 16.8523
131.513 308 17.5499
131.631 323 17.9722
131.748 321 17.9165
131.865 330 18.1659
131.983 314 17.72
132.1 318 17.8326
132.217 321 17.9165
132.335 310 17.6068
132.452 327 18.0831
132.57 345 18.5742
132.687 346 18.6011
132.804 301 17.3494
132.922 321 17.9165
133.039 348 18.6548
133.157 345 18.5742
133.274 352 18.7617
133.392 320 17.8885
133.509 303 17.4069
133.627 340 18.4391
133.744 314 17.72
133.862 305 17.4642
133.979 283 16.8226
134.097 268 16.3707
134.214 246 15.6844
134.332 247 15.7162
134.449 273 16.5227
134.567 231 15.1987
134.684 274 16.5529
134.802 349 18.6815
134.919 357 18.8944
135.037 368 19.1833
135.154 381 19.5192
135.272 311 17.6352
135.389 339 18.412
135.507 355 18.8414
135.624 356 18.868
135.742 356 18.868
135.859 343 18.5203
135.977 352 18.7617
136.094 359 18.9473
136.211 383 19.5704
136.329 391 19.7737
136.446 324 18
136.564 346 18.6011
136.681 407 20.1742
136.798 350 18.7083
136.915 381 19.5192
137.033 327 18.0831
137.15 383 19.5704
137.267 356 18.868
137.384 369 19.2094
137.502 341 18.4662
137.619 312 17.6635
137.736 276 16.6132
137.853 282 16.7929
137.97 295 17.1756
138.087 281 16.7631
138.204 327 18.0831
138.321 310 17.6068
138.438 390 19.7484
138.555 421 20.5183
138.672 386 19.6469
138.788 393 19.8242
138.905 383 19.5704
139.022 425 20.6155
139.139 449 21.1896
139.255 403 20.0749
139.372 416 20.3961
139.488 389 19.7231
139.605 404 20.0998
139.721 419 20.4695
139.838 429 20.7123
139.954 447 21.1424
140.071 399 19.975
140.187 394 19.8494
140.303 393 19.8242
140.419 393 19.8242
140.535 429 20.7123
140.652 433 20.8087
140.768 0 1
140.884 0 1
141 0 1
141.115 0 1
141.231 0 1
141.347 0 1
141.463 0 1
141.578 0 1
141.694 0 1
144.104 0 1
144.219 0 1
144.335 0 1
144.45 0 1
144.566 0 1
144.682 0 1
144.798 0 1
144.914 0 1
145.03 0 1
145.146 414 20.347
145.262 425 20.6155
145.378 387 19.6723
145.494 433 20.8087
145.61 355 18.8414
145.726 421 20.5183
145.842 394 19.8494
145.959 329 18.1384
146.075 375 19.3649
146.192 327 18.0831
146.308 276 16.6132
146.425 318 17.8326
146.541 317 17.8045
146.658 318 17.8326
146.774 293 17.1172
146.891 322 17.9444
147.008 327 18.0831
147.125 323 17.9722
147.241 382 19.5448
147.358 377 19.4165
147.475 412 20.2978
147.592 388 19.6977
147.709 381 19.5192
147.826 363 19.0526
147.943 361 19
148.06 378 19.4422
148.177 391 19.7737
148.294 415 20.3715
148.411 361 19
148.528 387 19.6723
148.645 346 18.6011
148.762 396 19.8997
148.88 391 19.7737
148.997 369 19.2094
149.114 375 19.3649
149.231 380 19.4936
149.349 403 20.0749
149.466 357 18.8944
149.583 337 18.3576
149.701 350 18.7083
149.818 360 18.9737
149.935 331 18.1934
150.053 299 17.2916
150.17 340 18.4391
150.287 330 18.1659
150.405 341 18.4662
150.522 284 16.8523
150.64 323 17.9722
150.757 336 18.3303
150.875 357 18.8944
150.992 370 19.2354
151.11 396 19.8997
151.227 366 19.1311
151.344 371 19.2614
151.462 421 20.5183
151.579 362 19.0263
151.697 395 19.8746
151.814 399 19.975
151.932 383 19.5704
152.049 387 19.6723
152.167 404 20.0998
152.284 395 19.8746
152.402 391 19.7737
152.519 360 18.9737
152.636 407 20.1742
152.754 383 19.5704
152.871 385 19.6214
152.989 389 19.7231
153.106 370 19.2354
153.223 340 18.4391
153.341 320 17.8885
153.458 351 18.735
153.575 334 18.2757
153.693 341 18.4662
153.81 350 18.7083
153.927 322 17.9444
154.044 353 18.7883
154.162 364 19.0788
154.279 371 19.2614
154.396 406 20.1494
154.513 379 19.4679
154.63 410 20.2485
154.747 415 20.3715
154.864 419 20.4695
154.981 406 20.1494
155.098 425 20.6155
155.215 432 20.7846
155.332 400 20
155.449 393 19.8242
155.566 427 20.664
155.683 412 20.2978
155.8 384 19.5959
155.917 413 20.3224
156.033 410 20.2485
156.15 0 1
156.267 0 1
156.383 0 1
156.5 0 1
156.617 0 1
156.733 0 1
156.85 0 1
156.966 0 1
157.082 0 1
157.199 0 1
157.315 0 1
157.431 0 1
157.547 0 1
157.664 0 1
157.78 0 1
157.896 0 1
158.012 0 1
158.128 0 1
158.244 0 1
158.359 0 1
158.475 0 1
158.591 0 1
158.706 0 1
