
6.15755 0 1
6.2731 0 1
6.3887 0 1
6.50437 0 1
6.62009 0 1
6.73587 0 1
6.8517 0 1
6.96759 0 1
7.08353 0 1
7.19952 0 1
7.31557 0 1
7.43166 0 1
7.54781 0 1
7.664 0 1
7.78024 0 1
7.89653 0 1
8.01286 0 1
8.12924 0 1
8.24567 0 1
8.36213 0 1
8.47864 0 1
8.59519 0 1
8.71178 0 1
8.82841 0 1
8.94508 0 1
9.06179 0 1
9.17853 0 1
9.29531 0 1
9.41212 0 1
9.52897 0 1
9.64584 0 1
9.76276 0 1
9.8797 0 1
9.99667 0 1
10.1137 0 1
10.2307 0 1
10.3478 0 1
10.4648 0 1
10.5819 0 1
10.6991 0 1
10.8162 0 1
10.9334 0 1
11.0506 0 1
11.1678 0 1
11.285 0 1
11.4023 0 1
11.5196 0 1
11.6369 0 1
11.7542 0 1
11.8715 0 1
11.9888 0 1
12.1062 0 1
12.2235 0 1
12.3409 0 1
12.4582 0 1
12.5756 0 1
12.693 0 1
12.8104 0 1
12.9278 0 1
13.0452 0 1
13.1626 0 1
13.28 0 1
13.3974 0 1
13.5149 0 1
13.6323 0 1
13.7497 0 1
13.8671 0 1
13.9845 0 1
14.1019 0 1
14.2193 0 1
14.3367 0 1
14.4541 0 1
14.5714 0 1
14.6888 0 1
14.8062 0 1
14.9235 0 1
15.0408 0 0
15.1581 0 0
15.2755 0 0
15.3927 0 0
15.51 0 0
15.6273 0 0
15.7445 0 0
15.8617 0 0
15.9789 0 0
16.0961 0 0
16.2132 0 0
16.3304 0 0
16.4475 0 0
16.5646 0 0
16.6816 0 0
16.7986 0 0
16.9156 0 0
17.0326 0 0
17.1496 0 0
17.2665 0 0
17.3833 0 0
17.5002 0 0
17.617 0 0
17.7338 0 0
17.8505 0 0
17.9672 0 0
18.0839 0 0
18.2005 0 0
18.3171 0 0
18.4337 0 0
18.5502 0 0
18.6666 0 0
18.7831 0 0
18.8994 0 0
19.0158 0 0
19.1321 0 0
19.2483 0 0
19.3645 0 0
19.4806 0 0
19.5967 0 0
19.7128 0 0
19.8288 0 0
19.9447 0 0
20.0606 0 1
20.1764 0 1
20.2922 0 1
20.4079 0 1
20.5236 0 1
20.6392 0 1
20.7548 0 1
20.8702 0 1
23.3078 0 1
23.4233 0 1
23.539 0 1
23.6547 0 1
23.7704 0 1
23.8862 0 1
24.0021 0 1
24.118 0 1
24.234 0 1
24.35 0 1
24.4661 1093 33.0606
24.5822 1178 34.322
24.6984 1119 33.4515
24.8146 1127 33.5708
24.9309 1156 34
25.0472 1193 34.5398
25.1636 1174 34.2637
25.28 1244 35.2704
25.3965 1214 34.8425
25.513 1256 35.4401
25.6296 1235 35.1426
25.7462 1310 36.1939
25.8628 1376 37.0945
25.9795 1321 36.3456
26.0962 1388 37.2559
26.213 1432 37.8418
26.3298 1386 37.229
26.4466 1314 36.2491
26.5635 1336 36.5513
26.6804 1287 35.8748
26.7973 1316 36.2767
26.9143 1256 35.4401
27.0313 1207 34.7419
27.1483 1296 36
27.2653 1396 37.3631
27.3824 1342 36.6333
27.4996 1307 36.1525
27.6167 1323 36.3731
27.7339 1360 36.8782
27.8511 1343 36.647
27.9683 1356 36.8239
28.0855 1376 37.0945
28.2028 1349 36.7287
28.3201 1435 37.8814
28.4374 1355 36.8103
28.5547 1434 37.8682
28.6721 1347 36.7015
28.7894 1298 36.0278
28.9068 1323 36.3731
29.0242 1365 36.9459
29.1416 1360 36.8782
29.259 1452 38.1051
29.3764 1463 38.2492
29.4939 1488 38.5746
29.6113 1501 38.7427
29.7288 1484 38.5227
29.8463 1478 38.4448
29.9638 1487 38.5616
30.0812 1384 37.2022
30.1987 1397 37.3765
30.3162 1298 36.0278
30.4337 1199 34.6266
30.5512 1292 35.9444
30.6687 1288 35.8887
30.7862 1370 37.0135
30.9037 1362 36.9053
31.0212 1409 37.5366
31.1387 1390 37.2827
31.2562 1231 35.0856
31.3737 1262 35.5246
31.4912 1300 36.0555
31.6087 1306 36.1386
31.7262 1271 35.6511
31.8436 1300 36.0555
31.9611 1274 35.6931
32.0785 1246 35.2987
32.1959 1213 34.8281
32.3134 1299 36.0416
32.4308 1228 35.0428
32.5482 1170 34.2053
32.6655 1245 35.2846
32.7829 1305 36.1248
32.9002 1344 36.6606
33.0176 1211 34.7994
33.1349 1295 35.9861
33.2522 1292 35.9444
33.3694 1267 35.5949
33.4867 1275 35.7071
33.6039 1299 36.0416
33.7211 1276 35.7211
33.8383 1253 35.3977
33.9554 1206 34.7275
34.0725 1128 33.5857
34.1896 1136 33.7046
34.3067 1088 32.9848
34.4237 1128 33.5857
34.5407 1187 34.4529
34.6577 1226 35.0143
34.7746 1198 34.6121
34.8915 1203 34.6843
35.0084 1145 33.8378
35.1252 1075 32.7872
35.242 1180 34.3511
35.3587 1159 34.0441
35.4755 1205 34.7131
35.5921 1152 33.9411
35.7088 1196 34.5832
35.8254 1102 33.1964
35.9419 1064 32.619
36.0584 1036 32.187
36.1749 1090 33.0151
36.2913 1125 33.541
36.4077 1116 33.4066
36.524 1134 33.6749
36.6403 1185 34.4238
36.7565 1176 34.2929
36.8727 1100 33.1662
36.9889 1203 34.6843
37.1049 1222 34.9571
37.221 0 1
37.3369 0 1
37.4529 0 1
37.5687 0 1
37.6845 0 1
37.8003 0 1
37.916 0 1
38.0316 0 1
38.1472 0 1
40.5851 0 1
40.7008 0 1
40.8164 0 1
40.9322 0 1
41.048 0 1
41.1639 0 1
41.2798 0 1
41.3958 0 1
41.5118 0 1
41.6279 0 1
41.744 926 30.4302
41.8602 986 31.4006
41.9765 1058 32.5269
42.0928 1036 32.187
42.2091 1051 32.4191
42.3255 1033 32.1403
42.4419 1077 32.8177
42.5584 1015 31.8591
42.675 993 31.5119
42.7915 951 30.8383
42.9081 848 29.1204
43.0248 843 29.0345
43.1415 917 30.282
43.2582 908 30.133
43.375 916 30.2655
43.4918 925 30.4138
43.6087 973 31.1929
43.7256 914 30.2324
43.8425 857 29.2746
43.9595 842 29.0172
44.0765 882 29.6985
44.1935 884 29.7321
44.3106 880 29.6648
44.4277 838 28.9482
44.5448 869 29.4788
44.6619 827 28.7576
44.7791 770 27.7489
44.8963 758 27.5318
45.0136 731 27.037
45.1308 818 28.6007
45.2481 759 27.55
45.3654 874 29.5635
45.4827 764 27.6405
45.6001 795 28.1957
45.7174 806 28.3901
45.8348 736 27.1293
45.9522 801 28.3019
46.0697 827 28.7576
46.1871 776 27.8568
46.3046 807 28.4077
46.422 667 25.8263
46.5395 679 26.0576
46.657 702 26.4953
46.7745 667 25.8263
46.892 709 26.6271
47.0096 708 26.6083
47.1271 712 26.6833
47.2446 730 27.0185
47.3622 669 25.865
47.4797 651 25.5147
47.5973 682 26.1151
47.7149 647 25.4362
47.8324 681 26.096
47.95 700 26.4575
48.0675 659 25.671
48.1851 626 25.02
48.3027 627 25.04
48.4202 595 24.3926
48.5378 626 25.02
48.6554 605 24.5967
48.7729 669 25.865
48.8904 607 24.6374
49.008 630 25.0998
49.1255 641 25.318
49.243 634 25.1794
49.3605 682 26.1151
49.478 606 24.6171
49.5955 664 25.7682
49.713 676 26
49.8304 582 24.1247
49.9479 541 23.2594
50.0653 520 22.8035
50.1827 582 24.1247
50.3001 622 24.9399
50.4175 637 25.2389
50.5348 643 25.3574
50.6521 690 26.2679
50.7694 703 26.5141
50.8867 669 25.865
51.004 662 25.7294
51.1212 668 25.8457
51.2384 716 26.7582
51.3556 748 27.3496
51.4727 738 27.1662
51.5899 744 27.2764
51.707 686 26.1916
51.824 717 26.7769
51.9411 751 27.4044
52.0581 748 27.3496
52.175 785 28.0179
52.2919 802 28.3196
52.4088 871 29.5127
52.5257 897 29.95
52.6425 930 30.4959
52.7593 886 29.7658
52.876 933 30.545
52.9927 913 30.2159
53.1094 907 30.1164
53.226 981 31.3209
53.3426 937 30.6105
53.4591 892 29.8664
53.5756 841 29
53.692 793 28.1603
53.8084 820 28.6356
53.9248 846 29.0861
54.0411 946 30.7571
54.1573 1013 31.8277
54.2735 0 1
54.3896 0 1
54.5057 0 1
54.6217 0 1
54.7377 0 1
54.8537 0 1
54.9695 0 1
55.0853 0 1
55.2011 0 1
55.3168 0 1
55.4324 0 1
57.824 0 1
57.9396 0 1
58.0553 0 1
58.1711 0 1
58.2869 0 1
58.4028 0 1
58.5187 0 1
58.6347 0 1
58.7508 0 1
58.8669 0 1
58.983 956 30.9192
59.0992 1021 31.9531
59.2155 1105 33.2415
59.3318 1111 33.3317
59.4482 1125 33.541
59.5646 1143 33.8083
59.681 1106 33.2566
59.7975 1062 32.5883
59.9141 1098 33.1361
60.0306 1061 32.573
60.1473 1028 32.0624
60.2639 1009 31.7648
60.3807 991 31.4802
60.4974 993 31.5119
60.6142 987 31.4166
60.731 1032 32.1248
60.8479 1037 32.2025
60.9648 1028 32.0624
61.0818 1067 32.665
61.1987 1086 32.9545
61.3158 1112 33.3467
61.4328 1058 32.5269
61.5499 1064 32.619
61.667 1037 32.2025
61.7841 1057 32.5115
61.9013 1046 32.3419
62.0185 934 30.5614
62.1357 881 29.6816
62.253 878 29.6311
62.3702 866 29.4279
62.4875 982 31.3369
62.6049 1030 32.0936
62.7222 999 31.607
62.8396 1051 32.4191
62.9569 1076 32.8024
63.0743 1075 32.7872
63.1918 1057 32.5115
63.3092 930 30.4959
63.4267 915 30.249
63.5441 893 29.8831
63.6616 937 30.6105
63.7791 981 31.3209
63.8966 829 28.7924
64.0142 933 30.545
64.1317 989 31.4484
64.2492 969 31.1288
64.3668 900 30
64.4843 895 29.9166
64.6019 946 30.7571
64.7195 970 31.1448
64.837 999 31.607
64.9546 969 31.1288
65.0722 969 31.1288
65.1898 979 31.289
65.3074 973 31.1929
65.4249 930 30.4959
65.5425 891 29.8496
65.6601 832 28.8444
65.7777 812 28.4956
65.8952 806 28.3901
66.0128 864 29.3939
66.1304 879 29.6479
66.2479 958 30.9516
66.3655 983 31.3528
66.483 964 31.0483
66.6005 917 30.282
66.718 981 31.3209
66.8355 936 30.5941
66.953 941 30.6757
67.0705 856 29.2575
67.1879 917 30.282
67.3054 811 28.4781
67.4228 822 28.6705
67.5402 884 29.7321
67.6576 909 30.1496
67.7749 856 29.2575
67.8923 937 30.6105
68.0096 943 30.7083
68.1269 934 30.5614
68.2442 972 31.1769
68.3614 942 30.692
68.4787 971 31.1609
68.5958 947 30.7734
68.713 1001 31.6386
68.8302 1007 31.7333
68.9473 950 30.8221
69.0643 995 31.5436
69.1814 910 30.1662
69.2984 924 30.3974
69.4154 871 29.5127
69.5323 916 30.2655
69.6492 951 30.8383
69.7661 998 31.5911
69.8829 960 30.9839
69.9997 1056 32.4962
70.1165 1069 32.6956
70.2332 1034 32.1559
70.3499 1099 33.1512
70.4665 1028 32.0624
70.5831 948 30.7896
70.6996 944 30.7246
70.8161 905 30.0832
70.9326 914 30.2324
71.049 884 29.7321
71.1653 909 30.1496
71.2817 901 30.0167
71.3979 923 30.3809
71.5141 984 31.3688
71.6303 979 31.289
71.7464 943 30.7083
71.8624 0 1
71.9784 0 1
72.0944 0 1
72.2102 0 1
72.3261 0 1
72.4418 0 1
72.5575 0 1
72.6732 0 1
75.1054 0 1
75.2209 0 1
75.3365 0 1
75.4521 0 1
75.5678 0 1
75.6835 0 1
75.7993 0 1
75.9151 0 1
76.031 0 1
76.147 796 28.2135
76.263 866 29.4279
76.3791 883 29.7153
76.4952 954 30.8869
76.6113 961 31
76.7276 960 30.9839
76.8438 971 31.1609
76.9601 982 31.3369
77.0765 1012 31.8119
77.1929 987 31.4166
77.3093 996 31.5595
77.4258 1071 32.7261
77.5423 1094 33.0757
77.6589 1094 33.0757
77.7755 1070 32.7109
77.8921 991 31.4802
78.0088 1003 31.6702
78.1256 1010 31.7805
78.2423 932 30.5287
78.3591 866 29.4279
78.4759 850 29.1548
78.5928 800 28.2843
78.7097 915 30.249
78.8266 895 29.9166
78.9436 1051 32.4191
79.0606 1058 32.5269
79.1776 1061 32.573
79.2946 1025 32.0156
79.4117 1102 33.1964
79.5288 988 31.4325
79.6459 1023 31.9844
79.7631 904 30.0666
79.8802 839 28.9655
79.9974 809 28.4429
80.1147 811 28.4781
80.2319 893 29.8831
80.3491 886 29.7658
80.4664 878 29.6311
80.5837 956 30.9192
80.701 961 31
80.8183 1009 31.7648
80.9357 1028 32.0624
81.053 970 31.1448
81.1704 956 30.9192
81.2877 926 30.4302
81.4051 991 31.4802
81.5225 965 31.0644
81.6399 972 31.1769
81.7573 860 29.3258
81.8747 883 29.7153
81.9922 777 27.8747
82.1096 822 28.6705
82.227 800 28.2843
82.3444 845 29.0689
82.4619 901 30.0167
82.5793 938 30.6268
82.6967 910 30.1662
82.8142 947 30.7734
82.9316 954 30.8869
83.049 976 31.241
83.1664 937 30.6105
83.2838 863 29.3769
83.4012 807 28.4077
83.5186 663 25.7488
83.636 755 27.4773
83.7534 726 26.9444
83.8708 740 27.2029
83.9881 781 27.9464
84.1055 827 28.7576
84.2228 869 29.4788
84.3401 877 29.6142
84.4575 864 29.3939
84.5747 939 30.6431
84.692 916 30.2655
84.8093 940 30.6594
84.9265 887 29.7825
85.0437 905 30.0832
85.1609 898 29.9666
85.2781 873 29.5466
85.3952 843 29.0345
85.5123 830 28.8097
85.6294 853 29.2062
85.7465 852 29.189
85.8636 846 29.0861
85.9806 878 29.6311
86.0976 923 30.3809
86.2145 979 31.289
86.3315 1101 33.1813
86.4484 1055 32.4808
86.5652 1066 32.6497
86.682 1087 32.9697
86.7988 1043 32.2955
86.9156 955 30.9031
87.0323 932 30.5287
87.149 836 28.9137
87.2657 760 27.5681
87.3823 912 30.1993
87.4988 916 30.2655
87.6154 975 31.225
87.7318 1037 32.2025
87.8483 1009 31.7648
87.9647 1093 33.0606
88.081 1063 32.6037
88.1973 1119 33.4515
88.3136 1090 33.0151
88.4298 1162 34.0881
88.546 1109 33.3017
88.6621 1111 33.3317
88.7781 1038 32.218
88.8942 0 1
89.0101 0 1
89.126 0 1
89.2419 0 1
89.3577 0 1
89.4734 0 1
89.5891 0 1
89.7047 0 1
89.8203 0 1
89.9358 0 1
92.3269 0 1
92.4424 0 1
92.558 0 1
92.6736 0 1
92.7893 0 1
92.905 0 1
93.0208 0 1
93.1366 0 1
93.2525 0 1
93.3685 0 1
93.4845 0 1
93.6005 1051 32.4191
93.7167 1146 33.8526
93.8328 1103 33.2114
93.949 1076 32.8024
94.0653 1090 33.0151
94.1816 1068 32.6803
94.2979 1079 32.8481
94.4143 984 31.3688
94.5307 924 30.3974
94.6472 931 30.5123
94.7637 933 30.545
94.8803 1004 31.686
94.9969 1026 32.0312
95.1135 1081 32.8786
95.2302 1084 32.9242
95.3469 1110 33.3167
95.4637 1164 34.1174
95.5805 1212 34.8138
95.6973 1126 33.5559
95.8142 1215 34.8569
95.9311 1158 34.0294
96.048 1114 33.3766
96.1649 1053 32.45
96.2819 941 30.6757
96.3989 899 29.9833
96.516 817 28.5832
96.633 984 31.3688
96.7501 1065 32.6343
96.8673 1062 32.5883
96.9844 1081 32.8786
97.1016 1079 32.8481
97.2188 1095 33.0908
97.336 1146 33.8526
97.4532 1174 34.2637
97.5704 1126 33.5559
97.6877 1109 33.3017
97.805 1032 32.1248
97.9223 1089 33
98.0396 991 31.4802
98.1569 944 30.7246
98.2743 958 30.9516
98.3916 928 30.4631
98.509 956 30.9192
98.6264 1040 32.249
98.7438 1089 33
98.8612 1082 32.8938
98.9786 1098 33.1361
99.096 1107 33.2716
99.2134 1208 34.7563
99.3308 1197 34.5977
99.4482 1167 34.1614
99.5656 1189 34.4819
99.6831 1121 33.4813
99.8005 1044 32.311
99.9179 958 30.9516
100.035 853 29.2062
100.153 925 30.4138
100.27 990 31.4643
100.388 1028 32.0624
100.505 1109 33.3017
100.622 1140 33.7639
100.74 1074 32.7719
100.857 1172 34.2345
100.975 1154 33.9706
101.092 1113 33.3617
101.209 1192 34.5254
101.327 1114 33.3766
101.444 1139 33.7491
101.561 1040 32.249
101.679 1032 32.1248
101.796 935 30.5778
101.913 977 31.257
102.03 1000 31.6228
102.148 1045 32.3265
102.265 1027 32.0468
102.382 1190 34.4964
102.499 1137 33.7194
102.616 1144 33.8231
102.733 1169 34.1906
102.851 1186 34.4384
102.968 1185 34.4238
103.085 1240 35.2136
103.202 1218 34.8999
103.319 1115 33.3916
103.436 1009 31.7648
103.552 948 30.7896
103.669 988 31.4325
103.786 1029 32.078
103.903 1168 34.176
104.02 1263 35.5387
104.137 1161 34.0735
104.253 1220 34.9285
104.37 1190 34.4964
104.487 1299 36.0416
104.603 1266 35.5809
104.72 1255 35.426
104.836 1203 34.6843
104.953 1161 34.0735
105.069 1107 33.2716
105.186 1058 32.5269
105.302 1012 31.8119
105.418 1074 32.7719
105.535 1038 32.218
105.651 1140 33.7639
105.767 1273 35.6791
105.883 1250 35.3553
105.999 1225 35
106.115 0 1
106.231 0 1
106.347 0 1
106.463 0 1
106.579 0 1
106.694 0 1
106.81 0 1
106.926 0 1
107.041 0 1
107.157 0 1
109.576 0 1
109.692 0 1
109.807 0 1
109.923 0 1
110.039 0 1
110.155 0 1
110.27 0 1
110.386 0 1
110.502 0 1
110.618 1025 32.0156
110.735 1149 33.8969
110.851 1189 34.4819
110.967 1172 34.2345
111.083 1229 35.0571
111.199 1207 34.7419
111.316 1299 36.0416
111.432 1271 35.6511
111.549 1286 35.8608
111.665 1252 35.3836
111.782 1197 34.5977
111.898 1111 33.3317
112.015 1030 32.0936
112.132 893 29.8831
112.248 923 30.3809
112.365 1072 32.7414
112.482 1141 33.7787
112.599 1178 34.322
112.716 1148 33.8821
112.832 1159 34.0441
112.949 1181 34.3657
113.066 1117 33.4215
113.183 1141 33.7787
113.3 1156 34
113.417 1124 33.5261
113.534 1069 32.6956
113.652 1092 33.0454
113.769 949 30.8058
113.886 922 30.3645
114.003 944 30.7246
114.12 1028 32.0624
114.238 1096 33.1059
114.355 1125 33.541
114.472 1200 34.641
114.589 1237 35.171
114.707 1223 34.9714
114.824 1211 34.7994
114.942 1158 34.0294
115.059 1221 34.9428
115.176 1236 35.1568
115.294 1140 33.7639
115.411 1213 34.8281
115.529 1069 32.6956
115.646 940 30.6594
115.764 906 30.0998
115.881 887 29.7825
115.999 1057 32.5115
116.116 1115 33.3916
116.234 1120 33.4664
116.351 1101 33.1813
116.469 1169 34.1906
116.586 1201 34.6554
116.704 1203 34.6843
116.821 1120 33.4664
116.939 1147 33.8674
117.056 1095 33.0908
117.174 1019 31.9218
117.291 941 30.6757
117.409 943 30.7083
117.526 915 30.249
117.644 969 31.1288
117.761 1035 32.1714
117.879 1174 34.2637
117.996 1192 34.5254
118.114 1183 34.3948
118.231 1152 33.9411
118.349 1194 34.5543
118.466 1156 34
118.584 1232 35.0999
118.701 1188 34.4674
118.819 1231 35.0856
118.936 1125 33.541
119.053 1177 34.3074
119.171 1047 32.3574
119.288 935 30.5778
119.405 846 29.0861
119.523 958 30.9516
119.64 1006 31.7175
119.757 1145 33.8378
119.875 1120 33.4664
119.992 1093 33.0606
120.109 1108 33.2866
120.226 1153 33.9559
120.343 1082 32.8938
120.46 1126 33.5559
120.578 1128 33.5857
120.695 1085 32.9393
120.812 1053 32.45
120.929 1038 32.218
121.046 1005 31.7017
121.163 937 30.6105
121.279 972 31.1769
121.396 1097 33.121
121.513 1096 33.1059
121.63 1156 34
121.747 1214 34.8425
121.863 1169 34.1906
121.98 1179 34.3366
122.097 1186 34.4384
122.213 1192 34.5254
122.33 1130 33.6155
122.446 1192 34.5254
122.563 1142 33.7935
122.679 1159 34.0441
122.795 1117 33.4215
122.912 980 31.305
123.028 889 29.8161
123.144 869 29.4788
123.26 856 29.2575
123.377 0 1
123.493 0 1
123.609 0 1
123.725 0 1
123.84 0 1
123.956 0 1
124.072 0 1
124.188 0 1
124.303 0 1
124.419 0 1
126.852 0 1
126.968 0 1
127.083 0 1
127.199 0 1
127.315 0 1
127.431 0 1
127.547 0 1
127.663 0 1
127.779 0 1
127.895 0 1
128.011 0 1
128.127 0 1
128.243 0 1
128.359 935 30.5778
128.476 903 30.05
128.592 1022 31.9687
128.708 1120 33.4664
128.825 1197 34.5977
128.941 1175 34.2783
129.058 1197 34.5977
129.174 1227 35.0286
129.291 1206 34.7275
129.408 1202 34.6699
129.524 1180 34.3511
129.641 1171 34.2199
129.758 1115 33.3916
129.875 1042 32.28
129.992 1086 32.9545
130.108 1002 31.6544
130.225 1042 32.28
130.342 1035 32.1714
130.459 1156 34
130.576 1251 35.3695
130.693 1216 34.8712
130.81 1207 34.7419
130.928 1250 35.3553
131.045 1231 35.0856
131.162 1247 35.3129
131.279 1261 35.5106
131.396 1230 35.0714
131.513 1213 34.8281
131.631 1195 34.5688
131.748 1085 32.9393
131.865 1020 31.9374
131.983 957 30.9354
132.1 1027 32.0468
132.217 1141 33.7787
132.335 1230 35.0714
132.452 1161 34.0735
132.57 1197 34.5977
132.687 1210 34.7851
132.804 1201 34.6554
132.922 1266 35.5809
133.039 1238 35.1852
133.157 1155 33.9853
133.274 1152 33.9411
133.392 1053 32.45
133.509 1067 32.665
133.627 1059 32.5423
133.744 1076 32.8024
133.862 1047 32.3574
133.979 1126 33.5559
134.097 1169 34.1906
134.214 1205 34.7131
134.332 1231 35.0856
134.449 1284 35.8329
134.567 1292 35.9444
134.684 1199 34.6266
134.802 1170 34.2053
134.919 1240 35.2136
135.037 1246 35.2987
135.154 1213 34.8281
135.272 1191 34.5109
135.389 1050 32.4037
135.507 970 31.1448
135.624 1018 31.9061
135.742 1094 33.0757
135.859 1196 34.5832
135.977 1185 34.4238
136.094 1247 35.3129
136.211 1167 34.1614
136.329 1227 35.0286
136.446 1212 34.8138
136.564 1211 34.7994
136.681 1242 35.242
136.798 1176 34.2929
136.915 1099 33.1512
137.033 1115 33.3916
137.15 968 31.1127
137.267 1037 32.2025
137.384 1035 32.1714
137.502 1012 31.8119
137.619 1135 33.6898
137.736 1248 35.327
137.853 1196 34.5832
137.97 1191 34.5109
138.087 1212 34.8138
138.204 1252 35.3836
138.321 1333 36.5103
138.438 1203 34.6843
138.555 1294 35.9722
138.672 1287 35.8748
138.788 1181 34.3657
138.905 1180 34.3511
139.022 1063 32.6037
139.139 1028 32.0624
139.255 942 30.692
139.372 1046 32.3419
139.488 1167 34.1614
139.605 1237 35.171
139.721 1226 35.0143
139.838 1246 35.2987
139.954 1272 35.6651
140.071 1237 35.171
140.187 1201 34.6554
140.303 1182 34.3802
140.419 1206 34.7275
140.535 1095 33.0908
140.652 1128 33.5857
140.768 0 1
140.884 0 1
141 0 1
141.115 0 1
141.231 0 1
141.347 0 1
141.463 0 1
141.578 0 1
141.694 0 1
144.104 0 1
144.219 0 1
144.335 0 1
144.45 0 1
144.566 0 1
144.682 0 1
144.798 0 1
144.914 0 1
145.03 0 1
145.146 857 29.2746
145.262 973 31.1929
145.378 910 30.1662
145.494 938 30.6268
145.61 856 29.2575
145.726 844 29.0517
145.842 878 29.6311
145.959 847 29.1033
146.075 838 28.9482
146.192 808 28.4253
146.308 839 28.9655
146.425 894 29.8998
146.541 861 29.3428
146.658 880 29.6648
146.774 941 30.6757
146.891 1010 31.7805
147.008 978 31.273
147.125 982 31.3369
147.241 1004 31.686
147.358 1011 31.7962
147.475 998 31.5911
147.592 1000 31.6228
147.709 897 29.95
147.826 858 29.2916
147.943 817 28.5832
148.06 809 28.4429
148.177 740 27.2029
148.294 831 28.8271
148.411 900 30
148.528 926 30.4302
148.645 971 31.1609
148.762 1007 31.7333
148.88 929 30.4795
148.997 980 31.305
149.114 1005 31.7017
149.231 988 31.4325
149.349 908 30.133
149.466 915 30.249
149.583 895 29.9166
149.701 883 29.7153
149.818 805 28.3725
149.935 807 28.4077
150.053 871 29.5127
150.17 874 29.5635
150.287 934 30.5614
150.405 938 30.6268
150.522 967 31.0966
150.64 941 30.6757
150.757 967 31.0966
150.875 1051 32.4191
150.992 992 31.496
151.11 1062 32.5883
151.227 1034 32.1559
151.344 967 31.0966
151.462 958 30.9516
151.579 899 29.9833
151.697 868 29.4618
151.814 851 29.1719
151.932 818 28.6007
152.049 885 29.7489
152.167 950 30.8221
152.284 1013 31.8277
152.402 1045 32.3265
152.519 980 31.305
152.636 1044 32.311
152.754 1013 31.8277
152.871 1019 31.9218
152.989 984 31.3688
153.106 972 31.1769
153.223 970 31.1448
153.341 893 29.8831
153.458 888 29.7993
153.575 855 29.2404
153.693 960 30.9839
153.81 900 30
153.927 970 31.1448
154.044 1017 31.8904
154.162 976 31.241
154.279 1106 33.2566
154.396 1101 33.1813
154.513 1077 32.8177
154.63 1076 32.8024
154.747 1022 31.9687
154.864 1075 32.7872
154.981 1104 33.2265
155.098 1047 32.3574
155.215 981 31.3209
155.332 950 30.8221
155.449 908 30.133
155.566 950 30.8221
155.683 1023 31.9844
155.8 1076 32.8024
155.917 1086 32.9545
156.033 1075 32.7872
156.15 0 1
156.267 0 1
156.383 0 1
156.5 0 1
156.617 0 1
156.733 0 1
156.85 0 1
156.966 0 1
157.082 0 1
157.199 0 1
157.315 0 1
157.431 0 1
157.547 0 1
157.664 0 1
157.78 0 1
157.896 0 1
158.012 0 1
158.128 0 1
158.244 0 1
158.359 0 1
158.475 0 1
158.591 0 1
158.706 0 1
