
6.15755 0 1
6.2731 0 1
6.3887 0 1
6.50437 0 1
6.62009 0 1
6.73587 0 1
6.8517 0 1
6.96759 0 1
7.08353 0 1
7.19952 0 1
7.31557 0 1
7.43166 0 1
7.54781 0 1
7.664 0 1
7.78024 0 1
7.89653 0 1
8.01286 0 1
8.12924 0 1
8.24567 0 1
8.36213 0 1
8.47864 0 1
8.59519 0 1
8.71178 0 1
8.82841 0 1
8.94508 0 1
9.06179 0 1
9.17853 0 1
9.29531 0 1
9.41212 0 1
9.52897 0 1
9.64584 0 1
9.76276 0 1
9.8797 0 1
9.99667 0 1
10.1137 0 1
10.2307 0 1
10.3478 0 1
10.4648 0 1
10.5819 0 1
10.6991 0 1
10.8162 0 1
10.9334 0 1
11.0506 0 1
11.1678 0 1
11.285 0 1
11.4023 0 1
11.5196 0 1
11.6369 0 1
11.7542 0 1
11.8715 0 1
11.9888 0 1
12.1062 0 1
12.2235 0 1
12.3409 0 1
12.4582 0 1
12.5756 0 1
12.693 0 1
12.8104 0 1
12.9278 0 1
13.0452 0 1
13.1626 0 1
13.28 0 1
13.3974 0 1
13.5149 0 1
13.6323 0 1
13.7497 0 1
13.8671 0 1
13.9845 0 1
14.1019 0 1
14.2193 0 1
14.3367 0 1
14.4541 0 1
14.5714 0 1
14.6888 0 1
14.8062 0 1
14.9235 0 1
15.0408 0 0
15.1581 0 0
15.2755 0 0
15.3927 0 0
15.51 0 0
15.6273 0 0
15.7445 0 0
15.8617 0 0
15.9789 0 0
16.0961 0 0
16.2132 0 0
16.3304 0 0
16.4475 0 0
16.5646 0 0
16.6816 0 0
16.7986 0 0
16.9156 0 0
17.0326 0 0
17.1496 0 0
17.2665 0 0
17.3833 0 0
17.5002 0 0
17.617 0 0
17.7338 0 0
17.8505 0 0
17.9672 0 0
18.0839 0 0
18.2005 0 0
18.3171 0 0
18.4337 0 0
18.5502 0 0
18.6666 0 0
18.7831 0 0
18.8994 0 0
19.0158 0 0
19.1321 0 0
19.2483 0 0
19.3645 0 0
19.4806 0 0
19.5967 0 0
19.7128 0 0
19.8288 0 0
19.9447 0 0
20.0606 0 1
20.1764 0 1
20.2922 0 1
20.4079 0 1
20.5236 0 1
20.6392 0 1
20.7548 0 1
20.8702 0 1
23.3078 0 1
23.4233 0 1
23.539 0 1
23.6547 0 1
23.7704 0 1
23.8862 0 1
24.0021 0 1
24.118 0 1
24.234 0 1
24.35 0 1
24.4661 1561 39.5095
24.5822 1497 38.6911
24.6984 1517 38.9487
24.8146 1590 39.8748
24.9309 1551 39.3827
25.0472 1538 39.2173
25.1636 1572 39.6485
25.28 1632 40.398
25.3965 1613 40.1622
25.513 1623 40.2865
25.6296 1627 40.3361
25.7462 1642 40.5216
25.8628 1626 40.3237
25.9795 1615 40.1871
26.0962 1645 40.5586
26.213 1613 40.1622
26.3298 1508 38.833
26.4466 1556 39.4462
26.5635 1512 38.8844
26.6804 1336 36.5513
26.7973 1296 36
26.9143 1351 36.756
27.0313 1448 38.0526
27.1483 1428 37.7889
27.2653 1493 38.6394
27.3824 1592 39.8999
27.4996 1591 39.8873
27.6167 1600 40
27.7339 1626 40.3237
27.8511 1575 39.6863
27.9683 1552 39.3954
28.0855 1611 40.1373
28.2028 1578 39.724
28.3201 1483 38.5097
28.4374 1497 38.6911
28.5547 1417 37.6431
28.6721 1490 38.6005
28.7894 1520 38.9872
28.9068 1514 38.9102
29.0242 1474 38.3927
29.1416 1470 38.3406
29.259 1421 37.6962
29.3764 1468 38.3145
29.4939 1481 38.4838
29.6113 1529 39.1024
29.7288 1528 39.0896
29.8463 1534 39.1663
29.9638 1454 38.1314
30.0812 1356 36.8239
30.1987 1279 35.7631
30.3162 1282 35.805
30.4337 1281 35.7911
30.5512 1356 36.8239
30.6687 1422 37.7094
30.7862 1460 38.2099
30.9037 1549 39.3573
31.0212 1498 38.704
31.1387 1548 39.3446
31.2562 1613 40.1622
31.3737 1464 38.2623
31.4912 1456 38.1576
31.6087 1534 39.1663
31.7262 1524 39.0384
31.8436 1535 39.1791
31.9611 1429 37.8021
32.0785 1445 38.0132
32.1959 1447 38.0395
32.3134 1425 37.7492
32.4308 1435 37.8814
32.5482 1406 37.4967
32.6655 1466 38.2884
32.7829 1444 38
32.9002 1459 38.1969
33.0176 1416 37.6298
33.1349 1365 36.9459
33.2522 1496 38.6782
33.3694 1462 38.2361
33.4867 1498 38.704
33.6039 1447 38.0395
33.7211 1297 36.0139
33.8383 1240 35.2136
33.9554 1195 34.5688
34.0725 1234 35.1283
34.1896 1296 36
34.3067 1335 36.5377
34.4237 1360 36.8782
34.5407 1475 38.4057
34.6577 1525 39.0512
34.7746 1518 38.9615
34.8915 1482 38.4968
35.0084 1479 38.4578
35.1252 1482 38.4968
35.242 1415 37.6165
35.3587 1500 38.7298
35.4755 1479 38.4578
35.5921 1383 37.1887
35.7088 1379 37.1349
35.8254 1415 37.6165
35.9419 1347 36.7015
36.0584 1381 37.1618
36.1749 1374 37.0675
36.2913 1299 36.0416
36.4077 1326 36.4143
36.524 1366 36.9594
36.6403 1412 37.5766
36.7565 1311 36.2077
36.8727 1411 37.5633
36.9889 1382 37.1753
37.1049 1402 37.4433
37.221 0 1
37.3369 0 1
37.4529 0 1
37.5687 0 1
37.6845 0 1
37.8003 0 1
37.916 0 1
38.0316 0 1
38.1472 0 1
40.5851 0 1
40.7008 0 1
40.8164 0 1
40.9322 0 1
41.048 0 1
41.1639 0 1
41.2798 0 1
41.3958 0 1
41.5118 0 1
41.6279 0 1
41.744 1097 33.121
41.8602 1085 32.9393
41.9765 1188 34.4674
42.0928 1080 32.8634
42.2091 1233 35.1141
42.3255 1144 33.8231
42.4419 1035 32.1714
42.5584 994 31.5278
42.675 907 30.1164
42.7915 919 30.315
42.9081 900 30
43.0248 1050 32.4037
43.1415 1025 32.0156
43.2582 1074 32.7719
43.375 1102 33.1964
43.4918 1111 33.3317
43.6087 1109 33.3017
43.7256 1077 32.8177
43.8425 1140 33.7639
43.9595 1104 33.2265
44.0765 1055 32.4808
44.1935 1051 32.4191
44.3106 999 31.607
44.4277 977 31.257
44.5448 930 30.4959
44.6619 886 29.7658
44.7791 839 28.9655
44.8963 891 29.8496
45.0136 814 28.5307
45.1308 868 29.4618
45.2481 819 28.6182
45.3654 815 28.5482
45.4827 859 29.3087
45.6001 882 29.6985
45.7174 836 28.9137
45.8348 821 28.6531
45.9522 783 27.9821
46.0697 778 27.8927
46.1871 679 26.0576
46.3046 639 25.2784
46.422 676 26
46.5395 681 26.096
46.657 730 27.0185
46.7745 762 27.6043
46.892 827 28.7576
47.0096 750 27.3861
47.1271 735 27.1109
47.2446 774 27.8209
47.3622 769 27.7308
47.4797 762 27.6043
47.5973 811 28.4781
47.7149 773 27.8029
47.8324 721 26.8514
47.95 680 26.0768
48.0675 705 26.5518
48.1851 697 26.4008
48.3027 670 25.8844
48.4202 627 25.04
48.5378 620 24.8998
48.6554 606 24.6171
48.7729 617 24.8395
48.8904 630 25.0998
49.008 623 24.96
49.1255 612 24.7386
49.243 613 24.7588
49.3605 620 24.8998
49.478 577 24.0208
49.5955 548 23.4094
49.713 511 22.6053
49.8304 496 22.2711
49.9479 491 22.1585
50.0653 569 23.8537
50.1827 622 24.9399
50.3001 697 26.4008
50.4175 754 27.4591
50.5348 812 28.4956
50.6521 751 27.4044
50.7694 761 27.5862
50.8867 790 28.1069
51.004 830 28.8097
51.1212 823 28.688
51.2384 879 29.6479
51.3556 872 29.5296
51.4727 822 28.6705
51.5899 817 28.5832
51.707 819 28.6182
51.824 838 28.9482
51.9411 821 28.6531
52.0581 894 29.8998
52.175 866 29.4279
52.2919 963 31.0322
52.4088 955 30.9031
52.5257 999 31.607
52.6425 978 31.273
52.7593 978 31.273
52.876 1057 32.5115
52.9927 1022 31.9687
53.1094 1039 32.2335
53.226 953 30.8707
53.3426 872 29.5296
53.4591 820 28.6356
53.5756 862 29.3598
53.692 958 30.9516
53.8084 1051 32.4191
53.9248 1134 33.6749
54.0411 1311 36.2077
54.1573 1231 35.0856
54.2735 0 1
54.3896 0 1
54.5057 0 1
54.6217 0 1
54.7377 0 1
54.8537 0 1
54.9695 0 1
55.0853 0 1
55.2011 0 1
55.3168 0 1
55.4324 0 1
57.824 0 1
57.9396 0 1
58.0553 0 1
58.1711 0 1
58.2869 0 1
58.4028 0 1
58.5187 0 1
58.6347 0 1
58.7508 0 1
58.8669 0 1
58.983 1266 35.5809
59.0992 1415 37.6165
59.2155 1450 38.0789
59.3318 1469 38.3275
59.4482 1485 38.5357
59.5646 1409 37.5366
59.681 1447 38.0395
59.7975 1431 37.8286
59.9141 1441 37.9605
60.0306 1333 36.5103
60.1473 1286 35.8608
60.2639 1335 36.5377
60.3807 1205 34.7131
60.4974 1193 34.5398
60.6142 1270 35.6371
60.731 1247 35.3129
60.8479 1190 34.4964
60.9648 1235 35.1426
61.0818 1193 34.5398
61.1987 1163 34.1028
61.3158 1226 35.0143
61.4328 1243 35.2562
61.5499 1153 33.9559
61.667 1096 33.1059
61.7841 1034 32.1559
61.9013 913 30.2159
62.0185 901 30.0167
62.1357 995 31.5436
62.253 1032 32.1248
62.3702 1221 34.9428
62.4875 1248 35.327
62.6049 1289 35.9026
62.7222 1424 37.7359
62.8396 1460 38.2099
62.9569 1442 37.9737
63.0743 1367 36.973
63.1918 1366 36.9594
63.3092 1425 37.7492
63.4267 1402 37.4433
63.5441 1326 36.4143
63.6616 1351 36.756
63.7791 1305 36.1248
63.8966 1295 35.9861
64.0142 1334 36.524
64.1317 1222 34.9571
64.2492 1266 35.5809
64.3668 1221 34.9428
64.4843 1216 34.8712
64.6019 1222 34.9571
64.7195 1314 36.2491
64.837 1273 35.6791
64.9546 1274 35.6931
65.0722 1302 36.0832
65.1898 1207 34.7419
65.3074 1116 33.4066
65.4249 951 30.8383
65.5425 911 30.1828
65.6601 916 30.2655
65.7777 1092 33.0454
65.8952 1180 34.3511
66.0128 1291 35.9305
66.1304 1348 36.7151
66.2479 1423 37.7227
66.3655 1384 37.2022
66.483 1429 37.8021
66.6005 1472 38.3667
66.718 1353 36.7831
66.8355 1432 37.8418
66.953 1380 37.1484
67.0705 1392 37.3095
67.1879 1350 36.7423
67.3054 1203 34.6843
67.4228 1286 35.8608
67.5402 1107 33.2716
67.6576 1119 33.4515
67.7749 1093 33.0606
67.8923 1173 34.2491
68.0096 1172 34.2345
68.1269 1188 34.4674
68.2442 1150 33.9116
68.3614 1203 34.6843
68.4787 1175 34.2783
68.5958 1189 34.4819
68.713 1195 34.5688
68.8302 1115 33.3916
68.9473 965 31.0644
69.0643 881 29.6816
69.1814 811 28.4781
69.2984 875 29.5804
69.4154 1002 31.6544
69.5323 1153 33.9559
69.6492 1279 35.7631
69.7661 1246 35.2987
69.8829 1397 37.3765
69.9997 1318 36.3043
70.1165 1473 38.3797
70.2332 1397 37.3765
70.3499 1423 37.7227
70.4665 1409 37.5366
70.5831 1338 36.5787
70.6996 1256 35.4401
70.8161 1317 36.2905
70.9326 1227 35.0286
71.049 1153 33.9559
71.1653 1125 33.541
71.2817 1058 32.5269
71.3979 1052 32.4345
71.5141 1059 32.5423
71.6303 1000 31.6228
71.7464 1024 32
71.8624 0 1
71.9784 0 1
72.0944 0 1
72.2102 0 1
72.3261 0 1
72.4418 0 1
72.5575 0 1
72.6732 0 1
75.1054 0 1
75.2209 0 1
75.3365 0 1
75.4521 0 1
75.5678 0 1
75.6835 0 1
75.7993 0 1
75.9151 0 1
76.031 0 1
76.147 1163 34.1028
76.263 1214 34.8425
76.3791 1178 34.322
76.4952 1159 34.0441
76.6113 1072 32.7414
76.7276 1093 33.0606
76.8438 1061 32.573
76.9601 1116 33.4066
77.0765 1119 33.4515
77.1929 1099 33.1512
77.3093 1282 35.805
77.4258 1267 35.5949
77.5423 1148 33.8821
77.6589 1226 35.0143
77.7755 1139 33.7491
77.8921 967 31.0966
78.0088 856 29.2575
78.1256 784 28
78.2423 789 28.0891
78.3591 862 29.3598
78.4759 997 31.5753
78.5928 1185 34.4238
78.7097 1226 35.0143
78.8266 1223 34.9714
78.9436 1370 37.0135
79.0606 1357 36.8375
79.1776 1308 36.1663
79.2946 1310 36.1939
79.4117 1383 37.1887
79.5288 1293 35.9583
79.6459 1270 35.6371
79.7631 1242 35.242
79.8802 1168 34.176
79.9974 1122 33.4963
80.1147 989 31.4484
80.2319 1028 32.0624
80.3491 1046 32.3419
80.4664 1043 32.2955
80.5837 983 31.3528
80.701 1069 32.6956
80.8183 1033 32.1403
80.9357 1133 33.6601
81.053 1060 32.5576
81.1704 1059 32.5423
81.2877 1094 33.0757
81.4051 1001 31.6386
81.5225 904 30.0666
81.6399 823 28.688
81.7573 754 27.4591
81.8747 705 26.5518
81.9922 684 26.1534
82.1096 878 29.6311
82.227 1058 32.5269
82.3444 1089 33
82.4619 1107 33.2716
82.5793 1165 34.1321
82.6967 1151 33.9264
82.8142 1201 34.6554
82.9316 1182 34.3802
83.049 1166 34.1467
83.1664 1083 32.909
83.2838 1035 32.1714
83.4012 1058 32.5269
83.5186 975 31.225
83.636 928 30.4631
83.7534 888 29.7993
83.8708 882 29.6985
83.9881 844 29.0517
84.1055 860 29.3258
84.2228 924 30.3974
84.3401 928 30.4631
84.4575 959 30.9677
84.5747 1015 31.8591
84.692 1018 31.9061
84.8093 983 31.3528
84.9265 978 31.273
85.0437 883 29.7153
85.1609 814 28.5307
85.2781 735 27.1109
85.3952 652 25.5343
85.5123 710 26.6458
85.6294 749 27.3679
85.7465 945 30.7409
85.8636 997 31.5753
85.9806 1093 33.0606
86.0976 1124 33.5261
86.2145 1151 33.9264
86.3315 1290 35.9166
86.4484 1188 34.4674
86.5652 1288 35.8887
86.682 1303 36.0971
86.7988 1258 35.4683
86.9156 1200 34.641
87.0323 1127 33.5708
87.149 1110 33.3167
87.2657 1072 32.7414
87.3823 1059 32.5423
87.4988 1054 32.4654
87.6154 1057 32.5115
87.7318 1080 32.8634
87.8483 1134 33.6749
87.9647 1204 34.6987
88.081 1177 34.3074
88.1973 1258 35.4683
88.3136 1259 35.4824
88.4298 1253 35.3977
88.546 1144 33.8231
88.6621 957 30.9354
88.7781 880 29.6648
88.8942 0 1
89.0101 0 1
89.126 0 1
89.2419 0 1
89.3577 0 1
89.4734 0 1
89.5891 0 1
89.7047 0 1
89.8203 0 1
89.9358 0 1
92.3269 0 1
92.4424 0 1
92.558 0 1
92.6736 0 1
92.7893 0 1
92.905 0 1
93.0208 0 1
93.1366 0 1
93.2525 0 1
93.3685 0 1
93.4845 0 1
93.6005 1184 34.4093
93.7167 1189 34.4819
93.8328 1152 33.9411
93.949 1216 34.8712
94.0653 1085 32.9393
94.1816 1010 31.7805
94.2979 967 31.0966
94.4143 823 28.688
94.5307 804 28.3549
94.6472 930 30.4959
94.7637 1020 31.9374
94.8803 1131 33.6303
94.9969 1216 34.8712
95.1135 1280 35.7771
95.2302 1413 37.5899
95.3469 1398 37.3898
95.4637 1500 38.7298
95.5805 1459 38.1969
95.6973 1476 38.4187
95.8142 1432 37.8418
95.9311 1415 37.6165
96.048 1380 37.1484
96.1649 1328 36.4417
96.2819 1216 34.8712
96.3989 1176 34.2929
96.516 1141 33.7787
96.633 1061 32.573
96.7501 1143 33.8083
96.8673 1133 33.6601
96.9844 1172 34.2345
97.1016 1234 35.1283
97.2188 1305 36.1248
97.336 1307 36.1525
97.4532 1231 35.0856
97.5704 1210 34.7851
97.6877 1193 34.5398
97.805 1023 31.9844
97.9223 917 30.282
98.0396 919 30.315
98.1569 851 29.1719
98.2743 863 29.3769
98.3916 976 31.241
98.509 1069 32.6956
98.6264 1141 33.7787
98.7438 1279 35.7631
98.8612 1325 36.4005
98.9786 1408 37.5233
99.096 1394 37.3363
99.2134 1450 38.0789
99.3308 1507 38.8201
99.4482 1428 37.7889
99.5656 1448 38.0526
99.6831 1322 36.3593
99.8005 1338 36.5787
99.9179 1222 34.9571
100.035 1209 34.7707
100.153 1181 34.3657
100.27 1111 33.3317
100.388 1120 33.4664
100.505 1165 34.1321
100.622 1219 34.9142
100.74 1171 34.2199
100.857 1257 35.4542
100.975 1410 37.55
101.092 1293 35.9583
101.209 1201 34.6554
101.327 1221 34.9428
101.444 1044 32.311
101.561 920 30.3315
101.679 870 29.4958
101.796 903 30.05
101.913 899 29.9833
102.03 1106 33.2566
102.148 1205 34.7131
102.265 1345 36.6742
102.382 1449 38.0657
102.499 1476 38.4187
102.616 1503 38.7685
102.733 1573 39.6611
102.851 1554 39.4208
102.968 1539 39.2301
103.085 1514 38.9102
103.202 1556 39.4462
103.319 1393 37.3229
103.436 1392 37.3095
103.552 1250 35.3553
103.669 1263 35.5387
103.786 1218 34.8999
103.903 1197 34.5977
104.02 1240 35.2136
104.137 1358 36.8511
104.253 1314 36.2491
104.37 1439 37.9342
104.487 1433 37.855
104.603 1402 37.4433
104.72 1432 37.8418
104.836 1272 35.6651
104.953 1112 33.3467
105.069 1022 31.9687
105.186 1037 32.2025
105.302 1021 31.9531
105.418 1107 33.2716
105.535 1217 34.8855
105.651 1404 37.47
105.767 1516 38.9358
105.883 1565 39.5601
105.999 1708 41.328
106.115 0 1
106.231 0 1
106.347 0 1
106.463 0 1
106.579 0 1
106.694 0 1
106.81 0 1
106.926 0 1
107.041 0 1
107.157 0 1
109.576 0 1
109.692 0 1
109.807 0 1
109.923 0 1
110.039 0 1
110.155 0 1
110.27 0 1
110.386 0 1
110.502 0 1
110.618 1196 34.5832
110.735 1374 37.0675
110.851 1386 37.229
110.967 1464 38.2623
111.083 1543 39.281
111.199 1542 39.2683
111.316 1604 40.05
111.432 1616 40.1995
111.549 1572 39.6485
111.665 1509 38.8458
111.782 1493 38.6394
111.898 1501 38.7427
112.015 1271 35.6511
112.132 1336 36.5513
112.248 1266 35.5809
112.365 1210 34.7851
112.482 1137 33.7194
112.599 1348 36.7151
112.716 1279 35.7631
112.832 1322 36.3593
112.949 1346 36.6879
113.066 1356 36.8239
113.183 1311 36.2077
113.3 1323 36.3731
113.417 1233 35.1141
113.534 1079 32.8481
113.652 1000 31.6228
113.769 1039 32.2335
113.886 949 30.8058
114.003 1048 32.3728
114.12 1168 34.176
114.238 1343 36.647
114.355 1416 37.6298
114.472 1542 39.2683
114.589 1471 38.3536
114.707 1482 38.4968
114.824 1442 37.9737
114.942 1446 38.0263
115.059 1522 39.0128
115.176 1483 38.5097
115.294 1563 39.5348
115.411 1507 38.8201
115.529 1421 37.6962
115.646 1366 36.9594
115.764 1215 34.8569
115.881 1256 35.4401
115.999 1242 35.242
116.116 1224 34.9857
116.234 1291 35.9305
116.351 1332 36.4966
116.469 1395 37.3497
116.586 1410 37.55
116.704 1332 36.4966
116.821 1365 36.9459
116.939 1283 35.819
117.056 1203 34.6843
117.174 1136 33.7046
117.291 1044 32.311
117.409 1066 32.6497
117.526 1045 32.3265
117.644 1130 33.6155
117.761 1282 35.805
117.879 1477 38.4318
117.996 1493 38.6394
118.114 1568 39.598
118.231 1635 40.4351
118.349 1536 39.1918
118.466 1587 39.8372
118.584 1665 40.8044
118.701 1590 39.8748
118.819 1597 39.9625
118.936 1520 38.9872
119.053 1411 37.5633
119.171 1474 38.3927
119.288 1372 37.0405
119.405 1296 36
119.523 1208 34.7563
119.64 1279 35.7631
119.757 1401 37.4299
119.875 1356 36.8239
119.992 1346 36.6879
120.109 1383 37.1887
120.226 1342 36.6333
120.343 1315 36.2629
120.46 1333 36.5103
120.578 1300 36.0555
120.695 1239 35.1994
120.812 1173 34.2491
120.929 1096 33.1059
121.046 1098 33.1361
121.163 1045 32.3265
121.279 1182 34.3802
121.396 1248 35.327
121.513 1320 36.3318
121.63 1524 39.0384
121.747 1511 38.8716
121.863 1509 38.8458
121.98 1565 39.5601
122.097 1568 39.598
122.213 1604 40.05
122.33 1615 40.1871
122.446 1535 39.1791
122.563 1528 39.0896
122.679 1441 37.9605
122.795 1564 39.5474
122.912 1428 37.7889
123.028 1388 37.2559
123.144 1225 35
123.26 1265 35.5668
123.377 0 1
123.493 0 1
123.609 0 1
123.725 0 1
123.84 0 1
123.956 0 1
124.072 0 1
124.188 0 1
124.303 0 1
124.419 0 1
126.852 0 1
126.968 0 1
127.083 0 1
127.199 0 1
127.315 0 1
127.431 0 1
127.547 0 1
127.663 0 1
127.779 0 1
127.895 0 1
128.011 0 1
128.127 0 1
128.243 0 1
128.359 1469 38.3275
128.476 1321 36.3456
128.592 1406 37.4967
128.708 1401 37.4299
128.825 1463 38.2492
128.941 1511 38.8716
129.058 1554 39.4208
129.174 1489 38.5876
129.291 1487 38.5616
129.408 1479 38.4578
129.524 1456 38.1576
129.641 1363 36.9188
129.758 1325 36.4005
129.875 1330 36.4692
129.992 1241 35.2278
130.108 1257 35.4542
130.225 1236 35.1568
130.342 1406 37.4967
130.459 1458 38.1838
130.576 1665 40.8044
130.693 1659 40.7308
130.81 1633 40.4104
130.928 1603 40.0375
131.045 1688 41.0853
131.162 1626 40.3237
131.279 1683 41.0244
131.396 1679 40.9756
131.513 1728 41.5692
131.631 1618 40.2244
131.748 1566 39.5727
131.865 1587 39.8372
131.983 1483 38.5097
132.1 1393 37.3229
132.217 1408 37.5233
132.335 1493 38.6394
132.452 1509 38.8458
132.57 1604 40.05
132.687 1485 38.5357
132.804 1553 39.4081
132.922 1610 40.1248
133.039 1465 38.2753
133.157 1427 37.7757
133.274 1431 37.8286
133.392 1356 36.8239
133.509 1271 35.6511
133.627 1242 35.242
133.744 1260 35.4965
133.862 1381 37.1618
133.979 1431 37.8286
134.097 1604 40.05
134.214 1501 38.7427
134.332 1629 40.3609
134.449 1628 40.3485
134.567 1652 40.6448
134.684 1717 41.4367
134.802 1676 40.939
134.919 1679 40.9756
135.037 1642 40.5216
135.154 1630 40.3733
135.272 1607 40.0874
135.389 1528 39.0896
135.507 1489 38.5876
135.624 1413 37.5899
135.742 1431 37.8286
135.859 1526 39.064
135.977 1565 39.5601
136.094 1613 40.1622
136.211 1510 38.8587
136.329 1585 39.8121
136.446 1544 39.2938
136.564 1513 38.8973
136.681 1548 39.3446
136.798 1503 38.7685
136.915 1417 37.6431
137.033 1402 37.4433
137.15 1303 36.0971
137.267 1252 35.3836
137.384 1309 36.1801
137.502 1297 36.0139
137.619 1469 38.3275
137.736 1476 38.4187
137.853 1508 38.833
137.97 1554 39.4208
138.087 1626 40.3237
138.204 1571 39.6358
138.321 1635 40.4351
138.438 1676 40.939
138.555 1692 41.1339
138.672 1651 40.6325
138.788 1644 40.5463
138.905 1677 40.9512
139.022 1473 38.3797
139.139 1553 39.4081
139.255 1399 37.4032
139.372 1444 38
139.488 1459 38.1969
139.605 1489 38.5876
139.721 1578 39.724
139.838 1585 39.8121
139.954 1514 38.9102
140.071 1448 38.0526
140.187 1614 40.1746
140.303 1471 38.3536
140.419 1433 37.855
140.535 1426 37.7624
140.652 1422 37.7094
140.768 0 1
140.884 0 1
141 0 1
141.115 0 1
141.231 0 1
141.347 0 1
141.463 0 1
141.578 0 1
141.694 0 1
144.104 0 1
144.219 0 1
144.335 0 1
144.45 0 1
144.566 0 1
144.682 0 1
144.798 0 1
144.914 0 1
145.03 0 1
145.146 1101 33.1813
145.262 1152 33.9411
145.378 1159 34.0441
145.494 1149 33.8969
145.61 1161 34.0735
145.726 1125 33.541
145.842 1136 33.7046
145.959 1074 32.7719
146.075 1079 32.8481
146.192 1086 32.9545
146.308 1022 31.9687
146.425 1049 32.3883
146.541 1129 33.6006
146.658 1160 34.0588
146.774 1187 34.4529
146.891 1226 35.0143
147.008 1256 35.4401
147.125 1274 35.6931
147.241 1300 36.0555
147.358 1273 35.6791
147.475 1328 36.4417
147.592 1273 35.6791
147.709 1279 35.7631
147.826 1207 34.7419
147.943 1216 34.8712
148.06 1153 33.9559
148.177 1147 33.8674
148.294 1175 34.2783
148.411 1171 34.2199
148.528 1207 34.7419
148.645 1312 36.2215
148.762 1269 35.623
148.88 1274 35.6931
148.997 1260 35.4965
149.114 1264 35.5528
149.231 1293 35.9583
149.349 1170 34.2053
149.466 1197 34.5977
149.583 1169 34.1906
149.701 1178 34.322
149.818 1150 33.9116
149.935 1110 33.3167
150.053 1124 33.5261
150.17 1056 32.4962
150.287 1132 33.6452
150.405 1143 33.8083
150.522 1209 34.7707
150.64 1215 34.8569
150.757 1306 36.1386
150.875 1359 36.8646
150.992 1319 36.318
151.11 1367 36.973
151.227 1304 36.1109
151.344 1336 36.5513
151.462 1344 36.6606
151.579 1374 37.0675
151.697 1188 34.4674
151.814 1142 33.7935
151.932 1211 34.7994
152.049 1210 34.7851
152.167 1254 35.4119
152.284 1286 35.8608
152.402 1334 36.524
152.519 1276 35.7211
152.636 1343 36.647
152.754 1289 35.9026
152.871 1295 35.9861
152.989 1311 36.2077
153.106 1256 35.4401
153.223 1316 36.2767
153.341 1281 35.7911
153.458 1246 35.2987
153.575 1139 33.7491
153.693 1226 35.0143
153.81 1212 34.8138
153.927 1205 34.7131
154.044 1262 35.5246
154.162 1300 36.0555
154.279 1356 36.8239
154.396 1420 37.6829
154.513 1397 37.3765
154.63 1563 39.5348
154.747 1451 38.092
154.864 1420 37.6829
154.981 1363 36.9188
155.098 1445 38.0132
155.215 1441 37.9605
155.332 1364 36.9324
155.449 1324 36.3868
155.566 1389 37.2693
155.683 1380 37.1484
155.8 1428 37.7889
155.917 1393 37.3229
156.033 1333 36.5103
156.15 0 1
156.267 0 1
156.383 0 1
156.5 0 1
156.617 0 1
156.733 0 1
156.85 0 1
156.966 0 1
157.082 0 1
157.199 0 1
157.315 0 1
157.431 0 1
157.547 0 1
157.664 0 1
157.78 0 1
157.896 0 1
158.012 0 1
158.128 0 1
158.244 0 1
158.359 0 1
158.475 0 1
158.591 0 1
158.706 0 1
