
6.15755 0 1
6.2731 0 1
6.3887 0 1
6.50437 0 1
6.62009 0 1
6.73587 0 1
6.8517 0 1
6.96759 0 1
7.08353 0 1
7.19952 0 1
7.31557 0 1
7.43166 0 1
7.54781 0 1
7.664 0 1
7.78024 0 1
7.89653 0 1
8.01286 0 1
8.12924 0 1
8.24567 0 1
8.36213 0 1
8.47864 0 1
8.59519 0 1
8.71178 0 1
8.82841 0 1
8.94508 0 1
9.06179 0 1
9.17853 0 1
9.29531 0 1
9.41212 0 1
9.52897 0 1
9.64584 0 1
9.76276 0 1
9.8797 0 1
9.99667 0 1
10.1137 0 1
10.2307 0 1
10.3478 0 1
10.4648 0 1
10.5819 0 1
10.6991 0 1
10.8162 0 1
10.9334 0 1
11.0506 0 1
11.1678 0 1
11.285 0 1
11.4023 0 1
11.5196 0 1
11.6369 0 1
11.7542 0 1
11.8715 0 1
11.9888 0 1
12.1062 0 1
12.2235 0 1
12.3409 0 1
12.4582 0 1
12.5756 0 1
12.693 0 1
12.8104 0 1
12.9278 0 1
13.0452 0 1
13.1626 0 1
13.28 0 1
13.3974 0 1
13.5149 0 1
13.6323 0 1
13.7497 0 1
13.8671 0 1
13.9845 0 1
14.1019 0 1
14.2193 0 1
14.3367 0 1
14.4541 0 1
14.5714 0 1
14.6888 0 1
14.8062 0 1
14.9235 0 1
15.0408 2558 50.5767
15.1581 2538 50.3786
15.2755 2737 52.3163
15.3927 2670 51.672
15.51 2704 52
15.6273 2767 52.6023
15.7445 2762 52.5547
15.8617 2622 51.2055
15.9789 2629 51.2738
16.0961 2589 50.8822
16.2132 2760 52.5357
16.3304 2860 53.479
16.4475 2889 53.7494
16.5646 3019 54.9454
16.6816 3080 55.4977
16.7986 2952 54.3323
16.9156 2961 54.4151
17.0326 3076 55.4617
17.1496 3080 55.4977
17.2665 2957 54.3783
17.3833 2904 53.8888
17.5002 2813 53.0377
17.617 2661 51.5849
17.7338 2656 51.5364
17.8505 2559 50.5866
17.9672 2673 51.7011
18.0839 2768 52.6118
18.2005 2979 54.5802
18.3171 2971 54.5069
18.4337 3151 56.1338
18.5502 3051 55.2359
18.6666 3158 56.1961
18.7831 3160 56.2139
18.8994 3126 55.9106
19.0158 3038 55.1181
19.1321 2994 54.7175
19.2483 2873 53.6004
19.3645 2720 52.1536
19.4806 2591 50.9019
19.5967 2492 49.9199
19.7128 2618 51.1664
19.8288 2720 52.1536
19.9447 2592 50.9117
20.0606 0 1
20.1764 0 1
20.2922 0 1
20.4079 0 1
20.5236 0 1
20.6392 0 1
20.7548 0 1
20.8702 0 1
23.3078 0 1
23.4233 0 1
23.539 0 1
23.6547 0 1
23.7704 0 1
23.8862 0 1
24.0021 0 1
24.118 0 1
24.234 0 1
24.35 0 1
24.4661 2613 51.1175
24.5822 2525 50.2494
24.6984 2576 50.7543
24.8146 2764 52.5738
24.9309 2964 54.4426
25.0472 3050 55.2268
25.1636 3168 56.285
25.28 3100 55.6776
25.3965 3143 56.0625
25.513 3160 56.2139
25.6296 3127 55.9196
25.7462 3295 57.4021
25.8628 3090 55.5878
25.9795 3044 55.1725
26.0962 2952 54.3323
26.213 2743 52.3737
26.3298 2671 51.6817
26.4466 2609 51.0784
26.5635 2698 51.9423
26.6804 2944 54.2586
26.7973 2994 54.7175
26.9143 2936 54.1849
27.0313 3086 55.5518
27.1483 3093 55.6147
27.2653 3131 55.9553
27.3824 3177 56.3649
27.4996 3175 56.3471
27.6167 3165 56.2583
27.7339 3043 55.1634
27.8511 2940 54.2218
27.9683 2772 52.6498
28.0855 2541 50.4083
28.2028 2518 50.1797
28.3201 2676 51.7301
28.4374 2833 53.2259
28.5547 2876 53.6284
28.6721 3030 55.0454
28.7894 3094 55.6237
28.9068 3032 55.0636
29.0242 2994 54.7175
29.1416 3098 55.6597
29.259 3030 55.0454
29.3764 2990 54.6809
29.4939 2941 54.231
29.6113 2726 52.2111
29.7288 2587 50.8626
29.8463 2512 50.1199
29.9638 2453 49.5278
30.0812 2448 49.4773
30.1987 2614 51.1273
30.3162 2724 52.192
30.4337 2734 52.2877
30.5512 2920 54.037
30.6687 2942 54.2402
30.7862 2998 54.754
30.9037 2949 54.3047
31.0212 3105 55.7225
31.1387 2963 54.4334
31.2562 2899 53.8424
31.3737 2819 53.0943
31.4912 2644 51.4198
31.6087 2499 49.99
31.7262 2444 49.4368
31.8436 2469 49.689
31.9611 2685 51.817
32.0785 2721 52.1632
32.1959 3054 55.263
32.3134 3040 55.1362
32.4308 3003 54.7996
32.5482 2976 54.5527
32.6655 2897 53.8238
32.7829 2924 54.074
32.9002 2843 53.3198
33.0176 2797 52.8867
33.1349 2841 53.301
33.2522 2526 50.2593
33.3694 2425 49.2443
33.4867 2406 49.051
33.6039 2318 48.1456
33.7211 2377 48.7545
33.8383 2474 49.7393
33.9554 2560 50.5964
34.0725 2546 50.4579
34.1896 2640 51.3809
34.3067 2766 52.5928
34.4237 2836 53.2541
34.5407 2806 52.9717
34.6577 2781 52.7352
34.7746 2855 53.4322
34.8915 2715 52.1057
35.0084 2735 52.2972
35.1252 2590 50.892
35.242 2492 49.9199
35.3587 2313 48.0937
35.4755 2372 48.7032
35.5921 2523 50.2295
35.7088 2490 49.8999
35.8254 2640 51.3809
35.9419 2847 53.3573
36.0584 2771 52.6403
36.1749 2764 52.5738
36.2913 2749 52.4309
36.4077 2827 53.1695
36.524 2822 53.1225
36.6403 2736 52.3068
36.7565 2691 51.8748
36.8727 2502 50.02
36.9889 2360 48.5798
37.1049 2084 45.6508
37.221 0 1
37.3369 0 1
37.4529 0 1
37.5687 0 1
37.6845 0 1
37.8003 0 1
37.916 0 1
38.0316 0 1
38.1472 0 1
40.5851 0 1
40.7008 0 1
40.8164 0 1
40.9322 0 1
41.048 0 1
41.1639 0 1
41.2798 0 1
41.3958 0 1
41.5118 0 1
41.6279 0 1
41.744 2143 46.2925
41.8602 2352 48.4974
41.9765 2182 46.7119
42.0928 2197 46.8722
42.2091 1946 44.1135
42.3255 1894 43.5201
42.4419 1760 41.9524
42.5584 1709 41.3401
42.675 1730 41.5933
42.7915 1832 42.8019
42.9081 1922 43.8406
43.0248 1929 43.9204
43.1415 1951 44.1701
43.2582 1980 44.4972
43.375 2059 45.3762
43.4918 2103 45.8585
43.6087 2072 45.5192
43.7256 2067 45.4643
43.8425 1942 44.0681
43.9595 1942 44.0681
44.0765 1745 41.7732
44.1935 1728 41.5692
44.3106 1646 40.5709
44.4277 1657 40.7063
44.5448 1631 40.3856
44.6619 1628 40.3485
44.7791 1736 41.6653
44.8963 1770 42.0714
45.0136 1701 41.2432
45.1308 1645 40.5586
45.2481 1686 41.0609
45.3654 1714 41.4005
45.4827 1674 40.9145
45.6001 1528 39.0896
45.7174 1520 38.9872
45.8348 1342 36.6333
45.9522 1188 34.4674
46.0697 1165 34.1321
46.1871 1168 34.176
46.3046 1315 36.2629
46.422 1261 35.5106
46.5395 1387 37.2424
46.657 1357 36.8375
46.7745 1433 37.855
46.892 1372 37.0405
47.0096 1327 36.428
47.1271 1423 37.7227
47.2446 1419 37.6696
47.3622 1398 37.3898
47.4797 1298 36.0278
47.5973 1310 36.1939
47.7149 1274 35.6931
47.8324 1154 33.9706
47.95 1167 34.1614
48.0675 1202 34.6699
48.1851 1199 34.6266
48.3027 1285 35.8469
48.4202 1205 34.7131
48.5378 1362 36.9053
48.6554 1362 36.9053
48.7729 1360 36.8782
48.8904 1333 36.5103
49.008 1355 36.8103
49.1255 1369 37
49.243 1227 35.0286
49.3605 1193 34.5398
49.478 1174 34.2637
49.5955 1097 33.121
49.713 1070 32.7109
49.8304 1180 34.3511
49.9479 1249 35.3412
50.0653 1371 37.027
50.1827 1423 37.7227
50.3001 1526 39.064
50.4175 1497 38.6911
50.5348 1579 39.7366
50.6521 1550 39.37
50.7694 1624 40.2989
50.8867 1730 41.5933
51.004 1774 42.1189
51.1212 1754 41.8808
51.2384 1641 40.5093
51.3556 1670 40.8656
51.4727 1703 41.2674
51.5899 1698 41.2068
51.707 1894 43.5201
51.824 1992 44.6318
51.9411 2161 46.4866
52.0581 2147 46.3357
52.175 2288 47.833
52.2919 2338 48.3529
52.4088 2296 47.9166
52.5257 2405 49.0408
52.6425 2432 49.3153
52.7593 2352 48.4974
52.876 2144 46.3033
52.9927 2040 45.1664
53.1094 1924 43.8634
53.226 1811 42.5558
53.3426 1812 42.5676
53.4591 2041 45.1774
53.5756 2198 46.8828
53.692 2432 49.3153
53.8084 2581 50.8035
53.9248 2693 51.8941
54.0411 2828 53.1789
54.1573 2796 52.8772
54.2735 0 1
54.3896 0 1
54.5057 0 1
54.6217 0 1
54.7377 0 1
54.8537 0 1
54.9695 0 1
55.0853 0 1
55.2011 0 1
55.3168 0 1
55.4324 0 1
57.824 0 1
57.9396 0 1
58.0553 0 1
58.1711 0 1
58.2869 0 1
58.4028 0 1
58.5187 0 1
58.6347 0 1
58.7508 0 1
58.8669 0 1
58.983 2767 52.6023
59.0992 3045 55.1815
59.2155 3065 55.3624
59.3318 3116 55.8211
59.4482 3143 56.0625
59.5646 3143 56.0625
59.681 3151 56.1338
59.7975 3243 56.9473
59.9141 3139 56.0268
60.0306 3129 55.9375
60.1473 2953 54.3415
60.2639 2903 53.8795
60.3807 2832 53.2165
60.4974 2883 53.6936
60.6142 2972 54.5161
60.731 3265 57.1402
60.8479 3248 56.9912
60.9648 3294 57.3934
61.0818 3169 56.2939
61.1987 3187 56.4535
61.3158 3122 55.8749
61.4328 3000 54.7723
61.5499 2884 53.7029
61.667 2578 50.774
61.7841 2411 49.1019
61.9013 2223 47.1487
62.0185 2290 47.8539
62.1357 2291 47.8644
62.253 2558 50.5767
62.3702 2848 53.3667
62.4875 2948 54.2955
62.6049 2917 54.0093
62.7222 3004 54.8088
62.8396 3066 55.3715
62.9569 3058 55.2992
63.0743 3033 55.0727
63.1918 3011 54.8726
63.3092 2958 54.3875
63.4267 3005 54.8179
63.5441 2785 52.7731
63.6616 2870 53.5724
63.7791 2640 51.3809
63.8966 2511 50.1099
64.0142 2623 51.2152
64.1317 2630 51.2835
64.2492 2722 52.1728
64.3668 2885 53.7122
64.4843 2846 53.3479
64.6019 2838 53.2729
64.7195 2767 52.6023
64.837 2797 52.8867
64.9546 2683 51.7977
65.0722 2636 51.342
65.1898 2395 48.9387
65.3074 2157 46.4435
65.4249 1957 44.238
65.5425 1887 43.4396
65.6601 1945 44.1022
65.7777 2042 45.1885
65.8952 2254 47.4763
66.0128 2403 49.0204
66.1304 2519 50.1896
66.2479 2634 51.3225
66.3655 2720 52.1536
66.483 2711 52.0673
66.6005 2787 52.792
66.718 2792 52.8394
66.8355 2759 52.5262
66.953 2796 52.8772
67.0705 2669 51.6624
67.1879 2748 52.4214
67.3054 2632 51.303
67.4228 2588 50.8724
67.5402 2517 50.1697
67.6576 2618 51.1664
67.7749 2672 51.6914
67.8923 2895 53.8052
68.0096 3056 55.2811
68.1269 2998 54.754
68.2442 2990 54.6809
68.3614 3063 55.3444
68.4787 3060 55.3173
68.5958 3069 55.3986
68.713 3046 55.1906
68.8302 2736 52.3068
68.9473 2521 50.2096
69.0643 2229 47.2123
69.1814 2086 45.6727
69.2984 2040 45.1664
69.4154 2317 48.1352
69.5323 2586 50.8527
69.6492 2891 53.768
69.7661 3003 54.7996
69.8829 3007 54.8361
69.9997 3211 56.6657
70.1165 3143 56.0625
70.2332 3232 56.8507
70.3499 3203 56.5951
70.4665 3242 56.9386
70.5831 3253 57.0351
70.6996 3170 56.3028
70.8161 3255 57.0526
70.9326 3192 56.4978
71.049 3174 56.3383
71.1653 2854 53.4228
71.2817 2863 53.507
71.3979 2883 53.6936
71.5141 2802 52.9339
71.6303 2999 54.7631
71.7464 2933 54.1572
71.8624 0 1
71.9784 0 1
72.0944 0 1
72.2102 0 1
72.3261 0 1
72.4418 0 1
72.5575 0 1
72.6732 0 1
75.1054 0 1
75.2209 0 1
75.3365 0 1
75.4521 0 1
75.5678 0 1
75.6835 0 1
75.7993 0 1
75.9151 0 1
76.031 0 1
76.147 2592 50.9117
76.263 2708 52.0384
76.3791 2607 51.0588
76.4952 2501 50.01
76.6113 2500 50
76.7276 2644 51.4198
76.8438 2833 53.2259
76.9601 2855 53.4322
77.0765 2822 53.1225
77.1929 2815 53.0566
77.3093 2714 52.0961
77.4258 2909 53.9351
77.5423 2792 52.8394
77.6589 2604 51.0294
77.7755 2348 48.4562
77.8921 2097 45.793
78.0088 1917 43.7836
78.1256 1854 43.0581
78.2423 1810 42.5441
78.3591 1873 43.2782
78.4759 2155 46.422
78.5928 2383 48.816
78.7097 2574 50.7346
78.8266 2408 49.0714
78.9436 2617 51.1566
79.0606 2632 51.303
79.1776 2693 51.8941
79.2946 2779 52.7162
79.4117 2695 51.9134
79.5288 2778 52.7067
79.6459 2707 52.0288
79.7631 2649 51.4684
79.8802 2627 51.2543
79.9974 2607 51.0588
80.1147 2410 49.0918
80.2319 2342 48.3942
80.3491 2433 49.3254
80.4664 2678 51.7494
80.5837 2783 52.7541
80.701 2816 53.066
80.8183 2766 52.5928
80.9357 2798 52.8961
81.053 2764 52.5738
81.1704 2872 53.591
81.2877 2648 51.4587
81.4051 2528 50.2792
81.5225 2281 47.7598
81.6399 1910 43.7035
81.7573 1889 43.4626
81.8747 1820 42.6615
81.9922 1913 43.7379
82.1096 2120 46.0435
82.227 2305 48.0104
82.3444 2457 49.5681
82.4619 2595 50.9411
82.5793 2751 52.45
82.6967 2536 50.3587
82.8142 2647 51.449
82.9316 2716 52.1153
83.049 2766 52.5928
83.1664 2802 52.9339
83.2838 2795 52.8678
83.4012 2778 52.7067
83.5186 2793 52.8488
83.636 2837 53.2635
83.7534 2582 50.8134
83.8708 2441 49.4065
83.9881 2654 51.517
84.1055 2698 51.9423
84.2228 2839 53.2823
84.3401 2998 54.754
84.4575 2986 54.6443
84.5747 2926 54.0925
84.692 2919 54.0278
84.8093 2949 54.3047
84.9265 2735 52.2972
85.0437 2425 49.2443
85.1609 2327 48.239
85.2781 2070 45.4973
85.3952 1955 44.2154
85.5123 1852 43.0349
85.6294 2175 46.6369
85.7465 2382 48.8057
85.8636 2664 51.614
85.9806 2631 51.2933
86.0976 2864 53.5164
86.2145 2965 54.4518
86.3315 2950 54.3139
86.4484 3160 56.2139
86.5652 3196 56.5332
86.682 3276 57.2364
86.7988 3352 57.8965
86.9156 3404 58.3438
87.0323 3351 57.8878
87.149 3393 58.2495
87.2657 3299 57.4369
87.3823 3160 56.2139
87.4988 3234 56.8683
87.6154 3456 58.7878
87.7318 3722 61.0082
87.8483 3871 62.2174
87.9647 4048 63.6239
88.081 4059 63.7103
88.1973 4141 64.3506
88.3136 4162 64.5136
88.4298 4253 65.215
88.546 3893 62.3939
88.6621 3585 59.8749
88.7781 3274 57.2189
88.8942 0 1
89.0101 0 1
89.126 0 1
89.2419 0 1
89.3577 0 1
89.4734 0 1
89.5891 0 1
89.7047 0 1
89.8203 0 1
89.9358 0 1
92.3269 0 1
92.4424 0 1
92.558 0 1
92.6736 0 1
92.7893 0 1
92.905 0 1
93.0208 0 1
93.1366 0 1
93.2525 0 1
93.3685 0 1
93.4845 0 1
93.6005 4795 69.2459
93.7167 4633 68.0661
93.8328 4449 66.7008
93.949 3955 62.8888
94.0653 3668 60.564
94.1816 3508 59.2284
94.2979 3229 56.8243
94.4143 3290 57.3585
94.5307 3399 58.3009
94.6472 3708 60.8933
94.7637 4025 63.4429
94.8803 4167 64.5523
94.9969 4361 66.0379
95.1135 4516 67.2012
95.2302 4609 67.8896
95.3469 4817 69.4046
95.4637 4965 70.4628
95.5805 4933 70.2353
95.6973 4999 70.7036
95.8142 4982 70.5833
95.9311 5027 70.9013
96.048 4971 70.5053
96.1649 4708 68.6149
96.2819 4631 68.0515
96.3989 4350 65.9545
96.516 4335 65.8407
96.633 4551 67.4611
96.7501 4631 68.0515
96.8673 4863 69.7352
96.9844 4803 69.3037
97.1016 4801 69.2892
97.2188 4696 68.5274
97.336 4635 68.0808
97.4532 4405 66.3702
97.5704 4208 64.8691
97.6877 3704 60.8605
97.805 3464 58.8558
97.9223 3066 55.3715
98.0396 2843 53.3198
98.1569 2632 51.303
98.2743 2962 54.4243
98.3916 3083 55.5248
98.509 3166 56.2672
98.6264 3401 58.3181
98.7438 3467 58.8812
98.8612 3532 59.4306
98.9786 3659 60.4897
99.096 3673 60.6053
99.2134 3747 61.2127
99.3308 3675 60.6218
99.4482 3693 60.7701
99.5656 3578 59.8164
99.6831 3536 59.4643
99.8005 3452 58.7537
99.9179 3361 57.9741
100.035 3219 56.7362
100.153 3102 55.6956
100.27 3244 56.9561
100.388 3234 56.8683
100.505 3522 59.3464
100.622 3483 59.0169
100.74 3508 59.2284
100.857 3506 59.2115
100.975 3371 58.0603
101.092 3342 57.81
101.209 3219 56.7362
101.327 3055 55.2721
101.444 2717 52.1249
101.561 2449 49.4874
101.679 2452 49.5177
101.796 2356 48.5386
101.913 2307 48.0312
102.03 2603 51.0196
102.148 2668 51.6527
102.265 2673 51.7011
102.382 3163 56.2406
102.499 3206 56.6216
102.616 3239 56.9122
102.733 3381 58.1464
102.851 3331 57.7148
102.968 3375 58.0948
103.085 3424 58.515
103.202 3351 57.8878
103.319 3418 58.4637
103.436 3151 56.1338
103.552 3160 56.2139
103.669 3032 55.0636
103.786 3098 55.6597
103.903 3312 57.55
104.02 3271 57.1927
104.137 3257 57.0701
104.253 3237 56.8946
104.37 3251 57.0175
104.487 3387 58.1979
104.603 3186 56.4447
104.72 3101 55.6866
104.836 2841 53.301
104.953 2579 50.7839
105.069 2305 48.0104
105.186 2282 47.7703
105.302 2253 47.4658
105.418 2281 47.7598
105.535 2425 49.2443
105.651 2671 51.6817
105.767 2663 51.6043
105.883 2788 52.8015
105.999 2900 53.8516
106.115 0 1
106.231 0 1
106.347 0 1
106.463 0 1
106.579 0 1
106.694 0 1
106.81 0 1
106.926 0 1
107.041 0 1
107.157 0 1
109.576 0 1
109.692 0 1
109.807 0 1
109.923 0 1
110.039 0 1
110.155 0 1
110.27 0 1
110.386 0 1
110.502 0 1
110.618 2071 45.5082
110.735 2289 47.8435
110.851 2483 49.8297
110.967 2548 50.4777
111.083 2573 50.7247
111.199 2798 52.8961
111.316 2838 53.2729
111.432 2837 53.2635
111.549 2833 53.2259
111.665 2792 52.8394
111.782 2900 53.8516
111.898 2701 51.9711
112.015 2587 50.8626
112.132 2590 50.892
112.248 2559 50.5866
112.365 2635 51.3323
112.482 2832 53.2165
112.599 2779 52.7162
112.716 2810 53.0094
112.832 2909 53.9351
112.949 2750 52.4404
113.066 2843 53.3198
113.183 2668 51.6527
113.3 2662 51.5946
113.417 2508 50.0799
113.534 2260 47.5395
113.652 2124 46.0869
113.769 2011 44.8442
113.886 1805 42.4853
114.003 1933 43.9659
114.12 2082 45.6289
114.238 2165 46.5296
114.355 2365 48.6313
114.472 2455 49.548
114.589 2457 49.5681
114.707 2676 51.7301
114.824 2601 51
114.942 2597 50.9608
115.059 2675 51.7204
115.176 2700 51.9615
115.294 2573 50.7247
115.411 2513 50.1298
115.529 2474 49.7393
115.646 2329 48.2597
115.764 2300 47.9583
115.881 2367 48.6518
115.999 2464 49.6387
116.116 2415 49.1426
116.234 2495 49.95
116.351 2540 50.3984
116.469 2542 50.4183
116.586 2428 49.2747
116.704 2526 50.2593
116.821 2398 48.9694
116.939 2302 47.9792
117.056 2131 46.1628
117.174 2023 44.9778
117.291 1854 43.0581
117.409 1697 41.1947
117.526 1724 41.5211
117.644 1830 42.7785
117.761 1974 44.4297
117.879 2134 46.1952
117.996 2196 46.8615
118.114 2377 48.7545
118.231 2403 49.0204
118.349 2534 50.3389
118.466 2493 49.93
118.584 2591 50.9019
118.701 2606 51.049
118.819 2614 51.1273
118.936 2674 51.7107
119.053 2475 49.7494
119.171 2552 50.5173
119.288 2394 48.9285
119.405 2400 48.9898
119.523 2464 49.6387
119.64 2708 52.0384
119.757 2711 52.0673
119.875 2804 52.9528
119.992 2762 52.5547
120.109 2711 52.0673
120.226 2838 53.2729
120.343 2741 52.3546
120.46 2831 53.2071
120.578 2757 52.5071
120.695 2642 51.4004
120.812 2535 50.3488
120.929 2282 47.7703
121.046 2030 45.0555
121.163 1938 44.0227
121.279 1912 43.7264
121.396 2154 46.4112
121.513 2404 49.0306
121.63 2656 51.5364
121.747 2718 52.1344
121.863 2787 52.792
121.98 3020 54.9545
122.097 2952 54.3323
122.213 3045 55.1815
122.33 3018 54.9363
122.446 3031 55.0545
122.563 3152 56.1427
122.679 2982 54.6077
122.795 2964 54.4426
122.912 2992 54.6992
123.028 2986 54.6443
123.144 2802 52.9339
123.26 2956 54.3691
123.377 0 1
123.493 0 1
123.609 0 1
123.725 0 1
123.84 0 1
123.956 0 1
124.072 0 1
124.188 0 1
124.303 0 1
124.419 0 1
126.852 0 1
126.968 0 1
127.083 0 1
127.199 0 1
127.315 0 1
127.431 0 1
127.547 0 1
127.663 0 1
127.779 0 1
127.895 0 1
128.011 0 1
128.127 0 1
128.243 0 1
128.359 3240 56.921
128.476 3226 56.7979
128.592 3276 57.2364
128.708 3298 57.4282
128.825 3485 59.0339
128.941 3431 58.5747
129.058 3507 59.2199
129.174 3484 59.0254
129.291 3367 58.0259
129.408 3443 58.6771
129.524 3420 58.4808
129.641 3437 58.6259
129.758 3327 57.6802
129.875 2864 53.5164
129.992 2635 51.3323
130.108 2449 49.4874
130.225 2169 46.5725
130.342 2300 47.9583
130.459 2366 48.6415
130.576 2569 50.6853
130.693 2811 53.0189
130.81 2845 53.3385
130.928 2963 54.4334
131.045 3070 55.4076
131.162 3090 55.5878
131.279 3190 56.4801
131.396 3071 55.4166
131.513 3025 55
131.631 3055 55.2721
131.748 2955 54.3599
131.865 2877 53.6377
131.983 2804 52.9528
132.1 2859 53.4696
132.217 3002 54.7905
132.335 2960 54.4059
132.452 2917 54.0093
132.57 2887 53.7308
132.687 2847 53.3573
132.804 2931 54.1387
132.922 2855 53.4322
133.039 2784 52.7636
133.157 2850 53.3854
133.274 2787 52.792
133.392 2523 50.2295
133.509 2294 47.8957
133.627 2061 45.3982
133.744 1854 43.0581
133.862 1857 43.0929
133.979 1888 43.4511
134.097 1999 44.7102
134.214 2162 46.4973
134.332 2315 48.1144
134.449 2355 48.5283
134.567 2247 47.4025
134.684 2367 48.6518
134.802 2361 48.5901
134.919 2367 48.6518
135.037 2275 47.697
135.154 2302 47.9792
135.272 2127 46.1194
135.389 2133 46.1844
135.507 2171 46.594
135.624 2116 46
135.742 2050 45.2769
135.859 2116 46
135.977 2214 47.0532
136.094 2206 46.9681
136.211 2140 46.2601
136.329 2093 45.7493
136.446 2099 45.8148
136.564 2110 45.9347
136.681 2049 45.2659
136.798 2035 45.111
136.915 2059 45.3762
137.033 1864 43.1741
137.15 1813 42.5793
137.267 1663 40.7799
137.384 1488 38.5746
137.502 1509 38.8458
137.619 1549 39.3573
137.736 1671 40.8779
137.853 1862 43.1509
137.97 1958 44.2493
138.087 2018 44.9222
138.204 2087 45.6837
138.321 2106 45.8912
138.438 2187 46.7654
138.555 2184 46.7333
138.672 2159 46.465
138.788 2182 46.7119
138.905 2165 46.5296
139.022 2166 46.5403
139.139 2175 46.6369
139.255 2287 47.8226
139.372 2195 46.8508
139.488 2304 48
139.605 2364 48.621
139.721 2361 48.5901
139.838 2481 49.8096
139.954 2448 49.4773
140.071 2403 49.0204
140.187 2509 50.0899
140.303 2437 49.366
140.419 2444 49.4368
140.535 2360 48.5798
140.652 2236 47.2864
140.768 0 1
140.884 0 1
141 0 1
141.115 0 1
141.231 0 1
141.347 0 1
141.463 0 1
141.578 0 1
141.694 0 1
144.104 0 1
144.219 0 1
144.335 0 1
144.45 0 1
144.566 0 1
144.682 0 1
144.798 0 1
144.914 0 1
145.03 0 1
145.146 2094 45.7602
145.262 2138 46.2385
145.378 2095 45.7712
145.494 2095 45.7712
145.61 2037 45.1331
145.726 2022 44.9667
145.842 1864 43.1741
145.959 1711 41.3642
146.075 1609 40.1123
146.192 1504 38.7814
146.308 1481 38.4838
146.425 1518 38.9615
146.541 1588 39.8497
146.658 1688 41.0853
146.774 1770 42.0714
146.891 1760 41.9524
147.008 1779 42.1782
147.125 1860 43.1277
147.241 1744 41.7612
147.358 1825 42.72
147.475 1797 42.391
147.592 1745 41.7732
147.709 1671 40.8779
147.826 1699 41.2189
147.943 1687 41.0731
148.06 1653 40.6571
148.177 1685 41.0488
148.294 1690 41.1096
148.411 1747 41.7971
148.528 1696 41.1825
148.645 1708 41.328
148.762 1714 41.4005
148.88 1576 39.6989
148.997 1657 40.7063
149.114 1575 39.6863
149.231 1644 40.5463
149.349 1531 39.128
149.466 1457 38.1707
149.583 1410 37.55
149.701 1273 35.6791
149.818 1303 36.0971
149.935 1223 34.9714
150.053 1236 35.1568
150.17 1276 35.7211
150.287 1377 37.108
150.405 1499 38.7169
150.522 1457 38.1707
150.64 1584 39.7995
150.757 1638 40.4722
150.875 1645 40.5586
150.992 1487 38.5616
151.11 1555 39.4335
151.227 1482 38.4968
151.344 1638 40.4722
151.462 1598 39.975
151.579 1605 40.0625
151.697 1612 40.1497
151.814 1584 39.7995
151.932 1734 41.6413
152.049 1704 41.2795
152.167 1689 41.0974
152.284 1710 41.3521
152.402 1783 42.2256
152.519 1673 40.9023
152.636 1762 41.9762
152.754 1850 43.0116
152.871 1763 41.9881
152.989 1739 41.7013
153.106 1579 39.7366
153.223 1457 38.1707
153.341 1419 37.6696
153.458 1430 37.8153
153.575 1448 38.0526
153.693 1477 38.4318
153.81 1556 39.4462
153.927 1641 40.5093
154.044 1684 41.0366
154.162 1761 41.9643
154.279 1863 43.1625
154.396 1917 43.7836
154.513 1961 44.2832
154.63 2082 45.6289
154.747 2000 44.7214
154.864 1889 43.4626
154.981 1865 43.1856
155.098 1903 43.6234
155.215 1974 44.4297
155.332 2165 46.5296
155.449 2036 45.1221
155.566 2011 44.8442
155.683 2147 46.3357
155.8 2200 46.9042
155.917 2335 48.3218
156.033 2260 47.5395
156.15 0 1
156.267 0 1
156.383 0 1
156.5 0 1
156.617 0 1
156.733 0 1
156.85 0 1
156.966 0 1
157.082 0 1
157.199 0 1
157.315 0 1
157.431 0 1
157.547 0 1
157.664 0 1
157.78 0 1
157.896 0 1
158.012 0 1
158.128 0 1
158.244 0 1
158.359 0 1
158.475 0 1
158.591 0 1
158.706 0 1
