
6.15755 0 1
6.2731 0 1
6.3887 0 1
6.50437 0 1
6.62009 0 1
6.73587 0 1
6.8517 0 1
6.96759 0 1
7.08353 0 1
7.19952 0 1
7.31557 0 1
7.43166 0 1
7.54781 0 1
7.664 0 1
7.78024 0 1
7.89653 0 1
8.01286 0 1
8.12924 0 1
8.24567 0 1
8.36213 0 1
8.47864 0 1
8.59519 0 1
8.71178 0 1
8.82841 0 1
8.94508 0 1
9.06179 0 1
9.17853 0 1
9.29531 0 1
9.41212 0 1
9.52897 0 1
9.64584 0 1
9.76276 0 1
9.8797 0 1
9.99667 0 1
10.1137 0 1
10.2307 0 1
10.3478 0 1
10.4648 0 1
10.5819 0 1
10.6991 0 1
10.8162 0 1
10.9334 0 1
11.0506 0 1
11.1678 0 1
11.285 0 1
11.4023 0 1
11.5196 0 1
11.6369 0 1
11.7542 0 1
11.8715 0 1
11.9888 0 1
12.1062 0 1
12.2235 0 1
12.3409 0 1
12.4582 0 1
12.5756 0 1
12.693 0 1
12.8104 0 1
12.9278 0 1
13.0452 0 1
13.1626 0 1
13.28 0 1
13.3974 0 1
13.5149 0 1
13.6323 0 1
13.7497 0 1
13.8671 0 1
13.9845 0 1
14.1019 0 1
14.2193 0 1
14.3367 0 1
14.4541 0 1
14.5714 0 1
14.6888 0 1
14.8062 0 1
14.9235 0 1
15.0408 1034 32.1559
15.1581 1026 32.0312
15.2755 1030 32.0936
15.3927 1034 32.1559
15.51 937 30.6105
15.6273 989 31.4484
15.7445 913 30.2159
15.8617 937 30.6105
15.9789 934 30.5614
16.0961 918 30.2985
16.2132 904 30.0666
16.3304 857 29.2746
16.4475 881 29.6816
16.5646 895 29.9166
16.6816 850 29.1548
16.7986 895 29.9166
16.9156 825 28.7228
17.0326 811 28.4781
17.1496 785 28.0179
17.2665 839 28.9655
17.3833 837 28.931
17.5002 819 28.6182
17.617 829 28.7924
17.7338 816 28.5657
17.8505 793 28.1603
17.9672 836 28.9137
18.0839 761 27.5862
18.2005 811 28.4781
18.3171 820 28.6356
18.4337 828 28.775
18.5502 844 29.0517
18.6666 840 28.9828
18.7831 810 28.4605
18.8994 812 28.4956
19.0158 725 26.9258
19.1321 691 26.2869
19.2483 694 26.3439
19.3645 679 26.0576
19.4806 707 26.5895
19.5967 653 25.5539
19.7128 667 25.8263
19.8288 604 24.5764
19.9447 602 24.5357
20.0606 0 1
20.1764 0 1
20.2922 0 1
20.4079 0 1
20.5236 0 1
20.6392 0 1
20.7548 0 1
20.8702 0 1
23.3078 0 1
23.4233 0 1
23.539 0 1
23.6547 0 1
23.7704 0 1
23.8862 0 1
24.0021 0 1
24.118 0 1
24.234 0 1
24.35 0 1
24.4661 417 20.4206
24.5822 448 21.166
24.6984 492 22.1811
24.8146 583 24.1454
24.9309 673 25.9422
25.0472 710 26.6458
25.1636 729 27
25.28 844 29.0517
25.3965 845 29.0689
25.513 864 29.3939
25.6296 940 30.6594
25.7462 920 30.3315
25.8628 930 30.4959
25.9795 855 29.2404
26.0962 849 29.1376
26.213 877 29.6142
26.3298 876 29.5973
26.4466 786 28.0357
26.5635 782 27.9643
26.6804 720 26.8328
26.7973 776 27.8568
26.9143 691 26.2869
27.0313 718 26.7955
27.1483 759 27.55
27.2653 737 27.1477
27.3824 760 27.5681
27.4996 850 29.1548
27.6167 838 28.9482
27.7339 742 27.2397
27.8511 785 28.0179
27.9683 708 26.6083
28.0855 727 26.9629
28.2028 810 28.4605
28.3201 841 29
28.4374 912 30.1993
28.5547 894 29.8998
28.6721 918 30.2985
28.7894 849 29.1376
28.9068 840 28.9828
29.0242 904 30.0666
29.1416 760 27.5681
29.259 892 29.8664
29.3764 878 29.6311
29.4939 837 28.931
29.6113 850 29.1548
29.7288 880 29.6648
29.8463 844 29.0517
29.9638 925 30.4138
30.0812 836 28.9137
30.1987 877 29.6142
30.3162 883 29.7153
30.4337 907 30.1164
30.5512 934 30.5614
30.6687 916 30.2655
30.7862 1013 31.8277
30.9037 1001 31.6386
31.0212 1041 32.2645
31.1387 1018 31.9061
31.2562 999 31.607
31.3737 1037 32.2025
31.4912 897 29.95
31.6087 921 30.348
31.7262 910 30.1662
31.8436 943 30.7083
31.9611 994 31.5278
32.0785 974 31.209
32.1959 915 30.249
32.3134 911 30.1828
32.4308 880 29.6648
32.5482 894 29.8998
32.6655 910 30.1662
32.7829 893 29.8831
32.9002 868 29.4618
33.0176 874 29.5635
33.1349 868 29.4618
33.2522 890 29.8329
33.3694 899 29.9833
33.4867 977 31.257
33.6039 964 31.0483
33.7211 899 29.9833
33.8383 870 29.4958
33.9554 868 29.4618
34.0725 762 27.6043
34.1896 742 27.2397
34.3067 801 28.3019
34.4237 777 27.8747
34.5407 852 29.189
34.6577 876 29.5973
34.7746 787 28.0535
34.8915 832 28.8444
35.0084 786 28.0357
35.1252 770 27.7489
35.242 668 25.8457
35.3587 757 27.5136
35.4755 725 26.9258
35.5921 808 28.4253
35.7088 766 27.6767
35.8254 804 28.3549
35.9419 791 28.1247
36.0584 769 27.7308
36.1749 692 26.3059
36.2913 704 26.533
36.4077 663 25.7488
36.524 618 24.8596
36.6403 600 24.4949
36.7565 603 24.5561
36.8727 557 23.6008
36.9889 497 22.2935
37.1049 494 22.2261
37.221 0 1
37.3369 0 1
37.4529 0 1
37.5687 0 1
37.6845 0 1
37.8003 0 1
37.916 0 1
38.0316 0 1
38.1472 0 1
40.5851 0 1
40.7008 0 1
40.8164 0 1
40.9322 0 1
41.048 0 1
41.1639 0 1
41.2798 0 1
41.3958 0 1
41.5118 0 1
41.6279 0 1
41.744 333 18.2483
41.8602 378 19.4422
41.9765 430 20.7364
42.0928 473 21.7486
42.2091 477 21.8403
42.3255 558 23.622
42.4419 581 24.1039
42.5584 603 24.5561
42.675 552 23.4947
42.7915 542 23.2809
42.9081 532 23.0651
43.0248 525 22.9129
43.1415 578 24.0416
43.2582 564 23.7487
43.375 568 23.8328
43.4918 582 24.1247
43.6087 602 24.5357
43.7256 570 23.8747
43.8425 549 23.4307
43.9595 551 23.4734
44.0765 486 22.0454
44.1935 502 22.4054
44.3106 517 22.7376
44.4277 520 22.8035
44.5448 561 23.6854
44.6619 593 24.3516
44.7791 591 24.3105
44.8963 566 23.7908
45.0136 622 24.9399
45.1308 549 23.4307
45.2481 583 24.1454
45.3654 607 24.6374
45.4827 563 23.7276
45.6001 600 24.4949
45.7174 590 24.2899
45.8348 577 24.0208
45.9522 591 24.3105
46.0697 582 24.1247
46.1871 545 23.3452
46.3046 519 22.7816
46.422 477 21.8403
46.5395 503 22.4277
46.657 499 22.3383
46.7745 487 22.0681
46.892 547 23.388
47.0096 582 24.1247
47.1271 599 24.4745
47.2446 600 24.4949
47.3622 538 23.1948
47.4797 559 23.6432
47.5973 540 23.2379
47.7149 498 22.3159
47.8324 483 21.9773
47.95 564 23.7487
48.0675 521 22.8254
48.1851 565 23.7697
48.3027 548 23.4094
48.4202 563 23.7276
48.5378 597 24.4336
48.6554 550 23.4521
48.7729 598 24.454
48.8904 577 24.0208
49.008 589 24.2693
49.1255 574 23.9583
49.243 553 23.516
49.3605 567 23.8118
49.478 503 22.4277
49.5955 529 23
49.713 516 22.7156
49.8304 483 21.9773
49.9479 458 21.4009
50.0653 442 21.0238
50.1827 448 21.166
50.3001 502 22.4054
50.4175 533 23.0868
50.5348 545 23.3452
50.6521 544 23.3238
50.7694 565 23.7697
50.8867 519 22.7816
51.004 505 22.4722
51.1212 491 22.1585
51.2384 467 21.6102
51.3556 455 21.3307
51.4727 525 22.9129
51.5899 551 23.4734
51.707 536 23.1517
51.824 560 23.6643
51.9411 569 23.8537
52.0581 556 23.5797
52.175 556 23.5797
52.2919 503 22.4277
52.4088 525 22.9129
52.5257 526 22.9347
52.6425 546 23.3666
52.7593 501 22.383
52.876 504 22.4499
52.9927 539 23.2164
53.1094 523 22.8692
53.226 571 23.8956
53.3426 524 22.891
53.4591 462 21.4942
53.5756 463 21.5174
53.692 413 20.3224
53.8084 388 19.6977
53.9248 388 19.6977
54.0411 379 19.4679
54.1573 388 19.6977
54.2735 0 1
54.3896 0 1
54.5057 0 1
54.6217 0 1
54.7377 0 1
54.8537 0 1
54.9695 0 1
55.0853 0 1
55.2011 0 1
55.3168 0 1
55.4324 0 1
57.824 0 1
57.9396 0 1
58.0553 0 1
58.1711 0 1
58.2869 0 1
58.4028 0 1
58.5187 0 1
58.6347 0 1
58.7508 0 1
58.8669 0 1
58.983 621 24.9199
59.0992 783 27.9821
59.2155 1039 32.2335
59.3318 1155 33.9853
59.4482 1312 36.2215
59.5646 1389 37.2693
59.681 1374 37.0675
59.7975 1464 38.2623
59.9141 1408 37.5233
60.0306 1369 37
60.1473 1363 36.9188
60.2639 1422 37.7094
60.3807 1430 37.8153
60.4974 1492 38.6264
60.6142 1456 38.1576
60.731 1443 37.9868
60.8479 1371 37.027
60.9648 1370 37.0135
61.0818 1422 37.7094
61.1987 1356 36.8239
61.3158 1260 35.4965
61.4328 1355 36.8103
61.5499 1245 35.2846
61.667 1290 35.9166
61.7841 1207 34.7419
61.9013 1114 33.3766
62.0185 1031 32.1092
62.1357 923 30.3809
62.253 931 30.5123
62.3702 901 30.0167
62.4875 890 29.8329
62.6049 893 29.8831
62.7222 861 29.3428
62.8396 885 29.7489
62.9569 906 30.0998
63.0743 858 29.2916
63.1918 832 28.8444
63.3092 773 27.8029
63.4267 755 27.4773
63.5441 727 26.9629
63.6616 644 25.3772
63.7791 715 26.7395
63.8966 657 25.632
64.0142 648 25.4558
64.1317 688 26.2298
64.2492 664 25.7682
64.3668 630 25.0998
64.4843 626 25.02
64.6019 684 26.1534
64.7195 665 25.7876
64.837 667 25.8263
64.9546 635 25.1992
65.0722 707 26.5895
65.1898 636 25.219
65.3074 657 25.632
65.4249 627 25.04
65.5425 647 25.4362
65.6601 625 25
65.7777 630 25.0998
65.8952 642 25.3377
66.0128 538 23.1948
66.1304 601 24.5153
66.2479 654 25.5734
66.3655 629 25.0799
66.483 636 25.219
66.6005 658 25.6515
66.718 667 25.8263
66.8355 681 26.096
66.953 691 26.2869
67.0705 625 25
67.1879 628 25.0599
67.3054 635 25.1992
67.4228 624 24.98
67.5402 627 25.04
67.6576 710 26.6458
67.7749 676 26
67.8923 618 24.8596
68.0096 629 25.0799
68.1269 631 25.1197
68.2442 605 24.5967
68.3614 602 24.5357
68.4787 637 25.2389
68.5958 638 25.2587
68.713 665 25.7876
68.8302 646 25.4165
68.9473 636 25.219
69.0643 609 24.6779
69.1814 620 24.8998
69.2984 580 24.0832
69.4154 560 23.6643
69.5323 565 23.7697
69.6492 556 23.5797
69.7661 595 24.3926
69.8829 543 23.3024
69.9997 615 24.7992
70.1165 619 24.8797
70.2332 623 24.96
70.3499 601 24.5153
70.4665 602 24.5357
70.5831 553 23.516
70.6996 420 20.4939
70.8161 454 21.3073
70.9326 418 20.445
71.049 353 18.7883
71.1653 316 17.7764
71.2817 350 18.7083
71.3979 334 18.2757
71.5141 295 17.1756
71.6303 290 17.0294
71.7464 214 14.6287
71.8624 0 1
71.9784 0 1
72.0944 0 1
72.2102 0 1
72.3261 0 1
72.4418 0 1
72.5575 0 1
72.6732 0 1
75.1054 0 1
75.2209 0 1
75.3365 0 1
75.4521 0 1
75.5678 0 1
75.6835 0 1
75.7993 0 1
75.9151 0 1
76.031 0 1
76.147 410 20.2485
76.263 479 21.8861
76.3791 504 22.4499
76.4952 493 22.2036
76.6113 522 22.8473
76.7276 536 23.1517
76.8438 581 24.1039
76.9601 539 23.2164
77.0765 574 23.9583
77.1929 528 22.9783
77.3093 530 23.0217
77.4258 543 23.3024
77.5423 539 23.2164
77.6589 509 22.561
77.7755 557 23.6008
77.8921 528 22.9783
78.0088 527 22.9565
78.1256 501 22.383
78.2423 482 21.9545
78.3591 484 22
78.4759 457 21.3776
78.5928 480 21.9089
78.7097 463 21.5174
78.8266 483 21.9773
78.9436 541 23.2594
79.0606 501 22.383
79.1776 526 22.9347
79.2946 570 23.8747
79.4117 555 23.5584
79.5288 532 23.0651
79.6459 572 23.9165
79.7631 552 23.4947
79.8802 496 22.2711
79.9974 521 22.8254
80.1147 574 23.9583
80.2319 555 23.5584
80.3491 582 24.1247
80.4664 613 24.7588
80.5837 584 24.1661
80.701 547 23.388
80.8183 534 23.1084
80.9357 536 23.1517
81.053 578 24.0416
81.1704 556 23.5797
81.2877 535 23.1301
81.4051 555 23.5584
81.5225 570 23.8747
81.6399 557 23.6008
81.7573 561 23.6854
81.8747 513 22.6495
81.9922 528 22.9783
82.1096 481 21.9317
82.227 506 22.4944
82.3444 523 22.8692
82.4619 497 22.2935
82.5793 547 23.388
82.6967 538 23.1948
82.8142 529 23
82.9316 567 23.8118
83.049 583 24.1454
83.1664 587 24.2281
83.2838 550 23.4521
83.4012 660 25.6905
83.5186 571 23.8956
83.636 598 24.454
83.7534 557 23.6008
83.8708 566 23.7908
83.9881 575 23.9792
84.1055 620 24.8998
84.2228 630 25.0998
84.3401 533 23.0868
84.4575 524 22.891
84.5747 598 24.454
84.692 533 23.0868
84.8093 572 23.9165
84.9265 574 23.9583
85.0437 510 22.5832
85.1609 599 24.4745
85.2781 569 23.8537
85.3952 545 23.3452
85.5123 532 23.0651
85.6294 520 22.8035
85.7465 563 23.7276
85.8636 536 23.1517
85.9806 555 23.5584
86.0976 562 23.7065
86.2145 554 23.5372
86.3315 570 23.8747
86.4484 569 23.8537
86.5652 638 25.2587
86.682 630 25.0998
86.7988 644 25.3772
86.9156 594 24.3721
87.0323 595 24.3926
87.149 560 23.6643
87.2657 602 24.5357
87.3823 557 23.6008
87.4988 613 24.7588
87.6154 568 23.8328
87.7318 534 23.1084
87.8483 492 22.1811
87.9647 472 21.7256
88.081 488 22.0907
88.1973 423 20.567
88.3136 411 20.2731
88.4298 392 19.799
88.546 350 18.7083
88.6621 304 17.4356
88.7781 328 18.1108
88.8942 0 1
89.0101 0 1
89.126 0 1
89.2419 0 1
89.3577 0 1
89.4734 0 1
89.5891 0 1
89.7047 0 1
89.8203 0 1
89.9358 0 1
92.3269 0 1
92.4424 0 1
92.558 0 1
92.6736 0 1
92.7893 0 1
92.905 0 1
93.0208 0 1
93.1366 0 1
93.2525 0 1
93.3685 0 1
93.4845 0 1
93.6005 486 22.0454
93.7167 541 23.2594
93.8328 568 23.8328
93.949 530 23.0217
94.0653 601 24.5153
94.1816 589 24.2693
94.2979 512 22.6274
94.4143 562 23.7065
94.5307 568 23.8328
94.6472 594 24.3721
94.7637 551 23.4734
94.8803 623 24.96
94.9969 589 24.2693
95.1135 563 23.7276
95.2302 647 25.4362
95.3469 572 23.9165
95.4637 638 25.2587
95.5805 568 23.8328
95.6973 591 24.3105
95.8142 589 24.2693
95.9311 588 24.2487
96.048 649 25.4755
96.1649 613 24.7588
96.2819 638 25.2587
96.3989 633 25.1595
96.516 623 24.96
96.633 577 24.0208
96.7501 643 25.3574
96.8673 620 24.8998
96.9844 610 24.6982
97.1016 609 24.6779
97.2188 608 24.6577
97.336 590 24.2899
97.4532 576 24
97.5704 564 23.7487
97.6877 532 23.0651
97.805 585 24.1868
97.9223 533 23.0868
98.0396 546 23.3666
98.1569 536 23.1517
98.2743 593 24.3516
98.3916 590 24.2899
98.509 594 24.3721
98.6264 625 25
98.7438 568 23.8328
98.8612 568 23.8328
98.9786 586 24.2074
99.096 620 24.8998
99.2134 624 24.98
99.3308 610 24.6982
99.4482 624 24.98
99.5656 649 25.4755
99.6831 671 25.9037
99.8005 645 25.3969
99.9179 634 25.1794
100.035 636 25.219
100.153 639 25.2784
100.27 671 25.9037
100.388 647 25.4362
100.505 657 25.632
100.622 653 25.5539
100.74 634 25.1794
100.857 588 24.2487
100.975 560 23.6643
101.092 617 24.8395
101.209 587 24.2281
101.327 610 24.6982
101.444 589 24.2693
101.561 587 24.2281
101.679 608 24.6577
101.796 614 24.779
101.913 628 25.0599
102.03 660 25.6905
102.148 680 26.0768
102.265 642 25.3377
102.382 652 25.5343
102.499 578 24.0416
102.616 619 24.8797
102.733 647 25.4362
102.851 687 26.2107
102.968 642 25.3377
103.085 666 25.807
103.202 652 25.5343
103.319 697 26.4008
103.436 676 26
103.552 630 25.0998
103.669 654 25.5734
103.786 668 25.8457
103.903 653 25.5539
104.02 648 25.4558
104.137 684 26.1534
104.253 662 25.7294
104.37 691 26.2869
104.487 640 25.2982
104.603 600 24.4949
104.72 580 24.0832
104.836 605 24.5967
104.953 568 23.8328
105.069 606 24.6171
105.186 560 23.6643
105.302 513 22.6495
105.418 492 22.1811
105.535 470 21.6795
105.651 463 21.5174
105.767 432 20.7846
105.883 355 18.8414
105.999 334 18.2757
106.115 0 1
106.231 0 1
106.347 0 1
106.463 0 1
106.579 0 1
106.694 0 1
106.81 0 1
106.926 0 1
107.041 0 1
107.157 0 1
109.576 0 1
109.692 0 1
109.807 0 1
109.923 0 1
110.039 0 1
110.155 0 1
110.27 0 1
110.386 0 1
110.502 0 1
110.618 367 19.1572
110.735 439 20.9523
110.851 443 21.0476
110.967 499 22.3383
111.083 498 22.3159
111.199 527 22.9565
111.316 532 23.0651
111.432 548 23.4094
111.549 683 26.1343
111.665 562 23.7065
111.782 600 24.4949
111.898 565 23.7697
112.015 599 24.4745
112.132 551 23.4734
112.248 606 24.6171
112.365 557 23.6008
112.482 575 23.9792
112.599 593 24.3516
112.716 600 24.4949
112.832 612 24.7386
112.949 571 23.8956
113.066 511 22.6053
113.183 542 23.2809
113.3 557 23.6008
113.417 521 22.8254
113.534 555 23.5584
113.652 489 22.1133
113.769 508 22.5389
113.886 536 23.1517
114.003 521 22.8254
114.12 583 24.1454
114.238 577 24.0208
114.355 575 23.9792
114.472 564 23.7487
114.589 549 23.4307
114.707 571 23.8956
114.824 541 23.2594
114.942 569 23.8537
115.059 587 24.2281
115.176 597 24.4336
115.294 544 23.3238
115.411 520 22.8035
115.529 525 22.9129
115.646 517 22.7376
115.764 550 23.4521
115.881 552 23.4947
115.999 574 23.9583
116.116 555 23.5584
116.234 544 23.3238
116.351 498 22.3159
116.469 515 22.6936
116.586 539 23.2164
116.704 546 23.3666
116.821 496 22.2711
116.939 525 22.9129
117.056 445 21.095
117.174 511 22.6053
117.291 450 21.2132
117.409 525 22.9129
117.526 473 21.7486
117.644 494 22.2261
117.761 516 22.7156
117.879 511 22.6053
117.996 505 22.4722
118.114 512 22.6274
118.231 555 23.5584
118.349 491 22.1585
118.466 506 22.4944
118.584 546 23.3666
118.701 524 22.891
118.819 500 22.3607
118.936 505 22.4722
119.053 468 21.6333
119.171 499 22.3383
119.288 494 22.2261
119.405 521 22.8254
119.523 506 22.4944
119.64 485 22.0227
119.757 562 23.7065
119.875 478 21.8632
119.992 524 22.891
120.109 486 22.0454
120.226 486 22.0454
120.343 457 21.3776
120.46 491 22.1585
120.578 459 21.4243
120.695 467 21.6102
120.812 454 21.3073
120.929 412 20.2978
121.046 406 20.1494
121.163 443 21.0476
121.279 447 21.1424
121.396 472 21.7256
121.513 473 21.7486
121.63 462 21.4942
121.747 466 21.587
121.863 408 20.199
121.98 391 19.7737
122.097 442 21.0238
122.213 423 20.567
122.33 438 20.9284
122.446 405 20.1246
122.563 324 18
122.679 318 17.8326
122.795 279 16.7033
122.912 309 17.5784
123.028 294 17.1464
123.144 298 17.2627
123.26 267 16.3401
123.377 0 1
123.493 0 1
123.609 0 1
123.725 0 1
123.84 0 1
123.956 0 1
124.072 0 1
124.188 0 1
124.303 0 1
124.419 0 1
126.852 0 1
126.968 0 1
127.083 0 1
127.199 0 1
127.315 0 1
127.431 0 1
127.547 0 1
127.663 0 1
127.779 0 1
127.895 0 1
128.011 0 1
128.127 0 1
128.243 0 1
128.359 532 23.0651
128.476 538 23.1948
128.592 565 23.7697
128.708 586 24.2074
128.825 598 24.454
128.941 574 23.9583
129.058 569 23.8537
129.174 522 22.8473
129.291 544 23.3238
129.408 571 23.8956
129.524 565 23.7697
129.641 589 24.2693
129.758 546 23.3666
129.875 506 22.4944
129.992 480 21.9089
130.108 464 21.5407
130.225 535 23.1301
130.342 542 23.2809
130.459 585 24.1868
130.576 638 25.2587
130.693 653 25.5539
130.81 626 25.02
130.928 633 25.1595
131.045 658 25.6515
131.162 714 26.7208
131.279 704 26.533
131.396 751 27.4044
131.513 744 27.2764
131.631 800 28.2843
131.748 710 26.6458
131.865 739 27.1846
131.983 844 29.0517
132.1 917 30.282
132.217 945 30.7409
132.335 1057 32.5115
132.452 1028 32.0624
132.57 1012 31.8119
132.687 1109 33.3017
132.804 1193 34.5398
132.922 1184 34.4093
133.039 1192 34.5254
133.157 1263 35.5387
133.274 1157 34.0147
133.392 1157 34.0147
133.509 1147 33.8674
133.627 1157 34.0147
133.744 1068 32.6803
133.862 1174 34.2637
133.979 1237 35.171
134.097 1141 33.7787
134.214 1172 34.2345
134.332 1261 35.5106
134.449 1216 34.8712
134.567 1144 33.8231
134.684 1109 33.3017
134.802 1108 33.2866
134.919 1142 33.7935
135.037 1111 33.3317
135.154 1052 32.4345
135.272 979 31.289
135.389 967 31.0966
135.507 1044 32.311
135.624 1091 33.0303
135.742 1132 33.6452
135.859 1091 33.0303
135.977 1137 33.7194
136.094 1153 33.9559
136.211 1134 33.6749
136.329 1075 32.7872
136.446 1158 34.0294
136.564 1121 33.4813
136.681 1089 33
136.798 1087 32.9697
136.915 1037 32.2025
137.033 1024 32
137.15 1027 32.0468
137.267 962 31.0161
137.384 1024 32
137.502 928 30.4631
137.619 1048 32.3728
137.736 1053 32.45
137.853 1047 32.3574
137.97 1052 32.4345
138.087 1082 32.8938
138.204 1095 33.0908
138.321 1038 32.218
138.438 995 31.5436
138.555 1042 32.28
138.672 1070 32.7109
138.788 992 31.496
138.905 970 31.1448
139.022 917 30.282
139.139 991 31.4802
139.255 1030 32.0936
139.372 974 31.209
139.488 938 30.6268
139.605 949 30.8058
139.721 813 28.5132
139.838 786 28.0357
139.954 700 26.4575
140.071 700 26.4575
140.187 658 25.6515
140.303 618 24.8596
140.419 593 24.3516
140.535 588 24.2487
140.652 530 23.0217
140.768 0 1
140.884 0 1
141 0 1
141.115 0 1
141.231 0 1
141.347 0 1
141.463 0 1
141.578 0 1
141.694 0 1
144.104 0 1
144.219 0 1
144.335 0 1
144.45 0 1
144.566 0 1
144.682 0 1
144.798 0 1
144.914 0 1
145.03 0 1
145.146 1092 33.0454
145.262 1079 32.8481
145.378 1143 33.8083
145.494 1147 33.8674
145.61 1094 33.0757
145.726 1113 33.3617
145.842 1231 35.0856
145.959 1134 33.6749
146.075 1194 34.5543
146.192 1176 34.2929
146.308 1127 33.5708
146.425 1250 35.3553
146.541 1305 36.1248
146.658 1332 36.4966
146.774 1364 36.9324
146.891 1399 37.4032
147.008 1354 36.7967
147.125 1347 36.7015
147.241 1416 37.6298
147.358 1420 37.6829
147.475 1399 37.4032
147.592 1271 35.6511
147.709 1286 35.8608
147.826 1354 36.7967
147.943 1331 36.4829
148.06 1386 37.229
148.177 1496 38.6782
148.294 1403 37.4566
148.411 1509 38.8458
148.528 1477 38.4318
148.645 1495 38.6652
148.762 1528 39.0896
148.88 1480 38.4708
148.997 1491 38.6135
149.114 1484 38.5227
149.231 1492 38.6264
149.349 1451 38.092
149.466 1533 39.1535
149.583 1493 38.6394
149.701 1421 37.6962
149.818 1449 38.0657
149.935 1455 38.1445
150.053 1437 37.9078
150.17 1456 38.1576
150.287 1459 38.1969
150.405 1483 38.5097
150.522 1448 38.0526
150.64 1481 38.4838
150.757 1375 37.081
150.875 1450 38.0789
150.992 1402 37.4433
151.11 1304 36.1109
151.227 1344 36.6606
151.344 1278 35.7491
151.462 1259 35.4824
151.579 1313 36.2353
151.697 1348 36.7151
151.814 1376 37.0945
151.932 1444 38
152.049 1425 37.7492
152.167 1527 39.0768
152.284 1396 37.3631
152.402 1453 38.1182
152.519 1372 37.0405
152.636 1431 37.8286
152.754 1423 37.7227
152.871 1404 37.47
152.989 1376 37.0945
153.106 1428 37.7889
153.223 1409 37.5366
153.341 1317 36.2905
153.458 1333 36.5103
153.575 1231 35.0856
153.693 1291 35.9305
153.81 1360 36.8782
153.927 1353 36.7831
154.044 1233 35.1141
154.162 1243 35.2562
154.279 1229 35.0571
154.396 1266 35.5809
154.513 1270 35.6371
154.63 1221 34.9428
154.747 1150 33.9116
154.864 1055 32.4808
154.981 1038 32.218
155.098 1061 32.573
155.215 1102 33.1964
155.332 1085 32.9393
155.449 1208 34.7563
155.566 1226 35.0143
155.683 1199 34.6266
155.8 1214 34.8425
155.917 1110 33.3167
156.033 1192 34.5254
156.15 0 1
156.267 0 1
156.383 0 1
156.5 0 1
156.617 0 1
156.733 0 1
156.85 0 1
156.966 0 1
157.082 0 1
157.199 0 1
157.315 0 1
157.431 0 1
157.547 0 1
157.664 0 1
157.78 0 1
157.896 0 1
158.012 0 1
158.128 0 1
158.244 0 1
158.359 0 1
158.475 0 1
158.591 0 1
158.706 0 1
