
6.15755 0 1
6.2731 0 1
6.3887 0 1
6.50437 0 1
6.62009 0 1
6.73587 0 1
6.8517 0 1
6.96759 0 1
7.08353 0 1
7.19952 0 1
7.31557 0 1
7.43166 0 1
7.54781 0 1
7.664 0 1
7.78024 0 1
7.89653 0 1
8.01286 0 1
8.12924 0 1
8.24567 0 1
8.36213 0 1
8.47864 0 1
8.59519 0 1
8.71178 0 1
8.82841 0 1
8.94508 0 1
9.06179 0 1
9.17853 0 1
9.29531 0 1
9.41212 0 1
9.52897 0 1
9.64584 0 1
9.76276 0 1
9.8797 0 1
9.99667 0 1
10.1137 0 1
10.2307 0 1
10.3478 0 1
10.4648 0 1
10.5819 0 1
10.6991 0 1
10.8162 0 1
10.9334 0 1
11.0506 0 1
11.1678 0 1
11.285 0 1
11.4023 0 1
11.5196 0 1
11.6369 0 1
11.7542 0 1
11.8715 0 1
11.9888 0 1
12.1062 0 1
12.2235 0 1
12.3409 0 1
12.4582 0 1
12.5756 0 1
12.693 0 1
12.8104 0 1
12.9278 0 1
13.0452 0 1
13.1626 0 1
13.28 0 1
13.3974 0 1
13.5149 0 1
13.6323 0 1
13.7497 0 1
13.8671 0 1
13.9845 0 1
14.1019 0 1
14.2193 0 1
14.3367 0 1
14.4541 0 1
14.5714 0 1
14.6888 0 1
14.8062 0 1
14.9235 0 1
15.0408 9705 98.514
15.1581 9718 98.5799
15.2755 9918 99.5892
15.3927 9846 99.227
15.51 9870 99.3479
15.6273 9674 98.3565
15.7445 9284 96.3535
15.8617 9288 96.3743
15.9789 9647 98.2191
16.0961 10018 100.09
16.2132 10497 102.455
16.3304 10880 104.307
16.4475 11250 106.066
16.5646 11355 106.56
16.6816 11425 106.888
16.7986 11278 106.198
16.9156 11022 104.986
17.0326 11242 106.028
17.1496 10907 104.437
17.2665 11114 105.423
17.3833 10996 104.862
17.5002 11008 104.919
17.617 11399 106.766
17.7338 11317 106.381
17.8505 11618 107.787
17.9672 11857 108.89
18.0839 12066 109.845
18.2005 12127 110.123
18.3171 12542 111.991
18.4337 12685 112.628
18.5502 13008 114.053
18.6666 13033 114.162
18.7831 12947 113.785
18.8994 12821 113.23
19.0158 12612 112.303
19.1321 12075 109.886
19.2483 11836 108.793
19.3645 11538 107.415
19.4806 11900 109.087
19.5967 12191 110.413
19.7128 12356 111.158
19.8288 12894 113.552
19.9447 11745 108.374
20.0606 0 1
20.1764 0 1
20.2922 0 1
20.4079 0 1
20.5236 0 1
20.6392 0 1
20.7548 0 1
20.8702 0 1
23.3078 0 1
23.4233 0 1
23.539 0 1
23.6547 0 1
23.7704 0 1
23.8862 0 1
24.0021 0 1
24.118 0 1
24.234 0 1
24.35 0 1
24.4661 12040 109.727
24.5822 12225 110.567
24.6984 12297 110.892
24.8146 12764 112.978
24.9309 13173 114.774
25.0472 13661 116.88
25.1636 13832 117.61
25.28 13869 117.767
25.3965 13895 117.877
25.513 13883 117.826
25.6296 13731 117.179
25.7462 13651 116.837
25.8628 13231 115.026
25.9795 13396 115.741
26.0962 13328 115.447
26.213 13483 116.116
26.3298 13816 117.541
26.4466 13838 117.635
26.5635 14721 121.33
26.6804 14835 121.799
26.7973 15259 123.527
26.9143 15336 123.839
27.0313 15635 125.04
27.1483 15440 124.258
27.2653 15816 125.762
27.3824 15723 125.391
27.4996 15570 124.78
27.6167 15441 124.262
27.7339 14963 122.323
27.8511 14348 119.783
27.9683 13964 118.169
28.0855 13392 115.724
28.2028 13186 114.83
28.3201 13139 114.625
28.4374 13867 117.758
28.5547 14478 120.325
28.6721 14621 120.917
28.7894 15155 123.106
28.9068 14745 121.429
29.0242 14152 118.962
29.1416 14026 118.431
29.259 13797 117.461
29.3764 13417 115.832
29.4939 13165 114.739
29.6113 13153 114.687
29.7288 13417 115.832
29.8463 13638 116.782
29.9638 14100 118.743
30.0812 14438 120.158
30.1987 14929 122.184
30.3162 15181 123.211
30.4337 15654 125.116
30.5512 15691 125.264
30.6687 16010 126.531
30.7862 16267 127.542
30.9037 16254 127.491
31.0212 16196 127.264
31.1387 15934 126.23
31.2562 15441 124.262
31.3737 15048 122.67
31.4912 14730 121.367
31.6087 14334 119.725
31.7262 13916 117.966
31.8436 13861 117.733
31.9611 14133 118.882
32.0785 14902 122.074
32.1959 15074 122.776
32.3134 15512 124.547
32.4308 15475 124.399
32.5482 15456 124.322
32.6655 14932 122.197
32.7829 14569 120.702
32.9002 14222 119.256
33.0176 13877 117.801
33.1349 13866 117.754
33.2522 13999 118.317
33.3694 13992 118.288
33.4867 14422 120.092
33.6039 14597 120.818
33.7211 15441 124.262
33.8383 15595 124.88
33.9554 16391 128.027
34.0725 16140 127.043
34.1896 16318 127.742
34.3067 16493 128.425
34.4237 16660 129.074
34.5407 16801 129.619
34.6577 16419 128.137
34.7746 16590 128.802
34.8915 15937 126.242
35.0084 15783 125.63
35.1252 15339 123.851
35.242 14954 122.287
35.3587 14477 120.32
35.4755 14380 119.917
35.5921 14359 119.829
35.7088 14612 120.88
35.8254 15539 124.656
35.9419 15519 124.575
36.0584 15989 126.448
36.1749 16027 126.598
36.2913 15745 125.479
36.4077 15278 123.604
36.524 14689 121.198
36.6403 14206 119.189
36.7565 13919 117.979
36.8727 13660 116.876
36.9889 13886 117.839
37.1049 14136 118.895
37.221 0 1
37.3369 0 1
37.4529 0 1
37.5687 0 1
37.6845 0 1
37.8003 0 1
37.916 0 1
38.0316 0 1
38.1472 0 1
40.5851 0 1
40.7008 0 1
40.8164 0 1
40.9322 0 1
41.048 0 1
41.1639 0 1
41.2798 0 1
41.3958 0 1
41.5118 0 1
41.6279 0 1
41.744 11677 108.06
41.8602 12004 109.563
41.9765 12136 110.164
42.0928 12242 110.644
42.2091 12274 110.788
42.3255 12824 113.243
42.4419 13467 116.047
42.5584 13837 117.631
42.675 14444 120.183
42.7915 14528 120.532
42.9081 15346 123.879
43.0248 15007 122.503
43.1415 15064 122.735
43.2582 15470 124.378
43.375 15473 124.391
43.4918 15338 123.847
43.6087 15226 123.394
43.7256 14565 120.686
43.8425 14227 119.277
43.9595 13921 117.987
44.0765 13818 117.55
44.1935 12901 113.583
44.3106 12461 111.629
44.4277 12843 113.327
44.5448 13036 114.175
44.6619 13007 114.048
44.7791 13212 114.943
44.8963 13415 115.823
45.0136 13018 114.096
45.1308 12458 111.615
45.2481 11838 108.803
45.3654 11166 105.669
45.4827 10764 103.75
45.6001 10714 103.508
45.7174 10541 102.669
45.8348 10683 103.359
45.9522 11304 106.32
46.0697 11586 107.638
46.1871 11950 109.316
46.3046 12287 110.847
46.422 12916 113.649
46.5395 13012 114.07
46.657 13033 114.162
46.7745 13139 114.625
46.892 13357 115.572
47.0096 13057 114.267
47.1271 13101 114.46
47.2446 12943 113.767
47.3622 12282 110.824
47.4797 12137 110.168
47.5973 11520 107.331
47.7149 11141 105.551
47.8324 10788 103.865
47.95 10699 103.436
48.0675 10534 102.635
48.1851 11196 105.811
48.3027 11260 106.113
48.4202 11126 105.48
48.5378 11017 104.962
48.6554 10360 101.784
48.7729 10281 101.395
48.8904 9323 96.5557
49.008 9049 95.1262
49.1255 8933 94.5145
49.243 8735 93.4612
49.3605 9239 96.1197
49.478 9602 97.9898
49.5955 10219 101.089
49.713 10513 102.533
49.8304 10858 104.202
49.9479 11584 107.629
50.0653 11769 108.485
50.1827 11993 109.513
50.3001 12400 111.355
50.4175 12319 110.991
50.5348 12638 112.419
50.6521 12658 112.508
50.7694 12674 112.579
50.8867 12290 110.86
51.004 12313 110.964
51.1212 12508 111.839
51.2384 12056 109.8
51.3556 11967 109.394
51.4727 12109 110.041
51.5899 12652 112.481
51.707 13087 114.398
51.824 13647 116.82
51.9411 13921 117.987
52.0581 14009 118.36
52.175 13697 117.034
52.2919 13211 114.939
52.4088 12676 112.588
52.5257 12227 110.576
52.6425 12031 109.686
52.7593 12091 109.959
52.876 12386 111.292
52.9927 13130 114.586
53.1094 14129 118.865
53.226 15084 122.817
53.3426 15951 126.297
53.4591 16715 129.287
53.5756 17616 132.725
53.692 17786 133.364
53.8084 18252 135.1
53.9248 18412 135.691
54.0411 18809 137.146
54.1573 18808 137.142
54.2735 0 1
54.3896 0 1
54.5057 0 1
54.6217 0 1
54.7377 0 1
54.8537 0 1
54.9695 0 1
55.0853 0 1
55.2011 0 1
55.3168 0 1
55.4324 0 1
57.824 0 1
57.9396 0 1
58.0553 0 1
58.1711 0 1
58.2869 0 1
58.4028 0 1
58.5187 0 1
58.6347 0 1
58.7508 0 1
58.8669 0 1
58.983 21237 145.729
59.0992 22632 150.439
59.2155 22779 150.927
59.3318 22954 151.506
59.4482 22430 149.766
59.5646 22545 150.15
59.681 22431 149.77
59.7975 22005 148.341
59.9141 21363 146.161
60.0306 21052 145.093
60.1473 20937 144.696
60.2639 21085 145.207
60.3807 20997 144.903
60.4974 21020 144.983
60.6142 20982 144.852
60.731 20311 142.517
60.8479 19352 139.111
60.9648 18420 135.72
61.0818 17294 131.507
61.1987 16740 129.383
61.3158 16258 127.507
61.4328 16501 128.456
61.5499 17116 130.828
61.667 17939 133.937
61.7841 18871 137.372
61.9013 19444 139.442
62.0185 20582 143.464
62.1357 21329 146.045
62.253 21878 147.912
62.3702 21926 148.074
62.4875 22340 149.466
62.6049 22665 150.549
62.7222 21891 147.956
62.8396 22067 148.55
62.9569 22006 148.344
63.0743 21777 147.57
63.1918 21050 145.086
63.3092 20992 144.886
63.4267 20485 143.126
63.5441 20251 142.306
63.6616 20042 141.57
63.7791 20129 141.877
63.8966 20206 142.148
64.0142 20377 142.748
64.1317 20568 143.415
64.2492 19828 140.812
64.3668 19170 138.456
64.4843 17893 133.765
64.6019 16825 129.711
64.7195 16100 126.886
64.837 15372 123.984
64.9546 15623 124.992
65.0722 15603 124.912
65.1898 16623 128.93
65.3074 17947 133.966
65.4249 18408 135.676
65.5425 19628 140.1
65.6601 20490 143.143
65.7777 20867 144.454
65.8952 21964 148.203
66.0128 22036 148.445
66.1304 22371 149.569
66.2479 22212 149.037
66.3655 21988 148.284
66.483 22226 149.084
66.6005 22119 148.725
66.718 21996 148.31
66.8355 21969 148.219
66.953 21360 146.151
67.0705 20998 144.907
67.1879 20972 144.817
67.3054 20789 144.184
67.4228 21050 145.086
67.5402 21689 147.272
67.6576 21938 148.115
67.7749 21338 146.075
67.8923 21405 146.304
68.0096 20307 142.503
68.1269 18801 137.117
68.2442 17817 133.48
68.3614 16600 128.841
68.4787 16433 128.191
68.5958 16220 127.358
68.713 17303 131.541
68.8302 17895 133.772
68.9473 19322 139.004
69.0643 21197 145.592
69.1814 21963 148.199
69.2984 23766 154.162
69.4154 24569 156.745
69.5323 25220 158.808
69.6492 25906 160.953
69.7661 26189 161.83
69.8829 26693 163.38
69.9997 26733 163.502
70.1165 26813 163.747
70.2332 26755 163.57
70.3499 26709 163.429
70.4665 26763 163.594
70.5831 26406 162.499
70.6996 25843 160.758
70.8161 25151 158.591
70.9326 25146 158.575
71.049 25595 159.984
71.1653 25409 159.402
71.2817 25670 160.219
71.3979 25747 160.459
71.5141 25156 158.606
71.6303 22828 151.089
71.7464 19737 140.488
71.8624 0 1
71.9784 0 1
72.0944 0 1
72.2102 0 1
72.3261 0 1
72.4418 0 1
72.5575 0 1
72.6732 0 1
75.1054 0 1
75.2209 0 1
75.3365 0 1
75.4521 0 1
75.5678 0 1
75.6835 0 1
75.7993 0 1
75.9151 0 1
76.031 0 1
76.147 25425 159.452
76.263 27258 165.1
76.3791 27692 166.409
76.4952 29277 171.105
76.6113 29773 172.549
76.7276 30124 173.563
76.8438 29167 170.783
76.9601 27645 166.268
77.0765 25569 159.903
77.1929 23421 153.039
77.3093 21498 146.622
77.4258 20324 142.562
77.5423 20110 141.81
77.6589 20276 142.394
77.7755 21860 147.851
77.8921 24013 154.961
78.0088 26265 162.065
78.1256 28466 168.719
78.2423 29875 172.844
78.3591 31337 177.023
78.4759 31942 178.723
78.5928 32506 180.294
78.7097 32577 180.491
78.8266 32040 178.997
78.9436 34541 185.852
79.0606 32788 181.075
79.1776 32260 179.611
79.2946 31988 178.852
79.4117 32086 179.126
79.5288 31061 176.241
79.6459 31084 176.307
79.7631 30136 173.597
79.8802 29535 171.857
79.9974 29544 171.884
80.1147 30342 174.19
80.2319 30869 175.696
80.3491 31569 177.677
80.4664 31577 177.699
80.5837 29525 171.828
80.701 27837 166.844
80.8183 25165 158.635
80.9357 22521 150.07
81.053 20805 144.239
81.1704 19884 141.011
81.2877 19965 141.298
81.4051 20837 144.35
81.5225 22521 150.07
81.6399 25452 159.537
81.7573 27764 166.625
81.8747 29166 170.781
81.9922 30985 176.026
82.1096 31805 178.34
82.227 32071 179.084
82.3444 32206 179.46
82.4619 32263 179.619
82.5793 32865 181.287
82.6967 32015 178.927
82.8142 32053 179.034
82.9316 31214 176.675
83.049 31112 176.386
83.1664 30400 174.356
83.2838 29973 173.127
83.4012 29437 171.572
83.5186 29163 170.772
83.636 28716 169.458
83.7534 28638 169.228
83.8708 29739 172.45
83.9881 30211 173.813
84.1055 29696 172.325
84.2228 28514 168.861
84.3401 26470 162.696
84.4575 24524 156.601
84.5747 21910 148.02
84.692 20256 142.324
84.8093 19457 139.488
84.9265 19823 140.794
85.0437 20982 144.852
85.1609 23194 152.296
85.2781 26120 161.617
85.3952 28395 168.508
85.5123 30581 174.874
85.6294 32818 181.157
85.7465 34564 185.914
85.8636 35445 188.268
85.9806 36029 189.813
86.0976 36236 190.358
86.2145 36896 192.083
86.3315 38359 195.855
86.4484 36041 189.845
86.5652 37600 193.907
86.682 37655 194.049
86.7988 37516 193.69
86.9156 37516 193.69
87.0323 37575 193.843
87.149 36902 192.099
87.2657 37394 193.375
87.3823 38121 195.246
87.4988 39009 197.507
87.6154 39844 199.61
87.7318 39357 198.386
87.8483 37062 192.515
87.9647 34447 185.599
88.081 31574 177.691
88.1973 28870 169.912
88.3136 26978 164.25
88.4298 26384 162.432
88.546 27139 164.739
88.6621 29342 171.295
88.7781 32243 179.563
88.8942 0 1
89.0101 0 1
89.126 0 1
89.2419 0 1
89.3577 0 1
89.4734 0 1
89.5891 0 1
89.7047 0 1
89.8203 0 1
89.9358 0 1
92.3269 0 1
92.4424 0 1
92.558 0 1
92.6736 0 1
92.7893 0 1
92.905 0 1
93.0208 0 1
93.1366 0 1
93.2525 0 1
93.3685 0 1
93.4845 0 1
93.6005 30161 173.669
93.7167 29364 171.359
93.8328 29418 171.517
93.949 30468 174.551
94.0653 32826 181.179
94.1816 35685 188.905
94.2979 39234 198.076
94.4143 41859 204.595
94.5307 44614 211.22
94.6472 46828 216.398
94.7637 48230 219.613
94.8803 48198 219.54
94.9969 49119 221.628
95.1135 49367 222.187
95.2302 50005 223.618
95.3469 49431 222.331
95.4637 49346 222.14
95.5805 49225 221.867
95.6973 49509 222.506
95.8142 48851 221.023
95.9311 49095 221.574
96.048 48120 219.363
96.1649 47460 217.853
96.2819 47210 217.279
96.3989 47199 217.253
96.516 47916 218.897
96.633 48274 219.713
96.7501 48102 219.322
96.8673 46994 216.781
96.9844 43742 209.146
97.1016 40244 200.609
97.2188 37185 192.834
97.336 34664 186.183
97.4532 31757 178.205
97.5704 30767 175.405
97.6877 31325 176.989
97.805 33682 183.527
97.9223 36947 192.216
98.0396 40046 200.115
98.1569 43343 208.19
98.2743 45869 214.17
98.3916 48694 220.667
98.509 49809 223.179
98.6264 51193 226.259
98.7438 51328 226.557
98.8612 51465 226.859
98.9786 52089 228.23
99.096 51323 226.546
99.2134 50402 224.504
99.3308 51080 226.009
99.4482 51107 226.069
99.5656 50716 225.202
99.6831 50554 224.842
99.8005 49105 221.596
99.9179 48868 221.061
100.035 48912 221.161
100.153 49946 223.486
100.27 51149 226.161
100.388 50446 224.602
100.505 48311 219.798
100.622 45322 212.89
100.74 41960 204.841
100.857 37951 194.81
100.975 35167 187.529
101.092 32882 181.334
101.209 32395 179.986
101.327 33185 182.168
101.444 35924 189.536
101.561 40032 200.08
101.679 43501 208.569
101.796 47205 217.267
101.913 49793 223.143
102.03 51846 227.697
102.148 52838 229.865
102.265 51815 227.629
102.382 54924 234.359
102.499 53665 231.657
102.616 53846 232.047
102.733 52519 229.17
102.851 52766 229.709
102.968 53283 230.831
103.085 53760 231.862
103.202 52753 229.68
103.319 51432 226.786
103.436 50776 225.335
103.552 50855 225.511
103.669 51715 227.409
103.786 53661 231.648
103.903 53246 230.751
104.02 51948 227.921
104.137 48795 220.896
104.253 44934 211.976
104.37 41823 204.507
104.487 37948 194.802
104.603 35918 189.52
104.72 34891 186.791
104.836 35668 188.86
104.953 38433 196.043
105.069 42306 205.684
105.186 46372 215.342
105.302 50131 223.9
105.418 53546 231.4
105.535 55659 235.922
105.651 56260 237.192
105.767 57224 239.215
105.883 57587 239.973
105.999 57283 239.339
106.115 0 1
106.231 0 1
106.347 0 1
106.463 0 1
106.579 0 1
106.694 0 1
106.81 0 1
106.926 0 1
107.041 0 1
107.157 0 1
109.576 0 1
109.692 0 1
109.807 0 1
109.923 0 1
110.039 0 1
110.155 0 1
110.27 0 1
110.386 0 1
110.502 0 1
110.618 49911 223.408
110.735 51443 226.81
110.851 52274 228.635
110.967 52778 229.735
111.083 52956 230.122
111.199 52449 229.017
111.316 52896 229.991
111.432 52899 229.998
111.549 52434 228.985
111.665 52037 228.116
111.782 50913 225.639
111.898 49101 221.587
112.015 49607 222.726
112.132 51245 226.374
112.248 51501 226.938
112.365 51334 226.57
112.482 48100 219.317
112.599 47317 217.525
112.716 43569 208.732
112.832 40436 201.087
112.949 36820 191.885
113.066 34109 184.686
113.183 33018 181.709
113.3 33507 183.049
113.417 34454 185.618
113.534 36987 192.32
113.652 40104 200.26
113.769 43054 207.495
113.886 46217 214.981
114.003 47432 217.789
114.12 48241 219.638
114.238 48986 221.328
114.355 49575 222.654
114.472 49306 222.05
114.589 49548 222.594
114.707 48150 219.431
114.824 48004 219.098
114.942 48660 220.59
115.059 49481 222.443
115.176 49127 221.646
115.294 48403 220.007
115.411 47100 217.025
115.529 46956 216.693
115.646 47537 218.03
115.764 48087 219.287
115.881 48617 220.493
115.999 48383 219.961
116.116 46636 215.954
116.234 43748 209.16
116.351 41225 203.039
116.469 38445 196.074
116.586 36085 189.961
116.704 33917 184.166
116.821 33040 181.769
116.939 32912 181.417
117.056 34431 185.556
117.174 36820 191.885
117.291 39663 199.156
117.409 43007 207.381
117.526 45087 212.337
117.644 46621 215.919
117.761 47083 216.986
117.879 48049 219.201
117.996 48031 219.16
118.114 48069 219.246
118.231 47890 218.838
118.349 46684 216.065
118.466 46333 215.251
118.584 47629 218.241
118.701 48235 219.625
118.819 47161 217.166
118.936 46141 214.805
119.053 45410 213.096
119.171 45108 212.386
119.288 45549 213.422
119.405 46323 215.228
119.523 46748 216.213
119.64 45826 214.07
119.757 44778 211.608
119.875 42958 207.263
119.992 40505 201.259
120.109 38183 195.405
120.226 35687 188.91
120.343 33258 182.368
120.46 32766 181.014
120.578 31879 178.547
120.695 32825 181.177
120.812 34159 184.822
120.929 36807 191.852
121.046 38846 197.094
121.163 41429 203.541
121.279 43191 207.824
121.396 44710 211.447
121.513 45055 212.262
121.63 46283 215.135
121.747 45751 213.895
121.863 45879 214.194
121.98 44927 211.96
122.097 44501 210.953
122.213 44218 210.281
122.33 44591 211.166
122.446 44923 211.95
122.563 44299 210.473
122.679 43803 209.292
122.795 42680 206.591
122.912 42395 205.9
123.028 42815 206.918
123.144 43056 207.499
123.26 42803 206.889
123.377 0 1
123.493 0 1
123.609 0 1
123.725 0 1
123.84 0 1
123.956 0 1
124.072 0 1
124.188 0 1
124.303 0 1
124.419 0 1
126.852 0 1
126.968 0 1
127.083 0 1
127.199 0 1
127.315 0 1
127.431 0 1
127.547 0 1
127.663 0 1
127.779 0 1
127.895 0 1
128.011 0 1
128.127 0 1
128.243 0 1
128.359 45634 213.621
128.476 45764 213.925
128.592 45659 213.68
128.708 44164 210.152
128.825 42517 206.197
128.941 40195 200.487
129.058 38507 196.232
129.174 36403 190.796
129.291 35206 187.633
129.408 35109 187.374
129.524 34779 186.491
129.641 35774 189.14
129.758 38122 195.249
129.875 40163 200.407
129.992 42152 205.31
130.108 43437 208.415
130.225 44356 210.609
130.342 45594 213.528
130.459 44262 210.385
130.576 46597 215.863
130.693 45243 212.704
130.81 44339 210.568
130.928 43501 208.569
131.045 44595 211.175
131.162 45613 213.572
131.279 45886 214.21
131.396 45707 213.792
131.513 44845 211.766
131.631 44631 211.261
131.748 44635 211.27
131.865 45996 214.467
131.983 45406 213.087
132.1 44733 211.502
132.217 44021 209.812
132.335 42506 206.17
132.452 41044 202.593
132.57 38678 196.667
132.687 36377 190.728
132.804 35465 188.322
132.922 34538 185.844
133.039 34323 185.265
133.157 34506 185.758
133.274 35985 189.697
133.392 37936 194.772
133.509 39717 199.291
133.627 40888 202.208
133.744 42071 205.112
133.862 43277 208.031
133.979 43232 207.923
134.097 43439 208.42
134.214 43224 207.904
134.332 43149 207.723
134.449 41991 204.917
134.567 41771 204.38
134.684 43011 207.391
134.802 43564 208.72
134.919 43426 208.389
135.037 43310 208.111
135.154 42475 206.095
135.272 42565 206.313
135.389 43252 207.971
135.507 43706 209.06
135.624 43097 207.598
135.742 42906 207.138
135.859 41991 204.917
135.977 40691 201.72
136.094 39308 198.262
136.211 37500 193.649
136.329 35352 188.021
136.446 34297 185.194
136.564 34131 184.746
136.681 33502 183.036
136.798 34115 184.702
136.915 35247 187.742
137.033 36524 191.113
137.15 38218 195.494
137.267 39621 199.05
137.384 40079 200.197
137.502 40768 201.911
137.619 40879 202.186
137.736 41124 202.791
137.853 40702 201.747
137.97 40744 201.851
138.087 39050 197.611
138.204 39559 198.894
138.321 40699 201.74
138.438 41055 202.62
138.555 41726 204.269
138.672 41694 204.191
138.788 41204 202.988
138.905 41050 202.608
139.022 41387 203.438
139.139 42062 205.09
139.255 42002 204.944
139.372 42216 205.465
139.488 41149 202.852
139.605 39727 199.316
139.721 38763 196.883
139.838 37239 192.974
139.954 35671 188.868
140.071 33970 184.31
140.187 33985 184.35
140.303 33171 182.129
140.419 33196 182.198
140.535 33531 183.115
140.652 33814 183.886
140.768 0 1
140.884 0 1
141 0 1
141.115 0 1
141.231 0 1
141.347 0 1
141.463 0 1
141.578 0 1
141.694 0 1
144.104 0 1
144.219 0 1
144.335 0 1
144.45 0 1
144.566 0 1
144.682 0 1
144.798 0 1
144.914 0 1
145.03 0 1
145.146 23780 154.208
145.262 25304 159.072
145.378 26197 161.855
145.494 26310 162.204
145.61 26984 164.268
145.726 27887 166.994
145.842 28701 169.414
145.959 29519 171.811
146.075 30164 173.678
146.192 30394 174.339
146.308 30682 175.163
146.425 30552 174.791
146.541 30843 175.622
146.658 29986 173.165
146.774 29746 172.47
146.891 29487 171.718
147.008 30042 173.326
147.125 30165 173.681
147.241 31311 176.949
147.358 31331 177.006
147.475 31441 177.316
147.592 30893 175.764
147.709 31722 178.107
147.826 31613 177.8
147.943 31837 178.429
148.06 32207 179.463
148.177 31600 177.764
148.294 31233 176.729
148.411 31050 176.21
148.528 30134 173.591
148.645 29256 171.044
148.762 28522 168.885
148.88 27884 166.985
148.997 27130 164.712
149.114 27820 166.793
149.231 27601 166.135
149.349 27403 165.539
149.466 28411 168.556
149.583 29058 170.464
149.701 29604 172.058
149.818 29985 173.162
149.935 30292 174.046
150.053 30864 175.682
150.17 31152 176.499
150.287 31153 176.502
150.405 30636 175.031
150.522 29852 172.777
150.64 29740 172.453
150.757 30334 174.167
150.875 30724 175.283
150.992 31176 176.567
151.11 32214 179.483
151.227 31548 177.618
151.344 32054 179.036
151.462 31692 178.022
151.579 32286 179.683
151.697 32658 180.715
151.814 31763 178.222
151.932 31843 178.446
152.049 31528 177.561
152.167 30425 174.428
152.284 30089 173.462
152.402 29278 171.108
152.519 28355 168.389
152.636 28264 168.119
152.754 28261 168.11
152.871 28224 168
152.989 28438 168.636
153.106 28746 169.546
153.223 29605 172.061
153.341 30164 173.678
153.458 30586 174.889
153.575 31354 177.071
153.693 31290 176.89
153.81 31278 176.856
153.927 31077 176.287
154.044 30769 175.411
154.162 30176 173.712
154.279 30052 173.355
154.396 30736 175.317
154.513 31836 178.426
154.63 32470 180.194
154.747 33166 182.115
154.864 33377 182.694
154.981 33297 182.475
155.098 33337 182.584
155.215 33567 183.213
155.332 33388 182.724
155.449 33445 182.88
155.566 32593 180.535
155.683 32336 179.822
155.8 31690 178.017
155.917 30970 175.983
156.033 30565 174.828
156.15 0 1
156.267 0 1
156.383 0 1
156.5 0 1
156.617 0 1
156.733 0 1
156.85 0 1
156.966 0 1
157.082 0 1
157.199 0 1
157.315 0 1
157.431 0 1
157.547 0 1
157.664 0 1
157.78 0 1
157.896 0 1
158.012 0 1
158.128 0 1
158.244 0 1
158.359 0 1
158.475 0 1
158.591 0 1
158.706 0 1
