
6.15755 0 1
6.2731 0 1
6.3887 0 1
6.50437 0 1
6.62009 0 1
6.73587 0 1
6.8517 0 1
6.96759 0 1
7.08353 0 1
7.19952 0 1
7.31557 0 1
7.43166 0 1
7.54781 0 1
7.664 0 1
7.78024 0 1
7.89653 0 1
8.01286 0 1
8.12924 0 1
8.24567 0 1
8.36213 0 1
8.47864 0 1
8.59519 0 1
8.71178 0 1
8.82841 0 1
8.94508 0 1
9.06179 0 1
9.17853 0 1
9.29531 0 1
9.41212 0 1
9.52897 0 1
9.64584 0 1
9.76276 0 1
9.8797 0 1
9.99667 0 1
10.1137 0 1
10.2307 0 1
10.3478 0 1
10.4648 0 1
10.5819 0 1
10.6991 0 1
10.8162 0 1
10.9334 0 1
11.0506 0 1
11.1678 0 1
11.285 0 1
11.4023 0 1
11.5196 0 1
11.6369 0 1
11.7542 0 1
11.8715 0 1
11.9888 0 1
12.1062 0 1
12.2235 0 1
12.3409 0 1
12.4582 0 1
12.5756 0 1
12.693 0 1
12.8104 0 1
12.9278 0 1
13.0452 0 1
13.1626 0 1
13.28 0 1
13.3974 0 1
13.5149 0 1
13.6323 0 1
13.7497 0 1
13.8671 0 1
13.9845 0 1
14.1019 0 1
14.2193 0 1
14.3367 0 1
14.4541 0 1
14.5714 0 1
14.6888 0 1
14.8062 0 1
14.9235 0 1
15.0408 0 0
15.1581 0 0
15.2755 0 0
15.3927 0 0
15.51 0 0
15.6273 0 0
15.7445 0 0
15.8617 0 0
15.9789 0 0
16.0961 0 0
16.2132 0 0
16.3304 0 0
16.4475 0 0
16.5646 0 0
16.6816 0 0
16.7986 0 0
16.9156 0 0
17.0326 0 0
17.1496 0 0
17.2665 0 0
17.3833 0 0
17.5002 0 0
17.617 0 0
17.7338 0 0
17.8505 0 0
17.9672 0 0
18.0839 0 0
18.2005 0 0
18.3171 0 0
18.4337 0 0
18.5502 0 0
18.6666 0 0
18.7831 0 0
18.8994 0 0
19.0158 0 0
19.1321 0 0
19.2483 0 0
19.3645 0 0
19.4806 0 0
19.5967 0 0
19.7128 0 0
19.8288 0 0
19.9447 0 0
20.0606 0 1
20.1764 0 1
20.2922 0 1
20.4079 0 1
20.5236 0 1
20.6392 0 1
20.7548 0 1
20.8702 0 1
23.3078 0 1
23.4233 0 1
23.539 0 1
23.6547 0 1
23.7704 0 1
23.8862 0 1
24.0021 0 1
24.118 0 1
24.234 0 1
24.35 0 1
24.4661 21464 146.506
24.5822 21005 144.931
24.6984 21130 145.362
24.8146 20754 144.062
24.9309 20434 142.948
25.0472 19859 140.922
25.1636 19914 141.117
25.28 20647 143.691
25.3965 21336 146.068
25.513 21653 147.15
25.6296 22616 150.386
25.7462 24014 154.965
25.8628 23671 153.854
25.9795 23523 153.372
26.0962 23827 154.36
26.213 24119 155.303
26.3298 22957 151.516
26.4466 22387 149.623
26.5635 21846 147.804
26.6804 20988 144.872
26.7973 21116 145.313
26.9143 22294 149.312
27.0313 22416 149.72
27.1483 23313 152.686
27.2653 23765 154.159
27.3824 23702 153.955
27.4996 23687 153.906
27.6167 23526 153.382
27.7339 23509 153.326
27.8511 22870 151.228
27.9683 22466 149.887
28.0855 22179 148.926
28.2028 21460 146.492
28.3201 21308 145.973
28.4374 20666 143.757
28.5547 19954 141.259
28.6721 19353 139.115
28.7894 19829 140.815
28.9068 20150 141.951
29.0242 20317 142.538
29.1416 21159 145.461
29.259 22039 148.455
29.3764 22376 149.586
29.4939 22911 151.364
29.6113 22316 149.385
29.7288 22370 149.566
29.8463 21631 147.075
29.9638 21126 145.348
30.0812 20509 143.21
30.1987 19862 140.933
30.3162 19893 141.043
30.4337 20685 143.823
30.5512 21193 145.578
30.6687 22227 149.087
30.7862 22092 148.634
30.9037 23144 152.132
31.0212 23183 152.26
31.1387 23246 152.466
31.2562 22898 151.321
31.3737 22589 150.296
31.4912 22151 148.832
31.6087 22026 148.412
31.7262 21468 146.52
31.8436 20928 144.665
31.9611 20593 143.503
32.0785 19683 140.296
32.1959 19474 139.549
32.3134 19409 139.316
32.4308 19925 141.156
32.5482 20144 141.93
32.6655 20713 143.92
32.7829 21459 146.489
32.9002 22219 149.06
33.0176 22034 148.439
33.1349 22092 148.634
33.2522 22053 148.503
33.3694 22478 149.927
33.4867 21999 148.321
33.6039 21093 145.234
33.7211 20322 142.555
33.8383 19935 141.191
33.9554 19708 140.385
34.0725 20043 141.573
34.1896 21001 144.917
34.3067 21813 147.692
34.4237 21982 148.263
34.5407 22503 150.01
34.6577 22986 151.611
34.7746 22865 151.212
34.8915 22705 150.682
35.0084 22467 149.89
35.1252 22185 148.946
35.242 21700 147.309
35.3587 21459 146.489
35.4755 21160 145.465
35.5921 20614 143.576
35.7088 19833 140.83
35.8254 19382 139.219
35.9419 19167 138.445
36.0584 19086 138.152
36.1749 19355 139.122
36.2913 19792 140.684
36.4077 20273 142.383
36.524 21030 145.017
36.6403 21203 145.612
36.7565 21750 147.479
36.8727 22033 148.435
36.9889 21667 147.197
37.1049 21150 145.43
37.221 0 1
37.3369 0 1
37.4529 0 1
37.5687 0 1
37.6845 0 1
37.8003 0 1
37.916 0 1
38.0316 0 1
38.1472 0 1
40.5851 0 1
40.7008 0 1
40.8164 0 1
40.9322 0 1
41.048 0 1
41.1639 0 1
41.2798 0 1
41.3958 0 1
41.5118 0 1
41.6279 0 1
41.744 17043 130.549
41.8602 17801 133.42
41.9765 18123 134.622
42.0928 18575 136.29
42.2091 18894 137.455
42.3255 18180 134.833
42.4419 17447 132.087
42.5584 16895 129.981
42.675 16303 127.683
42.7915 16582 128.771
42.9081 17340 131.681
43.0248 18089 134.495
43.1415 18268 135.159
43.2582 18918 137.543
43.375 19015 137.895
43.4918 19312 138.968
43.6087 18897 137.466
43.7256 19042 137.993
43.8425 18444 135.809
43.9595 18294 135.255
44.0765 17642 132.823
44.1935 17651 132.857
44.3106 16974 130.284
44.4277 16309 127.707
44.5448 15362 123.944
44.6619 14611 120.876
44.7791 14341 119.754
44.8963 14753 121.462
45.0136 14617 120.901
45.1308 15033 122.609
45.2481 15536 124.643
45.3654 16072 126.775
45.4827 16002 126.499
45.6001 15678 125.212
45.7174 15970 126.372
45.8348 15606 124.924
45.9522 14726 121.351
46.0697 13909 117.936
46.1871 13435 115.909
46.3046 13152 114.682
46.422 13772 117.354
46.5395 14367 119.862
46.657 14407 120.029
46.7745 14929 122.184
46.892 15156 123.11
47.0096 15123 122.976
47.1271 15077 122.788
47.2446 14999 122.47
47.3622 14773 121.544
47.4797 14283 119.512
47.5973 14139 118.908
47.7149 13728 117.167
47.8324 13245 115.087
47.95 12371 111.225
48.0675 12351 111.135
48.1851 11334 106.461
48.3027 10960 104.69
48.4202 11002 104.89
48.5378 11204 105.849
48.6554 11477 107.131
48.7729 12113 110.059
48.8904 12542 111.991
49.008 12437 111.521
49.1255 12596 112.232
49.243 12725 112.805
49.3605 12352 111.14
49.478 11698 108.157
49.5955 11264 106.132
49.713 11083 105.276
49.8304 10831 104.072
49.9479 11525 107.355
50.0653 12534 111.955
50.1827 13053 114.25
50.3001 13516 116.258
50.4175 14137 118.899
50.5348 14488 120.366
50.6521 14886 122.008
50.7694 15057 122.707
50.8867 15201 123.292
51.004 15394 124.073
51.1212 15602 124.908
51.2384 15657 125.128
51.3556 15436 124.242
51.4727 15043 122.65
51.5899 14550 120.623
51.707 14003 118.334
51.824 13935 118.047
51.9411 14340 119.75
52.0581 14983 122.405
52.175 16018 126.562
52.2919 16497 128.441
52.4088 17165 131.015
52.5257 17511 132.329
52.6425 17727 133.143
52.7593 18120 134.611
52.876 18191 134.874
52.9927 17862 133.649
53.1094 17260 131.377
53.226 16559 128.682
53.3426 16278 127.585
53.4591 16624 128.934
53.5756 17448 132.091
53.692 19118 138.268
53.8084 19729 140.46
53.9248 20552 143.36
54.0411 21096 145.245
54.1573 21519 146.694
54.2735 0 1
54.3896 0 1
54.5057 0 1
54.6217 0 1
54.7377 0 1
54.8537 0 1
54.9695 0 1
55.0853 0 1
55.2011 0 1
55.3168 0 1
55.4324 0 1
57.824 0 1
57.9396 0 1
58.0553 0 1
58.1711 0 1
58.2869 0 1
58.4028 0 1
58.5187 0 1
58.6347 0 1
58.7508 0 1
58.8669 0 1
58.983 22753 150.841
59.0992 24157 155.425
59.2155 24795 157.464
59.3318 25557 159.866
59.4482 25539 159.809
59.5646 25897 160.925
59.681 25581 159.941
59.7975 25674 160.231
59.9141 24518 156.582
60.0306 23791 154.243
60.1473 23088 151.947
60.2639 21547 146.789
60.3807 20399 142.825
60.4974 19555 139.839
60.6142 19524 139.728
60.731 20198 142.12
60.8479 20246 142.288
60.9648 21175 145.516
61.0818 22100 148.661
61.1987 22150 148.829
61.3158 22098 148.654
61.4328 21789 147.611
61.5499 21697 147.299
61.667 20610 143.562
61.7841 19556 139.843
61.9013 18922 137.557
62.0185 18917 137.539
62.1357 19595 139.982
62.253 20629 143.628
62.3702 21674 147.221
62.4875 22259 149.195
62.6049 22775 150.914
62.7222 23660 153.818
62.8396 23838 154.396
62.9569 23738 154.071
63.0743 23858 154.46
63.1918 23804 154.285
63.3092 22901 151.331
63.4267 22619 150.396
63.5441 21406 146.308
63.6616 20508 143.206
63.7791 19479 139.567
63.8966 18233 135.03
64.0142 17672 132.936
64.1317 17461 132.14
64.2492 18018 134.231
64.3668 18458 135.86
64.4843 19088 138.159
64.6019 19795 140.695
64.7195 20039 141.559
64.837 20368 142.717
64.9546 20182 142.063
65.0722 19740 140.499
65.1898 18968 137.724
65.3074 18186 134.855
65.4249 17377 131.822
65.5425 17070 130.652
65.6601 17431 132.027
65.7777 18435 135.776
65.8952 19190 138.528
66.0128 20105 141.792
66.1304 21136 145.382
66.2479 21861 147.855
66.3655 21801 147.652
66.483 22583 150.276
66.6005 22429 149.763
66.718 22449 149.83
66.8355 22317 149.389
66.953 21899 147.983
67.0705 21055 145.103
67.1879 20549 143.349
67.3054 19046 138.007
67.4228 18409 135.68
67.5402 16904 130.015
67.6576 16347 127.855
67.7749 16797 129.603
67.8923 17024 130.476
68.0096 17905 133.81
68.1269 19009 137.873
68.2442 19616 140.057
68.3614 20228 142.225
68.4787 20496 143.164
68.5958 20364 142.702
68.713 20323 142.559
68.8302 19562 139.864
68.9473 18451 135.834
69.0643 17816 133.477
69.1814 17350 131.719
69.2984 17924 133.881
69.4154 18980 137.768
69.5323 20448 142.997
69.6492 21456 146.479
69.7661 22558 150.193
69.8829 23382 152.912
69.9997 23728 154.039
70.1165 24551 156.688
70.2332 24707 157.185
70.3499 24585 156.796
70.4665 24284 155.833
70.5831 23833 154.379
70.6996 22911 151.364
70.8161 22087 148.617
70.9326 21073 145.165
71.049 20107 141.799
71.1653 18597 136.371
71.2817 17551 132.48
71.3979 16999 130.38
71.5141 17318 131.598
71.6303 17614 132.718
71.7464 17159 130.992
71.8624 0 1
71.9784 0 1
72.0944 0 1
72.2102 0 1
72.3261 0 1
72.4418 0 1
72.5575 0 1
72.6732 0 1
75.1054 0 1
75.2209 0 1
75.3365 0 1
75.4521 0 1
75.5678 0 1
75.6835 0 1
75.7993 0 1
75.9151 0 1
76.031 0 1
76.147 20547 143.342
76.263 21609 147
76.3791 21229 145.702
76.4952 19531 139.753
76.6113 18147 134.711
76.7276 17750 133.229
76.8438 18249 135.089
76.9601 18881 137.408
77.0765 19996 141.407
77.1929 21679 147.238
77.3093 22450 149.833
77.4258 22846 151.149
77.5423 22823 151.073
77.6589 22279 149.262
77.7755 21659 147.17
77.8921 20213 142.172
78.0088 19101 138.206
78.1256 18238 135.048
78.2423 17782 133.349
78.3591 17755 133.248
78.4759 19309 138.957
78.5928 20632 143.638
78.7097 22069 148.556
78.8266 22638 150.459
78.9436 23654 153.799
79.0606 23950 154.758
79.1776 24018 154.977
79.2946 24330 155.981
79.4117 24471 156.432
79.5288 24228 155.653
79.6459 23358 152.833
79.7631 22166 148.883
79.8802 21341 146.086
79.9974 20412 142.871
80.1147 18949 137.655
80.2319 17413 131.958
80.3491 16316 127.734
80.4664 16750 129.422
80.5837 16992 130.353
80.701 17995 134.145
80.8183 19428 139.384
80.9357 20316 142.534
81.053 20350 142.653
81.1704 20521 143.252
81.2877 20085 141.722
81.4051 19714 140.407
81.5225 18951 137.663
81.6399 17335 131.662
81.7573 16992 130.353
81.8747 15692 125.268
81.9922 15866 125.96
82.1096 17038 130.53
82.227 18627 136.481
82.3444 19139 138.344
82.4619 20591 143.496
82.5793 21633 147.082
82.6967 20828 144.319
82.8142 21385 146.236
82.9316 21282 145.884
83.049 20964 144.79
83.1664 20879 144.496
83.2838 20268 142.366
83.4012 19148 138.376
83.5186 18873 137.379
83.636 17737 133.18
83.7534 16540 128.608
83.8708 15175 123.187
83.9881 14414 120.058
84.1055 14478 120.325
84.2228 14860 121.902
84.3401 15840 125.857
84.4575 17127 130.87
84.5747 18107 134.562
84.692 18679 136.671
84.8093 18964 137.71
84.9265 18763 136.978
85.0437 18069 134.421
85.1609 17020 130.461
85.2781 15714 125.355
85.3952 15258 123.523
85.5123 15161 123.13
85.6294 15979 126.408
85.7465 17036 130.522
85.8636 18886 137.426
85.9806 19915 141.121
86.0976 21058 145.114
86.2145 22141 148.799
86.3315 22427 149.756
86.4484 23307 152.666
86.5652 23313 152.686
86.682 23376 152.892
86.7988 23055 151.839
86.9156 22622 150.406
87.0323 21971 148.226
87.149 21092 145.231
87.2657 20180 142.056
87.3823 19012 137.884
87.4988 17968 134.045
87.6154 17389 131.867
87.7318 18064 134.402
87.8483 19208 138.593
87.9647 20658 143.729
88.081 22426 149.753
88.1973 22959 151.522
88.3136 23273 152.555
88.4298 22807 151.02
88.546 22932 151.433
88.6621 21676 147.228
88.7781 20586 143.478
88.8942 0 1
89.0101 0 1
89.126 0 1
89.2419 0 1
89.3577 0 1
89.4734 0 1
89.5891 0 1
89.7047 0 1
89.8203 0 1
89.9358 0 1
92.3269 0 1
92.4424 0 1
92.558 0 1
92.6736 0 1
92.7893 0 1
92.905 0 1
93.0208 0 1
93.1366 0 1
93.2525 0 1
93.3685 0 1
93.4845 0 1
93.6005 33404 182.768
93.7167 35068 187.265
93.8328 36157 190.15
93.949 36809 191.857
94.0653 37477 193.59
94.1816 36188 190.231
94.2979 34815 186.588
94.4143 34100 184.662
94.5307 34042 184.505
94.6472 35248 187.745
94.7637 37265 193.041
94.8803 40761 201.894
94.9969 44084 209.962
95.1135 46823 216.386
95.2302 48785 220.873
95.3469 50052 223.723
95.4637 51952 227.93
95.5805 53087 230.406
95.6973 54401 233.24
95.8142 55286 235.13
95.9311 54947 234.408
96.048 54103 232.601
96.1649 52845 229.88
96.2819 51656 227.28
96.3989 49903 223.39
96.516 47336 217.568
96.633 43771 209.215
96.7501 42784 206.843
96.8673 43453 208.454
96.9844 45997 214.469
97.1016 49026 221.418
97.2188 52693 229.55
97.336 54870 234.243
97.4532 55282 235.121
97.5704 54624 233.718
97.6877 53677 231.683
97.805 50960 225.743
97.9223 47018 216.836
98.0396 43956 209.657
98.1569 42111 205.21
98.2743 41173 202.911
98.3916 42631 206.473
98.509 46365 215.325
98.6264 48801 220.909
98.7438 51659 227.286
98.8612 53103 230.441
98.9786 54967 234.45
99.096 56007 236.658
99.2134 56224 237.116
99.3308 56908 238.554
99.4482 56900 238.537
99.5656 55822 236.267
99.6831 54741 233.968
99.8005 53290 230.846
99.9179 51405 226.727
100.035 48861 221.045
100.153 45968 214.401
100.27 42998 207.36
100.388 42660 206.543
100.505 43796 209.275
100.622 47348 217.596
100.74 50418 224.54
100.857 52817 229.819
100.975 52740 229.652
101.092 52414 228.941
101.209 51839 227.682
101.327 50644 225.042
101.444 47459 217.851
101.561 43244 207.952
101.679 40471 201.174
101.796 38594 196.454
101.913 37761 194.322
102.03 39535 198.834
102.148 42599 206.395
102.265 47657 218.305
102.382 42743 206.744
102.499 46247 215.051
102.616 46454 215.532
102.733 46739 216.192
102.851 46073 214.646
102.968 45051 212.252
103.085 43592 208.787
103.202 41657 204.1
103.319 39826 199.565
103.436 37471 193.574
103.552 35169 187.534
103.669 32252 179.588
103.786 29493 171.735
103.903 28164 167.821
104.02 27988 167.296
104.137 28426 168.6
104.253 30558 174.808
104.37 29691 172.311
104.487 30872 175.704
104.603 30244 173.908
104.72 29164 170.775
104.836 27901 167.036
104.953 26208 161.889
105.069 24214 155.608
105.186 22901 151.331
105.302 22311 149.369
105.418 22453 149.843
105.535 23684 153.896
105.651 25643 160.134
105.767 26917 164.064
105.883 28308 168.25
105.999 29028 170.376
106.115 0 1
106.231 0 1
106.347 0 1
106.463 0 1
106.579 0 1
106.694 0 1
106.81 0 1
106.926 0 1
107.041 0 1
107.157 0 1
109.576 0 1
109.692 0 1
109.807 0 1
109.923 0 1
110.039 0 1
110.155 0 1
110.27 0 1
110.386 0 1
110.502 0 1
110.618 21935 148.105
110.735 24436 156.32
110.851 25986 161.202
110.967 27116 164.669
111.083 27634 166.235
111.199 28572 169.033
111.316 28727 169.49
111.432 29096 170.575
111.549 28889 169.968
111.665 28300 168.226
111.782 27271 165.139
111.898 26579 163.031
112.015 25267 158.956
112.132 24496 156.512
112.248 22545 150.15
112.365 21284 145.89
112.482 20910 144.603
112.599 20977 144.834
112.716 22787 150.954
112.832 24266 155.775
112.949 24958 157.981
113.066 25240 158.871
113.183 24997 158.104
113.3 24321 155.952
113.417 23976 154.842
113.534 23132 152.092
113.652 21930 148.088
113.769 20935 144.689
113.886 20607 143.551
114.003 20675 143.788
114.12 22315 149.382
114.238 24001 154.923
114.355 25503 159.697
114.472 27971 167.245
114.589 26222 161.932
114.707 27712 166.469
114.824 28662 169.299
114.942 28719 169.467
115.059 28566 169.015
115.176 28639 169.231
115.294 27624 166.205
115.411 27488 165.795
115.529 26334 162.278
115.646 25464 159.574
115.764 24176 155.486
115.881 22970 151.559
115.999 21787 147.604
116.116 21950 148.155
116.234 23203 152.325
116.351 24249 155.721
116.469 25516 159.737
116.586 26034 161.351
116.704 25879 160.87
116.821 25523 159.759
116.939 25474 159.606
117.056 24620 156.908
117.174 23530 153.395
117.291 22466 149.887
117.409 21722 147.384
117.526 21565 146.85
117.644 22510 150.033
117.761 24325 155.965
117.879 26156 161.728
117.996 26615 163.141
118.114 27955 167.197
118.231 28550 168.967
118.349 28677 169.343
118.466 28908 170.024
118.584 29305 171.187
118.701 29572 171.965
118.819 29340 171.289
118.936 28273 168.146
119.053 27526 165.91
119.171 26700 163.401
119.288 25677 160.24
119.405 24380 156.141
119.523 22722 150.738
119.64 22316 149.385
119.757 22364 149.546
119.875 23209 152.345
119.992 24416 156.256
120.109 25293 159.038
120.226 25725 160.39
120.343 25903 160.944
120.46 25811 160.658
120.578 25628 160.087
120.695 24799 157.477
120.812 24098 155.235
120.929 23152 152.158
121.046 22344 149.479
121.163 22073 148.57
121.279 22423 149.743
121.396 23647 153.776
121.513 25285 159.013
121.63 26554 162.954
121.747 27803 166.742
121.863 28160 167.809
121.98 28254 168.089
122.097 29237 170.988
122.213 29422 171.528
122.33 29152 170.74
122.446 28823 169.773
122.563 28207 167.949
122.679 27462 165.717
122.795 27245 165.061
122.912 26411 162.515
123.028 25286 159.016
123.144 24087 155.2
123.26 22596 150.32
123.377 0 1
123.493 0 1
123.609 0 1
123.725 0 1
123.84 0 1
123.956 0 1
124.072 0 1
124.188 0 1
124.303 0 1
124.419 0 1
126.852 0 1
126.968 0 1
127.083 0 1
127.199 0 1
127.315 0 1
127.431 0 1
127.547 0 1
127.663 0 1
127.779 0 1
127.895 0 1
128.011 0 1
128.127 0 1
128.243 0 1
128.359 27004 164.329
128.476 25673 160.228
128.592 24482 156.467
128.708 24800 157.48
128.825 25662 160.194
128.941 27104 164.633
129.058 27903 167.042
129.174 28375 168.449
129.291 28827 169.785
129.408 28437 168.633
129.524 27884 166.985
129.641 26915 164.058
129.758 26234 161.969
129.875 25131 158.528
129.992 24537 156.643
130.108 24387 156.163
130.225 24472 156.435
130.342 25422 159.443
130.459 26616 163.144
130.576 28845 169.838
130.693 28958 170.171
130.81 29686 172.296
130.928 29511 171.788
131.045 29939 173.029
131.162 30359 174.238
131.279 30159 173.663
131.396 30000 173.205
131.513 29668 172.244
131.631 28575 169.041
131.748 28583 169.065
131.865 27319 165.285
131.983 26209 161.892
132.1 24850 157.639
132.217 24666 157.054
132.335 25319 159.119
132.452 26336 162.284
132.57 27218 164.979
132.687 27360 165.409
132.804 28802 169.712
132.922 27868 166.937
133.039 27450 165.68
133.157 27391 165.502
133.274 26392 162.456
133.392 25312 159.097
133.509 24866 157.69
133.627 24062 155.119
133.744 24157 155.425
133.862 24805 157.496
133.979 26603 163.104
134.097 27070 164.53
134.214 28187 167.89
134.332 28814 169.747
134.449 28944 170.129
134.567 29187 170.842
134.684 29660 172.221
134.802 29897 172.907
134.919 29802 172.633
135.037 29689 172.305
135.154 28890 169.971
135.272 28281 168.17
135.389 27760 166.613
135.507 26824 163.78
135.624 25514 159.731
135.742 24602 156.85
135.859 25077 158.357
135.977 25897 160.925
136.094 26889 163.979
136.211 27575 166.057
136.329 28168 167.833
136.446 27948 167.177
136.564 27810 166.763
136.681 28096 167.619
136.798 27440 165.65
136.915 26397 162.472
137.033 25307 159.082
137.15 24739 157.286
137.267 24286 155.84
137.384 23622 153.695
137.502 24945 157.94
137.619 26299 162.17
137.736 26924 164.085
137.853 27429 165.617
137.97 28689 169.378
138.087 28271 168.14
138.204 29258 171.05
138.321 29634 172.145
138.438 29756 172.499
138.555 30360 174.241
138.672 29883 172.867
138.788 29698 172.331
138.905 29122 170.652
139.022 28634 169.216
139.139 27413 165.569
139.255 26511 162.822
139.372 25723 160.384
139.488 25792 160.599
139.605 26492 162.764
139.721 26977 164.247
139.838 28279 168.164
139.954 28765 169.602
140.071 28133 167.729
140.187 28311 168.259
140.303 27738 166.547
140.419 27172 164.839
140.535 26196 161.852
140.652 25061 158.307
140.768 0 1
140.884 0 1
141 0 1
141.115 0 1
141.231 0 1
141.347 0 1
141.463 0 1
141.578 0 1
141.694 0 1
144.104 0 1
144.219 0 1
144.335 0 1
144.45 0 1
144.566 0 1
144.682 0 1
144.798 0 1
144.914 0 1
145.03 0 1
145.146 25540 159.812
145.262 25785 160.577
145.378 25749 160.465
145.494 24916 157.848
145.61 24272 155.795
145.726 23631 153.724
145.842 22973 151.568
145.959 22733 150.775
146.075 22614 150.38
146.192 23497 153.287
146.308 24717 157.216
146.425 25437 159.49
146.541 25638 160.119
146.658 26240 161.988
146.774 26590 163.064
146.891 26881 163.954
147.008 26849 163.857
147.125 27512 165.867
147.241 27380 165.469
147.358 27408 165.554
147.475 26874 163.933
147.592 26630 163.187
147.709 25804 160.636
147.826 25235 158.855
147.943 23798 154.266
148.06 23359 152.837
148.177 24024 154.997
148.294 25069 158.332
148.411 25989 161.211
148.528 26390 162.45
148.645 26417 162.533
148.762 26406 162.499
148.88 26183 161.812
148.997 25405 159.389
149.114 25928 161.022
149.231 24916 157.848
149.349 24324 155.962
149.466 22976 151.578
149.583 23083 151.931
149.701 22655 150.516
149.818 23505 153.313
149.935 24547 156.675
150.053 25170 158.651
150.17 25804 160.636
150.287 26245 162.003
150.405 26888 163.976
150.522 27197 164.915
150.64 27733 166.532
150.757 28038 167.446
150.875 28136 167.738
150.992 28054 167.493
151.11 27741 166.556
151.227 27323 165.297
151.344 26727 163.484
151.462 25531 159.784
151.579 25056 158.291
151.697 24470 156.429
151.814 24518 156.582
151.932 25569 159.903
152.049 26507 162.81
152.167 27308 165.251
152.284 27383 165.478
152.402 27353 165.387
152.519 27185 164.879
152.636 26704 163.414
152.754 26386 162.438
152.871 25564 159.887
152.989 25190 158.714
153.106 24221 155.631
153.223 23861 154.47
153.341 23860 154.467
153.458 24794 157.461
153.575 25641 160.128
153.693 25889 160.901
153.81 26659 163.276
153.927 27280 165.167
154.044 28099 167.628
154.162 28065 167.526
154.279 28562 169.003
154.396 29497 171.747
154.513 29584 172
154.63 29263 171.064
154.747 28836 169.812
154.864 28461 168.704
154.981 27565 166.027
155.098 27057 164.49
155.215 25768 160.524
155.332 25432 159.474
155.449 25893 160.913
155.566 26430 162.573
155.683 27703 166.442
155.8 27927 167.114
155.917 28050 167.481
156.033 27736 166.541
156.15 0 1
156.267 0 1
156.383 0 1
156.5 0 1
156.617 0 1
156.733 0 1
156.85 0 1
156.966 0 1
157.082 0 1
157.199 0 1
157.315 0 1
157.431 0 1
157.547 0 1
157.664 0 1
157.78 0 1
157.896 0 1
158.012 0 1
158.128 0 1
158.244 0 1
158.359 0 1
158.475 0 1
158.591 0 1
158.706 0 1
