
6.15755 0 1
6.2731 0 1
6.3887 0 1
6.50437 0 1
6.62009 0 1
6.73587 0 1
6.8517 0 1
6.96759 0 1
7.08353 0 1
7.19952 0 1
7.31557 0 1
7.43166 0 1
7.54781 0 1
7.664 0 1
7.78024 0 1
7.89653 0 1
8.01286 0 1
8.12924 0 1
8.24567 0 1
8.36213 0 1
8.47864 0 1
8.59519 0 1
8.71178 0 1
8.82841 0 1
8.94508 0 1
9.06179 0 1
9.17853 0 1
9.29531 0 1
9.41212 0 1
9.52897 0 1
9.64584 0 1
9.76276 0 1
9.8797 0 1
9.99667 0 1
10.1137 0 1
10.2307 0 1
10.3478 0 1
10.4648 0 1
10.5819 0 1
10.6991 0 1
10.8162 0 1
10.9334 0 1
11.0506 0 1
11.1678 0 1
11.285 0 1
11.4023 0 1
11.5196 0 1
11.6369 0 1
11.7542 0 1
11.8715 0 1
11.9888 0 1
12.1062 0 1
12.2235 0 1
12.3409 0 1
12.4582 0 1
12.5756 0 1
12.693 0 1
12.8104 0 1
12.9278 0 1
13.0452 0 1
13.1626 0 1
13.28 0 1
13.3974 0 1
13.5149 0 1
13.6323 0 1
13.7497 0 1
13.8671 0 1
13.9845 0 1
14.1019 0 1
14.2193 0 1
14.3367 0 1
14.4541 0 1
14.5714 0 1
14.6888 0 1
14.8062 0 1
14.9235 0 1
15.0408 0 0
15.1581 0 0
15.2755 0 0
15.3927 0 0
15.51 0 0
15.6273 0 0
15.7445 0 0
15.8617 0 0
15.9789 0 0
16.0961 0 0
16.2132 0 0
16.3304 0 0
16.4475 0 0
16.5646 0 0
16.6816 0 0
16.7986 0 0
16.9156 0 0
17.0326 0 0
17.1496 0 0
17.2665 0 0
17.3833 0 0
17.5002 0 0
17.617 0 0
17.7338 0 0
17.8505 0 0
17.9672 0 0
18.0839 0 0
18.2005 0 0
18.3171 0 0
18.4337 0 0
18.5502 0 0
18.6666 0 0
18.7831 0 0
18.8994 0 0
19.0158 0 0
19.1321 0 0
19.2483 0 0
19.3645 0 0
19.4806 0 0
19.5967 0 0
19.7128 0 0
19.8288 0 0
19.9447 0 0
20.0606 0 1
20.1764 0 1
20.2922 0 1
20.4079 0 1
20.5236 0 1
20.6392 0 1
20.7548 0 1
20.8702 0 1
23.3078 0 1
23.4233 0 1
23.539 0 1
23.6547 0 1
23.7704 0 1
23.8862 0 1
24.0021 0 1
24.118 0 1
24.234 0 1
24.35 0 1
24.4661 2391 48.8979
24.5822 2371 48.6929
24.6984 2444 49.4368
24.8146 2358 48.5592
24.9309 2311 48.0729
25.0472 2350 48.4768
25.1636 2439 49.3862
25.28 2426 49.2544
25.3965 2442 49.4166
25.513 2447 49.4672
25.6296 2518 50.1797
25.7462 2740 52.345
25.8628 2717 52.1249
25.9795 2811 53.0189
26.0962 2735 52.2972
26.213 2750 52.4404
26.3298 2706 52.0192
26.4466 2757 52.5071
26.5635 2734 52.2877
26.6804 2679 51.7591
26.7973 2574 50.7346
26.9143 2541 50.4083
27.0313 2636 51.342
27.1483 2671 51.6817
27.2653 2692 51.8845
27.3824 2704 52
27.4996 2677 51.7397
27.6167 2629 51.2738
27.7339 2643 51.4101
27.8511 2510 50.0999
27.9683 2620 51.1859
28.0855 2521 50.2096
28.2028 2363 48.6107
28.3201 2415 49.1426
28.4374 2327 48.239
28.5547 2326 48.2286
28.6721 2268 47.6235
28.7894 2258 47.5184
28.9068 2300 47.9583
29.0242 2350 48.4768
29.1416 2442 49.4166
29.259 2444 49.4368
29.3764 2611 51.0979
29.4939 2467 49.6689
29.6113 2461 49.6085
29.7288 2614 51.1273
29.8463 2523 50.2295
29.9638 2669 51.6624
30.0812 2602 51.0098
30.1987 2542 50.4183
30.3162 2425 49.2443
30.4337 2246 47.392
30.5512 2521 50.2096
30.6687 2433 49.3254
30.7862 2424 49.2341
30.9037 2575 50.7445
31.0212 2603 51.0196
31.1387 2613 51.1175
31.2562 2616 51.1468
31.3737 2556 50.5569
31.4912 2418 49.1732
31.6087 2436 49.3559
31.7262 2417 49.163
31.8436 2351 48.4871
31.9611 2251 47.4447
32.0785 2208 46.9894
32.1959 2232 47.244
32.3134 2236 47.2864
32.4308 2241 47.3392
32.5482 2305 48.0104
32.6655 2336 48.3322
32.7829 2257 47.5079
32.9002 2406 49.051
33.0176 2463 49.6286
33.1349 2438 49.3761
33.2522 2528 50.2792
33.3694 2513 50.1298
33.4867 2497 49.97
33.6039 2691 51.8748
33.7211 2607 51.0588
33.8383 2407 49.0612
33.9554 2436 49.3559
34.0725 2294 47.8957
34.1896 2355 48.5283
34.3067 2393 48.9183
34.4237 2507 50.07
34.5407 2472 49.7192
34.6577 2457 49.5681
34.7746 2591 50.9019
34.8915 2513 50.1298
35.0084 2464 49.6387
35.1252 2393 48.9183
35.242 2409 49.0816
35.3587 2367 48.6518
35.4755 2383 48.816
35.5921 2286 47.8121
35.7088 2204 46.9468
35.8254 2155 46.422
35.9419 2154 46.4112
36.0584 2061 45.3982
36.1749 2152 46.3897
36.2913 2156 46.4327
36.4077 2174 46.6262
36.524 2267 47.613
36.6403 2328 48.2494
36.7565 2311 48.0729
36.8727 2415 49.1426
36.9889 2551 50.5074
37.1049 2343 48.4045
37.221 0 1
37.3369 0 1
37.4529 0 1
37.5687 0 1
37.6845 0 1
37.8003 0 1
37.916 0 1
38.0316 0 1
38.1472 0 1
40.5851 0 1
40.7008 0 1
40.8164 0 1
40.9322 0 1
41.048 0 1
41.1639 0 1
41.2798 0 1
41.3958 0 1
41.5118 0 1
41.6279 0 1
41.744 1803 42.4617
41.8602 1884 43.4051
41.9765 1894 43.5201
42.0928 1993 44.643
42.2091 2034 45.0999
42.3255 2080 45.607
42.4419 2089 45.7056
42.5584 2029 45.0444
42.675 1847 42.9767
42.7915 1866 43.1972
42.9081 1799 42.4146
43.0248 1850 43.0116
43.1415 1849 43
43.2582 1943 44.0795
43.375 1975 44.441
43.4918 2048 45.2548
43.6087 1970 44.3847
43.7256 1907 43.6692
43.8425 1876 43.3128
43.9595 1823 42.6966
44.0765 1838 42.8719
44.1935 1760 41.9524
44.3106 1733 41.6293
44.4277 1762 41.9762
44.5448 1662 40.7676
44.6619 1538 39.2173
44.7791 1436 37.8946
44.8963 1391 37.2961
45.0136 1425 37.7492
45.1308 1420 37.6829
45.2481 1478 38.4448
45.3654 1582 39.7744
45.4827 1604 40.05
45.6001 1617 40.2119
45.7174 1624 40.2989
45.8348 1611 40.1373
45.9522 1587 39.8372
46.0697 1585 39.8121
46.1871 1531 39.128
46.3046 1432 37.8418
46.422 1331 36.4829
46.5395 1298 36.0278
46.657 1366 36.9594
46.7745 1471 38.3536
46.892 1477 38.4318
47.0096 1525 39.0512
47.1271 1463 38.2492
47.2446 1418 37.6563
47.3622 1452 38.1051
47.4797 1397 37.3765
47.5973 1347 36.7015
47.7149 1318 36.3043
47.8324 1214 34.8425
47.95 1198 34.6121
48.0675 1192 34.5254
48.1851 1188 34.4674
48.3027 1122 33.4963
48.4202 1036 32.187
48.5378 1070 32.7109
48.6554 1047 32.3574
48.7729 1158 34.0294
48.8904 1131 33.6303
49.008 1298 36.0278
49.1255 1274 35.6931
49.243 1247 35.3129
49.3605 1242 35.242
49.478 1258 35.4683
49.5955 1255 35.426
49.713 1182 34.3802
49.8304 1141 33.7787
49.9479 1070 32.7109
50.0653 1061 32.573
50.1827 1222 34.9571
50.3001 1259 35.4824
50.4175 1323 36.3731
50.5348 1397 37.3765
50.6521 1470 38.3406
50.7694 1454 38.1314
50.8867 1460 38.2099
51.004 1440 37.9473
51.1212 1492 38.6264
51.2384 1492 38.6264
51.3556 1505 38.7943
51.4727 1510 38.8587
51.5899 1445 38.0132
51.707 1388 37.2559
51.824 1386 37.229
51.9411 1379 37.1349
52.0581 1450 38.0789
52.175 1538 39.2173
52.2919 1626 40.3237
52.4088 1689 41.0974
52.5257 1844 42.9418
52.6425 1830 42.7785
52.7593 1787 42.2729
52.876 1870 43.2435
52.9927 1904 43.6348
53.1094 2001 44.7325
53.226 1895 43.5316
53.3426 1872 43.2666
53.4591 1792 42.332
53.5756 1725 41.5331
53.692 1775 42.1307
53.8084 1892 43.4971
53.9248 1965 44.3283
54.0411 2059 45.3762
54.1573 2224 47.1593
54.2735 0 1
54.3896 0 1
54.5057 0 1
54.6217 0 1
54.7377 0 1
54.8537 0 1
54.9695 0 1
55.0853 0 1
55.2011 0 1
55.3168 0 1
55.4324 0 1
57.824 0 1
57.9396 0 1
58.0553 0 1
58.1711 0 1
58.2869 0 1
58.4028 0 1
58.5187 0 1
58.6347 0 1
58.7508 0 1
58.8669 0 1
58.983 2225 47.1699
59.0992 2462 49.6185
59.2155 2458 49.5782
59.3318 2630 51.2835
59.4482 2665 51.6236
59.5646 2688 51.8459
59.681 2620 51.1859
59.7975 2626 51.2445
59.9141 2575 50.7445
60.0306 2505 50.05
60.1473 2325 48.2183
60.2639 2248 47.4131
60.3807 2200 46.9042
60.4974 2073 45.5302
60.6142 2008 44.8107
60.731 2006 44.7884
60.8479 2101 45.8367
60.9648 2181 46.7012
61.0818 2154 46.4112
61.1987 2305 48.0104
61.3158 2335 48.3218
61.4328 2408 49.0714
61.5499 2407 49.0612
61.667 2278 47.7284
61.7841 2208 46.9894
61.9013 2091 45.7275
62.0185 2078 45.5851
62.1357 1998 44.699
62.253 2003 44.7549
62.3702 2188 46.7761
62.4875 2134 46.1952
62.6049 2257 47.5079
62.7222 2437 49.366
62.8396 2399 48.9796
62.9569 2389 48.8774
63.0743 2387 48.8569
63.1918 2447 49.4672
63.3092 2348 48.4562
63.4267 2190 46.7974
63.5441 2240 47.3286
63.6616 2156 46.4327
63.7791 1998 44.699
63.8966 1972 44.4072
64.0142 1846 42.9651
64.1317 1841 42.9069
64.2492 1780 42.19
64.3668 1741 41.7253
64.4843 1881 43.3705
64.6019 1911 43.715
64.7195 2024 44.9889
64.837 2076 45.5631
64.9546 2146 46.3249
65.0722 2203 46.9361
65.1898 2027 45.0222
65.3074 2073 45.5302
65.4249 1946 44.1135
65.5425 1881 43.3705
65.6601 1780 42.19
65.7777 1771 42.0833
65.8952 1807 42.5088
66.0128 1972 44.4072
66.1304 2087 45.6837
66.2479 2187 46.7654
66.3655 2235 47.2758
66.483 2308 48.0416
66.6005 2269 47.634
66.718 2316 48.1248
66.8355 2227 47.1911
66.953 2206 46.9681
67.0705 2121 46.0543
67.1879 2157 46.4435
67.3054 1997 44.6878
67.4228 2057 45.3542
67.5402 1776 42.1426
67.6576 1782 42.2137
67.7749 1742 41.7373
67.8923 1737 41.6773
68.0096 1730 41.5933
68.1269 1993 44.643
68.2442 2171 46.594
68.3614 2301 47.9687
68.4787 2361 48.5901
68.5958 2436 49.3559
68.713 2593 50.9215
68.8302 2551 50.5074
68.9473 2647 51.449
69.0643 2553 50.5272
69.1814 2551 50.5074
69.2984 2682 51.788
69.4154 2690 51.8652
69.5323 2992 54.6992
69.6492 3140 56.0357
69.7661 3543 59.5231
69.8829 3779 61.4736
69.9997 4017 63.3798
70.1165 4393 66.2797
70.2332 4633 68.0661
70.3499 4712 68.644
70.4665 4791 69.217
70.5831 4821 69.4334
70.6996 4823 69.4478
70.8161 4869 69.7782
70.9326 4763 69.0145
71.049 4684 68.4398
71.1653 4456 66.7533
71.2817 4251 65.1997
71.3979 4197 64.7843
71.5141 4337 65.8559
71.6303 4422 66.4981
71.7464 4333 65.8255
71.8624 0 1
71.9784 0 1
72.0944 0 1
72.2102 0 1
72.3261 0 1
72.4418 0 1
72.5575 0 1
72.6732 0 1
75.1054 0 1
75.2209 0 1
75.3365 0 1
75.4521 0 1
75.5678 0 1
75.6835 0 1
75.7993 0 1
75.9151 0 1
76.031 0 1
76.147 5535 74.3976
76.263 5800 76.1577
76.3791 5718 75.6175
76.4952 5549 74.4916
76.6113 5170 71.9027
76.7276 4973 70.5195
76.8438 4694 68.5128
76.9601 4816 69.3974
77.0765 4955 70.3918
77.1929 5027 70.9013
77.3093 5286 72.7049
77.4258 5236 72.3602
77.5423 5134 71.6519
77.6589 4949 70.3491
77.7755 4796 69.2532
77.8921 4592 67.7643
78.0088 4009 63.3167
78.1256 3731 61.0819
78.2423 3220 56.745
78.3591 2976 54.5527
78.4759 2890 53.7587
78.5928 3019 54.9454
78.7097 3214 56.6922
78.8266 3306 57.4978
78.9436 3339 57.7841
79.0606 3337 57.7668
79.1776 3279 57.2626
79.2946 3270 57.1839
79.4117 3171 56.3116
79.5288 3042 55.1543
79.6459 2908 53.9259
79.7631 2710 52.0577
79.8802 2678 51.7494
79.9974 2378 48.7647
80.1147 2255 47.4868
80.2319 1959 44.2606
80.3491 1872 43.2666
80.4664 1869 43.2319
80.5837 1868 43.2204
80.701 1933 43.9659
80.8183 1989 44.5982
80.9357 1997 44.6878
81.053 2101 45.8367
81.1704 2109 45.9239
81.2877 2139 46.2493
81.4051 2100 45.8258
81.5225 2067 45.4643
81.6399 1944 44.0908
81.7573 1831 42.7902
81.8747 1690 41.1096
81.9922 1565 39.5601
82.1096 1583 39.7869
82.227 1763 41.9881
82.3444 1865 43.1856
82.4619 2000 44.7214
82.5793 2223 47.1487
82.6967 2217 47.085
82.8142 2202 46.9255
82.9316 2311 48.0729
83.049 2274 47.6865
83.1664 2325 48.2183
83.2838 2279 47.7389
83.4012 2162 46.4973
83.5186 2166 46.5403
83.636 2152 46.3897
83.7534 2046 45.2327
83.8708 1946 44.1135
83.9881 1824 42.7083
84.1055 1843 42.9302
84.2228 2007 44.7996
84.3401 2187 46.7654
84.4575 2426 49.2544
84.5747 2606 51.049
84.692 2749 52.4309
84.8093 2794 52.8583
84.9265 2932 54.1479
85.0437 2943 54.2494
85.1609 2937 54.1941
85.2781 2789 52.811
85.3952 2615 51.1371
85.5123 2510 50.0999
85.6294 2478 49.7795
85.7465 2651 51.4879
85.8636 2877 53.6377
85.9806 3198 56.5509
86.0976 3471 58.9152
86.2145 3592 59.9333
86.3315 3798 61.6279
86.4484 4012 63.3404
86.5652 4069 63.7887
86.682 4023 63.4271
86.7988 3957 62.9047
86.9156 4013 63.3482
87.0323 3849 62.0403
87.149 3869 62.2013
87.2657 3614 60.1166
87.3823 3483 59.0169
87.4988 3357 57.9396
87.6154 3247 56.9825
87.7318 3437 58.6259
87.8483 3504 59.1946
87.9647 3844 62
88.081 3974 63.0397
88.1973 4280 65.4217
88.3136 4357 66.0076
88.4298 4320 65.7267
88.546 4206 64.8537
88.6621 4298 65.5591
88.7781 3888 62.3538
88.8942 0 1
89.0101 0 1
89.126 0 1
89.2419 0 1
89.3577 0 1
89.4734 0 1
89.5891 0 1
89.7047 0 1
89.8203 0 1
89.9358 0 1
92.3269 0 1
92.4424 0 1
92.558 0 1
92.6736 0 1
92.7893 0 1
92.905 0 1
93.0208 0 1
93.1366 0 1
93.2525 0 1
93.3685 0 1
93.4845 0 1
93.6005 3377 58.112
93.7167 3331 57.7148
93.8328 3253 57.0351
93.949 3213 56.6833
94.0653 3106 55.7315
94.1816 2986 54.6443
94.2979 2652 51.4976
94.4143 2427 49.2646
94.5307 2303 47.9896
94.6472 2184 46.7333
94.7637 2314 48.1041
94.8803 2416 49.1528
94.9969 2468 49.679
95.1135 2618 51.1664
95.2302 2741 52.3546
95.3469 2770 52.6308
95.4637 2735 52.2972
95.5805 2795 52.8678
95.6973 2848 53.3667
95.8142 2720 52.1536
95.9311 2620 51.1859
96.048 2601 51
96.1649 2537 50.3686
96.2819 2409 49.0816
96.3989 2305 48.0104
96.516 2104 45.8694
96.633 2036 45.1221
96.7501 2008 44.8107
96.8673 1927 43.8976
96.9844 1977 44.4635
97.1016 2167 46.551
97.2188 2244 47.3709
97.336 2252 47.4552
97.4532 2410 49.0918
97.5704 2431 49.3052
97.6877 2277 47.7179
97.805 2246 47.392
97.9223 2121 46.0543
98.0396 1977 44.4635
98.1569 1840 42.8952
98.2743 1764 42
98.3916 1913 43.7379
98.509 1943 44.0795
98.6264 2177 46.6583
98.7438 2224 47.1593
98.8612 2396 48.949
98.9786 2419 49.1833
99.096 2568 50.6754
99.2134 2471 49.7092
99.3308 2572 50.7149
99.4482 2552 50.5173
99.5656 2576 50.7543
99.6831 2504 50.04
99.8005 2366 48.6415
99.9179 2349 48.4665
100.035 2250 47.4342
100.153 2077 45.5741
100.27 2011 44.8442
100.388 1981 44.5084
100.505 2104 45.8694
100.622 2167 46.551
100.74 2240 47.3286
100.857 2358 48.5592
100.975 2440 49.3964
101.092 2380 48.7852
101.209 2378 48.7647
101.327 2338 48.3529
101.444 2231 47.2335
101.561 2139 46.2493
101.679 1959 44.2606
101.796 1895 43.5316
101.913 1872 43.2666
102.03 2002 44.7437
102.148 2170 46.5833
102.265 2556 50.5569
102.382 2366 48.6415
102.499 2635 51.3323
102.616 2654 51.517
102.733 2656 51.5364
102.851 2820 53.1037
102.968 2805 52.9623
103.085 2743 52.3737
103.202 2780 52.7257
103.319 2587 50.8626
103.436 2548 50.4777
103.552 2419 49.1833
103.669 2276 47.7074
103.786 2142 46.2817
103.903 2210 47.0106
104.02 2257 47.5079
104.137 2309 48.0521
104.253 2628 51.264
104.37 2507 50.07
104.487 2666 51.6333
104.603 2622 51.2055
104.72 2708 52.0384
104.836 2655 51.5267
104.953 2519 50.1896
105.069 2242 47.3498
105.186 2114 45.9783
105.302 2154 46.4112
105.418 2054 45.3211
105.535 2463 49.6286
105.651 2514 50.1398
105.767 2672 51.6914
105.883 2789 52.811
105.999 2878 53.647
106.115 0 1
106.231 0 1
106.347 0 1
106.463 0 1
106.579 0 1
106.694 0 1
106.81 0 1
106.926 0 1
107.041 0 1
107.157 0 1
109.576 0 1
109.692 0 1
109.807 0 1
109.923 0 1
110.039 0 1
110.155 0 1
110.27 0 1
110.386 0 1
110.502 0 1
110.618 2061 45.3982
110.735 2430 49.295
110.851 2486 49.8598
110.967 2727 52.2207
111.083 2788 52.8015
111.199 2769 52.6213
111.316 2884 53.7029
111.432 2858 53.4603
111.549 2803 52.9434
111.665 2924 54.074
111.782 2717 52.1249
111.898 2627 51.2543
112.015 2570 50.6952
112.132 2405 49.0408
112.248 2313 48.0937
112.365 2187 46.7654
112.482 2236 47.2864
112.599 2287 47.8226
112.716 2407 49.0612
112.832 2518 50.1797
112.949 2476 49.7594
113.066 2612 51.1077
113.183 2600 50.9902
113.3 2453 49.5278
113.417 2296 47.9166
113.534 2272 47.6655
113.652 2148 46.3465
113.769 2071 45.5082
113.886 1958 44.2493
114.003 1978 44.4747
114.12 2084 45.6508
114.238 2284 47.7912
114.355 2455 49.548
114.472 2740 52.345
114.589 2422 49.2138
114.707 2585 50.8429
114.824 2702 51.9808
114.942 2695 51.9134
115.059 2733 52.2781
115.176 2786 52.7826
115.294 2754 52.4786
115.411 2623 51.2152
115.529 2576 50.7543
115.646 2499 49.99
115.764 2427 49.2646
115.881 2334 48.3115
115.999 2232 47.244
116.116 2338 48.3529
116.234 2471 49.7092
116.351 2474 49.7393
116.469 2536 50.3587
116.586 2492 49.9199
116.704 2641 51.3907
116.821 2460 49.5984
116.939 2493 49.93
117.056 2392 48.9081
117.174 2293 47.8853
117.291 2162 46.4973
117.409 2023 44.9778
117.526 2149 46.3573
117.644 2226 47.1805
117.761 2331 48.2804
117.879 2512 50.1199
117.996 2538 50.3786
118.114 2673 51.7011
118.231 2816 53.066
118.349 2770 52.6308
118.466 2846 53.3479
118.584 2877 53.6377
118.701 2920 54.037
118.819 2918 54.0185
118.936 2742 52.3641
119.053 2666 51.6333
119.171 2727 52.2207
119.288 2513 50.1298
119.405 2305 48.0104
119.523 2446 49.4571
119.64 2349 48.4665
119.757 2477 49.7695
119.875 2532 50.319
119.992 2563 50.6261
120.109 2596 50.951
120.226 2615 51.1371
120.343 2660 51.5752
120.46 2540 50.3984
120.578 2550 50.4975
120.695 2450 49.4975
120.812 2347 48.4458
120.929 2305 48.0104
121.046 2186 46.7547
121.163 2144 46.3033
121.279 2256 47.4974
121.396 2257 47.5079
121.513 2434 49.3356
121.63 2521 50.2096
121.747 2707 52.0288
121.863 2723 52.1824
121.98 2774 52.6688
122.097 2972 54.5161
122.213 2889 53.7494
122.33 2876 53.6284
122.446 2849 53.376
122.563 2827 53.1695
122.679 2684 51.8073
122.795 2681 51.7784
122.912 2696 51.923
123.028 2493 49.93
123.144 2428 49.2747
123.26 2436 49.3559
123.377 0 1
123.493 0 1
123.609 0 1
123.725 0 1
123.84 0 1
123.956 0 1
124.072 0 1
124.188 0 1
124.303 0 1
124.419 0 1
126.852 0 1
126.968 0 1
127.083 0 1
127.199 0 1
127.315 0 1
127.431 0 1
127.547 0 1
127.663 0 1
127.779 0 1
127.895 0 1
128.011 0 1
128.127 0 1
128.243 0 1
128.359 3535 59.4559
128.476 3435 58.6089
128.592 3581 59.8415
128.708 3712 60.9262
128.825 3860 62.1289
128.941 3995 63.206
129.058 3951 62.857
129.174 4033 63.5059
129.291 4091 63.9609
129.408 4040 63.561
129.524 3868 62.1932
129.641 3754 61.2699
129.758 3594 59.95
129.875 3392 58.2409
129.992 3215 56.701
130.108 3129 55.9375
130.225 3357 57.9396
130.342 3561 59.6741
130.459 3576 59.7997
130.576 3870 62.2093
130.693 4105 64.0703
130.81 3866 62.1772
130.928 3965 62.9682
131.045 4168 64.56
131.162 4105 64.0703
131.279 4140 64.3428
131.396 4213 64.9076
131.513 4070 63.7966
131.631 3929 62.6817
131.748 3903 62.474
131.865 3779 61.4736
131.983 3689 60.7371
132.1 3885 62.3298
132.217 3794 61.5955
132.335 3895 62.4099
132.452 4020 63.4035
132.57 3908 62.514
132.687 3923 62.6339
132.804 4062 63.7338
132.922 3800 61.6441
133.039 3762 61.3351
133.157 3766 61.3677
133.274 3495 59.1185
133.392 3286 57.3236
133.509 3157 56.1872
133.627 3186 56.4447
133.744 3204 56.6039
133.862 3296 57.4108
133.979 3401 58.3181
134.097 3547 59.5567
134.214 3726 61.041
134.332 3676 60.63
134.449 3691 60.7536
134.567 3787 61.5386
134.684 3767 61.3759
134.802 3884 62.3217
134.919 3963 62.9524
135.037 3841 61.9758
135.154 3902 62.466
135.272 3638 60.3158
135.389 3703 60.8523
135.507 3499 59.1523
135.624 3575 59.7913
135.742 3681 60.6712
135.859 3737 61.131
135.977 3748 61.2209
136.094 3903 62.474
136.211 3808 61.709
136.329 3919 62.6019
136.446 3901 62.458
136.564 3843 61.9919
136.681 3706 60.8769
136.798 3495 59.1185
136.915 3437 58.6259
137.033 3270 57.1839
137.15 3221 56.7539
137.267 3100 55.6776
137.384 3212 56.6745
137.502 3250 57.0088
137.619 3274 57.2189
137.736 3417 58.4551
137.853 3590 59.9166
137.97 3680 60.663
138.087 3609 60.075
138.204 3720 60.9918
138.321 3747 61.2127
138.438 3841 61.9758
138.555 3941 62.7774
138.672 3889 62.3618
138.788 3902 62.466
138.905 3782 61.498
139.022 3684 60.696
139.139 3634 60.2827
139.255 3675 60.6218
139.372 3743 61.1801
139.488 3950 62.849
139.605 3959 62.9206
139.721 3957 62.9047
139.838 4051 63.6475
139.954 4016 63.3719
140.071 3917 62.5859
140.187 3945 62.8092
140.303 3786 61.5305
140.419 3571 59.7578
140.535 3550 59.5819
140.652 3293 57.3847
140.768 0 1
140.884 0 1
141 0 1
141.115 0 1
141.231 0 1
141.347 0 1
141.463 0 1
141.578 0 1
141.694 0 1
144.104 0 1
144.219 0 1
144.335 0 1
144.45 0 1
144.566 0 1
144.682 0 1
144.798 0 1
144.914 0 1
145.03 0 1
145.146 4031 63.4902
145.262 4043 63.5846
145.378 3875 62.2495
145.494 3904 62.482
145.61 3741 61.1637
145.726 3623 60.1914
145.842 3639 60.3241
145.959 3706 60.8769
146.075 3708 60.8933
146.192 3813 61.7495
146.308 3873 62.2334
146.425 4106 64.0781
146.541 4169 64.5678
146.658 4361 66.0379
146.774 4234 65.0692
146.891 4417 66.4605
147.008 4399 66.325
147.125 4641 68.1249
147.241 4682 68.4251
147.358 4586 67.72
147.475 4524 67.2607
147.592 4361 66.0379
147.709 4198 64.792
147.826 4323 65.7495
147.943 4364 66.0606
148.06 4296 65.5439
148.177 4547 67.4314
148.294 4594 67.7791
148.411 4566 67.5722
148.528 4549 67.4463
148.645 4405 66.3702
148.762 4472 66.873
148.88 4274 65.3758
148.997 4111 64.1171
149.114 4012 63.3404
149.231 3778 61.4654
149.349 3672 60.597
149.466 3549 59.5735
149.583 3493 59.1016
149.701 3605 60.0417
149.818 3611 60.0916
149.935 3633 60.2744
150.053 3805 61.6847
150.17 3872 62.2254
150.287 3769 61.3922
150.405 4011 63.3325
150.522 4067 63.773
150.64 4102 64.0469
150.757 4127 64.2417
150.875 4047 63.616
150.992 3968 62.9921
151.11 3975 63.0476
151.227 3805 61.6847
151.344 3787 61.5386
151.462 3849 62.0403
151.579 4031 63.4902
151.697 4040 63.561
151.814 4096 64
151.932 4075 63.8357
152.049 4075 63.8357
152.167 4127 64.2417
152.284 4286 65.4675
152.402 3984 63.1189
152.519 3995 63.206
152.636 3853 62.0725
152.754 3742 61.1719
152.871 3525 59.3717
152.989 3433 58.5918
153.106 3361 57.9741
153.223 3436 58.6174
153.341 3389 58.2151
153.458 3552 59.5987
153.575 3637 60.3075
153.693 3787 61.5386
153.81 3800 61.6441
153.927 3756 61.2862
154.044 3999 63.2376
154.162 4043 63.5846
154.279 4158 64.4826
154.396 4139 64.3351
154.513 4291 65.5057
154.63 4285 65.4599
154.747 4214 64.9153
154.864 4081 63.8827
154.981 4081 63.8827
155.098 3966 62.9762
155.215 4147 64.3972
155.332 4328 65.7875
155.449 4308 65.6354
155.566 4259 65.261
155.683 4344 65.909
155.8 4374 66.1362
155.917 4355 65.9924
156.033 4274 65.3758
156.15 0 1
156.267 0 1
156.383 0 1
156.5 0 1
156.617 0 1
156.733 0 1
156.85 0 1
156.966 0 1
157.082 0 1
157.199 0 1
157.315 0 1
157.431 0 1
157.547 0 1
157.664 0 1
157.78 0 1
157.896 0 1
158.012 0 1
158.128 0 1
158.244 0 1
158.359 0 1
158.475 0 1
158.591 0 1
158.706 0 1
