
6.15755 0 1
6.2731 0 1
6.3887 0 1
6.50437 0 1
6.62009 0 1
6.73587 0 1
6.8517 0 1
6.96759 0 1
7.08353 0 1
7.19952 0 1
7.31557 0 1
7.43166 0 1
7.54781 0 1
7.664 0 1
7.78024 0 1
7.89653 0 1
8.01286 0 1
8.12924 0 1
8.24567 0 1
8.36213 0 1
8.47864 0 1
8.59519 0 1
8.71178 0 1
8.82841 0 1
8.94508 0 1
9.06179 0 1
9.17853 0 1
9.29531 0 1
9.41212 0 1
9.52897 0 1
9.64584 0 1
9.76276 0 1
9.8797 0 1
9.99667 0 1
10.1137 0 1
10.2307 0 1
10.3478 0 1
10.4648 0 1
10.5819 0 1
10.6991 0 1
10.8162 0 1
10.9334 0 1
11.0506 0 1
11.1678 0 1
11.285 0 1
11.4023 0 1
11.5196 0 1
11.6369 0 1
11.7542 0 1
11.8715 0 1
11.9888 0 1
12.1062 0 1
12.2235 0 1
12.3409 0 1
12.4582 0 1
12.5756 0 1
12.693 0 1
12.8104 0 1
12.9278 0 1
13.0452 0 1
13.1626 0 1
13.28 0 1
13.3974 0 1
13.5149 0 1
13.6323 0 1
13.7497 0 1
13.8671 0 1
13.9845 0 1
14.1019 0 1
14.2193 0 1
14.3367 0 1
14.4541 0 1
14.5714 0 1
14.6888 0 1
14.8062 0 1
14.9235 0 1
15.0408 0 0
15.1581 0 0
15.2755 0 0
15.3927 0 0
15.51 0 0
15.6273 0 0
15.7445 0 0
15.8617 0 0
15.9789 0 0
16.0961 0 0
16.2132 0 0
16.3304 0 0
16.4475 0 0
16.5646 0 0
16.6816 0 0
16.7986 0 0
16.9156 0 0
17.0326 0 0
17.1496 0 0
17.2665 0 0
17.3833 0 0
17.5002 0 0
17.617 0 0
17.7338 0 0
17.8505 0 0
17.9672 0 0
18.0839 0 0
18.2005 0 0
18.3171 0 0
18.4337 0 0
18.5502 0 0
18.6666 0 0
18.7831 0 0
18.8994 0 0
19.0158 0 0
19.1321 0 0
19.2483 0 0
19.3645 0 0
19.4806 0 0
19.5967 0 0
19.7128 0 0
19.8288 0 0
19.9447 0 0
20.0606 0 1
20.1764 0 1
20.2922 0 1
20.4079 0 1
20.5236 0 1
20.6392 0 1
20.7548 0 1
20.8702 0 1
23.3078 0 1
23.4233 0 1
23.539 0 1
23.6547 0 1
23.7704 0 1
23.8862 0 1
24.0021 0 1
24.118 0 1
24.234 0 1
24.35 0 1
24.4661 11256 106.094
24.5822 11180 105.736
24.6984 11315 106.372
24.8146 11133 105.513
24.9309 10873 104.274
25.0472 10986 104.814
25.1636 11113 105.418
25.28 11311 106.353
25.3965 11733 108.319
25.513 12091 109.959
25.6296 12669 112.557
25.7462 13074 114.342
25.8628 13171 114.765
25.9795 13055 114.258
26.0962 13020 114.105
26.213 13138 114.621
26.3298 12583 112.174
26.4466 12262 110.734
26.5635 11936 109.252
26.6804 11639 107.884
26.7973 11381 106.682
26.9143 11659 107.977
27.0313 11871 108.954
27.1483 12443 111.548
27.2653 12419 111.441
27.3824 12869 113.442
27.4996 12697 112.681
27.6167 12323 111.009
27.7339 12440 111.535
27.8511 12132 110.145
27.9683 11687 108.106
28.0855 11707 108.199
28.2028 11257 106.099
28.3201 11110 105.404
28.4374 11037 105.057
28.5547 10785 103.851
28.6721 11016 104.957
28.7894 11333 106.457
28.9068 11467 107.084
29.0242 11557 107.503
29.1416 12078 109.9
29.259 12554 112.045
29.3764 12761 112.965
29.4939 12768 112.996
29.6113 12822 113.234
29.7288 12681 112.61
29.8463 12292 110.869
29.9638 11610 107.75
30.0812 11097 105.342
30.1987 10800 103.923
30.3162 10855 104.187
30.4337 11095 105.333
30.5512 11495 107.215
30.6687 11903 109.101
30.7862 11813 108.688
30.9037 12191 110.413
31.0212 12297 110.892
31.1387 12177 110.349
31.2562 12377 111.252
31.3737 12003 109.558
31.4912 11624 107.815
31.6087 11755 108.42
31.7262 11441 106.963
31.8436 11220 105.925
31.9611 10867 104.245
32.0785 10982 104.795
32.1959 10858 104.202
32.3134 11126 105.48
32.4308 11513 107.299
32.5482 11732 108.314
32.6655 12195 110.431
32.7829 12312 110.959
32.9002 12516 111.875
33.0176 12728 112.818
33.1349 12808 113.172
33.2522 12301 110.91
33.3694 12658 112.508
33.4867 12408 111.391
33.6039 11587 107.643
33.7211 10936 104.575
33.8383 10498 102.46
33.9554 10525 102.591
34.0725 10682 103.354
34.1896 11084 105.281
34.3067 11816 108.701
34.4237 11791 108.586
34.5407 12110 110.045
34.6577 12106 110.027
34.7746 12405 111.378
34.8915 11953 109.33
35.0084 11922 109.188
35.1252 11870 108.95
35.242 11567 107.55
35.3587 11324 106.414
35.4755 11202 105.84
35.5921 10925 104.523
35.7088 10791 103.88
35.8254 10716 103.518
35.9419 10597 102.942
36.0584 10886 104.336
36.1749 11270 106.16
36.2913 11709 108.208
36.4077 11737 108.337
36.524 12157 110.259
36.6403 12479 111.709
36.7565 12217 110.531
36.8727 12329 111.036
36.9889 12339 111.081
37.1049 11724 108.277
37.221 0 1
37.3369 0 1
37.4529 0 1
37.5687 0 1
37.6845 0 1
37.8003 0 1
37.916 0 1
38.0316 0 1
38.1472 0 1
40.5851 0 1
40.7008 0 1
40.8164 0 1
40.9322 0 1
41.048 0 1
41.1639 0 1
41.2798 0 1
41.3958 0 1
41.5118 0 1
41.6279 0 1
41.744 9368 96.7884
41.8602 9789 98.9394
41.9765 10083 100.414
42.0928 10197 100.98
42.2091 10123 100.613
42.3255 9545 97.6985
42.4419 9008 94.9105
42.5584 8372 91.4986
42.675 8141 90.2275
42.7915 8405 91.6788
42.9081 8614 92.8116
43.0248 9232 96.0833
43.1415 9570 97.8264
43.2582 9460 97.2625
43.375 9612 98.0408
43.4918 9859 99.2925
43.6087 9679 98.3819
43.7256 9454 97.2317
43.8425 9177 95.7967
43.9595 9133 95.5667
44.0765 8941 94.5569
44.1935 8615 92.817
44.3106 8356 91.4112
44.4277 8094 89.9667
44.5448 7613 87.2525
44.6619 7695 87.7211
44.7791 7799 88.3119
44.8963 7989 89.3812
45.0136 7959 89.2132
45.1308 8258 90.8735
45.2481 8533 92.3742
45.3654 8509 92.2442
45.4827 8668 93.1021
45.6001 8112 90.0666
45.7174 8417 91.7442
45.8348 8036 89.6437
45.9522 7462 86.3829
46.0697 6913 83.1445
46.1871 6416 80.0999
46.3046 6385 79.9062
46.422 6549 80.9259
46.5395 7010 83.7257
46.657 7304 85.4634
46.7745 7430 86.1974
46.892 7360 85.7904
47.0096 7582 87.0747
47.1271 7381 85.9127
47.2446 7267 85.2467
47.3622 7251 85.1528
47.4797 6904 83.0903
47.5973 6862 82.8372
47.7149 6719 81.9695
47.8324 6486 80.5357
47.95 6131 78.3007
48.0675 5927 76.987
48.1851 5647 75.1465
48.3027 5635 75.0666
48.4202 5884 76.7072
48.5378 6018 77.5758
48.6554 6337 79.6053
48.7729 6527 80.7899
48.8904 6635 81.4555
49.008 6607 81.2835
49.1255 6616 81.3388
49.243 6408 80.05
49.3605 6043 77.7367
49.478 5628 75.02
49.5955 5378 73.3348
49.713 4927 70.1926
49.8304 5013 70.8025
49.9479 5548 74.4849
50.0653 5921 76.948
50.1827 6288 79.2969
50.3001 6607 81.2835
50.4175 6729 82.0305
50.5348 6943 83.3247
50.6521 7177 84.7172
50.7694 7140 84.4985
50.8867 7209 84.9058
51.004 7269 85.2584
51.1212 7413 86.0988
51.2384 7334 85.6388
51.3556 7241 85.0941
51.4727 7135 84.4689
51.5899 6906 83.1023
51.707 7058 84.0119
51.824 7248 85.1352
51.9411 7661 87.5271
52.0581 8120 90.111
52.175 8741 93.4933
52.2919 8676 93.145
52.4088 9115 95.4725
52.5257 9287 96.3691
52.6425 9317 96.5246
52.7593 9522 97.5807
52.876 9231 96.0781
52.9927 8783 93.7177
53.1094 8172 90.3991
53.226 7465 86.4002
53.3426 7468 86.4176
53.4591 7613 87.2525
53.5756 8493 92.1575
53.692 9133 95.5667
53.8084 9530 97.6217
53.9248 9904 99.5188
54.0411 10160 100.797
54.1573 10473 102.338
54.2735 0 1
54.3896 0 1
54.5057 0 1
54.6217 0 1
54.7377 0 1
54.8537 0 1
54.9695 0 1
55.0853 0 1
55.2011 0 1
55.3168 0 1
55.4324 0 1
57.824 0 1
57.9396 0 1
58.0553 0 1
58.1711 0 1
58.2869 0 1
58.4028 0 1
58.5187 0 1
58.6347 0 1
58.7508 0 1
58.8669 0 1
58.983 11329 106.438
59.0992 12102 110.009
59.2155 12316 110.977
59.3318 12592 112.214
59.4482 12683 112.619
59.5646 12807 113.168
59.681 12498 111.794
59.7975 12266 110.752
59.9141 11941 109.275
60.0306 11625 107.819
60.1473 11076 105.243
60.2639 10773 103.793
60.3807 10577 102.845
60.4974 10510 102.518
60.6142 10817 104.005
60.731 11309 106.344
60.8479 11451 107.009
60.9648 11754 108.416
61.0818 12104 110.018
61.1987 11850 108.858
61.3158 11573 107.578
61.4328 11066 105.195
61.5499 10276 101.371
61.667 9550 97.7241
61.7841 9068 95.226
61.9013 8857 94.1116
62.0185 8983 94.7787
62.1357 9546 97.7036
62.253 10053 100.265
62.3702 10557 102.747
62.4875 10897 104.389
62.6049 11190 105.783
62.7222 11319 106.391
62.8396 11215 105.901
62.9569 11346 106.518
63.0743 11441 106.963
63.1918 11229 105.967
63.3092 11072 105.224
63.4267 10667 103.281
63.5441 10347 101.72
63.6616 9961 99.8048
63.7791 9438 97.1494
63.8966 9124 95.5196
64.0142 9654 98.2548
64.1317 9849 99.2421
64.2492 9987 99.935
64.3668 10308 101.528
64.4843 10587 102.893
64.6019 10857 104.197
64.7195 10543 102.679
64.837 10434 102.147
64.9546 10283 101.405
65.0722 9548 97.7139
65.1898 8649 93
65.3074 8287 91.033
65.4249 7735 87.9488
65.5425 7886 88.8032
65.6601 8271 90.945
65.7777 8846 94.0532
65.8952 9462 97.2728
66.0128 9749 98.737
66.1304 10093 100.464
66.2479 10451 102.23
66.3655 10546 102.694
66.483 10733 103.6
66.6005 10688 103.383
66.718 10727 103.571
66.8355 10519 102.562
66.953 10508 102.509
67.0705 10312 101.548
67.1879 9814 99.0656
67.3054 9284 96.3535
67.4228 8803 93.8243
67.5402 8957 94.6414
67.6576 9167 95.7445
67.7749 9782 98.904
67.8923 10087 100.434
68.0096 10639 103.146
68.1269 10826 104.048
68.2442 11040 105.071
68.3614 10890 104.355
68.4787 11277 106.193
68.5958 10706 103.47
68.713 10368 101.823
68.8302 9763 98.8079
68.9473 9410 97.0052
69.0643 8957 94.6414
69.1814 9163 95.7236
69.2984 9864 99.3177
69.4154 10641 103.155
69.5323 11417 106.85
69.6492 12291 110.865
69.7661 12848 113.349
69.8829 13535 116.34
69.9997 13914 117.958
70.1165 14445 120.187
70.2332 14761 121.495
70.3499 14735 121.388
70.4665 14887 122.012
70.5831 15000 122.474
70.6996 14752 121.458
70.8161 14692 121.211
70.9326 13787 117.418
71.049 13184 114.822
71.1653 13142 114.639
71.2817 13248 115.1
71.3979 13834 117.618
71.5141 14517 120.487
71.6303 14791 121.618
71.7464 14019 118.402
71.8624 0 1
71.9784 0 1
72.0944 0 1
72.2102 0 1
72.3261 0 1
72.4418 0 1
72.5575 0 1
72.6732 0 1
75.1054 0 1
75.2209 0 1
75.3365 0 1
75.4521 0 1
75.5678 0 1
75.6835 0 1
75.7993 0 1
75.9151 0 1
76.031 0 1
76.147 14665 121.099
76.263 15122 122.972
76.3791 14577 120.735
76.4952 13580 116.533
76.6113 13935 118.047
76.7276 14263 119.428
76.8438 15139 123.041
76.9601 15639 125.056
77.0765 15686 125.244
77.1929 15878 126.008
77.3093 15259 123.527
77.4258 15174 123.183
77.5423 14526 120.524
77.6589 13160 114.717
77.7755 12036 109.709
77.8921 10673 103.31
78.0088 9617 98.0663
78.1256 8985 94.7892
78.2423 8762 93.6056
78.3591 9939 99.6945
78.4759 10697 103.426
78.5928 11238 106.009
78.7097 11702 108.176
78.8266 11902 109.096
78.9436 12379 111.261
79.0606 12149 110.223
79.1776 12314 110.968
79.2946 12072 109.873
79.4117 11967 109.394
79.5288 11708 108.204
79.6459 11646 107.917
79.7631 10593 102.922
79.8802 10417 102.064
79.9974 9704 98.5089
80.1147 9172 95.7706
80.2319 8857 94.1116
80.3491 9150 95.6556
80.4664 9900 99.4987
80.5837 10129 100.643
80.701 10407 102.015
80.8183 10287 101.425
80.9357 10376 101.863
81.053 10460 102.274
81.1704 10077 100.384
81.2877 9732 98.6509
81.4051 8865 94.1541
81.5225 7943 89.1235
81.6399 7119 84.3742
81.7573 6970 83.4865
81.8747 6928 83.2346
81.9922 7416 86.1162
82.1096 8232 90.7304
82.227 8731 93.4398
82.3444 9189 95.8593
82.4619 9525 97.5961
82.5793 9733 98.656
82.6967 9774 98.8635
82.8142 9890 99.4485
82.9316 10021 100.105
83.049 10104 100.519
83.1664 9642 98.1937
83.2838 9706 98.519
83.4012 9341 96.6488
83.5186 8960 94.6573
83.636 8523 92.3201
83.7534 8020 89.5545
83.8708 8037 89.6493
83.9881 8478 92.0761
84.1055 9136 95.5824
84.2228 9743 98.7066
84.3401 9973 99.8649
84.4575 10342 101.696
84.5747 10534 102.635
84.692 10483 102.387
84.8093 10254 101.262
84.9265 9396 96.933
85.0437 8612 92.8009
85.1609 7938 89.0955
85.2781 7625 87.3212
85.3952 7312 85.5102
85.5123 7717 87.8465
85.6294 8893 94.3027
85.7465 9855 99.2724
85.8636 10365 101.809
85.9806 10969 104.733
86.0976 11455 107.028
86.2145 12261 110.729
86.3315 12422 111.454
86.4484 12816 113.208
86.5652 12735 112.849
86.682 12863 113.415
86.7988 12610 112.294
86.9156 12325 111.018
87.0323 12237 110.621
87.149 11654 107.954
87.2657 10970 104.738
87.3823 11000 104.881
87.4988 11152 105.603
87.6154 11881 109
87.7318 12613 112.308
87.8483 13130 114.586
87.9647 13537 116.349
88.081 13680 116.962
88.1973 13652 116.842
88.3136 13370 115.629
88.4298 12334 111.059
88.546 11274 106.179
88.6621 10487 102.406
88.7781 9663 98.3006
88.8942 0 1
89.0101 0 1
89.126 0 1
89.2419 0 1
89.3577 0 1
89.4734 0 1
89.5891 0 1
89.7047 0 1
89.8203 0 1
89.9358 0 1
92.3269 0 1
92.4424 0 1
92.558 0 1
92.6736 0 1
92.7893 0 1
92.905 0 1
93.0208 0 1
93.1366 0 1
93.2525 0 1
93.3685 0 1
93.4845 0 1
93.6005 12299 110.901
93.7167 12292 110.869
93.8328 11746 108.379
93.949 10962 104.7
94.0653 9933 99.6644
94.1816 9184 95.8332
94.2979 8817 93.8989
94.4143 8435 91.8423
94.5307 8662 93.0699
94.6472 9555 97.7497
94.7637 9944 99.7196
94.8803 10590 102.908
94.9969 11064 105.186
95.1135 11410 106.818
95.2302 11669 108.023
95.3469 11901 109.092
95.4637 12307 110.937
95.5805 12217 110.531
95.6973 12422 111.454
95.8142 12306 110.932
95.9311 12066 109.845
96.048 11801 108.632
96.1649 11562 107.527
96.2819 11002 104.89
96.3989 10410 102.029
96.516 10212 101.054
96.633 10255 101.267
96.7501 10620 103.053
96.8673 10965 104.714
96.9844 11637 107.875
97.1016 11939 109.266
97.2188 11937 109.257
97.336 11663 107.995
97.4532 11666 108.009
97.5704 10583 102.874
97.6877 9895 99.4736
97.805 8972 94.7206
97.9223 8376 91.5205
98.0396 8216 90.6422
98.1569 8140 90.2219
98.2743 8584 92.6499
98.3916 9276 96.312
98.509 10154 100.767
98.6264 10488 102.411
98.7438 11075 105.238
98.8612 11465 107.075
98.9786 11786 108.563
99.096 12014 109.608
99.2134 11916 109.16
99.3308 12248 110.671
99.4482 12139 110.177
99.5656 11973 109.421
99.6831 11957 109.348
99.8005 11204 105.849
99.9179 10898 104.393
100.035 10502 102.479
100.153 10185 100.921
100.27 10698 103.431
100.388 11258 106.104
100.505 11605 107.727
100.622 11757 108.43
100.74 12021 109.64
100.857 12008 109.581
100.975 11812 108.683
101.092 11437 106.944
101.209 10650 103.199
101.327 9776 98.8737
101.444 9089 95.3362
101.561 8550 92.4662
101.679 8359 91.4276
101.796 8406 91.6842
101.913 9073 95.2523
102.03 10112 100.558
102.148 10849 104.159
102.265 12005 109.567
102.382 11025 105
102.499 12030 109.681
102.616 12317 110.982
102.733 12482 111.723
102.851 12673 112.574
102.968 12541 111.987
103.085 12732 112.836
103.202 12417 111.432
103.319 12116 110.073
103.436 11597 107.689
103.552 11279 106.203
103.669 10716 103.518
103.786 11131 105.504
103.903 11842 108.821
104.02 12270 110.77
104.137 12682 112.614
104.253 13203 114.904
104.37 12237 110.621
104.487 12935 113.732
104.603 12352 111.14
104.72 11303 106.316
104.836 10591 102.913
104.953 9848 99.2371
105.069 9355 96.7212
105.186 8927 94.4828
105.302 9159 95.7027
105.418 10291 101.445
105.535 11286 106.236
105.651 12018 109.627
105.767 12429 111.485
105.883 12750 112.916
105.999 13216 114.961
106.115 0 1
106.231 0 1
106.347 0 1
106.463 0 1
106.579 0 1
106.694 0 1
106.81 0 1
106.926 0 1
107.041 0 1
107.157 0 1
109.576 0 1
109.692 0 1
109.807 0 1
109.923 0 1
110.039 0 1
110.155 0 1
110.27 0 1
110.386 0 1
110.502 0 1
110.618 10733 103.6
110.735 11612 107.759
110.851 12215 110.521
110.967 12586 112.187
111.083 12846 113.34
111.199 13181 114.809
111.316 12947 113.785
111.432 13471 116.065
111.549 13207 114.922
111.665 13171 114.765
111.782 12769 113
111.898 12359 111.171
112.015 11750 108.397
112.132 11513 107.299
112.248 11139 105.541
112.365 11753 108.411
112.482 12359 111.171
112.599 12568 112.107
112.716 12889 113.53
112.832 12746 112.898
112.949 12833 113.283
113.066 12474 111.687
113.183 12074 109.882
113.3 10948 104.633
113.417 10186 100.926
113.534 9600 97.9796
113.652 8936 94.5304
113.769 8534 92.3797
113.886 9123 95.5144
114.003 9502 97.4782
114.12 10342 101.696
114.238 10929 104.542
114.355 11304 106.32
114.472 12350 111.131
114.589 11490 107.191
114.707 12293 110.874
114.824 12568 112.107
114.942 12617 112.325
115.059 12901 113.583
115.176 12641 112.432
115.294 12775 113.027
115.411 12366 111.203
115.529 11941 109.275
115.646 11532 107.387
115.764 11302 106.311
115.881 11635 107.866
115.999 11963 109.375
116.116 12395 111.333
116.234 12826 113.252
116.351 12754 112.934
116.469 12742 112.88
116.586 12855 113.38
116.704 12578 112.152
116.821 11808 108.665
116.939 10785 103.851
117.056 10130 100.648
117.174 9430 97.1082
117.291 8958 94.6467
117.409 8695 93.247
117.526 9402 96.9639
117.644 10170 100.846
117.761 10886 104.336
117.879 11525 107.355
117.996 11826 108.747
118.114 12137 110.168
118.231 12524 111.911
118.349 12709 112.734
118.466 12877 113.477
118.584 12850 113.358
118.701 13110 114.499
118.819 12861 113.406
118.936 12793 113.106
119.053 12396 111.337
119.171 12016 109.618
119.288 11562 107.527
119.405 11376 106.658
119.523 11759 108.439
119.64 12001 109.549
119.757 12451 111.584
119.875 12585 112.183
119.992 12539 111.978
120.109 12740 112.872
120.226 12638 112.419
120.343 12668 112.552
120.46 11891 109.046
120.578 11270 106.16
120.695 10336 101.666
120.812 10013 100.065
120.929 9251 96.1821
121.046 9147 95.6399
121.163 9291 96.3898
121.279 9862 99.3076
121.396 10722 103.547
121.513 10989 104.828
121.63 11469 107.093
121.747 11993 109.513
121.863 12303 110.919
121.98 12365 111.198
122.097 12699 112.69
122.213 12903 113.591
122.33 12844 113.331
122.446 12988 113.965
122.563 12743 112.885
122.679 12809 113.177
122.795 12432 111.499
122.912 11993 109.513
123.028 11539 107.42
123.144 11131 105.504
123.26 11542 107.434
123.377 0 1
123.493 0 1
123.609 0 1
123.725 0 1
123.84 0 1
123.956 0 1
124.072 0 1
124.188 0 1
124.303 0 1
124.419 0 1
126.852 0 1
126.968 0 1
127.083 0 1
127.199 0 1
127.315 0 1
127.431 0 1
127.547 0 1
127.663 0 1
127.779 0 1
127.895 0 1
128.011 0 1
128.127 0 1
128.243 0 1
128.359 13447 115.961
128.476 13978 118.229
128.592 14611 120.876
128.708 15056 122.703
128.825 15435 124.238
128.941 15496 124.483
129.058 15323 123.786
129.174 15276 123.596
129.291 14833 121.791
129.408 14193 119.134
129.524 13245 115.087
129.641 12617 112.325
129.758 11829 108.761
129.875 11417 106.85
129.992 11131 105.504
130.108 11633 107.856
130.225 12021 109.64
130.342 12673 112.574
130.459 13087 114.398
130.576 14101 118.748
130.693 14258 119.407
130.81 14329 119.704
130.928 14544 120.599
131.045 14745 121.429
131.162 15194 123.264
131.279 15045 122.658
131.396 15328 123.806
131.513 14823 121.75
131.631 14557 120.652
131.748 14418 120.075
131.865 14054 118.55
131.983 14235 119.311
132.1 14490 120.374
132.217 15085 122.821
132.335 15480 124.419
132.452 15052 122.687
132.57 15373 123.988
132.687 14816 121.721
132.804 15645 125.08
132.922 14272 119.465
133.039 13535 116.34
133.157 12883 113.503
133.274 12234 110.607
133.392 11654 107.954
133.509 11176 105.717
133.627 11323 106.41
133.744 11765 108.467
133.862 12398 111.346
133.979 13138 114.621
134.097 13316 115.395
134.214 13896 117.881
134.332 13893 117.869
134.449 14354 119.808
134.567 14588 120.781
134.684 14713 121.297
134.802 14649 121.033
134.919 14924 122.164
135.037 14806 121.68
135.154 14462 120.258
135.272 14203 119.176
135.389 13927 118.013
135.507 13899 117.894
135.624 14066 118.6
135.742 14537 120.569
135.859 14714 121.301
135.977 14977 122.381
136.094 15282 123.62
136.211 15110 122.923
136.329 15110 122.923
136.446 14627 120.942
136.564 14251 119.378
136.681 13278 115.23
136.798 12909 113.618
136.915 12277 110.802
137.033 11524 107.35
137.15 11314 106.367
137.267 11199 105.825
137.384 11810 108.674
137.502 12057 109.804
137.619 12711 112.743
137.736 12999 114.013
137.853 13176 114.787
137.97 13998 118.313
138.087 13633 116.76
138.204 14289 119.537
138.321 14537 120.569
138.438 14594 120.806
138.555 14904 122.082
138.672 14847 121.848
138.788 14607 120.859
138.905 14457 120.237
139.022 14116 118.811
139.139 14069 118.613
139.255 14571 120.71
139.372 14842 121.828
139.488 15125 122.984
139.605 15323 123.786
139.721 15691 125.264
139.838 15305 123.713
139.954 15346 123.879
140.071 15160 123.126
140.187 14794 121.631
140.303 13701 117.051
140.419 13552 116.413
140.535 12626 112.365
140.652 12108 110.036
140.768 0 1
140.884 0 1
141 0 1
141.115 0 1
141.231 0 1
141.347 0 1
141.463 0 1
141.578 0 1
141.694 0 1
144.104 0 1
144.219 0 1
144.335 0 1
144.45 0 1
144.566 0 1
144.682 0 1
144.798 0 1
144.914 0 1
145.03 0 1
145.146 13905 117.919
145.262 13687 116.991
145.378 12723 112.796
145.494 12490 111.759
145.61 12229 110.585
145.726 11737 108.337
145.842 11435 106.935
145.959 11590 107.657
146.075 11775 108.513
146.192 12529 111.933
146.308 12669 112.557
146.425 13063 114.293
146.541 13255 115.13
146.658 13535 116.34
146.774 13691 117.009
146.891 14006 118.347
147.008 14178 119.071
147.125 14636 120.979
147.241 14530 120.54
147.358 14151 118.958
147.475 14028 118.44
147.592 13614 116.679
147.709 13471 116.065
147.826 13541 116.366
147.943 13758 117.295
148.06 13873 117.784
148.177 14581 120.752
148.294 14392 119.967
148.411 14433 120.137
148.528 14510 120.457
148.645 14225 119.269
148.762 14095 118.722
148.88 13701 117.051
148.997 12718 112.774
149.114 12608 112.285
149.231 11915 109.156
149.349 11532 107.387
149.466 11018 104.967
149.583 11029 105.019
149.701 11284 106.226
149.818 11953 109.33
149.935 11911 109.138
150.053 12221 110.549
150.17 12262 110.734
150.287 12486 111.741
150.405 13036 114.175
150.522 13269 115.191
150.64 13316 115.395
150.757 13763 117.316
150.875 13595 116.598
150.992 13865 117.75
151.11 13353 115.555
151.227 12759 112.956
151.344 12584 112.178
151.462 12591 112.21
151.579 13341 115.503
151.697 13437 115.918
151.814 13804 117.49
151.932 13916 117.966
152.049 13849 117.682
152.167 13976 118.22
152.284 13912 117.949
152.402 13540 116.362
152.519 13111 114.503
152.636 12554 112.045
152.754 12230 110.589
152.871 11880 108.995
152.989 11558 107.508
153.106 11062 105.176
153.223 10870 104.259
153.341 11237 106.005
153.458 11561 107.522
153.575 11812 108.683
153.693 11943 109.284
153.81 12238 110.625
153.927 12544 112
154.044 12877 113.477
154.162 13120 114.543
154.279 13693 117.017
154.396 13871 117.775
154.513 13949 118.106
154.63 13894 117.873
154.747 13735 117.196
154.864 13216 114.961
154.981 13030 114.149
155.098 13041 114.197
155.215 13118 114.534
155.332 13979 118.233
155.449 14015 118.385
155.566 13967 118.182
155.683 14172 119.046
155.8 14199 119.16
155.917 14056 118.558
156.033 14002 118.33
156.15 0 1
156.267 0 1
156.383 0 1
156.5 0 1
156.617 0 1
156.733 0 1
156.85 0 1
156.966 0 1
157.082 0 1
157.199 0 1
157.315 0 1
157.431 0 1
157.547 0 1
157.664 0 1
157.78 0 1
157.896 0 1
158.012 0 1
158.128 0 1
158.244 0 1
158.359 0 1
158.475 0 1
158.591 0 1
158.706 0 1
