
6.15755 0 1
6.2731 0 1
6.3887 0 1
6.50437 0 1
6.62009 0 1
6.73587 0 1
6.8517 0 1
6.96759 0 1
7.08353 0 1
7.19952 0 1
7.31557 0 1
7.43166 0 1
7.54781 0 1
7.664 0 1
7.78024 0 1
7.89653 0 1
8.01286 0 1
8.12924 0 1
8.24567 0 1
8.36213 0 1
8.47864 0 1
8.59519 0 1
8.71178 0 1
8.82841 0 1
8.94508 0 1
9.06179 0 1
9.17853 0 1
9.29531 0 1
9.41212 0 1
9.52897 0 1
9.64584 0 1
9.76276 0 1
9.8797 0 1
9.99667 0 1
10.1137 0 1
10.2307 0 1
10.3478 0 1
10.4648 0 1
10.5819 0 1
10.6991 0 1
10.8162 0 1
10.9334 0 1
11.0506 0 1
11.1678 0 1
11.285 0 1
11.4023 0 1
11.5196 0 1
11.6369 0 1
11.7542 0 1
11.8715 0 1
11.9888 0 1
12.1062 0 1
12.2235 0 1
12.3409 0 1
12.4582 0 1
12.5756 0 1
12.693 0 1
12.8104 0 1
12.9278 0 1
13.0452 0 1
13.1626 0 1
13.28 0 1
13.3974 0 1
13.5149 0 1
13.6323 0 1
13.7497 0 1
13.8671 0 1
13.9845 0 1
14.1019 0 1
14.2193 0 1
14.3367 0 1
14.4541 0 1
14.5714 0 1
14.6888 0 1
14.8062 0 1
14.9235 0 1
15.0408 13461 116.022
15.1581 14561 120.669
15.2755 15154 123.102
15.3927 15172 123.175
15.51 15466 124.362
15.6273 15120 122.963
15.7445 14926 122.172
15.8617 14610 120.872
15.9789 14140 118.912
16.0961 13857 117.716
16.2132 13178 114.795
16.3304 12933 113.723
16.4475 13266 115.178
16.5646 13362 115.594
16.6816 13161 114.721
16.7986 13291 115.287
16.9156 13086 114.394
17.0326 12818 113.217
17.1496 12687 112.637
17.2665 12386 111.292
17.3833 12242 110.644
17.5002 12498 111.794
17.617 12598 112.241
17.7338 12568 112.107
17.8505 13003 114.031
17.9672 13272 115.204
18.0839 13367 115.616
18.2005 13776 117.371
18.3171 13956 118.136
18.4337 14091 118.706
18.5502 14314 119.641
18.6666 14177 119.067
18.7831 14491 120.379
18.8994 14163 119.008
19.0158 13653 116.846
19.1321 13074 114.342
19.2483 12267 110.756
19.3645 11525 107.355
19.4806 10618 103.044
19.5967 9567 97.811
19.7128 8904 94.361
19.8288 8310 91.1592
19.9447 7578 87.0517
20.0606 0 1
20.1764 0 1
20.2922 0 1
20.4079 0 1
20.5236 0 1
20.6392 0 1
20.7548 0 1
20.8702 0 1
23.3078 0 1
23.4233 0 1
23.539 0 1
23.6547 0 1
23.7704 0 1
23.8862 0 1
24.0021 0 1
24.118 0 1
24.234 0 1
24.35 0 1
24.4661 6037 77.6981
24.5822 6519 80.7403
24.6984 7024 83.8093
24.8146 7208 84.8999
24.9309 7710 87.8066
25.0472 8273 90.956
25.1636 9142 95.6138
25.28 10018 100.09
25.3965 10780 103.827
25.513 11742 108.361
25.6296 12594 112.223
25.7462 12887 113.521
25.8628 13435 115.909
25.9795 13670 116.919
26.0962 13893 117.869
26.213 13942 118.076
26.3298 13545 116.383
26.4466 13322 115.421
26.5635 12653 112.486
26.6804 12573 112.129
26.7973 12833 113.283
26.9143 13154 114.691
27.0313 12923 113.679
27.1483 13057 114.267
27.2653 13270 115.195
27.3824 13471 116.065
27.4996 13384 115.689
27.6167 13225 115
27.7339 13019 114.101
27.8511 12918 113.657
27.9683 12126 110.118
28.0855 11890 109.041
28.2028 11322 106.405
28.3201 10707 103.475
28.4374 10231 101.148
28.5547 10000 100
28.6721 10303 101.504
28.7894 10836 104.096
28.9068 11823 108.734
29.0242 11847 108.844
29.1416 12261 110.729
29.259 12599 112.245
29.3764 12257 110.711
29.4939 12460 111.624
29.6113 12544 112
29.7288 12716 112.765
29.8463 12514 111.866
29.9638 12265 110.747
30.0812 12018 109.627
30.1987 12018 109.627
30.3162 12238 110.625
30.4337 12497 111.79
30.5512 12816 113.208
30.6687 12879 113.486
30.7862 12682 112.614
30.9037 13024 114.123
31.0212 13034 114.167
31.1387 13044 114.21
31.2562 12445 111.557
31.3737 12412 111.409
31.4912 12073 109.877
31.6087 11644 107.907
31.7262 11034 105.043
31.8436 10446 102.206
31.9611 9836 99.1766
32.0785 9948 99.7397
32.1959 10229 101.139
32.3134 10744 103.653
32.4308 11305 106.325
32.5482 11711 108.217
32.6655 11857 108.89
32.7829 11930 109.225
32.9002 12010 109.59
33.0176 11891 109.046
33.1349 12131 110.141
33.2522 12197 110.44
33.3694 12150 110.227
33.4867 12092 109.964
33.6039 11911 109.138
33.7211 11679 108.069
33.8383 11623 107.81
33.9554 11881 109
34.0725 12214 110.517
34.1896 12572 112.125
34.3067 12671 112.566
34.4237 12648 112.463
34.5407 12830 113.27
34.6577 12745 112.894
34.7746 12605 112.272
34.8915 12491 111.763
35.0084 12110 110.045
35.1252 11656 107.963
35.242 11327 106.428
35.3587 11302 106.311
35.4755 10484 102.391
35.5921 9833 99.1615
35.7088 9342 96.654
35.8254 9522 97.5807
35.9419 9622 98.0918
36.0584 10142 100.707
36.1749 10908 104.441
36.2913 10745 103.658
36.4077 10898 104.393
36.524 10832 104.077
36.6403 10631 103.107
36.7565 10385 101.907
36.8727 10315 101.563
36.9889 9832 99.1564
37.1049 9013 94.9368
37.221 0 1
37.3369 0 1
37.4529 0 1
37.5687 0 1
37.6845 0 1
37.8003 0 1
37.916 0 1
38.0316 0 1
38.1472 0 1
40.5851 0 1
40.7008 0 1
40.8164 0 1
40.9322 0 1
41.048 0 1
41.1639 0 1
41.2798 0 1
41.3958 0 1
41.5118 0 1
41.6279 0 1
41.744 5624 74.9933
41.8602 6234 78.9557
41.9765 6930 83.2466
42.0928 7237 85.0706
42.2091 7498 86.591
42.3255 7977 89.3141
42.4419 8183 90.4599
42.5584 8555 92.4932
42.675 9178 95.8019
42.7915 9489 97.4115
42.9081 10555 102.738
43.0248 10950 104.642
43.1415 10982 104.795
43.2582 11018 104.967
43.375 11408 106.808
43.4918 11324 106.414
43.6087 11392 106.733
43.7256 11399 106.766
43.8425 11183 105.75
43.9595 11092 105.319
44.0765 10898 104.393
44.1935 10596 102.937
44.3106 10074 100.369
44.4277 9387 96.8865
44.5448 8926 94.4775
44.6619 8989 94.8103
44.7791 9281 96.3379
44.8963 9951 99.7547
45.0136 10524 102.587
45.1308 10971 104.743
45.2481 11002 104.89
45.3654 10975 104.762
45.4827 11346 106.518
45.6001 11428 106.902
45.7174 11176 105.717
45.8348 11529 107.373
45.9522 11077 105.247
46.0697 11012 104.938
46.1871 10935 104.571
46.3046 11142 105.556
46.422 11590 107.657
46.5395 11718 108.25
46.657 12299 110.901
46.7745 12413 111.414
46.892 12593 112.219
47.0096 12707 112.725
47.1271 12935 113.732
47.2446 12937 113.741
47.3622 12814 113.199
47.4797 12532 111.946
47.5973 12040 109.727
47.7149 11690 108.12
47.8324 11584 107.629
47.95 10975 104.762
48.0675 9783 98.909
48.1851 9830 99.1464
48.3027 10143 100.712
48.4202 10788 103.865
48.5378 11368 106.621
48.6554 12000 109.545
48.7729 12051 109.777
48.8904 12192 110.417
49.008 12310 110.95
49.1255 12241 110.639
49.243 12377 111.252
49.3605 11979 109.449
49.478 12096 109.982
49.5955 11711 108.217
49.713 11809 108.669
49.8304 12096 109.982
49.9479 12606 112.276
50.0653 13158 114.708
50.1827 13672 116.927
50.3001 13663 116.889
50.4175 13631 116.752
50.5348 13841 117.648
50.6521 14269 119.453
50.7694 14093 118.714
50.8867 13900 117.898
51.004 13934 118.042
51.1212 13416 115.827
51.2384 12988 113.965
51.3556 12283 110.829
51.4727 11345 106.513
51.5899 10734 103.605
51.707 11092 105.319
51.824 11320 106.395
51.9411 12319 110.991
52.0581 13423 115.858
52.175 13746 117.243
52.2919 13788 117.422
52.4088 13548 116.396
52.5257 13782 117.397
52.6425 14184 119.097
52.7593 13934 118.042
52.876 13927 118.013
52.9927 13913 117.953
53.1094 13517 116.263
53.226 13532 116.327
53.3426 13407 115.789
53.4591 13669 116.914
53.5756 13807 117.503
53.692 13874 117.788
53.8084 13521 116.28
53.9248 13374 115.646
54.0411 12858 113.393
54.1573 12370 111.221
54.2735 0 1
54.3896 0 1
54.5057 0 1
54.6217 0 1
54.7377 0 1
54.8537 0 1
54.9695 0 1
55.0853 0 1
55.2011 0 1
55.3168 0 1
55.4324 0 1
57.824 0 1
57.9396 0 1
58.0553 0 1
58.1711 0 1
58.2869 0 1
58.4028 0 1
58.5187 0 1
58.6347 0 1
58.7508 0 1
58.8669 0 1
58.983 10891 104.36
59.0992 12701 112.699
59.2155 14289 119.537
59.3318 15794 125.674
59.4482 17183 131.084
59.5646 18534 136.14
59.681 19753 140.545
59.7975 20133 141.891
59.9141 20013 141.467
60.0306 20124 141.859
60.1473 19290 138.888
60.2639 18413 135.695
60.3807 17829 133.525
60.4974 18234 135.033
60.6142 19254 138.759
60.731 20732 143.986
60.8479 22231 149.101
60.9648 23023 151.733
61.0818 23613 153.665
61.1987 23833 154.379
61.3158 24185 155.515
61.4328 24084 155.19
61.5499 24152 155.409
61.667 24363 156.087
61.7841 24046 155.068
61.9013 23672 153.857
62.0185 23812 154.311
62.1357 24135 155.354
62.253 24733 157.267
62.3702 25476 159.612
62.4875 25647 160.147
62.6049 26165 161.756
62.7222 26528 162.874
62.8396 27075 164.545
62.9569 27239 165.042
63.0743 27495 165.816
63.1918 27141 164.745
63.3092 26136 161.666
63.4267 25751 160.471
63.5441 23800 154.272
63.6616 22537 150.123
63.7791 20146 141.937
63.8966 19272 138.824
64.0142 19304 138.939
64.1317 20817 144.281
64.2492 22829 151.093
64.3668 24278 155.814
64.4843 25271 158.969
64.6019 25607 160.022
64.7195 25834 160.73
64.837 26399 162.478
64.9546 26258 162.043
65.0722 26310 162.204
65.1898 26087 161.515
65.3074 26133 161.657
65.4249 26028 161.332
65.5425 25415 159.421
65.6601 25318 159.116
65.7777 25833 160.726
65.8952 26610 163.126
66.0128 26752 163.56
66.1304 27762 166.619
66.2479 28133 167.729
66.3655 29136 170.693
66.483 28941 170.121
66.6005 29132 170.681
66.718 28726 169.487
66.8355 28385 168.478
66.953 27284 165.179
67.0705 25989 161.211
67.1879 24304 155.897
67.3054 21720 147.377
67.4228 19667 140.239
67.5402 19120 138.275
67.6576 19978 141.344
67.7749 21731 147.414
67.8923 23890 154.564
68.0096 25687 160.272
68.1269 26555 162.957
68.2442 26873 163.93
68.3614 27075 164.545
68.4787 27301 165.23
68.5958 27128 164.706
68.713 27110 164.651
68.8302 26925 164.088
68.9473 26341 162.299
69.0643 26023 161.316
69.1814 25814 160.667
69.2984 25659 160.184
69.4154 25787 160.583
69.5323 26462 162.671
69.6492 26574 163.015
69.7661 27268 165.13
69.8829 27933 167.132
69.9997 27569 166.039
70.1165 27703 166.442
70.2332 27421 165.593
70.3499 26982 164.262
70.4665 25584 159.95
70.5831 23966 154.81
70.6996 22520 150.067
70.8161 20338 142.611
70.9326 17214 131.202
71.049 13865 117.75
71.1653 11293 106.269
71.2817 10493 102.435
71.3979 10294 101.459
71.5141 10355 101.76
71.6303 10046 100.23
71.7464 9342 96.654
71.8624 0 1
71.9784 0 1
72.0944 0 1
72.2102 0 1
72.3261 0 1
72.4418 0 1
72.5575 0 1
72.6732 0 1
75.1054 0 1
75.2209 0 1
75.3365 0 1
75.4521 0 1
75.5678 0 1
75.6835 0 1
75.7993 0 1
75.9151 0 1
76.031 0 1
76.147 13853 117.699
76.263 14282 119.507
76.3791 13955 118.131
76.4952 13606 116.645
76.6113 14884 122
76.7276 16959 130.227
76.8438 19409 139.316
76.9601 21351 146.12
77.0765 22952 151.499
77.1929 23683 153.893
77.3093 24137 155.361
77.4258 24243 155.702
77.5423 24516 156.576
77.6589 23985 154.871
77.7755 24221 155.631
77.8921 23754 154.123
78.0088 23337 152.765
78.1256 23001 151.661
78.2423 22714 150.712
78.3591 22733 150.775
78.4759 23235 152.43
78.5928 23713 153.99
78.7097 24309 155.913
78.8266 24407 156.227
78.9436 26223 161.935
79.0606 25866 160.829
79.1776 25714 160.356
79.2946 26218 161.92
79.4117 26481 162.73
79.5288 25696 160.3
79.6459 24763 157.363
79.7631 22942 151.466
79.8802 20988 144.872
79.9974 18675 136.657
80.1147 16918 130.069
80.2319 16720 129.306
80.3491 18451 135.834
80.4664 20550 143.353
80.5837 22970 151.559
80.701 23809 154.302
80.8183 24332 155.987
80.9357 24898 157.791
81.053 24633 156.949
81.1704 25376 159.298
81.2877 25454 159.543
81.4051 25250 158.902
81.5225 25082 158.373
81.6399 24096 155.229
81.7573 24461 156.4
81.8747 23629 153.717
81.9922 24075 155.161
82.1096 24198 155.557
82.227 24720 157.226
82.3444 24892 157.772
82.4619 25918 160.991
82.5793 26279 162.108
82.6967 27245 165.061
82.8142 27118 164.675
82.9316 27378 165.463
83.049 27447 165.671
83.1664 26621 163.159
83.2838 25378 159.305
83.4012 24027 155.006
83.5186 21918 148.047
83.636 19460 139.499
83.7534 17240 131.301
83.8708 16940 130.154
83.9881 18413 135.695
84.1055 20370 142.724
84.2228 22489 149.963
84.3401 24466 156.416
84.4575 25246 158.89
84.5747 26244 162
84.692 26279 162.108
84.8093 26065 161.447
84.9265 25891 160.907
85.0437 25580 159.937
85.1609 25384 159.324
85.2781 24750 157.321
85.3952 24662 157.041
85.5123 24099 155.239
85.6294 24328 155.974
85.7465 24210 155.596
85.8636 25073 158.345
85.9806 25939 161.056
86.0976 26686 163.359
86.2145 27066 164.517
86.3315 27978 167.266
86.4484 27165 164.818
86.5652 27913 167.072
86.682 27360 165.409
86.7988 26780 163.646
86.9156 25410 159.405
87.0323 23808 154.298
87.149 21702 147.316
87.2657 18977 137.757
87.3823 17403 131.92
87.4988 17677 132.955
87.6154 19162 138.427
87.7318 20752 144.056
87.8483 22551 150.17
87.9647 22603 150.343
88.081 22879 151.258
88.1973 22431 149.77
88.3136 21359 146.147
88.4298 19741 140.503
88.546 17283 131.465
88.6621 14631 120.959
88.7781 12541 111.987
88.8942 0 1
89.0101 0 1
89.126 0 1
89.2419 0 1
89.3577 0 1
89.4734 0 1
89.5891 0 1
89.7047 0 1
89.8203 0 1
89.9358 0 1
92.3269 0 1
92.4424 0 1
92.558 0 1
92.6736 0 1
92.7893 0 1
92.905 0 1
93.0208 0 1
93.1366 0 1
93.2525 0 1
93.3685 0 1
93.4845 0 1
93.6005 18088 134.492
93.7167 19473 139.546
93.8328 21258 145.801
93.949 22464 149.88
94.0653 23931 154.696
94.1816 24837 157.598
94.2979 25864 160.823
94.4143 25895 160.919
94.5307 26321 162.237
94.6472 25937 161.05
94.7637 26085 161.509
94.8803 26598 163.089
94.9969 26671 163.313
95.1135 27163 164.812
95.2302 28247 168.068
95.3469 28724 169.482
95.4637 29274 171.096
95.5805 28974 170.218
95.6973 28913 170.038
95.8142 28094 167.613
95.9311 27188 164.888
96.048 25744 160.449
96.1649 24413 156.247
96.2819 22441 149.803
96.3989 21240 145.739
96.516 20520 143.248
96.633 20305 142.496
96.7501 21150 145.43
96.8673 23235 152.43
96.9844 25051 158.275
97.1016 25859 160.807
97.2188 27173 164.842
97.336 26999 164.314
97.4532 27591 166.105
97.5704 27406 165.548
97.6877 26633 163.196
97.805 26531 162.883
97.9223 26017 161.298
98.0396 25482 159.631
98.1569 25439 159.496
98.2743 25599 159.997
98.3916 25596 159.987
98.509 26394 162.462
98.6264 27289 165.194
98.7438 28024 167.404
98.8612 28709 169.437
98.9786 29502 171.761
99.096 29601 172.049
99.2134 29700 172.337
99.3308 29578 171.983
99.4482 28878 169.935
99.5656 27711 166.466
99.6831 26073 161.471
99.8005 25042 158.247
99.9179 23107 152.01
100.035 21990 148.29
100.153 22343 149.476
100.27 22979 151.588
100.388 24736 157.277
100.505 26184 161.815
100.622 26923 164.082
100.74 27548 165.976
100.857 27760 166.613
100.975 27867 166.934
101.092 27809 166.76
101.209 27651 166.286
101.327 27515 165.876
101.444 27028 164.402
101.561 26636 163.205
101.679 26411 162.515
101.796 25933 161.037
101.913 26457 162.656
102.03 27420 165.59
102.148 27736 166.541
102.265 29231 170.971
102.382 28472 168.736
102.499 29647 172.183
102.616 30079 173.433
102.733 30319 174.124
102.851 29886 172.876
102.968 29311 171.205
103.085 28182 167.875
103.202 27024 164.39
103.319 24952 157.962
103.436 23831 154.373
103.552 22401 149.67
103.669 22508 150.027
103.786 22905 151.344
103.903 24663 157.045
104.02 25838 160.742
104.137 27114 164.663
104.253 27822 166.799
104.37 27565 166.027
104.487 27886 166.991
104.603 27376 165.457
104.72 27100 164.621
104.836 25997 161.236
104.953 24976 158.038
105.069 24104 155.255
105.186 23306 152.663
105.302 22862 151.202
105.418 21871 147.888
105.535 21717 147.367
105.651 21316 146
105.767 19867 140.95
105.883 18181 134.837
105.999 16093 126.858
106.115 0 1
106.231 0 1
106.347 0 1
106.463 0 1
106.579 0 1
106.694 0 1
106.81 0 1
106.926 0 1
107.041 0 1
107.157 0 1
109.576 0 1
109.692 0 1
109.807 0 1
109.923 0 1
110.039 0 1
110.155 0 1
110.27 0 1
110.386 0 1
110.502 0 1
110.618 12567 112.103
110.735 15100 122.882
110.851 17534 132.416
110.967 19766 140.592
111.083 21686 147.262
111.199 23467 153.189
111.316 24748 157.315
111.432 25657 160.178
111.549 26666 163.297
111.665 26445 162.619
111.782 25639 160.122
111.898 24670 157.067
112.015 23275 152.561
112.132 21288 145.904
112.248 19780 140.641
112.365 19966 141.301
112.482 21732 147.418
112.599 23540 153.428
112.716 24715 157.21
112.832 24963 157.997
112.949 24802 157.487
113.066 25110 158.461
113.183 25029 158.206
113.3 25269 158.962
113.417 24531 156.624
113.534 23877 154.522
113.652 23243 152.457
113.769 22665 150.549
113.886 22487 149.957
114.003 22607 150.356
114.12 23282 152.584
114.238 24166 155.454
114.355 25041 158.243
114.472 25783 160.571
114.589 26057 161.422
114.707 26654 163.261
114.824 26579 163.031
114.942 26802 163.713
115.059 26866 163.909
115.176 26441 162.607
115.294 25400 159.374
115.411 24130 155.338
115.529 22965 151.542
115.646 21723 147.387
115.764 19907 141.092
115.881 19742 140.506
115.999 20755 144.066
116.116 22419 149.73
116.234 23659 153.815
116.351 23963 154.8
116.469 23983 154.864
116.586 24206 155.583
116.704 24097 155.232
116.821 24107 155.264
116.939 23663 153.828
117.056 23029 151.753
117.174 22385 149.616
117.291 21972 148.23
117.409 21654 147.153
117.526 21862 147.858
117.644 22176 148.916
117.761 22890 151.294
117.879 23777 154.198
117.996 24172 155.473
118.114 24709 157.191
118.231 24735 157.274
118.349 25536 159.8
118.466 25282 159.003
118.584 25506 159.706
118.701 25073 158.345
118.819 24527 156.611
118.936 22886 151.281
119.053 22399 149.663
119.171 21435 146.407
119.288 19824 140.798
119.405 18752 136.938
119.523 19275 138.834
119.64 20124 141.859
119.757 21727 147.401
119.875 22451 149.837
119.992 22412 149.706
120.109 22639 150.463
120.226 22555 150.183
120.343 22582 150.273
120.46 22615 150.383
120.578 22228 149.091
120.695 21736 147.431
120.812 20957 144.765
120.929 20665 143.753
121.046 19931 141.177
121.163 19798 140.705
121.279 19822 140.791
121.396 20711 143.913
121.513 21310 145.979
121.63 21495 146.612
121.747 21400 146.287
121.863 21491 146.598
121.98 21367 146.175
122.097 21382 146.226
122.213 20569 143.419
122.33 20064 141.647
122.446 19126 138.297
122.563 17868 133.671
122.679 16086 126.831
122.795 14139 118.908
122.912 12328 111.032
123.028 10963 104.704
123.144 10185 100.921
123.26 9899 99.4937
123.377 0 1
123.493 0 1
123.609 0 1
123.725 0 1
123.84 0 1
123.956 0 1
124.072 0 1
124.188 0 1
124.303 0 1
124.419 0 1
126.852 0 1
126.968 0 1
127.083 0 1
127.199 0 1
127.315 0 1
127.431 0 1
127.547 0 1
127.663 0 1
127.779 0 1
127.895 0 1
128.011 0 1
128.127 0 1
128.243 0 1
128.359 21435 146.407
128.476 20697 143.865
128.592 21060 145.121
128.708 21955 148.172
128.825 23725 154.029
128.941 24612 156.882
129.058 25171 158.654
129.174 25010 158.146
129.291 25020 158.177
129.408 24941 157.927
129.524 25249 158.899
129.641 24758 157.347
129.758 23783 154.217
129.875 23180 152.25
129.992 22603 150.343
130.108 22324 149.412
130.225 21842 147.79
130.342 22977 151.582
130.459 24050 155.081
130.576 25547 159.834
130.693 25930 161.028
130.81 25798 160.618
130.928 25852 160.786
131.045 25602 160.006
131.162 25847 160.77
131.279 26313 162.213
131.396 26144 161.691
131.513 26161 161.744
131.631 25018 158.171
131.748 24576 156.767
131.865 23262 152.519
131.983 21714 147.357
132.1 21617 147.027
132.217 22495 149.983
132.335 23755 154.127
132.452 24741 157.293
132.57 25320 159.123
132.687 24980 158.051
132.804 25201 158.748
132.922 24917 157.851
133.039 25434 159.48
133.157 25096 158.417
133.274 24235 155.676
133.392 23580 153.558
133.509 22618 150.393
133.627 22334 149.446
133.744 22209 149.027
133.862 22825 151.079
133.979 24033 155.026
134.097 25061 158.307
134.214 25681 160.253
134.332 25457 159.552
134.449 25464 159.574
134.567 25285 159.013
134.684 25487 159.646
134.802 25992 161.22
134.919 26080 161.493
135.037 25577 159.928
135.154 24932 157.899
135.272 24163 155.445
135.389 23716 154
135.507 21921 148.057
135.624 21785 147.597
135.742 22020 148.391
135.859 23062 151.862
135.977 24338 156.006
136.094 24950 157.956
136.211 24976 158.038
136.329 24950 157.956
136.446 24957 157.978
136.564 24959 157.984
136.681 24803 157.49
136.798 24755 157.337
136.915 23620 153.688
137.033 22895 151.311
137.15 22173 148.906
137.267 21638 147.099
137.384 21817 147.706
137.502 22198 148.99
137.619 23523 153.372
137.736 24316 155.936
137.853 23687 153.906
137.97 24346 156.032
138.087 24254 155.737
138.204 24397 156.195
138.321 24369 156.106
138.438 24237 155.682
138.555 24529 156.617
138.672 23752 154.117
138.788 22942 151.466
138.905 21879 147.916
139.022 20879 144.496
139.139 19588 139.957
139.255 18541 136.165
139.372 18052 134.358
139.488 18369 135.532
139.605 18596 136.367
139.721 18314 135.329
139.838 17440 132.061
139.954 16043 126.661
140.071 14647 121.025
140.187 13810 117.516
140.303 12997 114.004
140.419 12225 110.567
140.535 11593 107.671
140.652 10587 102.893
140.768 0 1
140.884 0 1
141 0 1
141.115 0 1
141.231 0 1
141.347 0 1
141.463 0 1
141.578 0 1
141.694 0 1
144.104 0 1
144.219 0 1
144.335 0 1
144.45 0 1
144.566 0 1
144.682 0 1
144.798 0 1
144.914 0 1
145.03 0 1
145.146 17146 130.943
145.262 18252 135.1
145.378 18484 135.956
145.494 18686 136.697
145.61 18294 135.255
145.726 17659 132.887
145.842 17177 131.061
145.959 16661 129.077
146.075 16319 127.746
146.192 16519 128.526
146.308 17009 130.419
146.425 17952 133.985
146.541 18354 135.477
146.658 18238 135.048
146.774 18384 135.588
146.891 18395 135.628
147.008 18404 135.661
147.125 18303 135.289
147.241 18513 136.062
147.358 19152 138.391
147.475 18896 137.463
147.592 18750 136.931
147.709 18111 134.577
147.826 17309 131.564
147.943 16711 129.271
148.06 16320 127.75
148.177 16604 128.857
148.294 17316 131.59
148.411 17967 134.041
148.528 18437 135.783
148.645 18626 136.477
148.762 18492 135.985
148.88 18402 135.654
148.997 18948 137.652
149.114 18057 134.376
149.231 17983 134.101
149.349 18049 134.347
149.466 17053 130.587
149.583 16279 127.589
149.701 16169 127.157
149.818 16010 126.531
149.935 16433 128.191
150.053 17261 131.381
150.17 17481 132.216
150.287 17849 133.6
150.405 17830 133.529
150.522 17757 133.255
150.64 18035 134.294
150.757 17935 133.922
150.875 18257 135.118
150.992 18420 135.72
151.11 18532 136.132
151.227 18191 134.874
151.344 17798 133.409
151.462 16778 129.53
151.579 16241 127.44
151.697 15688 125.252
151.814 16276 127.577
151.932 17019 130.457
152.049 17641 132.819
152.167 18180 134.833
152.284 18155 134.74
152.402 18154 134.737
152.519 17893 133.765
152.636 17745 133.21
152.754 17629 132.774
152.871 17270 131.415
152.989 16672 129.12
153.106 16126 126.988
153.223 15616 124.964
153.341 15364 123.952
153.458 15444 124.274
153.575 15705 125.32
153.693 16409 128.098
153.81 16726 129.329
153.927 16751 129.426
154.044 16735 129.364
154.162 16944 130.169
154.279 17133 130.893
154.396 17225 131.244
154.513 17461 132.14
154.63 17368 131.788
154.747 17441 132.064
154.864 17145 130.939
154.981 16516 128.515
155.098 15853 125.909
155.215 15448 124.29
155.332 15156 123.11
155.449 15627 125.008
155.566 16153 127.094
155.683 16515 128.511
155.8 16178 127.193
155.917 16243 127.448
156.033 15275 123.592
156.15 0 1
156.267 0 1
156.383 0 1
156.5 0 1
156.617 0 1
156.733 0 1
156.85 0 1
156.966 0 1
157.082 0 1
157.199 0 1
157.315 0 1
157.431 0 1
157.547 0 1
157.664 0 1
157.78 0 1
157.896 0 1
158.012 0 1
158.128 0 1
158.244 0 1
158.359 0 1
158.475 0 1
158.591 0 1
158.706 0 1
