
6.15755 0 1
6.2731 0 1
6.3887 0 1
6.50437 0 1
6.62009 0 1
6.73587 0 1
6.8517 0 1
6.96759 0 1
7.08353 0 1
7.19952 0 1
7.31557 0 1
7.43166 0 1
7.54781 0 1
7.664 0 1
7.78024 0 1
7.89653 0 1
8.01286 0 1
8.12924 0 1
8.24567 0 1
8.36213 0 1
8.47864 0 1
8.59519 0 1
8.71178 0 1
8.82841 0 1
8.94508 0 1
9.06179 0 1
9.17853 0 1
9.29531 0 1
9.41212 0 1
9.52897 0 1
9.64584 0 1
9.76276 0 1
9.8797 0 1
9.99667 0 1
10.1137 0 1
10.2307 0 1
10.3478 0 1
10.4648 0 1
10.5819 0 1
10.6991 0 1
10.8162 0 1
10.9334 0 1
11.0506 0 1
11.1678 0 1
11.285 0 1
11.4023 0 1
11.5196 0 1
11.6369 0 1
11.7542 0 1
11.8715 0 1
11.9888 0 1
12.1062 0 1
12.2235 0 1
12.3409 0 1
12.4582 0 1
12.5756 0 1
12.693 0 1
12.8104 0 1
12.9278 0 1
13.0452 0 1
13.1626 0 1
13.28 0 1
13.3974 0 1
13.5149 0 1
13.6323 0 1
13.7497 0 1
13.8671 0 1
13.9845 0 1
14.1019 0 1
14.2193 0 1
14.3367 0 1
14.4541 0 1
14.5714 0 1
14.6888 0 1
14.8062 0 1
14.9235 0 1
15.0408 0 0
15.1581 0 0
15.2755 0 0
15.3927 0 0
15.51 0 0
15.6273 0 0
15.7445 0 0
15.8617 0 0
15.9789 0 0
16.0961 0 0
16.2132 0 0
16.3304 0 0
16.4475 0 0
16.5646 0 0
16.6816 0 0
16.7986 0 0
16.9156 0 0
17.0326 0 0
17.1496 0 0
17.2665 0 0
17.3833 0 0
17.5002 0 0
17.617 0 0
17.7338 0 0
17.8505 0 0
17.9672 0 0
18.0839 0 0
18.2005 0 0
18.3171 0 0
18.4337 0 0
18.5502 0 0
18.6666 0 0
18.7831 0 0
18.8994 0 0
19.0158 0 0
19.1321 0 0
19.2483 0 0
19.3645 0 0
19.4806 0 0
19.5967 0 0
19.7128 0 0
19.8288 0 0
19.9447 0 0
20.0606 0 1
20.1764 0 1
20.2922 0 1
20.4079 0 1
20.5236 0 1
20.6392 0 1
20.7548 0 1
20.8702 0 1
23.3078 0 1
23.4233 0 1
23.539 0 1
23.6547 0 1
23.7704 0 1
23.8862 0 1
24.0021 0 1
24.118 0 1
24.234 0 1
24.35 0 1
24.4661 2448 49.4773
24.5822 2510 50.0999
24.6984 2399 48.9796
24.8146 2418 49.1732
24.9309 2417 49.163
25.0472 2303 47.9896
25.1636 2170 46.5833
25.28 2297 47.927
25.3965 2456 49.558
25.513 2686 51.8266
25.6296 2809 53
25.7462 3134 55.9821
25.8628 3091 55.5968
25.9795 3038 55.1181
26.0962 3076 55.4617
26.213 3106 55.7315
26.3298 3119 55.848
26.4466 3003 54.7996
26.5635 3081 55.5068
26.6804 3130 55.9464
26.7973 2963 54.4334
26.9143 3088 55.5698
27.0313 2957 54.3783
27.1483 3146 56.0892
27.2653 3144 56.0714
27.3824 3054 55.263
27.4996 3037 55.109
27.6167 3030 55.0454
27.7339 2841 53.301
27.8511 2934 54.1664
27.9683 2757 52.5071
28.0855 2699 51.9519
28.2028 2560 50.5964
28.3201 2443 49.4267
28.4374 2235 47.2758
28.5547 2165 46.5296
28.6721 2095 45.7712
28.7894 2115 45.9891
28.9068 2300 47.9583
29.0242 2496 49.96
29.1416 2556 50.5569
29.259 2720 52.1536
29.3764 2906 53.9073
29.4939 2979 54.5802
29.6113 3005 54.8179
29.7288 2829 53.1883
29.8463 3081 55.5068
29.9638 3003 54.7996
30.0812 2962 54.4243
30.1987 3028 55.0273
30.3162 2962 54.4243
30.4337 3091 55.5968
30.5512 3082 55.5158
30.6687 2970 54.4977
30.7862 3058 55.2992
30.9037 2921 54.0463
31.0212 3059 55.3082
31.1387 2868 53.5537
31.2562 2837 53.2635
31.3737 2785 52.7731
31.4912 2709 52.0481
31.6087 2585 50.8429
31.7262 2552 50.5173
31.8436 2403 49.0204
31.9611 2226 47.1805
32.0785 2049 45.2659
32.1959 1962 44.2945
32.3134 2193 46.8295
32.4308 2224 47.1593
32.5482 2406 49.051
32.6655 2515 50.1498
32.7829 2757 52.5071
32.9002 2857 53.4509
33.0176 2869 53.563
33.1349 2863 53.507
33.2522 3003 54.7996
33.3694 2873 53.6004
33.4867 2888 53.7401
33.6039 2940 54.2218
33.7211 2920 54.037
33.8383 2956 54.3691
33.9554 2991 54.69
34.0725 2937 54.1941
34.1896 2907 53.9166
34.3067 3002 54.7905
34.4237 2901 53.8609
34.5407 2803 52.9434
34.6577 3020 54.9545
34.7746 2967 54.4702
34.8915 2807 52.9811
35.0084 2657 51.5461
35.1252 2636 51.342
35.242 2631 51.2933
35.3587 2548 50.4777
35.4755 2373 48.7134
35.5921 2233 47.2546
35.7088 2124 46.0869
35.8254 1924 43.8634
35.9419 1859 43.1161
36.0584 1954 44.2041
36.1749 2161 46.4866
36.2913 2181 46.7012
36.4077 2412 49.1121
36.524 2632 51.303
36.6403 2737 52.3163
36.7565 2883 53.6936
36.8727 2825 53.1507
36.9889 2784 52.7636
37.1049 2797 52.8867
37.221 0 1
37.3369 0 1
37.4529 0 1
37.5687 0 1
37.6845 0 1
37.8003 0 1
37.916 0 1
38.0316 0 1
38.1472 0 1
40.5851 0 1
40.7008 0 1
40.8164 0 1
40.9322 0 1
41.048 0 1
41.1639 0 1
41.2798 0 1
41.3958 0 1
41.5118 0 1
41.6279 0 1
41.744 1993 44.643
41.8602 2222 47.1381
41.9765 2315 48.1144
42.0928 2348 48.4562
42.2091 2412 49.1121
42.3255 2436 49.3559
42.4419 2334 48.3115
42.5584 2384 48.8262
42.675 2422 49.2138
42.7915 2299 47.9479
42.9081 2410 49.0918
43.0248 2301 47.9687
43.1415 2296 47.9166
43.2582 2246 47.392
43.375 2239 47.3181
43.4918 2280 47.7493
43.6087 2304 48
43.7256 2170 46.5833
43.8425 2174 46.6262
43.9595 2043 45.1996
44.0765 2066 45.4533
44.1935 1969 44.3734
44.3106 1847 42.9767
44.4277 1676 40.939
44.5448 1538 39.2173
44.6619 1365 36.9459
44.7791 1310 36.1939
44.8963 1321 36.3456
45.0136 1498 38.704
45.1308 1487 38.5616
45.2481 1675 40.9268
45.3654 1803 42.4617
45.4827 1823 42.6966
45.6001 1818 42.638
45.7174 1852 43.0349
45.8348 1754 41.8808
45.9522 1753 41.8688
46.0697 1710 41.3521
46.1871 1697 41.1947
46.3046 1687 41.0731
46.422 1652 40.6448
46.5395 1684 41.0366
46.657 1702 41.2553
46.7745 1722 41.497
46.892 1635 40.4351
47.0096 1603 40.0375
47.1271 1678 40.9634
47.2446 1632 40.398
47.3622 1556 39.4462
47.4797 1453 38.1182
47.5973 1487 38.5616
47.7149 1410 37.55
47.8324 1322 36.3593
47.95 1272 35.6651
48.0675 1129 33.6006
48.1851 1071 32.7261
48.3027 911 30.1828
48.4202 983 31.3528
48.5378 957 30.9354
48.6554 1085 32.9393
48.7729 1179 34.3366
48.8904 1260 35.4965
49.008 1325 36.4005
49.1255 1335 36.5377
49.243 1352 36.7696
49.3605 1362 36.9053
49.478 1349 36.7287
49.5955 1347 36.7015
49.713 1332 36.4966
49.8304 1367 36.973
49.9479 1344 36.6606
50.0653 1447 38.0395
50.1827 1418 37.6563
50.3001 1529 39.1024
50.4175 1547 39.3319
50.5348 1552 39.3954
50.6521 1637 40.4599
50.7694 1572 39.6485
50.8867 1654 40.6694
51.004 1638 40.4722
51.1212 1582 39.7744
51.2384 1590 39.8748
51.3556 1502 38.7556
51.4727 1542 39.2683
51.5899 1342 36.6333
51.707 1189 34.4819
51.824 1167 34.1614
51.9411 1281 35.7911
52.0581 1343 36.647
52.175 1558 39.4715
52.2919 1737 41.6773
52.4088 1964 44.317
52.5257 2083 45.6399
52.6425 2060 45.3872
52.7593 2147 46.3357
52.876 2153 46.4004
52.9927 2172 46.6047
53.1094 2240 47.3286
53.226 2305 48.0104
53.3426 2306 48.0208
53.4591 2310 48.0625
53.5756 2378 48.7647
53.692 2429 49.2849
53.8084 2336 48.3322
53.9248 2476 49.7594
54.0411 2522 50.2195
54.1573 2573 50.7247
54.2735 0 1
54.3896 0 1
54.5057 0 1
54.6217 0 1
54.7377 0 1
54.8537 0 1
54.9695 0 1
55.0853 0 1
55.2011 0 1
55.3168 0 1
55.4324 0 1
57.824 0 1
57.9396 0 1
58.0553 0 1
58.1711 0 1
58.2869 0 1
58.4028 0 1
58.5187 0 1
58.6347 0 1
58.7508 0 1
58.8669 0 1
58.983 2753 52.469
59.0992 2768 52.6118
59.2155 2970 54.4977
59.3318 2898 53.8331
59.4482 2957 54.3783
59.5646 3006 54.827
59.681 2865 53.5257
59.7975 2803 52.9434
59.9141 2735 52.2972
60.0306 2578 50.774
60.1473 2344 48.4149
60.2639 2152 46.3897
60.3807 1885 43.4166
60.4974 1703 41.2674
60.6142 1708 41.328
60.731 1795 42.3674
60.8479 1981 44.5084
60.9648 2275 47.697
61.0818 2411 49.1019
61.1987 2525 50.2494
61.3158 2624 51.225
61.4328 2483 49.8297
61.5499 2529 50.2892
61.667 2489 49.8899
61.7841 2650 51.4782
61.9013 2572 50.7149
62.0185 2470 49.6991
62.1357 2514 50.1398
62.253 2562 50.6162
62.3702 2536 50.3587
62.4875 2647 51.449
62.6049 2581 50.8035
62.7222 2599 50.9804
62.8396 2699 51.9519
62.9569 2674 51.7107
63.0743 2606 51.049
63.1918 2567 50.6656
63.3092 2533 50.3289
63.4267 2433 49.3254
63.5441 2252 47.4552
63.6616 2130 46.1519
63.7791 1882 43.382
63.8966 1638 40.4722
64.0142 1527 39.0768
64.1317 1470 38.3406
64.2492 1602 40.025
64.3668 1737 41.6773
64.4843 1936 44
64.6019 2247 47.4025
64.7195 2283 47.7807
64.837 2276 47.7074
64.9546 2304 48
65.0722 2303 47.9896
65.1898 2272 47.6655
65.3074 2269 47.634
65.4249 2278 47.7284
65.5425 2313 48.0937
65.6601 2352 48.4974
65.7777 2324 48.2079
65.8952 2370 48.6826
66.0128 2337 48.3425
66.1304 2438 49.3761
66.2479 2463 49.6286
66.3655 2492 49.9199
66.483 2519 50.1896
66.6005 2508 50.0799
66.718 2457 49.5681
66.8355 2462 49.6185
66.953 2443 49.4267
67.0705 2248 47.4131
67.1879 2078 45.5851
67.3054 1985 44.5533
67.4228 1753 41.8688
67.5402 1472 38.3667
67.6576 1332 36.4966
67.7749 1228 35.0428
67.8923 1482 38.4968
68.0096 1601 40.0125
68.1269 1855 43.0697
68.2442 2109 45.9239
68.3614 2341 48.3839
68.4787 2297 47.927
68.5958 2335 48.3218
68.713 2323 48.1975
68.8302 2385 48.8365
68.9473 2335 48.3218
69.0643 2341 48.3839
69.1814 2362 48.6004
69.2984 2390 48.8876
69.4154 2401 49
69.5323 2465 49.6488
69.6492 2558 50.5767
69.7661 2578 50.774
69.8829 2561 50.6063
69.9997 2683 51.7977
70.1165 2648 51.4587
70.2332 2883 53.6936
70.3499 2764 52.5738
70.4665 2589 50.8822
70.5831 2714 52.0961
70.6996 2592 50.9117
70.8161 2528 50.2792
70.9326 2303 47.9896
71.049 2033 45.0888
71.1653 1748 41.8091
71.2817 1499 38.7169
71.3979 1325 36.4005
71.5141 1292 35.9444
71.6303 1354 36.7967
71.7464 1449 38.0657
71.8624 0 1
71.9784 0 1
72.0944 0 1
72.2102 0 1
72.3261 0 1
72.4418 0 1
72.5575 0 1
72.6732 0 1
75.1054 0 1
75.2209 0 1
75.3365 0 1
75.4521 0 1
75.5678 0 1
75.6835 0 1
75.7993 0 1
75.9151 0 1
76.031 0 1
76.147 2079 45.5961
76.263 2198 46.8828
76.3791 2109 45.9239
76.4952 1875 43.3013
76.6113 1442 37.9737
76.7276 1364 36.9324
76.8438 1403 37.4566
76.9601 1469 38.3275
77.0765 1792 42.332
77.1929 2104 45.8694
77.3093 2416 49.1528
77.4258 2507 50.07
77.5423 2619 51.1762
77.6589 2478 49.7795
77.7755 2484 49.8397
77.8921 2554 50.5371
78.0088 2441 49.4065
78.1256 2455 49.548
78.2423 2397 48.9592
78.3591 2511 50.1099
78.4759 2458 49.5782
78.5928 2454 49.5379
78.7097 2460 49.5984
78.8266 2410 49.0918
78.9436 2715 52.1057
79.0606 2528 50.2792
79.1776 2747 52.4118
79.2946 2624 51.225
79.4117 2663 51.6043
79.5288 2616 51.1468
79.6459 2603 51.0196
79.7631 2434 49.3356
79.8802 2246 47.392
79.9974 2158 46.4543
80.1147 1919 43.8064
80.2319 1525 39.0512
80.3491 1230 35.0714
80.4664 1269 35.623
80.5837 1379 37.1349
80.701 1625 40.3113
80.8183 1963 44.3058
80.9357 2148 46.3465
81.053 2248 47.4131
81.1704 2246 47.392
81.2877 2258 47.5184
81.4051 2217 47.085
81.5225 2290 47.8539
81.6399 2195 46.8508
81.7573 2133 46.1844
81.8747 2115 45.9891
81.9922 2112 45.9565
82.1096 2154 46.4112
82.227 2142 46.2817
82.3444 2245 47.3814
82.4619 2319 48.156
82.5793 2459 49.5883
82.6967 2398 48.9694
82.8142 2320 48.1664
82.9316 2306 48.0208
83.049 2251 47.4447
83.1664 2271 47.655
83.2838 2233 47.2546
83.4012 2059 45.3762
83.5186 1935 43.9886
83.636 1853 43.0465
83.7534 1627 40.3361
83.8708 1372 37.0405
83.9881 1089 33
84.1055 1082 32.8938
84.2228 1145 33.8378
84.3401 1345 36.6742
84.4575 1600 40
84.5747 1820 42.6615
84.692 1990 44.6094
84.8093 2144 46.3033
84.9265 2050 45.2769
85.0437 2002 44.7437
85.1609 2035 45.111
85.2781 2099 45.8148
85.3952 2077 45.5741
85.5123 2059 45.3762
85.6294 2083 45.6399
85.7465 2171 46.594
85.8636 2119 46.0326
85.9806 2342 48.3942
86.0976 2368 48.6621
86.2145 2358 48.5592
86.3315 2504 50.04
86.4484 2394 48.9285
86.5652 2568 50.6754
86.682 2565 50.6458
86.7988 2505 50.05
86.9156 2340 48.3735
87.0323 2351 48.4871
87.149 2286 47.8121
87.2657 2210 47.0106
87.3823 1865 43.1856
87.4988 1525 39.0512
87.6154 1333 36.5103
87.7318 1395 37.3497
87.8483 1550 39.37
87.9647 1866 43.1972
88.081 2243 47.3603
88.1973 2442 49.4166
88.3136 2487 49.8698
88.4298 2512 50.1199
88.546 2491 49.9099
88.6621 2501 50.01
88.7781 2451 49.5076
88.8942 0 1
89.0101 0 1
89.126 0 1
89.2419 0 1
89.3577 0 1
89.4734 0 1
89.5891 0 1
89.7047 0 1
89.8203 0 1
89.9358 0 1
92.3269 0 1
92.4424 0 1
92.558 0 1
92.6736 0 1
92.7893 0 1
92.905 0 1
93.0208 0 1
93.1366 0 1
93.2525 0 1
93.3685 0 1
93.4845 0 1
93.6005 2211 47.0213
93.7167 2520 50.1996
93.8328 2537 50.3686
93.949 2397 48.9592
94.0653 2417 49.163
94.1816 2489 49.8899
94.2979 2382 48.8057
94.4143 2405 49.0408
94.5307 2454 49.5379
94.6472 2403 49.0204
94.7637 2421 49.2037
94.8803 2539 50.3885
94.9969 2493 49.93
95.1135 2621 51.1957
95.2302 2653 51.5073
95.3469 2715 52.1057
95.4637 2697 51.9326
95.5805 2789 52.811
95.6973 2742 52.3641
95.8142 2782 52.7447
95.9311 2687 51.8363
96.048 2719 52.144
96.1649 2582 50.8134
96.2819 2482 49.8197
96.3989 2326 48.2286
96.516 2209 47
96.633 1848 42.9884
96.7501 1538 39.2173
96.8673 1451 38.092
96.9844 1451 38.092
97.1016 1629 40.3609
97.2188 1953 44.1928
97.336 2273 47.676
97.4532 2423 49.224
97.5704 2591 50.9019
97.6877 2443 49.4267
97.805 2437 49.366
97.9223 2525 50.2494
98.0396 2431 49.3052
98.1569 2458 49.5782
98.2743 2339 48.3632
98.3916 2358 48.5592
98.509 2503 50.03
98.6264 2580 50.7937
98.7438 2566 50.6557
98.8612 2621 51.1957
98.9786 2670 51.672
99.096 2605 51.0392
99.2134 2837 53.2635
99.3308 2759 52.5262
99.4482 2671 51.6817
99.5656 2682 51.788
99.6831 2645 51.4296
99.8005 2516 50.1597
99.9179 2504 50.04
100.035 2295 47.9062
100.153 2138 46.2385
100.27 1886 43.4281
100.388 1556 39.4462
100.505 1477 38.4318
100.622 1696 41.1825
100.74 1979 44.486
100.857 2335 48.3218
100.975 2466 49.6588
101.092 2587 50.8626
101.209 2437 49.366
101.327 2443 49.4267
101.444 2395 48.9387
101.561 2477 49.7695
101.679 2471 49.7092
101.796 2492 49.9199
101.913 2391 48.8979
102.03 2555 50.547
102.148 2694 51.9038
102.265 2554 50.5371
102.382 2781 52.7352
102.499 2664 51.614
102.616 2816 53.066
102.733 2821 53.1131
102.851 2938 54.2033
102.968 2972 54.5161
103.085 2838 53.2729
103.202 2751 52.45
103.319 2748 52.4214
103.436 2646 51.4393
103.552 2582 50.8134
103.669 2333 48.3011
103.786 1979 44.486
103.903 1717 41.4367
104.02 1580 39.7492
104.137 1735 41.6533
104.253 2105 45.8803
104.37 2375 48.734
104.487 2650 51.4782
104.603 2730 52.2494
104.72 2733 52.2781
104.836 2771 52.6403
104.953 2725 52.2015
105.069 2602 51.0098
105.186 2718 52.1344
105.302 2760 52.5357
105.418 2726 52.2111
105.535 2778 52.7067
105.651 2873 53.6004
105.767 2940 54.2218
105.883 2987 54.6535
105.999 3135 55.9911
106.115 0 1
106.231 0 1
106.347 0 1
106.463 0 1
106.579 0 1
106.694 0 1
106.81 0 1
106.926 0 1
107.041 0 1
107.157 0 1
109.576 0 1
109.692 0 1
109.807 0 1
109.923 0 1
110.039 0 1
110.155 0 1
110.27 0 1
110.386 0 1
110.502 0 1
110.618 2635 51.3323
110.735 2848 53.3667
110.851 2886 53.7215
110.967 3024 54.9909
111.083 3057 55.2901
111.199 2980 54.5894
111.316 3047 55.1996
111.432 3033 55.0727
111.549 2972 54.5161
111.665 2977 54.5619
111.782 2917 54.0093
111.898 2885 53.7122
112.015 2677 51.7397
112.132 2704 52
112.248 2369 48.6724
112.365 2082 45.6289
112.482 1707 41.3159
112.599 1778 42.1663
112.716 2078 45.5851
112.832 2227 47.1911
112.949 2556 50.5569
113.066 2685 51.817
113.183 2713 52.0865
113.3 2762 52.5547
113.417 2664 51.614
113.534 2686 51.8266
113.652 2748 52.4214
113.769 2646 51.4393
113.886 2810 53.0094
114.003 2819 53.0943
114.12 2856 53.4416
114.238 2838 53.2729
114.355 2874 53.6097
114.472 2901 53.8609
114.589 3079 55.4887
114.707 3061 55.3263
114.824 3059 55.3082
114.942 3149 56.116
115.059 3099 55.6687
115.176 3127 55.9196
115.294 3079 55.4887
115.411 2975 54.5436
115.529 2956 54.3691
115.646 2811 53.0189
115.764 2615 51.1371
115.881 2362 48.6004
115.999 2066 45.4533
116.116 2009 44.8219
116.234 2091 45.7275
116.351 2338 48.3529
116.469 2726 52.2111
116.586 2897 53.8238
116.704 2909 53.9351
116.821 2938 54.2033
116.939 2930 54.1295
117.056 2918 54.0185
117.174 2954 54.3507
117.291 2842 53.3104
117.409 2983 54.6168
117.526 3011 54.8726
117.644 2944 54.2586
117.761 2934 54.1664
117.879 3111 55.7763
117.996 3070 55.4076
118.114 3103 55.7046
118.231 3183 56.4181
118.349 3234 56.8683
118.466 3161 56.2228
118.584 3233 56.8595
118.701 3240 56.921
118.819 3208 56.6392
118.936 3031 55.0545
119.053 3096 55.6417
119.171 2959 54.3967
119.288 2748 52.4214
119.405 2614 51.1273
119.523 2366 48.6415
119.64 2028 45.0333
119.757 1995 44.6654
119.875 2139 46.2493
119.992 2362 48.6004
120.109 2723 52.1824
120.226 2787 52.792
120.343 2869 53.563
120.46 2846 53.3479
120.578 2930 54.1295
120.695 2819 53.0943
120.812 2925 54.0833
120.929 2920 54.037
121.046 2943 54.2494
121.163 2898 53.8331
121.279 2961 54.4151
121.396 3036 55.0999
121.513 2973 54.5252
121.63 3063 55.3444
121.747 3074 55.4437
121.863 3231 56.8419
121.98 3116 55.8211
122.097 3142 56.0535
122.213 3168 56.285
122.33 3065 55.3624
122.446 3052 55.2449
122.563 3033 55.0727
122.679 2990 54.6809
122.795 2906 53.9073
122.912 2818 53.0848
123.028 2595 50.9411
123.144 2484 49.8397
123.26 2263 47.571
123.377 0 1
123.493 0 1
123.609 0 1
123.725 0 1
123.84 0 1
123.956 0 1
124.072 0 1
124.188 0 1
124.303 0 1
124.419 0 1
126.852 0 1
126.968 0 1
127.083 0 1
127.199 0 1
127.315 0 1
127.431 0 1
127.547 0 1
127.663 0 1
127.779 0 1
127.895 0 1
128.011 0 1
128.127 0 1
128.243 0 1
128.359 2755 52.4881
128.476 2575 50.7445
128.592 2334 48.3115
128.708 2345 48.4252
128.825 2474 49.7393
128.941 2640 51.3809
129.058 2908 53.9259
129.174 3022 54.9727
129.291 3098 55.6597
129.408 3165 56.2583
129.524 3117 55.8301
129.641 3087 55.5608
129.758 3080 55.4977
129.875 3049 55.2178
129.992 3161 56.2228
130.108 3095 55.6327
130.225 3063 55.3444
130.342 3139 56.0268
130.459 3040 55.1362
130.576 3194 56.5155
130.693 3274 57.2189
130.81 3237 56.8946
130.928 3282 57.2887
131.045 3327 57.6802
131.162 3465 58.8643
131.279 3324 57.6541
131.396 3351 57.8878
131.513 3305 57.4891
131.631 3267 57.1577
131.748 3078 55.4797
131.865 3013 54.8908
131.983 2742 52.3641
132.1 2436 49.3559
132.217 2455 49.548
132.335 2513 50.1298
132.452 2605 51.0392
132.57 2872 53.591
132.687 3063 55.3444
132.804 3145 56.0803
132.922 3351 57.8878
133.039 3235 56.8771
133.157 3172 56.3205
133.274 3217 56.7186
133.392 3207 56.6304
133.509 3138 56.0179
133.627 3132 55.9643
133.744 3135 55.9911
133.862 3118 55.8391
133.979 3190 56.4801
134.097 3184 56.4269
134.214 3119 55.848
134.332 3258 57.0789
134.449 3297 57.4195
134.567 3199 56.5597
134.684 3264 57.1314
134.802 3334 57.7408
134.919 3355 57.9224
135.037 3356 57.931
135.154 3283 57.2975
135.272 3104 55.7136
135.389 2949 54.3047
135.507 2852 53.4041
135.624 2657 51.5461
135.742 2421 49.2037
135.859 2479 49.7896
135.977 2658 51.5558
136.094 2847 53.3573
136.211 3083 55.5248
136.329 3256 57.0614
136.446 3174 56.3383
136.564 3128 55.9285
136.681 3159 56.205
136.798 3175 56.3471
136.915 3282 57.2887
137.033 3264 57.1314
137.15 3100 55.6776
137.267 3132 55.9643
137.384 3028 55.0273
137.502 3029 55.0364
137.619 3087 55.5608
137.736 3090 55.5878
137.853 3144 56.0714
137.97 3160 56.2139
138.087 3269 57.1752
138.204 3343 57.8187
138.321 3291 57.3672
138.438 3363 57.9914
138.555 3365 58.0086
138.672 3324 57.6541
138.788 3246 56.9737
138.905 3122 55.8749
139.022 2961 54.4151
139.139 2979 54.5802
139.255 2747 52.4118
139.372 2616 51.1468
139.488 2611 51.0979
139.605 2601 51
139.721 2992 54.6992
139.838 3186 56.4447
139.954 3186 56.4447
140.071 3241 56.9298
140.187 3297 57.4195
140.303 3282 57.2887
140.419 3175 56.3471
140.535 3175 56.3471
140.652 3137 56.0089
140.768 0 1
140.884 0 1
141 0 1
141.115 0 1
141.231 0 1
141.347 0 1
141.463 0 1
141.578 0 1
141.694 0 1
144.104 0 1
144.219 0 1
144.335 0 1
144.45 0 1
144.566 0 1
144.682 0 1
144.798 0 1
144.914 0 1
145.03 0 1
145.146 2420 49.1935
145.262 2647 51.449
145.378 2682 51.788
145.494 2762 52.5547
145.61 2749 52.4309
145.726 2632 51.303
145.842 2682 51.788
145.959 2594 50.9313
146.075 2663 51.6043
146.192 2590 50.892
146.308 2610 51.0882
146.425 2622 51.2055
146.541 2682 51.788
146.658 2726 52.2111
146.774 2772 52.6498
146.891 2838 53.2729
147.008 2851 53.3948
147.125 2828 53.1789
147.241 2934 54.1664
147.358 2893 53.7866
147.475 2884 53.7029
147.592 2861 53.4883
147.709 2777 52.6972
147.826 2803 52.9434
147.943 2657 51.5461
148.06 2497 49.97
148.177 2426 49.2544
148.294 2368 48.6621
148.411 2413 49.1223
148.528 2576 50.7543
148.645 2737 52.3163
148.762 2830 53.1977
148.88 2893 53.7866
148.997 2711 52.0673
149.114 2888 53.7401
149.231 2948 54.2955
149.349 2879 53.6563
149.466 2935 54.1756
149.583 2722 52.1728
149.701 2785 52.7731
149.818 2692 51.8845
149.935 2724 52.192
150.053 2701 51.9711
150.17 2577 50.7642
150.287 2664 51.614
150.405 2750 52.4404
150.522 2933 54.1572
150.64 3028 55.0273
150.757 3011 54.8726
150.875 3001 54.7814
150.992 3021 54.9636
151.11 3035 55.0908
151.227 2986 54.6443
151.344 2910 53.9444
151.462 2924 54.074
151.579 2800 52.915
151.697 2784 52.7636
151.814 2596 50.951
151.932 2664 51.614
152.049 2563 50.6261
152.167 2684 51.8073
152.284 2844 53.3292
152.402 3001 54.7814
152.519 2938 54.2033
152.636 3096 55.6417
152.754 3033 55.0727
152.871 2989 54.6717
152.989 3060 55.3173
153.106 3024 54.9909
153.223 3028 55.0273
153.341 2852 53.4041
153.458 2787 52.792
153.575 2799 52.9056
153.693 2752 52.4595
153.81 2858 53.4603
153.927 2864 53.5164
154.044 3060 55.3173
154.162 2944 54.2586
154.279 3155 56.1694
154.396 3089 55.5788
154.513 3125 55.9017
154.63 3151 56.1338
154.747 3271 57.1927
154.864 3168 56.285
154.981 3269 57.1752
155.098 3080 55.4977
155.215 3007 54.8361
155.332 2887 53.7308
155.449 2963 54.4334
155.566 2752 52.4595
155.683 2993 54.7083
155.8 3003 54.7996
155.917 3099 55.6687
156.033 3107 55.7405
156.15 0 1
156.267 0 1
156.383 0 1
156.5 0 1
156.617 0 1
156.733 0 1
156.85 0 1
156.966 0 1
157.082 0 1
157.199 0 1
157.315 0 1
157.431 0 1
157.547 0 1
157.664 0 1
157.78 0 1
157.896 0 1
158.012 0 1
158.128 0 1
158.244 0 1
158.359 0 1
158.475 0 1
158.591 0 1
158.706 0 1
