
6.15755 0 1
6.2731 0 1
6.3887 0 1
6.50437 0 1
6.62009 0 1
6.73587 0 1
6.8517 0 1
6.96759 0 1
7.08353 0 1
7.19952 0 1
7.31557 0 1
7.43166 0 1
7.54781 0 1
7.664 0 1
7.78024 0 1
7.89653 0 1
8.01286 0 1
8.12924 0 1
8.24567 0 1
8.36213 0 1
8.47864 0 1
8.59519 0 1
8.71178 0 1
8.82841 0 1
8.94508 0 1
9.06179 0 1
9.17853 0 1
9.29531 0 1
9.41212 0 1
9.52897 0 1
9.64584 0 1
9.76276 0 1
9.8797 0 1
9.99667 0 1
10.1137 0 1
10.2307 0 1
10.3478 0 1
10.4648 0 1
10.5819 0 1
10.6991 0 1
10.8162 0 1
10.9334 0 1
11.0506 0 1
11.1678 0 1
11.285 0 1
11.4023 0 1
11.5196 0 1
11.6369 0 1
11.7542 0 1
11.8715 0 1
11.9888 0 1
12.1062 0 1
12.2235 0 1
12.3409 0 1
12.4582 0 1
12.5756 0 1
12.693 0 1
12.8104 0 1
12.9278 0 1
13.0452 0 1
13.1626 0 1
13.28 0 1
13.3974 0 1
13.5149 0 1
13.6323 0 1
13.7497 0 1
13.8671 0 1
13.9845 0 1
14.1019 0 1
14.2193 0 1
14.3367 0 1
14.4541 0 1
14.5714 0 1
14.6888 0 1
14.8062 0 1
14.9235 0 1
15.0408 0 0
15.1581 0 0
15.2755 0 0
15.3927 0 0
15.51 0 0
15.6273 0 0
15.7445 0 0
15.8617 0 0
15.9789 0 0
16.0961 0 0
16.2132 0 0
16.3304 0 0
16.4475 0 0
16.5646 0 0
16.6816 0 0
16.7986 0 0
16.9156 0 0
17.0326 0 0
17.1496 0 0
17.2665 0 0
17.3833 0 0
17.5002 0 0
17.617 0 0
17.7338 0 0
17.8505 0 0
17.9672 0 0
18.0839 0 0
18.2005 0 0
18.3171 0 0
18.4337 0 0
18.5502 0 0
18.6666 0 0
18.7831 0 0
18.8994 0 0
19.0158 0 0
19.1321 0 0
19.2483 0 0
19.3645 0 0
19.4806 0 0
19.5967 0 0
19.7128 0 0
19.8288 0 0
19.9447 0 0
20.0606 0 1
20.1764 0 1
20.2922 0 1
20.4079 0 1
20.5236 0 1
20.6392 0 1
20.7548 0 1
20.8702 0 1
23.3078 0 1
23.4233 0 1
23.539 0 1
23.6547 0 1
23.7704 0 1
23.8862 0 1
24.0021 0 1
24.118 0 1
24.234 0 1
24.35 0 1
24.4661 691 26.2869
24.5822 729 27
24.6984 693 26.3249
24.8146 696 26.3818
24.9309 675 25.9808
25.0472 681 26.096
25.1636 791 28.1247
25.28 677 26.0192
25.3965 715 26.7395
25.513 743 27.258
25.6296 758 27.5318
25.7462 777 27.8747
25.8628 734 27.0924
25.9795 763 27.6225
26.0962 690 26.2679
26.213 727 26.9629
26.3298 781 27.9464
26.4466 766 27.6767
26.5635 745 27.2947
26.6804 728 26.9815
26.7973 758 27.5318
26.9143 669 25.865
27.0313 641 25.318
27.1483 638 25.2587
27.2653 706 26.5707
27.3824 724 26.9072
27.4996 666 25.807
27.6167 707 26.5895
27.7339 663 25.7488
27.8511 644 25.3772
27.9683 672 25.923
28.0855 618 24.8596
28.2028 648 25.4558
28.3201 664 25.7682
28.4374 671 25.9037
28.5547 692 26.3059
28.6721 682 26.1151
28.7894 693 26.3249
28.9068 714 26.7208
29.0242 697 26.4008
29.1416 657 25.632
29.259 707 26.5895
29.3764 705 26.5518
29.4939 728 26.9815
29.6113 702 26.4953
29.7288 715 26.7395
29.8463 674 25.9615
29.9638 702 26.4953
30.0812 691 26.2869
30.1987 661 25.7099
30.3162 665 25.7876
30.4337 615 24.7992
30.5512 620 24.8998
30.6687 588 24.2487
30.7862 595 24.3926
30.9037 635 25.1992
31.0212 648 25.4558
31.1387 644 25.3772
31.2562 668 25.8457
31.3737 647 25.4362
31.4912 629 25.0799
31.6087 611 24.7184
31.7262 629 25.0799
31.8436 575 23.9792
31.9611 696 26.3818
32.0785 684 26.1534
32.1959 690 26.2679
32.3134 693 26.3249
32.4308 674 25.9615
32.5482 666 25.807
32.6655 642 25.3377
32.7829 672 25.923
32.9002 660 25.6905
33.0176 697 26.4008
33.1349 674 25.9615
33.2522 671 25.9037
33.3694 707 26.5895
33.4867 700 26.4575
33.6039 701 26.4764
33.7211 685 26.1725
33.8383 697 26.4008
33.9554 697 26.4008
34.0725 632 25.1396
34.1896 588 24.2487
34.3067 532 23.0651
34.4237 557 23.6008
34.5407 603 24.5561
34.6577 588 24.2487
34.7746 611 24.7184
34.8915 635 25.1992
35.0084 601 24.5153
35.1252 586 24.2074
35.242 545 23.3452
35.3587 629 25.0799
35.4755 620 24.8998
35.5921 620 24.8998
35.7088 672 25.923
35.8254 645 25.3969
35.9419 718 26.7955
36.0584 699 26.4386
36.1749 693 26.3249
36.2913 639 25.2784
36.4077 686 26.1916
36.524 662 25.7294
36.6403 673 25.9422
36.7565 648 25.4558
36.8727 674 25.9615
36.9889 632 25.1396
37.1049 615 24.7992
37.221 0 1
37.3369 0 1
37.4529 0 1
37.5687 0 1
37.6845 0 1
37.8003 0 1
37.916 0 1
38.0316 0 1
38.1472 0 1
40.5851 0 1
40.7008 0 1
40.8164 0 1
40.9322 0 1
41.048 0 1
41.1639 0 1
41.2798 0 1
41.3958 0 1
41.5118 0 1
41.6279 0 1
41.744 554 23.5372
41.8602 540 23.2379
41.9765 565 23.7697
42.0928 560 23.6643
42.2091 555 23.5584
42.3255 585 24.1868
42.4419 603 24.5561
42.5584 568 23.8328
42.675 542 23.2809
42.7915 591 24.3105
42.9081 559 23.6432
43.0248 518 22.7596
43.1415 465 21.5639
43.2582 497 22.2935
43.375 503 22.4277
43.4918 483 21.9773
43.6087 469 21.6564
43.7256 479 21.8861
43.8425 524 22.891
43.9595 468 21.6333
44.0765 446 21.1187
44.1935 478 21.8632
44.3106 484 22
44.4277 491 22.1585
44.5448 494 22.2261
44.6619 496 22.2711
44.7791 505 22.4722
44.8963 463 21.5174
45.0136 475 21.7945
45.1308 517 22.7376
45.2481 504 22.4499
45.3654 452 21.2603
45.4827 470 21.6795
45.6001 456 21.3542
45.7174 463 21.5174
45.8348 505 22.4722
45.9522 466 21.587
46.0697 465 21.5639
46.1871 467 21.6102
46.3046 453 21.2838
46.422 429 20.7123
46.5395 400 20
46.657 418 20.445
46.7745 377 19.4165
46.892 369 19.2094
47.0096 426 20.6398
47.1271 386 19.6469
47.2446 396 19.8997
47.3622 378 19.4422
47.4797 376 19.3907
47.5973 342 18.4932
47.7149 329 18.1384
47.8324 346 18.6011
47.95 361 19
48.0675 398 19.9499
48.1851 357 18.8944
48.3027 388 19.6977
48.4202 378 19.4422
48.5378 345 18.5742
48.6554 365 19.105
48.7729 365 19.105
48.8904 375 19.3649
49.008 375 19.3649
49.1255 413 20.3224
49.243 380 19.4936
49.3605 377 19.4165
49.478 364 19.0788
49.5955 382 19.5448
49.713 364 19.0788
49.8304 426 20.6398
49.9479 391 19.7737
50.0653 377 19.4165
50.1827 352 18.7617
50.3001 306 17.4929
50.4175 326 18.0555
50.5348 343 18.5203
50.6521 365 19.105
50.7694 366 19.1311
50.8867 356 18.868
51.004 349 18.6815
51.1212 370 19.2354
51.2384 436 20.8806
51.3556 418 20.445
51.4727 447 21.1424
51.5899 483 21.9773
51.707 463 21.5174
51.824 468 21.6333
51.9411 491 22.1585
52.0581 479 21.8861
52.175 487 22.0681
52.2919 459 21.4243
52.4088 504 22.4499
52.5257 495 22.2486
52.6425 495 22.2486
52.7593 488 22.0907
52.876 436 20.8806
52.9927 477 21.8403
53.1094 543 23.3024
53.226 534 23.1084
53.3426 484 22
53.4591 509 22.561
53.5756 526 22.9347
53.692 519 22.7816
53.8084 489 22.1133
53.9248 406 20.1494
54.0411 424 20.5913
54.1573 460 21.4476
54.2735 0 1
54.3896 0 1
54.5057 0 1
54.6217 0 1
54.7377 0 1
54.8537 0 1
54.9695 0 1
55.0853 0 1
55.2011 0 1
55.3168 0 1
55.4324 0 1
57.824 0 1
57.9396 0 1
58.0553 0 1
58.1711 0 1
58.2869 0 1
58.4028 0 1
58.5187 0 1
58.6347 0 1
58.7508 0 1
58.8669 0 1
58.983 515 22.6936
59.0992 478 21.8632
59.2155 463 21.5174
59.3318 504 22.4499
59.4482 485 22.0227
59.5646 527 22.9565
59.681 549 23.4307
59.7975 542 23.2809
59.9141 523 22.8692
60.0306 550 23.4521
60.1473 566 23.7908
60.2639 576 24
60.3807 528 22.9783
60.4974 580 24.0832
60.6142 559 23.6432
60.731 520 22.8035
60.8479 529 23
60.9648 587 24.2281
61.0818 520 22.8035
61.1987 489 22.1133
61.3158 536 23.1517
61.4328 566 23.7908
61.5499 493 22.2036
61.667 540 23.2379
61.7841 522 22.8473
61.9013 447 21.1424
62.0185 532 23.0651
62.1357 539 23.2164
62.253 476 21.8174
62.3702 538 23.1948
62.4875 468 21.6333
62.6049 440 20.9762
62.7222 389 19.7231
62.8396 436 20.8806
62.9569 441 21
63.0743 470 21.6795
63.1918 473 21.7486
63.3092 458 21.4009
63.4267 503 22.4277
63.5441 451 21.2368
63.6616 482 21.9545
63.7791 492 22.1811
63.8966 488 22.0907
64.0142 475 21.7945
64.1317 443 21.0476
64.2492 489 22.1133
64.3668 475 21.7945
64.4843 417 20.4206
64.6019 489 22.1133
64.7195 479 21.8861
64.837 521 22.8254
64.9546 434 20.8327
65.0722 449 21.1896
65.1898 435 20.8567
65.3074 451 21.2368
65.4249 460 21.4476
65.5425 431 20.7605
65.6601 436 20.8806
65.7777 435 20.8567
65.8952 443 21.0476
66.0128 425 20.6155
66.1304 413 20.3224
66.2479 410 20.2485
66.3655 373 19.3132
66.483 358 18.9209
66.6005 343 18.5203
66.718 416 20.3961
66.8355 401 20.025
66.953 358 18.9209
67.0705 420 20.4939
67.1879 417 20.4206
67.3054 463 21.5174
67.4228 434 20.8327
67.5402 438 20.9284
67.6576 427 20.664
67.7749 412 20.2978
67.8923 462 21.4942
68.0096 409 20.2237
68.1269 422 20.5426
68.2442 434 20.8327
68.3614 414 20.347
68.4787 416 20.3961
68.5958 444 21.0713
68.713 415 20.3715
68.8302 404 20.0998
68.9473 420 20.4939
69.0643 425 20.6155
69.1814 421 20.5183
69.2984 405 20.1246
69.4154 428 20.6882
69.5323 397 19.9249
69.6492 420 20.4939
69.7661 377 19.4165
69.8829 373 19.3132
69.9997 359 18.9473
70.1165 305 17.4642
70.2332 389 19.7231
70.3499 353 18.7883
70.4665 364 19.0788
70.5831 390 19.7484
70.6996 388 19.6977
70.8161 393 19.8242
70.9326 378 19.4422
71.049 370 19.2354
71.1653 371 19.2614
71.2817 375 19.3649
71.3979 353 18.7883
71.5141 365 19.105
71.6303 338 18.3848
71.7464 310 17.6068
71.8624 0 1
71.9784 0 1
72.0944 0 1
72.2102 0 1
72.3261 0 1
72.4418 0 1
72.5575 0 1
72.6732 0 1
75.1054 0 1
75.2209 0 1
75.3365 0 1
75.4521 0 1
75.5678 0 1
75.6835 0 1
75.7993 0 1
75.9151 0 1
76.031 0 1
76.147 274 16.5529
76.263 268 16.3707
76.3791 308 17.5499
76.4952 285 16.8819
76.6113 267 16.3401
76.7276 330 18.1659
76.8438 290 17.0294
76.9601 290 17.0294
77.0765 295 17.1756
77.1929 309 17.5784
77.3093 237 15.3948
77.4258 275 16.5831
77.5423 268 16.3707
77.6589 285 16.8819
77.7755 263 16.2173
77.8921 262 16.1864
78.0088 247 15.7162
78.1256 250 15.8114
78.2423 245 15.6525
78.3591 223 14.9332
78.4759 259 16.0935
78.5928 229 15.1327
78.7097 234 15.2971
78.8266 246 15.6844
78.9436 256 16
79.0606 218 14.7648
79.1776 178 13.3417
79.2946 166 12.8841
79.4117 179 13.3791
79.5288 218 14.7648
79.6459 219 14.7986
79.7631 223 14.9332
79.8802 188 13.7113
79.9974 209 14.4568
80.1147 175 13.2288
80.2319 164 12.8062
80.3491 210 14.4914
80.4664 154 12.4097
80.5837 180 13.4164
80.701 190 13.784
80.8183 179 13.3791
80.9357 156 12.49
81.053 177 13.3041
81.1704 161 12.6886
81.2877 167 12.9228
81.4051 132 11.4891
81.5225 136 11.6619
81.6399 154 12.4097
81.7573 141 11.8743
81.8747 128 11.3137
81.9922 141 11.8743
82.1096 128 11.3137
82.227 124 11.1355
82.3444 109 10.4403
82.4619 128 11.3137
82.5793 120 10.9545
82.6967 127 11.2694
82.8142 99 9.94987
82.9316 93 9.64365
83.049 91 9.53939
83.1664 102 10.0995
83.2838 98 9.89949
83.4012 88 9.38083
83.5186 82 9.05539
83.636 76 8.7178
83.7534 86 9.27362
83.8708 74 8.60233
83.9881 64 8
84.1055 73 8.544
84.2228 61 7.81025
84.3401 70 8.3666
84.4575 45 6.7082
84.5747 56 7.48331
84.692 66 8.12404
84.8093 61 7.81025
84.9265 57 7.54983
85.0437 58 7.61577
85.1609 52 7.2111
85.2781 57 7.54983
85.3952 44 6.63325
85.5123 39 6.245
85.6294 48 6.9282
85.7465 45 6.7082
85.8636 50 7.07107
85.9806 53 7.28011
86.0976 47 6.85565
86.2145 43 6.55744
86.3315 54 7.34847
86.4484 41 6.40312
86.5652 64 8
86.682 60 7.74597
86.7988 75 8.66025
86.9156 62 7.87401
87.0323 65 8.06226
87.149 73 8.544
87.2657 69 8.30662
87.3823 68 8.24621
87.4988 100 10
87.6154 83 9.11043
87.7318 86 9.27362
87.8483 99 9.94987
87.9647 94 9.69536
88.081 113 10.6301
88.1973 102 10.0995
88.3136 111 10.5357
88.4298 121 11
88.546 121 11
88.6621 99 9.94987
88.7781 117 10.8167
88.8942 0 1
89.0101 0 1
89.126 0 1
89.2419 0 1
89.3577 0 1
89.4734 0 1
89.5891 0 1
89.7047 0 1
89.8203 0 1
89.9358 0 1
92.3269 0 1
92.4424 0 1
92.558 0 1
92.6736 0 1
92.7893 0 1
92.905 0 1
93.0208 0 1
93.1366 0 1
93.2525 0 1
93.3685 0 1
93.4845 0 1
93.6005 215 14.6629
93.7167 188 13.7113
93.8328 177 13.3041
93.949 205 14.3178
94.0653 221 14.8661
94.1816 193 13.8924
94.2979 171 13.0767
94.4143 201 14.1774
94.5307 159 12.6095
94.6472 136 11.6619
94.7637 177 13.3041
94.8803 179 13.3791
94.9969 163 12.7671
95.1135 171 13.0767
95.2302 158 12.5698
95.3469 143 11.9583
95.4637 101 10.0499
95.5805 119 10.9087
95.6973 178 13.3417
95.8142 168 12.9615
95.9311 170 13.0384
96.048 188 13.7113
96.1649 174 13.1909
96.2819 220 14.8324
96.3989 201 14.1774
96.516 199 14.1067
96.633 193 13.8924
96.7501 240 15.4919
96.8673 177 13.3041
96.9844 240 15.4919
97.1016 208 14.4222
97.2188 269 16.4012
97.336 244 15.6205
97.4532 267 16.3401
97.5704 238 15.4272
97.6877 273 16.5227
97.805 272 16.4924
97.9223 256 16
98.0396 252 15.8745
98.1569 301 17.3494
98.2743 319 17.8606
98.3916 266 16.3095
98.509 270 16.4317
98.6264 326 18.0555
98.7438 297 17.2337
98.8612 294 17.1464
98.9786 297 17.2337
99.096 192 13.8564
99.2134 207 14.3875
99.3308 278 16.6733
99.4482 329 18.1384
99.5656 334 18.2757
99.6831 341 18.4662
99.8005 351 18.735
99.9179 371 19.2614
100.035 363 19.0526
100.153 393 19.8242
100.27 387 19.6723
100.388 388 19.6977
100.505 376 19.3907
100.622 373 19.3132
100.74 406 20.1494
100.857 417 20.4206
100.975 407 20.1742
101.092 398 19.9499
101.209 434 20.8327
101.327 430 20.7364
101.444 460 21.4476
101.561 399 19.975
101.679 428 20.6882
101.796 423 20.567
101.913 430 20.7364
102.03 451 21.2368
102.148 404 20.0998
102.265 424 20.5913
102.382 425 20.6155
102.499 365 19.105
102.616 327 18.0831
102.733 281 16.7631
102.851 352 18.7617
102.968 404 20.0998
103.085 419 20.4695
103.202 459 21.4243
103.319 440 20.9762
103.436 486 22.0454
103.552 462 21.4942
103.669 410 20.2485
103.786 489 22.1133
103.903 447 21.1424
104.02 473 21.7486
104.137 416 20.3961
104.253 457 21.3776
104.37 440 20.9762
104.487 503 22.4277
104.603 451 21.2368
104.72 457 21.3776
104.836 427 20.664
104.953 437 20.9045
105.069 471 21.7025
105.186 480 21.9089
105.302 480 21.9089
105.418 425 20.6155
105.535 422 20.5426
105.651 467 21.6102
105.767 447 21.1424
105.883 441 21
105.999 366 19.1311
106.115 0 1
106.231 0 1
106.347 0 1
106.463 0 1
106.579 0 1
106.694 0 1
106.81 0 1
106.926 0 1
107.041 0 1
107.157 0 1
109.576 0 1
109.692 0 1
109.807 0 1
109.923 0 1
110.039 0 1
110.155 0 1
110.27 0 1
110.386 0 1
110.502 0 1
110.618 352 18.7617
110.735 325 18.0278
110.851 355 18.8414
110.967 360 18.9737
111.083 308 17.5499
111.199 296 17.2047
111.316 253 15.906
111.432 297 17.2337
111.549 315 17.7482
111.665 356 18.868
111.782 362 19.0263
111.898 357 18.8944
112.015 316 17.7764
112.132 337 18.3576
112.248 313 17.6918
112.365 297 17.2337
112.482 362 19.0263
112.599 305 17.4642
112.716 255 15.9687
112.832 281 16.7631
112.949 280 16.7332
113.066 304 17.4356
113.183 266 16.3095
113.3 284 16.8523
113.417 301 17.3494
113.534 279 16.7033
113.652 289 17
113.769 274 16.5529
113.886 289 17
114.003 218 14.7648
114.12 276 16.6132
114.238 240 15.4919
114.355 239 15.4596
114.472 257 16.0312
114.589 228 15.0997
114.707 231 15.1987
114.824 221 14.8661
114.942 237 15.3948
115.059 210 14.4914
115.176 252 15.8745
115.294 233 15.2643
115.411 266 16.3095
115.529 237 15.3948
115.646 267 16.3401
115.764 248 15.748
115.881 248 15.748
115.999 247 15.7162
116.116 238 15.4272
116.234 241 15.5242
116.351 255 15.9687
116.469 256 16
116.586 252 15.8745
116.704 255 15.9687
116.821 244 15.6205
116.939 250 15.8114
117.056 250 15.8114
117.174 218 14.7648
117.291 253 15.906
117.409 257 16.0312
117.526 273 16.5227
117.644 257 16.0312
117.761 237 15.3948
117.879 239 15.4596
117.996 200 14.1421
118.114 201 14.1774
118.231 198 14.0712
118.349 233 15.2643
118.466 233 15.2643
118.584 237 15.3948
118.701 222 14.8997
118.819 246 15.6844
118.936 248 15.748
119.053 254 15.9374
119.171 240 15.4919
119.288 283 16.8226
119.405 262 16.1864
119.523 269 16.4012
119.64 248 15.748
119.757 248 15.748
119.875 250 15.8114
119.992 259 16.0935
120.109 247 15.7162
120.226 251 15.843
120.343 264 16.2481
120.46 256 16
120.578 242 15.5563
120.695 274 16.5529
120.812 258 16.0624
120.929 253 15.906
121.046 272 16.4924
121.163 274 16.5529
121.279 244 15.6205
121.396 262 16.1864
121.513 255 15.9687
121.63 213 14.5945
121.747 194 13.9284
121.863 168 12.9615
121.98 211 14.5258
122.097 246 15.6844
122.213 273 16.5227
122.33 251 15.843
122.446 259 16.0935
122.563 254 15.9374
122.679 243 15.5885
122.795 277 16.6433
122.912 281 16.7631
123.028 304 17.4356
123.144 303 17.4069
123.26 285 16.8819
123.377 0 1
123.493 0 1
123.609 0 1
123.725 0 1
123.84 0 1
123.956 0 1
124.072 0 1
124.188 0 1
124.303 0 1
124.419 0 1
126.852 0 1
126.968 0 1
127.083 0 1
127.199 0 1
127.315 0 1
127.431 0 1
127.547 0 1
127.663 0 1
127.779 0 1
127.895 0 1
128.011 0 1
128.127 0 1
128.243 0 1
128.359 309 17.5784
128.476 377 19.4165
128.592 352 18.7617
128.708 386 19.6469
128.825 378 19.4422
128.941 347 18.6279
129.058 354 18.8149
129.174 359 18.9473
129.291 371 19.2614
129.408 344 18.5472
129.524 338 18.3848
129.641 348 18.6548
129.758 347 18.6279
129.875 392 19.799
129.992 365 19.105
130.108 397 19.9249
130.225 335 18.303
130.342 345 18.5742
130.459 294 17.1464
130.576 273 16.5227
130.693 232 15.2315
130.81 249 15.7797
130.928 289 17
131.045 321 17.9165
131.162 371 19.2614
131.279 361 19
131.396 348 18.6548
131.513 403 20.0749
131.631 394 19.8494
131.748 344 18.5472
131.865 366 19.1311
131.983 367 19.1572
132.1 391 19.7737
132.217 369 19.2094
132.335 395 19.8746
132.452 375 19.3649
132.57 362 19.0263
132.687 361 19
132.804 441 21
132.922 365 19.105
133.039 394 19.8494
133.157 377 19.4165
133.274 369 19.2094
133.392 397 19.9249
133.509 410 20.2485
133.627 410 20.2485
133.744 380 19.4936
133.862 369 19.2094
133.979 339 18.412
134.097 339 18.412
134.214 270 16.4317
134.332 277 16.6433
134.449 280 16.7332
134.567 330 18.1659
134.684 344 18.5472
134.802 363 19.0526
134.919 415 20.3715
135.037 405 20.1246
135.154 418 20.445
135.272 468 21.6333
135.389 430 20.7364
135.507 449 21.1896
135.624 442 21.0238
135.742 435 20.8567
135.859 432 20.7846
135.977 425 20.6155
136.094 418 20.445
136.211 473 21.7486
136.329 405 20.1246
136.446 451 21.2368
136.564 427 20.664
136.681 465 21.5639
136.798 453 21.2838
136.915 461 21.4709
137.033 442 21.0238
137.15 458 21.4009
137.267 433 20.8087
137.384 406 20.1494
137.502 407 20.1742
137.619 409 20.2237
137.736 347 18.6279
137.853 364 19.0788
137.97 319 17.8606
138.087 338 18.3848
138.204 358 18.9209
138.321 384 19.5959
138.438 441 21
138.555 467 21.6102
138.672 437 20.9045
138.788 484 22
138.905 498 22.3159
139.022 476 21.8174
139.139 499 22.3383
139.255 483 21.9773
139.372 496 22.2711
139.488 486 22.0454
139.605 445 21.095
139.721 445 21.095
139.838 471 21.7025
139.954 486 22.0454
140.071 462 21.4942
140.187 478 21.8632
140.303 461 21.4709
140.419 499 22.3383
140.535 496 22.2711
140.652 464 21.5407
140.768 0 1
140.884 0 1
141 0 1
141.115 0 1
141.231 0 1
141.347 0 1
141.463 0 1
141.578 0 1
141.694 0 1
144.104 0 1
144.219 0 1
144.335 0 1
144.45 0 1
144.566 0 1
144.682 0 1
144.798 0 1
144.914 0 1
145.03 0 1
145.146 471 21.7025
145.262 468 21.6333
145.378 440 20.9762
145.494 447 21.1424
145.61 484 22
145.726 470 21.6795
145.842 453 21.2838
145.959 455 21.3307
146.075 442 21.0238
146.192 375 19.3649
146.308 396 19.8997
146.425 367 19.1572
146.541 328 18.1108
146.658 348 18.6548
146.774 396 19.8997
146.891 366 19.1311
147.008 442 21.0238
147.125 440 20.9762
147.241 455 21.3307
147.358 473 21.7486
147.475 438 20.9284
147.592 483 21.9773
147.709 472 21.7256
147.826 440 20.9762
147.943 443 21.0476
148.06 462 21.4942
148.177 440 20.9762
148.294 474 21.7715
148.411 456 21.3542
148.528 469 21.6564
148.645 452 21.2603
148.762 420 20.4939
148.88 483 21.9773
148.997 469 21.6564
149.114 488 22.0907
149.231 454 21.3073
149.349 447 21.1424
149.466 421 20.5183
149.583 431 20.7605
149.701 394 19.8494
149.818 417 20.4206
149.935 395 19.8746
150.053 340 18.4391
150.17 347 18.6279
150.287 363 19.0526
150.405 342 18.4932
150.522 382 19.5448
150.64 440 20.9762
150.757 424 20.5913
150.875 404 20.0998
150.992 455 21.3307
151.11 475 21.7945
151.227 429 20.7123
151.344 446 21.1187
151.462 472 21.7256
151.579 469 21.6564
151.697 495 22.2486
151.814 491 22.1585
151.932 509 22.561
152.049 492 22.1811
152.167 466 21.587
152.284 459 21.4243
152.402 501 22.383
152.519 441 21
152.636 466 21.587
152.754 461 21.4709
152.871 434 20.8327
152.989 485 22.0227
153.106 483 21.9773
153.223 464 21.5407
153.341 430 20.7364
153.458 418 20.445
153.575 387 19.6723
153.693 380 19.4936
153.81 368 19.1833
153.927 357 18.8944
154.044 380 19.4936
154.162 420 20.4939
154.279 434 20.8327
154.396 481 21.9317
154.513 451 21.2368
154.63 470 21.6795
154.747 479 21.8861
154.864 486 22.0454
154.981 471 21.7025
155.098 528 22.9783
155.215 474 21.7715
155.332 488 22.0907
155.449 473 21.7486
155.566 524 22.891
155.683 534 23.1084
155.8 483 21.9773
155.917 488 22.0907
156.033 518 22.7596
156.15 0 1
156.267 0 1
156.383 0 1
156.5 0 1
156.617 0 1
156.733 0 1
156.85 0 1
156.966 0 1
157.082 0 1
157.199 0 1
157.315 0 1
157.431 0 1
157.547 0 1
157.664 0 1
157.78 0 1
157.896 0 1
158.012 0 1
158.128 0 1
158.244 0 1
158.359 0 1
158.475 0 1
158.591 0 1
158.706 0 1
