
6.15755 0 1
6.2731 0 1
6.3887 0 1
6.50437 0 1
6.62009 0 1
6.73587 0 1
6.8517 0 1
6.96759 0 1
7.08353 0 1
7.19952 0 1
7.31557 0 1
7.43166 0 1
7.54781 0 1
7.664 0 1
7.78024 0 1
7.89653 0 1
8.01286 0 1
8.12924 0 1
8.24567 0 1
8.36213 0 1
8.47864 0 1
8.59519 0 1
8.71178 0 1
8.82841 0 1
8.94508 0 1
9.06179 0 1
9.17853 0 1
9.29531 0 1
9.41212 0 1
9.52897 0 1
9.64584 0 1
9.76276 0 1
9.8797 0 1
9.99667 0 1
10.1137 0 1
10.2307 0 1
10.3478 0 1
10.4648 0 1
10.5819 0 1
10.6991 0 1
10.8162 0 1
10.9334 0 1
11.0506 0 1
11.1678 0 1
11.285 0 1
11.4023 0 1
11.5196 0 1
11.6369 0 1
11.7542 0 1
11.8715 0 1
11.9888 0 1
12.1062 0 1
12.2235 0 1
12.3409 0 1
12.4582 0 1
12.5756 0 1
12.693 0 1
12.8104 0 1
12.9278 0 1
13.0452 0 1
13.1626 0 1
13.28 0 1
13.3974 0 1
13.5149 0 1
13.6323 0 1
13.7497 0 1
13.8671 0 1
13.9845 0 1
14.1019 0 1
14.2193 0 1
14.3367 0 1
14.4541 0 1
14.5714 0 1
14.6888 0 1
14.8062 0 1
14.9235 0 1
15.0408 0 0
15.1581 0 0
15.2755 0 0
15.3927 0 0
15.51 0 0
15.6273 0 0
15.7445 0 0
15.8617 0 0
15.9789 0 0
16.0961 0 0
16.2132 0 0
16.3304 0 0
16.4475 0 0
16.5646 0 0
16.6816 0 0
16.7986 0 0
16.9156 0 0
17.0326 0 0
17.1496 0 0
17.2665 0 0
17.3833 0 0
17.5002 0 0
17.617 0 0
17.7338 0 0
17.8505 0 0
17.9672 0 0
18.0839 0 0
18.2005 0 0
18.3171 0 0
18.4337 0 0
18.5502 0 0
18.6666 0 0
18.7831 0 0
18.8994 0 0
19.0158 0 0
19.1321 0 0
19.2483 0 0
19.3645 0 0
19.4806 0 0
19.5967 0 0
19.7128 0 0
19.8288 0 0
19.9447 0 0
20.0606 0 1
20.1764 0 1
20.2922 0 1
20.4079 0 1
20.5236 0 1
20.6392 0 1
20.7548 0 1
20.8702 0 1
23.3078 0 1
23.4233 0 1
23.539 0 1
23.6547 0 1
23.7704 0 1
23.8862 0 1
24.0021 0 1
24.118 0 1
24.234 0 1
24.35 0 1
24.4661 100271 316.656
24.5822 104899 323.881
24.6984 109233 330.504
24.8146 114298 338.08
24.9309 120654 347.353
25.0472 125766 354.635
25.1636 127196 356.645
25.28 130293 360.961
25.3965 129484 359.839
25.513 130356 361.048
25.6296 132820 364.445
25.7462 134250 366.401
25.8628 133433 365.285
25.9795 134535 366.79
26.0962 133799 365.785
26.213 133624 365.546
26.3298 131489 362.614
26.4466 130926 361.837
26.5635 128974 359.13
26.6804 125021 353.583
26.7973 121667 348.808
26.9143 116562 341.412
27.0313 112388 335.243
27.1483 110534 332.467
27.2653 110530 332.461
27.3824 109997 331.658
27.4996 107783 328.303
27.6167 101626 318.788
27.7339 96052 309.923
27.8511 91968 303.262
27.9683 89856 299.76
28.0855 90011 300.018
28.2028 89638 299.396
28.3201 91956 303.242
28.4374 93373 305.57
28.5547 94065 306.7
28.6721 94013 306.615
28.7894 93065 305.066
28.9068 91187 301.972
29.0242 89290 298.814
29.1416 88467 297.434
29.259 86435 293.998
29.3764 85949 293.171
29.4939 84378 290.479
29.6113 83409 288.806
29.7288 82194 286.695
29.8463 80211 283.215
29.9638 79168 281.368
30.0812 78199 279.641
30.1987 76248 276.13
30.3162 73559 271.218
30.4337 71038 266.53
30.5512 68543 261.807
30.6687 67047 258.934
30.7862 65885 256.681
30.9037 67190 259.21
31.0212 67121 259.077
31.1387 65660 256.242
31.2562 63637 252.264
31.3737 60672 246.317
31.4912 60024 244.998
31.6087 59910 244.765
31.7262 60994 246.97
31.8436 62770 250.539
31.9611 65305 255.548
32.0785 66534 257.942
32.1959 67036 258.913
32.3134 67524 259.854
32.4308 67042 258.925
32.5482 66627 258.122
32.6655 66582 258.035
32.7829 65880 256.671
32.9002 66352 257.589
33.0176 66459 257.796
33.1349 66241 257.373
33.2522 65140 255.225
33.3694 65905 256.72
33.4867 65679 256.279
33.6039 65920 256.749
33.7211 65082 255.112
33.8383 64779 254.517
33.9554 63998 252.978
34.0725 61999 248.996
34.1896 60496 245.959
34.3067 59546 244.02
34.4237 58336 241.528
34.5407 58253 241.357
34.6577 58071 240.979
34.7746 58059 240.954
34.8915 56014 236.673
35.0084 53436 231.162
35.1252 51952 227.93
35.242 52631 229.414
35.3587 53331 230.935
35.4755 56313 237.304
35.5921 59049 243
35.7088 60907 246.793
35.8254 62760 250.519
35.9419 62814 250.627
36.0584 62669 250.338
36.1749 62419 249.838
36.2913 62184 249.367
36.4077 62051 249.1
36.524 62161 249.321
36.6403 61646 248.286
36.7565 61706 248.407
36.8727 61699 248.393
36.9889 62109 249.217
37.1049 60964 246.909
37.221 0 1
37.3369 0 1
37.4529 0 1
37.5687 0 1
37.6845 0 1
37.8003 0 1
37.916 0 1
38.0316 0 1
38.1472 0 1
40.5851 0 1
40.7008 0 1
40.8164 0 1
40.9322 0 1
41.048 0 1
41.1639 0 1
41.2798 0 1
41.3958 0 1
41.5118 0 1
41.6279 0 1
41.744 50429 224.564
41.8602 52001 228.037
41.9765 52064 228.175
42.0928 52115 228.287
42.2091 52517 229.166
42.3255 51914 227.846
42.4419 51799 227.594
42.5584 51806 227.609
42.675 51464 226.857
42.7915 50622 224.993
42.9081 49585 222.677
43.0248 48322 219.823
43.1415 47163 217.17
43.2582 45874 214.182
43.375 46149 214.823
43.4918 46674 216.042
43.6087 45192 212.584
43.7256 42701 206.642
43.8425 40718 201.787
43.9595 40038 200.095
44.0765 40708 201.762
44.1935 42682 206.596
44.3106 44160 210.143
44.4277 44946 212.005
44.5448 45340 212.932
44.6619 44195 210.226
44.7791 44110 210.024
44.8963 43779 209.234
45.0136 43160 207.75
45.1308 42525 206.216
45.2481 41980 204.89
45.3654 40973 202.418
45.4827 41083 202.689
45.6001 39990 199.975
45.7174 40261 200.651
45.8348 39944 199.86
45.9522 39586 198.962
46.0697 39216 198.03
46.1871 38490 196.189
46.3046 37800 194.422
46.422 37900 194.679
46.5395 36878 192.036
46.657 35533 188.502
46.7745 34297 185.194
46.892 33405 182.77
47.0096 33454 182.904
47.1271 33316 182.527
47.2446 32467 180.186
47.3622 30433 174.451
47.4797 29152 170.74
47.5973 29084 170.54
47.7149 30035 173.306
47.8324 31572 177.685
47.95 31937 178.709
48.0675 32067 179.073
48.1851 31375 177.13
48.3027 30976 176
48.4202 31041 176.185
48.5378 30766 175.402
48.6554 30508 174.665
48.7729 30878 175.721
48.8904 30507 174.663
49.008 30568 174.837
49.1255 30139 173.606
49.243 30709 175.24
49.3605 30288 174.034
49.478 31162 176.528
49.5955 31340 177.031
49.713 31351 177.062
49.8304 31580 177.708
49.9479 31957 178.765
50.0653 32254 179.594
50.1827 31881 178.553
50.3001 30923 175.849
50.4175 30197 173.773
50.5348 30454 174.511
50.6521 30887 175.747
50.7694 30851 175.645
50.8867 30590 174.9
51.004 30615 174.971
51.1212 33011 181.689
51.2384 35920 189.526
51.3556 38197 195.441
51.4727 39453 198.628
51.5899 40390 200.973
51.707 41029 202.556
51.824 41802 204.455
51.9411 42239 205.521
52.0581 42699 206.637
52.175 43654 208.935
52.2919 43540 208.662
52.4088 44728 211.49
52.5257 45225 212.662
52.6425 45574 213.481
52.7593 45562 213.453
52.876 46539 215.729
52.9927 47095 217.014
53.1094 47812 218.66
53.226 48091 219.297
53.3426 48547 220.334
53.4591 49184 221.775
53.5756 49295 222.025
53.692 49708 222.953
53.8084 49087 221.556
53.9248 48277 219.72
54.0411 46917 216.603
54.1573 46090 214.686
54.2735 0 1
54.3896 0 1
54.5057 0 1
54.6217 0 1
54.7377 0 1
54.8537 0 1
54.9695 0 1
55.0853 0 1
55.2011 0 1
55.3168 0 1
55.4324 0 1
57.824 0 1
57.9396 0 1
58.0553 0 1
58.1711 0 1
58.2869 0 1
58.4028 0 1
58.5187 0 1
58.6347 0 1
58.7508 0 1
58.8669 0 1
58.983 54480 233.41
59.0992 54394 233.225
59.2155 52489 229.105
59.3318 50213 224.083
59.4482 48559 220.361
59.5646 47914 218.893
59.681 49099 221.583
59.7975 51487 226.907
59.9141 53266 230.794
60.0306 54301 233.026
60.1473 54225 232.863
60.2639 54173 232.751
60.3807 53621 231.562
60.4974 53052 230.33
60.6142 52918 230.039
60.731 52783 229.746
60.8479 51316 226.53
60.9648 51638 227.24
61.0818 50928 225.672
61.1987 51090 226.031
61.3158 50968 225.761
61.4328 50416 224.535
61.5499 50445 224.6
61.667 49803 223.166
61.7841 49766 223.083
61.9013 49505 222.497
62.0185 49400 222.261
62.1357 49403 222.268
62.253 49124 221.639
62.3702 48801 220.909
62.4875 48160 219.454
62.6049 46924 216.619
62.7222 45763 213.923
62.8396 43468 208.49
62.9569 42690 206.616
63.0743 41550 203.838
63.1918 42585 206.361
63.3092 44949 212.012
63.4267 45817 214.049
63.5441 46246 215.049
63.6616 46229 215.009
63.7791 45490 213.284
63.8966 45551 213.427
64.0142 44919 211.941
64.1317 44612 211.216
64.2492 44119 210.045
64.3668 43897 209.516
64.4843 43630 208.878
64.6019 43851 209.406
64.7195 42917 207.164
64.837 43076 207.548
64.9546 42856 207.017
65.0722 42359 205.813
65.1898 42272 205.602
65.3074 43141 207.704
65.4249 42105 205.195
65.5425 42051 205.063
65.6601 42338 205.762
65.7777 42137 205.273
65.8952 41773 204.384
66.0128 41645 204.071
66.1304 41778 204.397
66.2479 40967 202.403
66.3655 38204 195.458
66.483 36933 192.18
66.6005 35789 189.18
66.718 36255 190.407
66.8355 38825 197.041
66.953 40450 201.122
67.0705 40921 202.289
67.1879 41157 202.872
67.3054 40609 201.517
67.4228 40053 200.132
67.5402 40246 200.614
67.6576 39895 199.737
67.7749 40164 200.41
67.8923 39624 199.058
68.0096 39603 199.005
68.1269 39477 198.688
68.2442 39438 198.59
68.3614 39631 199.075
68.4787 40038 200.095
68.5958 39776 199.439
68.713 39922 199.805
68.8302 39483 198.703
68.9473 40360 200.898
69.0643 39919 199.797
69.1814 40341 200.851
69.2984 40237 200.592
69.4154 40125 200.312
69.5323 40164 200.41
69.6492 40008 200.02
69.7661 40451 201.124
69.8829 40789 201.963
69.9997 39469 198.668
70.1165 37341 193.238
70.2332 34339 185.308
70.3499 33650 183.439
70.4665 36957 192.242
70.5831 39113 197.77
70.6996 38773 196.909
70.8161 38491 196.191
70.9326 38331 195.783
71.049 38170 195.371
71.1653 37437 193.486
71.2817 36884 192.052
71.3979 35960 189.631
71.5141 35146 187.473
71.6303 34540 185.849
71.7464 31316 176.963
71.8624 0 1
71.9784 0 1
72.0944 0 1
72.2102 0 1
72.3261 0 1
72.4418 0 1
72.5575 0 1
72.6732 0 1
75.1054 0 1
75.2209 0 1
75.3365 0 1
75.4521 0 1
75.5678 0 1
75.6835 0 1
75.7993 0 1
75.9151 0 1
76.031 0 1
76.147 23731 154.049
76.263 25129 158.521
76.3791 24371 156.112
76.4952 23799 154.269
76.6113 22828 151.089
76.7276 22222 149.07
76.8438 21299 145.942
76.9601 20684 143.819
77.0765 20009 141.453
77.1929 19612 140.043
77.3093 18850 137.295
77.4258 18176 134.818
77.5423 17268 131.408
77.6589 16406 128.086
77.7755 15714 125.355
77.8921 14681 121.165
78.0088 14367 119.862
78.1256 13472 116.069
78.2423 12841 113.318
78.3591 12204 110.472
78.4759 11929 109.22
78.5928 11519 107.327
78.7097 11428 106.902
78.8266 11755 108.42
78.9436 12369 111.216
79.0606 12387 111.297
79.1776 11430 106.911
79.2946 10661 103.252
79.4117 12881 113.494
79.5288 14217 119.235
79.6459 14734 121.384
79.7631 14235 119.311
79.8802 15066 122.744
79.9974 15567 124.768
80.1147 16536 128.592
80.2319 16907 130.027
80.3491 17357 131.746
80.4664 17837 133.555
80.5837 18142 134.692
80.701 18699 136.744
80.8183 19382 139.219
80.9357 19740 140.499
81.053 20215 142.179
81.1704 20457 143.028
81.2877 20597 143.517
81.4051 20131 141.884
81.5225 20279 142.404
81.6399 19641 140.146
81.7573 20121 141.849
81.8747 19980 141.351
81.9922 19336 139.054
82.1096 19767 140.595
82.227 19803 140.723
82.3444 19797 140.702
82.4619 20552 143.36
82.5793 20784 144.167
82.6967 20265 142.355
82.8142 19170 138.456
82.9316 16948 130.184
83.049 16662 129.081
83.1664 19662 140.221
83.2838 20422 142.906
83.4012 20079 141.7
83.5186 19748 140.528
83.636 20231 142.236
83.7534 20687 143.83
83.8708 21324 146.027
83.9881 21768 147.54
84.1055 21968 148.216
84.2228 22369 149.563
84.3401 22829 151.093
84.4575 22983 151.601
84.5747 23916 154.648
84.692 24672 157.073
84.8093 25413 159.415
84.9265 25481 159.628
85.0437 26222 161.932
85.1609 26397 162.472
85.2781 26772 163.622
85.3952 27587 166.093
85.5123 27900 167.033
85.6294 28425 168.597
85.7465 29283 171.123
85.8636 30019 173.26
85.9806 31011 176.099
86.0976 31419 177.254
86.2145 32127 179.24
86.3315 30709 175.24
86.4484 28047 167.472
86.5652 28881 169.944
86.682 32108 179.187
86.7988 34402 185.478
86.9156 35099 187.347
87.0323 35541 188.523
87.149 35199 187.614
87.2657 35969 189.655
87.3823 36524 191.113
87.4988 37002 192.359
87.6154 37193 192.855
87.7318 37676 194.103
87.8483 37880 194.628
87.9647 38351 195.834
88.081 38795 196.964
88.1973 39432 198.575
88.3136 39442 198.6
88.4298 39211 198.018
88.546 39369 198.416
88.6621 38905 197.244
88.7781 39078 197.682
88.8942 0 1
89.0101 0 1
89.126 0 1
89.2419 0 1
89.3577 0 1
89.4734 0 1
89.5891 0 1
89.7047 0 1
89.8203 0 1
89.9358 0 1
92.3269 0 1
92.4424 0 1
92.558 0 1
92.6736 0 1
92.7893 0 1
92.905 0 1
93.0208 0 1
93.1366 0 1
93.2525 0 1
93.3685 0 1
93.4845 0 1
93.6005 27567 166.033
93.7167 27461 165.714
93.8328 26782 163.652
93.949 26006 161.264
94.0653 25376 159.298
94.1816 25180 158.682
94.2979 24669 157.064
94.4143 24210 155.596
94.5307 23843 154.412
94.6472 23156 152.171
94.7637 23143 152.128
94.8803 22888 151.288
94.9969 22921 151.397
95.1135 22359 149.529
95.2302 22489 149.963
95.3469 21886 147.939
95.4637 21469 146.523
95.5805 20397 142.818
95.6973 18711 136.788
95.8142 15650 125.1
95.9311 14731 121.371
96.048 16599 128.837
96.1649 17495 132.269
96.2819 17801 133.42
96.3989 17687 132.992
96.516 17051 130.579
96.633 16746 129.406
96.7501 16372 127.953
96.8673 15770 125.579
96.9844 15563 124.752
97.1016 15512 124.547
97.2188 15208 123.321
97.336 15162 123.134
97.4532 14942 122.237
97.5704 14906 122.09
97.6877 14230 119.29
97.805 13557 116.435
97.9223 13291 115.287
98.0396 13314 115.386
98.1569 13029 114.145
98.2743 12805 113.159
98.3916 12935 113.732
98.509 12899 113.574
98.6264 12751 112.92
98.7438 12998 114.009
98.8612 12840 113.314
98.9786 12807 113.168
99.096 13093 114.425
99.2134 13298 115.317
99.3308 13433 115.901
99.4482 12465 111.647
99.5656 11616 107.778
99.6831 11468 107.089
99.8005 12155 110.25
99.9179 12430 111.49
100.035 12486 111.741
100.153 12251 110.684
100.27 12236 110.616
100.388 12375 111.243
100.505 12486 111.741
100.622 12462 111.633
100.74 12642 112.437
100.857 13143 114.643
100.975 13445 115.953
101.092 13757 117.29
101.209 13687 116.991
101.327 13482 116.112
101.444 13808 117.507
101.561 13671 116.923
101.679 13824 117.576
101.796 14247 119.361
101.913 14330 119.708
102.03 14674 121.136
102.148 14674 121.136
102.265 15850 125.897
102.382 13448 115.966
102.499 12784 113.066
102.616 12593 112.219
102.733 14643 121.008
102.851 16972 130.277
102.968 17131 130.885
103.085 16737 129.372
103.202 15967 126.361
103.319 15925 126.194
103.436 16631 128.961
103.552 16832 129.738
103.669 16745 129.402
103.786 16919 130.073
103.903 17140 130.92
104.02 17447 132.087
104.137 17652 132.861
104.253 18609 136.415
104.37 18176 134.818
104.487 19329 139.029
104.603 19676 140.271
104.72 19830 140.819
104.836 19720 140.428
104.953 20155 141.968
105.069 20066 141.655
105.186 20668 143.764
105.302 20817 144.281
105.418 21642 147.112
105.535 21920 148.054
105.651 22328 149.426
105.767 21757 147.503
105.883 20115 141.827
105.999 17433 132.034
106.115 0 1
106.231 0 1
106.347 0 1
106.463 0 1
106.579 0 1
106.694 0 1
106.81 0 1
106.926 0 1
107.041 0 1
107.157 0 1
109.576 0 1
109.692 0 1
109.807 0 1
109.923 0 1
110.039 0 1
110.155 0 1
110.27 0 1
110.386 0 1
110.502 0 1
110.618 28527 168.899
110.735 29267 171.076
110.851 28640 169.234
110.967 26232 161.963
111.083 24119 155.303
111.199 24022 154.99
111.316 25976 161.171
111.432 29870 172.829
111.549 32171 179.363
111.665 32925 181.452
111.782 32528 180.355
111.898 33097 181.926
112.015 32671 180.751
112.132 32564 180.455
112.248 32552 180.422
112.365 32700 180.831
112.482 32967 181.568
112.599 32085 179.123
112.716 32826 181.179
112.832 33177 182.146
112.949 33666 183.483
113.066 33424 182.822
113.183 33839 183.954
113.3 33800 183.848
113.417 34431 185.556
113.534 34070 184.581
113.652 34367 185.383
113.769 34501 185.744
113.886 35178 187.558
114.003 34763 186.448
114.12 35425 188.215
114.238 35395 188.136
114.355 33627 183.377
114.472 32919 181.436
114.589 27944 167.165
114.707 28812 169.741
114.824 29764 172.522
114.942 32248 179.577
115.059 35410 188.175
115.176 37453 193.528
115.294 38301 195.706
115.411 38517 196.257
115.529 38286 195.668
115.646 38033 195.021
115.764 38524 196.275
115.881 38113 195.226
115.999 37922 194.736
116.116 37785 194.384
116.234 38110 195.218
116.351 38187 195.415
116.469 38562 196.372
116.586 39370 198.419
116.704 39201 197.992
116.821 39421 198.547
116.939 39560 198.897
117.056 39289 198.215
117.174 39969 199.922
117.291 40443 201.104
117.409 40244 200.609
117.526 40445 201.109
117.644 40486 201.211
117.761 40537 201.338
117.879 39635 199.085
117.996 37366 193.303
118.114 35980 189.684
118.231 35040 187.19
118.349 34405 185.486
118.466 35622 188.738
118.584 37360 193.287
118.701 39974 199.935
118.819 41798 204.446
118.936 42351 205.794
119.053 42321 205.721
119.171 42596 206.388
119.288 41602 203.966
119.405 42003 204.946
119.523 41806 204.465
119.64 42297 205.662
119.757 41925 204.756
119.875 41811 204.477
119.992 41424 203.529
120.109 41850 204.573
120.226 41770 204.377
120.343 41818 204.494
120.46 41735 204.291
120.578 41961 204.844
120.695 42552 206.281
120.812 42527 206.221
120.929 43403 208.334
121.046 43046 207.475
121.163 43456 208.461
121.279 43219 207.892
121.396 43683 209.005
121.513 42271 205.599
121.63 40132 200.33
121.747 38695 196.71
121.863 37136 192.707
121.98 36298 190.52
122.097 36747 191.695
122.213 37904 194.689
122.33 39375 198.431
122.446 41161 202.882
122.563 41966 204.856
122.679 43281 208.041
122.795 43882 209.48
122.912 43671 208.976
123.028 43454 208.456
123.144 43638 208.897
123.26 43142 207.707
123.377 0 1
123.493 0 1
123.609 0 1
123.725 0 1
123.84 0 1
123.956 0 1
124.072 0 1
124.188 0 1
124.303 0 1
124.419 0 1
126.852 0 1
126.968 0 1
127.083 0 1
127.199 0 1
127.315 0 1
127.431 0 1
127.547 0 1
127.663 0 1
127.779 0 1
127.895 0 1
128.011 0 1
128.127 0 1
128.243 0 1
128.359 50350 224.388
128.476 50965 225.754
128.592 50997 225.825
128.708 50865 225.533
128.825 50664 225.087
128.941 51391 226.696
129.058 51019 225.874
129.174 50821 225.435
129.291 51088 226.027
129.408 51432 226.786
129.524 51064 225.973
129.641 51607 227.172
129.758 51813 227.625
129.875 51582 227.117
129.992 51990 228.013
130.108 52034 228.11
130.225 51562 227.073
130.342 49841 223.251
130.459 47734 218.481
130.576 47259 217.391
130.693 44969 212.059
130.81 43905 209.535
130.928 44122 210.052
131.045 45085 212.332
131.162 47173 217.193
131.279 49434 222.338
131.396 50223 224.105
131.513 50567 224.871
131.631 50945 225.71
131.748 53662 231.651
131.865 53846 232.047
131.983 53616 231.551
132.1 54100 232.594
132.217 53918 232.202
132.335 53639 231.601
132.452 53452 231.197
132.57 53739 231.817
132.687 51599 227.154
132.804 54595 233.656
132.922 53173 230.593
133.039 53742 231.823
133.157 53757 231.856
133.274 53804 231.957
133.392 53731 231.799
133.509 53626 231.573
133.627 54686 233.85
133.744 53889 232.14
133.862 52224 228.526
133.979 50864 225.53
134.097 48683 220.642
134.214 47496 217.936
134.332 46325 215.232
134.449 46328 215.239
134.567 46927 216.626
134.684 49170 221.743
134.802 50584 224.909
134.919 51901 227.818
135.037 51736 227.455
135.154 51762 227.513
135.272 52341 228.782
135.389 55153 234.847
135.507 55565 235.722
135.624 55725 236.061
135.742 56583 237.872
135.859 56014 236.673
135.977 56130 236.918
136.094 56198 237.061
136.211 55563 235.718
136.329 55292 235.143
136.446 55821 236.265
136.564 55030 234.585
136.681 54942 234.397
136.798 54947 234.408
136.915 55275 235.106
137.033 55451 235.48
137.15 55729 236.07
137.267 55505 235.595
137.384 54838 234.175
137.502 53325 230.922
137.619 51777 227.546
137.736 49489 222.461
137.853 47918 218.902
137.97 48508 220.245
138.087 47759 218.538
138.204 49129 221.651
138.321 50707 225.182
138.438 52763 229.702
138.555 53969 232.312
138.672 54590 233.645
138.788 53970 232.314
138.905 54387 233.21
139.022 55477 235.536
139.139 57124 239.006
139.255 57876 240.574
139.372 58502 241.872
139.488 58439 241.742
139.605 58712 242.306
139.721 58443 241.75
139.838 58303 241.46
139.954 58294 241.442
140.071 57445 239.677
140.187 57732 240.275
140.303 57055 238.862
140.419 56972 238.688
140.535 56891 238.518
140.652 56826 238.382
140.768 0 1
140.884 0 1
141 0 1
141.115 0 1
141.231 0 1
141.347 0 1
141.463 0 1
141.578 0 1
141.694 0 1
144.104 0 1
144.219 0 1
144.335 0 1
144.45 0 1
144.566 0 1
144.682 0 1
144.798 0 1
144.914 0 1
145.03 0 1
145.146 50593 224.929
145.262 51150 226.164
145.378 51461 226.85
145.494 51309 226.515
145.61 51463 226.855
145.726 51849 227.704
145.842 51766 227.521
145.959 50973 225.772
146.075 49548 222.594
146.192 48334 219.85
146.308 46444 215.509
146.425 45313 212.869
146.541 44122 210.052
146.658 44437 210.801
146.774 44452 210.836
146.891 45559 213.446
147.008 46783 216.294
147.125 49472 222.423
147.241 50030 223.674
147.358 49165 221.732
147.475 48215 219.579
147.592 48026 219.148
147.709 48327 219.834
147.826 49379 222.214
147.943 50996 225.823
148.06 51329 226.559
148.177 52272 228.631
148.294 52014 228.066
148.411 51644 227.253
148.528 51605 227.167
148.645 51631 227.225
148.762 51408 226.733
148.88 50837 225.471
148.997 49492 222.468
149.114 52024 228.088
149.231 51088 226.027
149.349 51061 225.967
149.466 49309 222.056
149.583 49770 223.092
149.701 48084 219.281
149.818 47330 217.555
149.935 45773 213.946
150.053 44496 210.941
150.17 43905 209.535
150.287 43601 208.809
150.405 44156 210.133
150.522 44482 210.908
150.64 46369 215.335
150.757 47631 218.245
150.875 48463 220.143
150.992 47943 218.959
151.11 47711 218.428
151.227 47030 216.864
151.344 46602 215.875
151.462 46791 216.312
151.579 48615 220.488
151.697 49916 223.419
151.814 50639 225.031
151.932 51146 226.155
152.049 51204 226.283
152.167 50765 225.311
152.284 51057 225.958
152.402 50694 225.153
152.519 50276 224.223
152.636 50556 224.847
152.754 50050 223.719
152.871 50096 223.821
152.989 50021 223.654
153.106 49896 223.374
153.223 48933 221.208
153.341 47604 218.183
153.458 46681 216.058
153.575 44804 211.67
153.693 44083 209.96
153.81 43539 208.66
153.927 43936 209.609
154.044 44995 212.12
154.162 45059 212.271
154.279 46918 216.606
154.396 48283 219.734
154.513 49914 223.414
154.63 49463 222.403
154.747 49330 222.104
154.864 48329 219.839
154.981 48363 219.916
155.098 48730 220.749
155.215 49295 222.025
155.332 50445 224.6
155.449 50949 225.719
155.566 51339 226.581
155.683 51208 226.292
155.8 51633 227.229
155.917 51643 227.251
156.033 51407 226.731
156.15 0 1
156.267 0 1
156.383 0 1
156.5 0 1
156.617 0 1
156.733 0 1
156.85 0 1
156.966 0 1
157.082 0 1
157.199 0 1
157.315 0 1
157.431 0 1
157.547 0 1
157.664 0 1
157.78 0 1
157.896 0 1
158.012 0 1
158.128 0 1
158.244 0 1
158.359 0 1
158.475 0 1
158.591 0 1
158.706 0 1
