
6.15755 0 1
6.2731 0 1
6.3887 0 1
6.50437 0 1
6.62009 0 1
6.73587 0 1
6.8517 0 1
6.96759 0 1
7.08353 0 1
7.19952 0 1
7.31557 0 1
7.43166 0 1
7.54781 0 1
7.664 0 1
7.78024 0 1
7.89653 0 1
8.01286 0 1
8.12924 0 1
8.24567 0 1
8.36213 0 1
8.47864 0 1
8.59519 0 1
8.71178 0 1
8.82841 0 1
8.94508 0 1
9.06179 0 1
9.17853 0 1
9.29531 0 1
9.41212 0 1
9.52897 0 1
9.64584 0 1
9.76276 0 1
9.8797 0 1
9.99667 0 1
10.1137 0 1
10.2307 0 1
10.3478 0 1
10.4648 0 1
10.5819 0 1
10.6991 0 1
10.8162 0 1
10.9334 0 1
11.0506 0 1
11.1678 0 1
11.285 0 1
11.4023 0 1
11.5196 0 1
11.6369 0 1
11.7542 0 1
11.8715 0 1
11.9888 0 1
12.1062 0 1
12.2235 0 1
12.3409 0 1
12.4582 0 1
12.5756 0 1
12.693 0 1
12.8104 0 1
12.9278 0 1
13.0452 0 1
13.1626 0 1
13.28 0 1
13.3974 0 1
13.5149 0 1
13.6323 0 1
13.7497 0 1
13.8671 0 1
13.9845 0 1
14.1019 0 1
14.2193 0 1
14.3367 0 1
14.4541 0 1
14.5714 0 1
14.6888 0 1
14.8062 0 1
14.9235 0 1
15.0408 972 31.1769
15.1581 1031 32.1092
15.2755 1019 31.9218
15.3927 975 31.225
15.51 976 31.241
15.6273 984 31.3688
15.7445 948 30.7896
15.8617 905 30.0832
15.9789 860 29.3258
16.0961 895 29.9166
16.2132 887 29.7825
16.3304 932 30.5287
16.4475 889 29.8161
16.5646 863 29.3769
16.6816 829 28.7924
16.7986 771 27.7669
16.9156 837 28.931
17.0326 846 29.0861
17.1496 794 28.178
17.2665 831 28.8271
17.3833 795 28.1957
17.5002 788 28.0713
17.617 832 28.8444
17.7338 807 28.4077
17.8505 833 28.8617
17.9672 779 27.9106
18.0839 792 28.1425
18.2005 822 28.6705
18.3171 811 28.4781
18.4337 834 28.8791
18.5502 833 28.8617
18.6666 869 29.4788
18.7831 824 28.7054
18.8994 836 28.9137
19.0158 808 28.4253
19.1321 694 26.3439
19.2483 646 25.4165
19.3645 682 26.1151
19.4806 632 25.1396
19.5967 634 25.1794
19.7128 665 25.7876
19.8288 612 24.7386
19.9447 537 23.1733
20.0606 0 1
20.1764 0 1
20.2922 0 1
20.4079 0 1
20.5236 0 1
20.6392 0 1
20.7548 0 1
20.8702 0 1
23.3078 0 1
23.4233 0 1
23.539 0 1
23.6547 0 1
23.7704 0 1
23.8862 0 1
24.0021 0 1
24.118 0 1
24.234 0 1
24.35 0 1
24.4661 367 19.1572
24.5822 359 18.9473
24.6984 451 21.2368
24.8146 574 23.9583
24.9309 637 25.2389
25.0472 658 25.6515
25.1636 705 26.5518
25.28 785 28.0179
25.3965 836 28.9137
25.513 883 29.7153
25.6296 898 29.9666
25.7462 928 30.4631
25.8628 921 30.348
25.9795 898 29.9666
26.0962 886 29.7658
26.213 895 29.9166
26.3298 819 28.6182
26.4466 773 27.8029
26.5635 745 27.2947
26.6804 712 26.6833
26.7973 699 26.4386
26.9143 722 26.8701
27.0313 732 27.0555
27.1483 765 27.6586
27.2653 790 28.1069
27.3824 763 27.6225
27.4996 797 28.2312
27.6167 729 27
27.7339 759 27.55
27.8511 629 25.0799
27.9683 700 26.4575
28.0855 722 26.8701
28.2028 722 26.8701
28.3201 788 28.0713
28.4374 824 28.7054
28.5547 804 28.3549
28.6721 853 29.2062
28.7894 827 28.7576
28.9068 793 28.1603
29.0242 780 27.9285
29.1416 833 28.8617
29.259 736 27.1293
29.3764 761 27.5862
29.4939 683 26.1343
29.6113 770 27.7489
29.7288 715 26.7395
29.8463 770 27.7489
29.9638 709 26.6271
30.0812 670 25.8844
30.1987 693 26.3249
30.3162 696 26.3818
30.4337 678 26.0384
30.5512 717 26.7769
30.6687 776 27.8568
30.7862 826 28.7402
30.9037 779 27.9106
31.0212 819 28.6182
31.1387 816 28.5657
31.2562 749 27.3679
31.3737 657 25.632
31.4912 705 26.5518
31.6087 769 27.7308
31.7262 773 27.8029
31.8436 791 28.1247
31.9611 806 28.3901
32.0785 744 27.2764
32.1959 755 27.4773
32.3134 764 27.6405
32.4308 679 26.0576
32.5482 712 26.6833
32.6655 660 25.6905
32.7829 692 26.3059
32.9002 689 26.2488
33.0176 716 26.7582
33.1349 645 25.3969
33.2522 681 26.096
33.3694 694 26.3439
33.4867 681 26.096
33.6039 664 25.7682
33.7211 675 25.9808
33.8383 645 25.3969
33.9554 634 25.1794
34.0725 672 25.923
34.1896 682 26.1151
34.3067 740 27.2029
34.4237 728 26.9815
34.5407 711 26.6646
34.6577 789 28.0891
34.7746 711 26.6646
34.8915 703 26.5141
35.0084 656 25.6125
35.1252 593 24.3516
35.242 612 24.7386
35.3587 654 25.5734
35.4755 668 25.8457
35.5921 665 25.7876
35.7088 700 26.4575
35.8254 691 26.2869
35.9419 646 25.4165
36.0584 669 25.865
36.1749 688 26.2298
36.2913 626 25.02
36.4077 637 25.2389
36.524 593 24.3516
36.6403 570 23.8747
36.7565 541 23.2594
36.8727 507 22.5167
36.9889 485 22.0227
37.1049 431 20.7605
37.221 0 1
37.3369 0 1
37.4529 0 1
37.5687 0 1
37.6845 0 1
37.8003 0 1
37.916 0 1
38.0316 0 1
38.1472 0 1
40.5851 0 1
40.7008 0 1
40.8164 0 1
40.9322 0 1
41.048 0 1
41.1639 0 1
41.2798 0 1
41.3958 0 1
41.5118 0 1
41.6279 0 1
41.744 325 18.0278
41.8602 326 18.0555
41.9765 394 19.8494
42.0928 425 20.6155
42.2091 453 21.2838
42.3255 499 22.3383
42.4419 547 23.388
42.5584 544 23.3238
42.675 540 23.2379
42.7915 536 23.1517
42.9081 488 22.0907
43.0248 526 22.9347
43.1415 546 23.3666
43.2582 586 24.2074
43.375 581 24.1039
43.4918 544 23.3238
43.6087 571 23.8956
43.7256 589 24.2693
43.8425 525 22.9129
43.9595 477 21.8403
44.0765 461 21.4709
44.1935 510 22.5832
44.3106 558 23.622
44.4277 583 24.1454
44.5448 579 24.0624
44.6619 584 24.1661
44.7791 596 24.4131
44.8963 594 24.3721
45.0136 545 23.3452
45.1308 582 24.1247
45.2481 584 24.1661
45.3654 605 24.5967
45.4827 599 24.4745
45.6001 600 24.4949
45.7174 595 24.3926
45.8348 590 24.2899
45.9522 580 24.0832
46.0697 537 23.1733
46.1871 531 23.0434
46.3046 535 23.1301
46.422 507 22.5167
46.5395 530 23.0217
46.657 540 23.2379
46.7745 505 22.4722
46.892 540 23.2379
47.0096 557 23.6008
47.1271 590 24.2899
47.2446 571 23.8956
47.3622 508 22.5389
47.4797 543 23.3024
47.5973 492 22.1811
47.7149 483 21.9773
47.8324 529 23
47.95 531 23.0434
48.0675 578 24.0416
48.1851 568 23.8328
48.3027 546 23.3666
48.4202 578 24.0416
48.5378 549 23.4307
48.6554 581 24.1039
48.7729 639 25.2784
48.8904 581 24.1039
49.008 541 23.2594
49.1255 559 23.6432
49.243 582 24.1247
49.3605 544 23.3238
49.478 530 23.0217
49.5955 508 22.5389
49.713 485 22.0227
49.8304 474 21.7715
49.9479 481 21.9317
50.0653 519 22.7816
50.1827 478 21.8632
50.3001 508 22.5389
50.4175 542 23.2809
50.5348 521 22.8254
50.6521 542 23.2809
50.7694 543 23.3024
50.8867 488 22.0907
51.004 507 22.5167
51.1212 470 21.6795
51.2384 472 21.7256
51.3556 592 24.3311
51.4727 547 23.388
51.5899 609 24.6779
51.707 541 23.2594
51.824 560 23.6643
51.9411 568 23.8328
52.0581 535 23.1301
52.175 579 24.0624
52.2919 519 22.7816
52.4088 559 23.6432
52.5257 539 23.2164
52.6425 506 22.4944
52.7593 545 23.3452
52.876 515 22.6936
52.9927 532 23.0651
53.1094 521 22.8254
53.226 520 22.8035
53.3426 484 22
53.4591 468 21.6333
53.5756 481 21.9317
53.692 456 21.3542
53.8084 433 20.8087
53.9248 405 20.1246
54.0411 404 20.0998
54.1573 378 19.4422
54.2735 0 1
54.3896 0 1
54.5057 0 1
54.6217 0 1
54.7377 0 1
54.8537 0 1
54.9695 0 1
55.0853 0 1
55.2011 0 1
55.3168 0 1
55.4324 0 1
57.824 0 1
57.9396 0 1
58.0553 0 1
58.1711 0 1
58.2869 0 1
58.4028 0 1
58.5187 0 1
58.6347 0 1
58.7508 0 1
58.8669 0 1
58.983 913 30.2159
59.0992 1302 36.0832
59.2155 1568 39.598
59.3318 1974 44.4297
59.4482 2217 47.085
59.5646 2440 49.3964
59.681 2656 51.5364
59.7975 2828 53.1789
59.9141 2868 53.5537
60.0306 2939 54.2125
60.1473 3031 55.0545
60.2639 2971 54.5069
60.3807 3068 55.3895
60.4974 3148 56.107
60.6142 3100 55.6776
60.731 2961 54.4151
60.8479 2896 53.8145
60.9648 2892 53.7773
61.0818 2804 52.9528
61.1987 2686 51.8266
61.3158 2608 51.0686
61.4328 2395 48.9387
61.5499 2261 47.55
61.667 2043 45.1996
61.7841 1781 42.2019
61.9013 1633 40.4104
62.0185 1613 40.1622
62.1357 1380 37.1484
62.253 1362 36.9053
62.3702 1309 36.1801
62.4875 1236 35.1568
62.6049 1268 35.609
62.7222 1325 36.4005
62.8396 1323 36.3731
62.9569 1243 35.2562
63.0743 1222 34.9571
63.1918 1187 34.4529
63.3092 1163 34.1028
63.4267 1003 31.6702
63.5441 910 30.1662
63.6616 888 29.7993
63.7791 761 27.5862
63.8966 770 27.7489
64.0142 731 27.037
64.1317 704 26.533
64.2492 678 26.0384
64.3668 652 25.5343
64.4843 641 25.318
64.6019 635 25.1992
64.7195 652 25.5343
64.837 648 25.4558
64.9546 660 25.6905
65.0722 662 25.7294
65.1898 656 25.6125
65.3074 612 24.7386
65.4249 627 25.04
65.5425 592 24.3311
65.6601 588 24.2487
65.7777 576 24
65.8952 568 23.8328
66.0128 566 23.7908
66.1304 591 24.3105
66.2479 629 25.0799
66.3655 596 24.4131
66.483 648 25.4558
66.6005 640 25.2982
66.718 656 25.6125
66.8355 625 25
66.953 625 25
67.0705 626 25.02
67.1879 601 24.5153
67.3054 602 24.5357
67.4228 616 24.8193
67.5402 655 25.593
67.6576 647 25.4362
67.7749 645 25.3969
67.8923 631 25.1197
68.0096 662 25.7294
68.1269 624 24.98
68.2442 602 24.5357
68.3614 591 24.3105
68.4787 630 25.0998
68.5958 619 24.8797
68.713 628 25.0599
68.8302 635 25.1992
68.9473 631 25.1197
69.0643 654 25.5734
69.1814 560 23.6643
69.2984 591 24.3105
69.4154 547 23.388
69.5323 541 23.2594
69.6492 526 22.9347
69.7661 569 23.8537
69.8829 597 24.4336
69.9997 574 23.9583
70.1165 597 24.4336
70.2332 582 24.1247
70.3499 582 24.1247
70.4665 554 23.5372
70.5831 553 23.516
70.6996 493 22.2036
70.8161 441 21
70.9326 438 20.9284
71.049 365 19.105
71.1653 358 18.9209
71.2817 355 18.8414
71.3979 349 18.6815
71.5141 300 17.3205
71.6303 307 17.5214
71.7464 257 16.0312
71.8624 0 1
71.9784 0 1
72.0944 0 1
72.2102 0 1
72.3261 0 1
72.4418 0 1
72.5575 0 1
72.6732 0 1
75.1054 0 1
75.2209 0 1
75.3365 0 1
75.4521 0 1
75.5678 0 1
75.6835 0 1
75.7993 0 1
75.9151 0 1
76.031 0 1
76.147 379 19.4679
76.263 415 20.3715
76.3791 445 21.095
76.4952 488 22.0907
76.6113 495 22.2486
76.7276 511 22.6053
76.8438 540 23.2379
76.9601 541 23.2594
77.0765 506 22.4944
77.1929 536 23.1517
77.3093 525 22.9129
77.4258 518 22.7596
77.5423 527 22.9565
77.6589 523 22.8692
77.7755 560 23.6643
77.8921 534 23.1084
78.0088 500 22.3607
78.1256 520 22.8035
78.2423 511 22.6053
78.3591 506 22.4944
78.4759 468 21.6333
78.5928 452 21.2603
78.7097 485 22.0227
78.8266 452 21.2603
78.9436 533 23.0868
79.0606 521 22.8254
79.1776 497 22.2935
79.2946 521 22.8254
79.4117 525 22.9129
79.5288 547 23.388
79.6459 576 24
79.7631 566 23.7908
79.8802 477 21.8403
79.9974 473 21.7486
80.1147 524 22.891
80.2319 505 22.4722
80.3491 605 24.5967
80.4664 569 23.8537
80.5837 580 24.0832
80.701 541 23.2594
80.8183 557 23.6008
80.9357 510 22.5832
81.053 512 22.6274
81.1704 502 22.4054
81.2877 529 23
81.4051 537 23.1733
81.5225 578 24.0416
81.6399 573 23.9374
81.7573 590 24.2899
81.8747 539 23.2164
81.9922 517 22.7376
82.1096 511 22.6053
82.227 490 22.1359
82.3444 477 21.8403
82.4619 505 22.4722
82.5793 564 23.7487
82.6967 546 23.3666
82.8142 539 23.2164
82.9316 544 23.3238
83.049 537 23.1733
83.1664 562 23.7065
83.2838 535 23.1301
83.4012 550 23.4521
83.5186 555 23.5584
83.636 510 22.5832
83.7534 546 23.3666
83.8708 578 24.0416
83.9881 539 23.2164
84.1055 578 24.0416
84.2228 581 24.1039
84.3401 521 22.8254
84.4575 567 23.8118
84.5747 561 23.6854
84.692 584 24.1661
84.8093 568 23.8328
84.9265 559 23.6432
85.0437 555 23.5584
85.1609 562 23.7065
85.2781 580 24.0832
85.3952 596 24.4131
85.5123 566 23.7908
85.6294 526 22.9347
85.7465 500 22.3607
85.8636 499 22.3383
85.9806 479 21.8861
86.0976 527 22.9565
86.2145 581 24.1039
86.3315 557 23.6008
86.4484 534 23.1084
86.5652 567 23.8118
86.682 560 23.6643
86.7988 620 24.8998
86.9156 609 24.6779
87.0323 582 24.1247
87.149 517 22.7376
87.2657 506 22.4944
87.3823 551 23.4734
87.4988 566 23.7908
87.6154 549 23.4307
87.7318 472 21.7256
87.8483 527 22.9565
87.9647 447 21.1424
88.081 438 20.9284
88.1973 413 20.3224
88.3136 395 19.8746
88.4298 352 18.7617
88.546 373 19.3132
88.6621 334 18.2757
88.7781 295 17.1756
88.8942 0 1
89.0101 0 1
89.126 0 1
89.2419 0 1
89.3577 0 1
89.4734 0 1
89.5891 0 1
89.7047 0 1
89.8203 0 1
89.9358 0 1
92.3269 0 1
92.4424 0 1
92.558 0 1
92.6736 0 1
92.7893 0 1
92.905 0 1
93.0208 0 1
93.1366 0 1
93.2525 0 1
93.3685 0 1
93.4845 0 1
93.6005 447 21.1424
93.7167 472 21.7256
93.8328 534 23.1084
93.949 529 23
94.0653 552 23.4947
94.1816 550 23.4521
94.2979 568 23.8328
94.4143 546 23.3666
94.5307 522 22.8473
94.6472 544 23.3238
94.7637 520 22.8035
94.8803 503 22.4277
94.9969 520 22.8035
95.1135 524 22.891
95.2302 601 24.5153
95.3469 526 22.9347
95.4637 559 23.6432
95.5805 568 23.8328
95.6973 577 24.0208
95.8142 589 24.2693
95.9311 611 24.7184
96.048 604 24.5764
96.1649 580 24.0832
96.2819 597 24.4336
96.3989 543 23.3024
96.516 582 24.1247
96.633 564 23.7487
96.7501 628 25.0599
96.8673 604 24.5764
96.9844 625 25
97.1016 562 23.7065
97.2188 608 24.6577
97.336 534 23.1084
97.4532 560 23.6643
97.5704 601 24.5153
97.6877 573 23.9374
97.805 562 23.7065
97.9223 583 24.1454
98.0396 540 23.2379
98.1569 599 24.4745
98.2743 587 24.2281
98.3916 538 23.1948
98.509 583 24.1454
98.6264 528 22.9783
98.7438 587 24.2281
98.8612 586 24.2074
98.9786 619 24.8797
99.096 603 24.5561
99.2134 601 24.5153
99.3308 631 25.1197
99.4482 660 25.6905
99.5656 657 25.632
99.6831 623 24.96
99.8005 628 25.0599
99.9179 629 25.0799
100.035 620 24.8998
100.153 641 25.318
100.27 613 24.7588
100.388 609 24.6779
100.505 590 24.2899
100.622 642 25.3377
100.74 618 24.8596
100.857 614 24.779
100.975 580 24.0832
101.092 622 24.9399
101.209 581 24.1039
101.327 620 24.8998
101.444 627 25.04
101.561 642 25.3377
101.679 631 25.1197
101.796 562 23.7065
101.913 583 24.1454
102.03 588 24.2487
102.148 606 24.6171
102.265 601 24.5153
102.382 625 25
102.499 621 24.9199
102.616 621 24.9199
102.733 622 24.9399
102.851 649 25.4755
102.968 709 26.6271
103.085 644 25.3772
103.202 677 26.0192
103.319 616 24.8193
103.436 679 26.0576
103.552 658 25.6515
103.669 634 25.1794
103.786 747 27.3313
103.903 683 26.1343
104.02 628 25.0599
104.137 702 26.4953
104.253 608 24.6577
104.37 691 26.2869
104.487 634 25.1794
104.603 648 25.4558
104.72 625 25
104.836 586 24.2074
104.953 629 25.0799
105.069 618 24.8596
105.186 558 23.622
105.302 554 23.5372
105.418 469 21.6564
105.535 474 21.7715
105.651 455 21.3307
105.767 423 20.567
105.883 360 18.9737
105.999 355 18.8414
106.115 0 1
106.231 0 1
106.347 0 1
106.463 0 1
106.579 0 1
106.694 0 1
106.81 0 1
106.926 0 1
107.041 0 1
107.157 0 1
109.576 0 1
109.692 0 1
109.807 0 1
109.923 0 1
110.039 0 1
110.155 0 1
110.27 0 1
110.386 0 1
110.502 0 1
110.618 348 18.6548
110.735 433 20.8087
110.851 457 21.3776
110.967 500 22.3607
111.083 489 22.1133
111.199 512 22.6274
111.316 574 23.9583
111.432 615 24.7992
111.549 593 24.3516
111.665 643 25.3574
111.782 638 25.2587
111.898 631 25.1197
112.015 624 24.98
112.132 603 24.5561
112.248 598 24.454
112.365 606 24.6171
112.482 596 24.4131
112.599 642 25.3377
112.716 626 25.02
112.832 621 24.9199
112.949 623 24.96
113.066 558 23.622
113.183 567 23.8118
113.3 541 23.2594
113.417 590 24.2899
113.534 512 22.6274
113.652 528 22.9783
113.769 532 23.0651
113.886 503 22.4277
114.003 533 23.0868
114.12 608 24.6577
114.238 597 24.4336
114.355 535 23.1301
114.472 534 23.1084
114.589 512 22.6274
114.707 548 23.4094
114.824 506 22.4944
114.942 547 23.388
115.059 631 25.1197
115.176 565 23.7697
115.294 584 24.1661
115.411 590 24.2899
115.529 538 23.1948
115.646 579 24.0624
115.764 545 23.3452
115.881 586 24.2074
115.999 534 23.1084
116.116 538 23.1948
116.234 540 23.2379
116.351 520 22.8035
116.469 507 22.5167
116.586 514 22.6716
116.704 530 23.0217
116.821 472 21.7256
116.939 546 23.3666
117.056 490 22.1359
117.174 513 22.6495
117.291 498 22.3159
117.409 506 22.4944
117.526 490 22.1359
117.644 502 22.4054
117.761 534 23.1084
117.879 539 23.2164
117.996 542 23.2809
118.114 517 22.7376
118.231 480 21.9089
118.349 481 21.9317
118.466 538 23.1948
118.584 589 24.2693
118.701 505 22.4722
118.819 485 22.0227
118.936 539 23.2164
119.053 525 22.9129
119.171 542 23.2809
119.288 493 22.2036
119.405 504 22.4499
119.523 499 22.3383
119.64 492 22.1811
119.757 505 22.4722
119.875 539 23.2164
119.992 480 21.9089
120.109 524 22.891
120.226 520 22.8035
120.343 534 23.1084
120.46 490 22.1359
120.578 488 22.0907
120.695 496 22.2711
120.812 485 22.0227
120.929 458 21.4009
121.046 443 21.0476
121.163 416 20.3961
121.279 488 22.0907
121.396 523 22.8692
121.513 478 21.8632
121.63 475 21.7945
121.747 467 21.6102
121.863 428 20.6882
121.98 422 20.5426
122.097 434 20.8327
122.213 412 20.2978
122.33 434 20.8327
122.446 395 19.8746
122.563 334 18.2757
122.679 324 18
122.795 312 17.6635
122.912 296 17.2047
123.028 361 19
123.144 276 16.6132
123.26 263 16.2173
123.377 0 1
123.493 0 1
123.609 0 1
123.725 0 1
123.84 0 1
123.956 0 1
124.072 0 1
124.188 0 1
124.303 0 1
124.419 0 1
126.852 0 1
126.968 0 1
127.083 0 1
127.199 0 1
127.315 0 1
127.431 0 1
127.547 0 1
127.663 0 1
127.779 0 1
127.895 0 1
128.011 0 1
128.127 0 1
128.243 0 1
128.359 541 23.2594
128.476 580 24.0832
128.592 561 23.6854
128.708 547 23.388
128.825 601 24.5153
128.941 577 24.0208
129.058 547 23.388
129.174 559 23.6432
129.291 628 25.0599
129.408 573 23.9374
129.524 613 24.7588
129.641 568 23.8328
129.758 573 23.9374
129.875 547 23.388
129.992 589 24.2693
130.108 540 23.2379
130.225 580 24.0832
130.342 592 24.3311
130.459 603 24.5561
130.576 690 26.2679
130.693 717 26.7769
130.81 674 25.9615
130.928 659 25.671
131.045 681 26.096
131.162 749 27.3679
131.279 832 28.8444
131.396 853 29.2062
131.513 876 29.5973
131.631 893 29.8831
131.748 879 29.6479
131.865 988 31.4325
131.983 1060 32.5576
132.1 1017 31.8904
132.217 1071 32.7261
132.335 1166 34.1467
132.452 1153 33.9559
132.57 1141 33.7787
132.687 1265 35.5668
132.804 1292 35.9444
132.922 1356 36.8239
133.039 1327 36.428
133.157 1251 35.3695
133.274 1337 36.565
133.392 1423 37.7227
133.509 1335 36.5377
133.627 1292 35.9444
133.744 1263 35.5387
133.862 1269 35.623
133.979 1327 36.428
134.097 1383 37.1887
134.214 1296 36
134.332 1350 36.7423
134.449 1304 36.1109
134.567 1232 35.0999
134.684 1276 35.7211
134.802 1343 36.647
134.919 1430 37.8153
135.037 1434 37.8682
135.154 1296 36
135.272 1214 34.8425
135.389 1294 35.9722
135.507 1412 37.5766
135.624 1414 37.6032
135.742 1420 37.6829
135.859 1464 38.2623
135.977 1507 38.8201
136.094 1507 38.8201
136.211 1454 38.1314
136.329 1495 38.6652
136.446 1515 38.923
136.564 1462 38.2361
136.681 1496 38.6782
136.798 1465 38.2753
136.915 1460 38.2099
137.033 1415 37.6165
137.15 1471 38.3536
137.267 1421 37.6962
137.384 1365 36.9459
137.502 1358 36.8511
137.619 1353 36.7831
137.736 1289 35.9026
137.853 1277 35.7351
137.97 1291 35.9305
138.087 1274 35.6931
138.204 1284 35.8329
138.321 1237 35.171
138.438 1271 35.6511
138.555 1333 36.5103
138.672 1322 36.3593
138.788 1174 34.2637
138.905 1118 33.4365
139.022 1102 33.1964
139.139 1135 33.6898
139.255 1199 34.6266
139.372 1167 34.1614
139.488 1157 34.0147
139.605 1115 33.3916
139.721 975 31.225
139.838 933 30.545
139.954 800 28.2843
140.071 834 28.8791
140.187 747 27.3313
140.303 714 26.7208
140.419 725 26.9258
140.535 681 26.096
140.652 626 25.02
140.768 0 1
140.884 0 1
141 0 1
141.115 0 1
141.231 0 1
141.347 0 1
141.463 0 1
141.578 0 1
141.694 0 1
144.104 0 1
144.219 0 1
144.335 0 1
144.45 0 1
144.566 0 1
144.682 0 1
144.798 0 1
144.914 0 1
145.03 0 1
145.146 1178 34.322
145.262 1232 35.0999
145.378 1248 35.327
145.494 1297 36.0139
145.61 1317 36.2905
145.726 1302 36.0832
145.842 1391 37.2961
145.959 1348 36.7151
146.075 1287 35.8748
146.192 1377 37.108
146.308 1226 35.0143
146.425 1225 35
146.541 1319 36.318
146.658 1305 36.1248
146.774 1453 38.1182
146.891 1387 37.2424
147.008 1480 38.4708
147.125 1466 38.2884
147.241 1446 38.0263
147.358 1426 37.7624
147.475 1443 37.9868
147.592 1375 37.081
147.709 1301 36.0694
147.826 1228 35.0428
147.943 1261 35.5106
148.06 1393 37.3229
148.177 1393 37.3229
148.294 1433 37.855
148.411 1514 38.9102
148.528 1451 38.092
148.645 1472 38.3667
148.762 1361 36.8917
148.88 1366 36.9594
148.997 1367 36.973
149.114 1262 35.5246
149.231 1357 36.8375
149.349 1317 36.2905
149.466 1298 36.0278
149.583 1286 35.8608
149.701 1309 36.1801
149.818 1214 34.8425
149.935 1179 34.3366
150.053 1221 34.9428
150.17 1288 35.8887
150.287 1247 35.3129
150.405 1311 36.2077
150.522 1284 35.8329
150.64 1228 35.0428
150.757 1237 35.171
150.875 1268 35.609
150.992 1220 34.9285
151.11 1249 35.3412
151.227 1152 33.9411
151.344 1087 32.9697
151.462 1071 32.7261
151.579 1049 32.3883
151.697 1179 34.3366
151.814 1143 33.8083
151.932 1249 35.3412
152.049 1212 34.8138
152.167 1250 35.3553
152.284 1208 34.7563
152.402 1133 33.6601
152.519 1244 35.2704
152.636 1147 33.8674
152.754 1264 35.5528
152.871 1111 33.3317
152.989 1152 33.9411
153.106 1146 33.8526
153.223 1003 31.6702
153.341 1100 33.1662
153.458 1051 32.4191
153.575 962 31.0161
153.693 1002 31.6544
153.81 972 31.1769
153.927 1068 32.6803
154.044 993 31.5119
154.162 1078 32.8329
154.279 973 31.1929
154.396 991 31.4802
154.513 980 31.305
154.63 1002 31.6544
154.747 957 30.9354
154.864 944 30.7246
154.981 863 29.3769
155.098 827 28.7576
155.215 937 30.6105
155.332 916 30.2655
155.449 979 31.289
155.566 1014 31.8434
155.683 952 30.8545
155.8 954 30.8869
155.917 996 31.5595
156.033 939 30.6431
156.15 0 1
156.267 0 1
156.383 0 1
156.5 0 1
156.617 0 1
156.733 0 1
156.85 0 1
156.966 0 1
157.082 0 1
157.199 0 1
157.315 0 1
157.431 0 1
157.547 0 1
157.664 0 1
157.78 0 1
157.896 0 1
158.012 0 1
158.128 0 1
158.244 0 1
158.359 0 1
158.475 0 1
158.591 0 1
158.706 0 1
