
6.15755 0 1
6.2731 0 1
6.3887 0 1
6.50437 0 1
6.62009 0 1
6.73587 0 1
6.8517 0 1
6.96759 0 1
7.08353 0 1
7.19952 0 1
7.31557 0 1
7.43166 0 1
7.54781 0 1
7.664 0 1
7.78024 0 1
7.89653 0 1
8.01286 0 1
8.12924 0 1
8.24567 0 1
8.36213 0 1
8.47864 0 1
8.59519 0 1
8.71178 0 1
8.82841 0 1
8.94508 0 1
9.06179 0 1
9.17853 0 1
9.29531 0 1
9.41212 0 1
9.52897 0 1
9.64584 0 1
9.76276 0 1
9.8797 0 1
9.99667 0 1
10.1137 0 1
10.2307 0 1
10.3478 0 1
10.4648 0 1
10.5819 0 1
10.6991 0 1
10.8162 0 1
10.9334 0 1
11.0506 0 1
11.1678 0 1
11.285 0 1
11.4023 0 1
11.5196 0 1
11.6369 0 1
11.7542 0 1
11.8715 0 1
11.9888 0 1
12.1062 0 1
12.2235 0 1
12.3409 0 1
12.4582 0 1
12.5756 0 1
12.693 0 1
12.8104 0 1
12.9278 0 1
13.0452 0 1
13.1626 0 1
13.28 0 1
13.3974 0 1
13.5149 0 1
13.6323 0 1
13.7497 0 1
13.8671 0 1
13.9845 0 1
14.1019 0 1
14.2193 0 1
14.3367 0 1
14.4541 0 1
14.5714 0 1
14.6888 0 1
14.8062 0 1
14.9235 0 1
15.0408 0 0
15.1581 0 0
15.2755 0 0
15.3927 0 0
15.51 0 0
15.6273 0 0
15.7445 0 0
15.8617 0 0
15.9789 0 0
16.0961 0 0
16.2132 0 0
16.3304 0 0
16.4475 0 0
16.5646 0 0
16.6816 0 0
16.7986 0 0
16.9156 0 0
17.0326 0 0
17.1496 0 0
17.2665 0 0
17.3833 0 0
17.5002 0 0
17.617 0 0
17.7338 0 0
17.8505 0 0
17.9672 0 0
18.0839 0 0
18.2005 0 0
18.3171 0 0
18.4337 0 0
18.5502 0 0
18.6666 0 0
18.7831 0 0
18.8994 0 0
19.0158 0 0
19.1321 0 0
19.2483 0 0
19.3645 0 0
19.4806 0 0
19.5967 0 0
19.7128 0 0
19.8288 0 0
19.9447 0 0
20.0606 0 1
20.1764 0 1
20.2922 0 1
20.4079 0 1
20.5236 0 1
20.6392 0 1
20.7548 0 1
20.8702 0 1
23.3078 0 1
23.4233 0 1
23.539 0 1
23.6547 0 1
23.7704 0 1
23.8862 0 1
24.0021 0 1
24.118 0 1
24.234 0 1
24.35 0 1
24.4661 378 19.4422
24.5822 496 22.2711
24.6984 553 23.516
24.8146 577 24.0208
24.9309 674 25.9615
25.0472 709 26.6271
25.1636 828 28.775
25.28 840 28.9828
25.3965 868 29.4618
25.513 930 30.4959
25.6296 935 30.5778
25.7462 980 31.305
25.8628 1051 32.4191
25.9795 1014 31.8434
26.0962 1038 32.218
26.213 1024 32
26.3298 960 30.9839
26.4466 786 28.0357
26.5635 818 28.6007
26.6804 876 29.5973
26.7973 835 28.8964
26.9143 848 29.1204
27.0313 891 29.8496
27.1483 883 29.7153
27.2653 892 29.8664
27.3824 1016 31.8748
27.4996 932 30.5287
27.6167 973 31.1929
27.7339 971 31.1609
27.8511 887 29.7825
27.9683 904 30.0666
28.0855 844 29.0517
28.2028 808 28.4253
28.3201 841 29
28.4374 798 28.2489
28.5547 886 29.7658
28.6721 935 30.5778
28.7894 955 30.9031
28.9068 990 31.4643
29.0242 991 31.4802
29.1416 992 31.496
29.259 936 30.5941
29.3764 1050 32.4037
29.4939 954 30.8869
29.6113 1012 31.8119
29.7288 938 30.6268
29.8463 846 29.0861
29.9638 838 28.9482
30.0812 809 28.4429
30.1987 795 28.1957
30.3162 875 29.5804
30.4337 924 30.3974
30.5512 912 30.1993
30.6687 883 29.7153
30.7862 867 29.4449
30.9037 899 29.9833
31.0212 926 30.4302
31.1387 960 30.9839
31.2562 939 30.6431
31.3737 863 29.3769
31.4912 896 29.9333
31.6087 830 28.8097
31.7262 867 29.4449
31.8436 746 27.313
31.9611 752 27.4226
32.0785 810 28.4605
32.1959 860 29.3258
32.3134 892 29.8664
32.4308 914 30.2324
32.5482 888 29.7993
32.6655 963 31.0322
32.7829 966 31.0805
32.9002 965 31.0644
33.0176 964 31.0483
33.1349 912 30.1993
33.2522 854 29.2233
33.3694 843 29.0345
33.4867 824 28.7054
33.6039 804 28.3549
33.7211 814 28.5307
33.8383 778 27.8927
33.9554 784 28
34.0725 814 28.5307
34.1896 870 29.4958
34.3067 867 29.4449
34.4237 861 29.3428
34.5407 920 30.3315
34.6577 877 29.6142
34.7746 899 29.9833
34.8915 916 30.2655
35.0084 917 30.282
35.1252 766 27.6767
35.242 885 29.7489
35.3587 771 27.7669
35.4755 777 27.8747
35.5921 718 26.7955
35.7088 751 27.4044
35.8254 740 27.2029
35.9419 800 28.2843
36.0584 781 27.9464
36.1749 836 28.9137
36.2913 843 29.0345
36.4077 840 28.9828
36.524 812 28.4956
36.6403 777 27.8747
36.7565 823 28.688
36.8727 758 27.5318
36.9889 727 26.9629
37.1049 608 24.6577
37.221 0 1
37.3369 0 1
37.4529 0 1
37.5687 0 1
37.6845 0 1
37.8003 0 1
37.916 0 1
38.0316 0 1
38.1472 0 1
40.5851 0 1
40.7008 0 1
40.8164 0 1
40.9322 0 1
41.048 0 1
41.1639 0 1
41.2798 0 1
41.3958 0 1
41.5118 0 1
41.6279 0 1
41.744 453 21.2838
41.8602 510 22.5832
41.9765 528 22.9783
42.0928 564 23.7487
42.2091 526 22.9347
42.3255 581 24.1039
42.4419 563 23.7276
42.5584 561 23.6854
42.675 653 25.5539
42.7915 689 26.2488
42.9081 698 26.4197
43.0248 693 26.3249
43.1415 740 27.2029
43.2582 741 27.2213
43.375 770 27.7489
43.4918 721 26.8514
43.6087 818 28.6007
43.7256 688 26.2298
43.8425 691 26.2869
43.9595 720 26.8328
44.0765 720 26.8328
44.1935 672 25.923
44.3106 688 26.2298
44.4277 590 24.2899
44.5448 605 24.5967
44.6619 613 24.7588
44.7791 634 25.1794
44.8963 719 26.8142
45.0136 758 27.5318
45.1308 797 28.2312
45.2481 811 28.4781
45.3654 745 27.2947
45.4827 767 27.6948
45.6001 815 28.5482
45.7174 787 28.0535
45.8348 697 26.4008
45.9522 733 27.074
46.0697 650 25.4951
46.1871 610 24.6982
46.3046 702 26.4953
46.422 708 26.6083
46.5395 728 26.9815
46.657 740 27.2029
46.7745 752 27.4226
46.892 816 28.5657
47.0096 793 28.1603
47.1271 808 28.4253
47.2446 815 28.5482
47.3622 736 27.1293
47.4797 737 27.1477
47.5973 756 27.4955
47.7149 701 26.4764
47.8324 652 25.5343
47.95 685 26.1725
48.0675 623 24.96
48.1851 644 25.3772
48.3027 640 25.2982
48.4202 685 26.1725
48.5378 717 26.7769
48.6554 828 28.775
48.7729 801 28.3019
48.8904 761 27.5862
49.008 796 28.2135
49.1255 773 27.8029
49.243 758 27.5318
49.3605 671 25.9037
49.478 691 26.2869
49.5955 669 25.865
49.713 639 25.2784
49.8304 637 25.2389
49.9479 688 26.2298
50.0653 649 25.4755
50.1827 731 27.037
50.3001 778 27.8927
50.4175 740 27.2029
50.5348 750 27.3861
50.6521 748 27.3496
50.7694 791 28.1247
50.8867 741 27.2213
51.004 736 27.1293
51.1212 738 27.1662
51.2384 678 26.0384
51.3556 646 25.4165
51.4727 621 24.9199
51.5899 573 23.9374
51.707 592 24.3311
51.824 619 24.8797
51.9411 691 26.2869
52.0581 786 28.0357
52.175 783 27.9821
52.2919 812 28.4956
52.4088 842 29.0172
52.5257 818 28.6007
52.6425 799 28.2666
52.7593 828 28.775
52.876 717 26.7769
52.9927 737 27.1477
53.1094 685 26.1725
53.226 676 26
53.3426 698 26.4197
53.4591 701 26.4764
53.5756 677 26.0192
53.692 670 25.8844
53.8084 664 25.7682
53.9248 623 24.96
54.0411 638 25.2587
54.1573 598 24.454
54.2735 0 1
54.3896 0 1
54.5057 0 1
54.6217 0 1
54.7377 0 1
54.8537 0 1
54.9695 0 1
55.0853 0 1
55.2011 0 1
55.3168 0 1
55.4324 0 1
57.824 0 1
57.9396 0 1
58.0553 0 1
58.1711 0 1
58.2869 0 1
58.4028 0 1
58.5187 0 1
58.6347 0 1
58.7508 0 1
58.8669 0 1
58.983 467 21.6102
59.0992 537 23.1733
59.2155 625 25
59.3318 669 25.865
59.4482 724 26.9072
59.5646 785 28.0179
59.681 822 28.6705
59.7975 855 29.2404
59.9141 878 29.6311
60.0306 779 27.9106
60.1473 821 28.6531
60.2639 702 26.4953
60.3807 692 26.3059
60.4974 753 27.4408
60.6142 772 27.7849
60.731 852 29.189
60.8479 913 30.2159
60.9648 912 30.1993
61.0818 1000 31.6228
61.1987 972 31.1769
61.3158 969 31.1288
61.4328 897 29.95
61.5499 866 29.4279
61.667 892 29.8664
61.7841 862 29.3598
61.9013 817 28.5832
62.0185 812 28.4956
62.1357 793 28.1603
62.253 818 28.6007
62.3702 882 29.6985
62.4875 913 30.2159
62.6049 958 30.9516
62.7222 923 30.3809
62.8396 945 30.7409
62.9569 969 31.1288
63.0743 960 30.9839
63.1918 914 30.2324
63.3092 919 30.315
63.4267 853 29.2062
63.5441 864 29.3939
63.6616 820 28.6356
63.7791 732 27.0555
63.8966 690 26.2679
64.0142 638 25.2587
64.1317 699 26.4386
64.2492 805 28.3725
64.3668 886 29.7658
64.4843 934 30.5614
64.6019 943 30.7083
64.7195 943 30.7083
64.837 946 30.7571
64.9546 891 29.8496
65.0722 920 30.3315
65.1898 848 29.1204
65.3074 852 29.189
65.4249 821 28.6531
65.5425 831 28.8271
65.6601 832 28.8444
65.7777 818 28.6007
65.8952 833 28.8617
66.0128 881 29.6816
66.1304 850 29.1548
66.2479 911 30.1828
66.3655 893 29.8831
66.483 919 30.315
66.6005 982 31.3369
66.718 880 29.6648
66.8355 890 29.8329
66.953 898 29.9666
67.0705 872 29.5296
67.1879 757 27.5136
67.3054 723 26.8887
67.4228 684 26.1534
67.5402 587 24.2281
67.6576 662 25.7294
67.7749 697 26.4008
67.8923 729 27
68.0096 810 28.4605
68.1269 942 30.692
68.2442 906 30.0998
68.3614 902 30.0333
68.4787 849 29.1376
68.5958 883 29.7153
68.713 885 29.7489
68.8302 860 29.3258
68.9473 814 28.5307
69.0643 788 28.0713
69.1814 753 27.4408
69.2984 728 26.9815
69.4154 804 28.3549
69.5323 834 28.8791
69.6492 837 28.931
69.7661 901 30.0167
69.8829 942 30.692
69.9997 885 29.7489
70.1165 847 29.1033
70.2332 833 28.8617
70.3499 817 28.5832
70.4665 772 27.7849
70.5831 779 27.9106
70.6996 706 26.5707
70.8161 711 26.6646
70.9326 584 24.1661
71.049 489 22.1133
71.1653 388 19.6977
71.2817 311 17.6352
71.3979 309 17.5784
71.5141 331 18.1934
71.6303 310 17.6068
71.7464 280 16.7332
71.8624 0 1
71.9784 0 1
72.0944 0 1
72.2102 0 1
72.3261 0 1
72.4418 0 1
72.5575 0 1
72.6732 0 1
75.1054 0 1
75.2209 0 1
75.3365 0 1
75.4521 0 1
75.5678 0 1
75.6835 0 1
75.7993 0 1
75.9151 0 1
76.031 0 1
76.147 462 21.4942
76.263 492 22.1811
76.3791 479 21.8861
76.4952 391 19.7737
76.6113 407 20.1742
76.7276 486 22.0454
76.8438 564 23.7487
76.9601 682 26.1151
77.0765 762 27.6043
77.1929 772 27.7849
77.3093 744 27.2764
77.4258 725 26.9258
77.5423 705 26.5518
77.6589 774 27.8209
77.7755 759 27.55
77.8921 697 26.4008
78.0088 669 25.865
78.1256 685 26.1725
78.2423 655 25.593
78.3591 656 25.6125
78.4759 661 25.7099
78.5928 752 27.4226
78.7097 742 27.2397
78.8266 784 28
78.9436 780 27.9285
79.0606 732 27.0555
79.1776 765 27.6586
79.2946 768 27.7128
79.4117 762 27.6043
79.5288 775 27.8388
79.6459 745 27.2947
79.7631 748 27.3496
79.8802 699 26.4386
79.9974 602 24.5357
80.1147 528 22.9783
80.2319 476 21.8174
80.3491 443 21.0476
80.4664 558 23.622
80.5837 633 25.1595
80.701 724 26.9072
80.8183 751 27.4044
80.9357 754 27.4591
81.053 760 27.5681
81.1704 780 27.9285
81.2877 749 27.3679
81.4051 796 28.2135
81.5225 692 26.3059
81.6399 708 26.6083
81.7573 721 26.8514
81.8747 684 26.1534
81.9922 706 26.5707
82.1096 719 26.8142
82.227 707 26.5895
82.3444 721 26.8514
82.4619 759 27.55
82.5793 737 27.1477
82.6967 768 27.7128
82.8142 749 27.3679
82.9316 840 28.9828
83.049 737 27.1477
83.1664 812 28.4956
83.2838 735 27.1109
83.4012 757 27.5136
83.5186 708 26.6083
83.636 668 25.8457
83.7534 539 23.2164
83.8708 478 21.8632
83.9881 438 20.9284
84.1055 500 22.3607
84.2228 570 23.8747
84.3401 650 25.4951
84.4575 767 27.6948
84.5747 779 27.9106
84.692 779 27.9106
84.8093 716 26.7582
84.9265 751 27.4044
85.0437 753 27.4408
85.1609 735 27.1109
85.2781 712 26.6833
85.3952 682 26.1151
85.5123 680 26.0768
85.6294 684 26.1534
85.7465 637 25.2389
85.8636 765 27.6586
85.9806 789 28.0891
86.0976 740 27.2029
86.2145 809 28.4429
86.3315 790 28.1069
86.4484 796 28.2135
86.5652 787 28.0535
86.682 787 28.0535
86.7988 793 28.1603
86.9156 740 27.2029
87.0323 776 27.8568
87.149 666 25.807
87.2657 603 24.5561
87.3823 496 22.2711
87.4988 425 20.6155
87.6154 463 21.5174
87.7318 513 22.6495
87.8483 584 24.1661
87.9647 667 25.8263
88.081 717 26.7769
88.1973 714 26.7208
88.3136 659 25.671
88.4298 652 25.5343
88.546 571 23.8956
88.6621 494 22.2261
88.7781 363 19.0526
88.8942 0 1
89.0101 0 1
89.126 0 1
89.2419 0 1
89.3577 0 1
89.4734 0 1
89.5891 0 1
89.7047 0 1
89.8203 0 1
89.9358 0 1
92.3269 0 1
92.4424 0 1
92.558 0 1
92.6736 0 1
92.7893 0 1
92.905 0 1
93.0208 0 1
93.1366 0 1
93.2525 0 1
93.3685 0 1
93.4845 0 1
93.6005 469 21.6564
93.7167 491 22.1585
93.8328 525 22.9129
93.949 569 23.8537
94.0653 580 24.0832
94.1816 653 25.5539
94.2979 665 25.7876
94.4143 697 26.4008
94.5307 694 26.3439
94.6472 702 26.4953
94.7637 710 26.6458
94.8803 772 27.7849
94.9969 735 27.1109
95.1135 812 28.4956
95.2302 744 27.2764
95.3469 755 27.4773
95.4637 777 27.8747
95.5805 752 27.4226
95.6973 803 28.3373
95.8142 767 27.6948
95.9311 821 28.6531
96.048 736 27.1293
96.1649 741 27.2213
96.2819 769 27.7308
96.3989 664 25.7682
96.516 616 24.8193
96.633 495 22.2486
96.7501 428 20.6882
96.8673 440 20.9762
96.9844 475 21.7945
97.1016 583 24.1454
97.2188 685 26.1725
97.336 764 27.6405
97.4532 771 27.7669
97.5704 798 28.2489
97.6877 775 27.8388
97.805 759 27.55
97.9223 719 26.8142
98.0396 744 27.2764
98.1569 726 26.9444
98.2743 710 26.6458
98.3916 672 25.923
98.509 711 26.6646
98.6264 786 28.0357
98.7438 793 28.1603
98.8612 768 27.7128
98.9786 817 28.5832
99.096 767 27.6948
99.2134 797 28.2312
99.3308 827 28.7576
99.4482 805 28.3725
99.5656 826 28.7402
99.6831 801 28.3019
99.8005 780 27.9285
99.9179 772 27.7849
100.035 740 27.2029
100.153 616 24.8193
100.27 523 22.8692
100.388 503 22.4277
100.505 547 23.388
100.622 623 24.96
100.74 673 25.9422
100.857 811 28.4781
100.975 791 28.1247
101.092 780 27.9285
101.209 750 27.3861
101.327 806 28.3901
101.444 779 27.9106
101.561 766 27.6767
101.679 746 27.313
101.796 706 26.5707
101.913 756 27.4955
102.03 681 26.096
102.148 789 28.0891
102.265 775 27.8388
102.382 779 27.9106
102.499 813 28.5132
102.616 788 28.0713
102.733 840 28.9828
102.851 813 28.5132
102.968 828 28.775
103.085 854 29.2233
103.202 883 29.7153
103.319 791 28.1247
103.436 746 27.313
103.552 680 26.0768
103.669 639 25.2784
103.786 477 21.8403
103.903 498 22.3159
104.02 516 22.7156
104.137 606 24.6171
104.253 727 26.9629
104.37 805 28.3725
104.487 789 28.0891
104.603 798 28.2489
104.72 841 29
104.836 855 29.2404
104.953 853 29.2062
105.069 774 27.8209
105.186 724 26.9072
105.302 751 27.4044
105.418 778 27.8927
105.535 771 27.7669
105.651 728 26.9815
105.767 720 26.8328
105.883 720 26.8328
105.999 633 25.1595
106.115 0 1
106.231 0 1
106.347 0 1
106.463 0 1
106.579 0 1
106.694 0 1
106.81 0 1
106.926 0 1
107.041 0 1
107.157 0 1
109.576 0 1
109.692 0 1
109.807 0 1
109.923 0 1
110.039 0 1
110.155 0 1
110.27 0 1
110.386 0 1
110.502 0 1
110.618 300 17.3205
110.735 371 19.2614
110.851 397 19.9249
110.967 437 20.9045
111.083 543 23.3024
111.199 615 24.7992
111.316 647 25.4362
111.432 634 25.1794
111.549 718 26.7955
111.665 765 27.6586
111.782 798 28.2489
111.898 703 26.5141
112.015 651 25.5147
112.132 618 24.8596
112.248 543 23.3024
112.365 424 20.5913
112.482 401 20.025
112.599 457 21.3776
112.716 539 23.2164
112.832 608 24.6577
112.949 734 27.0924
113.066 688 26.2298
113.183 737 27.1477
113.3 746 27.313
113.417 720 26.8328
113.534 704 26.533
113.652 676 26
113.769 690 26.2679
113.886 643 25.3574
114.003 625 25
114.12 615 24.7992
114.238 673 25.9422
114.355 655 25.593
114.472 738 27.1662
114.589 738 27.1662
114.707 710 26.6458
114.824 708 26.6083
114.942 750 27.3861
115.059 737 27.1477
115.176 703 26.5141
115.294 692 26.3059
115.411 713 26.7021
115.529 653 25.5539
115.646 634 25.1794
115.764 559 23.6432
115.881 466 21.587
115.999 418 20.445
116.116 415 20.3715
116.234 493 22.2036
116.351 601 24.5153
116.469 651 25.5147
116.586 673 25.9422
116.704 753 27.4408
116.821 691 26.2869
116.939 742 27.2397
117.056 750 27.3861
117.174 703 26.5141
117.291 673 25.9422
117.409 677 26.0192
117.526 653 25.5539
117.644 673 25.9422
117.761 678 26.0384
117.879 660 25.6905
117.996 671 25.9037
118.114 671 25.9037
118.231 755 27.4773
118.349 705 26.5518
118.466 731 27.037
118.584 770 27.7489
118.701 755 27.4773
118.819 735 27.1109
118.936 753 27.4408
119.053 688 26.2298
119.171 653 25.5539
119.288 590 24.2899
119.405 506 22.4944
119.523 466 21.587
119.64 394 19.8494
119.757 382 19.5448
119.875 503 22.4277
119.992 613 24.7588
120.109 612 24.7386
120.226 652 25.5343
120.343 696 26.3818
120.46 689 26.2488
120.578 751 27.4044
120.695 668 25.8457
120.812 702 26.4953
120.929 666 25.807
121.046 629 25.0799
121.163 625 25
121.279 657 25.632
121.396 632 25.1396
121.513 683 26.1343
121.63 642 25.3377
121.747 702 26.4953
121.863 664 25.7682
121.98 685 26.1725
122.097 686 26.1916
122.213 678 26.0384
122.33 696 26.3818
122.446 636 25.219
122.563 617 24.8395
122.679 580 24.0832
122.795 525 22.9129
122.912 493 22.2036
123.028 343 18.5203
123.144 284 16.8523
123.26 223 14.9332
123.377 0 1
123.493 0 1
123.609 0 1
123.725 0 1
123.84 0 1
123.956 0 1
124.072 0 1
124.188 0 1
124.303 0 1
124.419 0 1
126.852 0 1
126.968 0 1
127.083 0 1
127.199 0 1
127.315 0 1
127.431 0 1
127.547 0 1
127.663 0 1
127.779 0 1
127.895 0 1
128.011 0 1
128.127 0 1
128.243 0 1
128.359 524 22.891
128.476 576 24
128.592 436 20.8806
128.708 426 20.6398
128.825 459 21.4243
128.941 476 21.8174
129.058 588 24.2487
129.174 653 25.5539
129.291 603 24.5561
129.408 716 26.7582
129.524 743 27.258
129.641 739 27.1846
129.758 726 26.9444
129.875 746 27.313
129.992 683 26.1343
130.108 684 26.1534
130.225 678 26.0384
130.342 739 27.1846
130.459 673 25.9422
130.576 688 26.2298
130.693 700 26.4575
130.81 695 26.3629
130.928 708 26.6083
131.045 696 26.3818
131.162 721 26.8514
131.279 749 27.3679
131.396 752 27.4226
131.513 753 27.4408
131.631 694 26.3439
131.748 661 25.7099
131.865 671 25.9037
131.983 613 24.7588
132.1 515 22.6936
132.217 418 20.445
132.335 440 20.9762
132.452 478 21.8632
132.57 551 23.4734
132.687 651 25.5147
132.804 725 26.9258
132.922 693 26.3249
133.039 726 26.9444
133.157 699 26.4386
133.274 711 26.6646
133.392 741 27.2213
133.509 753 27.4408
133.627 679 26.0576
133.744 704 26.533
133.862 666 25.807
133.979 683 26.1343
134.097 663 25.7488
134.214 702 26.4953
134.332 714 26.7208
134.449 728 26.9815
134.567 711 26.6646
134.684 748 27.3496
134.802 729 27
134.919 673 25.9422
135.037 623 24.96
135.154 626 25.02
135.272 622 24.9399
135.389 615 24.7992
135.507 614 24.779
135.624 523 22.8692
135.742 403 20.0749
135.859 437 20.9045
135.977 469 21.6564
136.094 505 22.4722
136.211 583 24.1454
136.329 708 26.6083
136.446 673 25.9422
136.564 723 26.8887
136.681 699 26.4386
136.798 708 26.6083
136.915 725 26.9258
137.033 825 28.7228
137.15 670 25.8844
137.267 703 26.5141
137.384 693 26.3249
137.502 635 25.1992
137.619 681 26.096
137.736 677 26.0192
137.853 663 25.7488
137.97 687 26.2107
138.087 694 26.3439
138.204 728 26.9815
138.321 769 27.7308
138.438 676 26
138.555 693 26.3249
138.672 666 25.807
138.788 695 26.3629
138.905 624 24.98
139.022 607 24.6374
139.139 569 23.8537
139.255 538 23.1948
139.372 445 21.095
139.488 405 20.1246
139.605 407 20.1742
139.721 428 20.6882
139.838 431 20.7605
139.954 506 22.4944
140.071 469 21.6564
140.187 364 19.0788
140.303 375 19.3649
140.419 358 18.9209
140.535 305 17.4642
140.652 329 18.1384
140.768 0 1
140.884 0 1
141 0 1
141.115 0 1
141.231 0 1
141.347 0 1
141.463 0 1
141.578 0 1
141.694 0 1
144.104 0 1
144.219 0 1
144.335 0 1
144.45 0 1
144.566 0 1
144.682 0 1
144.798 0 1
144.914 0 1
145.03 0 1
145.146 415 20.3715
145.262 477 21.8403
145.378 528 22.9783
145.494 480 21.9089
145.61 549 23.4307
145.726 533 23.0868
145.842 565 23.7697
145.959 578 24.0416
146.075 539 23.2164
146.192 521 22.8254
146.308 482 21.9545
146.425 461 21.4709
146.541 493 22.2036
146.658 523 22.8692
146.774 483 21.9773
146.891 503 22.4277
147.008 501 22.383
147.125 494 22.2261
147.241 520 22.8035
147.358 523 22.8692
147.475 481 21.9317
147.592 515 22.6936
147.709 486 22.0454
147.826 455 21.3307
147.943 440 20.9762
148.06 377 19.4165
148.177 363 19.0526
148.294 289 17
148.411 330 18.1659
148.528 348 18.6548
148.645 444 21.0713
148.762 454 21.3073
148.88 514 22.6716
148.997 576 24
149.114 497 22.2935
149.231 543 23.3024
149.349 506 22.4944
149.466 565 23.7697
149.583 488 22.0907
149.701 497 22.2935
149.818 477 21.8403
149.935 485 22.0227
150.053 497 22.2935
150.17 499 22.3383
150.287 507 22.5167
150.405 506 22.4944
150.522 545 23.3452
150.64 490 22.1359
150.757 483 21.9773
150.875 535 23.1301
150.992 490 22.1359
151.11 523 22.8692
151.227 508 22.5389
151.344 453 21.2838
151.462 448 21.166
151.579 461 21.4709
151.697 385 19.6214
151.814 371 19.2614
151.932 335 18.303
152.049 377 19.4165
152.167 363 19.0526
152.284 455 21.3307
152.402 445 21.095
152.519 514 22.6716
152.636 527 22.9565
152.754 520 22.8035
152.871 489 22.1133
152.989 546 23.3666
153.106 494 22.2261
153.223 504 22.4499
153.341 486 22.0454
153.458 460 21.4476
153.575 422 20.5426
153.693 469 21.6564
153.81 513 22.6495
153.927 504 22.4499
154.044 511 22.6053
154.162 467 21.6102
154.279 524 22.891
154.396 517 22.7376
154.513 516 22.7156
154.63 491 22.1585
154.747 536 23.1517
154.864 463 21.5174
154.981 501 22.383
155.098 423 20.567
155.215 415 20.3715
155.332 405 20.1246
155.449 370 19.2354
155.566 336 18.3303
155.683 367 19.1572
155.8 374 19.3391
155.917 479 21.8861
156.033 507 22.5167
156.15 0 1
156.267 0 1
156.383 0 1
156.5 0 1
156.617 0 1
156.733 0 1
156.85 0 1
156.966 0 1
157.082 0 1
157.199 0 1
157.315 0 1
157.431 0 1
157.547 0 1
157.664 0 1
157.78 0 1
157.896 0 1
158.012 0 1
158.128 0 1
158.244 0 1
158.359 0 1
158.475 0 1
158.591 0 1
158.706 0 1
