
6.15755 0 1
6.2731 0 1
6.3887 0 1
6.50437 0 1
6.62009 0 1
6.73587 0 1
6.8517 0 1
6.96759 0 1
7.08353 0 1
7.19952 0 1
7.31557 0 1
7.43166 0 1
7.54781 0 1
7.664 0 1
7.78024 0 1
7.89653 0 1
8.01286 0 1
8.12924 0 1
8.24567 0 1
8.36213 0 1
8.47864 0 1
8.59519 0 1
8.71178 0 1
8.82841 0 1
8.94508 0 1
9.06179 0 1
9.17853 0 1
9.29531 0 1
9.41212 0 1
9.52897 0 1
9.64584 0 1
9.76276 0 1
9.8797 0 1
9.99667 0 1
10.1137 0 1
10.2307 0 1
10.3478 0 1
10.4648 0 1
10.5819 0 1
10.6991 0 1
10.8162 0 1
10.9334 0 1
11.0506 0 1
11.1678 0 1
11.285 0 1
11.4023 0 1
11.5196 0 1
11.6369 0 1
11.7542 0 1
11.8715 0 1
11.9888 0 1
12.1062 0 1
12.2235 0 1
12.3409 0 1
12.4582 0 1
12.5756 0 1
12.693 0 1
12.8104 0 1
12.9278 0 1
13.0452 0 1
13.1626 0 1
13.28 0 1
13.3974 0 1
13.5149 0 1
13.6323 0 1
13.7497 0 1
13.8671 0 1
13.9845 0 1
14.1019 0 1
14.2193 0 1
14.3367 0 1
14.4541 0 1
14.5714 0 1
14.6888 0 1
14.8062 0 1
14.9235 0 1
15.0408 462 21.4942
15.1581 487 22.0681
15.2755 476 21.8174
15.3927 514 22.6716
15.51 501 22.383
15.6273 507 22.5167
15.7445 526 22.9347
15.8617 475 21.7945
15.9789 539 23.2164
16.0961 499 22.3383
16.2132 505 22.4722
16.3304 477 21.8403
16.4475 485 22.0227
16.5646 513 22.6495
16.6816 519 22.7816
16.7986 554 23.5372
16.9156 534 23.1084
17.0326 508 22.5389
17.1496 481 21.9317
17.2665 519 22.7816
17.3833 486 22.0454
17.5002 535 23.1301
17.617 514 22.6716
17.7338 498 22.3159
17.8505 447 21.1424
17.9672 479 21.8861
18.0839 498 22.3159
18.2005 488 22.0907
18.3171 439 20.9523
18.4337 509 22.561
18.5502 518 22.7596
18.6666 508 22.5389
18.7831 555 23.5584
18.8994 537 23.1733
19.0158 474 21.7715
19.1321 509 22.561
19.2483 488 22.0907
19.3645 468 21.6333
19.4806 429 20.7123
19.5967 401 20.025
19.7128 437 20.9045
19.8288 397 19.9249
19.9447 345 18.5742
20.0606 0 1
20.1764 0 1
20.2922 0 1
20.4079 0 1
20.5236 0 1
20.6392 0 1
20.7548 0 1
20.8702 0 1
23.3078 0 1
23.4233 0 1
23.539 0 1
23.6547 0 1
23.7704 0 1
23.8862 0 1
24.0021 0 1
24.118 0 1
24.234 0 1
24.35 0 1
24.4661 189 13.7477
24.5822 207 14.3875
24.6984 275 16.5831
24.8146 282 16.7929
24.9309 364 19.0788
25.0472 367 19.1572
25.1636 423 20.567
25.28 497 22.2935
25.3965 536 23.1517
25.513 537 23.1733
25.6296 574 23.9583
25.7462 553 23.516
25.8628 638 25.2587
25.9795 621 24.9199
26.0962 586 24.2074
26.213 560 23.6643
26.3298 564 23.7487
26.4466 552 23.4947
26.5635 521 22.8254
26.6804 544 23.3238
26.7973 490 22.1359
26.9143 515 22.6936
27.0313 500 22.3607
27.1483 502 22.4054
27.2653 532 23.0651
27.3824 596 24.4131
27.4996 517 22.7376
27.6167 548 23.4094
27.7339 535 23.1301
27.8511 485 22.0227
27.9683 487 22.0681
28.0855 513 22.6495
28.2028 511 22.6053
28.3201 487 22.0681
28.4374 548 23.4094
28.5547 558 23.622
28.6721 528 22.9783
28.7894 558 23.622
28.9068 598 24.454
29.0242 587 24.2281
29.1416 562 23.7065
29.259 548 23.4094
29.3764 563 23.7276
29.4939 591 24.3105
29.6113 573 23.9374
29.7288 568 23.8328
29.8463 544 23.3238
29.9638 549 23.4307
30.0812 548 23.4094
30.1987 496 22.2711
30.3162 486 22.0454
30.4337 540 23.2379
30.5512 508 22.5389
30.6687 503 22.4277
30.7862 509 22.561
30.9037 500 22.3607
31.0212 487 22.0681
31.1387 447 21.1424
31.2562 517 22.7376
31.3737 496 22.2711
31.4912 554 23.5372
31.6087 458 21.4009
31.7262 474 21.7715
31.8436 515 22.6936
31.9611 483 21.9773
32.0785 490 22.1359
32.1959 524 22.891
32.3134 537 23.1733
32.4308 545 23.3452
32.5482 485 22.0227
32.6655 565 23.7697
32.7829 548 23.4094
32.9002 513 22.6495
33.0176 527 22.9565
33.1349 549 23.4307
33.2522 560 23.6643
33.3694 524 22.891
33.4867 495 22.2486
33.6039 553 23.516
33.7211 533 23.0868
33.8383 521 22.8254
33.9554 496 22.2711
34.0725 456 21.3542
34.1896 489 22.1133
34.3067 479 21.8861
34.4237 501 22.383
34.5407 498 22.3159
34.6577 514 22.6716
34.7746 495 22.2486
34.8915 482 21.9545
35.0084 494 22.2261
35.1252 429 20.7123
35.242 488 22.0907
35.3587 479 21.8861
35.4755 453 21.2838
35.5921 453 21.2838
35.7088 461 21.4709
35.8254 516 22.7156
35.9419 539 23.2164
36.0584 479 21.8861
36.1749 511 22.6053
36.2913 530 23.0217
36.4077 524 22.891
36.524 500 22.3607
36.6403 484 22
36.7565 417 20.4206
36.8727 410 20.2485
36.9889 353 18.7883
37.1049 371 19.2614
37.221 0 1
37.3369 0 1
37.4529 0 1
37.5687 0 1
37.6845 0 1
37.8003 0 1
37.916 0 1
38.0316 0 1
38.1472 0 1
40.5851 0 1
40.7008 0 1
40.8164 0 1
40.9322 0 1
41.048 0 1
41.1639 0 1
41.2798 0 1
41.3958 0 1
41.5118 0 1
41.6279 0 1
41.744 179 13.3791
41.8602 235 15.3297
41.9765 275 16.5831
42.0928 321 17.9165
42.2091 339 18.412
42.3255 373 19.3132
42.4419 405 20.1246
42.5584 418 20.445
42.675 393 19.8242
42.7915 406 20.1494
42.9081 391 19.7737
43.0248 369 19.2094
43.1415 425 20.6155
43.2582 387 19.6723
43.375 430 20.7364
43.4918 401 20.025
43.6087 435 20.8567
43.7256 387 19.6723
43.8425 405 20.1246
43.9595 454 21.3073
44.0765 363 19.0526
44.1935 383 19.5704
44.3106 423 20.567
44.4277 454 21.3073
44.5448 444 21.0713
44.6619 460 21.4476
44.7791 427 20.664
44.8963 463 21.5174
45.0136 456 21.3542
45.1308 470 21.6795
45.2481 456 21.3542
45.3654 450 21.2132
45.4827 431 20.7605
45.6001 422 20.5426
45.7174 481 21.9317
45.8348 443 21.0476
45.9522 446 21.1187
46.0697 496 22.2711
46.1871 425 20.6155
46.3046 432 20.7846
46.422 409 20.2237
46.5395 378 19.4422
46.657 386 19.6469
46.7745 391 19.7737
46.892 437 20.9045
47.0096 412 20.2978
47.1271 426 20.6398
47.2446 451 21.2368
47.3622 431 20.7605
47.4797 412 20.2978
47.5973 432 20.7846
47.7149 403 20.0749
47.8324 394 19.8494
47.95 467 21.6102
48.0675 441 21
48.1851 474 21.7715
48.3027 463 21.5174
48.4202 459 21.4243
48.5378 458 21.4009
48.6554 481 21.9317
48.7729 474 21.7715
48.8904 459 21.4243
49.008 467 21.6102
49.1255 459 21.4243
49.243 475 21.7945
49.3605 487 22.0681
49.478 421 20.5183
49.5955 469 21.6564
49.713 448 21.166
49.8304 450 21.2132
49.9479 433 20.8087
50.0653 401 20.025
50.1827 434 20.8327
50.3001 376 19.3907
50.4175 406 20.1494
50.5348 446 21.1187
50.6521 457 21.3776
50.7694 443 21.0476
50.8867 408 20.199
51.004 400 20
51.1212 418 20.445
51.2384 452 21.2603
51.3556 409 20.2237
51.4727 472 21.7256
51.5899 413 20.3224
51.707 440 20.9762
51.824 460 21.4476
51.9411 457 21.3776
52.0581 490 22.1359
52.175 480 21.9089
52.2919 447 21.1424
52.4088 468 21.6333
52.5257 476 21.8174
52.6425 476 21.8174
52.7593 467 21.6102
52.876 469 21.6564
52.9927 460 21.4476
53.1094 466 21.587
53.226 438 20.9284
53.3426 494 22.2261
53.4591 493 22.2036
53.5756 465 21.5639
53.692 403 20.0749
53.8084 332 18.2209
53.9248 314 17.72
54.0411 288 16.9706
54.1573 257 16.0312
54.2735 0 1
54.3896 0 1
54.5057 0 1
54.6217 0 1
54.7377 0 1
54.8537 0 1
54.9695 0 1
55.0853 0 1
55.2011 0 1
55.3168 0 1
55.4324 0 1
57.824 0 1
57.9396 0 1
58.0553 0 1
58.1711 0 1
58.2869 0 1
58.4028 0 1
58.5187 0 1
58.6347 0 1
58.7508 0 1
58.8669 0 1
58.983 232 15.2315
59.0992 335 18.303
59.2155 339 18.412
59.3318 387 19.6723
59.4482 406 20.1494
59.5646 488 22.0907
59.681 559 23.6432
59.7975 529 23
59.9141 537 23.1733
60.0306 565 23.7697
60.1473 499 22.3383
60.2639 584 24.1661
60.3807 568 23.8328
60.4974 598 24.454
60.6142 530 23.0217
60.731 603 24.5561
60.8479 547 23.388
60.9648 557 23.6008
61.0818 561 23.6854
61.1987 557 23.6008
61.3158 621 24.9199
61.4328 579 24.0624
61.5499 613 24.7588
61.667 579 24.0624
61.7841 564 23.7487
61.9013 559 23.6432
62.0185 527 22.9565
62.1357 603 24.5561
62.253 531 23.0434
62.3702 530 23.0217
62.4875 509 22.561
62.6049 487 22.0681
62.7222 535 23.1301
62.8396 524 22.891
62.9569 606 24.6171
63.0743 563 23.7276
63.1918 536 23.1517
63.3092 547 23.388
63.4267 550 23.4521
63.5441 582 24.1247
63.6616 570 23.8747
63.7791 580 24.0832
63.8966 563 23.7276
64.0142 565 23.7697
64.1317 547 23.388
64.2492 553 23.516
64.3668 557 23.6008
64.4843 551 23.4734
64.6019 528 22.9783
64.7195 555 23.5584
64.837 563 23.7276
64.9546 588 24.2487
65.0722 583 24.1454
65.1898 526 22.9347
65.3074 578 24.0416
65.4249 556 23.5797
65.5425 617 24.8395
65.6601 548 23.4094
65.7777 547 23.388
65.8952 565 23.7697
66.0128 539 23.2164
66.1304 502 22.4054
66.2479 525 22.9129
66.3655 483 21.9773
66.483 524 22.891
66.6005 581 24.1039
66.718 527 22.9565
66.8355 509 22.561
66.953 534 23.1084
67.0705 541 23.2594
67.1879 550 23.4521
67.3054 557 23.6008
67.4228 553 23.516
67.5402 598 24.454
67.6576 554 23.5372
67.7749 564 23.7487
67.8923 505 22.4722
68.0096 521 22.8254
68.1269 553 23.516
68.2442 565 23.7697
68.3614 560 23.6643
68.4787 554 23.5372
68.5958 559 23.6432
68.713 525 22.9129
68.8302 548 23.4094
68.9473 566 23.7908
69.0643 564 23.7487
69.1814 538 23.1948
69.2984 557 23.6008
69.4154 536 23.1517
69.5323 552 23.4947
69.6492 525 22.9129
69.7661 535 23.1301
69.8829 496 22.2711
69.9997 503 22.4277
70.1165 524 22.891
70.2332 513 22.6495
70.3499 551 23.4734
70.4665 449 21.1896
70.5831 448 21.166
70.6996 437 20.9045
70.8161 384 19.5959
70.9326 357 18.8944
71.049 324 18
71.1653 246 15.6844
71.2817 226 15.0333
71.3979 242 15.5563
71.5141 210 14.4914
71.6303 205 14.3178
71.7464 179 13.3791
71.8624 0 1
71.9784 0 1
72.0944 0 1
72.2102 0 1
72.3261 0 1
72.4418 0 1
72.5575 0 1
72.6732 0 1
75.1054 0 1
75.2209 0 1
75.3365 0 1
75.4521 0 1
75.5678 0 1
75.6835 0 1
75.7993 0 1
75.9151 0 1
76.031 0 1
76.147 294 17.1464
76.263 367 19.1572
76.3791 432 20.7846
76.4952 440 20.9762
76.6113 480 21.9089
76.7276 417 20.4206
76.8438 430 20.7364
76.9601 466 21.587
77.0765 451 21.2368
77.1929 480 21.9089
77.3093 502 22.4054
77.4258 475 21.7945
77.5423 441 21
77.6589 475 21.7945
77.7755 503 22.4277
77.8921 480 21.9089
78.0088 503 22.4277
78.1256 468 21.6333
78.2423 446 21.1187
78.3591 465 21.5639
78.4759 476 21.8174
78.5928 481 21.9317
78.7097 485 22.0227
78.8266 431 20.7605
78.9436 476 21.8174
79.0606 399 19.975
79.1776 440 20.9762
79.2946 466 21.587
79.4117 469 21.6564
79.5288 525 22.9129
79.6459 538 23.1948
79.7631 519 22.7816
79.8802 504 22.4499
79.9974 527 22.9565
80.1147 511 22.6053
80.2319 489 22.1133
80.3491 495 22.2486
80.4664 502 22.4054
80.5837 499 22.3383
80.701 513 22.6495
80.8183 544 23.3238
80.9357 534 23.1084
81.053 540 23.2379
81.1704 520 22.8035
81.2877 537 23.1733
81.4051 547 23.388
81.5225 522 22.8473
81.6399 518 22.7596
81.7573 491 22.1585
81.8747 467 21.6102
81.9922 493 22.2036
82.1096 508 22.5389
82.227 518 22.7596
82.3444 501 22.383
82.4619 489 22.1133
82.5793 472 21.7256
82.6967 422 20.5426
82.8142 454 21.3073
82.9316 455 21.3307
83.049 467 21.6102
83.1664 465 21.5639
83.2838 481 21.9317
83.4012 515 22.6936
83.5186 480 21.9089
83.636 465 21.5639
83.7534 468 21.6333
83.8708 483 21.9773
83.9881 479 21.8861
84.1055 460 21.4476
84.2228 459 21.4243
84.3401 445 21.095
84.4575 446 21.1187
84.5747 431 20.7605
84.692 418 20.445
84.8093 495 22.2486
84.9265 492 22.1811
85.0437 435 20.8567
85.1609 436 20.8806
85.2781 382 19.5448
85.3952 356 18.868
85.5123 402 20.0499
85.6294 390 19.7484
85.7465 359 18.9473
85.8636 405 20.1246
85.9806 382 19.5448
86.0976 359 18.9473
86.2145 361 19
86.3315 379 19.4679
86.4484 359 18.9473
86.5652 336 18.3303
86.682 376 19.3907
86.7988 326 18.0555
86.9156 322 17.9444
87.0323 347 18.6279
87.149 332 18.2209
87.2657 348 18.6548
87.3823 342 18.4932
87.4988 344 18.5472
87.6154 295 17.1756
87.7318 292 17.088
87.8483 284 16.8523
87.9647 284 16.8523
88.081 203 14.2478
88.1973 186 13.6382
88.3136 178 13.3417
88.4298 160 12.6491
88.546 157 12.53
88.6621 116 10.7703
88.7781 123 11.0905
88.8942 0 1
89.0101 0 1
89.126 0 1
89.2419 0 1
89.3577 0 1
89.4734 0 1
89.5891 0 1
89.7047 0 1
89.8203 0 1
89.9358 0 1
92.3269 0 1
92.4424 0 1
92.558 0 1
92.6736 0 1
92.7893 0 1
92.905 0 1
93.0208 0 1
93.1366 0 1
93.2525 0 1
93.3685 0 1
93.4845 0 1
93.6005 204 14.2829
93.7167 268 16.3707
93.8328 286 16.9115
93.949 313 17.6918
94.0653 306 17.4929
94.1816 298 17.2627
94.2979 300 17.3205
94.4143 329 18.1384
94.5307 315 17.7482
94.6472 323 17.9722
94.7637 349 18.6815
94.8803 353 18.7883
94.9969 366 19.1311
95.1135 378 19.4422
95.2302 377 19.4165
95.3469 381 19.5192
95.4637 354 18.8149
95.5805 380 19.4936
95.6973 346 18.6011
95.8142 385 19.6214
95.9311 357 18.8944
96.048 357 18.8944
96.1649 375 19.3649
96.2819 395 19.8746
96.3989 378 19.4422
96.516 407 20.1742
96.633 408 20.199
96.7501 403 20.0749
96.8673 386 19.6469
96.9844 416 20.3961
97.1016 423 20.567
97.2188 403 20.0749
97.336 450 21.2132
97.4532 445 21.095
97.5704 399 19.975
97.6877 443 21.0476
97.805 430 20.7364
97.9223 444 21.0713
98.0396 406 20.1494
98.1569 464 21.5407
98.2743 424 20.5913
98.3916 477 21.8403
98.509 445 21.095
98.6264 445 21.095
98.7438 449 21.1896
98.8612 439 20.9523
98.9786 457 21.3776
99.096 442 21.0238
99.2134 467 21.6102
99.3308 448 21.166
99.4482 472 21.7256
99.5656 453 21.2838
99.6831 450 21.2132
99.8005 471 21.7025
99.9179 441 21
100.035 450 21.2132
100.153 475 21.7945
100.27 476 21.8174
100.388 459 21.4243
100.505 528 22.9783
100.622 463 21.5174
100.74 465 21.5639
100.857 556 23.5797
100.975 463 21.5174
101.092 503 22.4277
101.209 505 22.4722
101.327 498 22.3159
101.444 518 22.7596
101.561 544 23.3238
101.679 496 22.2711
101.796 502 22.4054
101.913 444 21.0713
102.03 524 22.891
102.148 525 22.9129
102.265 536 23.1517
102.382 516 22.7156
102.499 493 22.2036
102.616 478 21.8632
102.733 505 22.4722
102.851 471 21.7025
102.968 528 22.9783
103.085 552 23.4947
103.202 504 22.4499
103.319 538 23.1948
103.436 482 21.9545
103.552 535 23.1301
103.669 470 21.6795
103.786 565 23.7697
103.903 548 23.4094
104.02 552 23.4947
104.137 529 23
104.253 474 21.7715
104.37 553 23.516
104.487 522 22.8473
104.603 529 23
104.72 543 23.3024
104.836 531 23.0434
104.953 553 23.516
105.069 531 23.0434
105.186 524 22.891
105.302 502 22.4054
105.418 460 21.4476
105.535 423 20.567
105.651 358 18.9209
105.767 284 16.8523
105.883 269 16.4012
105.999 236 15.3623
106.115 0 1
106.231 0 1
106.347 0 1
106.463 0 1
106.579 0 1
106.694 0 1
106.81 0 1
106.926 0 1
107.041 0 1
107.157 0 1
109.576 0 1
109.692 0 1
109.807 0 1
109.923 0 1
110.039 0 1
110.155 0 1
110.27 0 1
110.386 0 1
110.502 0 1
110.618 266 16.3095
110.735 321 17.9165
110.851 370 19.2354
110.967 362 19.0263
111.083 391 19.7737
111.199 446 21.1187
111.316 445 21.095
111.432 491 22.1585
111.549 474 21.7715
111.665 480 21.9089
111.782 448 21.166
111.898 510 22.5832
112.015 467 21.6102
112.132 491 22.1585
112.248 458 21.4009
112.365 508 22.5389
112.482 481 21.9317
112.599 484 22
112.716 519 22.7816
112.832 508 22.5389
112.949 458 21.4009
113.066 469 21.6564
113.183 496 22.2711
113.3 509 22.561
113.417 475 21.7945
113.534 486 22.0454
113.652 481 21.9317
113.769 469 21.6564
113.886 493 22.2036
114.003 497 22.2935
114.12 464 21.5407
114.238 512 22.6274
114.355 476 21.8174
114.472 458 21.4009
114.589 474 21.7715
114.707 460 21.4476
114.824 489 22.1133
114.942 468 21.6333
115.059 469 21.6564
115.176 456 21.3542
115.294 434 20.8327
115.411 469 21.6564
115.529 469 21.6564
115.646 458 21.4009
115.764 468 21.6333
115.881 464 21.5407
115.999 489 22.1133
116.116 483 21.9773
116.234 474 21.7715
116.351 508 22.5389
116.469 470 21.6795
116.586 492 22.1811
116.704 507 22.5167
116.821 468 21.6333
116.939 458 21.4009
117.056 489 22.1133
117.174 461 21.4709
117.291 442 21.0238
117.409 451 21.2368
117.526 472 21.7256
117.644 457 21.3776
117.761 478 21.8632
117.879 435 20.8567
117.996 451 21.2368
118.114 439 20.9523
118.231 498 22.3159
118.349 469 21.6564
118.466 477 21.8403
118.584 506 22.4944
118.701 476 21.8174
118.819 467 21.6102
118.936 431 20.7605
119.053 433 20.8087
119.171 486 22.0454
119.288 448 21.166
119.405 451 21.2368
119.523 433 20.8087
119.64 435 20.8567
119.757 448 21.166
119.875 509 22.561
119.992 460 21.4476
120.109 441 21
120.226 457 21.3776
120.343 452 21.2603
120.46 491 22.1585
120.578 405 20.1246
120.695 446 21.1187
120.812 450 21.2132
120.929 432 20.7846
121.046 430 20.7364
121.163 440 20.9762
121.279 427 20.664
121.396 482 21.9545
121.513 484 22
121.63 492 22.1811
121.747 418 20.445
121.863 396 19.8997
121.98 436 20.8806
122.097 371 19.2614
122.213 378 19.4422
122.33 348 18.6548
122.446 322 17.9444
122.563 291 17.0587
122.679 256 16
122.795 259 16.0935
122.912 215 14.6629
123.028 227 15.0665
123.144 232 15.2315
123.26 212 14.5602
123.377 0 1
123.493 0 1
123.609 0 1
123.725 0 1
123.84 0 1
123.956 0 1
124.072 0 1
124.188 0 1
124.303 0 1
124.419 0 1
126.852 0 1
126.968 0 1
127.083 0 1
127.199 0 1
127.315 0 1
127.431 0 1
127.547 0 1
127.663 0 1
127.779 0 1
127.895 0 1
128.011 0 1
128.127 0 1
128.243 0 1
128.359 500 22.3607
128.476 459 21.4243
128.592 472 21.7256
128.708 510 22.5832
128.825 507 22.5167
128.941 509 22.561
129.058 526 22.9347
129.174 488 22.0907
129.291 482 21.9545
129.408 520 22.8035
129.524 503 22.4277
129.641 539 23.2164
129.758 482 21.9545
129.875 496 22.2711
129.992 524 22.891
130.108 499 22.3383
130.225 508 22.5389
130.342 490 22.1359
130.459 468 21.6333
130.576 504 22.4499
130.693 453 21.2838
130.81 470 21.6795
130.928 456 21.3542
131.045 418 20.445
131.162 461 21.4709
131.279 468 21.6333
131.396 524 22.891
131.513 460 21.4476
131.631 491 22.1585
131.748 459 21.4243
131.865 468 21.6333
131.983 453 21.2838
132.1 477 21.8403
132.217 516 22.7156
132.335 489 22.1133
132.452 513 22.6495
132.57 506 22.4944
132.687 562 23.7065
132.804 534 23.1084
132.922 502 22.4054
133.039 498 22.3159
133.157 482 21.9545
133.274 511 22.6053
133.392 540 23.2379
133.509 512 22.6274
133.627 508 22.5389
133.744 511 22.6053
133.862 511 22.6053
133.979 536 23.1517
134.097 531 23.0434
134.214 466 21.587
134.332 481 21.9317
134.449 424 20.5913
134.567 459 21.4243
134.684 525 22.9129
134.802 455 21.3307
134.919 503 22.4277
135.037 502 22.4054
135.154 488 22.0907
135.272 426 20.6398
135.389 431 20.7605
135.507 433 20.8087
135.624 453 21.2838
135.742 497 22.2935
135.859 474 21.7715
135.977 525 22.9129
136.094 503 22.4277
136.211 504 22.4499
136.329 534 23.1084
136.446 515 22.6936
136.564 512 22.6274
136.681 549 23.4307
136.798 540 23.2379
136.915 546 23.3666
137.033 482 21.9545
137.15 536 23.1517
137.267 536 23.1517
137.384 537 23.1733
137.502 501 22.383
137.619 486 22.0454
137.736 465 21.5639
137.853 460 21.4476
137.97 478 21.8632
138.087 467 21.6102
138.204 483 21.9773
138.321 478 21.8632
138.438 489 22.1133
138.555 511 22.6053
138.672 483 21.9773
138.788 510 22.5832
138.905 437 20.9045
139.022 454 21.3073
139.139 420 20.4939
139.255 409 20.2237
139.372 422 20.5426
139.488 389 19.7231
139.605 390 19.7484
139.721 374 19.3391
139.838 341 18.4662
139.954 279 16.7033
140.071 281 16.7631
140.187 274 16.5529
140.303 278 16.6733
140.419 225 15
140.535 226 15.0333
140.652 214 14.6287
140.768 0 1
140.884 0 1
141 0 1
141.115 0 1
141.231 0 1
141.347 0 1
141.463 0 1
141.578 0 1
141.694 0 1
144.104 0 1
144.219 0 1
144.335 0 1
144.45 0 1
144.566 0 1
144.682 0 1
144.798 0 1
144.914 0 1
145.03 0 1
145.146 386 19.6469
145.262 424 20.5913
145.378 381 19.5192
145.494 413 20.3224
145.61 428 20.6882
145.726 385 19.6214
145.842 388 19.6977
145.959 420 20.4939
146.075 376 19.3907
146.192 391 19.7737
146.308 383 19.5704
146.425 356 18.868
146.541 351 18.735
146.658 362 19.0263
146.774 329 18.1384
146.891 327 18.0831
147.008 373 19.3132
147.125 356 18.868
147.241 371 19.2614
147.358 381 19.5192
147.475 370 19.2354
147.592 389 19.7231
147.709 344 18.5472
147.826 340 18.4391
147.943 371 19.2614
148.06 363 19.0526
148.177 331 18.1934
148.294 361 19
148.411 359 18.9473
148.528 362 19.0263
148.645 339 18.412
148.762 373 19.3132
148.88 380 19.4936
148.997 394 19.8494
149.114 364 19.0788
149.231 434 20.8327
149.349 384 19.5959
149.466 413 20.3224
149.583 390 19.7484
149.701 381 19.5192
149.818 414 20.347
149.935 413 20.3224
150.053 381 19.5192
150.17 359 18.9473
150.287 375 19.3649
150.405 333 18.2483
150.522 367 19.1572
150.64 338 18.3848
150.757 364 19.0788
150.875 378 19.4422
150.992 391 19.7737
151.11 372 19.2873
151.227 405 20.1246
151.344 386 19.6469
151.462 335 18.303
151.579 342 18.4932
151.697 332 18.2209
151.814 349 18.6815
151.932 326 18.0555
152.049 378 19.4422
152.167 365 19.105
152.284 381 19.5192
152.402 376 19.3907
152.519 397 19.9249
152.636 378 19.4422
152.754 384 19.5959
152.871 357 18.8944
152.989 351 18.735
153.106 369 19.2094
153.223 392 19.799
153.341 346 18.6011
153.458 359 18.9473
153.575 335 18.303
153.693 356 18.868
153.81 346 18.6011
153.927 339 18.412
154.044 330 18.1659
154.162 327 18.0831
154.279 319 17.8606
154.396 386 19.6469
154.513 345 18.5742
154.63 355 18.8414
154.747 376 19.3907
154.864 334 18.2757
154.981 336 18.3303
155.098 337 18.3576
155.215 327 18.0831
155.332 330 18.1659
155.449 360 18.9737
155.566 316 17.7764
155.683 340 18.4391
155.8 339 18.412
155.917 361 19
156.033 311 17.6352
156.15 0 1
156.267 0 1
156.383 0 1
156.5 0 1
156.617 0 1
156.733 0 1
156.85 0 1
156.966 0 1
157.082 0 1
157.199 0 1
157.315 0 1
157.431 0 1
157.547 0 1
157.664 0 1
157.78 0 1
157.896 0 1
158.012 0 1
158.128 0 1
158.244 0 1
158.359 0 1
158.475 0 1
158.591 0 1
158.706 0 1
