
6.15755 0 1
6.2731 0 1
6.3887 0 1
6.50437 0 1
6.62009 0 1
6.73587 0 1
6.8517 0 1
6.96759 0 1
7.08353 0 1
7.19952 0 1
7.31557 0 1
7.43166 0 1
7.54781 0 1
7.664 0 1
7.78024 0 1
7.89653 0 1
8.01286 0 1
8.12924 0 1
8.24567 0 1
8.36213 0 1
8.47864 0 1
8.59519 0 1
8.71178 0 1
8.82841 0 1
8.94508 0 1
9.06179 0 1
9.17853 0 1
9.29531 0 1
9.41212 0 1
9.52897 0 1
9.64584 0 1
9.76276 0 1
9.8797 0 1
9.99667 0 1
10.1137 0 1
10.2307 0 1
10.3478 0 1
10.4648 0 1
10.5819 0 1
10.6991 0 1
10.8162 0 1
10.9334 0 1
11.0506 0 1
11.1678 0 1
11.285 0 1
11.4023 0 1
11.5196 0 1
11.6369 0 1
11.7542 0 1
11.8715 0 1
11.9888 0 1
12.1062 0 1
12.2235 0 1
12.3409 0 1
12.4582 0 1
12.5756 0 1
12.693 0 1
12.8104 0 1
12.9278 0 1
13.0452 0 1
13.1626 0 1
13.28 0 1
13.3974 0 1
13.5149 0 1
13.6323 0 1
13.7497 0 1
13.8671 0 1
13.9845 0 1
14.1019 0 1
14.2193 0 1
14.3367 0 1
14.4541 0 1
14.5714 0 1
14.6888 0 1
14.8062 0 1
14.9235 0 1
15.0408 0 0
15.1581 0 0
15.2755 0 0
15.3927 0 0
15.51 0 0
15.6273 0 0
15.7445 0 0
15.8617 0 0
15.9789 0 0
16.0961 0 0
16.2132 0 0
16.3304 0 0
16.4475 0 0
16.5646 0 0
16.6816 0 0
16.7986 0 0
16.9156 0 0
17.0326 0 0
17.1496 0 0
17.2665 0 0
17.3833 0 0
17.5002 0 0
17.617 0 0
17.7338 0 0
17.8505 0 0
17.9672 0 0
18.0839 0 0
18.2005 0 0
18.3171 0 0
18.4337 0 0
18.5502 0 0
18.6666 0 0
18.7831 0 0
18.8994 0 0
19.0158 0 0
19.1321 0 0
19.2483 0 0
19.3645 0 0
19.4806 0 0
19.5967 0 0
19.7128 0 0
19.8288 0 0
19.9447 0 0
20.0606 0 1
20.1764 0 1
20.2922 0 1
20.4079 0 1
20.5236 0 1
20.6392 0 1
20.7548 0 1
20.8702 0 1
23.3078 0 1
23.4233 0 1
23.539 0 1
23.6547 0 1
23.7704 0 1
23.8862 0 1
24.0021 0 1
24.118 0 1
24.234 0 1
24.35 0 1
24.4661 4307 65.6277
24.5822 4842 69.5845
24.6984 5235 72.3533
24.8146 5568 74.619
24.9309 6006 77.4984
25.0472 6423 80.1436
25.1636 6645 81.5169
25.28 7176 84.7113
25.3965 7710 87.8066
25.513 8060 89.7775
25.6296 8441 91.8749
25.7462 8481 92.0923
25.8628 8638 92.9408
25.9795 8550 92.4662
26.0962 8648 92.9946
26.213 8750 93.5414
26.3298 8484 92.1086
26.4466 8251 90.835
26.5635 7867 88.6961
26.6804 7646 87.4414
26.7973 7666 87.5557
26.9143 7624 87.3155
27.0313 7988 89.3756
27.1483 8103 90.0167
27.2653 8294 91.0714
27.3824 8160 90.3327
27.4996 8457 91.9619
27.6167 8218 90.6532
27.7339 8063 89.7942
27.8511 7906 88.9157
27.9683 7730 87.9204
28.0855 7551 86.8965
28.2028 7517 86.7006
28.3201 7196 84.8292
28.4374 7153 84.5754
28.5547 7178 84.7231
28.6721 7265 85.235
28.7894 7619 87.2869
28.9068 7468 86.4176
29.0242 8124 90.1332
29.1416 8216 90.6422
29.259 8650 93.0054
29.3764 8780 93.7017
29.4939 8793 93.771
29.6113 8654 93.0269
29.7288 8683 93.1826
29.8463 8579 92.6229
29.9638 8479 92.0815
30.0812 8032 89.6214
30.1987 7639 87.4014
30.3162 7225 85
30.4337 7387 85.9477
30.5512 7603 87.1952
30.6687 7696 87.7268
30.7862 8289 91.0439
30.9037 8291 91.0549
31.0212 8119 90.1055
31.1387 8248 90.8185
31.2562 8278 90.9835
31.3737 8001 89.4483
31.4912 7797 88.3006
31.6087 7874 88.7356
31.7262 7486 86.5217
31.8436 7539 86.8274
31.9611 7312 85.5102
32.0785 7198 84.841
32.1959 7040 83.9047
32.3134 7317 85.5395
32.4308 7510 86.6603
32.5482 7722 87.8749
32.6655 8025 89.5824
32.7829 8193 90.5152
32.9002 8541 92.4175
33.0176 8447 91.9076
33.1349 8520 92.3038
33.2522 8470 92.0326
33.3694 8304 91.1263
33.4867 8363 91.4494
33.6039 8476 92.0652
33.7211 7864 88.6792
33.8383 7550 86.8907
33.9554 7260 85.2056
34.0725 6917 83.1685
34.1896 7209 84.9058
34.3067 7193 84.8116
34.4237 7696 87.7268
34.5407 7683 87.6527
34.6577 7855 88.6284
34.7746 7979 89.3252
34.8915 7803 88.3346
35.0084 7818 88.4195
35.1252 7820 88.4308
35.242 7749 88.0284
35.3587 7621 87.2983
35.4755 7239 85.0823
35.5921 7216 84.947
35.7088 7242 85.0999
35.8254 6998 83.654
35.9419 6738 82.0853
36.0584 6828 82.6317
36.1749 6767 82.2618
36.2913 6703 81.8719
36.4077 6626 81.4002
36.524 6721 81.9817
36.6403 6607 81.2835
36.7565 6385 79.9062
36.8727 6270 79.1833
36.9889 6000 77.4597
37.1049 5550 74.4983
37.221 0 1
37.3369 0 1
37.4529 0 1
37.5687 0 1
37.6845 0 1
37.8003 0 1
37.916 0 1
38.0316 0 1
38.1472 0 1
40.5851 0 1
40.7008 0 1
40.8164 0 1
40.9322 0 1
41.048 0 1
41.1639 0 1
41.2798 0 1
41.3958 0 1
41.5118 0 1
41.6279 0 1
41.744 4615 67.9338
41.8602 5050 71.0634
41.9765 5420 73.6206
42.0928 5740 75.7628
42.2091 6040 77.7174
42.3255 6054 77.8075
42.4419 5964 77.2269
42.5584 5665 75.2662
42.675 5594 74.793
42.7915 5814 76.2496
42.9081 5909 76.87
43.0248 6221 78.8733
43.1415 6417 80.1062
43.2582 6600 81.2404
43.375 6779 82.3347
43.4918 6924 83.2106
43.6087 6744 82.1219
43.7256 6698 81.8413
43.8425 6637 81.4678
43.9595 6562 81.0062
44.0765 6490 80.5605
44.1935 6255 79.0886
44.3106 6230 78.9303
44.4277 6030 77.6531
44.5448 5851 76.4918
44.6619 5794 76.1183
44.7791 6069 77.9038
44.8963 6102 78.1153
45.0136 6328 79.5487
45.1308 6683 81.7496
45.2481 6784 82.365
45.3654 6937 83.2887
45.4827 6953 83.3847
45.6001 6944 83.3307
45.7174 7249 85.1411
45.8348 7080 84.1427
45.9522 6907 83.1084
46.0697 6709 81.9085
46.1871 5940 77.0714
46.3046 5921 76.948
46.422 5600 74.8331
46.5395 6038 77.7046
46.657 6218 78.8543
46.7745 6760 82.2192
46.892 6969 83.4805
47.0096 7000 83.666
47.1271 6980 83.5464
47.2446 6955 83.3966
47.3622 6937 83.2887
47.4797 6951 83.3727
47.5973 6681 81.7374
47.7149 6601 81.2465
47.8324 6433 80.206
47.95 6355 79.7183
48.0675 6279 79.2401
48.1851 5899 76.8049
48.3027 5902 76.8245
48.4202 5997 77.4403
48.5378 6270 79.1833
48.6554 6488 80.5481
48.7729 6838 82.6922
48.8904 7015 83.7556
49.008 7101 84.2674
49.1255 6971 83.4925
49.243 7214 84.9353
49.3605 6962 83.4386
49.478 6854 82.7889
49.5955 6623 81.3818
49.713 6148 78.4092
49.8304 5687 75.4122
49.9479 5480 74.027
50.0653 5485 74.0608
50.1827 5785 76.0592
50.3001 6039 77.711
50.4175 6215 78.8353
50.5348 6753 82.1766
50.6521 6730 82.0366
50.7694 6646 81.523
50.8867 6622 81.3757
51.004 6780 82.3408
51.1212 6607 81.2835
51.2384 6538 80.8579
51.3556 6355 79.7183
51.4727 6269 79.177
51.5899 6022 77.6015
51.707 5863 76.5702
51.824 5745 75.7958
51.9411 5746 75.8024
52.0581 6045 77.7496
52.175 6380 79.8749
52.2919 6690 81.7924
52.4088 6786 82.3772
52.5257 7067 84.0655
52.6425 6977 83.5284
52.7593 6931 83.2526
52.876 6904 83.0903
52.9927 6988 83.5943
53.1094 6737 82.0792
53.226 6320 79.4984
53.3426 6025 77.6209
53.4591 5436 73.7292
53.5756 4850 69.6419
53.692 4759 68.9855
53.8084 4657 68.2422
53.9248 4519 67.2235
54.0411 4463 66.8057
54.1573 4250 65.192
54.2735 0 1
54.3896 0 1
54.5057 0 1
54.6217 0 1
54.7377 0 1
54.8537 0 1
54.9695 0 1
55.0853 0 1
55.2011 0 1
55.3168 0 1
55.4324 0 1
57.824 0 1
57.9396 0 1
58.0553 0 1
58.1711 0 1
58.2869 0 1
58.4028 0 1
58.5187 0 1
58.6347 0 1
58.7508 0 1
58.8669 0 1
58.983 5408 73.5391
59.0992 6060 77.846
59.2155 6596 81.2158
59.3318 7117 84.3623
59.4482 7355 85.7613
59.5646 7547 86.8735
59.681 7773 88.1646
59.7975 7896 88.8594
59.9141 7636 87.3842
60.0306 7728 87.909
60.1473 7499 86.5968
60.2639 7176 84.7113
60.3807 7115 84.3505
60.4974 7334 85.6388
60.6142 7455 86.3423
60.731 7704 87.7724
60.8479 8078 89.8777
60.9648 8325 91.2414
61.0818 8475 92.0598
61.1987 8578 92.6175
61.3158 8385 91.5696
61.4328 8425 91.7878
61.5499 8208 90.598
61.667 7947 89.1459
61.7841 7417 86.122
61.9013 7102 84.2734
62.0185 6868 82.8734
62.1357 6811 82.5288
62.253 7131 84.4452
62.3702 7272 85.276
62.4875 7676 87.6128
62.6049 8030 89.6103
62.7222 8175 90.4157
62.8396 8387 91.5806
62.9569 8360 91.433
63.0743 8324 91.236
63.1918 8122 90.1221
63.3092 7992 89.398
63.4267 8017 89.5377
63.5441 7645 87.4357
63.6616 7631 87.3556
63.7791 7086 84.1784
63.8966 7172 84.6877
64.0142 7047 83.9464
64.1317 7275 85.2936
64.2492 7319 85.5512
64.3668 7633 87.367
64.4843 8202 90.5649
64.6019 8320 91.214
64.7195 8421 91.766
64.837 8351 91.3838
64.9546 8408 91.6951
65.0722 8308 91.1482
65.1898 8005 89.4707
65.3074 7937 89.0898
65.4249 7148 84.5458
65.5425 6783 82.359
65.6601 6438 80.2371
65.7777 6389 79.9312
65.8952 6757 82.201
66.0128 7100 84.2615
66.1304 7423 86.1568
66.2479 7754 88.0568
66.3655 7938 89.0955
66.483 8036 89.6437
66.6005 8017 89.5377
66.718 8169 90.3825
66.8355 8054 89.7441
66.953 7877 88.7525
67.0705 7861 88.6623
67.1879 7436 86.2322
67.3054 7363 85.8079
67.4228 7114 84.3445
67.5402 6845 82.7345
67.6576 6573 81.074
67.7749 6734 82.061
67.8923 7112 84.3327
68.0096 7338 85.6621
68.1269 7432 86.209
68.2442 7865 88.6848
68.3614 8016 89.5321
68.4787 8037 89.6493
68.5958 8025 89.5824
68.713 8031 89.6158
68.8302 7910 88.9382
68.9473 7668 87.5671
69.0643 7276 85.2995
69.1814 6772 82.2922
69.2984 6286 79.2843
69.4154 5918 76.9285
69.5323 6276 79.2212
69.6492 6533 80.827
69.7661 6795 82.4318
69.8829 6989 83.6002
69.9997 6926 83.2226
70.1165 6871 82.8915
70.2332 6656 81.5843
70.3499 6579 81.111
70.4665 6280 79.2465
70.5831 5894 76.7724
70.6996 5702 75.5116
70.8161 5254 72.4845
70.9326 5013 70.8025
71.049 4552 67.4685
71.1653 4177 64.6297
71.2817 3683 60.6877
71.3979 3181 56.4004
71.5141 2907 53.9166
71.6303 2656 51.5364
71.7464 2550 50.4975
71.8624 0 1
71.9784 0 1
72.0944 0 1
72.2102 0 1
72.3261 0 1
72.4418 0 1
72.5575 0 1
72.6732 0 1
75.1054 0 1
75.2209 0 1
75.3365 0 1
75.4521 0 1
75.5678 0 1
75.6835 0 1
75.7993 0 1
75.9151 0 1
76.031 0 1
76.147 5299 72.7942
76.263 5727 75.6769
76.3791 5836 76.3937
76.4952 5861 76.5572
76.6113 6188 78.6638
76.7276 6298 79.3599
76.8438 6599 81.2342
76.9601 6952 83.3787
77.0765 7195 84.8233
77.1929 7361 85.7963
77.3093 7573 87.023
77.4258 7667 87.5614
77.5423 7309 85.4927
77.6589 7428 86.1858
77.7755 7156 84.5931
77.8921 6936 83.2827
78.0088 6249 79.0506
78.1256 5912 76.8895
78.2423 5489 74.0878
78.3591 5447 73.8038
78.4759 5685 75.3989
78.5928 6109 78.1601
78.7097 6483 80.5171
78.8266 6732 82.0488
78.9436 7303 85.4576
79.0606 7183 84.7526
79.1776 7313 85.5161
79.2946 7386 85.9418
79.4117 7541 86.8389
79.5288 7532 86.7871
79.6459 7374 85.872
79.7631 7096 84.2378
79.8802 6940 83.3067
79.9974 6856 82.801
80.1147 6352 79.6994
80.2319 6233 78.9494
80.3491 6522 80.7589
80.4664 6680 81.7313
80.5837 7085 84.1724
80.701 7357 85.773
80.8183 7560 86.9483
80.9357 7848 88.5889
81.053 7578 87.0517
81.1704 7821 88.4364
81.2877 7801 88.3233
81.4051 7791 88.2666
81.5225 7623 87.3098
81.6399 7245 85.1176
81.7573 6729 82.0305
81.8747 5868 76.6029
81.9922 5651 75.1731
82.1096 5580 74.6994
82.227 6036 77.6917
82.3444 6501 80.6288
82.4619 6951 83.3727
82.5793 7342 85.6855
82.6967 7261 85.2115
82.8142 7722 87.8749
82.9316 7804 88.3403
83.049 7650 87.4643
83.1664 7628 87.3384
83.2838 7537 86.8159
83.4012 7654 87.4871
83.5186 7442 86.267
83.636 7235 85.0588
83.7534 6667 81.6517
83.8708 6560 80.9938
83.9881 6469 80.4301
84.1055 6577 81.0987
84.2228 6889 83
84.3401 7242 85.0999
84.4575 7473 86.4465
84.5747 7866 88.6905
84.692 7819 88.4251
84.8093 7876 88.7468
84.9265 8010 89.4986
85.0437 7773 88.1646
85.1609 7476 86.4639
85.2781 6962 83.4386
85.3952 6395 79.9687
85.5123 6076 77.9487
85.6294 5714 75.591
85.7465 5779 76.0197
85.8636 6229 78.924
85.9806 6619 81.3572
86.0976 6988 83.5943
86.2145 7416 86.1162
86.3315 7226 85.0059
86.4484 7774 88.1703
86.5652 7794 88.2836
86.682 7668 87.5671
86.7988 7648 87.4528
86.9156 7761 88.0965
87.0323 7631 87.3556
87.149 7377 85.8895
87.2657 6929 83.2406
87.3823 6182 78.6257
87.4988 5670 75.2994
87.6154 5326 72.9794
87.7318 5294 72.7599
87.8483 5387 73.3962
87.9647 5523 74.3169
88.081 5645 75.1332
88.1973 5534 74.3909
88.3136 5328 72.9932
88.4298 5134 71.6519
88.546 4728 68.7605
88.6621 4110 64.1093
88.7781 3571 59.7578
88.8942 0 1
89.0101 0 1
89.126 0 1
89.2419 0 1
89.3577 0 1
89.4734 0 1
89.5891 0 1
89.7047 0 1
89.8203 0 1
89.9358 0 1
92.3269 0 1
92.4424 0 1
92.558 0 1
92.6736 0 1
92.7893 0 1
92.905 0 1
93.0208 0 1
93.1366 0 1
93.2525 0 1
93.3685 0 1
93.4845 0 1
93.6005 7662 87.5329
93.7167 7691 87.6983
93.8328 7763 88.1079
93.949 7564 86.9713
94.0653 7222 84.9824
94.1816 6755 82.1888
94.2979 6373 79.8311
94.4143 6507 80.666
94.5307 6658 81.5966
94.6472 7016 83.7616
94.7637 7437 86.238
94.8803 7646 87.4414
94.9969 8016 89.5321
95.1135 8145 90.2497
95.2302 8360 91.433
95.3469 8490 92.1412
95.4637 8468 92.0217
95.5805 8222 90.6752
95.6973 8225 90.6918
95.8142 8143 90.2386
95.9311 7905 88.9101
96.048 7679 87.6299
96.1649 7297 85.4225
96.2819 7252 85.1587
96.3989 7456 86.3481
96.516 7675 87.6071
96.633 7995 89.4148
96.7501 8405 91.6788
96.8673 8507 92.2334
96.9844 8412 91.717
97.1016 8357 91.4166
97.2188 8352 91.3893
97.336 7994 89.4092
97.4532 7632 87.3613
97.5704 6954 83.3906
97.6877 6416 80.0999
97.805 6184 78.6384
97.9223 6341 79.6304
98.0396 6401 80.0062
98.1569 6922 83.1986
98.2743 7355 85.7613
98.3916 7525 86.7468
98.509 8033 89.627
98.6264 8078 89.8777
98.7438 8373 91.5041
98.8612 8269 90.934
98.9786 8427 91.7987
99.096 8242 90.7855
99.2134 8205 90.5815
99.3308 8032 89.6214
99.4482 7857 88.6397
99.5656 7635 87.3785
99.6831 7092 84.214
99.8005 7012 83.7377
99.9179 7330 85.6154
100.035 7546 86.8677
100.153 7869 88.7074
100.27 7968 89.2637
100.388 8188 90.4876
100.505 8177 90.4268
100.622 8170 90.3881
100.74 8185 90.471
100.857 8178 90.4323
100.975 7786 88.2383
101.092 7432 86.209
101.209 6786 82.3772
101.327 6214 78.8289
101.444 5835 76.3872
101.561 5885 76.7138
101.679 6107 78.1473
101.796 6652 81.5598
101.913 7034 83.8689
102.03 7331 85.6213
102.148 7577 87.046
102.265 7492 86.5563
102.382 8025 89.5824
102.499 7821 88.4364
102.616 7893 88.8426
102.733 7835 88.5155
102.851 7818 88.4195
102.968 7670 87.5785
103.085 7450 86.3134
103.202 7344 85.6971
103.319 7073 84.1011
103.436 6820 82.5833
103.552 6680 81.7313
103.669 6927 83.2286
103.786 7113 84.3386
103.903 7296 85.4166
104.02 7627 87.3327
104.137 7722 87.8749
104.253 7869 88.7074
104.37 7531 86.7813
104.487 7140 84.4985
104.603 7175 84.7054
104.72 6668 81.6578
104.836 6196 78.7147
104.953 5668 75.2861
105.069 5259 72.519
105.186 5009 70.7743
105.302 4638 68.1029
105.418 4466 66.8281
105.535 4353 65.9773
105.651 4178 64.6375
105.767 4186 64.6993
105.883 3766 61.3677
105.999 3532 59.4306
106.115 0 1
106.231 0 1
106.347 0 1
106.463 0 1
106.579 0 1
106.694 0 1
106.81 0 1
106.926 0 1
107.041 0 1
107.157 0 1
109.576 0 1
109.692 0 1
109.807 0 1
109.923 0 1
110.039 0 1
110.155 0 1
110.27 0 1
110.386 0 1
110.502 0 1
110.618 5145 71.7287
110.735 6004 77.4855
110.851 6803 82.4803
110.967 7193 84.8116
111.083 7779 88.1986
111.199 8078 89.8777
111.316 8276 90.9725
111.432 8704 93.2952
111.549 8606 92.7685
111.665 8628 92.887
111.782 8474 92.0543
111.898 8102 90.0111
112.015 7989 89.3812
112.132 7811 88.3799
112.248 7721 87.8692
112.365 7701 87.7553
112.482 7809 88.3685
112.599 8625 92.8709
112.716 8504 92.2171
112.832 8651 93.0108
112.949 8909 94.3875
113.066 8875 94.2072
113.183 8669 93.1075
113.3 8665 93.086
113.417 8403 91.6679
113.534 7801 88.3233
113.652 7310 85.4985
113.769 6775 82.3104
113.886 6434 80.2122
114.003 6250 79.0569
114.12 6615 81.3327
114.238 7014 83.7496
114.355 7468 86.4176
114.472 7414 86.1046
114.589 8126 90.1443
114.707 8114 90.0777
114.824 8440 91.8695
114.942 8420 91.7606
115.059 8426 91.7932
115.176 8348 91.3674
115.294 8339 91.3181
115.411 8112 90.0666
115.529 8069 89.8276
115.646 7711 87.8123
115.764 7285 85.3522
115.881 7295 85.4108
115.999 7221 84.9765
116.116 7512 86.6718
116.234 7801 88.3233
116.351 7959 89.2132
116.469 8012 89.5098
116.586 8141 90.2275
116.704 8054 89.7441
116.821 8006 89.4763
116.939 7925 89.0225
117.056 7614 87.2582
117.174 7185 84.7644
117.291 6695 81.823
117.409 6126 78.2688
117.526 6004 77.4855
117.644 5777 76.0066
117.761 6002 77.4726
117.879 6406 80.0375
117.996 6632 81.4371
118.114 6983 83.5643
118.231 7197 84.8351
118.349 7160 84.6168
118.466 7458 86.3597
118.584 7402 86.0349
118.701 7590 87.1206
118.819 7306 85.4751
118.936 7514 86.6833
119.053 7375 85.8778
119.171 7034 83.8689
119.288 6800 82.4621
119.405 6776 82.3165
119.523 6573 81.074
119.64 6620 81.3634
119.757 6731 82.0427
119.875 6962 83.4386
119.992 7287 85.3639
120.109 7391 85.9709
120.226 7361 85.7963
120.343 7387 85.9477
120.46 7510 86.6603
120.578 7543 86.8504
120.695 7268 85.2526
120.812 6945 83.3367
120.929 6483 80.5171
121.046 6151 78.4283
121.163 5720 75.6307
121.279 5348 73.13
121.396 5360 73.212
121.513 5416 73.5935
121.63 5455 73.858
121.747 5618 74.9533
121.863 5703 75.5182
121.98 5792 76.1052
122.097 5634 75.06
122.213 5498 74.1485
122.33 5535 74.3976
122.446 5344 73.1027
122.563 4994 70.6682
122.679 4805 69.3181
122.795 4356 66
122.912 4108 64.0937
123.028 3823 61.8304
123.144 3425 58.5235
123.26 3262 57.1139
123.377 0 1
123.493 0 1
123.609 0 1
123.725 0 1
123.84 0 1
123.956 0 1
124.072 0 1
124.188 0 1
124.303 0 1
124.419 0 1
126.852 0 1
126.968 0 1
127.083 0 1
127.199 0 1
127.315 0 1
127.431 0 1
127.547 0 1
127.663 0 1
127.779 0 1
127.895 0 1
128.011 0 1
128.127 0 1
128.243 0 1
128.359 6828 82.6317
128.476 7042 83.9166
128.592 7371 85.8545
128.708 7559 86.9425
128.825 7684 87.6584
128.941 7786 88.2383
129.058 7777 88.1873
129.174 7999 89.4371
129.291 7972 89.2861
129.408 7923 89.0112
129.524 7770 88.1476
129.641 7386 85.9418
129.758 7035 83.8749
129.875 6704 81.878
129.992 6430 80.1873
130.108 6184 78.6384
130.225 6326 79.5362
130.342 6419 80.1187
130.459 6700 81.8535
130.576 7161 84.6227
130.693 7182 84.7467
130.81 7319 85.5512
130.928 7475 86.4581
131.045 7573 87.023
131.162 7741 87.983
131.279 7838 88.5325
131.396 7755 88.0625
131.513 7692 87.704
131.631 7629 87.3441
131.748 7334 85.6388
131.865 7191 84.7998
131.983 7201 84.8587
132.1 7239 85.0823
132.217 7564 86.9713
132.335 7607 87.2181
132.452 7849 88.5946
132.57 7931 89.0562
132.687 7653 87.4814
132.804 8161 90.3383
132.922 7977 89.3141
133.039 8031 89.6158
133.157 7721 87.8692
133.274 7372 85.8604
133.392 7107 84.303
133.509 6470 80.4363
133.627 6145 78.3901
133.744 6021 77.5951
133.862 6239 78.9873
133.979 6603 81.2588
134.097 6803 82.4803
134.214 6997 83.6481
134.332 7062 84.0357
134.449 7363 85.8079
134.567 7440 86.2554
134.684 7695 87.7211
134.802 7660 87.5214
134.919 7689 87.6869
135.037 7618 87.2812
135.154 7370 85.8487
135.272 7308 85.4868
135.389 7326 85.5921
135.507 7125 84.4097
135.624 7263 85.2232
135.742 7208 84.8999
135.859 7457 86.3539
135.977 7685 87.6641
136.094 7643 87.4243
136.211 7719 87.8578
136.329 7833 88.5042
136.446 7859 88.651
136.564 7769 88.1419
136.681 7622 87.3041
136.798 7614 87.2582
136.915 7460 86.3713
137.033 7020 83.7854
137.15 6624 81.388
137.267 6318 79.4858
137.384 5920 76.9415
137.502 5752 75.8419
137.619 6054 77.8075
137.736 6435 80.2185
137.853 6467 80.4177
137.97 6811 82.5288
138.087 6635 81.4555
138.204 7101 84.2674
138.321 7137 84.4808
138.438 7514 86.6833
138.555 7673 87.5957
138.672 7427 86.18
138.788 7301 85.4459
138.905 6718 81.9634
139.022 6558 80.9815
139.139 6307 79.4166
139.255 5952 77.1492
139.372 5849 76.4788
139.488 5585 74.7329
139.605 5701 75.505
139.721 5648 75.1532
139.838 5393 73.437
139.954 5138 71.6798
140.071 4684 68.4398
140.187 4555 67.4907
140.303 4166 64.5446
140.419 3974 63.0397
140.535 3642 60.349
140.652 3228 56.8155
140.768 0 1
140.884 0 1
141 0 1
141.115 0 1
141.231 0 1
141.347 0 1
141.463 0 1
141.578 0 1
141.694 0 1
144.104 0 1
144.219 0 1
144.335 0 1
144.45 0 1
144.566 0 1
144.682 0 1
144.798 0 1
144.914 0 1
145.03 0 1
145.146 6103 78.1217
145.262 6144 78.3837
145.378 6267 79.1644
145.494 5931 77.013
145.61 5759 75.8881
145.726 5384 73.3757
145.842 5260 72.5259
145.959 5006 70.7531
146.075 4892 69.9428
146.192 5127 71.6031
146.308 5214 72.208
146.425 5288 72.7186
146.541 5639 75.0933
146.658 5706 75.5381
146.774 5719 75.6241
146.891 5918 76.9285
147.008 5980 77.3305
147.125 6157 78.4666
147.241 6075 77.9423
147.358 6118 78.2176
147.475 6142 78.3709
147.592 5912 76.8895
147.709 5741 75.7694
147.826 5755 75.8617
147.943 5672 75.3127
148.06 5767 75.9408
148.177 5980 77.3305
148.294 6220 78.867
148.411 6381 79.8812
148.528 6384 79.8999
148.645 6422 80.1374
148.762 6305 79.404
148.88 6370 79.8123
148.997 6170 78.5493
149.114 6433 80.206
149.231 5931 77.013
149.349 5766 75.9342
149.466 5283 72.6842
149.583 5280 72.6636
149.701 4965 70.4628
149.818 4977 70.5479
149.935 5067 71.1829
150.053 5194 72.0694
150.17 5387 73.3962
150.287 5520 74.2967
150.405 5737 75.743
150.522 5595 74.7997
150.64 5746 75.8024
150.757 6031 77.6595
150.875 6198 78.7274
150.992 6088 78.0256
151.11 5898 76.7984
151.227 5821 76.2955
151.344 5739 75.7562
151.462 5539 74.4245
151.579 5569 74.6257
151.697 5523 74.3169
151.814 5810 76.2234
151.932 6012 77.5371
152.049 6121 78.2368
152.167 6241 79
152.284 6222 78.8797
152.402 6236 78.9683
152.519 6167 78.5302
152.636 6189 78.6702
152.754 6005 77.4919
152.871 5848 76.4722
152.989 5673 75.3193
153.106 5422 73.6342
153.223 5152 71.7774
153.341 5027 70.9013
153.458 4816 69.3974
153.575 4810 69.3542
153.693 4926 70.1855
153.81 5022 70.8661
153.927 5297 72.7805
154.044 5388 73.403
154.162 5595 74.7997
154.279 5551 74.505
154.396 5743 75.7826
154.513 5731 75.7034
154.63 5837 76.4003
154.747 5854 76.5114
154.864 5714 75.591
154.981 5674 75.326
155.098 5579 74.6927
155.215 5360 73.212
155.332 5277 72.643
155.449 5468 73.9459
155.566 5627 75.0133
155.683 5828 76.3413
155.8 5679 75.3591
155.917 5752 75.8419
156.033 5565 74.5989
156.15 0 1
156.267 0 1
156.383 0 1
156.5 0 1
156.617 0 1
156.733 0 1
156.85 0 1
156.966 0 1
157.082 0 1
157.199 0 1
157.315 0 1
157.431 0 1
157.547 0 1
157.664 0 1
157.78 0 1
157.896 0 1
158.012 0 1
158.128 0 1
158.244 0 1
158.359 0 1
158.475 0 1
158.591 0 1
158.706 0 1
