
6.15755 0 1
6.2731 0 1
6.3887 0 1
6.50437 0 1
6.62009 0 1
6.73587 0 1
6.8517 0 1
6.96759 0 1
7.08353 0 1
7.19952 0 1
7.31557 0 1
7.43166 0 1
7.54781 0 1
7.664 0 1
7.78024 0 1
7.89653 0 1
8.01286 0 1
8.12924 0 1
8.24567 0 1
8.36213 0 1
8.47864 0 1
8.59519 0 1
8.71178 0 1
8.82841 0 1
8.94508 0 1
9.06179 0 1
9.17853 0 1
9.29531 0 1
9.41212 0 1
9.52897 0 1
9.64584 0 1
9.76276 0 1
9.8797 0 1
9.99667 0 1
10.1137 0 1
10.2307 0 1
10.3478 0 1
10.4648 0 1
10.5819 0 1
10.6991 0 1
10.8162 0 1
10.9334 0 1
11.0506 0 1
11.1678 0 1
11.285 0 1
11.4023 0 1
11.5196 0 1
11.6369 0 1
11.7542 0 1
11.8715 0 1
11.9888 0 1
12.1062 0 1
12.2235 0 1
12.3409 0 1
12.4582 0 1
12.5756 0 1
12.693 0 1
12.8104 0 1
12.9278 0 1
13.0452 0 1
13.1626 0 1
13.28 0 1
13.3974 0 1
13.5149 0 1
13.6323 0 1
13.7497 0 1
13.8671 0 1
13.9845 0 1
14.1019 0 1
14.2193 0 1
14.3367 0 1
14.4541 0 1
14.5714 0 1
14.6888 0 1
14.8062 0 1
14.9235 0 1
15.0408 1707 41.3159
15.1581 1617 40.2119
15.2755 1651 40.6325
15.3927 1659 40.7308
15.51 1578 39.724
15.6273 1502 38.7556
15.7445 1546 39.3192
15.8617 1592 39.8999
15.9789 1546 39.3192
16.0961 1542 39.2683
16.2132 1589 39.8623
16.3304 1530 39.1152
16.4475 1504 38.7814
16.5646 1491 38.6135
16.6816 1525 39.0512
16.7986 1480 38.4708
16.9156 1537 39.2046
17.0326 1470 38.3406
17.1496 1512 38.8844
17.2665 1504 38.7814
17.3833 1444 38
17.5002 1431 37.8286
17.617 1436 37.8946
17.7338 1399 37.4032
17.8505 1396 37.3631
17.9672 1478 38.4448
18.0839 1513 38.8973
18.2005 1589 39.8623
18.3171 1611 40.1373
18.4337 1655 40.6817
18.5502 1675 40.9268
18.6666 1667 40.8289
18.7831 1676 40.939
18.8994 1615 40.1871
19.0158 1580 39.7492
19.1321 1541 39.2556
19.2483 1532 39.1408
19.3645 1466 38.2884
19.4806 1496 38.6782
19.5967 1414 37.6032
19.7128 1229 35.0571
19.8288 793 28.1603
19.9447 274 16.5529
20.0606 0 1
20.1764 0 1
20.2922 0 1
20.4079 0 1
20.5236 0 1
20.6392 0 1
20.7548 0 1
20.8702 0 1
23.3078 0 1
23.4233 0 1
23.539 0 1
23.6547 0 1
23.7704 0 1
23.8862 0 1
24.0021 0 1
24.118 0 1
24.234 0 1
24.35 0 1
24.4661 1504 38.7814
24.5822 1518 38.9615
24.6984 1521 39
24.8146 1523 39.0256
24.9309 1505 38.7943
25.0472 1588 39.8497
25.1636 1446 38.0263
25.28 1598 39.975
25.3965 1525 39.0512
25.513 1558 39.4715
25.6296 1658 40.7185
25.7462 1552 39.3954
25.8628 1578 39.724
25.9795 1589 39.8623
26.0962 1600 40
26.213 1682 41.0122
26.3298 1587 39.8372
26.4466 1587 39.8372
26.5635 1471 38.3536
26.6804 1335 36.5377
26.7973 1251 35.3695
26.9143 1380 37.1484
27.0313 1434 37.8682
27.1483 1462 38.2361
27.2653 1576 39.6989
27.3824 1558 39.4715
27.4996 1621 40.2616
27.6167 1633 40.4104
27.7339 1505 38.7943
27.8511 1554 39.4208
27.9683 1504 38.7814
28.0855 1565 39.5601
28.2028 1555 39.4335
28.3201 1507 38.8201
28.4374 1530 39.1152
28.5547 1532 39.1408
28.6721 1470 38.3406
28.7894 1456 38.1576
28.9068 1460 38.2099
29.0242 1492 38.6264
29.1416 1521 39
29.259 1484 38.5227
29.3764 1473 38.3797
29.4939 1486 38.5487
29.6113 1496 38.6782
29.7288 1536 39.1918
29.8463 1469 38.3275
29.9638 1404 37.47
30.0812 1303 36.0971
30.1987 1176 34.2929
30.3162 1221 34.9428
30.4337 1269 35.623
30.5512 1403 37.4566
30.6687 1379 37.1349
30.7862 1465 38.2753
30.9037 1467 38.3014
31.0212 1650 40.6202
31.1387 1562 39.5221
31.2562 1505 38.7943
31.3737 1528 39.0896
31.4912 1489 38.5876
31.6087 1465 38.2753
31.7262 1464 38.2623
31.8436 1437 37.9078
31.9611 1487 38.5616
32.0785 1468 38.3145
32.1959 1480 38.4708
32.3134 1460 38.2099
32.4308 1445 38.0132
32.5482 1482 38.4968
32.6655 1454 38.1314
32.7829 1535 39.1791
32.9002 1420 37.6829
33.0176 1468 38.3145
33.1349 1509 38.8458
33.2522 1475 38.4057
33.3694 1515 38.923
33.4867 1433 37.855
33.6039 1472 38.3667
33.7211 1310 36.1939
33.8383 1210 34.7851
33.9554 1156 34
34.0725 1205 34.7131
34.1896 1386 37.229
34.3067 1360 36.8782
34.4237 1363 36.9188
34.5407 1468 38.3145
34.6577 1434 37.8682
34.7746 1502 38.7556
34.8915 1490 38.6005
35.0084 1537 39.2046
35.1252 1467 38.3014
35.242 1459 38.1969
35.3587 1467 38.3014
35.4755 1424 37.7359
35.5921 1476 38.4187
35.7088 1494 38.6523
35.8254 1426 37.7624
35.9419 1378 37.1214
36.0584 1382 37.1753
36.1749 1429 37.8021
36.2913 1425 37.7492
36.4077 1427 37.7757
36.524 1356 36.8239
36.6403 1386 37.229
36.7565 1418 37.6563
36.8727 1395 37.3497
36.9889 1415 37.6165
37.1049 1392 37.3095
37.221 0 1
37.3369 0 1
37.4529 0 1
37.5687 0 1
37.6845 0 1
37.8003 0 1
37.916 0 1
38.0316 0 1
38.1472 0 1
40.5851 0 1
40.7008 0 1
40.8164 0 1
40.9322 0 1
41.048 0 1
41.1639 0 1
41.2798 0 1
41.3958 0 1
41.5118 0 1
41.6279 0 1
41.744 1047 32.3574
41.8602 1086 32.9545
41.9765 1176 34.2929
42.0928 1112 33.3467
42.2091 1127 33.5708
42.3255 1209 34.7707
42.4419 1077 32.8177
42.5584 970 31.1448
42.675 914 30.2324
42.7915 896 29.9333
42.9081 910 30.1662
43.0248 985 31.3847
43.1415 1037 32.2025
43.2582 1023 31.9844
43.375 1087 32.9697
43.4918 1086 32.9545
43.6087 1101 33.1813
43.7256 1077 32.8177
43.8425 1079 32.8481
43.9595 1065 32.6343
44.0765 1014 31.8434
44.1935 960 30.9839
44.3106 945 30.7409
44.4277 932 30.5287
44.5448 935 30.5778
44.6619 869 29.4788
44.7791 940 30.6594
44.8963 890 29.8329
45.0136 842 29.0172
45.1308 897 29.95
45.2481 847 29.1033
45.3654 846 29.0861
45.4827 805 28.3725
45.6001 870 29.4958
45.7174 811 28.4781
45.8348 812 28.4956
45.9522 833 28.8617
46.0697 773 27.8029
46.1871 670 25.8844
46.3046 637 25.2389
46.422 655 25.593
46.5395 720 26.8328
46.657 698 26.4197
46.7745 740 27.2029
46.892 738 27.1662
47.0096 824 28.7054
47.1271 778 27.8927
47.2446 796 28.2135
47.3622 757 27.5136
47.4797 737 27.1477
47.5973 685 26.1725
47.7149 703 26.5141
47.8324 752 27.4226
47.95 682 26.1151
48.0675 678 26.0384
48.1851 624 24.98
48.3027 594 24.3721
48.4202 627 25.04
48.5378 612 24.7386
48.6554 605 24.5967
48.7729 595 24.3926
48.8904 585 24.1868
49.008 591 24.3105
49.1255 632 25.1396
49.243 629 25.0799
49.3605 651 25.5147
49.478 565 23.7697
49.5955 541 23.2594
49.713 511 22.6053
49.8304 515 22.6936
49.9479 517 22.7376
50.0653 612 24.7386
50.1827 616 24.8193
50.3001 657 25.632
50.4175 642 25.3377
50.5348 730 27.0185
50.6521 765 27.6586
50.7694 803 28.3373
50.8867 794 28.178
51.004 773 27.8029
51.1212 844 29.0517
51.2384 822 28.6705
51.3556 851 29.1719
51.4727 817 28.5832
51.5899 870 29.4958
51.707 835 28.8964
51.824 862 29.3598
51.9411 869 29.4788
52.0581 864 29.3939
52.175 849 29.1376
52.2919 866 29.4279
52.4088 903 30.05
52.5257 957 30.9354
52.6425 944 30.7246
52.7593 996 31.5595
52.876 1092 33.0454
52.9927 1068 32.6803
53.1094 966 31.0805
53.226 925 30.4138
53.3426 882 29.6985
53.4591 805 28.3725
53.5756 910 30.1662
53.692 1011 31.7962
53.8084 1085 32.9393
53.9248 1097 33.121
54.0411 1149 33.8969
54.1573 1218 34.8999
54.2735 0 1
54.3896 0 1
54.5057 0 1
54.6217 0 1
54.7377 0 1
54.8537 0 1
54.9695 0 1
55.0853 0 1
55.2011 0 1
55.3168 0 1
55.4324 0 1
57.824 0 1
57.9396 0 1
58.0553 0 1
58.1711 0 1
58.2869 0 1
58.4028 0 1
58.5187 0 1
58.6347 0 1
58.7508 0 1
58.8669 0 1
58.983 1252 35.3836
59.0992 1316 36.2767
59.2155 1332 36.4966
59.3318 1377 37.108
59.4482 1441 37.9605
59.5646 1430 37.8153
59.681 1409 37.5366
59.7975 1405 37.4833
59.9141 1421 37.6962
60.0306 1378 37.1214
60.1473 1284 35.8329
60.2639 1301 36.0694
60.3807 1238 35.1852
60.4974 1177 34.3074
60.6142 1200 34.641
60.731 1243 35.2562
60.8479 1168 34.176
60.9648 1193 34.5398
61.0818 1277 35.7351
61.1987 1218 34.8999
61.3158 1277 35.7351
61.4328 1290 35.9166
61.5499 1194 34.5543
61.667 1181 34.3657
61.7841 1008 31.749
61.9013 951 30.8383
62.0185 978 31.273
62.1357 1046 32.3419
62.253 1058 32.5269
62.3702 1164 34.1174
62.4875 1208 34.7563
62.6049 1283 35.819
62.7222 1383 37.1887
62.8396 1313 36.2353
62.9569 1368 36.9865
63.0743 1363 36.9188
63.1918 1448 38.0526
63.3092 1349 36.7287
63.4267 1396 37.3631
63.5441 1384 37.2022
63.6616 1324 36.3868
63.7791 1340 36.606
63.8966 1275 35.7071
64.0142 1354 36.7967
64.1317 1269 35.623
64.2492 1233 35.1141
64.3668 1321 36.3456
64.4843 1276 35.7211
64.6019 1353 36.7831
64.7195 1431 37.8286
64.837 1362 36.9053
64.9546 1377 37.108
65.0722 1325 36.4005
65.1898 1300 36.0555
65.3074 1134 33.6749
65.4249 1080 32.8634
65.5425 983 31.3528
65.6601 999 31.607
65.7777 1114 33.3766
65.8952 1182 34.3802
66.0128 1296 36
66.1304 1292 35.9444
66.2479 1360 36.8782
66.3655 1381 37.1618
66.483 1402 37.4433
66.6005 1447 38.0395
66.718 1360 36.8782
66.8355 1491 38.6135
66.953 1389 37.2693
67.0705 1403 37.4566
67.1879 1376 37.0945
67.3054 1338 36.5787
67.4228 1287 35.8748
67.5402 1238 35.1852
67.6576 1217 34.8855
67.7749 1171 34.2199
67.8923 1225 35
68.0096 1219 34.9142
68.1269 1225 35
68.2442 1161 34.0735
68.3614 1246 35.2987
68.4787 1235 35.1426
68.5958 1157 34.0147
68.713 1204 34.6987
68.8302 1163 34.1028
68.9473 1031 32.1092
69.0643 977 31.257
69.1814 943 30.7083
69.2984 844 29.0517
69.4154 965 31.0644
69.5323 1128 33.5857
69.6492 1119 33.4515
69.7661 1247 35.3129
69.8829 1300 36.0555
69.9997 1336 36.5513
70.1165 1346 36.6879
70.2332 1422 37.7094
70.3499 1412 37.5766
70.4665 1383 37.1887
70.5831 1346 36.6879
70.6996 1303 36.0971
70.8161 1281 35.7911
70.9326 1244 35.2704
71.049 1239 35.1994
71.1653 1107 33.2716
71.2817 1080 32.8634
71.3979 1096 33.1059
71.5141 1089 33
71.6303 1167 34.1614
71.7464 1062 32.5883
71.8624 0 1
71.9784 0 1
72.0944 0 1
72.2102 0 1
72.3261 0 1
72.4418 0 1
72.5575 0 1
72.6732 0 1
75.1054 0 1
75.2209 0 1
75.3365 0 1
75.4521 0 1
75.5678 0 1
75.6835 0 1
75.7993 0 1
75.9151 0 1
76.031 0 1
76.147 1173 34.2491
76.263 1204 34.6987
76.3791 1294 35.9722
76.4952 1176 34.2929
76.6113 1139 33.7491
76.7276 1167 34.1614
76.8438 1167 34.1614
76.9601 1208 34.7563
77.0765 1170 34.2053
77.1929 1199 34.6266
77.3093 1195 34.5688
77.4258 1306 36.1386
77.5423 1298 36.0278
77.6589 1257 35.4542
77.7755 1173 34.2491
77.8921 1154 33.9706
78.0088 989 31.4484
78.1256 889 29.8161
78.2423 781 27.9464
78.3591 807 28.4077
78.4759 866 29.4279
78.5928 1028 32.0624
78.7097 1141 33.7787
78.8266 1124 33.5261
78.9436 1322 36.3593
79.0606 1383 37.1887
79.1776 1274 35.6931
79.2946 1278 35.7491
79.4117 1237 35.171
79.5288 1291 35.9305
79.6459 1311 36.2077
79.7631 1260 35.4965
79.8802 1156 34
79.9974 1117 33.4215
80.1147 1062 32.5883
80.2319 1081 32.8786
80.3491 1041 32.2645
80.4664 996 31.5595
80.5837 1037 32.2025
80.701 1021 31.9531
80.8183 1059 32.5423
80.9357 1121 33.4813
81.053 1098 33.1361
81.1704 1118 33.4365
81.2877 1062 32.5883
81.4051 1067 32.665
81.5225 1000 31.6228
81.6399 937 30.6105
81.7573 849 29.1376
81.8747 788 28.0713
81.9922 740 27.2029
82.1096 819 28.6182
82.227 877 29.6142
82.3444 997 31.5753
82.4619 1089 33
82.5793 1121 33.4813
82.6967 1083 32.909
82.8142 1103 33.2114
82.9316 1105 33.2415
83.049 1082 32.8938
83.1664 1150 33.9116
83.2838 1074 32.7719
83.4012 1056 32.4962
83.5186 947 30.7734
83.636 907 30.1164
83.7534 910 30.1662
83.8708 903 30.05
83.9881 896 29.9333
84.1055 889 29.8161
84.2228 916 30.2655
84.3401 935 30.5778
84.4575 949 30.8058
84.5747 942 30.692
84.692 924 30.3974
84.8093 982 31.3369
84.9265 919 30.315
85.0437 968 31.1127
85.1609 869 29.4788
85.2781 778 27.8927
85.3952 705 26.5518
85.5123 680 26.0768
85.6294 779 27.9106
85.7465 841 29
85.8636 942 30.692
85.9806 1057 32.5115
86.0976 1104 33.2265
86.2145 1140 33.7639
86.3315 1308 36.1663
86.4484 1182 34.3802
86.5652 1261 35.5106
86.682 1269 35.623
86.7988 1282 35.805
86.9156 1172 34.2345
87.0323 1201 34.6554
87.149 1094 33.0757
87.2657 1117 33.4215
87.3823 1009 31.7648
87.4988 1078 32.8329
87.6154 1093 33.0606
87.7318 1122 33.4963
87.8483 1162 34.0881
87.9647 1162 34.0881
88.081 1245 35.2846
88.1973 1324 36.3868
88.3136 1248 35.327
88.4298 1182 34.3802
88.546 1165 34.1321
88.6621 1097 33.121
88.7781 935 30.5778
88.8942 0 1
89.0101 0 1
89.126 0 1
89.2419 0 1
89.3577 0 1
89.4734 0 1
89.5891 0 1
89.7047 0 1
89.8203 0 1
89.9358 0 1
92.3269 0 1
92.4424 0 1
92.558 0 1
92.6736 0 1
92.7893 0 1
92.905 0 1
93.0208 0 1
93.1366 0 1
93.2525 0 1
93.3685 0 1
93.4845 0 1
93.6005 1225 35
93.7167 1253 35.3977
93.8328 1251 35.3695
93.949 1230 35.0714
94.0653 1119 33.4515
94.1816 1049 32.3883
94.2979 1028 32.0624
94.4143 939 30.6431
94.5307 888 29.7993
94.6472 895 29.9166
94.7637 1002 31.6544
94.8803 1033 32.1403
94.9969 1155 33.9853
95.1135 1237 35.171
95.2302 1315 36.2629
95.3469 1322 36.3593
95.4637 1355 36.8103
95.5805 1363 36.9188
95.6973 1364 36.9324
95.8142 1413 37.5899
95.9311 1378 37.1214
96.048 1348 36.7151
96.1649 1286 35.8608
96.2819 1348 36.7151
96.3989 1254 35.4119
96.516 1136 33.7046
96.633 1115 33.3916
96.7501 1213 34.8281
96.8673 1170 34.2053
96.9844 1162 34.0881
97.1016 1226 35.0143
97.2188 1274 35.6931
97.336 1248 35.327
97.4532 1361 36.8917
97.5704 1301 36.0694
97.6877 1217 34.8855
97.805 1145 33.8378
97.9223 1025 32.0156
98.0396 936 30.5941
98.1569 923 30.3809
98.2743 865 29.4109
98.3916 996 31.5595
98.509 1015 31.8591
98.6264 1175 34.2783
98.7438 1253 35.3977
98.8612 1303 36.0971
98.9786 1412 37.5766
99.096 1402 37.4433
99.2134 1432 37.8418
99.3308 1433 37.855
99.4482 1425 37.7492
99.5656 1336 36.5513
99.6831 1371 37.027
99.8005 1252 35.3836
99.9179 1299 36.0416
100.035 1245 35.2846
100.153 1239 35.1994
100.27 1175 34.2783
100.388 1167 34.1614
100.505 1226 35.0143
100.622 1178 34.322
100.74 1268 35.609
100.857 1327 36.428
100.975 1253 35.3977
101.092 1345 36.6742
101.209 1242 35.242
101.327 1228 35.0428
101.444 1078 32.8329
101.561 1007 31.7333
101.679 912 30.1993
101.796 884 29.7321
101.913 958 30.9516
102.03 1076 32.8024
102.148 1187 34.4529
102.265 1349 36.7287
102.382 1369 37
102.499 1423 37.7227
102.616 1531 39.128
102.733 1482 38.4968
102.851 1493 38.6394
102.968 1487 38.5616
103.085 1461 38.223
103.202 1425 37.7492
103.319 1330 36.4692
103.436 1366 36.9594
103.552 1343 36.647
103.669 1269 35.623
103.786 1238 35.1852
103.903 1273 35.6791
104.02 1246 35.2987
104.137 1297 36.0139
104.253 1389 37.2693
104.37 1411 37.5633
104.487 1485 38.5357
104.603 1468 38.3145
104.72 1348 36.7151
104.836 1303 36.0971
104.953 1196 34.5832
105.069 1058 32.5269
105.186 1030 32.0936
105.302 1045 32.3265
105.418 1112 33.3467
105.535 1247 35.3129
105.651 1339 36.5923
105.767 1475 38.4057
105.883 1594 39.9249
105.999 1605 40.0625
106.115 0 1
106.231 0 1
106.347 0 1
106.463 0 1
106.579 0 1
106.694 0 1
106.81 0 1
106.926 0 1
107.041 0 1
107.157 0 1
109.576 0 1
109.692 0 1
109.807 0 1
109.923 0 1
110.039 0 1
110.155 0 1
110.27 0 1
110.386 0 1
110.502 0 1
110.618 1193 34.5398
110.735 1357 36.8375
110.851 1435 37.8814
110.967 1435 37.8814
111.083 1466 38.2884
111.199 1546 39.3192
111.316 1595 39.9375
111.432 1543 39.281
111.549 1592 39.8999
111.665 1514 38.9102
111.782 1465 38.2753
111.898 1415 37.6165
112.015 1341 36.6197
112.132 1314 36.2491
112.248 1333 36.5103
112.365 1276 35.7211
112.482 1167 34.1614
112.599 1247 35.3129
112.716 1348 36.7151
112.832 1390 37.2827
112.949 1296 36
113.066 1425 37.7492
113.183 1291 35.9305
113.3 1272 35.6651
113.417 1194 34.5543
113.534 1120 33.4664
113.652 1024 32
113.769 931 30.5123
113.886 939 30.6431
114.003 951 30.8383
114.12 1124 33.5261
114.238 1224 34.9857
114.355 1326 36.4143
114.472 1328 36.4417
114.589 1396 37.3631
114.707 1405 37.4833
114.824 1462 38.2361
114.942 1451 38.092
115.059 1483 38.5097
115.176 1464 38.2623
115.294 1455 38.1445
115.411 1397 37.3765
115.529 1404 37.47
115.646 1342 36.6333
115.764 1211 34.7994
115.881 1270 35.6371
115.999 1195 34.5688
116.116 1275 35.7071
116.234 1285 35.8469
116.351 1305 36.1248
116.469 1360 36.8782
116.586 1315 36.2629
116.704 1389 37.2693
116.821 1357 36.8375
116.939 1229 35.0571
117.056 1177 34.3074
117.174 1108 33.2866
117.291 1080 32.8634
117.409 970 31.1448
117.526 1015 31.8591
117.644 1206 34.7275
117.761 1347 36.7015
117.879 1405 37.4833
117.996 1381 37.1618
118.114 1500 38.7298
118.231 1523 39.0256
118.349 1522 39.0128
118.466 1513 38.8973
118.584 1508 38.833
118.701 1544 39.2938
118.819 1505 38.7943
118.936 1455 38.1445
119.053 1464 38.2623
119.171 1407 37.51
119.288 1397 37.3765
119.405 1289 35.9026
119.523 1253 35.3977
119.64 1277 35.7351
119.757 1226 35.0143
119.875 1266 35.5809
119.992 1266 35.5809
120.109 1315 36.2629
120.226 1423 37.7227
120.343 1299 36.0416
120.46 1348 36.7151
120.578 1242 35.242
120.695 1169 34.1906
120.812 1049 32.3883
120.929 1074 32.7719
121.046 1090 33.0151
121.163 1071 32.7261
121.279 1144 33.8231
121.396 1203 34.6843
121.513 1333 36.5103
121.63 1473 38.3797
121.747 1456 38.1576
121.863 1465 38.2753
121.98 1447 38.0395
122.097 1514 38.9102
122.213 1457 38.1707
122.33 1486 38.5487
122.446 1492 38.6264
122.563 1419 37.6696
122.679 1478 38.4448
122.795 1428 37.7889
122.912 1337 36.565
123.028 1347 36.7015
123.144 1302 36.0832
123.26 1207 34.7419
123.377 0 1
123.493 0 1
123.609 0 1
123.725 0 1
123.84 0 1
123.956 0 1
124.072 0 1
124.188 0 1
124.303 0 1
124.419 0 1
126.852 0 1
126.968 0 1
127.083 0 1
127.199 0 1
127.315 0 1
127.431 0 1
127.547 0 1
127.663 0 1
127.779 0 1
127.895 0 1
128.011 0 1
128.127 0 1
128.243 0 1
128.359 1393 37.3229
128.476 1348 36.7151
128.592 1387 37.2424
128.708 1363 36.9188
128.825 1461 38.223
128.941 1473 38.3797
129.058 1469 38.3275
129.174 1481 38.4838
129.291 1463 38.2492
129.408 1499 38.7169
129.524 1299 36.0416
129.641 1331 36.4829
129.758 1285 35.8469
129.875 1210 34.7851
129.992 1260 35.4965
130.108 1137 33.7194
130.225 1202 34.6699
130.342 1384 37.2022
130.459 1460 38.2099
130.576 1534 39.1663
130.693 1539 39.2301
130.81 1620 40.2492
130.928 1603 40.0375
131.045 1626 40.3237
131.162 1632 40.398
131.279 1592 39.8999
131.396 1663 40.7799
131.513 1597 39.9625
131.631 1627 40.3361
131.748 1539 39.2301
131.865 1540 39.2428
131.983 1462 38.2361
132.1 1448 38.0526
132.217 1418 37.6563
132.335 1506 38.8072
132.452 1582 39.7744
132.57 1469 38.3275
132.687 1454 38.1314
132.804 1563 39.5348
132.922 1588 39.8497
133.039 1462 38.2361
133.157 1376 37.0945
133.274 1297 36.0139
133.392 1228 35.0428
133.509 1191 34.5109
133.627 1206 34.7275
133.744 1230 35.0714
133.862 1343 36.647
133.979 1369 37
134.097 1593 39.9124
134.214 1563 39.5348
134.332 1599 39.9875
134.449 1621 40.2616
134.567 1709 41.3401
134.684 1635 40.4351
134.802 1651 40.6325
134.919 1669 40.8534
135.037 1586 39.8246
135.154 1626 40.3237
135.272 1524 39.0384
135.389 1555 39.4335
135.507 1501 38.7427
135.624 1420 37.6829
135.742 1433 37.855
135.859 1494 38.6523
135.977 1521 39
136.094 1580 39.7492
136.211 1565 39.5601
136.329 1539 39.2301
136.446 1541 39.2556
136.564 1504 38.7814
136.681 1404 37.47
136.798 1343 36.647
136.915 1299 36.0416
137.033 1257 35.4542
137.15 1257 35.4542
137.267 1230 35.0714
137.384 1297 36.0139
137.502 1332 36.4966
137.619 1416 37.6298
137.736 1435 37.8814
137.853 1526 39.064
137.97 1490 38.6005
138.087 1648 40.5956
138.204 1600 40
138.321 1702 41.2553
138.438 1599 39.9875
138.555 1638 40.4722
138.672 1669 40.8534
138.788 1638 40.4722
138.905 1514 38.9102
139.022 1468 38.3145
139.139 1446 38.0263
139.255 1382 37.1753
139.372 1456 38.1576
139.488 1462 38.2361
139.605 1550 39.37
139.721 1510 38.8587
139.838 1486 38.5487
139.954 1575 39.6863
140.071 1469 38.3275
140.187 1466 38.2884
140.303 1378 37.1214
140.419 1382 37.1753
140.535 1249 35.3412
140.652 1197 34.5977
140.768 0 1
140.884 0 1
141 0 1
141.115 0 1
141.231 0 1
141.347 0 1
141.463 0 1
141.578 0 1
141.694 0 1
144.104 0 1
144.219 0 1
144.335 0 1
144.45 0 1
144.566 0 1
144.682 0 1
144.798 0 1
144.914 0 1
145.03 0 1
145.146 1073 32.7567
145.262 1177 34.3074
145.378 1117 33.4215
145.494 1036 32.187
145.61 1006 31.7175
145.726 998 31.5911
145.842 1015 31.8591
145.959 954 30.8869
146.075 934 30.5614
146.192 972 31.1769
146.308 1028 32.0624
146.425 1103 33.2114
146.541 1081 32.8786
146.658 1177 34.3074
146.774 1183 34.3948
146.891 1214 34.8425
147.008 1244 35.2704
147.125 1195 34.5688
147.241 1277 35.7351
147.358 1235 35.1426
147.475 1229 35.0571
147.592 1160 34.0588
147.709 1264 35.5528
147.826 1197 34.5977
147.943 1245 35.2846
148.06 1105 33.2415
148.177 1080 32.8634
148.294 1066 32.6497
148.411 1122 33.4963
148.528 1185 34.4238
148.645 1193 34.5398
148.762 1251 35.3695
148.88 1254 35.4119
148.997 1278 35.7491
149.114 1236 35.1568
149.231 1168 34.176
149.349 1115 33.3916
149.466 1068 32.6803
149.583 1039 32.2335
149.701 1050 32.4037
149.818 1062 32.5883
149.935 1049 32.3883
150.053 1047 32.3574
150.17 1108 33.2866
150.287 1122 33.4963
150.405 1174 34.2637
150.522 1269 35.623
150.64 1205 34.7131
150.757 1289 35.9026
150.875 1248 35.327
150.992 1247 35.3129
151.11 1353 36.7831
151.227 1236 35.1568
151.344 1248 35.327
151.462 1264 35.5528
151.579 1227 35.0286
151.697 1119 33.4515
151.814 1148 33.8821
151.932 1104 33.2265
152.049 1073 32.7567
152.167 1248 35.327
152.284 1209 34.7707
152.402 1250 35.3553
152.519 1253 35.3977
152.636 1211 34.7994
152.754 1257 35.4542
152.871 1210 34.7851
152.989 1103 33.2114
153.106 1153 33.9559
153.223 1100 33.1662
153.341 1108 33.2866
153.458 1106 33.2566
153.575 1082 32.8938
153.693 1161 34.0735
153.81 1170 34.2053
153.927 1224 34.9857
154.044 1215 34.8569
154.162 1178 34.322
154.279 1297 36.0139
154.396 1331 36.4829
154.513 1394 37.3363
154.63 1434 37.8682
154.747 1388 37.2559
154.864 1376 37.0945
154.981 1366 36.9594
155.098 1426 37.7624
155.215 1306 36.1386
155.332 1326 36.4143
155.449 1221 34.9428
155.566 1235 35.1426
155.683 1296 36
155.8 1345 36.6742
155.917 1343 36.647
156.033 1359 36.8646
156.15 0 1
156.267 0 1
156.383 0 1
156.5 0 1
156.617 0 1
156.733 0 1
156.85 0 1
156.966 0 1
157.082 0 1
157.199 0 1
157.315 0 1
157.431 0 1
157.547 0 1
157.664 0 1
157.78 0 1
157.896 0 1
158.012 0 1
158.128 0 1
158.244 0 1
158.359 0 1
158.475 0 1
158.591 0 1
158.706 0 1
