
6.15755 0 1
6.2731 0 1
6.3887 0 1
6.50437 0 1
6.62009 0 1
6.73587 0 1
6.8517 0 1
6.96759 0 1
7.08353 0 1
7.19952 0 1
7.31557 0 1
7.43166 0 1
7.54781 0 1
7.664 0 1
7.78024 0 1
7.89653 0 1
8.01286 0 1
8.12924 0 1
8.24567 0 1
8.36213 0 1
8.47864 0 1
8.59519 0 1
8.71178 0 1
8.82841 0 1
8.94508 0 1
9.06179 0 1
9.17853 0 1
9.29531 0 1
9.41212 0 1
9.52897 0 1
9.64584 0 1
9.76276 0 1
9.8797 0 1
9.99667 0 1
10.1137 0 1
10.2307 0 1
10.3478 0 1
10.4648 0 1
10.5819 0 1
10.6991 0 1
10.8162 0 1
10.9334 0 1
11.0506 0 1
11.1678 0 1
11.285 0 1
11.4023 0 1
11.5196 0 1
11.6369 0 1
11.7542 0 1
11.8715 0 1
11.9888 0 1
12.1062 0 1
12.2235 0 1
12.3409 0 1
12.4582 0 1
12.5756 0 1
12.693 0 1
12.8104 0 1
12.9278 0 1
13.0452 0 1
13.1626 0 1
13.28 0 1
13.3974 0 1
13.5149 0 1
13.6323 0 1
13.7497 0 1
13.8671 0 1
13.9845 0 1
14.1019 0 1
14.2193 0 1
14.3367 0 1
14.4541 0 1
14.5714 0 1
14.6888 0 1
14.8062 0 1
14.9235 0 1
15.0408 829 28.7924
15.1581 836 28.9137
15.2755 883 29.7153
15.3927 821 28.6531
15.51 883 29.7153
15.6273 863 29.3769
15.7445 873 29.5466
15.8617 863 29.3769
15.9789 871 29.5127
16.0961 889 29.8161
16.2132 791 28.1247
16.3304 795 28.1957
16.4475 776 27.8568
16.5646 841 29
16.6816 818 28.6007
16.7986 781 27.9464
16.9156 817 28.5832
17.0326 809 28.4429
17.1496 760 27.5681
17.2665 798 28.2489
17.3833 807 28.4077
17.5002 825 28.7228
17.617 754 27.4591
17.7338 761 27.5862
17.8505 794 28.178
17.9672 799 28.2666
18.0839 796 28.2135
18.2005 786 28.0357
18.3171 794 28.178
18.4337 779 27.9106
18.5502 787 28.0535
18.6666 807 28.4077
18.7831 785 28.0179
18.8994 781 27.9464
19.0158 692 26.3059
19.1321 675 25.9808
19.2483 684 26.1534
19.3645 682 26.1151
19.4806 750 27.3861
19.5967 643 25.3574
19.7128 562 23.7065
19.8288 557 23.6008
19.9447 464 21.5407
20.0606 0 1
20.1764 0 1
20.2922 0 1
20.4079 0 1
20.5236 0 1
20.6392 0 1
20.7548 0 1
20.8702 0 1
23.3078 0 1
23.4233 0 1
23.539 0 1
23.6547 0 1
23.7704 0 1
23.8862 0 1
24.0021 0 1
24.118 0 1
24.234 0 1
24.35 0 1
24.4661 338 18.3848
24.5822 369 19.2094
24.6984 450 21.2132
24.8146 482 21.9545
24.9309 559 23.6432
25.0472 592 24.3311
25.1636 633 25.1595
25.28 748 27.3496
25.3965 773 27.8029
25.513 817 28.5832
25.6296 804 28.3549
25.7462 893 29.8831
25.8628 876 29.5973
25.9795 891 29.8496
26.0962 840 28.9828
26.213 865 29.4109
26.3298 812 28.4956
26.4466 777 27.8747
26.5635 718 26.7955
26.6804 699 26.4386
26.7973 738 27.1662
26.9143 741 27.2213
27.0313 723 26.8887
27.1483 689 26.2488
27.2653 701 26.4764
27.3824 716 26.7582
27.4996 781 27.9464
27.6167 680 26.0768
27.7339 734 27.0924
27.8511 684 26.1534
27.9683 758 27.5318
28.0855 777 27.8747
28.2028 766 27.6767
28.3201 796 28.2135
28.4374 790 28.1069
28.5547 696 26.3818
28.6721 715 26.7395
28.7894 765 27.6586
28.9068 692 26.3059
29.0242 763 27.6225
29.1416 754 27.4591
29.259 736 27.1293
29.3764 777 27.8747
29.4939 776 27.8568
29.6113 732 27.0555
29.7288 739 27.1846
29.8463 732 27.0555
29.9638 728 26.9815
30.0812 696 26.3818
30.1987 708 26.6083
30.3162 636 25.219
30.4337 696 26.3818
30.5512 688 26.2298
30.6687 639 25.2784
30.7862 679 26.0576
30.9037 783 27.9821
31.0212 730 27.0185
31.1387 761 27.5862
31.2562 762 27.6043
31.3737 778 27.8927
31.4912 772 27.7849
31.6087 713 26.7021
31.7262 748 27.3496
31.8436 720 26.8328
31.9611 704 26.533
32.0785 637 25.2389
32.1959 645 25.3969
32.3134 643 25.3574
32.4308 676 26
32.5482 666 25.807
32.6655 648 25.4558
32.7829 701 26.4764
32.9002 656 25.6125
33.0176 666 25.807
33.1349 661 25.7099
33.2522 658 25.6515
33.3694 664 25.7682
33.4867 679 26.0576
33.6039 693 26.3249
33.7211 668 25.8457
33.8383 661 25.7099
33.9554 638 25.2587
34.0725 626 25.02
34.1896 612 24.7386
34.3067 603 24.5561
34.4237 656 25.6125
34.5407 678 26.0384
34.6577 697 26.4008
34.7746 662 25.7294
34.8915 703 26.5141
35.0084 662 25.7294
35.1252 693 26.3249
35.242 708 26.6083
35.3587 662 25.7294
35.4755 616 24.8193
35.5921 621 24.9199
35.7088 659 25.671
35.8254 579 24.0624
35.9419 627 25.04
36.0584 614 24.779
36.1749 595 24.3926
36.2913 612 24.7386
36.4077 621 24.9199
36.524 615 24.7992
36.6403 550 23.4521
36.7565 500 22.3607
36.8727 507 22.5167
36.9889 472 21.7256
37.1049 435 20.8567
37.221 0 1
37.3369 0 1
37.4529 0 1
37.5687 0 1
37.6845 0 1
37.8003 0 1
37.916 0 1
38.0316 0 1
38.1472 0 1
40.5851 0 1
40.7008 0 1
40.8164 0 1
40.9322 0 1
41.048 0 1
41.1639 0 1
41.2798 0 1
41.3958 0 1
41.5118 0 1
41.6279 0 1
41.744 268 16.3707
41.8602 299 17.2916
41.9765 334 18.2757
42.0928 431 20.7605
42.2091 450 21.2132
42.3255 490 22.1359
42.4419 496 22.2711
42.5584 537 23.1733
42.675 461 21.4709
42.7915 492 22.1811
42.9081 504 22.4499
43.0248 451 21.2368
43.1415 493 22.2036
43.2582 465 21.5639
43.375 506 22.4944
43.4918 489 22.1133
43.6087 509 22.561
43.7256 470 21.6795
43.8425 519 22.7816
43.9595 489 22.1133
44.0765 533 23.0868
44.1935 520 22.8035
44.3106 480 21.9089
44.4277 484 22
44.5448 438 20.9284
44.6619 461 21.4709
44.7791 498 22.3159
44.8963 470 21.6795
45.0136 511 22.6053
45.1308 489 22.1133
45.2481 541 23.2594
45.3654 490 22.1359
45.4827 557 23.6008
45.6001 544 23.3238
45.7174 565 23.7697
45.8348 556 23.5797
45.9522 532 23.0651
46.0697 565 23.7697
46.1871 530 23.0217
46.3046 509 22.561
46.422 468 21.6333
46.5395 467 21.6102
46.657 440 20.9762
46.7745 428 20.6882
46.892 461 21.4709
47.0096 502 22.4054
47.1271 507 22.5167
47.2446 520 22.8035
47.3622 501 22.383
47.4797 509 22.561
47.5973 522 22.8473
47.7149 516 22.7156
47.8324 466 21.587
47.95 468 21.6333
48.0675 448 21.166
48.1851 466 21.587
48.3027 427 20.664
48.4202 478 21.8632
48.5378 541 23.2594
48.6554 511 22.6053
48.7729 515 22.6936
48.8904 548 23.4094
49.008 570 23.8747
49.1255 575 23.9792
49.243 487 22.0681
49.3605 553 23.516
49.478 552 23.4947
49.5955 498 22.3159
49.713 546 23.3666
49.8304 516 22.7156
49.9479 441 21
50.0653 448 21.166
50.1827 410 20.2485
50.3001 429 20.7123
50.4175 474 21.7715
50.5348 535 23.1301
50.6521 502 22.4054
50.7694 562 23.7065
50.8867 483 21.9773
51.004 506 22.4944
51.1212 550 23.4521
51.2384 503 22.4277
51.3556 471 21.7025
51.4727 474 21.7715
51.5899 428 20.6882
51.707 430 20.7364
51.824 424 20.5913
51.9411 505 22.4722
52.0581 519 22.7816
52.175 518 22.7596
52.2919 519 22.7816
52.4088 554 23.5372
52.5257 583 24.1454
52.6425 578 24.0416
52.7593 569 23.8537
52.876 578 24.0416
52.9927 613 24.7588
53.1094 624 24.98
53.226 666 25.807
53.3426 644 25.3772
53.4591 654 25.5734
53.5756 690 26.2679
53.692 734 27.0924
53.8084 712 26.6833
53.9248 786 28.0357
54.0411 866 29.4279
54.1573 1020 31.9374
54.2735 0 1
54.3896 0 1
54.5057 0 1
54.6217 0 1
54.7377 0 1
54.8537 0 1
54.9695 0 1
55.0853 0 1
55.2011 0 1
55.3168 0 1
55.4324 0 1
57.824 0 1
57.9396 0 1
58.0553 0 1
58.1711 0 1
58.2869 0 1
58.4028 0 1
58.5187 0 1
58.6347 0 1
58.7508 0 1
58.8669 0 1
58.983 32946 181.51
59.0992 44087 209.969
59.2155 55358 235.283
59.3318 67632 260.062
59.4482 79065 281.185
59.5646 88605 297.666
59.681 97213 311.79
59.7975 102516 320.181
59.9141 108006 328.643
60.0306 111923 334.549
60.1473 112134 334.864
60.2639 106470 326.297
60.3807 98816 314.35
60.4974 91554 302.579
60.6142 89351 298.916
60.731 90862 301.433
60.8479 92752 304.552
60.9648 92319 303.84
61.0818 88092 296.803
61.1987 81156 284.879
61.3158 74625 273.176
61.4328 66218 257.329
61.5499 59628 244.188
61.667 53140 230.521
61.7841 48111 219.342
61.9013 43198 207.841
62.0185 38514 196.25
62.1357 32800 181.108
62.253 27490 165.801
62.3702 23894 154.577
62.4875 21159 145.461
62.6049 19580 139.929
62.7222 18586 136.33
62.8396 17074 130.668
62.9569 14707 121.272
63.0743 12450 111.58
63.1918 9827 99.1312
63.3092 8027 89.5935
63.4267 6480 80.4984
63.5441 5543 74.4513
63.6616 4690 68.4836
63.7791 3907 62.506
63.8966 3416 58.4466
64.0142 2736 52.3068
64.1317 1962 44.2945
64.2492 1589 39.8623
64.3668 1310 36.1939
64.4843 1341 36.6197
64.6019 1275 35.7071
64.7195 1371 37.027
64.837 1316 36.2767
64.9546 1269 35.623
65.0722 1188 34.4674
65.1898 1036 32.187
65.3074 1070 32.7109
65.4249 962 31.0161
65.5425 918 30.2985
65.6601 808 28.4253
65.7777 705 26.5518
65.8952 679 26.0576
66.0128 650 25.4951
66.1304 657 25.632
66.2479 682 26.1151
66.3655 748 27.3496
66.483 765 27.6586
66.6005 756 27.4955
66.718 743 27.258
66.8355 744 27.2764
66.953 717 26.7769
67.0705 599 24.4745
67.1879 632 25.1396
67.3054 572 23.9165
67.4228 574 23.9583
67.5402 536 23.1517
67.6576 482 21.9545
67.7749 504 22.4499
67.8923 501 22.383
68.0096 594 24.3721
68.1269 515 22.6936
68.2442 535 23.1301
68.3614 532 23.0651
68.4787 556 23.5797
68.5958 600 24.4949
68.713 614 24.779
68.8302 613 24.7588
68.9473 553 23.516
69.0643 557 23.6008
69.1814 571 23.8956
69.2984 579 24.0624
69.4154 527 22.9565
69.5323 531 23.0434
69.6492 467 21.6102
69.7661 461 21.4709
69.8829 457 21.3776
69.9997 495 22.2486
70.1165 495 22.2486
70.2332 510 22.5832
70.3499 553 23.516
70.4665 506 22.4944
70.5831 504 22.4499
70.6996 459 21.4243
70.8161 408 20.199
70.9326 427 20.664
71.049 350 18.7083
71.1653 312 17.6635
71.2817 288 16.9706
71.3979 251 15.843
71.5141 254 15.9374
71.6303 240 15.4919
71.7464 228 15.0997
71.8624 0 1
71.9784 0 1
72.0944 0 1
72.2102 0 1
72.3261 0 1
72.4418 0 1
72.5575 0 1
72.6732 0 1
75.1054 0 1
75.2209 0 1
75.3365 0 1
75.4521 0 1
75.5678 0 1
75.6835 0 1
75.7993 0 1
75.9151 0 1
76.031 0 1
76.147 326 18.0555
76.263 376 19.3907
76.3791 400 20
76.4952 392 19.799
76.6113 384 19.5959
76.7276 398 19.9499
76.8438 473 21.7486
76.9601 471 21.7025
77.0765 451 21.2368
77.1929 475 21.7945
77.3093 436 20.8806
77.4258 476 21.8174
77.5423 490 22.1359
77.6589 499 22.3383
77.7755 444 21.0713
77.8921 472 21.7256
78.0088 499 22.3383
78.1256 486 22.0454
78.2423 486 22.0454
78.3591 417 20.4206
78.4759 392 19.799
78.5928 408 20.199
78.7097 420 20.4939
78.8266 431 20.7605
78.9436 496 22.2711
79.0606 463 21.5174
79.1776 514 22.6716
79.2946 472 21.7256
79.4117 505 22.4722
79.5288 477 21.8403
79.6459 489 22.1133
79.7631 480 21.9089
79.8802 457 21.3776
79.9974 434 20.8327
80.1147 421 20.5183
80.2319 451 21.2368
80.3491 442 21.0238
80.4664 497 22.2935
80.5837 443 21.0476
80.701 472 21.7256
80.8183 461 21.4709
80.9357 480 21.9089
81.053 466 21.587
81.1704 488 22.0907
81.2877 477 21.8403
81.4051 492 22.1811
81.5225 527 22.9565
81.6399 560 23.6643
81.7573 482 21.9545
81.8747 465 21.5639
81.9922 448 21.166
82.1096 435 20.8567
82.227 419 20.4695
82.3444 394 19.8494
82.4619 481 21.9317
82.5793 457 21.3776
82.6967 463 21.5174
82.8142 489 22.1133
82.9316 502 22.4054
83.049 483 21.9773
83.1664 489 22.1133
83.2838 493 22.2036
83.4012 525 22.9129
83.5186 481 21.9317
83.636 478 21.8632
83.7534 471 21.7025
83.8708 423 20.567
83.9881 476 21.8174
84.1055 483 21.9773
84.2228 527 22.9565
84.3401 472 21.7256
84.4575 520 22.8035
84.5747 462 21.4942
84.692 456 21.3542
84.8093 519 22.7816
84.9265 525 22.9129
85.0437 494 22.2261
85.1609 520 22.8035
85.2781 480 21.9089
85.3952 430 20.7364
85.5123 458 21.4009
85.6294 474 21.7715
85.7465 441 21
85.8636 448 21.166
85.9806 450 21.2132
86.0976 464 21.5407
86.2145 485 22.0227
86.3315 469 21.6564
86.4484 517 22.7376
86.5652 500 22.3607
86.682 471 21.7025
86.7988 602 24.5357
86.9156 540 23.2379
87.0323 489 22.1133
87.149 460 21.4476
87.2657 427 20.664
87.3823 412 20.2978
87.4988 452 21.2603
87.6154 459 21.4243
87.7318 442 21.0238
87.8483 441 21
87.9647 397 19.9249
88.081 407 20.1742
88.1973 394 19.8494
88.3136 376 19.3907
88.4298 316 17.7764
88.546 326 18.0555
88.6621 287 16.9411
88.7781 264 16.2481
88.8942 0 1
89.0101 0 1
89.126 0 1
89.2419 0 1
89.3577 0 1
89.4734 0 1
89.5891 0 1
89.7047 0 1
89.8203 0 1
89.9358 0 1
92.3269 0 1
92.4424 0 1
92.558 0 1
92.6736 0 1
92.7893 0 1
92.905 0 1
93.0208 0 1
93.1366 0 1
93.2525 0 1
93.3685 0 1
93.4845 0 1
93.6005 352 18.7617
93.7167 379 19.4679
93.8328 406 20.1494
93.949 431 20.7605
94.0653 461 21.4709
94.1816 468 21.6333
94.2979 521 22.8254
94.4143 511 22.6053
94.5307 450 21.2132
94.6472 478 21.8632
94.7637 430 20.7364
94.8803 481 21.9317
94.9969 452 21.2603
95.1135 430 20.7364
95.2302 436 20.8806
95.3469 514 22.6716
95.4637 469 21.6564
95.5805 513 22.6495
95.6973 498 22.3159
95.8142 495 22.2486
95.9311 494 22.2261
96.048 496 22.2711
96.1649 463 21.5174
96.2819 494 22.2261
96.3989 447 21.1424
96.516 460 21.4476
96.633 457 21.3776
96.7501 494 22.2261
96.8673 503 22.4277
96.9844 548 23.4094
97.1016 525 22.9129
97.2188 500 22.3607
97.336 461 21.4709
97.4532 538 23.1948
97.5704 476 21.8174
97.6877 524 22.891
97.805 477 21.8403
97.9223 522 22.8473
98.0396 503 22.4277
98.1569 454 21.3073
98.2743 494 22.2261
98.3916 474 21.7715
98.509 450 21.2132
98.6264 478 21.8632
98.7438 471 21.7025
98.8612 495 22.2486
98.9786 514 22.6716
99.096 521 22.8254
99.2134 497 22.2935
99.3308 590 24.2899
99.4482 531 23.0434
99.5656 501 22.383
99.6831 552 23.4947
99.8005 521 22.8254
99.9179 461 21.4709
100.035 505 22.4722
100.153 567 23.8118
100.27 473 21.7486
100.388 531 23.0434
100.505 539 23.2164
100.622 525 22.9129
100.74 512 22.6274
100.857 487 22.0681
100.975 532 23.0651
101.092 505 22.4722
101.209 538 23.1948
101.327 544 23.3238
101.444 531 23.0434
101.561 583 24.1454
101.679 558 23.622
101.796 508 22.5389
101.913 454 21.3073
102.03 490 22.1359
102.148 480 21.9089
102.265 503 22.4277
102.382 509 22.561
102.499 558 23.622
102.616 557 23.6008
102.733 575 23.9792
102.851 519 22.7816
102.968 582 24.1247
103.085 536 23.1517
103.202 536 23.1517
103.319 514 22.6716
103.436 504 22.4499
103.552 531 23.0434
103.669 546 23.3666
103.786 577 24.0208
103.903 612 24.7386
104.02 539 23.2164
104.137 543 23.3024
104.253 570 23.8747
104.37 487 22.0681
104.487 543 23.3024
104.603 537 23.1733
104.72 537 23.1733
104.836 470 21.6795
104.953 507 22.5167
105.069 510 22.5832
105.186 458 21.4009
105.302 462 21.4942
105.418 422 20.5426
105.535 413 20.3224
105.651 360 18.9737
105.767 295 17.1756
105.883 305 17.4642
105.999 289 17
106.115 0 1
106.231 0 1
106.347 0 1
106.463 0 1
106.579 0 1
106.694 0 1
106.81 0 1
106.926 0 1
107.041 0 1
107.157 0 1
109.576 0 1
109.692 0 1
109.807 0 1
109.923 0 1
110.039 0 1
110.155 0 1
110.27 0 1
110.386 0 1
110.502 0 1
110.618 231 15.1987
110.735 296 17.2047
110.851 301 17.3494
110.967 383 19.5704
111.083 393 19.8242
111.199 442 21.0238
111.316 485 22.0227
111.432 463 21.5174
111.549 520 22.8035
111.665 498 22.3159
111.782 483 21.9773
111.898 471 21.7025
112.015 482 21.9545
112.132 454 21.3073
112.248 428 20.6882
112.365 516 22.7156
112.482 508 22.5389
112.599 487 22.0681
112.716 486 22.0454
112.832 522 22.8473
112.949 487 22.0681
113.066 484 22
113.183 451 21.2368
113.3 475 21.7945
113.417 464 21.5407
113.534 460 21.4476
113.652 430 20.7364
113.769 487 22.0681
113.886 450 21.2132
114.003 426 20.6398
114.12 465 21.5639
114.238 447 21.1424
114.355 418 20.445
114.472 449 21.1896
114.589 460 21.4476
114.707 462 21.4942
114.824 463 21.5174
114.942 497 22.2935
115.059 531 23.0434
115.176 519 22.7816
115.294 489 22.1133
115.411 441 21
115.529 439 20.9523
115.646 454 21.3073
115.764 486 22.0454
115.881 470 21.6795
115.999 461 21.4709
116.116 487 22.0681
116.234 453 21.2838
116.351 430 20.7364
116.469 453 21.2838
116.586 413 20.3224
116.704 458 21.4009
116.821 485 22.0227
116.939 428 20.6882
117.056 415 20.3715
117.174 409 20.2237
117.291 422 20.5426
117.409 457 21.3776
117.526 441 21
117.644 396 19.8997
117.761 422 20.5426
117.879 400 20
117.996 416 20.3961
118.114 413 20.3224
118.231 426 20.6398
118.349 455 21.3307
118.466 443 21.0476
118.584 426 20.6398
118.701 437 20.9045
118.819 420 20.4939
118.936 415 20.3715
119.053 409 20.2237
119.171 426 20.6398
119.288 441 21
119.405 445 21.095
119.523 405 20.1246
119.64 456 21.3542
119.757 462 21.4942
119.875 437 20.9045
119.992 450 21.2132
120.109 423 20.567
120.226 402 20.0499
120.343 381 19.5192
120.46 403 20.0749
120.578 398 19.9499
120.695 449 21.1896
120.812 415 20.3715
120.929 412 20.2978
121.046 431 20.7605
121.163 399 19.975
121.279 395 19.8746
121.396 375 19.3649
121.513 355 18.8414
121.63 374 19.3391
121.747 389 19.7231
121.863 403 20.0749
121.98 399 19.975
122.097 395 19.8746
122.213 360 18.9737
122.33 370 19.2354
122.446 338 18.3848
122.563 277 16.6433
122.679 253 15.906
122.795 261 16.1555
122.912 254 15.9374
123.028 238 15.4272
123.144 239 15.4596
123.26 235 15.3297
123.377 0 1
123.493 0 1
123.609 0 1
123.725 0 1
123.84 0 1
123.956 0 1
124.072 0 1
124.188 0 1
124.303 0 1
124.419 0 1
126.852 0 1
126.968 0 1
127.083 0 1
127.199 0 1
127.315 0 1
127.431 0 1
127.547 0 1
127.663 0 1
127.779 0 1
127.895 0 1
128.011 0 1
128.127 0 1
128.243 0 1
128.359 452 21.2603
128.476 510 22.5832
128.592 505 22.4722
128.708 542 23.2809
128.825 497 22.2935
128.941 567 23.8118
129.058 482 21.9545
129.174 522 22.8473
129.291 541 23.2594
129.408 563 23.7276
129.524 521 22.8254
129.641 573 23.9374
129.758 691 26.2869
129.875 696 26.3818
129.992 742 27.2397
130.108 750 27.3861
130.225 798 28.2489
130.342 810 28.4605
130.459 840 28.9828
130.576 860 29.3258
130.693 940 30.6594
130.81 984 31.3688
130.928 980 31.305
131.045 933 30.545
131.162 923 30.3809
131.279 994 31.5278
131.396 1018 31.9061
131.513 1042 32.28
131.631 1059 32.5423
131.748 976 31.241
131.865 973 31.1929
131.983 1068 32.6803
132.1 1117 33.4215
132.217 1147 33.8674
132.335 1236 35.1568
132.452 1238 35.1852
132.57 1265 35.5668
132.687 1192 34.5254
132.804 1357 36.8375
132.922 1330 36.4692
133.039 1353 36.7831
133.157 1313 36.2353
133.274 1362 36.9053
133.392 1419 37.6696
133.509 1329 36.4555
133.627 1328 36.4417
133.744 1302 36.0832
133.862 1257 35.4542
133.979 1214 34.8425
134.097 1206 34.7275
134.214 1217 34.8855
134.332 1151 33.9264
134.449 1180 34.3511
134.567 1255 35.426
134.684 1234 35.1283
134.802 1275 35.7071
134.919 1382 37.1753
135.037 1326 36.4143
135.154 1253 35.3977
135.272 1199 34.6266
135.389 1122 33.4963
135.507 1127 33.5708
135.624 1205 34.7131
135.742 1320 36.3318
135.859 1340 36.606
135.977 1355 36.8103
136.094 1418 37.6563
136.211 1401 37.4299
136.329 1313 36.2353
136.446 1354 36.7967
136.564 1354 36.7967
136.681 1364 36.9324
136.798 1346 36.6879
136.915 1303 36.0971
137.033 1326 36.4143
137.15 1365 36.9459
137.267 1263 35.5387
137.384 1242 35.242
137.502 1302 36.0832
137.619 1134 33.6749
137.736 1159 34.0441
137.853 1082 32.8938
137.97 1131 33.6303
138.087 1105 33.2415
138.204 1195 34.5688
138.321 1180 34.3511
138.438 1210 34.7851
138.555 1264 35.5528
138.672 1180 34.3511
138.788 1227 35.0286
138.905 1132 33.6452
139.022 982 31.3369
139.139 962 31.0161
139.255 1044 32.311
139.372 996 31.5595
139.488 942 30.692
139.605 963 31.0322
139.721 921 30.348
139.838 829 28.7924
139.954 746 27.313
140.071 728 26.9815
140.187 708 26.6083
140.303 653 25.5539
140.419 619 24.8797
140.535 597 24.4336
140.652 602 24.5357
140.768 0 1
140.884 0 1
141 0 1
141.115 0 1
141.231 0 1
141.347 0 1
141.463 0 1
141.578 0 1
141.694 0 1
144.104 0 1
144.219 0 1
144.335 0 1
144.45 0 1
144.566 0 1
144.682 0 1
144.798 0 1
144.914 0 1
145.03 0 1
145.146 1162 34.0881
145.262 1162 34.0881
145.378 1360 36.8782
145.494 1278 35.7491
145.61 1272 35.6651
145.726 1235 35.1426
145.842 1332 36.4966
145.959 1347 36.7015
146.075 1336 36.5513
146.192 1316 36.2767
146.308 1333 36.5103
146.425 1328 36.4417
146.541 1321 36.3456
146.658 1293 35.9583
146.774 1274 35.6931
146.891 1239 35.1994
147.008 1323 36.3731
147.125 1315 36.2629
147.241 1430 37.8153
147.358 1450 38.0789
147.475 1498 38.704
147.592 1482 38.4968
147.709 1412 37.5766
147.826 1309 36.1801
147.943 1263 35.5387
148.06 1199 34.6266
148.177 1271 35.6511
148.294 1399 37.4032
148.411 1392 37.3095
148.528 1397 37.3765
148.645 1385 37.2156
148.762 1447 38.0395
148.88 1419 37.6696
148.997 1418 37.6563
149.114 1420 37.6829
149.231 1517 38.9487
149.349 1467 38.3014
149.466 1478 38.4448
149.583 1484 38.5227
149.701 1527 39.0768
149.818 1467 38.3014
149.935 1532 39.1408
150.053 1450 38.0789
150.17 1450 38.0789
150.287 1407 37.51
150.405 1311 36.2077
150.522 1245 35.2846
150.64 1209 34.7707
150.757 1361 36.8917
150.875 1383 37.1887
150.992 1491 38.6135
151.11 1396 37.3631
151.227 1431 37.8286
151.344 1401 37.4299
151.462 1454 38.1314
151.579 1409 37.5366
151.697 1409 37.5366
151.814 1414 37.6032
151.932 1519 38.9744
152.049 1530 39.1152
152.167 1556 39.4462
152.284 1563 39.5348
152.402 1544 39.2938
152.519 1501 38.7427
152.636 1616 40.1995
152.754 1603 40.0375
152.871 1627 40.3361
152.989 1590 39.8748
153.106 1609 40.1123
153.223 1590 39.8748
153.341 1592 39.8999
153.458 1512 38.8844
153.575 1522 39.0128
153.693 1541 39.2556
153.81 1432 37.8418
153.927 1366 36.9594
154.044 1332 36.4966
154.162 1318 36.3043
154.279 1302 36.0832
154.396 1374 37.0675
154.513 1510 38.8587
154.63 1464 38.2623
154.747 1527 39.0768
154.864 1514 38.9102
154.981 1521 39
155.098 1596 39.95
155.215 1458 38.1838
155.332 1488 38.5746
155.449 1506 38.8072
155.566 1616 40.1995
155.683 1525 39.0512
155.8 1656 40.694
155.917 1572 39.6485
156.033 1663 40.7799
156.15 0 1
156.267 0 1
156.383 0 1
156.5 0 1
156.617 0 1
156.733 0 1
156.85 0 1
156.966 0 1
157.082 0 1
157.199 0 1
157.315 0 1
157.431 0 1
157.547 0 1
157.664 0 1
157.78 0 1
157.896 0 1
158.012 0 1
158.128 0 1
158.244 0 1
158.359 0 1
158.475 0 1
158.591 0 1
158.706 0 1
