
6.15755 0 1
6.2731 0 1
6.3887 0 1
6.50437 0 1
6.62009 0 1
6.73587 0 1
6.8517 0 1
6.96759 0 1
7.08353 0 1
7.19952 0 1
7.31557 0 1
7.43166 0 1
7.54781 0 1
7.664 0 1
7.78024 0 1
7.89653 0 1
8.01286 0 1
8.12924 0 1
8.24567 0 1
8.36213 0 1
8.47864 0 1
8.59519 0 1
8.71178 0 1
8.82841 0 1
8.94508 0 1
9.06179 0 1
9.17853 0 1
9.29531 0 1
9.41212 0 1
9.52897 0 1
9.64584 0 1
9.76276 0 1
9.8797 0 1
9.99667 0 1
10.1137 0 1
10.2307 0 1
10.3478 0 1
10.4648 0 1
10.5819 0 1
10.6991 0 1
10.8162 0 1
10.9334 0 1
11.0506 0 1
11.1678 0 1
11.285 0 1
11.4023 0 1
11.5196 0 1
11.6369 0 1
11.7542 0 1
11.8715 0 1
11.9888 0 1
12.1062 0 1
12.2235 0 1
12.3409 0 1
12.4582 0 1
12.5756 0 1
12.693 0 1
12.8104 0 1
12.9278 0 1
13.0452 0 1
13.1626 0 1
13.28 0 1
13.3974 0 1
13.5149 0 1
13.6323 0 1
13.7497 0 1
13.8671 0 1
13.9845 0 1
14.1019 0 1
14.2193 0 1
14.3367 0 1
14.4541 0 1
14.5714 0 1
14.6888 0 1
14.8062 0 1
14.9235 0 1
15.0408 0 0
15.1581 0 0
15.2755 0 0
15.3927 0 0
15.51 0 0
15.6273 0 0
15.7445 0 0
15.8617 0 0
15.9789 0 0
16.0961 0 0
16.2132 0 0
16.3304 0 0
16.4475 0 0
16.5646 0 0
16.6816 0 0
16.7986 0 0
16.9156 0 0
17.0326 0 0
17.1496 0 0
17.2665 0 0
17.3833 0 0
17.5002 0 0
17.617 0 0
17.7338 0 0
17.8505 0 0
17.9672 0 0
18.0839 0 0
18.2005 0 0
18.3171 0 0
18.4337 0 0
18.5502 0 0
18.6666 0 0
18.7831 0 0
18.8994 0 0
19.0158 0 0
19.1321 0 0
19.2483 0 0
19.3645 0 0
19.4806 0 0
19.5967 0 0
19.7128 0 0
19.8288 0 0
19.9447 0 0
20.0606 0 1
20.1764 0 1
20.2922 0 1
20.4079 0 1
20.5236 0 1
20.6392 0 1
20.7548 0 1
20.8702 0 1
23.3078 0 1
23.4233 0 1
23.539 0 1
23.6547 0 1
23.7704 0 1
23.8862 0 1
24.0021 0 1
24.118 0 1
24.234 0 1
24.35 0 1
24.4661 12632 112.392
24.5822 12657 112.503
24.6984 12498 111.794
24.8146 12862 113.411
24.9309 12756 112.942
25.0472 12784 113.066
25.1636 12994 113.991
25.28 13398 115.75
25.3965 13791 117.435
25.513 13952 118.119
25.6296 14078 118.651
25.7462 14242 119.34
25.8628 14430 120.125
25.9795 14400 120
26.0962 14287 119.528
26.213 14368 119.867
26.3298 13614 116.679
26.4466 14070 118.617
26.5635 13638 116.782
26.6804 13487 116.134
26.7973 12954 113.816
26.9143 12716 112.765
27.0313 12220 110.544
27.1483 12092 109.964
27.2653 12261 110.729
27.3824 12243 110.648
27.4996 11883 109.009
27.6167 11774 108.508
27.7339 11172 105.698
27.8511 10761 103.735
27.9683 10543 102.679
28.0855 10445 102.201
28.2028 10535 102.64
28.3201 10029 100.145
28.4374 10441 102.181
28.5547 10291 101.445
28.6721 10373 101.848
28.7894 10992 104.843
28.9068 10905 104.427
29.0242 11518 107.322
29.1416 11518 107.322
29.259 11674 108.046
29.3764 11877 108.982
29.4939 11854 108.876
29.6113 11462 107.061
29.7288 11756 108.425
29.8463 11665 108.005
29.9638 11739 108.347
30.0812 11611 107.754
30.1987 11548 107.462
30.3162 11337 106.475
30.4337 11088 105.3
30.5512 10598 102.947
30.6687 10302 101.499
30.7862 10922 104.508
30.9037 10711 103.494
31.0212 10877 104.293
31.1387 10929 104.542
31.2562 10419 102.074
31.3737 10138 100.688
31.4912 9851 99.2522
31.6087 9921 99.6042
31.7262 9630 98.1326
31.8436 9923 99.6143
31.9611 9901 99.5038
32.0785 9909 99.544
32.1959 10308 101.528
32.3134 10871 104.264
32.4308 10897 104.389
32.5482 10992 104.843
32.6655 11224 105.943
32.7829 11247 106.052
32.9002 11393 106.738
33.0176 11302 106.311
33.1349 11189 105.778
33.2522 11372 106.64
33.3694 11304 106.32
33.4867 11243 106.033
33.6039 11330 106.442
33.7211 11291 106.259
33.8383 11453 107.019
33.9554 11003 104.895
34.0725 10735 103.61
34.1896 10453 102.24
34.3067 10275 101.366
34.4237 10226 101.124
34.5407 10257 101.277
34.6577 10306 101.518
34.7746 10321 101.592
34.8915 10509 102.513
35.0084 9748 98.732
35.1252 9804 99.0152
35.242 9306 96.4676
35.3587 9539 97.6678
35.4755 9492 97.4269
35.5921 9579 97.8724
35.7088 9708 98.5292
35.8254 9878 99.3881
35.9419 10081 100.404
36.0584 10448 102.215
36.1749 10587 102.893
36.2913 10793 103.889
36.4077 10758 103.721
36.524 10588 102.898
36.6403 11033 105.038
36.7565 10774 103.798
36.8727 10999 104.876
36.9889 10898 104.393
37.1049 10761 103.735
37.221 0 1
37.3369 0 1
37.4529 0 1
37.5687 0 1
37.6845 0 1
37.8003 0 1
37.916 0 1
38.0316 0 1
38.1472 0 1
40.5851 0 1
40.7008 0 1
40.8164 0 1
40.9322 0 1
41.048 0 1
41.1639 0 1
41.2798 0 1
41.3958 0 1
41.5118 0 1
41.6279 0 1
41.744 8839 94.016
41.8602 8950 94.6044
41.9765 9097 95.3782
42.0928 9345 96.6695
42.2091 9032 95.0368
42.3255 9059 95.1788
42.4419 9137 95.5877
42.5584 9145 95.6295
42.675 8978 94.7523
42.7915 8949 94.5992
42.9081 8722 93.3916
43.0248 8327 91.2524
43.1415 8332 91.2798
43.2582 8286 91.0275
43.375 8472 92.0435
43.4918 8532 92.3688
43.6087 8303 91.1208
43.7256 8203 90.5704
43.8425 8029 89.6047
43.9595 7516 86.6949
44.0765 7518 86.7064
44.1935 7428 86.1858
44.3106 7527 86.7583
44.4277 7288 85.3698
44.5448 7724 87.8863
44.6619 7719 87.8578
44.7791 7801 88.3233
44.8963 7965 89.2468
45.0136 8049 89.7162
45.1308 8102 90.0111
45.2481 7851 88.6059
45.3654 7867 88.6961
45.4827 7729 87.9147
45.6001 7767 88.1306
45.7174 7604 87.2009
45.8348 7562 86.9598
45.9522 7620 87.2926
46.0697 7453 86.3308
46.1871 7427 86.18
46.3046 7239 85.0823
46.422 7183 84.7526
46.5395 6749 82.1523
46.657 6661 81.6149
46.7745 6492 80.5729
46.892 6516 80.7217
47.0096 6542 80.8826
47.1271 6458 80.3617
47.2446 6452 80.3243
47.3622 6035 77.6853
47.4797 5969 77.2593
47.5973 5673 75.3193
47.7149 5627 75.0133
47.8324 5529 74.3572
47.95 5646 75.1399
48.0675 5727 75.6769
48.1851 5715 75.5976
48.3027 6004 77.4855
48.4202 5982 77.3434
48.5378 6081 77.9808
48.6554 5948 77.1233
48.7729 6146 78.3964
48.8904 6083 77.9936
49.008 6098 78.0897
49.1255 6134 78.3199
49.243 6244 79.019
49.3605 6148 78.4092
49.478 6357 79.7308
49.5955 6306 79.4103
49.713 6587 81.1603
49.8304 6567 81.037
49.9479 6553 80.9506
50.0653 6306 79.4103
50.1827 6136 78.3326
50.3001 5979 77.324
50.4175 6098 78.0897
50.5348 6196 78.7147
50.6521 6596 81.2158
50.7694 6973 83.5045
50.8867 6938 83.2947
51.004 6823 82.6015
51.1212 6672 81.6823
51.2384 6980 83.5464
51.3556 6912 83.1384
51.4727 7312 85.5102
51.5899 7775 88.176
51.707 8000 89.4427
51.824 8242 90.7855
51.9411 8327 91.2524
52.0581 8517 92.2876
52.175 8709 93.322
52.2919 8860 94.1276
52.4088 8747 93.5254
52.5257 9017 94.9579
52.6425 9170 95.7601
52.7593 9069 95.2313
52.876 9013 94.9368
52.9927 9238 96.1145
53.1094 9240 96.1249
53.226 9366 96.7781
53.3426 9581 97.8826
53.4591 9615 98.0561
53.5756 9304 96.4572
53.692 9178 95.8019
53.8084 9012 94.9316
53.9248 8685 93.1933
54.0411 8598 92.7254
54.1573 8915 94.4193
54.2735 0 1
54.3896 0 1
54.5057 0 1
54.6217 0 1
54.7377 0 1
54.8537 0 1
54.9695 0 1
55.0853 0 1
55.2011 0 1
55.3168 0 1
55.4324 0 1
57.824 0 1
57.9396 0 1
58.0553 0 1
58.1711 0 1
58.2869 0 1
58.4028 0 1
58.5187 0 1
58.6347 0 1
58.7508 0 1
58.8669 0 1
58.983 10251 101.247
59.0992 10240 101.193
59.2155 10409 102.025
59.3318 10261 101.297
59.4482 10330 101.637
59.5646 10339 101.681
59.681 10389 101.926
59.7975 10368 101.823
59.9141 10298 101.479
60.0306 10396 101.961
60.1473 10657 103.233
60.2639 10986 104.814
60.3807 10974 104.757
60.4974 11181 105.74
60.6142 11090 105.309
60.731 11226 105.953
60.8479 11179 105.731
60.9648 11012 104.938
61.0818 11030 105.024
61.1987 11027 105.01
61.3158 10952 104.652
61.4328 10972 104.747
61.5499 10748 103.673
61.667 10880 104.307
61.7841 10751 103.687
61.9013 10556 102.742
62.0185 10894 104.374
62.1357 10610 103.005
62.253 10249 101.237
62.3702 9816 99.0757
62.4875 9650 98.2344
62.6049 9537 97.6576
62.7222 9847 99.2321
62.8396 9733 98.656
62.9569 9813 99.0606
63.0743 9633 98.1478
63.1918 9494 97.4372
63.3092 9541 97.678
63.4267 9504 97.4885
63.5441 9970 99.8499
63.6616 9809 99.0404
63.7791 10123 100.613
63.8966 10334 101.656
64.0142 10239 101.188
64.1317 10384 101.902
64.2492 10185 100.921
64.3668 10252 101.252
64.4843 10078 100.389
64.6019 10219 101.089
64.7195 10113 100.563
64.837 10108 100.539
64.9546 10125 100.623
65.0722 9926 99.6293
65.1898 9917 99.5841
65.3074 10151 100.752
65.4249 9794 98.9646
65.5425 9853 99.2623
65.6601 9866 99.3277
65.7777 9773 98.8585
65.8952 9690 98.4378
66.0128 8980 94.7629
66.1304 8799 93.803
66.2479 8680 93.1665
66.3655 8904 94.361
66.483 9237 96.1093
66.6005 9225 96.0469
66.718 8986 94.7945
66.8355 9003 94.8841
66.953 8934 94.5198
67.0705 9196 95.8958
67.1879 9371 96.8039
67.3054 9630 98.1326
67.4228 9806 99.0252
67.5402 9917 99.5841
67.6576 9934 99.6695
67.7749 9885 99.4233
67.8923 9911 99.554
68.0096 9848 99.2371
68.1269 10021 100.105
68.2442 9944 99.7196
68.3614 9976 99.8799
68.4787 9907 99.5339
68.5958 9793 98.9596
68.713 9897 99.4837
68.8302 9862 99.3076
68.9473 10023 100.115
69.0643 9887 99.4334
69.1814 9822 99.106
69.2984 10131 100.653
69.4154 9940 99.6995
69.5323 10126 100.628
69.6492 9636 98.1631
69.7661 9307 96.4728
69.8829 8925 94.4722
69.9997 8911 94.3981
70.1165 9076 95.268
70.2332 9441 97.1648
70.3499 9327 96.5764
70.4665 9328 96.5816
70.5831 9367 96.7833
70.6996 9570 97.8264
70.8161 9664 98.3056
70.9326 9916 99.5791
71.049 10096 100.479
71.1653 9997 99.985
71.2817 10034 100.17
71.3979 9863 99.3126
71.5141 9653 98.2497
71.6303 9470 97.3139
71.7464 8678 93.1558
71.8624 0 1
71.9784 0 1
72.0944 0 1
72.2102 0 1
72.3261 0 1
72.4418 0 1
72.5575 0 1
72.6732 0 1
75.1054 0 1
75.2209 0 1
75.3365 0 1
75.4521 0 1
75.5678 0 1
75.6835 0 1
75.7993 0 1
75.9151 0 1
76.031 0 1
76.147 8729 93.4291
76.263 9500 97.4679
76.3791 9673 98.3514
76.4952 9642 98.1937
76.6113 9839 99.1917
76.7276 9786 98.9242
76.8438 9727 98.6256
76.9601 9905 99.5239
77.0765 9770 98.8433
77.1929 9732 98.6509
77.3093 10031 100.155
77.4258 9659 98.2802
77.5423 9682 98.3972
77.6589 9743 98.7066
77.7755 9538 97.6627
77.8921 9673 98.3514
78.0088 9779 98.8888
78.1256 9594 97.949
78.2423 9649 98.2293
78.3591 9648 98.2242
78.4759 9673 98.3514
78.5928 9379 96.8452
78.7097 8997 94.8525
78.8266 8593 92.6984
78.9436 7140 84.4985
79.0606 7355 85.7613
79.1776 7550 86.8907
79.2946 8273 90.956
79.4117 8585 92.6553
79.5288 8808 93.8509
79.6459 9088 95.331
79.7631 9209 95.9635
79.8802 9353 96.7109
79.9974 9204 95.9375
80.1147 9301 96.4417
80.2319 9351 96.7006
80.3491 9162 95.7183
80.4664 9068 95.226
80.5837 9117 95.483
80.701 8906 94.3716
80.8183 9061 95.1893
80.9357 9017 94.9579
81.053 8970 94.7101
81.1704 8957 94.6414
81.2877 8913 94.4087
81.4051 8730 93.4345
81.5225 8986 94.7945
81.6399 8620 92.844
81.7573 8660 93.0591
81.8747 8683 93.1826
81.9922 8584 92.6499
82.1096 8625 92.8709
82.227 8576 92.6067
82.3444 8368 91.4768
82.4619 7727 87.9034
82.5793 7018 83.7735
82.6967 6727 82.0183
82.8142 6676 81.7068
82.9316 7161 84.6227
83.049 7627 87.3327
83.1664 7797 88.3006
83.2838 8210 90.6091
83.4012 8031 89.6158
83.5186 8187 90.482
83.636 7977 89.3141
83.7534 8180 90.4434
83.8708 7969 89.2693
83.9881 8136 90.1998
84.1055 8039 89.6605
84.2228 7766 88.1249
84.3401 7772 88.1589
84.4575 7791 88.2666
84.5747 7814 88.3968
84.692 7858 88.6454
84.8093 7910 88.9382
84.9265 7967 89.2581
85.0437 7692 87.704
85.1609 7876 88.7468
85.2781 7819 88.4251
85.3952 7787 88.244
85.5123 7949 89.1572
85.6294 7874 88.7356
85.7465 7972 89.2861
85.8636 7937 89.0898
85.9806 7885 88.7975
86.0976 7344 85.6971
86.2145 6337 79.6053
86.3315 5993 77.4145
86.4484 6523 80.7651
86.5652 7232 85.0412
86.682 7768 88.1363
86.7988 8005 89.4707
86.9156 8141 90.2275
87.0323 7958 89.2076
87.149 8196 90.5318
87.2657 8167 90.3715
87.3823 8117 90.0944
87.4988 7971 89.2805
87.6154 8003 89.4595
87.7318 8033 89.627
87.8483 8045 89.6939
87.9647 8020 89.5545
88.081 7865 88.6848
88.1973 8106 90.0333
88.3136 7988 89.3756
88.4298 7995 89.4148
88.546 7800 88.3176
88.6621 7870 88.713
88.7781 7766 88.1249
88.8942 0 1
89.0101 0 1
89.126 0 1
89.2419 0 1
89.3577 0 1
89.4734 0 1
89.5891 0 1
89.7047 0 1
89.8203 0 1
89.9358 0 1
92.3269 0 1
92.4424 0 1
92.558 0 1
92.6736 0 1
92.7893 0 1
92.905 0 1
93.0208 0 1
93.1366 0 1
93.2525 0 1
93.3685 0 1
93.4845 0 1
93.6005 6039 77.711
93.7167 6139 78.3518
93.8328 6136 78.3326
93.949 6027 77.6338
94.0653 5947 77.1168
94.1816 5879 76.6746
94.2979 5737 75.743
94.4143 5623 74.9867
94.5307 5699 75.4917
94.6472 5509 74.2226
94.7637 5587 74.7462
94.8803 5572 74.6458
94.9969 5437 73.736
95.1135 5294 72.7599
95.2302 5074 71.232
95.3469 4616 67.9412
95.4637 3901 62.458
95.5805 3606 60.05
95.6973 4567 67.5796
95.8142 5075 71.239
95.9311 5071 71.211
96.048 5004 70.739
96.1649 4827 69.4766
96.2819 4826 69.4694
96.3989 4770 69.0652
96.516 4647 68.1689
96.633 4530 67.3053
96.7501 4403 66.3551
96.8673 4462 66.7982
96.9844 4309 65.643
97.1016 4125 64.2262
97.2188 4008 63.3088
97.336 3987 63.1427
97.4532 3919 62.6019
97.5704 3875 62.2495
97.6877 3758 61.3025
97.805 3687 60.7207
97.9223 3436 58.6174
98.0396 3303 57.4717
98.1569 3319 57.6108
98.2743 3148 56.107
98.3916 3149 56.116
98.509 3054 55.263
98.6264 3021 54.9636
98.7438 2958 54.3875
98.8612 2771 52.6403
98.9786 2495 49.95
99.096 2008 44.8107
99.2134 1865 43.1856
99.3308 2244 47.3709
99.4482 2457 49.5681
99.5656 2451 49.5076
99.6831 2369 48.6724
99.8005 2228 47.2017
99.9179 2167 46.551
100.035 2183 46.7226
100.153 2186 46.7547
100.27 2062 45.4093
100.388 2052 45.299
100.505 2136 46.2169
100.622 2178 46.669
100.74 2141 46.2709
100.857 2189 46.7868
100.975 2360 48.5798
101.092 2431 49.3052
101.209 2467 49.6689
101.327 2498 49.98
101.444 2561 50.6063
101.561 2773 52.6593
101.679 2766 52.5928
101.796 2846 53.3479
101.913 3014 54.8999
102.03 3070 55.4076
102.148 3106 55.7315
102.265 3437 58.6259
102.382 3148 56.107
102.499 3154 56.1605
102.616 2609 51.0784
102.733 2368 48.6621
102.851 3362 57.9828
102.968 3876 62.2575
103.085 4023 63.4271
103.202 4201 64.8151
103.319 4256 65.238
103.436 4285 65.4599
103.552 4407 66.3852
103.669 4409 66.4003
103.786 4646 68.1616
103.903 4623 67.9926
104.02 4802 69.2965
104.137 4877 69.8355
104.253 4957 70.406
104.37 4869 69.7782
104.487 5171 71.9097
104.603 5264 72.5534
104.72 5191 72.0486
104.836 5317 72.9178
104.953 5474 73.9865
105.069 5636 75.0733
105.186 5654 75.1931
105.302 5766 75.9342
105.418 5763 75.9144
105.535 5810 76.2234
105.651 5826 76.3282
105.767 5928 76.9935
105.883 5447 73.8038
105.999 4541 67.3869
106.115 0 1
106.231 0 1
106.347 0 1
106.463 0 1
106.579 0 1
106.694 0 1
106.81 0 1
106.926 0 1
107.041 0 1
107.157 0 1
109.576 0 1
109.692 0 1
109.807 0 1
109.923 0 1
110.039 0 1
110.155 0 1
110.27 0 1
110.386 0 1
110.502 0 1
110.618 5642 75.1132
110.735 6042 77.7303
110.851 5698 75.4851
110.967 5160 71.8331
111.083 4530 67.3053
111.199 4292 65.5134
111.316 4838 69.5557
111.432 5949 77.1298
111.549 6065 77.8781
111.665 6119 78.224
111.782 6222 78.8797
111.898 6005 77.4919
112.015 6030 77.6531
112.132 5928 76.9935
112.248 5890 76.7463
112.365 5901 76.818
112.482 5848 76.4722
112.599 5648 75.1532
112.716 5730 75.6968
112.832 5554 74.5252
112.949 5573 74.6525
113.066 5587 74.7462
113.183 5460 73.8918
113.3 5292 72.7461
113.417 5160 71.8331
113.534 5128 71.6101
113.652 5111 71.4913
113.769 5291 72.7393
113.886 5099 71.4073
114.003 4863 69.7352
114.12 5013 70.8025
114.238 4778 69.1231
114.355 4625 68.0074
114.472 4366 66.0757
114.589 3663 60.5227
114.707 3272 57.2014
114.824 3395 58.2666
114.942 3863 62.153
115.059 4365 66.0681
115.176 4553 67.4759
115.294 4527 67.283
115.411 4435 66.5958
115.529 4401 66.34
115.646 4322 65.7419
115.764 4174 64.6065
115.881 4232 65.0538
115.999 4125 64.2262
116.116 3938 62.7535
116.234 3843 61.9919
116.351 3900 62.45
116.469 3853 62.0725
116.586 3810 61.7252
116.704 3778 61.4654
116.821 3705 60.8687
116.939 3779 61.4736
117.056 3589 59.9083
117.174 3533 59.439
117.291 3629 60.2412
117.409 3556 59.6322
117.526 3469 58.8982
117.644 3596 59.9667
117.761 3372 58.0689
117.879 3338 57.7754
117.996 3276 57.2364
118.114 3157 56.1872
118.231 3087 55.5608
118.349 2729 52.2398
118.466 2662 51.5946
118.584 2648 51.4587
118.701 3027 55.0182
118.819 3159 56.205
118.936 3214 56.6922
119.053 3106 55.7315
119.171 3068 55.3895
119.288 3055 55.2721
119.405 3110 55.7674
119.523 2963 54.4334
119.64 3004 54.8088
119.757 3080 55.4977
119.875 2970 54.4977
119.992 3001 54.7814
120.109 2955 54.3599
120.226 2921 54.0463
120.343 2851 53.3948
120.46 2931 54.1387
120.578 2853 53.4135
120.695 2873 53.6004
120.812 2878 53.647
120.929 2835 53.2447
121.046 2780 52.7257
121.163 2820 53.1037
121.279 2730 52.2494
121.396 2641 51.3907
121.513 2356 48.5386
121.63 2231 47.2335
121.747 2225 47.1699
121.863 2539 50.3885
121.98 2731 52.259
122.097 2861 53.4883
122.213 2735 52.2972
122.33 2672 51.6914
122.446 2756 52.4976
122.563 2947 54.2863
122.679 3005 54.8179
122.795 2842 53.3104
122.912 2981 54.5985
123.028 2962 54.4243
123.144 2936 54.1849
123.26 2908 53.9259
123.377 0 1
123.493 0 1
123.609 0 1
123.725 0 1
123.84 0 1
123.956 0 1
124.072 0 1
124.188 0 1
124.303 0 1
124.419 0 1
126.852 0 1
126.968 0 1
127.083 0 1
127.199 0 1
127.315 0 1
127.431 0 1
127.547 0 1
127.663 0 1
127.779 0 1
127.895 0 1
128.011 0 1
128.127 0 1
128.243 0 1
128.359 4209 64.8768
128.476 4197 64.7843
128.592 4165 64.5368
128.708 4374 66.1362
128.825 4308 65.6354
128.941 4300 65.5744
129.058 4434 66.5883
129.174 4474 66.888
129.291 4458 66.7683
129.408 4467 66.8356
129.524 4427 66.5357
129.641 4501 67.0895
129.758 4635 68.0808
129.875 4571 67.6092
129.992 4518 67.2161
130.108 4494 67.0373
130.225 4175 64.6142
130.342 3684 60.696
130.459 2926 54.0925
130.576 2606 51.049
130.693 2599 50.9804
130.81 3280 57.2713
130.928 4304 65.6049
131.045 4834 69.527
131.162 5073 71.225
131.279 5092 71.3583
131.396 5104 71.4423
131.513 5141 71.7008
131.631 5270 72.5948
131.748 5291 72.7393
131.865 5334 73.0342
131.983 5305 72.8354
132.1 5451 73.8309
132.217 5357 73.1915
132.335 5517 74.2765
132.452 5430 73.6885
132.57 5337 73.0548
132.687 5347 73.1232
132.804 5700 75.4983
132.922 5517 74.2765
133.039 5501 74.1687
133.157 5475 73.9932
133.274 5493 74.1148
133.392 5553 74.5185
133.509 5490 74.0945
133.627 5433 73.7089
133.744 5094 71.3723
133.862 4596 67.7938
133.979 4115 64.1483
134.097 3626 60.2163
134.214 3319 57.6108
134.332 3408 58.3781
134.449 4172 64.591
134.567 5272 72.6085
134.684 5596 74.8064
134.802 6026 77.6273
134.919 5998 77.4468
135.037 6052 77.7946
135.154 6000 77.4597
135.272 6148 78.4092
135.389 6124 78.256
135.507 6316 79.4733
135.624 6249 79.0506
135.742 6316 79.4733
135.859 6301 79.3788
135.977 6375 79.8436
136.094 6322 79.511
136.211 6386 79.9125
136.329 6376 79.8499
136.446 6591 81.185
136.564 6345 79.6555
136.681 6526 80.7837
136.798 6487 80.5419
136.915 6636 81.4616
137.033 6505 80.6536
137.15 6375 79.8436
137.267 6057 77.8267
137.384 5720 75.6307
137.502 5338 73.0616
137.619 4865 69.7496
137.736 4454 66.7383
137.853 4121 64.195
137.97 4140 64.3428
138.087 4775 69.1014
138.204 5660 75.233
138.321 6451 80.3181
138.438 6845 82.7345
138.555 7003 83.6839
138.672 6970 83.4865
138.788 7080 84.1427
138.905 7194 84.8175
139.022 7351 85.738
139.139 7112 84.3327
139.255 7308 85.4868
139.372 7394 85.9884
139.488 7333 85.6329
139.605 7170 84.6759
139.721 7360 85.7904
139.838 7254 85.1704
139.954 7208 84.8999
140.071 7208 84.8999
140.187 7370 85.8487
140.303 7267 85.2467
140.419 7402 86.0349
140.535 7107 84.303
140.652 7120 84.3801
140.768 0 1
140.884 0 1
141 0 1
141.115 0 1
141.231 0 1
141.347 0 1
141.463 0 1
141.578 0 1
141.694 0 1
144.104 0 1
144.219 0 1
144.335 0 1
144.45 0 1
144.566 0 1
144.682 0 1
144.798 0 1
144.914 0 1
145.03 0 1
145.146 7269 85.2584
145.262 7235 85.0588
145.378 7204 84.8764
145.494 7158 84.605
145.61 6954 83.3906
145.726 6866 82.8613
145.842 6705 81.8841
145.959 6277 79.2275
146.075 5893 76.7659
146.192 5509 74.2226
146.308 5276 72.6361
146.425 5078 71.2601
146.541 5193 72.0625
146.658 5327 72.9863
146.774 5547 74.4782
146.891 6024 77.6144
147.008 6906 83.1023
147.125 7209 84.9058
147.241 7320 85.557
147.358 7464 86.3944
147.475 7351 85.738
147.592 7552 86.9022
147.709 7420 86.1394
147.826 7276 85.2995
147.943 7582 87.0747
148.06 7283 85.3405
148.177 7328 85.6037
148.294 7335 85.6446
148.411 7209 84.9058
148.528 7393 85.9826
148.645 7246 85.1234
148.762 7367 85.8312
148.88 7373 85.8662
148.997 6911 83.1324
149.114 7429 86.1916
149.231 7044 83.9285
149.349 6979 83.5404
149.466 6777 82.3225
149.583 6351 79.6932
149.701 5883 76.7007
149.818 5615 74.9333
149.935 5452 73.8377
150.053 5343 73.0958
150.17 5294 72.7599
150.287 5560 74.5654
150.405 6005 77.4919
150.522 6272 79.196
150.64 6568 81.0432
150.757 7140 84.4985
150.875 7465 86.4002
150.992 7546 86.8677
151.11 7496 86.5794
151.227 7591 87.1263
151.344 7567 86.9885
151.462 7604 87.2009
151.579 7422 86.151
151.697 7487 86.5275
151.814 7638 87.3957
151.932 7546 86.8677
152.049 7566 86.9828
152.167 7614 87.2582
152.284 7390 85.9651
152.402 7467 86.4118
152.519 7668 87.5671
152.636 7485 86.5159
152.754 7340 85.6738
152.871 7294 85.4049
152.989 7063 84.0417
153.106 6749 82.1523
153.223 6552 80.9444
153.341 6299 79.3662
153.458 5908 76.8635
153.575 5933 77.026
153.693 5696 75.4718
153.81 5941 77.0779
153.927 6187 78.6575
154.044 6373 79.8311
154.162 6862 82.8372
154.279 7184 84.7585
154.396 7636 87.3842
154.513 7823 88.4477
154.63 8082 89.8999
154.747 7914 88.9607
154.864 7874 88.7356
154.981 8001 89.4483
155.098 7824 88.4534
155.215 8004 89.4651
155.332 7965 89.2468
155.449 8095 89.9722
155.566 7978 89.3197
155.683 8100 90
155.8 7991 89.3924
155.917 8029 89.6047
156.033 8009 89.493
156.15 0 1
156.267 0 1
156.383 0 1
156.5 0 1
156.617 0 1
156.733 0 1
156.85 0 1
156.966 0 1
157.082 0 1
157.199 0 1
157.315 0 1
157.431 0 1
157.547 0 1
157.664 0 1
157.78 0 1
157.896 0 1
158.012 0 1
158.128 0 1
158.244 0 1
158.359 0 1
158.475 0 1
158.591 0 1
158.706 0 1
