
6.15755 0 1
6.2731 0 1
6.3887 0 1
6.50437 0 1
6.62009 0 1
6.73587 0 1
6.8517 0 1
6.96759 0 1
7.08353 0 1
7.19952 0 1
7.31557 0 1
7.43166 0 1
7.54781 0 1
7.664 0 1
7.78024 0 1
7.89653 0 1
8.01286 0 1
8.12924 0 1
8.24567 0 1
8.36213 0 1
8.47864 0 1
8.59519 0 1
8.71178 0 1
8.82841 0 1
8.94508 0 1
9.06179 0 1
9.17853 0 1
9.29531 0 1
9.41212 0 1
9.52897 0 1
9.64584 0 1
9.76276 0 1
9.8797 0 1
9.99667 0 1
10.1137 0 1
10.2307 0 1
10.3478 0 1
10.4648 0 1
10.5819 0 1
10.6991 0 1
10.8162 0 1
10.9334 0 1
11.0506 0 1
11.1678 0 1
11.285 0 1
11.4023 0 1
11.5196 0 1
11.6369 0 1
11.7542 0 1
11.8715 0 1
11.9888 0 1
12.1062 0 1
12.2235 0 1
12.3409 0 1
12.4582 0 1
12.5756 0 1
12.693 0 1
12.8104 0 1
12.9278 0 1
13.0452 0 1
13.1626 0 1
13.28 0 1
13.3974 0 1
13.5149 0 1
13.6323 0 1
13.7497 0 1
13.8671 0 1
13.9845 0 1
14.1019 0 1
14.2193 0 1
14.3367 0 1
14.4541 0 1
14.5714 0 1
14.6888 0 1
14.8062 0 1
14.9235 0 1
15.0408 745 27.2947
15.1581 741 27.2213
15.2755 841 29
15.3927 793 28.1603
15.51 825 28.7228
15.6273 815 28.5482
15.7445 794 28.178
15.8617 838 28.9482
15.9789 778 27.8927
16.0961 838 28.9482
16.2132 759 27.55
16.3304 821 28.6531
16.4475 859 29.3087
16.5646 804 28.3549
16.6816 833 28.8617
16.7986 860 29.3258
16.9156 939 30.6431
17.0326 959 30.9677
17.1496 897 29.95
17.2665 926 30.4302
17.3833 906 30.0998
17.5002 896 29.9333
17.617 876 29.5973
17.7338 852 29.189
17.8505 809 28.4429
17.9672 760 27.5681
18.0839 815 28.5482
18.2005 845 29.0689
18.3171 893 29.8831
18.4337 858 29.2916
18.5502 883 29.7153
18.6666 885 29.7489
18.7831 878 29.6311
18.8994 961 31
19.0158 871 29.5127
19.1321 854 29.2233
19.2483 829 28.7924
19.3645 826 28.7402
19.4806 762 27.6043
19.5967 715 26.7395
19.7128 626 25.02
19.8288 645 25.3969
19.9447 510 22.5832
20.0606 0 1
20.1764 0 1
20.2922 0 1
20.4079 0 1
20.5236 0 1
20.6392 0 1
20.7548 0 1
20.8702 0 1
23.3078 0 1
23.4233 0 1
23.539 0 1
23.6547 0 1
23.7704 0 1
23.8862 0 1
24.0021 0 1
24.118 0 1
24.234 0 1
24.35 0 1
24.4661 336 18.3303
24.5822 432 20.7846
24.6984 476 21.8174
24.8146 542 23.2809
24.9309 590 24.2899
25.0472 667 25.8263
25.1636 706 26.5707
25.28 717 26.7769
25.3965 819 28.6182
25.513 823 28.688
25.6296 856 29.2575
25.7462 915 30.249
25.8628 968 31.1127
25.9795 926 30.4302
26.0962 1024 32
26.213 878 29.6311
26.3298 877 29.6142
26.4466 882 29.6985
26.5635 859 29.3087
26.6804 788 28.0713
26.7973 864 29.3939
26.9143 836 28.9137
27.0313 861 29.3428
27.1483 866 29.4279
27.2653 931 30.5123
27.3824 1009 31.7648
27.4996 913 30.2159
27.6167 938 30.6268
27.7339 924 30.3974
27.8511 900 30
27.9683 842 29.0172
28.0855 835 28.8964
28.2028 846 29.0861
28.3201 764 27.6405
28.4374 759 27.55
28.5547 731 27.037
28.6721 754 27.4591
28.7894 830 28.8097
28.9068 879 29.6479
29.0242 940 30.6594
29.1416 845 29.0689
29.259 886 29.7658
29.3764 950 30.8221
29.4939 967 31.0966
29.6113 904 30.0666
29.7288 860 29.3258
29.8463 800 28.2843
29.9638 787 28.0535
30.0812 772 27.7849
30.1987 817 28.5832
30.3162 767 27.6948
30.4337 831 28.8271
30.5512 905 30.0832
30.6687 833 28.8617
30.7862 877 29.6142
30.9037 932 30.5287
31.0212 926 30.4302
31.1387 886 29.7658
31.2562 824 28.7054
31.3737 870 29.4958
31.4912 875 29.5804
31.6087 786 28.0357
31.7262 866 29.4279
31.8436 794 28.178
31.9611 758 27.5318
32.0785 701 26.4764
32.1959 738 27.1662
32.3134 846 29.0861
32.4308 763 27.6225
32.5482 864 29.3939
32.6655 854 29.2233
32.7829 900 30
32.9002 888 29.7993
33.0176 924 30.3974
33.1349 851 29.1719
33.2522 908 30.133
33.3694 796 28.2135
33.4867 791 28.1247
33.6039 741 27.2213
33.7211 714 26.7208
33.8383 675 25.9808
33.9554 791 28.1247
34.0725 777 27.8747
34.1896 794 28.178
34.3067 819 28.6182
34.4237 853 29.2062
34.5407 886 29.7658
34.6577 907 30.1164
34.7746 913 30.2159
34.8915 831 28.8271
35.0084 835 28.8964
35.1252 814 28.5307
35.242 815 28.5482
35.3587 800 28.2843
35.4755 784 28
35.5921 678 26.0384
35.7088 701 26.4764
35.8254 671 25.9037
35.9419 673 25.9422
36.0584 755 27.4773
36.1749 758 27.5318
36.2913 737 27.1477
36.4077 788 28.0713
36.524 772 27.7849
36.6403 777 27.8747
36.7565 743 27.258
36.8727 657 25.632
36.9889 682 26.1151
37.1049 579 24.0624
37.221 0 1
37.3369 0 1
37.4529 0 1
37.5687 0 1
37.6845 0 1
37.8003 0 1
37.916 0 1
38.0316 0 1
38.1472 0 1
40.5851 0 1
40.7008 0 1
40.8164 0 1
40.9322 0 1
41.048 0 1
41.1639 0 1
41.2798 0 1
41.3958 0 1
41.5118 0 1
41.6279 0 1
41.744 445 21.095
41.8602 450 21.2132
41.9765 476 21.8174
42.0928 501 22.383
42.2091 517 22.7376
42.3255 511 22.6053
42.4419 498 22.3159
42.5584 488 22.0907
42.675 560 23.6643
42.7915 632 25.1396
42.9081 625 25
43.0248 677 26.0192
43.1415 663 25.7488
43.2582 696 26.3818
43.375 703 26.5141
43.4918 701 26.4764
43.6087 711 26.6646
43.7256 721 26.8514
43.8425 690 26.2679
43.9595 634 25.1794
44.0765 640 25.2982
44.1935 658 25.6515
44.3106 646 25.4165
44.4277 593 24.3516
44.5448 566 23.7908
44.6619 587 24.2281
44.7791 561 23.6854
44.8963 644 25.3772
45.0136 661 25.7099
45.1308 724 26.9072
45.2481 738 27.1662
45.3654 742 27.2397
45.4827 785 28.0179
45.6001 682 26.1151
45.7174 708 26.6083
45.8348 651 25.5147
45.9522 638 25.2587
46.0697 602 24.5357
46.1871 551 23.4734
46.3046 607 24.6374
46.422 615 24.7992
46.5395 636 25.219
46.657 684 26.1534
46.7745 662 25.7294
46.892 721 26.8514
47.0096 729 27
47.1271 707 26.5895
47.2446 759 27.55
47.3622 743 27.258
47.4797 738 27.1662
47.5973 707 26.5895
47.7149 717 26.7769
47.8324 700 26.4575
47.95 660 25.6905
48.0675 631 25.1197
48.1851 588 24.2487
48.3027 598 24.454
48.4202 652 25.5343
48.5378 664 25.7682
48.6554 716 26.7582
48.7729 762 27.6043
48.8904 677 26.0192
49.008 749 27.3679
49.1255 701 26.4764
49.243 684 26.1534
49.3605 651 25.5147
49.478 574 23.9583
49.5955 601 24.5153
49.713 565 23.7697
49.8304 575 23.9792
49.9479 588 24.2487
50.0653 659 25.671
50.1827 677 26.0192
50.3001 701 26.4764
50.4175 684 26.1534
50.5348 721 26.8514
50.6521 718 26.7955
50.7694 726 26.9444
50.8867 723 26.8887
51.004 727 26.9629
51.1212 651 25.5147
51.2384 675 25.9808
51.3556 653 25.5539
51.4727 622 24.9399
51.5899 593 24.3516
51.707 556 23.5797
51.824 587 24.2281
51.9411 634 25.1794
52.0581 672 25.923
52.175 725 26.9258
52.2919 768 27.7128
52.4088 726 26.9444
52.5257 784 28
52.6425 716 26.7582
52.7593 764 27.6405
52.876 813 28.5132
52.9927 666 25.807
53.1094 589 24.2693
53.226 579 24.0624
53.3426 565 23.7697
53.4591 547 23.388
53.5756 641 25.318
53.692 602 24.5357
53.8084 581 24.1039
53.9248 504 22.4499
54.0411 495 22.2486
54.1573 491 22.1585
54.2735 0 1
54.3896 0 1
54.5057 0 1
54.6217 0 1
54.7377 0 1
54.8537 0 1
54.9695 0 1
55.0853 0 1
55.2011 0 1
55.3168 0 1
55.4324 0 1
57.824 0 1
57.9396 0 1
58.0553 0 1
58.1711 0 1
58.2869 0 1
58.4028 0 1
58.5187 0 1
58.6347 0 1
58.7508 0 1
58.8669 0 1
58.983 545 23.3452
59.0992 533 23.0868
59.2155 618 24.8596
59.3318 692 26.3059
59.4482 756 27.4955
59.5646 783 27.9821
59.681 741 27.2213
59.7975 851 29.1719
59.9141 789 28.0891
60.0306 842 29.0172
60.1473 769 27.7308
60.2639 819 28.6182
60.3807 736 27.1293
60.4974 743 27.258
60.6142 755 27.4773
60.731 856 29.2575
60.8479 894 29.8998
60.9648 878 29.6311
61.0818 911 30.1828
61.1987 867 29.4449
61.3158 871 29.5127
61.4328 904 30.0666
61.5499 879 29.6479
61.667 741 27.2213
61.7841 744 27.2764
61.9013 764 27.6405
62.0185 707 26.5895
62.1357 785 28.0179
62.253 844 29.0517
62.3702 890 29.8329
62.4875 870 29.4958
62.6049 901 30.0167
62.7222 888 29.7993
62.8396 897 29.95
62.9569 909 30.1496
63.0743 941 30.6757
63.1918 859 29.3087
63.3092 901 30.0167
63.4267 898 29.9666
63.5441 889 29.8161
63.6616 805 28.3725
63.7791 823 28.688
63.8966 709 26.6271
64.0142 731 27.037
64.1317 790 28.1069
64.2492 767 27.6948
64.3668 848 29.1204
64.4843 870 29.4958
64.6019 868 29.4618
64.7195 908 30.133
64.837 933 30.545
64.9546 917 30.282
65.0722 853 29.2062
65.1898 815 28.5482
65.3074 721 26.8514
65.4249 717 26.7769
65.5425 689 26.2488
65.6601 730 27.0185
65.7777 784 28
65.8952 807 28.4077
66.0128 812 28.4956
66.1304 943 30.7083
66.2479 855 29.2404
66.3655 906 30.0998
66.483 1004 31.686
66.6005 912 30.1993
66.718 935 30.5778
66.8355 874 29.5635
66.953 870 29.4958
67.0705 885 29.7489
67.1879 857 29.2746
67.3054 875 29.5804
67.4228 727 26.9629
67.5402 756 27.4955
67.6576 743 27.258
67.7749 759 27.55
67.8923 901 30.0167
68.0096 920 30.3315
68.1269 876 29.5973
68.2442 1013 31.8277
68.3614 985 31.3847
68.4787 1011 31.7962
68.5958 988 31.4325
68.713 940 30.6594
68.8302 869 29.4788
68.9473 798 28.2489
69.0643 870 29.4958
69.1814 775 27.8388
69.2984 794 28.178
69.4154 920 30.3315
69.5323 953 30.8707
69.6492 995 31.5436
69.7661 1025 32.0156
69.8829 1018 31.9061
69.9997 1033 32.1403
70.1165 1024 32
70.2332 962 31.0161
70.3499 999 31.607
70.4665 944 30.7246
70.5831 961 31
70.6996 880 29.6648
70.8161 833 28.8617
70.9326 718 26.7955
71.049 677 26.0192
71.1653 565 23.7697
71.2817 429 20.7123
71.3979 452 21.2603
71.5141 377 19.4165
71.6303 377 19.4165
71.7464 347 18.6279
71.8624 0 1
71.9784 0 1
72.0944 0 1
72.2102 0 1
72.3261 0 1
72.4418 0 1
72.5575 0 1
72.6732 0 1
75.1054 0 1
75.2209 0 1
75.3365 0 1
75.4521 0 1
75.5678 0 1
75.6835 0 1
75.7993 0 1
75.9151 0 1
76.031 0 1
76.147 642 25.3377
76.263 622 24.9399
76.3791 614 24.779
76.4952 597 24.4336
76.6113 572 23.9165
76.7276 656 25.6125
76.8438 653 25.5539
76.9601 775 27.8388
77.0765 836 28.9137
77.1929 794 28.178
77.3093 826 28.7402
77.4258 840 28.9828
77.5423 833 28.8617
77.6589 811 28.4781
77.7755 754 27.4591
77.8921 710 26.6458
78.0088 628 25.0599
78.1256 615 24.7992
78.2423 560 23.6643
78.3591 612 24.7386
78.4759 670 25.8844
78.5928 713 26.7021
78.7097 740 27.2029
78.8266 772 27.7849
78.9436 798 28.2489
79.0606 776 27.8568
79.1776 777 27.8747
79.2946 791 28.1247
79.4117 777 27.8747
79.5288 847 29.1033
79.6459 768 27.7128
79.7631 756 27.4955
79.8802 758 27.5318
79.9974 737 27.1477
80.1147 678 26.0384
80.2319 615 24.7992
80.3491 638 25.2587
80.4664 682 26.1151
80.5837 682 26.1151
80.701 739 27.1846
80.8183 746 27.313
80.9357 764 27.6405
81.053 806 28.3901
81.1704 827 28.7576
81.2877 769 27.7308
81.4051 826 28.7402
81.5225 694 26.3439
81.6399 701 26.4764
81.7573 618 24.8596
81.8747 581 24.1039
81.9922 582 24.1247
82.1096 656 25.6125
82.227 726 26.9444
82.3444 707 26.5895
82.4619 842 29.0172
82.5793 775 27.8388
82.6967 885 29.7489
82.8142 901 30.0167
82.9316 846 29.0861
83.049 831 28.8271
83.1664 820 28.6356
83.2838 837 28.931
83.4012 854 29.2233
83.5186 806 28.3901
83.636 713 26.7021
83.7534 777 27.8747
83.8708 610 24.6982
83.9881 633 25.1595
84.1055 652 25.5343
84.2228 698 26.4197
84.3401 810 28.4605
84.4575 831 28.8271
84.5747 806 28.3901
84.692 783 27.9821
84.8093 832 28.8444
84.9265 870 29.4958
85.0437 788 28.0713
85.1609 703 26.5141
85.2781 675 25.9808
85.3952 658 25.6515
85.5123 610 24.6982
85.6294 620 24.8998
85.7465 678 26.0384
85.8636 727 26.9629
85.9806 796 28.2135
86.0976 837 28.931
86.2145 833 28.8617
86.3315 801 28.3019
86.4484 911 30.1828
86.5652 854 29.2233
86.682 866 29.4279
86.7988 844 29.0517
86.9156 815 28.5482
87.0323 864 29.3939
87.149 764 27.6405
87.2657 732 27.0555
87.3823 617 24.8395
87.4988 556 23.5797
87.6154 558 23.622
87.7318 549 23.4307
87.8483 608 24.6577
87.9647 631 25.1197
88.081 653 25.5539
88.1973 658 25.6515
88.3136 629 25.0799
88.4298 601 24.5153
88.546 539 23.2164
88.6621 471 21.7025
88.7781 350 18.7083
88.8942 0 1
89.0101 0 1
89.126 0 1
89.2419 0 1
89.3577 0 1
89.4734 0 1
89.5891 0 1
89.7047 0 1
89.8203 0 1
89.9358 0 1
92.3269 0 1
92.4424 0 1
92.558 0 1
92.6736 0 1
92.7893 0 1
92.905 0 1
93.0208 0 1
93.1366 0 1
93.2525 0 1
93.3685 0 1
93.4845 0 1
93.6005 621 24.9199
93.7167 645 25.3969
93.8328 683 26.1343
93.949 672 25.923
94.0653 714 26.7208
94.1816 722 26.8701
94.2979 686 26.1916
94.4143 699 26.4386
94.5307 640 25.2982
94.6472 561 23.6854
94.7637 572 23.9165
94.8803 661 25.7099
94.9969 717 26.7769
95.1135 772 27.7849
95.2302 754 27.4591
95.3469 771 27.7669
95.4637 816 28.5657
95.5805 805 28.3725
95.6973 851 29.1719
95.8142 827 28.7576
95.9311 836 28.9137
96.048 839 28.9655
96.1649 817 28.5832
96.2819 818 28.6007
96.3989 770 27.7489
96.516 729 27
96.633 708 26.6083
96.7501 657 25.632
96.8673 607 24.6374
96.9844 701 26.4764
97.1016 752 27.4226
97.2188 712 26.6833
97.336 830 28.8097
97.4532 797 28.2312
97.5704 843 29.0345
97.6877 837 28.931
97.805 828 28.775
97.9223 781 27.9464
98.0396 704 26.533
98.1569 659 25.671
98.2743 631 25.1197
98.3916 589 24.2693
98.509 628 25.0599
98.6264 723 26.8887
98.7438 759 27.55
98.8612 847 29.1033
98.9786 817 28.5832
99.096 866 29.4279
99.2134 870 29.4958
99.3308 859 29.3087
99.4482 874 29.5635
99.5656 908 30.133
99.6831 868 29.4618
99.8005 865 29.4109
99.9179 840 28.9828
100.035 857 29.2746
100.153 727 26.9629
100.27 722 26.8701
100.388 712 26.6833
100.505 731 27.037
100.622 735 27.1109
100.74 811 28.4781
100.857 848 29.1204
100.975 797 28.2312
101.092 907 30.1164
101.209 860 29.3258
101.327 920 30.3315
101.444 915 30.249
101.561 773 27.8029
101.679 737 27.1477
101.796 649 25.4755
101.913 631 25.1197
102.03 667 25.8263
102.148 727 26.9629
102.265 792 28.1425
102.382 881 29.6816
102.499 846 29.0861
102.616 853 29.2062
102.733 827 28.7576
102.851 907 30.1164
102.968 950 30.8221
103.085 934 30.5614
103.202 932 30.5287
103.319 978 31.273
103.436 905 30.0832
103.552 811 28.4781
103.669 798 28.2489
103.786 774 27.8209
103.903 755 27.4773
104.02 738 27.1662
104.137 808 28.4253
104.253 840 28.9828
104.37 928 30.4631
104.487 964 31.0483
104.603 904 30.0666
104.72 926 30.4302
104.836 847 29.1033
104.953 829 28.7924
105.069 715 26.7395
105.186 662 25.7294
105.302 607 24.6374
105.418 593 24.3516
105.535 592 24.3311
105.651 624 24.98
105.767 626 25.02
105.883 580 24.0832
105.999 573 23.9374
106.115 0 1
106.231 0 1
106.347 0 1
106.463 0 1
106.579 0 1
106.694 0 1
106.81 0 1
106.926 0 1
107.041 0 1
107.157 0 1
109.576 0 1
109.692 0 1
109.807 0 1
109.923 0 1
110.039 0 1
110.155 0 1
110.27 0 1
110.386 0 1
110.502 0 1
110.618 377 19.4165
110.735 526 22.9347
110.851 579 24.0624
110.967 604 24.5764
111.083 695 26.3629
111.199 813 28.5132
111.316 779 27.9106
111.432 820 28.6356
111.549 875 29.5804
111.665 810 28.4605
111.782 886 29.7658
111.898 793 28.1603
112.015 831 28.8271
112.132 733 27.074
112.248 728 26.9815
112.365 690 26.2679
112.482 638 25.2587
112.599 716 26.7582
112.716 774 27.8209
112.832 840 28.9828
112.949 842 29.0172
113.066 820 28.6356
113.183 864 29.3939
113.3 848 29.1204
113.417 792 28.1425
113.534 759 27.55
113.652 715 26.7395
113.769 712 26.6833
113.886 654 25.5734
114.003 606 24.6171
114.12 668 25.8457
114.238 732 27.0555
114.355 704 26.533
114.472 740 27.2029
114.589 815 28.5482
114.707 828 28.775
114.824 861 29.3428
114.942 860 29.3258
115.059 876 29.5973
115.176 863 29.3769
115.294 872 29.5296
115.411 790 28.1069
115.529 811 28.4781
115.646 812 28.4956
115.764 773 27.8029
115.881 678 26.0384
115.999 684 26.1534
116.116 684 26.1534
116.234 728 26.9815
116.351 725 26.9258
116.469 834 28.8791
116.586 778 27.8927
116.704 888 29.7993
116.821 881 29.6816
116.939 795 28.1957
117.056 829 28.7924
117.174 759 27.55
117.291 697 26.4008
117.409 631 25.1197
117.526 616 24.8193
117.644 642 25.3377
117.761 672 25.923
117.879 762 27.6043
117.996 819 28.6182
118.114 811 28.4781
118.231 881 29.6816
118.349 806 28.3901
118.466 907 30.1164
118.584 858 29.2916
118.701 894 29.8998
118.819 797 28.2312
118.936 873 29.5466
119.053 760 27.5681
119.171 782 27.9643
119.288 750 27.3861
119.405 715 26.7395
119.523 681 26.096
119.64 662 25.7294
119.757 714 26.7208
119.875 728 26.9815
119.992 678 26.0384
120.109 781 27.9464
120.226 801 28.3019
120.343 819 28.6182
120.46 851 29.1719
120.578 837 28.931
120.695 752 27.4226
120.812 708 26.6083
120.929 769 27.7308
121.046 651 25.5147
121.163 592 24.3311
121.279 618 24.8596
121.396 629 25.0799
121.513 651 25.5147
121.63 683 26.1343
121.747 658 25.6515
121.863 670 25.8844
121.98 685 26.1725
122.097 675 25.9808
122.213 710 26.6458
122.33 695 26.3629
122.446 610 24.6982
122.563 605 24.5967
122.679 544 23.3238
122.795 607 24.6374
122.912 500 22.3607
123.028 422 20.5426
123.144 372 19.2873
123.26 328 18.1108
123.377 0 1
123.493 0 1
123.609 0 1
123.725 0 1
123.84 0 1
123.956 0 1
124.072 0 1
124.188 0 1
124.303 0 1
124.419 0 1
126.852 0 1
126.968 0 1
127.083 0 1
127.199 0 1
127.315 0 1
127.431 0 1
127.547 0 1
127.663 0 1
127.779 0 1
127.895 0 1
128.011 0 1
128.127 0 1
128.243 0 1
128.359 877 29.6142
128.476 825 28.7228
128.592 858 29.2916
128.708 847 29.1033
128.825 856 29.2575
128.941 904 30.0666
129.058 903 30.05
129.174 971 31.1609
129.291 985 31.3847
129.408 1027 32.0468
129.524 1090 33.0151
129.641 1093 33.0606
129.758 1016 31.8748
129.875 976 31.241
129.992 914 30.2324
130.108 828 28.775
130.225 809 28.4429
130.342 800 28.2843
130.459 803 28.3373
130.576 874 29.5635
130.693 949 30.8058
130.81 957 30.9354
130.928 953 30.8707
131.045 1006 31.7175
131.162 1010 31.7805
131.279 1033 32.1403
131.396 992 31.496
131.513 1033 32.1403
131.631 1051 32.4191
131.748 1004 31.686
131.865 961 31
131.983 955 30.9031
132.1 880 29.6648
132.217 816 28.5657
132.335 847 29.1033
132.452 900 30
132.57 956 30.9192
132.687 1018 31.9061
132.804 1012 31.8119
132.922 1081 32.8786
133.039 1037 32.2025
133.157 1026 32.0312
133.274 1039 32.2335
133.392 986 31.4006
133.509 945 30.7409
133.627 841 29
133.744 806 28.3901
133.862 774 27.8209
133.979 803 28.3373
134.097 872 29.5296
134.214 924 30.3974
134.332 911 30.1828
134.449 965 31.0644
134.567 1025 32.0156
134.684 1000 31.6228
134.802 987 31.4166
134.919 1020 31.9374
135.037 1028 32.0624
135.154 959 30.9677
135.272 970 31.1448
135.389 950 30.8221
135.507 909 30.1496
135.624 876 29.5973
135.742 894 29.8998
135.859 797 28.2312
135.977 808 28.4253
136.094 890 29.8329
136.211 908 30.133
136.329 1029 32.078
136.446 1005 31.7017
136.564 941 30.6757
136.681 985 31.3847
136.798 1021 31.9531
136.915 954 30.8869
137.033 943 30.7083
137.15 892 29.8664
137.267 827 28.7576
137.384 759 27.55
137.502 680 26.0768
137.619 771 27.7669
137.736 769 27.7308
137.853 819 28.6182
137.97 866 29.4279
138.087 861 29.3428
138.204 910 30.1662
138.321 876 29.5973
138.438 917 30.282
138.555 888 29.7993
138.672 923 30.3809
138.788 865 29.4109
138.905 828 28.775
139.022 771 27.7669
139.139 767 27.6948
139.255 697 26.4008
139.372 626 25.02
139.488 596 24.4131
139.605 552 23.4947
139.721 538 23.1948
139.838 578 24.0416
139.954 555 23.5584
140.071 583 24.1454
140.187 525 22.9129
140.303 482 21.9545
140.419 466 21.587
140.535 408 20.199
140.652 402 20.0499
140.768 0 1
140.884 0 1
141 0 1
141.115 0 1
141.231 0 1
141.347 0 1
141.463 0 1
141.578 0 1
141.694 0 1
144.104 0 1
144.219 0 1
144.335 0 1
144.45 0 1
144.566 0 1
144.682 0 1
144.798 0 1
144.914 0 1
145.03 0 1
145.146 591 24.3105
145.262 660 25.6905
145.378 667 25.8263
145.494 664 25.7682
145.61 697 26.4008
145.726 625 25
145.842 659 25.671
145.959 672 25.923
146.075 547 23.388
146.192 550 23.4521
146.308 553 23.516
146.425 546 23.3666
146.541 567 23.8118
146.658 645 25.3969
146.774 618 24.8596
146.891 608 24.6577
147.008 677 26.0192
147.125 700 26.4575
147.241 648 25.4558
147.358 733 27.074
147.475 676 26
147.592 671 25.9037
147.709 628 25.0599
147.826 625 25
147.943 584 24.1661
148.06 581 24.1039
148.177 557 23.6008
148.294 621 24.9199
148.411 588 24.2487
148.528 626 25.02
148.645 683 26.1343
148.762 641 25.318
148.88 666 25.807
148.997 674 25.9615
149.114 675 25.9808
149.231 667 25.8263
149.349 693 26.3249
149.466 624 24.98
149.583 642 25.3377
149.701 584 24.1661
149.818 538 23.1948
149.935 579 24.0624
150.053 539 23.2164
150.17 542 23.2809
150.287 589 24.2693
150.405 621 24.9199
150.522 595 24.3926
150.64 639 25.2784
150.757 655 25.593
150.875 613 24.7588
150.992 618 24.8596
151.11 680 26.0768
151.227 625 25
151.344 606 24.6171
151.462 658 25.6515
151.579 615 24.7992
151.697 591 24.3105
151.814 554 23.5372
151.932 550 23.4521
152.049 577 24.0208
152.167 568 23.8328
152.284 622 24.9399
152.402 631 25.1197
152.519 626 25.02
152.636 625 25
152.754 609 24.6779
152.871 610 24.6982
152.989 646 25.4165
153.106 621 24.9199
153.223 594 24.3721
153.341 524 22.891
153.458 539 23.2164
153.575 510 22.5832
153.693 493 22.2036
153.81 566 23.7908
153.927 556 23.5797
154.044 552 23.4947
154.162 603 24.5561
154.279 600 24.4949
154.396 642 25.3377
154.513 639 25.2784
154.63 614 24.779
154.747 634 25.1794
154.864 594 24.3721
154.981 590 24.2899
155.098 556 23.5797
155.215 588 24.2487
155.332 573 23.9374
155.449 530 23.0217
155.566 538 23.1948
155.683 522 22.8473
155.8 523 22.8692
155.917 540 23.2379
156.033 551 23.4734
156.15 0 1
156.267 0 1
156.383 0 1
156.5 0 1
156.617 0 1
156.733 0 1
156.85 0 1
156.966 0 1
157.082 0 1
157.199 0 1
157.315 0 1
157.431 0 1
157.547 0 1
157.664 0 1
157.78 0 1
157.896 0 1
158.012 0 1
158.128 0 1
158.244 0 1
158.359 0 1
158.475 0 1
158.591 0 1
158.706 0 1
