
6.15755 0 1
6.2731 0 1
6.3887 0 1
6.50437 0 1
6.62009 0 1
6.73587 0 1
6.8517 0 1
6.96759 0 1
7.08353 0 1
7.19952 0 1
7.31557 0 1
7.43166 0 1
7.54781 0 1
7.664 0 1
7.78024 0 1
7.89653 0 1
8.01286 0 1
8.12924 0 1
8.24567 0 1
8.36213 0 1
8.47864 0 1
8.59519 0 1
8.71178 0 1
8.82841 0 1
8.94508 0 1
9.06179 0 1
9.17853 0 1
9.29531 0 1
9.41212 0 1
9.52897 0 1
9.64584 0 1
9.76276 0 1
9.8797 0 1
9.99667 0 1
10.1137 0 1
10.2307 0 1
10.3478 0 1
10.4648 0 1
10.5819 0 1
10.6991 0 1
10.8162 0 1
10.9334 0 1
11.0506 0 1
11.1678 0 1
11.285 0 1
11.4023 0 1
11.5196 0 1
11.6369 0 1
11.7542 0 1
11.8715 0 1
11.9888 0 1
12.1062 0 1
12.2235 0 1
12.3409 0 1
12.4582 0 1
12.5756 0 1
12.693 0 1
12.8104 0 1
12.9278 0 1
13.0452 0 1
13.1626 0 1
13.28 0 1
13.3974 0 1
13.5149 0 1
13.6323 0 1
13.7497 0 1
13.8671 0 1
13.9845 0 1
14.1019 0 1
14.2193 0 1
14.3367 0 1
14.4541 0 1
14.5714 0 1
14.6888 0 1
14.8062 0 1
14.9235 0 1
15.0408 865 29.4109
15.1581 906 30.0998
15.2755 946 30.7571
15.3927 979 31.289
15.51 1010 31.7805
15.6273 975 31.225
15.7445 988 31.4325
15.8617 993 31.5119
15.9789 944 30.7246
16.0961 976 31.241
16.2132 925 30.4138
16.3304 940 30.6594
16.4475 985 31.3847
16.5646 1042 32.28
16.6816 1052 32.4345
16.7986 1100 33.1662
16.9156 1111 33.3317
17.0326 1149 33.8969
17.1496 1142 33.7935
17.2665 1098 33.1361
17.3833 1074 32.7719
17.5002 1073 32.7567
17.617 1035 32.1714
17.7338 1006 31.7175
17.8505 961 31
17.9672 884 29.7321
18.0839 930 30.4959
18.2005 1023 31.9844
18.3171 1057 32.5115
18.4337 1029 32.078
18.5502 1023 31.9844
18.6666 1100 33.1662
18.7831 1079 32.8481
18.8994 1037 32.2025
19.0158 1020 31.9374
19.1321 1050 32.4037
19.2483 984 31.3688
19.3645 981 31.3209
19.4806 908 30.133
19.5967 810 28.4605
19.7128 782 27.9643
19.8288 702 26.4953
19.9447 669 25.865
20.0606 0 1
20.1764 0 1
20.2922 0 1
20.4079 0 1
20.5236 0 1
20.6392 0 1
20.7548 0 1
20.8702 0 1
23.3078 0 1
23.4233 0 1
23.539 0 1
23.6547 0 1
23.7704 0 1
23.8862 0 1
24.0021 0 1
24.118 0 1
24.234 0 1
24.35 0 1
24.4661 423 20.567
24.5822 551 23.4734
24.6984 584 24.1661
24.8146 640 25.2982
24.9309 674 25.9615
25.0472 713 26.7021
25.1636 777 27.8747
25.28 892 29.8664
25.3965 912 30.1993
25.513 1039 32.2335
25.6296 1076 32.8024
25.7462 1092 33.0454
25.8628 1151 33.9264
25.9795 1128 33.5857
26.0962 1172 34.2345
26.213 1128 33.5857
26.3298 1070 32.7109
26.4466 969 31.1288
26.5635 978 31.273
26.6804 919 30.315
26.7973 1021 31.9531
26.9143 999 31.607
27.0313 1044 32.311
27.1483 1050 32.4037
27.2653 1035 32.1714
27.3824 1155 33.9853
27.4996 1114 33.3766
27.6167 1082 32.8938
27.7339 1084 32.9242
27.8511 1060 32.5576
27.9683 1044 32.311
28.0855 1049 32.3883
28.2028 937 30.6105
28.3201 867 29.4449
28.4374 931 30.5123
28.5547 864 29.3939
28.6721 877 29.6142
28.7894 982 31.3369
28.9068 1000 31.6228
29.0242 1032 32.1248
29.1416 1126 33.5559
29.259 1086 32.9545
29.3764 1120 33.4664
29.4939 1087 32.9697
29.6113 1076 32.8024
29.7288 1066 32.6497
29.8463 1024 32
29.9638 929 30.4795
30.0812 890 29.8329
30.1987 882 29.6985
30.3162 983 31.3528
30.4337 1030 32.0936
30.5512 957 30.9354
30.6687 971 31.1609
30.7862 1027 32.0468
30.9037 1017 31.8904
31.0212 1060 32.5576
31.1387 1049 32.3883
31.2562 1044 32.311
31.3737 1013 31.8277
31.4912 924 30.3974
31.6087 966 31.0805
31.7262 903 30.05
31.8436 910 30.1662
31.9611 860 29.3258
32.0785 860 29.3258
32.1959 877 29.6142
32.3134 912 30.1993
32.4308 962 31.0161
32.5482 977 31.257
32.6655 1015 31.8591
32.7829 1032 32.1248
32.9002 1044 32.311
33.0176 1000 31.6228
33.1349 1046 32.3419
33.2522 1043 32.2955
33.3694 1026 32.0312
33.4867 918 30.2985
33.6039 864 29.3939
33.7211 877 29.6142
33.8383 832 28.8444
33.9554 904 30.0666
34.0725 956 30.9192
34.1896 917 30.282
34.3067 958 30.9516
34.4237 982 31.3369
34.5407 1017 31.8904
34.6577 979 31.289
34.7746 1015 31.8591
34.8915 1012 31.8119
35.0084 938 30.6268
35.1252 934 30.5614
35.242 943 30.7083
35.3587 923 30.3809
35.4755 860 29.3258
35.5921 812 28.4956
35.7088 788 28.0713
35.8254 822 28.6705
35.9419 851 29.1719
36.0584 855 29.2404
36.1749 888 29.7993
36.2913 916 30.2655
36.4077 949 30.8058
36.524 918 30.2985
36.6403 833 28.8617
36.7565 853 29.2062
36.8727 801 28.3019
36.9889 751 27.4044
37.1049 647 25.4362
37.221 0 1
37.3369 0 1
37.4529 0 1
37.5687 0 1
37.6845 0 1
37.8003 0 1
37.916 0 1
38.0316 0 1
38.1472 0 1
40.5851 0 1
40.7008 0 1
40.8164 0 1
40.9322 0 1
41.048 0 1
41.1639 0 1
41.2798 0 1
41.3958 0 1
41.5118 0 1
41.6279 0 1
41.744 439 20.9523
41.8602 460 21.4476
41.9765 552 23.4947
42.0928 635 25.1992
42.2091 585 24.1868
42.3255 578 24.0416
42.4419 581 24.1039
42.5584 585 24.1868
42.675 577 24.0208
42.7915 645 25.3969
42.9081 741 27.2213
43.0248 773 27.8029
43.1415 758 27.5318
43.2582 822 28.6705
43.375 789 28.0891
43.4918 851 29.1719
43.6087 828 28.775
43.7256 819 28.6182
43.8425 796 28.2135
43.9595 793 28.1603
44.0765 753 27.4408
44.1935 714 26.7208
44.3106 732 27.0555
44.4277 713 26.7021
44.5448 678 26.0384
44.6619 654 25.5734
44.7791 649 25.4755
44.8963 740 27.2029
45.0136 795 28.1957
45.1308 855 29.2404
45.2481 833 28.8617
45.3654 809 28.4429
45.4827 823 28.688
45.6001 863 29.3769
45.7174 869 29.4788
45.8348 778 27.8927
45.9522 758 27.5318
46.0697 696 26.3818
46.1871 709 26.6271
46.3046 699 26.4386
46.422 697 26.4008
46.5395 701 26.4764
46.657 783 27.9821
46.7745 834 28.8791
46.892 819 28.6182
47.0096 875 29.5804
47.1271 872 29.5296
47.2446 873 29.5466
47.3622 792 28.1425
47.4797 806 28.3901
47.5973 840 28.9828
47.7149 800 28.2843
47.8324 775 27.8388
47.95 713 26.7021
48.0675 708 26.6083
48.1851 675 25.9808
48.3027 710 26.6458
48.4202 728 26.9815
48.5378 755 27.4773
48.6554 799 28.2666
48.7729 800 28.2843
48.8904 847 29.1033
49.008 821 28.6531
49.1255 839 28.9655
49.243 829 28.7924
49.3605 731 27.037
49.478 706 26.5707
49.5955 632 25.1396
49.713 644 25.3772
49.8304 652 25.5343
49.9479 724 26.9072
50.0653 676 26
50.1827 779 27.9106
50.3001 752 27.4226
50.4175 805 28.3725
50.5348 816 28.5657
50.6521 828 28.775
50.7694 882 29.6985
50.8867 837 28.931
51.004 816 28.5657
51.1212 799 28.2666
51.2384 832 28.8444
51.3556 792 28.1425
51.4727 719 26.8142
51.5899 691 26.2869
51.707 605 24.5967
51.824 679 26.0576
51.9411 672 25.923
52.0581 741 27.2213
52.175 875 29.5804
52.2919 861 29.3428
52.4088 801 28.3019
52.5257 803 28.3373
52.6425 878 29.6311
52.7593 864 29.3939
52.876 788 28.0713
52.9927 720 26.8328
53.1094 729 27
53.226 678 26.0384
53.3426 669 25.865
53.4591 696 26.3818
53.5756 666 25.807
53.692 648 25.4558
53.8084 614 24.779
53.9248 634 25.1794
54.0411 631 25.1197
54.1573 573 23.9374
54.2735 0 1
54.3896 0 1
54.5057 0 1
54.6217 0 1
54.7377 0 1
54.8537 0 1
54.9695 0 1
55.0853 0 1
55.2011 0 1
55.3168 0 1
55.4324 0 1
57.824 0 1
57.9396 0 1
58.0553 0 1
58.1711 0 1
58.2869 0 1
58.4028 0 1
58.5187 0 1
58.6347 0 1
58.7508 0 1
58.8669 0 1
58.983 596 24.4131
59.0992 648 25.4558
59.2155 715 26.7395
59.3318 781 27.9464
59.4482 859 29.3087
59.5646 846 29.0861
59.681 952 30.8545
59.7975 930 30.4959
59.9141 931 30.5123
60.0306 920 30.3315
60.1473 939 30.6431
60.2639 901 30.0167
60.3807 871 29.5127
60.4974 823 28.688
60.6142 943 30.7083
60.731 970 31.1448
60.8479 1043 32.2955
60.9648 1076 32.8024
61.0818 1069 32.6956
61.1987 1101 33.1813
61.3158 1098 33.1361
61.4328 964 31.0483
61.5499 970 31.1448
61.667 905 30.0832
61.7841 858 29.2916
61.9013 830 28.8097
62.0185 863 29.3769
62.1357 870 29.4958
62.253 875 29.5804
62.3702 876 29.5973
62.4875 974 31.209
62.6049 1021 31.9531
62.7222 1087 32.9697
62.8396 1074 32.7719
62.9569 1082 32.8938
63.0743 1082 32.8938
63.1918 1038 32.218
63.3092 1015 31.8591
63.4267 980 31.305
63.5441 1000 31.6228
63.6616 933 30.545
63.7791 871 29.5127
63.8966 879 29.6479
64.0142 757 27.5136
64.1317 881 29.6816
64.2492 991 31.4802
64.3668 1036 32.187
64.4843 1039 32.2335
64.6019 1051 32.4191
64.7195 1068 32.6803
64.837 1128 33.5857
64.9546 1043 32.2955
65.0722 981 31.3209
65.1898 974 31.209
65.3074 856 29.2575
65.4249 844 29.0517
65.5425 761 27.5862
65.6601 827 28.7576
65.7777 928 30.4631
65.8952 978 31.273
66.0128 971 31.1609
66.1304 1041 32.2645
66.2479 1037 32.2025
66.3655 1023 31.9844
66.483 1098 33.1361
66.6005 1004 31.686
66.718 1119 33.4515
66.8355 1041 32.2645
66.953 1067 32.665
67.0705 1009 31.7648
67.1879 962 31.0161
67.3054 927 30.4467
67.4228 878 29.6311
67.5402 858 29.2916
67.6576 826 28.7402
67.7749 901 30.0167
67.8923 873 29.5466
68.0096 1023 31.9844
68.1269 1042 32.28
68.2442 1075 32.7872
68.3614 1058 32.5269
68.4787 1147 33.8674
68.5958 1070 32.7109
68.713 1068 32.6803
68.8302 999 31.607
68.9473 956 30.9192
69.0643 930 30.4959
69.1814 863 29.3769
69.2984 900 30
69.4154 925 30.4138
69.5323 993 31.5119
69.6492 1071 32.7261
69.7661 1128 33.5857
69.8829 1110 33.3167
69.9997 1248 35.327
70.1165 1144 33.8231
70.2332 1161 34.0735
70.3499 1167 34.1614
70.4665 1062 32.5883
70.5831 1015 31.8591
70.6996 925 30.4138
70.8161 887 29.7825
70.9326 826 28.7402
71.049 724 26.9072
71.1653 606 24.6171
71.2817 528 22.9783
71.3979 447 21.1424
71.5141 488 22.0907
71.6303 457 21.3776
71.7464 484 22
71.8624 0 1
71.9784 0 1
72.0944 0 1
72.2102 0 1
72.3261 0 1
72.4418 0 1
72.5575 0 1
72.6732 0 1
75.1054 0 1
75.2209 0 1
75.3365 0 1
75.4521 0 1
75.5678 0 1
75.6835 0 1
75.7993 0 1
75.9151 0 1
76.031 0 1
76.147 777 27.8747
76.263 809 28.4429
76.3791 792 28.1425
76.4952 735 27.1109
76.6113 785 28.0179
76.7276 799 28.2666
76.8438 892 29.8664
76.9601 928 30.4631
77.0765 944 30.7246
77.1929 1056 32.4962
77.3093 1085 32.9393
77.4258 1052 32.4345
77.5423 1013 31.8277
77.6589 1004 31.686
77.7755 966 31.0805
77.8921 820 28.6356
78.0088 802 28.3196
78.1256 746 27.313
78.2423 682 26.1151
78.3591 780 27.9285
78.4759 853 29.2062
78.5928 832 28.8444
78.7097 863 29.3769
78.8266 926 30.4302
78.9436 959 30.9677
79.0606 964 31.0483
79.1776 947 30.7734
79.2946 989 31.4484
79.4117 968 31.1127
79.5288 974 31.209
79.6459 897 29.95
79.7631 948 30.7896
79.8802 908 30.133
79.9974 842 29.0172
80.1147 834 28.8791
80.2319 758 27.5318
80.3491 734 27.0924
80.4664 726 26.9444
80.5837 837 28.931
80.701 857 29.2746
80.8183 939 30.6431
80.9357 938 30.6268
81.053 856 29.2575
81.1704 919 30.315
81.2877 953 30.8707
81.4051 881 29.6816
81.5225 887 29.7825
81.6399 813 28.5132
81.7573 782 27.9643
81.8747 683 26.1343
81.9922 689 26.2488
82.1096 777 27.8747
82.227 798 28.2489
82.3444 869 29.4788
82.4619 921 30.348
82.5793 979 31.289
82.6967 941 30.6757
82.8142 946 30.7571
82.9316 970 31.1448
83.049 944 30.7246
83.1664 939 30.6431
83.2838 940 30.6594
83.4012 918 30.2985
83.5186 853 29.2062
83.636 864 29.3939
83.7534 765 27.6586
83.8708 788 28.0713
83.9881 696 26.3818
84.1055 755 27.4773
84.2228 768 27.7128
84.3401 878 29.6311
84.4575 898 29.9666
84.5747 960 30.9839
84.692 966 31.0805
84.8093 1031 32.1092
84.9265 938 30.6268
85.0437 920 30.3315
85.1609 837 28.931
85.2781 752 27.4226
85.3952 763 27.6225
85.5123 692 26.3059
85.6294 750 27.3861
85.7465 788 28.0713
85.8636 858 29.2916
85.9806 943 30.7083
86.0976 895 29.9166
86.2145 886 29.7658
86.3315 927 30.4467
86.4484 936 30.5941
86.5652 1028 32.0624
86.682 999 31.607
86.7988 979 31.289
86.9156 918 30.2985
87.0323 982 31.3369
87.149 908 30.133
87.2657 850 29.1548
87.3823 747 27.3313
87.4988 653 25.5539
87.6154 621 24.9199
87.7318 640 25.2982
87.8483 667 25.8263
87.9647 720 26.8328
88.081 725 26.9258
88.1973 785 28.0179
88.3136 719 26.8142
88.4298 680 26.0768
88.546 632 25.1396
88.6621 579 24.0624
88.7781 429 20.7123
88.8942 0 1
89.0101 0 1
89.126 0 1
89.2419 0 1
89.3577 0 1
89.4734 0 1
89.5891 0 1
89.7047 0 1
89.8203 0 1
89.9358 0 1
92.3269 0 1
92.4424 0 1
92.558 0 1
92.6736 0 1
92.7893 0 1
92.905 0 1
93.0208 0 1
93.1366 0 1
93.2525 0 1
93.3685 0 1
93.4845 0 1
93.6005 640 25.2982
93.7167 746 27.313
93.8328 764 27.6405
93.949 731 27.037
94.0653 843 29.0345
94.1816 808 28.4253
94.2979 811 28.4781
94.4143 751 27.4044
94.5307 791 28.1247
94.6472 738 27.1662
94.7637 753 27.4408
94.8803 754 27.4591
94.9969 880 29.6648
95.1135 854 29.2233
95.2302 835 28.8964
95.3469 954 30.8869
95.4637 999 31.607
95.5805 1004 31.686
95.6973 1001 31.6386
95.8142 910 30.1662
95.9311 928 30.4631
96.048 963 31.0322
96.1649 933 30.545
96.2819 958 30.9516
96.3989 879 29.6479
96.516 842 29.0172
96.633 800 28.2843
96.7501 757 27.5136
96.8673 722 26.8701
96.9844 706 26.5707
97.1016 859 29.3087
97.2188 836 28.9137
97.336 961 31
97.4532 967 31.0966
97.5704 952 30.8545
97.6877 935 30.5778
97.805 984 31.3688
97.9223 870 29.4958
98.0396 822 28.6705
98.1569 728 26.9815
98.2743 678 26.0384
98.3916 715 26.7395
98.509 766 27.6767
98.6264 800 28.2843
98.7438 883 29.7153
98.8612 919 30.315
98.9786 939 30.6431
99.096 985 31.3847
99.2134 949 30.8058
99.3308 1038 32.218
99.4482 986 31.4006
99.5656 1022 31.9687
99.6831 964 31.0483
99.8005 998 31.5911
99.9179 948 30.7896
100.035 961 31
100.153 845 29.0689
100.27 792 28.1425
100.388 733 27.074
100.505 781 27.9464
100.622 906 30.0998
100.74 952 30.8545
100.857 1021 31.9531
100.975 1001 31.6386
101.092 981 31.3209
101.209 1049 32.3883
101.327 1035 32.1714
101.444 1000 31.6228
101.561 942 30.692
101.679 786 28.0357
101.796 788 28.0713
101.913 724 26.9072
102.03 762 27.6043
102.148 812 28.4956
102.265 904 30.0666
102.382 1006 31.7175
102.499 1038 32.218
102.616 966 31.0805
102.733 999 31.607
102.851 1039 32.2335
102.968 1032 32.1248
103.085 1108 33.2866
103.202 1035 32.1714
103.319 1021 31.9531
103.436 1016 31.8748
103.552 1039 32.2335
103.669 909 30.1496
103.786 852 29.189
103.903 846 29.0861
104.02 842 29.0172
104.137 918 30.2985
104.253 1040 32.249
104.37 1007 31.7333
104.487 1091 33.0303
104.603 1104 33.2265
104.72 1109 33.3017
104.836 1002 31.6544
104.953 933 30.545
105.069 899 29.9833
105.186 744 27.2764
105.302 708 26.6083
105.418 744 27.2764
105.535 667 25.8263
105.651 727 26.9629
105.767 746 27.313
105.883 737 27.1477
105.999 692 26.3059
106.115 0 1
106.231 0 1
106.347 0 1
106.463 0 1
106.579 0 1
106.694 0 1
106.81 0 1
106.926 0 1
107.041 0 1
107.157 0 1
109.576 0 1
109.692 0 1
109.807 0 1
109.923 0 1
110.039 0 1
110.155 0 1
110.27 0 1
110.386 0 1
110.502 0 1
110.618 417 20.4206
110.735 592 24.3311
110.851 647 25.4362
110.967 716 26.7582
111.083 762 27.6043
111.199 901 30.0167
111.316 903 30.05
111.432 934 30.5614
111.549 924 30.3974
111.665 1004 31.686
111.782 946 30.7571
111.898 944 30.7246
112.015 974 31.209
112.132 881 29.6816
112.248 882 29.6985
112.365 753 27.4408
112.482 772 27.7849
112.599 841 29
112.716 874 29.5635
112.832 913 30.2159
112.949 1019 31.9218
113.066 950 30.8221
113.183 977 31.257
113.3 970 31.1448
113.417 957 30.9354
113.534 950 30.8221
113.652 829 28.7924
113.769 764 27.6405
113.886 716 26.7582
114.003 711 26.6646
114.12 698 26.4197
114.238 752 27.4226
114.355 809 28.4429
114.472 881 29.6816
114.589 982 31.3369
114.707 915 30.249
114.824 938 30.6268
114.942 999 31.607
115.059 965 31.0644
115.176 958 30.9516
115.294 937 30.6105
115.411 958 30.9516
115.529 927 30.4467
115.646 825 28.7228
115.764 894 29.8998
115.881 766 27.6767
115.999 750 27.3861
116.116 776 27.8568
116.234 812 28.4956
116.351 842 29.0172
116.469 920 30.3315
116.586 921 30.348
116.704 973 31.1929
116.821 951 30.8383
116.939 932 30.5287
117.056 990 31.4643
117.174 966 31.0805
117.291 780 27.9285
117.409 746 27.313
117.526 658 25.6515
117.644 668 25.8457
117.761 768 27.7128
117.879 803 28.3373
117.996 895 29.9166
118.114 913 30.2159
118.231 920 30.3315
118.349 968 31.1127
118.466 1009 31.7648
118.584 994 31.5278
118.701 984 31.3688
118.819 975 31.225
118.936 954 30.8869
119.053 899 29.9833
119.171 886 29.7658
119.288 881 29.6816
119.405 817 28.5832
119.523 783 27.9821
119.64 739 27.1846
119.757 795 28.1957
119.875 810 28.4605
119.992 841 29
120.109 923 30.3809
120.226 890 29.8329
120.343 933 30.545
120.46 926 30.4302
120.578 906 30.0998
120.695 875 29.5804
120.812 879 29.6479
120.929 850 29.1548
121.046 746 27.313
121.163 673 25.9422
121.279 682 26.1151
121.396 722 26.8701
121.513 734 27.0924
121.63 738 27.1662
121.747 764 27.6405
121.863 739 27.1846
121.98 780 27.9285
122.097 760 27.5681
122.213 755 27.4773
122.33 764 27.6405
122.446 728 26.9815
122.563 703 26.5141
122.679 671 25.9037
122.795 619 24.8797
122.912 573 23.9374
123.028 538 23.1948
123.144 439 20.9523
123.26 365 19.105
123.377 0 1
123.493 0 1
123.609 0 1
123.725 0 1
123.84 0 1
123.956 0 1
124.072 0 1
124.188 0 1
124.303 0 1
124.419 0 1
126.852 0 1
126.968 0 1
127.083 0 1
127.199 0 1
127.315 0 1
127.431 0 1
127.547 0 1
127.663 0 1
127.779 0 1
127.895 0 1
128.011 0 1
128.127 0 1
128.243 0 1
128.359 984 31.3688
128.476 978 31.273
128.592 1069 32.6956
128.708 934 30.5614
128.825 1052 32.4345
128.941 986 31.4006
129.058 1098 33.1361
129.174 1070 32.7109
129.291 1164 34.1174
129.408 1143 33.8083
129.524 1203 34.6843
129.641 1186 34.4384
129.758 1244 35.2704
129.875 1073 32.7567
129.992 989 31.4484
130.108 934 30.5614
130.225 888 29.7993
130.342 915 30.249
130.459 915 30.249
130.576 959 30.9677
130.693 988 31.4325
130.81 1111 33.3317
130.928 1131 33.6303
131.045 1071 32.7261
131.162 1095 33.0908
131.279 1177 34.3074
131.396 1080 32.8634
131.513 1218 34.8999
131.631 1137 33.7194
131.748 1167 34.1614
131.865 1102 33.1964
131.983 1031 32.1092
132.1 998 31.5911
132.217 921 30.348
132.335 972 31.1769
132.452 1010 31.7805
132.57 1098 33.1361
132.687 1149 33.8969
132.804 1159 34.0441
132.922 1173 34.2491
133.039 1150 33.9116
133.157 1205 34.7131
133.274 1169 34.1906
133.392 1107 33.2716
133.509 1020 31.9374
133.627 935 30.5778
133.744 945 30.7409
133.862 862 29.3598
133.979 930 30.4959
134.097 947 30.7734
134.214 1081 32.8786
134.332 980 31.305
134.449 1087 32.9697
134.567 1149 33.8969
134.684 1105 33.2415
134.802 1175 34.2783
134.919 1145 33.8378
135.037 1187 34.4529
135.154 1131 33.6303
135.272 1120 33.4664
135.389 1169 34.1906
135.507 1109 33.3017
135.624 1036 32.187
135.742 987 31.4166
135.859 969 31.1288
135.977 944 30.7246
136.094 997 31.5753
136.211 1094 33.0757
136.329 1155 33.9853
136.446 1157 34.0147
136.564 1093 33.0606
136.681 1149 33.8969
136.798 1149 33.8969
136.915 1145 33.8378
137.033 1088 32.9848
137.15 980 31.305
137.267 959 30.9677
137.384 900 30
137.502 896 29.9333
137.619 896 29.9333
137.736 965 31.0644
137.853 1022 31.9687
137.97 1060 32.5576
138.087 1010 31.7805
138.204 1078 32.8329
138.321 1026 32.0312
138.438 1080 32.8634
138.555 1095 33.0908
138.672 1142 33.7935
138.788 1081 32.8786
138.905 1047 32.3574
139.022 983 31.3528
139.139 857 29.2746
139.255 849 29.1376
139.372 799 28.2666
139.488 764 27.6405
139.605 707 26.5895
139.721 740 27.2029
139.838 811 28.4781
139.954 759 27.55
140.071 689 26.2488
140.187 668 25.8457
140.303 664 25.7682
140.419 579 24.0624
140.535 524 22.891
140.652 481 21.9317
140.768 0 1
140.884 0 1
141 0 1
141.115 0 1
141.231 0 1
141.347 0 1
141.463 0 1
141.578 0 1
141.694 0 1
144.104 0 1
144.219 0 1
144.335 0 1
144.45 0 1
144.566 0 1
144.682 0 1
144.798 0 1
144.914 0 1
145.03 0 1
145.146 742 27.2397
145.262 817 28.5832
145.378 831 28.8271
145.494 849 29.1376
145.61 813 28.5132
145.726 758 27.5318
145.842 735 27.1109
145.959 692 26.3059
146.075 637 25.2389
146.192 669 25.865
146.308 631 25.1197
146.425 673 25.9422
146.541 694 26.3439
146.658 705 26.5518
146.774 736 27.1293
146.891 704 26.533
147.008 772 27.7849
147.125 766 27.6767
147.241 786 28.0357
147.358 766 27.6767
147.475 730 27.0185
147.592 817 28.5832
147.709 762 27.6043
147.826 713 26.7021
147.943 659 25.671
148.06 686 26.1916
148.177 699 26.4386
148.294 605 24.5967
148.411 681 26.096
148.528 685 26.1725
148.645 762 27.6043
148.762 719 26.8142
148.88 771 27.7669
148.997 760 27.5681
149.114 744 27.2764
149.231 721 26.8514
149.349 772 27.7849
149.466 716 26.7582
149.583 696 26.3818
149.701 695 26.3629
149.818 647 25.4362
149.935 596 24.4131
150.053 596 24.4131
150.17 596 24.4131
150.287 646 25.4165
150.405 712 26.6833
150.522 678 26.0384
150.64 681 26.096
150.757 787 28.0535
150.875 749 27.3679
150.992 733 27.074
151.11 728 26.9815
151.227 752 27.4226
151.344 686 26.1916
151.462 686 26.1916
151.579 676 26
151.697 695 26.3629
151.814 630 25.0998
151.932 601 24.5153
152.049 632 25.1396
152.167 637 25.2389
152.284 699 26.4386
152.402 712 26.6833
152.519 732 27.0555
152.636 731 27.037
152.754 741 27.2213
152.871 719 26.8142
152.989 739 27.1846
153.106 659 25.671
153.223 653 25.5539
153.341 615 24.7992
153.458 651 25.5147
153.575 549 23.4307
153.693 604 24.5764
153.81 619 24.8797
153.927 647 25.4362
154.044 681 26.096
154.162 643 25.3574
154.279 687 26.2107
154.396 712 26.6833
154.513 672 25.923
154.63 684 26.1534
154.747 701 26.4764
154.864 710 26.6458
154.981 688 26.2298
155.098 623 24.96
155.215 609 24.6779
155.332 609 24.6779
155.449 603 24.5561
155.566 622 24.9399
155.683 590 24.2899
155.8 645 25.3969
155.917 602 24.5357
156.033 611 24.7184
156.15 0 1
156.267 0 1
156.383 0 1
156.5 0 1
156.617 0 1
156.733 0 1
156.85 0 1
156.966 0 1
157.082 0 1
157.199 0 1
157.315 0 1
157.431 0 1
157.547 0 1
157.664 0 1
157.78 0 1
157.896 0 1
158.012 0 1
158.128 0 1
158.244 0 1
158.359 0 1
158.475 0 1
158.591 0 1
158.706 0 1
