
6.15755 0 1
6.2731 0 1
6.3887 0 1
6.50437 0 1
6.62009 0 1
6.73587 0 1
6.8517 0 1
6.96759 0 1
7.08353 0 1
7.19952 0 1
7.31557 0 1
7.43166 0 1
7.54781 0 1
7.664 0 1
7.78024 0 1
7.89653 0 1
8.01286 0 1
8.12924 0 1
8.24567 0 1
8.36213 0 1
8.47864 0 1
8.59519 0 1
8.71178 0 1
8.82841 0 1
8.94508 0 1
9.06179 0 1
9.17853 0 1
9.29531 0 1
9.41212 0 1
9.52897 0 1
9.64584 0 1
9.76276 0 1
9.8797 0 1
9.99667 0 1
10.1137 0 1
10.2307 0 1
10.3478 0 1
10.4648 0 1
10.5819 0 1
10.6991 0 1
10.8162 0 1
10.9334 0 1
11.0506 0 1
11.1678 0 1
11.285 0 1
11.4023 0 1
11.5196 0 1
11.6369 0 1
11.7542 0 1
11.8715 0 1
11.9888 0 1
12.1062 0 1
12.2235 0 1
12.3409 0 1
12.4582 0 1
12.5756 0 1
12.693 0 1
12.8104 0 1
12.9278 0 1
13.0452 0 1
13.1626 0 1
13.28 0 1
13.3974 0 1
13.5149 0 1
13.6323 0 1
13.7497 0 1
13.8671 0 1
13.9845 0 1
14.1019 0 1
14.2193 0 1
14.3367 0 1
14.4541 0 1
14.5714 0 1
14.6888 0 1
14.8062 0 1
14.9235 0 1
15.0408 1918 43.795
15.1581 1936 44
15.2755 1957 44.238
15.3927 2019 44.9333
15.51 2067 45.4643
15.6273 1977 44.4635
15.7445 1976 44.4522
15.8617 1887 43.4396
15.9789 1952 44.1814
16.0961 1931 43.9431
16.2132 1896 43.5431
16.3304 2008 44.8107
16.4475 2132 46.1736
16.5646 2149 46.3573
16.6816 2308 48.0416
16.7986 2452 49.5177
16.9156 2562 50.6162
17.0326 2654 51.517
17.1496 2697 51.9326
17.2665 2704 52
17.3833 2652 51.4976
17.5002 2739 52.3355
17.617 2826 53.1601
17.7338 2748 52.4214
17.8505 2834 53.2353
17.9672 2842 53.3104
18.0839 2851 53.3948
18.2005 2890 53.7587
18.3171 2885 53.7122
18.4337 2956 54.3691
18.5502 3024 54.9909
18.6666 2878 53.647
18.7831 2989 54.6717
18.8994 2925 54.0833
19.0158 2810 53.0094
19.1321 2765 52.5833
19.2483 2761 52.5452
19.3645 2640 51.3809
19.4806 2654 51.517
19.5967 2522 50.2195
19.7128 2452 49.5177
19.8288 2152 46.3897
19.9447 1912 43.7264
20.0606 0 1
20.1764 0 1
20.2922 0 1
20.4079 0 1
20.5236 0 1
20.6392 0 1
20.7548 0 1
20.8702 0 1
23.3078 0 1
23.4233 0 1
23.539 0 1
23.6547 0 1
23.7704 0 1
23.8862 0 1
24.0021 0 1
24.118 0 1
24.234 0 1
24.35 0 1
24.4661 2637 51.3517
24.5822 2625 51.2348
24.6984 2589 50.8822
24.8146 2642 51.4004
24.9309 2591 50.9019
25.0472 2396 48.949
25.1636 2103 45.8585
25.28 2128 46.1303
25.3965 2167 46.551
25.513 2413 49.1223
25.6296 2656 51.5364
25.7462 2818 53.0848
25.8628 2957 54.3783
25.9795 3079 55.4887
26.0962 3081 55.5068
26.213 3081 55.5068
26.3298 3055 55.2721
26.4466 3159 56.205
26.5635 3198 56.5509
26.6804 3032 55.0636
26.7973 3065 55.3624
26.9143 3202 56.5862
27.0313 2988 54.6626
27.1483 2987 54.6535
27.2653 3151 56.1338
27.3824 3148 56.107
27.4996 3063 55.3444
27.6167 3104 55.7136
27.7339 2973 54.5252
27.8511 2964 54.4426
27.9683 2849 53.376
28.0855 2874 53.6097
28.2028 2824 53.1413
28.3201 2829 53.1883
28.4374 2724 52.192
28.5547 2403 49.0204
28.6721 2269 47.634
28.7894 2059 45.3762
28.9068 2174 46.6262
29.0242 2312 48.0833
29.1416 2373 48.7134
29.259 2574 50.7346
29.3764 2790 52.8205
29.4939 2962 54.4243
29.6113 2905 53.8981
29.7288 2949 54.3047
29.8463 2874 53.6097
29.9638 2991 54.69
30.0812 3003 54.7996
30.1987 3039 55.1271
30.3162 3020 54.9545
30.4337 2959 54.3967
30.5512 2976 54.5527
30.6687 2843 53.3198
30.7862 3009 54.8544
30.9037 2932 54.1479
31.0212 2976 54.5527
31.1387 2987 54.6535
31.2562 2950 54.3139
31.3737 2857 53.4509
31.4912 2823 53.1319
31.6087 2854 53.4228
31.7262 2915 53.9907
31.8436 2841 53.301
31.9611 2682 51.788
32.0785 2596 50.951
32.1959 2209 47
32.3134 2174 46.6262
32.4308 2084 45.6508
32.5482 2211 47.0213
32.6655 2310 48.0625
32.7829 2457 49.5681
32.9002 2724 52.192
33.0176 2848 53.3667
33.1349 2978 54.5711
33.2522 2989 54.6717
33.3694 2886 53.7215
33.4867 3013 54.8908
33.6039 3014 54.8999
33.7211 3008 54.8452
33.8383 2916 54
33.9554 3032 55.0636
34.0725 3058 55.2992
34.1896 2986 54.6443
34.3067 2828 53.1789
34.4237 2861 53.4883
34.5407 3018 54.9363
34.6577 2953 54.3415
34.7746 2950 54.3139
34.8915 2765 52.5833
35.0084 2748 52.4214
35.1252 2880 53.6656
35.242 2747 52.4118
35.3587 2957 54.3783
35.4755 2872 53.591
35.5921 2816 53.066
35.7088 2589 50.8822
35.8254 2385 48.8365
35.9419 2182 46.7119
36.0584 2094 45.7602
36.1749 2122 46.0652
36.2913 2116 46
36.4077 2277 47.7179
36.524 2361 48.5901
36.6403 2562 50.6162
36.7565 2803 52.9434
36.8727 2785 52.7731
36.9889 2832 53.2165
37.1049 2874 53.6097
37.221 0 1
37.3369 0 1
37.4529 0 1
37.5687 0 1
37.6845 0 1
37.8003 0 1
37.916 0 1
38.0316 0 1
38.1472 0 1
40.5851 0 1
40.7008 0 1
40.8164 0 1
40.9322 0 1
41.048 0 1
41.1639 0 1
41.2798 0 1
41.3958 0 1
41.5118 0 1
41.6279 0 1
41.744 1935 43.9886
41.8602 2267 47.613
41.9765 2392 48.9081
42.0928 2365 48.6313
42.2091 2557 50.5668
42.3255 2418 49.1732
42.4419 2499 49.99
42.5584 2515 50.1498
42.675 2446 49.4571
42.7915 2405 49.0408
42.9081 2324 48.2079
43.0248 2364 48.621
43.1415 2395 48.9387
43.2582 2315 48.1144
43.375 2360 48.5798
43.4918 2393 48.9183
43.6087 2318 48.1456
43.7256 2387 48.8569
43.8425 2303 47.9896
43.9595 2316 48.1248
44.0765 2204 46.9468
44.1935 2307 48.0312
44.3106 2154 46.4112
44.4277 2084 45.6508
44.5448 2039 45.1553
44.6619 1759 41.9404
44.7791 1656 40.694
44.8963 1447 38.0395
45.0136 1500 38.7298
45.1308 1525 39.0512
45.2481 1598 39.975
45.3654 1645 40.5586
45.4827 1786 42.2611
45.6001 1939 44.0341
45.7174 1882 43.382
45.8348 1938 44.0227
45.9522 1889 43.4626
46.0697 1814 42.5911
46.1871 1814 42.5911
46.3046 1770 42.0714
46.422 1677 40.9512
46.5395 1721 41.4849
46.657 1691 41.1218
46.7745 1683 41.0244
46.892 1707 41.3159
47.0096 1664 40.7922
47.1271 1777 42.1545
47.2446 1698 41.2068
47.3622 1634 40.4228
47.4797 1681 41
47.5973 1664 40.7922
47.7149 1649 40.6079
47.8324 1560 39.4968
47.95 1438 37.921
48.0675 1451 38.092
48.1851 1387 37.2424
48.3027 1203 34.6843
48.4202 1148 33.8821
48.5378 1217 34.8855
48.6554 1115 33.3916
48.7729 1212 34.8138
48.8904 1290 35.9166
49.008 1441 37.9605
49.1255 1476 38.4187
49.243 1453 38.1182
49.3605 1474 38.3927
49.478 1496 38.6782
49.5955 1511 38.8716
49.713 1535 39.1791
49.8304 1489 38.5876
49.9479 1432 37.8418
50.0653 1471 38.3536
50.1827 1546 39.3192
50.3001 1402 37.4433
50.4175 1589 39.8623
50.5348 1642 40.5216
50.6521 1728 41.5692
50.7694 1717 41.4367
50.8867 1716 41.4246
51.004 1777 42.1545
51.1212 1826 42.7317
51.2384 1903 43.6234
51.3556 1831 42.7902
51.4727 1838 42.8719
51.5899 1796 42.3792
51.707 1718 41.4488
51.824 1588 39.8497
51.9411 1608 40.0999
52.0581 1584 39.7995
52.175 1685 41.0488
52.2919 1787 42.2729
52.4088 1933 43.9659
52.5257 2165 46.5296
52.6425 2232 47.244
52.7593 2262 47.5605
52.876 2341 48.3839
52.9927 2286 47.8121
53.1094 2362 48.6004
53.226 2465 49.6488
53.3426 2373 48.7134
53.4591 2267 47.613
53.5756 2230 47.2229
53.692 2244 47.3709
53.8084 2345 48.4252
53.9248 2370 48.6826
54.0411 2410 49.0918
54.1573 2572 50.7149
54.2735 0 1
54.3896 0 1
54.5057 0 1
54.6217 0 1
54.7377 0 1
54.8537 0 1
54.9695 0 1
55.0853 0 1
55.2011 0 1
55.3168 0 1
55.4324 0 1
57.824 0 1
57.9396 0 1
58.0553 0 1
58.1711 0 1
58.2869 0 1
58.4028 0 1
58.5187 0 1
58.6347 0 1
58.7508 0 1
58.8669 0 1
58.983 2505 50.05
59.0992 2766 52.5928
59.2155 2930 54.1295
59.3318 3016 54.9181
59.4482 3062 55.3353
59.5646 3093 55.6147
59.681 3144 56.0714
59.7975 2959 54.3967
59.9141 3103 55.7046
60.0306 2974 54.5344
60.1473 2805 52.9623
60.2639 2702 51.9808
60.3807 2682 51.788
60.4974 2402 49.0102
60.6142 2333 48.3011
60.731 2193 46.8295
60.8479 2247 47.4025
60.9648 2360 48.5798
61.0818 2416 49.1528
61.1987 2641 51.3907
61.3158 2689 51.8556
61.4328 2687 51.8363
61.5499 2705 52.0096
61.667 2627 51.2543
61.7841 2763 52.5642
61.9013 2510 50.0999
62.0185 2484 49.8397
62.1357 2498 49.98
62.253 2404 49.0306
62.3702 2420 49.1935
62.4875 2540 50.3984
62.6049 2686 51.8266
62.7222 2657 51.5461
62.8396 2823 53.1319
62.9569 2841 53.301
63.0743 2774 52.6688
63.1918 2799 52.9056
63.3092 2767 52.6023
63.4267 2749 52.4309
63.5441 2599 50.9804
63.6616 2508 50.0799
63.7791 2499 49.99
63.8966 2339 48.3632
64.0142 2186 46.7547
64.1317 2022 44.9667
64.2492 2084 45.6508
64.3668 2188 46.7761
64.4843 2092 45.7384
64.6019 2194 46.8402
64.7195 2392 48.9081
64.837 2438 49.3761
64.9546 2482 49.8197
65.0722 2449 49.4874
65.1898 2419 49.1833
65.3074 2381 48.7955
65.4249 2351 48.4871
65.5425 2269 47.634
65.6601 2267 47.613
65.7777 2174 46.6262
65.8952 2208 46.9894
66.0128 2302 47.9792
66.1304 2430 49.295
66.2479 2429 49.2849
66.3655 2510 50.0999
66.483 2619 51.1762
66.6005 2738 52.3259
66.718 2682 51.788
66.8355 2662 51.5946
66.953 2666 51.6333
67.0705 2577 50.7642
67.1879 2434 49.3356
67.3054 2454 49.5379
67.4228 2358 48.5592
67.5402 2179 46.6798
67.6576 2054 45.3211
67.7749 2087 45.6837
67.8923 1947 44.1248
68.0096 2048 45.2548
68.1269 2113 45.9674
68.2442 2302 47.9792
68.3614 2349 48.4665
68.4787 2567 50.6656
68.5958 2499 49.99
68.713 2575 50.7445
68.8302 2509 50.0899
68.9473 2573 50.7247
69.0643 2459 49.5883
69.1814 2345 48.4252
69.2984 2374 48.7237
69.4154 2336 48.3322
69.5323 2402 49.0102
69.6492 2555 50.547
69.7661 2579 50.7839
69.8829 2654 51.517
69.9997 2844 53.3292
70.1165 2976 54.5527
70.2332 3021 54.9636
70.3499 3029 55.0364
70.4665 2945 54.2679
70.5831 2932 54.1479
70.6996 2864 53.5164
70.8161 2795 52.8678
70.9326 2813 53.0377
71.049 2593 50.9215
71.1653 2499 49.99
71.2817 2370 48.6826
71.3979 2215 47.0638
71.5141 2127 46.1194
71.6303 2019 44.9333
71.7464 1775 42.1307
71.8624 0 1
71.9784 0 1
72.0944 0 1
72.2102 0 1
72.3261 0 1
72.4418 0 1
72.5575 0 1
72.6732 0 1
75.1054 0 1
75.2209 0 1
75.3365 0 1
75.4521 0 1
75.5678 0 1
75.6835 0 1
75.7993 0 1
75.9151 0 1
76.031 0 1
76.147 2526 50.2593
76.263 2678 51.7494
76.3791 2630 51.2835
76.4952 2643 51.4101
76.6113 2400 48.9898
76.7276 2268 47.6235
76.8438 2176 46.6476
76.9601 2244 47.3709
77.0765 2320 48.1664
77.1929 2470 49.6991
77.3093 2521 50.2096
77.4258 2806 52.9717
77.5423 2711 52.0673
77.6589 2809 53
77.7755 2816 53.066
77.8921 2690 51.8652
78.0088 2617 51.1566
78.1256 2395 48.9387
78.2423 2274 47.6865
78.3591 2167 46.551
78.4759 2132 46.1736
78.5928 2200 46.9042
78.7097 2443 49.4267
78.8266 2598 50.9706
78.9436 2828 53.1789
79.0606 2987 54.6535
79.1776 2919 54.0278
79.2946 2928 54.111
79.4117 2831 53.2071
79.5288 2944 54.2586
79.6459 2913 53.9722
79.7631 2875 53.619
79.8802 2633 51.3128
79.9974 2597 50.9608
80.1147 2403 49.0204
80.2319 2321 48.1768
80.3491 2171 46.594
80.4664 2038 45.1442
80.5837 2145 46.3141
80.701 2118 46.0217
80.8183 2130 46.1519
80.9357 2377 48.7545
81.053 2510 50.0999
81.1704 2461 49.6085
81.2877 2428 49.2747
81.4051 2458 49.5782
81.5225 2422 49.2138
81.6399 2323 48.1975
81.7573 2230 47.2229
81.8747 2002 44.7437
81.9922 1888 43.4511
82.1096 1829 42.7668
82.227 1948 44.1362
82.3444 2187 46.7654
82.4619 2341 48.3839
82.5793 2498 49.98
82.6967 2459 49.5883
82.8142 2582 50.8134
82.9316 2651 51.4879
83.049 2610 51.0882
83.1664 2523 50.2295
83.2838 2511 50.1099
83.4012 2331 48.2804
83.5186 2204 46.9468
83.636 2168 46.5618
83.7534 2120 46.0435
83.8708 1988 44.587
83.9881 1879 43.3474
84.1055 1861 43.1393
84.2228 1912 43.7264
84.3401 1901 43.6005
84.4575 2011 44.8442
84.5747 2095 45.7712
84.692 2352 48.4974
84.8093 2309 48.0521
84.9265 2259 47.5289
85.0437 2369 48.6724
85.1609 2285 47.8017
85.2781 2167 46.551
85.3952 1918 43.795
85.5123 1773 42.107
85.6294 1763 41.9881
85.7465 1866 43.1972
85.8636 2049 45.2659
85.9806 2296 47.9166
86.0976 2536 50.3587
86.2145 2741 52.3546
86.3315 2848 53.3667
86.4484 2714 52.0961
86.5652 2757 52.5071
86.682 2957 54.3783
86.7988 2821 53.1131
86.9156 2772 52.6498
87.0323 2646 51.4393
87.149 2561 50.6063
87.2657 2547 50.4678
87.3823 2362 48.6004
87.4988 2203 46.9361
87.6154 2202 46.9255
87.7318 2208 46.9894
87.8483 2316 48.1248
87.9647 2428 49.2747
88.081 2504 50.04
88.1973 2717 52.1249
88.3136 2677 51.7397
88.4298 2727 52.2207
88.546 2822 53.1225
88.6621 2720 52.1536
88.7781 2557 50.5668
88.8942 0 1
89.0101 0 1
89.126 0 1
89.2419 0 1
89.3577 0 1
89.4734 0 1
89.5891 0 1
89.7047 0 1
89.8203 0 1
89.9358 0 1
92.3269 0 1
92.4424 0 1
92.558 0 1
92.6736 0 1
92.7893 0 1
92.905 0 1
93.0208 0 1
93.1366 0 1
93.2525 0 1
93.3685 0 1
93.4845 0 1
93.6005 2559 50.5866
93.7167 2686 51.8266
93.8328 2711 52.0673
93.949 2627 51.2543
94.0653 2615 51.1371
94.1816 2611 51.0979
94.2979 2592 50.9117
94.4143 2302 47.9792
94.5307 2052 45.299
94.6472 1957 44.238
94.7637 1995 44.6654
94.8803 2260 47.5395
94.9969 2549 50.4876
95.1135 2594 50.9313
95.2302 2878 53.647
95.3469 2882 53.6843
95.4637 2972 54.5161
95.5805 2994 54.7175
95.6973 3007 54.8361
95.8142 3024 54.9909
95.9311 3034 55.0818
96.048 3000 54.7723
96.1649 2815 53.0566
96.2819 2798 52.8961
96.3989 2769 52.6213
96.516 2549 50.4876
96.633 2444 49.4368
96.7501 2365 48.6313
96.8673 2376 48.7442
96.9844 2430 49.295
97.1016 2515 50.1498
97.2188 2517 50.1697
97.336 2711 52.0673
97.4532 2691 51.8748
97.5704 2806 52.9717
97.6877 2719 52.144
97.805 2638 51.3615
97.9223 2542 50.4183
98.0396 2382 48.8057
98.1569 2020 44.9444
98.2743 1861 43.1393
98.3916 1908 43.6807
98.509 2068 45.4753
98.6264 2451 49.5076
98.7438 2706 52.0192
98.8612 2796 52.8772
98.9786 2869 53.563
99.096 2911 53.9537
99.2134 2919 54.0278
99.3308 3088 55.5698
99.4482 3097 55.6507
99.5656 2964 54.4426
99.6831 2919 54.0278
99.8005 2881 53.6749
99.9179 2667 51.643
100.035 2650 51.4782
100.153 2526 50.2593
100.27 2423 49.224
100.388 2345 48.4252
100.505 2371 48.6929
100.622 2493 49.93
100.74 2578 50.774
100.857 2670 51.672
100.975 2825 53.1507
101.092 2791 52.8299
101.209 2788 52.8015
101.327 2723 52.1824
101.444 2652 51.4976
101.561 2405 49.0408
101.679 2129 46.1411
101.796 1958 44.2493
101.913 1984 44.5421
102.03 2081 45.618
102.148 2479 49.7896
102.265 2723 52.1824
102.382 3016 54.9181
102.499 2981 54.5985
102.616 3050 55.2268
102.733 3100 55.6776
102.851 3157 56.1872
102.968 3254 57.0438
103.085 3178 56.3738
103.202 3099 55.6687
103.319 2880 53.6656
103.436 2879 53.6563
103.552 2839 53.2823
103.669 2676 51.7301
103.786 2624 51.225
103.903 2568 50.6754
104.02 2659 51.5655
104.137 2696 51.923
104.253 2850 53.3854
104.37 2957 54.3783
104.487 2921 54.0463
104.603 3042 55.1543
104.72 3040 55.1362
104.836 3022 54.9727
104.953 2786 52.7826
105.069 2634 51.3225
105.186 2313 48.0937
105.302 2080 45.607
105.418 2120 46.0435
105.535 2454 49.5379
105.651 2876 53.6284
105.767 3149 56.116
105.883 3319 57.6108
105.999 3335 57.7495
106.115 0 1
106.231 0 1
106.347 0 1
106.463 0 1
106.579 0 1
106.694 0 1
106.81 0 1
106.926 0 1
107.041 0 1
107.157 0 1
109.576 0 1
109.692 0 1
109.807 0 1
109.923 0 1
110.039 0 1
110.155 0 1
110.27 0 1
110.386 0 1
110.502 0 1
110.618 2196 46.8615
110.735 2753 52.469
110.851 3121 55.8659
110.967 3195 56.5243
111.083 3268 57.1664
111.199 3224 56.7803
111.316 3370 58.0517
111.432 3355 57.9224
111.549 3381 58.1464
111.665 3311 57.5413
111.782 3356 57.931
111.898 3030 55.0454
112.015 2972 54.5161
112.132 2970 54.4977
112.248 2924 54.074
112.365 2870 53.5724
112.482 2767 52.6023
112.599 2895 53.8052
112.716 2907 53.9166
112.832 2861 53.4883
112.949 3027 55.0182
113.066 2979 54.5802
113.183 3025 55
113.3 2979 54.5802
113.417 3030 55.0454
113.534 2726 52.2111
113.652 2511 50.1099
113.769 2175 46.6369
113.886 2058 45.3652
114.003 2052 45.299
114.12 2231 47.2335
114.238 2725 52.2015
114.355 2949 54.3047
114.472 3287 57.3324
114.589 3354 57.9137
114.707 3239 56.9122
114.824 3374 58.0861
114.942 3366 58.0172
115.059 3365 58.0086
115.176 3376 58.1034
115.294 3325 57.6628
115.411 3224 56.7803
115.529 3093 55.6147
115.646 2989 54.6717
115.764 3052 55.2449
115.881 2949 54.3047
115.999 3014 54.8999
116.116 2946 54.2771
116.234 2987 54.6535
116.351 2942 54.2402
116.469 3097 55.6507
116.586 3006 54.827
116.704 3115 55.8122
116.821 3010 54.8635
116.939 3098 55.6597
117.056 2975 54.5436
117.174 2731 52.259
117.291 2537 50.3686
117.409 2346 48.4355
117.526 2124 46.0869
117.644 2170 46.5833
117.761 2408 49.0714
117.879 2861 53.4883
117.996 3120 55.857
118.114 3291 57.3672
118.231 3453 58.7622
118.349 3385 58.1808
118.466 3304 57.4804
118.584 3452 58.7537
118.701 3454 58.7707
118.819 3333 57.7321
118.936 3230 56.8331
119.053 3240 56.921
119.171 3120 55.857
119.288 3070 55.4076
119.405 2938 54.2033
119.523 2926 54.0925
119.64 2880 53.6656
119.757 3054 55.263
119.875 2913 53.9722
119.992 2993 54.7083
120.109 3020 54.9545
120.226 3000 54.7723
120.343 2990 54.6809
120.46 2960 54.4059
120.578 2866 53.535
120.695 2970 54.4977
120.812 2763 52.5642
120.929 2478 49.7795
121.046 2263 47.571
121.163 2211 47.0213
121.279 2157 46.4435
121.396 2219 47.1063
121.513 2672 51.6914
121.63 2919 54.0278
121.747 3182 56.4092
121.863 3313 57.5587
121.98 3305 57.4891
122.097 3413 58.4209
122.213 3332 57.7235
122.33 3431 58.5747
122.446 3231 56.8419
122.563 3253 57.0351
122.679 3158 56.1961
122.795 3062 55.3353
122.912 3011 54.8726
123.028 3030 55.0454
123.144 3015 54.909
123.26 2840 53.2917
123.377 0 1
123.493 0 1
123.609 0 1
123.725 0 1
123.84 0 1
123.956 0 1
124.072 0 1
124.188 0 1
124.303 0 1
124.419 0 1
126.852 0 1
126.968 0 1
127.083 0 1
127.199 0 1
127.315 0 1
127.431 0 1
127.547 0 1
127.663 0 1
127.779 0 1
127.895 0 1
128.011 0 1
128.127 0 1
128.243 0 1
128.359 3188 56.4624
128.476 3318 57.6021
128.592 3075 55.4527
128.708 3260 57.0964
128.825 3200 56.5685
128.941 3165 56.2583
129.058 3360 57.9655
129.174 3359 57.9569
129.291 3281 57.28
129.408 3346 57.8446
129.524 3111 55.7763
129.641 3268 57.1664
129.758 3021 54.9636
129.875 2691 51.8748
129.992 2524 50.2394
130.108 2378 48.7647
130.225 2325 48.2183
130.342 2569 50.6853
130.459 2844 53.3292
130.576 3301 57.4543
130.693 3444 58.6856
130.81 3549 59.5735
130.928 3616 60.1332
131.045 3629 60.2412
131.162 3634 60.2827
131.279 3590 59.9166
131.396 3711 60.918
131.513 3539 59.4895
131.631 3445 58.6941
131.748 3415 58.438
131.865 3360 57.9655
131.983 3516 59.2959
132.1 3299 57.4369
132.217 3400 58.3095
132.335 3386 58.1893
132.452 3402 58.3267
132.57 3457 58.7963
132.687 3466 58.8727
132.804 3463 58.8473
132.922 3522 59.3464
133.039 3479 58.983
133.157 3427 58.5406
133.274 3385 58.1808
133.392 2898 53.8331
133.509 2679 51.7591
133.627 2525 50.2494
133.744 2354 48.518
133.862 2506 50.06
133.979 2842 53.3104
134.097 3089 55.5788
134.214 3267 57.1577
134.332 3595 59.9583
134.449 3473 58.9322
134.567 3579 59.8247
134.684 3687 60.7207
134.802 3683 60.6877
134.919 3593 59.9416
135.037 3630 60.2495
135.154 3695 60.7865
135.272 3408 58.3781
135.389 3469 58.8982
135.507 3467 58.8812
135.624 3471 58.9152
135.742 3558 59.649
135.859 3441 58.66
135.977 3371 58.0603
136.094 3456 58.7878
136.211 3550 59.5819
136.329 3568 59.7327
136.446 3419 58.4722
136.564 3384 58.1722
136.681 3506 59.2115
136.798 3527 59.3886
136.915 3109 55.7584
137.033 2873 53.6004
137.15 2569 50.6853
137.267 2521 50.2096
137.384 2321 48.1768
137.502 2512 50.1199
137.619 2820 53.1037
137.736 2986 54.6443
137.853 3232 56.8507
137.97 3559 59.6574
138.087 3399 58.3009
138.204 3512 59.2621
138.321 3718 60.9754
138.438 3601 60.0083
138.555 3690 60.7454
138.672 3600 60
138.788 3566 59.716
138.905 3641 60.3407
139.022 3527 59.3886
139.139 3627 60.2246
139.255 3530 59.4138
139.372 3551 59.5903
139.488 3608 60.0666
139.605 3585 59.8749
139.721 3479 58.983
139.838 3598 59.9833
139.954 3696 60.7947
140.071 3462 58.8388
140.187 3506 59.2115
140.303 3544 59.5315
140.419 3505 59.203
140.535 3289 57.3498
140.652 2892 53.7773
140.768 0 1
140.884 0 1
141 0 1
141.115 0 1
141.231 0 1
141.347 0 1
141.463 0 1
141.578 0 1
141.694 0 1
144.104 0 1
144.219 0 1
144.335 0 1
144.45 0 1
144.566 0 1
144.682 0 1
144.798 0 1
144.914 0 1
145.03 0 1
145.146 2532 50.319
145.262 2819 53.0943
145.378 2912 53.963
145.494 2864 53.5164
145.61 2748 52.4214
145.726 2570 50.6952
145.842 2467 49.6689
145.959 2259 47.5289
146.075 2094 45.7602
146.192 2076 45.5631
146.308 2141 46.2709
146.425 2276 47.7074
146.541 2365 48.6313
146.658 2523 50.2295
146.774 2693 51.8941
146.891 2765 52.5833
147.008 2872 53.591
147.125 2963 54.4334
147.241 3121 55.8659
147.358 3118 55.8391
147.475 3153 56.1516
147.592 3093 55.6147
147.709 3077 55.4707
147.826 3160 56.2139
147.943 3173 56.3294
148.06 3110 55.7674
148.177 2983 54.6168
148.294 3029 55.0364
148.411 2938 54.2033
148.528 3100 55.6776
148.645 3062 55.3353
148.762 3074 55.4437
148.88 2970 54.4977
148.997 2934 54.1664
149.114 3252 57.0263
149.231 3120 55.857
149.349 3042 55.1543
149.466 2950 54.3139
149.583 2665 51.6236
149.701 2547 50.4678
149.818 2417 49.163
149.935 2264 47.5815
150.053 2193 46.8295
150.17 2269 47.634
150.287 2493 49.93
150.405 2598 50.9706
150.522 2760 52.5357
150.64 2954 54.3507
150.757 3110 55.7674
150.875 3162 56.2317
150.992 3189 56.4712
151.11 3233 56.8595
151.227 3341 57.8014
151.344 3292 57.376
151.462 3167 56.2761
151.579 3375 58.0948
151.697 3320 57.6194
151.814 3266 57.1489
151.932 3236 56.8859
152.049 3140 56.0357
152.167 3217 56.7186
152.284 3200 56.5685
152.402 3133 55.9732
152.519 3235 56.8771
152.636 3262 57.1139
152.754 3327 57.6802
152.871 3208 56.6392
152.989 3186 56.4447
153.106 2962 54.4243
153.223 2848 53.3667
153.341 2684 51.8073
153.458 2502 50.02
153.575 2376 48.7442
153.693 2333 48.3011
153.81 2567 50.6656
153.927 2597 50.9608
154.044 2763 52.5642
154.162 2882 53.6843
154.279 3100 55.6776
154.396 3222 56.7627
154.513 3331 57.7148
154.63 3342 57.81
154.747 3398 58.2924
154.864 3533 59.439
154.981 3488 59.0593
155.098 3453 58.7622
155.215 3427 58.5406
155.332 3514 59.279
155.449 3367 58.0259
155.566 3345 57.836
155.683 3325 57.6628
155.8 3317 57.5934
155.917 3269 57.1752
156.033 3438 58.6345
156.15 0 1
156.267 0 1
156.383 0 1
156.5 0 1
156.617 0 1
156.733 0 1
156.85 0 1
156.966 0 1
157.082 0 1
157.199 0 1
157.315 0 1
157.431 0 1
157.547 0 1
157.664 0 1
157.78 0 1
157.896 0 1
158.012 0 1
158.128 0 1
158.244 0 1
158.359 0 1
158.475 0 1
158.591 0 1
158.706 0 1
