
6.15755 0 1
6.2731 0 1
6.3887 0 1
6.50437 0 1
6.62009 0 1
6.73587 0 1
6.8517 0 1
6.96759 0 1
7.08353 0 1
7.19952 0 1
7.31557 0 1
7.43166 0 1
7.54781 0 1
7.664 0 1
7.78024 0 1
7.89653 0 1
8.01286 0 1
8.12924 0 1
8.24567 0 1
8.36213 0 1
8.47864 0 1
8.59519 0 1
8.71178 0 1
8.82841 0 1
8.94508 0 1
9.06179 0 1
9.17853 0 1
9.29531 0 1
9.41212 0 1
9.52897 0 1
9.64584 0 1
9.76276 0 1
9.8797 0 1
9.99667 0 1
10.1137 0 1
10.2307 0 1
10.3478 0 1
10.4648 0 1
10.5819 0 1
10.6991 0 1
10.8162 0 1
10.9334 0 1
11.0506 0 1
11.1678 0 1
11.285 0 1
11.4023 0 1
11.5196 0 1
11.6369 0 1
11.7542 0 1
11.8715 0 1
11.9888 0 1
12.1062 0 1
12.2235 0 1
12.3409 0 1
12.4582 0 1
12.5756 0 1
12.693 0 1
12.8104 0 1
12.9278 0 1
13.0452 0 1
13.1626 0 1
13.28 0 1
13.3974 0 1
13.5149 0 1
13.6323 0 1
13.7497 0 1
13.8671 0 1
13.9845 0 1
14.1019 0 1
14.2193 0 1
14.3367 0 1
14.4541 0 1
14.5714 0 1
14.6888 0 1
14.8062 0 1
14.9235 0 1
15.0408 0 0
15.1581 0 0
15.2755 0 0
15.3927 0 0
15.51 0 0
15.6273 0 0
15.7445 0 0
15.8617 0 0
15.9789 0 0
16.0961 0 0
16.2132 0 0
16.3304 0 0
16.4475 0 0
16.5646 0 0
16.6816 0 0
16.7986 0 0
16.9156 0 0
17.0326 0 0
17.1496 0 0
17.2665 0 0
17.3833 0 0
17.5002 0 0
17.617 0 0
17.7338 0 0
17.8505 0 0
17.9672 0 0
18.0839 0 0
18.2005 0 0
18.3171 0 0
18.4337 0 0
18.5502 0 0
18.6666 0 0
18.7831 0 0
18.8994 0 0
19.0158 0 0
19.1321 0 0
19.2483 0 0
19.3645 0 0
19.4806 0 0
19.5967 0 0
19.7128 0 0
19.8288 0 0
19.9447 0 0
20.0606 0 1
20.1764 0 1
20.2922 0 1
20.4079 0 1
20.5236 0 1
20.6392 0 1
20.7548 0 1
20.8702 0 1
23.3078 0 1
23.4233 0 1
23.539 0 1
23.6547 0 1
23.7704 0 1
23.8862 0 1
24.0021 0 1
24.118 0 1
24.234 0 1
24.35 0 1
24.4661 1391 37.2961
24.5822 1476 38.4187
24.6984 1461 38.223
24.8146 1432 37.8418
24.9309 1434 37.8682
25.0472 1397 37.3765
25.1636 1356 36.8239
25.28 1464 38.2623
25.3965 1520 38.9872
25.513 1453 38.1182
25.6296 1454 38.1314
25.7462 1518 38.9615
25.8628 1503 38.7685
25.9795 1458 38.1838
26.0962 1533 39.1535
26.213 1535 39.1791
26.3298 1506 38.8072
26.4466 1473 38.3797
26.5635 1311 36.2077
26.6804 1385 37.2156
26.7973 1318 36.3043
26.9143 1364 36.9324
27.0313 1415 37.6165
27.1483 1426 37.7624
27.2653 1403 37.4566
27.3824 1531 39.128
27.4996 1454 38.1314
27.6167 1487 38.5616
27.7339 1419 37.6696
27.8511 1478 38.4448
27.9683 1455 38.1445
28.0855 1435 37.8814
28.2028 1471 38.3536
28.3201 1366 36.9594
28.4374 1391 37.2961
28.5547 1310 36.1939
28.6721 1385 37.2156
28.7894 1430 37.8153
28.9068 1330 36.4692
29.0242 1384 37.2022
29.1416 1354 36.7967
29.259 1442 37.9737
29.3764 1311 36.2077
29.4939 1428 37.7889
29.6113 1328 36.4417
29.7288 1375 37.081
29.8463 1329 36.4555
29.9638 1316 36.2767
30.0812 1217 34.8855
30.1987 1197 34.5977
30.3162 1180 34.3511
30.4337 1237 35.171
30.5512 1248 35.327
30.6687 1272 35.6651
30.7862 1338 36.5787
30.9037 1362 36.9053
31.0212 1387 37.2424
31.1387 1433 37.855
31.2562 1445 38.0132
31.3737 1396 37.3631
31.4912 1369 37
31.6087 1377 37.108
31.7262 1335 36.5377
31.8436 1355 36.8103
31.9611 1314 36.2491
32.0785 1361 36.8917
32.1959 1304 36.1109
32.3134 1308 36.1663
32.4308 1300 36.0555
32.5482 1359 36.8646
32.6655 1271 35.6511
32.7829 1299 36.0416
32.9002 1326 36.4143
33.0176 1308 36.1663
33.1349 1307 36.1525
33.2522 1344 36.6606
33.3694 1351 36.756
33.4867 1407 37.51
33.6039 1204 34.6987
33.7211 1261 35.5106
33.8383 1112 33.3467
33.9554 1104 33.2265
34.0725 1111 33.3317
34.1896 1178 34.322
34.3067 1196 34.5832
34.4237 1276 35.7211
34.5407 1305 36.1248
34.6577 1383 37.1887
34.7746 1355 36.8103
34.8915 1368 36.9865
35.0084 1412 37.5766
35.1252 1372 37.0405
35.242 1348 36.7151
35.3587 1320 36.3318
35.4755 1362 36.9053
35.5921 1323 36.3731
35.7088 1269 35.623
35.8254 1287 35.8748
35.9419 1211 34.7994
36.0584 1267 35.5949
36.1749 1291 35.9305
36.2913 1217 34.8855
36.4077 1227 35.0286
36.524 1191 34.5109
36.6403 1243 35.2562
36.7565 1202 34.6699
36.8727 1214 34.8425
36.9889 1281 35.7911
37.1049 1273 35.6791
37.221 0 1
37.3369 0 1
37.4529 0 1
37.5687 0 1
37.6845 0 1
37.8003 0 1
37.916 0 1
38.0316 0 1
38.1472 0 1
40.5851 0 1
40.7008 0 1
40.8164 0 1
40.9322 0 1
41.048 0 1
41.1639 0 1
41.2798 0 1
41.3958 0 1
41.5118 0 1
41.6279 0 1
41.744 953 30.8707
41.8602 960 30.9839
41.9765 1038 32.218
42.0928 978 31.273
42.2091 1063 32.6037
42.3255 1037 32.2025
42.4419 975 31.225
42.5584 872 29.5296
42.675 831 28.8271
42.7915 814 28.5307
42.9081 872 29.5296
43.0248 884 29.7321
43.1415 868 29.4618
43.2582 1011 31.7962
43.375 994 31.5278
43.4918 948 30.7896
43.6087 1028 32.0624
43.7256 1033 32.1403
43.8425 959 30.9677
43.9595 976 31.241
44.0765 966 31.0805
44.1935 989 31.4484
44.3106 962 31.0161
44.4277 882 29.6985
44.5448 822 28.6705
44.6619 784 28
44.7791 793 28.1603
44.8963 696 26.3818
45.0136 797 28.2312
45.1308 721 26.8514
45.2481 715 26.7395
45.3654 739 27.1846
45.4827 799 28.2666
45.6001 714 26.7208
45.7174 769 27.7308
45.8348 759 27.55
45.9522 733 27.074
46.0697 684 26.1534
46.1871 622 24.9399
46.3046 551 23.4734
46.422 575 23.9792
46.5395 579 24.0624
46.657 633 25.1595
46.7745 659 25.671
46.892 719 26.8142
47.0096 682 26.1151
47.1271 688 26.2298
47.2446 690 26.2679
47.3622 687 26.2107
47.4797 648 25.4558
47.5973 692 26.3059
47.7149 627 25.04
47.8324 666 25.807
47.95 583 24.1454
48.0675 591 24.3105
48.1851 588 24.2487
48.3027 579 24.0624
48.4202 561 23.6854
48.5378 568 23.8328
48.6554 522 22.8473
48.7729 556 23.5797
48.8904 583 24.1454
49.008 618 24.8596
49.1255 601 24.5153
49.243 561 23.6854
49.3605 633 25.1595
49.478 537 23.1733
49.5955 510 22.5832
49.713 435 20.8567
49.8304 437 20.9045
49.9479 448 21.166
50.0653 552 23.4947
50.1827 558 23.622
50.3001 652 25.5343
50.4175 611 24.7184
50.5348 700 26.4575
50.6521 737 27.1477
50.7694 634 25.1794
50.8867 723 26.8887
51.004 692 26.3059
51.1212 694 26.3439
51.2384 735 27.1109
51.3556 764 27.6405
51.4727 760 27.5681
51.5899 741 27.2213
51.707 750 27.3861
51.824 680 26.0768
51.9411 750 27.3861
52.0581 747 27.3313
52.175 743 27.258
52.2919 856 29.2575
52.4088 863 29.3769
52.5257 836 28.9137
52.6425 915 30.249
52.7593 856 29.2575
52.876 910 30.1662
52.9927 937 30.6105
53.1094 879 29.6479
53.226 790 28.1069
53.3426 748 27.3496
53.4591 706 26.5707
53.5756 723 26.8887
53.692 925 30.4138
53.8084 962 31.0161
53.9248 1035 32.1714
54.0411 1096 33.1059
54.1573 1090 33.0151
54.2735 0 1
54.3896 0 1
54.5057 0 1
54.6217 0 1
54.7377 0 1
54.8537 0 1
54.9695 0 1
55.0853 0 1
55.2011 0 1
55.3168 0 1
55.4324 0 1
57.824 0 1
57.9396 0 1
58.0553 0 1
58.1711 0 1
58.2869 0 1
58.4028 0 1
58.5187 0 1
58.6347 0 1
58.7508 0 1
58.8669 0 1
58.983 1067 32.665
59.0992 1230 35.0714
59.2155 1221 34.9428
59.3318 1229 35.0571
59.4482 1358 36.8511
59.5646 1328 36.4417
59.681 1313 36.2353
59.7975 1270 35.6371
59.9141 1199 34.6266
60.0306 1219 34.9142
60.1473 1168 34.176
60.2639 1161 34.0735
60.3807 1092 33.0454
60.4974 1087 32.9697
60.6142 1088 32.9848
60.731 1075 32.7872
60.8479 1060 32.5576
60.9648 1076 32.8024
61.0818 1079 32.8481
61.1987 1081 32.8786
61.3158 1035 32.1714
61.4328 1068 32.6803
61.5499 1007 31.7333
61.667 974 31.209
61.7841 894 29.8998
61.9013 817 28.5832
62.0185 791 28.1247
62.1357 869 29.4788
62.253 960 30.9839
62.3702 1092 33.0454
62.4875 1145 33.8378
62.6049 1127 33.5708
62.7222 1155 33.9853
62.8396 1259 35.4824
62.9569 1266 35.5809
63.0743 1315 36.2629
63.1918 1307 36.1525
63.3092 1212 34.8138
63.4267 1201 34.6554
63.5441 1260 35.4965
63.6616 1110 33.3167
63.7791 1129 33.6006
63.8966 1119 33.4515
64.0142 1047 32.3574
64.1317 1096 33.1059
64.2492 1058 32.5269
64.3668 1131 33.6303
64.4843 1139 33.7491
64.6019 1174 34.2637
64.7195 1160 34.0588
64.837 1175 34.2783
64.9546 1141 33.7787
65.0722 1158 34.0294
65.1898 1072 32.7414
65.3074 937 30.6105
65.4249 849 29.1376
65.5425 833 28.8617
65.6601 857 29.2746
65.7777 1001 31.6386
65.8952 1114 33.3766
66.0128 1146 33.8526
66.1304 1217 34.8855
66.2479 1247 35.3129
66.3655 1312 36.2215
66.483 1316 36.2767
66.6005 1300 36.0555
66.718 1301 36.0694
66.8355 1285 35.8469
66.953 1309 36.1801
67.0705 1183 34.3948
67.1879 1186 34.4384
67.3054 1152 33.9411
67.4228 1077 32.8177
67.5402 1031 32.1092
67.6576 1037 32.2025
67.7749 1046 32.3419
67.8923 1063 32.6037
68.0096 1028 32.0624
68.1269 1023 31.9844
68.2442 1048 32.3728
68.3614 1079 32.8481
68.4787 1101 33.1813
68.5958 1088 32.9848
68.713 1023 31.9844
68.8302 972 31.1769
68.9473 892 29.8664
69.0643 774 27.8209
69.1814 739 27.1846
69.2984 848 29.1204
69.4154 935 30.5778
69.5323 1053 32.45
69.6492 1143 33.8083
69.7661 1126 33.5559
69.8829 1170 34.2053
69.9997 1150 33.9116
70.1165 1251 35.3695
70.2332 1287 35.8748
70.3499 1227 35.0286
70.4665 1164 34.1174
70.5831 1231 35.0856
70.6996 1147 33.8674
70.8161 1084 32.9242
70.9326 1106 33.2566
71.049 1081 32.8786
71.1653 1034 32.1559
71.2817 985 31.3847
71.3979 942 30.692
71.5141 966 31.0805
71.6303 926 30.4302
71.7464 893 29.8831
71.8624 0 1
71.9784 0 1
72.0944 0 1
72.2102 0 1
72.3261 0 1
72.4418 0 1
72.5575 0 1
72.6732 0 1
75.1054 0 1
75.2209 0 1
75.3365 0 1
75.4521 0 1
75.5678 0 1
75.6835 0 1
75.7993 0 1
75.9151 0 1
76.031 0 1
76.147 1063 32.6037
76.263 1050 32.4037
76.3791 1000 31.6228
76.4952 1029 32.078
76.6113 1004 31.686
76.7276 979 31.289
76.8438 1001 31.6386
76.9601 994 31.5278
77.0765 978 31.273
77.1929 991 31.4802
77.3093 1086 32.9545
77.4258 1053 32.45
77.5423 1080 32.8634
77.6589 1068 32.6803
77.7755 1000 31.6228
77.8921 845 29.0689
78.0088 706 26.5707
78.1256 740 27.2029
78.2423 665 25.7876
78.3591 725 26.9258
78.4759 854 29.2233
78.5928 983 31.3528
78.7097 1118 33.4365
78.8266 1122 33.4963
78.9436 1183 34.3948
79.0606 1183 34.3948
79.1776 1198 34.6121
79.2946 1196 34.5832
79.4117 1195 34.5688
79.5288 1151 33.9264
79.6459 1128 33.5857
79.7631 1020 31.9374
79.8802 1026 32.0312
79.9974 968 31.1127
80.1147 969 31.1288
80.2319 871 29.5127
80.3491 855 29.2404
80.4664 885 29.7489
80.5837 906 30.0998
80.701 905 30.0832
80.8183 907 30.1164
80.9357 976 31.241
81.053 960 30.9839
81.1704 918 30.2985
81.2877 910 30.1662
81.4051 974 31.209
81.5225 815 28.5482
81.6399 710 26.6458
81.7573 655 25.593
81.8747 561 23.6854
81.9922 635 25.1992
82.1096 779 27.9106
82.227 877 29.6142
82.3444 929 30.4795
82.4619 990 31.4643
82.5793 1018 31.9061
82.6967 951 30.8383
82.8142 999 31.607
82.9316 1052 32.4345
83.049 1007 31.7333
83.1664 1002 31.6544
83.2838 915 30.249
83.4012 906 30.0998
83.5186 853 29.2062
83.636 831 28.8271
83.7534 778 27.8927
83.8708 731 27.037
83.9881 762 27.6043
84.1055 803 28.3373
84.2228 767 27.6948
84.3401 790 28.1069
84.4575 784 28
84.5747 896 29.9333
84.692 914 30.2324
84.8093 855 29.2404
84.9265 831 28.8271
85.0437 783 27.9821
85.1609 627 25.04
85.2781 593 24.3516
85.3952 554 23.5372
85.5123 551 23.4734
85.6294 627 25.04
85.7465 786 28.0357
85.8636 829 28.7924
85.9806 999 31.607
86.0976 1090 33.0151
86.2145 1111 33.3317
86.3315 1089 33
86.4484 1057 32.5115
86.5652 1128 33.5857
86.682 1092 33.0454
86.7988 1086 32.9545
86.9156 1100 33.1662
87.0323 1036 32.187
87.149 995 31.5436
87.2657 968 31.1127
87.3823 909 30.1496
87.4988 873 29.5466
87.6154 912 30.1993
87.7318 980 31.305
87.8483 913 30.2159
87.9647 988 31.4325
88.081 1053 32.45
88.1973 1109 33.3017
88.3136 1071 32.7261
88.4298 1073 32.7567
88.546 960 30.9839
88.6621 874 29.5635
88.7781 798 28.2489
88.8942 0 1
89.0101 0 1
89.126 0 1
89.2419 0 1
89.3577 0 1
89.4734 0 1
89.5891 0 1
89.7047 0 1
89.8203 0 1
89.9358 0 1
92.3269 0 1
92.4424 0 1
92.558 0 1
92.6736 0 1
92.7893 0 1
92.905 0 1
93.0208 0 1
93.1366 0 1
93.2525 0 1
93.3685 0 1
93.4845 0 1
93.6005 1028 32.0624
93.7167 1068 32.6803
93.8328 1096 33.1059
93.949 1008 31.749
94.0653 1014 31.8434
94.1816 874 29.5635
94.2979 762 27.6043
94.4143 755 27.4773
94.5307 734 27.0924
94.6472 791 28.1247
94.7637 900 30
94.8803 950 30.8221
94.9969 1109 33.3017
95.1135 1179 34.3366
95.2302 1178 34.322
95.3469 1203 34.6843
95.4637 1276 35.7211
95.5805 1180 34.3511
95.6973 1302 36.0832
95.8142 1249 35.3412
95.9311 1281 35.7911
96.048 1142 33.7935
96.1649 1086 32.9545
96.2819 1077 32.8177
96.3989 1016 31.8748
96.516 1022 31.9687
96.633 950 30.8221
96.7501 929 30.4795
96.8673 974 31.209
96.9844 1006 31.7175
97.1016 1065 32.6343
97.2188 1108 33.2866
97.336 1116 33.4066
97.4532 1173 34.2491
97.5704 1127 33.5708
97.6877 1058 32.5269
97.805 859 29.3087
97.9223 774 27.8209
98.0396 776 27.8568
98.1569 684 26.1534
98.2743 848 29.1204
98.3916 798 28.2489
98.509 941 30.6757
98.6264 1021 31.9531
98.7438 1114 33.3766
98.8612 1177 34.3074
98.9786 1330 36.4692
99.096 1231 35.0856
99.2134 1249 35.3412
99.3308 1258 35.4683
99.4482 1249 35.3412
99.5656 1307 36.1525
99.6831 1230 35.0714
99.8005 1135 33.6898
99.9179 1097 33.121
100.035 1032 32.1248
100.153 969 31.1288
100.27 1015 31.8591
100.388 1055 32.4808
100.505 1081 32.8786
100.622 1049 32.3883
100.74 1118 33.4365
100.857 1099 33.1512
100.975 1161 34.0735
101.092 1141 33.7787
101.209 1096 33.1059
101.327 1014 31.8434
101.444 934 30.5614
101.561 826 28.7402
101.679 743 27.258
101.796 786 28.0357
101.913 908 30.133
102.03 977 31.257
102.148 1048 32.3728
102.265 1113 33.3617
102.382 1282 35.805
102.499 1259 35.4824
102.616 1328 36.4417
102.733 1403 37.4566
102.851 1412 37.5766
102.968 1282 35.805
103.085 1317 36.2905
103.202 1337 36.565
103.319 1212 34.8138
103.436 1214 34.8425
103.552 1141 33.7787
103.669 1138 33.7343
103.786 1046 32.3419
103.903 1068 32.6803
104.02 1091 33.0303
104.137 1121 33.4813
104.253 1218 34.8999
104.37 1237 35.171
104.487 1283 35.819
104.603 1313 36.2353
104.72 1222 34.9571
104.836 1089 33
104.953 932 30.5287
105.069 926 30.4302
105.186 901 30.0167
105.302 945 30.7409
105.418 991 31.4802
105.535 1068 32.6803
105.651 1300 36.0555
105.767 1396 37.3631
105.883 1434 37.8682
105.999 1494 38.6523
106.115 0 1
106.231 0 1
106.347 0 1
106.463 0 1
106.579 0 1
106.694 0 1
106.81 0 1
106.926 0 1
107.041 0 1
107.157 0 1
109.576 0 1
109.692 0 1
109.807 0 1
109.923 0 1
110.039 0 1
110.155 0 1
110.27 0 1
110.386 0 1
110.502 0 1
110.618 1114 33.3766
110.735 1175 34.2783
110.851 1345 36.6742
110.967 1387 37.2424
111.083 1286 35.8608
111.199 1316 36.2767
111.316 1383 37.1887
111.432 1455 38.1445
111.549 1406 37.4967
111.665 1357 36.8375
111.782 1343 36.647
111.898 1304 36.1109
112.015 1099 33.1512
112.132 1164 34.1174
112.248 1067 32.665
112.365 1038 32.218
112.482 1021 31.9531
112.599 1039 32.2335
112.716 1139 33.7491
112.832 1172 34.2345
112.949 1226 35.0143
113.066 1195 34.5688
113.183 1219 34.9142
113.3 1102 33.1964
113.417 1037 32.2025
113.534 960 30.9839
113.652 856 29.2575
113.769 817 28.5832
113.886 854 29.2233
114.003 845 29.0689
114.12 1049 32.3883
114.238 1120 33.4664
114.355 1244 35.2704
114.472 1299 36.0416
114.589 1308 36.1663
114.707 1286 35.8608
114.824 1324 36.3868
114.942 1373 37.054
115.059 1359 36.8646
115.176 1308 36.1663
115.294 1327 36.428
115.411 1233 35.1141
115.529 1293 35.9583
115.646 1159 34.0441
115.764 1126 33.5559
115.881 1077 32.8177
115.999 1078 32.8329
116.116 1118 33.4365
116.234 1180 34.3511
116.351 1150 33.9116
116.469 1280 35.7771
116.586 1195 34.5688
116.704 1248 35.327
116.821 1242 35.242
116.939 1141 33.7787
117.056 1100 33.1662
117.174 1000 31.6228
117.291 980 31.305
117.409 937 30.6105
117.526 889 29.8161
117.644 1054 32.4654
117.761 1134 33.6749
117.879 1351 36.756
117.996 1323 36.3731
118.114 1329 36.4555
118.231 1436 37.8946
118.349 1445 38.0132
118.466 1507 38.8201
118.584 1408 37.5233
118.701 1352 36.7696
118.819 1430 37.8153
118.936 1363 36.9188
119.053 1350 36.7423
119.171 1273 35.6791
119.288 1209 34.7707
119.405 1141 33.7787
119.523 1129 33.6006
119.64 1135 33.6898
119.757 1132 33.6452
119.875 1244 35.2704
119.992 1220 34.9285
120.109 1267 35.5949
120.226 1217 34.8855
120.343 1169 34.1906
120.46 1121 33.4813
120.578 1183 34.3948
120.695 1125 33.541
120.812 1012 31.8119
120.929 984 31.3688
121.046 961 31
121.163 1008 31.749
121.279 961 31
121.396 1070 32.7109
121.513 1224 34.9857
121.63 1336 36.5513
121.747 1333 36.5103
121.863 1353 36.7831
121.98 1355 36.8103
122.097 1446 38.0263
122.213 1429 37.8021
122.33 1395 37.3497
122.446 1354 36.7967
122.563 1300 36.0555
122.679 1407 37.51
122.795 1289 35.9026
122.912 1195 34.5688
123.028 1195 34.5688
123.144 1141 33.7787
123.26 1105 33.2415
123.377 0 1
123.493 0 1
123.609 0 1
123.725 0 1
123.84 0 1
123.956 0 1
124.072 0 1
124.188 0 1
124.303 0 1
124.419 0 1
126.852 0 1
126.968 0 1
127.083 0 1
127.199 0 1
127.315 0 1
127.431 0 1
127.547 0 1
127.663 0 1
127.779 0 1
127.895 0 1
128.011 0 1
128.127 0 1
128.243 0 1
128.359 1260 35.4965
128.476 1264 35.5528
128.592 1154 33.9706
128.708 1226 35.0143
128.825 1241 35.2278
128.941 1341 36.6197
129.058 1307 36.1525
129.174 1369 37
129.291 1208 34.7563
129.408 1233 35.1141
129.524 1268 35.609
129.641 1229 35.0571
129.758 1204 34.6987
129.875 1204 34.6987
129.992 1084 32.9242
130.108 1090 33.0151
130.225 1066 32.6497
130.342 1199 34.6266
130.459 1287 35.8748
130.576 1362 36.9053
130.693 1428 37.7889
130.81 1405 37.4833
130.928 1439 37.9342
131.045 1394 37.3363
131.162 1468 38.3145
131.279 1474 38.3927
131.396 1446 38.0263
131.513 1370 37.0135
131.631 1394 37.3363
131.748 1365 36.9459
131.865 1346 36.6879
131.983 1234 35.1283
132.1 1202 34.6699
132.217 1251 35.3695
132.335 1277 35.7351
132.452 1298 36.0278
132.57 1318 36.3043
132.687 1328 36.4417
132.804 1330 36.4692
132.922 1312 36.2215
133.039 1260 35.4965
133.157 1219 34.9142
133.274 1180 34.3511
133.392 1219 34.9142
133.509 1101 33.1813
133.627 1082 32.8938
133.744 1011 31.7962
133.862 1174 34.2637
133.979 1205 34.7131
134.097 1334 36.524
134.214 1399 37.4032
134.332 1442 37.9737
134.449 1518 38.9615
134.567 1472 38.3667
134.684 1482 38.4968
134.802 1461 38.223
134.919 1435 37.8814
135.037 1458 38.1838
135.154 1437 37.9078
135.272 1430 37.8153
135.389 1374 37.0675
135.507 1213 34.8281
135.624 1227 35.0286
135.742 1239 35.1994
135.859 1318 36.3043
135.977 1386 37.229
136.094 1337 36.565
136.211 1310 36.1939
136.329 1379 37.1349
136.446 1345 36.6742
136.564 1384 37.2022
136.681 1302 36.0832
136.798 1269 35.623
136.915 1222 34.9571
137.033 1244 35.2704
137.15 1188 34.4674
137.267 1121 33.4813
137.384 1078 32.8329
137.502 1118 33.4365
137.619 1282 35.805
137.736 1316 36.2767
137.853 1395 37.3497
137.97 1468 38.3145
138.087 1425 37.7492
138.204 1392 37.3095
138.321 1461 38.223
138.438 1395 37.3497
138.555 1433 37.855
138.672 1434 37.8682
138.788 1366 36.9594
138.905 1252 35.3836
139.022 1390 37.2827
139.139 1384 37.2022
139.255 1221 34.9428
139.372 1175 34.2783
139.488 1333 36.5103
139.605 1331 36.4829
139.721 1394 37.3363
139.838 1395 37.3497
139.954 1431 37.8286
140.071 1308 36.1663
140.187 1303 36.0971
140.303 1271 35.6511
140.419 1236 35.1568
140.535 1233 35.1141
140.652 1222 34.9571
140.768 0 1
140.884 0 1
141 0 1
141.115 0 1
141.231 0 1
141.347 0 1
141.463 0 1
141.578 0 1
141.694 0 1
144.104 0 1
144.219 0 1
144.335 0 1
144.45 0 1
144.566 0 1
144.682 0 1
144.798 0 1
144.914 0 1
145.03 0 1
145.146 1002 31.6544
145.262 1031 32.1092
145.378 1009 31.7648
145.494 1018 31.9061
145.61 964 31.0483
145.726 1001 31.6386
145.842 939 30.6431
145.959 909 30.1496
146.075 903 30.05
146.192 840 28.9828
146.308 905 30.0832
146.425 896 29.9333
146.541 897 29.95
146.658 940 30.6594
146.774 961 31
146.891 1015 31.8591
147.008 1108 33.2866
147.125 1045 32.3265
147.241 1063 32.6037
147.358 1169 34.1906
147.475 1054 32.4654
147.592 1113 33.3617
147.709 1093 33.0606
147.826 1043 32.2955
147.943 1072 32.7414
148.06 1059 32.5423
148.177 966 31.0805
148.294 978 31.273
148.411 1060 32.5576
148.528 1054 32.4654
148.645 1040 32.249
148.762 1056 32.4962
148.88 1119 33.4515
148.997 1024 32
149.114 1027 32.0468
149.231 1043 32.2955
149.349 1044 32.311
149.466 1040 32.249
149.583 1035 32.1714
149.701 959 30.9677
149.818 1011 31.7962
149.935 904 30.0666
150.053 923 30.3809
150.17 950 30.8221
150.287 941 30.6757
150.405 958 30.9516
150.522 1022 31.9687
150.64 1092 33.0454
150.757 1075 32.7872
150.875 1055 32.4808
150.992 1074 32.7719
151.11 1135 33.6898
151.227 1040 32.249
151.344 1141 33.7787
151.462 1089 33
151.579 1124 33.5261
151.697 1041 32.2645
151.814 1008 31.749
151.932 1010 31.7805
152.049 1085 32.9393
152.167 1095 33.0908
152.284 1135 33.6898
152.402 1140 33.7639
152.519 1142 33.7935
152.636 1121 33.4813
152.754 1146 33.8526
152.871 1093 33.0606
152.989 1092 33.0454
153.106 1092 33.0454
153.223 1112 33.3467
153.341 1161 34.0735
153.458 1053 32.45
153.575 986 31.4006
153.693 968 31.1127
153.81 1064 32.619
153.927 990 31.4643
154.044 1166 34.1467
154.162 1103 33.2114
154.279 1147 33.8674
154.396 1177 34.3074
154.513 1247 35.3129
154.63 1317 36.2905
154.747 1227 35.0286
154.864 1248 35.327
154.981 1317 36.2905
155.098 1246 35.2987
155.215 1232 35.0999
155.332 1159 34.0441
155.449 1171 34.2199
155.566 1116 33.4066
155.683 1225 35
155.8 1262 35.5246
155.917 1295 35.9861
156.033 1242 35.242
156.15 0 1
156.267 0 1
156.383 0 1
156.5 0 1
156.617 0 1
156.733 0 1
156.85 0 1
156.966 0 1
157.082 0 1
157.199 0 1
157.315 0 1
157.431 0 1
157.547 0 1
157.664 0 1
157.78 0 1
157.896 0 1
158.012 0 1
158.128 0 1
158.244 0 1
158.359 0 1
158.475 0 1
158.591 0 1
158.706 0 1
