
6.15755 0 1
6.2731 0 1
6.3887 0 1
6.50437 0 1
6.62009 0 1
6.73587 0 1
6.8517 0 1
6.96759 0 1
7.08353 0 1
7.19952 0 1
7.31557 0 1
7.43166 0 1
7.54781 0 1
7.664 0 1
7.78024 0 1
7.89653 0 1
8.01286 0 1
8.12924 0 1
8.24567 0 1
8.36213 0 1
8.47864 0 1
8.59519 0 1
8.71178 0 1
8.82841 0 1
8.94508 0 1
9.06179 0 1
9.17853 0 1
9.29531 0 1
9.41212 0 1
9.52897 0 1
9.64584 0 1
9.76276 0 1
9.8797 0 1
9.99667 0 1
10.1137 0 1
10.2307 0 1
10.3478 0 1
10.4648 0 1
10.5819 0 1
10.6991 0 1
10.8162 0 1
10.9334 0 1
11.0506 0 1
11.1678 0 1
11.285 0 1
11.4023 0 1
11.5196 0 1
11.6369 0 1
11.7542 0 1
11.8715 0 1
11.9888 0 1
12.1062 0 1
12.2235 0 1
12.3409 0 1
12.4582 0 1
12.5756 0 1
12.693 0 1
12.8104 0 1
12.9278 0 1
13.0452 0 1
13.1626 0 1
13.28 0 1
13.3974 0 1
13.5149 0 1
13.6323 0 1
13.7497 0 1
13.8671 0 1
13.9845 0 1
14.1019 0 1
14.2193 0 1
14.3367 0 1
14.4541 0 1
14.5714 0 1
14.6888 0 1
14.8062 0 1
14.9235 0 1
15.0408 0 0
15.1581 0 0
15.2755 0 0
15.3927 0 0
15.51 0 0
15.6273 0 0
15.7445 0 0
15.8617 0 0
15.9789 0 0
16.0961 0 0
16.2132 0 0
16.3304 0 0
16.4475 0 0
16.5646 0 0
16.6816 0 0
16.7986 0 0
16.9156 0 0
17.0326 0 0
17.1496 0 0
17.2665 0 0
17.3833 0 0
17.5002 0 0
17.617 0 0
17.7338 0 0
17.8505 0 0
17.9672 0 0
18.0839 0 0
18.2005 0 0
18.3171 0 0
18.4337 0 0
18.5502 0 0
18.6666 0 0
18.7831 0 0
18.8994 0 0
19.0158 0 0
19.1321 0 0
19.2483 0 0
19.3645 0 0
19.4806 0 0
19.5967 0 0
19.7128 0 0
19.8288 0 0
19.9447 0 0
20.0606 0 1
20.1764 0 1
20.2922 0 1
20.4079 0 1
20.5236 0 1
20.6392 0 1
20.7548 0 1
20.8702 0 1
23.3078 0 1
23.4233 0 1
23.539 0 1
23.6547 0 1
23.7704 0 1
23.8862 0 1
24.0021 0 1
24.118 0 1
24.234 0 1
24.35 0 1
24.4661 1337 36.565
24.5822 1438 37.921
24.6984 1533 39.1535
24.8146 1634 40.4228
24.9309 2002 44.7437
25.0472 2263 47.571
25.1636 2535 50.3488
25.28 2606 51.049
25.3965 2725 52.2015
25.513 2658 51.5558
25.6296 2765 52.5833
25.7462 2752 52.4595
25.8628 2643 51.4101
25.9795 2723 52.1824
26.0962 2811 53.0189
26.213 2839 53.2823
26.3298 2772 52.6498
26.4466 2807 52.9811
26.5635 2692 51.8845
26.6804 2798 52.8961
26.7973 2666 51.6333
26.9143 2680 51.7687
27.0313 2601 51
27.1483 2621 51.1957
27.2653 2504 50.04
27.3824 2354 48.518
27.4996 2371 48.6929
27.6167 2181 46.7012
27.7339 2173 46.6154
27.8511 2379 48.775
27.9683 2523 50.2295
28.0855 2586 50.8527
28.2028 2604 51.0294
28.3201 2508 50.0799
28.4374 2568 50.6754
28.5547 2542 50.4183
28.6721 2489 49.8899
28.7894 2506 50.06
28.9068 2447 49.4672
29.0242 2586 50.8527
29.1416 2583 50.8232
29.259 2606 51.049
29.3764 2528 50.2792
29.4939 2506 50.06
29.6113 2433 49.3254
29.7288 2406 49.051
29.8463 2409 49.0816
29.9638 2407 49.0612
30.0812 2345 48.4252
30.1987 2409 49.0816
30.3162 2416 49.1528
30.4337 2529 50.2892
30.5512 2552 50.5173
30.6687 2439 49.3862
30.7862 2526 50.2593
30.9037 2406 49.051
31.0212 2312 48.0833
31.1387 2293 47.8853
31.2562 2316 48.1248
31.3737 2490 49.8999
31.4912 2500 50
31.6087 2552 50.5173
31.7262 2582 50.8134
31.8436 2617 51.1566
31.9611 2526 50.2593
32.0785 2548 50.4777
32.1959 2456 49.558
32.3134 2505 50.05
32.4308 2434 49.3356
32.5482 2499 49.99
32.6655 2342 48.3942
32.7829 2375 48.734
32.9002 2317 48.1352
33.0176 2229 47.2123
33.1349 2201 46.9148
33.2522 2220 47.1169
33.3694 2210 47.0106
33.4867 2241 47.3392
33.6039 2242 47.3498
33.7211 2234 47.2652
33.8383 2296 47.9166
33.9554 2422 49.2138
34.0725 2422 49.2138
34.1896 2354 48.518
34.3067 2439 49.3862
34.4237 2400 48.9898
34.5407 2315 48.1144
34.6577 2282 47.7703
34.7746 2269 47.634
34.8915 2259 47.5289
35.0084 2399 48.9796
35.1252 2495 49.95
35.242 2564 50.636
35.3587 2602 51.0098
35.4755 2494 49.94
35.5921 2378 48.7647
35.7088 2344 48.4149
35.8254 2265 47.592
35.9419 2327 48.239
36.0584 2189 46.7868
36.1749 2122 46.0652
36.2913 2062 45.4093
36.4077 2023 44.9778
36.524 1927 43.8976
36.6403 1700 41.2311
36.7565 1606 40.0749
36.8727 1508 38.833
36.9889 1490 38.6005
37.1049 1438 37.921
37.221 0 1
37.3369 0 1
37.4529 0 1
37.5687 0 1
37.6845 0 1
37.8003 0 1
37.916 0 1
38.0316 0 1
38.1472 0 1
40.5851 0 1
40.7008 0 1
40.8164 0 1
40.9322 0 1
41.048 0 1
41.1639 0 1
41.2798 0 1
41.3958 0 1
41.5118 0 1
41.6279 0 1
41.744 1792 42.332
41.8602 2497 49.97
41.9765 2947 54.2863
42.0928 3193 56.5066
42.2091 3243 56.9473
42.3255 3183 56.4181
42.4419 3246 56.9737
42.5584 3282 57.2887
42.675 3364 58
42.7915 3389 58.2151
42.9081 3570 59.7495
43.0248 3626 60.2163
43.1415 3596 59.9667
43.2582 3485 59.0339
43.375 3173 56.3294
43.4918 3143 56.0625
43.6087 3273 57.2101
43.7256 3246 56.9737
43.8425 3348 57.8619
43.9595 3377 58.112
44.0765 3491 59.0847
44.1935 3299 57.4369
44.3106 3184 56.4269
44.4277 3142 56.0535
44.5448 3089 55.5788
44.6619 2908 53.9259
44.7791 2874 53.6097
44.8963 2627 51.2543
45.0136 2537 50.3686
45.1308 2449 49.4874
45.2481 2268 47.6235
45.3654 2178 46.669
45.4827 2131 46.1628
45.6001 2020 44.9444
45.7174 2013 44.8665
45.8348 1988 44.587
45.9522 1954 44.2041
46.0697 2039 45.1553
46.1871 1993 44.643
46.3046 2093 45.7493
46.422 2159 46.465
46.5395 2117 46.0109
46.657 2188 46.7761
46.7745 2151 46.3789
46.892 1966 44.3396
47.0096 1861 43.1393
47.1271 1975 44.441
47.2446 2150 46.3681
47.3622 2082 45.6289
47.4797 2110 45.9347
47.5973 2088 45.6946
47.7149 2125 46.0977
47.8324 2104 45.8694
47.95 2195 46.8508
48.0675 2113 45.9674
48.1851 2075 45.5522
48.3027 1980 44.4972
48.4202 1958 44.2493
48.5378 1946 44.1135
48.6554 1920 43.8178
48.7729 1838 42.8719
48.8904 1914 43.7493
49.008 1777 42.1545
49.1255 1857 43.0929
49.243 1858 43.1045
49.3605 1891 43.4856
49.478 1953 44.1928
49.5955 1978 44.4747
49.713 1979 44.486
49.8304 2060 45.3872
49.9479 2080 45.607
50.0653 2091 45.7275
50.1827 1996 44.6766
50.3001 1940 44.0454
50.4175 1680 40.9878
50.5348 1565 39.5601
50.6521 1715 41.4126
50.7694 1876 43.3128
50.8867 2024 44.9889
51.004 2111 45.9456
51.1212 2104 45.8694
51.2384 2153 46.4004
51.3556 2028 45.0333
51.4727 2123 46.076
51.5899 2081 45.618
51.707 2010 44.833
51.824 2060 45.3872
51.9411 1998 44.699
52.0581 1927 43.8976
52.175 2002 44.7437
52.2919 1953 44.1928
52.4088 1846 42.9651
52.5257 1932 43.9545
52.6425 1832 42.8019
52.7593 1763 41.9881
52.876 1798 42.4028
52.9927 1810 42.5441
53.1094 1849 43
53.226 1768 42.0476
53.3426 1911 43.715
53.4591 1832 42.8019
53.5756 1632 40.398
53.692 1513 38.8973
53.8084 1339 36.5923
53.9248 1230 35.0714
54.0411 1027 32.0468
54.1573 961 31
54.2735 0 1
54.3896 0 1
54.5057 0 1
54.6217 0 1
54.7377 0 1
54.8537 0 1
54.9695 0 1
55.0853 0 1
55.2011 0 1
55.3168 0 1
55.4324 0 1
57.824 0 1
57.9396 0 1
58.0553 0 1
58.1711 0 1
58.2869 0 1
58.4028 0 1
58.5187 0 1
58.6347 0 1
58.7508 0 1
58.8669 0 1
58.983 1592 39.8999
59.0992 1588 39.8497
59.2155 1736 41.6653
59.3318 1854 43.0581
59.4482 1969 44.3734
59.5646 2228 47.2017
59.681 2412 49.1121
59.7975 2380 48.7852
59.9141 2384 48.8262
60.0306 2421 49.2037
60.1473 2440 49.3964
60.2639 2469 49.689
60.3807 2426 49.2544
60.4974 2482 49.8197
60.6142 2368 48.6621
60.731 2574 50.7346
60.8479 2516 50.1597
60.9648 2515 50.1498
61.0818 2454 49.5379
61.1987 2392 48.9081
61.3158 2345 48.4252
61.4328 2310 48.0625
61.5499 2363 48.6107
61.667 2303 47.9896
61.7841 2326 48.2286
61.9013 2333 48.3011
62.0185 2430 49.295
62.1357 2383 48.816
62.253 2453 49.5278
62.3702 2342 48.3942
62.4875 2279 47.7389
62.6049 2120 46.0435
62.7222 2142 46.2817
62.8396 2307 48.0312
62.9569 2416 49.1528
63.0743 2516 50.1597
63.1918 2501 50.01
63.3092 2519 50.1896
63.4267 2586 50.8527
63.5441 2539 50.3885
63.6616 2539 50.3885
63.7791 2346 48.4355
63.8966 2368 48.6621
64.0142 2463 49.6286
64.1317 2374 48.7237
64.2492 2496 49.96
64.3668 2504 50.04
64.4843 2310 48.0625
64.6019 2497 49.97
64.7195 2341 48.3839
64.837 2333 48.3011
64.9546 2360 48.5798
65.0722 2362 48.6004
65.1898 2212 47.0319
65.3074 2413 49.1223
65.4249 2313 48.0937
65.5425 2347 48.4458
65.6601 2367 48.6518
65.7777 2406 49.051
65.8952 2367 48.6518
66.0128 2250 47.4342
66.1304 2073 45.5302
66.2479 1821 42.6732
66.3655 2083 45.6399
66.483 2214 47.0532
66.6005 2306 48.0208
66.718 2452 49.5177
66.8355 2348 48.4562
66.953 2529 50.2892
67.0705 2492 49.9199
67.1879 2491 49.9099
67.3054 2414 49.1325
67.4228 2447 49.4672
67.5402 2467 49.6689
67.6576 2483 49.8297
67.7749 2452 49.5177
67.8923 2351 48.4871
68.0096 2443 49.4267
68.1269 2351 48.4871
68.2442 2390 48.8876
68.3614 2309 48.0521
68.4787 2288 47.833
68.5958 2258 47.5184
68.713 2299 47.9479
68.8302 2224 47.1593
68.9473 2158 46.4543
69.0643 2261 47.55
69.1814 2213 47.0425
69.2984 2284 47.7912
69.4154 2265 47.592
69.5323 2319 48.156
69.6492 2160 46.4758
69.7661 1954 44.2041
69.8829 1702 41.2553
69.9997 1857 43.0929
70.1165 2026 45.0111
70.2332 1988 44.587
70.3499 1921 43.8292
70.4665 1813 42.5793
70.5831 1639 40.4846
70.6996 1606 40.0749
70.8161 1517 38.9487
70.9326 1461 38.223
71.049 1417 37.6431
71.1653 1322 36.3593
71.2817 1296 36
71.3979 1259 35.4824
71.5141 1245 35.2846
71.6303 1149 33.8969
71.7464 1070 32.7109
71.8624 0 1
71.9784 0 1
72.0944 0 1
72.2102 0 1
72.3261 0 1
72.4418 0 1
72.5575 0 1
72.6732 0 1
75.1054 0 1
75.2209 0 1
75.3365 0 1
75.4521 0 1
75.5678 0 1
75.6835 0 1
75.7993 0 1
75.9151 0 1
76.031 0 1
76.147 1851 43.0232
76.263 2107 45.9021
76.3791 2068 45.4753
76.4952 2135 46.2061
76.6113 2110 45.9347
76.7276 2081 45.618
76.8438 2125 46.0977
76.9601 2255 47.4868
77.0765 2160 46.4758
77.1929 2190 46.7974
77.3093 2312 48.0833
77.4258 2207 46.9787
77.5423 2209 47
77.6589 2127 46.1194
77.7755 2108 45.913
77.8921 2098 45.8039
78.0088 2150 46.3681
78.1256 2153 46.4004
78.2423 2128 46.1303
78.3591 2153 46.4004
78.4759 2244 47.3709
78.5928 2199 46.8935
78.7097 1983 44.5309
78.8266 1660 40.7431
78.9436 1506 38.8072
79.0606 1616 40.1995
79.1776 1967 44.3509
79.2946 2080 45.607
79.4117 2285 47.8017
79.5288 2293 47.8853
79.6459 2310 48.0625
79.7631 2325 48.2183
79.8802 2340 48.3735
79.9974 2326 48.2286
80.1147 2301 47.9687
80.2319 2294 47.8957
80.3491 2353 48.5077
80.4664 2328 48.2494
80.5837 2350 48.4768
80.701 2356 48.5386
80.8183 2462 49.6185
80.9357 2519 50.1896
81.053 2302 47.9792
81.1704 2350 48.4768
81.2877 2306 48.0208
81.4051 2262 47.5605
81.5225 2305 48.0104
81.6399 2318 48.1456
81.7573 2524 50.2394
81.8747 2464 49.6387
81.9922 2512 50.1199
82.1096 2588 50.8724
82.227 2681 51.7784
82.3444 2565 50.6458
82.4619 2346 48.4355
82.5793 2036 45.1221
82.6967 2183 46.7226
82.8142 2626 51.2445
82.9316 3125 55.9017
83.049 3630 60.2495
83.1664 3614 60.1166
83.2838 3698 60.8112
83.4012 3821 61.8142
83.5186 3883 62.3137
83.636 4014 63.3561
83.7534 4152 64.436
83.8708 4164 64.5291
83.9881 4138 64.3273
84.1055 4225 65
84.2228 4320 65.7267
84.3401 4321 65.7343
84.4575 4275 65.3835
84.5747 4314 65.681
84.692 4200 64.8074
84.8093 4257 65.2457
84.9265 4216 64.9307
85.0437 4074 63.8279
85.1609 4054 63.671
85.2781 4155 64.4593
85.3952 4149 64.4127
85.5123 4142 64.3584
85.6294 4181 64.6607
85.7465 4076 63.8436
85.8636 3809 61.7171
85.9806 3236 56.8859
86.0976 2685 51.817
86.2145 2738 52.3259
86.3315 3042 55.1543
86.4484 3954 62.8808
86.5652 3991 63.1744
86.682 4062 63.7338
86.7988 4225 65
86.9156 4089 63.9453
87.0323 4152 64.436
87.149 4005 63.2851
87.2657 4124 64.2184
87.3823 4087 63.9296
87.4988 4035 63.5216
87.6154 3587 59.8916
87.7318 3286 57.3236
87.8483 3072 55.4256
87.9647 2909 53.9351
88.081 2908 53.9259
88.1973 2763 52.5642
88.3136 2768 52.6118
88.4298 2698 51.9423
88.546 2505 50.05
88.6621 2413 49.1223
88.7781 2325 48.2183
88.8942 0 1
89.0101 0 1
89.126 0 1
89.2419 0 1
89.3577 0 1
89.4734 0 1
89.5891 0 1
89.7047 0 1
89.8203 0 1
89.9358 0 1
92.3269 0 1
92.4424 0 1
92.558 0 1
92.6736 0 1
92.7893 0 1
92.905 0 1
93.0208 0 1
93.1366 0 1
93.2525 0 1
93.3685 0 1
93.4845 0 1
93.6005 4318 65.7115
93.7167 4338 65.8635
93.8328 4410 66.4078
93.949 4429 66.5507
94.0653 4355 65.9924
94.1816 4315 65.6887
94.2979 4262 65.284
94.4143 4312 65.6658
94.5307 4279 65.4141
94.6472 4366 66.0757
94.7637 4145 64.3817
94.8803 3671 60.5888
94.9969 3236 56.8859
95.1135 2952 54.3323
95.2302 3269 57.1752
95.3469 3635 60.291
95.4637 4113 64.1327
95.5805 4304 65.6049
95.6973 4387 66.2344
95.8142 4491 67.0149
95.9311 4565 67.5648
96.048 4554 67.4833
96.1649 4406 66.3777
96.2819 4389 66.2495
96.3989 4516 67.2012
96.516 4426 66.5282
96.633 4530 67.3053
96.7501 4520 67.2309
96.8673 4564 67.5574
96.9844 4516 67.2012
97.1016 4614 67.9264
97.2188 4521 67.2384
97.336 4594 67.7791
97.4532 4550 67.4537
97.5704 4326 65.7723
97.6877 4312 65.6658
97.805 4436 66.6033
97.9223 4460 66.7832
98.0396 4414 66.4379
98.1569 4376 66.1513
98.2743 4120 64.1872
98.3916 3861 62.1369
98.509 3385 58.1808
98.6264 2981 54.5985
98.7438 2958 54.3875
98.8612 3316 57.5847
98.9786 3770 61.4003
99.096 3874 62.2415
99.2134 3814 61.7576
99.3308 3613 60.1082
99.4482 3609 60.075
99.5656 3505 59.203
99.6831 3405 58.3524
99.8005 3376 58.1034
99.9179 3256 57.0614
100.035 3178 56.3738
100.153 3128 55.9285
100.27 3157 56.1872
100.388 3126 55.9106
100.505 3063 55.3444
100.622 3206 56.6216
100.74 3259 57.0877
100.857 3084 55.5338
100.975 2986 54.6443
101.092 3010 54.8635
101.209 2867 53.5444
101.327 2918 54.0185
101.444 2982 54.6077
101.561 2922 54.0555
101.679 2976 54.5527
101.796 2949 54.3047
101.913 2850 53.3854
102.03 2626 51.2445
102.148 2403 49.0204
102.265 2219 47.1063
102.382 2426 49.2544
102.499 2705 52.0096
102.616 2787 52.792
102.733 2819 53.0943
102.851 2790 52.8205
102.968 2882 53.6843
103.085 2705 52.0096
103.202 2776 52.6878
103.319 2742 52.3641
103.436 2760 52.5357
103.552 2659 51.5655
103.669 2725 52.2015
103.786 2681 51.7784
103.903 2763 52.5642
104.02 2721 52.1632
104.137 2815 53.0566
104.253 2853 53.4135
104.37 2598 50.9706
104.487 2632 51.303
104.603 2679 51.7591
104.72 2628 51.264
104.836 2341 48.3839
104.953 2204 46.9468
105.069 1900 43.589
105.186 1830 42.7785
105.302 1634 40.4228
105.418 1568 39.598
105.535 1448 38.0526
105.651 1186 34.4384
105.767 1001 31.6386
105.883 901 30.0167
105.999 815 28.5482
106.115 0 1
106.231 0 1
106.347 0 1
106.463 0 1
106.579 0 1
106.694 0 1
106.81 0 1
106.926 0 1
107.041 0 1
107.157 0 1
109.576 0 1
109.692 0 1
109.807 0 1
109.923 0 1
110.039 0 1
110.155 0 1
110.27 0 1
110.386 0 1
110.502 0 1
110.618 2762 52.5547
110.735 2801 52.9245
110.851 2672 51.6914
110.967 2395 48.9387
111.083 2378 48.7647
111.199 2539 50.3885
111.316 2714 52.0961
111.432 2959 54.3967
111.549 3006 54.827
111.665 3002 54.7905
111.782 3032 55.0636
111.898 2961 54.4151
112.015 3031 55.0545
112.132 3108 55.7494
112.248 2992 54.6992
112.365 3018 54.9363
112.482 2851 53.3948
112.599 3165 56.2583
112.716 3175 56.3471
112.832 3251 57.0175
112.949 3215 56.701
113.066 3414 58.4294
113.183 3326 57.6715
113.3 3347 57.8533
113.417 3422 58.4979
113.534 3316 57.5847
113.652 3328 57.6888
113.769 3400 58.3095
113.886 3320 57.6194
114.003 3268 57.1664
114.12 3214 56.6922
114.238 3215 56.701
114.355 2931 54.1387
114.472 2674 51.7107
114.589 2625 51.2348
114.707 2604 51.0294
114.824 2867 53.5444
114.942 3123 55.8838
115.059 3164 56.2494
115.176 3135 55.9911
115.294 3038 55.1181
115.411 3108 55.7494
115.529 3051 55.2359
115.646 2948 54.2955
115.764 3110 55.7674
115.881 3059 55.3082
115.999 3069 55.3986
116.116 3172 56.3205
116.234 3140 56.0357
116.351 3252 57.0263
116.469 3398 58.2924
116.586 3263 57.1227
116.704 3443 58.6771
116.821 3363 57.9914
116.939 3475 58.9491
117.056 3327 57.6802
117.174 3307 57.5065
117.291 3360 57.9655
117.409 3253 57.0351
117.526 3273 57.2101
117.644 3211 56.6657
117.761 3337 57.7668
117.879 3102 55.6956
117.996 2861 53.4883
118.114 2594 50.9313
118.231 2717 52.1249
118.349 2775 52.6783
118.466 3097 55.6507
118.584 3020 54.9545
118.701 3109 55.7584
118.819 3109 55.7584
118.936 3111 55.7763
119.053 3038 55.1181
119.171 2936 54.1849
119.288 3017 54.9272
119.405 3010 54.8635
119.523 2983 54.6168
119.64 2889 53.7494
119.757 2971 54.5069
119.875 3104 55.7136
119.992 3036 55.0999
120.109 3140 56.0357
120.226 3177 56.3649
120.343 3200 56.5685
120.46 3170 56.3028
120.578 3179 56.3826
120.695 3172 56.3205
120.812 3132 55.9643
120.929 3034 55.0818
121.046 3122 55.8749
121.163 3116 55.8211
121.279 3076 55.4617
121.396 3072 55.4256
121.513 2925 54.0833
121.63 2627 51.2543
121.747 2446 49.4571
121.863 2198 46.8828
121.98 2048 45.2548
122.097 2049 45.2659
122.213 2173 46.6154
122.33 2145 46.3141
122.446 2181 46.7012
122.563 2045 45.2217
122.679 2065 45.4423
122.795 1964 44.317
122.912 1886 43.4281
123.028 1861 43.1393
123.144 1861 43.1393
123.26 1722 41.497
123.377 0 1
123.493 0 1
123.609 0 1
123.725 0 1
123.84 0 1
123.956 0 1
124.072 0 1
124.188 0 1
124.303 0 1
124.419 0 1
126.852 0 1
126.968 0 1
127.083 0 1
127.199 0 1
127.315 0 1
127.431 0 1
127.547 0 1
127.663 0 1
127.779 0 1
127.895 0 1
128.011 0 1
128.127 0 1
128.243 0 1
128.359 3484 59.0254
128.476 3534 59.4475
128.592 3619 60.1581
128.708 3539 59.4895
128.825 3547 59.5567
128.941 3659 60.4897
129.058 3700 60.8276
129.174 3631 60.2578
129.291 3760 61.3188
129.408 3742 61.1719
129.524 3933 62.7136
129.641 4038 63.5453
129.758 4095 63.9922
129.875 4192 64.7457
129.992 4217 64.9384
130.108 4292 65.5134
130.225 4193 64.7534
130.342 4339 65.8711
130.459 3895 62.4099
130.576 3997 63.2218
130.693 3808 61.709
130.81 3629 60.2412
130.928 3643 60.3573
131.045 3787 61.5386
131.162 3964 62.9603
131.279 4100 64.0312
131.396 3941 62.7774
131.513 4127 64.2417
131.631 4031 63.4902
131.748 4058 63.7024
131.865 4001 63.2535
131.983 3963 62.9524
132.1 3920 62.6099
132.217 3926 62.6578
132.335 3814 61.7576
132.452 3838 61.9516
132.57 3879 62.2816
132.687 3656 60.4649
132.804 4017 63.3798
132.922 4098 64.0156
133.039 4252 65.2074
133.157 4213 64.9076
133.274 4239 65.1076
133.392 4154 64.4515
133.509 4341 65.8863
133.627 4299 65.5668
133.744 4338 65.8635
133.862 4455 66.7458
133.979 4482 66.9477
134.097 4407 66.3852
134.214 4332 65.8179
134.332 4077 63.8514
134.449 4103 64.0547
134.567 4001 63.2535
134.684 4217 64.9384
134.802 4303 65.5973
134.919 4328 65.7875
135.037 4502 67.0969
135.154 4377 66.1589
135.272 4273 65.3682
135.389 4307 65.6277
135.507 4272 65.3605
135.624 4205 64.846
135.742 3998 63.2297
135.859 4050 63.6396
135.977 4073 63.8201
136.094 4081 63.8827
136.211 3972 63.0238
136.329 4120 64.1872
136.446 4173 64.5988
136.564 4114 64.1405
136.681 4040 63.561
136.798 4151 64.4283
136.915 4204 64.8383
137.033 4329 65.7951
137.15 4338 65.8635
137.267 4314 65.681
137.384 4345 65.9166
137.502 4354 65.9848
137.619 4360 66.0303
137.736 4310 65.6506
137.853 3948 62.8331
137.97 3986 63.1348
138.087 3827 61.8628
138.204 3905 62.49
138.321 4048 63.6239
138.438 4195 64.7688
138.555 4200 64.8074
138.672 4171 64.5833
138.788 4124 64.2184
138.905 4238 65.0999
139.022 4022 63.4192
139.139 3798 61.6279
139.255 3611 60.0916
139.372 3304 57.4804
139.488 3337 57.7668
139.605 3155 56.1694
139.721 3083 55.5248
139.838 3009 54.8544
139.954 2971 54.5069
140.071 2836 53.2541
140.187 2927 54.1018
140.303 2866 53.535
140.419 2830 53.1977
140.535 2893 53.7866
140.652 2926 54.0925
140.768 0 1
140.884 0 1
141 0 1
141.115 0 1
141.231 0 1
141.347 0 1
141.463 0 1
141.578 0 1
141.694 0 1
144.104 0 1
144.219 0 1
144.335 0 1
144.45 0 1
144.566 0 1
144.682 0 1
144.798 0 1
144.914 0 1
145.03 0 1
145.146 8577 92.6121
145.262 8774 93.6696
145.378 8696 93.2523
145.494 8795 93.7817
145.61 8986 94.7945
145.726 8909 94.3875
145.842 8945 94.578
145.959 8965 94.6837
146.075 9062 95.1945
146.192 8976 94.7418
146.308 9021 94.9789
146.425 8601 92.7416
146.541 8036 89.6437
146.658 7106 84.2971
146.774 5959 77.1946
146.891 5845 76.4526
147.008 6493 80.5792
147.125 7821 88.4364
147.241 8512 92.2605
147.358 8759 93.5895
147.475 8767 93.6323
147.592 8958 94.6467
147.709 8881 94.2391
147.826 8758 93.5842
147.943 8749 93.5361
148.06 8893 94.3027
148.177 8971 94.7154
148.294 9122 95.5092
148.411 9071 95.2418
148.528 9019 94.9684
148.645 8798 93.7977
148.762 8968 94.6995
148.88 8895 94.3133
148.997 8702 93.2845
149.114 9433 97.1236
149.231 9217 96.0052
149.349 9193 95.8801
149.466 9093 95.3572
149.583 9182 95.8228
149.701 9068 95.226
149.818 9168 95.7497
149.935 9117 95.483
150.053 9179 95.8071
150.17 8748 93.5307
150.287 7856 88.6341
150.405 6613 81.3204
150.522 6083 77.9936
150.64 6459 80.3679
150.757 7630 87.3499
150.875 8468 92.0217
150.992 8850 94.0744
151.11 8780 93.7017
151.227 8834 93.9894
151.344 8926 94.4775
151.462 8755 93.5682
151.579 8985 94.7892
151.697 8751 93.5468
151.814 9067 95.2208
151.932 9018 94.9632
152.049 8721 93.3863
152.167 8878 94.2231
152.284 8980 94.7629
152.402 8886 94.2656
152.519 9033 95.0421
152.636 9007 94.9052
152.754 9183 95.828
152.871 9122 95.5092
152.989 9118 95.4882
153.106 9376 96.8297
153.223 9396 96.933
153.341 9345 96.6695
153.458 9224 96.0417
153.575 9300 96.4365
153.693 9268 96.2705
153.81 8899 94.3345
153.927 8006 89.4763
154.044 6912 83.1384
154.162 6421 80.1311
154.279 6942 83.3187
154.396 8022 89.5656
154.513 8683 93.1826
154.63 9380 96.8504
154.747 9169 95.7549
154.864 9010 94.921
154.981 9065 95.2103
155.098 8916 94.4246
155.215 8754 93.5628
155.332 8580 92.6283
155.449 8513 92.2659
155.566 8458 91.9674
155.683 8168 90.377
155.8 8034 89.6326
155.917 7957 89.202
156.033 7669 87.5728
156.15 0 1
156.267 0 1
156.383 0 1
156.5 0 1
156.617 0 1
156.733 0 1
156.85 0 1
156.966 0 1
157.082 0 1
157.199 0 1
157.315 0 1
157.431 0 1
157.547 0 1
157.664 0 1
157.78 0 1
157.896 0 1
158.012 0 1
158.128 0 1
158.244 0 1
158.359 0 1
158.475 0 1
158.591 0 1
158.706 0 1
