
6.15755 0 1
6.2731 0 1
6.3887 0 1
6.50437 0 1
6.62009 0 1
6.73587 0 1
6.8517 0 1
6.96759 0 1
7.08353 0 1
7.19952 0 1
7.31557 0 1
7.43166 0 1
7.54781 0 1
7.664 0 1
7.78024 0 1
7.89653 0 1
8.01286 0 1
8.12924 0 1
8.24567 0 1
8.36213 0 1
8.47864 0 1
8.59519 0 1
8.71178 0 1
8.82841 0 1
8.94508 0 1
9.06179 0 1
9.17853 0 1
9.29531 0 1
9.41212 0 1
9.52897 0 1
9.64584 0 1
9.76276 0 1
9.8797 0 1
9.99667 0 1
10.1137 0 1
10.2307 0 1
10.3478 0 1
10.4648 0 1
10.5819 0 1
10.6991 0 1
10.8162 0 1
10.9334 0 1
11.0506 0 1
11.1678 0 1
11.285 0 1
11.4023 0 1
11.5196 0 1
11.6369 0 1
11.7542 0 1
11.8715 0 1
11.9888 0 1
12.1062 0 1
12.2235 0 1
12.3409 0 1
12.4582 0 1
12.5756 0 1
12.693 0 1
12.8104 0 1
12.9278 0 1
13.0452 0 1
13.1626 0 1
13.28 0 1
13.3974 0 1
13.5149 0 1
13.6323 0 1
13.7497 0 1
13.8671 0 1
13.9845 0 1
14.1019 0 1
14.2193 0 1
14.3367 0 1
14.4541 0 1
14.5714 0 1
14.6888 0 1
14.8062 0 1
14.9235 0 1
15.0408 1984 44.5421
15.1581 2110 45.9347
15.2755 2153 46.4004
15.3927 2227 47.1911
15.51 2247 47.4025
15.6273 2282 47.7703
15.7445 2245 47.3814
15.8617 2177 46.6583
15.9789 2311 48.0729
16.0961 2247 47.4025
16.2132 2230 47.2229
16.3304 2229 47.2123
16.4475 2399 48.9796
16.5646 2511 50.1099
16.6816 2472 49.7192
16.7986 2532 50.319
16.9156 2575 50.7445
17.0326 2581 50.8035
17.1496 2652 51.4976
17.2665 2514 50.1398
17.3833 2569 50.6853
17.5002 2561 50.6063
17.617 2460 49.5984
17.7338 2313 48.0937
17.8505 2295 47.9062
17.9672 2217 47.085
18.0839 2310 48.0625
18.2005 2430 49.295
18.3171 2399 48.9796
18.4337 2329 48.2597
18.5502 2535 50.3488
18.6666 2472 49.7192
18.7831 2508 50.0799
18.8994 2627 51.2543
19.0158 2548 50.4777
19.1321 2387 48.8569
19.2483 2260 47.5395
19.3645 2348 48.4562
19.4806 2095 45.7712
19.5967 2031 45.0666
19.7128 1846 42.9651
19.8288 1850 43.0116
19.9447 1548 39.3446
20.0606 0 1
20.1764 0 1
20.2922 0 1
20.4079 0 1
20.5236 0 1
20.6392 0 1
20.7548 0 1
20.8702 0 1
23.3078 0 1
23.4233 0 1
23.539 0 1
23.6547 0 1
23.7704 0 1
23.8862 0 1
24.0021 0 1
24.118 0 1
24.234 0 1
24.35 0 1
24.4661 1060 32.5576
24.5822 1260 35.4965
24.6984 1419 37.6696
24.8146 1523 39.0256
24.9309 1753 41.8688
25.0472 1865 43.1856
25.1636 2053 45.31
25.28 2187 46.7654
25.3965 2335 48.3218
25.513 2612 51.1077
25.6296 2684 51.8073
25.7462 2823 53.1319
25.8628 2805 52.9623
25.9795 2762 52.5547
26.0962 2777 52.6972
26.213 2723 52.1824
26.3298 2521 50.2096
26.4466 2418 49.1732
26.5635 2323 48.1975
26.6804 2329 48.2597
26.7973 2396 48.949
26.9143 2497 49.97
27.0313 2542 50.4183
27.1483 2566 50.6557
27.2653 2595 50.9411
27.3824 2566 50.6557
27.4996 2639 51.3712
27.6167 2685 51.817
27.7339 2547 50.4678
27.8511 2521 50.2096
27.9683 2388 48.8672
28.0855 2353 48.5077
28.2028 2319 48.156
28.3201 2266 47.6025
28.4374 2164 46.5188
28.5547 2222 47.1381
28.6721 2407 49.0612
28.7894 2507 50.07
28.9068 2556 50.5569
29.0242 2660 51.5752
29.1416 2792 52.8394
29.259 2705 52.0096
29.3764 2735 52.2972
29.4939 2705 52.0096
29.6113 2602 51.0098
29.7288 2578 50.774
29.8463 2364 48.621
29.9638 2310 48.0625
30.0812 2225 47.1699
30.1987 2220 47.1169
30.3162 2357 48.5489
30.4337 2358 48.5592
30.5512 2395 48.9387
30.6687 2445 49.4469
30.7862 2449 49.4874
30.9037 2584 50.8331
31.0212 2570 50.6952
31.1387 2560 50.5964
31.2562 2515 50.1498
31.3737 2469 49.689
31.4912 2434 49.3356
31.6087 2267 47.613
31.7262 2260 47.5395
31.8436 2263 47.571
31.9611 2185 46.744
32.0785 2167 46.551
32.1959 2247 47.4025
32.3134 2386 48.8467
32.4308 2356 48.5386
32.5482 2513 50.1298
32.6655 2602 51.0098
32.7829 2624 51.225
32.9002 2607 51.0588
33.0176 2632 51.303
33.1349 2538 50.3786
33.2522 2576 50.7543
33.3694 2441 49.4065
33.4867 2251 47.4447
33.6039 2191 46.8081
33.7211 2124 46.0869
33.8383 2012 44.8553
33.9554 2208 46.9894
34.0725 2218 47.0956
34.1896 2257 47.5079
34.3067 2399 48.9796
34.4237 2355 48.5283
34.5407 2437 49.366
34.6577 2559 50.5866
34.7746 2486 49.8598
34.8915 2374 48.7237
35.0084 2367 48.6518
35.1252 2386 48.8467
35.242 2325 48.2183
35.3587 2256 47.4974
35.4755 2130 46.1519
35.5921 2121 46.0543
35.7088 2038 45.1442
35.8254 2036 45.1221
35.9419 2176 46.6476
36.0584 2231 47.2335
36.1749 2227 47.1911
36.2913 2262 47.5605
36.4077 2294 47.8957
36.524 2227 47.1911
36.6403 2206 46.9681
36.7565 2143 46.2925
36.8727 2023 44.9778
36.9889 1872 43.2666
37.1049 1725 41.5331
37.221 0 1
37.3369 0 1
37.4529 0 1
37.5687 0 1
37.6845 0 1
37.8003 0 1
37.916 0 1
38.0316 0 1
38.1472 0 1
40.5851 0 1
40.7008 0 1
40.8164 0 1
40.9322 0 1
41.048 0 1
41.1639 0 1
41.2798 0 1
41.3958 0 1
41.5118 0 1
41.6279 0 1
41.744 1210 34.7851
41.8602 1276 35.7211
41.9765 1345 36.6742
42.0928 1492 38.6264
42.2091 1383 37.1887
42.3255 1416 37.6298
42.4419 1457 38.1707
42.5584 1536 39.1918
42.675 1565 39.5601
42.7915 1758 41.9285
42.9081 1749 41.821
43.0248 1845 42.9535
43.1415 1855 43.0697
43.2582 1997 44.6878
43.375 1989 44.5982
43.4918 2074 45.5412
43.6087 1983 44.5309
43.7256 2002 44.7437
43.8425 1920 43.8178
43.9595 1913 43.7379
44.0765 1905 43.6463
44.1935 1766 42.0238
44.3106 1780 42.19
44.4277 1734 41.6413
44.5448 1699 41.2189
44.6619 1807 42.5088
44.7791 1808 42.5206
44.8963 1947 44.1248
45.0136 2071 45.5082
45.1308 1991 44.6206
45.2481 2139 46.2493
45.3654 2063 45.4203
45.4827 2086 45.6727
45.6001 2049 45.2659
45.7174 1961 44.2832
45.8348 1870 43.2435
45.9522 1734 41.6413
46.0697 1687 41.0731
46.1871 1685 41.0488
46.3046 1680 40.9878
46.422 1730 41.5933
46.5395 1861 43.1393
46.657 1961 44.2832
46.7745 2053 45.31
46.892 1949 44.1475
47.0096 2141 46.2709
47.1271 2090 45.7165
47.2446 1981 44.5084
47.3622 2104 45.8694
47.4797 2028 45.0333
47.5973 1877 43.3244
47.7149 1944 44.0908
47.8324 1917 43.7836
47.95 1776 42.1426
48.0675 1811 42.5558
48.1851 1696 41.1825
48.3027 1855 43.0697
48.4202 1857 43.0929
48.5378 1960 44.2719
48.6554 2043 45.1996
48.7729 2040 45.1664
48.8904 2155 46.422
49.008 2080 45.607
49.1255 2104 45.8694
49.243 1994 44.6542
49.3605 1843 42.9302
49.478 1651 40.6325
49.5955 1671 40.8779
49.713 1565 39.5601
49.8304 1585 39.8121
49.9479 1825 42.72
50.0653 1851 43.0232
50.1827 1935 43.9886
50.3001 2008 44.8107
50.4175 1977 44.4635
50.5348 2077 45.5741
50.6521 2080 45.607
50.7694 2142 46.2817
50.8867 2099 45.8148
51.004 2043 45.1996
51.1212 2097 45.793
51.2384 2003 44.7549
51.3556 1990 44.6094
51.4727 1854 43.0581
51.5899 1838 42.8719
51.707 1777 42.1545
51.824 1982 44.5197
51.9411 2196 46.8615
52.0581 2239 47.3181
52.175 2394 48.9285
52.2919 2357 48.5489
52.4088 2479 49.7896
52.5257 2573 50.7247
52.6425 2578 50.774
52.7593 2582 50.8134
52.876 2418 49.1732
52.9927 2330 48.2701
53.1094 2154 46.4112
53.226 2087 45.6837
53.3426 1942 44.0681
53.4591 1978 44.4747
53.5756 2155 46.422
53.692 2065 45.4423
53.8084 2002 44.7437
53.9248 1965 44.3283
54.0411 2017 44.911
54.1573 1899 43.5775
54.2735 0 1
54.3896 0 1
54.5057 0 1
54.6217 0 1
54.7377 0 1
54.8537 0 1
54.9695 0 1
55.0853 0 1
55.2011 0 1
55.3168 0 1
55.4324 0 1
57.824 0 1
57.9396 0 1
58.0553 0 1
58.1711 0 1
58.2869 0 1
58.4028 0 1
58.5187 0 1
58.6347 0 1
58.7508 0 1
58.8669 0 1
58.983 1616 40.1995
59.0992 1995 44.6654
59.2155 2197 46.8722
59.3318 2267 47.613
59.4482 2244 47.3709
59.5646 2430 49.295
59.681 2389 48.8774
59.7975 2469 49.689
59.9141 2449 49.4874
60.0306 2405 49.0408
60.1473 2308 48.0416
60.2639 2239 47.3181
60.3807 2184 46.7333
60.4974 2238 47.3075
60.6142 2304 48
60.731 2536 50.3587
60.8479 2583 50.8232
60.9648 2618 51.1664
61.0818 2680 51.7687
61.1987 2698 51.9423
61.3158 2569 50.6853
61.4328 2538 50.3786
61.5499 2333 48.3011
61.667 2189 46.7868
61.7841 2057 45.3542
61.9013 1902 43.6119
62.0185 2057 45.3542
62.1357 2151 46.3789
62.253 2273 47.676
62.3702 2303 47.9896
62.4875 2354 48.518
62.6049 2530 50.2991
62.7222 2464 49.6387
62.8396 2622 51.2055
62.9569 2629 51.2738
63.0743 2546 50.4579
63.1918 2530 50.2991
63.3092 2455 49.548
63.4267 2397 48.9592
63.5441 2401 49
63.6616 2281 47.7598
63.7791 2213 47.0425
63.8966 2154 46.4112
64.0142 2045 45.2217
64.1317 2305 48.0104
64.2492 2457 49.5681
64.3668 2502 50.02
64.4843 2651 51.4879
64.6019 2561 50.6063
64.7195 2625 51.2348
64.837 2584 50.8331
64.9546 2591 50.9019
65.0722 2412 49.1121
65.1898 2174 46.6262
65.3074 2059 45.3762
65.4249 1987 44.5758
65.5425 1803 42.4617
65.6601 1956 44.2267
65.7777 2072 45.5192
65.8952 2267 47.613
66.0128 2358 48.5592
66.1304 2397 48.9592
66.2479 2420 49.1935
66.3655 2528 50.2792
66.483 2453 49.5278
66.6005 2487 49.8698
66.718 2555 50.547
66.8355 2501 50.01
66.953 2491 49.9099
67.0705 2353 48.5077
67.1879 2322 48.1871
67.3054 2168 46.5618
67.4228 2063 45.4203
67.5402 1881 43.3705
67.6576 1997 44.6878
67.7749 2106 45.8912
67.8923 2269 47.634
68.0096 2336 48.3322
68.1269 2475 49.7494
68.2442 2448 49.4773
68.3614 2439 49.3862
68.4787 2485 49.8498
68.5958 2410 49.0918
68.713 2283 47.7807
68.8302 2135 46.2061
68.9473 1970 44.3847
69.0643 1864 43.1741
69.1814 1808 42.5206
69.2984 1766 42.0238
69.4154 2053 45.31
69.5323 2079 45.5961
69.6492 2118 46.0217
69.7661 2286 47.8121
69.8829 2322 48.1871
69.9997 2276 47.7074
70.1165 2148 46.3465
70.2332 2204 46.9468
70.3499 2132 46.1736
70.4665 2019 44.9333
70.5831 1864 43.1741
70.6996 1834 42.8252
70.8161 1646 40.5709
70.9326 1485 38.5357
71.049 1317 36.2905
71.1653 1159 34.0441
71.2817 1006 31.7175
71.3979 1010 31.7805
71.5141 942 30.692
71.6303 886 29.7658
71.7464 858 29.2916
71.8624 0 1
71.9784 0 1
72.0944 0 1
72.2102 0 1
72.3261 0 1
72.4418 0 1
72.5575 0 1
72.6732 0 1
75.1054 0 1
75.2209 0 1
75.3365 0 1
75.4521 0 1
75.5678 0 1
75.6835 0 1
75.7993 0 1
75.9151 0 1
76.031 0 1
76.147 1360 36.8782
76.263 1550 39.37
76.3791 1521 39
76.4952 1559 39.4842
76.6113 1658 40.7185
76.7276 1707 41.3159
76.8438 1927 43.8976
76.9601 2003 44.7549
77.0765 2098 45.8039
77.1929 2202 46.9255
77.3093 2110 45.9347
77.4258 2167 46.551
77.5423 2124 46.0869
77.6589 2084 45.6508
77.7755 1904 43.6348
77.8921 1721 41.4849
78.0088 1535 39.1791
78.1256 1493 38.6394
78.2423 1518 38.9615
78.3591 1612 40.1497
78.4759 1789 42.2966
78.5928 1894 43.5201
78.7097 1914 43.7493
78.8266 2027 45.0222
78.9436 2073 45.5302
79.0606 2115 45.9891
79.1776 2138 46.2385
79.2946 2241 47.3392
79.4117 2158 46.4543
79.5288 2176 46.6476
79.6459 2158 46.4543
79.7631 2003 44.7549
79.8802 1941 44.0568
79.9974 1911 43.715
80.1147 1784 42.2374
80.2319 1770 42.0714
80.3491 1756 41.9047
80.4664 1947 44.1248
80.5837 1995 44.6654
80.701 2184 46.7333
80.8183 2195 46.8508
80.9357 2159 46.465
81.053 2218 47.0956
81.1704 2281 47.7598
81.2877 2217 47.085
81.4051 2046 45.2327
81.5225 1889 43.4626
81.6399 1829 42.7668
81.7573 1609 40.1123
81.8747 1550 39.37
81.9922 1534 39.1663
82.1096 1653 40.6571
82.227 1903 43.6234
82.3444 1972 44.4072
82.4619 2063 45.4203
82.5793 2114 45.9783
82.6967 2157 46.4435
82.8142 2194 46.8402
82.9316 2288 47.833
83.049 2218 47.0956
83.1664 2280 47.7493
83.2838 2137 46.2277
83.4012 2185 46.744
83.5186 2047 45.2438
83.636 1998 44.699
83.7534 1854 43.0581
83.8708 1824 42.7083
83.9881 1809 42.5323
84.1055 1872 43.2666
84.2228 1970 44.3847
84.3401 2193 46.8295
84.4575 2222 47.1381
84.5747 2291 47.8644
84.692 2250 47.4342
84.8093 2321 48.1768
84.9265 2111 45.9456
85.0437 2155 46.422
85.1609 1846 42.9651
85.2781 1688 41.0853
85.3952 1656 40.694
85.5123 1593 39.9124
85.6294 1640 40.4969
85.7465 1827 42.7434
85.8636 1904 43.6348
85.9806 2063 45.4203
86.0976 2146 46.3249
86.2145 2196 46.8615
86.3315 2128 46.1303
86.4484 2313 48.0937
86.5652 2297 47.927
86.682 2218 47.0956
86.7988 2259 47.5289
86.9156 2229 47.2123
87.0323 2178 46.669
87.149 2135 46.2061
87.2657 1963 44.3058
87.3823 1755 41.8927
87.4988 1653 40.6571
87.6154 1541 39.2556
87.7318 1573 39.6611
87.8483 1676 40.939
87.9647 1710 41.3521
88.081 1871 43.2551
88.1973 1795 42.3674
88.3136 1617 40.2119
88.4298 1643 40.5339
88.546 1485 38.5357
88.6621 1312 36.2215
88.7781 977 31.257
88.8942 0 1
89.0101 0 1
89.126 0 1
89.2419 0 1
89.3577 0 1
89.4734 0 1
89.5891 0 1
89.7047 0 1
89.8203 0 1
89.9358 0 1
92.3269 0 1
92.4424 0 1
92.558 0 1
92.6736 0 1
92.7893 0 1
92.905 0 1
93.0208 0 1
93.1366 0 1
93.2525 0 1
93.3685 0 1
93.4845 0 1
93.6005 1717 41.4367
93.7167 1843 42.9302
93.8328 1837 42.8602
93.949 2018 44.9222
94.0653 1992 44.6318
94.1816 1863 43.1625
94.2979 1819 42.6497
94.4143 1773 42.107
94.5307 1696 41.1825
94.6472 1639 40.4846
94.7637 1711 41.3642
94.8803 1834 42.8252
94.9969 2011 44.8442
95.1135 2030 45.0555
95.2302 2138 46.2385
95.3469 2205 46.9574
95.4637 2178 46.669
95.5805 2289 47.8435
95.6973 2316 48.1248
95.8142 2276 47.7074
95.9311 2266 47.6025
96.048 2215 47.0638
96.1649 2155 46.422
96.2819 2140 46.2601
96.3989 2124 46.0869
96.516 1945 44.1022
96.633 1930 43.9318
96.7501 1951 44.1701
96.8673 1915 43.7607
96.9844 1898 43.566
97.1016 2051 45.288
97.2188 2325 48.2183
97.336 2294 47.8957
97.4532 2353 48.5077
97.5704 2335 48.3218
97.6877 2411 49.1019
97.805 2285 47.8017
97.9223 2025 45
98.0396 1881 43.3705
98.1569 1721 41.4849
98.2743 1674 40.9145
98.3916 1628 40.3485
98.509 1786 42.2611
98.6264 2056 45.3431
98.7438 2117 46.0109
98.8612 2209 47
98.9786 2306 48.0208
99.096 2345 48.4252
99.2134 2320 48.1664
99.3308 2408 49.0714
99.4482 2316 48.1248
99.5656 2406 49.051
99.6831 2427 49.2646
99.8005 2410 49.0918
99.9179 2325 48.2183
100.035 2239 47.3181
100.153 2060 45.3872
100.27 2032 45.0777
100.388 1946 44.1135
100.505 2046 45.2327
100.622 2157 46.4435
100.74 2356 48.5386
100.857 2563 50.6261
100.975 2411 49.1019
101.092 2462 49.6185
101.209 2468 49.679
101.327 2444 49.4368
101.444 2304 48
101.561 2094 45.7602
101.679 1964 44.317
101.796 1879 43.3474
101.913 1843 42.9302
102.03 1760 41.9524
102.148 1993 44.643
102.265 2092 45.7384
102.382 2309 48.0521
102.499 2316 48.1248
102.616 2439 49.3862
102.733 2478 49.7795
102.851 2459 49.5883
102.968 2518 50.1797
103.085 2486 49.8598
103.202 2478 49.7795
103.319 2516 50.1597
103.436 2491 49.9099
103.552 2433 49.3254
103.669 2180 46.6905
103.786 2117 46.0109
103.903 2093 45.7493
104.02 2224 47.1593
104.137 2348 48.4562
104.253 2428 49.2747
104.37 2627 51.2543
104.487 2690 51.8652
104.603 2631 51.2933
104.72 2499 49.99
104.836 2470 49.6991
104.953 2230 47.2229
105.069 2041 45.1774
105.186 1825 42.72
105.302 1613 40.1622
105.418 1637 40.4599
105.535 1552 39.3954
105.651 1590 39.8748
105.767 1658 40.7185
105.883 1566 39.5727
105.999 1488 38.5746
106.115 0 1
106.231 0 1
106.347 0 1
106.463 0 1
106.579 0 1
106.694 0 1
106.81 0 1
106.926 0 1
107.041 0 1
107.157 0 1
109.576 0 1
109.692 0 1
109.807 0 1
109.923 0 1
110.039 0 1
110.155 0 1
110.27 0 1
110.386 0 1
110.502 0 1
110.618 1067 32.665
110.735 1379 37.1349
110.851 1637 40.4599
110.967 1822 42.6849
111.083 1923 43.852
111.199 2092 45.7384
111.316 2176 46.6476
111.432 2268 47.6235
111.549 2332 48.2908
111.665 2350 48.4768
111.782 2380 48.7852
111.898 2308 48.0416
112.015 2264 47.5815
112.132 2172 46.6047
112.248 2052 45.299
112.365 1916 43.7721
112.482 1998 44.699
112.599 2125 46.0977
112.716 2274 47.6865
112.832 2277 47.7179
112.949 2386 48.8467
113.066 2406 49.051
113.183 2397 48.9592
113.3 2375 48.734
113.417 2417 49.163
113.534 2111 45.9456
113.652 1901 43.6005
113.769 1826 42.7317
113.886 1697 41.1947
114.003 1608 40.0999
114.12 1835 42.8369
114.238 1947 44.1248
114.355 2090 45.7165
114.472 2115 45.9891
114.589 2384 48.8262
114.707 2362 48.6004
114.824 2375 48.734
114.942 2328 48.2494
115.059 2376 48.7442
115.176 2337 48.3425
115.294 2388 48.8672
115.411 2371 48.6929
115.529 2207 46.9787
115.646 2190 46.7974
115.764 2156 46.4327
115.881 2016 44.8999
115.999 2010 44.833
116.116 2109 45.9239
116.234 2190 46.7974
116.351 2258 47.5184
116.469 2289 47.8435
116.586 2435 49.3457
116.704 2399 48.9796
116.821 2412 49.1121
116.939 2399 48.9796
117.056 2363 48.6107
117.174 2091 45.7275
117.291 1919 43.8064
117.409 1741 41.7253
117.526 1668 40.8412
117.644 1644 40.5463
117.761 1802 42.45
117.879 1930 43.9318
117.996 2058 45.3652
118.114 2158 46.4543
118.231 2202 46.9255
118.349 2398 48.9694
118.466 2315 48.1144
118.584 2288 47.833
118.701 2320 48.1664
118.819 2362 48.6004
118.936 2325 48.2183
119.053 2242 47.3498
119.171 2208 46.9894
119.288 2095 45.7712
119.405 2007 44.7996
119.523 1924 43.8634
119.64 1964 44.317
119.757 2052 45.299
119.875 1990 44.6094
119.992 2158 46.4543
120.109 2336 48.3322
120.226 2248 47.4131
120.343 2248 47.4131
120.46 2265 47.592
120.578 2249 47.4236
120.695 2234 47.2652
120.812 2138 46.2385
120.929 1863 43.1625
121.046 1716 41.4246
121.163 1636 40.4475
121.279 1494 38.6523
121.396 1590 39.8748
121.513 1651 40.6325
121.63 1773 42.107
121.747 1809 42.5323
121.863 1838 42.8719
121.98 1816 42.6146
122.097 1907 43.6692
122.213 1810 42.5441
122.33 1791 42.3202
122.446 1765 42.0119
122.563 1645 40.5586
122.679 1502 38.7556
122.795 1434 37.8682
122.912 1292 35.9444
123.028 1234 35.1283
123.144 997 31.5753
123.26 909 30.1496
123.377 0 1
123.493 0 1
123.609 0 1
123.725 0 1
123.84 0 1
123.956 0 1
124.072 0 1
124.188 0 1
124.303 0 1
124.419 0 1
126.852 0 1
126.968 0 1
127.083 0 1
127.199 0 1
127.315 0 1
127.431 0 1
127.547 0 1
127.663 0 1
127.779 0 1
127.895 0 1
128.011 0 1
128.127 0 1
128.243 0 1
128.359 2098 45.8039
128.476 2116 46
128.592 2116 46
128.708 2138 46.2385
128.825 2176 46.6476
128.941 2339 48.3632
129.058 2340 48.3735
129.174 2450 49.4975
129.291 2505 50.05
129.408 2545 50.448
129.524 2478 49.7795
129.641 2494 49.94
129.758 2361 48.5901
129.875 2195 46.8508
129.992 2106 45.8912
130.108 1834 42.8252
130.225 1774 42.1189
130.342 1775 42.1307
130.459 1984 44.5421
130.576 2075 45.5522
130.693 2050 45.2769
130.81 2213 47.0425
130.928 2315 48.1144
131.045 2365 48.6313
131.162 2431 49.3052
131.279 2462 49.6185
131.396 2522 50.2195
131.513 2508 50.0799
131.631 2445 49.4469
131.748 2377 48.7545
131.865 2301 47.9687
131.983 2247 47.4025
132.1 2144 46.3033
132.217 2137 46.2277
132.335 2170 46.5833
132.452 2229 47.2123
132.57 2339 48.3632
132.687 2421 49.2037
132.804 2357 48.5489
132.922 2581 50.8035
133.039 2595 50.9411
133.157 2421 49.2037
133.274 2462 49.6185
133.392 2303 47.9896
133.509 2277 47.7179
133.627 1974 44.4297
133.744 1949 44.1475
133.862 1865 43.1856
133.979 1873 43.2782
134.097 2095 45.7712
134.214 2171 46.594
134.332 2227 47.1911
134.449 2305 48.0104
134.567 2303 47.9896
134.684 2409 49.0816
134.802 2428 49.2747
134.919 2550 50.4975
135.037 2539 50.3885
135.154 2418 49.1732
135.272 2366 48.6415
135.389 2442 49.4166
135.507 2303 47.9896
135.624 2273 47.676
135.742 2158 46.4543
135.859 2124 46.0869
135.977 2177 46.6583
136.094 2250 47.4342
136.211 2335 48.3218
136.329 2461 49.6085
136.446 2491 49.9099
136.564 2499 49.99
136.681 2576 50.7543
136.798 2522 50.2195
136.915 2493 49.93
137.033 2336 48.3322
137.15 2123 46.076
137.267 2052 45.299
137.384 1924 43.8634
137.502 1851 43.0232
137.619 1908 43.6807
137.736 2067 45.4643
137.853 2105 45.8803
137.97 2203 46.9361
138.087 2280 47.7493
138.204 2389 48.8774
138.321 2544 50.4381
138.438 2343 48.4045
138.555 2382 48.8057
138.672 2397 48.9592
138.788 2279 47.7389
138.905 2252 47.4552
139.022 2143 46.2925
139.139 2044 45.2106
139.255 1926 43.8862
139.372 1813 42.5793
139.488 1691 41.1218
139.605 1665 40.8044
139.721 1691 41.1218
139.838 1493 38.6394
139.954 1561 39.5095
140.071 1578 39.724
140.187 1451 38.092
140.303 1328 36.4417
140.419 1238 35.1852
140.535 1262 35.5246
140.652 1132 33.6452
140.768 0 1
140.884 0 1
141 0 1
141.115 0 1
141.231 0 1
141.347 0 1
141.463 0 1
141.578 0 1
141.694 0 1
144.104 0 1
144.219 0 1
144.335 0 1
144.45 0 1
144.566 0 1
144.682 0 1
144.798 0 1
144.914 0 1
145.03 0 1
145.146 1753 41.8688
145.262 1860 43.1277
145.378 1952 44.1814
145.494 2005 44.7772
145.61 1975 44.441
145.726 1896 43.5431
145.842 1785 42.2493
145.959 1616 40.1995
146.075 1600 40
146.192 1514 38.9102
146.308 1519 38.9744
146.425 1619 40.2368
146.541 1705 41.2916
146.658 1614 40.1746
146.774 1772 42.0951
146.891 1780 42.19
147.008 1878 43.3359
147.125 1877 43.3244
147.241 1815 42.6028
147.358 1881 43.3705
147.475 1906 43.6578
147.592 1761 41.9643
147.709 1812 42.5676
147.826 1795 42.3674
147.943 1784 42.2374
148.06 1636 40.4475
148.177 1703 41.2674
148.294 1632 40.398
148.411 1673 40.9023
148.528 1777 42.1545
148.645 1853 43.0465
148.762 1892 43.4971
148.88 1940 44.0454
148.997 1907 43.6692
149.114 1846 42.9651
149.231 1941 44.0568
149.349 1955 44.2154
149.466 1842 42.9185
149.583 1670 40.8656
149.701 1689 41.0974
149.818 1582 39.7744
149.935 1544 39.2938
150.053 1477 38.4318
150.17 1589 39.8623
150.287 1654 40.6694
150.405 1727 41.5572
150.522 1762 41.9762
150.64 1786 42.2611
150.757 1779 42.1782
150.875 1844 42.9418
150.992 1894 43.5201
151.11 1837 42.8602
151.227 1961 44.2832
151.344 1740 41.7133
151.462 1716 41.4246
151.579 1764 42
151.697 1692 41.1339
151.814 1625 40.3113
151.932 1711 41.3642
152.049 1622 40.2741
152.167 1774 42.1189
152.284 1801 42.4382
152.402 1850 43.0116
152.519 1845 42.9535
152.636 1917 43.7836
152.754 1866 43.1972
152.871 1840 42.8952
152.989 1899 43.5775
153.106 1765 42.0119
153.223 1603 40.0375
153.341 1503 38.7685
153.458 1489 38.5876
153.575 1461 38.223
153.693 1447 38.0395
153.81 1493 38.6394
153.927 1558 39.4715
154.044 1592 39.8999
154.162 1668 40.8412
154.279 1666 40.8167
154.396 1688 41.0853
154.513 1715 41.4126
154.63 1742 41.7373
154.747 1723 41.509
154.864 1766 42.0238
154.981 1595 39.9375
155.098 1565 39.5601
155.215 1629 40.3609
155.332 1553 39.4081
155.449 1537 39.2046
155.566 1468 38.3145
155.683 1519 38.9744
155.8 1637 40.4599
155.917 1604 40.05
156.033 1657 40.7063
156.15 0 1
156.267 0 1
156.383 0 1
156.5 0 1
156.617 0 1
156.733 0 1
156.85 0 1
156.966 0 1
157.082 0 1
157.199 0 1
157.315 0 1
157.431 0 1
157.547 0 1
157.664 0 1
157.78 0 1
157.896 0 1
158.012 0 1
158.128 0 1
158.244 0 1
158.359 0 1
158.475 0 1
158.591 0 1
158.706 0 1
