
6.15755 0 1
6.2731 0 1
6.3887 0 1
6.50437 0 1
6.62009 0 1
6.73587 0 1
6.8517 0 1
6.96759 0 1
7.08353 0 1
7.19952 0 1
7.31557 0 1
7.43166 0 1
7.54781 0 1
7.664 0 1
7.78024 0 1
7.89653 0 1
8.01286 0 1
8.12924 0 1
8.24567 0 1
8.36213 0 1
8.47864 0 1
8.59519 0 1
8.71178 0 1
8.82841 0 1
8.94508 0 1
9.06179 0 1
9.17853 0 1
9.29531 0 1
9.41212 0 1
9.52897 0 1
9.64584 0 1
9.76276 0 1
9.8797 0 1
9.99667 0 1
10.1137 0 1
10.2307 0 1
10.3478 0 1
10.4648 0 1
10.5819 0 1
10.6991 0 1
10.8162 0 1
10.9334 0 1
11.0506 0 1
11.1678 0 1
11.285 0 1
11.4023 0 1
11.5196 0 1
11.6369 0 1
11.7542 0 1
11.8715 0 1
11.9888 0 1
12.1062 0 1
12.2235 0 1
12.3409 0 1
12.4582 0 1
12.5756 0 1
12.693 0 1
12.8104 0 1
12.9278 0 1
13.0452 0 1
13.1626 0 1
13.28 0 1
13.3974 0 1
13.5149 0 1
13.6323 0 1
13.7497 0 1
13.8671 0 1
13.9845 0 1
14.1019 0 1
14.2193 0 1
14.3367 0 1
14.4541 0 1
14.5714 0 1
14.6888 0 1
14.8062 0 1
14.9235 0 1
15.0408 1917 43.7836
15.1581 2134 46.1952
15.2755 2139 46.2493
15.3927 2154 46.4112
15.51 2089 45.7056
15.6273 2078 45.5851
15.7445 2114 45.9783
15.8617 2118 46.0217
15.9789 2091 45.7275
16.0961 2071 45.5082
16.2132 2050 45.2769
16.3304 2123 46.076
16.4475 2168 46.5618
16.5646 2228 47.2017
16.6816 2305 48.0104
16.7986 2392 48.9081
16.9156 2461 49.6085
17.0326 2535 50.3488
17.1496 2517 50.1697
17.2665 2507 50.07
17.3833 2363 48.6107
17.5002 2365 48.6313
17.617 2283 47.7807
17.7338 2196 46.8615
17.8505 2194 46.8402
17.9672 2263 47.571
18.0839 2112 45.9565
18.2005 2228 47.2017
18.3171 2311 48.0729
18.4337 2220 47.1169
18.5502 2306 48.0208
18.6666 2347 48.4458
18.7831 2408 49.0714
18.8994 2494 49.94
19.0158 2447 49.4672
19.1321 2236 47.2864
19.2483 2266 47.6025
19.3645 2120 46.0435
19.4806 2017 44.911
19.5967 1844 42.9418
19.7128 1758 41.9285
19.8288 1545 39.3065
19.9447 1444 38
20.0606 0 1
20.1764 0 1
20.2922 0 1
20.4079 0 1
20.5236 0 1
20.6392 0 1
20.7548 0 1
20.8702 0 1
23.3078 0 1
23.4233 0 1
23.539 0 1
23.6547 0 1
23.7704 0 1
23.8862 0 1
24.0021 0 1
24.118 0 1
24.234 0 1
24.35 0 1
24.4661 1022 31.9687
24.5822 1188 34.4674
24.6984 1372 37.0405
24.8146 1493 38.6394
24.9309 1687 41.0731
25.0472 1798 42.4028
25.1636 1898 43.566
25.28 2093 45.7493
25.3965 2228 47.2017
25.513 2422 49.2138
25.6296 2586 50.8527
25.7462 2600 50.9902
25.8628 2699 51.9519
25.9795 2721 52.1632
26.0962 2534 50.3389
26.213 2531 50.309
26.3298 2403 49.0204
26.4466 2247 47.4025
26.5635 2258 47.5184
26.6804 2233 47.2546
26.7973 2398 48.9694
26.9143 2257 47.5079
27.0313 2444 49.4368
27.1483 2459 49.5883
27.2653 2410 49.0918
27.3824 2589 50.8822
27.4996 2474 49.7393
27.6167 2497 49.97
27.7339 2485 49.8498
27.8511 2361 48.5901
27.9683 2381 48.7955
28.0855 2217 47.085
28.2028 2167 46.551
28.3201 2098 45.8039
28.4374 2078 45.5851
28.5547 2186 46.7547
28.6721 2242 47.3498
28.7894 2336 48.3322
28.9068 2502 50.02
29.0242 2511 50.1099
29.1416 2570 50.6952
29.259 2517 50.1697
29.3764 2651 51.4879
29.4939 2519 50.1896
29.6113 2430 49.295
29.7288 2281 47.7598
29.8463 2238 47.3075
29.9638 2177 46.6583
30.0812 2180 46.6905
30.1987 2138 46.2385
30.3162 2175 46.6369
30.4337 2301 47.9687
30.5512 2328 48.2494
30.6687 2332 48.2908
30.7862 2270 47.6445
30.9037 2313 48.0937
31.0212 2497 49.97
31.1387 2460 49.5984
31.2562 2381 48.7955
31.3737 2365 48.6313
31.4912 2246 47.392
31.6087 2214 47.0532
31.7262 2184 46.7333
31.8436 2035 45.111
31.9611 2108 45.913
32.0785 2094 45.7602
32.1959 2224 47.1593
32.3134 2225 47.1699
32.4308 2288 47.833
32.5482 2420 49.1935
32.6655 2506 50.06
32.7829 2552 50.5173
32.9002 2467 49.6689
33.0176 2398 48.9694
33.1349 2460 49.5984
33.2522 2379 48.775
33.3694 2344 48.4149
33.4867 2197 46.8722
33.6039 2071 45.5082
33.7211 2011 44.8442
33.8383 1993 44.643
33.9554 2080 45.607
34.0725 2095 45.7712
34.1896 2201 46.9148
34.3067 2224 47.1593
34.4237 2262 47.5605
34.5407 2285 47.8017
34.6577 2259 47.5289
34.7746 2299 47.9479
34.8915 2243 47.3603
35.0084 2270 47.6445
35.1252 2209 47
35.242 2214 47.0532
35.3587 2204 46.9468
35.4755 2138 46.2385
35.5921 2006 44.7884
35.7088 1967 44.3509
35.8254 2007 44.7996
35.9419 2130 46.1519
36.0584 2080 45.607
36.1749 2140 46.2601
36.2913 2142 46.2817
36.4077 2175 46.6369
36.524 2129 46.1411
36.6403 2100 45.8258
36.7565 2005 44.7772
36.8727 1905 43.6463
36.9889 1769 42.0595
37.1049 1559 39.4842
37.221 0 1
37.3369 0 1
37.4529 0 1
37.5687 0 1
37.6845 0 1
37.8003 0 1
37.916 0 1
38.0316 0 1
38.1472 0 1
40.5851 0 1
40.7008 0 1
40.8164 0 1
40.9322 0 1
41.048 0 1
41.1639 0 1
41.2798 0 1
41.3958 0 1
41.5118 0 1
41.6279 0 1
41.744 1196 34.5832
41.8602 1272 35.6651
41.9765 1373 37.054
42.0928 1336 36.5513
42.2091 1429 37.8021
42.3255 1383 37.1887
42.4419 1359 36.8646
42.5584 1379 37.1349
42.675 1515 38.923
42.7915 1675 40.9268
42.9081 1716 41.4246
43.0248 1808 42.5206
43.1415 1831 42.7902
43.2582 1916 43.7721
43.375 1850 43.0116
43.4918 1910 43.7035
43.6087 1923 43.852
43.7256 1895 43.5316
43.8425 1924 43.8634
43.9595 1821 42.6732
44.0765 1809 42.5323
44.1935 1718 41.4488
44.3106 1613 40.1622
44.4277 1634 40.4228
44.5448 1591 39.8873
44.6619 1669 40.8534
44.7791 1797 42.391
44.8963 1861 43.1393
45.0136 1958 44.2493
45.1308 1945 44.1022
45.2481 2013 44.8665
45.3654 2015 44.8888
45.4827 1962 44.2945
45.6001 1925 43.8748
45.7174 1917 43.7836
45.8348 1788 42.2847
45.9522 1605 40.0625
46.0697 1512 38.8844
46.1871 1580 39.7492
46.3046 1717 41.4367
46.422 1819 42.6497
46.5395 1830 42.7785
46.657 1902 43.6119
46.7745 1854 43.0581
46.892 1921 43.8292
47.0096 1978 44.4747
47.1271 1980 44.4972
47.2446 2047 45.2438
47.3622 1876 43.3128
47.4797 1960 44.2719
47.5973 1982 44.5197
47.7149 1777 42.1545
47.8324 1773 42.107
47.95 1698 41.2068
48.0675 1696 41.1825
48.1851 1652 40.6448
48.3027 1710 41.3521
48.4202 1845 42.9535
48.5378 1894 43.5201
48.6554 1920 43.8178
48.7729 2013 44.8665
48.8904 2019 44.9333
49.008 1989 44.5982
49.1255 2006 44.7884
49.243 1871 43.2551
49.3605 1781 42.2019
49.478 1667 40.8289
49.5955 1605 40.0625
49.713 1462 38.2361
49.8304 1528 39.0896
49.9479 1617 40.2119
50.0653 1735 41.6533
50.1827 1783 42.2256
50.3001 1816 42.6146
50.4175 1938 44.0227
50.5348 1981 44.5084
50.6521 2033 45.0888
50.7694 2083 45.6399
50.8867 2019 44.9333
51.004 1985 44.5533
51.1212 2006 44.7884
51.2384 1917 43.7836
51.3556 1932 43.9545
51.4727 1797 42.391
51.5899 1724 41.5211
51.707 1752 41.8569
51.824 1847 42.9767
51.9411 1954 44.2041
52.0581 2098 45.8039
52.175 2264 47.5815
52.2919 2350 48.4768
52.4088 2335 48.3218
52.5257 2479 49.7896
52.6425 2362 48.6004
52.7593 2500 50
52.876 2310 48.0625
52.9927 2183 46.7226
53.1094 2100 45.8258
53.226 1974 44.4297
53.3426 1941 44.0568
53.4591 1877 43.3244
53.5756 2056 45.3431
53.692 2024 44.9889
53.8084 1917 43.7836
53.9248 1986 44.5646
54.0411 1937 44.0114
54.1573 1893 43.5086
54.2735 0 1
54.3896 0 1
54.5057 0 1
54.6217 0 1
54.7377 0 1
54.8537 0 1
54.9695 0 1
55.0853 0 1
55.2011 0 1
55.3168 0 1
55.4324 0 1
57.824 0 1
57.9396 0 1
58.0553 0 1
58.1711 0 1
58.2869 0 1
58.4028 0 1
58.5187 0 1
58.6347 0 1
58.7508 0 1
58.8669 0 1
58.983 1583 39.7869
59.0992 1835 42.8369
59.2155 1934 43.9773
59.3318 2063 45.4203
59.4482 2189 46.7868
59.5646 2304 48
59.681 2288 47.833
59.7975 2428 49.2747
59.9141 2345 48.4252
60.0306 2255 47.4868
60.1473 2199 46.8935
60.2639 2041 45.1774
60.3807 2107 45.9021
60.4974 2195 46.8508
60.6142 2283 47.7807
60.731 2461 49.6085
60.8479 2431 49.3052
60.9648 2510 50.0999
61.0818 2500 50
61.1987 2465 49.6488
61.3158 2417 49.163
61.4328 2445 49.4469
61.5499 2265 47.592
61.667 1988 44.587
61.7841 1935 43.9886
61.9013 1881 43.3705
62.0185 1829 42.7668
62.1357 2092 45.7384
62.253 2109 45.9239
62.3702 2309 48.0521
62.4875 2314 48.1041
62.6049 2406 49.051
62.7222 2327 48.239
62.8396 2421 49.2037
62.9569 2469 49.689
63.0743 2351 48.4871
63.1918 2487 49.8698
63.3092 2335 48.3218
63.4267 2264 47.5815
63.5441 2277 47.7179
63.6616 2076 45.5631
63.7791 2033 45.0888
63.8966 1981 44.5084
64.0142 2077 45.5741
64.1317 2116 46
64.2492 2294 47.8957
64.3668 2261 47.55
64.4843 2395 48.9387
64.6019 2485 49.8498
64.7195 2473 49.7293
64.837 2498 49.98
64.9546 2409 49.0816
65.0722 2315 48.1144
65.1898 2110 45.9347
65.3074 1896 43.5431
65.4249 1850 43.0116
65.5425 1822 42.6849
65.6601 1825 42.72
65.7777 1982 44.5197
65.8952 2084 45.6508
66.0128 2149 46.3573
66.1304 2271 47.655
66.2479 2324 48.2079
66.3655 2402 49.0102
66.483 2386 48.8467
66.6005 2441 49.4065
66.718 2440 49.3964
66.8355 2395 48.9387
66.953 2260 47.5395
67.0705 2295 47.9062
67.1879 2172 46.6047
67.3054 2084 45.6508
67.4228 1886 43.4281
67.5402 1888 43.4511
67.6576 1956 44.2267
67.7749 2036 45.1221
67.8923 2095 45.7712
68.0096 2281 47.7598
68.1269 2233 47.2546
68.2442 2411 49.1019
68.3614 2364 48.621
68.4787 2363 48.6107
68.5958 2289 47.8435
68.713 2206 46.9681
68.8302 2025 45
68.9473 1888 43.4511
69.0643 1792 42.332
69.1814 1663 40.7799
69.2984 1718 41.4488
69.4154 1906 43.6578
69.5323 2069 45.4863
69.6492 2087 45.6837
69.7661 2183 46.7226
69.8829 2261 47.55
69.9997 2250 47.4342
70.1165 1973 44.4185
70.2332 2074 45.5412
70.3499 2012 44.8553
70.4665 1899 43.5775
70.5831 1792 42.332
70.6996 1679 40.9756
70.8161 1675 40.9268
70.9326 1382 37.1753
71.049 1364 36.9324
71.1653 1088 32.9848
71.2817 972 31.1769
71.3979 957 30.9354
71.5141 881 29.6816
71.6303 864 29.3939
71.7464 838 28.9482
71.8624 0 1
71.9784 0 1
72.0944 0 1
72.2102 0 1
72.3261 0 1
72.4418 0 1
72.5575 0 1
72.6732 0 1
75.1054 0 1
75.2209 0 1
75.3365 0 1
75.4521 0 1
75.5678 0 1
75.6835 0 1
75.7993 0 1
75.9151 0 1
76.031 0 1
76.147 1410 37.55
76.263 1510 38.8587
76.3791 1479 38.4578
76.4952 1460 38.2099
76.6113 1560 39.4968
76.7276 1675 40.9268
76.8438 1765 42.0119
76.9601 1948 44.1362
77.0765 2059 45.3762
77.1929 2093 45.7493
77.3093 2092 45.7384
77.4258 2047 45.2438
77.5423 2073 45.5302
77.6589 1957 44.238
77.7755 1761 41.9643
77.8921 1612 40.1497
78.0088 1462 38.2361
78.1256 1385 37.2156
78.2423 1375 37.081
78.3591 1539 39.2301
78.4759 1637 40.4599
78.5928 1802 42.45
78.7097 1815 42.6028
78.8266 1854 43.0581
78.9436 2021 44.9555
79.0606 2010 44.833
79.1776 2028 45.0333
79.2946 2167 46.551
79.4117 2084 45.6508
79.5288 2108 45.913
79.6459 2062 45.4093
79.7631 2011 44.8442
79.8802 1882 43.382
79.9974 1726 41.5452
80.1147 1701 41.2432
80.2319 1686 41.0609
80.3491 1707 41.3159
80.4664 1809 42.5323
80.5837 1960 44.2719
80.701 2033 45.0888
80.8183 2066 45.4533
80.9357 2153 46.4004
81.053 2124 46.0869
81.1704 2066 45.4533
81.2877 2148 46.3465
81.4051 1967 44.3509
81.5225 1815 42.6028
81.6399 1694 41.1582
81.7573 1503 38.7685
81.8747 1450 38.0789
81.9922 1496 38.6782
82.1096 1693 41.1461
82.227 1746 41.7852
82.3444 1854 43.0581
82.4619 1969 44.3734
82.5793 1976 44.4522
82.6967 2135 46.2061
82.8142 2104 45.8694
82.9316 2164 46.5188
83.049 2136 46.2169
83.1664 2159 46.465
83.2838 2105 45.8803
83.4012 2022 44.9667
83.5186 2066 45.4533
83.636 1927 43.8976
83.7534 1791 42.3202
83.8708 1667 40.8289
83.9881 1646 40.5709
84.1055 1794 42.3556
84.2228 1890 43.4741
84.3401 1978 44.4747
84.4575 2159 46.465
84.5747 2216 47.0744
84.692 2154 46.4112
84.8093 2143 46.2925
84.9265 2108 45.913
85.0437 1989 44.5982
85.1609 1773 42.107
85.2781 1554 39.4208
85.3952 1552 39.3954
85.5123 1423 37.7227
85.6294 1570 39.6232
85.7465 1733 41.6293
85.8636 1839 42.8836
85.9806 1946 44.1135
86.0976 2000 44.7214
86.2145 2005 44.7772
86.3315 2109 45.9239
86.4484 2125 46.0977
86.5652 2171 46.594
86.682 2134 46.1952
86.7988 2137 46.2277
86.9156 2122 46.0652
87.0323 2057 45.3542
87.149 2044 45.2106
87.2657 1825 42.72
87.3823 1674 40.9145
87.4988 1487 38.5616
87.6154 1512 38.8844
87.7318 1531 39.128
87.8483 1549 39.3573
87.9647 1734 41.6413
88.081 1614 40.1746
88.1973 1642 40.5216
88.3136 1630 40.3733
88.4298 1449 38.0657
88.546 1438 37.921
88.6621 1234 35.1283
88.7781 969 31.1288
88.8942 0 1
89.0101 0 1
89.126 0 1
89.2419 0 1
89.3577 0 1
89.4734 0 1
89.5891 0 1
89.7047 0 1
89.8203 0 1
89.9358 0 1
92.3269 0 1
92.4424 0 1
92.558 0 1
92.6736 0 1
92.7893 0 1
92.905 0 1
93.0208 0 1
93.1366 0 1
93.2525 0 1
93.3685 0 1
93.4845 0 1
93.6005 1613 40.1622
93.7167 1739 41.7013
93.8328 1667 40.8289
93.949 1775 42.1307
94.0653 1862 43.1509
94.1816 1824 42.7083
94.2979 1785 42.2493
94.4143 1730 41.5933
94.5307 1484 38.5227
94.6472 1544 39.2938
94.7637 1638 40.4722
94.8803 1755 41.8927
94.9969 1852 43.0349
95.1135 1925 43.8748
95.2302 2101 45.8367
95.3469 2056 45.3431
95.4637 2244 47.3709
95.5805 2227 47.1911
95.6973 2192 46.8188
95.8142 2166 46.5403
95.9311 2105 45.8803
96.048 2181 46.7012
96.1649 2145 46.3141
96.2819 2058 45.3652
96.3989 2047 45.2438
96.516 1906 43.6578
96.633 1804 42.4735
96.7501 1768 42.0476
96.8673 1816 42.6146
96.9844 1898 43.566
97.1016 2072 45.5192
97.2188 2018 44.9222
97.336 2219 47.1063
97.4532 2296 47.9166
97.5704 2200 46.9042
97.6877 2334 48.3115
97.805 2127 46.1194
97.9223 1965 44.3283
98.0396 1805 42.4853
98.1569 1777 42.1545
98.2743 1557 39.4588
98.3916 1526 39.064
98.509 1668 40.8412
98.6264 1848 42.9884
98.7438 2010 44.833
98.8612 2028 45.0333
98.9786 2185 46.744
99.096 2255 47.4868
99.2134 2248 47.4131
99.3308 2333 48.3011
99.4482 2379 48.775
99.5656 2352 48.4974
99.6831 2271 47.655
99.8005 2230 47.2229
99.9179 2249 47.4236
100.035 2070 45.4973
100.153 1978 44.4747
100.27 1979 44.486
100.388 1962 44.2945
100.505 1939 44.0341
100.622 2131 46.1628
100.74 2288 47.833
100.857 2295 47.9062
100.975 2275 47.697
101.092 2393 48.9183
101.209 2355 48.5283
101.327 2306 48.0208
101.444 2316 48.1248
101.561 2017 44.911
101.679 1874 43.2897
101.796 1715 41.4126
101.913 1579 39.7366
102.03 1704 41.2795
102.148 1899 43.5775
102.265 2046 45.2327
102.382 2178 46.669
102.499 2246 47.392
102.616 2298 47.9375
102.733 2362 48.6004
102.851 2365 48.6313
102.968 2362 48.6004
103.085 2381 48.7955
103.202 2361 48.5901
103.319 2427 49.2646
103.436 2390 48.8876
103.552 2236 47.2864
103.669 2092 45.7384
103.786 2040 45.1664
103.903 1881 43.3705
104.02 2086 45.6727
104.137 2148 46.3465
104.253 2388 48.8672
104.37 2496 49.96
104.487 2445 49.4469
104.603 2493 49.93
104.72 2460 49.5984
104.836 2289 47.8435
104.953 2117 46.0109
105.069 1955 44.2154
105.186 1732 41.6173
105.302 1530 39.1152
105.418 1563 39.5348
105.535 1458 38.1838
105.651 1532 39.1408
105.767 1537 39.2046
105.883 1502 38.7556
105.999 1363 36.9188
106.115 0 1
106.231 0 1
106.347 0 1
106.463 0 1
106.579 0 1
106.694 0 1
106.81 0 1
106.926 0 1
107.041 0 1
107.157 0 1
109.576 0 1
109.692 0 1
109.807 0 1
109.923 0 1
110.039 0 1
110.155 0 1
110.27 0 1
110.386 0 1
110.502 0 1
110.618 985 31.3847
110.735 1319 36.318
110.851 1508 38.833
110.967 1733 41.6293
111.083 1837 42.8602
111.199 2007 44.7996
111.316 2112 45.9565
111.432 2130 46.1519
111.549 2298 47.9375
111.665 2216 47.0744
111.782 2212 47.0319
111.898 2186 46.7547
112.015 2152 46.3897
112.132 2041 45.1774
112.248 1862 43.1509
112.365 1893 43.5086
112.482 1963 44.3058
112.599 1986 44.5646
112.716 2069 45.4863
112.832 2168 46.5618
112.949 2245 47.3814
113.066 2272 47.6655
113.183 2319 48.156
113.3 2244 47.3709
113.417 2147 46.3357
113.534 2035 45.111
113.652 1853 43.0465
113.769 1753 41.8688
113.886 1630 40.3733
114.003 1660 40.7431
114.12 1694 41.1582
114.238 1833 42.8135
114.355 1909 43.6921
114.472 1953 44.1928
114.589 2283 47.7807
114.707 2173 46.6154
114.824 2272 47.6655
114.942 2347 48.4458
115.059 2235 47.2758
115.176 2269 47.634
115.294 2229 47.2123
115.411 2229 47.2123
115.529 2255 47.4868
115.646 2120 46.0435
115.764 2105 45.8803
115.881 1913 43.7379
115.999 1878 43.3359
116.116 1962 44.2945
116.234 2138 46.2385
116.351 2301 47.9687
116.469 2399 48.9796
116.586 2218 47.0956
116.704 2303 47.9896
116.821 2266 47.6025
116.939 2267 47.613
117.056 2285 47.8017
117.174 1966 44.3396
117.291 1844 42.9418
117.409 1601 40.0125
117.526 1617 40.2119
117.644 1581 39.7618
117.761 1650 40.6202
117.879 1814 42.5911
117.996 1976 44.4522
118.114 2030 45.0555
118.231 2214 47.0532
118.349 2175 46.6369
118.466 2199 46.8935
118.584 2199 46.8935
118.701 2238 47.3075
118.819 2206 46.9681
118.936 2224 47.1593
119.053 2090 45.7165
119.171 2066 45.4533
119.288 2017 44.911
119.405 1975 44.441
119.523 1799 42.4146
119.64 1819 42.6497
119.757 1873 43.2782
119.875 1901 43.6005
119.992 2047 45.2438
120.109 2147 46.3357
120.226 2158 46.4543
120.343 2155 46.422
120.46 2099 45.8148
120.578 2151 46.3789
120.695 2047 45.2438
120.812 1973 44.4185
120.929 1781 42.2019
121.046 1621 40.2616
121.163 1599 39.9875
121.279 1525 39.0512
121.396 1518 38.9615
121.513 1614 40.1746
121.63 1695 41.1704
121.747 1751 41.845
121.863 1640 40.4969
121.98 1704 41.2795
122.097 1827 42.7434
122.213 1725 41.5331
122.33 1687 41.0731
122.446 1661 40.7554
122.563 1492 38.6264
122.679 1371 37.027
122.795 1361 36.8917
122.912 1278 35.7491
123.028 1084 32.9242
123.144 987 31.4166
123.26 859 29.3087
123.377 0 1
123.493 0 1
123.609 0 1
123.725 0 1
123.84 0 1
123.956 0 1
124.072 0 1
124.188 0 1
124.303 0 1
124.419 0 1
126.852 0 1
126.968 0 1
127.083 0 1
127.199 0 1
127.315 0 1
127.431 0 1
127.547 0 1
127.663 0 1
127.779 0 1
127.895 0 1
128.011 0 1
128.127 0 1
128.243 0 1
128.359 2042 45.1885
128.476 2045 45.2217
128.592 2061 45.3982
128.708 2077 45.5741
128.825 2157 46.4435
128.941 2117 46.0109
129.058 2208 46.9894
129.174 2330 48.2701
129.291 2278 47.7284
129.408 2355 48.5283
129.524 2311 48.0729
129.641 2366 48.6415
129.758 2288 47.833
129.875 2141 46.2709
129.992 1976 44.4522
130.108 1803 42.4617
130.225 1663 40.7799
130.342 1693 41.1461
130.459 1786 42.2611
130.576 1916 43.7721
130.693 2131 46.1628
130.81 2137 46.2277
130.928 2113 45.9674
131.045 2293 47.8853
131.162 2297 47.927
131.279 2395 48.9387
131.396 2313 48.0937
131.513 2361 48.5901
131.631 2380 48.7852
131.748 2194 46.8402
131.865 2223 47.1487
131.983 2115 45.9891
132.1 2111 45.9456
132.217 2126 46.1086
132.335 2090 45.7165
132.452 2118 46.0217
132.57 2083 45.6399
132.687 2319 48.156
132.804 2401 49
132.922 2375 48.734
133.039 2342 48.3942
133.157 2398 48.9694
133.274 2419 49.1833
133.392 2230 47.2229
133.509 2025 45
133.627 1890 43.4741
133.744 1790 42.3084
133.862 1717 41.4367
133.979 1801 42.4382
134.097 1984 44.5421
134.214 2039 45.1553
134.332 2109 45.9239
134.449 2194 46.8402
134.567 2188 46.7761
134.684 2272 47.6655
134.802 2380 48.7852
134.919 2430 49.295
135.037 2379 48.775
135.154 2392 48.9081
135.272 2276 47.7074
135.389 2320 48.1664
135.507 2127 46.1194
135.624 2196 46.8615
135.742 2076 45.5631
135.859 2078 45.5851
135.977 2125 46.0977
136.094 2177 46.6583
136.211 2233 47.2546
136.329 2399 48.9796
136.446 2392 48.9081
136.564 2357 48.5489
136.681 2343 48.4045
136.798 2395 48.9387
136.915 2390 48.8876
137.033 2225 47.1699
137.15 2023 44.9778
137.267 1984 44.5421
137.384 1741 41.7253
137.502 1730 41.5933
137.619 1796 42.3792
137.736 2005 44.7772
137.853 1928 43.909
137.97 2124 46.0869
138.087 2133 46.1844
138.204 2193 46.8295
138.321 2281 47.7598
138.438 2314 48.1041
138.555 2442 49.4166
138.672 2248 47.4131
138.788 2223 47.1487
138.905 2101 45.8367
139.022 1956 44.2267
139.139 1850 43.0116
139.255 1816 42.6146
139.372 1670 40.8656
139.488 1647 40.5832
139.605 1542 39.2683
139.721 1548 39.3446
139.838 1613 40.1622
139.954 1554 39.4208
140.071 1459 38.1969
140.187 1332 36.4966
140.303 1307 36.1525
140.419 1213 34.8281
140.535 1075 32.7872
140.652 1093 33.0606
140.768 0 1
140.884 0 1
141 0 1
141.115 0 1
141.231 0 1
141.347 0 1
141.463 0 1
141.578 0 1
141.694 0 1
144.104 0 1
144.219 0 1
144.335 0 1
144.45 0 1
144.566 0 1
144.682 0 1
144.798 0 1
144.914 0 1
145.03 0 1
145.146 1659 40.7308
145.262 1832 42.8019
145.378 1767 42.0357
145.494 1868 43.2204
145.61 1883 43.3935
145.726 1926 43.8862
145.842 1711 41.3642
145.959 1558 39.4715
146.075 1422 37.7094
146.192 1425 37.7492
146.308 1399 37.4032
146.425 1535 39.1791
146.541 1555 39.4335
146.658 1584 39.7995
146.774 1623 40.2865
146.891 1719 41.4608
147.008 1651 40.6325
147.125 1809 42.5323
147.241 1738 41.6893
147.358 1846 42.9651
147.475 1809 42.5323
147.592 1784 42.2374
147.709 1777 42.1545
147.826 1643 40.5339
147.943 1697 41.1947
148.06 1699 41.2189
148.177 1572 39.6485
148.294 1640 40.4969
148.411 1767 42.0357
148.528 1709 41.3401
148.645 1749 41.821
148.762 1810 42.5441
148.88 1727 41.5572
148.997 1894 43.5201
149.114 1867 43.2088
149.231 1850 43.0116
149.349 1840 42.8952
149.466 1724 41.5211
149.583 1689 41.0974
149.701 1563 39.5348
149.818 1452 38.1051
149.935 1425 37.7492
150.053 1454 38.1314
150.17 1467 38.3014
150.287 1559 39.4842
150.405 1629 40.3609
150.522 1703 41.2674
150.64 1671 40.8779
150.757 1754 41.8808
150.875 1732 41.6173
150.992 1754 41.8808
151.11 1692 41.1339
151.227 1756 41.9047
151.344 1707 41.3159
151.462 1671 40.8779
151.579 1682 41.0122
151.697 1626 40.3237
151.814 1634 40.4228
151.932 1577 39.7115
152.049 1600 40
152.167 1724 41.5211
152.284 1637 40.4599
152.402 1735 41.6533
152.519 1715 41.4126
152.636 1737 41.6773
152.754 1873 43.2782
152.871 1793 42.3438
152.989 1769 42.0595
153.106 1650 40.6202
153.223 1619 40.2368
153.341 1458 38.1838
153.458 1395 37.3497
153.575 1362 36.9053
153.693 1371 37.027
153.81 1490 38.6005
153.927 1527 39.0768
154.044 1557 39.4588
154.162 1544 39.2938
154.279 1604 40.05
154.396 1578 39.724
154.513 1656 40.694
154.63 1710 41.3521
154.747 1631 40.3856
154.864 1647 40.5832
154.981 1556 39.4462
155.098 1594 39.9249
155.215 1530 39.1152
155.332 1502 38.7556
155.449 1401 37.4299
155.566 1498 38.704
155.683 1511 38.8716
155.8 1552 39.3954
155.917 1521 39
156.033 1523 39.0256
156.15 0 1
156.267 0 1
156.383 0 1
156.5 0 1
156.617 0 1
156.733 0 1
156.85 0 1
156.966 0 1
157.082 0 1
157.199 0 1
157.315 0 1
157.431 0 1
157.547 0 1
157.664 0 1
157.78 0 1
157.896 0 1
158.012 0 1
158.128 0 1
158.244 0 1
158.359 0 1
158.475 0 1
158.591 0 1
158.706 0 1
