
6.15755 0 1
6.2731 0 1
6.3887 0 1
6.50437 0 1
6.62009 0 1
6.73587 0 1
6.8517 0 1
6.96759 0 1
7.08353 0 1
7.19952 0 1
7.31557 0 1
7.43166 0 1
7.54781 0 1
7.664 0 1
7.78024 0 1
7.89653 0 1
8.01286 0 1
8.12924 0 1
8.24567 0 1
8.36213 0 1
8.47864 0 1
8.59519 0 1
8.71178 0 1
8.82841 0 1
8.94508 0 1
9.06179 0 1
9.17853 0 1
9.29531 0 1
9.41212 0 1
9.52897 0 1
9.64584 0 1
9.76276 0 1
9.8797 0 1
9.99667 0 1
10.1137 0 1
10.2307 0 1
10.3478 0 1
10.4648 0 1
10.5819 0 1
10.6991 0 1
10.8162 0 1
10.9334 0 1
11.0506 0 1
11.1678 0 1
11.285 0 1
11.4023 0 1
11.5196 0 1
11.6369 0 1
11.7542 0 1
11.8715 0 1
11.9888 0 1
12.1062 0 1
12.2235 0 1
12.3409 0 1
12.4582 0 1
12.5756 0 1
12.693 0 1
12.8104 0 1
12.9278 0 1
13.0452 0 1
13.1626 0 1
13.28 0 1
13.3974 0 1
13.5149 0 1
13.6323 0 1
13.7497 0 1
13.8671 0 1
13.9845 0 1
14.1019 0 1
14.2193 0 1
14.3367 0 1
14.4541 0 1
14.5714 0 1
14.6888 0 1
14.8062 0 1
14.9235 0 1
15.0408 1900 43.589
15.1581 2039 45.1553
15.2755 2134 46.1952
15.3927 2083 45.6399
15.51 2135 46.2061
15.6273 2044 45.2106
15.7445 2146 46.3249
15.8617 1998 44.699
15.9789 1980 44.4972
16.0961 1974 44.4297
16.2132 1969 44.3734
16.3304 2116 46
16.4475 2218 47.0956
16.5646 2194 46.8402
16.6816 2319 48.156
16.7986 2175 46.6369
16.9156 2339 48.3632
17.0326 2235 47.2758
17.1496 2190 46.7974
17.2665 2209 47
17.3833 2123 46.076
17.5002 2021 44.9555
17.617 1984 44.5421
17.7338 1941 44.0568
17.8505 1974 44.4297
17.9672 2085 45.6618
18.0839 2195 46.8508
18.2005 2082 45.6289
18.3171 2315 48.1144
18.4337 2265 47.592
18.5502 2338 48.3529
18.6666 2378 48.7647
18.7831 2337 48.3425
18.8994 2385 48.8365
19.0158 2322 48.1871
19.1321 2163 46.5081
19.2483 2136 46.2169
19.3645 1993 44.643
19.4806 1984 44.5421
19.5967 1981 44.5084
19.7128 2010 44.833
19.8288 2024 44.9889
19.9447 2107 45.9021
20.0606 0 1
20.1764 0 1
20.2922 0 1
20.4079 0 1
20.5236 0 1
20.6392 0 1
20.7548 0 1
20.8702 0 1
23.3078 0 1
23.4233 0 1
23.539 0 1
23.6547 0 1
23.7704 0 1
23.8862 0 1
24.0021 0 1
24.118 0 1
24.234 0 1
24.35 0 1
24.4661 1947 44.1248
24.5822 1962 44.2945
24.6984 2024 44.9889
24.8146 2072 45.5192
24.9309 2193 46.8295
25.0472 2387 48.8569
25.1636 2333 48.3011
25.28 2467 49.6689
25.3965 2434 49.3356
25.513 2436 49.3559
25.6296 2387 48.8569
25.7462 2352 48.4974
25.8628 2347 48.4458
25.9795 2320 48.1664
26.0962 2220 47.1169
26.213 2110 45.9347
26.3298 2036 45.1221
26.4466 1984 44.5421
26.5635 2079 45.5961
26.6804 2166 46.5403
26.7973 2166 46.5403
26.9143 2203 46.9361
27.0313 2330 48.2701
27.1483 2447 49.4672
27.2653 2376 48.7442
27.3824 2442 49.4166
27.4996 2383 48.816
27.6167 2445 49.4469
27.7339 2332 48.2908
27.8511 2226 47.1805
27.9683 2106 45.8912
28.0855 1924 43.8634
28.2028 1936 44
28.3201 1910 43.7035
28.4374 2152 46.3897
28.5547 2210 47.0106
28.6721 2304 48
28.7894 2374 48.7237
28.9068 2376 48.7442
29.0242 2232 47.244
29.1416 2342 48.3942
29.259 2301 47.9687
29.3764 2281 47.7598
29.4939 2119 46.0326
29.6113 2056 45.3431
29.7288 1907 43.6692
29.8463 1823 42.6966
29.9638 1747 41.7971
30.0812 1843 42.9302
30.1987 1905 43.6463
30.3162 1978 44.4747
30.4337 2146 46.3249
30.5512 2087 45.6837
30.6687 2180 46.6905
30.7862 2311 48.0729
30.9037 2324 48.2079
31.0212 2195 46.8508
31.1387 2194 46.8402
31.2562 2170 46.5833
31.3737 2045 45.2217
31.4912 1941 44.0568
31.6087 1908 43.6807
31.7262 1817 42.6263
31.8436 1861 43.1393
31.9611 2085 45.6618
32.0785 2072 45.5192
32.1959 2238 47.3075
32.3134 2134 46.1952
32.4308 2264 47.5815
32.5482 2245 47.3814
32.6655 2156 46.4327
32.7829 2249 47.4236
32.9002 2187 46.7654
33.0176 2182 46.7119
33.1349 2013 44.8665
33.2522 1952 44.1814
33.3694 1801 42.4382
33.4867 1708 41.328
33.6039 1675 40.9268
33.7211 1683 41.0244
33.8383 1763 41.9881
33.9554 1796 42.3792
34.0725 1917 43.7836
34.1896 1980 44.4972
34.3067 1949 44.1475
34.4237 2052 45.299
34.5407 2076 45.5631
34.6577 2120 46.0435
34.7746 1998 44.699
34.8915 2039 45.1553
35.0084 2096 45.7821
35.1252 1914 43.7493
35.242 1758 41.9285
35.3587 1640 40.4969
35.4755 1722 41.497
35.5921 1767 42.0357
35.7088 1836 42.8486
35.8254 2032 45.0777
35.9419 2081 45.618
36.0584 2136 46.2169
36.1749 2096 45.7821
36.2913 2039 45.1553
36.4077 2069 45.4863
36.524 2025 45
36.6403 2070 45.4973
36.7565 1968 44.3621
36.8727 1853 43.0465
36.9889 1717 41.4367
37.1049 1712 41.3763
37.221 0 1
37.3369 0 1
37.4529 0 1
37.5687 0 1
37.6845 0 1
37.8003 0 1
37.916 0 1
38.0316 0 1
38.1472 0 1
40.5851 0 1
40.7008 0 1
40.8164 0 1
40.9322 0 1
41.048 0 1
41.1639 0 1
41.2798 0 1
41.3958 0 1
41.5118 0 1
41.6279 0 1
41.744 1505 38.7943
41.8602 1626 40.3237
41.9765 1658 40.7185
42.0928 1556 39.4462
42.2091 1467 38.3014
42.3255 1350 36.7423
42.4419 1265 35.5668
42.5584 1212 34.8138
42.675 1219 34.9142
42.7915 1319 36.318
42.9081 1317 36.2905
43.0248 1461 38.223
43.1415 1493 38.6394
43.2582 1494 38.6523
43.375 1435 37.8814
43.4918 1541 39.2556
43.6087 1434 37.8682
43.7256 1419 37.6696
43.8425 1471 38.3536
43.9595 1311 36.2077
44.0765 1349 36.7287
44.1935 1241 35.2278
44.3106 1171 34.2199
44.4277 1081 32.8786
44.5448 1084 32.9242
44.6619 1196 34.5832
44.7791 1246 35.2987
44.8963 1249 35.3412
45.0136 1163 34.1028
45.1308 1234 35.1283
45.2481 1200 34.641
45.3654 1228 35.0428
45.4827 1160 34.0588
45.6001 1140 33.7639
45.7174 1080 32.8634
45.8348 1041 32.2645
45.9522 907 30.1164
46.0697 809 28.4429
46.1871 799 28.2666
46.3046 899 29.9833
46.422 873 29.5466
46.5395 991 31.4802
46.657 954 30.8869
46.7745 960 30.9839
46.892 1012 31.8119
47.0096 966 31.0805
47.1271 1034 32.1559
47.2446 986 31.4006
47.3622 1012 31.8119
47.4797 959 30.9677
47.5973 909 30.1496
47.7149 872 29.5296
47.8324 848 29.1204
47.95 797 28.2312
48.0675 772 27.7849
48.1851 810 28.4605
48.3027 890 29.8329
48.4202 904 30.0666
48.5378 937 30.6105
48.6554 880 29.6648
48.7729 931 30.5123
48.8904 927 30.4467
49.008 952 30.8545
49.1255 856 29.2575
49.243 867 29.4449
49.3605 741 27.2213
49.478 802 28.3196
49.5955 688 26.2298
49.713 775 27.8388
49.8304 795 28.1957
49.9479 874 29.5635
50.0653 993 31.5119
50.1827 980 31.305
50.3001 1015 31.8591
50.4175 1142 33.7935
50.5348 1142 33.7935
50.6521 1232 35.0999
50.7694 1239 35.1994
50.8867 1319 36.318
51.004 1332 36.4966
51.1212 1329 36.4555
51.2384 1273 35.6791
51.3556 1307 36.1525
51.4727 1255 35.426
51.5899 1315 36.2629
51.707 1455 38.1445
51.824 1547 39.3319
51.9411 1654 40.6694
52.0581 1781 42.2019
52.175 1910 43.7035
52.2919 1853 43.0465
52.4088 2015 44.8888
52.5257 2040 45.1664
52.6425 2118 46.0217
52.7593 2035 45.111
52.876 1873 43.2782
52.9927 1706 41.3038
53.1094 1625 40.3113
53.226 1595 39.9375
53.3426 1554 39.4208
53.4591 1667 40.8289
53.5756 1946 44.1135
53.692 2052 45.299
53.8084 2127 46.1194
53.9248 2200 46.9042
54.0411 2227 47.1911
54.1573 2310 48.0625
54.2735 0 1
54.3896 0 1
54.5057 0 1
54.6217 0 1
54.7377 0 1
54.8537 0 1
54.9695 0 1
55.0853 0 1
55.2011 0 1
55.3168 0 1
55.4324 0 1
57.824 0 1
57.9396 0 1
58.0553 0 1
58.1711 0 1
58.2869 0 1
58.4028 0 1
58.5187 0 1
58.6347 0 1
58.7508 0 1
58.8669 0 1
58.983 1981 44.5084
59.0992 2209 47
59.2155 2210 47.0106
59.3318 2150 46.3681
59.4482 2275 47.697
59.5646 2213 47.0425
59.681 2264 47.5815
59.7975 2309 48.0521
59.9141 2295 47.9062
60.0306 2158 46.4543
60.1473 2106 45.8912
60.2639 2042 45.1885
60.3807 2009 44.8219
60.4974 2096 45.7821
60.6142 2162 46.4973
60.731 2304 48
60.8479 2283 47.7807
60.9648 2298 47.9375
61.0818 2176 46.6476
61.1987 2230 47.2229
61.3158 2223 47.1487
61.4328 2085 45.6618
61.5499 2027 45.0222
61.667 1844 42.9418
61.7841 1672 40.8901
61.9013 1575 39.6863
62.0185 1550 39.37
62.1357 1689 41.0974
62.253 1785 42.2493
62.3702 1931 43.9431
62.4875 1964 44.317
62.6049 2007 44.7996
62.7222 2099 45.8148
62.8396 2148 46.3465
62.9569 2170 46.5833
63.0743 2062 45.4093
63.1918 2089 45.7056
63.3092 2033 45.0888
63.4267 2009 44.8219
63.5441 2032 45.0777
63.6616 1887 43.4396
63.7791 1815 42.6028
63.8966 1729 41.5812
64.0142 1872 43.2666
64.1317 1882 43.382
64.2492 1963 44.3058
64.3668 2095 45.7712
64.4843 2050 45.2769
64.6019 2061 45.3982
64.7195 1921 43.8292
64.837 1909 43.6921
64.9546 1907 43.6692
65.0722 1812 42.5676
65.1898 1649 40.6079
65.3074 1560 39.4968
65.4249 1367 36.973
65.5425 1350 36.7423
65.6601 1385 37.2156
65.7777 1520 38.9872
65.8952 1574 39.6737
66.0128 1794 42.3556
66.1304 1855 43.0697
66.2479 1924 43.8634
66.3655 1944 44.0908
66.483 1990 44.6094
66.6005 2068 45.4753
66.718 1966 44.3396
66.8355 2099 45.8148
66.953 2124 46.0869
67.0705 2124 46.0869
67.1879 2007 44.7996
67.3054 1992 44.6318
67.4228 2002 44.7437
67.5402 1901 43.6005
67.6576 1920 43.8178
67.7749 2143 46.2925
67.8923 2276 47.7074
68.0096 2385 48.8365
68.1269 2412 49.1121
68.2442 2566 50.6557
68.3614 2522 50.2195
68.4787 2424 49.2341
68.5958 2474 49.7393
68.713 2372 48.7032
68.8302 2316 48.1248
68.9473 2153 46.4004
69.0643 1943 44.0795
69.1814 1852 43.0349
69.2984 1850 43.0116
69.4154 1922 43.8406
69.5323 2201 46.9148
69.6492 2475 49.7494
69.7661 2622 51.2055
69.8829 2657 51.5461
69.9997 2678 51.7494
70.1165 2700 51.9615
70.2332 2784 52.7636
70.3499 2805 52.9623
70.4665 2757 52.5071
70.5831 2809 53
70.6996 2884 53.7029
70.8161 2853 53.4135
70.9326 2799 52.9056
71.049 2681 51.7784
71.1653 2551 50.5074
71.2817 2376 48.7442
71.3979 2344 48.4149
71.5141 2462 49.6185
71.6303 2585 50.8429
71.7464 2525 50.2494
71.8624 0 1
71.9784 0 1
72.0944 0 1
72.2102 0 1
72.3261 0 1
72.4418 0 1
72.5575 0 1
72.6732 0 1
75.1054 0 1
75.2209 0 1
75.3365 0 1
75.4521 0 1
75.5678 0 1
75.6835 0 1
75.7993 0 1
75.9151 0 1
76.031 0 1
76.147 1886 43.4281
76.263 1999 44.7102
76.3791 1957 44.238
76.4952 1773 42.107
76.6113 1921 43.8292
76.7276 1938 44.0227
76.8438 2095 45.7712
76.9601 2181 46.7012
77.0765 2053 45.31
77.1929 2053 45.31
77.3093 2070 45.4973
77.4258 2033 45.0888
77.5423 1983 44.5309
77.6589 1777 42.1545
77.7755 1652 40.6448
77.8921 1500 38.7298
78.0088 1340 36.606
78.1256 1338 36.5787
78.2423 1232 35.0999
78.3591 1313 36.2353
78.4759 1494 38.6523
78.5928 1649 40.6079
78.7097 1807 42.5088
78.8266 1827 42.7434
78.9436 1834 42.8252
79.0606 1833 42.8135
79.1776 1867 43.2088
79.2946 1886 43.4281
79.4117 1915 43.7607
79.5288 1980 44.4972
79.6459 1866 43.1972
79.7631 1864 43.1741
79.8802 1769 42.0595
79.9974 1880 43.359
80.1147 1662 40.7676
80.2319 1650 40.6202
80.3491 1786 42.2611
80.4664 1835 42.8369
80.5837 1929 43.9204
80.701 1993 44.643
80.8183 1994 44.6542
80.9357 2017 44.911
81.053 1906 43.6578
81.1704 1977 44.4635
81.2877 1873 43.2782
81.4051 1787 42.2729
81.5225 1576 39.6989
81.6399 1324 36.3868
81.7573 1396 37.3631
81.8747 1199 34.6266
81.9922 1336 36.5513
82.1096 1472 38.3667
82.227 1676 40.939
82.3444 1740 41.7133
82.4619 1832 42.8019
82.5793 1771 42.0833
82.6967 1781 42.2019
82.8142 1846 42.9651
82.9316 1915 43.7607
83.049 1922 43.8406
83.1664 1916 43.7721
83.2838 2019 44.9333
83.4012 1934 43.9773
83.5186 1966 44.3396
83.636 1938 44.0227
83.7534 1813 42.5793
83.8708 1691 41.1218
83.9881 1805 42.4853
84.1055 1865 43.1856
84.2228 2052 45.299
84.3401 2137 46.2277
84.4575 2095 45.7712
84.5747 2218 47.0956
84.692 2045 45.2217
84.8093 2170 46.5833
84.9265 1917 43.7836
85.0437 1792 42.332
85.1609 1567 39.5854
85.2781 1455 38.1445
85.3952 1368 36.9865
85.5123 1309 36.1801
85.6294 1432 37.8418
85.7465 1676 40.939
85.8636 1801 42.4382
85.9806 1856 43.0813
86.0976 2103 45.8585
86.2145 2050 45.2769
86.3315 2091 45.7275
86.4484 2185 46.744
86.5652 2259 47.5289
86.682 2192 46.8188
86.7988 2254 47.4763
86.9156 2236 47.2864
87.0323 2292 47.8748
87.149 2219 47.1063
87.2657 2240 47.3286
87.3823 2096 45.7821
87.4988 2060 45.3872
87.6154 2126 46.1086
87.7318 2408 49.0714
87.8483 2453 49.5278
87.9647 2589 50.8822
88.081 2568 50.6754
88.1973 2644 51.4198
88.3136 2615 51.1371
88.4298 2580 50.7937
88.546 2488 49.8799
88.6621 2120 46.0435
88.7781 2075 45.5522
88.8942 0 1
89.0101 0 1
89.126 0 1
89.2419 0 1
89.3577 0 1
89.4734 0 1
89.5891 0 1
89.7047 0 1
89.8203 0 1
89.9358 0 1
92.3269 0 1
92.4424 0 1
92.558 0 1
92.6736 0 1
92.7893 0 1
92.905 0 1
93.0208 0 1
93.1366 0 1
93.2525 0 1
93.3685 0 1
93.4845 0 1
93.6005 3119 55.848
93.7167 3154 56.1605
93.8328 3031 55.0545
93.949 2719 52.144
94.0653 2548 50.4777
94.1816 2383 48.816
94.2979 2211 47.0213
94.4143 2260 47.5395
94.5307 2401 49
94.6472 2634 51.3225
94.7637 2778 52.7067
94.8803 2907 53.9166
94.9969 2922 54.0555
95.1135 3162 56.2317
95.2302 3273 57.2101
95.3469 3307 57.5065
95.4637 3453 58.7622
95.5805 3601 60.0083
95.6973 3629 60.2412
95.8142 3530 59.4138
95.9311 3603 60.025
96.048 3593 59.9416
96.1649 3532 59.4306
96.2819 3439 58.643
96.3989 3198 56.5509
96.516 3326 57.6715
96.633 3325 57.6628
96.7501 3489 59.0678
96.8673 3679 60.6548
96.9844 3711 60.918
97.1016 3819 61.7981
97.2188 3621 60.1747
97.336 3678 60.6465
97.4532 3606 60.05
97.5704 3408 58.3781
97.6877 3105 55.7225
97.805 2827 53.1695
97.9223 2559 50.5866
98.0396 2392 48.9081
98.1569 2269 47.634
98.2743 2323 48.1975
98.3916 2589 50.8822
98.509 2700 51.9615
98.6264 2864 53.5164
98.7438 2967 54.4702
98.8612 3024 54.9909
98.9786 3148 56.107
99.096 3118 55.8391
99.2134 3305 57.4891
99.3308 3133 55.9732
99.4482 3183 56.4181
99.5656 3107 55.7405
99.6831 3003 54.7996
99.8005 2954 54.3507
99.9179 2868 53.5537
100.035 2732 52.2685
100.153 2640 51.3809
100.27 2831 53.2071
100.388 2869 53.563
100.505 3008 54.8452
100.622 2977 54.5619
100.74 2897 53.8238
100.857 2950 54.3139
100.975 2815 53.0566
101.092 2798 52.8961
101.209 2760 52.5357
101.327 2501 50.01
101.444 2194 46.8402
101.561 2109 45.9239
101.679 1969 44.3734
101.796 1906 43.6578
101.913 1989 44.5982
102.03 2138 46.2385
102.148 2295 47.9062
102.265 2230 47.2229
102.382 2660 51.5752
102.499 2608 51.0686
102.616 2608 51.0686
102.733 2561 50.6063
102.851 2684 51.8073
102.968 2822 53.1225
103.085 2696 51.923
103.202 2712 52.0769
103.319 2581 50.8035
103.436 2536 50.3587
103.552 2514 50.1398
103.669 2471 49.7092
103.786 2547 50.4678
103.903 2519 50.1896
104.02 2661 51.5849
104.137 2671 51.6817
104.253 2694 51.9038
104.37 2642 51.4004
104.487 2589 50.8822
104.603 2619 51.1762
104.72 2519 50.1896
104.836 2180 46.6905
104.953 1977 44.4635
105.069 1868 43.2204
105.186 1764 42
105.302 1634 40.4228
105.418 1700 41.2311
105.535 1910 43.7035
105.651 1973 44.4185
105.767 2018 44.9222
105.883 2100 45.8258
105.999 2134 46.1952
106.115 0 1
106.231 0 1
106.347 0 1
106.463 0 1
106.579 0 1
106.694 0 1
106.81 0 1
106.926 0 1
107.041 0 1
107.157 0 1
109.576 0 1
109.692 0 1
109.807 0 1
109.923 0 1
110.039 0 1
110.155 0 1
110.27 0 1
110.386 0 1
110.502 0 1
110.618 1534 39.1663
110.735 1570 39.6232
110.851 1726 41.5452
110.967 1773 42.107
111.083 1863 43.1625
111.199 1879 43.3474
111.316 1968 44.3621
111.432 1943 44.0795
111.549 1991 44.6206
111.665 1939 44.0341
111.782 1996 44.6766
111.898 1847 42.9767
112.015 1777 42.1545
112.132 1781 42.2019
112.248 1740 41.7133
112.365 1866 43.1972
112.482 1961 44.2832
112.599 1939 44.0341
112.716 2047 45.2438
112.832 1953 44.1928
112.949 1916 43.7721
113.066 1943 44.0795
113.183 2005 44.7772
113.3 1904 43.6348
113.417 1759 41.9404
113.534 1651 40.6325
113.652 1480 38.4708
113.769 1417 37.6431
113.886 1397 37.3765
114.003 1391 37.2961
114.12 1465 38.2753
114.238 1575 39.6863
114.355 1731 41.6053
114.472 1865 43.1856
114.589 1886 43.4281
114.707 1951 44.1701
114.824 1928 43.909
114.942 1970 44.3847
115.059 1844 42.9418
115.176 1967 44.3509
115.294 1875 43.3013
115.411 1890 43.4741
115.529 1801 42.4382
115.646 1837 42.8602
115.764 1709 41.3401
115.881 1712 41.3763
115.999 1835 42.8369
116.116 1824 42.7083
116.234 1880 43.359
116.351 1768 42.0476
116.469 1844 42.9418
116.586 1967 44.3509
116.704 1905 43.6463
116.821 1829 42.7668
116.939 1846 42.9651
117.056 1652 40.6448
117.174 1452 38.1051
117.291 1410 37.55
117.409 1210 34.7851
117.526 1240 35.2136
117.644 1272 35.6651
117.761 1416 37.6298
117.879 1484 38.5227
117.996 1536 39.1918
118.114 1680 40.9878
118.231 1795 42.3674
118.349 1779 42.1782
118.466 1857 43.0929
118.584 1885 43.4166
118.701 1883 43.3935
118.819 1826 42.7317
118.936 1848 42.9884
119.053 1874 43.2897
119.171 1789 42.2966
119.288 1730 41.5933
119.405 1760 41.9524
119.523 1853 43.0465
119.64 1841 42.9069
119.757 2003 44.7549
119.875 1941 44.0568
119.992 2080 45.607
120.109 1972 44.4072
120.226 2058 45.3652
120.343 2066 45.4533
120.46 1995 44.6654
120.578 2066 45.4533
120.695 1971 44.3959
120.812 1799 42.4146
120.929 1611 40.1373
121.046 1591 39.8873
121.163 1392 37.3095
121.279 1475 38.4057
121.396 1675 40.9268
121.513 1738 41.6893
121.63 1968 44.3621
121.747 1970 44.3847
121.863 2010 44.833
121.98 2161 46.4866
122.097 2333 48.3011
122.213 2261 47.55
122.33 2306 48.0208
122.446 2288 47.833
122.563 2345 48.4252
122.679 2364 48.621
122.795 2212 47.0319
122.912 2142 46.2817
123.028 2098 45.8039
123.144 2145 46.3141
123.26 2178 46.669
123.377 0 1
123.493 0 1
123.609 0 1
123.725 0 1
123.84 0 1
123.956 0 1
124.072 0 1
124.188 0 1
124.303 0 1
124.419 0 1
126.852 0 1
126.968 0 1
127.083 0 1
127.199 0 1
127.315 0 1
127.431 0 1
127.547 0 1
127.663 0 1
127.779 0 1
127.895 0 1
128.011 0 1
128.127 0 1
128.243 0 1
128.359 2415 49.1426
128.476 2408 49.0714
128.592 2490 49.8999
128.708 2479 49.7896
128.825 2570 50.6952
128.941 2622 51.2055
129.058 2604 51.0294
129.174 2451 49.5076
129.291 2488 49.8799
129.408 2485 49.8498
129.524 2471 49.7092
129.641 2390 48.8876
129.758 2287 47.8226
129.875 2086 45.6727
129.992 1855 43.0697
130.108 1691 41.1218
130.225 1597 39.9625
130.342 1562 39.5221
130.459 1720 41.4729
130.576 1856 43.0813
130.693 1951 44.1701
130.81 2022 44.9667
130.928 2064 45.4313
131.045 2174 46.6262
131.162 2068 45.4753
131.279 2146 46.3249
131.396 2081 45.618
131.513 2155 46.422
131.631 2014 44.8776
131.748 2013 44.8665
131.865 1951 44.1701
131.983 1993 44.643
132.1 2021 44.9555
132.217 1966 44.3396
132.335 2064 45.4313
132.452 2055 45.3321
132.57 1962 44.2945
132.687 1993 44.643
132.804 2043 45.1996
132.922 2008 44.8107
133.039 2091 45.7275
133.157 1992 44.6318
133.274 1931 43.9431
133.392 1729 41.5812
133.509 1580 39.7492
133.627 1522 39.0128
133.744 1361 36.8917
133.862 1238 35.1852
133.979 1282 35.805
134.097 1546 39.3192
134.214 1604 40.05
134.332 1611 40.1373
134.449 1663 40.7799
134.567 1641 40.5093
134.684 1664 40.7922
134.802 1709 41.3401
134.919 1702 41.2553
135.037 1673 40.9023
135.154 1652 40.6448
135.272 1568 39.598
135.389 1606 40.0749
135.507 1532 39.1408
135.624 1588 39.8497
135.742 1535 39.1791
135.859 1549 39.3573
135.977 1609 40.1123
136.094 1518 38.9615
136.211 1601 40.0125
136.329 1618 40.2244
136.446 1561 39.5095
136.564 1607 40.0874
136.681 1587 39.8372
136.798 1517 38.9487
136.915 1491 38.6135
137.033 1398 37.3898
137.15 1318 36.3043
137.267 1199 34.6266
137.384 1093 33.0606
137.502 1129 33.6006
137.619 1162 34.0881
137.736 1318 36.3043
137.853 1372 37.0405
137.97 1534 39.1663
138.087 1533 39.1535
138.204 1590 39.8748
138.321 1575 39.6863
138.438 1655 40.6817
138.555 1667 40.8289
138.672 1696 41.1825
138.788 1696 41.1825
138.905 1723 41.509
139.022 1682 41.0122
139.139 1682 41.0122
139.255 1706 41.3038
139.372 1763 41.9881
139.488 1731 41.6053
139.605 1843 42.9302
139.721 1798 42.4028
139.838 1919 43.8064
139.954 1936 44
140.071 1911 43.715
140.187 1994 44.6542
140.303 1944 44.0908
140.419 1986 44.5646
140.535 1925 43.8748
140.652 1778 42.1663
140.768 0 1
140.884 0 1
141 0 1
141.115 0 1
141.231 0 1
141.347 0 1
141.463 0 1
141.578 0 1
141.694 0 1
144.104 0 1
144.219 0 1
144.335 0 1
144.45 0 1
144.566 0 1
144.682 0 1
144.798 0 1
144.914 0 1
145.03 0 1
145.146 1663 40.7799
145.262 1720 41.4729
145.378 1632 40.398
145.494 1709 41.3401
145.61 1688 41.0853
145.726 1592 39.8999
145.842 1497 38.6911
145.959 1370 37.0135
146.075 1227 35.0286
146.192 1146 33.8526
146.308 1122 33.4963
146.425 1216 34.8712
146.541 1284 35.8329
146.658 1322 36.3593
146.774 1387 37.2424
146.891 1378 37.1214
147.008 1441 37.9605
147.125 1411 37.5633
147.241 1516 38.9358
147.358 1437 37.9078
147.475 1378 37.1214
147.592 1347 36.7015
147.709 1265 35.5668
147.826 1277 35.7351
147.943 1347 36.7015
148.06 1391 37.2961
148.177 1334 36.524
148.294 1347 36.7015
148.411 1376 37.0945
148.528 1373 37.054
148.645 1275 35.7071
148.762 1295 35.9861
148.88 1232 35.0999
148.997 1327 36.428
149.114 1219 34.9142
149.231 1302 36.0832
149.349 1234 35.1283
149.466 1161 34.0735
149.583 1125 33.541
149.701 1010 31.7805
149.818 981 31.3209
149.935 913 30.2159
150.053 1006 31.7175
150.17 1037 32.2025
150.287 1117 33.4215
150.405 1122 33.4963
150.522 1177 34.3074
150.64 1187 34.4529
150.757 1212 34.8138
150.875 1255 35.426
150.992 1210 34.7851
151.11 1229 35.0571
151.227 1148 33.8821
151.344 1160 34.0588
151.462 1186 34.4384
151.579 1235 35.1426
151.697 1236 35.1568
151.814 1249 35.3412
151.932 1304 36.1109
152.049 1263 35.5387
152.167 1307 36.1525
152.284 1259 35.4824
152.402 1335 36.5377
152.519 1322 36.3593
152.636 1361 36.8917
152.754 1253 35.3977
152.871 1313 36.2353
152.989 1315 36.2629
153.106 1216 34.8712
153.223 1116 33.4066
153.341 1087 32.9697
153.458 1044 32.311
153.575 1041 32.2645
153.693 1104 33.2265
153.81 1215 34.8569
153.927 1192 34.5254
154.044 1277 35.7351
154.162 1322 36.3593
154.279 1351 36.756
154.396 1468 38.3145
154.513 1447 38.0395
154.63 1487 38.5616
154.747 1461 38.223
154.864 1415 37.6165
154.981 1428 37.7889
155.098 1381 37.1618
155.215 1468 38.3145
155.332 1458 38.1838
155.449 1526 39.064
155.566 1517 38.9487
155.683 1576 39.6989
155.8 1576 39.6989
155.917 1552 39.3954
156.033 1602 40.025
156.15 0 1
156.267 0 1
156.383 0 1
156.5 0 1
156.617 0 1
156.733 0 1
156.85 0 1
156.966 0 1
157.082 0 1
157.199 0 1
157.315 0 1
157.431 0 1
157.547 0 1
157.664 0 1
157.78 0 1
157.896 0 1
158.012 0 1
158.128 0 1
158.244 0 1
158.359 0 1
158.475 0 1
158.591 0 1
158.706 0 1
