
6.15755 0 1
6.2731 0 1
6.3887 0 1
6.50437 0 1
6.62009 0 1
6.73587 0 1
6.8517 0 1
6.96759 0 1
7.08353 0 1
7.19952 0 1
7.31557 0 1
7.43166 0 1
7.54781 0 1
7.664 0 1
7.78024 0 1
7.89653 0 1
8.01286 0 1
8.12924 0 1
8.24567 0 1
8.36213 0 1
8.47864 0 1
8.59519 0 1
8.71178 0 1
8.82841 0 1
8.94508 0 1
9.06179 0 1
9.17853 0 1
9.29531 0 1
9.41212 0 1
9.52897 0 1
9.64584 0 1
9.76276 0 1
9.8797 0 1
9.99667 0 1
10.1137 0 1
10.2307 0 1
10.3478 0 1
10.4648 0 1
10.5819 0 1
10.6991 0 1
10.8162 0 1
10.9334 0 1
11.0506 0 1
11.1678 0 1
11.285 0 1
11.4023 0 1
11.5196 0 1
11.6369 0 1
11.7542 0 1
11.8715 0 1
11.9888 0 1
12.1062 0 1
12.2235 0 1
12.3409 0 1
12.4582 0 1
12.5756 0 1
12.693 0 1
12.8104 0 1
12.9278 0 1
13.0452 0 1
13.1626 0 1
13.28 0 1
13.3974 0 1
13.5149 0 1
13.6323 0 1
13.7497 0 1
13.8671 0 1
13.9845 0 1
14.1019 0 1
14.2193 0 1
14.3367 0 1
14.4541 0 1
14.5714 0 1
14.6888 0 1
14.8062 0 1
14.9235 0 1
15.0408 952 30.8545
15.1581 963 31.0322
15.2755 985 31.3847
15.3927 1035 32.1714
15.51 1047 32.3574
15.6273 1090 33.0151
15.7445 954 30.8869
15.8617 947 30.7734
15.9789 979 31.289
16.0961 949 30.8058
16.2132 928 30.4631
16.3304 894 29.8998
16.4475 876 29.5973
16.5646 858 29.2916
16.6816 867 29.4449
16.7986 842 29.0172
16.9156 826 28.7402
17.0326 820 28.6356
17.1496 861 29.3428
17.2665 780 27.9285
17.3833 799 28.2666
17.5002 816 28.5657
17.617 839 28.9655
17.7338 830 28.8097
17.8505 795 28.1957
17.9672 833 28.8617
18.0839 827 28.7576
18.2005 847 29.1033
18.3171 828 28.775
18.4337 732 27.0555
18.5502 755 27.4773
18.6666 835 28.8964
18.7831 783 27.9821
18.8994 811 28.4781
19.0158 806 28.3901
19.1321 783 27.9821
19.2483 757 27.5136
19.3645 696 26.3818
19.4806 705 26.5518
19.5967 704 26.533
19.7128 632 25.1396
19.8288 589 24.2693
19.9447 535 23.1301
20.0606 0 1
20.1764 0 1
20.2922 0 1
20.4079 0 1
20.5236 0 1
20.6392 0 1
20.7548 0 1
20.8702 0 1
23.3078 0 1
23.4233 0 1
23.539 0 1
23.6547 0 1
23.7704 0 1
23.8862 0 1
24.0021 0 1
24.118 0 1
24.234 0 1
24.35 0 1
24.4661 347 18.6279
24.5822 381 19.5192
24.6984 449 21.1896
24.8146 514 22.6716
24.9309 583 24.1454
25.0472 670 25.8844
25.1636 777 27.8747
25.28 763 27.6225
25.3965 832 28.8444
25.513 839 28.9655
25.6296 878 29.6311
25.7462 893 29.8831
25.8628 846 29.0861
25.9795 870 29.4958
26.0962 854 29.2233
26.213 782 27.9643
26.3298 761 27.5862
26.4466 744 27.2764
26.5635 756 27.4955
26.6804 714 26.7208
26.7973 751 27.4044
26.9143 745 27.2947
27.0313 691 26.2869
27.1483 652 25.5343
27.2653 731 27.037
27.3824 767 27.6948
27.4996 780 27.9285
27.6167 722 26.8701
27.7339 665 25.7876
27.8511 702 26.4953
27.9683 771 27.7669
28.0855 760 27.5681
28.2028 799 28.2666
28.3201 774 27.8209
28.4374 764 27.6405
28.5547 765 27.6586
28.6721 766 27.6767
28.7894 785 28.0179
28.9068 794 28.178
29.0242 747 27.3313
29.1416 764 27.6405
29.259 733 27.074
29.3764 770 27.7489
29.4939 712 26.6833
29.6113 662 25.7294
29.7288 663 25.7488
29.8463 652 25.5343
29.9638 621 24.9199
30.0812 620 24.8998
30.1987 683 26.1343
30.3162 689 26.2488
30.4337 679 26.0576
30.5512 664 25.7682
30.6687 634 25.1794
30.7862 660 25.6905
30.9037 775 27.8388
31.0212 763 27.6225
31.1387 719 26.8142
31.2562 732 27.0555
31.3737 695 26.3629
31.4912 763 27.6225
31.6087 720 26.8328
31.7262 716 26.7582
31.8436 753 27.4408
31.9611 720 26.8328
32.0785 751 27.4044
32.1959 705 26.5518
32.3134 757 27.5136
32.4308 684 26.1534
32.5482 680 26.0768
32.6655 652 25.5343
32.7829 631 25.1197
32.9002 660 25.6905
33.0176 629 25.0799
33.1349 633 25.1595
33.2522 614 24.779
33.3694 595 24.3926
33.4867 622 24.9399
33.6039 552 23.4947
33.7211 563 23.7276
33.8383 611 24.7184
33.9554 674 25.9615
34.0725 684 26.1534
34.1896 628 25.0599
34.3067 603 24.5561
34.4237 679 26.0576
34.5407 655 25.593
34.6577 653 25.5539
34.7746 661 25.7099
34.8915 661 25.7099
35.0084 639 25.2784
35.1252 638 25.2587
35.242 608 24.6577
35.3587 648 25.4558
35.4755 675 25.9808
35.5921 630 25.0998
35.7088 702 26.4953
35.8254 679 26.0576
35.9419 601 24.5153
36.0584 609 24.6779
36.1749 630 25.0998
36.2913 623 24.96
36.4077 546 23.3666
36.524 558 23.622
36.6403 519 22.7816
36.7565 545 23.3452
36.8727 399 19.975
36.9889 428 20.6882
37.1049 385 19.6214
37.221 0 1
37.3369 0 1
37.4529 0 1
37.5687 0 1
37.6845 0 1
37.8003 0 1
37.916 0 1
38.0316 0 1
38.1472 0 1
40.5851 0 1
40.7008 0 1
40.8164 0 1
40.9322 0 1
41.048 0 1
41.1639 0 1
41.2798 0 1
41.3958 0 1
41.5118 0 1
41.6279 0 1
41.744 279 16.7033
41.8602 311 17.6352
41.9765 378 19.4422
42.0928 373 19.3132
42.2091 422 20.5426
42.3255 455 21.3307
42.4419 458 21.4009
42.5584 484 22
42.675 502 22.4054
42.7915 490 22.1359
42.9081 503 22.4277
43.0248 514 22.6716
43.1415 445 21.095
43.2582 471 21.7025
43.375 505 22.4722
43.4918 588 24.2487
43.6087 534 23.1084
43.7256 470 21.6795
43.8425 452 21.2603
43.9595 459 21.4243
44.0765 444 21.0713
44.1935 507 22.5167
44.3106 499 22.3383
44.4277 522 22.8473
44.5448 508 22.5389
44.6619 491 22.1585
44.7791 504 22.4499
44.8963 510 22.5832
45.0136 547 23.388
45.1308 560 23.6643
45.2481 535 23.1301
45.3654 538 23.1948
45.4827 512 22.6274
45.6001 521 22.8254
45.7174 545 23.3452
45.8348 451 21.2368
45.9522 465 21.5639
46.0697 478 21.8632
46.1871 499 22.3383
46.3046 501 22.383
46.422 482 21.9545
46.5395 479 21.8861
46.657 554 23.5372
46.7745 528 22.9783
46.892 498 22.3159
47.0096 513 22.6495
47.1271 511 22.6053
47.2446 543 23.3024
47.3622 500 22.3607
47.4797 455 21.3307
47.5973 548 23.4094
47.7149 498 22.3159
47.8324 460 21.4476
47.95 535 23.1301
48.0675 510 22.5832
48.1851 540 23.2379
48.3027 544 23.3238
48.4202 597 24.4336
48.5378 534 23.1084
48.6554 521 22.8254
48.7729 558 23.622
48.8904 504 22.4499
49.008 498 22.3159
49.1255 495 22.2486
49.243 454 21.3073
49.3605 449 21.1896
49.478 421 20.5183
49.5955 468 21.6333
49.713 442 21.0238
49.8304 480 21.9089
49.9479 454 21.3073
50.0653 433 20.8087
50.1827 458 21.4009
50.3001 485 22.0227
50.4175 480 21.9089
50.5348 465 21.5639
50.6521 499 22.3383
50.7694 489 22.1133
50.8867 473 21.7486
51.004 421 20.5183
51.1212 441 21
51.2384 501 22.383
51.3556 497 22.2935
51.4727 499 22.3383
51.5899 456 21.3542
51.707 547 23.388
51.824 497 22.2935
51.9411 492 22.1811
52.0581 507 22.5167
52.175 502 22.4054
52.2919 483 21.9773
52.4088 501 22.383
52.5257 441 21
52.6425 498 22.3159
52.7593 471 21.7025
52.876 431 20.7605
52.9927 399 19.975
53.1094 455 21.3307
53.226 448 21.166
53.3426 443 21.0476
53.4591 426 20.6398
53.5756 516 22.7156
53.692 549 23.4307
53.8084 726 26.9444
53.9248 953 30.8707
54.0411 1207 34.7419
54.1573 1155 33.9853
54.2735 0 1
54.3896 0 1
54.5057 0 1
54.6217 0 1
54.7377 0 1
54.8537 0 1
54.9695 0 1
55.0853 0 1
55.2011 0 1
55.3168 0 1
55.4324 0 1
57.824 0 1
57.9396 0 1
58.0553 0 1
58.1711 0 1
58.2869 0 1
58.4028 0 1
58.5187 0 1
58.6347 0 1
58.7508 0 1
58.8669 0 1
58.983 1093 33.0606
59.0992 1143 33.8083
59.2155 1132 33.6452
59.3318 1064 32.619
59.4482 1037 32.2025
59.5646 1046 32.3419
59.681 1011 31.7962
59.7975 1028 32.0624
59.9141 983 31.3528
60.0306 1048 32.3728
60.1473 1068 32.6803
60.2639 1068 32.6803
60.3807 1088 32.9848
60.4974 1081 32.8786
60.6142 1056 32.4962
60.731 1094 33.0757
60.8479 1082 32.8938
60.9648 1072 32.7414
61.0818 1009 31.7648
61.1987 991 31.4802
61.3158 994 31.5278
61.4328 915 30.249
61.5499 860 29.3258
61.667 818 28.6007
61.7841 792 28.1425
61.9013 808 28.4253
62.0185 815 28.5482
62.1357 814 28.5307
62.253 873 29.5466
62.3702 901 30.0167
62.4875 807 28.4077
62.6049 828 28.775
62.7222 809 28.4429
62.8396 818 28.6007
62.9569 794 28.178
63.0743 818 28.6007
63.1918 730 27.0185
63.3092 675 25.9808
63.4267 709 26.6271
63.5441 752 27.4226
63.6616 764 27.6405
63.7791 746 27.313
63.8966 786 28.0357
64.0142 742 27.2397
64.1317 743 27.258
64.2492 696 26.3818
64.3668 720 26.8328
64.4843 671 25.9037
64.6019 604 24.5764
64.7195 587 24.2281
64.837 603 24.5561
64.9546 593 24.3516
65.0722 533 23.0868
65.1898 540 23.2379
65.3074 492 22.1811
65.4249 489 22.1133
65.5425 557 23.6008
65.6601 526 22.9347
65.7777 580 24.0832
65.8952 603 24.5561
66.0128 596 24.4131
66.1304 562 23.7065
66.2479 543 23.3024
66.3655 580 24.0832
66.483 635 25.1992
66.6005 604 24.5764
66.718 552 23.4947
66.8355 556 23.5797
66.953 616 24.8193
67.0705 551 23.4734
67.1879 613 24.7588
67.3054 577 24.0208
67.4228 624 24.98
67.5402 580 24.0832
67.6576 654 25.5734
67.7749 568 23.8328
67.8923 627 25.04
68.0096 589 24.2693
68.1269 584 24.1661
68.2442 553 23.516
68.3614 576 24
68.4787 601 24.5153
68.5958 529 23
68.713 551 23.4734
68.8302 500 22.3607
68.9473 491 22.1585
69.0643 506 22.4944
69.1814 520 22.8035
69.2984 511 22.6053
69.4154 591 24.3105
69.5323 575 23.9792
69.6492 587 24.2281
69.7661 599 24.4745
69.8829 539 23.2164
69.9997 523 22.8692
70.1165 548 23.4094
70.2332 545 23.3452
70.3499 508 22.5389
70.4665 472 21.7256
70.5831 432 20.7846
70.6996 445 21.095
70.8161 415 20.3715
70.9326 378 19.4422
71.049 357 18.8944
71.1653 363 19.0526
71.2817 318 17.8326
71.3979 297 17.2337
71.5141 276 16.6132
71.6303 244 15.6205
71.7464 222 14.8997
71.8624 0 1
71.9784 0 1
72.0944 0 1
72.2102 0 1
72.3261 0 1
72.4418 0 1
72.5575 0 1
72.6732 0 1
75.1054 0 1
75.2209 0 1
75.3365 0 1
75.4521 0 1
75.5678 0 1
75.6835 0 1
75.7993 0 1
75.9151 0 1
76.031 0 1
76.147 344 18.5472
76.263 393 19.8242
76.3791 453 21.2838
76.4952 460 21.4476
76.6113 491 22.1585
76.7276 543 23.3024
76.8438 492 22.1811
76.9601 509 22.561
77.0765 497 22.2935
77.1929 503 22.4277
77.3093 500 22.3607
77.4258 491 22.1585
77.5423 453 21.2838
77.6589 432 20.7846
77.7755 458 21.4009
77.8921 407 20.1742
78.0088 443 21.0476
78.1256 370 19.2354
78.2423 450 21.2132
78.3591 417 20.4206
78.4759 471 21.7025
78.5928 460 21.4476
78.7097 494 22.2261
78.8266 519 22.7816
78.9436 488 22.0907
79.0606 497 22.2935
79.1776 482 21.9545
79.2946 500 22.3607
79.4117 503 22.4277
79.5288 468 21.6333
79.6459 521 22.8254
79.7631 459 21.4243
79.8802 484 22
79.9974 502 22.4054
80.1147 515 22.6936
80.2319 522 22.8473
80.3491 518 22.7596
80.4664 543 23.3024
80.5837 522 22.8473
80.701 551 23.4734
80.8183 469 21.6564
80.9357 482 21.9545
81.053 505 22.4722
81.1704 512 22.6274
81.2877 520 22.8035
81.4051 493 22.2036
81.5225 522 22.8473
81.6399 423 20.567
81.7573 472 21.7256
81.8747 449 21.1896
81.9922 457 21.3776
82.1096 456 21.3542
82.227 504 22.4499
82.3444 508 22.5389
82.4619 498 22.3159
82.5793 533 23.0868
82.6967 500 22.3607
82.8142 512 22.6274
82.9316 532 23.0651
83.049 507 22.5167
83.1664 504 22.4499
83.2838 481 21.9317
83.4012 484 22
83.5186 527 22.9565
83.636 499 22.3383
83.7534 566 23.7908
83.8708 534 23.1084
83.9881 513 22.6495
84.1055 514 22.6716
84.2228 541 23.2594
84.3401 538 23.1948
84.4575 554 23.5372
84.5747 480 21.9089
84.692 516 22.7156
84.8093 521 22.8254
84.9265 531 23.0434
85.0437 496 22.2711
85.1609 496 22.2711
85.2781 461 21.4709
85.3952 443 21.0476
85.5123 439 20.9523
85.6294 483 21.9773
85.7465 511 22.6053
85.8636 503 22.4277
85.9806 515 22.6936
86.0976 506 22.4944
86.2145 480 21.9089
86.3315 551 23.4734
86.4484 512 22.6274
86.5652 538 23.1948
86.682 526 22.9347
86.7988 526 22.9347
86.9156 471 21.7025
87.0323 484 22
87.149 484 22
87.2657 477 21.8403
87.3823 507 22.5167
87.4988 522 22.8473
87.6154 477 21.8403
87.7318 466 21.587
87.8483 476 21.8174
87.9647 452 21.2603
88.081 390 19.7484
88.1973 371 19.2614
88.3136 350 18.7083
88.4298 321 17.9165
88.546 291 17.0587
88.6621 259 16.0935
88.7781 234 15.2971
88.8942 0 1
89.0101 0 1
89.126 0 1
89.2419 0 1
89.3577 0 1
89.4734 0 1
89.5891 0 1
89.7047 0 1
89.8203 0 1
89.9358 0 1
92.3269 0 1
92.4424 0 1
92.558 0 1
92.6736 0 1
92.7893 0 1
92.905 0 1
93.0208 0 1
93.1366 0 1
93.2525 0 1
93.3685 0 1
93.4845 0 1
93.6005 410 20.2485
93.7167 403 20.0749
93.8328 506 22.4944
93.949 455 21.3307
94.0653 499 22.3383
94.1816 483 21.9773
94.2979 520 22.8035
94.4143 501 22.383
94.5307 459 21.4243
94.6472 479 21.8861
94.7637 475 21.7945
94.8803 450 21.2132
94.9969 500 22.3607
95.1135 523 22.8692
95.2302 475 21.7945
95.3469 534 23.1084
95.4637 479 21.8861
95.5805 543 23.3024
95.6973 482 21.9545
95.8142 536 23.1517
95.9311 507 22.5167
96.048 511 22.6053
96.1649 512 22.6274
96.2819 552 23.4947
96.3989 530 23.0217
96.516 560 23.6643
96.633 509 22.561
96.7501 509 22.561
96.8673 505 22.4722
96.9844 530 23.0217
97.1016 500 22.3607
97.2188 529 23
97.336 512 22.6274
97.4532 469 21.6564
97.5704 557 23.6008
97.6877 552 23.4947
97.805 538 23.1948
97.9223 495 22.2486
98.0396 506 22.4944
98.1569 482 21.9545
98.2743 499 22.3383
98.3916 477 21.8403
98.509 479 21.8861
98.6264 502 22.4054
98.7438 524 22.891
98.8612 529 23
98.9786 487 22.0681
99.096 499 22.3383
99.2134 553 23.516
99.3308 553 23.516
99.4482 599 24.4745
99.5656 506 22.4944
99.6831 537 23.1733
99.8005 536 23.1517
99.9179 564 23.7487
100.035 559 23.6432
100.153 566 23.7908
100.27 567 23.8118
100.388 531 23.0434
100.505 538 23.1948
100.622 543 23.3024
100.74 552 23.4947
100.857 513 22.6495
100.975 519 22.7816
101.092 502 22.4054
101.209 547 23.388
101.327 538 23.1948
101.444 587 24.2281
101.561 551 23.4734
101.679 537 23.1733
101.796 504 22.4499
101.913 495 22.2486
102.03 510 22.5832
102.148 488 22.0907
102.265 582 24.1247
102.382 505 22.4722
102.499 565 23.7697
102.616 566 23.7908
102.733 556 23.5797
102.851 610 24.6982
102.968 606 24.6171
103.085 607 24.6374
103.202 589 24.2693
103.319 558 23.622
103.436 548 23.4094
103.552 563 23.7276
103.669 576 24
103.786 571 23.8956
103.903 562 23.7065
104.02 572 23.9165
104.137 606 24.6171
104.253 572 23.9165
104.37 535 23.1301
104.487 535 23.1301
104.603 518 22.7596
104.72 562 23.7065
104.836 524 22.891
104.953 488 22.0907
105.069 531 23.0434
105.186 451 21.2368
105.302 475 21.7945
105.418 444 21.0713
105.535 413 20.3224
105.651 368 19.1833
105.767 360 18.9737
105.883 308 17.5499
105.999 291 17.0587
106.115 0 1
106.231 0 1
106.347 0 1
106.463 0 1
106.579 0 1
106.694 0 1
106.81 0 1
106.926 0 1
107.041 0 1
107.157 0 1
109.576 0 1
109.692 0 1
109.807 0 1
109.923 0 1
110.039 0 1
110.155 0 1
110.27 0 1
110.386 0 1
110.502 0 1
110.618 300 17.3205
110.735 290 17.0294
110.851 373 19.3132
110.967 410 20.2485
111.083 410 20.2485
111.199 483 21.9773
111.316 537 23.1733
111.432 536 23.1517
111.549 543 23.3024
111.665 533 23.0868
111.782 546 23.3666
111.898 499 22.3383
112.015 517 22.7376
112.132 492 22.1811
112.248 530 23.0217
112.365 493 22.2036
112.482 509 22.561
112.599 576 24
112.716 583 24.1454
112.832 529 23
112.949 509 22.561
113.066 495 22.2486
113.183 501 22.383
113.3 548 23.4094
113.417 542 23.2809
113.534 541 23.2594
113.652 577 24.0208
113.769 553 23.516
113.886 544 23.3238
114.003 586 24.2074
114.12 506 22.4944
114.238 484 22
114.355 465 21.5639
114.472 403 20.0749
114.589 437 20.9045
114.707 433 20.8087
114.824 480 21.9089
114.942 541 23.2594
115.059 518 22.7596
115.176 526 22.9347
115.294 552 23.4947
115.411 514 22.6716
115.529 506 22.4944
115.646 488 22.0907
115.764 441 21
115.881 475 21.7945
115.999 471 21.7025
116.116 483 21.9773
116.234 482 21.9545
116.351 456 21.3542
116.469 460 21.4476
116.586 473 21.7486
116.704 474 21.7715
116.821 444 21.0713
116.939 474 21.7715
117.056 492 22.1811
117.174 453 21.2838
117.291 474 21.7715
117.409 448 21.166
117.526 447 21.1424
117.644 471 21.7025
117.761 432 20.7846
117.879 389 19.7231
117.996 370 19.2354
118.114 379 19.4679
118.231 402 20.0499
118.349 448 21.166
118.466 418 20.445
118.584 453 21.2838
118.701 471 21.7025
118.819 468 21.6333
118.936 446 21.1187
119.053 412 20.2978
119.171 429 20.7123
119.288 399 19.975
119.405 427 20.664
119.523 428 20.6882
119.64 420 20.4939
119.757 467 21.6102
119.875 401 20.025
119.992 431 20.7605
120.109 396 19.8997
120.226 404 20.0998
120.343 381 19.5192
120.46 420 20.4939
120.578 431 20.7605
120.695 389 19.7231
120.812 421 20.5183
120.929 416 20.3961
121.046 400 20
121.163 455 21.3307
121.279 391 19.7737
121.396 390 19.7484
121.513 379 19.4679
121.63 360 18.9737
121.747 340 18.4391
121.863 325 18.0278
121.98 376 19.3907
122.097 357 18.8944
122.213 382 19.5448
122.33 380 19.4936
122.446 369 19.2094
122.563 297 17.2337
122.679 281 16.7631
122.795 320 17.8885
122.912 247 15.7162
123.028 243 15.5885
123.144 211 14.5258
123.26 226 15.0333
123.377 0 1
123.493 0 1
123.609 0 1
123.725 0 1
123.84 0 1
123.956 0 1
124.072 0 1
124.188 0 1
124.303 0 1
124.419 0 1
126.852 0 1
126.968 0 1
127.083 0 1
127.199 0 1
127.315 0 1
127.431 0 1
127.547 0 1
127.663 0 1
127.779 0 1
127.895 0 1
128.011 0 1
128.127 0 1
128.243 0 1
128.359 403 20.0749
128.476 398 19.9499
128.592 419 20.4695
128.708 456 21.3542
128.825 472 21.7256
128.941 459 21.4243
129.058 462 21.4942
129.174 464 21.5407
129.291 446 21.1187
129.408 487 22.0681
129.524 472 21.7256
129.641 500 22.3607
129.758 436 20.8806
129.875 535 23.1301
129.992 518 22.7596
130.108 574 23.9583
130.225 596 24.4131
130.342 582 24.1247
130.459 654 25.5734
130.576 686 26.1916
130.693 713 26.7021
130.81 898 29.9666
130.928 1125 33.541
131.045 1556 39.4462
131.162 1896 43.5431
131.279 2149 46.3573
131.396 2488 49.8799
131.513 2915 53.9907
131.631 3390 58.2237
131.748 3982 63.1031
131.865 4663 68.2862
131.983 5503 74.1822
132.1 6438 80.2371
132.217 7889 88.82
132.335 9429 97.103
132.452 11047 105.105
132.57 13158 114.708
132.687 14982 122.401
132.804 17556 132.499
132.922 19596 139.986
133.039 22496 149.987
133.157 26093 161.533
133.274 30018 173.257
133.392 34793 186.529
133.509 39686 199.213
133.627 44931 211.969
133.744 48901 221.136
133.862 54342 233.114
133.979 57122 239.002
134.097 58413 241.688
134.214 56995 238.736
134.332 55169 234.881
134.449 53823 231.998
134.567 53818 231.987
134.684 58216 241.28
134.802 63684 252.357
134.919 69524 263.674
135.037 73670 271.422
135.154 76260 276.152
135.272 77560 278.496
135.389 77978 279.245
135.507 77024 277.532
135.624 75467 274.713
135.742 74377 272.721
135.859 72768 269.755
135.977 71181 266.798
136.094 70046 264.662
136.211 68027 260.82
136.329 66921 258.691
136.446 64791 254.541
136.564 60945 246.87
136.681 57557 239.91
136.798 53214 230.682
136.915 50711 225.191
137.033 47096 217.016
137.15 44217 210.278
137.267 41856 204.587
137.384 39733 199.331
137.502 37098 192.608
137.619 34880 186.762
137.736 32585 180.513
137.853 29317 171.222
137.97 27534 165.934
138.087 24985 158.066
138.204 23923 154.671
138.321 22632 150.439
138.438 21464 146.506
138.555 21248 145.767
138.672 20347 142.643
138.788 19638 140.136
138.905 18437 135.783
139.022 17852 133.611
139.139 16684 129.167
139.255 16181 127.205
139.372 15284 123.628
139.488 14495 120.395
139.605 13263 115.165
139.721 11931 109.229
139.838 11030 105.024
139.954 10405 102.005
140.071 9641 98.1886
140.187 9174 95.781
140.303 8096 89.9778
140.419 7655 87.4929
140.535 6943 83.3247
140.652 6477 80.4798
140.768 0 1
140.884 0 1
141 0 1
141.115 0 1
141.231 0 1
141.347 0 1
141.463 0 1
141.578 0 1
141.694 0 1
144.104 0 1
144.219 0 1
144.335 0 1
144.45 0 1
144.566 0 1
144.682 0 1
144.798 0 1
144.914 0 1
145.03 0 1
145.146 2480 49.7996
145.262 2545 50.448
145.378 2548 50.4777
145.494 2381 48.7955
145.61 2379 48.775
145.726 2379 48.775
145.842 2307 48.0312
145.959 2280 47.7493
146.075 2256 47.4974
146.192 2139 46.2493
146.308 2058 45.3652
146.425 1849 43
146.541 1665 40.8044
146.658 1567 39.5854
146.774 1542 39.2683
146.891 1727 41.5572
147.008 1839 42.8836
147.125 1959 44.2606
147.241 1881 43.3705
147.358 1911 43.715
147.475 1940 44.0454
147.592 1966 44.3396
147.709 1858 43.1045
147.826 1858 43.1045
147.943 1845 42.9535
148.06 1809 42.5323
148.177 1881 43.3705
148.294 1905 43.6463
148.411 1862 43.1509
148.528 2015 44.8888
148.645 1995 44.6654
148.762 1916 43.7721
148.88 1989 44.5982
148.997 2145 46.3141
149.114 1954 44.2041
149.231 2165 46.5296
149.349 2147 46.3357
149.466 2090 45.7165
149.583 2215 47.0638
149.701 2214 47.0532
149.818 2127 46.1194
149.935 2193 46.8295
150.053 2050 45.2769
150.17 1866 43.1972
150.287 1612 40.1497
150.405 1405 37.4833
150.522 1563 39.5348
150.64 1963 44.3058
150.757 2159 46.465
150.875 2304 48
150.992 2350 48.4768
151.11 2364 48.621
151.227 2406 49.051
151.344 2303 47.9896
151.462 2388 48.8672
151.579 2321 48.1768
151.697 2419 49.1833
151.814 2345 48.4252
151.932 2484 49.8397
152.049 2464 49.6387
152.167 2445 49.4469
152.284 2453 49.5278
152.402 2362 48.6004
152.519 2512 50.1199
152.636 2406 49.051
152.754 2431 49.3052
152.871 2380 48.7852
152.989 2331 48.2804
153.106 2336 48.3322
153.223 2236 47.2864
153.341 2273 47.676
153.458 2134 46.1952
153.575 1933 43.9659
153.693 1904 43.6348
153.81 1662 40.7676
153.927 1562 39.5221
154.044 1382 37.1753
154.162 1551 39.3827
154.279 1670 40.8656
154.396 1828 42.7551
154.513 1830 42.7785
154.63 1934 43.9773
154.747 1864 43.1741
154.864 1820 42.6615
154.981 1736 41.6653
155.098 1684 41.0366
155.215 1774 42.1189
155.332 1640 40.4969
155.449 1678 40.9634
155.566 1686 41.0609
155.683 1734 41.6413
155.8 1689 41.0974
155.917 1666 40.8167
156.033 1613 40.1622
156.15 0 1
156.267 0 1
156.383 0 1
156.5 0 1
156.617 0 1
156.733 0 1
156.85 0 1
156.966 0 1
157.082 0 1
157.199 0 1
157.315 0 1
157.431 0 1
157.547 0 1
157.664 0 1
157.78 0 1
157.896 0 1
158.012 0 1
158.128 0 1
158.244 0 1
158.359 0 1
158.475 0 1
158.591 0 1
158.706 0 1
