
6.15755 0 1
6.2731 0 1
6.3887 0 1
6.50437 0 1
6.62009 0 1
6.73587 0 1
6.8517 0 1
6.96759 0 1
7.08353 0 1
7.19952 0 1
7.31557 0 1
7.43166 0 1
7.54781 0 1
7.664 0 1
7.78024 0 1
7.89653 0 1
8.01286 0 1
8.12924 0 1
8.24567 0 1
8.36213 0 1
8.47864 0 1
8.59519 0 1
8.71178 0 1
8.82841 0 1
8.94508 0 1
9.06179 0 1
9.17853 0 1
9.29531 0 1
9.41212 0 1
9.52897 0 1
9.64584 0 1
9.76276 0 1
9.8797 0 1
9.99667 0 1
10.1137 0 1
10.2307 0 1
10.3478 0 1
10.4648 0 1
10.5819 0 1
10.6991 0 1
10.8162 0 1
10.9334 0 1
11.0506 0 1
11.1678 0 1
11.285 0 1
11.4023 0 1
11.5196 0 1
11.6369 0 1
11.7542 0 1
11.8715 0 1
11.9888 0 1
12.1062 0 1
12.2235 0 1
12.3409 0 1
12.4582 0 1
12.5756 0 1
12.693 0 1
12.8104 0 1
12.9278 0 1
13.0452 0 1
13.1626 0 1
13.28 0 1
13.3974 0 1
13.5149 0 1
13.6323 0 1
13.7497 0 1
13.8671 0 1
13.9845 0 1
14.1019 0 1
14.2193 0 1
14.3367 0 1
14.4541 0 1
14.5714 0 1
14.6888 0 1
14.8062 0 1
14.9235 0 1
15.0408 897 29.95
15.1581 901 30.0167
15.2755 885 29.7489
15.3927 877 29.6142
15.51 855 29.2404
15.6273 822 28.6705
15.7445 836 28.9137
15.8617 845 29.0689
15.9789 841 29
16.0961 825 28.7228
16.2132 791 28.1247
16.3304 787 28.0535
16.4475 834 28.8791
16.5646 771 27.7669
16.6816 762 27.6043
16.7986 752 27.4226
16.9156 761 27.5862
17.0326 739 27.1846
17.1496 757 27.5136
17.2665 779 27.9106
17.3833 767 27.6948
17.5002 713 26.7021
17.617 734 27.0924
17.7338 814 28.5307
17.8505 775 27.8388
17.9672 729 27
18.0839 759 27.55
18.2005 698 26.4197
18.3171 735 27.1109
18.4337 790 28.1069
18.5502 756 27.4955
18.6666 726 26.9444
18.7831 774 27.8209
18.8994 753 27.4408
19.0158 682 26.1151
19.1321 628 25.0599
19.2483 615 24.7992
19.3645 544 23.3238
19.4806 596 24.4131
19.5967 624 24.98
19.7128 564 23.7487
19.8288 562 23.7065
19.9447 530 23.0217
20.0606 0 1
20.1764 0 1
20.2922 0 1
20.4079 0 1
20.5236 0 1
20.6392 0 1
20.7548 0 1
20.8702 0 1
23.3078 0 1
23.4233 0 1
23.539 0 1
23.6547 0 1
23.7704 0 1
23.8862 0 1
24.0021 0 1
24.118 0 1
24.234 0 1
24.35 0 1
24.4661 300 17.3205
24.5822 338 18.3848
24.6984 416 20.3961
24.8146 476 21.8174
24.9309 578 24.0416
25.0472 617 24.8395
25.1636 641 25.318
25.28 704 26.533
25.3965 800 28.2843
25.513 858 29.2916
25.6296 838 28.9482
25.7462 782 27.9643
25.8628 842 29.0172
25.9795 816 28.5657
26.0962 757 27.5136
26.213 778 27.8927
26.3298 707 26.5895
26.4466 690 26.2679
26.5635 699 26.4386
26.6804 659 25.671
26.7973 692 26.3059
26.9143 612 24.7386
27.0313 644 25.3772
27.1483 626 25.02
27.2653 689 26.2488
27.3824 711 26.6646
27.4996 714 26.7208
27.6167 719 26.8142
27.7339 675 25.9808
27.8511 579 24.0624
27.9683 611 24.7184
28.0855 653 25.5539
28.2028 690 26.2679
28.3201 704 26.533
28.4374 758 27.5318
28.5547 766 27.6767
28.6721 762 27.6043
28.7894 736 27.1293
28.9068 732 27.0555
29.0242 733 27.074
29.1416 664 25.7682
29.259 658 25.6515
29.3764 675 25.9808
29.4939 656 25.6125
29.6113 667 25.8263
29.7288 681 26.096
29.8463 633 25.1595
29.9638 629 25.0799
30.0812 634 25.1794
30.1987 593 24.3516
30.3162 603 24.5561
30.4337 687 26.2107
30.5512 662 25.7294
30.6687 623 24.96
30.7862 685 26.1725
30.9037 737 27.1477
31.0212 711 26.6646
31.1387 749 27.3679
31.2562 676 26
31.3737 621 24.9199
31.4912 634 25.1794
31.6087 648 25.4558
31.7262 675 25.9808
31.8436 711 26.6646
31.9611 704 26.533
32.0785 711 26.6646
32.1959 685 26.1725
32.3134 688 26.2298
32.4308 684 26.1534
32.5482 611 24.7184
32.6655 622 24.9399
32.7829 591 24.3105
32.9002 641 25.318
33.0176 587 24.2281
33.1349 598 24.454
33.2522 618 24.8596
33.3694 616 24.8193
33.4867 624 24.98
33.6039 621 24.9199
33.7211 633 25.1595
33.8383 607 24.6374
33.9554 598 24.454
34.0725 596 24.4131
34.1896 651 25.5147
34.3067 600 24.4949
34.4237 644 25.3772
34.5407 665 25.7876
34.6577 688 26.2298
34.7746 626 25.02
34.8915 622 24.9399
35.0084 641 25.318
35.1252 559 23.6432
35.242 594 24.3721
35.3587 548 23.4094
35.4755 645 25.3969
35.5921 637 25.2389
35.7088 635 25.1992
35.8254 622 24.9399
35.9419 625 25
36.0584 649 25.4755
36.1749 608 24.6577
36.2913 573 23.9374
36.4077 595 24.3926
36.524 552 23.4947
36.6403 540 23.2379
36.7565 523 22.8692
36.8727 498 22.3159
36.9889 448 21.166
37.1049 412 20.2978
37.221 0 1
37.3369 0 1
37.4529 0 1
37.5687 0 1
37.6845 0 1
37.8003 0 1
37.916 0 1
38.0316 0 1
38.1472 0 1
40.5851 0 1
40.7008 0 1
40.8164 0 1
40.9322 0 1
41.048 0 1
41.1639 0 1
41.2798 0 1
41.3958 0 1
41.5118 0 1
41.6279 0 1
41.744 310 17.6068
41.8602 307 17.5214
41.9765 381 19.5192
42.0928 431 20.7605
42.2091 434 20.8327
42.3255 432 20.7846
42.4419 461 21.4709
42.5584 546 23.3666
42.675 490 22.1359
42.7915 473 21.7486
42.9081 424 20.5913
43.0248 469 21.6564
43.1415 506 22.4944
43.2582 461 21.4709
43.375 502 22.4054
43.4918 476 21.8174
43.6087 506 22.4944
43.7256 504 22.4499
43.8425 442 21.0238
43.9595 450 21.2132
44.0765 431 20.7605
44.1935 436 20.8806
44.3106 453 21.2838
44.4277 477 21.8403
44.5448 486 22.0454
44.6619 472 21.7256
44.7791 560 23.6643
44.8963 507 22.5167
45.0136 517 22.7376
45.1308 497 22.2935
45.2481 521 22.8254
45.3654 507 22.5167
45.4827 514 22.6716
45.6001 549 23.4307
45.7174 509 22.561
45.8348 557 23.6008
45.9522 509 22.561
46.0697 504 22.4499
46.1871 487 22.0681
46.3046 499 22.3383
46.422 462 21.4942
46.5395 474 21.7715
46.657 463 21.5174
46.7745 449 21.1896
46.892 496 22.2711
47.0096 509 22.561
47.1271 476 21.8174
47.2446 515 22.6936
47.3622 528 22.9783
47.4797 486 22.0454
47.5973 484 22
47.7149 441 21
47.8324 469 21.6564
47.95 499 22.3383
48.0675 487 22.0681
48.1851 509 22.561
48.3027 526 22.9347
48.4202 536 23.1517
48.5378 551 23.4734
48.6554 502 22.4054
48.7729 513 22.6495
48.8904 505 22.4722
49.008 502 22.4054
49.1255 543 23.3024
49.243 513 22.6495
49.3605 514 22.6716
49.478 498 22.3159
49.5955 501 22.383
49.713 433 20.8087
49.8304 452 21.2603
49.9479 459 21.4243
50.0653 412 20.2978
50.1827 420 20.4939
50.3001 439 20.9523
50.4175 453 21.2838
50.5348 462 21.4942
50.6521 476 21.8174
50.7694 474 21.7715
50.8867 481 21.9317
51.004 457 21.3776
51.1212 393 19.8242
51.2384 417 20.4206
51.3556 445 21.095
51.4727 492 22.1811
51.5899 477 21.8403
51.707 487 22.0681
51.824 493 22.2036
51.9411 468 21.6333
52.0581 511 22.6053
52.175 459 21.4243
52.2919 450 21.2132
52.4088 487 22.0681
52.5257 501 22.383
52.6425 463 21.5174
52.7593 485 22.0227
52.876 481 21.9317
52.9927 423 20.567
53.1094 463 21.5174
53.226 456 21.3542
53.3426 461 21.4709
53.4591 424 20.5913
53.5756 374 19.3391
53.692 375 19.3649
53.8084 363 19.0526
53.9248 321 17.9165
54.0411 350 18.7083
54.1573 307 17.5214
54.2735 0 1
54.3896 0 1
54.5057 0 1
54.6217 0 1
54.7377 0 1
54.8537 0 1
54.9695 0 1
55.0853 0 1
55.2011 0 1
55.3168 0 1
55.4324 0 1
57.824 0 1
57.9396 0 1
58.0553 0 1
58.1711 0 1
58.2869 0 1
58.4028 0 1
58.5187 0 1
58.6347 0 1
58.7508 0 1
58.8669 0 1
58.983 1034 32.1559
59.0992 1345 36.6742
59.2155 1830 42.7785
59.3318 2281 47.7598
59.4482 2501 50.01
59.5646 2691 51.8748
59.681 2756 52.4976
59.7975 2736 52.3068
59.9141 2680 51.7687
60.0306 2668 51.6527
60.1473 2585 50.8429
60.2639 2483 49.8297
60.3807 2388 48.8672
60.4974 2317 48.1352
60.6142 2282 47.7703
60.731 2099 45.8148
60.8479 1973 44.4185
60.9648 1942 44.0681
61.0818 1817 42.6263
61.1987 1772 42.0951
61.3158 1615 40.1871
61.4328 1545 39.3065
61.5499 1420 37.6829
61.667 1345 36.6742
61.7841 1217 34.8855
61.9013 1158 34.0294
62.0185 1011 31.7962
62.1357 1020 31.9374
62.253 965 31.0644
62.3702 904 30.0666
62.4875 815 28.5482
62.6049 857 29.2746
62.7222 872 29.5296
62.8396 848 29.1204
62.9569 807 28.4077
63.0743 838 28.9482
63.1918 734 27.0924
63.3092 756 27.4955
63.4267 661 25.7099
63.5441 625 25
63.6616 569 23.8537
63.7791 590 24.2899
63.8966 599 24.4745
64.0142 607 24.6374
64.1317 560 23.6643
64.2492 558 23.622
64.3668 558 23.622
64.4843 545 23.3452
64.6019 542 23.2809
64.7195 523 22.8692
64.837 569 23.8537
64.9546 554 23.5372
65.0722 582 24.1247
65.1898 542 23.2809
65.3074 526 22.9347
65.4249 529 23
65.5425 514 22.6716
65.6601 471 21.7025
65.7777 503 22.4277
65.8952 479 21.8861
66.0128 459 21.4243
66.1304 477 21.8403
66.2479 514 22.6716
66.3655 500 22.3607
66.483 533 23.0868
66.6005 532 23.0651
66.718 553 23.516
66.8355 561 23.6854
66.953 546 23.3666
67.0705 514 22.6716
67.1879 476 21.8174
67.3054 496 22.2711
67.4228 520 22.8035
67.5402 563 23.7276
67.6576 518 22.7596
67.7749 530 23.0217
67.8923 544 23.3238
68.0096 523 22.8692
68.1269 551 23.4734
68.2442 545 23.3452
68.3614 558 23.622
68.4787 526 22.9347
68.5958 520 22.8035
68.713 496 22.2711
68.8302 525 22.9129
68.9473 511 22.6053
69.0643 537 23.1733
69.1814 507 22.5167
69.2984 532 23.0651
69.4154 519 22.7816
69.5323 423 20.567
69.6492 495 22.2486
69.7661 453 21.2838
69.8829 473 21.7486
69.9997 514 22.6716
70.1165 514 22.6716
70.2332 497 22.2935
70.3499 504 22.4499
70.4665 492 22.1811
70.5831 450 21.2132
70.6996 424 20.5913
70.8161 385 19.6214
70.9326 328 18.1108
71.049 326 18.0555
71.1653 340 18.4391
71.2817 292 17.088
71.3979 281 16.7631
71.5141 280 16.7332
71.6303 244 15.6205
71.7464 229 15.1327
71.8624 0 1
71.9784 0 1
72.0944 0 1
72.2102 0 1
72.3261 0 1
72.4418 0 1
72.5575 0 1
72.6732 0 1
75.1054 0 1
75.2209 0 1
75.3365 0 1
75.4521 0 1
75.5678 0 1
75.6835 0 1
75.7993 0 1
75.9151 0 1
76.031 0 1
76.147 331 18.1934
76.263 380 19.4936
76.3791 427 20.664
76.4952 392 19.799
76.6113 441 21
76.7276 430 20.7364
76.8438 440 20.9762
76.9601 531 23.0434
77.0765 405 20.1246
77.1929 447 21.1424
77.3093 463 21.5174
77.4258 432 20.7846
77.5423 432 20.7846
77.6589 466 21.587
77.7755 433 20.8087
77.8921 455 21.3307
78.0088 507 22.5167
78.1256 443 21.0476
78.2423 413 20.3224
78.3591 433 20.8087
78.4759 438 20.9284
78.5928 399 19.975
78.7097 394 19.8494
78.8266 396 19.8997
78.9436 430 20.7364
79.0606 432 20.7846
79.1776 411 20.2731
79.2946 491 22.1585
79.4117 463 21.5174
79.5288 452 21.2603
79.6459 483 21.9773
79.7631 442 21.0238
79.8802 462 21.4942
79.9974 477 21.8403
80.1147 488 22.0907
80.2319 499 22.3383
80.3491 489 22.1133
80.4664 490 22.1359
80.5837 465 21.5639
80.701 493 22.2036
80.8183 451 21.2368
80.9357 446 21.1187
81.053 462 21.4942
81.1704 489 22.1133
81.2877 473 21.7486
81.4051 493 22.2036
81.5225 486 22.0454
81.6399 484 22
81.7573 489 22.1133
81.8747 435 20.8567
81.9922 434 20.8327
82.1096 436 20.8806
82.227 406 20.1494
82.3444 419 20.4695
82.4619 421 20.5183
82.5793 476 21.8174
82.6967 437 20.9045
82.8142 475 21.7945
82.9316 452 21.2603
83.049 481 21.9317
83.1664 496 22.2711
83.2838 503 22.4277
83.4012 513 22.6495
83.5186 470 21.6795
83.636 527 22.9565
83.7534 473 21.7486
83.8708 525 22.9129
83.9881 475 21.7945
84.1055 503 22.4277
84.2228 506 22.4944
84.3401 483 21.9773
84.4575 484 22
84.5747 468 21.6333
84.692 451 21.2368
84.8093 524 22.891
84.9265 491 22.1585
85.0437 509 22.561
85.1609 510 22.5832
85.2781 505 22.4722
85.3952 497 22.2935
85.5123 475 21.7945
85.6294 447 21.1424
85.7465 436 20.8806
85.8636 443 21.0476
85.9806 437 20.9045
86.0976 426 20.6398
86.2145 472 21.7256
86.3315 490 22.1359
86.4484 466 21.587
86.5652 492 22.1811
86.682 511 22.6053
86.7988 506 22.4944
86.9156 490 22.1359
87.0323 466 21.587
87.149 512 22.6274
87.2657 460 21.4476
87.3823 454 21.3073
87.4988 470 21.6795
87.6154 444 21.0713
87.7318 455 21.3307
87.8483 402 20.0499
87.9647 410 20.2485
88.081 353 18.7883
88.1973 342 18.4932
88.3136 338 18.3848
88.4298 305 17.4642
88.546 294 17.1464
88.6621 274 16.5529
88.7781 249 15.7797
88.8942 0 1
89.0101 0 1
89.126 0 1
89.2419 0 1
89.3577 0 1
89.4734 0 1
89.5891 0 1
89.7047 0 1
89.8203 0 1
89.9358 0 1
92.3269 0 1
92.4424 0 1
92.558 0 1
92.6736 0 1
92.7893 0 1
92.905 0 1
93.0208 0 1
93.1366 0 1
93.2525 0 1
93.3685 0 1
93.4845 0 1
93.6005 396 19.8997
93.7167 413 20.3224
93.8328 446 21.1187
93.949 454 21.3073
94.0653 455 21.3307
94.1816 481 21.9317
94.2979 543 23.3024
94.4143 477 21.8403
94.5307 488 22.0907
94.6472 484 22
94.7637 496 22.2711
94.8803 475 21.7945
94.9969 475 21.7945
95.1135 502 22.4054
95.2302 521 22.8254
95.3469 471 21.7025
95.4637 455 21.3307
95.5805 499 22.3383
95.6973 523 22.8692
95.8142 529 23
95.9311 528 22.9783
96.048 519 22.7816
96.1649 494 22.2261
96.2819 552 23.4947
96.3989 492 22.1811
96.516 504 22.4499
96.633 472 21.7256
96.7501 542 23.2809
96.8673 515 22.6936
96.9844 496 22.2711
97.1016 506 22.4944
97.2188 497 22.2935
97.336 562 23.7065
97.4532 474 21.7715
97.5704 518 22.7596
97.6877 524 22.891
97.805 510 22.5832
97.9223 512 22.6274
98.0396 477 21.8403
98.1569 465 21.5639
98.2743 516 22.7156
98.3916 489 22.1133
98.509 499 22.3383
98.6264 495 22.2486
98.7438 473 21.7486
98.8612 484 22
98.9786 514 22.6716
99.096 576 24
99.2134 548 23.4094
99.3308 544 23.3238
99.4482 534 23.1084
99.5656 546 23.3666
99.6831 553 23.516
99.8005 559 23.6432
99.9179 535 23.1301
100.035 534 23.1084
100.153 543 23.3024
100.27 542 23.2809
100.388 588 24.2487
100.505 549 23.4307
100.622 570 23.8747
100.74 598 24.454
100.857 577 24.0208
100.975 523 22.8692
101.092 549 23.4307
101.209 542 23.2809
101.327 474 21.7715
101.444 566 23.7908
101.561 597 24.4336
101.679 575 23.9792
101.796 507 22.5167
101.913 551 23.4734
102.03 539 23.2164
102.148 557 23.6008
102.265 539 23.2164
102.382 511 22.6053
102.499 512 22.6274
102.616 581 24.1039
102.733 567 23.8118
102.851 578 24.0416
102.968 603 24.5561
103.085 559 23.6432
103.202 562 23.7065
103.319 571 23.8956
103.436 614 24.779
103.552 573 23.9374
103.669 562 23.7065
103.786 582 24.1247
103.903 590 24.2899
104.02 592 24.3311
104.137 594 24.3721
104.253 598 24.454
104.37 572 23.9165
104.487 559 23.6432
104.603 547 23.388
104.72 553 23.516
104.836 531 23.0434
104.953 533 23.0868
105.069 543 23.3024
105.186 500 22.3607
105.302 450 21.2132
105.418 423 20.567
105.535 384 19.5959
105.651 361 19
105.767 348 18.6548
105.883 325 18.0278
105.999 283 16.8226
106.115 0 1
106.231 0 1
106.347 0 1
106.463 0 1
106.579 0 1
106.694 0 1
106.81 0 1
106.926 0 1
107.041 0 1
107.157 0 1
109.576 0 1
109.692 0 1
109.807 0 1
109.923 0 1
110.039 0 1
110.155 0 1
110.27 0 1
110.386 0 1
110.502 0 1
110.618 293 17.1172
110.735 353 18.7883
110.851 448 21.166
110.967 415 20.3715
111.083 401 20.025
111.199 435 20.8567
111.316 504 22.4499
111.432 523 22.8692
111.549 559 23.6432
111.665 557 23.6008
111.782 539 23.2164
111.898 511 22.6053
112.015 496 22.2711
112.132 500 22.3607
112.248 529 23
112.365 497 22.2935
112.482 526 22.9347
112.599 499 22.3383
112.716 524 22.891
112.832 527 22.9565
112.949 491 22.1585
113.066 485 22.0227
113.183 486 22.0454
113.3 486 22.0454
113.417 511 22.6053
113.534 451 21.2368
113.652 475 21.7945
113.769 456 21.3542
113.886 447 21.1424
114.003 471 21.7025
114.12 460 21.4476
114.238 482 21.9545
114.355 502 22.4054
114.472 491 22.1585
114.589 455 21.3307
114.707 422 20.5426
114.824 455 21.3307
114.942 455 21.3307
115.059 513 22.6495
115.176 474 21.7715
115.294 473 21.7486
115.411 480 21.9089
115.529 500 22.3607
115.646 491 22.1585
115.764 476 21.8174
115.881 514 22.6716
115.999 464 21.5407
116.116 484 22
116.234 466 21.587
116.351 539 23.2164
116.469 434 20.8327
116.586 445 21.095
116.704 427 20.664
116.821 428 20.6882
116.939 434 20.8327
117.056 423 20.567
117.174 413 20.3224
117.291 438 20.9284
117.409 384 19.5959
117.526 399 19.975
117.644 430 20.7364
117.761 462 21.4942
117.879 477 21.8403
117.996 472 21.7256
118.114 465 21.5639
118.231 478 21.8632
118.349 444 21.0713
118.466 450 21.2132
118.584 457 21.3776
118.701 466 21.587
118.819 460 21.4476
118.936 433 20.8087
119.053 445 21.095
119.171 445 21.095
119.288 420 20.4939
119.405 436 20.8806
119.523 434 20.8327
119.64 379 19.4679
119.757 440 20.9762
119.875 450 21.2132
119.992 452 21.2603
120.109 453 21.2838
120.226 437 20.9045
120.343 443 21.0476
120.46 403 20.0749
120.578 415 20.3715
120.695 430 20.7364
120.812 410 20.2485
120.929 383 19.5704
121.046 410 20.2485
121.163 340 18.4391
121.279 362 19.0263
121.396 397 19.9249
121.513 387 19.6723
121.63 406 20.1494
121.747 397 19.9249
121.863 368 19.1833
121.98 357 18.8944
122.097 305 17.4642
122.213 368 19.1833
122.33 348 18.6548
122.446 313 17.6918
122.563 290 17.0294
122.679 275 16.5831
122.795 303 17.4069
122.912 324 18
123.028 235 15.3297
123.144 264 16.2481
123.26 254 15.9374
123.377 0 1
123.493 0 1
123.609 0 1
123.725 0 1
123.84 0 1
123.956 0 1
124.072 0 1
124.188 0 1
124.303 0 1
124.419 0 1
126.852 0 1
126.968 0 1
127.083 0 1
127.199 0 1
127.315 0 1
127.431 0 1
127.547 0 1
127.663 0 1
127.779 0 1
127.895 0 1
128.011 0 1
128.127 0 1
128.243 0 1
128.359 435 20.8567
128.476 468 21.6333
128.592 444 21.0713
128.708 466 21.587
128.825 466 21.587
128.941 523 22.8692
129.058 467 21.6102
129.174 450 21.2132
129.291 494 22.2261
129.408 436 20.8806
129.524 479 21.8861
129.641 481 21.9317
129.758 456 21.3542
129.875 477 21.8403
129.992 457 21.3776
130.108 464 21.5407
130.225 457 21.3776
130.342 462 21.4942
130.459 502 22.4054
130.576 536 23.1517
130.693 547 23.388
130.81 551 23.4734
130.928 610 24.6982
131.045 580 24.0832
131.162 607 24.6374
131.279 683 26.1343
131.396 666 25.807
131.513 694 26.3439
131.631 659 25.671
131.748 692 26.3059
131.865 770 27.7489
131.983 814 28.5307
132.1 790 28.1069
132.217 883 29.7153
132.335 914 30.2324
132.452 965 31.0644
132.57 969 31.1288
132.687 1001 31.6386
132.804 1047 32.3574
132.922 1055 32.4808
133.039 1055 32.4808
133.157 1039 32.2335
133.274 1018 31.9061
133.392 991 31.4802
133.509 1062 32.5883
133.627 1100 33.1662
133.744 1028 32.0624
133.862 996 31.5595
133.979 1033 32.1403
134.097 1022 31.9687
134.214 1016 31.8748
134.332 987 31.4166
134.449 983 31.3528
134.567 1028 32.0624
134.684 940 30.6594
134.802 1009 31.7648
134.919 1038 32.218
135.037 1031 32.1092
135.154 1017 31.8904
135.272 988 31.4325
135.389 907 30.1164
135.507 975 31.225
135.624 1016 31.8748
135.742 1032 32.1248
135.859 1034 32.1559
135.977 1150 33.9116
136.094 1100 33.1662
136.211 1054 32.4654
136.329 1133 33.6601
136.446 1082 32.8938
136.564 1059 32.5423
136.681 1038 32.218
136.798 1063 32.6037
136.915 1023 31.9844
137.033 969 31.1288
137.15 1023 31.9844
137.267 999 31.607
137.384 979 31.289
137.502 956 30.9192
137.619 991 31.4802
137.736 990 31.4643
137.853 978 31.273
137.97 1003 31.6702
138.087 1019 31.9218
138.204 955 30.9031
138.321 968 31.1127
138.438 1002 31.6544
138.555 1051 32.4191
138.672 1016 31.8748
138.788 960 30.9839
138.905 877 29.6142
139.022 822 28.6705
139.139 934 30.5614
139.255 953 30.8707
139.372 919 30.315
139.488 905 30.0832
139.605 866 29.4279
139.721 849 29.1376
139.838 694 26.3439
139.954 704 26.533
140.071 593 24.3516
140.187 606 24.6171
140.303 591 24.3105
140.419 579 24.0624
140.535 501 22.383
140.652 456 21.3542
140.768 0 1
140.884 0 1
141 0 1
141.115 0 1
141.231 0 1
141.347 0 1
141.463 0 1
141.578 0 1
141.694 0 1
144.104 0 1
144.219 0 1
144.335 0 1
144.45 0 1
144.566 0 1
144.682 0 1
144.798 0 1
144.914 0 1
145.03 0 1
145.146 863 29.3769
145.262 916 30.2655
145.378 968 31.1127
145.494 950 30.8221
145.61 993 31.5119
145.726 996 31.5595
145.842 986 31.4006
145.959 948 30.7896
146.075 969 31.1288
146.192 907 30.1164
146.308 977 31.257
146.425 923 30.3809
146.541 963 31.0322
146.658 1005 31.7017
146.774 1002 31.6544
146.891 1020 31.9374
147.008 997 31.5753
147.125 947 30.7734
147.241 991 31.4802
147.358 1027 32.0468
147.475 1061 32.573
147.592 1049 32.3883
147.709 904 30.0666
147.826 902 30.0333
147.943 919 30.315
148.06 939 30.6431
148.177 963 31.0322
148.294 1016 31.8748
148.411 975 31.225
148.528 990 31.4643
148.645 980 31.305
148.762 952 30.8545
148.88 994 31.5278
148.997 975 31.225
149.114 937 30.6105
149.231 959 30.9677
149.349 996 31.5595
149.466 867 29.4449
149.583 926 30.4302
149.701 877 29.6142
149.818 901 30.0167
149.935 914 30.2324
150.053 898 29.9666
150.17 872 29.5296
150.287 937 30.6105
150.405 976 31.241
150.522 945 30.7409
150.64 939 30.6431
150.757 925 30.4138
150.875 870 29.4958
150.992 916 30.2655
151.11 886 29.7658
151.227 906 30.0998
151.344 857 29.2746
151.462 807 28.4077
151.579 826 28.7402
151.697 846 29.0861
151.814 934 30.5614
151.932 956 30.9192
152.049 942 30.692
152.167 947 30.7734
152.284 955 30.9031
152.402 850 29.1548
152.519 947 30.7734
152.636 893 29.8831
152.754 935 30.5778
152.871 949 30.8058
152.989 916 30.2655
153.106 984 31.3688
153.223 903 30.05
153.341 905 30.0832
153.458 909 30.1496
153.575 851 29.1719
153.693 877 29.6142
153.81 895 29.9166
153.927 928 30.4631
154.044 926 30.4302
154.162 899 29.9833
154.279 886 29.7658
154.396 912 30.1993
154.513 927 30.4467
154.63 890 29.8329
154.747 881 29.6816
154.864 840 28.9828
154.981 760 27.5681
155.098 726 26.9444
155.215 769 27.7308
155.332 874 29.5635
155.449 899 29.9833
155.566 917 30.282
155.683 954 30.8869
155.8 881 29.6816
155.917 842 29.0172
156.033 825 28.7228
156.15 0 1
156.267 0 1
156.383 0 1
156.5 0 1
156.617 0 1
156.733 0 1
156.85 0 1
156.966 0 1
157.082 0 1
157.199 0 1
157.315 0 1
157.431 0 1
157.547 0 1
157.664 0 1
157.78 0 1
157.896 0 1
158.012 0 1
158.128 0 1
158.244 0 1
158.359 0 1
158.475 0 1
158.591 0 1
158.706 0 1
