
6.15755 0 1
6.2731 0 1
6.3887 0 1
6.50437 0 1
6.62009 0 1
6.73587 0 1
6.8517 0 1
6.96759 0 1
7.08353 0 1
7.19952 0 1
7.31557 0 1
7.43166 0 1
7.54781 0 1
7.664 0 1
7.78024 0 1
7.89653 0 1
8.01286 0 1
8.12924 0 1
8.24567 0 1
8.36213 0 1
8.47864 0 1
8.59519 0 1
8.71178 0 1
8.82841 0 1
8.94508 0 1
9.06179 0 1
9.17853 0 1
9.29531 0 1
9.41212 0 1
9.52897 0 1
9.64584 0 1
9.76276 0 1
9.8797 0 1
9.99667 0 1
10.1137 0 1
10.2307 0 1
10.3478 0 1
10.4648 0 1
10.5819 0 1
10.6991 0 1
10.8162 0 1
10.9334 0 1
11.0506 0 1
11.1678 0 1
11.285 0 1
11.4023 0 1
11.5196 0 1
11.6369 0 1
11.7542 0 1
11.8715 0 1
11.9888 0 1
12.1062 0 1
12.2235 0 1
12.3409 0 1
12.4582 0 1
12.5756 0 1
12.693 0 1
12.8104 0 1
12.9278 0 1
13.0452 0 1
13.1626 0 1
13.28 0 1
13.3974 0 1
13.5149 0 1
13.6323 0 1
13.7497 0 1
13.8671 0 1
13.9845 0 1
14.1019 0 1
14.2193 0 1
14.3367 0 1
14.4541 0 1
14.5714 0 1
14.6888 0 1
14.8062 0 1
14.9235 0 1
15.0408 0 0
15.1581 0 0
15.2755 0 0
15.3927 0 0
15.51 0 0
15.6273 0 0
15.7445 0 0
15.8617 0 0
15.9789 0 0
16.0961 0 0
16.2132 0 0
16.3304 0 0
16.4475 0 0
16.5646 0 0
16.6816 0 0
16.7986 0 0
16.9156 0 0
17.0326 0 0
17.1496 0 0
17.2665 0 0
17.3833 0 0
17.5002 0 0
17.617 0 0
17.7338 0 0
17.8505 0 0
17.9672 0 0
18.0839 0 0
18.2005 0 0
18.3171 0 0
18.4337 0 0
18.5502 0 0
18.6666 0 0
18.7831 0 0
18.8994 0 0
19.0158 0 0
19.1321 0 0
19.2483 0 0
19.3645 0 0
19.4806 0 0
19.5967 0 0
19.7128 0 0
19.8288 0 0
19.9447 0 0
20.0606 0 1
20.1764 0 1
20.2922 0 1
20.4079 0 1
20.5236 0 1
20.6392 0 1
20.7548 0 1
20.8702 0 1
23.3078 0 1
23.4233 0 1
23.539 0 1
23.6547 0 1
23.7704 0 1
23.8862 0 1
24.0021 0 1
24.118 0 1
24.234 0 1
24.35 0 1
24.4661 1155 33.9853
24.5822 1077 32.8177
24.6984 1108 33.2866
24.8146 955 30.9031
24.9309 1047 32.3574
25.0472 1066 32.6497
25.1636 1019 31.9218
25.28 1088 32.9848
25.3965 1143 33.8083
25.513 1073 32.7567
25.6296 1132 33.6452
25.7462 1113 33.3617
25.8628 1188 34.4674
25.9795 1202 34.6699
26.0962 1223 34.9714
26.213 1215 34.8569
26.3298 1203 34.6843
26.4466 1197 34.5977
26.5635 1137 33.7194
26.6804 1157 34.0147
26.7973 1082 32.8938
26.9143 1084 32.9242
27.0313 1228 35.0428
27.1483 1126 33.5559
27.2653 1262 35.5246
27.3824 1237 35.171
27.4996 1206 34.7275
27.6167 1189 34.4819
27.7339 1226 35.0143
27.8511 1223 34.9714
27.9683 1210 34.7851
28.0855 1163 34.1028
28.2028 1108 33.2866
28.3201 1027 32.0468
28.4374 1100 33.1662
28.5547 1074 32.7719
28.6721 955 30.9031
28.7894 960 30.9839
28.9068 1046 32.3419
29.0242 1026 32.0312
29.1416 1027 32.0468
29.259 1029 32.078
29.3764 1114 33.3766
29.4939 1130 33.6155
29.6113 1162 34.0881
29.7288 1115 33.3916
29.8463 1108 33.2866
29.9638 1093 33.0606
30.0812 1031 32.1092
30.1987 1068 32.6803
30.3162 1064 32.619
30.4337 1086 32.9545
30.5512 1074 32.7719
30.6687 1092 33.0454
30.7862 1204 34.6987
30.9037 1206 34.7275
31.0212 1090 33.0151
31.1387 1174 34.2637
31.2562 1179 34.3366
31.3737 1172 34.2345
31.4912 1157 34.0147
31.6087 1118 33.4365
31.7262 1077 32.8177
31.8436 974 31.209
31.9611 1012 31.8119
32.0785 1045 32.3265
32.1959 944 30.7246
32.3134 892 29.8664
32.4308 954 30.8869
32.5482 960 30.9839
32.6655 991 31.4802
32.7829 1023 31.9844
32.9002 1053 32.45
33.0176 1070 32.7109
33.1349 1074 32.7719
33.2522 1153 33.9559
33.3694 1075 32.7872
33.4867 1077 32.8177
33.6039 1073 32.7567
33.7211 1054 32.4654
33.8383 991 31.4802
33.9554 991 31.4802
34.0725 1035 32.1714
34.1896 966 31.0805
34.3067 1078 32.8329
34.4237 1137 33.7194
34.5407 1093 33.0606
34.6577 1109 33.3017
34.7746 1135 33.6898
34.8915 1142 33.7935
35.0084 1120 33.4664
35.1252 1079 32.8481
35.242 1064 32.619
35.3587 1082 32.8938
35.4755 1071 32.7261
35.5921 943 30.7083
35.7088 966 31.0805
35.8254 938 30.6268
35.9419 864 29.3939
36.0584 847 29.1033
36.1749 888 29.7993
36.2913 938 30.6268
36.4077 889 29.8161
36.524 997 31.5753
36.6403 1012 31.8119
36.7565 1078 32.8329
36.8727 1004 31.686
36.9889 1062 32.5883
37.1049 1033 32.1403
37.221 0 1
37.3369 0 1
37.4529 0 1
37.5687 0 1
37.6845 0 1
37.8003 0 1
37.916 0 1
38.0316 0 1
38.1472 0 1
40.5851 0 1
40.7008 0 1
40.8164 0 1
40.9322 0 1
41.048 0 1
41.1639 0 1
41.2798 0 1
41.3958 0 1
41.5118 0 1
41.6279 0 1
41.744 726 26.9444
41.8602 805 28.3725
41.9765 850 29.1548
42.0928 812 28.4956
42.2091 819 28.6182
42.3255 833 28.8617
42.4419 824 28.7054
42.5584 711 26.6646
42.675 728 26.9815
42.7915 719 26.8142
42.9081 730 27.0185
43.0248 736 27.1293
43.1415 795 28.1957
43.2582 727 26.9629
43.375 814 28.5307
43.4918 802 28.3196
43.6087 822 28.6705
43.7256 827 28.7576
43.8425 748 27.3496
43.9595 740 27.2029
44.0765 756 27.4955
44.1935 743 27.258
44.3106 752 27.4226
44.4277 688 26.2298
44.5448 563 23.7276
44.6619 583 24.1454
44.7791 607 24.6374
44.8963 511 22.6053
45.0136 599 24.4745
45.1308 562 23.7065
45.2481 588 24.2487
45.3654 584 24.1661
45.4827 596 24.4131
45.6001 584 24.1661
45.7174 614 24.779
45.8348 631 25.1197
45.9522 603 24.5561
46.0697 551 23.4734
46.1871 570 23.8747
46.3046 543 23.3024
46.422 571 23.8956
46.5395 542 23.2809
46.657 570 23.8747
46.7745 541 23.2594
46.892 627 25.04
47.0096 617 24.8395
47.1271 600 24.4949
47.2446 540 23.2379
47.3622 620 24.8998
47.4797 593 24.3516
47.5973 545 23.3452
47.7149 574 23.9583
47.8324 560 23.6643
47.95 520 22.8035
48.0675 466 21.587
48.1851 404 20.0998
48.3027 413 20.3224
48.4202 403 20.0749
48.5378 415 20.3715
48.6554 414 20.347
48.7729 436 20.8806
48.8904 469 21.6564
49.008 453 21.2838
49.1255 477 21.8403
49.243 471 21.7025
49.3605 469 21.6564
49.478 459 21.4243
49.5955 477 21.8403
49.713 437 20.9045
49.8304 387 19.6723
49.9479 405 20.1246
50.0653 448 21.166
50.1827 521 22.8254
50.3001 516 22.7156
50.4175 531 23.0434
50.5348 563 23.7276
50.6521 538 23.1948
50.7694 582 24.1247
50.8867 625 25
51.004 574 23.9583
51.1212 603 24.5561
51.2384 583 24.1454
51.3556 588 24.2487
51.4727 555 23.5584
51.5899 593 24.3516
51.707 520 22.8035
51.824 555 23.5584
51.9411 545 23.3452
52.0581 566 23.7908
52.175 585 24.1868
52.2919 689 26.2488
52.4088 640 25.2982
52.5257 699 26.4386
52.6425 672 25.923
52.7593 707 26.5895
52.876 767 27.6948
52.9927 789 28.0891
53.1094 686 26.1916
53.226 678 26.0384
53.3426 664 25.7682
53.4591 671 25.9037
53.5756 718 26.7955
53.692 776 27.8568
53.8084 760 27.5681
53.9248 929 30.4795
54.0411 822 28.6705
54.1573 930 30.4959
54.2735 0 1
54.3896 0 1
54.5057 0 1
54.6217 0 1
54.7377 0 1
54.8537 0 1
54.9695 0 1
55.0853 0 1
55.2011 0 1
55.3168 0 1
55.4324 0 1
57.824 0 1
57.9396 0 1
58.0553 0 1
58.1711 0 1
58.2869 0 1
58.4028 0 1
58.5187 0 1
58.6347 0 1
58.7508 0 1
58.8669 0 1
58.983 920 30.3315
59.0992 1077 32.8177
59.2155 1013 31.8277
59.3318 1064 32.619
59.4482 1120 33.4664
59.5646 1068 32.6803
59.681 1053 32.45
59.7975 1037 32.2025
59.9141 1078 32.8329
60.0306 1023 31.9844
60.1473 947 30.7734
60.2639 891 29.8496
60.3807 840 28.9828
60.4974 809 28.4429
60.6142 750 27.3861
60.731 820 28.6356
60.8479 847 29.1033
60.9648 795 28.1957
61.0818 889 29.8161
61.1987 933 30.545
61.3158 909 30.1496
61.4328 876 29.5973
61.5499 851 29.1719
61.667 865 29.4109
61.7841 802 28.3196
61.9013 790 28.1069
62.0185 731 27.037
62.1357 799 28.2666
62.253 850 29.1548
62.3702 935 30.5778
62.4875 944 30.7246
62.6049 1050 32.4037
62.7222 1010 31.7805
62.8396 1038 32.218
62.9569 1115 33.3916
63.0743 1111 33.3317
63.1918 1011 31.7962
63.3092 1071 32.7261
63.4267 1021 31.9531
63.5441 975 31.225
63.6616 970 31.1448
63.7791 955 30.9031
63.8966 823 28.688
64.0142 829 28.7924
64.1317 822 28.6705
64.2492 823 28.688
64.3668 853 29.2062
64.4843 923 30.3809
64.6019 899 29.9833
64.7195 998 31.5911
64.837 939 30.6431
64.9546 1059 32.5423
65.0722 914 30.2324
65.1898 915 30.249
65.3074 849 29.1376
65.4249 772 27.7849
65.5425 742 27.2397
65.6601 764 27.6405
65.7777 828 28.775
65.8952 927 30.4467
66.0128 970 31.1448
66.1304 962 31.0161
66.2479 1028 32.0624
66.3655 1068 32.6803
66.483 1069 32.6956
66.6005 1073 32.7567
66.718 1087 32.9697
66.8355 1065 32.6343
66.953 1046 32.3419
67.0705 1022 31.9687
67.1879 963 31.0322
67.3054 930 30.4959
67.4228 903 30.05
67.5402 771 27.7669
67.6576 746 27.313
67.7749 719 26.8142
67.8923 772 27.7849
68.0096 812 28.4956
68.1269 814 28.5307
68.2442 888 29.7993
68.3614 851 29.1719
68.4787 859 29.3087
68.5958 871 29.5127
68.713 874 29.5635
68.8302 764 27.6405
68.9473 691 26.2869
69.0643 714 26.7208
69.1814 642 25.3377
69.2984 703 26.5141
69.4154 757 27.5136
69.5323 835 28.8964
69.6492 904 30.0666
69.7661 931 30.5123
69.8829 959 30.9677
69.9997 997 31.5753
70.1165 999 31.607
70.2332 996 31.5595
70.3499 1028 32.0624
70.4665 1023 31.9844
70.5831 1001 31.6386
70.6996 966 31.0805
70.8161 932 30.5287
70.9326 883 29.7153
71.049 782 27.9643
71.1653 742 27.2397
71.2817 668 25.8457
71.3979 725 26.9258
71.5141 693 26.3249
71.6303 703 26.5141
71.7464 654 25.5734
71.8624 0 1
71.9784 0 1
72.0944 0 1
72.2102 0 1
72.3261 0 1
72.4418 0 1
72.5575 0 1
72.6732 0 1
75.1054 0 1
75.2209 0 1
75.3365 0 1
75.4521 0 1
75.5678 0 1
75.6835 0 1
75.7993 0 1
75.9151 0 1
76.031 0 1
76.147 781 27.9464
76.263 878 29.6311
76.3791 835 28.8964
76.4952 775 27.8388
76.6113 731 27.037
76.7276 740 27.2029
76.8438 706 26.5707
76.9601 773 27.8029
77.0765 785 28.0179
77.1929 841 29
77.3093 851 29.1719
77.4258 929 30.4795
77.5423 921 30.348
77.6589 901 30.0167
77.7755 858 29.2916
77.8921 765 27.6586
78.0088 699 26.4386
78.1256 674 25.9615
78.2423 641 25.318
78.3591 638 25.2587
78.4759 770 27.7489
78.5928 815 28.5482
78.7097 847 29.1033
78.8266 890 29.8329
78.9436 914 30.2324
79.0606 913 30.2159
79.1776 934 30.5614
79.2946 984 31.3688
79.4117 939 30.6431
79.5288 924 30.3974
79.6459 911 30.1828
79.7631 865 29.4109
79.8802 884 29.7321
79.9974 827 28.7576
80.1147 758 27.5318
80.2319 639 25.2784
80.3491 634 25.1794
80.4664 662 25.7294
80.5837 701 26.4764
80.701 737 27.1477
80.8183 781 27.9464
80.9357 754 27.4591
81.053 834 28.8791
81.1704 827 28.7576
81.2877 782 27.9643
81.4051 742 27.2397
81.5225 659 25.671
81.6399 627 25.04
81.7573 610 24.6982
81.8747 526 22.9347
81.9922 632 25.1396
82.1096 646 25.4165
82.227 687 26.2107
82.3444 767 27.6948
82.4619 830 28.8097
82.5793 814 28.5307
82.6967 798 28.2489
82.8142 819 28.6182
82.9316 789 28.0891
83.049 834 28.8791
83.1664 833 28.8617
83.2838 771 27.7669
83.4012 773 27.8029
83.5186 721 26.8514
83.636 677 26.0192
83.7534 628 25.0599
83.8708 569 23.8537
83.9881 563 23.7276
84.1055 597 24.4336
84.2228 617 24.8395
84.3401 649 25.4755
84.4575 676 26
84.5747 684 26.1534
84.692 776 27.8568
84.8093 731 27.037
84.9265 719 26.8142
85.0437 680 26.0768
85.1609 601 24.5153
85.2781 492 22.1811
85.3952 512 22.6274
85.5123 522 22.8473
85.6294 573 23.9374
85.7465 731 27.037
85.8636 739 27.1846
85.9806 828 28.775
86.0976 850 29.1548
86.2145 885 29.7489
86.3315 863 29.3769
86.4484 938 30.6268
86.5652 974 31.209
86.682 875 29.5804
86.7988 898 29.9666
86.9156 875 29.5804
87.0323 848 29.1204
87.149 835 28.8964
87.2657 811 28.4781
87.3823 736 27.1293
87.4988 696 26.3818
87.6154 699 26.4386
87.7318 765 27.6586
87.8483 781 27.9464
87.9647 886 29.7658
88.081 849 29.1376
88.1973 848 29.1204
88.3136 939 30.6431
88.4298 869 29.4788
88.546 809 28.4429
88.6621 737 27.1477
88.7781 711 26.6646
88.8942 0 1
89.0101 0 1
89.126 0 1
89.2419 0 1
89.3577 0 1
89.4734 0 1
89.5891 0 1
89.7047 0 1
89.8203 0 1
89.9358 0 1
92.3269 0 1
92.4424 0 1
92.558 0 1
92.6736 0 1
92.7893 0 1
92.905 0 1
93.0208 0 1
93.1366 0 1
93.2525 0 1
93.3685 0 1
93.4845 0 1
93.6005 906 30.0998
93.7167 910 30.1662
93.8328 835 28.8964
93.949 824 28.7054
94.0653 798 28.2489
94.1816 684 26.1534
94.2979 702 26.4953
94.4143 635 25.1992
94.5307 670 25.8844
94.6472 698 26.4197
94.7637 758 27.5318
94.8803 781 27.9464
94.9969 975 31.225
95.1135 948 30.7896
95.2302 927 30.4467
95.3469 1002 31.6544
95.4637 999 31.607
95.5805 1007 31.7333
95.6973 994 31.5278
95.8142 994 31.5278
95.9311 940 30.6594
96.048 961 31
96.1649 962 31.0161
96.2819 950 30.8221
96.3989 856 29.2575
96.516 874 29.5635
96.633 828 28.775
96.7501 754 27.4591
96.8673 812 28.4956
96.9844 884 29.7321
97.1016 877 29.6142
97.2188 864 29.3939
97.336 928 30.4631
97.4532 917 30.282
97.5704 904 30.0666
97.6877 850 29.1548
97.805 768 27.7128
97.9223 709 26.6271
98.0396 670 25.8844
98.1569 620 24.8998
98.2743 667 25.8263
98.3916 749 27.3679
98.509 829 28.7924
98.6264 927 30.4467
98.7438 910 30.1662
98.8612 963 31.0322
98.9786 974 31.209
99.096 995 31.5436
99.2134 993 31.5119
99.3308 1061 32.573
99.4482 1046 32.3419
99.5656 1121 33.4813
99.6831 991 31.4802
99.8005 944 30.7246
99.9179 915 30.249
100.035 897 29.95
100.153 825 28.7228
100.27 881 29.6816
100.388 816 28.5657
100.505 841 29
100.622 832 28.8444
100.74 908 30.133
100.857 951 30.8383
100.975 948 30.7896
101.092 962 31.0161
101.209 904 30.0666
101.327 838 28.9482
101.444 781 27.9464
101.561 672 25.923
101.679 663 25.7488
101.796 694 26.3439
101.913 715 26.7395
102.03 792 28.1425
102.148 879 29.6479
102.265 920 30.3315
102.382 1124 33.5261
102.499 1083 32.909
102.616 1082 32.8938
102.733 1208 34.7563
102.851 1112 33.3467
102.968 1185 34.4238
103.085 1106 33.2566
103.202 1072 32.7414
103.319 1058 32.5269
103.436 1024 32
103.552 958 30.9516
103.669 922 30.3645
103.786 919 30.315
103.903 875 29.5804
104.02 914 30.2324
104.137 987 31.4166
104.253 1005 31.7017
104.37 1025 32.0156
104.487 1040 32.249
104.603 1041 32.2645
104.72 988 31.4325
104.836 906 30.0998
104.953 815 28.5482
105.069 745 27.2947
105.186 747 27.3313
105.302 766 27.6767
105.418 816 28.5657
105.535 963 31.0322
105.651 1058 32.5269
105.767 1129 33.6006
105.883 1170 34.2053
105.999 1205 34.7131
106.115 0 1
106.231 0 1
106.347 0 1
106.463 0 1
106.579 0 1
106.694 0 1
106.81 0 1
106.926 0 1
107.041 0 1
107.157 0 1
109.576 0 1
109.692 0 1
109.807 0 1
109.923 0 1
110.039 0 1
110.155 0 1
110.27 0 1
110.386 0 1
110.502 0 1
110.618 831 28.8271
110.735 1025 32.0156
110.851 1105 33.2415
110.967 1110 33.3167
111.083 1198 34.6121
111.199 1122 33.4963
111.316 1155 33.9853
111.432 1136 33.7046
111.549 1163 34.1028
111.665 1107 33.2716
111.782 1111 33.3317
111.898 1003 31.6702
112.015 1020 31.9374
112.132 992 31.496
112.248 879 29.6479
112.365 906 30.0998
112.482 882 29.6985
112.599 931 30.5123
112.716 957 30.9354
112.832 969 31.1288
112.949 988 31.4325
113.066 964 31.0483
113.183 960 30.9839
113.3 896 29.9333
113.417 819 28.6182
113.534 853 29.2062
113.652 674 25.9615
113.769 737 27.1477
113.886 695 26.3629
114.003 787 28.0535
114.12 878 29.6311
114.238 945 30.7409
114.355 1039 32.2335
114.472 985 31.3847
114.589 1129 33.6006
114.707 1098 33.1361
114.824 1089 33
114.942 1152 33.9411
115.059 1158 34.0294
115.176 1151 33.9264
115.294 1086 32.9545
115.411 1067 32.665
115.529 1104 33.2265
115.646 972 31.1769
115.764 831 28.8271
115.881 893 29.8831
115.999 921 30.348
116.116 916 30.2655
116.234 1002 31.6544
116.351 1011 31.7962
116.469 976 31.241
116.586 1044 32.311
116.704 1022 31.9687
116.821 959 30.9677
116.939 901 30.0167
117.056 851 29.1719
117.174 810 28.4605
117.291 766 27.6767
117.409 798 28.2489
117.526 792 28.1425
117.644 944 30.7246
117.761 939 30.6431
117.879 1062 32.5883
117.996 1130 33.6155
118.114 1169 34.1906
118.231 1174 34.2637
118.349 1157 34.0147
118.466 1194 34.5543
118.584 1145 33.8378
118.701 1181 34.3657
118.819 1159 34.0441
118.936 1136 33.7046
119.053 1155 33.9853
119.171 1126 33.5559
119.288 1032 32.1248
119.405 961 31
119.523 956 30.9192
119.64 940 30.6594
119.757 948 30.7896
119.875 1020 31.9374
119.992 987 31.4166
120.109 1042 32.28
120.226 1048 32.3728
120.343 985 31.3847
120.46 963 31.0322
120.578 932 30.5287
120.695 833 28.8617
120.812 809 28.4429
120.929 812 28.4956
121.046 776 27.8568
121.163 804 28.3549
121.279 901 30.0167
121.396 991 31.4802
121.513 997 31.5753
121.63 1116 33.4066
121.747 1107 33.2716
121.863 1161 34.0735
121.98 1139 33.7491
122.097 1152 33.9411
122.213 1188 34.4674
122.33 1153 33.9559
122.446 1123 33.5112
122.563 1116 33.4066
122.679 1122 33.4963
122.795 1034 32.1559
122.912 1061 32.573
123.028 981 31.3209
123.144 908 30.133
123.26 942 30.692
123.377 0 1
123.493 0 1
123.609 0 1
123.725 0 1
123.84 0 1
123.956 0 1
124.072 0 1
124.188 0 1
124.303 0 1
124.419 0 1
126.852 0 1
126.968 0 1
127.083 0 1
127.199 0 1
127.315 0 1
127.431 0 1
127.547 0 1
127.663 0 1
127.779 0 1
127.895 0 1
128.011 0 1
128.127 0 1
128.243 0 1
128.359 1080 32.8634
128.476 1041 32.2645
128.592 1092 33.0454
128.708 1021 31.9531
128.825 1121 33.4813
128.941 1095 33.0908
129.058 1185 34.4238
129.174 1064 32.619
129.291 1070 32.7109
129.408 1068 32.6803
129.524 994 31.5278
129.641 954 30.8869
129.758 927 30.4467
129.875 862 29.3598
129.992 908 30.133
130.108 798 28.2489
130.225 818 28.6007
130.342 1014 31.8434
130.459 1034 32.1559
130.576 1113 33.3617
130.693 1086 32.9545
130.81 1128 33.5857
130.928 1135 33.6898
131.045 1150 33.9116
131.162 1165 34.1321
131.279 1128 33.5857
131.396 1136 33.7046
131.513 1176 34.2929
131.631 1146 33.8526
131.748 1079 32.8481
131.865 1091 33.0303
131.983 1066 32.6497
132.1 1125 33.541
132.217 1091 33.0303
132.335 1156 34
132.452 1146 33.8526
132.57 1166 34.1467
132.687 1118 33.4365
132.804 1160 34.0588
132.922 1051 32.4191
133.039 1065 32.6343
133.157 964 31.0483
133.274 902 30.0333
133.392 867 29.4449
133.509 828 28.775
133.627 858 29.2916
133.744 903 30.05
133.862 939 30.6431
133.979 1035 32.1714
134.097 1100 33.1662
134.214 1068 32.6803
134.332 1161 34.0735
134.449 1168 34.176
134.567 1155 33.9853
134.684 1225 35
134.802 1252 35.3836
134.919 1255 35.426
135.037 1167 34.1614
135.154 1176 34.2929
135.272 1175 34.2783
135.389 1114 33.3766
135.507 1018 31.9061
135.624 1130 33.6155
135.742 1112 33.3467
135.859 1162 34.0881
135.977 1115 33.3916
136.094 1111 33.3317
136.211 1172 34.2345
136.329 1172 34.2345
136.446 1137 33.7194
136.564 1065 32.6343
136.681 1065 32.6343
136.798 1020 31.9374
136.915 917 30.282
137.033 853 29.2062
137.15 855 29.2404
137.267 849 29.1376
137.384 893 29.8831
137.502 971 31.1609
137.619 1048 32.3728
137.736 1059 32.5423
137.853 1084 32.9242
137.97 1106 33.2566
138.087 1158 34.0294
138.204 1169 34.1906
138.321 1208 34.7563
138.438 1166 34.1467
138.555 1188 34.4674
138.672 1197 34.5977
138.788 1178 34.322
138.905 1157 34.0147
139.022 1148 33.8821
139.139 1100 33.1662
139.255 1118 33.4365
139.372 1167 34.1614
139.488 1087 32.9697
139.605 1203 34.6843
139.721 1136 33.7046
139.838 1128 33.5857
139.954 1134 33.6749
140.071 1155 33.9853
140.187 1086 32.9545
140.303 1044 32.311
140.419 980 31.305
140.535 993 31.5119
140.652 859 29.3087
140.768 0 1
140.884 0 1
141 0 1
141.115 0 1
141.231 0 1
141.347 0 1
141.463 0 1
141.578 0 1
141.694 0 1
144.104 0 1
144.219 0 1
144.335 0 1
144.45 0 1
144.566 0 1
144.682 0 1
144.798 0 1
144.914 0 1
145.03 0 1
145.146 759 27.55
145.262 881 29.6816
145.378 843 29.0345
145.494 800 28.2843
145.61 720 26.8328
145.726 681 26.096
145.842 690 26.2679
145.959 713 26.7021
146.075 705 26.5518
146.192 681 26.096
146.308 719 26.8142
146.425 732 27.0555
146.541 842 29.0172
146.658 828 28.775
146.774 849 29.1376
146.891 863 29.3769
147.008 886 29.7658
147.125 906 30.0998
147.241 904 30.0666
147.358 948 30.7896
147.475 918 30.2985
147.592 875 29.5804
147.709 922 30.3645
147.826 911 30.1828
147.943 841 29
148.06 802 28.3196
148.177 870 29.4958
148.294 819 28.6182
148.411 905 30.0832
148.528 888 29.7993
148.645 875 29.5804
148.762 935 30.5778
148.88 891 29.8496
148.997 868 29.4618
149.114 913 30.2159
149.231 866 29.4279
149.349 795 28.1957
149.466 836 28.9137
149.583 752 27.4226
149.701 685 26.1725
149.818 684 26.1534
149.935 736 27.1293
150.053 725 26.9258
150.17 767 27.6948
150.287 845 29.0689
150.405 903 30.05
150.522 814 28.5307
150.64 919 30.315
150.757 864 29.3939
150.875 909 30.1496
150.992 927 30.4467
151.11 966 31.0805
151.227 934 30.5614
151.344 984 31.3688
151.462 897 29.95
151.579 888 29.7993
151.697 952 30.8545
151.814 905 30.0832
151.932 930 30.4959
152.049 914 30.2324
152.167 944 30.7246
152.284 991 31.4802
152.402 966 31.0805
152.519 969 31.1288
152.636 934 30.5614
152.754 847 29.1033
152.871 937 30.6105
152.989 866 29.4279
153.106 827 28.7576
153.223 767 27.6948
153.341 806 28.3901
153.458 731 27.037
153.575 811 28.4781
153.693 836 28.9137
153.81 844 29.0517
153.927 882 29.6985
154.044 910 30.1662
154.162 938 30.6268
154.279 1018 31.9061
154.396 988 31.4325
154.513 963 31.0322
154.63 1040 32.249
154.747 1063 32.6037
154.864 1059 32.5423
154.981 1073 32.7567
155.098 1052 32.4345
155.215 1082 32.8938
155.332 1035 32.1714
155.449 1066 32.6497
155.566 1055 32.4808
155.683 1020 31.9374
155.8 972 31.1769
155.917 1028 32.0624
156.033 1026 32.0312
156.15 0 1
156.267 0 1
156.383 0 1
156.5 0 1
156.617 0 1
156.733 0 1
156.85 0 1
156.966 0 1
157.082 0 1
157.199 0 1
157.315 0 1
157.431 0 1
157.547 0 1
157.664 0 1
157.78 0 1
157.896 0 1
158.012 0 1
158.128 0 1
158.244 0 1
158.359 0 1
158.475 0 1
158.591 0 1
158.706 0 1
