
6.15755 0 1
6.2731 0 1
6.3887 0 1
6.50437 0 1
6.62009 0 1
6.73587 0 1
6.8517 0 1
6.96759 0 1
7.08353 0 1
7.19952 0 1
7.31557 0 1
7.43166 0 1
7.54781 0 1
7.664 0 1
7.78024 0 1
7.89653 0 1
8.01286 0 1
8.12924 0 1
8.24567 0 1
8.36213 0 1
8.47864 0 1
8.59519 0 1
8.71178 0 1
8.82841 0 1
8.94508 0 1
9.06179 0 1
9.17853 0 1
9.29531 0 1
9.41212 0 1
9.52897 0 1
9.64584 0 1
9.76276 0 1
9.8797 0 1
9.99667 0 1
10.1137 0 1
10.2307 0 1
10.3478 0 1
10.4648 0 1
10.5819 0 1
10.6991 0 1
10.8162 0 1
10.9334 0 1
11.0506 0 1
11.1678 0 1
11.285 0 1
11.4023 0 1
11.5196 0 1
11.6369 0 1
11.7542 0 1
11.8715 0 1
11.9888 0 1
12.1062 0 1
12.2235 0 1
12.3409 0 1
12.4582 0 1
12.5756 0 1
12.693 0 1
12.8104 0 1
12.9278 0 1
13.0452 0 1
13.1626 0 1
13.28 0 1
13.3974 0 1
13.5149 0 1
13.6323 0 1
13.7497 0 1
13.8671 0 1
13.9845 0 1
14.1019 0 1
14.2193 0 1
14.3367 0 1
14.4541 0 1
14.5714 0 1
14.6888 0 1
14.8062 0 1
14.9235 0 1
15.0408 0 0
15.1581 0 0
15.2755 0 0
15.3927 0 0
15.51 0 0
15.6273 0 0
15.7445 0 0
15.8617 0 0
15.9789 0 0
16.0961 0 0
16.2132 0 0
16.3304 0 0
16.4475 0 0
16.5646 0 0
16.6816 0 0
16.7986 0 0
16.9156 0 0
17.0326 0 0
17.1496 0 0
17.2665 0 0
17.3833 0 0
17.5002 0 0
17.617 0 0
17.7338 0 0
17.8505 0 0
17.9672 0 0
18.0839 0 0
18.2005 0 0
18.3171 0 0
18.4337 0 0
18.5502 0 0
18.6666 0 0
18.7831 0 0
18.8994 0 0
19.0158 0 0
19.1321 0 0
19.2483 0 0
19.3645 0 0
19.4806 0 0
19.5967 0 0
19.7128 0 0
19.8288 0 0
19.9447 0 0
20.0606 0 1
20.1764 0 1
20.2922 0 1
20.4079 0 1
20.5236 0 1
20.6392 0 1
20.7548 0 1
20.8702 0 1
23.3078 0 1
23.4233 0 1
23.539 0 1
23.6547 0 1
23.7704 0 1
23.8862 0 1
24.0021 0 1
24.118 0 1
24.234 0 1
24.35 0 1
24.4661 3752 61.2536
24.5822 4347 65.9318
24.6984 4683 68.4324
24.8146 5548 74.4849
24.9309 6703 81.8719
25.0472 7710 87.8066
25.1636 8281 91
25.28 8463 91.9946
25.3965 8204 90.5759
25.513 8156 90.3106
25.6296 7817 88.4138
25.7462 7690 87.6926
25.8628 7402 86.0349
25.9795 7225 85
26.0962 6967 83.4686
26.213 6830 82.6438
26.3298 6642 81.4985
26.4466 6549 80.9259
26.5635 6227 78.9113
26.6804 6159 78.4793
26.7973 5698 75.4851
26.9143 5662 75.2463
27.0313 5308 72.856
27.1483 5346 73.1163
27.2653 5167 71.8818
27.3824 5030 70.9225
27.4996 4754 68.9493
27.6167 4517 67.2086
27.7339 4504 67.1118
27.8511 5037 70.9718
27.9683 5347 73.1232
28.0855 5488 74.081
28.2028 5748 75.8156
28.3201 5830 76.3544
28.4374 5979 77.324
28.5547 6014 77.55
28.6721 5983 77.3499
28.7894 6148 78.4092
28.9068 6150 78.4219
29.0242 6311 79.4418
29.1416 6299 79.3662
29.259 6204 78.7655
29.3764 6327 79.5424
29.4939 6192 78.6893
29.6113 5922 76.9545
29.7288 5615 74.9333
29.8463 5737 75.743
29.9638 5489 74.0878
30.0812 5542 74.4446
30.1987 5400 73.4847
30.3162 5567 74.6123
30.4337 5504 74.1889
30.5512 5510 74.2294
30.6687 5573 74.6525
30.7862 5461 73.8986
30.9037 5287 72.7118
31.0212 4932 70.2282
31.1387 5065 71.1688
31.2562 5219 72.2426
31.3737 5424 73.6478
31.4912 5892 76.7594
31.6087 5982 77.3434
31.7262 6122 78.2432
31.8436 5850 76.4853
31.9611 5785 76.0592
32.0785 5823 76.3086
32.1959 5814 76.2496
32.3134 5826 76.3282
32.4308 5619 74.96
32.5482 5385 73.3826
32.6655 5290 72.7324
32.7829 5176 71.9444
32.9002 5013 70.8025
33.0176 4930 70.214
33.1349 4714 68.6586
33.2522 4634 68.0735
33.3694 4578 67.6609
33.4867 4631 68.0515
33.6039 4694 68.5128
33.7211 4875 69.8212
33.8383 4948 70.342
33.9554 5112 71.4983
34.0725 5213 72.2011
34.1896 5128 71.6101
34.3067 5370 73.2803
34.4237 5288 72.7186
34.5407 5184 72
34.6577 5191 72.0486
34.7746 5031 70.9295
34.8915 5138 71.6798
35.0084 5388 73.403
35.1252 5466 73.9324
35.242 5599 74.8265
35.3587 5640 75.0999
35.4755 5305 72.8354
35.5921 5196 72.0833
35.7088 5023 70.8731
35.8254 4846 69.6132
35.9419 4670 68.3374
36.0584 4463 66.8057
36.1749 4362 66.0454
36.2913 4219 64.9538
36.4077 3983 63.111
36.524 3714 60.9426
36.6403 3302 57.463
36.7565 2657 51.5461
36.8727 2548 50.4777
36.9889 2480 49.7996
37.1049 2286 47.8121
37.221 0 1
37.3369 0 1
37.4529 0 1
37.5687 0 1
37.6845 0 1
37.8003 0 1
37.916 0 1
38.0316 0 1
38.1472 0 1
40.5851 0 1
40.7008 0 1
40.8164 0 1
40.9322 0 1
41.048 0 1
41.1639 0 1
41.2798 0 1
41.3958 0 1
41.5118 0 1
41.6279 0 1
41.744 2144 46.3033
41.8602 2737 52.3163
41.9765 3121 55.8659
42.0928 3367 58.0259
42.2091 3519 59.3212
42.3255 3683 60.6877
42.4419 3688 60.7289
42.5584 3771 61.4085
42.675 3960 62.9285
42.7915 4160 64.4981
42.9081 4411 66.4154
43.0248 4619 67.9632
43.1415 4721 68.7095
43.2582 4759 68.9855
43.375 4518 67.2161
43.4918 4343 65.9014
43.6087 4358 66.0151
43.7256 4425 66.5207
43.8425 4556 67.4981
43.9595 4581 67.6831
44.0765 4594 67.7791
44.1935 4313 65.6734
44.3106 4382 66.1967
44.4277 4315 65.6887
44.5448 4413 66.4304
44.6619 4472 66.873
44.7791 4468 66.8431
44.8963 4600 67.8233
45.0136 4754 68.9493
45.1308 4752 68.9348
45.2481 4859 69.7065
45.3654 5037 70.9718
45.4827 5207 72.1595
45.6001 5347 73.1232
45.7174 5663 75.2529
45.8348 6038 77.7046
45.9522 6432 80.1998
46.0697 6673 81.6884
46.1871 6962 83.4386
46.3046 7224 84.9941
46.422 7180 84.7349
46.5395 7492 86.5563
46.657 7512 86.6718
46.7745 7240 85.0882
46.892 6536 80.8455
47.0096 6214 78.8289
47.1271 6498 80.6102
47.2446 6643 81.5046
47.3622 6811 82.5288
47.4797 7017 83.7675
47.5973 6938 83.2947
47.7149 6853 82.7828
47.8324 7083 84.1606
47.95 7067 84.0655
48.0675 6960 83.4266
48.1851 7131 84.4452
48.3027 7300 85.44
48.4202 7216 84.947
48.5378 6919 83.1805
48.6554 6693 81.8108
48.7729 6819 82.5772
48.8904 6837 82.6862
49.008 6667 81.6517
49.1255 6512 80.697
49.243 6484 80.5233
49.3605 6708 81.9024
49.478 6923 83.2046
49.5955 6949 83.3607
49.713 6999 83.66
49.8304 7067 84.0655
49.9479 6877 82.9277
50.0653 6576 81.0925
50.1827 6479 80.4922
50.3001 5578 74.686
50.4175 4588 67.7348
50.5348 4129 64.2573
50.6521 4321 65.7343
50.7694 4622 67.9853
50.8867 4861 69.7209
51.004 4739 68.8404
51.1212 4675 68.374
51.2384 4471 66.8655
51.3556 4277 65.3988
51.4727 4056 63.6867
51.5899 4153 64.4438
51.707 4061 63.726
51.824 3990 63.1664
51.9411 4021 63.4114
52.0581 4066 63.7652
52.175 3998 63.2297
52.2919 3885 62.3298
52.4088 3861 62.1369
52.5257 3775 61.441
52.6425 3639 60.3241
52.7593 3583 59.8582
52.876 3394 58.258
52.9927 3403 58.3352
53.1094 3402 58.3267
53.226 3503 59.1861
53.3426 3456 58.7878
53.4591 3216 56.7098
53.5756 2851 53.3948
53.692 2516 50.1597
53.8084 2193 46.8295
53.9248 1931 43.9431
54.0411 1683 41.0244
54.1573 1516 38.9358
54.2735 0 1
54.3896 0 1
54.5057 0 1
54.6217 0 1
54.7377 0 1
54.8537 0 1
54.9695 0 1
55.0853 0 1
55.2011 0 1
55.3168 0 1
55.4324 0 1
57.824 0 1
57.9396 0 1
58.0553 0 1
58.1711 0 1
58.2869 0 1
58.4028 0 1
58.5187 0 1
58.6347 0 1
58.7508 0 1
58.8669 0 1
58.983 3028 55.0273
59.0992 2946 54.2771
59.2155 3045 55.1815
59.3318 3302 57.463
59.4482 3587 59.8916
59.5646 3993 63.1902
59.681 4125 64.2262
59.7975 4228 65.0231
59.9141 4277 65.3988
60.0306 4126 64.2339
60.1473 4237 65.0922
60.2639 4170 64.5755
60.3807 4168 64.56
60.4974 4100 64.0312
60.6142 4241 65.123
60.731 4217 64.9384
60.8479 4342 65.8939
60.9648 4548 67.4389
61.0818 4579 67.6683
61.1987 4511 67.164
61.3158 4243 65.1383
61.4328 4154 64.4515
61.5499 3947 62.8252
61.667 3983 63.111
61.7841 4032 63.498
61.9013 4169 64.5678
62.0185 4156 64.467
62.1357 4221 64.9692
62.253 4143 64.3661
62.3702 4136 64.3117
62.4875 3986 63.1348
62.6049 3641 60.3407
62.7222 3630 60.2495
62.8396 3819 61.7981
62.9569 4141 64.3506
63.0743 4268 65.3299
63.1918 4379 66.174
63.3092 4259 65.261
63.4267 4229 65.0308
63.5441 4321 65.7343
63.6616 4235 65.0769
63.7791 4163 64.5213
63.8966 4215 64.923
64.0142 4102 64.0469
64.1317 4168 64.56
64.2492 4200 64.8074
64.3668 4326 65.7723
64.4843 4170 64.5755
64.6019 4109 64.1015
64.7195 4174 64.6065
64.837 4240 65.1153
64.9546 4157 64.4748
65.0722 4468 66.8431
65.1898 4673 68.3593
65.3074 4820 69.4262
65.4249 5354 73.171
65.5425 5944 77.0973
65.6601 6766 82.2557
65.7777 7393 85.9826
65.8952 8078 89.8777
66.0128 8144 90.2441
66.1304 7757 88.0738
66.2479 7685 87.6641
66.3655 8950 94.6044
66.483 10573 102.825
66.6005 12291 110.865
66.718 13396 115.741
66.8355 14139 118.908
66.953 14330 119.708
67.0705 15011 122.519
67.1879 15523 124.591
67.3054 15394 124.073
67.4228 15577 124.808
67.5402 16106 126.909
67.6576 16412 128.109
67.7749 16247 127.464
67.8923 16633 128.969
68.0096 16417 128.129
68.1269 16657 129.062
68.2442 16756 129.445
68.3614 16867 129.873
68.4787 16812 129.661
68.5958 16705 129.248
68.713 17179 131.069
68.8302 17280 131.453
68.9473 17224 131.24
69.0643 17472 132.182
69.1814 17749 133.225
69.2984 18015 134.22
69.4154 18136 134.67
69.5323 18065 134.406
69.6492 17165 131.015
69.7661 15161 123.13
69.8829 13405 115.78
69.9997 14284 119.516
70.1165 15817 125.766
70.2332 16281 127.597
70.3499 15282 123.62
70.4665 13375 115.65
70.5831 11955 109.339
70.6996 11136 105.527
70.8161 10475 102.347
70.9326 10159 100.792
71.049 9617 98.0663
71.1653 9215 95.9948
71.2817 8633 92.9139
71.3979 8265 90.912
71.5141 7649 87.4586
71.6303 7340 85.6738
71.7464 6833 82.662
71.8624 0 1
71.9784 0 1
72.0944 0 1
72.2102 0 1
72.3261 0 1
72.4418 0 1
72.5575 0 1
72.6732 0 1
75.1054 0 1
75.2209 0 1
75.3365 0 1
75.4521 0 1
75.5678 0 1
75.6835 0 1
75.7993 0 1
75.9151 0 1
76.031 0 1
76.147 19212 138.607
76.263 20680 143.805
76.3791 20591 143.496
76.4952 19835 140.837
76.6113 19099 138.199
76.7276 18437 135.783
76.8438 18174 134.811
76.9601 17253 131.351
77.0765 16441 128.222
77.1929 15635 125.04
77.3093 15169 123.162
77.4258 14690 121.202
77.5423 14176 119.063
77.6589 13630 116.748
77.7755 13558 116.439
77.8921 12990 113.974
78.0088 12858 113.393
78.1256 12969 113.882
78.2423 12817 113.212
78.3591 12528 111.929
78.4759 12423 111.459
78.5928 11869 108.945
78.7097 10346 101.715
78.8266 8341 91.3291
78.9436 6892 83.0181
79.0606 7142 84.5104
79.1776 9020 94.9737
79.2946 10701 103.446
79.4117 11559 107.513
79.5288 11728 108.296
79.6459 11787 108.568
79.7631 11844 108.83
79.8802 11749 108.393
79.9974 11799 108.623
80.1147 11436 106.939
80.2319 11349 106.532
80.3491 11309 106.344
80.4664 11047 105.105
80.5837 11003 104.895
80.701 10666 103.276
80.8183 10497 102.455
80.9357 10295 101.464
81.053 9987 99.935
81.1704 9967 99.8349
81.2877 9590 97.9285
81.4051 9514 97.5397
81.5225 9332 96.6023
81.6399 9066 95.2155
81.7573 9125 95.5249
81.8747 9057 95.1683
81.9922 9384 96.871
82.1096 9295 96.4106
82.227 9173 95.7758
82.3444 8154 90.2995
82.4619 6720 81.9756
82.5793 5665 75.2662
82.6967 5669 75.2928
82.8142 6902 83.0783
82.9316 8203 90.5704
83.049 8945 94.578
83.1664 8995 94.842
83.2838 9093 95.3572
83.4012 9106 95.4254
83.5186 9117 95.483
83.636 8980 94.7629
83.7534 8913 94.4087
83.8708 8837 94.0053
83.9881 8716 93.3595
84.1055 8778 93.691
84.2228 8569 92.5689
84.3401 8277 90.978
84.4575 7999 89.4371
84.5747 8002 89.4539
84.692 7562 86.9598
84.8093 7269 85.2584
84.9265 6889 83
85.0437 6391 79.9437
85.1609 6157 78.4666
85.2781 6028 77.6402
85.3952 5720 75.6307
85.5123 5762 75.9078
85.6294 5491 74.1013
85.7465 5381 73.3553
85.8636 5056 71.1056
85.9806 4523 67.2533
86.0976 3923 62.6339
86.2145 3885 62.3298
86.3315 4173 64.5988
86.4484 5201 72.118
86.5652 5672 75.3127
86.682 5949 77.1298
86.7988 6168 78.5366
86.9156 6068 77.8974
87.0323 6094 78.0641
87.149 6036 77.6917
87.2657 6204 78.7655
87.3823 6243 79.0127
87.4988 6019 77.5822
87.6154 5633 75.0533
87.7318 5456 73.8647
87.8483 4921 70.1498
87.9647 4927 70.1926
88.081 4626 68.0147
88.1973 4601 67.8307
88.3136 4742 68.8622
88.4298 4752 68.9348
88.546 4621 67.9779
88.6621 4629 68.0368
88.7781 4772 69.0797
88.8942 0 1
89.0101 0 1
89.126 0 1
89.2419 0 1
89.3577 0 1
89.4734 0 1
89.5891 0 1
89.7047 0 1
89.8203 0 1
89.9358 0 1
92.3269 0 1
92.4424 0 1
92.558 0 1
92.6736 0 1
92.7893 0 1
92.905 0 1
93.0208 0 1
93.1366 0 1
93.2525 0 1
93.3685 0 1
93.4845 0 1
93.6005 9977 99.8849
93.7167 10315 101.563
93.8328 10993 104.848
93.949 11237 106.005
94.0653 11423 106.878
94.1816 11846 108.839
94.2979 12043 109.741
94.4143 12328 111.032
94.5307 12512 111.857
94.6472 12474 111.687
94.7637 12289 110.856
94.8803 11465 107.075
94.9969 10708 103.479
95.1135 9614 98.051
95.2302 10094 100.469
95.3469 11185 105.759
95.4637 12446 111.562
95.5805 12864 113.42
95.6973 13237 115.052
95.8142 13245 115.087
95.9311 13459 116.013
96.048 13175 114.782
96.1649 13111 114.503
96.2819 12401 111.36
96.3989 12133 110.15
96.516 11925 109.202
96.633 12107 110.032
96.7501 12233 110.603
96.8673 12567 112.103
96.9844 12320 110.995
97.1016 12394 111.328
97.2188 12730 112.827
97.336 13355 115.564
97.4532 13923 117.996
97.5704 14293 119.553
97.6877 14737 121.396
97.805 15191 123.252
97.9223 15919 126.171
98.0396 16102 126.894
98.1569 16175 127.181
98.2743 15806 125.722
98.3916 15096 122.866
98.509 13175 114.782
98.6264 12066 109.845
98.7438 12317 110.982
98.8612 13678 116.953
98.9786 15431 124.222
99.096 16258 127.507
99.2134 16458 128.289
99.3308 16768 129.491
99.4482 16447 128.246
99.5656 16615 128.899
99.6831 16682 129.159
99.8005 16165 127.142
99.9179 15960 126.333
100.035 15508 124.531
100.153 14999 122.47
100.27 15173 123.179
100.388 15404 124.113
100.505 15186 123.231
100.622 15508 124.531
100.74 15245 123.471
100.857 15294 123.669
100.975 15792 125.666
101.092 16682 129.159
101.209 16852 129.815
101.327 16988 130.338
101.444 17139 130.916
101.561 17623 132.752
101.679 17422 131.992
101.796 17407 131.936
101.913 17156 130.981
102.03 15902 126.103
102.148 13964 118.169
102.265 12185 110.386
102.382 13801 117.478
102.499 14981 122.397
102.616 16882 129.931
102.733 17521 132.367
102.851 17642 132.823
102.968 17385 131.852
103.085 17943 133.951
103.202 17890 133.754
103.319 17820 133.492
103.436 18151 134.726
103.552 18109 134.57
103.669 18125 134.629
103.786 17909 133.825
103.903 18044 134.328
104.02 18420 135.72
104.137 18542 136.169
104.253 18817 137.175
104.37 17728 133.147
104.487 17588 132.62
104.603 17219 131.221
104.72 16284 127.609
104.836 15442 124.266
104.953 14222 119.256
105.069 12532 111.946
105.186 11420 106.864
105.302 10931 104.551
105.418 10581 102.864
105.535 9867 99.3328
105.651 9080 95.289
105.767 7913 88.955
105.883 6926 83.2226
105.999 6328 79.5487
106.115 0 1
106.231 0 1
106.347 0 1
106.463 0 1
106.579 0 1
106.694 0 1
106.81 0 1
106.926 0 1
107.041 0 1
107.157 0 1
109.576 0 1
109.692 0 1
109.807 0 1
109.923 0 1
110.039 0 1
110.155 0 1
110.27 0 1
110.386 0 1
110.502 0 1
110.618 24348 156.038
110.735 25795 160.608
110.851 24989 158.079
110.967 24438 156.327
111.083 24166 155.454
111.199 25232 158.846
111.316 26235 161.972
111.432 27313 165.266
111.549 27777 166.664
111.665 27775 166.658
111.782 27896 167.021
111.898 27179 164.861
112.015 26381 162.422
112.132 26156 161.728
112.248 25964 161.133
112.365 26412 162.518
112.482 25952 161.096
112.599 27846 166.871
112.716 28879 169.938
112.832 29958 173.084
112.949 31926 178.678
113.066 32932 181.472
113.183 32514 180.316
113.3 32409 180.025
113.417 32445 180.125
113.534 32572 180.477
113.652 32423 180.064
113.769 32311 179.753
113.886 31926 178.678
114.003 31757 178.205
114.12 32221 179.502
114.238 32310 179.75
114.355 31419 177.254
114.472 29871 172.832
114.589 29601 172.049
114.707 29690 172.308
114.824 31694 178.028
114.942 33134 182.027
115.059 33777 183.785
115.176 34275 185.135
115.294 34312 185.235
115.411 33771 183.769
115.529 33996 184.38
115.646 32926 181.455
115.764 32246 179.572
115.881 31384 177.155
115.999 30994 176.051
116.116 31422 177.263
116.234 32781 181.055
116.351 33970 184.31
116.469 34998 187.078
116.586 36194 190.247
116.704 37138 192.712
116.821 37175 192.808
116.939 36372 190.714
117.056 34903 186.823
117.174 33744 183.695
117.291 32585 180.513
117.409 32937 181.486
117.526 33269 182.398
117.644 34046 184.516
117.761 34515 185.782
117.879 33690 183.548
117.996 31483 177.434
118.114 30218 173.833
118.231 30433 174.451
118.349 30960 175.955
118.466 32290 179.694
118.584 32745 180.956
118.701 32208 179.466
118.819 31692 178.022
118.936 30609 174.954
119.053 29712 172.372
119.171 28483 168.769
119.288 27290 165.197
119.405 26629 163.184
119.523 26195 161.849
119.64 25987 161.205
119.757 26850 163.86
119.875 27885 166.988
119.992 29650 172.192
120.109 30842 175.619
120.226 31467 177.389
120.343 31385 177.158
120.46 30647 175.063
120.578 29078 170.523
120.695 28085 167.586
120.812 26763 163.594
120.929 25836 160.736
121.046 25657 160.178
121.163 25880 160.873
121.279 25554 159.856
121.396 25991 161.217
121.513 25397 159.364
121.63 23348 152.801
121.747 22047 148.482
121.863 19776 140.627
121.98 18276 135.189
122.097 17730 133.154
122.213 17293 131.503
122.33 17193 131.122
122.446 16392 128.031
122.563 15703 125.312
122.679 14857 121.889
122.795 13902 117.907
122.912 13028 114.14
123.028 12174 110.336
123.144 11141 105.551
123.26 10528 102.606
123.377 0 1
123.493 0 1
123.609 0 1
123.725 0 1
123.84 0 1
123.956 0 1
124.072 0 1
124.188 0 1
124.303 0 1
124.419 0 1
126.852 0 1
126.968 0 1
127.083 0 1
127.199 0 1
127.315 0 1
127.431 0 1
127.547 0 1
127.663 0 1
127.779 0 1
127.895 0 1
128.011 0 1
128.127 0 1
128.243 0 1
128.359 16792 129.584
128.476 16799 129.611
128.592 16565 128.705
128.708 16554 128.662
128.825 16802 129.623
128.941 17323 131.617
129.058 17577 132.578
129.174 18127 134.637
129.291 19282 138.86
129.408 20190 142.092
129.524 21751 147.482
129.641 23183 152.26
129.758 24134 155.351
129.875 24547 156.675
129.992 24997 158.104
130.108 24514 156.569
130.225 24236 155.679
130.342 23479 153.229
130.459 22414 149.713
130.576 22065 148.543
130.693 20456 143.024
130.81 19541 139.789
130.928 19432 139.399
131.045 19665 140.232
131.162 20363 142.699
131.279 20835 144.343
131.396 20838 144.354
131.513 20995 144.897
131.631 20899 144.565
131.748 20812 144.264
131.865 20460 143.038
131.983 20566 143.409
132.1 20720 143.944
132.217 21019 144.979
132.335 21135 145.379
132.452 21238 145.733
132.57 21422 146.363
132.687 20286 142.429
132.804 21657 147.163
132.922 21157 145.454
133.039 20858 144.423
133.157 20981 144.848
133.274 21364 146.164
133.392 21383 146.229
133.509 21880 147.919
133.627 21904 148
133.744 22569 150.23
133.862 22415 149.716
133.979 22647 150.489
134.097 22534 150.113
134.214 22320 149.399
134.332 21753 147.489
134.449 21987 148.28
134.567 22249 149.161
134.684 23035 151.773
134.802 23843 154.412
134.919 24190 155.531
135.037 24141 155.374
135.154 23976 154.842
135.272 23430 153.069
135.389 22991 151.628
135.507 22721 150.735
135.624 22688 150.625
135.742 22056 148.513
135.859 21753 147.489
135.977 21354 146.13
136.094 21069 145.152
136.211 21001 144.917
136.329 20679 143.802
136.446 20876 144.485
136.564 20749 144.045
136.681 20680 143.805
136.798 21267 145.832
136.915 20786 144.174
137.033 21170 145.499
137.15 21345 146.099
137.267 21282 145.884
137.384 20908 144.596
137.502 20689 143.837
137.619 20162 141.993
137.736 19552 139.828
137.853 18624 136.47
137.97 18257 135.118
138.087 17406 131.932
138.204 17717 133.105
138.321 18381 135.577
138.438 19075 138.112
138.555 19097 138.192
138.672 19298 138.917
138.788 19270 138.816
138.905 19276 138.838
139.022 18779 137.036
139.139 17833 133.54
139.255 17405 131.928
139.372 16315 127.73
139.488 15408 124.129
139.605 14723 121.338
139.721 14327 119.695
139.838 13763 117.316
139.954 13284 115.256
140.071 12891 113.539
140.187 12863 113.415
140.303 12879 113.486
140.419 13116 114.525
140.535 13764 117.32
140.652 14045 118.512
140.768 0 1
140.884 0 1
141 0 1
141.115 0 1
141.231 0 1
141.347 0 1
141.463 0 1
141.578 0 1
141.694 0 1
144.104 0 1
144.219 0 1
144.335 0 1
144.45 0 1
144.566 0 1
144.682 0 1
144.798 0 1
144.914 0 1
145.03 0 1
145.146 23593 153.6
145.262 24352 156.051
145.378 24664 157.048
145.494 24558 156.71
145.61 24790 157.448
145.726 25242 158.877
145.842 25548 159.837
145.959 25835 160.733
146.075 25610 160.031
146.192 25523 159.759
146.308 25109 158.458
146.425 24727 157.248
146.541 23582 153.564
146.658 21551 146.803
146.774 19656 140.2
146.891 18967 137.721
147.008 19726 140.449
147.125 22842 151.136
147.241 24723 157.235
147.358 25363 159.258
147.475 26150 161.71
147.592 26585 163.049
147.709 26919 164.07
147.826 27526 165.91
147.943 27212 164.961
148.06 27804 166.745
148.177 27423 165.599
148.294 27591 166.105
148.411 27460 165.711
148.528 27682 166.379
148.645 27493 165.81
148.762 27511 165.864
148.88 27568 166.036
148.997 27247 165.067
149.114 28948 170.141
149.231 27637 166.244
149.349 27904 167.045
149.466 27605 166.148
149.583 27685 166.388
149.701 27770 166.643
149.818 27834 166.835
149.935 27766 166.631
150.053 27396 165.517
150.17 26736 163.511
150.287 25293 159.038
150.405 23131 152.089
150.522 21182 145.54
150.64 21419 146.352
150.757 22736 150.785
150.875 24258 155.75
150.992 24841 157.61
151.11 23850 154.434
151.227 23550 153.46
151.344 22816 151.05
151.462 22550 150.167
151.579 23086 151.941
151.697 23304 152.656
151.814 24140 155.371
151.932 24266 155.775
152.049 24349 156.042
152.167 24827 157.566
152.284 24826 157.563
152.402 24986 158.07
152.519 24782 157.423
152.636 24926 157.88
152.754 25005 158.13
152.871 25413 159.415
152.989 25189 158.71
153.106 25545 159.828
153.223 25158 158.613
153.341 25930 161.028
153.458 26269 162.077
153.575 26659 163.276
153.693 26515 162.834
153.81 26623 163.166
153.927 25079 158.364
154.044 23070 151.888
154.162 21750 147.479
154.279 22086 148.614
154.396 23664 153.831
154.513 25260 158.934
154.63 25566 159.894
154.747 25085 158.382
154.864 24790 157.448
154.981 24259 155.753
155.098 23239 152.443
155.215 22797 150.987
155.332 21383 146.229
155.449 20589 143.489
155.566 19487 139.596
155.683 18987 137.793
155.8 18020 134.239
155.917 17112 130.813
156.033 16324 127.765
156.15 0 1
156.267 0 1
156.383 0 1
156.5 0 1
156.617 0 1
156.733 0 1
156.85 0 1
156.966 0 1
157.082 0 1
157.199 0 1
157.315 0 1
157.431 0 1
157.547 0 1
157.664 0 1
157.78 0 1
157.896 0 1
158.012 0 1
158.128 0 1
158.244 0 1
158.359 0 1
158.475 0 1
158.591 0 1
158.706 0 1
