
6.15755 0 1
6.2731 0 1
6.3887 0 1
6.50437 0 1
6.62009 0 1
6.73587 0 1
6.8517 0 1
6.96759 0 1
7.08353 0 1
7.19952 0 1
7.31557 0 1
7.43166 0 1
7.54781 0 1
7.664 0 1
7.78024 0 1
7.89653 0 1
8.01286 0 1
8.12924 0 1
8.24567 0 1
8.36213 0 1
8.47864 0 1
8.59519 0 1
8.71178 0 1
8.82841 0 1
8.94508 0 1
9.06179 0 1
9.17853 0 1
9.29531 0 1
9.41212 0 1
9.52897 0 1
9.64584 0 1
9.76276 0 1
9.8797 0 1
9.99667 0 1
10.1137 0 1
10.2307 0 1
10.3478 0 1
10.4648 0 1
10.5819 0 1
10.6991 0 1
10.8162 0 1
10.9334 0 1
11.0506 0 1
11.1678 0 1
11.285 0 1
11.4023 0 1
11.5196 0 1
11.6369 0 1
11.7542 0 1
11.8715 0 1
11.9888 0 1
12.1062 0 1
12.2235 0 1
12.3409 0 1
12.4582 0 1
12.5756 0 1
12.693 0 1
12.8104 0 1
12.9278 0 1
13.0452 0 1
13.1626 0 1
13.28 0 1
13.3974 0 1
13.5149 0 1
13.6323 0 1
13.7497 0 1
13.8671 0 1
13.9845 0 1
14.1019 0 1
14.2193 0 1
14.3367 0 1
14.4541 0 1
14.5714 0 1
14.6888 0 1
14.8062 0 1
14.9235 0 1
15.0408 0 0
15.1581 0 0
15.2755 0 0
15.3927 0 0
15.51 0 0
15.6273 0 0
15.7445 0 0
15.8617 0 0
15.9789 0 0
16.0961 0 0
16.2132 0 0
16.3304 0 0
16.4475 0 0
16.5646 0 0
16.6816 0 0
16.7986 0 0
16.9156 0 0
17.0326 0 0
17.1496 0 0
17.2665 0 0
17.3833 0 0
17.5002 0 0
17.617 0 0
17.7338 0 0
17.8505 0 0
17.9672 0 0
18.0839 0 0
18.2005 0 0
18.3171 0 0
18.4337 0 0
18.5502 0 0
18.6666 0 0
18.7831 0 0
18.8994 0 0
19.0158 0 0
19.1321 0 0
19.2483 0 0
19.3645 0 0
19.4806 0 0
19.5967 0 0
19.7128 0 0
19.8288 0 0
19.9447 0 0
20.0606 0 1
20.1764 0 1
20.2922 0 1
20.4079 0 1
20.5236 0 1
20.6392 0 1
20.7548 0 1
20.8702 0 1
23.3078 0 1
23.4233 0 1
23.539 0 1
23.6547 0 1
23.7704 0 1
23.8862 0 1
24.0021 0 1
24.118 0 1
24.234 0 1
24.35 0 1
24.4661 1403 37.4566
24.5822 1507 38.8201
24.6984 1609 40.1123
24.8146 1737 41.6773
24.9309 2114 45.9783
25.0472 2392 48.9081
25.1636 2624 51.225
25.28 2707 52.0288
25.3965 2807 52.9811
25.513 2924 54.074
25.6296 2836 53.2541
25.7462 2825 53.1507
25.8628 2823 53.1319
25.9795 2800 52.915
26.0962 2898 53.8331
26.213 2923 54.0648
26.3298 2927 54.1018
26.4466 2992 54.6992
26.5635 2895 53.8052
26.6804 2903 53.8795
26.7973 2876 53.6284
26.9143 2817 53.0754
27.0313 2750 52.4404
27.1483 2643 51.4101
27.2653 2626 51.2445
27.3824 2458 49.5782
27.4996 2451 49.5076
27.6167 2319 48.156
27.7339 2259 47.5289
27.8511 2464 49.6387
27.9683 2588 50.8724
28.0855 2687 51.8363
28.2028 2603 51.0196
28.3201 2543 50.4282
28.4374 2648 51.4587
28.5547 2728 52.2303
28.6721 2793 52.8488
28.7894 2744 52.3832
28.9068 2620 51.1859
29.0242 2711 52.0673
29.1416 2680 51.7687
29.259 2759 52.5262
29.3764 2667 51.643
29.4939 2678 51.7494
29.6113 2640 51.3809
29.7288 2500 50
29.8463 2508 50.0799
29.9638 2456 49.558
30.0812 2485 49.8498
30.1987 2562 50.6162
30.3162 2585 50.8429
30.4337 2652 51.4976
30.5512 2570 50.6952
30.6687 2585 50.8429
30.7862 2608 51.0686
30.9037 2501 50.01
31.0212 2420 49.1935
31.1387 2425 49.2443
31.2562 2438 49.3761
31.3737 2630 51.2835
31.4912 2689 51.8556
31.6087 2709 52.0481
31.7262 2688 51.8459
31.8436 2771 52.6403
31.9611 2672 51.6914
32.0785 2600 50.9902
32.1959 2526 50.2593
32.3134 2624 51.225
32.4308 2638 51.3615
32.5482 2551 50.5074
32.6655 2419 49.1833
32.7829 2408 49.0714
32.9002 2317 48.1352
33.0176 2320 48.1664
33.1349 2397 48.9592
33.2522 2262 47.5605
33.3694 2310 48.0625
33.4867 2303 47.9896
33.6039 2306 48.0208
33.7211 2351 48.4871
33.8383 2409 49.0816
33.9554 2529 50.2892
34.0725 2512 50.1199
34.1896 2482 49.8197
34.3067 2599 50.9804
34.4237 2486 49.8598
34.5407 2458 49.5782
34.6577 2427 49.2646
34.7746 2354 48.518
34.8915 2406 49.051
35.0084 2530 50.2991
35.1252 2669 51.6624
35.242 2694 51.9038
35.3587 2639 51.3712
35.4755 2744 52.3832
35.5921 2557 50.5668
35.7088 2575 50.7445
35.8254 2434 49.3356
35.9419 2341 48.3839
36.0584 2290 47.8539
36.1749 2245 47.3814
36.2913 2165 46.5296
36.4077 2155 46.422
36.524 1994 44.6542
36.6403 1779 42.1782
36.7565 1628 40.3485
36.8727 1587 39.8372
36.9889 1492 38.6264
37.1049 1434 37.8682
37.221 0 1
37.3369 0 1
37.4529 0 1
37.5687 0 1
37.6845 0 1
37.8003 0 1
37.916 0 1
38.0316 0 1
38.1472 0 1
40.5851 0 1
40.7008 0 1
40.8164 0 1
40.9322 0 1
41.048 0 1
41.1639 0 1
41.2798 0 1
41.3958 0 1
41.5118 0 1
41.6279 0 1
41.744 1833 42.8135
41.8602 2504 50.04
41.9765 2994 54.7175
42.0928 3228 56.8155
42.2091 3296 57.4108
42.3255 3325 57.6628
42.4419 3399 58.3009
42.5584 3463 58.8473
42.675 3562 59.6825
42.7915 3574 59.7829
42.9081 3603 60.025
43.0248 3606 60.05
43.1415 3677 60.6383
43.2582 3659 60.4897
43.375 3248 56.9912
43.4918 3224 56.7803
43.6087 3425 58.5235
43.7256 3479 58.983
43.8425 3449 58.7282
43.9595 3619 60.1581
44.0765 3463 58.8473
44.1935 3549 59.5735
44.3106 3455 58.7792
44.4277 3418 58.4637
44.5448 3337 57.7668
44.6619 3137 56.0089
44.7791 3008 54.8452
44.8963 2923 54.0648
45.0136 2872 53.591
45.1308 2608 51.0686
45.2481 2564 50.636
45.3654 2516 50.1597
45.4827 2369 48.6724
45.6001 2373 48.7134
45.7174 2156 46.4327
45.8348 2121 46.0543
45.9522 2163 46.5081
46.0697 2197 46.8722
46.1871 2236 47.2864
46.3046 2218 47.0956
46.422 2266 47.6025
46.5395 2251 47.4447
46.657 2287 47.8226
46.7745 2281 47.7598
46.892 2074 45.5412
47.0096 2065 45.4423
47.1271 2046 45.2327
47.2446 2082 45.6289
47.3622 2239 47.3181
47.4797 2145 46.3141
47.5973 2210 47.0106
47.7149 2171 46.594
47.8324 2211 47.0213
47.95 2146 46.3249
48.0675 2137 46.2277
48.1851 2160 46.4758
48.3027 2100 45.8258
48.4202 2011 44.8442
48.5378 1999 44.7102
48.6554 2036 45.1221
48.7729 1940 44.0454
48.8904 2003 44.7549
49.008 1962 44.2945
49.1255 1949 44.1475
49.243 1955 44.2154
49.3605 1984 44.5421
49.478 1989 44.5982
49.5955 2072 45.5192
49.713 2151 46.3789
49.8304 2056 45.3431
49.9479 2173 46.6154
50.0653 2126 46.1086
50.1827 2135 46.2061
50.3001 1939 44.0341
50.4175 1828 42.7551
50.5348 1660 40.7431
50.6521 1732 41.6173
50.7694 1953 44.1928
50.8867 2098 45.8039
51.004 2230 47.2229
51.1212 2259 47.5289
51.2384 2218 47.0956
51.3556 2068 45.4753
51.4727 2131 46.1628
51.5899 2139 46.2493
51.707 2114 45.9783
51.824 2132 46.1736
51.9411 2094 45.7602
52.0581 2035 45.111
52.175 2043 45.1996
52.2919 1969 44.3734
52.4088 1989 44.5982
52.5257 1933 43.9659
52.6425 1972 44.4072
52.7593 1917 43.7836
52.876 1980 44.4972
52.9927 1948 44.1362
53.1094 1843 42.9302
53.226 1906 43.6578
53.3426 2026 45.0111
53.4591 1964 44.317
53.5756 1662 40.7676
53.692 1499 38.7169
53.8084 1352 36.7696
53.9248 1304 36.1109
54.0411 1091 33.0303
54.1573 1095 33.0908
54.2735 0 1
54.3896 0 1
54.5057 0 1
54.6217 0 1
54.7377 0 1
54.8537 0 1
54.9695 0 1
55.0853 0 1
55.2011 0 1
55.3168 0 1
55.4324 0 1
57.824 0 1
57.9396 0 1
58.0553 0 1
58.1711 0 1
58.2869 0 1
58.4028 0 1
58.5187 0 1
58.6347 0 1
58.7508 0 1
58.8669 0 1
58.983 1728 41.5692
59.0992 1724 41.5211
59.2155 1818 42.638
59.3318 1873 43.2782
59.4482 2146 46.3249
59.5646 2343 48.4045
59.681 2437 49.366
59.7975 2527 50.2693
59.9141 2480 49.7996
60.0306 2492 49.9199
60.1473 2543 50.4282
60.2639 2555 50.547
60.3807 2486 49.8598
60.4974 2503 50.03
60.6142 2537 50.3686
60.731 2612 51.1077
60.8479 2589 50.8822
60.9648 2612 51.1077
61.0818 2625 51.2348
61.1987 2579 50.7839
61.3158 2516 50.1597
61.4328 2435 49.3457
61.5499 2488 49.8799
61.667 2426 49.2544
61.7841 2511 50.1099
61.9013 2525 50.2494
62.0185 2559 50.5866
62.1357 2487 49.8698
62.253 2576 50.7543
62.3702 2364 48.621
62.4875 2365 48.6313
62.6049 2224 47.1593
62.7222 2222 47.1381
62.8396 2321 48.1768
62.9569 2483 49.8297
63.0743 2522 50.2195
63.1918 2624 51.225
63.3092 2730 52.2494
63.4267 2780 52.7257
63.5441 2643 51.4101
63.6616 2688 51.8459
63.7791 2590 50.892
63.8966 2620 51.1859
64.0142 2569 50.6853
64.1317 2622 51.2055
64.2492 2533 50.3289
64.3668 2505 50.05
64.4843 2526 50.2593
64.6019 2499 49.99
64.7195 2533 50.3289
64.837 2574 50.7346
64.9546 2376 48.7442
65.0722 2478 49.7795
65.1898 2317 48.1352
65.3074 2411 49.1019
65.4249 2396 48.949
65.5425 2460 49.5984
65.6601 2388 48.8672
65.7777 2462 49.6185
65.8952 2518 50.1797
66.0128 2428 49.2747
66.1304 2103 45.8585
66.2479 1993 44.643
66.3655 2104 45.8694
66.483 2317 48.1352
66.6005 2394 48.9285
66.718 2533 50.3289
66.8355 2500 50
66.953 2549 50.4876
67.0705 2602 51.0098
67.1879 2611 51.0979
67.3054 2482 49.8197
67.4228 2604 51.0294
67.5402 2442 49.4166
67.6576 2448 49.4773
67.7749 2494 49.94
67.8923 2516 50.1597
68.0096 2470 49.6991
68.1269 2521 50.2096
68.2442 2429 49.2849
68.3614 2370 48.6826
68.4787 2407 49.0612
68.5958 2389 48.8774
68.713 2353 48.5077
68.8302 2261 47.55
68.9473 2307 48.0312
69.0643 2257 47.5079
69.1814 2401 49
69.2984 2319 48.156
69.4154 2328 48.2494
69.5323 2383 48.816
69.6492 2144 46.3033
69.7661 2070 45.4973
69.8829 1836 42.8486
69.9997 2004 44.7661
70.1165 2076 45.5631
70.2332 2129 46.1411
70.3499 2092 45.7384
70.4665 1771 42.0833
70.5831 1772 42.0951
70.6996 1689 41.0974
70.8161 1653 40.6571
70.9326 1549 39.3573
71.049 1538 39.2173
71.1653 1407 37.51
71.2817 1348 36.7151
71.3979 1313 36.2353
71.5141 1318 36.3043
71.6303 1297 36.0139
71.7464 1119 33.4515
71.8624 0 1
71.9784 0 1
72.0944 0 1
72.2102 0 1
72.3261 0 1
72.4418 0 1
72.5575 0 1
72.6732 0 1
75.1054 0 1
75.2209 0 1
75.3365 0 1
75.4521 0 1
75.5678 0 1
75.6835 0 1
75.7993 0 1
75.9151 0 1
76.031 0 1
76.147 1939 44.0341
76.263 2144 46.3033
76.3791 2375 48.734
76.4952 2221 47.1275
76.6113 2304 48
76.7276 2263 47.571
76.8438 2311 48.0729
76.9601 2254 47.4763
77.0765 2334 48.3115
77.1929 2362 48.6004
77.3093 2339 48.3632
77.4258 2341 48.3839
77.5423 2316 48.1248
77.6589 2265 47.592
77.7755 2239 47.3181
77.8921 2267 47.613
78.0088 2226 47.1805
78.1256 2333 48.3011
78.2423 2259 47.5289
78.3591 2302 47.9792
78.4759 2316 48.1248
78.5928 2260 47.5395
78.7097 1974 44.4297
78.8266 1726 41.5452
78.9436 1549 39.3573
79.0606 1702 41.2553
79.1776 1942 44.0681
79.2946 2317 48.1352
79.4117 2340 48.3735
79.5288 2453 49.5278
79.6459 2470 49.6991
79.7631 2397 48.9592
79.8802 2381 48.7955
79.9974 2341 48.3839
80.1147 2407 49.0612
80.2319 2318 48.1456
80.3491 2356 48.5386
80.4664 2344 48.4149
80.5837 2428 49.2747
80.701 2556 50.5569
80.8183 2482 49.8197
80.9357 2522 50.2195
81.053 2478 49.7795
81.1704 2394 48.9285
81.2877 2460 49.5984
81.4051 2392 48.9081
81.5225 2485 49.8498
81.6399 2476 49.7594
81.7573 2501 50.01
81.8747 2503 50.03
81.9922 2705 52.0096
82.1096 2672 51.6914
82.227 2728 52.2303
82.3444 2653 51.5073
82.4619 2302 47.9792
82.5793 2188 46.7761
82.6967 2331 48.2804
82.8142 2791 52.8299
82.9316 3255 57.0526
83.049 3718 60.9754
83.1664 3828 61.8708
83.2838 4004 63.2772
83.4012 3986 63.1348
83.5186 4062 63.7338
83.636 4178 64.6375
83.7534 4341 65.8863
83.8708 4363 66.053
83.9881 4191 64.7379
84.1055 4193 64.7534
84.2228 4421 66.4906
84.3401 4558 67.513
84.4575 4524 67.2607
84.5747 4452 66.7233
84.692 4424 66.5132
84.8093 4443 66.6558
84.9265 4304 65.6049
85.0437 4309 65.643
85.1609 4317 65.7039
85.2781 4259 65.261
85.3952 4311 65.6582
85.5123 4196 64.7765
85.6294 4340 65.8787
85.7465 4187 64.707
85.8636 3945 62.8092
85.9806 3397 58.2838
86.0976 2853 53.4135
86.2145 2790 52.8205
86.3315 3015 54.909
86.4484 4064 63.7495
86.5652 3998 63.2297
86.682 4234 65.0692
86.7988 4062 63.7338
86.9156 4175 64.6142
87.0323 4253 65.215
87.149 4294 65.5286
87.2657 4322 65.7419
87.3823 4298 65.5591
87.4988 4137 64.3195
87.6154 3721 61
87.7318 3394 58.258
87.8483 3224 56.7803
87.9647 3052 55.2449
88.081 3041 55.1453
88.1973 2975 54.5436
88.3136 2832 53.2165
88.4298 2758 52.5167
88.546 2517 50.1697
88.6621 2551 50.5074
88.7781 2398 48.9694
88.8942 0 1
89.0101 0 1
89.126 0 1
89.2419 0 1
89.3577 0 1
89.4734 0 1
89.5891 0 1
89.7047 0 1
89.8203 0 1
89.9358 0 1
92.3269 0 1
92.4424 0 1
92.558 0 1
92.6736 0 1
92.7893 0 1
92.905 0 1
93.0208 0 1
93.1366 0 1
93.2525 0 1
93.3685 0 1
93.4845 0 1
93.6005 4501 67.0895
93.7167 4488 66.9925
93.8328 4531 67.3127
93.949 4570 67.6018
94.0653 4444 66.6633
94.1816 4459 66.7757
94.2979 4559 67.5204
94.4143 4468 66.8431
94.5307 4491 67.0149
94.6472 4366 66.0757
94.7637 4221 64.9692
94.8803 3933 62.7136
94.9969 3527 59.3886
95.1135 3086 55.5518
95.2302 3280 57.2713
95.3469 3758 61.3025
95.4637 4242 65.1306
95.5805 4511 67.164
95.6973 4552 67.4685
95.8142 4651 68.1982
95.9311 4560 67.5278
96.048 4627 68.0221
96.1649 4591 67.7569
96.2819 4685 68.4471
96.3989 4526 67.2756
96.516 4706 68.6003
96.633 4602 67.838
96.7501 4805 69.3181
96.8673 4557 67.5056
96.9844 4694 68.5128
97.1016 4897 69.9786
97.2188 4689 68.4763
97.336 4624 68
97.4532 4662 68.2788
97.5704 4438 66.6183
97.6877 4510 67.1565
97.805 4657 68.2422
97.9223 4613 67.9191
98.0396 4577 67.6535
98.1569 4530 67.3053
98.2743 4315 65.6887
98.3916 4044 63.5925
98.509 3632 60.2661
98.6264 3293 57.3847
98.7438 3312 57.55
98.8612 3837 61.9435
98.9786 4172 64.591
99.096 4381 66.1891
99.2134 4326 65.7723
99.3308 4279 65.4141
99.4482 4356 66
99.5656 4170 64.5755
99.6831 4121 64.195
99.8005 3973 63.0317
99.9179 3986 63.1348
100.035 3806 61.6928
100.153 3736 61.1228
100.27 3801 61.6523
100.388 3631 60.2578
100.505 3692 60.7618
100.622 3575 59.7913
100.74 3622 60.1831
100.857 3465 58.8643
100.975 3333 57.7321
101.092 3276 57.2364
101.209 3237 56.8946
101.327 3158 56.1961
101.444 3211 56.6657
101.561 3140 56.0357
101.679 3062 55.3353
101.796 3161 56.2228
101.913 2952 54.3323
102.03 2805 52.9623
102.148 2415 49.1426
102.265 2276 47.7074
102.382 2480 49.7996
102.499 2681 51.7784
102.616 2893 53.7866
102.733 3027 55.0182
102.851 3011 54.8726
102.968 3007 54.8361
103.085 2923 54.0648
103.202 2801 52.9245
103.319 2796 52.8772
103.436 2837 53.2635
103.552 2872 53.591
103.669 2875 53.619
103.786 2756 52.4976
103.903 2762 52.5547
104.02 2860 53.479
104.137 2931 54.1387
104.253 2999 54.7631
104.37 2865 53.5257
104.487 2852 53.4041
104.603 2771 52.6403
104.72 2700 51.9615
104.836 2549 50.4876
104.953 2258 47.5184
105.069 2029 45.0444
105.186 1879 43.3474
105.302 1691 41.1218
105.418 1576 39.6989
105.535 1429 37.8021
105.651 1250 35.3553
105.767 1023 31.9844
105.883 892 29.8664
105.999 890 29.8329
106.115 0 1
106.231 0 1
106.347 0 1
106.463 0 1
106.579 0 1
106.694 0 1
106.81 0 1
106.926 0 1
107.041 0 1
107.157 0 1
109.576 0 1
109.692 0 1
109.807 0 1
109.923 0 1
110.039 0 1
110.155 0 1
110.27 0 1
110.386 0 1
110.502 0 1
110.618 2965 54.4518
110.735 2959 54.3967
110.851 2785 52.7731
110.967 2512 50.1199
111.083 2402 49.0102
111.199 2724 52.192
111.316 2866 53.535
111.432 3153 56.1516
111.549 3128 55.9285
111.665 3104 55.7136
111.782 3091 55.5968
111.898 3149 56.116
112.015 3104 55.7136
112.132 3138 56.0179
112.248 3151 56.1338
112.365 3108 55.7494
112.482 3055 55.2721
112.599 3192 56.4978
112.716 3455 58.7792
112.832 3329 57.6975
112.949 3415 58.438
113.066 3578 59.8164
113.183 3523 59.3549
113.3 3437 58.6259
113.417 3449 58.7282
113.534 3377 58.112
113.652 3328 57.6888
113.769 3509 59.2368
113.886 3502 59.1777
114.003 3301 57.4543
114.12 3443 58.6771
114.238 3426 58.532
114.355 3117 55.8301
114.472 2745 52.3927
114.589 2620 51.1859
114.707 2686 51.8266
114.824 3114 55.8032
114.942 3193 56.5066
115.059 3397 58.2838
115.176 3284 57.3062
115.294 3179 56.3826
115.411 3170 56.3028
115.529 3233 56.8595
115.646 3111 55.7763
115.764 3212 56.6745
115.881 3074 55.4437
115.999 3215 56.701
116.116 3227 56.8067
116.234 3249 57
116.351 3406 58.3609
116.469 3536 59.4643
116.586 3447 58.7112
116.704 3506 59.2115
116.821 3694 60.7783
116.939 3528 59.397
117.056 3684 60.696
117.174 3545 59.5399
117.291 3552 59.5987
117.409 3463 58.8473
117.526 3430 58.5662
117.644 3551 59.5903
117.761 3399 58.3009
117.879 3353 57.9051
117.996 3126 55.9106
118.114 2830 53.1977
118.231 2727 52.2207
118.349 2877 53.6377
118.466 3035 55.0908
118.584 3137 56.0089
118.701 3273 57.2101
118.819 3285 57.3149
118.936 3083 55.5248
119.053 3198 56.5509
119.171 3220 56.745
119.288 3168 56.285
119.405 3118 55.8391
119.523 3093 55.6147
119.64 3026 55.0091
119.757 3177 56.3649
119.875 3153 56.1516
119.992 3176 56.356
120.109 3255 57.0526
120.226 3343 57.8187
120.343 3303 57.4717
120.46 3286 57.3236
120.578 3391 58.2323
120.695 3331 57.7148
120.812 3174 56.3383
120.929 3284 57.3062
121.046 3274 57.2189
121.163 3180 56.3915
121.279 3165 56.2583
121.396 3215 56.701
121.513 3065 55.3624
121.63 2874 53.6097
121.747 2578 50.774
121.863 2242 47.3498
121.98 2229 47.2123
122.097 2221 47.1275
122.213 2349 48.4665
122.33 2352 48.4974
122.446 2326 48.2286
122.563 2212 47.0319
122.679 2156 46.4327
122.795 2027 45.0222
122.912 1929 43.9204
123.028 1903 43.6234
123.144 1913 43.7379
123.26 1836 42.8486
123.377 0 1
123.493 0 1
123.609 0 1
123.725 0 1
123.84 0 1
123.956 0 1
124.072 0 1
124.188 0 1
124.303 0 1
124.419 0 1
126.852 0 1
126.968 0 1
127.083 0 1
127.199 0 1
127.315 0 1
127.431 0 1
127.547 0 1
127.663 0 1
127.779 0 1
127.895 0 1
128.011 0 1
128.127 0 1
128.243 0 1
128.359 3708 60.8933
128.476 3587 59.8916
128.592 3738 61.1392
128.708 3782 61.498
128.825 3674 60.6135
128.941 3670 60.5805
129.058 3811 61.7333
129.174 3859 62.1208
129.291 3911 62.538
129.408 3948 62.8331
129.524 4067 63.773
129.641 4198 64.792
129.758 4305 65.6125
129.875 4371 66.1135
129.992 4436 66.6033
130.108 4481 66.9403
130.225 4444 66.6633
130.342 4512 67.1714
130.459 4173 64.5988
130.576 4391 66.2646
130.693 4054 63.671
130.81 3890 62.3699
130.928 3953 62.8729
131.045 3988 63.1506
131.162 4142 64.3584
131.279 4224 64.9923
131.396 4233 65.0615
131.513 4234 65.0692
131.631 4233 65.0615
131.748 4342 65.8939
131.865 4196 64.7765
131.983 4174 64.6065
132.1 4051 63.6475
132.217 4008 63.3088
132.335 4079 63.867
132.452 4064 63.7495
132.57 4051 63.6475
132.687 3921 62.6179
132.804 4368 66.0908
132.922 4113 64.1327
133.039 4226 65.0077
133.157 4199 64.7997
133.274 4315 65.6887
133.392 4400 66.3325
133.509 4430 66.5582
133.627 4590 67.7495
133.744 4780 69.1375
133.862 4649 68.1836
133.979 4648 68.1762
134.097 4633 68.0661
134.214 4533 67.3276
134.332 4303 65.5973
134.449 4369 66.0984
134.567 4284 65.4523
134.684 4423 66.5056
134.802 4631 68.0515
134.919 4744 68.8767
135.037 4564 67.5574
135.154 4592 67.7643
135.272 4574 67.6314
135.389 4675 68.374
135.507 4469 66.8506
135.624 4293 65.521
135.742 4357 66.0076
135.859 4354 65.9848
135.977 4196 64.7765
136.094 4333 65.8255
136.211 4262 65.284
136.329 4429 66.5507
136.446 4257 65.2457
136.564 4340 65.8787
136.681 4313 65.6734
136.798 4451 66.7158
136.915 4393 66.2797
137.033 4488 66.9925
137.15 4448 66.6933
137.267 4525 67.2681
137.384 4622 67.9853
137.502 4547 67.4314
137.619 4478 66.9179
137.736 4300 65.5744
137.853 4326 65.7723
137.97 4151 64.4283
138.087 3954 62.8808
138.204 4175 64.6142
138.321 4263 65.2917
138.438 4384 66.2118
138.555 4480 66.9328
138.672 4301 65.582
138.788 4377 66.1589
138.905 4227 65.0154
139.022 4210 64.8845
139.139 3907 62.506
139.255 3850 62.0484
139.372 3545 59.5399
139.488 3383 58.1636
139.605 3431 58.5747
139.721 3197 56.542
139.838 3191 56.4889
139.954 3092 55.6058
140.071 3002 54.7905
140.187 3054 55.263
140.303 3055 55.2721
140.419 3081 55.5068
140.535 3120 55.857
140.652 3161 56.2228
140.768 0 1
140.884 0 1
141 0 1
141.115 0 1
141.231 0 1
141.347 0 1
141.463 0 1
141.578 0 1
141.694 0 1
144.104 0 1
144.219 0 1
144.335 0 1
144.45 0 1
144.566 0 1
144.682 0 1
144.798 0 1
144.914 0 1
145.03 0 1
145.146 8648 92.9946
145.262 8952 94.615
145.378 9115 95.4725
145.494 8934 94.5198
145.61 9181 95.8175
145.726 9218 96.0104
145.842 9112 95.4568
145.959 9264 96.2497
146.075 9247 96.1613
146.192 9138 95.5929
146.308 9272 96.2912
146.425 8941 94.5569
146.541 8405 91.6788
146.658 7089 84.1962
146.774 6251 79.0633
146.891 5980 77.3305
147.008 6799 82.456
147.125 8054 89.7441
147.241 8751 93.5468
147.358 8903 94.3557
147.475 9027 95.0105
147.592 9125 95.5249
147.709 9186 95.8436
147.826 9048 95.121
147.943 9004 94.8894
148.06 9288 96.3743
148.177 9278 96.3224
148.294 9181 95.8175
148.411 9186 95.8436
148.528 9313 96.5039
148.645 9269 96.2756
148.762 9247 96.1613
148.88 9291 96.3898
148.997 9042 95.0894
149.114 9707 98.5241
149.231 9337 96.6282
149.349 9515 97.5449
149.466 9430 97.1082
149.583 9534 97.6422
149.701 9296 96.4158
149.818 9622 98.0918
149.935 9469 97.3088
150.053 9445 97.1854
150.17 8788 93.7443
150.287 8052 89.7329
150.405 6603 81.2588
150.522 6343 79.643
150.64 6758 82.2071
150.757 7876 88.7468
150.875 8747 93.5254
150.992 9139 95.5981
151.11 8837 94.0053
151.227 9041 95.0842
151.344 9011 94.9263
151.462 8928 94.4881
151.579 9120 95.4987
151.697 9055 95.1578
151.814 9009 94.9158
151.932 9084 95.31
152.049 9122 95.5092
152.167 9007 94.9052
152.284 9428 97.0979
152.402 9370 96.7988
152.519 9224 96.0417
152.636 9207 95.9531
152.754 9478 97.355
152.871 9355 96.7212
152.989 9479 97.3602
153.106 9603 97.9949
153.223 9412 97.0155
153.341 9647 98.2191
153.458 9784 98.9141
153.575 9581 97.8826
153.693 9488 97.4064
153.81 8852 94.0851
153.927 8169 90.3825
154.044 7099 84.2556
154.162 6586 81.1542
154.279 7108 84.309
154.396 8367 91.4713
154.513 9171 95.7653
154.63 9576 97.857
154.747 9606 98.0102
154.864 9257 96.2133
154.981 9395 96.9278
155.098 9163 95.7236
155.215 9058 95.1735
155.332 8900 94.3398
155.449 8821 93.9202
155.566 8355 91.4057
155.683 8397 91.6351
155.8 8288 91.0385
155.917 7977 89.3141
156.033 7974 89.2973
156.15 0 1
156.267 0 1
156.383 0 1
156.5 0 1
156.617 0 1
156.733 0 1
156.85 0 1
156.966 0 1
157.082 0 1
157.199 0 1
157.315 0 1
157.431 0 1
157.547 0 1
157.664 0 1
157.78 0 1
157.896 0 1
158.012 0 1
158.128 0 1
158.244 0 1
158.359 0 1
158.475 0 1
158.591 0 1
158.706 0 1
