
6.15755 0 1
6.2731 0 1
6.3887 0 1
6.50437 0 1
6.62009 0 1
6.73587 0 1
6.8517 0 1
6.96759 0 1
7.08353 0 1
7.19952 0 1
7.31557 0 1
7.43166 0 1
7.54781 0 1
7.664 0 1
7.78024 0 1
7.89653 0 1
8.01286 0 1
8.12924 0 1
8.24567 0 1
8.36213 0 1
8.47864 0 1
8.59519 0 1
8.71178 0 1
8.82841 0 1
8.94508 0 1
9.06179 0 1
9.17853 0 1
9.29531 0 1
9.41212 0 1
9.52897 0 1
9.64584 0 1
9.76276 0 1
9.8797 0 1
9.99667 0 1
10.1137 0 1
10.2307 0 1
10.3478 0 1
10.4648 0 1
10.5819 0 1
10.6991 0 1
10.8162 0 1
10.9334 0 1
11.0506 0 1
11.1678 0 1
11.285 0 1
11.4023 0 1
11.5196 0 1
11.6369 0 1
11.7542 0 1
11.8715 0 1
11.9888 0 1
12.1062 0 1
12.2235 0 1
12.3409 0 1
12.4582 0 1
12.5756 0 1
12.693 0 1
12.8104 0 1
12.9278 0 1
13.0452 0 1
13.1626 0 1
13.28 0 1
13.3974 0 1
13.5149 0 1
13.6323 0 1
13.7497 0 1
13.8671 0 1
13.9845 0 1
14.1019 0 1
14.2193 0 1
14.3367 0 1
14.4541 0 1
14.5714 0 1
14.6888 0 1
14.8062 0 1
14.9235 0 1
15.0408 0 0
15.1581 0 0
15.2755 0 0
15.3927 0 0
15.51 0 0
15.6273 0 0
15.7445 0 0
15.8617 0 0
15.9789 0 0
16.0961 0 0
16.2132 0 0
16.3304 0 0
16.4475 0 0
16.5646 0 0
16.6816 0 0
16.7986 0 0
16.9156 0 0
17.0326 0 0
17.1496 0 0
17.2665 0 0
17.3833 0 0
17.5002 0 0
17.617 0 0
17.7338 0 0
17.8505 0 0
17.9672 0 0
18.0839 0 0
18.2005 0 0
18.3171 0 0
18.4337 0 0
18.5502 0 0
18.6666 0 0
18.7831 0 0
18.8994 0 0
19.0158 0 0
19.1321 0 0
19.2483 0 0
19.3645 0 0
19.4806 0 0
19.5967 0 0
19.7128 0 0
19.8288 0 0
19.9447 0 0
20.0606 0 1
20.1764 0 1
20.2922 0 1
20.4079 0 1
20.5236 0 1
20.6392 0 1
20.7548 0 1
20.8702 0 1
23.3078 0 1
23.4233 0 1
23.539 0 1
23.6547 0 1
23.7704 0 1
23.8862 0 1
24.0021 0 1
24.118 0 1
24.234 0 1
24.35 0 1
24.4661 1120 33.4664
24.5822 1254 35.4119
24.6984 1279 35.7631
24.8146 1149 33.8969
24.9309 1170 34.2053
25.0472 1219 34.9142
25.1636 1200 34.641
25.28 1214 34.8425
25.3965 1261 35.5106
25.513 1302 36.0832
25.6296 1280 35.7771
25.7462 1408 37.5233
25.8628 1364 36.9324
25.9795 1369 37
26.0962 1346 36.6879
26.213 1346 36.6879
26.3298 1450 38.0789
26.4466 1378 37.1214
26.5635 1299 36.0416
26.6804 1325 36.4005
26.7973 1308 36.1663
26.9143 1261 35.5106
27.0313 1346 36.6879
27.1483 1316 36.2767
27.2653 1434 37.8682
27.3824 1429 37.8021
27.4996 1389 37.2693
27.6167 1440 37.9473
27.7339 1354 36.7967
27.8511 1404 37.47
27.9683 1414 37.6032
28.0855 1439 37.9342
28.2028 1452 38.1051
28.3201 1375 37.081
28.4374 1410 37.55
28.5547 1325 36.4005
28.6721 1320 36.3318
28.7894 1351 36.756
28.9068 1296 36
29.0242 1352 36.7696
29.1416 1388 37.2559
29.259 1490 38.6005
29.3764 1516 38.9358
29.4939 1462 38.2361
29.6113 1542 39.2683
29.7288 1514 38.9102
29.8463 1471 38.3536
29.9638 1522 39.0128
30.0812 1429 37.8021
30.1987 1365 36.9459
30.3162 1356 36.8239
30.4337 1276 35.7211
30.5512 1271 35.6511
30.6687 1374 37.0675
30.7862 1370 37.0135
30.9037 1363 36.9188
31.0212 1397 37.3765
31.1387 1355 36.8103
31.2562 1309 36.1801
31.3737 1348 36.7151
31.4912 1305 36.1248
31.6087 1372 37.0405
31.7262 1263 35.5387
31.8436 1266 35.5809
31.9611 1235 35.1426
32.0785 1218 34.8999
32.1959 1228 35.0428
32.3134 1245 35.2846
32.4308 1289 35.9026
32.5482 1261 35.5106
32.6655 1256 35.4401
32.7829 1358 36.8511
32.9002 1259 35.4824
33.0176 1298 36.0278
33.1349 1335 36.5377
33.2522 1337 36.565
33.3694 1359 36.8646
33.4867 1317 36.2905
33.6039 1281 35.7911
33.7211 1294 35.9722
33.8383 1243 35.2562
33.9554 1142 33.7935
34.0725 1129 33.6006
34.1896 1140 33.7639
34.3067 1177 34.3074
34.4237 1172 34.2345
34.5407 1234 35.1283
34.6577 1185 34.4238
34.7746 1151 33.9264
34.8915 1163 34.1028
35.0084 1201 34.6554
35.1252 1160 34.0588
35.242 1180 34.3511
35.3587 1174 34.2637
35.4755 1236 35.1568
35.5921 1206 34.7275
35.7088 1113 33.3617
35.8254 1114 33.3766
35.9419 1100 33.1662
36.0584 1120 33.4664
36.1749 1104 33.2265
36.2913 1138 33.7343
36.4077 1175 34.2783
36.524 1240 35.2136
36.6403 1155 33.9853
36.7565 1244 35.2704
36.8727 1211 34.7994
36.9889 1161 34.0735
37.1049 1222 34.9571
37.221 0 1
37.3369 0 1
37.4529 0 1
37.5687 0 1
37.6845 0 1
37.8003 0 1
37.916 0 1
38.0316 0 1
38.1472 0 1
40.5851 0 1
40.7008 0 1
40.8164 0 1
40.9322 0 1
41.048 0 1
41.1639 0 1
41.2798 0 1
41.3958 0 1
41.5118 0 1
41.6279 0 1
41.744 964 31.0483
41.8602 1012 31.8119
41.9765 1041 32.2645
42.0928 1026 32.0312
42.2091 1042 32.28
42.3255 1084 32.9242
42.4419 1128 33.5857
42.5584 1061 32.573
42.675 1001 31.6386
42.7915 966 31.0805
42.9081 865 29.4109
43.0248 873 29.5466
43.1415 908 30.133
43.2582 981 31.3209
43.375 960 30.9839
43.4918 964 31.0483
43.6087 973 31.1929
43.7256 924 30.3974
43.8425 894 29.8998
43.9595 897 29.95
44.0765 910 30.1662
44.1935 888 29.7993
44.3106 884 29.7321
44.4277 858 29.2916
44.5448 824 28.7054
44.6619 817 28.5832
44.7791 754 27.4591
44.8963 771 27.7669
45.0136 776 27.8568
45.1308 813 28.5132
45.2481 809 28.4429
45.3654 787 28.0535
45.4827 819 28.6182
45.6001 799 28.2666
45.7174 812 28.4956
45.8348 812 28.4956
45.9522 836 28.9137
46.0697 827 28.7576
46.1871 782 27.9643
46.3046 744 27.2764
46.422 655 25.593
46.5395 692 26.3059
46.657 684 26.1534
46.7745 687 26.2107
46.892 725 26.9258
47.0096 792 28.1425
47.1271 758 27.5318
47.2446 704 26.533
47.3622 725 26.9258
47.4797 662 25.7294
47.5973 716 26.7582
47.7149 688 26.2298
47.8324 676 26
47.95 696 26.3818
48.0675 600 24.4949
48.1851 638 25.2587
48.3027 608 24.6577
48.4202 574 23.9583
48.5378 605 24.5967
48.6554 626 25.02
48.7729 639 25.2784
48.8904 634 25.1794
49.008 665 25.7876
49.1255 663 25.7488
49.243 598 24.454
49.3605 656 25.6125
49.478 637 25.2389
49.5955 650 25.4951
49.713 633 25.1595
49.8304 592 24.3311
49.9479 589 24.2693
50.0653 564 23.7487
50.1827 571 23.8956
50.3001 621 24.9199
50.4175 675 25.9808
50.5348 691 26.2869
50.6521 711 26.6646
50.7694 738 27.1662
50.8867 695 26.3629
51.004 684 26.1534
51.1212 677 26.0192
51.2384 750 27.3861
51.3556 762 27.6043
51.4727 756 27.4955
51.5899 749 27.3679
51.707 737 27.1477
51.824 748 27.3496
51.9411 755 27.4773
52.0581 795 28.1957
52.175 811 28.4781
52.2919 886 29.7658
52.4088 892 29.8664
52.5257 899 29.9833
52.6425 928 30.4631
52.7593 942 30.692
52.876 884 29.7321
52.9927 1005 31.7017
53.1094 908 30.133
53.226 967 31.0966
53.3426 970 31.1448
53.4591 903 30.05
53.5756 946 30.7571
53.692 859 29.3087
53.8084 841 29
53.9248 957 30.9354
54.0411 1022 31.9687
54.1573 962 31.0161
54.2735 0 1
54.3896 0 1
54.5057 0 1
54.6217 0 1
54.7377 0 1
54.8537 0 1
54.9695 0 1
55.0853 0 1
55.2011 0 1
55.3168 0 1
55.4324 0 1
57.824 0 1
57.9396 0 1
58.0553 0 1
58.1711 0 1
58.2869 0 1
58.4028 0 1
58.5187 0 1
58.6347 0 1
58.7508 0 1
58.8669 0 1
58.983 1000 31.6228
59.0992 1043 32.2955
59.2155 1088 32.9848
59.3318 1164 34.1174
59.4482 1175 34.2783
59.5646 1155 33.9853
59.681 1161 34.0735
59.7975 1102 33.1964
59.9141 1100 33.1662
60.0306 1113 33.3617
60.1473 1055 32.4808
60.2639 1049 32.3883
60.3807 1033 32.1403
60.4974 998 31.5911
60.6142 1054 32.4654
60.731 1002 31.6544
60.8479 1045 32.3265
60.9648 1028 32.0624
61.0818 1060 32.5576
61.1987 1117 33.4215
61.3158 1062 32.5883
61.4328 1078 32.8329
61.5499 1116 33.4066
61.667 1071 32.7261
61.7841 1086 32.9545
61.9013 1012 31.8119
62.0185 977 31.257
62.1357 1006 31.7175
62.253 906 30.0998
62.3702 913 30.2159
62.4875 971 31.1609
62.6049 952 30.8545
62.7222 994 31.5278
62.8396 1069 32.6956
62.9569 1111 33.3317
63.0743 1053 32.45
63.1918 1008 31.749
63.3092 960 30.9839
63.4267 905 30.0832
63.5441 991 31.4802
63.6616 944 30.7246
63.7791 899 29.9833
63.8966 910 30.1662
64.0142 934 30.5614
64.1317 887 29.7825
64.2492 970 31.1448
64.3668 968 31.1127
64.4843 974 31.209
64.6019 1005 31.7017
64.7195 985 31.3847
64.837 970 31.1448
64.9546 1024 32
65.0722 1018 31.9061
65.1898 1001 31.6386
65.3074 1079 32.8481
65.4249 891 29.8496
65.5425 946 30.7571
65.6601 876 29.5973
65.7777 856 29.2575
65.8952 864 29.3939
66.0128 842 29.0172
66.1304 917 30.282
66.2479 1014 31.8434
66.3655 1013 31.8277
66.483 990 31.4643
66.6005 1010 31.7805
66.718 1010 31.7805
66.8355 1010 31.7805
66.953 921 30.348
67.0705 915 30.249
67.1879 861 29.3428
67.3054 881 29.6816
67.4228 925 30.4138
67.5402 938 30.6268
67.6576 931 30.5123
67.7749 897 29.95
67.8923 931 30.5123
68.0096 912 30.1993
68.1269 946 30.7571
68.2442 932 30.5287
68.3614 1013 31.8277
68.4787 1044 32.311
68.5958 966 31.0805
68.713 1036 32.187
68.8302 967 31.0966
68.9473 1028 32.0624
69.0643 991 31.4802
69.1814 957 30.9354
69.2984 892 29.8664
69.4154 924 30.3974
69.5323 857 29.2746
69.6492 961 31
69.7661 950 30.8221
69.8829 1052 32.4345
69.9997 1056 32.4962
70.1165 1089 33
70.2332 1053 32.45
70.3499 1083 32.909
70.4665 1016 31.8748
70.5831 1063 32.6037
70.6996 980 31.305
70.8161 896 29.9333
70.9326 924 30.3974
71.049 915 30.249
71.1653 945 30.7409
71.2817 966 31.0805
71.3979 942 30.692
71.5141 979 31.289
71.6303 965 31.0644
71.7464 889 29.8161
71.8624 0 1
71.9784 0 1
72.0944 0 1
72.2102 0 1
72.3261 0 1
72.4418 0 1
72.5575 0 1
72.6732 0 1
75.1054 0 1
75.2209 0 1
75.3365 0 1
75.4521 0 1
75.5678 0 1
75.6835 0 1
75.7993 0 1
75.9151 0 1
76.031 0 1
76.147 835 28.8964
76.263 944 30.7246
76.3791 892 29.8664
76.4952 976 31.241
76.6113 924 30.3974
76.7276 962 31.0161
76.8438 983 31.3528
76.9601 996 31.5595
77.0765 1032 32.1248
77.1929 1051 32.4191
77.3093 1058 32.5269
77.4258 1105 33.2415
77.5423 1074 32.7719
77.6589 1127 33.5708
77.7755 1059 32.5423
77.8921 1051 32.4191
78.0088 1005 31.7017
78.1256 989 31.4484
78.2423 929 30.4795
78.3591 918 30.2985
78.4759 838 28.9482
78.5928 877 29.6142
78.7097 905 30.0832
78.8266 921 30.348
78.9436 1087 32.9697
79.0606 1048 32.3728
79.1776 1071 32.7261
79.2946 1102 33.1964
79.4117 1007 31.7333
79.5288 1103 33.2114
79.6459 1021 31.9531
79.7631 919 30.315
79.8802 868 29.4618
79.9974 786 28.0357
80.1147 843 29.0345
80.2319 875 29.5804
80.3491 889 29.8161
80.4664 945 30.7409
80.5837 983 31.3528
80.701 947 30.7734
80.8183 919 30.315
80.9357 982 31.3369
81.053 1029 32.078
81.1704 995 31.5436
81.2877 973 31.1929
81.4051 975 31.225
81.5225 904 30.0666
81.6399 972 31.1769
81.7573 923 30.3809
81.8747 866 29.4279
81.9922 824 28.7054
82.1096 834 28.8791
82.227 842 29.0172
82.3444 836 28.9137
82.4619 942 30.692
82.5793 940 30.6594
82.6967 913 30.2159
82.8142 943 30.7083
82.9316 1007 31.7333
83.049 1014 31.8434
83.1664 935 30.5778
83.2838 955 30.9031
83.4012 845 29.0689
83.5186 739 27.1846
83.636 707 26.5895
83.7534 730 27.0185
83.8708 826 28.7402
83.9881 852 29.189
84.1055 910 30.1662
84.2228 885 29.7489
84.3401 887 29.7825
84.4575 881 29.6816
84.5747 1020 31.9374
84.692 1019 31.9218
84.8093 976 31.241
84.9265 1016 31.8748
85.0437 964 31.0483
85.1609 910 30.1662
85.2781 912 30.1993
85.3952 853 29.2062
85.5123 835 28.8964
85.6294 810 28.4605
85.7465 819 28.6182
85.8636 917 30.282
85.9806 940 30.6594
86.0976 991 31.4802
86.2145 1012 31.8119
86.3315 1110 33.3167
86.4484 1042 32.28
86.5652 1077 32.8177
86.682 1037 32.2025
86.7988 1127 33.5708
86.9156 1039 32.2335
87.0323 991 31.4802
87.149 863 29.3769
87.2657 872 29.5296
87.3823 903 30.05
87.4988 949 30.8058
87.6154 1009 31.7648
87.7318 1036 32.187
87.8483 1073 32.7567
87.9647 1093 33.0606
88.081 1098 33.1361
88.1973 1138 33.7343
88.3136 1188 34.4674
88.4298 1146 33.8526
88.546 1141 33.7787
88.6621 1151 33.9264
88.7781 1044 32.311
88.8942 0 1
89.0101 0 1
89.126 0 1
89.2419 0 1
89.3577 0 1
89.4734 0 1
89.5891 0 1
89.7047 0 1
89.8203 0 1
89.9358 0 1
92.3269 0 1
92.4424 0 1
92.558 0 1
92.6736 0 1
92.7893 0 1
92.905 0 1
93.0208 0 1
93.1366 0 1
93.2525 0 1
93.3685 0 1
93.4845 0 1
93.6005 1087 32.9697
93.7167 1110 33.3167
93.8328 1096 33.1059
93.949 1148 33.8821
94.0653 1069 32.6956
94.1816 1172 34.2345
94.2979 1028 32.0624
94.4143 1027 32.0468
94.5307 1005 31.7017
94.6472 944 30.7246
94.7637 1021 31.9531
94.8803 1018 31.9061
94.9969 1089 33
95.1135 1045 32.3265
95.2302 1110 33.3167
95.3469 1157 34.0147
95.4637 1136 33.7046
95.5805 1144 33.8231
95.6973 1242 35.242
95.8142 1184 34.4093
95.9311 1259 35.4824
96.048 1122 33.4963
96.1649 1071 32.7261
96.2819 957 30.9354
96.3989 878 29.6311
96.516 855 29.2404
96.633 987 31.4166
96.7501 1043 32.2955
96.8673 1179 34.3366
96.9844 1149 33.8969
97.1016 1121 33.4813
97.2188 1098 33.1361
97.336 1239 35.1994
97.4532 1152 33.9411
97.5704 1132 33.6452
97.6877 1167 34.1614
97.805 1118 33.4365
97.9223 1043 32.2955
98.0396 1066 32.6497
98.1569 1031 32.1092
98.2743 972 31.1769
98.3916 989 31.4484
98.509 982 31.3369
98.6264 1127 33.5708
98.7438 1120 33.4664
98.8612 1131 33.6303
98.9786 1218 34.8999
99.096 1109 33.3017
99.2134 1223 34.9714
99.3308 1238 35.1852
99.4482 1262 35.5246
99.5656 1189 34.4819
99.6831 1137 33.7194
99.8005 1079 32.8481
99.9179 1044 32.311
100.035 890 29.8329
100.153 990 31.4643
100.27 1044 32.311
100.388 1137 33.7194
100.505 1205 34.7131
100.622 1123 33.5112
100.74 1239 35.1994
100.857 1203 34.6843
100.975 1178 34.322
101.092 1226 35.0143
101.209 1190 34.4964
101.327 1198 34.6121
101.444 1102 33.1964
101.561 1125 33.541
101.679 1042 32.28
101.796 980 31.305
101.913 996 31.5595
102.03 1035 32.1714
102.148 1073 32.7567
102.265 1161 34.0735
102.382 1270 35.6371
102.499 1147 33.8674
102.616 1232 35.0999
102.733 1245 35.2846
102.851 1208 34.7563
102.968 1309 36.1801
103.085 1272 35.6651
103.202 1198 34.6121
103.319 1166 34.1467
103.436 1056 32.4962
103.552 890 29.8329
103.669 1018 31.9061
103.786 1031 32.1092
103.903 1196 34.5832
104.02 1214 34.8425
104.137 1218 34.8999
104.253 1236 35.1568
104.37 1269 35.623
104.487 1241 35.2278
104.603 1310 36.1939
104.72 1289 35.9026
104.836 1230 35.0714
104.953 1198 34.6121
105.069 1110 33.3167
105.186 1066 32.6497
105.302 1098 33.1361
105.418 1049 32.3883
105.535 1086 32.9545
105.651 1169 34.1906
105.767 1325 36.4005
105.883 1279 35.7631
105.999 1308 36.1663
106.115 0 1
106.231 0 1
106.347 0 1
106.463 0 1
106.579 0 1
106.694 0 1
106.81 0 1
106.926 0 1
107.041 0 1
107.157 0 1
109.576 0 1
109.692 0 1
109.807 0 1
109.923 0 1
110.039 0 1
110.155 0 1
110.27 0 1
110.386 0 1
110.502 0 1
110.618 1093 33.0606
110.735 1183 34.3948
110.851 1250 35.3553
110.967 1240 35.2136
111.083 1262 35.5246
111.199 1268 35.609
111.316 1277 35.7351
111.432 1340 36.606
111.549 1305 36.1248
111.665 1276 35.7211
111.782 1140 33.7639
111.898 1136 33.7046
112.015 1058 32.5269
112.132 985 31.3847
112.248 924 30.3974
112.365 1057 32.5115
112.482 1146 33.8526
112.599 1248 35.327
112.716 1172 34.2345
112.832 1212 34.8138
112.949 1170 34.2053
113.066 1174 34.2637
113.183 1209 34.7707
113.3 1178 34.322
113.417 1114 33.3766
113.534 1073 32.7567
113.652 1047 32.3574
113.769 1007 31.7333
113.886 971 31.1609
114.003 994 31.5278
114.12 1044 32.311
114.238 1119 33.4515
114.355 1244 35.2704
114.472 1227 35.0286
114.589 1192 34.5254
114.707 1199 34.6266
114.824 1265 35.5668
114.942 1227 35.0286
115.059 1249 35.3412
115.176 1239 35.1994
115.294 1141 33.7787
115.411 1104 33.2265
115.529 1041 32.2645
115.646 1030 32.0936
115.764 861 29.3428
115.881 956 30.9192
115.999 1052 32.4345
116.116 1178 34.322
116.234 1154 33.9706
116.351 1140 33.7639
116.469 1151 33.9264
116.586 1169 34.1906
116.704 1129 33.6006
116.821 1119 33.4515
116.939 1176 34.2929
117.056 1095 33.0908
117.174 1068 32.6803
117.291 1001 31.6386
117.409 965 31.0644
117.526 942 30.692
117.644 996 31.5595
117.761 1098 33.1361
117.879 1194 34.5543
117.996 1229 35.0571
118.114 1214 34.8425
118.231 1291 35.9305
118.349 1186 34.4384
118.466 1234 35.1283
118.584 1278 35.7491
118.701 1199 34.6266
118.819 1229 35.0571
118.936 1174 34.2637
119.053 1143 33.8083
119.171 1033 32.1403
119.288 981 31.3209
119.405 942 30.692
119.523 975 31.225
119.64 1019 31.9218
119.757 1195 34.5688
119.875 1130 33.6155
119.992 1169 34.1906
120.109 1148 33.8821
120.226 1081 32.8786
120.343 1164 34.1174
120.46 1108 33.2866
120.578 1098 33.1361
120.695 1105 33.2415
120.812 998 31.5911
120.929 1016 31.8748
121.046 984 31.3688
121.163 967 31.0966
121.279 985 31.3847
121.396 1035 32.1714
121.513 1146 33.8526
121.63 1166 34.1467
121.747 1175 34.2783
121.863 1213 34.8281
121.98 1197 34.5977
122.097 1231 35.0856
122.213 1283 35.819
122.33 1180 34.3511
122.446 1230 35.0714
122.563 1162 34.0881
122.679 1119 33.4515
122.795 1095 33.0908
122.912 1040 32.249
123.028 927 30.4467
123.144 919 30.315
123.26 951 30.8383
123.377 0 1
123.493 0 1
123.609 0 1
123.725 0 1
123.84 0 1
123.956 0 1
124.072 0 1
124.188 0 1
124.303 0 1
124.419 0 1
126.852 0 1
126.968 0 1
127.083 0 1
127.199 0 1
127.315 0 1
127.431 0 1
127.547 0 1
127.663 0 1
127.779 0 1
127.895 0 1
128.011 0 1
128.127 0 1
128.243 0 1
128.359 998 31.5911
128.476 965 31.0644
128.592 1136 33.7046
128.708 1147 33.8674
128.825 1309 36.1801
128.941 1275 35.7071
129.058 1274 35.6931
129.174 1172 34.2345
129.291 1278 35.7491
129.408 1229 35.0571
129.524 1180 34.3511
129.641 1187 34.4529
129.758 1125 33.541
129.875 1018 31.9061
129.992 1115 33.3916
130.108 1078 32.8329
130.225 1080 32.8634
130.342 1186 34.4384
130.459 1188 34.4674
130.576 1281 35.7911
130.693 1219 34.9142
130.81 1266 35.5809
130.928 1249 35.3412
131.045 1261 35.5106
131.162 1281 35.7911
131.279 1300 36.0555
131.396 1291 35.9305
131.513 1235 35.1426
131.631 1235 35.1426
131.748 1090 33.0151
131.865 1060 32.5576
131.983 955 30.9031
132.1 1081 32.8786
132.217 1223 34.9714
132.335 1261 35.5106
132.452 1276 35.7211
132.57 1244 35.2704
132.687 1211 34.7994
132.804 1244 35.2704
132.922 1299 36.0416
133.039 1208 34.7563
133.157 1209 34.7707
133.274 1174 34.2637
133.392 1190 34.4964
133.509 1075 32.7872
133.627 1094 33.0757
133.744 1024 32
133.862 1147 33.8674
133.979 1205 34.7131
134.097 1202 34.6699
134.214 1228 35.0428
134.332 1287 35.8748
134.449 1261 35.5106
134.567 1258 35.4683
134.684 1350 36.7423
134.802 1287 35.8748
134.919 1304 36.1109
135.037 1276 35.7211
135.154 1270 35.6371
135.272 1210 34.7851
135.389 1060 32.5576
135.507 912 30.1993
135.624 1016 31.8748
135.742 1087 32.9697
135.859 1185 34.4238
135.977 1327 36.428
136.094 1261 35.5106
136.211 1233 35.1141
136.329 1243 35.2562
136.446 1265 35.5668
136.564 1277 35.7351
136.681 1179 34.3366
136.798 1239 35.1994
136.915 1172 34.2345
137.033 1092 33.0454
137.15 1032 32.1248
137.267 1042 32.28
137.384 1022 31.9687
137.502 1066 32.6497
137.619 1166 34.1467
137.736 1269 35.623
137.853 1267 35.5949
137.97 1262 35.5246
138.087 1250 35.3553
138.204 1286 35.8608
138.321 1293 35.9583
138.438 1355 36.8103
138.555 1323 36.3731
138.672 1288 35.8887
138.788 1299 36.0416
138.905 1279 35.7631
139.022 1084 32.9242
139.139 1023 31.9844
139.255 976 31.241
139.372 1132 33.6452
139.488 1192 34.5254
139.605 1318 36.3043
139.721 1283 35.819
139.838 1274 35.6931
139.954 1318 36.3043
140.071 1240 35.2136
140.187 1233 35.1141
140.303 1281 35.7911
140.419 1183 34.3948
140.535 1208 34.7563
140.652 1085 32.9393
140.768 0 1
140.884 0 1
141 0 1
141.115 0 1
141.231 0 1
141.347 0 1
141.463 0 1
141.578 0 1
141.694 0 1
144.104 0 1
144.219 0 1
144.335 0 1
144.45 0 1
144.566 0 1
144.682 0 1
144.798 0 1
144.914 0 1
145.03 0 1
145.146 930 30.4959
145.262 943 30.7083
145.378 972 31.1769
145.494 981 31.3209
145.61 868 29.4618
145.726 943 30.7083
145.842 897 29.95
145.959 871 29.5127
146.075 896 29.9333
146.192 871 29.5127
146.308 876 29.5973
146.425 957 30.9354
146.541 948 30.7896
146.658 958 30.9516
146.774 980 31.305
146.891 1037 32.2025
147.008 1013 31.8277
147.125 1089 33
147.241 1008 31.749
147.358 1062 32.5883
147.475 1061 32.573
147.592 1047 32.3574
147.709 1021 31.9531
147.826 963 31.0322
147.943 898 29.9666
148.06 802 28.3196
148.177 813 28.5132
148.294 890 29.8329
148.411 929 30.4795
148.528 971 31.1609
148.645 1000 31.6228
148.762 1007 31.7333
148.88 1027 32.0468
148.997 1014 31.8434
149.114 1027 32.0468
149.231 1004 31.686
149.349 967 31.0966
149.466 963 31.0322
149.583 917 30.282
149.701 945 30.7409
149.818 882 29.6985
149.935 911 30.1828
150.053 879 29.6479
150.17 922 30.3645
150.287 965 31.0644
150.405 984 31.3688
150.522 1001 31.6386
150.64 1023 31.9844
150.757 1027 32.0468
150.875 996 31.5595
150.992 1004 31.686
151.11 1064 32.619
151.227 1054 32.4654
151.344 1097 33.121
151.462 1024 32
151.579 980 31.305
151.697 864 29.3939
151.814 796 28.2135
151.932 903 30.05
152.049 893 29.8831
152.167 982 31.3369
152.284 1059 32.5423
152.402 1017 31.8904
152.519 1018 31.9061
152.636 1054 32.4654
152.754 1061 32.573
152.871 1050 32.4037
152.989 1048 32.3728
153.106 964 31.0483
153.223 979 31.289
153.341 905 30.0832
153.458 915 30.249
153.575 982 31.3369
153.693 962 31.0161
153.81 963 31.0322
153.927 1089 33
154.044 1032 32.1248
154.162 1055 32.4808
154.279 1052 32.4345
154.396 1056 32.4962
154.513 1129 33.6006
154.63 1171 34.2199
154.747 1139 33.7491
154.864 1126 33.5559
154.981 1133 33.6601
155.098 1080 32.8634
155.215 1027 32.0468
155.332 964 31.0483
155.449 943 30.7083
155.566 1064 32.619
155.683 1046 32.3419
155.8 1090 33.0151
155.917 1098 33.1361
156.033 1145 33.8378
156.15 0 1
156.267 0 1
156.383 0 1
156.5 0 1
156.617 0 1
156.733 0 1
156.85 0 1
156.966 0 1
157.082 0 1
157.199 0 1
157.315 0 1
157.431 0 1
157.547 0 1
157.664 0 1
157.78 0 1
157.896 0 1
158.012 0 1
158.128 0 1
158.244 0 1
158.359 0 1
158.475 0 1
158.591 0 1
158.706 0 1
