
6.15755 0 1
6.2731 0 1
6.3887 0 1
6.50437 0 1
6.62009 0 1
6.73587 0 1
6.8517 0 1
6.96759 0 1
7.08353 0 1
7.19952 0 1
7.31557 0 1
7.43166 0 1
7.54781 0 1
7.664 0 1
7.78024 0 1
7.89653 0 1
8.01286 0 1
8.12924 0 1
8.24567 0 1
8.36213 0 1
8.47864 0 1
8.59519 0 1
8.71178 0 1
8.82841 0 1
8.94508 0 1
9.06179 0 1
9.17853 0 1
9.29531 0 1
9.41212 0 1
9.52897 0 1
9.64584 0 1
9.76276 0 1
9.8797 0 1
9.99667 0 1
10.1137 0 1
10.2307 0 1
10.3478 0 1
10.4648 0 1
10.5819 0 1
10.6991 0 1
10.8162 0 1
10.9334 0 1
11.0506 0 1
11.1678 0 1
11.285 0 1
11.4023 0 1
11.5196 0 1
11.6369 0 1
11.7542 0 1
11.8715 0 1
11.9888 0 1
12.1062 0 1
12.2235 0 1
12.3409 0 1
12.4582 0 1
12.5756 0 1
12.693 0 1
12.8104 0 1
12.9278 0 1
13.0452 0 1
13.1626 0 1
13.28 0 1
13.3974 0 1
13.5149 0 1
13.6323 0 1
13.7497 0 1
13.8671 0 1
13.9845 0 1
14.1019 0 1
14.2193 0 1
14.3367 0 1
14.4541 0 1
14.5714 0 1
14.6888 0 1
14.8062 0 1
14.9235 0 1
15.0408 0 0
15.1581 0 0
15.2755 0 0
15.3927 0 0
15.51 0 0
15.6273 0 0
15.7445 0 0
15.8617 0 0
15.9789 0 0
16.0961 0 0
16.2132 0 0
16.3304 0 0
16.4475 0 0
16.5646 0 0
16.6816 0 0
16.7986 0 0
16.9156 0 0
17.0326 0 0
17.1496 0 0
17.2665 0 0
17.3833 0 0
17.5002 0 0
17.617 0 0
17.7338 0 0
17.8505 0 0
17.9672 0 0
18.0839 0 0
18.2005 0 0
18.3171 0 0
18.4337 0 0
18.5502 0 0
18.6666 0 0
18.7831 0 0
18.8994 0 0
19.0158 0 0
19.1321 0 0
19.2483 0 0
19.3645 0 0
19.4806 0 0
19.5967 0 0
19.7128 0 0
19.8288 0 0
19.9447 0 0
20.0606 0 1
20.1764 0 1
20.2922 0 1
20.4079 0 1
20.5236 0 1
20.6392 0 1
20.7548 0 1
20.8702 0 1
23.3078 0 1
23.4233 0 1
23.539 0 1
23.6547 0 1
23.7704 0 1
23.8862 0 1
24.0021 0 1
24.118 0 1
24.234 0 1
24.35 0 1
24.4661 5279 72.6567
24.5822 6561 81
24.6984 7619 87.2869
24.8146 8178 90.4323
24.9309 9079 95.2838
25.0472 10032 100.16
25.1636 10787 103.86
25.28 11555 107.494
25.3965 12659 112.512
25.513 13103 114.468
25.6296 13499 116.185
25.7462 13950 118.11
25.8628 14248 119.365
25.9795 14535 120.561
26.0962 14132 118.878
26.213 13697 117.034
26.3298 12608 112.285
26.4466 11949 109.311
26.5635 11572 107.573
26.6804 11716 108.24
26.7973 12159 110.268
26.9143 12464 111.642
27.0313 12543 111.996
27.1483 12601 112.254
27.2653 13193 114.861
27.3824 13555 116.426
27.4996 13593 116.589
27.6167 13323 115.425
27.7339 13145 114.652
27.8511 12671 112.566
27.9683 12322 111.005
28.0855 12235 110.612
28.2028 11768 108.48
28.3201 11486 107.173
28.4374 11376 106.658
28.5547 11829 108.761
28.6721 12322 111.005
28.7894 12849 113.353
28.9068 13187 114.835
29.0242 13643 116.803
29.1416 13620 116.705
29.259 13476 116.086
29.3764 13592 116.585
29.4939 13412 115.81
29.6113 13116 114.525
29.7288 12695 112.672
29.8463 11788 108.573
29.9638 11545 107.448
30.0812 11335 106.466
30.1987 11185 105.759
30.3162 11746 108.379
30.4337 11949 109.311
30.5512 12291 110.865
30.6687 12477 111.7
30.7862 12843 113.327
30.9037 12935 113.732
31.0212 13043 114.206
31.1387 13009 114.057
31.2562 12858 113.393
31.3737 12467 111.656
31.4912 12291 110.865
31.6087 11957 109.348
31.7262 11676 108.056
31.8436 11065 105.19
31.9611 10955 104.666
32.0785 11212 105.887
32.1959 11716 108.24
32.3134 12337 111.072
32.4308 12892 113.543
32.5482 12938 113.745
32.6655 13112 114.508
32.7829 13074 114.342
32.9002 13200 114.891
33.0176 13136 114.612
33.1349 13010 114.061
33.2522 12891 113.539
33.3694 12145 110.204
33.4867 11685 108.097
33.6039 11197 105.816
33.7211 10873 104.274
33.8383 11055 105.143
33.9554 11417 106.85
34.0725 11679 108.069
34.1896 11805 108.651
34.3067 12056 109.8
34.4237 12650 112.472
34.5407 12414 111.418
34.6577 12684 112.623
34.7746 12764 112.978
34.8915 12673 112.574
35.0084 12088 109.945
35.1252 11801 108.632
35.242 11461 107.056
35.3587 11364 106.602
35.4755 10932 104.556
35.5921 10513 102.533
35.7088 10448 102.215
35.8254 10761 103.735
35.9419 11326 106.424
36.0584 11853 108.871
36.1749 12100 110
36.2913 12070 109.864
36.4077 11919 109.174
36.524 11390 106.724
36.6403 10967 104.723
36.7565 10761 103.735
36.8727 10237 101.178
36.9889 9582 97.8877
37.1049 8745 93.5147
37.221 0 1
37.3369 0 1
37.4529 0 1
37.5687 0 1
37.6845 0 1
37.8003 0 1
37.916 0 1
38.0316 0 1
38.1472 0 1
40.5851 0 1
40.7008 0 1
40.8164 0 1
40.9322 0 1
41.048 0 1
41.1639 0 1
41.2798 0 1
41.3958 0 1
41.5118 0 1
41.6279 0 1
41.744 6040 77.7174
41.8602 6746 82.134
41.9765 7515 86.6891
42.0928 7826 88.4647
42.2091 7688 87.6812
42.3255 7648 87.4528
42.4419 7633 87.367
42.5584 7993 89.4036
42.675 8515 92.2768
42.7915 9314 96.5091
42.9081 9875 99.373
43.0248 10157 100.782
43.1415 10159 100.792
43.2582 10376 101.863
43.375 10640 103.15
43.4918 10626 103.082
43.6087 10748 103.673
43.7256 10620 103.053
43.8425 10451 102.23
43.9595 10384 101.902
44.0765 10257 101.277
44.1935 9613 98.0459
44.3106 9457 97.2471
44.4277 8883 94.2497
44.5448 8691 93.2255
44.6619 8891 94.2921
44.7791 9464 97.2831
44.8963 9808 99.0353
45.0136 10598 102.947
45.1308 10864 104.231
45.2481 11023 104.99
45.3654 10762 103.74
45.4827 10916 104.48
45.6001 10891 104.36
45.7174 10789 103.87
45.8348 10159 100.792
45.9522 9702 98.4987
46.0697 9532 97.632
46.1871 9239 96.1197
46.3046 9768 98.8332
46.422 9975 99.8749
46.5395 10156 100.777
46.657 10459 102.269
46.7745 10480 102.372
46.892 10955 104.666
47.0096 11093 105.323
47.1271 11205 105.854
47.2446 11392 106.733
47.3622 11019 104.971
47.4797 10971 104.743
47.5973 10505 102.494
47.7149 10311 101.543
47.8324 9678 98.3768
47.95 9181 95.8175
48.0675 8823 93.9308
48.1851 8811 93.8669
48.3027 9227 96.0573
48.4202 9730 98.6408
48.5378 10454 102.245
48.6554 10796 103.904
48.7729 11075 105.238
48.8904 11304 106.32
49.008 10795 103.899
49.1255 10948 104.633
49.243 10671 103.301
49.3605 10112 100.558
49.478 9539 97.6678
49.5955 9499 97.4628
49.713 9188 95.8541
49.8304 9392 96.9123
49.9479 9843 99.2119
50.0653 10462 102.284
50.1827 10730 103.586
50.3001 10748 103.673
50.4175 11183 105.75
50.5348 11063 105.181
50.6521 11106 105.385
50.7694 11251 106.071
50.8867 11306 106.33
51.004 10821 104.024
51.1212 10600 102.956
51.2384 10371 101.838
51.3556 9823 99.111
51.4727 9122 95.5092
51.5899 8536 92.3905
51.707 8767 93.6323
51.824 9249 96.1717
51.9411 9972 99.8599
52.0581 10969 104.733
52.175 11278 106.198
52.2919 11341 106.494
52.4088 11345 106.513
52.5257 11131 105.504
52.6425 11264 106.132
52.7593 11344 106.508
52.876 10860 104.211
52.9927 10511 102.523
53.1094 10079 100.394
53.226 9601 97.9847
53.3426 9304 96.4572
53.4591 9359 96.7419
53.5756 9579 97.8724
53.692 9714 98.5596
53.8084 9551 97.7292
53.9248 9216 96
54.0411 9003 94.8841
54.1573 8686 93.1987
54.2735 0 1
54.3896 0 1
54.5057 0 1
54.6217 0 1
54.7377 0 1
54.8537 0 1
54.9695 0 1
55.0853 0 1
55.2011 0 1
55.3168 0 1
55.4324 0 1
57.824 0 1
57.9396 0 1
58.0553 0 1
58.1711 0 1
58.2869 0 1
58.4028 0 1
58.5187 0 1
58.6347 0 1
58.7508 0 1
58.8669 0 1
58.983 6532 80.8208
59.0992 7840 88.5438
59.2155 8890 94.2868
59.3318 9667 98.3209
59.4482 10461 102.279
59.5646 11365 106.607
59.681 11864 108.922
59.7975 12160 110.272
59.9141 11984 109.471
60.0306 11542 107.434
60.1473 11309 106.344
60.2639 10483 102.387
60.3807 10365 101.809
60.4974 10418 102.069
60.6142 11107 105.39
60.731 11905 109.11
60.8479 12879 113.486
60.9648 13518 116.267
61.0818 13539 116.357
61.1987 13542 116.37
61.3158 13347 115.529
61.4328 13174 114.778
61.5499 12970 113.886
61.667 12387 111.297
61.7841 12119 110.086
61.9013 11620 107.796
62.0185 11609 107.745
62.1357 11917 109.165
62.253 12546 112.009
62.3702 12856 113.384
62.4875 13217 114.965
62.6049 13338 115.49
62.7222 13601 116.623
62.8396 13649 116.829
62.9569 13756 117.286
63.0743 13834 117.618
63.1918 13544 116.379
63.3092 13469 116.056
63.4267 12777 113.035
63.5441 12281 110.82
63.6616 11523 107.345
63.7791 10393 101.946
63.8966 9840 99.1968
64.0142 9899 99.4937
64.1317 10558 102.752
64.2492 11470 107.098
64.3668 12527 111.924
64.4843 12780 113.049
64.6019 13144 114.647
64.7195 13199 114.887
64.837 12996 114
64.9546 12873 113.459
65.0722 12717 112.77
65.1898 12446 111.562
65.3074 11813 108.688
65.4249 11723 108.273
65.5425 11259 106.108
65.6601 11454 107.023
65.7777 11768 108.48
65.8952 12426 111.472
66.0128 12709 112.734
66.1304 13171 114.765
66.2479 13224 114.996
66.3655 13331 115.46
66.483 13308 115.36
66.6005 13551 116.409
66.718 13479 116.099
66.8355 13195 114.869
66.953 12836 113.296
67.0705 12596 112.232
67.1879 11639 107.884
67.3054 10814 103.99
67.4228 9571 97.8315
67.5402 9111 95.4516
67.6576 9116 95.4777
67.7749 9741 98.6965
67.8923 10718 103.528
68.0096 11817 108.706
68.1269 12554 112.045
68.2442 12696 112.677
68.3614 12723 112.796
68.4787 12516 111.875
68.5958 12476 111.696
68.713 12059 109.813
68.8302 11939 109.266
68.9473 11379 106.672
69.0643 11207 105.863
69.1814 10901 104.408
69.2984 11034 105.043
69.4154 11299 106.297
69.5323 11541 107.429
69.6492 12056 109.8
69.7661 12374 111.238
69.8829 12578 112.152
69.9997 12518 111.884
70.1165 12248 110.671
70.2332 12172 110.327
70.3499 11966 109.389
70.4665 11411 106.822
70.5831 11076 105.243
70.6996 10454 102.245
70.8161 9684 98.4073
70.9326 8787 93.739
71.049 7157 84.5991
71.1653 5572 74.6458
71.2817 4643 68.1396
71.3979 4453 66.7308
71.5141 4466 66.8281
71.6303 4337 65.8559
71.7464 4139 64.3351
71.8624 0 1
71.9784 0 1
72.0944 0 1
72.2102 0 1
72.3261 0 1
72.4418 0 1
72.5575 0 1
72.6732 0 1
75.1054 0 1
75.2209 0 1
75.3365 0 1
75.4521 0 1
75.5678 0 1
75.6835 0 1
75.7993 0 1
75.9151 0 1
76.031 0 1
76.147 6421 80.1311
76.263 6707 81.8963
76.3791 6542 80.8826
76.4952 6229 78.924
76.6113 6230 78.9303
76.7276 6929 83.2406
76.8438 7870 88.713
76.9601 9261 96.2341
77.0765 10272 101.351
77.1929 10707 103.475
77.3093 10870 104.259
77.4258 10901 104.408
77.5423 10819 104.014
77.6589 10870 104.259
77.7755 10392 101.941
77.8921 9962 99.8098
78.0088 9696 98.4683
78.1256 9693 98.453
78.2423 9609 98.0255
78.3591 9604 98
78.4759 9902 99.5088
78.5928 10193 100.96
78.7097 10741 103.639
78.8266 11167 105.674
78.9436 11187 105.769
79.0606 11470 107.098
79.1776 11411 106.822
79.2946 11534 107.396
79.4117 11275 106.184
79.5288 11141 105.551
79.6459 11241 106.024
79.7631 10617 103.039
79.8802 10045 100.225
79.9974 9004 94.8894
80.1147 7844 88.5664
80.2319 6928 83.2346
80.3491 7087 84.1843
80.4664 7893 88.8426
80.5837 9107 95.4306
80.701 10357 101.769
80.8183 10956 104.671
80.9357 10908 104.441
81.053 11037 105.057
81.1704 11045 105.095
81.2877 11025 105
81.4051 10768 103.769
81.5225 10637 103.136
81.6399 10401 101.985
81.7573 9884 99.4183
81.8747 10004 100.02
81.9922 9635 98.158
82.1096 10129 100.643
82.227 10232 101.153
82.3444 10689 103.388
82.4619 11323 106.41
82.5793 11368 106.621
82.6967 11488 107.182
82.8142 11548 107.462
82.9316 11822 108.729
83.049 11844 108.83
83.1664 11442 106.967
83.2838 11296 106.283
83.4012 10840 104.115
83.5186 10359 101.779
83.636 9488 97.4064
83.7534 8233 90.7359
83.8708 6920 83.1865
83.9881 6720 81.9756
84.1055 7023 83.8033
84.2228 8269 90.934
84.3401 9573 97.8417
84.4575 10849 104.159
84.5747 11241 106.024
84.692 11321 106.4
84.8093 11376 106.658
84.9265 10942 104.604
85.0437 10819 104.014
85.1609 10539 102.66
85.2781 10208 101.035
85.3952 10011 100.055
85.5123 9867 99.3328
85.6294 10255 101.267
85.7465 10394 101.951
85.8636 10558 102.752
85.9806 11081 105.266
86.0976 11387 106.71
86.2145 11638 107.88
86.3315 11675 108.051
86.4484 11631 107.847
86.5652 11770 108.49
86.682 11508 107.275
86.7988 11310 106.348
86.9156 11241 106.024
87.0323 10766 103.759
87.149 10062 100.31
87.2657 9167 95.7445
87.3823 7533 86.7929
87.4988 6402 80.0125
87.6154 6590 81.1788
87.7318 7126 84.4156
87.8483 8438 91.8586
87.9647 9612 98.0408
88.081 10050 100.25
88.1973 9812 99.0555
88.3136 9510 97.5192
88.4298 9123 95.5144
88.546 8241 90.78
88.6621 6867 82.8674
88.7781 5323 72.9589
88.8942 0 1
89.0101 0 1
89.126 0 1
89.2419 0 1
89.3577 0 1
89.4734 0 1
89.5891 0 1
89.7047 0 1
89.8203 0 1
89.9358 0 1
92.3269 0 1
92.4424 0 1
92.558 0 1
92.6736 0 1
92.7893 0 1
92.905 0 1
93.0208 0 1
93.1366 0 1
93.2525 0 1
93.3685 0 1
93.4845 0 1
93.6005 6317 79.4796
93.7167 7056 84
93.8328 7610 87.2353
93.949 8133 90.1831
94.0653 8742 93.4987
94.1816 9074 95.2575
94.2979 9714 98.5596
94.4143 10280 101.39
94.5307 10426 102.108
94.6472 10257 101.277
94.7637 10307 101.523
94.8803 10681 103.349
94.9969 10718 103.528
95.1135 10960 104.69
95.2302 11113 105.418
95.3469 11601 107.708
95.4637 11839 108.807
95.5805 11978 109.444
95.6973 12068 109.854
95.8142 11923 109.192
95.9311 11775 108.513
96.048 11424 106.883
96.1649 11041 105.076
96.2819 10547 102.699
96.3989 9995 99.975
96.516 9273 96.2964
96.633 7481 86.4928
96.7501 6665 81.6395
96.8673 6570 81.0555
96.9844 7227 85.0118
97.1016 8372 91.4986
97.2188 9903 99.5138
97.336 10859 104.207
97.4532 11404 106.79
97.5704 11511 107.289
97.6877 11497 107.224
97.805 11398 106.761
97.9223 11013 104.943
98.0396 10547 102.699
98.1569 10387 101.917
98.2743 10199 100.99
98.3916 10109 100.544
98.509 10619 103.049
98.6264 10907 104.437
98.7438 10997 104.867
98.8612 11483 107.159
98.9786 11445 106.981
99.096 11812 108.683
99.2134 12100 110
99.3308 12282 110.824
99.4482 12151 110.232
99.5656 12066 109.845
99.6831 11939 109.266
99.8005 11667 108.014
99.9179 11014 104.948
100.035 10085 100.424
100.153 8974 94.7312
100.27 7461 86.3771
100.388 7120 84.3801
100.505 7960 89.2188
100.622 9047 95.1157
100.74 10658 103.238
100.857 11240 106.019
100.975 11721 108.264
101.092 11926 109.206
101.209 11757 108.43
101.327 11805 108.651
101.444 11563 107.531
101.561 11287 106.24
101.679 10908 104.441
101.796 10759 103.726
101.913 10505 102.494
102.03 10903 104.417
102.148 11163 105.655
102.265 11237 106.005
102.382 12184 110.381
102.499 11912 109.142
102.616 12306 110.932
102.733 12255 110.702
102.851 12431 111.494
102.968 12573 112.129
103.085 12840 113.314
103.202 12633 112.397
103.319 12223 110.558
103.436 11101 105.361
103.552 10524 102.587
103.669 9243 96.1405
103.786 7670 87.5785
103.903 7293 85.3991
104.02 7761 88.0965
104.137 9089 95.3362
104.253 10524 102.587
104.37 11538 107.415
104.487 12030 109.681
104.603 12140 110.182
104.72 11988 109.49
104.836 11893 109.055
104.953 11373 106.644
105.069 10912 104.461
105.186 10574 102.83
105.302 10473 102.338
105.418 10410 102.029
105.535 10360 101.784
105.651 10258 101.282
105.767 9896 99.4786
105.883 9605 98.0051
105.999 8700 93.2738
106.115 0 1
106.231 0 1
106.347 0 1
106.463 0 1
106.579 0 1
106.694 0 1
106.81 0 1
106.926 0 1
107.041 0 1
107.157 0 1
109.576 0 1
109.692 0 1
109.807 0 1
109.923 0 1
110.039 0 1
110.155 0 1
110.27 0 1
110.386 0 1
110.502 0 1
110.618 4191 64.7379
110.735 5360 73.212
110.851 6234 78.9557
110.967 7063 84.0417
111.083 7838 88.5325
111.199 8800 93.8083
111.316 9428 97.0979
111.432 9893 99.4636
111.549 10444 102.196
111.665 10804 103.942
111.782 10826 104.048
111.898 10583 102.874
112.015 9900 99.4987
112.132 9040 95.0789
112.248 7826 88.4647
112.365 6307 79.4166
112.482 6305 79.404
112.599 6796 82.4379
112.716 7896 88.8594
112.832 9179 95.8071
112.949 10184 100.916
113.066 10241 101.198
113.183 10716 103.518
113.3 10745 103.658
113.417 10485 102.396
113.534 10236 101.173
113.652 10027 100.135
113.769 9749 98.737
113.886 9781 98.8989
114.003 9787 98.9293
114.12 9953 99.7647
114.238 10361 101.789
114.355 10636 103.131
114.472 11139 105.541
114.589 10692 103.402
114.707 11379 106.672
114.824 11310 106.348
114.942 11133 105.513
115.059 11552 107.48
115.176 11401 106.775
115.294 11202 105.84
115.411 10955 104.666
115.529 10446 102.206
115.646 9800 98.9949
115.764 8510 92.2497
115.881 7166 84.6522
115.999 6159 78.4793
116.116 6376 79.8499
116.234 7325 85.5862
116.351 8582 92.6391
116.469 9690 98.4378
116.586 10119 100.593
116.704 10380 101.882
116.821 10513 102.533
116.939 10297 101.474
117.056 10426 102.108
117.174 10203 101.01
117.291 9955 99.7747
117.409 9720 98.5901
117.526 9919 99.5942
117.644 9909 99.544
117.761 9988 99.94
117.879 10368 101.823
117.996 10620 103.053
118.114 10747 103.668
118.231 10854 104.183
118.349 11061 105.171
118.466 10916 104.48
118.584 11041 105.076
118.701 11023 104.99
118.819 11103 105.371
118.936 10463 102.289
119.053 10389 101.926
119.171 9927 99.6343
119.288 8879 94.2284
119.405 7942 89.1179
119.523 6658 81.5966
119.64 5957 77.1816
119.757 6475 80.4674
119.875 7079 84.1368
119.992 8271 90.945
120.109 9255 96.2029
120.226 9647 98.2191
120.343 9885 99.4233
120.46 9890 99.4485
120.578 9974 99.8699
120.695 9700 98.4886
120.812 9865 99.3227
120.929 9613 98.0459
121.046 9493 97.432
121.163 9207 95.9531
121.279 9312 96.4987
121.396 9301 96.4417
121.513 9498 97.4577
121.63 9803 99.0101
121.747 9941 99.7046
121.863 9785 98.9192
121.98 10056 100.28
122.097 9811 99.0505
122.213 9982 99.91
122.33 9588 97.9183
122.446 9447 97.1957
122.563 9260 96.2289
122.679 8599 92.7308
122.795 7849 88.5946
122.912 6744 82.1219
123.028 5105 71.4493
123.144 3932 62.7057
123.26 3065 55.3624
123.377 0 1
123.493 0 1
123.609 0 1
123.725 0 1
123.84 0 1
123.956 0 1
124.072 0 1
124.188 0 1
124.303 0 1
124.419 0 1
126.852 0 1
126.968 0 1
127.083 0 1
127.199 0 1
127.315 0 1
127.431 0 1
127.547 0 1
127.663 0 1
127.779 0 1
127.895 0 1
128.011 0 1
128.127 0 1
128.243 0 1
128.359 7851 88.6059
128.476 8216 90.6422
128.592 7460 86.3713
128.708 6537 80.8517
128.825 6695 81.823
128.941 7618 87.2812
129.058 8548 92.4554
129.174 9793 98.9596
129.291 10464 102.294
129.408 10620 103.053
129.524 10612 103.015
129.641 10916 104.48
129.758 10775 103.803
129.875 10783 103.841
129.992 10575 102.835
130.108 10523 102.582
130.225 10345 101.71
130.342 10484 102.391
130.459 10369 101.828
130.576 10445 102.201
130.693 10839 104.111
130.81 11120 105.451
130.928 11140 105.546
131.045 11127 105.485
131.162 11111 105.409
131.279 11167 105.674
131.396 10950 104.642
131.513 11005 104.905
131.631 10513 102.533
131.748 10281 101.395
131.865 9787 98.9293
131.983 9243 96.1405
132.1 8151 90.2829
132.217 6981 83.5524
132.335 6737 82.0792
132.452 7131 84.4452
132.57 8132 90.1776
132.687 9329 96.5867
132.804 10149 100.742
132.922 10628 103.092
133.039 10465 102.299
133.157 10546 102.694
133.274 10842 104.125
133.392 10612 103.015
133.509 10521 102.572
133.627 10339 101.681
133.744 10233 101.158
133.862 10282 101.4
133.979 10386 101.912
134.097 10472 102.333
134.214 10775 103.803
134.332 10771 103.783
134.449 10942 104.604
134.567 10817 104.005
134.684 10841 104.12
134.802 10836 104.096
134.919 10855 104.187
135.037 10826 104.048
135.154 10476 102.352
135.272 10306 101.518
135.389 9861 99.3026
135.507 9200 95.9166
135.624 8429 91.8096
135.742 7193 84.8116
135.859 6700 81.8535
135.977 6914 83.1505
136.094 7622 87.3041
136.211 8848 94.0638
136.329 9910 99.549
136.446 10476 102.352
136.564 10446 102.206
136.681 10390 101.931
136.798 10401 101.985
136.915 10571 102.815
137.033 10545 102.689
137.15 10446 102.206
137.267 10327 101.622
137.384 10133 100.663
137.502 10157 100.782
137.619 9990 99.95
137.736 10070 100.349
137.853 10062 100.31
137.97 10153 100.762
138.087 10653 103.213
138.204 10409 102.025
138.321 10464 102.294
138.438 10272 101.351
138.555 10495 102.445
138.672 10198 100.985
138.788 9956 99.7798
138.905 9471 97.3191
139.022 8909 94.3875
139.139 8587 92.6661
139.255 7960 89.2188
139.372 6897 83.0482
139.488 5918 76.9285
139.605 5968 77.2528
139.721 6121 78.2368
139.838 6720 81.9756
139.954 7187 84.7762
140.071 6992 83.6182
140.187 5918 76.9285
140.303 5294 72.7599
140.419 4889 69.9214
140.535 4508 67.1416
140.652 4170 64.5755
140.768 0 1
140.884 0 1
141 0 1
141.115 0 1
141.231 0 1
141.347 0 1
141.463 0 1
141.578 0 1
141.694 0 1
144.104 0 1
144.219 0 1
144.335 0 1
144.45 0 1
144.566 0 1
144.682 0 1
144.798 0 1
144.914 0 1
145.03 0 1
145.146 5999 77.4532
145.262 6721 81.9817
145.378 7209 84.9058
145.494 7762 88.1022
145.61 7885 88.7975
145.726 7702 87.761
145.842 8109 90.05
145.959 7946 89.1403
146.075 7909 88.9326
146.192 7845 88.572
146.308 7741 87.983
146.425 7634 87.3728
146.541 7756 88.0682
146.658 7824 88.4534
146.774 8096 89.9778
146.891 7889 88.82
147.008 7957 89.202
147.125 8002 89.4539
147.241 7913 88.955
147.358 8010 89.4986
147.475 7958 89.2076
147.592 7719 87.8578
147.709 7631 87.3556
147.826 7191 84.7998
147.943 6731 82.0427
148.06 6193 78.6956
148.177 5771 75.9671
148.294 5266 72.5672
148.411 5558 74.552
148.528 6062 77.8588
148.645 6579 81.111
148.762 7209 84.9058
148.88 7791 88.2666
148.997 7960 89.2188
149.114 7710 87.8066
149.231 7925 89.0225
149.349 7927 89.0337
149.466 7734 87.9432
149.583 7962 89.23
149.701 7688 87.6812
149.818 7868 88.7017
149.935 7762 88.1022
150.053 7608 87.2238
150.17 7732 87.9318
150.287 7736 87.9545
150.405 7665 87.55
150.522 7959 89.2132
150.64 7860 88.6566
150.757 8034 89.6326
150.875 7959 89.2132
150.992 7995 89.4148
151.11 7970 89.2749
151.227 7840 88.5438
151.344 7515 86.6891
151.462 7163 84.6345
151.579 6847 82.7466
151.697 6452 80.3243
151.814 5975 77.2981
151.932 5485 74.0608
152.049 5610 74.8999
152.167 6017 77.5693
152.284 6547 80.9135
152.402 7280 85.3229
152.519 7766 88.1249
152.636 7897 88.8651
152.754 7969 89.2693
152.871 7889 88.82
152.989 7604 87.2009
153.106 7784 88.227
153.223 7824 88.4534
153.341 7700 87.7496
153.458 7685 87.6641
153.575 7609 87.2296
153.693 7644 87.43
153.81 7778 88.193
153.927 7636 87.3842
154.044 7707 87.7895
154.162 7829 88.4816
154.279 7768 88.1363
154.396 7811 88.3799
154.513 7966 89.2525
154.63 7868 88.7017
154.747 7797 88.3006
154.864 7657 87.5043
154.981 7371 85.8545
155.098 6966 83.4626
155.215 6709 81.9085
155.332 6245 79.0253
155.449 5870 76.6159
155.566 5552 74.5117
155.683 5860 76.5506
155.8 6123 78.2496
155.917 6849 82.7587
156.033 7242 85.0999
156.15 0 1
156.267 0 1
156.383 0 1
156.5 0 1
156.617 0 1
156.733 0 1
156.85 0 1
156.966 0 1
157.082 0 1
157.199 0 1
157.315 0 1
157.431 0 1
157.547 0 1
157.664 0 1
157.78 0 1
157.896 0 1
158.012 0 1
158.128 0 1
158.244 0 1
158.359 0 1
158.475 0 1
158.591 0 1
158.706 0 1
