
6.15755 0 1
6.2731 0 1
6.3887 0 1
6.50437 0 1
6.62009 0 1
6.73587 0 1
6.8517 0 1
6.96759 0 1
7.08353 0 1
7.19952 0 1
7.31557 0 1
7.43166 0 1
7.54781 0 1
7.664 0 1
7.78024 0 1
7.89653 0 1
8.01286 0 1
8.12924 0 1
8.24567 0 1
8.36213 0 1
8.47864 0 1
8.59519 0 1
8.71178 0 1
8.82841 0 1
8.94508 0 1
9.06179 0 1
9.17853 0 1
9.29531 0 1
9.41212 0 1
9.52897 0 1
9.64584 0 1
9.76276 0 1
9.8797 0 1
9.99667 0 1
10.1137 0 1
10.2307 0 1
10.3478 0 1
10.4648 0 1
10.5819 0 1
10.6991 0 1
10.8162 0 1
10.9334 0 1
11.0506 0 1
11.1678 0 1
11.285 0 1
11.4023 0 1
11.5196 0 1
11.6369 0 1
11.7542 0 1
11.8715 0 1
11.9888 0 1
12.1062 0 1
12.2235 0 1
12.3409 0 1
12.4582 0 1
12.5756 0 1
12.693 0 1
12.8104 0 1
12.9278 0 1
13.0452 0 1
13.1626 0 1
13.28 0 1
13.3974 0 1
13.5149 0 1
13.6323 0 1
13.7497 0 1
13.8671 0 1
13.9845 0 1
14.1019 0 1
14.2193 0 1
14.3367 0 1
14.4541 0 1
14.5714 0 1
14.6888 0 1
14.8062 0 1
14.9235 0 1
15.0408 18251 135.096
15.1581 19457 139.488
15.2755 20247 142.292
15.3927 20822 144.298
15.51 21363 146.161
15.6273 21094 145.238
15.7445 20682 143.812
15.8617 19682 140.293
15.9789 18416 135.706
16.0961 18846 137.281
16.2132 19424 139.37
16.3304 20619 143.593
16.4475 21748 147.472
16.5646 21894 147.966
16.6816 22261 149.201
16.7986 21955 148.172
16.9156 22202 149.003
17.0326 22194 148.977
17.1496 21906 148.007
17.2665 22068 148.553
17.3833 21706 147.33
17.5002 21859 147.848
17.617 21603 146.98
17.7338 21455 146.475
17.8505 21293 145.921
17.9672 21127 145.351
18.0839 20894 144.548
18.2005 21142 145.403
18.3171 21415 146.339
18.4337 22058 148.519
18.5502 22995 151.641
18.6666 23605 153.639
18.7831 23387 152.928
18.8994 23402 152.977
19.0158 22627 150.423
19.1321 22345 149.482
19.2483 21163 145.475
19.3645 20253 142.313
19.4806 18776 137.026
19.5967 17888 133.746
19.7128 18833 137.233
19.8288 19846 140.876
19.9447 18830 137.222
20.0606 0 1
20.1764 0 1
20.2922 0 1
20.4079 0 1
20.5236 0 1
20.6392 0 1
20.7548 0 1
20.8702 0 1
23.3078 0 1
23.4233 0 1
23.539 0 1
23.6547 0 1
23.7704 0 1
23.8862 0 1
24.0021 0 1
24.118 0 1
24.234 0 1
24.35 0 1
24.4661 19824 140.798
24.5822 18567 136.261
24.6984 18444 135.809
24.8146 19561 139.861
24.9309 20815 144.274
25.0472 22110 148.694
25.1636 22998 151.651
25.28 23054 151.835
25.3965 23359 152.837
25.513 23507 153.32
25.6296 23910 154.629
25.7462 24128 155.332
25.8628 23774 154.188
25.9795 23844 154.415
26.0962 23625 153.704
26.213 23136 152.105
26.3298 22737 150.788
26.4466 22284 149.278
26.5635 21678 147.235
26.6804 21871 147.888
26.7973 21619 147.034
26.9143 21673 147.218
27.0313 22184 148.943
27.1483 23043 151.799
27.2653 23054 151.835
27.3824 23606 153.642
27.4996 23544 153.441
27.6167 22836 151.116
27.7339 22477 149.923
27.8511 21587 146.925
27.9683 20718 143.937
28.0855 19293 138.899
28.2028 18592 136.352
28.3201 18398 135.639
28.4374 19138 138.34
28.5547 20683 143.816
28.6721 21943 148.132
28.7894 22546 150.153
28.9068 22950 151.493
29.0242 22555 150.183
29.1416 22353 149.509
29.259 22412 149.706
29.3764 22005 148.341
29.4939 22128 148.755
29.6113 21885 147.936
29.7288 21326 146.034
29.8463 21057 145.11
29.9638 20487 143.133
30.0812 20062 141.64
30.1987 20152 141.958
30.3162 20311 142.517
30.4337 20481 143.112
30.5512 20515 143.231
30.6687 20804 144.236
30.7862 21397 146.277
30.9037 21721 147.38
31.0212 22099 148.657
31.1387 21876 147.905
31.2562 21796 147.635
31.3737 21058 145.114
31.4912 20367 142.713
31.6087 19262 138.788
31.7262 17677 132.955
31.8436 17686 132.989
31.9611 18357 135.488
32.0785 19756 140.556
32.1959 21084 145.203
32.3134 21485 146.578
32.4308 21736 147.431
32.5482 21518 146.69
32.6655 21691 147.279
32.7829 21487 146.584
32.9002 21591 146.939
33.0176 21556 146.82
33.1349 21707 147.333
33.2522 21442 146.431
33.3694 20562 143.395
33.4867 20146 141.937
33.6039 20088 141.732
33.7211 19266 138.802
33.8383 19383 139.223
33.9554 19366 139.162
34.0725 19530 139.75
34.1896 19935 141.191
34.3067 19775 140.624
34.4237 20088 141.732
34.5407 20714 143.924
34.6577 20647 143.691
34.7746 20644 143.68
34.8915 20480 143.108
35.0084 20253 142.313
35.1252 19796 140.698
35.242 19135 138.329
35.3587 17527 132.39
35.4755 16622 128.926
35.5921 17069 130.648
35.7088 17751 133.233
35.8254 18944 137.637
35.9419 20183 142.067
36.0584 20640 143.666
36.1749 20901 144.572
36.2913 20720 143.944
36.4077 20569 143.419
36.524 20705 143.892
36.6403 20622 143.604
36.7565 20642 143.673
36.8727 20687 143.83
36.9889 19941 141.213
37.1049 19213 138.611
37.221 0 1
37.3369 0 1
37.4529 0 1
37.5687 0 1
37.6845 0 1
37.8003 0 1
37.916 0 1
38.0316 0 1
38.1472 0 1
40.5851 0 1
40.7008 0 1
40.8164 0 1
40.9322 0 1
41.048 0 1
41.1639 0 1
41.2798 0 1
41.3958 0 1
41.5118 0 1
41.6279 0 1
41.744 15570 124.78
41.8602 16579 128.759
41.9765 16626 128.942
42.0928 16496 128.437
42.2091 16029 126.606
42.3255 15784 125.634
42.4419 15432 124.226
42.5584 14878 121.975
42.675 14555 120.644
42.7915 14654 121.054
42.9081 14819 121.733
43.0248 14895 122.045
43.1415 15093 122.854
43.2582 15137 123.033
43.375 14989 122.43
43.4918 14997 122.462
43.6087 15319 123.77
43.7256 15048 122.67
43.8425 14658 121.07
43.9595 14284 119.516
44.0765 13660 116.876
44.1935 12757 112.947
44.3106 12074 109.882
44.4277 11112 105.413
44.5448 11122 105.461
44.6619 11696 108.148
44.7791 12326 111.023
44.8963 12831 113.274
45.0136 12844 113.331
45.1308 12375 111.243
45.2481 12241 110.639
45.3654 12257 110.711
45.4827 12107 110.032
45.6001 11738 108.342
45.7174 11552 107.48
45.8348 11346 106.518
45.9522 11313 106.363
46.0697 10562 102.772
46.1871 10378 101.872
46.3046 10067 100.334
46.422 10309 101.533
46.5395 10397 101.966
46.657 10458 102.264
46.7745 10493 102.435
46.892 10395 101.956
47.0096 10448 102.215
47.1271 10571 102.815
47.2446 10226 101.124
47.3622 10117 100.583
47.4797 10016 100.08
47.5973 9758 98.7826
47.7149 9260 96.2289
47.8324 8617 92.8278
47.95 8035 89.6382
48.0675 7653 87.4814
48.1851 8029 89.6047
48.3027 8756 93.5735
48.4202 9164 95.7288
48.5378 9461 97.2677
48.6554 9359 96.7419
48.7729 9292 96.395
48.8904 9349 96.6902
49.008 9540 97.6729
49.1255 9623 98.0969
49.243 9306 96.4676
49.3605 9015 94.9474
49.478 9375 96.8246
49.5955 8961 94.6626
49.713 9006 94.8999
49.8304 9072 95.247
49.9479 9534 97.6422
50.0653 9673 98.3514
50.1827 10377 101.868
50.3001 10746 103.663
50.4175 10773 103.793
50.5348 10951 104.647
50.6521 11533 107.392
50.7694 11802 108.637
50.8867 12131 110.141
51.004 12345 111.108
51.1212 12472 111.678
51.2384 12396 111.337
51.3556 11990 109.499
51.4727 11481 107.149
51.5899 11663 107.995
51.707 12886 113.517
51.824 14168 119.029
51.9411 15594 124.876
52.0581 16215 127.338
52.175 16659 129.07
52.2919 17036 130.522
52.4088 17611 132.706
52.5257 18058 134.38
52.6425 18310 135.314
52.7593 18403 135.658
52.876 18241 135.059
52.9927 18315 135.333
53.1094 18004 134.179
53.226 17803 133.428
53.3426 17591 132.631
53.4591 18178 134.826
53.5756 18581 136.312
53.692 19481 139.574
53.8084 20252 142.31
53.9248 20336 142.604
54.0411 21314 145.993
54.1573 21556 146.82
54.2735 0 1
54.3896 0 1
54.5057 0 1
54.6217 0 1
54.7377 0 1
54.8537 0 1
54.9695 0 1
55.0853 0 1
55.2011 0 1
55.3168 0 1
55.4324 0 1
57.824 0 1
57.9396 0 1
58.0553 0 1
58.1711 0 1
58.2869 0 1
58.4028 0 1
58.5187 0 1
58.6347 0 1
58.7508 0 1
58.8669 0 1
58.983 21255 145.791
59.0992 22388 149.626
59.2155 22926 151.413
59.3318 23275 152.561
59.4482 23233 152.424
59.5646 23257 152.502
59.681 23178 152.243
59.7975 22929 151.423
59.9141 22441 149.803
60.0306 21750 147.479
60.1473 20628 143.625
60.2639 19666 140.236
60.3807 19492 139.614
60.4974 20116 141.831
60.6142 21513 146.673
60.731 22794 150.977
60.8479 23313 152.686
60.9648 23446 153.121
61.0818 23256 152.499
61.1987 23120 152.053
61.3158 23343 152.784
61.4328 22640 150.466
61.5499 22606 150.353
61.667 21393 146.263
61.7841 21056 145.107
61.9013 20462 143.045
62.0185 20037 141.552
62.1357 20367 142.713
62.253 20710 143.91
62.3702 21353 146.127
62.4875 21728 147.404
62.6049 21872 147.892
62.7222 21750 147.479
62.8396 22382 149.606
62.9569 22357 149.523
63.0743 21899 147.983
63.1918 21940 148.122
63.3092 21495 146.612
63.4267 21220 145.671
63.5441 20158 141.979
63.6616 19390 139.248
63.7791 18286 135.226
63.8966 17828 133.522
64.0142 18117 134.599
64.1317 19347 139.093
64.2492 20312 142.52
64.3668 21028 145.01
64.4843 21285 145.894
64.6019 21073 145.165
64.7195 20623 143.607
64.837 20654 143.715
64.9546 20469 143.07
65.0722 19880 140.996
65.1898 19010 137.877
65.3074 18933 137.597
65.4249 17548 132.469
65.5425 17632 132.786
65.6601 17391 131.875
65.7777 18079 134.458
65.8952 18734 136.872
66.0128 19235 138.69
66.1304 19456 139.485
66.2479 20099 141.771
66.3655 20451 143.007
66.483 20678 143.798
66.6005 20941 144.71
66.718 21416 146.342
66.8355 21276 145.863
66.953 21569 146.864
67.0705 21076 145.176
67.1879 20769 144.115
67.3054 19988 141.379
67.4228 19197 138.553
67.5402 18823 137.197
67.6576 19868 140.954
67.7749 20999 144.91
67.8923 23445 153.118
68.0096 24856 157.658
68.1269 25516 159.737
68.2442 25591 159.972
68.3614 25980 161.183
68.4787 26424 162.555
68.5958 26853 163.869
68.713 26537 162.902
68.8302 25961 161.124
68.9473 25233 158.849
69.0643 24613 156.885
69.1814 23993 154.897
69.2984 24030 155.016
69.4154 25093 158.408
69.5323 26381 162.422
69.6492 26866 163.909
69.7661 28196 167.917
69.8829 27863 166.922
69.9997 28855 169.868
70.1165 29078 170.523
70.2332 29218 170.933
70.3499 29492 171.732
70.4665 30376 174.287
70.5831 29724 172.406
70.6996 29218 170.933
70.8161 28018 167.386
70.9326 26806 163.725
71.049 25612 160.037
71.1653 24018 154.977
71.2817 23586 153.577
71.3979 23461 153.17
71.5141 24757 157.344
71.6303 26584 163.046
71.7464 25929 161.025
71.8624 0 1
71.9784 0 1
72.0944 0 1
72.2102 0 1
72.3261 0 1
72.4418 0 1
72.5575 0 1
72.6732 0 1
75.1054 0 1
75.2209 0 1
75.3365 0 1
75.4521 0 1
75.5678 0 1
75.6835 0 1
75.7993 0 1
75.9151 0 1
76.031 0 1
76.147 18098 134.529
76.263 18657 136.591
76.3791 18286 135.226
76.4952 17226 131.248
76.6113 17660 132.891
76.7276 18956 137.681
76.8438 20267 142.362
76.9601 20834 144.34
77.0765 21193 145.578
77.1929 20579 143.454
77.3093 20517 143.238
77.4258 20732 143.986
77.5423 20301 142.482
77.6589 19591 139.968
77.7755 18578 136.301
77.8921 17560 132.514
78.0088 16920 130.077
78.1256 16980 130.307
78.2423 16845 129.788
78.3591 16776 129.522
78.4759 17783 133.353
78.5928 18532 136.132
78.7097 18792 137.084
78.8266 18499 136.011
78.9436 19458 139.492
79.0606 19134 138.326
79.1776 18822 137.193
79.2946 19222 138.643
79.4117 19367 139.165
79.5288 19202 138.571
79.6459 18880 137.405
79.7631 18266 135.152
79.8802 17653 132.865
79.9974 16711 129.271
80.1147 15792 125.666
80.2319 16147 127.071
80.3491 17340 131.681
80.4664 18490 135.978
80.5837 19500 139.642
80.701 19463 139.51
80.8183 19658 140.207
80.9357 19580 139.929
81.053 19127 138.3
81.1704 19342 139.076
81.2877 19131 138.315
81.4051 18380 135.573
81.5225 17343 131.693
81.6399 16451 128.261
81.7573 16267 127.542
81.8747 15778 125.611
81.9922 16010 126.531
82.1096 17043 130.549
82.227 17718 133.109
82.3444 18074 134.44
82.4619 18413 135.695
82.5793 19039 137.982
82.6967 18395 135.628
82.8142 18842 137.266
82.9316 19152 138.391
83.049 18967 137.721
83.1664 18795 137.095
83.2838 19124 138.29
83.4012 18435 135.776
83.5186 17530 132.401
83.636 16497 128.441
83.7534 15598 124.892
83.8708 15501 124.503
83.9881 16560 128.686
84.1055 18391 135.613
84.2228 19917 141.128
84.3401 20443 142.979
84.4575 20521 143.252
84.5747 20606 143.548
84.692 20609 143.558
84.8093 20250 142.302
84.9265 19981 141.354
85.0437 18762 136.974
85.1609 17890 133.754
85.2781 17333 131.655
85.3952 17257 131.366
85.5123 17203 131.16
85.6294 17865 133.66
85.7465 19091 138.17
85.8636 19834 140.833
85.9806 20423 142.909
86.0976 20453 143.014
86.2145 20547 143.342
86.3315 21056 145.107
86.4484 21430 146.39
86.5652 21670 147.207
86.682 22204 149.01
86.7988 22429 149.763
86.9156 22307 149.355
87.0323 21894 147.966
87.149 21358 146.144
87.2657 20353 142.664
87.3823 19715 140.41
87.4988 20415 142.881
87.6154 22330 149.432
87.7318 24836 157.594
87.8483 26114 161.598
87.9647 27211 164.958
88.081 27401 165.532
88.1973 27915 167.078
88.3136 28224 168
88.4298 28562 169.003
88.546 28036 167.44
88.6621 26315 162.219
88.7781 25513 159.728
88.8942 0 1
89.0101 0 1
89.126 0 1
89.2419 0 1
89.3577 0 1
89.4734 0 1
89.5891 0 1
89.7047 0 1
89.8203 0 1
89.9358 0 1
92.3269 0 1
92.4424 0 1
92.558 0 1
92.6736 0 1
92.7893 0 1
92.905 0 1
93.0208 0 1
93.1366 0 1
93.2525 0 1
93.3685 0 1
93.4845 0 1
93.6005 36051 189.871
93.7167 36126 190.068
93.8328 35151 187.486
93.949 33490 183.003
94.0653 31445 177.327
94.1816 30671 175.131
94.2979 29934 173.014
94.4143 30096 173.482
94.5307 31101 176.355
94.6472 33264 182.384
94.7637 34977 187.021
94.8803 35517 188.46
94.9969 36093 189.982
95.1135 36601 191.314
95.2302 36669 191.492
95.3469 37088 192.582
95.4637 37651 194.039
95.5805 38267 195.62
95.6973 38733 196.807
95.8142 38723 196.782
95.9311 38236 195.54
96.048 37485 193.61
96.1649 35907 189.491
96.2819 33775 183.78
96.3989 31449 177.339
96.516 31179 176.576
96.633 32710 180.859
96.7501 35624 188.743
96.8673 38152 195.325
96.9844 39132 197.818
97.1016 39907 199.767
97.2188 39256 198.131
97.336 38996 197.474
97.4532 37765 194.332
97.5704 36523 191.11
97.6877 33961 184.285
97.805 31551 177.626
97.9223 29423 171.531
98.0396 28140 167.75
98.1569 28348 168.369
98.2743 28448 168.665
98.3916 30539 174.754
98.509 31978 178.824
98.6264 31777 178.261
98.7438 32161 179.335
98.8612 32189 179.413
98.9786 31819 178.379
99.096 31558 177.646
99.2134 31365 177.102
99.3308 30868 175.693
99.4482 30419 174.41
99.5656 29629 172.131
99.6831 28415 168.567
99.8005 27785 166.688
99.9179 25958 161.115
100.035 23340 152.774
100.153 22944 151.473
100.27 24139 155.367
100.388 25936 161.047
100.505 27224 164.997
100.622 27222 164.991
100.74 27605 166.148
100.857 26883 163.96
100.975 27398 165.523
101.092 26526 162.868
101.209 26006 161.264
101.327 24507 156.547
101.444 22201 149
101.561 21039 145.048
101.679 20914 144.617
101.796 20418 142.892
101.913 21364 146.164
102.03 22804 151.01
102.148 23812 154.311
102.265 22445 149.817
102.382 26286 162.13
102.499 24682 157.105
102.616 24849 157.636
102.733 25038 158.234
102.851 24927 157.883
102.968 25102 158.436
103.085 24668 157.06
103.202 24345 156.029
103.319 23887 154.554
103.436 22647 150.489
103.552 21089 145.221
103.669 19991 141.39
103.786 20362 142.695
103.903 22007 148.348
104.02 23720 154.013
104.137 24186 155.518
104.253 24175 155.483
104.37 23809 154.302
104.487 23889 154.561
104.603 23679 153.88
104.72 23048 151.816
104.836 21957 148.179
104.953 19612 140.043
105.069 18664 136.616
105.186 17835 133.548
105.302 17903 133.802
105.418 18850 137.295
105.535 20242 142.274
105.651 20686 143.826
105.767 21075 145.172
105.883 21030 145.017
105.999 21037 145.041
106.115 0 1
106.231 0 1
106.347 0 1
106.463 0 1
106.579 0 1
106.694 0 1
106.81 0 1
106.926 0 1
107.041 0 1
107.157 0 1
109.576 0 1
109.692 0 1
109.807 0 1
109.923 0 1
110.039 0 1
110.155 0 1
110.27 0 1
110.386 0 1
110.502 0 1
110.618 16055 126.708
110.735 17268 131.408
110.851 17784 133.357
110.967 18098 134.529
111.083 18486 135.963
111.199 18881 137.408
111.316 19097 138.192
111.432 19275 138.834
111.549 18898 137.47
111.665 18960 137.695
111.782 18674 136.653
111.898 18160 134.759
112.015 17724 133.132
112.132 16454 128.273
112.248 15635 125.04
112.365 15950 126.293
112.482 17350 131.719
112.599 18010 134.201
112.716 18644 136.543
112.832 19237 138.698
112.949 18884 137.419
113.066 18507 136.04
113.183 18832 137.23
113.3 18488 135.971
113.417 18072 134.432
113.534 16683 129.163
113.652 15349 123.891
113.769 14688 121.194
113.886 13881 117.818
114.003 14270 119.457
114.12 15302 123.701
114.238 16404 128.078
114.355 16757 129.449
114.472 17229 131.259
114.589 17073 130.664
114.707 17338 131.674
114.824 17214 131.202
114.942 17429 132.019
115.059 17087 130.717
115.176 17027 130.488
115.294 16833 129.742
115.411 16393 128.035
115.529 15637 125.048
115.646 15036 122.621
115.764 13791 117.435
115.881 13169 114.756
115.999 13699 117.043
116.116 14742 121.417
116.234 15447 124.286
116.351 15803 125.71
116.469 15866 125.96
116.586 15579 124.816
116.704 15596 124.884
116.821 15723 125.391
116.939 15709 125.336
117.056 14912 122.115
117.174 13481 116.108
117.291 12912 113.631
117.409 12142 110.191
117.526 11564 107.536
117.644 12119 110.086
117.761 13285 115.261
117.879 14412 120.05
117.996 14677 121.149
118.114 15292 123.661
118.231 15585 124.84
118.349 15657 125.128
118.466 15818 125.77
118.584 16362 127.914
118.701 16494 128.429
118.819 15986 126.436
118.936 16049 126.685
119.053 15890 126.056
119.171 15426 124.201
119.288 15001 122.479
119.405 14275 119.478
119.523 13825 117.58
119.64 14400 120
119.757 15383 124.028
119.875 16397 128.051
119.992 17225 131.244
120.109 17601 132.669
120.226 17934 133.918
120.343 17801 133.42
120.46 18106 134.559
120.578 18424 135.735
120.695 18150 134.722
120.812 16827 129.719
120.929 16087 126.835
121.046 15118 122.955
121.163 14254 119.39
121.279 14183 119.092
121.396 15265 123.552
121.513 16836 129.754
121.63 18211 134.948
121.747 19327 139.022
121.863 19659 140.211
121.98 20067 141.658
122.097 20084 141.718
122.213 20476 143.094
122.33 20651 143.705
122.446 20540 143.318
122.563 20405 142.846
122.679 20239 142.264
122.795 19995 141.404
122.912 19507 139.667
123.028 18756 136.953
123.144 17807 133.443
123.26 17061 130.618
123.377 0 1
123.493 0 1
123.609 0 1
123.725 0 1
123.84 0 1
123.956 0 1
124.072 0 1
124.188 0 1
124.303 0 1
124.419 0 1
126.852 0 1
126.968 0 1
127.083 0 1
127.199 0 1
127.315 0 1
127.431 0 1
127.547 0 1
127.663 0 1
127.779 0 1
127.895 0 1
128.011 0 1
128.127 0 1
128.243 0 1
128.359 21223 145.681
128.476 20234 142.246
128.592 19331 139.036
128.708 18805 137.131
128.825 19388 139.241
128.941 20553 143.363
129.058 21908 148.014
129.174 22392 149.64
129.291 22409 149.696
129.408 22766 150.884
129.524 22631 150.436
129.641 22635 150.449
129.758 22304 149.345
129.875 20784 144.167
129.992 19390 139.248
130.108 18276 135.189
130.225 16839 129.765
130.342 16103 126.898
130.459 16624 128.934
130.576 17618 132.733
130.693 19174 138.47
130.81 19827 140.808
130.928 20421 142.902
131.045 20527 143.272
131.162 20998 144.907
131.279 21199 145.599
131.396 20860 144.43
131.513 20685 143.823
131.631 20354 142.667
131.748 19749 140.531
131.865 19397 139.273
131.983 18533 136.136
132.1 17447 132.087
132.217 16751 129.426
132.335 16872 129.892
132.452 17390 131.871
132.57 18569 136.268
132.687 18570 136.272
132.804 19870 140.961
132.922 18956 137.681
133.039 19241 138.712
133.157 18641 136.532
133.274 18749 136.927
133.392 17954 133.993
133.509 16483 128.386
133.627 15459 124.334
133.744 14044 118.507
133.862 13628 116.739
133.979 13508 116.224
134.097 13952 118.119
134.214 15015 122.536
134.332 15171 123.171
134.449 16082 126.815
134.567 15906 126.119
134.684 16455 128.277
134.802 16137 127.031
134.919 16476 128.359
135.037 15778 125.611
135.154 15625 125
135.272 15268 123.564
135.389 15144 123.061
135.507 14511 120.462
135.624 13749 117.256
135.742 12906 113.605
135.859 12878 113.481
135.977 12826 113.252
136.094 13188 114.839
136.211 14060 118.575
136.329 14205 119.185
136.446 14295 119.562
136.564 14449 120.204
136.681 14014 118.381
136.798 14284 119.516
136.915 14128 118.861
137.033 13641 116.795
137.15 12853 113.371
137.267 12046 109.754
137.384 11076 105.243
137.502 10693 103.407
137.619 10717 103.523
137.736 11535 107.401
137.853 11984 109.471
137.97 12890 113.534
138.087 13724 117.149
138.204 14156 118.979
138.321 14559 120.661
138.438 14730 121.367
138.555 15055 122.699
138.672 15221 123.373
138.788 14721 121.33
138.905 14885 122.004
139.022 14680 121.161
139.139 14483 120.345
139.255 14244 119.348
139.372 13628 116.739
139.488 13435 115.909
139.605 13824 117.576
139.721 14509 120.453
139.838 15587 124.848
139.954 15847 125.885
140.071 15967 126.361
140.187 16584 128.779
140.303 16363 127.918
140.419 16671 129.116
140.535 16545 128.627
140.652 15944 126.27
140.768 0 1
140.884 0 1
141 0 1
141.115 0 1
141.231 0 1
141.347 0 1
141.463 0 1
141.578 0 1
141.694 0 1
144.104 0 1
144.219 0 1
144.335 0 1
144.45 0 1
144.566 0 1
144.682 0 1
144.798 0 1
144.914 0 1
145.03 0 1
145.146 13686 116.987
145.262 14013 118.377
145.378 14060 118.575
145.494 14138 118.903
145.61 13957 118.14
145.726 13690 117.004
145.842 13264 115.169
145.959 12467 111.656
146.075 11539 107.42
146.192 10812 103.981
146.308 10330 101.637
146.425 10248 101.232
146.541 10651 103.204
146.658 10641 103.155
146.774 11327 106.428
146.891 11766 108.471
147.008 11920 109.179
147.125 12407 111.387
147.241 12284 110.833
147.358 12304 110.923
147.475 12139 110.177
147.592 11868 108.94
147.709 11622 107.805
147.826 11299 106.297
147.943 10790 103.875
148.06 10562 102.772
148.177 9973 99.8649
148.294 9960 99.7998
148.411 10003 100.015
148.528 10526 102.596
148.645 10684 103.363
148.762 10739 103.629
148.88 10815 103.995
148.997 11279 106.203
149.114 10090 100.449
149.231 10743 103.648
149.349 10498 102.46
149.466 10277 101.376
149.583 9526 97.6012
149.701 8992 94.8262
149.818 8622 92.8547
149.935 8382 91.5533
150.053 8441 91.8749
150.17 8683 93.1826
150.287 9027 95.0105
150.405 9463 97.278
150.522 9885 99.4233
150.64 9905 99.5239
150.757 10394 101.951
150.875 10583 102.874
150.992 10542 102.674
151.11 10838 104.106
151.227 10483 102.387
151.344 10442 102.186
151.462 10305 101.514
151.579 10057 100.285
151.697 9890 99.4485
151.814 9577 97.8621
151.932 9556 97.7548
152.049 9695 98.4632
152.167 10265 101.316
152.284 10684 103.363
152.402 10928 104.537
152.519 10961 104.695
152.636 11108 105.394
152.754 11344 106.508
152.871 11130 105.499
152.989 11153 105.608
153.106 10815 103.995
153.223 10025 100.125
153.341 9711 98.5444
153.458 9194 95.8853
153.575 8953 94.6203
153.693 9508 97.509
153.81 9750 98.7421
153.927 10283 101.405
154.044 10798 103.913
154.162 11091 105.314
154.279 11565 107.541
154.396 12115 110.068
154.513 12447 111.566
154.63 12830 113.27
154.747 12520 111.893
154.864 12580 112.161
154.981 12509 111.844
155.098 12788 113.084
155.215 12297 110.892
155.332 12257 110.711
155.449 11810 108.674
155.566 12131 110.141
155.683 12630 112.383
155.8 13059 114.276
155.917 13682 116.97
156.033 13844 117.661
156.15 0 1
156.267 0 1
156.383 0 1
156.5 0 1
156.617 0 1
156.733 0 1
156.85 0 1
156.966 0 1
157.082 0 1
157.199 0 1
157.315 0 1
157.431 0 1
157.547 0 1
157.664 0 1
157.78 0 1
157.896 0 1
158.012 0 1
158.128 0 1
158.244 0 1
158.359 0 1
158.475 0 1
158.591 0 1
158.706 0 1
