
6.15755 0 1
6.2731 0 1
6.3887 0 1
6.50437 0 1
6.62009 0 1
6.73587 0 1
6.8517 0 1
6.96759 0 1
7.08353 0 1
7.19952 0 1
7.31557 0 1
7.43166 0 1
7.54781 0 1
7.664 0 1
7.78024 0 1
7.89653 0 1
8.01286 0 1
8.12924 0 1
8.24567 0 1
8.36213 0 1
8.47864 0 1
8.59519 0 1
8.71178 0 1
8.82841 0 1
8.94508 0 1
9.06179 0 1
9.17853 0 1
9.29531 0 1
9.41212 0 1
9.52897 0 1
9.64584 0 1
9.76276 0 1
9.8797 0 1
9.99667 0 1
10.1137 0 1
10.2307 0 1
10.3478 0 1
10.4648 0 1
10.5819 0 1
10.6991 0 1
10.8162 0 1
10.9334 0 1
11.0506 0 1
11.1678 0 1
11.285 0 1
11.4023 0 1
11.5196 0 1
11.6369 0 1
11.7542 0 1
11.8715 0 1
11.9888 0 1
12.1062 0 1
12.2235 0 1
12.3409 0 1
12.4582 0 1
12.5756 0 1
12.693 0 1
12.8104 0 1
12.9278 0 1
13.0452 0 1
13.1626 0 1
13.28 0 1
13.3974 0 1
13.5149 0 1
13.6323 0 1
13.7497 0 1
13.8671 0 1
13.9845 0 1
14.1019 0 1
14.2193 0 1
14.3367 0 1
14.4541 0 1
14.5714 0 1
14.6888 0 1
14.8062 0 1
14.9235 0 1
15.0408 0 0
15.1581 0 0
15.2755 0 0
15.3927 0 0
15.51 0 0
15.6273 0 0
15.7445 0 0
15.8617 0 0
15.9789 0 0
16.0961 0 0
16.2132 0 0
16.3304 0 0
16.4475 0 0
16.5646 0 0
16.6816 0 0
16.7986 0 0
16.9156 0 0
17.0326 0 0
17.1496 0 0
17.2665 0 0
17.3833 0 0
17.5002 0 0
17.617 0 0
17.7338 0 0
17.8505 0 0
17.9672 0 0
18.0839 0 0
18.2005 0 0
18.3171 0 0
18.4337 0 0
18.5502 0 0
18.6666 0 0
18.7831 0 0
18.8994 0 0
19.0158 0 0
19.1321 0 0
19.2483 0 0
19.3645 0 0
19.4806 0 0
19.5967 0 0
19.7128 0 0
19.8288 0 0
19.9447 0 0
20.0606 0 1
20.1764 0 1
20.2922 0 1
20.4079 0 1
20.5236 0 1
20.6392 0 1
20.7548 0 1
20.8702 0 1
23.3078 0 1
23.4233 0 1
23.539 0 1
23.6547 0 1
23.7704 0 1
23.8862 0 1
24.0021 0 1
24.118 0 1
24.234 0 1
24.35 0 1
24.4661 748 27.3496
24.5822 825 28.7228
24.6984 741 27.2213
24.8146 758 27.5318
24.9309 833 28.8617
25.0472 827 28.7576
25.1636 843 29.0345
25.28 847 29.1033
25.3965 863 29.3769
25.513 801 28.3019
25.6296 863 29.3769
25.7462 900 30
25.8628 842 29.0172
25.9795 850 29.1548
26.0962 883 29.7153
26.213 841 29
26.3298 847 29.1033
26.4466 809 28.4429
26.5635 852 29.189
26.6804 852 29.189
26.7973 766 27.6767
26.9143 742 27.2397
27.0313 708 26.6083
27.1483 721 26.8514
27.2653 801 28.3019
27.3824 797 28.2312
27.4996 789 28.0891
27.6167 784 28
27.7339 786 28.0357
27.8511 682 26.1151
27.9683 708 26.6083
28.0855 698 26.4197
28.2028 739 27.1846
28.3201 724 26.9072
28.4374 736 27.1293
28.5547 747 27.3313
28.6721 782 27.9643
28.7894 779 27.9106
28.9068 776 27.8568
29.0242 808 28.4253
29.1416 832 28.8444
29.259 893 29.8831
29.3764 767 27.6948
29.4939 772 27.7849
29.6113 725 26.9258
29.7288 775 27.8388
29.8463 780 27.9285
29.9638 793 28.1603
30.0812 775 27.8388
30.1987 788 28.0713
30.3162 722 26.8701
30.4337 696 26.3818
30.5512 653 25.5539
30.6687 728 26.9815
30.7862 734 27.0924
30.9037 686 26.1916
31.0212 757 27.5136
31.1387 745 27.2947
31.2562 780 27.9285
31.3737 747 27.3313
31.4912 721 26.8514
31.6087 646 25.4165
31.7262 708 26.6083
31.8436 702 26.4953
31.9611 690 26.2679
32.0785 769 27.7308
32.1959 763 27.6225
32.3134 781 27.9464
32.4308 765 27.6586
32.5482 762 27.6043
32.6655 804 28.3549
32.7829 841 29
32.9002 791 28.1247
33.0176 792 28.1425
33.1349 825 28.7228
33.2522 750 27.3861
33.3694 745 27.2947
33.4867 728 26.9815
33.6039 776 27.8568
33.7211 760 27.5681
33.8383 783 27.9821
33.9554 754 27.4591
34.0725 659 25.671
34.1896 671 25.9037
34.3067 583 24.1454
34.4237 676 26
34.5407 695 26.3629
34.6577 697 26.4008
34.7746 648 25.4558
34.8915 674 25.9615
35.0084 699 26.4386
35.1252 675 25.9808
35.242 679 26.0576
35.3587 655 25.593
35.4755 745 27.2947
35.5921 716 26.7582
35.7088 680 26.0768
35.8254 721 26.8514
35.9419 695 26.3629
36.0584 738 27.1662
36.1749 799 28.2666
36.2913 734 27.0924
36.4077 686 26.1916
36.524 766 27.6767
36.6403 727 26.9629
36.7565 693 26.3249
36.8727 775 27.8388
36.9889 766 27.6767
37.1049 680 26.0768
37.221 0 1
37.3369 0 1
37.4529 0 1
37.5687 0 1
37.6845 0 1
37.8003 0 1
37.916 0 1
38.0316 0 1
38.1472 0 1
40.5851 0 1
40.7008 0 1
40.8164 0 1
40.9322 0 1
41.048 0 1
41.1639 0 1
41.2798 0 1
41.3958 0 1
41.5118 0 1
41.6279 0 1
41.744 569 23.8537
41.8602 600 24.4949
41.9765 621 24.9199
42.0928 668 25.8457
42.2091 652 25.5343
42.3255 606 24.6171
42.4419 626 25.02
42.5584 594 24.3721
42.675 651 25.5147
42.7915 628 25.0599
42.9081 598 24.454
43.0248 612 24.7386
43.1415 518 22.7596
43.2582 533 23.0868
43.375 533 23.0868
43.4918 589 24.2693
43.6087 536 23.1517
43.7256 529 23
43.8425 546 23.3666
43.9595 523 22.8692
44.0765 535 23.1301
44.1935 579 24.0624
44.3106 570 23.8747
44.4277 537 23.1733
44.5448 547 23.388
44.6619 568 23.8328
44.7791 543 23.3024
44.8963 560 23.6643
45.0136 575 23.9792
45.1308 553 23.516
45.2481 519 22.7816
45.3654 562 23.7065
45.4827 528 22.9783
45.6001 554 23.5372
45.7174 503 22.4277
45.8348 499 22.3383
45.9522 515 22.6936
46.0697 541 23.2594
46.1871 508 22.5389
46.3046 485 22.0227
46.422 526 22.9347
46.5395 486 22.0454
46.657 432 20.7846
46.7745 425 20.6155
46.892 415 20.3715
47.0096 422 20.5426
47.1271 435 20.8567
47.2446 421 20.5183
47.3622 413 20.3224
47.4797 422 20.5426
47.5973 397 19.9249
47.7149 402 20.0499
47.8324 383 19.5704
47.95 402 20.0499
48.0675 408 20.199
48.1851 432 20.7846
48.3027 412 20.2978
48.4202 425 20.6155
48.5378 406 20.1494
48.6554 422 20.5426
48.7729 458 21.4009
48.8904 395 19.8746
49.008 415 20.3715
49.1255 408 20.199
49.243 417 20.4206
49.3605 434 20.8327
49.478 398 19.9499
49.5955 463 21.5174
49.713 445 21.095
49.8304 410 20.2485
49.9479 431 20.7605
50.0653 417 20.4206
50.1827 373 19.3132
50.3001 359 18.9473
50.4175 378 19.4422
50.5348 350 18.7083
50.6521 435 20.8567
50.7694 413 20.3224
50.8867 451 21.2368
51.004 429 20.7123
51.1212 442 21.0238
51.2384 461 21.4709
51.3556 449 21.1896
51.4727 457 21.3776
51.5899 520 22.8035
51.707 538 23.1948
51.824 520 22.8035
51.9411 505 22.4722
52.0581 513 22.6495
52.175 564 23.7487
52.2919 545 23.3452
52.4088 560 23.6643
52.5257 539 23.2164
52.6425 541 23.2594
52.7593 546 23.3666
52.876 594 24.3721
52.9927 558 23.622
53.1094 594 24.3721
53.226 550 23.4521
53.3426 601 24.5153
53.4591 563 23.7276
53.5756 578 24.0416
53.692 598 24.454
53.8084 573 23.9374
53.9248 511 22.6053
54.0411 499 22.3383
54.1573 483 21.9773
54.2735 0 1
54.3896 0 1
54.5057 0 1
54.6217 0 1
54.7377 0 1
54.8537 0 1
54.9695 0 1
55.0853 0 1
55.2011 0 1
55.3168 0 1
55.4324 0 1
57.824 0 1
57.9396 0 1
58.0553 0 1
58.1711 0 1
58.2869 0 1
58.4028 0 1
58.5187 0 1
58.6347 0 1
58.7508 0 1
58.8669 0 1
58.983 613 24.7588
59.0992 550 23.4521
59.2155 545 23.3452
59.3318 557 23.6008
59.4482 568 23.8328
59.5646 585 24.1868
59.681 542 23.2809
59.7975 591 24.3105
59.9141 617 24.8395
60.0306 601 24.5153
60.1473 659 25.671
60.2639 606 24.6171
60.3807 636 25.219
60.4974 584 24.1661
60.6142 606 24.6171
60.731 609 24.6779
60.8479 648 25.4558
60.9648 632 25.1396
61.0818 620 24.8998
61.1987 592 24.3311
61.3158 559 23.6432
61.4328 624 24.98
61.5499 554 23.5372
61.667 550 23.4521
61.7841 558 23.622
61.9013 559 23.6432
62.0185 619 24.8797
62.1357 576 24
62.253 581 24.1039
62.3702 532 23.0651
62.4875 523 22.8692
62.6049 483 21.9773
62.7222 489 22.1133
62.8396 508 22.5389
62.9569 507 22.5167
63.0743 519 22.7816
63.1918 509 22.561
63.3092 530 23.0217
63.4267 523 22.8692
63.5441 536 23.1517
63.6616 502 22.4054
63.7791 513 22.6495
63.8966 491 22.1585
64.0142 518 22.7596
64.1317 519 22.7816
64.2492 549 23.4307
64.3668 504 22.4499
64.4843 484 22
64.6019 517 22.7376
64.7195 559 23.6432
64.837 495 22.2486
64.9546 497 22.2935
65.0722 507 22.5167
65.1898 499 22.3383
65.3074 533 23.0868
65.4249 506 22.4944
65.5425 476 21.8174
65.6601 505 22.4722
65.7777 499 22.3383
65.8952 514 22.6716
66.0128 505 22.4722
66.1304 475 21.7945
66.2479 448 21.166
66.3655 426 20.6398
66.483 407 20.1742
66.6005 410 20.2485
66.718 446 21.1187
66.8355 419 20.4695
66.953 438 20.9284
67.0705 460 21.4476
67.1879 462 21.4942
67.3054 492 22.1811
67.4228 467 21.6102
67.5402 456 21.3542
67.6576 463 21.5174
67.7749 443 21.0476
67.8923 492 22.1811
68.0096 458 21.4009
68.1269 449 21.1896
68.2442 427 20.664
68.3614 450 21.2132
68.4787 456 21.3542
68.5958 462 21.4942
68.713 448 21.166
68.8302 454 21.3073
68.9473 504 22.4499
69.0643 423 20.567
69.1814 493 22.2036
69.2984 488 22.0907
69.4154 459 21.4243
69.5323 470 21.6795
69.6492 440 20.9762
69.7661 434 20.8327
69.8829 379 19.4679
69.9997 391 19.7737
70.1165 367 19.1572
70.2332 412 20.2978
70.3499 414 20.347
70.4665 426 20.6398
70.5831 342 18.4932
70.6996 457 21.3776
70.8161 436 20.8806
70.9326 440 20.9762
71.049 429 20.7123
71.1653 388 19.6977
71.2817 409 20.2237
71.3979 384 19.5959
71.5141 388 19.6977
71.6303 361 19
71.7464 361 19
71.8624 0 1
71.9784 0 1
72.0944 0 1
72.2102 0 1
72.3261 0 1
72.4418 0 1
72.5575 0 1
72.6732 0 1
75.1054 0 1
75.2209 0 1
75.3365 0 1
75.4521 0 1
75.5678 0 1
75.6835 0 1
75.7993 0 1
75.9151 0 1
76.031 0 1
76.147 310 17.6068
76.263 316 17.7764
76.3791 320 17.8885
76.4952 339 18.412
76.6113 350 18.7083
76.7276 364 19.0788
76.8438 344 18.5472
76.9601 324 18
77.0765 296 17.2047
77.1929 325 18.0278
77.3093 287 16.9411
77.4258 295 17.1756
77.5423 350 18.7083
77.6589 293 17.1172
77.7755 345 18.5742
77.8921 284 16.8523
78.0088 296 17.2047
78.1256 286 16.9115
78.2423 270 16.4317
78.3591 252 15.8745
78.4759 284 16.8523
78.5928 250 15.8114
78.7097 253 15.906
78.8266 267 16.3401
78.9436 247 15.7162
79.0606 231 15.1987
79.1776 197 14.0357
79.2946 186 13.6382
79.4117 217 14.7309
79.5288 252 15.8745
79.6459 241 15.5242
79.7631 226 15.0333
79.8802 225 15
79.9974 220 14.8324
80.1147 201 14.1774
80.2319 252 15.8745
80.3491 220 14.8324
80.4664 196 14
80.5837 186 13.6382
80.701 177 13.3041
80.8183 209 14.4568
80.9357 190 13.784
81.053 193 13.8924
81.1704 158 12.5698
81.2877 165 12.8452
81.4051 171 13.0767
81.5225 161 12.6886
81.6399 139 11.7898
81.7573 143 11.9583
81.8747 151 12.2882
81.9922 136 11.6619
82.1096 129 11.3578
82.227 142 11.9164
82.3444 119 10.9087
82.4619 134 11.5758
82.5793 116 10.7703
82.6967 106 10.2956
82.8142 104 10.198
82.9316 100 10
83.049 103 10.1489
83.1664 96 9.79796
83.2838 98 9.89949
83.4012 102 10.0995
83.5186 94 9.69536
83.636 85 9.21954
83.7534 82 9.05539
83.8708 79 8.88819
83.9881 75 8.66025
84.1055 78 8.83176
84.2228 71 8.42615
84.3401 69 8.30662
84.4575 66 8.12404
84.5747 64 8
84.692 79 8.88819
84.8093 54 7.34847
84.9265 59 7.68115
85.0437 56 7.48331
85.1609 67 8.18535
85.2781 63 7.93725
85.3952 60 7.74597
85.5123 45 6.7082
85.6294 41 6.40312
85.7465 51 7.14143
85.8636 70 8.3666
85.9806 44 6.63325
86.0976 46 6.78233
86.2145 44 6.63325
86.3315 52 7.2111
86.4484 54 7.34847
86.5652 57 7.54983
86.682 77 8.77496
86.7988 67 8.18535
86.9156 69 8.30662
87.0323 65 8.06226
87.149 80 8.94427
87.2657 78 8.83176
87.3823 85 9.21954
87.4988 80 8.94427
87.6154 91 9.53939
87.7318 103 10.1489
87.8483 123 11.0905
87.9647 123 11.0905
88.081 111 10.5357
88.1973 141 11.8743
88.3136 116 10.7703
88.4298 155 12.4499
88.546 118 10.8628
88.6621 164 12.8062
88.7781 144 12
88.8942 0 1
89.0101 0 1
89.126 0 1
89.2419 0 1
89.3577 0 1
89.4734 0 1
89.5891 0 1
89.7047 0 1
89.8203 0 1
89.9358 0 1
92.3269 0 1
92.4424 0 1
92.558 0 1
92.6736 0 1
92.7893 0 1
92.905 0 1
93.0208 0 1
93.1366 0 1
93.2525 0 1
93.3685 0 1
93.4845 0 1
93.6005 197 14.0357
93.7167 243 15.5885
93.8328 232 15.2315
93.949 235 15.3297
94.0653 233 15.2643
94.1816 235 15.3297
94.2979 197 14.0357
94.4143 192 13.8564
94.5307 203 14.2478
94.6472 191 13.8203
94.7637 181 13.4536
94.8803 177 13.3041
94.9969 175 13.2288
95.1135 185 13.6015
95.2302 186 13.6382
95.3469 163 12.7671
95.4637 124 11.1355
95.5805 126 11.225
95.6973 166 12.8841
95.8142 178 13.3417
95.9311 197 14.0357
96.048 189 13.7477
96.1649 219 14.7986
96.2819 210 14.4914
96.3989 193 13.8924
96.516 266 16.3095
96.633 250 15.8114
96.7501 243 15.5885
96.8673 226 15.0333
96.9844 223 14.9332
97.1016 287 16.9411
97.2188 247 15.7162
97.336 297 17.2337
97.4532 281 16.7631
97.5704 271 16.4621
97.6877 300 17.3205
97.805 314 17.72
97.9223 277 16.6433
98.0396 319 17.8606
98.1569 341 18.4662
98.2743 303 17.4069
98.3916 302 17.3781
98.509 348 18.6548
98.6264 310 17.6068
98.7438 338 18.3848
98.8612 330 18.1659
98.9786 295 17.1756
99.096 224 14.9666
99.2134 238 15.4272
99.3308 333 18.2483
99.4482 385 19.6214
99.5656 363 19.0526
99.6831 405 20.1246
99.8005 381 19.5192
99.9179 420 20.4939
100.035 429 20.7123
100.153 428 20.6882
100.27 439 20.9523
100.388 433 20.8087
100.505 408 20.199
100.622 465 21.5639
100.74 451 21.2368
100.857 421 20.5183
100.975 458 21.4009
101.092 452 21.2603
101.209 460 21.4476
101.327 469 21.6564
101.444 448 21.166
101.561 479 21.8861
101.679 490 22.1359
101.796 468 21.6333
101.913 437 20.9045
102.03 509 22.561
102.148 486 22.0454
102.265 484 22
102.382 446 21.1187
102.499 436 20.8806
102.616 368 19.1833
102.733 311 17.6352
102.851 384 19.5959
102.968 479 21.8861
103.085 492 22.1811
103.202 491 22.1585
103.319 551 23.4734
103.436 459 21.4243
103.552 478 21.8632
103.669 514 22.6716
103.786 508 22.5389
103.903 473 21.7486
104.02 489 22.1133
104.137 490 22.1359
104.253 543 23.3024
104.37 499 22.3383
104.487 506 22.4944
104.603 504 22.4499
104.72 526 22.9347
104.836 523 22.8692
104.953 526 22.9347
105.069 521 22.8254
105.186 489 22.1133
105.302 561 23.6854
105.418 509 22.561
105.535 559 23.6432
105.651 495 22.2486
105.767 501 22.383
105.883 477 21.8403
105.999 458 21.4009
106.115 0 1
106.231 0 1
106.347 0 1
106.463 0 1
106.579 0 1
106.694 0 1
106.81 0 1
106.926 0 1
107.041 0 1
107.157 0 1
109.576 0 1
109.692 0 1
109.807 0 1
109.923 0 1
110.039 0 1
110.155 0 1
110.27 0 1
110.386 0 1
110.502 0 1
110.618 388 19.6977
110.735 404 20.0998
110.851 406 20.1494
110.967 409 20.2237
111.083 345 18.5742
111.199 313 17.6918
111.316 292 17.088
111.432 331 18.1934
111.549 351 18.735
111.665 362 19.0263
111.782 403 20.0749
111.898 395 19.8746
112.015 366 19.1311
112.132 382 19.5448
112.248 381 19.5192
112.365 381 19.5192
112.482 378 19.4422
112.599 312 17.6635
112.716 326 18.0555
112.832 312 17.6635
112.949 318 17.8326
113.066 357 18.8944
113.183 331 18.1934
113.3 298 17.2627
113.417 291 17.0587
113.534 305 17.4642
113.652 305 17.4642
113.769 297 17.2337
113.886 304 17.4356
114.003 332 18.2209
114.12 330 18.1659
114.238 282 16.7929
114.355 270 16.4317
114.472 261 16.1555
114.589 272 16.4924
114.707 252 15.8745
114.824 235 15.3297
114.942 242 15.5563
115.059 283 16.8226
115.176 283 16.8226
115.294 282 16.7929
115.411 253 15.906
115.529 276 16.6132
115.646 309 17.5784
115.764 310 17.6068
115.881 289 17
115.999 270 16.4317
116.116 288 16.9706
116.234 281 16.7631
116.351 260 16.1245
116.469 270 16.4317
116.586 294 17.1464
116.704 248 15.748
116.821 248 15.748
116.939 297 17.2337
117.056 276 16.6132
117.174 249 15.7797
117.291 233 15.2643
117.409 244 15.6205
117.526 239 15.4596
117.644 267 16.3401
117.761 275 16.5831
117.879 260 16.1245
117.996 223 14.9332
118.114 212 14.5602
118.231 254 15.9374
118.349 276 16.6132
118.466 255 15.9687
118.584 267 16.3401
118.701 261 16.1555
118.819 237 15.3948
118.936 275 16.5831
119.053 288 16.9706
119.171 262 16.1864
119.288 269 16.4012
119.405 299 17.2916
119.523 283 16.8226
119.64 303 17.4069
119.757 248 15.748
119.875 288 16.9706
119.992 300 17.3205
120.109 262 16.1864
120.226 285 16.8819
120.343 279 16.7033
120.46 255 15.9687
120.578 296 17.2047
120.695 276 16.6132
120.812 285 16.8819
120.929 278 16.6733
121.046 299 17.2916
121.163 264 16.2481
121.279 301 17.3494
121.396 309 17.5784
121.513 237 15.3948
121.63 273 16.5227
121.747 200 14.1421
121.863 232 15.2315
121.98 238 15.4272
122.097 249 15.7797
122.213 309 17.5784
122.33 257 16.0312
122.446 277 16.6433
122.563 303 17.4069
122.679 294 17.1464
122.795 325 18.0278
122.912 306 17.4929
123.028 306 17.4929
123.144 313 17.6918
123.26 333 18.2483
123.377 0 1
123.493 0 1
123.609 0 1
123.725 0 1
123.84 0 1
123.956 0 1
124.072 0 1
124.188 0 1
124.303 0 1
124.419 0 1
126.852 0 1
126.968 0 1
127.083 0 1
127.199 0 1
127.315 0 1
127.431 0 1
127.547 0 1
127.663 0 1
127.779 0 1
127.895 0 1
128.011 0 1
128.127 0 1
128.243 0 1
128.359 416 20.3961
128.476 385 19.6214
128.592 372 19.2873
128.708 423 20.567
128.825 386 19.6469
128.941 406 20.1494
129.058 447 21.1424
129.174 411 20.2731
129.291 405 20.1246
129.408 407 20.1742
129.524 420 20.4939
129.641 417 20.4206
129.758 398 19.9499
129.875 369 19.2094
129.992 416 20.3961
130.108 411 20.2731
130.225 363 19.0526
130.342 351 18.735
130.459 337 18.3576
130.576 323 17.9722
130.693 310 17.6068
130.81 270 16.4317
130.928 292 17.088
131.045 377 19.4165
131.162 427 20.664
131.279 380 19.4936
131.396 421 20.5183
131.513 439 20.9523
131.631 433 20.8087
131.748 417 20.4206
131.865 421 20.5183
131.983 447 21.1424
132.1 400 20
132.217 483 21.9773
132.335 424 20.5913
132.452 387 19.6723
132.57 426 20.6398
132.687 433 20.8087
132.804 460 21.4476
132.922 443 21.0476
133.039 429 20.7123
133.157 435 20.8567
133.274 404 20.0998
133.392 450 21.2132
133.509 464 21.5407
133.627 404 20.0998
133.744 438 20.9284
133.862 414 20.347
133.979 372 19.2873
134.097 350 18.7083
134.214 345 18.5742
134.332 309 17.5784
134.449 337 18.3576
134.567 348 18.6548
134.684 386 19.6469
134.802 451 21.2368
134.919 447 21.1424
135.037 454 21.3073
135.154 474 21.7715
135.272 471 21.7025
135.389 477 21.8403
135.507 451 21.2368
135.624 455 21.3307
135.742 482 21.9545
135.859 489 22.1133
135.977 480 21.9089
136.094 461 21.4709
136.211 481 21.9317
136.329 458 21.4009
136.446 447 21.1424
136.564 494 22.2261
136.681 502 22.4054
136.798 452 21.2603
136.915 488 22.0907
137.033 478 21.8632
137.15 495 22.2486
137.267 472 21.7256
137.384 432 20.7846
137.502 438 20.9284
137.619 455 21.3307
137.736 406 20.1494
137.853 381 19.5192
137.97 376 19.3907
138.087 364 19.0788
138.204 391 19.7737
138.321 376 19.3907
138.438 494 22.2261
138.555 477 21.8403
138.672 523 22.8692
138.788 474 21.7715
138.905 544 23.3238
139.022 539 23.2164
139.139 566 23.7908
139.255 523 22.8692
139.372 527 22.9565
139.488 526 22.9347
139.605 557 23.6008
139.721 566 23.7908
139.838 548 23.4094
139.954 534 23.1084
140.071 515 22.6936
140.187 529 23
140.303 552 23.4947
140.419 548 23.4094
140.535 514 22.6716
140.652 553 23.516
140.768 0 1
140.884 0 1
141 0 1
141.115 0 1
141.231 0 1
141.347 0 1
141.463 0 1
141.578 0 1
141.694 0 1
144.104 0 1
144.219 0 1
144.335 0 1
144.45 0 1
144.566 0 1
144.682 0 1
144.798 0 1
144.914 0 1
145.03 0 1
145.146 518 22.7596
145.262 460 21.4476
145.378 522 22.8473
145.494 508 22.5389
145.61 505 22.4722
145.726 475 21.7945
145.842 506 22.4944
145.959 454 21.3073
146.075 421 20.5183
146.192 417 20.4206
146.308 463 21.5174
146.425 438 20.9284
146.541 383 19.5704
146.658 412 20.2978
146.774 429 20.7123
146.891 427 20.664
147.008 427 20.664
147.125 451 21.2368
147.241 496 22.2711
147.358 532 23.0651
147.475 550 23.4521
147.592 514 22.6716
147.709 518 22.7596
147.826 499 22.3383
147.943 514 22.6716
148.06 535 23.1301
148.177 523 22.8692
148.294 493 22.2036
148.411 531 23.0434
148.528 499 22.3383
148.645 522 22.8473
148.762 511 22.6053
148.88 502 22.4054
148.997 474 21.7715
149.114 541 23.2594
149.231 521 22.8254
149.349 468 21.6333
149.466 452 21.2603
149.583 482 21.9545
149.701 424 20.5913
149.818 425 20.6155
149.935 462 21.4942
150.053 432 20.7846
150.17 420 20.4939
150.287 422 20.5426
150.405 421 20.5183
150.522 424 20.5913
150.64 414 20.347
150.757 442 21.0238
150.875 489 22.1133
150.992 504 22.4499
151.11 473 21.7486
151.227 513 22.6495
151.344 495 22.2486
151.462 495 22.2486
151.579 466 21.587
151.697 509 22.561
151.814 552 23.4947
151.932 525 22.9129
152.049 510 22.5832
152.167 472 21.7256
152.284 513 22.6495
152.402 522 22.8473
152.519 508 22.5389
152.636 469 21.6564
152.754 515 22.6936
152.871 519 22.7816
152.989 529 23
153.106 527 22.9565
153.223 456 21.3542
153.341 469 21.6564
153.458 493 22.2036
153.575 476 21.8174
153.693 425 20.6155
153.81 433 20.8087
153.927 418 20.445
154.044 465 21.5639
154.162 481 21.9317
154.279 482 21.9545
154.396 519 22.7816
154.513 517 22.7376
154.63 537 23.1733
154.747 541 23.2594
154.864 564 23.7487
154.981 528 22.9783
155.098 546 23.3666
155.215 523 22.8692
155.332 532 23.0651
155.449 584 24.1661
155.566 515 22.6936
155.683 554 23.5372
155.8 549 23.4307
155.917 554 23.5372
156.033 532 23.0651
156.15 0 1
156.267 0 1
156.383 0 1
156.5 0 1
156.617 0 1
156.733 0 1
156.85 0 1
156.966 0 1
157.082 0 1
157.199 0 1
157.315 0 1
157.431 0 1
157.547 0 1
157.664 0 1
157.78 0 1
157.896 0 1
158.012 0 1
158.128 0 1
158.244 0 1
158.359 0 1
158.475 0 1
158.591 0 1
158.706 0 1
