
6.15755 0 1
6.2731 0 1
6.3887 0 1
6.50437 0 1
6.62009 0 1
6.73587 0 1
6.8517 0 1
6.96759 0 1
7.08353 0 1
7.19952 0 1
7.31557 0 1
7.43166 0 1
7.54781 0 1
7.664 0 1
7.78024 0 1
7.89653 0 1
8.01286 0 1
8.12924 0 1
8.24567 0 1
8.36213 0 1
8.47864 0 1
8.59519 0 1
8.71178 0 1
8.82841 0 1
8.94508 0 1
9.06179 0 1
9.17853 0 1
9.29531 0 1
9.41212 0 1
9.52897 0 1
9.64584 0 1
9.76276 0 1
9.8797 0 1
9.99667 0 1
10.1137 0 1
10.2307 0 1
10.3478 0 1
10.4648 0 1
10.5819 0 1
10.6991 0 1
10.8162 0 1
10.9334 0 1
11.0506 0 1
11.1678 0 1
11.285 0 1
11.4023 0 1
11.5196 0 1
11.6369 0 1
11.7542 0 1
11.8715 0 1
11.9888 0 1
12.1062 0 1
12.2235 0 1
12.3409 0 1
12.4582 0 1
12.5756 0 1
12.693 0 1
12.8104 0 1
12.9278 0 1
13.0452 0 1
13.1626 0 1
13.28 0 1
13.3974 0 1
13.5149 0 1
13.6323 0 1
13.7497 0 1
13.8671 0 1
13.9845 0 1
14.1019 0 1
14.2193 0 1
14.3367 0 1
14.4541 0 1
14.5714 0 1
14.6888 0 1
14.8062 0 1
14.9235 0 1
15.0408 0 0
15.1581 0 0
15.2755 0 0
15.3927 0 0
15.51 0 0
15.6273 0 0
15.7445 0 0
15.8617 0 0
15.9789 0 0
16.0961 0 0
16.2132 0 0
16.3304 0 0
16.4475 0 0
16.5646 0 0
16.6816 0 0
16.7986 0 0
16.9156 0 0
17.0326 0 0
17.1496 0 0
17.2665 0 0
17.3833 0 0
17.5002 0 0
17.617 0 0
17.7338 0 0
17.8505 0 0
17.9672 0 0
18.0839 0 0
18.2005 0 0
18.3171 0 0
18.4337 0 0
18.5502 0 0
18.6666 0 0
18.7831 0 0
18.8994 0 0
19.0158 0 0
19.1321 0 0
19.2483 0 0
19.3645 0 0
19.4806 0 0
19.5967 0 0
19.7128 0 0
19.8288 0 0
19.9447 0 0
20.0606 0 1
20.1764 0 1
20.2922 0 1
20.4079 0 1
20.5236 0 1
20.6392 0 1
20.7548 0 1
20.8702 0 1
23.3078 0 1
23.4233 0 1
23.539 0 1
23.6547 0 1
23.7704 0 1
23.8862 0 1
24.0021 0 1
24.118 0 1
24.234 0 1
24.35 0 1
24.4661 1340 36.606
24.5822 1271 35.6511
24.6984 1329 36.4555
24.8146 1261 35.5106
24.9309 1256 35.4401
25.0472 1259 35.4824
25.1636 1269 35.623
25.28 1271 35.6511
25.3965 1247 35.3129
25.513 1295 35.9861
25.6296 1325 36.4005
25.7462 1351 36.756
25.8628 1312 36.2215
25.9795 1306 36.1386
26.0962 1389 37.2693
26.213 1404 37.47
26.3298 1302 36.0832
26.4466 1307 36.1525
26.5635 1209 34.7707
26.6804 1147 33.8674
26.7973 1234 35.1283
26.9143 1255 35.426
27.0313 1323 36.3731
27.1483 1352 36.7696
27.2653 1372 37.0405
27.3824 1394 37.3363
27.4996 1351 36.756
27.6167 1409 37.5366
27.7339 1367 36.973
27.8511 1394 37.3363
27.9683 1297 36.0139
28.0855 1241 35.2278
28.2028 1290 35.9166
28.3201 1239 35.1994
28.4374 1240 35.2136
28.5547 1215 34.8569
28.6721 1140 33.7639
28.7894 1168 34.176
28.9068 1183 34.3948
29.0242 1178 34.322
29.1416 1215 34.8569
29.259 1213 34.8281
29.3764 1222 34.9571
29.4939 1184 34.4093
29.6113 1150 33.9116
29.7288 1198 34.6121
29.8463 1218 34.8999
29.9638 1175 34.2783
30.0812 1081 32.8786
30.1987 1115 33.3916
30.3162 1117 33.4215
30.4337 1135 33.6898
30.5512 1228 35.0428
30.6687 1233 35.1141
30.7862 1317 36.2905
30.9037 1243 35.2562
31.0212 1272 35.6651
31.1387 1321 36.3456
31.2562 1264 35.5528
31.3737 1284 35.8329
31.4912 1256 35.4401
31.6087 1259 35.4824
31.7262 1208 34.7563
31.8436 1252 35.3836
31.9611 1194 34.5543
32.0785 1143 33.8083
32.1959 1146 33.8526
32.3134 1111 33.3317
32.4308 1098 33.1361
32.5482 1074 32.7719
32.6655 1181 34.3657
32.7829 1210 34.7851
32.9002 1112 33.3467
33.0176 1100 33.1662
33.1349 1091 33.0303
33.2522 1137 33.7194
33.3694 1231 35.0856
33.4867 1231 35.0856
33.6039 1163 34.1028
33.7211 1091 33.0303
33.8383 1083 32.909
33.9554 1122 33.4963
34.0725 1192 34.5254
34.1896 1194 34.5543
34.3067 1267 35.5949
34.4237 1298 36.0278
34.5407 1254 35.4119
34.6577 1291 35.9305
34.7746 1264 35.5528
34.8915 1312 36.2215
35.0084 1299 36.0416
35.1252 1222 34.9571
35.242 1275 35.7071
35.3587 1176 34.2929
35.4755 1243 35.2562
35.5921 1194 34.5543
35.7088 1165 34.1321
35.8254 1093 33.0606
35.9419 1067 32.665
36.0584 1018 31.9061
36.1749 1037 32.2025
36.2913 1084 32.9242
36.4077 1090 33.0151
36.524 1023 31.9844
36.6403 1065 32.6343
36.7565 1023 31.9844
36.8727 1135 33.6898
36.9889 1151 33.9264
37.1049 1107 33.2716
37.221 0 1
37.3369 0 1
37.4529 0 1
37.5687 0 1
37.6845 0 1
37.8003 0 1
37.916 0 1
38.0316 0 1
38.1472 0 1
40.5851 0 1
40.7008 0 1
40.8164 0 1
40.9322 0 1
41.048 0 1
41.1639 0 1
41.2798 0 1
41.3958 0 1
41.5118 0 1
41.6279 0 1
41.744 793 28.1603
41.8602 852 29.189
41.9765 866 29.4279
42.0928 989 31.4484
42.2091 914 30.2324
42.3255 913 30.2159
42.4419 908 30.133
42.5584 867 29.4449
42.675 874 29.5635
42.7915 820 28.6356
42.9081 851 29.1719
43.0248 884 29.7321
43.1415 894 29.8998
43.2582 959 30.9677
43.375 951 30.8383
43.4918 930 30.4959
43.6087 930 30.4959
43.7256 883 29.7153
43.8425 851 29.1719
43.9595 879 29.6479
44.0765 825 28.7228
44.1935 846 29.0861
44.3106 863 29.3769
44.4277 758 27.5318
44.5448 775 27.8388
44.6619 672 25.923
44.7791 670 25.8844
44.8963 633 25.1595
45.0136 659 25.671
45.1308 604 24.5764
45.2481 632 25.1396
45.3654 664 25.7682
45.4827 641 25.318
45.6001 702 26.4953
45.7174 678 26.0384
45.8348 627 25.04
45.9522 666 25.807
46.0697 664 25.7682
46.1871 601 24.5153
46.3046 627 25.04
46.422 655 25.593
46.5395 628 25.0599
46.657 652 25.5343
46.7745 735 27.1109
46.892 625 25
47.0096 680 26.0768
47.1271 746 27.313
47.2446 657 25.632
47.3622 689 26.2488
47.4797 641 25.318
47.5973 636 25.219
47.7149 585 24.1868
47.8324 596 24.4131
47.95 601 24.5153
48.0675 509 22.561
48.1851 522 22.8473
48.3027 462 21.4942
48.4202 415 20.3715
48.5378 449 21.1896
48.6554 457 21.3776
48.7729 455 21.3307
48.8904 461 21.4709
49.008 546 23.3666
49.1255 514 22.6716
49.243 487 22.0681
49.3605 498 22.3159
49.478 464 21.5407
49.5955 489 22.1133
49.713 438 20.9284
49.8304 480 21.9089
49.9479 466 21.587
50.0653 501 22.383
50.1827 539 23.2164
50.3001 588 24.2487
50.4175 618 24.8596
50.5348 597 24.4336
50.6521 610 24.6982
50.7694 648 25.4558
50.8867 668 25.8457
51.004 706 26.5707
51.1212 635 25.1992
51.2384 690 26.2679
51.3556 699 26.4386
51.4727 706 26.5707
51.5899 665 25.7876
51.707 596 24.4131
51.824 618 24.8596
51.9411 607 24.6374
52.0581 606 24.6171
52.175 670 25.8844
52.2919 663 25.7488
52.4088 724 26.9072
52.5257 727 26.9629
52.6425 773 27.8029
52.7593 788 28.0713
52.876 758 27.5318
52.9927 812 28.4956
53.1094 792 28.1425
53.226 828 28.775
53.3426 833 28.8617
53.4591 824 28.7054
53.5756 863 29.3769
53.692 894 29.8998
53.8084 938 30.6268
53.9248 1009 31.7648
54.0411 1093 33.0606
54.1573 1051 32.4191
54.2735 0 1
54.3896 0 1
54.5057 0 1
54.6217 0 1
54.7377 0 1
54.8537 0 1
54.9695 0 1
55.0853 0 1
55.2011 0 1
55.3168 0 1
55.4324 0 1
57.824 0 1
57.9396 0 1
58.0553 0 1
58.1711 0 1
58.2869 0 1
58.4028 0 1
58.5187 0 1
58.6347 0 1
58.7508 0 1
58.8669 0 1
58.983 1057 32.5115
59.0992 1157 34.0147
59.2155 1230 35.0714
59.3318 1246 35.2987
59.4482 1235 35.1426
59.5646 1194 34.5543
59.681 1220 34.9285
59.7975 1153 33.9559
59.9141 1214 34.8425
60.0306 1081 32.8786
60.1473 1027 32.0468
60.2639 982 31.3369
60.3807 863 29.3769
60.4974 842 29.0172
60.6142 796 28.2135
60.731 876 29.5973
60.8479 794 28.178
60.9648 850 29.1548
61.0818 914 30.2324
61.1987 982 31.3369
61.3158 959 30.9677
61.4328 1026 32.0312
61.5499 1002 31.6544
61.667 945 30.7409
61.7841 907 30.1164
61.9013 879 29.6479
62.0185 937 30.6105
62.1357 958 30.9516
62.253 1020 31.9374
62.3702 1032 32.1248
62.4875 1073 32.7567
62.6049 1149 33.8969
62.7222 1120 33.4664
62.8396 1142 33.7935
62.9569 1181 34.3657
63.0743 1085 32.9393
63.1918 1174 34.2637
63.3092 1072 32.7414
63.4267 1045 32.3265
63.5441 1024 32
63.6616 945 30.7409
63.7791 870 29.4958
63.8966 916 30.2655
64.0142 867 29.4449
64.1317 803 28.3373
64.2492 854 29.2233
64.3668 787 28.0535
64.4843 876 29.5973
64.6019 988 31.4325
64.7195 934 30.5614
64.837 1008 31.749
64.9546 1009 31.7648
65.0722 1039 32.2335
65.1898 1003 31.6702
65.3074 1051 32.4191
65.4249 915 30.249
65.5425 991 31.4802
65.6601 955 30.9031
65.7777 1045 32.3265
65.8952 1037 32.2025
66.0128 1073 32.7567
66.1304 1121 33.4813
66.2479 1188 34.4674
66.3655 1146 33.8526
66.483 1194 34.5543
66.6005 1188 34.4674
66.718 1242 35.242
66.8355 1173 34.2491
66.953 1150 33.9116
67.0705 1090 33.0151
67.1879 978 31.273
67.3054 953 30.8707
67.4228 920 30.3315
67.5402 820 28.6356
67.6576 754 27.4591
67.7749 782 27.9643
67.8923 799 28.2666
68.0096 829 28.7924
68.1269 914 30.2324
68.2442 912 30.1993
68.3614 1001 31.6386
68.4787 980 31.305
68.5958 988 31.4325
68.713 955 30.9031
68.8302 977 31.257
68.9473 892 29.8664
69.0643 909 30.1496
69.1814 847 29.1033
69.2984 918 30.2985
69.4154 943 30.7083
69.5323 973 31.1929
69.6492 1043 32.2955
69.7661 1122 33.4963
69.8829 1140 33.7639
69.9997 1181 34.3657
70.1165 1162 34.0881
70.2332 1192 34.5254
70.3499 1196 34.5832
70.4665 1222 34.9571
70.5831 1138 33.7343
70.6996 1050 32.4037
70.8161 1017 31.8904
70.9326 918 30.2985
71.049 875 29.5804
71.1653 742 27.2397
71.2817 744 27.2764
71.3979 693 26.3249
71.5141 730 27.0185
71.6303 705 26.5518
71.7464 710 26.6458
71.8624 0 1
71.9784 0 1
72.0944 0 1
72.2102 0 1
72.3261 0 1
72.4418 0 1
72.5575 0 1
72.6732 0 1
75.1054 0 1
75.2209 0 1
75.3365 0 1
75.4521 0 1
75.5678 0 1
75.6835 0 1
75.7993 0 1
75.9151 0 1
76.031 0 1
76.147 927 30.4467
76.263 904 30.0666
76.3791 950 30.8221
76.4952 827 28.7576
76.6113 752 27.4226
76.7276 728 26.9815
76.8438 748 27.3496
76.9601 808 28.4253
77.0765 913 30.2159
77.1929 908 30.133
77.3093 961 31
77.4258 995 31.5436
77.5423 1030 32.0936
77.6589 1015 31.8591
77.7755 974 31.209
77.8921 994 31.5278
78.0088 914 30.2324
78.1256 928 30.4631
78.2423 952 30.8545
78.3591 888 29.7993
78.4759 926 30.4302
78.5928 1018 31.9061
78.7097 986 31.4006
78.8266 1088 32.9848
78.9436 1108 33.2866
79.0606 1174 34.2637
79.1776 1167 34.1614
79.2946 1184 34.4093
79.4117 1232 35.0999
79.5288 1111 33.3317
79.6459 1057 32.5115
79.7631 935 30.5778
79.8802 935 30.5778
79.9974 890 29.8329
80.1147 757 27.5136
80.2319 716 26.7582
80.3491 723 26.8887
80.4664 644 25.3772
80.5837 675 25.9808
80.701 742 27.2397
80.8183 781 27.9464
80.9357 837 28.931
81.053 880 29.6648
81.1704 871 29.5127
81.2877 897 29.95
81.4051 837 28.931
81.5225 792 28.1425
81.6399 778 27.8927
81.7573 804 28.3549
81.8747 711 26.6646
81.9922 803 28.3373
82.1096 827 28.7576
82.227 873 29.5466
82.3444 905 30.0832
82.4619 988 31.4325
82.5793 967 31.0966
82.6967 944 30.7246
82.8142 955 30.9031
82.9316 971 31.1609
83.049 977 31.257
83.1664 977 31.257
83.2838 817 28.5832
83.4012 817 28.5832
83.5186 758 27.5318
83.636 674 25.9615
83.7534 604 24.5764
83.8708 598 24.454
83.9881 534 23.1084
84.1055 555 23.5584
84.2228 604 24.5764
84.3401 623 24.96
84.4575 673 25.9422
84.5747 760 27.5681
84.692 834 28.8791
84.8093 778 27.8927
84.9265 779 27.9106
85.0437 831 28.8271
85.1609 742 27.2397
85.2781 718 26.7955
85.3952 767 27.6948
85.5123 718 26.7955
85.6294 738 27.1662
85.7465 831 28.8271
85.8636 861 29.3428
85.9806 891 29.8496
86.0976 993 31.5119
86.2145 1062 32.5883
86.3315 1080 32.8634
86.4484 996 31.5595
86.5652 1092 33.0454
86.682 1136 33.7046
86.7988 1077 32.8177
86.9156 982 31.3369
87.0323 1008 31.749
87.149 869 29.4788
87.2657 766 27.6767
87.3823 717 26.7769
87.4988 657 25.632
87.6154 686 26.1916
87.7318 737 27.1477
87.8483 775 27.8388
87.9647 837 28.931
88.081 938 30.6268
88.1973 1007 31.7333
88.3136 1044 32.311
88.4298 968 31.1127
88.546 941 30.6757
88.6621 972 31.1769
88.7781 944 30.7246
88.8942 0 1
89.0101 0 1
89.126 0 1
89.2419 0 1
89.3577 0 1
89.4734 0 1
89.5891 0 1
89.7047 0 1
89.8203 0 1
89.9358 0 1
92.3269 0 1
92.4424 0 1
92.558 0 1
92.6736 0 1
92.7893 0 1
92.905 0 1
93.0208 0 1
93.1366 0 1
93.2525 0 1
93.3685 0 1
93.4845 0 1
93.6005 950 30.8221
93.7167 1003 31.6702
93.8328 987 31.4166
93.949 974 31.209
94.0653 974 31.209
94.1816 903 30.05
94.2979 931 30.5123
94.4143 910 30.1662
94.5307 904 30.0666
94.6472 906 30.0998
94.7637 945 30.7409
94.8803 977 31.257
94.9969 1110 33.3167
95.1135 1100 33.1662
95.2302 1148 33.8821
95.3469 1127 33.5708
95.4637 1179 34.3366
95.5805 1196 34.5832
95.6973 1145 33.8378
95.8142 1196 34.5832
95.9311 1129 33.6006
96.048 1117 33.4215
96.1649 1030 32.0936
96.2819 857 29.2746
96.3989 856 29.2575
96.516 858 29.2916
96.633 773 27.8029
96.7501 694 26.3439
96.8673 718 26.7955
96.9844 751 27.4044
97.1016 844 29.0517
97.2188 890 29.8329
97.336 980 31.305
97.4532 1080 32.8634
97.5704 1045 32.3265
97.6877 990 31.4643
97.805 945 30.7409
97.9223 959 30.9677
98.0396 916 30.2655
98.1569 901 30.0167
98.2743 941 30.6757
98.3916 933 30.545
98.509 982 31.3369
98.6264 1067 32.665
98.7438 1032 32.1248
98.8612 1114 33.3766
98.9786 1168 34.176
99.096 1170 34.2053
99.2134 1217 34.8855
99.3308 1243 35.2562
99.4482 1168 34.176
99.5656 1120 33.4664
99.6831 1138 33.7343
99.8005 1029 32.078
99.9179 974 31.209
100.035 821 28.6531
100.153 796 28.2135
100.27 782 27.9643
100.388 736 27.1293
100.505 771 27.7669
100.622 877 29.6142
100.74 942 30.692
100.857 951 30.8383
100.975 1013 31.8277
101.092 962 31.0161
101.209 967 31.0966
101.327 966 31.0805
101.444 942 30.692
101.561 994 31.5278
101.679 965 31.0644
101.796 985 31.3847
101.913 947 30.7734
102.03 1046 32.3419
102.148 1065 32.6343
102.265 1146 33.8526
102.382 1264 35.5528
102.499 1270 35.6371
102.616 1279 35.7631
102.733 1305 36.1248
102.851 1278 35.7491
102.968 1322 36.3593
103.085 1286 35.8608
103.202 1180 34.3511
103.319 1104 33.2265
103.436 1085 32.9393
103.552 1019 31.9218
103.669 910 30.1662
103.786 858 29.2916
103.903 826 28.7402
104.02 831 28.8271
104.137 930 30.4959
104.253 1008 31.749
104.37 1157 34.0147
104.487 1090 33.0151
104.603 1103 33.2114
104.72 1076 32.8024
104.836 1122 33.4963
104.953 978 31.273
105.069 1025 32.0156
105.186 1092 33.0454
105.302 1031 32.1092
105.418 1056 32.4962
105.535 1176 34.2929
105.651 1235 35.1426
105.767 1324 36.3868
105.883 1386 37.229
105.999 1397 37.3765
106.115 0 1
106.231 0 1
106.347 0 1
106.463 0 1
106.579 0 1
106.694 0 1
106.81 0 1
106.926 0 1
107.041 0 1
107.157 0 1
109.576 0 1
109.692 0 1
109.807 0 1
109.923 0 1
110.039 0 1
110.155 0 1
110.27 0 1
110.386 0 1
110.502 0 1
110.618 1115 33.3916
110.735 1284 35.8329
110.851 1319 36.318
110.967 1259 35.4824
111.083 1244 35.2704
111.199 1311 36.2077
111.316 1330 36.4692
111.432 1353 36.7831
111.549 1305 36.1248
111.665 1232 35.0999
111.782 1256 35.4401
111.898 1200 34.641
112.015 1038 32.218
112.132 1005 31.7017
112.248 881 29.6816
112.365 810 28.4605
112.482 789 28.0891
112.599 901 30.0167
112.716 939 30.6431
112.832 1004 31.686
112.949 994 31.5278
113.066 982 31.3369
113.183 980 31.305
113.3 997 31.5753
113.417 974 31.209
113.534 960 30.9839
113.652 988 31.4325
113.769 1006 31.7175
113.886 1021 31.9531
114.003 1058 32.5269
114.12 1092 33.0454
114.238 1176 34.2929
114.355 1263 35.5387
114.472 1227 35.0286
114.589 1297 36.0139
114.707 1260 35.4965
114.824 1278 35.7491
114.942 1278 35.7491
115.059 1300 36.0555
115.176 1277 35.7351
115.294 1243 35.2562
115.411 1131 33.6303
115.529 1116 33.4066
115.646 1046 32.3419
115.764 998 31.5911
115.881 819 28.6182
115.999 881 29.6816
116.116 869 29.4788
116.234 999 31.607
116.351 1009 31.7648
116.469 1012 31.8119
116.586 1100 33.1662
116.704 1091 33.0303
116.821 1018 31.9061
116.939 1034 32.1559
117.056 1026 32.0312
117.174 1082 32.8938
117.291 1103 33.2114
117.409 1062 32.5883
117.526 1157 34.0147
117.644 1208 34.7563
117.761 1295 35.9861
117.879 1340 36.606
117.996 1250 35.3553
118.114 1317 36.2905
118.231 1371 37.027
118.349 1404 37.47
118.466 1446 38.0263
118.584 1415 37.6165
118.701 1343 36.647
118.819 1347 36.7015
118.936 1242 35.242
119.053 1234 35.1283
119.171 1239 35.1994
119.288 1135 33.6898
119.405 965 31.0644
119.523 950 30.8221
119.64 897 29.95
119.757 978 31.273
119.875 1007 31.7333
119.992 1047 32.3574
120.109 1089 33
120.226 1104 33.2265
120.343 1000 31.6228
120.46 1075 32.7872
120.578 1041 32.2645
120.695 1023 31.9844
120.812 1048 32.3728
120.929 1099 33.1512
121.046 1121 33.4813
121.163 1087 32.9697
121.279 1153 33.9559
121.396 1246 35.2987
121.513 1250 35.3553
121.63 1306 36.1386
121.747 1292 35.9444
121.863 1309 36.1801
121.98 1428 37.7889
122.097 1365 36.9459
122.213 1426 37.7624
122.33 1398 37.3898
122.446 1296 36
122.563 1191 34.5109
122.679 1242 35.242
122.795 1173 34.2491
122.912 1109 33.3017
123.028 1087 32.9697
123.144 986 31.4006
123.26 930 30.4959
123.377 0 1
123.493 0 1
123.609 0 1
123.725 0 1
123.84 0 1
123.956 0 1
124.072 0 1
124.188 0 1
124.303 0 1
124.419 0 1
126.852 0 1
126.968 0 1
127.083 0 1
127.199 0 1
127.315 0 1
127.431 0 1
127.547 0 1
127.663 0 1
127.779 0 1
127.895 0 1
128.011 0 1
128.127 0 1
128.243 0 1
128.359 1090 33.0151
128.476 1050 32.4037
128.592 1006 31.7175
128.708 1004 31.686
128.825 1118 33.4365
128.941 1150 33.9116
129.058 1191 34.5109
129.174 1218 34.8999
129.291 1157 34.0147
129.408 1139 33.7491
129.524 1134 33.6749
129.641 1107 33.2716
129.758 1139 33.7491
129.875 1163 34.1028
129.992 1228 35.0428
130.108 1163 34.1028
130.225 1242 35.242
130.342 1302 36.0832
130.459 1337 36.565
130.576 1384 37.2022
130.693 1337 36.565
130.81 1375 37.081
130.928 1337 36.565
131.045 1392 37.3095
131.162 1406 37.4967
131.279 1385 37.2156
131.396 1359 36.8646
131.513 1333 36.5103
131.631 1303 36.0971
131.748 1191 34.5109
131.865 1160 34.0588
131.983 1050 32.4037
132.1 1033 32.1403
132.217 1046 32.3419
132.335 1121 33.4813
132.452 1126 33.5559
132.57 1156 34
132.687 1099 33.1512
132.804 1145 33.8378
132.922 1121 33.4813
133.039 1122 33.4963
133.157 1130 33.6155
133.274 1125 33.541
133.392 1157 34.0147
133.509 1161 34.0735
133.627 1191 34.5109
133.744 1230 35.0714
133.862 1287 35.8748
133.979 1302 36.0832
134.097 1263 35.5387
134.214 1379 37.1349
134.332 1344 36.6606
134.449 1347 36.7015
134.567 1389 37.2693
134.684 1331 36.4829
134.802 1344 36.6606
134.919 1376 37.0945
135.037 1346 36.6879
135.154 1308 36.1663
135.272 1295 35.9861
135.389 1219 34.9142
135.507 1227 35.0286
135.624 1058 32.5269
135.742 1114 33.3766
135.859 1106 33.2566
135.977 1123 33.5112
136.094 1260 35.4965
136.211 1157 34.0147
136.329 1156 34
136.446 1204 34.6987
136.564 1194 34.5543
136.681 1158 34.0294
136.798 1245 35.2846
136.915 1160 34.0588
137.033 1152 33.9411
137.15 1193 34.5398
137.267 1226 35.0143
137.384 1184 34.4093
137.502 1241 35.2278
137.619 1269 35.623
137.736 1338 36.5787
137.853 1344 36.6606
137.97 1262 35.5246
138.087 1270 35.6371
138.204 1363 36.9188
138.321 1366 36.9594
138.438 1271 35.6511
138.555 1344 36.6606
138.672 1393 37.3229
138.788 1308 36.1663
138.905 1299 36.0416
139.022 1297 36.0139
139.139 1189 34.4819
139.255 1089 33
139.372 1138 33.7343
139.488 1062 32.5883
139.605 1189 34.4819
139.721 1222 34.9571
139.838 1231 35.0856
139.954 1216 34.8712
140.071 1172 34.2345
140.187 1166 34.1467
140.303 1146 33.8526
140.419 1042 32.28
140.535 1128 33.5857
140.652 1080 32.8634
140.768 0 1
140.884 0 1
141 0 1
141.115 0 1
141.231 0 1
141.347 0 1
141.463 0 1
141.578 0 1
141.694 0 1
144.104 0 1
144.219 0 1
144.335 0 1
144.45 0 1
144.566 0 1
144.682 0 1
144.798 0 1
144.914 0 1
145.03 0 1
145.146 883 29.7153
145.262 908 30.133
145.378 927 30.4467
145.494 948 30.7896
145.61 820 28.6356
145.726 950 30.8221
145.842 952 30.8545
145.959 945 30.7409
146.075 967 31.0966
146.192 939 30.6431
146.308 901 30.0167
146.425 993 31.5119
146.541 964 31.0483
146.658 1009 31.7648
146.774 1034 32.1559
146.891 1080 32.8634
147.008 1027 32.0468
147.125 1054 32.4654
147.241 1023 31.9844
147.358 1085 32.9393
147.475 1054 32.4654
147.592 1028 32.0624
147.709 997 31.5753
147.826 984 31.3688
147.943 958 30.9516
148.06 917 30.282
148.177 896 29.9333
148.294 859 29.3087
148.411 886 29.7658
148.528 962 31.0161
148.645 952 30.8545
148.762 1005 31.7017
148.88 934 30.5614
148.997 919 30.315
149.114 989 31.4484
149.231 1011 31.7962
149.349 929 30.4795
149.466 952 30.8545
149.583 949 30.8058
149.701 961 31
149.818 954 30.8869
149.935 960 30.9839
150.053 916 30.2655
150.17 987 31.4166
150.287 1031 32.1092
150.405 1029 32.078
150.522 1022 31.9687
150.64 1027 32.0468
150.757 1073 32.7567
150.875 1065 32.6343
150.992 1093 33.0606
151.11 1055 32.4808
151.227 1071 32.7261
151.344 1099 33.1512
151.462 1100 33.1662
151.579 1043 32.2955
151.697 935 30.5778
151.814 856 29.2575
151.932 911 30.1828
152.049 901 30.0167
152.167 992 31.496
152.284 1073 32.7567
152.402 993 31.5119
152.519 1060 32.5576
152.636 959 30.9677
152.754 993 31.5119
152.871 1043 32.2955
152.989 971 31.1609
153.106 1023 31.9844
153.223 1007 31.7333
153.341 1085 32.9393
153.458 1056 32.4962
153.575 997 31.5753
153.693 1078 32.8329
153.81 1092 33.0454
153.927 1074 32.7719
154.044 1073 32.7567
154.162 1134 33.6749
154.279 1127 33.5708
154.396 1132 33.6452
154.513 1215 34.8569
154.63 1212 34.8138
154.747 1190 34.4964
154.864 1203 34.6843
154.981 1190 34.4964
155.098 1146 33.8526
155.215 1188 34.4674
155.332 1102 33.1964
155.449 1082 32.8938
155.566 1063 32.6037
155.683 1079 32.8481
155.8 1102 33.1964
155.917 1142 33.7935
156.033 1118 33.4365
156.15 0 1
156.267 0 1
156.383 0 1
156.5 0 1
156.617 0 1
156.733 0 1
156.85 0 1
156.966 0 1
157.082 0 1
157.199 0 1
157.315 0 1
157.431 0 1
157.547 0 1
157.664 0 1
157.78 0 1
157.896 0 1
158.012 0 1
158.128 0 1
158.244 0 1
158.359 0 1
158.475 0 1
158.591 0 1
158.706 0 1
