
6.15755 0 1
6.2731 0 1
6.3887 0 1
6.50437 0 1
6.62009 0 1
6.73587 0 1
6.8517 0 1
6.96759 0 1
7.08353 0 1
7.19952 0 1
7.31557 0 1
7.43166 0 1
7.54781 0 1
7.664 0 1
7.78024 0 1
7.89653 0 1
8.01286 0 1
8.12924 0 1
8.24567 0 1
8.36213 0 1
8.47864 0 1
8.59519 0 1
8.71178 0 1
8.82841 0 1
8.94508 0 1
9.06179 0 1
9.17853 0 1
9.29531 0 1
9.41212 0 1
9.52897 0 1
9.64584 0 1
9.76276 0 1
9.8797 0 1
9.99667 0 1
10.1137 0 1
10.2307 0 1
10.3478 0 1
10.4648 0 1
10.5819 0 1
10.6991 0 1
10.8162 0 1
10.9334 0 1
11.0506 0 1
11.1678 0 1
11.285 0 1
11.4023 0 1
11.5196 0 1
11.6369 0 1
11.7542 0 1
11.8715 0 1
11.9888 0 1
12.1062 0 1
12.2235 0 1
12.3409 0 1
12.4582 0 1
12.5756 0 1
12.693 0 1
12.8104 0 1
12.9278 0 1
13.0452 0 1
13.1626 0 1
13.28 0 1
13.3974 0 1
13.5149 0 1
13.6323 0 1
13.7497 0 1
13.8671 0 1
13.9845 0 1
14.1019 0 1
14.2193 0 1
14.3367 0 1
14.4541 0 1
14.5714 0 1
14.6888 0 1
14.8062 0 1
14.9235 0 1
15.0408 0 0
15.1581 0 0
15.2755 0 0
15.3927 0 0
15.51 0 0
15.6273 0 0
15.7445 0 0
15.8617 0 0
15.9789 0 0
16.0961 0 0
16.2132 0 0
16.3304 0 0
16.4475 0 0
16.5646 0 0
16.6816 0 0
16.7986 0 0
16.9156 0 0
17.0326 0 0
17.1496 0 0
17.2665 0 0
17.3833 0 0
17.5002 0 0
17.617 0 0
17.7338 0 0
17.8505 0 0
17.9672 0 0
18.0839 0 0
18.2005 0 0
18.3171 0 0
18.4337 0 0
18.5502 0 0
18.6666 0 0
18.7831 0 0
18.8994 0 0
19.0158 0 0
19.1321 0 0
19.2483 0 0
19.3645 0 0
19.4806 0 0
19.5967 0 0
19.7128 0 0
19.8288 0 0
19.9447 0 0
20.0606 0 1
20.1764 0 1
20.2922 0 1
20.4079 0 1
20.5236 0 1
20.6392 0 1
20.7548 0 1
20.8702 0 1
23.3078 0 1
23.4233 0 1
23.539 0 1
23.6547 0 1
23.7704 0 1
23.8862 0 1
24.0021 0 1
24.118 0 1
24.234 0 1
24.35 0 1
24.4661 23548 153.454
24.5822 23734 154.058
24.6984 22805 151.013
24.8146 22136 148.782
24.9309 21797 147.638
25.0472 21790 147.614
25.1636 22256 149.184
25.28 23234 152.427
25.3965 23951 154.761
25.513 24845 157.623
25.6296 25772 160.537
25.7462 26346 162.315
25.8628 26065 161.447
25.9795 26347 162.318
26.0962 26135 161.663
26.213 26197 161.855
26.3298 25267 158.956
26.4466 24881 157.737
26.5635 23861 154.47
26.6804 23067 151.878
26.7973 22848 151.156
26.9143 23654 153.799
27.0313 24046 155.068
27.1483 25204 158.758
27.2653 25519 159.747
27.3824 26056 161.419
27.4996 25875 160.857
27.6167 25548 159.837
27.7339 24907 157.82
27.8511 24619 156.904
27.9683 24087 155.2
28.0855 23551 153.463
28.2028 23474 153.212
28.3201 22110 148.694
28.4374 21526 146.717
28.5547 20985 144.862
28.6721 21077 145.179
28.7894 21608 146.997
28.9068 22337 149.456
29.0242 23407 152.993
29.1416 24267 155.779
29.259 24616 156.895
29.3764 24975 158.035
29.4939 24744 157.302
29.6113 24718 157.22
29.7288 24587 156.802
29.8463 24373 156.119
29.9638 23559 153.489
30.0812 22455 149.85
30.1987 22045 148.476
30.3162 22158 148.856
30.4337 22444 149.813
30.5512 23235 152.43
30.6687 23897 154.587
30.7862 24814 157.525
30.9037 24711 157.197
31.0212 25382 159.317
31.1387 25211 158.78
31.2562 24620 156.908
31.3737 24480 156.461
31.4912 24196 155.551
31.6087 23452 153.14
31.7262 23337 152.765
31.8436 22398 149.66
31.9611 21586 146.922
32.0785 20859 144.426
32.1959 20914 144.617
32.3134 21583 146.912
32.4308 22465 149.883
32.5482 23519 153.359
32.6655 24312 155.923
32.7829 24668 157.06
32.9002 24637 156.962
33.0176 24849 157.636
33.1349 24915 157.845
33.2522 24941 157.927
33.3694 24805 157.496
33.4867 24581 156.783
33.6039 23904 154.609
33.7211 23026 151.743
33.8383 22355 149.516
33.9554 22192 148.97
34.0725 22765 150.881
34.1896 23409 153
34.3067 24123 155.316
34.4237 24802 157.487
34.5407 25129 158.521
34.6577 25203 158.755
34.7746 25508 159.712
34.8915 25205 158.761
35.0084 24625 156.924
35.1252 24519 156.585
35.242 24166 155.454
35.3587 23885 154.548
35.4755 23051 151.826
35.5921 21997 148.314
35.7088 20808 144.25
35.8254 20584 143.471
35.9419 21002 144.921
36.0584 21236 145.726
36.1749 22443 149.81
36.2913 23405 152.987
36.4077 23849 154.431
36.524 24201 155.567
36.6403 24775 157.401
36.7565 24983 158.06
36.8727 25016 158.164
36.9889 24710 157.194
37.1049 24302 155.891
37.221 0 1
37.3369 0 1
37.4529 0 1
37.5687 0 1
37.6845 0 1
37.8003 0 1
37.916 0 1
38.0316 0 1
38.1472 0 1
40.5851 0 1
40.7008 0 1
40.8164 0 1
40.9322 0 1
41.048 0 1
41.1639 0 1
41.2798 0 1
41.3958 0 1
41.5118 0 1
41.6279 0 1
41.744 20171 142.025
41.8602 21122 145.334
41.9765 21418 146.349
42.0928 21514 146.677
42.2091 21510 146.663
42.3255 21228 145.698
42.4419 20195 142.109
42.5584 19180 138.492
42.675 18930 137.586
42.7915 19208 138.593
42.9081 19807 140.737
43.0248 20486 143.129
43.1415 20875 144.482
43.2582 21290 145.911
43.375 21429 146.386
43.4918 21565 146.85
43.6087 21303 145.955
43.7256 21024 144.997
43.8425 20677 143.795
43.9595 20116 141.831
44.0765 19936 141.195
44.1935 18881 137.408
44.3106 18513 136.062
44.4277 17353 131.731
44.5448 16186 127.224
44.6619 15656 125.124
44.7791 16030 126.61
44.8963 16215 127.338
45.0136 17132 130.889
45.1308 18070 134.425
45.2481 18234 135.033
45.3654 18485 135.96
45.4827 18498 136.007
45.6001 18225 135
45.7174 18393 135.621
45.8348 17910 133.828
45.9522 17508 132.318
46.0697 16535 128.588
46.1871 15590 124.86
46.3046 15416 124.161
46.422 15574 124.796
46.5395 16222 127.366
46.657 16507 128.48
46.7745 16970 130.269
46.892 16918 130.069
47.0096 17300 131.529
47.1271 17279 131.45
47.2446 16893 129.973
47.3622 16492 128.421
47.4797 16204 127.295
47.5973 15848 125.889
47.7149 15502 124.507
47.8324 14745 121.429
47.95 14315 119.645
48.0675 13161 114.721
48.1851 12468 111.66
48.3027 12452 111.589
48.4202 13098 114.446
48.5378 13493 116.159
48.6554 14435 120.146
48.7729 14818 121.729
48.8904 15207 123.317
49.008 15311 123.738
49.1255 15304 123.709
49.243 15146 123.069
49.3605 15326 123.798
49.478 14848 121.852
49.5955 13952 118.119
49.713 13673 116.932
49.8304 13772 117.354
49.9479 14265 119.436
50.0653 15137 123.033
50.1827 16341 127.832
50.3001 16867 129.873
50.4175 17363 131.769
50.5348 17598 132.657
50.6521 18284 135.218
50.7694 18751 136.934
50.8867 19292 138.896
51.004 19129 138.308
51.1212 19296 138.91
51.2384 19129 138.308
51.3556 18828 137.215
51.4727 18262 135.137
51.5899 17012 130.43
51.707 16391 128.027
51.824 16792 129.584
51.9411 17725 133.135
52.0581 19168 138.449
52.175 20636 143.652
52.2919 21682 147.248
52.4088 21829 147.746
52.5257 22779 150.927
52.6425 22669 150.562
52.7593 23110 152.02
52.876 23068 151.882
52.9927 23181 152.253
53.1094 22526 150.087
53.226 21750 147.479
53.3426 21447 146.448
53.4591 21433 146.4
53.5756 22158 148.856
53.692 23573 153.535
53.8084 24700 157.162
53.9248 24936 157.911
54.0411 25404 159.386
54.1573 25621 160.066
54.2735 0 1
54.3896 0 1
54.5057 0 1
54.6217 0 1
54.7377 0 1
54.8537 0 1
54.9695 0 1
55.0853 0 1
55.2011 0 1
55.3168 0 1
55.4324 0 1
57.824 0 1
57.9396 0 1
58.0553 0 1
58.1711 0 1
58.2869 0 1
58.4028 0 1
58.5187 0 1
58.6347 0 1
58.7508 0 1
58.8669 0 1
58.983 30816 175.545
59.0992 31734 178.14
59.2155 32239 179.552
59.3318 32917 181.43
59.4482 32791 181.083
59.5646 32758 180.992
59.681 32427 180.075
59.7975 32140 179.276
59.9141 31128 176.431
60.0306 29147 170.725
60.1473 27622 166.199
60.2639 26008 161.27
60.3807 24532 156.627
60.4974 24460 156.397
60.6142 25246 158.89
60.731 26742 163.53
60.8479 29020 170.353
60.9648 30256 173.943
61.0818 30747 175.348
61.1987 30615 174.971
61.3158 31203 176.644
61.4328 30821 175.559
61.5499 30242 173.902
61.667 29667 172.241
61.7841 28471 168.734
61.9013 28126 167.708
62.0185 27634 166.235
62.1357 28051 167.484
62.253 29436 171.569
62.3702 30048 173.344
62.4875 30925 175.855
62.6049 31589 177.733
62.7222 31905 178.62
62.8396 32401 180.003
62.9569 32479 180.219
63.0743 32237 179.547
63.1918 32353 179.869
63.3092 31076 176.284
63.4267 29969 173.116
63.5441 28825 169.779
63.6616 26858 163.884
63.7791 24732 157.264
63.8966 23126 152.072
64.0142 23514 153.343
64.1317 24708 157.188
64.2492 26085 161.509
64.3668 28178 167.863
64.4843 30064 173.39
64.6019 30517 174.691
64.7195 30648 175.066
64.837 30933 175.878
64.9546 30813 175.536
65.0722 30522 174.705
65.1898 30035 173.306
65.3074 29183 170.83
65.4249 27989 167.299
65.5425 27227 165.006
65.6601 27505 165.846
65.7777 28393 168.502
65.8952 29519 171.811
66.0128 30722 175.277
66.1304 31449 177.339
66.2479 32215 179.485
66.3655 32777 181.044
66.483 33070 181.852
66.6005 33639 183.409
66.718 33056 181.813
66.8355 32763 181.006
66.953 32005 178.899
67.0705 30843 175.622
67.1879 29236 170.985
67.3054 27005 164.332
67.4228 24595 156.828
67.5402 23073 151.898
67.6576 23709 153.977
67.7749 24543 156.662
67.8923 27872 166.949
68.0096 29582 171.994
68.1269 31528 177.561
68.2442 32709 180.856
68.3614 33382 182.707
68.4787 33889 184.09
68.5958 33456 182.91
68.713 33650 183.439
68.8302 33114 181.973
68.9473 32190 179.416
69.0643 31031 176.156
69.1814 30210 173.81
69.2984 30421 174.416
69.4154 31705 178.059
69.5323 33374 182.686
69.6492 34961 186.979
69.7661 35449 188.279
69.8829 36491 191.026
69.9997 37754 194.304
70.1165 37817 194.466
70.2332 37921 194.733
70.3499 37924 194.741
70.4665 37401 193.393
70.5831 36840 191.937
70.6996 36081 189.95
70.8161 33907 184.139
70.9326 31698 178.039
71.049 28736 169.517
71.1653 26108 161.58
71.2817 24841 157.61
71.3979 25530 159.781
71.5141 27314 165.269
71.6303 29436 171.569
71.7464 29475 171.683
71.8624 0 1
71.9784 0 1
72.0944 0 1
72.2102 0 1
72.3261 0 1
72.4418 0 1
72.5575 0 1
72.6732 0 1
75.1054 0 1
75.2209 0 1
75.3365 0 1
75.4521 0 1
75.5678 0 1
75.6835 0 1
75.7993 0 1
75.9151 0 1
76.031 0 1
76.147 34267 185.113
76.263 34715 186.32
76.3791 32471 180.197
76.4952 28809 169.732
76.6113 28031 167.425
76.7276 29487 171.718
76.8438 31914 178.645
76.9601 35911 189.502
77.0765 39079 197.684
77.1929 41336 203.313
77.3093 41947 204.81
77.4258 42612 206.427
77.5423 42847 206.995
77.6589 42870 207.051
77.7755 42012 204.968
77.8921 41484 203.676
78.0088 39788 199.469
78.1256 38368 195.878
78.2423 37305 193.145
78.3591 37439 193.492
78.4759 38672 196.652
78.5928 40251 200.627
78.7097 41676 204.147
78.8266 45166 212.523
78.9436 42778 206.828
79.0606 45216 212.641
79.1776 45045 212.238
79.2946 45373 213.009
79.4117 45806 214.023
79.5288 45625 213.6
79.6459 44254 210.366
79.7631 42697 206.633
79.8802 40642 201.599
79.9974 37011 192.382
80.1147 33165 182.113
80.2319 30425 174.428
80.3491 31231 176.723
80.4664 34126 184.732
80.5837 37946 194.797
80.701 41876 204.636
80.8183 44208 210.257
80.9357 44808 211.679
81.053 45835 214.091
81.1704 45652 213.663
81.2877 45780 213.963
81.4051 45700 213.776
81.5225 45842 214.107
81.6399 42936 207.21
81.7573 42171 205.356
81.8747 40184 200.459
81.9922 39448 198.615
82.1096 40351 200.876
82.227 42193 205.409
82.3444 43953 209.65
82.4619 45927 214.306
82.5793 46081 214.665
82.6967 48834 220.984
82.8142 47964 219.007
82.9316 47527 218.007
83.049 47810 218.655
83.1664 46990 216.772
83.2838 46260 215.081
83.4012 44099 209.998
83.5186 42386 205.879
83.636 39093 197.719
83.7534 35209 187.641
83.8708 31675 177.975
83.9881 31597 177.755
84.1055 34119 184.713
84.2228 37349 193.259
84.3401 42667 206.56
84.4575 46033 214.553
84.5747 47978 219.039
84.692 49139 221.673
84.8093 49644 222.809
84.9265 49432 222.333
85.0437 49314 222.068
85.1609 48680 220.635
85.2781 47142 217.122
85.3952 45627 213.605
85.5123 44640 211.282
85.6294 44585 211.152
85.7465 46182 214.9
85.8636 48995 221.348
85.9806 50985 225.799
86.0976 54048 232.482
86.2145 55340 235.245
86.3315 55080 234.691
86.4484 59493 243.912
86.5652 58219 241.286
86.682 58428 241.719
86.7988 57419 239.623
86.9156 57328 239.433
87.0323 55076 234.683
87.149 52795 229.772
87.2657 48664 220.599
87.3823 43750 209.165
87.4988 41137 202.823
87.6154 43573 208.741
87.7318 48617 220.493
87.8483 54803 234.1
87.9647 59570 244.07
88.081 63134 251.265
88.1973 64953 254.859
88.3136 64935 254.823
88.4298 65538 256.004
88.546 65331 255.599
88.6621 64415 253.801
88.7781 62827 250.653
88.8942 0 1
89.0101 0 1
89.126 0 1
89.2419 0 1
89.3577 0 1
89.4734 0 1
89.5891 0 1
89.7047 0 1
89.8203 0 1
89.9358 0 1
92.3269 0 1
92.4424 0 1
92.558 0 1
92.6736 0 1
92.7893 0 1
92.905 0 1
93.0208 0 1
93.1366 0 1
93.2525 0 1
93.3685 0 1
93.4845 0 1
93.6005 71642 267.66
93.7167 73477 271.066
93.8328 73237 270.623
93.949 73514 271.135
94.0653 73271 270.686
94.1816 71864 268.075
94.2979 70807 266.096
94.4143 68415 261.563
94.5307 67027 258.896
94.6472 66324 257.534
94.7637 65712 256.344
94.8803 68495 261.715
94.9969 70148 264.855
95.1135 73630 271.348
95.2302 75895 275.49
95.3469 77488 278.367
95.4637 78127 279.512
95.5805 79859 282.593
95.6973 81230 285.009
95.8142 81481 285.449
95.9311 80334 283.433
96.048 78087 279.441
96.1649 75087 274.02
96.2819 72141 268.591
96.3989 67171 259.174
96.516 62077 249.153
96.633 56815 238.359
96.7501 55767 236.15
96.8673 59606 244.143
96.9844 65111 255.169
97.1016 72880 269.963
97.2188 79234 281.485
97.336 84398 290.513
97.4532 85157 291.817
97.5704 84729 291.082
97.6877 84905 291.385
97.805 83717 289.339
97.9223 82257 286.805
98.0396 79608 282.149
98.1569 77785 278.9
98.2743 75808 275.333
98.3916 75058 273.967
98.509 76159 275.969
98.6264 77907 279.118
98.7438 81519 285.515
98.8612 83822 289.52
98.9786 86830 294.669
99.096 88304 297.16
99.2134 89870 299.783
99.3308 90185 300.308
99.4482 90693 301.153
99.5656 90617 301.027
99.6831 88172 296.938
99.8005 85935 293.147
99.9179 81442 285.38
100.035 77189 277.829
100.153 70082 264.73
100.27 64727 254.415
100.388 64443 253.856
100.505 71490 267.376
100.622 79626 282.181
100.74 87865 296.42
100.857 92485 304.113
100.975 93994 306.584
101.092 94279 307.049
101.209 94776 307.857
101.327 95272 308.662
101.444 94042 306.663
101.561 91897 303.145
101.679 89846 299.743
101.796 86703 294.454
101.913 84897 291.371
102.03 84269 290.291
102.148 86191 293.583
102.265 93877 306.394
102.382 88704 297.832
102.499 95437 308.929
102.616 97986 313.027
102.733 100094 316.376
102.851 101224 318.157
102.968 102328 319.887
103.085 101153 318.046
103.202 99402 315.281
103.319 96389 310.466
103.436 91824 303.025
103.552 87157 295.224
103.669 79398 281.777
103.786 72950 270.093
103.903 72239 268.773
104.02 78491 280.162
104.137 88582 297.627
104.253 100216 316.569
104.37 100840 317.553
104.487 105940 325.484
104.603 106510 326.359
104.72 105967 325.526
104.836 106272 325.994
104.953 104567 323.368
105.069 101828 319.105
105.186 99320 315.151
105.302 96531 310.694
105.418 94633 307.625
105.535 95590 309.176
105.651 98175 313.329
105.767 101282 318.248
105.883 104068 322.596
105.999 106416 326.215
106.115 0 1
106.231 0 1
106.347 0 1
106.463 0 1
106.579 0 1
106.694 0 1
106.81 0 1
106.926 0 1
107.041 0 1
107.157 0 1
109.576 0 1
109.692 0 1
109.807 0 1
109.923 0 1
110.039 0 1
110.155 0 1
110.27 0 1
110.386 0 1
110.502 0 1
110.618 89033 298.384
110.735 93158 305.218
110.851 95947 309.753
110.967 98023 313.086
111.083 99344 315.189
111.199 101014 317.827
111.316 101182 318.091
111.432 102037 319.432
111.549 100012 316.247
111.665 98840 314.388
111.782 94891 308.044
111.898 90624 301.038
112.015 84692 291.019
112.132 77717 278.778
112.248 69658 263.928
112.365 68036 260.837
112.482 71561 267.509
112.599 77024 277.532
112.716 86250 293.684
112.832 91238 302.056
112.949 92345 303.883
113.066 92603 304.307
113.183 92069 303.429
113.3 91248 302.073
113.417 90153 300.255
113.534 88259 297.084
113.652 85039 291.614
113.769 82611 287.421
113.886 79428 281.83
114.003 78406 280.011
114.12 78549 280.266
114.238 79956 282.765
114.355 80964 284.542
114.472 81422 285.345
114.589 82888 287.903
114.707 84407 290.529
114.824 85217 291.92
114.942 86205 293.607
115.059 86455 294.032
115.176 85257 291.988
115.294 83565 289.076
115.411 81593 285.645
115.529 76759 277.054
115.646 72046 268.414
115.764 66304 257.496
115.881 60249 245.457
115.999 61144 247.273
116.116 66098 257.095
116.234 73293 270.727
116.351 79700 282.312
116.469 83273 288.571
116.586 83867 289.598
116.704 85128 291.767
116.821 84366 290.458
116.939 84745 291.11
117.056 83121 288.307
117.174 81168 284.9
117.291 79333 281.661
117.409 77879 279.068
117.526 75960 275.608
117.644 74808 273.511
117.761 76440 276.478
117.879 78603 280.362
117.996 78909 280.907
118.114 80760 284.183
118.231 82134 286.59
118.349 81637 285.722
118.466 83748 289.392
118.584 84363 290.453
118.701 84702 291.036
118.819 82932 287.979
118.936 81085 284.754
119.053 79355 281.7
119.171 75110 274.062
119.288 70326 265.19
119.405 64279 253.533
119.523 58866 242.623
119.64 60027 245.004
119.757 63286 251.567
119.875 70664 265.827
119.992 75581 274.92
120.109 78188 279.621
120.226 80705 284.086
120.343 80841 284.326
120.46 80750 284.165
120.578 80116 283.048
120.695 79694 282.301
120.812 78799 280.712
120.929 76423 276.447
121.046 74302 272.584
121.163 73034 270.248
121.279 72022 268.369
121.396 72096 268.507
121.513 72686 269.603
121.63 75238 274.295
121.747 75115 274.071
121.863 75782 275.285
121.98 77372 278.158
122.097 76967 277.429
122.213 78455 280.098
122.33 78573 280.309
122.446 78327 279.87
122.563 77234 277.91
122.679 75595 274.945
122.795 73682 271.444
122.912 70677 265.851
123.028 66384 257.651
123.144 60360 245.683
123.26 56461 237.615
123.377 0 1
123.493 0 1
123.609 0 1
123.725 0 1
123.84 0 1
123.956 0 1
124.072 0 1
124.188 0 1
124.303 0 1
124.419 0 1
126.852 0 1
126.968 0 1
127.083 0 1
127.199 0 1
127.315 0 1
127.431 0 1
127.547 0 1
127.663 0 1
127.779 0 1
127.895 0 1
128.011 0 1
128.127 0 1
128.243 0 1
128.359 66448 257.775
128.476 60491 245.949
128.592 60738 246.451
128.708 65748 256.414
128.825 72654 269.544
128.941 78845 280.794
129.058 81952 286.273
129.174 83208 288.458
129.291 84086 289.976
129.408 83756 289.406
129.524 83083 288.241
129.641 82940 287.993
129.758 80663 284.012
129.875 79316 281.631
129.992 77254 277.946
130.108 75906 275.51
130.225 75072 273.993
130.342 75198 274.223
130.459 74768 273.437
130.576 79194 281.414
130.693 78285 279.795
130.81 78824 280.756
130.928 78677 280.494
131.045 78732 280.592
131.162 79337 281.668
131.279 80288 283.351
131.396 79993 282.83
131.513 78241 279.716
131.631 75830 275.372
131.748 73707 271.49
131.865 67366 259.55
131.983 60878 246.735
132.1 58160 241.164
132.217 60976 246.933
132.335 66590 258.05
132.452 72208 268.715
132.57 77267 277.969
132.687 75533 274.833
132.804 80546 283.806
132.922 78149 279.551
133.039 77965 279.222
133.157 77106 277.68
133.274 77163 277.782
133.392 75733 275.196
133.509 73265 270.675
133.627 72248 268.79
133.744 71084 266.616
133.862 70120 264.802
133.979 72224 268.745
134.097 72798 269.811
134.214 74639 273.201
134.332 72896 269.993
134.449 74281 272.545
134.567 73670 271.422
134.684 74568 273.071
134.802 75815 275.345
134.919 76018 275.714
135.037 75593 274.942
135.154 73738 271.547
135.272 71524 267.44
135.389 67718 260.227
135.507 62124 249.247
135.624 57104 238.964
135.742 56590 237.887
135.859 60674 246.321
135.977 66592 258.054
136.094 71627 267.632
136.211 73769 271.604
136.329 76108 275.877
136.446 75863 275.432
136.564 76006 275.692
136.681 77074 277.622
136.798 75015 273.889
136.915 75005 273.87
137.033 73292 270.725
137.15 71206 266.845
137.267 69906 264.397
137.384 69191 263.042
137.502 68616 261.947
137.619 69007 262.692
137.736 70916 266.301
137.853 69776 264.151
137.97 69363 263.369
138.087 73309 270.756
138.204 71580 267.544
138.321 72133 268.576
138.438 73032 270.244
138.555 73664 271.411
138.672 73350 270.832
138.788 72084 268.485
138.905 70489 265.498
139.022 67169 259.17
139.139 61870 248.737
139.255 57429 239.643
139.372 56164 236.989
139.488 59874 244.692
139.605 64921 254.796
139.721 69642 263.898
139.838 72833 269.876
139.954 73704 271.485
140.071 72854 269.915
140.187 73515 271.136
140.303 72448 269.162
140.419 72481 269.223
140.535 71468 267.335
140.652 69569 263.759
140.768 0 1
140.884 0 1
141 0 1
141.115 0 1
141.231 0 1
141.347 0 1
141.463 0 1
141.578 0 1
141.694 0 1
144.104 0 1
144.219 0 1
144.335 0 1
144.45 0 1
144.566 0 1
144.682 0 1
144.798 0 1
144.914 0 1
145.03 0 1
145.146 62237 249.473
145.262 62734 250.468
145.378 62945 250.888
145.494 62390 249.78
145.61 61847 248.691
145.726 60178 245.312
145.842 59028 242.957
145.959 57390 239.562
146.075 57551 239.898
146.192 57131 239.021
146.308 58276 241.404
146.425 58728 242.339
146.541 58477 241.82
146.658 58645 242.167
146.774 58686 242.252
146.891 58984 242.866
147.008 59680 244.295
147.125 59892 244.728
147.241 59835 244.612
147.358 58279 241.41
147.475 56638 237.987
147.592 54392 233.221
147.709 51178 226.226
147.826 47152 217.145
147.943 45577 213.488
148.06 47506 217.959
148.177 52242 228.565
148.294 55650 235.903
148.411 57739 240.289
148.528 58427 241.717
148.645 58653 242.184
148.762 58774 242.433
148.88 58553 241.977
148.997 56522 237.744
149.114 59504 243.934
149.231 56703 238.124
149.349 56116 236.888
149.466 53973 232.321
149.583 53236 230.729
149.701 52467 229.057
149.818 52691 229.545
149.935 53701 231.735
150.053 53731 231.799
150.17 53453 231.199
150.287 54094 232.581
150.405 53883 232.127
150.522 55186 234.917
150.64 55695 235.998
150.757 55671 235.947
150.875 55887 236.404
150.992 55508 235.601
151.11 52929 230.063
151.227 51343 226.59
151.344 48026 219.148
151.462 44596 211.178
151.579 43695 209.033
151.697 45646 213.649
151.814 49623 222.762
151.932 52786 229.752
152.049 56112 236.88
152.167 56374 237.432
152.284 56465 237.624
152.402 56575 237.855
152.519 56879 238.493
152.636 56491 237.678
152.754 56027 236.7
152.871 55133 234.804
152.989 53858 232.073
153.106 53391 231.065
153.223 52362 228.827
153.341 51718 227.416
153.458 51701 227.379
153.575 52889 229.976
153.693 53234 230.725
153.81 53533 231.372
153.927 53259 230.779
154.044 54023 232.428
154.162 55208 234.964
154.279 56347 237.375
154.396 56788 238.302
154.513 57225 239.217
154.63 56258 237.188
154.747 54998 234.517
154.864 53293 230.853
154.981 51034 225.907
155.098 47612 218.202
155.215 46026 214.537
155.332 48354 219.895
155.449 51123 226.104
155.566 54453 233.352
155.683 55914 236.461
155.8 56687 238.09
155.917 56944 238.629
156.033 57000 238.747
156.15 0 1
156.267 0 1
156.383 0 1
156.5 0 1
156.617 0 1
156.733 0 1
156.85 0 1
156.966 0 1
157.082 0 1
157.199 0 1
157.315 0 1
157.431 0 1
157.547 0 1
157.664 0 1
157.78 0 1
157.896 0 1
158.012 0 1
158.128 0 1
158.244 0 1
158.359 0 1
158.475 0 1
158.591 0 1
158.706 0 1
