
6.15755 0 1
6.2731 0 1
6.3887 0 1
6.50437 0 1
6.62009 0 1
6.73587 0 1
6.8517 0 1
6.96759 0 1
7.08353 0 1
7.19952 0 1
7.31557 0 1
7.43166 0 1
7.54781 0 1
7.664 0 1
7.78024 0 1
7.89653 0 1
8.01286 0 1
8.12924 0 1
8.24567 0 1
8.36213 0 1
8.47864 0 1
8.59519 0 1
8.71178 0 1
8.82841 0 1
8.94508 0 1
9.06179 0 1
9.17853 0 1
9.29531 0 1
9.41212 0 1
9.52897 0 1
9.64584 0 1
9.76276 0 1
9.8797 0 1
9.99667 0 1
10.1137 0 1
10.2307 0 1
10.3478 0 1
10.4648 0 1
10.5819 0 1
10.6991 0 1
10.8162 0 1
10.9334 0 1
11.0506 0 1
11.1678 0 1
11.285 0 1
11.4023 0 1
11.5196 0 1
11.6369 0 1
11.7542 0 1
11.8715 0 1
11.9888 0 1
12.1062 0 1
12.2235 0 1
12.3409 0 1
12.4582 0 1
12.5756 0 1
12.693 0 1
12.8104 0 1
12.9278 0 1
13.0452 0 1
13.1626 0 1
13.28 0 1
13.3974 0 1
13.5149 0 1
13.6323 0 1
13.7497 0 1
13.8671 0 1
13.9845 0 1
14.1019 0 1
14.2193 0 1
14.3367 0 1
14.4541 0 1
14.5714 0 1
14.6888 0 1
14.8062 0 1
14.9235 0 1
15.0408 1367 36.973
15.1581 1482 38.4968
15.2755 1544 39.2938
15.3927 1614 40.1746
15.51 1535 39.1791
15.6273 1612 40.1497
15.7445 1573 39.6611
15.8617 1553 39.4081
15.9789 1618 40.2244
16.0961 1514 38.9102
16.2132 1516 38.9358
16.3304 1604 40.05
16.4475 1661 40.7554
16.5646 1698 41.2068
16.6816 1768 42.0476
16.7986 1797 42.391
16.9156 1865 43.1856
17.0326 1834 42.8252
17.1496 1786 42.2611
17.2665 1870 43.2435
17.3833 1881 43.3705
17.5002 1811 42.5558
17.617 1767 42.0357
17.7338 1650 40.6202
17.8505 1674 40.9145
17.9672 1549 39.3573
18.0839 1668 40.8412
18.2005 1652 40.6448
18.3171 1725 41.5331
18.4337 1722 41.497
18.5502 1795 42.3674
18.6666 1890 43.4741
18.7831 1811 42.5558
18.8994 1884 43.4051
19.0158 1865 43.1856
19.1321 1742 41.7373
19.2483 1699 41.2189
19.3645 1574 39.6737
19.4806 1563 39.5348
19.5967 1463 38.2492
19.7128 1310 36.1939
19.8288 1199 34.6266
19.9447 1082 32.8938
20.0606 0 1
20.1764 0 1
20.2922 0 1
20.4079 0 1
20.5236 0 1
20.6392 0 1
20.7548 0 1
20.8702 0 1
23.3078 0 1
23.4233 0 1
23.539 0 1
23.6547 0 1
23.7704 0 1
23.8862 0 1
24.0021 0 1
24.118 0 1
24.234 0 1
24.35 0 1
24.4661 771 27.7669
24.5822 880 29.6648
24.6984 976 31.241
24.8146 1099 33.1512
24.9309 1196 34.5832
25.0472 1238 35.1852
25.1636 1367 36.973
25.28 1618 40.2244
25.3965 1772 42.0951
25.513 1708 41.328
25.6296 1924 43.8634
25.7462 1849 43
25.8628 1971 44.3959
25.9795 1974 44.4297
26.0962 1976 44.4522
26.213 1911 43.715
26.3298 1724 41.5211
26.4466 1683 41.0244
26.5635 1632 40.398
26.6804 1632 40.398
26.7973 1787 42.2729
26.9143 1851 43.0232
27.0313 1790 42.3084
27.1483 1826 42.7317
27.2653 1857 43.0929
27.3824 1910 43.7035
27.4996 1948 44.1362
27.6167 1928 43.909
27.7339 1872 43.2666
27.8511 1776 42.1426
27.9683 1807 42.5088
28.0855 1666 40.8167
28.2028 1648 40.5956
28.3201 1644 40.5463
28.4374 1574 39.6737
28.5547 1536 39.1918
28.6721 1652 40.6448
28.7894 1724 41.5211
28.9068 1787 42.2729
29.0242 1906 43.6578
29.1416 1915 43.7607
29.259 1906 43.6578
29.3764 1932 43.9545
29.4939 1870 43.2435
29.6113 1840 42.8952
29.7288 1758 41.9285
29.8463 1781 42.2019
29.9638 1597 39.9625
30.0812 1625 40.3113
30.1987 1560 39.4968
30.3162 1672 40.8901
30.4337 1704 41.2795
30.5512 1698 41.2068
30.6687 1810 42.5441
30.7862 1786 42.2611
30.9037 1972 44.4072
31.0212 1862 43.1509
31.1387 1785 42.2493
31.2562 1756 41.9047
31.3737 1817 42.6263
31.4912 1704 41.2795
31.6087 1739 41.7013
31.7262 1670 40.8656
31.8436 1666 40.8167
31.9611 1497 38.6911
32.0785 1484 38.5227
32.1959 1588 39.8497
32.3134 1644 40.5463
32.4308 1779 42.1782
32.5482 1839 42.8836
32.6655 1944 44.0908
32.7829 1857 43.0929
32.9002 1803 42.4617
33.0176 1830 42.7785
33.1349 1925 43.8748
33.2522 1797 42.391
33.3694 1709 41.3401
33.4867 1641 40.5093
33.6039 1670 40.8656
33.7211 1550 39.37
33.8383 1514 38.9102
33.9554 1535 39.1791
34.0725 1668 40.8412
34.1896 1654 40.6694
34.3067 1653 40.6571
34.4237 1772 42.0951
34.5407 1691 41.1218
34.6577 1745 41.7732
34.7746 1768 42.0476
34.8915 1791 42.3202
35.0084 1828 42.7551
35.1252 1681 41
35.242 1617 40.2119
35.3587 1653 40.6571
35.4755 1592 39.8999
35.5921 1459 38.1969
35.7088 1455 38.1445
35.8254 1471 38.3536
35.9419 1504 38.7814
36.0584 1474 38.3927
36.1749 1616 40.1995
36.2913 1706 41.3038
36.4077 1625 40.3113
36.524 1600 40
36.6403 1617 40.2119
36.7565 1450 38.0789
36.8727 1415 37.6165
36.9889 1328 36.4417
37.1049 1214 34.8425
37.221 0 1
37.3369 0 1
37.4529 0 1
37.5687 0 1
37.6845 0 1
37.8003 0 1
37.916 0 1
38.0316 0 1
38.1472 0 1
40.5851 0 1
40.7008 0 1
40.8164 0 1
40.9322 0 1
41.048 0 1
41.1639 0 1
41.2798 0 1
41.3958 0 1
41.5118 0 1
41.6279 0 1
41.744 876 29.5973
41.8602 883 29.7153
41.9765 1049 32.3883
42.0928 999 31.607
42.2091 1045 32.3265
42.3255 1065 32.6343
42.4419 983 31.3528
42.5584 988 31.4325
42.675 1125 33.541
42.7915 1227 35.0286
42.9081 1300 36.0555
43.0248 1374 37.0675
43.1415 1401 37.4299
43.2582 1440 37.9473
43.375 1483 38.5097
43.4918 1464 38.2623
43.6087 1486 38.5487
43.7256 1435 37.8814
43.8425 1427 37.7757
43.9595 1324 36.3868
44.0765 1325 36.4005
44.1935 1323 36.3731
44.3106 1312 36.2215
44.4277 1299 36.0416
44.5448 1157 34.0147
44.6619 1303 36.0971
44.7791 1305 36.1248
44.8963 1349 36.7287
45.0136 1453 38.1182
45.1308 1509 38.8458
45.2481 1518 38.9615
45.3654 1536 39.1918
45.4827 1479 38.4578
45.6001 1472 38.3667
45.7174 1430 37.8153
45.8348 1292 35.9444
45.9522 1296 36
46.0697 1252 35.3836
46.1871 1216 34.8712
46.3046 1270 35.6371
46.422 1256 35.4401
46.5395 1440 37.9473
46.657 1422 37.7094
46.7745 1416 37.6298
46.892 1443 37.9868
47.0096 1517 38.9487
47.1271 1562 39.5221
47.2446 1528 39.0896
47.3622 1515 38.923
47.4797 1463 38.2492
47.5973 1524 39.0384
47.7149 1431 37.8286
47.8324 1372 37.0405
47.95 1354 36.7967
48.0675 1237 35.171
48.1851 1251 35.3695
48.3027 1251 35.3695
48.4202 1352 36.7696
48.5378 1429 37.8021
48.6554 1497 38.6911
48.7729 1445 38.0132
48.8904 1488 38.5746
49.008 1520 38.9872
49.1255 1526 39.064
49.243 1519 38.9744
49.3605 1375 37.081
49.478 1301 36.0694
49.5955 1187 34.4529
49.713 1149 33.8969
49.8304 1221 34.9428
49.9479 1256 35.4401
50.0653 1344 36.6606
50.1827 1448 38.0526
50.3001 1386 37.229
50.4175 1555 39.4335
50.5348 1527 39.0768
50.6521 1535 39.1791
50.7694 1597 39.9625
50.8867 1628 40.3485
51.004 1616 40.1995
51.1212 1588 39.8497
51.2384 1526 39.064
51.3556 1533 39.1535
51.4727 1426 37.7624
51.5899 1409 37.5366
51.707 1395 37.3497
51.824 1409 37.5366
51.9411 1546 39.3192
52.0581 1657 40.7063
52.175 1733 41.6293
52.2919 1914 43.7493
52.4088 1986 44.5646
52.5257 1951 44.1701
52.6425 2089 45.7056
52.7593 2006 44.7884
52.876 2073 45.5302
52.9927 1905 43.6463
53.1094 1805 42.4853
53.226 1764 42
53.3426 1696 41.1825
53.4591 1697 41.1947
53.5756 1703 41.2674
53.692 1720 41.4729
53.8084 1737 41.6773
53.9248 1715 41.4126
54.0411 1646 40.5709
54.1573 1472 38.3667
54.2735 0 1
54.3896 0 1
54.5057 0 1
54.6217 0 1
54.7377 0 1
54.8537 0 1
54.9695 0 1
55.0853 0 1
55.2011 0 1
55.3168 0 1
55.4324 0 1
57.824 0 1
57.9396 0 1
58.0553 0 1
58.1711 0 1
58.2869 0 1
58.4028 0 1
58.5187 0 1
58.6347 0 1
58.7508 0 1
58.8669 0 1
58.983 1184 34.4093
59.0992 1309 36.1801
59.2155 1516 38.9358
59.3318 1633 40.4104
59.4482 1632 40.398
59.5646 1666 40.8167
59.681 1788 42.2847
59.7975 1736 41.6653
59.9141 1736 41.6653
60.0306 1734 41.6413
60.1473 1659 40.7308
60.2639 1641 40.5093
60.3807 1639 40.4846
60.4974 1628 40.3485
60.6142 1644 40.5463
60.731 1727 41.5572
60.8479 1913 43.7379
60.9648 1930 43.9318
61.0818 1922 43.8406
61.1987 1818 42.638
61.3158 1955 44.2154
61.4328 1865 43.1856
61.5499 1661 40.7554
61.667 1635 40.4351
61.7841 1470 38.3406
61.9013 1430 37.8153
62.0185 1451 38.092
62.1357 1537 39.2046
62.253 1532 39.1408
62.3702 1725 41.5331
62.4875 1792 42.332
62.6049 1906 43.6578
62.7222 1894 43.5201
62.8396 1857 43.0929
62.9569 1950 44.1588
63.0743 1852 43.0349
63.1918 1772 42.0951
63.3092 1843 42.9302
63.4267 1783 42.2256
63.5441 1797 42.391
63.6616 1676 40.939
63.7791 1612 40.1497
63.8966 1530 39.1152
64.0142 1535 39.1791
64.1317 1565 39.5601
64.2492 1749 41.821
64.3668 1782 42.2137
64.4843 1893 43.5086
64.6019 1892 43.4971
64.7195 1877 43.3244
64.837 1876 43.3128
64.9546 1857 43.0929
65.0722 1792 42.332
65.1898 1649 40.6079
65.3074 1568 39.598
65.4249 1459 38.1969
65.5425 1426 37.7624
65.6601 1425 37.7492
65.7777 1519 38.9744
65.8952 1620 40.2492
66.0128 1747 41.7971
66.1304 1762 41.9762
66.2479 1793 42.3438
66.3655 1790 42.3084
66.483 1816 42.6146
66.6005 1911 43.715
66.718 1810 42.5441
66.8355 1738 41.6893
66.953 1807 42.5088
67.0705 1793 42.3438
67.1879 1650 40.6202
67.3054 1641 40.5093
67.4228 1498 38.704
67.5402 1463 38.2492
67.6576 1442 37.9737
67.7749 1487 38.5616
67.8923 1581 39.7618
68.0096 1732 41.6173
68.1269 1745 41.7732
68.2442 1785 42.2493
68.3614 1809 42.5323
68.4787 1798 42.4028
68.5958 1800 42.4264
68.713 1743 41.7493
68.8302 1565 39.5601
68.9473 1500 38.7298
69.0643 1413 37.5899
69.1814 1347 36.7015
69.2984 1391 37.2961
69.4154 1420 37.6829
69.5323 1557 39.4588
69.6492 1637 40.4599
69.7661 1652 40.6448
69.8829 1652 40.6448
69.9997 1781 42.2019
70.1165 1641 40.5093
70.2332 1643 40.5339
70.3499 1483 38.5097
70.4665 1495 38.6652
70.5831 1383 37.1887
70.6996 1344 36.6606
70.8161 1234 35.1283
70.9326 1147 33.8674
71.049 980 31.305
71.1653 895 29.9166
71.2817 717 26.7769
71.3979 676 26
71.5141 655 25.593
71.6303 622 24.9399
71.7464 580 24.0832
71.8624 0 1
71.9784 0 1
72.0944 0 1
72.2102 0 1
72.3261 0 1
72.4418 0 1
72.5575 0 1
72.6732 0 1
75.1054 0 1
75.2209 0 1
75.3365 0 1
75.4521 0 1
75.5678 0 1
75.6835 0 1
75.7993 0 1
75.9151 0 1
76.031 0 1
76.147 1114 33.3766
76.263 1163 34.1028
76.3791 1148 33.8821
76.4952 1104 33.2265
76.6113 1197 34.5977
76.7276 1152 33.9411
76.8438 1338 36.5787
76.9601 1437 37.9078
77.0765 1505 38.7943
77.1929 1505 38.7943
77.3093 1571 39.6358
77.4258 1643 40.5339
77.5423 1587 39.8372
77.6589 1550 39.37
77.7755 1428 37.7889
77.8921 1305 36.1248
78.0088 1213 34.8281
78.1256 1142 33.7935
78.2423 1104 33.2265
78.3591 1160 34.0588
78.4759 1288 35.8887
78.5928 1390 37.2827
78.7097 1461 38.223
78.8266 1482 38.4968
78.9436 1563 39.5348
79.0606 1507 38.8201
79.1776 1570 39.6232
79.2946 1601 40.0125
79.4117 1555 39.4335
79.5288 1587 39.8372
79.6459 1617 40.2119
79.7631 1543 39.281
79.8802 1548 39.3446
79.9974 1409 37.5366
80.1147 1302 36.0832
80.2319 1195 34.5688
80.3491 1228 35.0428
80.4664 1374 37.0675
80.5837 1451 38.092
80.701 1530 39.1152
80.8183 1575 39.6863
80.9357 1605 40.0625
81.053 1667 40.8289
81.1704 1692 41.1339
81.2877 1714 41.4005
81.4051 1565 39.5601
81.5225 1424 37.7359
81.6399 1410 37.55
81.7573 1271 35.6511
81.8747 1165 34.1321
81.9922 1214 34.8425
82.1096 1302 36.0832
82.227 1415 37.6165
82.3444 1506 38.8072
82.4619 1515 38.923
82.5793 1644 40.5463
82.6967 1610 40.1248
82.8142 1683 41.0244
82.9316 1678 40.9634
83.049 1647 40.5832
83.1664 1623 40.2865
83.2838 1596 39.95
83.4012 1525 39.0512
83.5186 1584 39.7995
83.636 1432 37.8418
83.7534 1393 37.3229
83.8708 1281 35.7911
83.9881 1224 34.9857
84.1055 1345 36.6742
84.2228 1358 36.8511
84.3401 1481 38.4838
84.4575 1548 39.3446
84.5747 1638 40.4722
84.692 1633 40.4104
84.8093 1670 40.8656
84.9265 1664 40.7922
85.0437 1564 39.5474
85.1609 1437 37.9078
85.2781 1339 36.5923
85.3952 1273 35.6791
85.5123 1204 34.6987
85.6294 1197 34.5977
85.7465 1343 36.647
85.8636 1433 37.855
85.9806 1496 38.6782
86.0976 1557 39.4588
86.2145 1573 39.6611
86.3315 1708 41.328
86.4484 1655 40.6817
86.5652 1635 40.4351
86.682 1574 39.6737
86.7988 1641 40.5093
86.9156 1659 40.7308
87.0323 1656 40.694
87.149 1650 40.6202
87.2657 1417 37.6431
87.3823 1253 35.3977
87.4988 1141 33.7787
87.6154 1136 33.7046
87.7318 1129 33.6006
87.8483 1135 33.6898
87.9647 1258 35.4683
88.081 1310 36.1939
88.1973 1229 35.0571
88.3136 1222 34.9571
88.4298 1180 34.3511
88.546 1140 33.7639
88.6621 1007 31.7333
88.7781 741 27.2213
88.8942 0 1
89.0101 0 1
89.126 0 1
89.2419 0 1
89.3577 0 1
89.4734 0 1
89.5891 0 1
89.7047 0 1
89.8203 0 1
89.9358 0 1
92.3269 0 1
92.4424 0 1
92.558 0 1
92.6736 0 1
92.7893 0 1
92.905 0 1
93.0208 0 1
93.1366 0 1
93.2525 0 1
93.3685 0 1
93.4845 0 1
93.6005 1231 35.0856
93.7167 1301 36.0694
93.8328 1326 36.4143
93.949 1393 37.3229
94.0653 1475 38.4057
94.1816 1399 37.4032
94.2979 1452 38.1051
94.4143 1291 35.9305
94.5307 1251 35.3695
94.6472 1233 35.1141
94.7637 1230 35.0714
94.8803 1349 36.7287
94.9969 1459 38.1969
95.1135 1477 38.4318
95.2302 1581 39.7618
95.3469 1580 39.7492
95.4637 1708 41.328
95.5805 1709 41.3401
95.6973 1739 41.7013
95.8142 1714 41.4005
95.9311 1656 40.694
96.048 1674 40.9145
96.1649 1648 40.5956
96.2819 1645 40.5586
96.3989 1593 39.9124
96.516 1510 38.8587
96.633 1408 37.5233
96.7501 1337 36.565
96.8673 1338 36.5787
96.9844 1349 36.7287
97.1016 1485 38.5357
97.2188 1569 39.6106
97.336 1764 42
97.4532 1642 40.5216
97.5704 1780 42.19
97.6877 1738 41.6893
97.805 1718 41.4488
97.9223 1506 38.8072
98.0396 1469 38.3275
98.1569 1313 36.2353
98.2743 1244 35.2704
98.3916 1249 35.3412
98.509 1277 35.7351
98.6264 1415 37.6165
98.7438 1560 39.4968
98.8612 1702 41.2553
98.9786 1722 41.497
99.096 1746 41.7852
99.2134 1845 42.9535
99.3308 1788 42.2847
99.4482 1781 42.2019
99.5656 1829 42.7668
99.6831 1774 42.1189
99.8005 1713 41.3884
99.9179 1626 40.3237
100.035 1619 40.2368
100.153 1568 39.598
100.27 1534 39.1663
100.388 1434 37.8682
100.505 1462 38.2361
100.622 1558 39.4715
100.74 1653 40.6571
100.857 1809 42.5323
100.975 1858 43.1045
101.092 1898 43.566
101.209 1876 43.3128
101.327 1840 42.8952
101.444 1767 42.0357
101.561 1589 39.8623
101.679 1458 38.1838
101.796 1373 37.054
101.913 1348 36.7151
102.03 1328 36.4417
102.148 1387 37.2424
102.265 1582 39.7744
102.382 1744 41.7612
102.499 1809 42.5323
102.616 1897 43.5546
102.733 1836 42.8486
102.851 1887 43.4396
102.968 1927 43.8976
103.085 1815 42.6028
103.202 1908 43.6807
103.319 1871 43.2551
103.436 1808 42.5206
103.552 1792 42.332
103.669 1707 41.3159
103.786 1616 40.1995
103.903 1557 39.4588
104.02 1532 39.1408
104.137 1654 40.6694
104.253 1709 41.3401
104.37 1876 43.3128
104.487 1924 43.8634
104.603 1930 43.9318
104.72 1876 43.3128
104.836 1847 42.9767
104.953 1719 41.4608
105.069 1554 39.4208
105.186 1401 37.4299
105.302 1225 35
105.418 1209 34.7707
105.535 1248 35.327
105.651 1178 34.322
105.767 1197 34.5977
105.883 1211 34.7994
105.999 1115 33.3916
106.115 0 1
106.231 0 1
106.347 0 1
106.463 0 1
106.579 0 1
106.694 0 1
106.81 0 1
106.926 0 1
107.041 0 1
107.157 0 1
109.576 0 1
109.692 0 1
109.807 0 1
109.923 0 1
110.039 0 1
110.155 0 1
110.27 0 1
110.386 0 1
110.502 0 1
110.618 779 27.9106
110.735 986 31.4006
110.851 1216 34.8712
110.967 1348 36.7151
111.083 1493 38.6394
111.199 1528 39.0896
111.316 1575 39.6863
111.432 1724 41.5211
111.549 1772 42.0951
111.665 1708 41.328
111.782 1770 42.0714
111.898 1740 41.7133
112.015 1703 41.2674
112.132 1632 40.398
112.248 1555 39.4335
112.365 1486 38.5487
112.482 1374 37.0675
112.599 1594 39.9249
112.716 1585 39.8121
112.832 1797 42.391
112.949 1770 42.0714
113.066 1773 42.107
113.183 1818 42.638
113.3 1802 42.45
113.417 1769 42.0595
113.534 1693 41.1461
113.652 1571 39.6358
113.769 1444 38
113.886 1359 36.8646
114.003 1287 35.8748
114.12 1289 35.9026
114.238 1470 38.3406
114.355 1522 39.0128
114.472 1646 40.5709
114.589 1810 42.5441
114.707 1830 42.7785
114.824 1768 42.0476
114.942 1817 42.6263
115.059 1749 41.821
115.176 1832 42.8019
115.294 1870 43.2435
115.411 1794 42.3556
115.529 1722 41.497
115.646 1693 41.1461
115.764 1596 39.95
115.881 1529 39.1024
115.999 1438 37.921
116.116 1539 39.2301
116.234 1594 39.9249
116.351 1714 41.4005
116.469 1737 41.6773
116.586 1867 43.2088
116.704 1812 42.5676
116.821 1772 42.0951
116.939 1767 42.0357
117.056 1748 41.8091
117.174 1626 40.3237
117.291 1576 39.6989
117.409 1371 37.027
117.526 1283 35.819
117.644 1247 35.3129
117.761 1380 37.1484
117.879 1511 38.8716
117.996 1596 39.95
118.114 1707 41.3159
118.231 1793 42.3438
118.349 1758 41.9285
118.466 1810 42.5441
118.584 1777 42.1545
118.701 1712 41.3763
118.819 1760 41.9524
118.936 1689 41.0974
119.053 1672 40.8901
119.171 1596 39.95
119.288 1577 39.7115
119.405 1577 39.7115
119.523 1374 37.0675
119.64 1436 37.8946
119.757 1420 37.6829
119.875 1495 38.6652
119.992 1546 39.3192
120.109 1685 41.0488
120.226 1713 41.3884
120.343 1690 41.1096
120.46 1727 41.5572
120.578 1745 41.7732
120.695 1709 41.3401
120.812 1602 40.025
120.929 1509 38.8458
121.046 1325 36.4005
121.163 1248 35.327
121.279 1161 34.0735
121.396 1182 34.3802
121.513 1272 35.6651
121.63 1254 35.4119
121.747 1387 37.2424
121.863 1417 37.6431
121.98 1365 36.9459
122.097 1359 36.8646
122.213 1364 36.9324
122.33 1355 36.8103
122.446 1242 35.242
122.563 1237 35.171
122.679 1261 35.5106
122.795 1108 33.2866
122.912 968 31.1127
123.028 859 29.3087
123.144 754 27.4591
123.26 670 25.8844
123.377 0 1
123.493 0 1
123.609 0 1
123.725 0 1
123.84 0 1
123.956 0 1
124.072 0 1
124.188 0 1
124.303 0 1
124.419 0 1
126.852 0 1
126.968 0 1
127.083 0 1
127.199 0 1
127.315 0 1
127.431 0 1
127.547 0 1
127.663 0 1
127.779 0 1
127.895 0 1
128.011 0 1
128.127 0 1
128.243 0 1
128.359 1643 40.5339
128.476 1566 39.5727
128.592 1577 39.7115
128.708 1572 39.6485
128.825 1580 39.7492
128.941 1643 40.5339
129.058 1746 41.7852
129.174 1765 42.0119
129.291 1793 42.3438
129.408 1861 43.1393
129.524 1769 42.0595
129.641 1867 43.2088
129.758 1796 42.3792
129.875 1727 41.5572
129.992 1546 39.3192
130.108 1452 38.1051
130.225 1396 37.3631
130.342 1333 36.5103
130.459 1438 37.921
130.576 1551 39.3827
130.693 1615 40.1871
130.81 1720 41.4729
130.928 1779 42.1782
131.045 1729 41.5812
131.162 1808 42.5206
131.279 1867 43.2088
131.396 1869 43.2319
131.513 1773 42.107
131.631 1840 42.8952
131.748 1740 41.7133
131.865 1680 40.9878
131.983 1691 41.1218
132.1 1626 40.3237
132.217 1542 39.2683
132.335 1651 40.6325
132.452 1614 40.1746
132.57 1735 41.6533
132.687 1751 41.845
132.804 1807 42.5088
132.922 1911 43.715
133.039 1910 43.7035
133.157 1861 43.1393
133.274 1801 42.4382
133.392 1820 42.6615
133.509 1641 40.5093
133.627 1562 39.5221
133.744 1452 38.1051
133.862 1369 37
133.979 1424 37.7359
134.097 1463 38.2492
134.214 1632 40.398
134.332 1696 41.1825
134.449 1738 41.6893
134.567 1841 42.9069
134.684 1821 42.6732
134.802 1857 43.0929
134.919 1789 42.2966
135.037 1823 42.6966
135.154 1821 42.6732
135.272 1834 42.8252
135.389 1738 41.6893
135.507 1718 41.4488
135.624 1743 41.7493
135.742 1659 40.7308
135.859 1653 40.6571
135.977 1625 40.3113
136.094 1686 41.0609
136.211 1719 41.4608
136.329 1782 42.2137
136.446 1802 42.45
136.564 1869 43.2319
136.681 1945 44.1022
136.798 1794 42.3556
136.915 1802 42.45
137.033 1812 42.5676
137.15 1647 40.5832
137.267 1482 38.4968
137.384 1452 38.1051
137.502 1357 36.8375
137.619 1403 37.4566
137.736 1567 39.5854
137.853 1585 39.8121
137.97 1654 40.6694
138.087 1677 40.9512
138.204 1756 41.9047
138.321 1834 42.8252
138.438 1851 43.0232
138.555 1788 42.2847
138.672 1825 42.72
138.788 1729 41.5812
138.905 1694 41.1582
139.022 1576 39.6989
139.139 1462 38.2361
139.255 1406 37.4967
139.372 1303 36.0971
139.488 1224 34.9857
139.605 1193 34.5398
139.721 1183 34.3948
139.838 1212 34.8138
139.954 1203 34.6843
140.071 1166 34.1467
140.187 1105 33.2415
140.303 987 31.4166
140.419 968 31.1127
140.535 857 29.2746
140.652 805 28.3725
140.768 0 1
140.884 0 1
141 0 1
141.115 0 1
141.231 0 1
141.347 0 1
141.463 0 1
141.578 0 1
141.694 0 1
144.104 0 1
144.219 0 1
144.335 0 1
144.45 0 1
144.566 0 1
144.682 0 1
144.798 0 1
144.914 0 1
145.03 0 1
145.146 1285 35.8469
145.262 1348 36.7151
145.378 1447 38.0395
145.494 1509 38.8458
145.61 1467 38.3014
145.726 1475 38.4057
145.842 1443 37.9868
145.959 1351 36.756
146.075 1189 34.4819
146.192 1210 34.7851
146.308 1106 33.2566
146.425 1119 33.4515
146.541 1234 35.1283
146.658 1316 36.2767
146.774 1364 36.9324
146.891 1345 36.6742
147.008 1434 37.8682
147.125 1381 37.1618
147.241 1386 37.229
147.358 1392 37.3095
147.475 1430 37.8153
147.592 1392 37.3095
147.709 1398 37.3898
147.826 1382 37.1753
147.943 1303 36.0971
148.06 1286 35.8608
148.177 1221 34.9428
148.294 1268 35.609
148.411 1294 35.9722
148.528 1270 35.6371
148.645 1388 37.2559
148.762 1420 37.6829
148.88 1436 37.8946
148.997 1522 39.0128
149.114 1429 37.8021
149.231 1360 36.8782
149.349 1370 37.0135
149.466 1411 37.5633
149.583 1286 35.8608
149.701 1288 35.8887
149.818 1162 34.0881
149.935 1148 33.8821
150.053 1146 33.8526
150.17 1187 34.4529
150.287 1263 35.5387
150.405 1292 35.9444
150.522 1324 36.3868
150.64 1346 36.6879
150.757 1329 36.4555
150.875 1353 36.7831
150.992 1347 36.7015
151.11 1464 38.2623
151.227 1342 36.6333
151.344 1424 37.7359
151.462 1279 35.7631
151.579 1287 35.8748
151.697 1233 35.1141
151.814 1265 35.5668
151.932 1255 35.426
152.049 1225 35
152.167 1275 35.7071
152.284 1324 36.3868
152.402 1341 36.6197
152.519 1309 36.1801
152.636 1399 37.4032
152.754 1390 37.2827
152.871 1411 37.5633
152.989 1352 36.7696
153.106 1333 36.5103
153.223 1214 34.8425
153.341 1112 33.3467
153.458 1135 33.6898
153.575 1063 32.6037
153.693 1111 33.3317
153.81 1128 33.5857
153.927 1179 34.3366
154.044 1184 34.4093
154.162 1203 34.6843
154.279 1226 35.0143
154.396 1270 35.6371
154.513 1347 36.7015
154.63 1295 35.9861
154.747 1243 35.2562
154.864 1280 35.7771
154.981 1214 34.8425
155.098 1159 34.0441
155.215 1168 34.176
155.332 1159 34.0441
155.449 1139 33.7491
155.566 1108 33.2866
155.683 1141 33.7787
155.8 1188 34.4674
155.917 1142 33.7935
156.033 1160 34.0588
156.15 0 1
156.267 0 1
156.383 0 1
156.5 0 1
156.617 0 1
156.733 0 1
156.85 0 1
156.966 0 1
157.082 0 1
157.199 0 1
157.315 0 1
157.431 0 1
157.547 0 1
157.664 0 1
157.78 0 1
157.896 0 1
158.012 0 1
158.128 0 1
158.244 0 1
158.359 0 1
158.475 0 1
158.591 0 1
158.706 0 1
