
6.15755 0 1
6.2731 0 1
6.3887 0 1
6.50437 0 1
6.62009 0 1
6.73587 0 1
6.8517 0 1
6.96759 0 1
7.08353 0 1
7.19952 0 1
7.31557 0 1
7.43166 0 1
7.54781 0 1
7.664 0 1
7.78024 0 1
7.89653 0 1
8.01286 0 1
8.12924 0 1
8.24567 0 1
8.36213 0 1
8.47864 0 1
8.59519 0 1
8.71178 0 1
8.82841 0 1
8.94508 0 1
9.06179 0 1
9.17853 0 1
9.29531 0 1
9.41212 0 1
9.52897 0 1
9.64584 0 1
9.76276 0 1
9.8797 0 1
9.99667 0 1
10.1137 0 1
10.2307 0 1
10.3478 0 1
10.4648 0 1
10.5819 0 1
10.6991 0 1
10.8162 0 1
10.9334 0 1
11.0506 0 1
11.1678 0 1
11.285 0 1
11.4023 0 1
11.5196 0 1
11.6369 0 1
11.7542 0 1
11.8715 0 1
11.9888 0 1
12.1062 0 1
12.2235 0 1
12.3409 0 1
12.4582 0 1
12.5756 0 1
12.693 0 1
12.8104 0 1
12.9278 0 1
13.0452 0 1
13.1626 0 1
13.28 0 1
13.3974 0 1
13.5149 0 1
13.6323 0 1
13.7497 0 1
13.8671 0 1
13.9845 0 1
14.1019 0 1
14.2193 0 1
14.3367 0 1
14.4541 0 1
14.5714 0 1
14.6888 0 1
14.8062 0 1
14.9235 0 1
15.0408 1983 44.5309
15.1581 2281 47.7598
15.2755 2233 47.2546
15.3927 2294 47.8957
15.51 2297 47.927
15.6273 2270 47.6445
15.7445 2231 47.2335
15.8617 2383 48.816
15.9789 2267 47.613
16.0961 2352 48.4974
16.2132 2275 47.697
16.3304 2233 47.2546
16.4475 2422 49.2138
16.5646 2528 50.2792
16.6816 2623 51.2152
16.7986 2744 52.3832
16.9156 2602 51.0098
17.0326 2687 51.8363
17.1496 2590 50.892
17.2665 2698 51.9423
17.3833 2745 52.3927
17.5002 2566 50.6557
17.617 2647 51.449
17.7338 2432 49.3153
17.8505 2346 48.4355
17.9672 2332 48.2908
18.0839 2358 48.5592
18.2005 2383 48.816
18.3171 2485 49.8498
18.4337 2520 50.1996
18.5502 2561 50.6063
18.6666 2575 50.7445
18.7831 2639 51.3712
18.8994 2719 52.144
19.0158 2647 51.449
19.1321 2481 49.8096
19.2483 2485 49.8498
19.3645 2290 47.8539
19.4806 2135 46.2061
19.5967 2060 45.3872
19.7128 1917 43.7836
19.8288 1810 42.5441
19.9447 1642 40.5216
20.0606 0 1
20.1764 0 1
20.2922 0 1
20.4079 0 1
20.5236 0 1
20.6392 0 1
20.7548 0 1
20.8702 0 1
23.3078 0 1
23.4233 0 1
23.539 0 1
23.6547 0 1
23.7704 0 1
23.8862 0 1
24.0021 0 1
24.118 0 1
24.234 0 1
24.35 0 1
24.4661 1062 32.5883
24.5822 1291 35.9305
24.6984 1487 38.5616
24.8146 1602 40.025
24.9309 1813 42.5793
25.0472 1825 42.72
25.1636 2153 46.4004
25.28 2366 48.6415
25.3965 2479 49.7896
25.513 2627 51.2543
25.6296 2838 53.2729
25.7462 2800 52.915
25.8628 2973 54.5252
25.9795 2873 53.6004
26.0962 2840 53.2917
26.213 2701 51.9711
26.3298 2644 51.4198
26.4466 2535 50.3488
26.5635 2449 49.4874
26.6804 2407 49.0612
26.7973 2547 50.4678
26.9143 2610 51.0882
27.0313 2586 50.8527
27.1483 2630 51.2835
27.2653 2681 51.7784
27.3824 2813 53.0377
27.4996 2770 52.6308
27.6167 2783 52.7541
27.7339 2624 51.225
27.8511 2684 51.8073
27.9683 2458 49.5782
28.0855 2459 49.5883
28.2028 2429 49.2849
28.3201 2312 48.0833
28.4374 2296 47.9166
28.5547 2283 47.7807
28.6721 2336 48.3322
28.7894 2535 50.3488
28.9068 2689 51.8556
29.0242 2704 52
29.1416 2875 53.619
29.259 2824 53.1413
29.3764 2837 53.2635
29.4939 2732 52.2685
29.6113 2630 51.2835
29.7288 2573 50.7247
29.8463 2533 50.3289
29.9638 2370 48.6826
30.0812 2297 47.927
30.1987 2338 48.3529
30.3162 2446 49.4571
30.4337 2555 50.547
30.5512 2560 50.5964
30.6687 2505 50.05
30.7862 2600 50.9902
30.9037 2647 51.449
31.0212 2719 52.144
31.1387 2677 51.7397
31.2562 2647 51.449
31.3737 2561 50.6063
31.4912 2443 49.4267
31.6087 2497 49.97
31.7262 2349 48.4665
31.8436 2344 48.4149
31.9611 2251 47.4447
32.0785 2349 48.4665
32.1959 2328 48.2494
32.3134 2441 49.4065
32.4308 2552 50.5173
32.5482 2639 51.3712
32.6655 2668 51.6527
32.7829 2617 51.1566
32.9002 2745 52.3927
33.0176 2747 52.4118
33.1349 2692 51.8845
33.2522 2637 51.3517
33.3694 2499 49.99
33.4867 2360 48.5798
33.6039 2364 48.621
33.7211 2156 46.4327
33.8383 2248 47.4131
33.9554 2218 47.0956
34.0725 2357 48.5489
34.1896 2342 48.3942
34.3067 2415 49.1426
34.4237 2421 49.2037
34.5407 2426 49.2544
34.6577 2534 50.3389
34.7746 2576 50.7543
34.8915 2516 50.1597
35.0084 2437 49.366
35.1252 2389 48.8774
35.242 2391 48.8979
35.3587 2341 48.3839
35.4755 2261 47.55
35.5921 2145 46.3141
35.7088 2215 47.0638
35.8254 2191 46.8081
35.9419 2263 47.571
36.0584 2209 47
36.1749 2311 48.0729
36.2913 2288 47.833
36.4077 2270 47.6445
36.524 2270 47.6445
36.6403 2152 46.3897
36.7565 2127 46.1194
36.8727 2042 45.1885
36.9889 1837 42.8602
37.1049 1757 41.9166
37.221 0 1
37.3369 0 1
37.4529 0 1
37.5687 0 1
37.6845 0 1
37.8003 0 1
37.916 0 1
38.0316 0 1
38.1472 0 1
40.5851 0 1
40.7008 0 1
40.8164 0 1
40.9322 0 1
41.048 0 1
41.1639 0 1
41.2798 0 1
41.3958 0 1
41.5118 0 1
41.6279 0 1
41.744 1247 35.3129
41.8602 1322 36.3593
41.9765 1475 38.4057
42.0928 1548 39.3446
42.2091 1594 39.9249
42.3255 1538 39.2173
42.4419 1534 39.1663
42.5584 1452 38.1051
42.675 1638 40.4722
42.7915 1788 42.2847
42.9081 1922 43.8406
43.0248 1993 44.643
43.1415 2032 45.0777
43.2582 2094 45.7602
43.375 2037 45.1331
43.4918 2158 46.4543
43.6087 2091 45.7275
43.7256 2189 46.7868
43.8425 2053 45.31
43.9595 2053 45.31
44.0765 1889 43.4626
44.1935 1932 43.9545
44.3106 1949 44.1475
44.4277 1809 42.5323
44.5448 1783 42.2256
44.6619 1821 42.6732
44.7791 1879 43.3474
44.8963 1987 44.5758
45.0136 2140 46.2601
45.1308 2161 46.4866
45.2481 2071 45.5082
45.3654 2136 46.2169
45.4827 2128 46.1303
45.6001 2160 46.4758
45.7174 2097 45.793
45.8348 1940 44.0454
45.9522 1852 43.0349
46.0697 1707 41.3159
46.1871 1702 41.2553
46.3046 1789 42.2966
46.422 1923 43.852
46.5395 2018 44.9222
46.657 2002 44.7437
46.7745 2135 46.2061
46.892 2068 45.4753
47.0096 2206 46.9681
47.1271 2202 46.9255
47.2446 2252 47.4552
47.3622 1997 44.6878
47.4797 2140 46.2601
47.5973 2033 45.0888
47.7149 1988 44.587
47.8324 1901 43.6005
47.95 1836 42.8486
48.0675 1852 43.0349
48.1851 1778 42.1663
48.3027 1852 43.0349
48.4202 1919 43.8064
48.5378 2052 45.299
48.6554 2180 46.6905
48.7729 2229 47.2123
48.8904 2093 45.7493
49.008 2172 46.6047
49.1255 2180 46.6905
49.243 2091 45.7275
49.3605 1905 43.6463
49.478 1869 43.2319
49.5955 1662 40.7676
49.713 1603 40.0375
49.8304 1711 41.3642
49.9479 1798 42.4028
50.0653 1848 42.9884
50.1827 2046 45.2327
50.3001 2050 45.2769
50.4175 2104 45.8694
50.5348 2157 46.4435
50.6521 2093 45.7493
50.7694 2139 46.2493
50.8867 2218 47.0956
51.004 2241 47.3392
51.1212 2110 45.9347
51.2384 2100 45.8258
51.3556 2105 45.8803
51.4727 1970 44.3847
51.5899 1871 43.2551
51.707 1958 44.2493
51.824 2050 45.2769
51.9411 2158 46.4543
52.0581 2284 47.7912
52.175 2457 49.5681
52.2919 2496 49.96
52.4088 2495 49.95
52.5257 2651 51.4879
52.6425 2616 51.1468
52.7593 2640 51.3809
52.876 2592 50.9117
52.9927 2378 48.7647
53.1094 2286 47.8121
53.226 2235 47.2758
53.3426 2134 46.1952
53.4591 2104 45.8694
53.5756 2153 46.4004
53.692 2103 45.8585
53.8084 2040 45.1664
53.9248 2073 45.5302
54.0411 2055 45.3321
54.1573 1832 42.8019
54.2735 0 1
54.3896 0 1
54.5057 0 1
54.6217 0 1
54.7377 0 1
54.8537 0 1
54.9695 0 1
55.0853 0 1
55.2011 0 1
55.3168 0 1
55.4324 0 1
57.824 0 1
57.9396 0 1
58.0553 0 1
58.1711 0 1
58.2869 0 1
58.4028 0 1
58.5187 0 1
58.6347 0 1
58.7508 0 1
58.8669 0 1
58.983 1785 42.2493
59.0992 1966 44.3396
59.2155 2180 46.6905
59.3318 2210 47.0106
59.4482 2363 48.6107
59.5646 2486 49.8598
59.681 2588 50.8724
59.7975 2476 49.7594
59.9141 2545 50.448
60.0306 2501 50.01
60.1473 2412 49.1121
60.2639 2387 48.8569
60.3807 2301 47.9687
60.4974 2444 49.4368
60.6142 2444 49.4368
60.731 2561 50.6063
60.8479 2733 52.2781
60.9648 2768 52.6118
61.0818 2776 52.6878
61.1987 2710 52.0577
61.3158 2647 51.449
61.4328 2629 51.2738
61.5499 2392 48.9081
61.667 2157 46.4435
61.7841 2150 46.3681
61.9013 2020 44.9444
62.0185 2029 45.0444
62.1357 2195 46.8508
62.253 2327 48.239
62.3702 2443 49.4267
62.4875 2448 49.4773
62.6049 2605 51.0392
62.7222 2694 51.9038
62.8396 2636 51.342
62.9569 2726 52.2111
63.0743 2645 51.4296
63.1918 2655 51.5267
63.3092 2503 50.03
63.4267 2549 50.4876
63.5441 2489 49.8899
63.6616 2378 48.7647
63.7791 2202 46.9255
63.8966 2216 47.0744
64.0142 2190 46.7974
64.1317 2429 49.2849
64.2492 2481 49.8096
64.3668 2586 50.8527
64.4843 2751 52.45
64.6019 2630 51.2835
64.7195 2661 51.5849
64.837 2688 51.8459
64.9546 2715 52.1057
65.0722 2442 49.4166
65.1898 2323 48.1975
65.3074 2088 45.6946
65.4249 2014 44.8776
65.5425 1977 44.4635
65.6601 1986 44.5646
65.7777 2211 47.0213
65.8952 2221 47.1275
66.0128 2471 49.7092
66.1304 2518 50.1797
66.2479 2532 50.319
66.3655 2640 51.3809
66.483 2655 51.5267
66.6005 2566 50.6557
66.718 2594 50.9313
66.8355 2490 49.8999
66.953 2517 50.1697
67.0705 2542 50.4183
67.1879 2376 48.7442
67.3054 2317 48.1352
67.4228 2103 45.8585
67.5402 2016 44.8999
67.6576 2059 45.3762
67.7749 2268 47.6235
67.8923 2337 48.3425
68.0096 2473 49.7293
68.1269 2539 50.3885
68.2442 2385 48.8365
68.3614 2536 50.3587
68.4787 2542 50.4183
68.5958 2563 50.6261
68.713 2387 48.8569
68.8302 2334 48.3115
68.9473 2068 45.4753
69.0643 2005 44.7772
69.1814 1928 43.909
69.2984 1921 43.8292
69.4154 2072 45.5192
69.5323 2235 47.2758
69.6492 2313 48.0937
69.7661 2367 48.6518
69.8829 2395 48.9387
69.9997 2380 48.7852
70.1165 2417 49.163
70.2332 2272 47.6655
70.3499 2154 46.4112
70.4665 2140 46.2601
70.5831 1901 43.6005
70.6996 1836 42.8486
70.8161 1762 41.9762
70.9326 1591 39.8873
71.049 1405 37.4833
71.1653 1152 33.9411
71.2817 1068 32.6803
71.3979 975 31.225
71.5141 916 30.2655
71.6303 933 30.545
71.7464 907 30.1164
71.8624 0 1
71.9784 0 1
72.0944 0 1
72.2102 0 1
72.3261 0 1
72.4418 0 1
72.5575 0 1
72.6732 0 1
75.1054 0 1
75.2209 0 1
75.3365 0 1
75.4521 0 1
75.5678 0 1
75.6835 0 1
75.7993 0 1
75.9151 0 1
76.031 0 1
76.147 1556 39.4462
76.263 1701 41.2432
76.3791 1617 40.2119
76.4952 1621 40.2616
76.6113 1749 41.821
76.7276 1813 42.5793
76.8438 1966 44.3396
76.9601 2161 46.4866
77.0765 2104 45.8694
77.1929 2191 46.8081
77.3093 2212 47.0319
77.4258 2238 47.3075
77.5423 2208 46.9894
77.6589 2080 45.607
77.7755 1967 44.3509
77.8921 1750 41.833
78.0088 1717 41.4367
78.1256 1463 38.2492
78.2423 1595 39.9375
78.3591 1736 41.6653
78.4759 1794 42.3556
78.5928 2031 45.0666
78.7097 2068 45.4753
78.8266 2106 45.8912
78.9436 2239 47.3181
79.0606 2280 47.7493
79.1776 2278 47.7284
79.2946 2311 48.0729
79.4117 2211 47.0213
79.5288 2249 47.4236
79.6459 2188 46.7761
79.7631 2176 46.6476
79.8802 2048 45.2548
79.9974 1988 44.587
80.1147 1867 43.2088
80.2319 1768 42.0476
80.3491 1892 43.4971
80.4664 2017 44.911
80.5837 2181 46.7012
80.701 2245 47.3814
80.8183 2216 47.0744
80.9357 2277 47.7179
81.053 2234 47.2652
81.1704 2282 47.7703
81.2877 2266 47.6025
81.4051 2183 46.7226
81.5225 1987 44.5758
81.6399 1839 42.8836
81.7573 1679 40.9756
81.8747 1640 40.4969
81.9922 1612 40.1497
82.1096 1863 43.1625
82.227 1883 43.3935
82.3444 2077 45.5741
82.4619 2160 46.4758
82.5793 2284 47.7912
82.6967 2203 46.9361
82.8142 2281 47.7598
82.9316 2321 48.1768
83.049 2480 49.7996
83.1664 2258 47.5184
83.2838 2283 47.7807
83.4012 2213 47.0425
83.5186 2184 46.7333
83.636 2108 45.913
83.7534 2004 44.7661
83.8708 1803 42.4617
83.9881 1893 43.5086
84.1055 1931 43.9431
84.2228 2037 45.1331
84.3401 2264 47.5815
84.4575 2320 48.1664
84.5747 2404 49.0306
84.692 2252 47.4552
84.8093 2376 48.7442
84.9265 2401 49
85.0437 2154 46.4112
85.1609 1933 43.9659
85.2781 1800 42.4264
85.3952 1685 41.0488
85.5123 1582 39.7744
85.6294 1633 40.4104
85.7465 1816 42.6146
85.8636 2124 46.0869
85.9806 2074 45.5412
86.0976 2256 47.4974
86.2145 2253 47.4658
86.3315 2320 48.1664
86.4484 2396 48.949
86.5652 2291 47.8644
86.682 2390 48.8876
86.7988 2397 48.9592
86.9156 2324 48.2079
87.0323 2293 47.8853
87.149 2144 46.3033
87.2657 2077 45.5741
87.3823 1794 42.3556
87.4988 1655 40.6817
87.6154 1604 40.05
87.7318 1656 40.694
87.8483 1792 42.332
87.9647 1821 42.6732
88.081 1947 44.1248
88.1973 1796 42.3792
88.3136 1672 40.8901
88.4298 1739 41.7013
88.546 1513 38.8973
88.6621 1322 36.3593
88.7781 1056 32.4962
88.8942 0 1
89.0101 0 1
89.126 0 1
89.2419 0 1
89.3577 0 1
89.4734 0 1
89.5891 0 1
89.7047 0 1
89.8203 0 1
89.9358 0 1
92.3269 0 1
92.4424 0 1
92.558 0 1
92.6736 0 1
92.7893 0 1
92.905 0 1
93.0208 0 1
93.1366 0 1
93.2525 0 1
93.3685 0 1
93.4845 0 1
93.6005 1821 42.6732
93.7167 1879 43.3474
93.8328 1984 44.5421
93.949 1959 44.2606
94.0653 2088 45.6946
94.1816 2049 45.2659
94.2979 1874 43.2897
94.4143 1792 42.332
94.5307 1610 40.1248
94.6472 1686 41.0609
94.7637 1799 42.4146
94.8803 1961 44.2832
94.9969 2068 45.4753
95.1135 2100 45.8258
95.2302 2235 47.2758
95.3469 2388 48.8672
95.4637 2385 48.8365
95.5805 2440 49.3964
95.6973 2465 49.6488
95.8142 2391 48.8979
95.9311 2338 48.3529
96.048 2314 48.1041
96.1649 2341 48.3839
96.2819 2391 48.8979
96.3989 2131 46.1628
96.516 1988 44.587
96.633 1984 44.5421
96.7501 1921 43.8292
96.8673 1994 44.6542
96.9844 2127 46.1194
97.1016 2193 46.8295
97.2188 2250 47.4342
97.336 2453 49.5278
97.4532 2429 49.2849
97.5704 2392 48.9081
97.6877 2329 48.2597
97.805 2242 47.3498
97.9223 2157 46.4435
98.0396 1977 44.4635
98.1569 1838 42.8719
98.2743 1723 41.509
98.3916 1762 41.9762
98.509 1779 42.1782
98.6264 2133 46.1844
98.7438 2213 47.0425
98.8612 2310 48.0625
98.9786 2287 47.8226
99.096 2449 49.4874
99.2134 2495 49.95
99.3308 2521 50.2096
99.4482 2497 49.97
99.5656 2552 50.5173
99.6831 2440 49.3964
99.8005 2480 49.7996
99.9179 2372 48.7032
100.035 2309 48.0521
100.153 2331 48.2804
100.27 1982 44.5197
100.388 2049 45.2659
100.505 2217 47.085
100.622 2279 47.7389
100.74 2474 49.7393
100.857 2518 50.1797
100.975 2503 50.03
101.092 2649 51.4684
101.209 2557 50.5668
101.327 2579 50.7839
101.444 2325 48.2183
101.561 2252 47.4552
101.679 2081 45.618
101.796 1876 43.3128
101.913 1756 41.9047
102.03 1857 43.0929
102.148 2091 45.7275
102.265 2230 47.2229
102.382 2412 49.1121
102.499 2423 49.224
102.616 2533 50.3289
102.733 2635 51.3323
102.851 2605 51.0392
102.968 2748 52.4214
103.085 2611 51.0979
103.202 2744 52.3832
103.319 2517 50.1697
103.436 2527 50.2693
103.552 2527 50.2693
103.669 2312 48.0833
103.786 2252 47.4552
103.903 2262 47.5605
104.02 2260 47.5395
104.137 2427 49.2646
104.253 2461 49.6085
104.37 2801 52.9245
104.487 2832 53.2165
104.603 2703 51.9904
104.72 2603 51.0196
104.836 2541 50.4083
104.953 2317 48.1352
105.069 2126 46.1086
105.186 1829 42.7668
105.302 1790 42.3084
105.418 1628 40.3485
105.535 1607 40.0874
105.651 1609 40.1123
105.767 1747 41.7971
105.883 1683 41.0244
105.999 1566 39.5727
106.115 0 1
106.231 0 1
106.347 0 1
106.463 0 1
106.579 0 1
106.694 0 1
106.81 0 1
106.926 0 1
107.041 0 1
107.157 0 1
109.576 0 1
109.692 0 1
109.807 0 1
109.923 0 1
110.039 0 1
110.155 0 1
110.27 0 1
110.386 0 1
110.502 0 1
110.618 1136 33.7046
110.735 1450 38.0789
110.851 1721 41.4849
110.967 1898 43.566
111.083 2065 45.4423
111.199 2194 46.8402
111.316 2418 49.1732
111.432 2410 49.0918
111.549 2454 49.5379
111.665 2411 49.1019
111.782 2457 49.5681
111.898 2458 49.5782
112.015 2319 48.156
112.132 2374 48.7237
112.248 2168 46.5618
112.365 1998 44.699
112.482 2124 46.0869
112.599 2252 47.4552
112.716 2230 47.2229
112.832 2420 49.1935
112.949 2468 49.679
113.066 2437 49.366
113.183 2467 49.6689
113.3 2573 50.7247
113.417 2394 48.9285
113.534 2246 47.392
113.652 2039 45.1553
113.769 1923 43.852
113.886 1749 41.821
114.003 1715 41.4126
114.12 1855 43.0697
114.238 1970 44.3847
114.355 2143 46.2925
114.472 2199 46.8935
114.589 2404 49.0306
114.707 2411 49.1019
114.824 2478 49.7795
114.942 2436 49.3559
115.059 2556 50.5569
115.176 2564 50.636
115.294 2425 49.2443
115.411 2473 49.7293
115.529 2357 48.5489
115.646 2315 48.1144
115.764 2310 48.0625
115.881 2192 46.8188
115.999 2085 45.6618
116.116 2138 46.2385
116.234 2282 47.7703
116.351 2363 48.6107
116.469 2495 49.95
116.586 2413 49.1223
116.704 2502 50.02
116.821 2443 49.4267
116.939 2409 49.0816
117.056 2336 48.3322
117.174 2183 46.7226
117.291 1983 44.5309
117.409 1857 43.0929
117.526 1695 41.1704
117.644 1783 42.2256
117.761 1993 44.643
117.879 2080 45.607
117.996 2145 46.3141
118.114 2289 47.8435
118.231 2269 47.634
118.349 2381 48.7955
118.466 2375 48.734
118.584 2469 49.689
118.701 2489 49.8899
118.819 2420 49.1935
118.936 2278 47.7284
119.053 2290 47.8539
119.171 2282 47.7703
119.288 2140 46.2601
119.405 2011 44.8442
119.523 1981 44.5084
119.64 2010 44.833
119.757 2151 46.3789
119.875 2106 45.8912
119.992 2247 47.4025
120.109 2340 48.3735
120.226 2333 48.3011
120.343 2373 48.7134
120.46 2402 49.0102
120.578 2475 49.7494
120.695 2273 47.676
120.812 2150 46.3681
120.929 2042 45.1885
121.046 1840 42.8952
121.163 1682 41.0122
121.279 1593 39.9124
121.396 1711 41.3642
121.513 1770 42.0714
121.63 1903 43.6234
121.747 1917 43.7836
121.863 1926 43.8862
121.98 1886 43.4281
122.097 1981 44.5084
122.213 1751 41.845
122.33 1831 42.7902
122.446 1785 42.2493
122.563 1723 41.509
122.679 1587 39.8372
122.795 1463 38.2492
122.912 1380 37.1484
123.028 1324 36.3868
123.144 1109 33.3017
123.26 983 31.3528
123.377 0 1
123.493 0 1
123.609 0 1
123.725 0 1
123.84 0 1
123.956 0 1
124.072 0 1
124.188 0 1
124.303 0 1
124.419 0 1
126.852 0 1
126.968 0 1
127.083 0 1
127.199 0 1
127.315 0 1
127.431 0 1
127.547 0 1
127.663 0 1
127.779 0 1
127.895 0 1
128.011 0 1
128.127 0 1
128.243 0 1
128.359 2162 46.4973
128.476 2258 47.5184
128.592 2243 47.3603
128.708 2215 47.0638
128.825 2307 48.0312
128.941 2471 49.7092
129.058 2572 50.7149
129.174 2568 50.6754
129.291 2616 51.1468
129.408 2665 51.6236
129.524 2615 51.1371
129.641 2564 50.636
129.758 2507 50.07
129.875 2254 47.4763
129.992 2080 45.607
130.108 1992 44.6318
130.225 1908 43.6807
130.342 1858 43.1045
130.459 2003 44.7549
130.576 2264 47.5815
130.693 2291 47.8644
130.81 2376 48.7442
130.928 2458 49.5782
131.045 2508 50.0799
131.162 2467 49.6689
131.279 2535 50.3488
131.396 2483 49.8297
131.513 2603 51.0196
131.631 2479 49.7896
131.748 2520 50.1996
131.865 2352 48.4974
131.983 2276 47.7074
132.1 2376 48.7442
132.217 2218 47.0956
132.335 2321 48.1768
132.452 2346 48.4355
132.57 2477 49.7695
132.687 2653 51.5073
132.804 2535 50.3488
132.922 2587 50.8626
133.039 2673 51.7011
133.157 2648 51.4587
133.274 2607 51.0588
133.392 2431 49.3052
133.509 2293 47.8853
133.627 2086 45.6727
133.744 1970 44.3847
133.862 1824 42.7083
133.979 1968 44.3621
134.097 2184 46.7333
134.214 2283 47.7807
134.332 2330 48.2701
134.449 2440 49.3964
134.567 2435 49.3457
134.684 2503 50.03
134.802 2530 50.2991
134.919 2655 51.5267
135.037 2572 50.7149
135.154 2572 50.7149
135.272 2554 50.5371
135.389 2511 50.1099
135.507 2359 48.5695
135.624 2335 48.3218
135.742 2325 48.2183
135.859 2230 47.2229
135.977 2353 48.5077
136.094 2357 48.5489
136.211 2504 50.04
136.329 2641 51.3907
136.446 2588 50.8724
136.564 2564 50.636
136.681 2599 50.9804
136.798 2579 50.7839
136.915 2580 50.7937
137.033 2499 49.99
137.15 2244 47.3709
137.267 2169 46.5725
137.384 2057 45.3542
137.502 1926 43.8862
137.619 1928 43.909
137.736 2223 47.1487
137.853 2238 47.3075
137.97 2285 47.8017
138.087 2393 48.9183
138.204 2415 49.1426
138.321 2457 49.5681
138.438 2566 50.6557
138.555 2703 51.9904
138.672 2533 50.3289
138.788 2420 49.1935
138.905 2234 47.2652
139.022 2151 46.3789
139.139 2011 44.8442
139.255 2024 44.9889
139.372 1849 43
139.488 1741 41.7253
139.605 1709 41.3401
139.721 1635 40.4351
139.838 1715 41.4126
139.954 1645 40.5586
140.071 1614 40.1746
140.187 1502 38.7556
140.303 1373 37.054
140.419 1268 35.609
140.535 1220 34.9285
140.652 1072 32.7414
140.768 0 1
140.884 0 1
141 0 1
141.115 0 1
141.231 0 1
141.347 0 1
141.463 0 1
141.578 0 1
141.694 0 1
144.104 0 1
144.219 0 1
144.335 0 1
144.45 0 1
144.566 0 1
144.682 0 1
144.798 0 1
144.914 0 1
145.03 0 1
145.146 1825 42.72
145.262 1960 44.2719
145.378 2009 44.8219
145.494 2071 45.5082
145.61 1960 44.2719
145.726 1998 44.699
145.842 1867 43.2088
145.959 1784 42.2374
146.075 1664 40.7922
146.192 1565 39.5601
146.308 1532 39.1408
146.425 1550 39.37
146.541 1616 40.1995
146.658 1890 43.4741
146.774 1788 42.2847
146.891 1832 42.8019
147.008 1985 44.5533
147.125 1863 43.1625
147.241 1995 44.6654
147.358 1956 44.2267
147.475 1964 44.317
147.592 1999 44.7102
147.709 1926 43.8862
147.826 1949 44.1475
147.943 1833 42.8135
148.06 1789 42.2966
148.177 1755 41.8927
148.294 1737 41.6773
148.411 1851 43.0232
148.528 1888 43.4511
148.645 1901 43.6005
148.762 2064 45.4313
148.88 2085 45.6618
148.997 2073 45.5302
149.114 1991 44.6206
149.231 1938 44.0227
149.349 1907 43.6692
149.466 1967 44.3509
149.583 1872 43.2666
149.701 1668 40.8412
149.818 1663 40.7799
149.935 1549 39.3573
150.053 1586 39.8246
150.17 1682 41.0122
150.287 1706 41.3038
150.405 1795 42.3674
150.522 1887 43.4396
150.64 1918 43.795
150.757 1842 42.9185
150.875 1917 43.7836
150.992 1928 43.909
151.11 1942 44.0681
151.227 1960 44.2719
151.344 1920 43.8178
151.462 1894 43.5201
151.579 1830 42.7785
151.697 1741 41.7253
151.814 1774 42.1189
151.932 1743 41.7493
152.049 1700 41.2311
152.167 1764 42
152.284 1884 43.4051
152.402 1857 43.0929
152.519 2001 44.7325
152.636 1890 43.4741
152.754 1887 43.4396
152.871 1943 44.0795
152.989 1907 43.6692
153.106 1918 43.795
153.223 1739 41.7013
153.341 1618 40.2244
153.458 1575 39.6863
153.575 1537 39.2046
153.693 1614 40.1746
153.81 1640 40.4969
153.927 1647 40.5832
154.044 1695 41.1704
154.162 1737 41.6773
154.279 1844 42.9418
154.396 1808 42.5206
154.513 1745 41.7732
154.63 1792 42.332
154.747 1921 43.8292
154.864 1829 42.7668
154.981 1774 42.1189
155.098 1630 40.3733
155.215 1611 40.1373
155.332 1670 40.8656
155.449 1599 39.9875
155.566 1656 40.694
155.683 1582 39.7744
155.8 1622 40.2741
155.917 1642 40.5216
156.033 1538 39.2173
156.15 0 1
156.267 0 1
156.383 0 1
156.5 0 1
156.617 0 1
156.733 0 1
156.85 0 1
156.966 0 1
157.082 0 1
157.199 0 1
157.315 0 1
157.431 0 1
157.547 0 1
157.664 0 1
157.78 0 1
157.896 0 1
158.012 0 1
158.128 0 1
158.244 0 1
158.359 0 1
158.475 0 1
158.591 0 1
158.706 0 1
