
6.15755 0 1
6.2731 0 1
6.3887 0 1
6.50437 0 1
6.62009 0 1
6.73587 0 1
6.8517 0 1
6.96759 0 1
7.08353 0 1
7.19952 0 1
7.31557 0 1
7.43166 0 1
7.54781 0 1
7.664 0 1
7.78024 0 1
7.89653 0 1
8.01286 0 1
8.12924 0 1
8.24567 0 1
8.36213 0 1
8.47864 0 1
8.59519 0 1
8.71178 0 1
8.82841 0 1
8.94508 0 1
9.06179 0 1
9.17853 0 1
9.29531 0 1
9.41212 0 1
9.52897 0 1
9.64584 0 1
9.76276 0 1
9.8797 0 1
9.99667 0 1
10.1137 0 1
10.2307 0 1
10.3478 0 1
10.4648 0 1
10.5819 0 1
10.6991 0 1
10.8162 0 1
10.9334 0 1
11.0506 0 1
11.1678 0 1
11.285 0 1
11.4023 0 1
11.5196 0 1
11.6369 0 1
11.7542 0 1
11.8715 0 1
11.9888 0 1
12.1062 0 1
12.2235 0 1
12.3409 0 1
12.4582 0 1
12.5756 0 1
12.693 0 1
12.8104 0 1
12.9278 0 1
13.0452 0 1
13.1626 0 1
13.28 0 1
13.3974 0 1
13.5149 0 1
13.6323 0 1
13.7497 0 1
13.8671 0 1
13.9845 0 1
14.1019 0 1
14.2193 0 1
14.3367 0 1
14.4541 0 1
14.5714 0 1
14.6888 0 1
14.8062 0 1
14.9235 0 1
15.0408 0 0
15.1581 0 0
15.2755 0 0
15.3927 0 0
15.51 0 0
15.6273 0 0
15.7445 0 0
15.8617 0 0
15.9789 0 0
16.0961 0 0
16.2132 0 0
16.3304 0 0
16.4475 0 0
16.5646 0 0
16.6816 0 0
16.7986 0 0
16.9156 0 0
17.0326 0 0
17.1496 0 0
17.2665 0 0
17.3833 0 0
17.5002 0 0
17.617 0 0
17.7338 0 0
17.8505 0 0
17.9672 0 0
18.0839 0 0
18.2005 0 0
18.3171 0 0
18.4337 0 0
18.5502 0 0
18.6666 0 0
18.7831 0 0
18.8994 0 0
19.0158 0 0
19.1321 0 0
19.2483 0 0
19.3645 0 0
19.4806 0 0
19.5967 0 0
19.7128 0 0
19.8288 0 0
19.9447 0 0
20.0606 0 1
20.1764 0 1
20.2922 0 1
20.4079 0 1
20.5236 0 1
20.6392 0 1
20.7548 0 1
20.8702 0 1
23.3078 0 1
23.4233 0 1
23.539 0 1
23.6547 0 1
23.7704 0 1
23.8862 0 1
24.0021 0 1
24.118 0 1
24.234 0 1
24.35 0 1
24.4661 12808 113.172
24.5822 13226 115.004
24.6984 12957 113.829
24.8146 13062 114.289
24.9309 13023 114.118
25.0472 13292 115.291
25.1636 13521 116.28
25.28 13931 118.03
25.3965 13903 117.911
25.513 14172 119.046
25.6296 14688 121.194
25.7462 14781 121.577
25.8628 14678 121.153
25.9795 14449 120.204
26.0962 14685 121.182
26.213 14530 120.54
26.3298 14379 119.912
26.4466 14403 120.012
26.5635 14232 119.298
26.6804 13705 117.068
26.7973 13409 115.797
26.9143 12933 113.723
27.0313 12820 113.225
27.1483 12582 112.17
27.2653 12700 112.694
27.3824 12794 113.111
27.4996 12279 110.811
27.6167 12251 110.684
27.7339 11459 107.047
27.8511 10992 104.843
27.9683 10726 103.566
28.0855 10405 102.005
28.2028 10255 101.267
28.3201 9999 99.995
28.4374 10440 102.176
28.5547 10339 101.681
28.6721 10705 103.465
28.7894 10981 104.79
28.9068 11162 105.65
29.0242 11349 106.532
29.1416 11502 107.247
29.259 11478 107.135
29.3764 11731 108.31
29.4939 11377 106.663
29.6113 11350 106.536
29.7288 11502 107.247
29.8463 11632 107.852
29.9638 11529 107.373
30.0812 11400 106.771
30.1987 11381 106.682
30.3162 11065 105.19
30.4337 10879 104.302
30.5512 10469 102.318
30.6687 10474 102.343
30.7862 10477 102.357
30.9037 10604 102.976
31.0212 10707 103.475
31.1387 10509 102.513
31.2562 10333 101.651
31.3737 9970 99.8499
31.4912 9713 98.5546
31.6087 9618 98.0714
31.7262 9508 97.509
31.8436 9634 98.1529
31.9611 9882 99.4082
32.0785 9923 99.6143
32.1959 10155 100.772
32.3134 10246 101.223
32.4308 10635 103.126
32.5482 10819 104.014
32.6655 10792 103.885
32.7829 10993 104.848
32.9002 11318 106.386
33.0176 10905 104.427
33.1349 11207 105.863
33.2522 10972 104.747
33.3694 11106 105.385
33.4867 10976 104.766
33.6039 11073 105.228
33.7211 10988 104.824
33.8383 10967 104.723
33.9554 11024 104.995
34.0725 10759 103.726
34.1896 10390 101.931
34.3067 10193 100.96
34.4237 10154 100.767
34.5407 10110 100.548
34.6577 10328 101.627
34.7746 10161 100.802
34.8915 9982 99.91
35.0084 9748 98.732
35.1252 9519 97.5654
35.242 9185 95.8384
35.3587 9281 96.3379
35.4755 9280 96.3328
35.5921 9267 96.2653
35.7088 9567 97.811
35.8254 9703 98.5038
35.9419 10143 100.712
36.0584 10054 100.27
36.1749 10370 101.833
36.2913 10756 103.711
36.4077 10541 102.669
36.524 10672 103.305
36.6403 10707 103.475
36.7565 10763 103.745
36.8727 10532 102.626
36.9889 10719 103.533
37.1049 10687 103.378
37.221 0 1
37.3369 0 1
37.4529 0 1
37.5687 0 1
37.6845 0 1
37.8003 0 1
37.916 0 1
38.0316 0 1
38.1472 0 1
40.5851 0 1
40.7008 0 1
40.8164 0 1
40.9322 0 1
41.048 0 1
41.1639 0 1
41.2798 0 1
41.3958 0 1
41.5118 0 1
41.6279 0 1
41.744 8634 92.9193
41.8602 8896 94.3186
41.9765 8951 94.6097
42.0928 9023 94.9895
42.2091 9129 95.5458
42.3255 9069 95.2313
42.4419 9145 95.6295
42.5584 9013 94.9368
42.675 8754 93.5628
42.7915 8797 93.7923
42.9081 8364 91.4549
43.0248 8311 91.1647
43.1415 8220 90.6642
43.2582 8276 90.9725
43.375 8199 90.5483
43.4918 8546 92.4446
43.6087 8186 90.4765
43.7256 8093 89.9611
43.8425 7642 87.4185
43.9595 7691 87.6983
44.0765 7248 85.1352
44.1935 7372 85.8604
44.3106 7371 85.8545
44.4277 7278 85.3112
44.5448 7560 86.9483
44.6619 7534 86.7986
44.7791 7598 87.1665
44.8963 7903 88.8988
45.0136 7902 88.8932
45.1308 7764 88.1136
45.2481 7789 88.2553
45.3654 7635 87.3785
45.4827 7673 87.5957
45.6001 7544 86.8562
45.7174 7527 86.7583
45.8348 7438 86.2438
45.9522 7344 85.6971
46.0697 7404 86.0465
46.1871 7221 84.9765
46.3046 7134 84.463
46.422 6806 82.4985
46.5395 6553 80.9506
46.657 6434 80.2122
46.7745 6322 79.511
46.892 6374 79.8373
47.0096 6392 79.95
47.1271 6451 80.3181
47.2446 6276 79.2212
47.3622 5997 77.4403
47.4797 5635 75.0666
47.5973 5667 75.2795
47.7149 5534 74.3909
47.8324 5473 73.9797
47.95 5647 75.1465
48.0675 5669 75.2928
48.1851 5774 75.9868
48.3027 5696 75.4718
48.4202 5780 76.0263
48.5378 6002 77.4726
48.6554 6153 78.4411
48.7729 5903 76.831
48.8904 6032 77.666
49.008 6039 77.711
49.1255 6035 77.6853
49.243 6096 78.0769
49.3605 6310 79.4355
49.478 6142 78.3709
49.5955 6317 79.4796
49.713 6267 79.1644
49.8304 6300 79.3725
49.9479 6422 80.1374
50.0653 6099 78.0961
50.1827 6067 77.8909
50.3001 5979 77.324
50.4175 5914 76.9025
50.5348 6358 79.7371
50.6521 6671 81.6762
50.7694 6603 81.2588
50.8867 6693 81.8108
51.004 6711 81.9207
51.1212 6550 80.9321
51.2384 6594 81.2034
51.3556 6935 83.2766
51.4727 7111 84.3267
51.5899 7534 86.7986
51.707 7852 88.6115
51.824 8172 90.3991
51.9411 8382 91.5533
52.0581 8365 91.4604
52.175 8471 92.038
52.2919 8717 93.3649
52.4088 8698 93.2631
52.5257 8806 93.8403
52.6425 8886 94.2656
52.7593 8867 94.1647
52.876 9059 95.1788
52.9927 9186 95.8436
53.1094 9151 95.6609
53.226 9293 96.4002
53.3426 9398 96.9433
53.4591 9294 96.4054
53.5756 9473 97.3293
53.692 9149 95.6504
53.8084 8632 92.9086
53.9248 8560 92.5203
54.0411 8502 92.2063
54.1573 8813 93.8776
54.2735 0 1
54.3896 0 1
54.5057 0 1
54.6217 0 1
54.7377 0 1
54.8537 0 1
54.9695 0 1
55.0853 0 1
55.2011 0 1
55.3168 0 1
55.4324 0 1
57.824 0 1
57.9396 0 1
58.0553 0 1
58.1711 0 1
58.2869 0 1
58.4028 0 1
58.5187 0 1
58.6347 0 1
58.7508 0 1
58.8669 0 1
58.983 9961 99.8048
59.0992 10106 100.529
59.2155 10032 100.16
59.3318 10210 101.045
59.4482 10287 101.425
59.5646 10183 100.911
59.681 10076 100.379
59.7975 10188 100.936
59.9141 10371 101.838
60.0306 10219 101.089
60.1473 10558 102.752
60.2639 10919 104.494
60.3807 10841 104.12
60.4974 10967 104.723
60.6142 11176 105.717
60.731 10892 104.365
60.8479 10867 104.245
60.9648 10851 104.168
61.0818 11016 104.957
61.1987 10734 103.605
61.3158 10857 104.197
61.4328 10709 103.484
61.5499 10802 103.933
61.667 10437 102.162
61.7841 10794 103.894
61.9013 10708 103.479
62.0185 10533 102.63
62.1357 10305 101.514
62.253 10112 100.558
62.3702 9724 98.6103
62.4875 9343 96.6592
62.6049 9496 97.4474
62.7222 9722 98.6002
62.8396 9756 98.7725
62.9569 9525 97.5961
63.0743 9414 97.0258
63.1918 9336 96.623
63.3092 9241 96.1301
63.4267 9330 96.5919
63.5441 9743 98.7066
63.6616 9854 99.2673
63.7791 10124 100.618
63.8966 10319 101.582
64.0142 10233 101.158
64.1317 9986 99.93
64.2492 10130 100.648
64.3668 10032 100.16
64.4843 9959 99.7948
64.6019 10072 100.359
64.7195 9859 99.2925
64.837 10036 100.18
64.9546 10003 100.015
65.0722 9934 99.6695
65.1898 9835 99.1716
65.3074 10046 100.23
65.4249 9718 98.5799
65.5425 9609 98.0255
65.6601 9783 98.909
65.7777 9768 98.8332
65.8952 9341 96.6488
66.0128 8839 94.016
66.1304 8732 93.4452
66.2479 8593 92.6984
66.3655 8663 93.0752
66.483 8988 94.8051
66.6005 9067 95.2208
66.718 9113 95.462
66.8355 8880 94.2338
66.953 8991 94.8209
67.0705 9162 95.7183
67.1879 9393 96.9175
67.3054 9504 97.4885
67.4228 9777 98.8787
67.5402 9587 97.9132
67.6576 9659 98.2802
67.7749 9685 98.4124
67.8923 9740 98.6914
68.0096 9705 98.514
68.1269 9638 98.1733
68.2442 9797 98.9798
68.3614 9846 99.227
68.4787 9623 98.0969
68.5958 9759 98.7877
68.713 9743 98.7066
68.8302 9642 98.1937
68.9473 9800 98.9949
69.0643 9851 99.2522
69.1814 9916 99.5791
69.2984 9919 99.5942
69.4154 9915 99.5741
69.5323 10042 100.21
69.6492 9738 98.6813
69.7661 9130 95.551
69.8829 8788 93.7443
69.9997 9016 94.9526
70.1165 9159 95.7027
70.2332 9208 95.9583
70.3499 9251 96.1821
70.4665 9288 96.3743
70.5831 9395 96.9278
70.6996 9358 96.7368
70.8161 9780 98.8939
70.9326 9753 98.7573
71.049 9998 99.99
71.1653 10021 100.105
71.2817 9661 98.2904
71.3979 9719 98.585
71.5141 9350 96.6954
71.6303 9384 96.871
71.7464 8648 92.9946
71.8624 0 1
71.9784 0 1
72.0944 0 1
72.2102 0 1
72.3261 0 1
72.4418 0 1
72.5575 0 1
72.6732 0 1
75.1054 0 1
75.2209 0 1
75.3365 0 1
75.4521 0 1
75.5678 0 1
75.6835 0 1
75.7993 0 1
75.9151 0 1
76.031 0 1
76.147 8641 92.957
76.263 9462 97.2728
76.3791 9845 99.222
76.4952 9478 97.355
76.6113 9933 99.6644
76.7276 9789 98.9394
76.8438 9664 98.3056
76.9601 9775 98.8686
77.0765 9620 98.0816
77.1929 9718 98.5799
77.3093 9645 98.209
77.4258 9598 97.9694
77.5423 9595 97.9541
77.6589 9703 98.5038
77.7755 9508 97.509
77.8921 9524 97.591
78.0088 9519 97.5654
78.1256 9570 97.8264
78.2423 9491 97.4218
78.3591 9381 96.8556
78.4759 9588 97.9183
78.5928 9416 97.0361
78.7097 8995 94.842
78.8266 8514 92.2713
78.9436 7036 83.8809
79.0606 7185 84.7644
79.1776 7425 86.1684
79.2946 8140 90.2219
79.4117 8604 92.7577
79.5288 8738 93.4773
79.6459 8946 94.5833
79.7631 9222 96.0312
79.8802 9138 95.5929
79.9974 9059 95.1788
80.1147 9185 95.8384
80.2319 9092 95.352
80.3491 9050 95.1315
80.4664 9091 95.3467
80.5837 8902 94.3504
80.701 9004 94.8894
80.8183 8999 94.8631
80.9357 8892 94.2974
81.053 8923 94.4616
81.1704 8755 93.5682
81.2877 8658 93.0484
81.4051 8682 93.1773
81.5225 8684 93.188
81.6399 8553 92.4824
81.7573 8608 92.7793
81.8747 8477 92.0706
81.9922 8523 92.3201
82.1096 8604 92.7577
82.227 8427 91.7987
82.3444 8287 91.033
82.4619 7812 88.3855
82.5793 6856 82.801
82.6967 6850 82.7647
82.8142 6548 80.9197
82.9316 6972 83.4985
83.049 7528 86.764
83.1664 7746 88.0114
83.2838 7908 88.9269
83.4012 8071 89.8387
83.5186 8216 90.6422
83.636 7911 88.9438
83.7534 8109 90.05
83.8708 7979 89.3252
83.9881 7798 88.3063
84.1055 7864 88.6792
84.2228 7816 88.4081
84.3401 7797 88.3006
84.4575 7764 88.1136
84.5747 7641 87.4128
84.692 7863 88.6736
84.8093 7938 89.0955
84.9265 7847 88.5833
85.0437 7868 88.7017
85.1609 7880 88.7694
85.2781 7611 87.241
85.3952 7877 88.7525
85.5123 7622 87.3041
85.6294 7818 88.4195
85.7465 7753 88.0511
85.8636 7837 88.5268
85.9806 7709 87.8009
86.0976 7034 83.8689
86.2145 6485 80.5295
86.3315 5964 77.2269
86.4484 6452 80.3243
86.5652 7184 84.7585
86.682 7820 88.4308
86.7988 7878 88.7581
86.9156 8121 90.1166
87.0323 7970 89.2749
87.149 8117 90.0944
87.2657 7927 89.0337
87.3823 8019 89.5489
87.4988 7924 89.0169
87.6154 7857 88.6397
87.7318 7918 88.9831
87.8483 7837 88.5268
87.9647 7876 88.7468
88.081 7955 89.1908
88.1973 7998 89.4315
88.3136 8046 89.6995
88.4298 7859 88.651
88.546 7814 88.3968
88.6621 7590 87.1206
88.7781 7709 87.8009
88.8942 0 1
89.0101 0 1
89.126 0 1
89.2419 0 1
89.3577 0 1
89.4734 0 1
89.5891 0 1
89.7047 0 1
89.8203 0 1
89.9358 0 1
92.3269 0 1
92.4424 0 1
92.558 0 1
92.6736 0 1
92.7893 0 1
92.905 0 1
93.0208 0 1
93.1366 0 1
93.2525 0 1
93.3685 0 1
93.4845 0 1
93.6005 6049 77.7753
93.7167 5885 76.7138
93.8328 5997 77.4403
93.949 6058 77.8332
94.0653 5941 77.0779
94.1816 5870 76.6159
94.2979 5671 75.306
94.4143 5714 75.591
94.5307 5728 75.6836
94.6472 5622 74.98
94.7637 5502 74.1755
94.8803 5565 74.5989
94.9969 5251 72.4638
95.1135 5297 72.7805
95.2302 5046 71.0352
95.3469 4609 67.8896
95.4637 3821 61.8142
95.5805 3628 60.2329
95.6973 4277 65.3988
95.8142 5017 70.8308
95.9311 5000 70.7107
96.048 4908 70.0571
96.1649 4946 70.3278
96.2819 4771 69.0724
96.3989 4797 69.2604
96.516 4581 67.6831
96.633 4510 67.1565
96.7501 4565 67.5648
96.8673 4358 66.0151
96.9844 4322 65.7419
97.1016 4132 64.2806
97.2188 4042 63.5767
97.336 4097 64.0078
97.4532 3910 62.53
97.5704 3957 62.9047
97.6877 3717 60.9672
97.805 3547 59.5567
97.9223 3554 59.6154
98.0396 3400 58.3095
98.1569 3347 57.8533
98.2743 3205 56.6127
98.3916 3091 55.5968
98.509 2971 54.5069
98.6264 3083 55.5248
98.7438 2904 53.8888
98.8612 2747 52.4118
98.9786 2462 49.6185
99.096 1959 44.2606
99.2134 1877 43.3244
99.3308 2273 47.676
99.4482 2464 49.6387
99.5656 2398 48.9694
99.6831 2346 48.4355
99.8005 2264 47.5815
99.9179 2215 47.0638
100.035 2052 45.299
100.153 2154 46.4112
100.27 2029 45.0444
100.388 2056 45.3431
100.505 1979 44.486
100.622 2095 45.7712
100.74 2084 45.6508
100.857 2137 46.2277
100.975 2275 47.697
101.092 2258 47.5184
101.209 2380 48.7852
101.327 2457 49.5681
101.444 2638 51.3615
101.561 2649 51.4684
101.679 2680 51.7687
101.796 2839 53.2823
101.913 2892 53.7773
102.03 2929 54.1202
102.148 3120 55.857
102.265 3382 58.155
102.382 3243 56.9473
102.499 3217 56.7186
102.616 2597 50.9608
102.733 2310 48.0625
102.851 3309 57.5239
102.968 3776 61.4492
103.085 4081 63.8827
103.202 4102 64.0469
103.319 4214 64.9153
103.436 4225 65
103.552 4405 66.3702
103.669 4479 66.9253
103.786 4480 66.9328
103.903 4508 67.1416
104.02 4629 68.0368
104.137 4799 69.2748
104.253 4966 70.4699
104.37 4916 70.1142
104.487 5216 72.2219
104.603 5252 72.4707
104.72 5285 72.698
104.836 5426 73.6614
104.953 5526 74.3371
105.069 5422 73.6342
105.186 5552 74.5117
105.302 5634 75.06
105.418 5757 75.8749
105.535 5775 75.9934
105.651 5762 75.9078
105.767 5964 77.2269
105.883 5458 73.8783
105.999 4414 66.4379
106.115 0 1
106.231 0 1
106.347 0 1
106.463 0 1
106.579 0 1
106.694 0 1
106.81 0 1
106.926 0 1
107.041 0 1
107.157 0 1
109.576 0 1
109.692 0 1
109.807 0 1
109.923 0 1
110.039 0 1
110.155 0 1
110.27 0 1
110.386 0 1
110.502 0 1
110.618 5675 75.3326
110.735 5856 76.5245
110.851 5634 75.06
110.967 5186 72.0139
111.083 4459 66.7757
111.199 4137 64.3195
111.316 5000 70.7107
111.432 5735 75.7298
111.549 5978 77.3175
111.665 6178 78.6003
111.782 5997 77.4403
111.898 6070 77.9102
112.015 6007 77.5048
112.132 5932 77.0195
112.248 5882 76.6942
112.365 5703 75.5182
112.482 5687 75.4122
112.599 5635 75.0666
112.716 5613 74.92
112.832 5548 74.4849
112.949 5513 74.2496
113.066 5343 73.0958
113.183 5412 73.5663
113.3 5193 72.0625
113.417 5123 71.5751
113.534 5059 71.1266
113.652 5153 71.7844
113.769 5004 70.739
113.886 5021 70.859
114.003 5093 71.3653
114.12 4865 69.7496
114.238 4835 69.5342
114.355 4744 68.8767
114.472 4346 65.9242
114.589 3768 61.384
114.707 3157 56.1872
114.824 3241 56.9298
114.942 3838 61.9516
115.059 4249 65.1844
115.176 4417 66.4605
115.294 4355 65.9924
115.411 4353 65.9773
115.529 4263 65.2917
115.646 4225 65
115.764 4155 64.4593
115.881 4092 63.9687
115.999 3978 63.0714
116.116 3999 63.2376
116.234 3956 62.8967
116.351 3785 61.5224
116.469 3698 60.8112
116.586 3761 61.327
116.704 3853 62.0725
116.821 3626 60.2163
116.939 3702 60.8441
117.056 3558 59.649
117.174 3559 59.6574
117.291 3577 59.808
117.409 3466 58.8727
117.526 3435 58.6089
117.644 3407 58.3695
117.761 3269 57.1752
117.879 3349 57.8705
117.996 3196 56.5332
118.114 3216 56.7098
118.231 3026 55.0091
118.349 2681 51.7784
118.466 2563 50.6261
118.584 2779 52.7162
118.701 3041 55.1453
118.819 3089 55.5788
118.936 3075 55.4527
119.053 3150 56.1249
119.171 2988 54.6626
119.288 2979 54.5802
119.405 3062 55.3353
119.523 3034 55.0818
119.64 3102 55.6956
119.757 2931 54.1387
119.875 2785 52.7731
119.992 3024 54.9909
120.109 2818 53.0848
120.226 2901 53.8609
120.343 2791 52.8299
120.46 2892 53.7773
120.578 2790 52.8205
120.695 2773 52.6593
120.812 2817 53.0754
120.929 2875 53.619
121.046 2922 54.0555
121.163 2876 53.6284
121.279 2797 52.8867
121.396 2529 50.2892
121.513 2354 48.518
121.63 2213 47.0425
121.747 2198 46.8828
121.863 2570 50.6952
121.98 2756 52.4976
122.097 2797 52.8867
122.213 2649 51.4684
122.33 2737 52.3163
122.446 2758 52.5167
122.563 2883 53.6936
122.679 2941 54.231
122.795 2943 54.2494
122.912 2931 54.1387
123.028 2840 53.2917
123.144 2782 52.7447
123.26 2875 53.619
123.377 0 1
123.493 0 1
123.609 0 1
123.725 0 1
123.84 0 1
123.956 0 1
124.072 0 1
124.188 0 1
124.303 0 1
124.419 0 1
126.852 0 1
126.968 0 1
127.083 0 1
127.199 0 1
127.315 0 1
127.431 0 1
127.547 0 1
127.663 0 1
127.779 0 1
127.895 0 1
128.011 0 1
128.127 0 1
128.243 0 1
128.359 4127 64.2417
128.476 4190 64.7302
128.592 4222 64.9769
128.708 4227 65.0154
128.825 4320 65.7267
128.941 4378 66.1665
129.058 4378 66.1665
129.174 4410 66.4078
129.291 4421 66.4906
129.408 4372 66.1211
129.524 4469 66.8506
129.641 4632 68.0588
129.758 4546 67.424
129.875 4568 67.587
129.992 4629 68.0368
130.108 4425 66.5207
130.225 4097 64.0078
130.342 3649 60.407
130.459 2911 53.9537
130.576 2544 50.4381
130.693 2587 50.8626
130.81 3355 57.9224
130.928 4314 65.681
131.045 4695 68.5201
131.162 4977 70.5479
131.279 5063 71.1548
131.396 5186 72.0139
131.513 5069 71.1969
131.631 5205 72.1457
131.748 5087 71.3232
131.865 5259 72.519
131.983 5286 72.7049
132.1 5249 72.45
132.217 5227 72.298
132.335 5418 73.6071
132.452 5307 72.8492
132.57 5468 73.9459
132.687 5253 72.4776
132.804 5516 74.2698
132.922 5453 73.8444
133.039 5554 74.5252
133.157 5524 74.3236
133.274 5564 74.5922
133.392 5452 73.8377
133.509 5402 73.4983
133.627 5441 73.7631
133.744 5096 71.3863
133.862 4616 67.9412
133.979 4035 63.5216
134.097 3461 58.8303
134.214 3367 58.0259
134.332 3334 57.7408
134.449 4027 63.4586
134.567 5158 71.8192
134.684 5817 76.2693
134.802 5887 76.7268
134.919 5862 76.5637
135.037 6015 77.5564
135.154 6081 77.9808
135.272 6180 78.613
135.389 6168 78.5366
135.507 6210 78.8036
135.624 6263 79.1391
135.742 6175 78.5812
135.859 6255 79.0886
135.977 6232 78.943
136.094 6387 79.9187
136.211 6333 79.5801
136.329 6475 80.4674
136.446 6436 80.2247
136.564 6401 80.0062
136.681 6405 80.0312
136.798 6345 79.6555
136.915 6600 81.2404
137.033 6443 80.2683
137.15 6317 79.4796
137.267 6333 79.5801
137.384 5597 74.8131
137.502 5303 72.8217
137.619 4787 69.1881
137.736 4351 65.9621
137.853 4085 63.914
137.97 4086 63.9218
138.087 4605 67.8602
138.204 5473 73.9797
138.321 6325 79.5299
138.438 6869 82.8794
138.555 6860 82.8251
138.672 7040 83.9047
138.788 7115 84.3505
138.905 7068 84.0714
139.022 7224 84.9941
139.139 7181 84.7408
139.255 7217 84.9529
139.372 7080 84.1427
139.488 7304 85.4634
139.605 7051 83.9702
139.721 7141 84.5044
139.838 7248 85.1352
139.954 7202 84.8646
140.071 7221 84.9765
140.187 7319 85.5512
140.303 7280 85.3229
140.419 7244 85.1117
140.535 7271 85.2702
140.652 7066 84.0595
140.768 0 1
140.884 0 1
141 0 1
141.115 0 1
141.231 0 1
141.347 0 1
141.463 0 1
141.578 0 1
141.694 0 1
144.104 0 1
144.219 0 1
144.335 0 1
144.45 0 1
144.566 0 1
144.682 0 1
144.798 0 1
144.914 0 1
145.03 0 1
145.146 7078 84.1309
145.262 7137 84.4808
145.378 7265 85.235
145.494 7146 84.534
145.61 6905 83.0963
145.726 6840 82.7043
145.842 6583 81.1357
145.959 6282 79.2591
146.075 5890 76.7463
146.192 5534 74.3909
146.308 5170 71.9027
146.425 5101 71.4213
146.541 5066 71.1758
146.658 5182 71.9861
146.774 5448 73.8106
146.891 6032 77.666
147.008 6619 81.3572
147.125 7133 84.4571
147.241 7182 84.7467
147.358 7205 84.8823
147.475 7331 85.6213
147.592 7533 86.7929
147.709 7394 85.9884
147.826 7299 85.4342
147.943 7330 85.6154
148.06 7171 84.6818
148.177 7296 85.4166
148.294 7309 85.4927
148.411 7190 84.7939
148.528 7340 85.6738
148.645 7070 84.0833
148.762 7314 85.5219
148.88 7398 86.0116
148.997 7031 83.8511
149.114 7393 85.9826
149.231 6996 83.6421
149.349 6838 82.6922
149.466 6444 80.2745
149.583 6194 78.702
149.701 5891 76.7529
149.818 5654 75.1931
149.935 5480 74.027
150.053 5397 73.4643
150.17 5450 73.8241
150.287 5518 74.2832
150.405 5805 76.1906
150.522 6168 78.5366
150.64 6733 82.0549
150.757 7155 84.5872
150.875 7449 86.3076
150.992 7502 86.6141
151.11 7196 84.8292
151.227 7420 86.1394
151.344 7355 85.7613
151.462 7500 86.6025
151.579 7477 86.4696
151.697 7607 87.2181
151.814 7403 86.0407
151.932 7415 86.1104
152.049 7686 87.6698
152.167 7503 86.6199
152.284 7551 86.8965
152.402 7500 86.6025
152.519 7414 86.1046
152.636 7588 87.1091
152.754 7507 86.6429
152.871 6986 83.5823
152.989 7145 84.5281
153.106 6879 82.9397
153.223 6383 79.8937
153.341 6214 78.8289
153.458 5851 76.4918
153.575 5767 75.9408
153.693 5753 75.8485
153.81 5807 76.2037
153.927 5923 76.961
154.044 6362 79.7621
154.162 6582 81.1295
154.279 7136 84.4748
154.396 7350 85.7321
154.513 7576 87.0402
154.63 7952 89.174
154.747 7927 89.0337
154.864 7926 89.0281
154.981 7818 88.4195
155.098 7925 89.0225
155.215 8021 89.56
155.332 7961 89.2244
155.449 7923 89.0112
155.566 7791 88.2666
155.683 7990 89.3868
155.8 7974 89.2973
155.917 8026 89.5879
156.033 7961 89.2244
156.15 0 1
156.267 0 1
156.383 0 1
156.5 0 1
156.617 0 1
156.733 0 1
156.85 0 1
156.966 0 1
157.082 0 1
157.199 0 1
157.315 0 1
157.431 0 1
157.547 0 1
157.664 0 1
157.78 0 1
157.896 0 1
158.012 0 1
158.128 0 1
158.244 0 1
158.359 0 1
158.475 0 1
158.591 0 1
158.706 0 1
