
6.15755 0 1
6.2731 0 1
6.3887 0 1
6.50437 0 1
6.62009 0 1
6.73587 0 1
6.8517 0 1
6.96759 0 1
7.08353 0 1
7.19952 0 1
7.31557 0 1
7.43166 0 1
7.54781 0 1
7.664 0 1
7.78024 0 1
7.89653 0 1
8.01286 0 1
8.12924 0 1
8.24567 0 1
8.36213 0 1
8.47864 0 1
8.59519 0 1
8.71178 0 1
8.82841 0 1
8.94508 0 1
9.06179 0 1
9.17853 0 1
9.29531 0 1
9.41212 0 1
9.52897 0 1
9.64584 0 1
9.76276 0 1
9.8797 0 1
9.99667 0 1
10.1137 0 1
10.2307 0 1
10.3478 0 1
10.4648 0 1
10.5819 0 1
10.6991 0 1
10.8162 0 1
10.9334 0 1
11.0506 0 1
11.1678 0 1
11.285 0 1
11.4023 0 1
11.5196 0 1
11.6369 0 1
11.7542 0 1
11.8715 0 1
11.9888 0 1
12.1062 0 1
12.2235 0 1
12.3409 0 1
12.4582 0 1
12.5756 0 1
12.693 0 1
12.8104 0 1
12.9278 0 1
13.0452 0 1
13.1626 0 1
13.28 0 1
13.3974 0 1
13.5149 0 1
13.6323 0 1
13.7497 0 1
13.8671 0 1
13.9845 0 1
14.1019 0 1
14.2193 0 1
14.3367 0 1
14.4541 0 1
14.5714 0 1
14.6888 0 1
14.8062 0 1
14.9235 0 1
15.0408 5398 73.4711
15.1581 5559 74.5587
15.2755 5696 75.4718
15.3927 5781 76.0329
15.51 5853 76.5049
15.6273 5683 75.3857
15.7445 5579 74.6927
15.8617 5714 75.591
15.9789 5748 75.8156
16.0961 5789 76.0855
16.2132 5700 75.4983
16.3304 5692 75.4453
16.4475 5880 76.6812
16.5646 5897 76.7919
16.6816 5974 77.2917
16.7986 5969 77.2593
16.9156 6068 77.8974
17.0326 6265 79.1518
17.1496 6100 78.1025
17.2665 6233 78.9494
17.3833 6247 79.038
17.5002 6269 79.177
17.617 6341 79.6304
17.7338 6337 79.6053
17.8505 6067 77.8909
17.9672 5986 77.3692
18.0839 6154 78.4474
18.2005 6188 78.6638
18.3171 6228 78.9177
18.4337 6403 80.0187
18.5502 6591 81.185
18.6666 6598 81.2281
18.7831 6739 82.0914
18.8994 6635 81.4555
19.0158 6481 80.5047
19.1321 6229 78.924
19.2483 5931 77.013
19.3645 5690 75.4321
19.4806 5643 75.1199
19.5967 5420 73.6206
19.7128 5160 71.8331
19.8288 4901 70.0071
19.9447 4038 63.5453
20.0606 0 1
20.1764 0 1
20.2922 0 1
20.4079 0 1
20.5236 0 1
20.6392 0 1
20.7548 0 1
20.8702 0 1
23.3078 0 1
23.4233 0 1
23.539 0 1
23.6547 0 1
23.7704 0 1
23.8862 0 1
24.0021 0 1
24.118 0 1
24.234 0 1
24.35 0 1
24.4661 3159 56.205
24.5822 3532 59.4306
24.6984 4049 63.6318
24.8146 4427 66.5357
24.9309 4875 69.8212
25.0472 5251 72.4638
25.1636 5485 74.0608
25.28 5764 75.921
25.3965 6107 78.1473
25.513 6206 78.7782
25.6296 6495 80.5916
25.7462 6568 81.0432
25.8628 6748 82.1462
25.9795 6950 83.3667
26.0962 7181 84.7408
26.213 7178 84.7231
26.3298 7235 85.0588
26.4466 7081 84.1487
26.5635 7263 85.2232
26.6804 6966 83.4626
26.7973 6944 83.3307
26.9143 7083 84.1606
27.0313 7124 84.4038
27.1483 7372 85.8604
27.2653 7551 86.8965
27.3824 7597 87.1608
27.4996 7616 87.2697
27.6167 7503 86.6199
27.7339 7380 85.9069
27.8511 7252 85.1587
27.9683 7196 84.8292
28.0855 6951 83.3727
28.2028 7243 85.1058
28.3201 6938 83.2947
28.4374 7021 83.7914
28.5547 6969 83.4805
28.6721 6830 82.6438
28.7894 6574 81.0802
28.9068 6483 80.5171
29.0242 6391 79.9437
29.1416 6572 81.0679
29.259 6559 80.9877
29.3764 6634 81.4494
29.4939 6654 81.5721
29.6113 7020 83.7854
29.7288 7060 84.0238
29.8463 7195 84.8233
29.9638 7025 83.8153
30.0812 6987 83.5883
30.1987 6938 83.2947
30.3162 7076 84.119
30.4337 7174 84.6995
30.5512 7103 84.2793
30.6687 7306 85.4751
30.7862 7483 86.5043
30.9037 7522 86.7295
31.0212 7568 86.9943
31.1387 7473 86.4465
31.2562 7443 86.2728
31.3737 7359 85.7846
31.4912 7196 84.8292
31.6087 7263 85.2232
31.7262 7209 84.9058
31.8436 7056 84
31.9611 7158 84.605
32.0785 7130 84.4393
32.1959 6893 83.0241
32.3134 6622 81.3757
32.4308 6460 80.3741
32.5482 6572 81.0679
32.6655 6603 81.2588
32.7829 6474 80.4612
32.9002 6677 81.7129
33.0176 6769 82.2739
33.1349 6859 82.8191
33.2522 7012 83.7377
33.3694 7005 83.6959
33.4867 7017 83.7675
33.6039 7108 84.309
33.7211 7051 83.9702
33.8383 7085 84.1724
33.9554 6931 83.2526
34.0725 6994 83.6301
34.1896 7135 84.4689
34.3067 7435 86.2264
34.4237 7434 86.2206
34.5407 7531 86.7813
34.6577 7841 88.5494
34.7746 7610 87.2353
34.8915 7407 86.0639
35.0084 7344 85.6971
35.1252 7257 85.188
35.242 7248 85.1352
35.3587 7356 85.7671
35.4755 7232 85.0412
35.5921 7275 85.2936
35.7088 7012 83.7377
35.8254 6666 81.6456
35.9419 6449 80.3057
36.0584 6242 79.0063
36.1749 5966 77.2399
36.2913 5885 76.7138
36.4077 5414 73.5799
36.524 5396 73.4575
36.6403 5459 73.885
36.7565 5341 73.0821
36.8727 5294 72.7599
36.9889 5094 71.3723
37.1049 4834 69.527
37.221 0 1
37.3369 0 1
37.4529 0 1
37.5687 0 1
37.6845 0 1
37.8003 0 1
37.916 0 1
38.0316 0 1
38.1472 0 1
40.5851 0 1
40.7008 0 1
40.8164 0 1
40.9322 0 1
41.048 0 1
41.1639 0 1
41.2798 0 1
41.3958 0 1
41.5118 0 1
41.6279 0 1
41.744 2968 54.4794
41.8602 3489 59.0678
41.9765 3932 62.7057
42.0928 4481 66.9403
42.2091 4813 69.3758
42.3255 5027 70.9013
42.4419 5529 74.3572
42.5584 5687 75.4122
42.675 6011 77.5306
42.7915 6086 78.0128
42.9081 6145 78.3901
43.0248 6400 80
43.1415 6728 82.0244
43.2582 7010 83.7257
43.375 7275 85.2936
43.4918 7351 85.738
43.6087 7303 85.4576
43.7256 7298 85.4283
43.8425 7191 84.7998
43.9595 7110 84.3208
44.0765 7134 84.463
44.1935 6963 83.4446
44.3106 7099 84.2556
44.4277 7100 84.2615
44.5448 7054 83.9881
44.6619 6804 82.4864
44.7791 6430 80.1873
44.8963 5953 77.1557
45.0136 5882 76.6942
45.1308 5742 75.776
45.2481 5619 74.96
45.3654 5735 75.7298
45.4827 5759 75.8881
45.6001 5979 77.324
45.7174 6492 80.5729
45.8348 6870 82.8855
45.9522 6838 82.6922
46.0697 7175 84.7054
46.1871 7175 84.7054
46.3046 7230 85.0294
46.422 7018 83.7735
46.5395 7223 84.9882
46.657 7470 86.4292
46.7745 7620 87.2926
46.892 7548 86.8792
47.0096 7830 88.4873
47.1271 7899 88.8763
47.2446 7931 89.0562
47.3622 8112 90.0666
47.4797 7704 87.7724
47.5973 7631 87.3556
47.7149 7535 86.8044
47.8324 7692 87.704
47.95 7686 87.6698
48.0675 7282 85.3346
48.1851 7327 85.5979
48.3027 6954 83.3906
48.4202 6463 80.3928
48.5378 5824 76.3151
48.6554 5740 75.7628
48.7729 5772 75.9737
48.8904 5812 76.2365
49.008 5910 76.8765
49.1255 6076 77.9487
49.243 6583 81.1357
49.3605 7171 84.6818
49.478 7299 85.4342
49.5955 7385 85.936
49.713 7601 87.1837
49.8304 7440 86.2554
49.9479 7390 85.9651
50.0653 7487 86.5275
50.1827 7560 86.9483
50.3001 7816 88.4081
50.4175 7882 88.7806
50.5348 8214 90.6311
50.6521 8152 90.2884
50.7694 8344 91.3455
50.8867 8109 90.05
51.004 8176 90.4212
51.1212 7943 89.1235
51.2384 7808 88.3629
51.3556 8088 89.9333
51.4727 8042 89.6772
51.5899 7899 88.8763
51.707 7663 87.5386
51.824 7198 84.841
51.9411 6639 81.4801
52.0581 6189 78.6702
52.175 5834 76.3806
52.2919 5727 75.6769
52.4088 5716 75.6042
52.5257 5844 76.4461
52.6425 6213 78.8226
52.7593 6640 81.4862
52.876 6952 83.3787
52.9927 7141 84.5044
53.1094 6959 83.4206
53.226 7118 84.3682
53.3426 7278 85.3112
53.4591 6751 82.1645
53.5756 6604 81.265
53.692 6484 80.5233
53.8084 6250 79.0569
53.9248 6054 77.8075
54.0411 5725 75.6637
54.1573 5552 74.5117
54.2735 0 1
54.3896 0 1
54.5057 0 1
54.6217 0 1
54.7377 0 1
54.8537 0 1
54.9695 0 1
55.0853 0 1
55.2011 0 1
55.3168 0 1
55.4324 0 1
57.824 0 1
57.9396 0 1
58.0553 0 1
58.1711 0 1
58.2869 0 1
58.4028 0 1
58.5187 0 1
58.6347 0 1
58.7508 0 1
58.8669 0 1
58.983 6406 80.0375
59.0992 7213 84.9294
59.2155 7703 87.7667
59.3318 8232 90.7304
59.4482 8901 94.3451
59.5646 9266 96.2601
59.681 9447 97.1957
59.7975 9457 97.2471
59.9141 9720 98.5901
60.0306 9781 98.8989
60.1473 10063 100.315
60.2639 10208 101.035
60.3807 10094 100.469
60.4974 9686 98.4175
60.6142 9122 95.5092
60.731 8367 91.4713
60.8479 7679 87.6299
60.9648 7195 84.8233
61.0818 7140 84.4985
61.1987 7144 84.5222
61.3158 7465 86.4002
61.4328 8330 91.2688
61.5499 9294 96.4054
61.667 10011 100.055
61.7841 10561 102.767
61.9013 10746 103.663
62.0185 11052 105.128
62.1357 10654 103.218
62.253 10808 103.962
62.3702 10803 103.937
62.4875 10925 104.523
62.6049 11264 106.132
62.7222 11446 106.986
62.8396 11482 107.154
62.9569 11669 108.023
63.0743 11637 107.875
63.1918 11601 107.708
63.3092 11439 106.953
63.4267 11328 106.433
63.5441 11240 106.019
63.6616 11183 105.75
63.7791 11346 106.518
63.8966 10819 104.014
64.0142 10424 102.098
64.1317 9700 98.4886
64.2492 8613 92.8062
64.3668 7744 88
64.4843 7307 85.481
64.6019 7051 83.9702
64.7195 7119 84.3742
64.837 7582 87.0747
64.9546 8185 90.471
65.0722 9206 95.9479
65.1898 10185 100.921
65.3074 10881 104.312
65.4249 11034 105.043
65.5425 11431 106.916
65.6601 11349 106.532
65.7777 11433 106.925
65.8952 11264 106.132
66.0128 11479 107.14
66.1304 11659 107.977
66.2479 11839 108.807
66.3655 11956 109.343
66.483 12064 109.836
66.6005 12372 111.229
66.718 12143 110.195
66.8355 11909 109.128
66.953 11963 109.375
67.0705 11755 108.42
67.1879 11574 107.583
67.3054 11564 107.536
67.4228 11676 108.056
67.5402 11325 106.419
67.6576 10680 103.344
67.7749 9716 98.5698
67.8923 8628 92.887
68.0096 7715 87.8351
68.1269 7055 83.994
68.2442 6682 81.7435
68.3614 6865 82.8553
68.4787 7342 85.6855
68.5958 8270 90.9395
68.713 9469 97.3088
68.8302 10257 101.277
68.9473 11373 106.644
69.0643 11878 108.986
69.1814 12147 110.213
69.2984 11667 108.014
69.4154 11435 106.935
69.5323 11072 105.224
69.6492 10916 104.48
69.7661 11200 105.83
69.8829 11152 105.603
69.9997 11110 105.404
70.1165 11113 105.418
70.2332 10943 104.609
70.3499 10863 104.226
70.4665 10331 101.642
70.5831 9701 98.4937
70.6996 9317 96.5246
70.8161 8682 93.1773
70.9326 8558 92.5095
71.049 8226 90.6973
71.1653 7561 86.954
71.2817 7183 84.7526
71.3979 6172 78.5621
71.5141 5240 72.3878
71.6303 4114 64.1405
71.7464 2887 53.7308
71.8624 0 1
71.9784 0 1
72.0944 0 1
72.2102 0 1
72.3261 0 1
72.4418 0 1
72.5575 0 1
72.6732 0 1
75.1054 0 1
75.2209 0 1
75.3365 0 1
75.4521 0 1
75.5678 0 1
75.6835 0 1
75.7993 0 1
75.9151 0 1
76.031 0 1
76.147 8488 92.1303
76.263 9244 96.1457
76.3791 9574 97.8468
76.4952 9272 96.2912
76.6113 9057 95.1683
76.7276 8675 93.1397
76.8438 7930 89.0505
76.9601 7169 84.6699
77.0765 6472 80.4487
77.1929 6299 79.3662
77.3093 6212 78.8162
77.4258 6551 80.9382
77.5423 7354 85.7555
77.6589 8804 93.8296
77.7755 10532 102.626
77.8921 11393 106.738
78.0088 12145 110.204
78.1256 12615 112.317
78.2423 12884 113.508
78.3591 12400 111.355
78.4759 12467 111.656
78.5928 12109 110.041
78.7097 12380 111.265
78.8266 12435 111.512
78.9436 13123 114.556
79.0606 13185 114.826
79.1776 13223 114.991
79.2946 13169 114.756
79.4117 13597 116.606
79.5288 13297 115.313
79.6459 13553 116.417
79.7631 13011 114.066
79.8802 13158 114.708
79.9974 13329 115.451
80.1147 13462 116.026
80.2319 12883 113.503
80.3491 11795 108.605
80.4664 10545 102.689
80.5837 9360 96.7471
80.701 8008 89.4874
80.8183 7331 85.6213
80.9357 7091 84.2081
81.053 7322 85.5687
81.1704 7677 87.6185
81.2877 9076 95.268
81.4051 11078 105.252
81.5225 12687 112.637
81.6399 13489 116.142
81.7573 14433 120.137
81.8747 14333 119.721
81.9922 14285 119.52
82.1096 14032 118.457
82.227 13811 117.52
82.3444 13575 116.512
82.4619 14303 119.595
82.5793 14584 120.764
82.6967 14668 121.112
82.8142 15122 122.972
82.9316 15455 124.318
83.049 15229 123.406
83.1664 15379 124.012
83.2838 15166 123.15
83.4012 15092 122.85
83.5186 14833 121.791
83.636 14561 120.669
83.7534 14642 121.004
83.8708 14029 118.444
83.9881 13016 114.088
84.1055 11487 107.177
84.2228 10512 102.528
84.3401 9065 95.2103
84.4575 7954 89.1852
84.5747 7606 87.2124
84.692 7694 87.7154
84.8093 8384 91.5642
84.9265 10191 100.95
85.0437 11979 109.449
85.1609 13579 116.529
85.2781 14908 122.098
85.3952 15885 126.036
85.5123 16412 128.109
85.6294 16010 126.531
85.7465 15693 125.272
85.8636 15438 124.25
85.9806 15517 124.567
86.0976 15853 125.909
86.2145 16255 127.495
86.3315 16985 130.327
86.4484 16413 128.113
86.5652 16718 129.298
86.682 16593 128.814
86.7988 15958 126.325
86.9156 15352 123.903
87.0323 15148 123.077
87.149 14605 120.851
87.2657 14525 120.52
87.3823 14484 120.349
87.4988 13641 116.795
87.6154 12228 110.58
87.7318 10849 104.159
87.8483 9175 95.7862
87.9647 7842 88.5551
88.081 6531 80.8146
88.1973 6337 79.6053
88.3136 6076 77.9487
88.4298 6433 80.206
88.546 7429 86.1916
88.6621 8649 93
88.7781 9294 96.4054
88.8942 0 1
89.0101 0 1
89.126 0 1
89.2419 0 1
89.3577 0 1
89.4734 0 1
89.5891 0 1
89.7047 0 1
89.8203 0 1
89.9358 0 1
92.3269 0 1
92.4424 0 1
92.558 0 1
92.6736 0 1
92.7893 0 1
92.905 0 1
93.0208 0 1
93.1366 0 1
93.2525 0 1
93.3685 0 1
93.4845 0 1
93.6005 6866 82.8613
93.7167 7605 87.2067
93.8328 8808 93.8509
93.949 10503 102.484
94.0653 12802 113.146
94.1816 14670 121.12
94.2979 16147 127.071
94.4143 17447 132.087
94.5307 17981 134.093
94.6472 18394 135.624
94.7637 18669 136.635
94.8803 18166 134.781
94.9969 18315 135.333
95.1135 18485 135.96
95.2302 19001 137.844
95.3469 19137 138.337
95.4637 19686 140.307
95.5805 19699 140.353
95.6973 19822 140.791
95.8142 19371 139.18
95.9311 19458 139.492
96.048 19002 137.848
96.1649 19021 137.917
96.2819 18784 137.055
96.3989 18524 136.103
96.516 17885 133.735
96.633 16778 129.53
96.7501 15099 122.878
96.8673 13692 117.013
96.9844 12048 109.763
97.1016 10887 104.341
97.2188 9772 98.8534
97.336 9664 98.3056
97.4532 10210 101.045
97.5704 11546 107.452
97.6877 13644 116.808
97.805 15767 125.567
97.9223 17569 132.548
98.0396 19039 137.982
98.1569 19868 140.954
98.2743 19965 141.298
98.3916 19704 140.371
98.509 19339 139.065
98.6264 19134 138.326
98.7438 19489 139.603
98.8612 19872 140.968
98.9786 20243 142.278
99.096 20466 143.059
99.2134 20398 142.822
99.3308 20601 143.53
99.4482 20699 143.871
99.5656 20455 143.021
99.6831 19918 141.131
99.8005 20195 142.109
99.9179 19742 140.506
100.035 19673 140.26
100.153 19059 138.054
100.27 17602 132.673
100.388 15598 124.892
100.505 13681 116.966
100.622 12098 109.991
100.74 11035 105.048
100.857 10303 101.504
100.975 10296 101.469
101.092 11427 106.897
101.209 13248 115.1
101.327 15813 125.75
101.444 17791 133.383
101.561 19826 140.805
101.679 20460 143.038
101.796 21014 144.962
101.913 20934 144.686
102.03 20214 142.176
102.148 19972 141.322
102.265 20196 142.113
102.382 19851 140.894
102.499 20543 143.328
102.616 20873 144.475
102.733 21063 145.131
102.851 21145 145.413
102.968 21288 145.904
103.085 20926 144.658
103.202 20344 142.632
103.319 20465 143.056
103.436 20022 141.499
103.552 19879 140.993
103.669 19666 140.236
103.786 18834 137.237
103.903 17336 131.666
104.02 15269 123.568
104.137 13481 116.108
104.253 11994 109.517
104.37 10729 103.581
104.487 10648 103.189
104.603 10822 104.029
104.72 11452 107.014
104.836 12929 113.706
104.953 14358 119.825
105.069 15570 124.78
105.186 16068 126.76
105.302 16310 127.711
105.418 15688 125.252
105.535 15188 123.24
105.651 14107 118.773
105.767 12993 113.987
105.883 12274 110.788
105.999 11021 104.981
106.115 0 1
106.231 0 1
106.347 0 1
106.463 0 1
106.579 0 1
106.694 0 1
106.81 0 1
106.926 0 1
107.041 0 1
107.157 0 1
109.576 0 1
109.692 0 1
109.807 0 1
109.923 0 1
110.039 0 1
110.155 0 1
110.27 0 1
110.386 0 1
110.502 0 1
110.618 11791 108.586
110.735 12907 113.609
110.851 13320 115.412
110.967 14311 119.629
111.083 15396 124.081
111.199 16385 128.004
111.316 17032 130.507
111.432 17811 133.458
111.549 18489 135.974
111.665 18195 134.889
111.782 18427 135.746
111.898 18583 136.319
112.015 18439 135.79
112.132 18190 134.87
112.248 18438 135.787
112.365 18334 135.403
112.482 17923 133.877
112.599 15632 125.028
112.716 13808 117.507
112.832 12042 109.736
112.949 10826 104.048
113.066 10079 100.394
113.183 9720 98.5901
113.3 10152 100.757
113.417 10758 103.721
113.534 13021 114.11
113.652 15236 123.434
113.769 16856 129.831
113.886 18070 134.425
114.003 18571 136.275
114.12 18664 136.616
114.238 18227 135.007
114.355 17948 133.97
114.472 17344 131.697
114.589 17563 132.525
114.707 18107 134.562
114.824 18776 137.026
114.942 18822 137.193
115.059 18533 136.136
115.176 18823 137.197
115.294 18323 135.362
115.411 18567 136.261
115.529 17580 132.59
115.646 17267 131.404
115.764 17245 131.32
115.881 17172 131.042
115.999 17105 130.786
116.116 16338 127.82
116.234 14674 121.136
116.351 13040 114.193
116.469 11336 106.471
116.586 10277 101.376
116.704 9888 99.4384
116.821 9686 98.4175
116.939 9843 99.2119
117.056 10995 104.857
117.174 13126 114.569
117.291 14943 122.242
117.409 15997 126.479
117.526 16872 129.892
117.644 17415 131.966
117.761 17302 131.537
117.879 17019 130.457
117.996 16170 127.161
118.114 16253 127.487
118.231 16564 128.701
118.349 16965 130.25
118.466 17255 131.358
118.584 17348 131.712
118.701 17504 132.303
118.819 16987 130.334
118.936 16799 129.611
119.053 16483 128.386
119.171 16014 126.546
119.288 15756 125.523
119.405 15584 124.836
119.523 15912 126.143
119.64 15581 124.824
119.757 15049 122.674
119.875 13844 117.661
119.992 12340 111.086
120.109 11185 105.759
120.226 10081 100.404
120.343 9588 97.9183
120.46 9313 96.5039
120.578 9283 96.3483
120.695 9777 98.8787
120.812 11080 105.262
120.929 12398 111.346
121.046 13662 116.885
121.163 14068 118.609
121.279 14269 119.453
121.396 14286 119.524
121.513 14036 118.474
121.63 13239 115.061
121.747 12865 113.424
121.863 13039 114.188
121.98 13078 114.359
122.097 13031 114.153
122.213 12706 112.721
122.33 12358 111.167
122.446 12028 109.672
122.563 11441 106.963
122.679 10922 104.508
122.795 10578 102.849
122.912 9575 97.8519
123.028 8815 93.8882
123.144 8455 91.9511
123.26 8096 89.9778
123.377 0 1
123.493 0 1
123.609 0 1
123.725 0 1
123.84 0 1
123.956 0 1
124.072 0 1
124.188 0 1
124.303 0 1
124.419 0 1
126.852 0 1
126.968 0 1
127.083 0 1
127.199 0 1
127.315 0 1
127.431 0 1
127.547 0 1
127.663 0 1
127.779 0 1
127.895 0 1
128.011 0 1
128.127 0 1
128.243 0 1
128.359 14859 121.897
128.476 15153 123.098
128.592 15363 123.948
128.708 15713 125.352
128.825 15794 125.674
128.941 15103 122.894
129.058 14032 118.457
129.174 12854 113.375
129.291 12295 110.883
129.408 11452 107.014
129.524 11026 105.005
129.641 10902 104.413
129.758 11033 105.038
129.875 12272 110.779
129.992 13362 115.594
130.108 14574 120.723
130.225 15541 124.664
130.342 16172 127.169
130.459 16186 127.224
130.576 16370 127.945
130.693 15903 126.107
130.81 16047 126.677
130.928 16452 128.265
131.045 16678 129.143
131.162 16878 129.915
131.279 17280 131.453
131.396 17299 131.526
131.513 16961 130.234
131.631 17046 130.56
131.748 16770 129.499
131.865 16470 128.335
131.983 16004 126.507
132.1 15921 126.178
132.217 16054 126.704
132.335 16038 126.641
132.452 15676 125.204
132.57 14714 121.301
132.687 13708 117.081
132.804 12800 113.137
132.922 11963 109.375
133.039 11743 108.365
133.157 11257 106.099
133.274 11136 105.527
133.392 11639 107.884
133.509 12718 112.774
133.627 13686 116.987
133.744 14614 120.888
133.862 15457 124.326
133.979 15663 125.152
134.097 15789 125.654
134.214 15671 125.184
134.332 15277 123.6
134.449 15705 125.32
134.567 16318 127.742
134.684 16226 127.381
134.802 16800 129.615
134.919 16949 130.188
135.037 16560 128.686
135.154 16242 127.444
135.272 16450 128.258
135.389 16182 127.208
135.507 15780 125.618
135.624 15503 124.511
135.742 15688 125.252
135.859 15657 125.128
135.977 15791 125.662
136.094 15288 123.645
136.211 14211 119.21
136.329 13818 117.55
136.446 12963 113.855
136.564 12380 111.265
136.681 11812 108.683
136.798 11587 107.643
136.915 11291 106.259
137.033 11666 108.009
137.15 12353 111.144
137.267 13117 114.529
137.384 14140 118.912
137.502 14328 119.7
137.619 14842 121.828
137.736 15189 123.244
137.853 14587 120.777
137.97 14778 121.565
138.087 14319 119.662
138.204 15059 122.715
138.321 15255 123.511
138.438 15156 123.11
138.555 15017 122.544
138.672 14783 121.585
138.788 14426 120.108
138.905 13674 116.936
139.022 13390 115.715
139.139 12853 113.371
139.255 12250 110.68
139.372 11702 108.176
139.488 11321 106.4
139.605 11066 105.195
139.721 10352 101.745
139.838 9504 97.4885
139.954 8766 93.6269
140.071 7864 88.6792
140.187 7283 85.3405
140.303 6427 80.1686
140.419 5882 76.6942
140.535 5266 72.5672
140.652 4912 70.0857
140.768 0 1
140.884 0 1
141 0 1
141.115 0 1
141.231 0 1
141.347 0 1
141.463 0 1
141.578 0 1
141.694 0 1
144.104 0 1
144.219 0 1
144.335 0 1
144.45 0 1
144.566 0 1
144.682 0 1
144.798 0 1
144.914 0 1
145.03 0 1
145.146 9291 96.3898
145.262 9466 97.2934
145.378 9340 96.6437
145.494 9227 96.0573
145.61 9153 95.6713
145.726 9147 95.6399
145.842 9044 95.0999
145.959 9289 96.3795
146.075 9732 98.6509
146.192 10122 100.608
146.308 10399 101.975
146.425 10584 102.879
146.541 10880 104.307
146.658 10572 102.82
146.774 10398 101.971
146.891 10676 103.325
147.008 11016 104.957
147.125 11049 105.114
147.241 11231 105.976
147.358 11678 108.065
147.475 11477 107.131
147.592 11776 108.517
147.709 11368 106.621
147.826 11113 105.418
147.943 10858 104.202
148.06 10686 103.373
148.177 10662 103.257
148.294 10768 103.769
148.411 10801 103.928
148.528 11138 105.537
148.645 10879 104.302
148.762 10645 103.175
148.88 10566 102.791
148.997 10330 101.637
149.114 9751 98.7472
149.231 9680 98.387
149.349 9560 97.7753
149.466 9331 96.5971
149.583 9252 96.1873
149.701 9261 96.2341
149.818 9621 98.0867
149.935 9876 99.3781
150.053 10281 101.395
150.17 10423 102.093
150.287 10427 102.113
150.405 10141 100.703
150.522 10281 101.395
150.64 10434 102.147
150.757 10783 103.841
150.875 10865 104.235
150.992 11111 105.409
151.11 11261 106.118
151.227 10830 104.067
151.344 10878 104.298
151.462 10834 104.087
151.579 10419 102.074
151.697 10521 102.572
151.814 10323 101.602
151.932 10241 101.198
152.049 10492 102.43
152.167 10236 101.173
152.284 10523 102.582
152.402 10168 100.837
152.519 10066 100.329
152.636 9675 98.3616
152.754 9712 98.5495
152.871 9486 97.3961
152.989 9319 96.535
153.106 9098 95.3834
153.223 8958 94.6467
153.341 9108 95.4358
153.458 9368 96.7884
153.575 9414 97.0258
153.693 9504 97.4885
153.81 9574 97.8468
153.927 9561 97.7804
154.044 9357 96.7316
154.162 9530 97.6217
154.279 9496 97.4474
154.396 10163 100.812
154.513 10438 102.167
154.63 10397 101.966
154.747 10432 102.137
154.864 10358 101.774
154.981 10113 100.563
155.098 9933 99.6644
155.215 9593 97.9439
155.332 9522 97.5807
155.449 9314 96.5091
155.566 9336 96.623
155.683 9269 96.2756
155.8 9191 95.8697
155.917 8983 94.7787
156.033 8823 93.9308
156.15 0 1
156.267 0 1
156.383 0 1
156.5 0 1
156.617 0 1
156.733 0 1
156.85 0 1
156.966 0 1
157.082 0 1
157.199 0 1
157.315 0 1
157.431 0 1
157.547 0 1
157.664 0 1
157.78 0 1
157.896 0 1
158.012 0 1
158.128 0 1
158.244 0 1
158.359 0 1
158.475 0 1
158.591 0 1
158.706 0 1
