
6.15755 0 1
6.2731 0 1
6.3887 0 1
6.50437 0 1
6.62009 0 1
6.73587 0 1
6.8517 0 1
6.96759 0 1
7.08353 0 1
7.19952 0 1
7.31557 0 1
7.43166 0 1
7.54781 0 1
7.664 0 1
7.78024 0 1
7.89653 0 1
8.01286 0 1
8.12924 0 1
8.24567 0 1
8.36213 0 1
8.47864 0 1
8.59519 0 1
8.71178 0 1
8.82841 0 1
8.94508 0 1
9.06179 0 1
9.17853 0 1
9.29531 0 1
9.41212 0 1
9.52897 0 1
9.64584 0 1
9.76276 0 1
9.8797 0 1
9.99667 0 1
10.1137 0 1
10.2307 0 1
10.3478 0 1
10.4648 0 1
10.5819 0 1
10.6991 0 1
10.8162 0 1
10.9334 0 1
11.0506 0 1
11.1678 0 1
11.285 0 1
11.4023 0 1
11.5196 0 1
11.6369 0 1
11.7542 0 1
11.8715 0 1
11.9888 0 1
12.1062 0 1
12.2235 0 1
12.3409 0 1
12.4582 0 1
12.5756 0 1
12.693 0 1
12.8104 0 1
12.9278 0 1
13.0452 0 1
13.1626 0 1
13.28 0 1
13.3974 0 1
13.5149 0 1
13.6323 0 1
13.7497 0 1
13.8671 0 1
13.9845 0 1
14.1019 0 1
14.2193 0 1
14.3367 0 1
14.4541 0 1
14.5714 0 1
14.6888 0 1
14.8062 0 1
14.9235 0 1
15.0408 7836 88.5212
15.1581 8315 91.1866
15.2755 8440 91.8695
15.3927 8267 90.923
15.51 8371 91.4932
15.6273 8481 92.0923
15.7445 8461 91.9837
15.8617 8073 89.8499
15.9789 8191 90.5041
16.0961 7955 89.1908
16.2132 8055 89.7497
16.3304 7934 89.073
16.4475 7983 89.3476
16.5646 8174 90.4102
16.6816 8301 91.1098
16.7986 8344 91.3455
16.9156 8285 91.022
17.0326 8181 90.4489
17.1496 8142 90.233
17.2665 7961 89.2244
17.3833 7987 89.37
17.5002 7633 87.367
17.617 7483 86.5043
17.7338 7633 87.367
17.8505 7925 89.0225
17.9672 8080 89.8888
18.0839 8174 90.4102
18.2005 8590 92.6823
18.3171 8797 93.7923
18.4337 9082 95.2995
18.5502 8986 94.7945
18.6666 9202 95.9271
18.7831 9173 95.7758
18.8994 9167 95.7445
19.0158 8619 92.8386
19.1321 8479 92.0815
19.2483 8324 91.236
19.3645 7989 89.3812
19.4806 7823 88.4477
19.5967 7496 86.5794
19.7128 7357 85.773
19.8288 7259 85.1998
19.9447 6423 80.1436
20.0606 0 1
20.1764 0 1
20.2922 0 1
20.4079 0 1
20.5236 0 1
20.6392 0 1
20.7548 0 1
20.8702 0 1
23.3078 0 1
23.4233 0 1
23.539 0 1
23.6547 0 1
23.7704 0 1
23.8862 0 1
24.0021 0 1
24.118 0 1
24.234 0 1
24.35 0 1
24.4661 7417 86.122
24.5822 7457 86.3539
24.6984 7336 85.6505
24.8146 7195 84.8233
24.9309 7379 85.9011
25.0472 7463 86.3887
25.1636 7702 87.761
25.28 8106 90.0333
25.3965 8286 91.0275
25.513 8277 90.978
25.6296 8351 91.3838
25.7462 8451 91.9293
25.8628 8688 93.2094
25.9795 8640 92.9516
26.0962 8156 90.3106
26.213 7847 88.5833
26.3298 7783 88.2213
26.4466 7630 87.3499
26.5635 7680 87.6356
26.6804 7907 88.9213
26.7973 8038 89.6549
26.9143 8065 89.8053
27.0313 8222 90.6752
27.1483 8528 92.3472
27.2653 8577 92.6121
27.3824 8506 92.228
27.4996 8565 92.5473
27.6167 8195 90.5262
27.7339 8412 91.717
27.8511 8207 90.5925
27.9683 8001 89.4483
28.0855 7880 88.7694
28.2028 7584 87.0862
28.3201 7274 85.2877
28.4374 7179 84.729
28.5547 7113 84.3386
28.6721 7252 85.1587
28.7894 7420 86.1394
28.9068 7746 88.0114
29.0242 7891 88.8313
29.1416 8022 89.5656
29.259 7760 88.0909
29.3764 7791 88.2666
29.4939 7652 87.4757
29.6113 7598 87.1665
29.7288 7344 85.6971
29.8463 7070 84.0833
29.9638 7329 85.6096
30.0812 6975 83.5165
30.1987 7278 85.3112
30.3162 7465 86.4002
30.4337 7689 87.6869
30.5512 7821 88.4364
30.6687 7905 88.9101
30.7862 8108 90.0444
30.9037 7956 89.1964
31.0212 8107 90.0389
31.1387 8231 90.7249
31.2562 8003 89.4595
31.3737 7899 88.8763
31.4912 7804 88.3403
31.6087 7556 86.9253
31.7262 7466 86.406
31.8436 7292 85.3932
31.9611 6879 82.9397
32.0785 6932 83.2586
32.1959 7095 84.2318
32.3134 7244 85.1117
32.4308 7440 86.2554
32.5482 7632 87.3613
32.6655 7713 87.8237
32.7829 7709 87.8009
32.9002 7652 87.4757
33.0176 7540 86.8332
33.1349 7688 87.6812
33.2522 7508 86.6487
33.3694 7216 84.947
33.4867 7048 83.9524
33.6039 6833 82.662
33.7211 6743 82.1158
33.8383 6760 82.2192
33.9554 7048 83.9524
34.0725 7215 84.9412
34.1896 7452 86.325
34.3067 7618 87.2812
34.4237 7622 87.3041
34.5407 7673 87.5957
34.6577 7871 88.7187
34.7746 7801 88.3233
34.8915 7654 87.4871
35.0084 7882 88.7806
35.1252 7679 87.6299
35.242 7327 85.5979
35.3587 7160 84.6168
35.4755 7070 84.0833
35.5921 6829 82.6378
35.7088 6628 81.4125
35.8254 6671 81.6762
35.9419 6722 81.9878
36.0584 6667 81.6517
36.1749 7093 84.22
36.2913 7230 85.0294
36.4077 7321 85.5628
36.524 7379 85.9011
36.6403 7234 85.0529
36.7565 7254 85.1704
36.8727 7319 85.5512
36.9889 7044 83.9285
37.1049 6901 83.0723
37.221 0 1
37.3369 0 1
37.4529 0 1
37.5687 0 1
37.6845 0 1
37.8003 0 1
37.916 0 1
38.0316 0 1
38.1472 0 1
40.5851 0 1
40.7008 0 1
40.8164 0 1
40.9322 0 1
41.048 0 1
41.1639 0 1
41.2798 0 1
41.3958 0 1
41.5118 0 1
41.6279 0 1
41.744 5652 75.1798
41.8602 5921 76.948
41.9765 6070 77.9102
42.0928 6292 79.3221
42.2091 6275 79.2149
42.3255 5977 77.3111
42.4419 5730 75.6968
42.5584 5605 74.8665
42.675 5403 73.5051
42.7915 5578 74.686
42.9081 5736 75.7364
43.0248 5823 76.3086
43.1415 5996 77.4338
43.2582 5955 77.1686
43.375 6068 77.8974
43.4918 6082 77.9872
43.6087 6149 78.4156
43.7256 5981 77.3369
43.8425 6020 77.5887
43.9595 5895 76.7789
44.0765 5859 76.5441
44.1935 5583 74.7195
44.3106 5418 73.6071
44.4277 5200 72.111
44.5448 5050 71.0634
44.6619 4700 68.5565
44.7791 4675 68.374
44.8963 4648 68.1762
45.0136 4688 68.469
45.1308 4807 69.3325
45.2481 4797 69.2604
45.3654 4851 69.6491
45.4827 4870 69.7854
45.6001 4888 69.9142
45.7174 4842 69.5845
45.8348 4743 68.8694
45.9522 4558 67.513
46.0697 4456 66.7533
46.1871 4172 64.591
46.3046 4147 64.3972
46.422 4207 64.8614
46.5395 4292 65.5134
46.657 4498 67.0671
46.7745 4558 67.513
46.892 4640 68.1175
47.0096 4456 66.7533
47.1271 4647 68.1689
47.2446 4636 68.0882
47.3622 4621 67.9779
47.4797 4527 67.283
47.5973 4297 65.5515
47.7149 4366 66.0757
47.8324 4228 65.0231
47.95 4068 63.7809
48.0675 4003 63.2693
48.1851 3753 61.2617
48.3027 3596 59.9667
48.4202 3710 60.9098
48.5378 3721 61
48.6554 3859 62.1208
48.7729 3994 63.1981
48.8904 4011 63.3325
49.008 4158 64.4826
49.1255 4303 65.5973
49.243 4154 64.4515
49.3605 4224 64.9923
49.478 4204 64.8383
49.5955 3994 63.1981
49.713 3852 62.0645
49.8304 3805 61.6847
49.9479 4053 63.6632
50.0653 4087 63.9296
50.1827 4337 65.8559
50.3001 4382 66.1967
50.4175 4613 67.9191
50.5348 4812 69.3686
50.6521 4975 70.5337
50.7694 4998 70.6965
50.8867 5082 71.2881
51.004 4945 70.3207
51.1212 5058 71.1196
51.2384 5092 71.3583
51.3556 5174 71.9305
51.4727 5015 70.8167
51.5899 5223 72.2703
51.707 4830 69.4982
51.824 4896 69.9714
51.9411 5053 71.0845
52.0581 5090 71.3442
52.175 5387 73.3962
52.2919 5652 75.1798
52.4088 5909 76.87
52.5257 5997 77.4403
52.6425 5903 76.831
52.7593 6196 78.7147
52.876 6377 79.8561
52.9927 6366 79.7872
53.1094 6302 79.3851
53.226 6087 78.0192
53.3426 6085 78.0064
53.4591 5789 76.0855
53.5756 5764 75.921
53.692 6195 78.7083
53.8084 6506 80.6598
53.9248 6711 81.9207
54.0411 7030 83.8451
54.1573 7055 83.994
54.2735 0 1
54.3896 0 1
54.5057 0 1
54.6217 0 1
54.7377 0 1
54.8537 0 1
54.9695 0 1
55.0853 0 1
55.2011 0 1
55.3168 0 1
55.4324 0 1
57.824 0 1
57.9396 0 1
58.0553 0 1
58.1711 0 1
58.2869 0 1
58.4028 0 1
58.5187 0 1
58.6347 0 1
58.7508 0 1
58.8669 0 1
58.983 7743 87.9943
59.0992 8436 91.8477
59.2155 8594 92.7038
59.3318 8812 93.8723
59.4482 8890 94.2868
59.5646 9035 95.0526
59.681 9018 94.9632
59.7975 8937 94.5357
59.9141 8811 93.8669
60.0306 8972 94.7206
60.1473 8636 92.9301
60.2639 8584 92.6499
60.3807 8181 90.4489
60.4974 7762 88.1022
60.6142 7568 86.9943
60.731 7441 86.2612
60.8479 7471 86.4349
60.9648 7652 87.4757
61.0818 8067 89.8165
61.1987 8115 90.0833
61.3158 8196 90.5318
61.4328 8521 92.3093
61.5499 8536 92.3905
61.667 8447 91.9076
61.7841 8115 90.0833
61.9013 7670 87.5785
62.0185 7520 86.7179
62.1357 7174 84.6995
62.253 7195 84.8233
62.3702 7317 85.5395
62.4875 7597 87.1608
62.6049 8000 89.4427
62.7222 7959 89.2132
62.8396 8385 91.5696
62.9569 8265 90.912
63.0743 8149 90.2718
63.1918 8130 90.1665
63.3092 8172 90.3991
63.4267 8086 89.9222
63.5441 8012 89.5098
63.6616 7740 87.9773
63.7791 7630 87.3499
63.8966 7547 86.8735
64.0142 7189 84.788
64.1317 6940 83.3067
64.2492 6735 82.067
64.3668 6749 82.1523
64.4843 7020 83.7854
64.6019 7361 85.7963
64.7195 7334 85.6388
64.837 7387 85.9477
64.9546 7538 86.8217
65.0722 7743 87.9943
65.1898 7526 86.7525
65.3074 7927 89.0337
65.4249 7406 86.0581
65.5425 7112 84.3327
65.6601 6983 83.5643
65.7777 6738 82.0853
65.8952 6727 82.0183
66.0128 6962 83.4386
66.1304 7306 85.4751
66.2479 7524 86.741
66.3655 7657 87.5043
66.483 7705 87.7781
66.6005 7994 89.4092
66.718 7833 88.5042
66.8355 8108 90.0444
66.953 7975 89.3029
67.0705 7936 89.0842
67.1879 7928 89.0393
67.3054 7902 88.8932
67.4228 7737 87.9602
67.5402 7617 87.2754
67.6576 7345 85.703
67.7749 6887 82.988
67.8923 6873 82.9036
68.0096 6982 83.5584
68.1269 7078 84.1309
68.2442 7548 86.8792
68.3614 7762 88.1022
68.4787 8053 89.7385
68.5958 7910 88.9382
68.713 8360 91.433
68.8302 8599 92.7308
68.9473 8429 91.8096
69.0643 8240 90.7744
69.1814 7959 89.2132
69.2984 7688 87.6812
69.4154 7419 86.1336
69.5323 7089 84.1962
69.6492 7369 85.8429
69.7661 7803 88.3346
69.8829 8089 89.9389
69.9997 8207 90.5925
70.1165 8622 92.8547
70.2332 8469 92.0272
70.3499 8603 92.7524
70.4665 8711 93.3327
70.5831 8826 93.9468
70.6996 8848 94.0638
70.8161 8650 93.0054
70.9326 8648 92.9946
71.049 8477 92.0706
71.1653 8474 92.0543
71.2817 8055 89.7497
71.3979 7643 87.4243
71.5141 6851 82.7708
71.6303 6757 82.201
71.7464 6558 80.9815
71.8624 0 1
71.9784 0 1
72.0944 0 1
72.2102 0 1
72.3261 0 1
72.4418 0 1
72.5575 0 1
72.6732 0 1
75.1054 0 1
75.2209 0 1
75.3365 0 1
75.4521 0 1
75.5678 0 1
75.6835 0 1
75.7993 0 1
75.9151 0 1
76.031 0 1
76.147 7683 87.6527
76.263 8357 91.4166
76.3791 8083 89.9055
76.4952 8166 90.3659
76.6113 7814 88.3968
76.7276 7307 85.481
76.8438 7228 85.0176
76.9601 7249 85.1411
77.0765 7602 87.1894
77.1929 7523 86.7352
77.3093 7968 89.2637
77.4258 8257 90.868
77.5423 8249 90.824
77.6589 8412 91.717
77.7755 8671 93.1182
77.8921 8737 93.4719
78.0088 8403 91.6679
78.1256 8371 91.4932
78.2423 7794 88.2836
78.3591 7243 85.1058
78.4759 6861 82.8312
78.5928 7111 84.3267
78.7097 7392 85.9767
78.8266 7791 88.2666
78.9436 8214 90.6311
79.0606 8422 91.7715
79.1776 8542 92.4229
79.2946 8556 92.4986
79.4117 8575 92.6013
79.5288 8502 92.2063
79.6459 8478 92.0761
79.7631 8328 91.2579
79.8802 8648 92.9946
79.9974 8446 91.9021
80.1147 8396 91.6297
80.2319 8147 90.2607
80.3491 7579 87.0575
80.4664 7147 84.5399
80.5837 7228 85.0176
80.701 7380 85.9069
80.8183 7459 86.3655
80.9357 7886 88.8032
81.053 8113 90.0722
81.1704 8318 91.2031
81.2877 8377 91.526
81.4051 8665 93.086
81.5225 9149 95.6504
81.6399 8714 93.3488
81.7573 8577 92.6121
81.8747 7772 88.1589
81.9922 7284 85.3464
82.1096 6905 83.0963
82.227 6893 83.0241
82.3444 7431 86.2032
82.4619 7752 88.0454
82.5793 8359 91.4276
82.6967 8157 90.3161
82.8142 8433 91.8314
82.9316 8796 93.787
83.049 8713 93.3435
83.1664 8846 94.0532
83.2838 8502 92.2063
83.4012 8642 92.9624
83.5186 8726 93.4131
83.636 8579 92.6229
83.7534 8367 91.4713
83.8708 8077 89.8721
83.9881 7545 86.862
84.1055 7390 85.9651
84.2228 7288 85.3698
84.3401 7397 86.0058
84.4575 7615 87.264
84.5747 7860 88.6566
84.692 8566 92.5527
84.8093 8558 92.5095
84.9265 9004 94.8894
85.0437 9091 95.3467
85.1609 9112 95.4568
85.2781 8826 93.9468
85.3952 8250 90.8295
85.5123 7761 88.0965
85.6294 7433 86.2148
85.7465 7237 85.0706
85.8636 7565 86.977
85.9806 7888 88.8144
86.0976 8542 92.4229
86.2145 8605 92.7631
86.3315 8788 93.7443
86.4484 9056 95.163
86.5652 9029 95.0211
86.682 9332 96.6023
86.7988 9262 96.2393
86.9156 9401 96.9588
87.0323 9307 96.4728
87.149 9268 96.2705
87.2657 9308 96.478
87.3823 9003 94.8841
87.4988 8802 93.819
87.6154 7901 88.8876
87.7318 7898 88.8707
87.8483 7770 88.1476
87.9647 8164 90.3549
88.081 8338 91.3126
88.1973 8602 92.747
88.3136 9094 95.3625
88.4298 9145 95.6295
88.546 9287 96.3691
88.6621 9515 97.5449
88.7781 9267 96.2653
88.8942 0 1
89.0101 0 1
89.126 0 1
89.2419 0 1
89.3577 0 1
89.4734 0 1
89.5891 0 1
89.7047 0 1
89.8203 0 1
89.9358 0 1
92.3269 0 1
92.4424 0 1
92.558 0 1
92.6736 0 1
92.7893 0 1
92.905 0 1
93.0208 0 1
93.1366 0 1
93.2525 0 1
93.3685 0 1
93.4845 0 1
93.6005 8336 91.3017
93.7167 8747 93.5254
93.8328 8889 94.2815
93.949 9148 95.6452
94.0653 8948 94.5939
94.1816 8864 94.1488
94.2979 8216 90.6422
94.4143 7918 88.9831
94.5307 7461 86.3771
94.6472 7351 85.738
94.7637 7266 85.2408
94.8803 7491 86.5506
94.9969 8095 89.9722
95.1135 8315 91.1866
95.2302 8549 92.4608
95.3469 8618 92.8332
95.4637 8815 93.8882
95.5805 8905 94.3663
95.6973 8973 94.7259
95.8142 9297 96.421
95.9311 8966 94.689
96.048 9091 95.3467
96.1649 8877 94.2178
96.2819 8838 94.0106
96.3989 8744 93.5094
96.516 8101 90.0056
96.633 7853 88.6172
96.7501 7612 87.2468
96.8673 7500 86.6025
96.9844 7658 87.51
97.1016 7786 88.2383
97.2188 7842 88.5551
97.336 8294 91.0714
97.4532 8653 93.0215
97.5704 8693 93.2363
97.6877 8765 93.6216
97.805 8939 94.5463
97.9223 8655 93.0323
98.0396 8314 91.1811
98.1569 7790 88.261
98.2743 7414 86.1046
98.3916 7035 83.8749
98.509 7192 84.8057
98.6264 7514 86.6833
98.7438 7965 89.2468
98.8612 8240 90.7744
98.9786 8403 91.6679
99.096 8467 92.0163
99.2134 8501 92.2009
99.3308 8558 92.5095
99.4482 8634 92.9193
99.5656 8465 92.0054
99.6831 8465 92.0054
99.8005 8368 91.4768
99.9179 8527 92.3418
100.035 8266 90.9175
100.153 8045 89.6939
100.27 7476 86.4639
100.388 7274 85.2877
100.505 7154 84.5813
100.622 7559 86.9425
100.74 7551 86.8965
100.857 7822 88.4421
100.975 8149 90.2718
101.092 8487 92.1249
101.209 8483 92.1032
101.327 8761 93.6002
101.444 8634 92.9193
101.561 8631 92.9032
101.679 8156 90.3106
101.796 7699 87.7439
101.913 7313 85.5161
102.03 7066 84.0595
102.148 7467 86.4118
102.265 7217 84.9529
102.382 8820 93.9149
102.499 8602 92.747
102.616 8866 94.1594
102.733 8910 94.3928
102.851 8991 94.8209
102.968 9109 95.4411
103.085 9045 95.1052
103.202 9009 94.9158
103.319 8954 94.6256
103.436 8926 94.4775
103.552 8997 94.8525
103.669 8574 92.5959
103.786 8349 91.3729
103.903 8061 89.7831
104.02 7853 88.6172
104.137 7973 89.2917
104.253 8305 91.1318
104.37 8391 91.6024
104.487 8750 93.5414
104.603 9077 95.2733
104.72 9200 95.9166
104.836 9487 97.4012
104.953 9392 96.9123
105.069 9189 95.8593
105.186 8614 92.8116
105.302 8033 89.627
105.418 7604 87.2009
105.535 7762 88.1022
105.651 8070 89.8332
105.767 8432 91.8259
105.883 8634 92.9193
105.999 8866 94.1594
106.115 0 1
106.231 0 1
106.347 0 1
106.463 0 1
106.579 0 1
106.694 0 1
106.81 0 1
106.926 0 1
107.041 0 1
107.157 0 1
109.576 0 1
109.692 0 1
109.807 0 1
109.923 0 1
110.039 0 1
110.155 0 1
110.27 0 1
110.386 0 1
110.502 0 1
110.618 6630 81.4248
110.735 7061 84.0298
110.851 7524 86.741
110.967 7889 88.82
111.083 7996 89.4204
111.199 8033 89.627
111.316 8258 90.8735
111.432 8406 91.6842
111.549 8237 90.7579
111.665 8363 91.4494
111.782 8255 90.857
111.898 8029 89.6047
112.015 8081 89.8944
112.132 7909 88.9326
112.248 7558 86.9368
112.365 7351 85.738
112.482 6996 83.6421
112.599 6650 81.5475
112.716 6634 81.4494
112.832 7015 83.7556
112.949 7089 84.1962
113.066 7424 86.1626
113.183 7410 86.0814
113.3 7488 86.5332
113.417 7679 87.6299
113.534 7753 88.0511
113.652 7484 86.5101
113.769 6965 83.4566
113.886 6543 80.8888
114.003 6253 79.0759
114.12 5983 77.3499
114.238 6229 78.924
114.355 6535 80.8393
114.472 6734 82.061
114.589 6852 82.7768
114.707 7160 84.6168
114.824 7158 84.605
114.942 7048 83.9524
115.059 6884 82.9699
115.176 6998 83.654
115.294 6937 83.2887
115.411 6719 81.9695
115.529 6418 80.1124
115.646 6360 79.7496
115.764 6255 79.0886
115.881 5903 76.831
115.999 5528 74.3505
116.116 5489 74.0878
116.234 5542 74.4446
116.351 5609 74.8933
116.469 5510 74.2294
116.586 5898 76.7984
116.704 5732 75.71
116.821 5940 77.0714
116.939 6214 78.8289
117.056 6162 78.4984
117.174 6150 78.4219
117.291 5969 77.2593
117.409 5572 74.6458
117.526 5206 72.1526
117.644 5128 71.6101
117.761 5040 70.993
117.879 5501 74.1687
117.996 5570 74.6324
118.114 5722 75.6439
118.231 5998 77.4468
118.349 5900 76.8115
118.466 6108 78.1537
118.584 6106 78.1409
118.701 6167 78.5302
118.819 5973 77.2852
118.936 6048 77.7689
119.053 5914 76.9025
119.171 6017 77.5693
119.288 5968 77.2528
119.405 5672 75.3127
119.523 5452 73.8377
119.64 5534 74.3909
119.757 5303 72.8217
119.875 5496 74.135
119.992 5621 74.9733
120.109 5724 75.6571
120.226 5958 77.1881
120.343 6097 78.0833
120.46 6212 78.8162
120.578 6391 79.9437
120.695 6502 80.635
120.812 6627 81.4064
120.929 6548 80.9197
121.046 6320 79.4984
121.163 5967 77.2464
121.279 5673 75.3193
121.396 5471 73.9662
121.513 5756 75.8683
121.63 6274 79.2086
121.747 6561 81
121.863 6759 82.2131
121.98 6956 83.4026
122.097 7185 84.7644
122.213 7172 84.6877
122.33 7232 85.0412
122.446 7238 85.0764
122.563 7012 83.7377
122.679 7305 85.4693
122.795 7119 84.3742
122.912 7166 84.6522
123.028 6831 82.6499
123.144 6809 82.5167
123.26 6422 80.1374
123.377 0 1
123.493 0 1
123.609 0 1
123.725 0 1
123.84 0 1
123.956 0 1
124.072 0 1
124.188 0 1
124.303 0 1
124.419 0 1
126.852 0 1
126.968 0 1
127.083 0 1
127.199 0 1
127.315 0 1
127.431 0 1
127.547 0 1
127.663 0 1
127.779 0 1
127.895 0 1
128.011 0 1
128.127 0 1
128.243 0 1
128.359 8333 91.2853
128.476 8160 90.3327
128.592 7664 87.5443
128.708 7504 86.6256
128.825 7340 85.6738
128.941 7566 86.9828
129.058 7548 86.8792
129.174 7662 87.5329
129.291 8139 90.2164
129.408 8106 90.0333
129.524 8235 90.7469
129.641 8332 91.2798
129.758 8481 92.0923
129.875 8486 92.1195
129.992 8181 90.4489
130.108 7933 89.0674
130.225 7518 86.7064
130.342 7066 84.0595
130.459 6851 82.7708
130.576 7055 83.994
130.693 7574 87.0287
130.81 7767 88.1306
130.928 7783 88.2213
131.045 8234 90.7414
131.162 8226 90.6973
131.279 8367 91.4713
131.396 8243 90.791
131.513 8149 90.2718
131.631 8048 89.7106
131.748 7978 89.3197
131.865 7821 88.4364
131.983 7749 88.0284
132.1 7345 85.703
132.217 7197 84.8351
132.335 7111 84.3267
132.452 6942 83.3187
132.57 7164 84.6404
132.687 7152 84.5695
132.804 7847 88.5833
132.922 7673 87.5957
133.039 7824 88.4534
133.157 7864 88.6792
133.274 8050 89.7218
133.392 8055 89.7497
133.509 8022 89.5656
133.627 7578 87.0517
133.744 7131 84.4452
133.862 6755 82.1888
133.979 6493 80.5792
134.097 6719 81.9695
134.214 7133 84.4571
134.332 7215 84.9412
134.449 7534 86.7986
134.567 7655 87.4929
134.684 7657 87.5043
134.802 7673 87.5957
134.919 7861 88.6623
135.037 7661 87.5271
135.154 7379 85.9011
135.272 7220 84.9706
135.389 7025 83.8153
135.507 7027 83.8272
135.624 6726 82.0122
135.742 6578 81.1049
135.859 6268 79.1707
135.977 6160 78.4857
136.094 6098 78.0897
136.211 6309 79.4292
136.329 6370 79.8123
136.446 6375 79.8436
136.564 6621 81.3695
136.681 6502 80.635
136.798 6672 81.6823
136.915 6803 82.4803
137.033 6740 82.0975
137.15 6498 80.6102
137.267 6135 78.3262
137.384 5831 76.361
137.502 5727 75.6769
137.619 5630 75.0333
137.736 5891 76.7529
137.853 6094 78.0641
137.97 6389 79.9312
138.087 6544 80.895
138.204 6881 82.9518
138.321 7081 84.1487
138.438 7111 84.3267
138.555 7207 84.8941
138.672 7212 84.9235
138.788 7363 85.8079
138.905 7225 85
139.022 7197 84.8351
139.139 7140 84.4985
139.255 7103 84.2793
139.372 6727 82.0183
139.488 6597 81.2219
139.605 6602 81.2527
139.721 6762 82.2314
139.838 7092 84.214
139.954 7423 86.1568
140.071 7282 85.3346
140.187 7804 88.3403
140.303 7801 88.3233
140.419 7877 88.7525
140.535 8076 89.8666
140.652 8013 89.5154
140.768 0 1
140.884 0 1
141 0 1
141.115 0 1
141.231 0 1
141.347 0 1
141.463 0 1
141.578 0 1
141.694 0 1
144.104 0 1
144.219 0 1
144.335 0 1
144.45 0 1
144.566 0 1
144.682 0 1
144.798 0 1
144.914 0 1
145.03 0 1
145.146 10368 101.823
145.262 11624 107.815
145.378 12279 110.811
145.494 13269 115.191
145.61 13948 118.102
145.726 14527 120.528
145.842 14932 122.197
145.959 14666 121.103
146.075 14833 121.791
146.192 14449 120.204
146.308 14377 119.904
146.425 14921 122.152
146.541 16124 126.98
146.658 17690 133.004
146.774 19128 138.304
146.891 20589 143.489
147.008 21419 146.352
147.125 22416 149.72
147.241 23395 152.954
147.358 23842 154.409
147.475 24667 157.057
147.592 24319 155.946
147.709 24246 155.711
147.826 24265 155.772
147.943 23901 154.599
148.06 23378 152.899
148.177 23091 151.957
148.294 22950 151.493
148.411 23004 151.671
148.528 23588 153.584
148.645 24120 155.306
148.762 24685 157.115
148.88 25468 159.587
148.997 26929 164.101
149.114 24617 156.898
149.231 25930 161.028
149.349 25409 159.402
149.466 25225 158.824
149.583 23759 154.14
149.701 22363 149.543
149.818 21268 145.836
149.935 20532 143.29
150.053 20386 142.78
150.17 21221 145.674
150.287 22042 148.465
150.405 23213 152.358
150.522 23808 154.298
150.64 24298 155.878
150.757 24722 157.232
150.875 25080 158.367
150.992 24916 157.848
151.11 25477 159.615
151.227 25035 158.225
151.344 24585 156.796
151.462 24151 155.406
151.579 23800 154.272
151.697 23446 153.121
151.814 23110 152.02
151.932 22709 150.695
152.049 23220 152.381
152.167 23632 153.727
152.284 24338 156.006
152.402 25446 159.518
152.519 26546 162.929
152.636 26732 163.499
152.754 27771 166.646
152.871 27187 164.885
152.989 27399 165.526
153.106 26642 163.224
153.223 25219 158.805
153.341 24036 155.035
153.458 22928 151.42
153.575 22464 149.88
153.693 23013 151.7
153.81 23929 154.69
153.927 25236 158.858
154.044 26487 162.748
154.162 27212 164.961
154.279 27657 166.304
154.396 29010 170.323
154.513 29413 171.502
154.63 29907 172.936
154.747 30028 173.286
154.864 29917 172.965
154.981 28887 169.962
155.098 29069 170.496
155.215 28770 169.617
155.332 28296 168.214
155.449 27694 166.415
155.566 28142 167.756
155.683 28227 168.009
155.8 29080 170.529
155.917 30129 173.577
156.033 31060 176.238
156.15 0 1
156.267 0 1
156.383 0 1
156.5 0 1
156.617 0 1
156.733 0 1
156.85 0 1
156.966 0 1
157.082 0 1
157.199 0 1
157.315 0 1
157.431 0 1
157.547 0 1
157.664 0 1
157.78 0 1
157.896 0 1
158.012 0 1
158.128 0 1
158.244 0 1
158.359 0 1
158.475 0 1
158.591 0 1
158.706 0 1
