
6.15755 0 1
6.2731 0 1
6.3887 0 1
6.50437 0 1
6.62009 0 1
6.73587 0 1
6.8517 0 1
6.96759 0 1
7.08353 0 1
7.19952 0 1
7.31557 0 1
7.43166 0 1
7.54781 0 1
7.664 0 1
7.78024 0 1
7.89653 0 1
8.01286 0 1
8.12924 0 1
8.24567 0 1
8.36213 0 1
8.47864 0 1
8.59519 0 1
8.71178 0 1
8.82841 0 1
8.94508 0 1
9.06179 0 1
9.17853 0 1
9.29531 0 1
9.41212 0 1
9.52897 0 1
9.64584 0 1
9.76276 0 1
9.8797 0 1
9.99667 0 1
10.1137 0 1
10.2307 0 1
10.3478 0 1
10.4648 0 1
10.5819 0 1
10.6991 0 1
10.8162 0 1
10.9334 0 1
11.0506 0 1
11.1678 0 1
11.285 0 1
11.4023 0 1
11.5196 0 1
11.6369 0 1
11.7542 0 1
11.8715 0 1
11.9888 0 1
12.1062 0 1
12.2235 0 1
12.3409 0 1
12.4582 0 1
12.5756 0 1
12.693 0 1
12.8104 0 1
12.9278 0 1
13.0452 0 1
13.1626 0 1
13.28 0 1
13.3974 0 1
13.5149 0 1
13.6323 0 1
13.7497 0 1
13.8671 0 1
13.9845 0 1
14.1019 0 1
14.2193 0 1
14.3367 0 1
14.4541 0 1
14.5714 0 1
14.6888 0 1
14.8062 0 1
14.9235 0 1
15.0408 1115 33.3916
15.1581 1100 33.1662
15.2755 1074 32.7719
15.3927 1127 33.5708
15.51 1100 33.1662
15.6273 1079 32.8481
15.7445 1045 32.3265
15.8617 1009 31.7648
15.9789 1007 31.7333
16.0961 962 31.0161
16.2132 1011 31.7962
16.3304 1014 31.8434
16.4475 990 31.4643
16.5646 970 31.1448
16.6816 971 31.1609
16.7986 986 31.4006
16.9156 958 30.9516
17.0326 872 29.5296
17.1496 922 30.3645
17.2665 888 29.7993
17.3833 941 30.6757
17.5002 928 30.4631
17.617 950 30.8221
17.7338 964 31.0483
17.8505 928 30.4631
17.9672 896 29.9333
18.0839 947 30.7734
18.2005 929 30.4795
18.3171 950 30.8221
18.4337 1006 31.7175
18.5502 935 30.5778
18.6666 968 31.1127
18.7831 941 30.6757
18.8994 916 30.2655
19.0158 836 28.9137
19.1321 859 29.3087
19.2483 782 27.9643
19.3645 733 27.074
19.4806 753 27.4408
19.5967 692 26.3059
19.7128 726 26.9444
19.8288 718 26.7955
19.9447 697 26.4008
20.0606 0 1
20.1764 0 1
20.2922 0 1
20.4079 0 1
20.5236 0 1
20.6392 0 1
20.7548 0 1
20.8702 0 1
23.3078 0 1
23.4233 0 1
23.539 0 1
23.6547 0 1
23.7704 0 1
23.8862 0 1
24.0021 0 1
24.118 0 1
24.234 0 1
24.35 0 1
24.4661 401 20.025
24.5822 412 20.2978
24.6984 529 23
24.8146 551 23.4734
24.9309 619 24.8797
25.0472 687 26.2107
25.1636 803 28.3373
25.28 857 29.2746
25.3965 945 30.7409
25.513 981 31.3209
25.6296 1022 31.9687
25.7462 1003 31.6702
25.8628 1050 32.4037
25.9795 1020 31.9374
26.0962 1020 31.9374
26.213 923 30.3809
26.3298 968 31.1127
26.4466 895 29.9166
26.5635 862 29.3598
26.6804 821 28.6531
26.7973 855 29.2404
26.9143 809 28.4429
27.0313 874 29.5635
27.1483 865 29.4109
27.2653 886 29.7658
27.3824 847 29.1033
27.4996 913 30.2159
27.6167 823 28.688
27.7339 827 28.7576
27.8511 842 29.0172
27.9683 804 28.3549
28.0855 837 28.931
28.2028 828 28.775
28.3201 833 28.8617
28.4374 866 29.4279
28.5547 900 30
28.6721 879 29.6479
28.7894 913 30.2159
28.9068 938 30.6268
29.0242 864 29.3939
29.1416 889 29.8161
29.259 920 30.3315
29.3764 906 30.0998
29.4939 836 28.9137
29.6113 853 29.2062
29.7288 892 29.8664
29.8463 882 29.6985
29.9638 854 29.2233
30.0812 844 29.0517
30.1987 824 28.7054
30.3162 827 28.7576
30.4337 812 28.4956
30.5512 909 30.1496
30.6687 920 30.3315
30.7862 885 29.7489
30.9037 908 30.133
31.0212 849 29.1376
31.1387 892 29.8664
31.2562 906 30.0998
31.3737 910 30.1662
31.4912 858 29.2916
31.6087 809 28.4429
31.7262 828 28.775
31.8436 820 28.6356
31.9611 801 28.3019
32.0785 849 29.1376
32.1959 816 28.5657
32.3134 876 29.5973
32.4308 889 29.8161
32.5482 849 29.1376
32.6655 773 27.8029
32.7829 773 27.8029
32.9002 777 27.8747
33.0176 799 28.2666
33.1349 780 27.9285
33.2522 777 27.8747
33.3694 803 28.3373
33.4867 764 27.6405
33.6039 779 27.9106
33.7211 748 27.3496
33.8383 788 28.0713
33.9554 755 27.4773
34.0725 827 28.7576
34.1896 808 28.4253
34.3067 854 29.2233
34.4237 889 29.8161
34.5407 783 27.9821
34.6577 833 28.8617
34.7746 800 28.2843
34.8915 886 29.7658
35.0084 720 26.8328
35.1252 800 28.2843
35.242 735 27.1109
35.3587 696 26.3818
35.4755 748 27.3496
35.5921 700 26.4575
35.7088 783 27.9821
35.8254 740 27.2029
35.9419 726 26.9444
36.0584 727 26.9629
36.1749 741 27.2213
36.2913 762 27.6043
36.4077 684 26.1534
36.524 710 26.6458
36.6403 671 25.9037
36.7565 635 25.1992
36.8727 582 24.1247
36.9889 560 23.6643
37.1049 507 22.5167
37.221 0 1
37.3369 0 1
37.4529 0 1
37.5687 0 1
37.6845 0 1
37.8003 0 1
37.916 0 1
38.0316 0 1
38.1472 0 1
40.5851 0 1
40.7008 0 1
40.8164 0 1
40.9322 0 1
41.048 0 1
41.1639 0 1
41.2798 0 1
41.3958 0 1
41.5118 0 1
41.6279 0 1
41.744 348 18.6548
41.8602 352 18.7617
41.9765 379 19.4679
42.0928 430 20.7364
42.2091 542 23.2809
42.3255 520 22.8035
42.4419 584 24.1661
42.5584 568 23.8328
42.675 570 23.8747
42.7915 625 25
42.9081 633 25.1595
43.0248 588 24.2487
43.1415 603 24.5561
43.2582 605 24.5967
43.375 631 25.1197
43.4918 559 23.6432
43.6087 605 24.5967
43.7256 563 23.7276
43.8425 562 23.7065
43.9595 567 23.8118
44.0765 534 23.1084
44.1935 564 23.7487
44.3106 618 24.8596
44.4277 557 23.6008
44.5448 512 22.6274
44.6619 514 22.6716
44.7791 584 24.1661
44.8963 563 23.7276
45.0136 577 24.0208
45.1308 616 24.8193
45.2481 595 24.3926
45.3654 601 24.5153
45.4827 604 24.5764
45.6001 583 24.1454
45.7174 651 25.5147
45.8348 608 24.6577
45.9522 631 25.1197
46.0697 615 24.7992
46.1871 589 24.2693
46.3046 533 23.0868
46.422 559 23.6432
46.5395 548 23.4094
46.657 583 24.1454
46.7745 577 24.0208
46.892 591 24.3105
47.0096 579 24.0624
47.1271 566 23.7908
47.2446 572 23.9165
47.3622 578 24.0416
47.4797 505 22.4722
47.5973 555 23.5584
47.7149 570 23.8747
47.8324 570 23.8747
47.95 517 22.7376
48.0675 478 21.8632
48.1851 550 23.4521
48.3027 540 23.2379
48.4202 479 21.8861
48.5378 526 22.9347
48.6554 566 23.7908
48.7729 590 24.2899
48.8904 588 24.2487
49.008 589 24.2693
49.1255 609 24.6779
49.243 627 25.04
49.3605 556 23.5797
49.478 566 23.7908
49.5955 555 23.5584
49.713 556 23.5797
49.8304 579 24.0624
49.9479 541 23.2594
50.0653 531 23.0434
50.1827 509 22.561
50.3001 496 22.2711
50.4175 482 21.9545
50.5348 550 23.4521
50.6521 535 23.1301
50.7694 566 23.7908
50.8867 532 23.0651
51.004 517 22.7376
51.1212 548 23.4094
51.2384 556 23.5797
51.3556 554 23.5372
51.4727 508 22.5389
51.5899 490 22.1359
51.707 507 22.5167
51.824 461 21.4709
51.9411 540 23.2379
52.0581 528 22.9783
52.175 562 23.7065
52.2919 552 23.4947
52.4088 554 23.5372
52.5257 558 23.622
52.6425 551 23.4734
52.7593 540 23.2379
52.876 521 22.8254
52.9927 595 24.3926
53.1094 557 23.6008
53.226 532 23.0651
53.3426 490 22.1359
53.4591 490 22.1359
53.5756 500 22.3607
53.692 526 22.9347
53.8084 449 21.1896
53.9248 401 20.025
54.0411 356 18.868
54.1573 367 19.1572
54.2735 0 1
54.3896 0 1
54.5057 0 1
54.6217 0 1
54.7377 0 1
54.8537 0 1
54.9695 0 1
55.0853 0 1
55.2011 0 1
55.3168 0 1
55.4324 0 1
57.824 0 1
57.9396 0 1
58.0553 0 1
58.1711 0 1
58.2869 0 1
58.4028 0 1
58.5187 0 1
58.6347 0 1
58.7508 0 1
58.8669 0 1
58.983 402 20.0499
59.0992 438 20.9284
59.2155 514 22.6716
59.3318 602 24.5357
59.4482 621 24.9199
59.5646 687 26.2107
59.681 687 26.2107
59.7975 752 27.4226
59.9141 812 28.4956
60.0306 751 27.4044
60.1473 829 28.7924
60.2639 809 28.4429
60.3807 745 27.2947
60.4974 783 27.9821
60.6142 790 28.1069
60.731 770 27.7489
60.8479 809 28.4429
60.9648 791 28.1247
61.0818 846 29.0861
61.1987 808 28.4253
61.3158 851 29.1719
61.4328 824 28.7054
61.5499 806 28.3901
61.667 741 27.2213
61.7841 754 27.4591
61.9013 750 27.3861
62.0185 708 26.6083
62.1357 682 26.1151
62.253 702 26.4953
62.3702 629 25.0799
62.4875 640 25.2982
62.6049 647 25.4362
62.7222 657 25.632
62.8396 648 25.4558
62.9569 685 26.1725
63.0743 675 25.9808
63.1918 622 24.9399
63.3092 643 25.3574
63.4267 633 25.1595
63.5441 651 25.5147
63.6616 607 24.6374
63.7791 629 25.0799
63.8966 626 25.02
64.0142 574 23.9583
64.1317 575 23.9792
64.2492 566 23.7908
64.3668 609 24.6779
64.4843 619 24.8797
64.6019 649 25.4755
64.7195 622 24.9399
64.837 619 24.8797
64.9546 603 24.5561
65.0722 610 24.6982
65.1898 662 25.7294
65.3074 631 25.1197
65.4249 620 24.8998
65.5425 621 24.9199
65.6601 647 25.4362
65.7777 612 24.7386
65.8952 601 24.5153
66.0128 545 23.3452
66.1304 598 24.454
66.2479 636 25.219
66.3655 543 23.3024
66.483 619 24.8797
66.6005 607 24.6374
66.718 596 24.4131
66.8355 589 24.2693
66.953 576 24
67.0705 607 24.6374
67.1879 633 25.1595
67.3054 609 24.6779
67.4228 590 24.2899
67.5402 550 23.4521
67.6576 533 23.0868
67.7749 540 23.2379
67.8923 543 23.3024
68.0096 612 24.7386
68.1269 598 24.454
68.2442 560 23.6643
68.3614 589 24.2693
68.4787 591 24.3105
68.5958 564 23.7487
68.713 630 25.0998
68.8302 639 25.2784
68.9473 551 23.4734
69.0643 630 25.0998
69.1814 647 25.4362
69.2984 602 24.5357
69.4154 615 24.7992
69.5323 565 23.7697
69.6492 531 23.0434
69.7661 557 23.6008
69.8829 603 24.5561
69.9997 601 24.5153
70.1165 579 24.0624
70.2332 605 24.5967
70.3499 585 24.1868
70.4665 545 23.3452
70.5831 550 23.4521
70.6996 487 22.0681
70.8161 448 21.166
70.9326 444 21.0713
71.049 409 20.2237
71.1653 353 18.7883
71.2817 292 17.088
71.3979 272 16.4924
71.5141 241 15.5242
71.6303 235 15.3297
71.7464 200 14.1421
71.8624 0 1
71.9784 0 1
72.0944 0 1
72.2102 0 1
72.3261 0 1
72.4418 0 1
72.5575 0 1
72.6732 0 1
75.1054 0 1
75.2209 0 1
75.3365 0 1
75.4521 0 1
75.5678 0 1
75.6835 0 1
75.7993 0 1
75.9151 0 1
76.031 0 1
76.147 370 19.2354
76.263 409 20.2237
76.3791 447 21.1424
76.4952 488 22.0907
76.6113 467 21.6102
76.7276 420 20.4939
76.8438 437 20.9045
76.9601 444 21.0713
77.0765 471 21.7025
77.1929 510 22.5832
77.3093 513 22.6495
77.4258 546 23.3666
77.5423 473 21.7486
77.6589 490 22.1359
77.7755 512 22.6274
77.8921 522 22.8473
78.0088 545 23.3452
78.1256 551 23.4734
78.2423 533 23.0868
78.3591 513 22.6495
78.4759 518 22.7596
78.5928 484 22
78.7097 415 20.3715
78.8266 466 21.587
78.9436 484 22
79.0606 506 22.4944
79.1776 492 22.1811
79.2946 537 23.1733
79.4117 510 22.5832
79.5288 517 22.7376
79.6459 559 23.6432
79.7631 514 22.6716
79.8802 536 23.1517
79.9974 539 23.2164
80.1147 494 22.2261
80.2319 454 21.3073
80.3491 493 22.2036
80.4664 426 20.6398
80.5837 496 22.2711
80.701 498 22.3159
80.8183 489 22.1133
80.9357 489 22.1133
81.053 499 22.3383
81.1704 528 22.9783
81.2877 593 24.3516
81.4051 568 23.8328
81.5225 592 24.3311
81.6399 554 23.5372
81.7573 594 24.3721
81.8747 545 23.3452
81.9922 537 23.1733
82.1096 546 23.3666
82.227 488 22.0907
82.3444 435 20.8567
82.4619 482 21.9545
82.5793 489 22.1133
82.6967 534 23.1084
82.8142 532 23.0651
82.9316 555 23.5584
83.049 563 23.7276
83.1664 524 22.891
83.2838 587 24.2281
83.4012 538 23.1948
83.5186 530 23.0217
83.636 589 24.2693
83.7534 516 22.7156
83.8708 500 22.3607
83.9881 447 21.1424
84.1055 483 21.9773
84.2228 472 21.7256
84.3401 449 21.1896
84.4575 518 22.7596
84.5747 519 22.7816
84.692 514 22.6716
84.8093 583 24.1454
84.9265 538 23.1948
85.0437 558 23.622
85.1609 548 23.4094
85.2781 566 23.7908
85.3952 558 23.622
85.5123 583 24.1454
85.6294 571 23.8956
85.7465 533 23.0868
85.8636 458 21.4009
85.9806 508 22.5389
86.0976 485 22.0227
86.2145 527 22.9565
86.3315 531 23.0434
86.4484 527 22.9565
86.5652 528 22.9783
86.682 542 23.2809
86.7988 611 24.7184
86.9156 560 23.6643
87.0323 595 24.3926
87.149 534 23.1084
87.2657 538 23.1948
87.3823 506 22.4944
87.4988 503 22.4277
87.6154 462 21.4942
87.7318 465 21.5639
87.8483 463 21.5174
87.9647 392 19.799
88.081 398 19.9499
88.1973 398 19.9499
88.3136 375 19.3649
88.4298 381 19.5192
88.546 333 18.2483
88.6621 330 18.1659
88.7781 296 17.2047
88.8942 0 1
89.0101 0 1
89.126 0 1
89.2419 0 1
89.3577 0 1
89.4734 0 1
89.5891 0 1
89.7047 0 1
89.8203 0 1
89.9358 0 1
92.3269 0 1
92.4424 0 1
92.558 0 1
92.6736 0 1
92.7893 0 1
92.905 0 1
93.0208 0 1
93.1366 0 1
93.2525 0 1
93.3685 0 1
93.4845 0 1
93.6005 397 19.9249
93.7167 446 21.1187
93.8328 465 21.5639
93.949 508 22.5389
94.0653 505 22.4722
94.1816 548 23.4094
94.2979 568 23.8328
94.4143 593 24.3516
94.5307 579 24.0624
94.6472 613 24.7588
94.7637 555 23.5584
94.8803 544 23.3238
94.9969 513 22.6495
95.1135 514 22.6716
95.2302 474 21.7715
95.3469 523 22.8692
95.4637 494 22.2261
95.5805 543 23.3024
95.6973 625 25
95.8142 566 23.7908
95.9311 569 23.8537
96.048 582 24.1247
96.1649 595 24.3926
96.2819 566 23.7908
96.3989 541 23.2594
96.516 490 22.1359
96.633 551 23.4734
96.7501 524 22.891
96.8673 477 21.8403
96.9844 515 22.6936
97.1016 544 23.3238
97.2188 559 23.6432
97.336 557 23.6008
97.4532 560 23.6643
97.5704 585 24.1868
97.6877 562 23.7065
97.805 609 24.6779
97.9223 588 24.2487
98.0396 618 24.8596
98.1569 618 24.8596
98.2743 588 24.2487
98.3916 587 24.2281
98.509 573 23.9374
98.6264 546 23.3666
98.7438 569 23.8537
98.8612 530 23.0217
98.9786 577 24.0208
99.096 586 24.2074
99.2134 626 25.02
99.3308 577 24.0208
99.4482 611 24.7184
99.5656 602 24.5357
99.6831 650 25.4951
99.8005 615 24.7992
99.9179 581 24.1039
100.035 522 22.8473
100.153 574 23.9583
100.27 555 23.5584
100.388 583 24.1454
100.505 555 23.5584
100.622 553 23.516
100.74 563 23.7276
100.857 520 22.8035
100.975 614 24.779
101.092 605 24.5967
101.209 636 25.219
101.327 593 24.3516
101.444 617 24.8395
101.561 621 24.9199
101.679 661 25.7099
101.796 607 24.6374
101.913 584 24.1661
102.03 628 25.0599
102.148 563 23.7276
102.265 554 23.5372
102.382 565 23.7697
102.499 631 25.1197
102.616 627 25.04
102.733 682 26.1151
102.851 621 24.9199
102.968 702 26.4953
103.085 683 26.1343
103.202 678 26.0384
103.319 694 26.3439
103.436 639 25.2784
103.552 641 25.318
103.669 599 24.4745
103.786 572 23.9165
103.903 601 24.5153
104.02 620 24.8998
104.137 649 25.4755
104.253 620 24.8998
104.37 601 24.5153
104.487 681 26.096
104.603 697 26.4008
104.72 666 25.807
104.836 621 24.9199
104.953 691 26.2869
105.069 558 23.622
105.186 569 23.8537
105.302 507 22.5167
105.418 495 22.2486
105.535 459 21.4243
105.651 426 20.6398
105.767 397 19.9249
105.883 386 19.6469
105.999 346 18.6011
106.115 0 1
106.231 0 1
106.347 0 1
106.463 0 1
106.579 0 1
106.694 0 1
106.81 0 1
106.926 0 1
107.041 0 1
107.157 0 1
109.576 0 1
109.692 0 1
109.807 0 1
109.923 0 1
110.039 0 1
110.155 0 1
110.27 0 1
110.386 0 1
110.502 0 1
110.618 347 18.6279
110.735 320 17.8885
110.851 369 19.2094
110.967 385 19.6214
111.083 456 21.3542
111.199 451 21.2368
111.316 597 24.4336
111.432 600 24.4949
111.549 561 23.6854
111.665 621 24.9199
111.782 586 24.2074
111.898 633 25.1595
112.015 624 24.98
112.132 616 24.8193
112.248 581 24.1039
112.365 529 23
112.482 543 23.3024
112.599 577 24.0208
112.716 603 24.5561
112.832 558 23.622
112.949 600 24.4949
113.066 575 23.9792
113.183 606 24.6171
113.3 580 24.0832
113.417 592 24.3311
113.534 592 24.3311
113.652 644 25.3772
113.769 622 24.9399
113.886 606 24.6171
114.003 568 23.8328
114.12 570 23.8747
114.238 549 23.4307
114.355 507 22.5167
114.472 580 24.0832
114.589 556 23.5797
114.707 525 22.9129
114.824 559 23.6432
114.942 592 24.3311
115.059 568 23.8328
115.176 586 24.2074
115.294 599 24.4745
115.411 558 23.622
115.529 567 23.8118
115.646 577 24.0208
115.764 527 22.9565
115.881 500 22.3607
115.999 465 21.5639
116.116 497 22.2935
116.234 523 22.8692
116.351 510 22.5832
116.469 542 23.2809
116.586 533 23.0868
116.704 532 23.0651
116.821 523 22.8692
116.939 554 23.5372
117.056 517 22.7376
117.174 587 24.2281
117.291 561 23.6854
117.409 605 24.5967
117.526 574 23.9583
117.644 550 23.4521
117.761 557 23.6008
117.879 499 22.3383
117.996 466 21.587
118.114 486 22.0454
118.231 481 21.9317
118.349 552 23.4947
118.466 546 23.3666
118.584 568 23.8328
118.701 547 23.388
118.819 539 23.2164
118.936 554 23.5372
119.053 541 23.2594
119.171 540 23.2379
119.288 553 23.516
119.405 461 21.4709
119.523 470 21.6795
119.64 470 21.6795
119.757 508 22.5389
119.875 538 23.1948
119.992 532 23.0651
120.109 554 23.5372
120.226 486 22.0454
120.343 473 21.7486
120.46 473 21.7486
120.578 457 21.3776
120.695 547 23.388
120.812 495 22.2486
120.929 544 23.3238
121.046 540 23.2379
121.163 525 22.9129
121.279 491 22.1585
121.396 491 22.1585
121.513 466 21.587
121.63 434 20.8327
121.747 416 20.3961
121.863 447 21.1424
121.98 434 20.8327
122.097 467 21.6102
122.213 462 21.4942
122.33 430 20.7364
122.446 415 20.3715
122.563 419 20.4695
122.679 387 19.6723
122.795 362 19.0263
122.912 304 17.4356
123.028 268 16.3707
123.144 275 16.5831
123.26 233 15.2643
123.377 0 1
123.493 0 1
123.609 0 1
123.725 0 1
123.84 0 1
123.956 0 1
124.072 0 1
124.188 0 1
124.303 0 1
124.419 0 1
126.852 0 1
126.968 0 1
127.083 0 1
127.199 0 1
127.315 0 1
127.431 0 1
127.547 0 1
127.663 0 1
127.779 0 1
127.895 0 1
128.011 0 1
128.127 0 1
128.243 0 1
128.359 517 22.7376
128.476 520 22.8035
128.592 540 23.2379
128.708 557 23.6008
128.825 592 24.3311
128.941 571 23.8956
129.058 607 24.6374
129.174 623 24.96
129.291 606 24.6171
129.408 626 25.02
129.524 596 24.4131
129.641 617 24.8395
129.758 703 26.5141
129.875 686 26.1916
129.992 737 27.1477
130.108 698 26.4197
130.225 631 25.1197
130.342 632 25.1396
130.459 625 25
130.576 656 25.6125
130.693 649 25.4755
130.81 664 25.7682
130.928 709 26.6271
131.045 761 27.5862
131.162 779 27.9106
131.279 825 28.7228
131.396 853 29.2062
131.513 764 27.6405
131.631 844 29.0517
131.748 822 28.6705
131.865 837 28.931
131.983 906 30.0998
132.1 876 29.5973
132.217 966 31.0805
132.335 980 31.305
132.452 1001 31.6386
132.57 1033 32.1403
132.687 1051 32.4191
132.804 1087 32.9697
132.922 1096 33.1059
133.039 1070 32.7109
133.157 1099 33.1512
133.274 1141 33.7787
133.392 1139 33.7491
133.509 1072 32.7414
133.627 1143 33.8083
133.744 1135 33.6898
133.862 1089 33
133.979 1111 33.3317
134.097 1046 32.3419
134.214 1027 32.0468
134.332 1009 31.7648
134.449 1012 31.8119
134.567 1122 33.4963
134.684 1144 33.8231
134.802 1178 34.322
134.919 1194 34.5543
135.037 1192 34.5254
135.154 1171 34.2199
135.272 1095 33.0908
135.389 1104 33.2265
135.507 1215 34.8569
135.624 1156 34
135.742 1144 33.8231
135.859 1191 34.5109
135.977 1255 35.426
136.094 1226 35.0143
136.211 1234 35.1283
136.329 1308 36.1663
136.446 1235 35.1426
136.564 1277 35.7351
136.681 1237 35.171
136.798 1207 34.7419
136.915 1238 35.1852
137.033 1270 35.6371
137.15 1332 36.4966
137.267 1249 35.3412
137.384 1217 34.8855
137.502 1131 33.6303
137.619 1139 33.7491
137.736 1012 31.8119
137.853 1031 32.1092
137.97 1011 31.7962
138.087 1055 32.4808
138.204 1083 32.909
138.321 1156 34
138.438 1213 34.8281
138.555 1290 35.9166
138.672 1218 34.8999
138.788 1172 34.2345
138.905 1070 32.7109
139.022 1035 32.1714
139.139 990 31.4643
139.255 968 31.1127
139.372 947 30.7734
139.488 955 30.9031
139.605 937 30.6105
139.721 880 29.6648
139.838 845 29.0689
139.954 792 28.1425
140.071 716 26.7582
140.187 733 27.074
140.303 682 26.1151
140.419 631 25.1197
140.535 633 25.1595
140.652 608 24.6577
140.768 0 1
140.884 0 1
141 0 1
141.115 0 1
141.231 0 1
141.347 0 1
141.463 0 1
141.578 0 1
141.694 0 1
144.104 0 1
144.219 0 1
144.335 0 1
144.45 0 1
144.566 0 1
144.682 0 1
144.798 0 1
144.914 0 1
145.03 0 1
145.146 1570 39.6232
145.262 1679 40.9756
145.378 1772 42.0951
145.494 1748 41.8091
145.61 1916 43.7721
145.726 1922 43.8406
145.842 1957 44.238
145.959 2046 45.2327
146.075 1938 44.0227
146.192 1952 44.1814
146.308 2132 46.1736
146.425 2008 44.8107
146.541 1951 44.1701
146.658 1935 43.9886
146.774 1929 43.9204
146.891 2055 45.3321
147.008 2095 45.7712
147.125 2144 46.3033
147.241 2120 46.0435
147.358 2186 46.7547
147.475 2003 44.7549
147.592 1969 44.3734
147.709 1889 43.4626
147.826 1779 42.1782
147.943 1716 41.4246
148.06 1844 42.9418
148.177 1780 42.19
148.294 1838 42.8719
148.411 1924 43.8634
148.528 2011 44.8442
148.645 2078 45.5851
148.762 2037 45.1331
148.88 1996 44.6766
148.997 2127 46.1194
149.114 2007 44.7996
149.231 2032 45.0777
149.349 2175 46.6369
149.466 2107 45.9021
149.583 2114 45.9783
149.701 2114 45.9783
149.818 2077 45.5741
149.935 2038 45.1442
150.053 2033 45.0888
150.17 2053 45.31
150.287 2092 45.7384
150.405 2037 45.1331
150.522 2131 46.1628
150.64 2203 46.9361
150.757 2252 47.4552
150.875 2365 48.6313
150.992 2480 49.7996
151.11 2582 50.8134
151.227 2424 49.2341
151.344 2114 45.9783
151.462 1661 40.7554
151.579 2060 45.3872
151.697 2431 49.3052
151.814 2816 53.066
151.932 3048 55.2087
152.049 3236 56.8859
152.167 3619 60.1581
152.284 3799 61.636
152.402 3988 63.1506
152.519 3992 63.1823
152.636 4352 65.9697
152.754 4283 65.4446
152.871 4480 66.9328
152.989 4562 67.5426
153.106 4822 69.4406
153.223 4971 70.5053
153.341 4967 70.4769
153.458 4994 70.6682
153.575 5096 71.3863
153.693 5219 72.2426
153.81 5283 72.6842
153.927 5407 73.5323
154.044 5584 74.7262
154.162 5662 75.2463
154.279 5564 74.5922
154.396 5540 74.4312
154.513 5529 74.3572
154.63 5396 73.4575
154.747 5388 73.403
154.864 4418 66.468
154.981 2620 51.1859
155.098 2418 49.1732
155.215 3780 61.4817
155.332 4261 65.2763
155.449 4449 66.7008
155.566 4410 66.4078
155.683 4185 64.6916
155.8 4170 64.5755
155.917 3929 62.6817
156.033 3707 60.8851
156.15 0 1
156.267 0 1
156.383 0 1
156.5 0 1
156.617 0 1
156.733 0 1
156.85 0 1
156.966 0 1
157.082 0 1
157.199 0 1
157.315 0 1
157.431 0 1
157.547 0 1
157.664 0 1
157.78 0 1
157.896 0 1
158.012 0 1
158.128 0 1
158.244 0 1
158.359 0 1
158.475 0 1
158.591 0 1
158.706 0 1
