
6.15755 0 1
6.2731 0 1
6.3887 0 1
6.50437 0 1
6.62009 0 1
6.73587 0 1
6.8517 0 1
6.96759 0 1
7.08353 0 1
7.19952 0 1
7.31557 0 1
7.43166 0 1
7.54781 0 1
7.664 0 1
7.78024 0 1
7.89653 0 1
8.01286 0 1
8.12924 0 1
8.24567 0 1
8.36213 0 1
8.47864 0 1
8.59519 0 1
8.71178 0 1
8.82841 0 1
8.94508 0 1
9.06179 0 1
9.17853 0 1
9.29531 0 1
9.41212 0 1
9.52897 0 1
9.64584 0 1
9.76276 0 1
9.8797 0 1
9.99667 0 1
10.1137 0 1
10.2307 0 1
10.3478 0 1
10.4648 0 1
10.5819 0 1
10.6991 0 1
10.8162 0 1
10.9334 0 1
11.0506 0 1
11.1678 0 1
11.285 0 1
11.4023 0 1
11.5196 0 1
11.6369 0 1
11.7542 0 1
11.8715 0 1
11.9888 0 1
12.1062 0 1
12.2235 0 1
12.3409 0 1
12.4582 0 1
12.5756 0 1
12.693 0 1
12.8104 0 1
12.9278 0 1
13.0452 0 1
13.1626 0 1
13.28 0 1
13.3974 0 1
13.5149 0 1
13.6323 0 1
13.7497 0 1
13.8671 0 1
13.9845 0 1
14.1019 0 1
14.2193 0 1
14.3367 0 1
14.4541 0 1
14.5714 0 1
14.6888 0 1
14.8062 0 1
14.9235 0 1
15.0408 947 30.7734
15.1581 1000 31.6228
15.2755 1045 32.3265
15.3927 1110 33.3167
15.51 1071 32.7261
15.6273 1096 33.1059
15.7445 1102 33.1964
15.8617 1072 32.7414
15.9789 1081 32.8786
16.0961 1039 32.2335
16.2132 1020 31.9374
16.3304 1095 33.0908
16.4475 1123 33.5112
16.5646 1130 33.6155
16.6816 1234 35.1283
16.7986 1236 35.1568
16.9156 1262 35.5246
17.0326 1218 34.8999
17.1496 1276 35.7211
17.2665 1236 35.1568
17.3833 1233 35.1141
17.5002 1168 34.176
17.617 1160 34.0588
17.7338 1092 33.0454
17.8505 1108 33.2866
17.9672 1048 32.3728
18.0839 1204 34.6987
18.2005 1190 34.4964
18.3171 1099 33.1512
18.4337 1160 34.0588
18.5502 1271 35.6511
18.6666 1250 35.3553
18.7831 1303 36.0971
18.8994 1202 34.6699
19.0158 1196 34.5832
19.1321 1156 34
19.2483 1158 34.0294
19.3645 1040 32.249
19.4806 1045 32.3265
19.5967 922 30.3645
19.7128 890 29.8329
19.8288 830 28.8097
19.9447 760 27.5681
20.0606 0 1
20.1764 0 1
20.2922 0 1
20.4079 0 1
20.5236 0 1
20.6392 0 1
20.7548 0 1
20.8702 0 1
23.3078 0 1
23.4233 0 1
23.539 0 1
23.6547 0 1
23.7704 0 1
23.8862 0 1
24.0021 0 1
24.118 0 1
24.234 0 1
24.35 0 1
24.4661 517 22.7376
24.5822 610 24.6982
24.6984 686 26.1916
24.8146 731 27.037
24.9309 816 28.5657
25.0472 891 29.8496
25.1636 994 31.5278
25.28 1082 32.8938
25.3965 1164 34.1174
25.513 1196 34.5832
25.6296 1279 35.7631
25.7462 1304 36.1109
25.8628 1352 36.7696
25.9795 1310 36.1939
26.0962 1370 37.0135
26.213 1253 35.3977
26.3298 1221 34.9428
26.4466 1245 35.2846
26.5635 1108 33.2866
26.6804 1147 33.8674
26.7973 1216 34.8712
26.9143 1152 33.9411
27.0313 1235 35.1426
27.1483 1296 36
27.2653 1275 35.7071
27.3824 1327 36.428
27.4996 1266 35.5809
27.6167 1311 36.2077
27.7339 1239 35.1994
27.8511 1249 35.3412
27.9683 1157 34.0147
28.0855 1189 34.4819
28.2028 1180 34.3511
28.3201 1022 31.9687
28.4374 1095 33.0908
28.5547 1039 32.2335
28.6721 1101 33.1813
28.7894 1166 34.1467
28.9068 1239 35.1994
29.0242 1251 35.3695
29.1416 1342 36.6333
29.259 1305 36.1248
29.3764 1290 35.9166
29.4939 1338 36.5787
29.6113 1327 36.428
29.7288 1199 34.6266
29.8463 1226 35.0143
29.9638 1087 32.9697
30.0812 1004 31.686
30.1987 1095 33.0908
30.3162 1121 33.4813
30.4337 1164 34.1174
30.5512 1209 34.7707
30.6687 1184 34.4093
30.7862 1189 34.4819
30.9037 1208 34.7563
31.0212 1189 34.4819
31.1387 1187 34.4529
31.2562 1178 34.322
31.3737 1196 34.5832
31.4912 1146 33.8526
31.6087 1127 33.5708
31.7262 1106 33.2566
31.8436 1029 32.078
31.9611 1014 31.8434
32.0785 1045 32.3265
32.1959 1099 33.1512
32.3134 1067 32.665
32.4308 1165 34.1321
32.5482 1244 35.2704
32.6655 1273 35.6791
32.7829 1284 35.8329
32.9002 1232 35.0999
33.0176 1257 35.4542
33.1349 1282 35.805
33.2522 1245 35.2846
33.3694 1215 34.8569
33.4867 1122 33.4963
33.6039 1045 32.3265
33.7211 1057 32.5115
33.8383 1008 31.749
33.9554 1064 32.619
34.0725 1053 32.45
34.1896 1133 33.6601
34.3067 1125 33.541
34.4237 1104 33.2265
34.5407 1142 33.7935
34.6577 1173 34.2491
34.7746 1224 34.9857
34.8915 1163 34.1028
35.0084 1147 33.8674
35.1252 1046 32.3419
35.242 1099 33.1512
35.3587 1122 33.4963
35.4755 1052 32.4345
35.5921 1004 31.686
35.7088 914 30.2324
35.8254 1043 32.2955
35.9419 1003 31.6702
36.0584 1104 33.2265
36.1749 1007 31.7333
36.2913 1079 32.8481
36.4077 1104 33.2265
36.524 1144 33.8231
36.6403 1039 32.2335
36.7565 996 31.5595
36.8727 1002 31.6544
36.9889 860 29.3258
37.1049 762 27.6043
37.221 0 1
37.3369 0 1
37.4529 0 1
37.5687 0 1
37.6845 0 1
37.8003 0 1
37.916 0 1
38.0316 0 1
38.1472 0 1
40.5851 0 1
40.7008 0 1
40.8164 0 1
40.9322 0 1
41.048 0 1
41.1639 0 1
41.2798 0 1
41.3958 0 1
41.5118 0 1
41.6279 0 1
41.744 568 23.8328
41.8602 641 25.318
41.9765 727 26.9629
42.0928 778 27.8927
42.2091 725 26.9258
42.3255 688 26.2298
42.4419 703 26.5141
42.5584 684 26.1534
42.675 716 26.7582
42.7915 814 28.5307
42.9081 882 29.6985
43.0248 950 30.8221
43.1415 898 29.9666
43.2582 945 30.7409
43.375 939 30.6431
43.4918 965 31.0644
43.6087 960 30.9839
43.7256 974 31.209
43.8425 920 30.3315
43.9595 971 31.1609
44.0765 864 29.3939
44.1935 938 30.6268
44.3106 891 29.8496
44.4277 820 28.6356
44.5448 766 27.6767
44.6619 813 28.5132
44.7791 808 28.4253
44.8963 883 29.7153
45.0136 996 31.5595
45.1308 1017 31.8904
45.2481 988 31.4325
45.3654 991 31.4802
45.4827 997 31.5753
45.6001 956 30.9192
45.7174 934 30.5614
45.8348 918 30.2985
45.9522 842 29.0172
46.0697 784 28
46.1871 809 28.4429
46.3046 791 28.1247
46.422 845 29.0689
46.5395 855 29.2404
46.657 989 31.4484
46.7745 937 30.6105
46.892 1001 31.6386
47.0096 1028 32.0624
47.1271 972 31.1769
47.2446 1045 32.3265
47.3622 979 31.289
47.4797 1042 32.28
47.5973 922 30.3645
47.7149 895 29.9166
47.8324 887 29.7825
47.95 857 29.2746
48.0675 812 28.4956
48.1851 816 28.5657
48.3027 876 29.5973
48.4202 892 29.8664
48.5378 951 30.8383
48.6554 998 31.5911
48.7729 1073 32.7567
48.8904 998 31.5911
49.008 998 31.5911
49.1255 994 31.5278
49.243 991 31.4802
49.3605 886 29.7658
49.478 875 29.5804
49.5955 820 28.6356
49.713 783 27.9821
49.8304 790 28.1069
49.9479 870 29.4958
50.0653 923 30.3809
50.1827 931 30.5123
50.3001 994 31.5278
50.4175 969 31.1288
50.5348 951 30.8383
50.6521 1044 32.311
50.7694 1086 32.9545
50.8867 1015 31.8591
51.004 1063 32.6037
51.1212 1067 32.665
51.2384 987 31.4166
51.3556 976 31.241
51.4727 964 31.0483
51.5899 904 30.0666
51.707 893 29.8831
51.824 931 30.5123
51.9411 1094 33.0757
52.0581 1123 33.5112
52.175 1277 35.7351
52.2919 1392 37.3095
52.4088 1364 36.9324
52.5257 1467 38.3014
52.6425 1468 38.3145
52.7593 1463 38.2492
52.876 1429 37.8021
52.9927 1295 35.9861
53.1094 1302 36.0832
53.226 1196 34.5832
53.3426 1231 35.0856
53.4591 1237 35.171
53.5756 1288 35.8887
53.692 1238 35.1852
53.8084 1224 34.9857
53.9248 1186 34.4384
54.0411 1127 33.5708
54.1573 1089 33
54.2735 0 1
54.3896 0 1
54.5057 0 1
54.6217 0 1
54.7377 0 1
54.8537 0 1
54.9695 0 1
55.0853 0 1
55.2011 0 1
55.3168 0 1
55.4324 0 1
57.824 0 1
57.9396 0 1
58.0553 0 1
58.1711 0 1
58.2869 0 1
58.4028 0 1
58.5187 0 1
58.6347 0 1
58.7508 0 1
58.8669 0 1
58.983 782 27.9643
59.0992 854 29.2233
59.2155 1004 31.686
59.3318 1057 32.5115
59.4482 991 31.4802
59.5646 1140 33.7639
59.681 1109 33.3017
59.7975 1118 33.4365
59.9141 1116 33.4066
60.0306 1131 33.6303
60.1473 1096 33.1059
60.2639 1083 32.909
60.3807 1087 32.9697
60.4974 1055 32.4808
60.6142 1095 33.0908
60.731 1136 33.7046
60.8479 1209 34.7707
60.9648 1301 36.0694
61.0818 1266 35.5809
61.1987 1255 35.426
61.3158 1245 35.2846
61.4328 1170 34.2053
61.5499 1161 34.0735
61.667 1118 33.4365
61.7841 1034 32.1559
61.9013 908 30.133
62.0185 1011 31.7962
62.1357 1009 31.7648
62.253 1087 32.9697
62.3702 1144 33.8231
62.4875 1149 33.8969
62.6049 1185 34.4238
62.7222 1235 35.1426
62.8396 1220 34.9285
62.9569 1278 35.7491
63.0743 1269 35.623
63.1918 1230 35.0714
63.3092 1160 34.0588
63.4267 1187 34.4529
63.5441 1126 33.5559
63.6616 1072 32.7414
63.7791 966 31.0805
63.8966 1002 31.6544
64.0142 975 31.225
64.1317 1065 32.6343
64.2492 1124 33.5261
64.3668 1183 34.3948
64.4843 1251 35.3695
64.6019 1229 35.0571
64.7195 1269 35.623
64.837 1263 35.5387
64.9546 1222 34.9571
65.0722 1201 34.6554
65.1898 1105 33.2415
65.3074 997 31.5753
65.4249 972 31.1769
65.5425 945 30.7409
65.6601 959 30.9677
65.7777 937 30.6105
65.8952 1021 31.9531
66.0128 1092 33.0454
66.1304 1170 34.2053
66.2479 1131 33.6303
66.3655 1202 34.6699
66.483 1179 34.3366
66.6005 1219 34.9142
66.718 1177 34.3074
66.8355 1177 34.3074
66.953 1202 34.6699
67.0705 1227 35.0286
67.1879 1151 33.9264
67.3054 1060 32.5576
67.4228 973 31.1929
67.5402 918 30.2985
67.6576 1004 31.686
67.7749 993 31.5119
67.8923 1068 32.6803
68.0096 1094 33.0757
68.1269 1144 33.8231
68.2442 1221 34.9428
68.3614 1152 33.9411
68.4787 1179 34.3366
68.5958 1229 35.0571
68.713 1122 33.4963
68.8302 1048 32.3728
68.9473 958 30.9516
69.0643 900 30
69.1814 880 29.6648
69.2984 865 29.4109
69.4154 906 30.0998
69.5323 1032 32.1248
69.6492 1127 33.5708
69.7661 1079 32.8481
69.8829 1161 34.0735
69.9997 1082 32.8938
70.1165 1090 33.0151
70.2332 1031 32.1092
70.3499 983 31.3528
70.4665 988 31.4325
70.5831 888 29.7993
70.6996 922 30.3645
70.8161 826 28.7402
70.9326 801 28.3019
71.049 680 26.0768
71.1653 566 23.7908
71.2817 485 22.0227
71.3979 444 21.0713
71.5141 442 21.0238
71.6303 406 20.1494
71.7464 381 19.5192
71.8624 0 1
71.9784 0 1
72.0944 0 1
72.2102 0 1
72.3261 0 1
72.4418 0 1
72.5575 0 1
72.6732 0 1
75.1054 0 1
75.2209 0 1
75.3365 0 1
75.4521 0 1
75.5678 0 1
75.6835 0 1
75.7993 0 1
75.9151 0 1
76.031 0 1
76.147 710 26.6458
76.263 691 26.2869
76.3791 710 26.6458
76.4952 726 26.9444
76.6113 764 27.6405
76.7276 754 27.4591
76.8438 836 28.9137
76.9601 913 30.2159
77.0765 970 31.1448
77.1929 1007 31.7333
77.3093 1036 32.187
77.4258 989 31.4484
77.5423 1032 32.1248
77.6589 1003 31.6702
77.7755 911 30.1828
77.8921 851 29.1719
78.0088 752 27.4226
78.1256 732 27.0555
78.2423 776 27.8568
78.3591 815 28.5482
78.4759 805 28.3725
78.5928 930 30.4959
78.7097 915 30.249
78.8266 930 30.4959
78.9436 1026 32.0312
79.0606 1012 31.8119
79.1776 1034 32.1559
79.2946 1077 32.8177
79.4117 1020 31.9374
79.5288 1050 32.4037
79.6459 999 31.607
79.7631 986 31.4006
79.8802 937 30.6105
79.9974 929 30.4795
80.1147 825 28.7228
80.2319 827 28.7576
80.3491 865 29.4109
80.4664 841 29
80.5837 924 30.3974
80.701 1006 31.7175
80.8183 1032 32.1248
80.9357 1048 32.3728
81.053 1101 33.1813
81.1704 1068 32.6803
81.2877 1051 32.4191
81.4051 1035 32.1714
81.5225 1016 31.8748
81.6399 862 29.3598
81.7573 746 27.313
81.8747 768 27.7128
81.9922 734 27.0924
82.1096 809 28.4429
82.227 900 30
82.3444 979 31.289
82.4619 1003 31.6702
82.5793 1033 32.1403
82.6967 1022 31.9687
82.8142 1089 33
82.9316 1081 32.8786
83.049 1130 33.6155
83.1664 1031 32.1092
83.2838 1063 32.6037
83.4012 1062 32.5883
83.5186 1018 31.9061
83.636 908 30.133
83.7534 929 30.4795
83.8708 850 29.1548
83.9881 839 28.9655
84.1055 852 29.189
84.2228 920 30.3315
84.3401 1027 32.0468
84.4575 1014 31.8434
84.5747 1044 32.311
84.692 1084 32.9242
84.8093 1108 33.2866
84.9265 1080 32.8634
85.0437 1046 32.3419
85.1609 1002 31.6544
85.2781 830 28.8097
85.3952 756 27.4955
85.5123 742 27.2397
85.6294 824 28.7054
85.7465 881 29.6816
85.8636 941 30.6757
85.9806 968 31.1127
86.0976 1056 32.4962
86.2145 980 31.305
86.3315 1034 32.1559
86.4484 1069 32.6956
86.5652 1105 33.2415
86.682 1091 33.0303
86.7988 1100 33.1662
86.9156 1114 33.3766
87.0323 1071 32.7261
87.149 1028 32.0624
87.2657 921 30.348
87.3823 835 28.8964
87.4988 766 27.6767
87.6154 711 26.6646
87.7318 723 26.8887
87.8483 771 27.7669
87.9647 831 28.8271
88.081 895 29.9166
88.1973 830 28.8097
88.3136 809 28.4429
88.4298 754 27.4591
88.546 746 27.313
88.6621 593 24.3516
88.7781 498 22.3159
88.8942 0 1
89.0101 0 1
89.126 0 1
89.2419 0 1
89.3577 0 1
89.4734 0 1
89.5891 0 1
89.7047 0 1
89.8203 0 1
89.9358 0 1
92.3269 0 1
92.4424 0 1
92.558 0 1
92.6736 0 1
92.7893 0 1
92.905 0 1
93.0208 0 1
93.1366 0 1
93.2525 0 1
93.3685 0 1
93.4845 0 1
93.6005 803 28.3373
93.7167 829 28.7924
93.8328 848 29.1204
93.949 933 30.545
94.0653 983 31.3528
94.1816 919 30.315
94.2979 876 29.5973
94.4143 864 29.3939
94.5307 828 28.775
94.6472 793 28.1603
94.7637 792 28.1425
94.8803 860 29.3258
94.9969 909 30.1496
95.1135 1011 31.7962
95.2302 1046 32.3419
95.3469 1009 31.7648
95.4637 1088 32.9848
95.5805 1173 34.2491
95.6973 1095 33.0908
95.8142 1062 32.5883
95.9311 1084 32.9242
96.048 1057 32.5115
96.1649 1055 32.4808
96.2819 1071 32.7261
96.3989 1005 31.7017
96.516 1003 31.6702
96.633 947 30.7734
96.7501 885 29.7489
96.8673 872 29.5296
96.9844 888 29.7993
97.1016 972 31.1769
97.2188 999 31.607
97.336 1107 33.2716
97.4532 1095 33.0908
97.5704 1146 33.8526
97.6877 1077 32.8177
97.805 1126 33.5559
97.9223 1080 32.8634
98.0396 992 31.496
98.1569 890 29.8329
98.2743 807 28.4077
98.3916 799 28.2666
98.509 861 29.3428
98.6264 928 30.4631
98.7438 976 31.241
98.8612 1056 32.4962
98.9786 1157 34.0147
99.096 1137 33.7194
99.2134 1126 33.5559
99.3308 1146 33.8526
99.4482 1207 34.7419
99.5656 1169 34.1906
99.6831 1128 33.5857
99.8005 1106 33.2566
99.9179 1161 34.0735
100.035 1105 33.2415
100.153 965 31.0644
100.27 1022 31.9687
100.388 966 31.0805
100.505 987 31.4166
100.622 1028 32.0624
100.74 1056 32.4962
100.857 1197 34.5977
100.975 1198 34.6121
101.092 1107 33.2716
101.209 1175 34.2783
101.327 1243 35.2562
101.444 1137 33.7194
101.561 1022 31.9687
101.679 923 30.3809
101.796 915 30.249
101.913 804 28.3549
102.03 854 29.2233
102.148 933 30.545
102.265 1058 32.5269
102.382 1112 33.3467
102.499 1200 34.641
102.616 1236 35.1568
102.733 1218 34.8999
102.851 1254 35.4119
102.968 1211 34.7994
103.085 1267 35.5949
103.202 1271 35.6511
103.319 1239 35.1994
103.436 1249 35.3412
103.552 1121 33.4813
103.669 1102 33.1964
103.786 1010 31.7805
103.903 976 31.241
104.02 1019 31.9218
104.137 1085 32.9393
104.253 1204 34.6987
104.37 1268 35.609
104.487 1240 35.2136
104.603 1221 34.9428
104.72 1268 35.609
104.836 1200 34.641
104.953 1121 33.4813
105.069 1047 32.3574
105.186 895 29.9166
105.302 837 28.931
105.418 804 28.3549
105.535 783 27.9821
105.651 819 28.6182
105.767 861 29.3428
105.883 800 28.2843
105.999 757 27.5136
106.115 0 1
106.231 0 1
106.347 0 1
106.463 0 1
106.579 0 1
106.694 0 1
106.81 0 1
106.926 0 1
107.041 0 1
107.157 0 1
109.576 0 1
109.692 0 1
109.807 0 1
109.923 0 1
110.039 0 1
110.155 0 1
110.27 0 1
110.386 0 1
110.502 0 1
110.618 479 21.8861
110.735 689 26.2488
110.851 758 27.5318
110.967 858 29.2916
111.083 995 31.5436
111.199 1059 32.5423
111.316 1112 33.3467
111.432 1121 33.4813
111.549 1100 33.1662
111.665 1138 33.7343
111.782 1207 34.7419
111.898 1140 33.7639
112.015 1112 33.3467
112.132 1015 31.8591
112.248 1018 31.9061
112.365 912 30.1993
112.482 948 30.7896
112.599 1031 32.1092
112.716 1108 33.2866
112.832 1115 33.3916
112.949 1157 34.0147
113.066 1166 34.1467
113.183 1149 33.8969
113.3 1197 34.5977
113.417 1194 34.5543
113.534 1186 34.4384
113.652 1078 32.8329
113.769 916 30.2655
113.886 875 29.5804
114.003 846 29.0861
114.12 878 29.6311
114.238 956 30.9192
114.355 1085 32.9393
114.472 1069 32.6956
114.589 1240 35.2136
114.707 1239 35.1994
114.824 1215 34.8569
114.942 1246 35.2987
115.059 1208 34.7563
115.176 1227 35.0286
115.294 1228 35.0428
115.411 1190 34.4964
115.529 1188 34.4674
115.646 1090 33.0151
115.764 1083 32.909
115.881 1033 32.1403
115.999 1019 31.9218
116.116 976 31.241
116.234 1054 32.4654
116.351 1085 32.9393
116.469 1139 33.7491
116.586 1248 35.327
116.704 1179 34.3366
116.821 1253 35.3977
116.939 1195 34.5688
117.056 1157 34.0147
117.174 1153 33.9559
117.291 976 31.241
117.409 925 30.4138
117.526 857 29.2746
117.644 825 28.7228
117.761 941 30.6757
117.879 958 30.9516
117.996 1050 32.4037
118.114 1073 32.7567
118.231 1172 34.2345
118.349 1134 33.6749
118.466 1184 34.4093
118.584 1117 33.4215
118.701 1170 34.2053
118.819 1204 34.6987
118.936 1155 33.9853
119.053 1109 33.3017
119.171 1094 33.0757
119.288 1060 32.5576
119.405 1048 32.3728
119.523 958 30.9516
119.64 928 30.4631
119.757 913 30.2159
119.875 971 31.1609
119.992 1087 32.9697
120.109 1045 32.3265
120.226 1119 33.4515
120.343 1078 32.8329
120.46 1071 32.7261
120.578 1171 34.2199
120.695 1084 32.9242
120.812 990 31.4643
120.929 888 29.7993
121.046 856 29.2575
121.163 758 27.5318
121.279 762 27.6043
121.396 776 27.8568
121.513 838 28.9482
121.63 891 29.8496
121.747 872 29.5296
121.863 862 29.3598
121.98 877 29.6142
122.097 869 29.4788
122.213 855 29.2404
122.33 899 29.9833
122.446 886 29.7658
122.563 810 28.4605
122.679 727 26.9629
122.795 707 26.5895
122.912 602 24.5357
123.028 546 23.3666
123.144 540 23.2379
123.26 388 19.6977
123.377 0 1
123.493 0 1
123.609 0 1
123.725 0 1
123.84 0 1
123.956 0 1
124.072 0 1
124.188 0 1
124.303 0 1
124.419 0 1
126.852 0 1
126.968 0 1
127.083 0 1
127.199 0 1
127.315 0 1
127.431 0 1
127.547 0 1
127.663 0 1
127.779 0 1
127.895 0 1
128.011 0 1
128.127 0 1
128.243 0 1
128.359 992 31.496
128.476 1014 31.8434
128.592 1015 31.8591
128.708 1003 31.6702
128.825 992 31.496
128.941 1010 31.7805
129.058 1105 33.2415
129.174 1124 33.5261
129.291 1136 33.7046
129.408 1230 35.0714
129.524 1192 34.5254
129.641 1222 34.9571
129.758 1157 34.0147
129.875 1095 33.0908
129.992 1010 31.7805
130.108 915 30.249
130.225 916 30.2655
130.342 908 30.133
130.459 891 29.8496
130.576 1006 31.7175
130.693 1017 31.8904
130.81 1085 32.9393
130.928 1107 33.2716
131.045 1127 33.5708
131.162 1158 34.0294
131.279 1193 34.5398
131.396 1211 34.7994
131.513 1156 34
131.631 1243 35.2562
131.748 1133 33.6601
131.865 1098 33.1361
131.983 1060 32.5576
132.1 1015 31.8591
132.217 1028 32.0624
132.335 983 31.3528
132.452 1065 32.6343
132.57 1060 32.5576
132.687 1170 34.2053
132.804 1239 35.1994
132.922 1212 34.8138
133.039 1165 34.1321
133.157 1177 34.3074
133.274 1207 34.7419
133.392 1183 34.3948
133.509 1123 33.5112
133.627 998 31.5911
133.744 953 30.8707
133.862 901 30.0167
133.979 864 29.3939
134.097 1002 31.6544
134.214 1026 32.0312
134.332 1084 32.9242
134.449 1136 33.7046
134.567 1157 34.0147
134.684 1116 33.4066
134.802 1192 34.5254
134.919 1231 35.0856
135.037 1232 35.0999
135.154 1243 35.2562
135.272 1126 33.5559
135.389 1185 34.4238
135.507 1113 33.3617
135.624 1039 32.2335
135.742 1031 32.1092
135.859 1029 32.078
135.977 1053 32.45
136.094 1061 32.573
136.211 1202 34.6699
136.329 1164 34.1174
136.446 1210 34.7851
136.564 1201 34.6554
136.681 1268 35.609
136.798 1205 34.7131
136.915 1201 34.6554
137.033 1119 33.4515
137.15 1059 32.5423
137.267 993 31.5119
137.384 953 30.8707
137.502 923 30.3809
137.619 904 30.0666
137.736 986 31.4006
137.853 1003 31.6702
137.97 1066 32.6497
138.087 1091 33.0303
138.204 1092 33.0454
138.321 1106 33.2566
138.438 1189 34.4819
138.555 1212 34.8138
138.672 1209 34.7707
138.788 1156 34
138.905 1089 33
139.022 991 31.4802
139.139 1012 31.8119
139.255 899 29.9833
139.372 842 29.0172
139.488 806 28.3901
139.605 830 28.8097
139.721 761 27.5862
139.838 805 28.3725
139.954 823 28.688
140.071 804 28.3549
140.187 704 26.533
140.303 664 25.7682
140.419 606 24.6171
140.535 623 24.96
140.652 574 23.9583
140.768 0 1
140.884 0 1
141 0 1
141.115 0 1
141.231 0 1
141.347 0 1
141.463 0 1
141.578 0 1
141.694 0 1
144.104 0 1
144.219 0 1
144.335 0 1
144.45 0 1
144.566 0 1
144.682 0 1
144.798 0 1
144.914 0 1
145.03 0 1
145.146 856 29.2575
145.262 891 29.8496
145.378 941 30.6757
145.494 927 30.4467
145.61 951 30.8383
145.726 983 31.3528
145.842 881 29.6816
145.959 777 27.8747
146.075 747 27.3313
146.192 768 27.7128
146.308 753 27.4408
146.425 757 27.5136
146.541 778 27.8927
146.658 849 29.1376
146.774 833 28.8617
146.891 886 29.7658
147.008 900 30
147.125 932 30.5287
147.241 967 31.0966
147.358 933 30.545
147.475 935 30.5778
147.592 907 30.1164
147.709 887 29.7825
147.826 851 29.1719
147.943 837 28.931
148.06 854 29.2233
148.177 831 28.8271
148.294 806 28.3901
148.411 921 30.348
148.528 856 29.2575
148.645 895 29.9166
148.762 894 29.8998
148.88 942 30.692
148.997 909 30.1496
149.114 941 30.6757
149.231 928 30.4631
149.349 910 30.1662
149.466 899 29.9833
149.583 908 30.133
149.701 755 27.4773
149.818 802 28.3196
149.935 733 27.074
150.053 723 26.8887
150.17 781 27.9464
150.287 759 27.55
150.405 773 27.8029
150.522 796 28.2135
150.64 829 28.7924
150.757 882 29.6985
150.875 925 30.4138
150.992 863 29.3769
151.11 871 29.5127
151.227 823 28.688
151.344 818 28.6007
151.462 808 28.4253
151.579 804 28.3549
151.697 809 28.4429
151.814 735 27.1109
151.932 808 28.4253
152.049 777 27.8747
152.167 793 28.1603
152.284 845 29.0689
152.402 877 29.6142
152.519 897 29.95
152.636 902 30.0333
152.754 915 30.249
152.871 942 30.692
152.989 897 29.95
153.106 824 28.7054
153.223 798 28.2489
153.341 746 27.313
153.458 680 26.0768
153.575 701 26.4764
153.693 731 27.037
153.81 734 27.0924
153.927 756 27.4955
154.044 764 27.6405
154.162 806 28.3901
154.279 766 27.6767
154.396 829 28.7924
154.513 784 28
154.63 832 28.8444
154.747 881 29.6816
154.864 792 28.1425
154.981 803 28.3373
155.098 741 27.2213
155.215 740 27.2029
155.332 782 27.9643
155.449 721 26.8514
155.566 695 26.3629
155.683 734 27.0924
155.8 764 27.6405
155.917 801 28.3019
156.033 801 28.3019
156.15 0 1
156.267 0 1
156.383 0 1
156.5 0 1
156.617 0 1
156.733 0 1
156.85 0 1
156.966 0 1
157.082 0 1
157.199 0 1
157.315 0 1
157.431 0 1
157.547 0 1
157.664 0 1
157.78 0 1
157.896 0 1
158.012 0 1
158.128 0 1
158.244 0 1
158.359 0 1
158.475 0 1
158.591 0 1
158.706 0 1
