
6.15755 0 1
6.2731 0 1
6.3887 0 1
6.50437 0 1
6.62009 0 1
6.73587 0 1
6.8517 0 1
6.96759 0 1
7.08353 0 1
7.19952 0 1
7.31557 0 1
7.43166 0 1
7.54781 0 1
7.664 0 1
7.78024 0 1
7.89653 0 1
8.01286 0 1
8.12924 0 1
8.24567 0 1
8.36213 0 1
8.47864 0 1
8.59519 0 1
8.71178 0 1
8.82841 0 1
8.94508 0 1
9.06179 0 1
9.17853 0 1
9.29531 0 1
9.41212 0 1
9.52897 0 1
9.64584 0 1
9.76276 0 1
9.8797 0 1
9.99667 0 1
10.1137 0 1
10.2307 0 1
10.3478 0 1
10.4648 0 1
10.5819 0 1
10.6991 0 1
10.8162 0 1
10.9334 0 1
11.0506 0 1
11.1678 0 1
11.285 0 1
11.4023 0 1
11.5196 0 1
11.6369 0 1
11.7542 0 1
11.8715 0 1
11.9888 0 1
12.1062 0 1
12.2235 0 1
12.3409 0 1
12.4582 0 1
12.5756 0 1
12.693 0 1
12.8104 0 1
12.9278 0 1
13.0452 0 1
13.1626 0 1
13.28 0 1
13.3974 0 1
13.5149 0 1
13.6323 0 1
13.7497 0 1
13.8671 0 1
13.9845 0 1
14.1019 0 1
14.2193 0 1
14.3367 0 1
14.4541 0 1
14.5714 0 1
14.6888 0 1
14.8062 0 1
14.9235 0 1
15.0408 0 0
15.1581 0 0
15.2755 0 0
15.3927 0 0
15.51 0 0
15.6273 0 0
15.7445 0 0
15.8617 0 0
15.9789 0 0
16.0961 0 0
16.2132 0 0
16.3304 0 0
16.4475 0 0
16.5646 0 0
16.6816 0 0
16.7986 0 0
16.9156 0 0
17.0326 0 0
17.1496 0 0
17.2665 0 0
17.3833 0 0
17.5002 0 0
17.617 0 0
17.7338 0 0
17.8505 0 0
17.9672 0 0
18.0839 0 0
18.2005 0 0
18.3171 0 0
18.4337 0 0
18.5502 0 0
18.6666 0 0
18.7831 0 0
18.8994 0 0
19.0158 0 0
19.1321 0 0
19.2483 0 0
19.3645 0 0
19.4806 0 0
19.5967 0 0
19.7128 0 0
19.8288 0 0
19.9447 0 0
20.0606 0 1
20.1764 0 1
20.2922 0 1
20.4079 0 1
20.5236 0 1
20.6392 0 1
20.7548 0 1
20.8702 0 1
23.3078 0 1
23.4233 0 1
23.539 0 1
23.6547 0 1
23.7704 0 1
23.8862 0 1
24.0021 0 1
24.118 0 1
24.234 0 1
24.35 0 1
24.4661 1341 36.6197
24.5822 1505 38.7943
24.6984 1678 40.9634
24.8146 1824 42.7083
24.9309 2057 45.3542
25.0472 2374 48.7237
25.1636 2578 50.774
25.28 2759 52.5262
25.3965 2732 52.2685
25.513 2776 52.6878
25.6296 2816 53.066
25.7462 2883 53.6936
25.8628 2789 52.811
25.9795 2899 53.8424
26.0962 2855 53.4322
26.213 2861 53.4883
26.3298 2881 53.6749
26.4466 2916 54
26.5635 2847 53.3573
26.6804 2860 53.479
26.7973 2729 52.2398
26.9143 2765 52.5833
27.0313 2675 51.7204
27.1483 2674 51.7107
27.2653 2722 52.1728
27.3824 2580 50.7937
27.4996 2415 49.1426
27.6167 2270 47.6445
27.7339 2247 47.4025
27.8511 2435 49.3457
27.9683 2575 50.7445
28.0855 2607 51.0588
28.2028 2646 51.4393
28.3201 2596 50.951
28.4374 2653 51.5073
28.5547 2614 51.1273
28.6721 2522 50.2195
28.7894 2610 51.0882
28.9068 2546 50.4579
29.0242 2580 50.7937
29.1416 2667 51.643
29.259 2625 51.2348
29.3764 2693 51.8941
29.4939 2652 51.4976
29.6113 2595 50.9411
29.7288 2459 49.5883
29.8463 2482 49.8197
29.9638 2465 49.6488
30.0812 2462 49.6185
30.1987 2544 50.4381
30.3162 2596 50.951
30.4337 2592 50.9117
30.5512 2659 51.5655
30.6687 2647 51.449
30.7862 2634 51.3225
30.9037 2500 50
31.0212 2508 50.0799
31.1387 2309 48.0521
31.2562 2350 48.4768
31.3737 2487 49.8698
31.4912 2669 51.6624
31.6087 2663 51.6043
31.7262 2594 50.9313
31.8436 2603 51.0196
31.9611 2609 51.0784
32.0785 2626 51.2445
32.1959 2528 50.2792
32.3134 2552 50.5173
32.4308 2479 49.7896
32.5482 2444 49.4368
32.6655 2350 48.4768
32.7829 2375 48.734
32.9002 2291 47.8644
33.0176 2343 48.4045
33.1349 2259 47.5289
33.2522 2172 46.6047
33.3694 2272 47.6655
33.4867 2260 47.5395
33.6039 2278 47.7284
33.7211 2250 47.4342
33.8383 2378 48.7647
33.9554 2450 49.4975
34.0725 2400 48.9898
34.1896 2404 49.0306
34.3067 2469 49.689
34.4237 2533 50.3289
34.5407 2485 49.8498
34.6577 2335 48.3218
34.7746 2288 47.833
34.8915 2265 47.592
35.0084 2505 50.05
35.1252 2587 50.8626
35.242 2593 50.9215
35.3587 2573 50.7247
35.4755 2477 49.7695
35.5921 2441 49.4065
35.7088 2385 48.8365
35.8254 2393 48.9183
35.9419 2236 47.2864
36.0584 2178 46.669
36.1749 2153 46.4004
36.2913 2131 46.1628
36.4077 1965 44.3283
36.524 1836 42.8486
36.6403 1659 40.7308
36.7565 1506 38.8072
36.8727 1346 36.6879
36.9889 1383 37.1887
37.1049 1265 35.5668
37.221 0 1
37.3369 0 1
37.4529 0 1
37.5687 0 1
37.6845 0 1
37.8003 0 1
37.916 0 1
38.0316 0 1
38.1472 0 1
40.5851 0 1
40.7008 0 1
40.8164 0 1
40.9322 0 1
41.048 0 1
41.1639 0 1
41.2798 0 1
41.3958 0 1
41.5118 0 1
41.6279 0 1
41.744 1065 32.6343
41.8602 1192 34.5254
41.9765 1516 38.9358
42.0928 1645 40.5586
42.2091 1628 40.3485
42.3255 1675 40.9268
42.4419 1751 41.845
42.5584 1734 41.6413
42.675 1837 42.8602
42.7915 1961 44.2832
42.9081 1971 44.3959
43.0248 2069 45.4863
43.1415 2064 45.4313
43.2582 2130 46.1519
43.375 1972 44.4072
43.4918 2027 45.0222
43.6087 1972 44.4072
43.7256 2034 45.0999
43.8425 2092 45.7384
43.9595 2144 46.3033
44.0765 2117 46.0109
44.1935 1974 44.4297
44.3106 2077 45.5741
44.4277 1992 44.6318
44.5448 1999 44.7102
44.6619 1978 44.4747
44.7791 1911 43.715
44.8963 1818 42.638
45.0136 1870 43.2435
45.1308 1692 41.1339
45.2481 1762 41.9762
45.3654 1729 41.5812
45.4827 1765 42.0119
45.6001 1753 41.8688
45.7174 1727 41.5572
45.8348 1755 41.8927
45.9522 1748 41.8091
46.0697 1868 43.2204
46.1871 1908 43.6807
46.3046 2066 45.4533
46.422 2036 45.1221
46.5395 2088 45.6946
46.657 2127 46.1194
46.7745 2098 45.8039
46.892 1995 44.6654
47.0096 1853 43.0465
47.1271 1900 43.589
47.2446 1962 44.2945
47.3622 1992 44.6318
47.4797 2072 45.5192
47.5973 2000 44.7214
47.7149 2125 46.0977
47.8324 1955 44.2154
47.95 2006 44.7884
48.0675 1950 44.1588
48.1851 1956 44.2267
48.3027 1919 43.8064
48.4202 1899 43.5775
48.5378 1830 42.7785
48.6554 1763 41.9881
48.7729 1776 42.1426
48.8904 1785 42.2493
49.008 1702 41.2553
49.1255 1681 41
49.243 1714 41.4005
49.3605 1690 41.1096
49.478 1792 42.332
49.5955 1798 42.4028
49.713 1840 42.8952
49.8304 1950 44.1588
49.9479 1931 43.9431
50.0653 1901 43.6005
50.1827 1932 43.9545
50.3001 1875 43.3013
50.4175 1663 40.7799
50.5348 1659 40.7308
50.6521 1539 39.2301
50.7694 1796 42.3792
50.8867 1854 43.0581
51.004 1904 43.6348
51.1212 1995 44.6654
51.2384 2045 45.2217
51.3556 1876 43.3128
51.4727 1932 43.9545
51.5899 1875 43.3013
51.707 1864 43.1741
51.824 1864 43.1741
51.9411 1789 42.2966
52.0581 1854 43.0581
52.175 1812 42.5676
52.2919 1791 42.3202
52.4088 1795 42.3674
52.5257 1813 42.5793
52.6425 1697 41.1947
52.7593 1631 40.3856
52.876 1681 41
52.9927 1605 40.0625
53.1094 1598 39.975
53.226 1662 40.7676
53.3426 1784 42.2374
53.4591 1634 40.4228
53.5756 1580 39.7492
53.692 1389 37.2693
53.8084 1250 35.3553
53.9248 1149 33.8969
54.0411 1079 32.8481
54.1573 1033 32.1403
54.2735 0 1
54.3896 0 1
54.5057 0 1
54.6217 0 1
54.7377 0 1
54.8537 0 1
54.9695 0 1
55.0853 0 1
55.2011 0 1
55.3168 0 1
55.4324 0 1
57.824 0 1
57.9396 0 1
58.0553 0 1
58.1711 0 1
58.2869 0 1
58.4028 0 1
58.5187 0 1
58.6347 0 1
58.7508 0 1
58.8669 0 1
58.983 1544 39.2938
59.0992 1523 39.0256
59.2155 1519 38.9744
59.3318 1613 40.1622
59.4482 1744 41.7612
59.5646 1882 43.382
59.681 2058 45.3652
59.7975 2004 44.7661
59.9141 2111 45.9456
60.0306 2149 46.3573
60.1473 2144 46.3033
60.2639 2121 46.0543
60.3807 2079 45.5961
60.4974 2071 45.5082
60.6142 2206 46.9681
60.731 2114 45.9783
60.8479 2174 46.6262
60.9648 2113 45.9674
61.0818 2212 47.0319
61.1987 2079 45.5961
61.3158 2091 45.7275
61.4328 2027 45.0222
61.5499 2045 45.2217
61.667 1971 44.3959
61.7841 1962 44.2945
61.9013 2019 44.9333
62.0185 2052 45.299
62.1357 2152 46.3897
62.253 2146 46.3249
62.3702 2119 46.0326
62.4875 2047 45.2438
62.6049 1960 44.2719
62.7222 2000 44.7214
62.8396 1932 43.9545
62.9569 2054 45.3211
63.0743 2160 46.4758
63.1918 2210 47.0106
63.3092 2238 47.3075
63.4267 2241 47.3392
63.5441 2162 46.4973
63.6616 2164 46.5188
63.7791 2117 46.0109
63.8966 2186 46.7547
64.0142 2108 45.913
64.1317 2147 46.3357
64.2492 2122 46.0652
64.3668 2164 46.5188
64.4843 2154 46.4112
64.6019 2042 45.1885
64.7195 1955 44.2154
64.837 1998 44.699
64.9546 2009 44.8219
65.0722 1946 44.1135
65.1898 1953 44.1928
65.3074 1899 43.5775
65.4249 1992 44.6318
65.5425 1930 43.9318
65.6601 1978 44.4747
65.7777 2083 45.6399
65.8952 2036 45.1221
66.0128 2001 44.7325
66.1304 1878 43.3359
66.2479 1761 41.9643
66.3655 1789 42.2966
66.483 1891 43.4856
66.6005 2069 45.4863
66.718 2073 45.5302
66.8355 2157 46.4435
66.953 2080 45.607
67.0705 2024 44.9889
67.1879 2123 46.076
67.3054 2103 45.8585
67.4228 2007 44.7996
67.5402 2068 45.4753
67.6576 1994 44.6542
67.7749 2047 45.2438
67.8923 2008 44.8107
68.0096 2070 45.4973
68.1269 1932 43.9545
68.2442 2075 45.5522
68.3614 2025 45
68.4787 1915 43.7607
68.5958 1865 43.1856
68.713 1828 42.7551
68.8302 1852 43.0349
68.9473 1678 40.9634
69.0643 1905 43.6463
69.1814 1900 43.589
69.2984 1945 44.1022
69.4154 1846 42.9651
69.5323 1930 43.9318
69.6492 1925 43.8748
69.7661 1725 41.5331
69.8829 1579 39.7366
69.9997 1595 39.9375
70.1165 1688 41.0853
70.2332 1821 42.6732
70.3499 1749 41.821
70.4665 1570 39.6232
70.5831 1523 39.0256
70.6996 1457 38.1707
70.8161 1363 36.9188
70.9326 1312 36.2215
71.049 1283 35.819
71.1653 1172 34.2345
71.2817 1159 34.0441
71.3979 1112 33.3467
71.5141 1054 32.4654
71.6303 998 31.5911
71.7464 952 30.8545
71.8624 0 1
71.9784 0 1
72.0944 0 1
72.2102 0 1
72.3261 0 1
72.4418 0 1
72.5575 0 1
72.6732 0 1
75.1054 0 1
75.2209 0 1
75.3365 0 1
75.4521 0 1
75.5678 0 1
75.6835 0 1
75.7993 0 1
75.9151 0 1
76.031 0 1
76.147 1601 40.0125
76.263 1687 41.0731
76.3791 1792 42.332
76.4952 1748 41.8091
76.6113 1784 42.2374
76.7276 1771 42.0833
76.8438 1808 42.5206
76.9601 1821 42.6732
77.0765 1931 43.9431
77.1929 1906 43.6578
77.3093 2008 44.8107
77.4258 1894 43.5201
77.5423 1890 43.4741
77.6589 1791 42.3202
77.7755 1842 42.9185
77.8921 1797 42.391
78.0088 1838 42.8719
78.1256 1872 43.2666
78.2423 1861 43.1393
78.3591 1860 43.1277
78.4759 1957 44.238
78.5928 1990 44.6094
78.7097 1875 43.3013
78.8266 1618 40.2244
78.9436 1406 37.4967
79.0606 1387 37.2424
79.1776 1536 39.1918
79.2946 1750 41.833
79.4117 1858 43.1045
79.5288 2012 44.8553
79.6459 2009 44.8219
79.7631 1985 44.5533
79.8802 2053 45.31
79.9974 2002 44.7437
80.1147 1910 43.7035
80.2319 2065 45.4423
80.3491 1966 44.3396
80.4664 1921 43.8292
80.5837 1934 43.9773
80.701 2052 45.299
80.8183 2047 45.2438
80.9357 2154 46.4112
81.053 2111 45.9456
81.1704 2027 45.0222
81.2877 2019 44.9333
81.4051 1972 44.4072
81.5225 2026 45.0111
81.6399 1957 44.238
81.7573 1965 44.3283
81.8747 1929 43.9204
81.9922 1897 43.5546
82.1096 2063 45.4203
82.227 1961 44.2832
82.3444 1939 44.0341
82.4619 1809 42.5323
82.5793 1672 40.8901
82.6967 1515 38.923
82.8142 1694 41.1582
82.9316 1986 44.5646
83.049 2108 45.913
83.1664 2007 44.7996
83.2838 2087 45.6837
83.4012 2078 45.5851
83.5186 2103 45.8585
83.636 2086 45.6727
83.7534 2086 45.6727
83.8708 1986 44.5646
83.9881 2086 45.6727
84.1055 2106 45.8912
84.2228 2133 46.1844
84.3401 2203 46.9361
84.4575 2183 46.7226
84.5747 2249 47.4236
84.692 2162 46.4973
84.8093 2189 46.7868
84.9265 2158 46.4543
85.0437 2090 45.7165
85.1609 2150 46.3681
85.2781 2103 45.8585
85.3952 2093 45.7493
85.5123 2153 46.4004
85.6294 2093 45.7493
85.7465 2075 45.5522
85.8636 2048 45.2548
85.9806 1808 42.5206
86.0976 1701 41.2432
86.2145 1539 39.2301
86.3315 1594 39.9249
86.4484 1914 43.7493
86.5652 2121 46.0543
86.682 2128 46.1303
86.7988 2059 45.3762
86.9156 1984 44.5421
87.0323 1968 44.3621
87.149 2006 44.7884
87.2657 2055 45.3321
87.3823 1990 44.6094
87.4988 2016 44.8999
87.6154 1809 42.5323
87.7318 1836 42.8486
87.8483 1640 40.4969
87.9647 1687 41.0731
88.081 1652 40.6448
88.1973 1613 40.1622
88.3136 1524 39.0384
88.4298 1440 37.9473
88.546 1410 37.55
88.6621 1276 35.7211
88.7781 1288 35.8887
88.8942 0 1
89.0101 0 1
89.126 0 1
89.2419 0 1
89.3577 0 1
89.4734 0 1
89.5891 0 1
89.7047 0 1
89.8203 0 1
89.9358 0 1
92.3269 0 1
92.4424 0 1
92.558 0 1
92.6736 0 1
92.7893 0 1
92.905 0 1
93.0208 0 1
93.1366 0 1
93.2525 0 1
93.3685 0 1
93.4845 0 1
93.6005 2334 48.3115
93.7167 2369 48.6724
93.8328 2328 48.2494
93.949 2264 47.5815
94.0653 2279 47.7389
94.1816 2324 48.2079
94.2979 2358 48.5592
94.4143 2296 47.9166
94.5307 2306 48.0208
94.6472 2324 48.2079
94.7637 2341 48.3839
94.8803 2169 46.5725
94.9969 2150 46.3681
95.1135 1925 43.8748
95.2302 1945 44.1022
95.3469 2079 45.5961
95.4637 2310 48.0625
95.5805 2445 49.4469
95.6973 2469 49.689
95.8142 2444 49.4368
95.9311 2443 49.4267
96.048 2464 49.6387
96.1649 2438 49.3761
96.2819 2455 49.548
96.3989 2450 49.4975
96.516 2411 49.1019
96.633 2568 50.6754
96.7501 2537 50.3686
96.8673 2580 50.7937
96.9844 2735 52.2972
97.1016 2618 51.1664
97.2188 2578 50.774
97.336 2641 51.3907
97.4532 2470 49.6991
97.5704 2526 50.2593
97.6877 2571 50.705
97.805 2593 50.9215
97.9223 2629 51.2738
98.0396 2645 51.4296
98.1569 2543 50.4282
98.2743 2570 50.6952
98.3916 2479 49.7896
98.509 2219 47.1063
98.6264 2121 46.0543
98.7438 2100 45.8258
98.8612 2256 47.4974
98.9786 2396 48.949
99.096 2532 50.319
99.2134 2498 49.98
99.3308 2542 50.4183
99.4482 2579 50.7839
99.5656 2505 50.05
99.6831 2519 50.1896
99.8005 2570 50.6952
99.9179 2484 49.8397
100.035 2561 50.6063
100.153 2566 50.6557
100.27 2596 50.951
100.388 2681 51.7784
100.505 2700 51.9615
100.622 2803 52.9434
100.74 2731 52.259
100.857 2692 51.8845
100.975 2815 53.0566
101.092 2615 51.1371
101.209 2611 51.0979
101.327 2637 51.3517
101.444 2704 52
101.561 2680 51.7687
101.679 2642 51.4004
101.796 2760 52.5357
101.913 2620 51.1859
102.03 2419 49.1833
102.148 2323 48.1975
102.265 2093 45.7493
102.382 2173 46.6154
102.499 2230 47.2229
102.616 2521 50.2096
102.733 2583 50.8232
102.851 2416 49.1528
102.968 2528 50.2792
103.085 2514 50.1398
103.202 2472 49.7192
103.319 2445 49.4469
103.436 2408 49.0714
103.552 2514 50.1398
103.669 2449 49.4874
103.786 2439 49.3862
103.903 2391 48.8979
104.02 2410 49.0918
104.137 2416 49.1528
104.253 2574 50.7346
104.37 2432 49.3153
104.487 2432 49.3153
104.603 2289 47.8435
104.72 2351 48.4871
104.836 2132 46.1736
104.953 1988 44.587
105.069 1771 42.0833
105.186 1689 41.0974
105.302 1456 38.1576
105.418 1451 38.092
105.535 1357 36.8375
105.651 1152 33.9411
105.767 1096 33.1059
105.883 833 28.8617
105.999 794 28.178
106.115 0 1
106.231 0 1
106.347 0 1
106.463 0 1
106.579 0 1
106.694 0 1
106.81 0 1
106.926 0 1
107.041 0 1
107.157 0 1
109.576 0 1
109.692 0 1
109.807 0 1
109.923 0 1
110.039 0 1
110.155 0 1
110.27 0 1
110.386 0 1
110.502 0 1
110.618 2496 49.96
110.735 2623 51.2152
110.851 2623 51.2152
110.967 2363 48.6107
111.083 2203 46.9361
111.199 2364 48.621
111.316 2581 50.8035
111.432 2786 52.7826
111.549 2695 51.9134
111.665 2714 52.0961
111.782 2736 52.3068
111.898 2778 52.7067
112.015 2705 52.0096
112.132 2692 51.8845
112.248 2668 51.6527
112.365 2674 51.7107
112.482 2640 51.3809
112.599 2812 53.0283
112.716 2870 53.5724
112.832 2913 53.9722
112.949 3078 55.4797
113.066 3075 55.4527
113.183 3122 55.8749
113.3 3014 54.8999
113.417 3093 55.6147
113.534 3059 55.3082
113.652 2999 54.7631
113.769 2995 54.7266
113.886 2986 54.6443
114.003 2905 53.8981
114.12 3122 55.8749
114.238 2947 54.2863
114.355 2849 53.376
114.472 2617 51.1566
114.589 2471 49.7092
114.707 2583 50.8232
114.824 2599 50.9804
114.942 2769 52.6213
115.059 2910 53.9444
115.176 2896 53.8145
115.294 2836 53.2541
115.411 2922 54.0555
115.529 2831 53.2071
115.646 2681 51.7784
115.764 2775 52.6783
115.881 2719 52.144
115.999 2692 51.8845
116.116 2751 52.45
116.234 2961 54.4151
116.351 3035 55.0908
116.469 3015 54.909
116.586 3104 55.7136
116.704 3281 57.28
116.821 3150 56.1249
116.939 3204 56.6039
117.056 3123 55.8838
117.174 3157 56.1872
117.291 2982 54.6077
117.409 3075 55.4527
117.526 3161 56.2228
117.644 3099 55.6687
117.761 3041 55.1453
117.879 3072 55.4256
117.996 2803 52.9434
118.114 2671 51.6817
118.231 2497 49.97
118.349 2600 50.9902
118.466 2672 51.6914
118.584 2860 53.479
118.701 2776 52.6878
118.819 2844 53.3292
118.936 2890 53.7587
119.053 2815 53.0566
119.171 2761 52.5452
119.288 2801 52.9245
119.405 2719 52.144
119.523 2766 52.5928
119.64 2665 51.6236
119.757 2761 52.5452
119.875 2639 51.3712
119.992 2833 53.2259
120.109 2877 53.6377
120.226 3043 55.1634
120.343 3115 55.8122
120.46 2975 54.5436
120.578 3027 55.0182
120.695 2845 53.3385
120.812 2885 53.7122
120.929 2784 52.7636
121.046 2791 52.8299
121.163 2868 53.5537
121.279 2899 53.8424
121.396 2833 53.2259
121.513 2717 52.1249
121.63 2625 51.2348
121.747 2413 49.1223
121.863 2157 46.4435
121.98 2088 45.6946
122.097 1989 44.5982
122.213 2003 44.7549
122.33 2105 45.8803
122.446 2028 45.0333
122.563 1956 44.2267
122.679 1952 44.1814
122.795 1749 41.821
122.912 1742 41.7373
123.028 1692 41.1339
123.144 1666 40.8167
123.26 1689 41.0974
123.377 0 1
123.493 0 1
123.609 0 1
123.725 0 1
123.84 0 1
123.956 0 1
124.072 0 1
124.188 0 1
124.303 0 1
124.419 0 1
126.852 0 1
126.968 0 1
127.083 0 1
127.199 0 1
127.315 0 1
127.431 0 1
127.547 0 1
127.663 0 1
127.779 0 1
127.895 0 1
128.011 0 1
128.127 0 1
128.243 0 1
128.359 3334 57.7408
128.476 3249 57
128.592 3270 57.1839
128.708 3309 57.5239
128.825 3384 58.1722
128.941 3351 57.8878
129.058 3375 58.0948
129.174 3390 58.2237
129.291 3507 59.2199
129.408 3616 60.1332
129.524 3637 60.3075
129.641 3788 61.5467
129.758 3992 63.1823
129.875 3879 62.2816
129.992 3980 63.0872
130.108 3755 61.2781
130.225 3988 63.1506
130.342 4095 63.9922
130.459 3866 62.1772
130.576 3984 63.1189
130.693 3674 60.6135
130.81 3645 60.3738
130.928 3539 59.4895
131.045 3608 60.0666
131.162 3746 61.2046
131.279 3870 62.2093
131.396 3847 62.0242
131.513 3868 62.1932
131.631 3708 60.8933
131.748 3842 61.9839
131.865 3793 61.5873
131.983 3657 60.4731
132.1 3633 60.2744
132.217 3661 60.5062
132.335 3678 60.6465
132.452 3603 60.025
132.57 3710 60.9098
132.687 3556 59.6322
132.804 3839 61.9597
132.922 3766 61.3677
133.039 3776 61.4492
133.157 3804 61.6766
133.274 3912 62.546
133.392 4049 63.6318
133.509 4034 63.5138
133.627 4202 64.8228
133.744 4306 65.6201
133.862 4192 64.7457
133.979 4291 65.5057
134.097 4183 64.6761
134.214 4262 65.284
134.332 4020 63.4035
134.449 3924 62.6418
134.567 3999 63.2376
134.684 4122 64.2028
134.802 4088 63.9375
134.919 4187 64.707
135.037 4251 65.1997
135.154 4102 64.0469
135.272 4053 63.6632
135.389 4056 63.6867
135.507 4037 63.5374
135.624 4008 63.3088
135.742 3889 62.3618
135.859 3833 61.9112
135.977 3884 62.3217
136.094 3860 62.1289
136.211 3755 61.2781
136.329 3834 61.9193
136.446 3929 62.6817
136.564 3919 62.6019
136.681 3880 62.2896
136.798 3960 62.9285
136.915 3971 63.0159
137.033 3943 62.7933
137.15 4053 63.6632
137.267 4025 63.4429
137.384 4068 63.7809
137.502 4074 63.8279
137.619 4108 64.0937
137.736 3999 63.2376
137.853 3990 63.1664
137.97 3908 62.514
138.087 3799 61.636
138.204 3805 61.6847
138.321 3902 62.466
138.438 3844 62
138.555 3979 63.0793
138.672 3984 63.1189
138.788 3944 62.8013
138.905 3828 61.8708
139.022 3698 60.8112
139.139 3566 59.716
139.255 3521 59.338
139.372 3212 56.6745
139.488 3113 55.7943
139.605 2969 54.4885
139.721 2855 53.4322
139.838 2867 53.5444
139.954 2683 51.7977
140.071 2668 51.6527
140.187 2751 52.45
140.303 2604 51.0294
140.419 2636 51.342
140.535 2684 51.8073
140.652 2660 51.5752
140.768 0 1
140.884 0 1
141 0 1
141.115 0 1
141.231 0 1
141.347 0 1
141.463 0 1
141.578 0 1
141.694 0 1
144.104 0 1
144.219 0 1
144.335 0 1
144.45 0 1
144.566 0 1
144.682 0 1
144.798 0 1
144.914 0 1
145.03 0 1
145.146 3703 60.8523
145.262 3934 62.7216
145.378 3991 63.1744
145.494 3945 62.8092
145.61 4094 63.9844
145.726 3982 63.1031
145.842 4108 64.0937
145.959 4255 65.2304
146.075 4046 63.6082
146.192 4021 63.4114
146.308 4144 64.3739
146.425 3921 62.6179
146.541 3890 62.3699
146.658 3671 60.5888
146.774 3375 58.0948
146.891 3321 57.6281
147.008 3299 57.4369
147.125 3525 59.3717
147.241 3766 61.3677
147.358 3829 61.8789
147.475 3893 62.3939
147.592 4003 63.2693
147.709 3939 62.7615
147.826 3887 62.3458
147.943 3921 62.6179
148.06 3990 63.1664
148.177 4064 63.7495
148.294 4067 63.773
148.411 4068 63.7809
148.528 4047 63.616
148.645 4029 63.4744
148.762 4091 63.9609
148.88 4042 63.5767
148.997 4046 63.6082
149.114 4388 66.242
149.231 4308 65.6354
149.349 4323 65.7495
149.466 4178 64.6375
149.583 4295 65.5362
149.701 4256 65.238
149.818 4232 65.0538
149.935 4173 64.5988
150.053 4288 65.4828
150.17 4083 63.8984
150.287 3886 62.3378
150.405 3578 59.8164
150.522 3510 59.2453
150.64 3424 58.515
150.757 3455 58.7792
150.875 3464 58.8558
150.992 3473 58.9322
151.11 3308 57.5152
151.227 3397 58.2838
151.344 3274 57.2189
151.462 3020 54.9545
151.579 3155 56.1694
151.697 3152 56.1427
151.814 3292 57.376
151.932 3164 56.2494
152.049 3349 57.8705
152.167 3218 56.7274
152.284 3254 57.0438
152.402 3316 57.5847
152.519 3515 59.2874
152.636 3461 58.8303
152.754 3511 59.2537
152.871 3560 59.6657
152.989 3701 60.8358
153.106 3686 60.7124
153.223 3698 60.8112
153.341 3741 61.1637
153.458 3790 61.563
153.575 3837 61.9435
153.693 3897 62.426
153.81 3758 61.3025
153.927 3719 60.9836
154.044 3560 59.6657
154.162 3522 59.3464
154.279 3497 59.1354
154.396 3615 60.1249
154.513 3692 60.7618
154.63 3764 61.3514
154.747 3700 60.8276
154.864 3658 60.4814
154.981 3623 60.1914
155.098 3515 59.2874
155.215 3371 58.0603
155.332 3146 56.0892
155.449 3057 55.2901
155.566 2866 53.535
155.683 2831 53.2071
155.8 2631 51.2933
155.917 2576 50.7543
156.033 2362 48.6004
156.15 0 1
156.267 0 1
156.383 0 1
156.5 0 1
156.617 0 1
156.733 0 1
156.85 0 1
156.966 0 1
157.082 0 1
157.199 0 1
157.315 0 1
157.431 0 1
157.547 0 1
157.664 0 1
157.78 0 1
157.896 0 1
158.012 0 1
158.128 0 1
158.244 0 1
158.359 0 1
158.475 0 1
158.591 0 1
158.706 0 1
