
6.15755 0 1
6.2731 0 1
6.3887 0 1
6.50437 0 1
6.62009 0 1
6.73587 0 1
6.8517 0 1
6.96759 0 1
7.08353 0 1
7.19952 0 1
7.31557 0 1
7.43166 0 1
7.54781 0 1
7.664 0 1
7.78024 0 1
7.89653 0 1
8.01286 0 1
8.12924 0 1
8.24567 0 1
8.36213 0 1
8.47864 0 1
8.59519 0 1
8.71178 0 1
8.82841 0 1
8.94508 0 1
9.06179 0 1
9.17853 0 1
9.29531 0 1
9.41212 0 1
9.52897 0 1
9.64584 0 1
9.76276 0 1
9.8797 0 1
9.99667 0 1
10.1137 0 1
10.2307 0 1
10.3478 0 1
10.4648 0 1
10.5819 0 1
10.6991 0 1
10.8162 0 1
10.9334 0 1
11.0506 0 1
11.1678 0 1
11.285 0 1
11.4023 0 1
11.5196 0 1
11.6369 0 1
11.7542 0 1
11.8715 0 1
11.9888 0 1
12.1062 0 1
12.2235 0 1
12.3409 0 1
12.4582 0 1
12.5756 0 1
12.693 0 1
12.8104 0 1
12.9278 0 1
13.0452 0 1
13.1626 0 1
13.28 0 1
13.3974 0 1
13.5149 0 1
13.6323 0 1
13.7497 0 1
13.8671 0 1
13.9845 0 1
14.1019 0 1
14.2193 0 1
14.3367 0 1
14.4541 0 1
14.5714 0 1
14.6888 0 1
14.8062 0 1
14.9235 0 1
15.0408 8668 93.1021
15.1581 8953 94.6203
15.2755 9105 95.4201
15.3927 9363 96.7626
15.51 9208 95.9583
15.6273 9154 95.6765
15.7445 9134 95.572
15.8617 9039 95.0737
15.9789 8623 92.8601
16.0961 8715 93.3542
16.2132 8558 92.5095
16.3304 8632 92.9086
16.4475 8814 93.8829
16.5646 9032 95.0368
16.6816 9362 96.7574
16.7986 9122 95.5092
16.9156 9107 95.4306
17.0326 9030 95.0263
17.1496 8943 94.5674
17.2665 9070 95.2365
17.3833 8806 93.8403
17.5002 8535 92.3851
17.617 8470 92.0326
17.7338 8510 92.2497
17.8505 8524 92.3255
17.9672 8858 94.1169
18.0839 9162 95.7183
18.2005 9535 97.6473
18.3171 9584 97.8979
18.4337 10016 100.08
18.5502 10043 100.215
18.6666 10232 101.153
18.7831 10183 100.911
18.8994 10006 100.03
19.0158 9718 98.5799
19.1321 9592 97.9388
19.2483 9170 95.7601
19.3645 9204 95.9375
19.4806 8759 93.5895
19.5967 8105 90.0278
19.7128 8043 89.6828
19.8288 8282 91.0055
19.9447 7322 85.5687
20.0606 0 1
20.1764 0 1
20.2922 0 1
20.4079 0 1
20.5236 0 1
20.6392 0 1
20.7548 0 1
20.8702 0 1
23.3078 0 1
23.4233 0 1
23.539 0 1
23.6547 0 1
23.7704 0 1
23.8862 0 1
24.0021 0 1
24.118 0 1
24.234 0 1
24.35 0 1
24.4661 8533 92.3742
24.5822 8502 92.2063
24.6984 8411 91.7115
24.8146 8094 89.9667
24.9309 8346 91.3564
25.0472 8547 92.45
25.1636 8621 92.8493
25.28 8907 94.3769
25.3965 9181 95.8175
25.513 9470 97.3139
25.6296 9470 97.3139
25.7462 9676 98.3667
25.8628 9567 97.811
25.9795 9518 97.5602
26.0962 9210 95.9687
26.213 8768 93.6376
26.3298 8601 92.7416
26.4466 8387 91.5806
26.5635 8433 91.8314
26.6804 8657 93.043
26.7973 9124 95.5196
26.9143 9117 95.483
27.0313 9330 96.5919
27.1483 9527 97.6064
27.2653 9552 97.7343
27.3824 9584 97.8979
27.4996 9723 98.6053
27.6167 9534 97.6422
27.7339 9325 96.566
27.8511 9023 94.9895
27.9683 9065 95.2103
28.0855 8918 94.4352
28.2028 8786 93.7337
28.3201 8265 90.912
28.4374 7881 88.775
28.5547 8101 90.0056
28.6721 8154 90.2995
28.7894 8611 92.7955
28.9068 8837 94.0053
29.0242 8979 94.7576
29.1416 9147 95.6399
29.259 9201 95.9218
29.3764 8902 94.3504
29.4939 8915 94.4193
29.6113 8639 92.9462
29.7288 8185 90.471
29.8463 8072 89.8443
29.9638 8029 89.6047
30.0812 8092 89.9555
30.1987 8113 90.0722
30.3162 8527 92.3418
30.4337 8636 92.9301
30.5512 8816 93.8936
30.6687 9108 95.4358
30.7862 9283 96.3483
30.9037 9099 95.3887
31.0212 9360 96.7471
31.1387 9242 96.1353
31.2562 9066 95.2155
31.3737 9093 95.3572
31.4912 8812 93.8723
31.6087 8657 93.043
31.7262 8501 92.2009
31.8436 8285 91.022
31.9611 7968 89.2637
32.0785 7849 88.5946
32.1959 8075 89.861
32.3134 8108 90.0444
32.4308 8389 91.5915
32.5482 8735 93.4612
32.6655 8806 93.8403
32.7829 8709 93.322
32.9002 8637 92.9355
33.0176 8546 92.4446
33.1349 8764 93.6162
33.2522 8464 92
33.3694 8240 90.7744
33.4867 8025 89.5824
33.6039 7880 88.7694
33.7211 7783 88.2213
33.8383 7970 89.2749
33.9554 7948 89.1516
34.0725 8051 89.7274
34.1896 8443 91.8858
34.3067 8492 92.152
34.4237 8772 93.659
34.5407 8754 93.5628
34.6577 8974 94.7312
34.7746 8705 93.3006
34.8915 8961 94.6626
35.0084 8679 93.1612
35.1252 8654 93.0269
35.242 8398 91.6406
35.3587 8284 91.0165
35.4755 8043 89.6828
35.5921 7877 88.7525
35.7088 7753 88.0511
35.8254 7504 86.6256
35.9419 7576 87.0402
36.0584 7794 88.2836
36.1749 7942 89.1179
36.2913 8083 89.9055
36.4077 8146 90.2552
36.524 8380 91.5423
36.6403 8253 90.846
36.7565 8442 91.8804
36.8727 8290 91.0494
36.9889 8133 90.1831
37.1049 7711 87.8123
37.221 0 1
37.3369 0 1
37.4529 0 1
37.5687 0 1
37.6845 0 1
37.8003 0 1
37.916 0 1
38.0316 0 1
38.1472 0 1
40.5851 0 1
40.7008 0 1
40.8164 0 1
40.9322 0 1
41.048 0 1
41.1639 0 1
41.2798 0 1
41.3958 0 1
41.5118 0 1
41.6279 0 1
41.744 6507 80.666
41.8602 6903 83.0843
41.9765 7152 84.5695
42.0928 7283 85.3405
42.2091 7000 83.666
42.3255 6853 82.7828
42.4419 6540 80.8703
42.5584 6499 80.6164
42.675 6388 79.925
42.7915 6518 80.7341
42.9081 6671 81.6762
43.0248 6786 82.3772
43.1415 6973 83.5045
43.2582 6909 83.1204
43.375 6930 83.2466
43.4918 7086 84.1784
43.6087 6986 83.5823
43.7256 7093 84.22
43.8425 6957 83.4086
43.9595 6642 81.4985
44.0765 6712 81.9268
44.1935 6517 80.7279
44.3106 6505 80.6536
44.4277 6018 77.5758
44.5448 6030 77.6531
44.6619 5422 73.6342
44.7791 5268 72.581
44.8963 5325 72.9726
45.0136 5432 73.7021
45.1308 5474 73.9865
45.2481 5616 74.94
45.3654 5734 75.7232
45.4827 5573 74.6525
45.6001 5587 74.7462
45.7174 5615 74.9333
45.8348 5555 74.5319
45.9522 5394 73.4439
46.0697 5106 71.4563
46.1871 5041 71
46.3046 4924 70.1712
46.422 5026 70.8943
46.5395 5079 71.2671
46.657 5228 72.3049
46.7745 5156 71.8053
46.892 5220 72.2496
47.0096 5467 73.9392
47.1271 5273 72.6154
47.2446 5297 72.7805
47.3622 5320 72.9383
47.4797 5150 71.7635
47.5973 5200 72.111
47.7149 5026 70.8943
47.8324 4930 70.214
47.95 4792 69.2243
48.0675 4633 68.0661
48.1851 4519 67.2235
48.3027 4331 65.8103
48.4202 4348 65.9394
48.5378 4393 66.2797
48.6554 4405 66.3702
48.7729 4724 68.7314
48.8904 4867 69.7639
49.008 4932 70.2282
49.1255 4823 69.4478
49.243 4998 70.6965
49.3605 4842 69.5845
49.478 4764 69.0217
49.5955 4749 68.913
49.713 4438 66.6183
49.8304 4321 65.7343
49.9479 4639 68.1102
50.0653 4854 69.6707
50.1827 5027 70.9013
50.3001 5252 72.4707
50.4175 5428 73.675
50.5348 5443 73.7767
50.6521 5570 74.6324
50.7694 5771 75.9671
50.8867 5833 76.3741
51.004 5718 75.6175
51.1212 5892 76.7594
51.2384 6067 77.8909
51.3556 6090 78.0385
51.4727 6051 77.7882
51.5899 5917 76.922
51.707 5735 75.7298
51.824 5601 74.8398
51.9411 5869 76.6094
52.0581 5780 76.0263
52.175 6227 78.9113
52.2919 6484 80.5233
52.4088 6786 82.3772
52.5257 6816 82.5591
52.6425 6991 83.6122
52.7593 7281 85.3288
52.876 7386 85.9418
52.9927 7351 85.738
53.1094 7177 84.7172
53.226 6945 83.3367
53.3426 6767 82.2618
53.4591 6634 81.4494
53.5756 6795 82.4318
53.692 7194 84.8175
53.8084 7470 86.4292
53.9248 7890 88.8257
54.0411 7992 89.398
54.1573 7992 89.398
54.2735 0 1
54.3896 0 1
54.5057 0 1
54.6217 0 1
54.7377 0 1
54.8537 0 1
54.9695 0 1
55.0853 0 1
55.2011 0 1
55.3168 0 1
55.4324 0 1
57.824 0 1
57.9396 0 1
58.0553 0 1
58.1711 0 1
58.2869 0 1
58.4028 0 1
58.5187 0 1
58.6347 0 1
58.7508 0 1
58.8669 0 1
58.983 8990 94.8156
59.0992 9398 96.9433
59.2155 10020 100.1
59.3318 10097 100.484
59.4482 10177 100.881
59.5646 10255 101.267
59.681 10279 101.385
59.7975 10373 101.848
59.9141 10201 101
60.0306 10204 101.015
60.1473 10076 100.379
60.2639 9738 98.6813
60.3807 9522 97.5807
60.4974 8984 94.784
60.6142 8782 93.7123
60.731 8620 92.844
60.8479 8712 93.3381
60.9648 8696 93.2523
61.0818 9255 96.2029
61.1987 9505 97.4936
61.3158 9515 97.5449
61.4328 9593 97.9439
61.5499 9724 98.6103
61.667 9796 98.9747
61.7841 9308 96.478
61.9013 9069 95.2313
62.0185 8485 92.1141
62.1357 8370 91.4877
62.253 8220 90.6642
62.3702 8655 93.0323
62.4875 8798 93.7977
62.6049 9202 95.9271
62.7222 8938 94.541
62.8396 9520 97.5705
62.9569 9165 95.734
63.0743 9581 97.8826
63.1918 9328 96.5816
63.3092 9471 97.3191
63.4267 9363 96.7626
63.5441 9059 95.1788
63.6616 9047 95.1157
63.7791 8942 94.5621
63.8966 8484 92.1086
64.0142 8292 91.0604
64.1317 7882 88.7806
64.2492 7936 89.0842
64.3668 7786 88.2383
64.4843 7922 89.0056
64.6019 8341 91.3291
64.7195 8497 92.1792
64.837 8666 93.0914
64.9546 8713 93.3435
65.0722 9084 95.31
65.1898 9073 95.2523
65.3074 9206 95.9479
65.4249 8690 93.2202
65.5425 8378 91.5314
65.6601 7862 88.6679
65.7777 7796 88.295
65.8952 7612 87.2468
66.0128 8096 89.9778
66.1304 8533 92.3742
66.2479 8688 93.2094
66.3655 8865 94.1541
66.483 8864 94.1488
66.6005 9197 95.901
66.718 9348 96.6851
66.8355 9425 97.0824
66.953 9236 96.1041
67.0705 9226 96.0521
67.1879 9099 95.3887
67.3054 9029 95.0211
67.4228 9112 95.4568
67.5402 8856 94.1063
67.6576 8461 91.9837
67.7749 7948 89.1516
67.8923 7880 88.7694
68.0096 8049 89.7162
68.1269 8260 90.8845
68.2442 8487 92.1249
68.3614 8823 93.9308
68.4787 9073 95.2523
68.5958 9332 96.6023
68.713 9523 97.5859
68.8302 9467 97.2985
68.9473 9923 99.6143
69.0643 9466 97.2934
69.1814 9105 95.4201
69.2984 8751 93.5468
69.4154 8403 91.6679
69.5323 8221 90.6697
69.6492 8305 91.1318
69.7661 9072 95.247
69.8829 9374 96.8194
69.9997 9550 97.7241
70.1165 9651 98.2395
70.2332 9873 99.363
70.3499 9828 99.1363
70.4665 10072 100.359
70.5831 10021 100.105
70.6996 10172 100.856
70.8161 9905 99.5239
70.9326 9699 98.4835
71.049 9728 98.6306
71.1653 9696 98.4683
71.2817 9287 96.3691
71.3979 8497 92.1792
71.5141 8094 89.9667
71.6303 7880 88.7694
71.7464 7580 87.0632
71.8624 0 1
71.9784 0 1
72.0944 0 1
72.2102 0 1
72.3261 0 1
72.4418 0 1
72.5575 0 1
72.6732 0 1
75.1054 0 1
75.2209 0 1
75.3365 0 1
75.4521 0 1
75.5678 0 1
75.6835 0 1
75.7993 0 1
75.9151 0 1
76.031 0 1
76.147 8773 93.6643
76.263 9546 97.7036
76.3791 9571 97.8315
76.4952 9392 96.9123
76.6113 8964 94.6784
76.7276 8476 92.0652
76.8438 8204 90.5759
76.9601 8388 91.586
77.0765 8526 92.3363
77.1929 8847 94.0585
77.3093 9354 96.7161
77.4258 9422 97.067
77.5423 9845 99.222
77.6589 9915 99.5741
77.7755 10173 100.861
77.8921 10156 100.777
78.0088 9645 98.209
78.1256 9175 95.7862
78.2423 8673 93.1289
78.3591 8405 91.6788
78.4759 7934 89.073
78.5928 8169 90.3825
78.7097 8710 93.3274
78.8266 9075 95.2628
78.9436 9710 98.5393
79.0606 9841 99.2018
79.1776 9868 99.3378
79.2946 9867 99.3328
79.4117 9936 99.6795
79.5288 9925 99.6243
79.6459 10022 100.11
79.7631 9823 99.111
79.8802 9820 99.0959
79.9974 9697 98.4733
80.1147 9731 98.6458
80.2319 9404 96.9742
80.3491 8839 94.016
80.4664 8307 91.1427
80.5837 8489 92.1358
80.701 8489 92.1358
80.8183 8770 93.6483
80.9357 9170 95.7601
81.053 9479 97.3602
81.1704 9640 98.1835
81.2877 9798 98.9848
81.4051 10088 100.439
81.5225 10327 101.622
81.6399 9925 99.6243
81.7573 9760 98.7927
81.8747 9050 95.1315
81.9922 8412 91.717
82.1096 8202 90.5649
82.227 8181 90.4489
82.3444 8509 92.2442
82.4619 9030 95.0263
82.5793 9687 98.4226
82.6967 9565 97.8008
82.8142 9751 98.7472
82.9316 9738 98.6813
83.049 9871 99.3529
83.1664 10022 100.11
83.2838 9977 99.8849
83.4012 10152 100.757
83.5186 9989 99.945
83.636 10181 100.901
83.7534 9669 98.3311
83.8708 9391 96.9072
83.9881 8894 94.308
84.1055 8408 91.6951
84.2228 8566 92.5527
84.3401 8654 93.0269
84.4575 8809 93.8563
84.5747 9303 96.4521
84.692 9619 98.0765
84.8093 10160 100.797
84.9265 10464 102.294
85.0437 10546 102.694
85.1609 10511 102.523
85.2781 10103 100.514
85.3952 9576 97.857
85.5123 9139 95.5981
85.6294 8500 92.1954
85.7465 8312 91.1702
85.8636 8827 93.9521
85.9806 9132 95.5615
86.0976 9737 98.6762
86.2145 10179 100.891
86.3315 10185 100.921
86.4484 10492 102.43
86.5652 10898 104.393
86.682 10653 103.213
86.7988 10587 102.893
86.9156 11030 105.024
87.0323 10768 103.769
87.149 10513 102.533
87.2657 10647 103.184
87.3823 10375 101.858
87.4988 10001 100.005
87.6154 9405 96.9794
87.7318 9184 95.8332
87.8483 9143 95.619
87.9647 9250 96.1769
88.081 9733 98.656
88.1973 10106 100.529
88.3136 10162 100.807
88.4298 10664 103.267
88.546 10910 104.451
88.6621 11245 106.042
88.7781 10887 104.341
88.8942 0 1
89.0101 0 1
89.126 0 1
89.2419 0 1
89.3577 0 1
89.4734 0 1
89.5891 0 1
89.7047 0 1
89.8203 0 1
89.9358 0 1
92.3269 0 1
92.4424 0 1
92.558 0 1
92.6736 0 1
92.7893 0 1
92.905 0 1
93.0208 0 1
93.1366 0 1
93.2525 0 1
93.3685 0 1
93.4845 0 1
93.6005 9800 98.9949
93.7167 10045 100.225
93.8328 10405 102.005
93.949 10475 102.347
94.0653 10232 101.153
94.1816 9997 99.985
94.2979 9534 97.6422
94.4143 9037 95.0631
94.5307 8492 92.152
94.6472 8267 90.923
94.7637 8602 92.747
94.8803 9059 95.1788
94.9969 9377 96.8349
95.1135 9739 98.6864
95.2302 9729 98.6357
95.3469 9911 99.554
95.4637 10097 100.484
95.5805 10296 101.469
95.6973 10388 101.922
95.8142 10494 102.44
95.9311 10365 101.809
96.048 10389 101.926
96.1649 10279 101.385
96.2819 10313 101.553
96.3989 9798 98.9848
96.516 9657 98.27
96.633 9098 95.3834
96.7501 8716 93.3595
96.8673 8571 92.5797
96.9844 8947 94.5886
97.1016 9049 95.1262
97.2188 9189 95.8593
97.336 9674 98.3565
97.4532 9846 99.227
97.5704 10102 100.509
97.6877 10300 101.489
97.805 10141 100.703
97.9223 9886 99.4284
98.0396 9367 96.7833
98.1569 9097 95.3782
98.2743 8465 92.0054
98.3916 8250 90.8295
98.509 8560 92.5203
98.6264 8992 94.8262
98.7438 9335 96.6178
98.8612 9677 98.3717
98.9786 9757 98.7775
99.096 9879 99.3932
99.2134 9765 98.818
99.3308 10048 100.24
99.4482 10038 100.19
99.5656 9950 99.7497
99.6831 10002 100.01
99.8005 9864 99.3177
99.9179 9785 98.9192
100.035 9437 97.1442
100.153 9368 96.7884
100.27 8795 93.7817
100.388 8348 91.3674
100.505 8331 91.2743
100.622 8629 92.8924
100.74 8764 93.6162
100.857 9145 95.6295
100.975 9723 98.6053
101.092 9844 99.2169
101.209 9952 99.7597
101.327 10327 101.622
101.444 10187 100.931
101.561 9840 99.1968
101.679 9622 98.0918
101.796 8861 94.1329
101.913 8332 91.2798
102.03 8366 91.4658
102.148 8863 94.1435
102.265 8514 92.2713
102.382 10314 101.558
102.499 9964 99.8198
102.616 10086 100.429
102.733 10490 102.421
102.851 10372 101.843
102.968 10683 103.359
103.085 10454 102.245
103.202 10553 102.728
103.319 10588 102.898
103.436 10485 102.396
103.552 10347 101.72
103.669 10139 100.693
103.786 9648 98.2242
103.903 9192 95.8749
104.02 9002 94.8789
104.137 9225 96.0469
104.253 9581 97.8826
104.37 9845 99.222
104.487 10342 101.696
104.603 10859 104.207
104.72 10775 103.803
104.836 10728 103.576
104.953 10984 104.805
105.069 10472 102.333
105.186 9712 98.5495
105.302 9109 95.4411
105.418 8871 94.186
105.535 8846 94.0532
105.651 9393 96.9175
105.767 9855 99.2724
105.883 10195 100.97
105.999 10249 101.237
106.115 0 1
106.231 0 1
106.347 0 1
106.463 0 1
106.579 0 1
106.694 0 1
106.81 0 1
106.926 0 1
107.041 0 1
107.157 0 1
109.576 0 1
109.692 0 1
109.807 0 1
109.923 0 1
110.039 0 1
110.155 0 1
110.27 0 1
110.386 0 1
110.502 0 1
110.618 7754 88.0568
110.735 8474 92.0543
110.851 8906 94.3716
110.967 9084 95.31
111.083 9329 96.5867
111.199 9426 97.0876
111.316 9697 98.4733
111.432 9664 98.3056
111.549 9767 98.8281
111.665 9704 98.5089
111.782 9503 97.4833
111.898 9450 97.2111
112.015 9295 96.4106
112.132 9226 96.0521
112.248 8748 93.5307
112.365 8388 91.586
112.482 7957 89.202
112.599 7670 87.5785
112.716 7951 89.1684
112.832 8133 90.1831
112.949 8414 91.7279
113.066 8456 91.9565
113.183 8755 93.5682
113.3 8926 94.4775
113.417 9045 95.1052
113.534 8822 93.9255
113.652 8857 94.1116
113.769 8047 89.7051
113.886 7581 87.0689
114.003 7121 84.386
114.12 7155 84.5872
114.238 7392 85.9767
114.355 7797 88.3006
114.472 8036 89.6437
114.589 7929 89.0449
114.707 8283 91.011
114.824 8202 90.5649
114.942 8307 91.1427
115.059 8169 90.3825
115.176 8247 90.813
115.294 8083 89.9055
115.411 7788 88.2496
115.529 7666 87.5557
115.646 7431 86.2032
115.764 7317 85.5395
115.881 6811 82.5288
115.999 6611 81.3081
116.116 6462 80.3866
116.234 6368 79.7997
116.351 6474 80.4612
116.469 6455 80.343
116.586 6821 82.5893
116.704 7094 84.2259
116.821 6832 82.6559
116.939 7125 84.4097
117.056 7242 85.0999
117.174 7055 83.994
117.291 6842 82.7164
117.409 6447 80.2932
117.526 6135 78.3262
117.644 5947 77.1168
117.761 5905 76.844
117.879 6284 79.2717
117.996 6457 80.3555
118.114 6867 82.8674
118.231 6896 83.0422
118.349 6905 83.0963
118.466 7102 84.2734
118.584 7314 85.5219
118.701 7161 84.6227
118.819 7234 85.0529
118.936 7085 84.1724
119.053 7110 84.3208
119.171 7100 84.2615
119.288 6800 82.4621
119.405 6772 82.2922
119.523 6515 80.7155
119.64 6307 79.4166
119.757 6233 78.9494
119.875 6392 79.95
119.992 6600 81.2404
120.109 6910 83.1264
120.226 6914 83.1505
120.343 7156 84.5931
120.46 7357 85.773
120.578 7589 87.1149
120.695 7756 88.0682
120.812 7684 87.6584
120.929 7599 87.1722
121.046 7266 85.2408
121.163 6868 82.8734
121.279 6691 81.7985
121.396 6507 80.666
121.513 6915 83.1565
121.63 7286 85.3581
121.747 7715 87.8351
121.863 7971 89.2805
121.98 8135 90.1942
122.097 8144 90.2441
122.213 8398 91.6406
122.33 8519 92.2984
122.446 8399 91.6461
122.563 8369 91.4822
122.679 8378 91.5314
122.795 8452 91.9348
122.912 8264 90.9065
123.028 8084 89.9111
123.144 7881 88.775
123.26 7746 88.0114
123.377 0 1
123.493 0 1
123.609 0 1
123.725 0 1
123.84 0 1
123.956 0 1
124.072 0 1
124.188 0 1
124.303 0 1
124.419 0 1
126.852 0 1
126.968 0 1
127.083 0 1
127.199 0 1
127.315 0 1
127.431 0 1
127.547 0 1
127.663 0 1
127.779 0 1
127.895 0 1
128.011 0 1
128.127 0 1
128.243 0 1
128.359 9489 97.4115
128.476 9550 97.7241
128.592 8923 94.4616
128.708 8692 93.2309
128.825 8630 92.8978
128.941 8765 93.6216
129.058 8681 93.1719
129.174 8976 94.7418
129.291 9382 96.8607
129.408 9683 98.4022
129.524 9653 98.2497
129.641 9782 98.904
129.758 9779 98.8888
129.875 9829 99.1413
129.992 9411 97.0103
130.108 9078 95.2785
130.225 8556 92.4986
130.342 8236 90.7524
130.459 8187 90.482
130.576 8411 91.7115
130.693 8878 94.2231
130.81 9093 95.3572
130.928 9429 97.103
131.045 9623 98.0969
131.162 9723 98.6053
131.279 9799 98.9899
131.396 9572 97.8366
131.513 9624 98.102
131.631 9386 96.8814
131.748 9343 96.6592
131.865 9317 96.5246
131.983 9065 95.2103
132.1 8794 93.7763
132.217 8458 91.9674
132.335 8194 90.5207
132.452 8246 90.8075
132.57 8263 90.901
132.687 8404 91.6733
132.804 9050 95.1315
132.922 9131 95.5563
133.039 9199 95.9114
133.157 9240 96.1249
133.274 9360 96.7471
133.392 9348 96.6851
133.509 9356 96.7264
133.627 8733 93.4505
133.744 8166 90.3659
133.862 7923 89.0112
133.979 7622 87.3041
134.097 8025 89.5824
134.214 8466 92.0109
134.332 8694 93.2416
134.449 8760 93.5949
134.567 8757 93.5788
134.684 8940 94.5516
134.802 9006 94.8999
134.919 8849 94.0691
135.037 8756 93.5735
135.154 8534 92.3797
135.272 8465 92.0054
135.389 8416 91.7388
135.507 8195 90.5262
135.624 8010 89.4986
135.742 7371 85.8545
135.859 7018 83.7735
135.977 7064 84.0476
136.094 7109 84.3149
136.211 7168 84.664
136.329 7251 85.1528
136.446 7547 86.8735
136.564 7483 86.5043
136.681 7527 86.7583
136.798 7760 88.0909
136.915 7569 87
137.033 7489 86.539
137.15 7527 86.7583
137.267 7006 83.7019
137.384 6785 82.3711
137.502 6485 80.5295
137.619 6471 80.4425
137.736 6798 82.45
137.853 7121 84.386
137.97 7457 86.3539
138.087 7654 87.4871
138.204 7950 89.1628
138.321 7882 88.7806
138.438 8201 90.5594
138.555 8429 91.8096
138.672 8537 92.3959
138.788 8317 91.1976
138.905 8434 91.8368
139.022 8228 90.7083
139.139 8115 90.0833
139.255 8109 90.05
139.372 8006 89.4763
139.488 7721 87.8692
139.605 7679 87.6299
139.721 7864 88.6792
139.838 8171 90.3936
139.954 8537 92.3959
140.071 8559 92.5149
140.187 9065 95.2103
140.303 9071 95.2418
140.419 9147 95.6399
140.535 9304 96.4572
140.652 9404 96.9742
140.768 0 1
140.884 0 1
141 0 1
141.115 0 1
141.231 0 1
141.347 0 1
141.463 0 1
141.578 0 1
141.694 0 1
144.104 0 1
144.219 0 1
144.335 0 1
144.45 0 1
144.566 0 1
144.682 0 1
144.798 0 1
144.914 0 1
145.03 0 1
145.146 13271 115.2
145.262 14604 120.847
145.378 15560 124.74
145.494 16377 127.973
145.61 16982 130.315
145.726 17781 133.345
145.842 18140 134.685
145.959 17917 133.854
146.075 17494 132.265
146.192 17122 130.851
146.308 17372 131.803
146.425 18359 135.495
146.541 19504 139.657
146.658 20716 143.931
146.774 22374 149.579
146.891 23485 153.248
147.008 24388 156.167
147.125 25586 159.956
147.241 26647 163.239
147.358 27204 164.936
147.475 27064 164.511
147.592 27221 164.988
147.709 26666 163.297
147.826 26140 161.679
147.943 26148 161.703
148.06 25310 159.091
148.177 24763 157.363
148.294 24620 156.908
148.411 24463 156.407
148.528 25105 158.446
148.645 25635 160.109
148.762 26678 163.334
148.88 27103 164.63
148.997 28609 169.142
149.114 25983 161.192
149.231 27242 165.052
149.349 26640 163.218
149.466 26705 163.417
149.583 25239 158.868
149.701 23254 152.493
149.818 22306 149.352
149.935 21397 146.277
150.053 21554 146.813
150.17 22639 150.463
150.287 23762 154.149
150.405 24586 156.799
150.522 25332 159.16
150.64 25255 158.918
150.757 26123 161.626
150.875 26268 162.074
150.992 26538 162.905
151.11 26474 162.708
151.227 26158 161.734
151.344 25699 160.309
151.462 25265 158.95
151.579 24925 157.877
151.697 24686 157.118
151.814 24029 155.013
151.932 23861 154.47
152.049 24143 155.38
152.167 25669 160.215
152.284 26080 161.493
152.402 26902 164.018
152.519 28139 167.747
152.636 28648 169.257
152.754 28949 170.144
152.871 28351 168.378
152.989 28488 168.784
153.106 27871 166.946
153.223 26185 161.818
153.341 25038 158.234
153.458 24038 155.042
153.575 23785 154.224
153.693 24652 157.01
153.81 25835 160.733
153.927 26595 163.08
154.044 27955 167.197
154.162 28659 169.29
154.279 29687 172.299
154.396 30402 174.362
154.513 31039 176.179
154.63 31233 176.729
154.747 31714 178.084
154.864 31239 176.746
154.981 30541 174.76
155.098 30757 175.377
155.215 30150 173.638
155.332 30069 173.404
155.449 29506 171.773
155.566 29245 171.012
155.683 29924 172.986
155.8 30677 175.149
155.917 32202 179.449
156.033 33478 182.97
156.15 0 1
156.267 0 1
156.383 0 1
156.5 0 1
156.617 0 1
156.733 0 1
156.85 0 1
156.966 0 1
157.082 0 1
157.199 0 1
157.315 0 1
157.431 0 1
157.547 0 1
157.664 0 1
157.78 0 1
157.896 0 1
158.012 0 1
158.128 0 1
158.244 0 1
158.359 0 1
158.475 0 1
158.591 0 1
158.706 0 1
