
6.15755 0 1
6.2731 0 1
6.3887 0 1
6.50437 0 1
6.62009 0 1
6.73587 0 1
6.8517 0 1
6.96759 0 1
7.08353 0 1
7.19952 0 1
7.31557 0 1
7.43166 0 1
7.54781 0 1
7.664 0 1
7.78024 0 1
7.89653 0 1
8.01286 0 1
8.12924 0 1
8.24567 0 1
8.36213 0 1
8.47864 0 1
8.59519 0 1
8.71178 0 1
8.82841 0 1
8.94508 0 1
9.06179 0 1
9.17853 0 1
9.29531 0 1
9.41212 0 1
9.52897 0 1
9.64584 0 1
9.76276 0 1
9.8797 0 1
9.99667 0 1
10.1137 0 1
10.2307 0 1
10.3478 0 1
10.4648 0 1
10.5819 0 1
10.6991 0 1
10.8162 0 1
10.9334 0 1
11.0506 0 1
11.1678 0 1
11.285 0 1
11.4023 0 1
11.5196 0 1
11.6369 0 1
11.7542 0 1
11.8715 0 1
11.9888 0 1
12.1062 0 1
12.2235 0 1
12.3409 0 1
12.4582 0 1
12.5756 0 1
12.693 0 1
12.8104 0 1
12.9278 0 1
13.0452 0 1
13.1626 0 1
13.28 0 1
13.3974 0 1
13.5149 0 1
13.6323 0 1
13.7497 0 1
13.8671 0 1
13.9845 0 1
14.1019 0 1
14.2193 0 1
14.3367 0 1
14.4541 0 1
14.5714 0 1
14.6888 0 1
14.8062 0 1
14.9235 0 1
15.0408 0 0
15.1581 0 0
15.2755 0 0
15.3927 0 0
15.51 0 0
15.6273 0 0
15.7445 0 0
15.8617 0 0
15.9789 0 0
16.0961 0 0
16.2132 0 0
16.3304 0 0
16.4475 0 0
16.5646 0 0
16.6816 0 0
16.7986 0 0
16.9156 0 0
17.0326 0 0
17.1496 0 0
17.2665 0 0
17.3833 0 0
17.5002 0 0
17.617 0 0
17.7338 0 0
17.8505 0 0
17.9672 0 0
18.0839 0 0
18.2005 0 0
18.3171 0 0
18.4337 0 0
18.5502 0 0
18.6666 0 0
18.7831 0 0
18.8994 0 0
19.0158 0 0
19.1321 0 0
19.2483 0 0
19.3645 0 0
19.4806 0 0
19.5967 0 0
19.7128 0 0
19.8288 0 0
19.9447 0 0
20.0606 0 1
20.1764 0 1
20.2922 0 1
20.4079 0 1
20.5236 0 1
20.6392 0 1
20.7548 0 1
20.8702 0 1
23.3078 0 1
23.4233 0 1
23.539 0 1
23.6547 0 1
23.7704 0 1
23.8862 0 1
24.0021 0 1
24.118 0 1
24.234 0 1
24.35 0 1
24.4661 1843 42.9302
24.5822 1950 44.1588
24.6984 1940 44.0454
24.8146 1911 43.715
24.9309 1983 44.5309
25.0472 1942 44.0681
25.1636 1974 44.4297
25.28 1934 43.9773
25.3965 1915 43.7607
25.513 1965 44.3283
25.6296 2095 45.7712
25.7462 2088 45.6946
25.8628 2067 45.4643
25.9795 2166 46.5403
26.0962 2034 45.0999
26.213 2058 45.3652
26.3298 1941 44.0568
26.4466 1884 43.4051
26.5635 1791 42.3202
26.6804 1669 40.8534
26.7973 1586 39.8246
26.9143 1696 41.1825
27.0313 1701 41.2432
27.1483 1892 43.4971
27.2653 1914 43.7493
27.3824 2002 44.7437
27.4996 2000 44.7214
27.6167 1997 44.6878
27.7339 1939 44.0341
27.8511 1992 44.6318
27.9683 1900 43.589
28.0855 1913 43.7379
28.2028 1911 43.715
28.3201 1840 42.8952
28.4374 1977 44.4635
28.5547 1890 43.4741
28.6721 1999 44.7102
28.7894 1911 43.715
28.9068 1953 44.1928
29.0242 1961 44.2832
29.1416 1900 43.589
29.259 1903 43.6234
29.3764 2002 44.7437
29.4939 1944 44.0908
29.6113 2000 44.7214
29.7288 1858 43.1045
29.8463 1875 43.3013
29.9638 1882 43.382
30.0812 1724 41.5211
30.1987 1576 39.6989
30.3162 1552 39.3954
30.4337 1621 40.2616
30.5512 1659 40.7308
30.6687 1780 42.19
30.7862 1880 43.359
30.9037 1976 44.4522
31.0212 1946 44.1135
31.1387 1984 44.5421
31.2562 1989 44.5982
31.3737 1943 44.0795
31.4912 1842 42.9185
31.6087 1909 43.6921
31.7262 1891 43.4856
31.8436 1935 43.9886
31.9611 1961 44.2832
32.0785 1943 44.0795
32.1959 1980 44.4972
32.3134 1883 43.3935
32.4308 1981 44.5084
32.5482 1967 44.3509
32.6655 1981 44.5084
32.7829 1961 44.2832
32.9002 1979 44.486
33.0176 1879 43.3474
33.1349 2064 45.4313
33.2522 1930 43.9318
33.3694 1982 44.5197
33.4867 1890 43.4741
33.6039 1908 43.6807
33.7211 1767 42.0357
33.8383 1648 40.5956
33.9554 1519 38.9744
34.0725 1642 40.5216
34.1896 1710 41.3521
34.3067 1888 43.4511
34.4237 1865 43.1856
34.5407 2005 44.7772
34.6577 2030 45.0555
34.7746 2022 44.9667
34.8915 2061 45.3982
35.0084 2043 45.1996
35.1252 1955 44.2154
35.242 1945 44.1022
35.3587 2022 44.9667
35.4755 1987 44.5758
35.5921 1902 43.6119
35.7088 1951 44.1701
35.8254 1852 43.0349
35.9419 1951 44.1701
36.0584 2000 44.7214
36.1749 1999 44.7102
36.2913 1966 44.3396
36.4077 1948 44.1362
36.524 2056 45.3431
36.6403 1961 44.2832
36.7565 2001 44.7325
36.8727 1978 44.4747
36.9889 1965 44.3283
37.1049 1923 43.852
37.221 0 1
37.3369 0 1
37.4529 0 1
37.5687 0 1
37.6845 0 1
37.8003 0 1
37.916 0 1
38.0316 0 1
38.1472 0 1
40.5851 0 1
40.7008 0 1
40.8164 0 1
40.9322 0 1
41.048 0 1
41.1639 0 1
41.2798 0 1
41.3958 0 1
41.5118 0 1
41.6279 0 1
41.744 1672 40.8901
41.8602 1739 41.7013
41.9765 1815 42.6028
42.0928 1713 41.3884
42.2091 1737 41.6773
42.3255 1773 42.107
42.4419 1665 40.8044
42.5584 1592 39.8999
42.675 1398 37.3898
42.7915 1402 37.4433
42.9081 1426 37.7624
43.0248 1529 39.1024
43.1415 1629 40.3609
43.2582 1725 41.5331
43.375 1755 41.8927
43.4918 1733 41.6293
43.6087 1756 41.9047
43.7256 1781 42.2019
43.8425 1700 41.2311
43.9595 1671 40.8779
44.0765 1630 40.3733
44.1935 1596 39.95
44.3106 1666 40.8167
44.4277 1592 39.8999
44.5448 1514 38.9102
44.6619 1548 39.3446
44.7791 1570 39.6232
44.8963 1519 38.9744
45.0136 1604 40.05
45.1308 1579 39.7366
45.2481 1513 38.8973
45.3654 1578 39.724
45.4827 1592 39.8999
45.6001 1573 39.6611
45.7174 1571 39.6358
45.8348 1596 39.95
45.9522 1518 38.9615
46.0697 1428 37.7889
46.1871 1329 36.4555
46.3046 1197 34.5977
46.422 1162 34.0881
46.5395 1274 35.6931
46.657 1379 37.1349
46.7745 1458 38.1838
46.892 1458 38.1838
47.0096 1432 37.8418
47.1271 1512 38.8844
47.2446 1470 38.3406
47.3622 1462 38.2361
47.4797 1390 37.2827
47.5973 1384 37.2022
47.7149 1348 36.7151
47.8324 1293 35.9583
47.95 1287 35.8748
48.0675 1308 36.1663
48.1851 1282 35.805
48.3027 1258 35.4683
48.4202 1302 36.0832
48.5378 1291 35.9305
48.6554 1333 36.5103
48.7729 1346 36.6879
48.8904 1361 36.8917
49.008 1391 37.2961
49.1255 1360 36.8782
49.243 1446 38.0263
49.3605 1430 37.8153
49.478 1412 37.5766
49.5955 1279 35.7631
49.713 1158 34.0294
49.8304 1072 32.7414
49.9479 1093 33.0606
50.0653 1243 35.2562
50.1827 1418 37.6563
50.3001 1534 39.1663
50.4175 1597 39.9625
50.5348 1641 40.5093
50.6521 1732 41.6173
50.7694 1803 42.4617
50.8867 1763 41.9881
51.004 1773 42.107
51.1212 1846 42.9651
51.2384 1836 42.8486
51.3556 1863 43.1625
51.4727 1875 43.3013
51.5899 1832 42.8019
51.707 1868 43.2204
51.824 1876 43.3128
51.9411 1952 44.1814
52.0581 2040 45.1664
52.175 2082 45.6289
52.2919 2138 46.2385
52.4088 2106 45.8912
52.5257 2195 46.8508
52.6425 2199 46.8935
52.7593 2224 47.1593
52.876 2282 47.7703
52.9927 2235 47.2758
53.1094 2203 46.9361
53.226 2123 46.076
53.3426 1943 44.0795
53.4591 1754 41.8808
53.5756 1762 41.9762
53.692 2008 44.8107
53.8084 2233 47.2546
53.9248 2436 49.3559
54.0411 2516 50.1597
54.1573 2514 50.1398
54.2735 0 1
54.3896 0 1
54.5057 0 1
54.6217 0 1
54.7377 0 1
54.8537 0 1
54.9695 0 1
55.0853 0 1
55.2011 0 1
55.3168 0 1
55.4324 0 1
57.824 0 1
57.9396 0 1
58.0553 0 1
58.1711 0 1
58.2869 0 1
58.4028 0 1
58.5187 0 1
58.6347 0 1
58.7508 0 1
58.8669 0 1
58.983 3013 54.8908
59.0992 3284 57.3062
59.2155 3362 57.9828
59.3318 3558 59.649
59.4482 3446 58.7026
59.5646 3559 59.6574
59.681 3514 59.279
59.7975 3486 59.0424
59.9141 3418 58.4637
60.0306 3400 58.3095
60.1473 3241 56.9298
60.2639 3213 56.6833
60.3807 3129 55.9375
60.4974 3169 56.2939
60.6142 3312 57.55
60.731 3366 58.0172
60.8479 3640 60.3324
60.9648 3561 59.6741
61.0818 3650 60.4152
61.1987 3561 59.6741
61.3158 3615 60.1249
61.4328 3636 60.2993
61.5499 3501 59.1692
61.667 3418 58.4637
61.7841 3192 56.4978
61.9013 2890 53.7587
62.0185 2842 53.3104
62.1357 2907 53.9166
62.253 3071 55.4166
62.3702 3372 58.0689
62.4875 3500 59.1608
62.6049 3581 59.8415
62.7222 3816 61.7738
62.8396 3878 62.2736
62.9569 3897 62.426
63.0743 3976 63.0555
63.1918 3933 62.7136
63.3092 3832 61.9032
63.4267 3598 59.9833
63.5441 3678 60.6465
63.6616 3532 59.4306
63.7791 3424 58.515
63.8966 3517 59.3043
64.0142 3481 59
64.1317 3664 60.531
64.2492 3723 61.0164
64.3668 3850 62.0484
64.4843 3865 62.1691
64.6019 3892 62.3859
64.7195 3969 63
64.837 3964 62.9603
64.9546 3962 62.9444
65.0722 3920 62.6099
65.1898 3718 60.9754
65.3074 3655 60.4566
65.4249 3257 57.0701
65.5425 2982 54.6077
65.6601 2960 54.4059
65.7777 3126 55.9106
65.8952 3389 58.2151
66.0128 3723 61.0164
66.1304 4018 63.3877
66.2479 4069 63.7887
66.3655 4184 64.6838
66.483 4336 65.8483
66.6005 4353 65.9773
66.718 4339 65.8711
66.8355 4309 65.643
66.953 4211 64.8922
67.0705 4080 63.8749
67.1879 4011 63.3325
67.3054 3803 61.6685
67.4228 3763 61.3433
67.5402 3694 60.7783
67.6576 3844 62
67.7749 3970 63.0079
67.8923 4107 64.0859
68.0096 4124 64.2184
68.1269 4294 65.5286
68.2442 4286 65.4675
68.3614 4546 67.424
68.4787 4601 67.8307
68.5958 4556 67.4981
68.713 4538 67.3647
68.8302 4423 66.5056
68.9473 4157 64.4748
69.0643 3904 62.482
69.1814 3566 59.716
69.2984 3293 57.3847
69.4154 3566 59.716
69.5323 3815 61.7657
69.6492 4378 66.1665
69.7661 4607 67.8749
69.8829 4700 68.5565
69.9997 4905 70.0357
70.1165 5061 71.1407
70.2332 5082 71.2881
70.3499 5136 71.6659
70.4665 4958 70.4131
70.5831 4910 70.0714
70.6996 4816 69.3974
70.8161 4589 67.7422
70.9326 4501 67.0895
71.049 4412 66.4229
71.1653 4197 64.7843
71.2817 4172 64.591
71.3979 4150 64.4205
71.5141 4189 64.7225
71.6303 4468 66.8431
71.7464 4231 65.0461
71.8624 0 1
71.9784 0 1
72.0944 0 1
72.2102 0 1
72.3261 0 1
72.4418 0 1
72.5575 0 1
72.6732 0 1
75.1054 0 1
75.2209 0 1
75.3365 0 1
75.4521 0 1
75.5678 0 1
75.6835 0 1
75.7993 0 1
75.9151 0 1
76.031 0 1
76.147 4574 67.6314
76.263 4648 68.1762
76.3791 4520 67.2309
76.4952 4385 66.2193
76.6113 4445 66.6708
76.7276 4516 67.2012
76.8438 4680 68.4105
76.9601 4953 70.3776
77.0765 5285 72.698
77.1929 5254 72.4845
77.3093 5461 73.8986
77.4258 5335 73.0411
77.5423 5376 73.3212
77.6589 5444 73.7835
77.7755 5159 71.8262
77.8921 4975 70.5337
78.0088 4635 68.0808
78.1256 4218 64.9461
78.2423 3871 62.2174
78.3591 3718 60.9754
78.4759 3780 61.4817
78.5928 4238 65.0999
78.7097 4727 68.7532
78.8266 5345 73.1095
78.9436 5233 72.3395
79.0606 5391 73.4234
79.1776 5399 73.4779
79.2946 5434 73.7157
79.4117 5290 72.7324
79.5288 5417 73.6003
79.6459 5270 72.5948
79.7631 5028 70.9084
79.8802 4880 69.857
79.9974 4694 68.5128
80.1147 4362 66.0454
80.2319 4367 66.0833
80.3491 4347 65.9318
80.4664 4604 67.8528
80.5837 4886 69.8999
80.701 5034 70.9507
80.8183 5118 71.5402
80.9357 5289 72.7255
81.053 5242 72.4017
81.1704 5227 72.298
81.2877 5220 72.2496
81.4051 5142 71.7077
81.5225 5160 71.8331
81.6399 4549 67.4463
81.7573 4347 65.9318
81.8747 3926 62.6578
81.9922 3743 61.1801
82.1096 3880 62.2896
82.227 3984 63.1189
82.3444 4515 67.1937
82.4619 4780 69.1375
82.5793 4952 70.3704
82.6967 5234 72.3464
82.8142 5030 70.9225
82.9316 5048 71.0493
83.049 5106 71.4563
83.1664 5018 70.8378
83.2838 4790 69.2098
83.4012 4786 69.1809
83.5186 4566 67.5722
83.636 4228 65.0231
83.7534 4127 64.2417
83.8708 3957 62.9047
83.9881 4088 63.9375
84.1055 4103 64.0547
84.2228 4432 66.5733
84.3401 4769 69.0579
84.4575 4829 69.491
84.5747 4996 70.6824
84.692 5101 71.4213
84.8093 5131 71.631
84.9265 5133 71.645
85.0437 4926 70.1855
85.1609 4781 69.1448
85.2781 4479 66.9253
85.3952 3927 62.6658
85.5123 3736 61.1228
85.6294 3748 61.2209
85.7465 3997 63.2218
85.8636 4397 66.3099
85.9806 4771 69.0724
86.0976 5087 71.3232
86.2145 5262 72.5396
86.3315 5298 72.7874
86.4484 5657 75.213
86.5652 5662 75.2463
86.682 5627 75.0133
86.7988 5487 74.0743
86.9156 5390 73.4166
87.0323 5257 72.5052
87.149 5202 72.1249
87.2657 4946 70.3278
87.3823 4666 68.3081
87.4988 4470 66.8581
87.6154 4535 67.3424
87.7318 5066 71.1758
87.8483 5265 72.5603
87.9647 5733 75.7166
88.081 5723 75.6505
88.1973 5841 76.4264
88.3136 5810 76.2234
88.4298 5912 76.8895
88.546 5778 76.0132
88.6621 5672 75.3127
88.7781 5241 72.3948
88.8942 0 1
89.0101 0 1
89.126 0 1
89.2419 0 1
89.3577 0 1
89.4734 0 1
89.5891 0 1
89.7047 0 1
89.8203 0 1
89.9358 0 1
92.3269 0 1
92.4424 0 1
92.558 0 1
92.6736 0 1
92.7893 0 1
92.905 0 1
93.0208 0 1
93.1366 0 1
93.2525 0 1
93.3685 0 1
93.4845 0 1
93.6005 5744 75.7892
93.7167 5868 76.6029
93.8328 5862 76.5637
93.949 5722 75.6439
94.0653 5719 75.6241
94.1816 5418 73.6071
94.2979 5341 73.0821
94.4143 5074 71.232
94.5307 4697 68.5347
94.6472 4573 67.624
94.7637 4391 66.2646
94.8803 5010 70.7814
94.9969 5007 70.7602
95.1135 5324 72.9657
95.2302 5490 74.0945
95.3469 5610 74.8999
95.4637 5920 76.9415
95.5805 6220 78.867
95.6973 6089 78.032
95.8142 6184 78.6384
95.9311 6080 77.9744
96.048 5836 76.3937
96.1649 5849 76.4788
96.2819 5620 74.9667
96.3989 5451 73.8309
96.516 5038 70.9789
96.633 4880 69.857
96.7501 4621 67.9779
96.8673 4881 69.8642
96.9844 5245 72.4224
97.1016 5616 74.94
97.2188 5875 76.6485
97.336 6223 78.886
97.4532 6269 79.177
97.5704 6051 77.7882
97.6877 6075 77.9423
97.805 6071 77.9166
97.9223 5798 76.1446
98.0396 5529 74.3572
98.1569 5123 71.5751
98.2743 4817 69.4046
98.3916 4797 69.2604
98.509 4796 69.2532
98.6264 5125 71.5891
98.7438 5512 74.2428
98.8612 5737 75.743
98.9786 6018 77.5758
99.096 6082 77.9872
99.2134 6360 79.7496
99.3308 6549 80.9259
99.4482 6425 80.1561
99.5656 6385 79.9062
99.6831 6287 79.2906
99.8005 6035 77.6853
99.9179 5870 76.6159
100.035 5671 75.306
100.153 5317 72.9178
100.27 5005 70.746
100.388 4920 70.1427
100.505 5457 73.8715
100.622 5565 74.5989
100.74 6071 77.9166
100.857 6431 80.1935
100.975 6594 81.2034
101.092 6481 80.5047
101.209 6385 79.9062
101.327 6544 80.895
101.444 6243 79.0127
101.561 6192 78.6893
101.679 5704 75.5248
101.796 5257 72.5052
101.913 5129 71.617
102.03 4971 70.5053
102.148 5335 73.0411
102.265 6053 77.801
102.382 5771 75.9671
102.499 6119 78.224
102.616 6457 80.3555
102.733 6597 81.2219
102.851 6726 82.0122
102.968 6865 82.8553
103.085 6629 81.4187
103.202 6629 81.4187
103.319 6525 80.7775
103.436 6316 79.4733
103.552 5998 77.4468
103.669 5688 75.4188
103.786 5195 72.0763
103.903 5234 72.3464
104.02 5672 75.3127
104.137 6143 78.3773
104.253 6795 82.4318
104.37 6712 81.9268
104.487 6887 82.988
104.603 7004 83.6899
104.72 6916 83.1625
104.836 6849 82.7587
104.953 6907 83.1084
105.069 6556 80.9691
105.186 6120 78.2304
105.302 5750 75.8288
105.418 5469 73.9527
105.535 5634 75.06
105.651 5903 76.831
105.767 6460 80.3741
105.883 6533 80.827
105.999 6808 82.5106
106.115 0 1
106.231 0 1
106.347 0 1
106.463 0 1
106.579 0 1
106.694 0 1
106.81 0 1
106.926 0 1
107.041 0 1
107.157 0 1
109.576 0 1
109.692 0 1
109.807 0 1
109.923 0 1
110.039 0 1
110.155 0 1
110.27 0 1
110.386 0 1
110.502 0 1
110.618 5322 72.952
110.735 5846 76.4591
110.851 6212 78.8162
110.967 6448 80.2994
111.083 6258 79.1075
111.199 6605 81.2712
111.316 6754 82.1827
111.432 6704 81.878
111.549 6790 82.4015
111.665 6538 80.8579
111.782 6428 80.1748
111.898 6165 78.5175
112.015 5825 76.3217
112.132 5375 73.3144
112.248 4917 70.1213
112.365 4859 69.7065
112.482 5067 71.1829
112.599 5499 74.1552
112.716 6000 77.4597
112.832 6266 79.1581
112.949 6279 79.2401
113.066 6270 79.1833
113.183 6231 78.9367
113.3 6251 79.0633
113.417 6142 78.3709
113.534 5969 77.2593
113.652 5644 75.1266
113.769 5336 73.0479
113.886 5064 71.1618
114.003 5010 70.7814
114.12 4956 70.3989
114.238 5187 72.0208
114.355 5402 73.4983
114.472 5554 74.5252
114.589 5614 74.9266
114.707 5654 75.1931
114.824 5821 76.2955
114.942 6051 77.7882
115.059 6126 78.2688
115.176 5914 76.9025
115.294 5901 76.818
115.411 6012 77.5371
115.529 5652 75.1798
115.646 5235 72.3533
115.764 4794 69.2387
115.881 4392 66.2722
115.999 4519 67.2235
116.116 4948 70.342
116.234 5515 74.263
116.351 5781 76.0329
116.469 5943 77.0909
116.586 6033 77.6724
116.704 5973 77.2852
116.821 5916 76.9155
116.939 6045 77.7496
117.056 5910 76.8765
117.174 5769 75.9539
117.291 5500 74.162
117.409 5406 73.5255
117.526 5251 72.4638
117.644 4969 70.4911
117.761 4907 70.05
117.879 5232 72.3326
117.996 5355 73.1779
118.114 5810 76.2234
118.231 5818 76.2758
118.349 5766 75.9342
118.466 5960 77.201
118.584 6057 77.8267
118.701 6046 77.756
118.819 6121 78.2368
118.936 5981 77.3369
119.053 5834 76.3806
119.171 5660 75.233
119.288 5316 72.9109
119.405 4873 69.8069
119.523 4467 66.8356
119.64 4706 68.6003
119.757 4944 70.3136
119.875 5493 74.1148
119.992 5692 75.4453
120.109 5666 75.2728
120.226 5969 77.2593
120.343 5807 76.2037
120.46 6037 77.6981
120.578 5900 76.8115
120.695 5930 77.0065
120.812 5711 75.5712
120.929 5662 75.2463
121.046 5496 74.135
121.163 5345 73.1095
121.279 5115 71.5192
121.396 5065 71.1688
121.513 4949 70.3491
121.63 5416 73.5935
121.747 5412 73.5663
121.863 5633 75.0533
121.98 5765 75.9276
122.097 5598 74.8198
122.213 5840 76.4199
122.33 5886 76.7203
122.446 5925 76.974
122.563 5939 77.0649
122.679 5763 75.9144
122.795 5704 75.5248
122.912 5441 73.7631
123.028 5232 72.3326
123.144 4553 67.4759
123.26 4397 66.3099
123.377 0 1
123.493 0 1
123.609 0 1
123.725 0 1
123.84 0 1
123.956 0 1
124.072 0 1
124.188 0 1
124.303 0 1
124.419 0 1
126.852 0 1
126.968 0 1
127.083 0 1
127.199 0 1
127.315 0 1
127.431 0 1
127.547 0 1
127.663 0 1
127.779 0 1
127.895 0 1
128.011 0 1
128.127 0 1
128.243 0 1
128.359 5095 71.3793
128.476 4724 68.7314
128.592 4928 70.1997
128.708 5544 74.458
128.825 5983 77.3499
128.941 6295 79.341
129.058 6531 80.8146
129.174 6617 81.3449
129.291 6594 81.2034
129.408 6641 81.4923
129.524 6639 81.4801
129.641 6429 80.181
129.758 6591 81.185
129.875 6156 78.4602
129.992 6059 77.8396
130.108 5930 77.0065
130.225 5787 76.0723
130.342 5538 74.4177
130.459 5471 73.9662
130.576 5972 77.2787
130.693 5952 77.1492
130.81 6126 78.2688
130.928 6115 78.1985
131.045 6377 79.8561
131.162 6343 79.643
131.279 6347 79.6681
131.396 6535 80.8393
131.513 6468 80.4239
131.631 6271 79.1896
131.748 6215 78.8353
131.865 5348 73.13
131.983 4859 69.7065
132.1 4896 69.9714
132.217 5168 71.8888
132.335 5713 75.5844
132.452 6040 77.7174
132.57 6263 79.1391
132.687 6082 77.9872
132.804 6594 81.2034
132.922 6427 80.1686
133.039 6364 79.7747
133.157 6483 80.5171
133.274 6212 78.8162
133.392 6140 78.3582
133.509 6122 78.2432
133.627 6001 77.4661
133.744 5709 75.5579
133.862 5566 74.6056
133.979 5570 74.6324
134.097 5778 76.0132
134.214 5778 76.0132
134.332 5866 76.5898
134.449 6112 78.1793
134.567 6101 78.1089
134.684 6176 78.5875
134.802 6241 79
134.919 6344 79.6492
135.037 6440 80.2496
135.154 6354 79.712
135.272 5912 76.8895
135.389 5519 74.29
135.507 5040 70.993
135.624 4577 67.6535
135.742 4644 68.1469
135.859 5127 71.6031
135.977 5692 75.4453
136.094 6056 77.8203
136.211 6165 78.5175
136.329 6323 79.5173
136.446 6338 79.6116
136.564 6338 79.6116
136.681 6422 80.1374
136.798 6139 78.3518
136.915 6263 79.1391
137.033 6250 79.0569
137.15 6170 78.5493
137.267 6069 77.9038
137.384 5755 75.8617
137.502 5515 74.263
137.619 5474 73.9865
137.736 5661 75.2396
137.853 5542 74.4446
137.97 5755 75.8617
138.087 6183 78.6321
138.204 5903 76.831
138.321 6040 77.7174
138.438 6107 78.1473
138.555 6179 78.6066
138.672 6342 79.6367
138.788 6165 78.5175
138.905 5839 76.4133
139.022 5712 75.5778
139.139 5007 70.7602
139.255 4795 69.2459
139.372 4758 68.9783
139.488 5213 72.2011
139.605 5608 74.8866
139.721 5844 76.4461
139.838 6078 77.9615
139.954 6174 78.5748
140.071 6078 77.9615
140.187 6329 79.555
140.303 6119 78.224
140.419 6174 78.5748
140.535 6174 78.5748
140.652 5988 77.3822
140.768 0 1
140.884 0 1
141 0 1
141.115 0 1
141.231 0 1
141.347 0 1
141.463 0 1
141.578 0 1
141.694 0 1
144.104 0 1
144.219 0 1
144.335 0 1
144.45 0 1
144.566 0 1
144.682 0 1
144.798 0 1
144.914 0 1
145.03 0 1
145.146 5508 74.2159
145.262 5491 74.1013
145.378 5328 72.9932
145.494 5369 73.2735
145.61 5401 73.4915
145.726 5413 73.5731
145.842 5318 72.9246
145.959 5129 71.617
146.075 4931 70.2211
146.192 4907 70.05
146.308 5035 70.9577
146.425 4879 69.8498
146.541 4893 69.95
146.658 5228 72.3049
146.774 5063 71.1548
146.891 5173 71.9236
147.008 5305 72.8354
147.125 5393 73.437
147.241 5229 72.3118
147.358 5156 71.8053
147.475 4981 70.5762
147.592 4722 68.7168
147.709 4452 66.7233
147.826 3973 63.0317
147.943 3993 63.1902
148.06 4066 63.7652
148.177 4512 67.1714
148.294 4893 69.95
148.411 5312 72.8835
148.528 5090 71.3442
148.645 5022 70.8661
148.762 5137 71.6729
148.88 5030 70.9225
148.997 4901 70.0071
149.114 5173 71.9236
149.231 4946 70.3278
149.349 4982 70.5833
149.466 4807 69.3325
149.583 4744 68.8767
149.701 4832 69.5126
149.818 4640 68.1175
149.935 4567 67.5796
150.053 4565 67.5648
150.17 4568 67.587
150.287 4674 68.3667
150.405 4665 68.3008
150.522 4840 69.5701
150.64 4922 70.157
150.757 5053 71.0845
150.875 4794 69.2387
150.992 4756 68.9638
151.11 4438 66.6183
151.227 4484 66.9627
151.344 4187 64.707
151.462 3794 61.5955
151.579 3869 62.2013
151.697 3966 62.9762
151.814 4286 65.4675
151.932 4712 68.644
152.049 5000 70.7107
152.167 4957 70.406
152.284 4991 70.647
152.402 4987 70.6187
152.519 4826 69.4694
152.636 4971 70.5053
152.754 5073 71.225
152.871 4829 69.491
152.989 4872 69.7997
153.106 4832 69.5126
153.223 4902 70.0143
153.341 4800 69.282
153.458 4678 68.3959
153.575 4540 67.3795
153.693 4597 67.8012
153.81 4601 67.8307
153.927 4554 67.4833
154.044 4697 68.5347
154.162 4917 70.1213
154.279 4954 70.3847
154.396 4942 70.2994
154.513 4874 69.814
154.63 4878 69.8427
154.747 4686 68.4544
154.864 4623 67.9926
154.981 4293 65.521
155.098 4170 64.5755
155.215 4039 63.5531
155.332 4252 65.2074
155.449 4618 67.9559
155.566 4872 69.7997
155.683 4966 70.4699
155.8 4999 70.7036
155.917 5006 70.7531
156.033 5029 70.9154
156.15 0 1
156.267 0 1
156.383 0 1
156.5 0 1
156.617 0 1
156.733 0 1
156.85 0 1
156.966 0 1
157.082 0 1
157.199 0 1
157.315 0 1
157.431 0 1
157.547 0 1
157.664 0 1
157.78 0 1
157.896 0 1
158.012 0 1
158.128 0 1
158.244 0 1
158.359 0 1
158.475 0 1
158.591 0 1
158.706 0 1
