
6.15755 0 1
6.2731 0 1
6.3887 0 1
6.50437 0 1
6.62009 0 1
6.73587 0 1
6.8517 0 1
6.96759 0 1
7.08353 0 1
7.19952 0 1
7.31557 0 1
7.43166 0 1
7.54781 0 1
7.664 0 1
7.78024 0 1
7.89653 0 1
8.01286 0 1
8.12924 0 1
8.24567 0 1
8.36213 0 1
8.47864 0 1
8.59519 0 1
8.71178 0 1
8.82841 0 1
8.94508 0 1
9.06179 0 1
9.17853 0 1
9.29531 0 1
9.41212 0 1
9.52897 0 1
9.64584 0 1
9.76276 0 1
9.8797 0 1
9.99667 0 1
10.1137 0 1
10.2307 0 1
10.3478 0 1
10.4648 0 1
10.5819 0 1
10.6991 0 1
10.8162 0 1
10.9334 0 1
11.0506 0 1
11.1678 0 1
11.285 0 1
11.4023 0 1
11.5196 0 1
11.6369 0 1
11.7542 0 1
11.8715 0 1
11.9888 0 1
12.1062 0 1
12.2235 0 1
12.3409 0 1
12.4582 0 1
12.5756 0 1
12.693 0 1
12.8104 0 1
12.9278 0 1
13.0452 0 1
13.1626 0 1
13.28 0 1
13.3974 0 1
13.5149 0 1
13.6323 0 1
13.7497 0 1
13.8671 0 1
13.9845 0 1
14.1019 0 1
14.2193 0 1
14.3367 0 1
14.4541 0 1
14.5714 0 1
14.6888 0 1
14.8062 0 1
14.9235 0 1
15.0408 449 21.1896
15.1581 511 22.6053
15.2755 504 22.4499
15.3927 539 23.2164
15.51 529 23
15.6273 489 22.1133
15.7445 522 22.8473
15.8617 490 22.1359
15.9789 499 22.3383
16.0961 486 22.0454
16.2132 492 22.1811
16.3304 493 22.2036
16.4475 527 22.9565
16.5646 507 22.5167
16.6816 500 22.3607
16.7986 513 22.6495
16.9156 553 23.516
17.0326 497 22.2935
17.1496 569 23.8537
17.2665 532 23.0651
17.3833 553 23.516
17.5002 499 22.3383
17.617 525 22.9129
17.7338 506 22.4944
17.8505 497 22.2935
17.9672 526 22.9347
18.0839 470 21.6795
18.2005 455 21.3307
18.3171 510 22.5832
18.4337 494 22.2261
18.5502 448 21.166
18.6666 509 22.561
18.7831 503 22.4277
18.8994 523 22.8692
19.0158 559 23.6432
19.1321 481 21.9317
19.2483 492 22.1811
19.3645 470 21.6795
19.4806 459 21.4243
19.5967 412 20.2978
19.7128 428 20.6882
19.8288 390 19.7484
19.9447 351 18.735
20.0606 0 1
20.1764 0 1
20.2922 0 1
20.4079 0 1
20.5236 0 1
20.6392 0 1
20.7548 0 1
20.8702 0 1
23.3078 0 1
23.4233 0 1
23.539 0 1
23.6547 0 1
23.7704 0 1
23.8862 0 1
24.0021 0 1
24.118 0 1
24.234 0 1
24.35 0 1
24.4661 189 13.7477
24.5822 216 14.6969
24.6984 255 15.9687
24.8146 292 17.088
24.9309 337 18.3576
25.0472 416 20.3961
25.1636 448 21.166
25.28 486 22.0454
25.3965 525 22.9129
25.513 551 23.4734
25.6296 564 23.7487
25.7462 560 23.6643
25.8628 620 24.8998
25.9795 565 23.7697
26.0962 574 23.9583
26.213 540 23.2379
26.3298 573 23.9374
26.4466 501 22.383
26.5635 538 23.1948
26.6804 517 22.7376
26.7973 519 22.7816
26.9143 524 22.891
27.0313 464 21.5407
27.1483 523 22.8692
27.2653 541 23.2594
27.3824 538 23.1948
27.4996 563 23.7276
27.6167 564 23.7487
27.7339 504 22.4499
27.8511 478 21.8632
27.9683 524 22.891
28.0855 477 21.8403
28.2028 530 23.0217
28.3201 464 21.5407
28.4374 529 23
28.5547 509 22.561
28.6721 567 23.8118
28.7894 563 23.7276
28.9068 556 23.5797
29.0242 506 22.4944
29.1416 590 24.2899
29.259 559 23.6432
29.3764 539 23.2164
29.4939 559 23.6432
29.6113 561 23.6854
29.7288 576 24
29.8463 560 23.6643
29.9638 567 23.8118
30.0812 551 23.4734
30.1987 498 22.3159
30.3162 504 22.4499
30.4337 518 22.7596
30.5512 540 23.2379
30.6687 485 22.0227
30.7862 505 22.4722
30.9037 546 23.3666
31.0212 573 23.9374
31.1387 519 22.7816
31.2562 491 22.1585
31.3737 495 22.2486
31.4912 476 21.8174
31.6087 510 22.5832
31.7262 434 20.8327
31.8436 501 22.383
31.9611 486 22.0454
32.0785 478 21.8632
32.1959 484 22
32.3134 544 23.3238
32.4308 530 23.0217
32.5482 568 23.8328
32.6655 575 23.9792
32.7829 522 22.8473
32.9002 520 22.8035
33.0176 536 23.1517
33.1349 609 24.6779
33.2522 564 23.7487
33.3694 534 23.1084
33.4867 519 22.7816
33.6039 507 22.5167
33.7211 535 23.1301
33.8383 485 22.0227
33.9554 465 21.5639
34.0725 466 21.587
34.1896 460 21.4476
34.3067 440 20.9762
34.4237 507 22.5167
34.5407 492 22.1811
34.6577 486 22.0454
34.7746 489 22.1133
34.8915 502 22.4054
35.0084 500 22.3607
35.1252 498 22.3159
35.242 452 21.2603
35.3587 427 20.664
35.4755 457 21.3776
35.5921 490 22.1359
35.7088 526 22.9347
35.8254 522 22.8473
35.9419 524 22.891
36.0584 519 22.7816
36.1749 510 22.5832
36.2913 511 22.6053
36.4077 513 22.6495
36.524 503 22.4277
36.6403 474 21.7715
36.7565 468 21.6333
36.8727 422 20.5426
36.9889 378 19.4422
37.1049 303 17.4069
37.221 0 1
37.3369 0 1
37.4529 0 1
37.5687 0 1
37.6845 0 1
37.8003 0 1
37.916 0 1
38.0316 0 1
38.1472 0 1
40.5851 0 1
40.7008 0 1
40.8164 0 1
40.9322 0 1
41.048 0 1
41.1639 0 1
41.2798 0 1
41.3958 0 1
41.5118 0 1
41.6279 0 1
41.744 178 13.3417
41.8602 275 16.5831
41.9765 273 16.5227
42.0928 324 18
42.2091 379 19.4679
42.3255 383 19.5704
42.4419 421 20.5183
42.5584 439 20.9523
42.675 429 20.7123
42.7915 402 20.0499
42.9081 391 19.7737
43.0248 409 20.2237
43.1415 444 21.0713
43.2582 428 20.6882
43.375 421 20.5183
43.4918 444 21.0713
43.6087 397 19.9249
43.7256 417 20.4206
43.8425 400 20
43.9595 396 19.8997
44.0765 387 19.6723
44.1935 404 20.0998
44.3106 441 21
44.4277 428 20.6882
44.5448 424 20.5913
44.6619 434 20.8327
44.7791 448 21.166
44.8963 424 20.5913
45.0136 472 21.7256
45.1308 439 20.9523
45.2481 437 20.9045
45.3654 424 20.5913
45.4827 449 21.1896
45.6001 419 20.4695
45.7174 451 21.2368
45.8348 444 21.0713
45.9522 439 20.9523
46.0697 466 21.587
46.1871 467 21.6102
46.3046 452 21.2603
46.422 410 20.2485
46.5395 424 20.5913
46.657 394 19.8494
46.7745 390 19.7484
46.892 423 20.567
47.0096 442 21.0238
47.1271 467 21.6102
47.2446 480 21.9089
47.3622 446 21.1187
47.4797 445 21.095
47.5973 396 19.8997
47.7149 413 20.3224
47.8324 429 20.7123
47.95 439 20.9523
48.0675 471 21.7025
48.1851 443 21.0476
48.3027 432 20.7846
48.4202 456 21.3542
48.5378 474 21.7715
48.6554 454 21.3073
48.7729 473 21.7486
48.8904 443 21.0476
49.008 473 21.7486
49.1255 450 21.2132
49.243 475 21.7945
49.3605 444 21.0713
49.478 462 21.4942
49.5955 453 21.2838
49.713 409 20.2237
49.8304 447 21.1424
49.9479 394 19.8494
50.0653 443 21.0476
50.1827 408 20.199
50.3001 436 20.8806
50.4175 400 20
50.5348 453 21.2838
50.6521 429 20.7123
50.7694 458 21.4009
50.8867 412 20.2978
51.004 448 21.166
51.1212 421 20.5183
51.2384 463 21.5174
51.3556 411 20.2731
51.4727 476 21.8174
51.5899 446 21.1187
51.707 470 21.6795
51.824 463 21.5174
51.9411 457 21.3776
52.0581 490 22.1359
52.175 449 21.1896
52.2919 421 20.5183
52.4088 473 21.7486
52.5257 486 22.0454
52.6425 499 22.3383
52.7593 459 21.4243
52.876 469 21.6564
52.9927 442 21.0238
53.1094 481 21.9317
53.226 528 22.9783
53.3426 459 21.4243
53.4591 437 20.9045
53.5756 451 21.2368
53.692 400 20
53.8084 362 19.0263
53.9248 374 19.3391
54.0411 300 17.3205
54.1573 264 16.2481
54.2735 0 1
54.3896 0 1
54.5057 0 1
54.6217 0 1
54.7377 0 1
54.8537 0 1
54.9695 0 1
55.0853 0 1
55.2011 0 1
55.3168 0 1
55.4324 0 1
57.824 0 1
57.9396 0 1
58.0553 0 1
58.1711 0 1
58.2869 0 1
58.4028 0 1
58.5187 0 1
58.6347 0 1
58.7508 0 1
58.8669 0 1
58.983 283 16.8226
59.0992 371 19.2614
59.2155 367 19.1572
59.3318 476 21.8174
59.4482 468 21.6333
59.5646 476 21.8174
59.681 529 23
59.7975 506 22.4944
59.9141 534 23.1084
60.0306 552 23.4947
60.1473 561 23.6854
60.2639 608 24.6577
60.3807 588 24.2487
60.4974 578 24.0416
60.6142 574 23.9583
60.731 601 24.5153
60.8479 560 23.6643
60.9648 586 24.2074
61.0818 575 23.9792
61.1987 624 24.98
61.3158 529 23
61.4328 580 24.0832
61.5499 579 24.0624
61.667 584 24.1661
61.7841 580 24.0832
61.9013 606 24.6171
62.0185 564 23.7487
62.1357 585 24.1868
62.253 581 24.1039
62.3702 542 23.2809
62.4875 527 22.9565
62.6049 548 23.4094
62.7222 514 22.6716
62.8396 618 24.8596
62.9569 602 24.5357
63.0743 573 23.9374
63.1918 532 23.0651
63.3092 547 23.388
63.4267 558 23.622
63.5441 530 23.0217
63.6616 599 24.4745
63.7791 568 23.8328
63.8966 562 23.7065
64.0142 615 24.7992
64.1317 627 25.04
64.2492 602 24.5357
64.3668 604 24.5764
64.4843 536 23.1517
64.6019 618 24.8596
64.7195 557 23.6008
64.837 597 24.4336
64.9546 562 23.7065
65.0722 569 23.8537
65.1898 566 23.7908
65.3074 556 23.5797
65.4249 525 22.9129
65.5425 552 23.4947
65.6601 522 22.8473
65.7777 558 23.622
65.8952 543 23.3024
66.0128 532 23.0651
66.1304 568 23.8328
66.2479 553 23.516
66.3655 520 22.8035
66.483 532 23.0651
66.6005 522 22.8473
66.718 553 23.516
66.8355 504 22.4499
66.953 528 22.9783
67.0705 517 22.7376
67.1879 573 23.9374
67.3054 522 22.8473
67.4228 553 23.516
67.5402 520 22.8035
67.6576 550 23.4521
67.7749 547 23.388
67.8923 585 24.1868
68.0096 565 23.7697
68.1269 583 24.1454
68.2442 580 24.0832
68.3614 551 23.4734
68.4787 517 22.7376
68.5958 516 22.7156
68.713 561 23.6854
68.8302 528 22.9783
68.9473 520 22.8035
69.0643 533 23.0868
69.1814 521 22.8254
69.2984 559 23.6432
69.4154 523 22.8692
69.5323 560 23.6643
69.6492 522 22.8473
69.7661 508 22.5389
69.8829 537 23.1733
69.9997 509 22.561
70.1165 478 21.8632
70.2332 517 22.7376
70.3499 494 22.2261
70.4665 486 22.0454
70.5831 428 20.6882
70.6996 439 20.9523
70.8161 356 18.868
70.9326 386 19.6469
71.049 300 17.3205
71.1653 282 16.7929
71.2817 251 15.843
71.3979 245 15.6525
71.5141 231 15.1987
71.6303 210 14.4914
71.7464 188 13.7113
71.8624 0 1
71.9784 0 1
72.0944 0 1
72.2102 0 1
72.3261 0 1
72.4418 0 1
72.5575 0 1
72.6732 0 1
75.1054 0 1
75.2209 0 1
75.3365 0 1
75.4521 0 1
75.5678 0 1
75.6835 0 1
75.7993 0 1
75.9151 0 1
76.031 0 1
76.147 336 18.3303
76.263 385 19.6214
76.3791 412 20.2978
76.4952 401 20.025
76.6113 476 21.8174
76.7276 471 21.7025
76.8438 492 22.1811
76.9601 500 22.3607
77.0765 456 21.3542
77.1929 475 21.7945
77.3093 477 21.8403
77.4258 468 21.6333
77.5423 500 22.3607
77.6589 481 21.9317
77.7755 487 22.0681
77.8921 518 22.7596
78.0088 467 21.6102
78.1256 467 21.6102
78.2423 473 21.7486
78.3591 507 22.5167
78.4759 523 22.8692
78.5928 499 22.3383
78.7097 486 22.0454
78.8266 434 20.8327
78.9436 497 22.2935
79.0606 454 21.3073
79.1776 481 21.9317
79.2946 486 22.0454
79.4117 485 22.0227
79.5288 514 22.6716
79.6459 506 22.4944
79.7631 510 22.5832
79.8802 502 22.4054
79.9974 535 23.1301
80.1147 529 23
80.2319 522 22.8473
80.3491 518 22.7596
80.4664 543 23.3024
80.5837 529 23
80.701 498 22.3159
80.8183 514 22.6716
80.9357 551 23.4734
81.053 583 24.1454
81.1704 544 23.3238
81.2877 508 22.5389
81.4051 546 23.3666
81.5225 511 22.6053
81.6399 502 22.4054
81.7573 548 23.4094
81.8747 515 22.6936
81.9922 490 22.1359
82.1096 522 22.8473
82.227 537 23.1733
82.3444 514 22.6716
82.4619 529 23
82.5793 457 21.3776
82.6967 508 22.5389
82.8142 499 22.3383
82.9316 511 22.6053
83.049 471 21.7025
83.1664 443 21.0476
83.2838 480 21.9089
83.4012 477 21.8403
83.5186 507 22.5167
83.636 456 21.3542
83.7534 478 21.8632
83.8708 450 21.2132
83.9881 461 21.4709
84.1055 437 20.9045
84.2228 435 20.8567
84.3401 475 21.7945
84.4575 451 21.2368
84.5747 431 20.7605
84.692 454 21.3073
84.8093 457 21.3776
84.9265 432 20.7846
85.0437 469 21.6564
85.1609 393 19.8242
85.2781 417 20.4206
85.3952 421 20.5183
85.5123 389 19.7231
85.6294 424 20.5913
85.7465 400 20
85.8636 381 19.5192
85.9806 390 19.7484
86.0976 398 19.9499
86.2145 354 18.8149
86.3315 348 18.6548
86.4484 302 17.3781
86.5652 367 19.1572
86.682 341 18.4662
86.7988 359 18.9473
86.9156 324 18
87.0323 377 19.4165
87.149 361 19
87.2657 343 18.5203
87.3823 317 17.8045
87.4988 287 16.9411
87.6154 319 17.8606
87.7318 299 17.2916
87.8483 262 16.1864
87.9647 278 16.6733
88.081 239 15.4596
88.1973 184 13.5647
88.3136 176 13.2665
88.4298 161 12.6886
88.546 137 11.7047
88.6621 137 11.7047
88.7781 100 10
88.8942 0 1
89.0101 0 1
89.126 0 1
89.2419 0 1
89.3577 0 1
89.4734 0 1
89.5891 0 1
89.7047 0 1
89.8203 0 1
89.9358 0 1
92.3269 0 1
92.4424 0 1
92.558 0 1
92.6736 0 1
92.7893 0 1
92.905 0 1
93.0208 0 1
93.1366 0 1
93.2525 0 1
93.3685 0 1
93.4845 0 1
93.6005 186 13.6382
93.7167 249 15.7797
93.8328 266 16.3095
93.949 336 18.3303
94.0653 309 17.5784
94.1816 320 17.8885
94.2979 303 17.4069
94.4143 355 18.8414
94.5307 335 18.303
94.6472 350 18.7083
94.7637 350 18.7083
94.8803 331 18.1934
94.9969 388 19.6977
95.1135 359 18.9473
95.2302 373 19.3132
95.3469 403 20.0749
95.4637 348 18.6548
95.5805 343 18.5203
95.6973 401 20.025
95.8142 386 19.6469
95.9311 386 19.6469
96.048 340 18.4391
96.1649 379 19.4679
96.2819 403 20.0749
96.3989 446 21.1187
96.516 422 20.5426
96.633 404 20.0998
96.7501 423 20.567
96.8673 409 20.2237
96.9844 439 20.9523
97.1016 412 20.2978
97.2188 402 20.0499
97.336 419 20.4695
97.4532 416 20.3961
97.5704 467 21.6102
97.6877 456 21.3542
97.805 432 20.7846
97.9223 470 21.6795
98.0396 432 20.7846
98.1569 444 21.0713
98.2743 427 20.664
98.3916 459 21.4243
98.509 470 21.6795
98.6264 447 21.1424
98.7438 474 21.7715
98.8612 448 21.166
98.9786 429 20.7123
99.096 448 21.166
99.2134 447 21.1424
99.3308 431 20.7605
99.4482 474 21.7715
99.5656 466 21.587
99.6831 467 21.6102
99.8005 517 22.7376
99.9179 480 21.9089
100.035 496 22.2711
100.153 508 22.5389
100.27 477 21.8403
100.388 516 22.7156
100.505 491 22.1585
100.622 410 20.2485
100.74 498 22.3159
100.857 521 22.8254
100.975 517 22.7376
101.092 478 21.8632
101.209 473 21.7486
101.327 492 22.1811
101.444 458 21.4009
101.561 511 22.6053
101.679 525 22.9129
101.796 519 22.7816
101.913 515 22.6936
102.03 501 22.383
102.148 495 22.2486
102.265 487 22.0681
102.382 508 22.5389
102.499 509 22.561
102.616 499 22.3383
102.733 502 22.4054
102.851 557 23.6008
102.968 541 23.2594
103.085 515 22.6936
103.202 489 22.1133
103.319 528 22.9783
103.436 533 23.0868
103.552 574 23.9583
103.669 497 22.2935
103.786 529 23
103.903 582 24.1247
104.02 530 23.0217
104.137 510 22.5832
104.253 529 23
104.37 560 23.6643
104.487 606 24.6171
104.603 534 23.1084
104.72 511 22.6053
104.836 538 23.1948
104.953 507 22.5167
105.069 520 22.8035
105.186 503 22.4277
105.302 495 22.2486
105.418 477 21.8403
105.535 416 20.3961
105.651 361 19
105.767 301 17.3494
105.883 273 16.5227
105.999 242 15.5563
106.115 0 1
106.231 0 1
106.347 0 1
106.463 0 1
106.579 0 1
106.694 0 1
106.81 0 1
106.926 0 1
107.041 0 1
107.157 0 1
109.576 0 1
109.692 0 1
109.807 0 1
109.923 0 1
110.039 0 1
110.155 0 1
110.27 0 1
110.386 0 1
110.502 0 1
110.618 278 16.6733
110.735 313 17.6918
110.851 357 18.8944
110.967 376 19.3907
111.083 419 20.4695
111.199 420 20.4939
111.316 408 20.199
111.432 488 22.0907
111.549 504 22.4499
111.665 478 21.8632
111.782 469 21.6564
111.898 450 21.2132
112.015 503 22.4277
112.132 481 21.9317
112.248 466 21.587
112.365 547 23.388
112.482 457 21.3776
112.599 469 21.6564
112.716 508 22.5389
112.832 467 21.6102
112.949 478 21.8632
113.066 489 22.1133
113.183 461 21.4709
113.3 478 21.8632
113.417 478 21.8632
113.534 529 23
113.652 518 22.7596
113.769 505 22.4722
113.886 468 21.6333
114.003 458 21.4009
114.12 456 21.3542
114.238 477 21.8403
114.355 476 21.8174
114.472 448 21.166
114.589 476 21.8174
114.707 444 21.0713
114.824 501 22.383
114.942 475 21.7945
115.059 487 22.0681
115.176 496 22.2711
115.294 470 21.6795
115.411 424 20.5913
115.529 473 21.7486
115.646 485 22.0227
115.764 469 21.6564
115.881 504 22.4499
115.999 485 22.0227
116.116 508 22.5389
116.234 473 21.7486
116.351 489 22.1133
116.469 501 22.383
116.586 480 21.9089
116.704 499 22.3383
116.821 474 21.7715
116.939 503 22.4277
117.056 479 21.8861
117.174 476 21.8174
117.291 468 21.6333
117.409 443 21.0476
117.526 469 21.6564
117.644 448 21.166
117.761 502 22.4054
117.879 492 22.1811
117.996 468 21.6333
118.114 453 21.2838
118.231 456 21.3542
118.349 466 21.587
118.466 462 21.4942
118.584 445 21.095
118.701 497 22.2935
118.819 479 21.8861
118.936 469 21.6564
119.053 443 21.0476
119.171 435 20.8567
119.288 425 20.6155
119.405 493 22.2036
119.523 461 21.4709
119.64 457 21.3776
119.757 474 21.7715
119.875 452 21.2603
119.992 460 21.4476
120.109 460 21.4476
120.226 445 21.095
120.343 450 21.2132
120.46 467 21.6102
120.578 451 21.2368
120.695 482 21.9545
120.812 461 21.4709
120.929 481 21.9317
121.046 468 21.6333
121.163 458 21.4009
121.279 435 20.8567
121.396 439 20.9523
121.513 431 20.7605
121.63 462 21.4942
121.747 429 20.7123
121.863 437 20.9045
121.98 406 20.1494
122.097 428 20.6882
122.213 370 19.2354
122.33 352 18.7617
122.446 355 18.8414
122.563 303 17.4069
122.679 268 16.3707
122.795 256 16
122.912 223 14.9332
123.028 199 14.1067
123.144 203 14.2478
123.26 212 14.5602
123.377 0 1
123.493 0 1
123.609 0 1
123.725 0 1
123.84 0 1
123.956 0 1
124.072 0 1
124.188 0 1
124.303 0 1
124.419 0 1
126.852 0 1
126.968 0 1
127.083 0 1
127.199 0 1
127.315 0 1
127.431 0 1
127.547 0 1
127.663 0 1
127.779 0 1
127.895 0 1
128.011 0 1
128.127 0 1
128.243 0 1
128.359 445 21.095
128.476 471 21.7025
128.592 514 22.6716
128.708 479 21.8861
128.825 513 22.6495
128.941 529 23
129.058 524 22.891
129.174 476 21.8174
129.291 502 22.4054
129.408 518 22.7596
129.524 523 22.8692
129.641 525 22.9129
129.758 519 22.7816
129.875 492 22.1811
129.992 538 23.1948
130.108 493 22.2036
130.225 512 22.6274
130.342 529 23
130.459 503 22.4277
130.576 478 21.8632
130.693 408 20.199
130.81 481 21.9317
130.928 461 21.4709
131.045 469 21.6564
131.162 486 22.0454
131.279 524 22.891
131.396 458 21.4009
131.513 494 22.2261
131.631 456 21.3542
131.748 475 21.7945
131.865 484 22
131.983 464 21.5407
132.1 472 21.7256
132.217 494 22.2261
132.335 503 22.4277
132.452 532 23.0651
132.57 487 22.0681
132.687 522 22.8473
132.804 497 22.2935
132.922 493 22.2036
133.039 506 22.4944
133.157 532 23.0651
133.274 514 22.6716
133.392 508 22.5389
133.509 492 22.1811
133.627 517 22.7376
133.744 528 22.9783
133.862 520 22.8035
133.979 548 23.4094
134.097 472 21.7256
134.214 481 21.9317
134.332 478 21.8632
134.449 496 22.2711
134.567 445 21.095
134.684 497 22.2935
134.802 528 22.9783
134.919 505 22.4722
135.037 511 22.6053
135.154 436 20.8806
135.272 509 22.561
135.389 472 21.7256
135.507 513 22.6495
135.624 478 21.8632
135.742 480 21.9089
135.859 467 21.6102
135.977 504 22.4499
136.094 534 23.1084
136.211 514 22.6716
136.329 500 22.3607
136.446 532 23.0651
136.564 508 22.5389
136.681 510 22.5832
136.798 508 22.5389
136.915 475 21.7945
137.033 506 22.4944
137.15 533 23.0868
137.267 523 22.8692
137.384 527 22.9565
137.502 466 21.587
137.619 522 22.8473
137.736 503 22.4277
137.853 448 21.166
137.97 460 21.4476
138.087 417 20.4206
138.204 457 21.3776
138.321 465 21.5639
138.438 481 21.9317
138.555 497 22.2935
138.672 459 21.4243
138.788 494 22.2261
138.905 475 21.7945
139.022 468 21.6333
139.139 465 21.5639
139.255 400 20
139.372 409 20.2237
139.488 405 20.1246
139.605 373 19.3132
139.721 363 19.0526
139.838 328 18.1108
139.954 318 17.8326
140.071 330 18.1659
140.187 268 16.3707
140.303 248 15.748
140.419 234 15.2971
140.535 251 15.843
140.652 194 13.9284
140.768 0 1
140.884 0 1
141 0 1
141.115 0 1
141.231 0 1
141.347 0 1
141.463 0 1
141.578 0 1
141.694 0 1
144.104 0 1
144.219 0 1
144.335 0 1
144.45 0 1
144.566 0 1
144.682 0 1
144.798 0 1
144.914 0 1
145.03 0 1
145.146 340 18.4391
145.262 381 19.5192
145.378 401 20.025
145.494 392 19.799
145.61 375 19.3649
145.726 388 19.6977
145.842 408 20.199
145.959 394 19.8494
146.075 393 19.8242
146.192 371 19.2614
146.308 406 20.1494
146.425 380 19.4936
146.541 353 18.7883
146.658 369 19.2094
146.774 347 18.6279
146.891 363 19.0526
147.008 379 19.4679
147.125 348 18.6548
147.241 414 20.347
147.358 402 20.0499
147.475 405 20.1246
147.592 370 19.2354
147.709 353 18.7883
147.826 360 18.9737
147.943 353 18.7883
148.06 367 19.1572
148.177 361 19
148.294 339 18.412
148.411 369 19.2094
148.528 402 20.0499
148.645 386 19.6469
148.762 412 20.2978
148.88 380 19.4936
148.997 377 19.4165
149.114 411 20.2731
149.231 432 20.7846
149.349 419 20.4695
149.466 390 19.7484
149.583 364 19.0788
149.701 391 19.7737
149.818 363 19.0526
149.935 368 19.1833
150.053 348 18.6548
150.17 365 19.105
150.287 309 17.5784
150.405 387 19.6723
150.522 350 18.7083
150.64 356 18.868
150.757 376 19.3907
150.875 370 19.2354
150.992 368 19.1833
151.11 387 19.6723
151.227 349 18.6815
151.344 353 18.7883
151.462 346 18.6011
151.579 368 19.1833
151.697 342 18.4932
151.814 332 18.2209
151.932 345 18.5742
152.049 370 19.2354
152.167 386 19.6469
152.284 387 19.6723
152.402 392 19.799
152.519 406 20.1494
152.636 373 19.3132
152.754 373 19.3132
152.871 338 18.3848
152.989 386 19.6469
153.106 372 19.2873
153.223 369 19.2094
153.341 350 18.7083
153.458 394 19.8494
153.575 351 18.735
153.693 369 19.2094
153.81 333 18.2483
153.927 347 18.6279
154.044 352 18.7617
154.162 374 19.3391
154.279 347 18.6279
154.396 384 19.5959
154.513 373 19.3132
154.63 348 18.6548
154.747 339 18.412
154.864 374 19.3391
154.981 330 18.1659
155.098 321 17.9165
155.215 325 18.0278
155.332 320 17.8885
155.449 280 16.7332
155.566 367 19.1572
155.683 345 18.5742
155.8 341 18.4662
155.917 367 19.1572
156.033 337 18.3576
156.15 0 1
156.267 0 1
156.383 0 1
156.5 0 1
156.617 0 1
156.733 0 1
156.85 0 1
156.966 0 1
157.082 0 1
157.199 0 1
157.315 0 1
157.431 0 1
157.547 0 1
157.664 0 1
157.78 0 1
157.896 0 1
158.012 0 1
158.128 0 1
158.244 0 1
158.359 0 1
158.475 0 1
158.591 0 1
158.706 0 1
