
6.15755 0 1
6.2731 0 1
6.3887 0 1
6.50437 0 1
6.62009 0 1
6.73587 0 1
6.8517 0 1
6.96759 0 1
7.08353 0 1
7.19952 0 1
7.31557 0 1
7.43166 0 1
7.54781 0 1
7.664 0 1
7.78024 0 1
7.89653 0 1
8.01286 0 1
8.12924 0 1
8.24567 0 1
8.36213 0 1
8.47864 0 1
8.59519 0 1
8.71178 0 1
8.82841 0 1
8.94508 0 1
9.06179 0 1
9.17853 0 1
9.29531 0 1
9.41212 0 1
9.52897 0 1
9.64584 0 1
9.76276 0 1
9.8797 0 1
9.99667 0 1
10.1137 0 1
10.2307 0 1
10.3478 0 1
10.4648 0 1
10.5819 0 1
10.6991 0 1
10.8162 0 1
10.9334 0 1
11.0506 0 1
11.1678 0 1
11.285 0 1
11.4023 0 1
11.5196 0 1
11.6369 0 1
11.7542 0 1
11.8715 0 1
11.9888 0 1
12.1062 0 1
12.2235 0 1
12.3409 0 1
12.4582 0 1
12.5756 0 1
12.693 0 1
12.8104 0 1
12.9278 0 1
13.0452 0 1
13.1626 0 1
13.28 0 1
13.3974 0 1
13.5149 0 1
13.6323 0 1
13.7497 0 1
13.8671 0 1
13.9845 0 1
14.1019 0 1
14.2193 0 1
14.3367 0 1
14.4541 0 1
14.5714 0 1
14.6888 0 1
14.8062 0 1
14.9235 0 1
15.0408 0 0
15.1581 0 0
15.2755 0 0
15.3927 0 0
15.51 0 0
15.6273 0 0
15.7445 0 0
15.8617 0 0
15.9789 0 0
16.0961 0 0
16.2132 0 0
16.3304 0 0
16.4475 0 0
16.5646 0 0
16.6816 0 0
16.7986 0 0
16.9156 0 0
17.0326 0 0
17.1496 0 0
17.2665 0 0
17.3833 0 0
17.5002 0 0
17.617 0 0
17.7338 0 0
17.8505 0 0
17.9672 0 0
18.0839 0 0
18.2005 0 0
18.3171 0 0
18.4337 0 0
18.5502 0 0
18.6666 0 0
18.7831 0 0
18.8994 0 0
19.0158 0 0
19.1321 0 0
19.2483 0 0
19.3645 0 0
19.4806 0 0
19.5967 0 0
19.7128 0 0
19.8288 0 0
19.9447 0 0
20.0606 0 1
20.1764 0 1
20.2922 0 1
20.4079 0 1
20.5236 0 1
20.6392 0 1
20.7548 0 1
20.8702 0 1
23.3078 0 1
23.4233 0 1
23.539 0 1
23.6547 0 1
23.7704 0 1
23.8862 0 1
24.0021 0 1
24.118 0 1
24.234 0 1
24.35 0 1
24.4661 1764 42
24.5822 1766 42.0238
24.6984 1802 42.45
24.8146 1777 42.1545
24.9309 1723 41.509
25.0472 1680 40.9878
25.1636 1698 41.2068
25.28 1747 41.7971
25.3965 1769 42.0595
25.513 1774 42.1189
25.6296 1871 43.2551
25.7462 1932 43.9545
25.8628 1940 44.0454
25.9795 2013 44.8665
26.0962 2062 45.4093
26.213 2132 46.1736
26.3298 2071 45.5082
26.4466 1993 44.643
26.5635 1933 43.9659
26.6804 1905 43.6463
26.7973 1883 43.3935
26.9143 1896 43.5431
27.0313 1806 42.4971
27.1483 1912 43.7264
27.2653 1958 44.2493
27.3824 1987 44.5758
27.4996 2023 44.9778
27.6167 1915 43.7607
27.7339 2027 45.0222
27.8511 2001 44.7325
27.9683 1931 43.9431
28.0855 1887 43.4396
28.2028 1849 43
28.3201 1934 43.9773
28.4374 1823 42.6966
28.5547 1811 42.5558
28.6721 1655 40.6817
28.7894 1690 41.1096
28.9068 1706 41.3038
29.0242 1812 42.5676
29.1416 1766 42.0238
29.259 1921 43.8292
29.3764 1925 43.8748
29.4939 2005 44.7772
29.6113 2089 45.7056
29.7288 2075 45.5522
29.8463 2074 45.5412
29.9638 2078 45.5851
30.0812 2023 44.9778
30.1987 1911 43.715
30.3162 1830 42.7785
30.4337 1755 41.8927
30.5512 1900 43.589
30.6687 1907 43.6692
30.7862 1977 44.4635
30.9037 2020 44.9444
31.0212 1963 44.3058
31.1387 2124 46.0869
31.2562 2053 45.31
31.3737 1917 43.7836
31.4912 1973 44.4185
31.6087 1975 44.441
31.7262 1920 43.8178
31.8436 1849 43
31.9611 1860 43.1277
32.0785 1739 41.7013
32.1959 1770 42.0714
32.3134 1722 41.497
32.4308 1684 41.0366
32.5482 1749 41.821
32.6655 1783 42.2256
32.7829 1972 44.4072
32.9002 1891 43.4856
33.0176 2015 44.8888
33.1349 1946 44.1135
33.2522 2039 45.1553
33.3694 2001 44.7325
33.4867 1987 44.5758
33.6039 2064 45.4313
33.7211 1979 44.486
33.8383 1885 43.4166
33.9554 1776 42.1426
34.0725 1750 41.833
34.1896 1803 42.4617
34.3067 1912 43.7264
34.4237 1885 43.4166
34.5407 2019 44.9333
34.6577 2094 45.7602
34.7746 1954 44.2041
34.8915 2035 45.111
35.0084 1964 44.317
35.1252 2011 44.8442
35.242 1968 44.3621
35.3587 1932 43.9545
35.4755 1926 43.8862
35.5921 1950 44.1588
35.7088 1790 42.3084
35.8254 1757 41.9166
35.9419 1682 41.0122
36.0584 1698 41.2068
36.1749 1682 41.0122
36.2913 1672 40.8901
36.4077 1748 41.8091
36.524 1798 42.4028
36.6403 1833 42.8135
36.7565 1883 43.3935
36.8727 1956 44.2267
36.9889 1944 44.0908
37.1049 1914 43.7493
37.221 0 1
37.3369 0 1
37.4529 0 1
37.5687 0 1
37.6845 0 1
37.8003 0 1
37.916 0 1
38.0316 0 1
38.1472 0 1
40.5851 0 1
40.7008 0 1
40.8164 0 1
40.9322 0 1
41.048 0 1
41.1639 0 1
41.2798 0 1
41.3958 0 1
41.5118 0 1
41.6279 0 1
41.744 1430 37.8153
41.8602 1601 40.0125
41.9765 1632 40.398
42.0928 1707 41.3159
42.2091 1782 42.2137
42.3255 1761 41.9643
42.4419 1716 41.4246
42.5584 1659 40.7308
42.675 1589 39.8623
42.7915 1512 38.8844
42.9081 1503 38.7685
43.0248 1553 39.4081
43.1415 1669 40.8534
43.2582 1601 40.0125
43.375 1708 41.328
43.4918 1688 41.0853
43.6087 1683 41.0244
43.7256 1757 41.9166
43.8425 1715 41.4126
43.9595 1657 40.7063
44.0765 1594 39.9249
44.1935 1628 40.3485
44.3106 1498 38.704
44.4277 1590 39.8748
44.5448 1458 38.1838
44.6619 1306 36.1386
44.7791 1330 36.4692
44.8963 1268 35.609
45.0136 1367 36.973
45.1308 1345 36.6742
45.2481 1331 36.4829
45.3654 1391 37.2961
45.4827 1471 38.3536
45.6001 1557 39.4588
45.7174 1476 38.4187
45.8348 1451 38.092
45.9522 1513 38.8973
46.0697 1497 38.6911
46.1871 1367 36.973
46.3046 1249 35.3412
46.422 1212 34.8138
46.5395 1251 35.3695
46.657 1278 35.7491
46.7745 1315 36.2629
46.892 1351 36.756
47.0096 1369 37
47.1271 1417 37.6431
47.2446 1324 36.3868
47.3622 1350 36.7423
47.4797 1258 35.4683
47.5973 1258 35.4683
47.7149 1230 35.0714
47.8324 1211 34.7994
47.95 1195 34.5688
48.0675 1125 33.541
48.1851 1037 32.2025
48.3027 961 31
48.4202 1037 32.2025
48.5378 1068 32.6803
48.6554 1060 32.5576
48.7729 1017 31.8904
48.8904 1126 33.5559
49.008 1197 34.5977
49.1255 1261 35.5106
49.243 1249 35.3412
49.3605 1199 34.6266
49.478 1269 35.623
49.5955 1208 34.7563
49.713 1173 34.2491
49.8304 1099 33.1512
49.9479 988 31.4325
50.0653 1116 33.4066
50.1827 1231 35.0856
50.3001 1254 35.4119
50.4175 1389 37.2693
50.5348 1410 37.55
50.6521 1350 36.7423
50.7694 1379 37.1349
50.8867 1392 37.3095
51.004 1392 37.3095
51.1212 1428 37.7889
51.2384 1425 37.7492
51.3556 1399 37.4032
51.4727 1309 36.1801
51.5899 1398 37.3898
51.707 1370 37.0135
51.824 1257 35.4542
51.9411 1294 35.9722
52.0581 1272 35.6651
52.175 1399 37.4032
52.2919 1483 38.5097
52.4088 1579 39.7366
52.5257 1625 40.3113
52.6425 1623 40.2865
52.7593 1669 40.8534
52.876 1670 40.8656
52.9927 1800 42.4264
53.1094 1660 40.7431
53.226 1624 40.2989
53.3426 1461 38.223
53.4591 1466 38.2884
53.5756 1401 37.4299
53.692 1465 38.2753
53.8084 1550 39.37
53.9248 1649 40.6079
54.0411 1758 41.9285
54.1573 1685 41.0488
54.2735 0 1
54.3896 0 1
54.5057 0 1
54.6217 0 1
54.7377 0 1
54.8537 0 1
54.9695 0 1
55.0853 0 1
55.2011 0 1
55.3168 0 1
55.4324 0 1
57.824 0 1
57.9396 0 1
58.0553 0 1
58.1711 0 1
58.2869 0 1
58.4028 0 1
58.5187 0 1
58.6347 0 1
58.7508 0 1
58.8669 0 1
58.983 1759 41.9404
59.0992 1967 44.3509
59.2155 2015 44.8888
59.3318 2073 45.5302
59.4482 1990 44.6094
59.5646 2037 45.1331
59.681 2041 45.1774
59.7975 2088 45.6946
59.9141 2008 44.8107
60.0306 1936 44
60.1473 1894 43.5201
60.2639 1756 41.9047
60.3807 1785 42.2493
60.4974 1728 41.5692
60.6142 1646 40.5709
60.731 1738 41.6893
60.8479 1660 40.7431
60.9648 1783 42.2256
61.0818 1887 43.4396
61.1987 1873 43.2782
61.3158 1932 43.9545
61.4328 1957 44.238
61.5499 1887 43.4396
61.667 1902 43.6119
61.7841 1853 43.0465
61.9013 1742 41.7373
62.0185 1709 41.3401
62.1357 1714 41.4005
62.253 1680 40.9878
62.3702 1762 41.9762
62.4875 1866 43.1972
62.6049 1855 43.0697
62.7222 1887 43.4396
62.8396 1920 43.8178
62.9569 1993 44.643
63.0743 1896 43.5431
63.1918 1987 44.5758
63.3092 1964 44.317
63.4267 1855 43.0697
63.5441 1803 42.4617
63.6616 1781 42.2019
63.7791 1658 40.7185
63.8966 1593 39.9124
64.0142 1513 38.8973
64.1317 1581 39.7618
64.2492 1592 39.8999
64.3668 1572 39.6485
64.4843 1594 39.9249
64.6019 1750 41.833
64.7195 1750 41.833
64.837 1776 42.1426
64.9546 1853 43.0465
65.0722 1927 43.8976
65.1898 1756 41.9047
65.3074 1768 42.0476
65.4249 1633 40.4104
65.5425 1547 39.3319
65.6601 1446 38.0263
65.7777 1526 39.064
65.8952 1543 39.281
66.0128 1675 40.9268
66.1304 1716 41.4246
66.2479 1806 42.4971
66.3655 1868 43.2204
66.483 1878 43.3359
66.6005 1879 43.3474
66.718 1853 43.0465
66.8355 1907 43.6692
66.953 1796 42.3792
67.0705 1796 42.3792
67.1879 1719 41.4608
67.3054 1635 40.4351
67.4228 1603 40.0375
67.5402 1648 40.5956
67.6576 1580 39.7492
67.7749 1425 37.7492
67.8923 1438 37.921
68.0096 1461 38.223
68.1269 1619 40.2368
68.2442 1689 41.0974
68.3614 1763 41.9881
68.4787 1763 41.9881
68.5958 1818 42.638
68.713 1742 41.7373
68.8302 1813 42.5793
68.9473 1718 41.4488
69.0643 1602 40.025
69.1814 1523 39.0256
69.2984 1505 38.7943
69.4154 1585 39.8121
69.5323 1640 40.4969
69.6492 1776 42.1426
69.7661 1806 42.4971
69.8829 1946 44.1135
69.9997 1930 43.9318
70.1165 1993 44.643
70.2332 2007 44.7996
70.3499 1957 44.238
70.4665 1894 43.5201
70.5831 1962 44.2945
70.6996 1862 43.1509
70.8161 1871 43.2551
70.9326 1740 41.7133
71.049 1705 41.2916
71.1653 1574 39.6737
71.2817 1547 39.3319
71.3979 1483 38.5097
71.5141 1471 38.3536
71.6303 1480 38.4708
71.7464 1390 37.2827
71.8624 0 1
71.9784 0 1
72.0944 0 1
72.2102 0 1
72.3261 0 1
72.4418 0 1
72.5575 0 1
72.6732 0 1
75.1054 0 1
75.2209 0 1
75.3365 0 1
75.4521 0 1
75.5678 0 1
75.6835 0 1
75.7993 0 1
75.9151 0 1
76.031 0 1
76.147 1637 40.4599
76.263 1579 39.7366
76.3791 1743 41.7493
76.4952 1575 39.6863
76.6113 1510 38.8587
76.7276 1479 38.4578
76.8438 1470 38.3406
76.9601 1496 38.6782
77.0765 1639 40.4846
77.1929 1686 41.0609
77.3093 1776 42.1426
77.4258 1860 43.1277
77.5423 1740 41.7133
77.6589 1813 42.5793
77.7755 1876 43.3128
77.8921 1738 41.6893
78.0088 1716 41.4246
78.1256 1531 39.128
78.2423 1424 37.7359
78.3591 1396 37.3631
78.4759 1450 38.0789
78.5928 1590 39.8748
78.7097 1647 40.5832
78.8266 1735 41.6533
78.9436 1811 42.5558
79.0606 1856 43.0813
79.1776 1861 43.1393
79.2946 1865 43.1856
79.4117 1850 43.0116
79.5288 1945 44.1022
79.6459 1900 43.589
79.7631 1741 41.7253
79.8802 1695 41.1704
79.9974 1621 40.2616
80.1147 1535 39.1791
80.2319 1497 38.6911
80.3491 1413 37.5899
80.4664 1408 37.5233
80.5837 1357 36.8375
80.701 1484 38.5227
80.8183 1655 40.6817
80.9357 1761 41.9643
81.053 1793 42.3438
81.1704 1760 41.9524
81.2877 1713 41.3884
81.4051 1745 41.7732
81.5225 1671 40.8779
81.6399 1561 39.5095
81.7573 1509 38.8458
81.8747 1334 36.524
81.9922 1362 36.9053
82.1096 1350 36.7423
82.227 1466 38.2884
82.3444 1543 39.281
82.4619 1689 41.0974
82.5793 1734 41.6413
82.6967 1691 41.1218
82.8142 1818 42.638
82.9316 1738 41.6893
83.049 1739 41.7013
83.1664 1784 42.2374
83.2838 1624 40.2989
83.4012 1694 41.1582
83.5186 1601 40.0125
83.636 1523 39.0256
83.7534 1423 37.7227
83.8708 1345 36.6742
83.9881 1256 35.4401
84.1055 1191 34.5109
84.2228 1228 35.0428
84.3401 1348 36.7151
84.4575 1478 38.4448
84.5747 1583 39.7869
84.692 1631 40.3856
84.8093 1665 40.8044
84.9265 1660 40.7431
85.0437 1631 40.3856
85.1609 1627 40.3361
85.2781 1435 37.8814
85.3952 1351 36.756
85.5123 1315 36.2629
85.6294 1365 36.9459
85.7465 1351 36.756
85.8636 1530 39.1152
85.9806 1714 41.4005
86.0976 1771 42.0833
86.2145 1752 41.8569
86.3315 1862 43.1509
86.4484 1828 42.7551
86.5652 1833 42.8135
86.682 1967 44.3509
86.7988 1860 43.1277
86.9156 1876 43.3128
87.0323 1805 42.4853
87.149 1708 41.328
87.2657 1645 40.5586
87.3823 1596 39.95
87.4988 1595 39.9375
87.6154 1467 38.3014
87.7318 1498 38.704
87.8483 1562 39.5221
87.9647 1680 40.9878
88.081 1817 42.6263
88.1973 1950 44.1588
88.3136 2009 44.8219
88.4298 1880 43.359
88.546 1901 43.6005
88.6621 1799 42.4146
88.7781 1656 40.694
88.8942 0 1
89.0101 0 1
89.126 0 1
89.2419 0 1
89.3577 0 1
89.4734 0 1
89.5891 0 1
89.7047 0 1
89.8203 0 1
89.9358 0 1
92.3269 0 1
92.4424 0 1
92.558 0 1
92.6736 0 1
92.7893 0 1
92.905 0 1
93.0208 0 1
93.1366 0 1
93.2525 0 1
93.3685 0 1
93.4845 0 1
93.6005 1875 43.3013
93.7167 1832 42.8019
93.8328 1913 43.7379
93.949 1830 42.7785
94.0653 1845 42.9535
94.1816 1747 41.7971
94.2979 1585 39.8121
94.4143 1577 39.7115
94.5307 1480 38.4708
94.6472 1565 39.5601
94.7637 1547 39.3319
94.8803 1698 41.2068
94.9969 1773 42.107
95.1135 1851 43.0232
95.2302 1931 43.9431
95.3469 2008 44.8107
95.4637 2084 45.6508
95.5805 2017 44.911
95.6973 2200 46.9042
95.8142 2153 46.4004
95.9311 2117 46.0109
96.048 2110 45.9347
96.1649 1931 43.9431
96.2819 1936 44
96.3989 1857 43.0929
96.516 1911 43.715
96.633 1700 41.2311
96.7501 1612 40.1497
96.8673 1662 40.7676
96.9844 1776 42.1426
97.1016 1810 42.5441
97.2188 1922 43.8406
97.336 2025 45
97.4532 2082 45.6289
97.5704 2086 45.6727
97.6877 1969 44.3734
97.805 1948 44.1362
97.9223 1872 43.2666
98.0396 1729 41.5812
98.1569 1638 40.4722
98.2743 1637 40.4599
98.3916 1650 40.6202
98.509 1803 42.4617
98.6264 1850 43.0116
98.7438 2024 44.9889
98.8612 2089 45.7056
98.9786 2146 46.3249
99.096 2248 47.4131
99.2134 2270 47.6445
99.3308 2201 46.9148
99.4482 2245 47.3814
99.5656 2265 47.592
99.6831 2249 47.4236
99.8005 2145 46.3141
99.9179 2101 45.8367
100.035 2070 45.4973
100.153 1843 42.9302
100.27 1763 41.9881
100.388 1677 40.9512
100.505 1843 42.9302
100.622 1953 44.1928
100.74 2051 45.288
100.857 2151 46.3789
100.975 2185 46.744
101.092 2169 46.5725
101.209 2180 46.6905
101.327 2184 46.7333
101.444 1974 44.4297
101.561 1836 42.8486
101.679 1812 42.5676
101.796 1745 41.7732
101.913 1626 40.3237
102.03 1802 42.45
102.148 1920 43.8178
102.265 2243 47.3603
102.382 2125 46.0977
102.499 2350 48.4768
102.616 2261 47.55
102.733 2275 47.697
102.851 2298 47.9375
102.968 2432 49.3153
103.085 2376 48.7442
103.202 2322 48.1871
103.319 2263 47.571
103.436 2135 46.2061
103.552 2126 46.1086
103.669 2035 45.111
103.786 1900 43.589
103.903 1883 43.3935
104.02 1931 43.9431
104.137 2147 46.3357
104.253 2195 46.8508
104.37 2193 46.8295
104.487 2377 48.7545
104.603 2311 48.0729
104.72 2292 47.8748
104.836 2360 48.5798
104.953 2150 46.3681
105.069 1985 44.5533
105.186 1831 42.7902
105.302 1905 43.6463
105.418 1862 43.1509
105.535 1880 43.359
105.651 2092 45.7384
105.767 2249 47.4236
105.883 2276 47.7074
105.999 2446 49.4571
106.115 0 1
106.231 0 1
106.347 0 1
106.463 0 1
106.579 0 1
106.694 0 1
106.81 0 1
106.926 0 1
107.041 0 1
107.157 0 1
109.576 0 1
109.692 0 1
109.807 0 1
109.923 0 1
110.039 0 1
110.155 0 1
110.27 0 1
110.386 0 1
110.502 0 1
110.618 1846 42.9651
110.735 2055 45.3321
110.851 2261 47.55
110.967 2379 48.775
111.083 2344 48.4149
111.199 2503 50.03
111.316 2394 48.9285
111.432 2495 49.95
111.549 2457 49.5681
111.665 2439 49.3862
111.782 2376 48.7442
111.898 2347 48.4458
112.015 2271 47.655
112.132 2141 46.2709
112.248 2017 44.911
112.365 1904 43.6348
112.482 1953 44.1928
112.599 2011 44.8442
112.716 2175 46.6369
112.832 2301 47.9687
112.949 2305 48.0104
113.066 2296 47.9166
113.183 2280 47.7493
113.3 2208 46.9894
113.417 2299 47.9479
113.534 2098 45.8039
113.652 1938 44.0227
113.769 1832 42.8019
113.886 1776 42.1426
114.003 1772 42.0951
114.12 1895 43.5316
114.238 2008 44.8107
114.355 2110 45.9347
114.472 2388 48.8672
114.589 2205 46.9574
114.707 2401 49
114.824 2444 49.4368
114.942 2400 48.9898
115.059 2444 49.4368
115.176 2292 47.8748
115.294 2390 48.8876
115.411 2220 47.1169
115.529 2274 47.6865
115.646 2202 46.9255
115.764 2006 44.7884
115.881 1896 43.5431
115.999 1892 43.4971
116.116 1927 43.8976
116.234 2052 45.299
116.351 2151 46.3789
116.469 2275 47.697
116.586 2270 47.6445
116.704 2175 46.6369
116.821 2225 47.1699
116.939 2159 46.465
117.056 2084 45.6508
117.174 2002 44.7437
117.291 1809 42.5323
117.409 1695 41.1704
117.526 1726 41.5452
117.644 1770 42.0714
117.761 1974 44.4297
117.879 2060 45.3872
117.996 2102 45.8476
118.114 2300 47.9583
118.231 2284 47.7912
118.349 2305 48.0104
118.466 2313 48.0937
118.584 2309 48.0521
118.701 2285 47.8017
118.819 2215 47.0638
118.936 2174 46.6262
119.053 2126 46.1086
119.171 2000 44.7214
119.288 1985 44.5533
119.405 1967 44.3509
119.523 1811 42.5558
119.64 1801 42.4382
119.757 1776 42.1426
119.875 1993 44.643
119.992 1993 44.643
120.109 2137 46.2277
120.226 2116 46
120.343 2092 45.7384
120.46 2036 45.1221
120.578 2096 45.7821
120.695 2018 44.9222
120.812 1813 42.5793
120.929 1736 41.6653
121.046 1625 40.3113
121.163 1716 41.4246
121.279 1603 40.0375
121.396 1865 43.1856
121.513 1934 43.9773
121.63 2005 44.7772
121.747 2075 45.5522
121.863 2179 46.6798
121.98 2117 46.0109
122.097 2105 45.8803
122.213 2168 46.5618
122.33 2160 46.4758
122.446 2102 45.8476
122.563 2046 45.2327
122.679 2007 44.7996
122.795 1952 44.1814
122.912 1940 44.0454
123.028 1894 43.5201
123.144 1806 42.4971
123.26 1715 41.4126
123.377 0 1
123.493 0 1
123.609 0 1
123.725 0 1
123.84 0 1
123.956 0 1
124.072 0 1
124.188 0 1
124.303 0 1
124.419 0 1
126.852 0 1
126.968 0 1
127.083 0 1
127.199 0 1
127.315 0 1
127.431 0 1
127.547 0 1
127.663 0 1
127.779 0 1
127.895 0 1
128.011 0 1
128.127 0 1
128.243 0 1
128.359 1951 44.1701
128.476 1809 42.5323
128.592 1865 43.1856
128.708 1920 43.8178
128.825 2005 44.7772
128.941 2149 46.3573
129.058 2071 45.5082
129.174 2211 47.0213
129.291 2123 46.076
129.408 2167 46.551
129.524 2014 44.8776
129.641 1932 43.9545
129.758 1827 42.7434
129.875 1748 41.8091
129.992 1710 41.3521
130.108 1723 41.509
130.225 1739 41.7013
130.342 1813 42.5793
130.459 1905 43.6463
130.576 2099 45.8148
130.693 2058 45.3652
130.81 2146 46.3249
130.928 2162 46.4973
131.045 2165 46.5296
131.162 2150 46.3681
131.279 2104 45.8694
131.396 2193 46.8295
131.513 2124 46.0869
131.631 2113 45.9674
131.748 2073 45.5302
131.865 2033 45.0888
131.983 1890 43.4741
132.1 1829 42.7668
132.217 1888 43.4511
132.335 1989 44.5982
132.452 2095 45.7712
132.57 2151 46.3789
132.687 2017 44.911
132.804 2258 47.5184
132.922 2195 46.8508
133.039 2121 46.0543
133.157 2002 44.7437
133.274 1893 43.5086
133.392 1808 42.5206
133.509 1714 41.4005
133.627 1685 41.0488
133.744 1807 42.5088
133.862 1817 42.6263
133.979 1981 44.5084
134.097 2028 45.0333
134.214 2172 46.6047
134.332 2050 45.2769
134.449 2067 45.4643
134.567 2161 46.4866
134.684 2256 47.4974
134.802 2153 46.4004
134.919 2234 47.2652
135.037 2240 47.3286
135.154 2181 46.7012
135.272 2101 45.8367
135.389 2055 45.3321
135.507 1922 43.8406
135.624 1831 42.7902
135.742 1890 43.4741
135.859 1929 43.9204
135.977 2091 45.7275
136.094 2197 46.8722
136.211 2084 45.6508
136.329 2129 46.1411
136.446 2181 46.7012
136.564 2182 46.7119
136.681 2018 44.9222
136.798 1923 43.852
136.915 1891 43.4856
137.033 1797 42.391
137.15 1773 42.107
137.267 1684 41.0366
137.384 1683 41.0244
137.502 1884 43.4051
137.619 1984 44.5421
137.736 1968 44.3621
137.853 2049 45.2659
137.97 2167 46.551
138.087 2075 45.5522
138.204 2180 46.6905
138.321 2215 47.0638
138.438 2254 47.4763
138.555 2225 47.1699
138.672 2215 47.0638
138.788 2307 48.0312
138.905 2196 46.8615
139.022 2040 45.1664
139.139 1951 44.1701
139.255 1878 43.3359
139.372 2035 45.111
139.488 2037 45.1331
139.605 2105 45.8803
139.721 2236 47.2864
139.838 2229 47.2123
139.954 2237 47.2969
140.071 2244 47.3709
140.187 2185 46.744
140.303 2098 45.8039
140.419 1951 44.1701
140.535 1850 43.0116
140.652 1748 41.8091
140.768 0 1
140.884 0 1
141 0 1
141.115 0 1
141.231 0 1
141.347 0 1
141.463 0 1
141.578 0 1
141.694 0 1
144.104 0 1
144.219 0 1
144.335 0 1
144.45 0 1
144.566 0 1
144.682 0 1
144.798 0 1
144.914 0 1
145.03 0 1
145.146 1945 44.1022
145.262 1799 42.4146
145.378 1825 42.72
145.494 1670 40.8656
145.61 1669 40.8534
145.726 1568 39.598
145.842 1552 39.3954
145.959 1579 39.7366
146.075 1651 40.6325
146.192 1763 41.9881
146.308 1777 42.1545
146.425 1817 42.6263
146.541 1873 43.2782
146.658 1875 43.3013
146.774 1849 43
146.891 1957 44.238
147.008 1930 43.9318
147.125 2018 44.9222
147.241 1983 44.5309
147.358 1979 44.486
147.475 1877 43.3244
147.592 1839 42.8836
147.709 1733 41.6293
147.826 1703 41.2674
147.943 1703 41.2674
148.06 1594 39.9249
148.177 1798 42.4028
148.294 1921 43.8292
148.411 1950 44.1588
148.528 1983 44.5309
148.645 1837 42.8602
148.762 1927 43.8976
148.88 1779 42.1782
148.997 1681 41
149.114 1706 41.3038
149.231 1625 40.3113
149.349 1634 40.4228
149.466 1431 37.8286
149.583 1451 38.092
149.701 1497 38.6911
149.818 1623 40.2865
149.935 1572 39.6485
150.053 1734 41.6413
150.17 1677 40.9512
150.287 1734 41.6413
150.405 1830 42.7785
150.522 1786 42.2611
150.64 1830 42.7785
150.757 1912 43.7264
150.875 1918 43.795
150.992 1892 43.4971
151.11 1823 42.6966
151.227 1632 40.398
151.344 1793 42.3438
151.462 1599 39.9875
151.579 1636 40.4475
151.697 1611 40.1373
151.814 1811 42.5558
151.932 1832 42.8019
152.049 1841 42.9069
152.167 1831 42.7902
152.284 1858 43.1045
152.402 1887 43.4396
152.519 1808 42.5206
152.636 1638 40.4722
152.754 1673 40.9023
152.871 1520 38.9872
152.989 1482 38.4968
153.106 1525 39.0512
153.223 1570 39.6232
153.341 1560 39.4968
153.458 1674 40.9145
153.575 1695 41.1704
153.693 1674 40.9145
153.81 1791 42.3202
153.927 1761 41.9643
154.044 1837 42.8602
154.162 1818 42.638
154.279 1859 43.1161
154.396 1871 43.2551
154.513 1965 44.3283
154.63 1926 43.8862
154.747 1979 44.486
154.864 1843 42.9302
154.981 1785 42.2493
155.098 1800 42.4264
155.215 1709 41.3401
155.332 1781 42.2019
155.449 1815 42.6028
155.566 1922 43.8406
155.683 1893 43.5086
155.8 1889 43.4626
155.917 1959 44.2606
156.033 1921 43.8292
156.15 0 1
156.267 0 1
156.383 0 1
156.5 0 1
156.617 0 1
156.733 0 1
156.85 0 1
156.966 0 1
157.082 0 1
157.199 0 1
157.315 0 1
157.431 0 1
157.547 0 1
157.664 0 1
157.78 0 1
157.896 0 1
158.012 0 1
158.128 0 1
158.244 0 1
158.359 0 1
158.475 0 1
158.591 0 1
158.706 0 1
