
6.15755 0 1
6.2731 0 1
6.3887 0 1
6.50437 0 1
6.62009 0 1
6.73587 0 1
6.8517 0 1
6.96759 0 1
7.08353 0 1
7.19952 0 1
7.31557 0 1
7.43166 0 1
7.54781 0 1
7.664 0 1
7.78024 0 1
7.89653 0 1
8.01286 0 1
8.12924 0 1
8.24567 0 1
8.36213 0 1
8.47864 0 1
8.59519 0 1
8.71178 0 1
8.82841 0 1
8.94508 0 1
9.06179 0 1
9.17853 0 1
9.29531 0 1
9.41212 0 1
9.52897 0 1
9.64584 0 1
9.76276 0 1
9.8797 0 1
9.99667 0 1
10.1137 0 1
10.2307 0 1
10.3478 0 1
10.4648 0 1
10.5819 0 1
10.6991 0 1
10.8162 0 1
10.9334 0 1
11.0506 0 1
11.1678 0 1
11.285 0 1
11.4023 0 1
11.5196 0 1
11.6369 0 1
11.7542 0 1
11.8715 0 1
11.9888 0 1
12.1062 0 1
12.2235 0 1
12.3409 0 1
12.4582 0 1
12.5756 0 1
12.693 0 1
12.8104 0 1
12.9278 0 1
13.0452 0 1
13.1626 0 1
13.28 0 1
13.3974 0 1
13.5149 0 1
13.6323 0 1
13.7497 0 1
13.8671 0 1
13.9845 0 1
14.1019 0 1
14.2193 0 1
14.3367 0 1
14.4541 0 1
14.5714 0 1
14.6888 0 1
14.8062 0 1
14.9235 0 1
15.0408 0 0
15.1581 0 0
15.2755 0 0
15.3927 0 0
15.51 0 0
15.6273 0 0
15.7445 0 0
15.8617 0 0
15.9789 0 0
16.0961 0 0
16.2132 0 0
16.3304 0 0
16.4475 0 0
16.5646 0 0
16.6816 0 0
16.7986 0 0
16.9156 0 0
17.0326 0 0
17.1496 0 0
17.2665 0 0
17.3833 0 0
17.5002 0 0
17.617 0 0
17.7338 0 0
17.8505 0 0
17.9672 0 0
18.0839 0 0
18.2005 0 0
18.3171 0 0
18.4337 0 0
18.5502 0 0
18.6666 0 0
18.7831 0 0
18.8994 0 0
19.0158 0 0
19.1321 0 0
19.2483 0 0
19.3645 0 0
19.4806 0 0
19.5967 0 0
19.7128 0 0
19.8288 0 0
19.9447 0 0
20.0606 0 1
20.1764 0 1
20.2922 0 1
20.4079 0 1
20.5236 0 1
20.6392 0 1
20.7548 0 1
20.8702 0 1
23.3078 0 1
23.4233 0 1
23.539 0 1
23.6547 0 1
23.7704 0 1
23.8862 0 1
24.0021 0 1
24.118 0 1
24.234 0 1
24.35 0 1
24.4661 5410 73.5527
24.5822 5553 74.5185
24.6984 5573 74.6525
24.8146 5585 74.7329
24.9309 5827 76.3348
25.0472 5959 77.1946
25.1636 6093 78.0577
25.28 6142 78.3709
25.3965 6007 77.5048
25.513 6350 79.6869
25.6296 6337 79.6053
25.7462 6269 79.177
25.8628 6059 77.8396
25.9795 6165 78.5175
26.0962 6108 78.1537
26.213 6152 78.4347
26.3298 5956 77.1751
26.4466 6209 78.7972
26.5635 5863 76.5702
26.6804 5695 75.4652
26.7973 5539 74.4245
26.9143 5568 74.619
27.0313 5301 72.808
27.1483 5387 73.3962
27.2653 5455 73.858
27.3824 5439 73.7496
27.4996 5428 73.675
27.6167 5226 72.2911
27.7339 5021 70.859
27.8511 4884 69.8856
27.9683 4749 68.913
28.0855 4620 67.9706
28.2028 4745 68.884
28.3201 4734 68.8041
28.4374 4810 69.3542
28.5547 5039 70.9859
28.6721 5169 71.8958
28.7894 5378 73.3348
28.9068 5280 72.6636
29.0242 5307 72.8492
29.1416 5327 72.9863
29.259 5213 72.2011
29.3764 5283 72.6842
29.4939 5295 72.7668
29.6113 5238 72.374
29.7288 5173 71.9236
29.8463 5264 72.5534
29.9638 5319 72.9315
30.0812 5136 71.6659
30.1987 4921 70.1498
30.3162 4733 68.7968
30.4337 4668 68.3228
30.5512 4561 67.5352
30.6687 4503 67.1044
30.7862 4576 67.6461
30.9037 4730 68.775
31.0212 4669 68.3301
31.1387 4613 67.9191
31.2562 4503 67.1044
31.3737 4431 66.5658
31.4912 4189 64.7225
31.6087 4236 65.0846
31.7262 4350 65.9545
31.8436 4274 65.3758
31.9611 4468 66.8431
32.0785 4450 66.7083
32.1959 4704 68.5857
32.3134 4632 68.0588
32.4308 4684 68.4398
32.5482 4731 68.7823
32.6655 4743 68.8694
32.7829 4731 68.7823
32.9002 4777 69.1158
33.0176 4634 68.0735
33.1349 4681 68.4178
33.2522 4677 68.3886
33.3694 4681 68.4178
33.4867 4713 68.6513
33.6039 4755 68.9565
33.7211 4620 67.9706
33.8383 4493 67.0298
33.9554 4442 66.6483
34.0725 4237 65.0922
34.1896 4239 65.1076
34.3067 4149 64.4127
34.4237 4272 65.3605
34.5407 4220 64.9615
34.6577 4252 65.2074
34.7746 4075 63.8357
34.8915 4073 63.8201
35.0084 3874 62.2415
35.1252 3707 60.8851
35.242 3724 61.0246
35.3587 3817 61.7819
35.4755 3874 62.2415
35.5921 3983 63.111
35.7088 4046 63.6082
35.8254 4313 65.6734
35.9419 4163 64.5213
36.0584 4375 66.1438
36.1749 4358 66.0151
36.2913 4426 66.5282
36.4077 4378 66.1665
36.524 4291 65.5057
36.6403 4356 66
36.7565 4313 65.6734
36.8727 4321 65.7343
36.9889 4218 64.9461
37.1049 4104 64.0625
37.221 0 1
37.3369 0 1
37.4529 0 1
37.5687 0 1
37.6845 0 1
37.8003 0 1
37.916 0 1
38.0316 0 1
38.1472 0 1
40.5851 0 1
40.7008 0 1
40.8164 0 1
40.9322 0 1
41.048 0 1
41.1639 0 1
41.2798 0 1
41.3958 0 1
41.5118 0 1
41.6279 0 1
41.744 3235 56.8771
41.8602 3316 57.5847
41.9765 3320 57.6194
42.0928 3318 57.6021
42.2091 3267 57.1577
42.3255 3339 57.7841
42.4419 3375 58.0948
42.5584 3290 57.3585
42.675 3282 57.2887
42.7915 3215 56.701
42.9081 3256 57.0614
43.0248 3087 55.5608
43.1415 2887 53.7308
43.2582 2982 54.6077
43.375 2974 54.5344
43.4918 3011 54.8726
43.6087 2948 54.2955
43.7256 2846 53.3479
43.8425 2671 51.6817
43.9595 2553 50.5272
44.0765 2549 50.4876
44.1935 2607 51.0588
44.3106 2646 51.4393
44.4277 2706 52.0192
44.5448 2788 52.8015
44.6619 2856 53.4416
44.7791 2809 53
44.8963 2808 52.9906
45.0136 2878 53.647
45.1308 2743 52.3737
45.2481 2756 52.4976
45.3654 2735 52.2972
45.4827 2727 52.2207
45.6001 2663 51.6043
45.7174 2666 51.6333
45.8348 2649 51.4684
45.9522 2625 51.2348
46.0697 2653 51.5073
46.1871 2567 50.6656
46.3046 2598 50.9706
46.422 2515 50.1498
46.5395 2480 49.7996
46.657 2418 49.1732
46.7745 2319 48.156
46.892 2293 47.8853
47.0096 2225 47.1699
47.1271 2360 48.5798
47.2446 2204 46.9468
47.3622 2155 46.422
47.4797 2024 44.9889
47.5973 1953 44.1928
47.7149 2033 45.0888
47.8324 2136 46.2169
47.95 2072 45.5192
48.0675 2158 46.4543
48.1851 2170 46.5833
48.3027 2136 46.2169
48.4202 2186 46.7547
48.5378 2154 46.4112
48.6554 2135 46.2061
48.7729 2135 46.2061
48.8904 2186 46.7547
49.008 2155 46.422
49.1255 2249 47.4236
49.243 2149 46.3573
49.3605 2191 46.8081
49.478 2220 47.1169
49.5955 2271 47.655
49.713 2225 47.1699
49.8304 2305 48.0104
49.9479 2243 47.3603
50.0653 2325 48.2183
50.1827 2190 46.7974
50.3001 2069 45.4863
50.4175 2045 45.2217
50.5348 2142 46.2817
50.6521 2225 47.1699
50.7694 2289 47.8435
50.8867 2172 46.6047
51.004 2243 47.3603
51.1212 2288 47.833
51.2384 2359 48.5695
51.3556 2448 49.4773
51.4727 2593 50.9215
51.5899 2766 52.5928
51.707 2808 52.9906
51.824 2893 53.7866
51.9411 2934 54.1664
52.0581 2870 53.5724
52.175 2895 53.8052
52.2919 3037 55.109
52.4088 2951 54.3231
52.5257 3014 54.8999
52.6425 3050 55.2268
52.7593 2980 54.5894
52.876 3208 56.6392
52.9927 3133 55.9732
53.1094 3256 57.0614
53.226 3149 56.116
53.3426 3281 57.28
53.4591 3332 57.7235
53.5756 3326 57.6715
53.692 3299 57.4369
53.8084 3143 56.0625
53.9248 3106 55.7315
54.0411 3019 54.9454
54.1573 3058 55.2992
54.2735 0 1
54.3896 0 1
54.5057 0 1
54.6217 0 1
54.7377 0 1
54.8537 0 1
54.9695 0 1
55.0853 0 1
55.2011 0 1
55.3168 0 1
55.4324 0 1
57.824 0 1
57.9396 0 1
58.0553 0 1
58.1711 0 1
58.2869 0 1
58.4028 0 1
58.5187 0 1
58.6347 0 1
58.7508 0 1
58.8669 0 1
58.983 3687 60.7207
59.0992 3550 59.5819
59.2155 3616 60.1332
59.3318 3549 59.5735
59.4482 3565 59.7076
59.5646 3449 58.7282
59.681 3548 59.5651
59.7975 3414 58.4294
59.9141 3478 58.9746
60.0306 3756 61.2862
60.1473 3627 60.2246
60.2639 3818 61.79
60.3807 3762 61.3351
60.4974 3878 62.2736
60.6142 3693 60.7701
60.731 3808 61.709
60.8479 3712 60.9262
60.9648 3725 61.0328
61.0818 3706 60.8769
61.1987 3705 60.8687
61.3158 3636 60.2993
61.4328 3588 59.8999
61.5499 3547 59.5567
61.667 3511 59.2537
61.7841 3653 60.4401
61.9013 3563 59.6909
62.0185 3600 60
62.1357 3613 60.1082
62.253 3536 59.4643
62.3702 3505 59.203
62.4875 3390 58.2237
62.6049 3351 57.8878
62.7222 3250 57.0088
62.8396 3355 57.9224
62.9569 3193 56.5066
63.0743 3087 55.5608
63.1918 3152 56.1427
63.3092 3173 56.3294
63.4267 3290 57.3585
63.5441 3188 56.4624
63.6616 3348 57.8619
63.7791 3400 58.3095
63.8966 3436 58.6174
64.0142 3432 58.5833
64.1317 3432 58.5833
64.2492 3460 58.8218
64.3668 3352 57.8965
64.4843 3420 58.4808
64.6019 3400 58.3095
64.7195 3359 57.9569
64.837 3406 58.3609
64.9546 3412 58.4123
65.0722 3352 57.8965
65.1898 3190 56.4801
65.3074 3494 59.1101
65.4249 3240 56.921
65.5425 3200 56.5685
65.6601 3321 57.6281
65.7777 3241 56.9298
65.8952 3336 57.7581
66.0128 3154 56.1605
66.1304 3125 55.9017
66.2479 2986 54.6443
66.3655 2958 54.3875
66.483 2944 54.2586
66.6005 2913 53.9722
66.718 2799 52.9056
66.8355 2951 54.3231
66.953 2928 54.111
67.0705 3135 55.9911
67.1879 3171 56.3116
67.3054 3184 56.4269
67.4228 3189 56.4712
67.5402 3233 56.8595
67.6576 3262 57.1139
67.7749 3275 57.2276
67.8923 3235 56.8771
68.0096 3163 56.2406
68.1269 3100 55.6776
68.2442 3265 57.1402
68.3614 3121 55.8659
68.4787 3233 56.8595
68.5958 3172 56.3205
68.713 3221 56.7539
68.8302 3244 56.9561
68.9473 3289 57.3498
69.0643 3222 56.7627
69.1814 3255 57.0526
69.2984 3322 57.6368
69.4154 3317 57.5934
69.5323 3246 56.9737
69.6492 3264 57.1314
69.7661 3306 57.4978
69.8829 3266 57.1489
69.9997 3169 56.2939
70.1165 3061 55.3263
70.2332 3066 55.3715
70.3499 2858 53.4603
70.4665 2954 54.3507
70.5831 3012 54.8817
70.6996 3183 56.4181
70.8161 3214 56.6922
70.9326 3301 57.4543
71.049 3246 56.9737
71.1653 3217 56.7186
71.2817 3205 56.6127
71.3979 3112 55.7853
71.5141 3136 56
71.6303 3114 55.8032
71.7464 2839 53.2823
71.8624 0 1
71.9784 0 1
72.0944 0 1
72.2102 0 1
72.3261 0 1
72.4418 0 1
72.5575 0 1
72.6732 0 1
75.1054 0 1
75.2209 0 1
75.3365 0 1
75.4521 0 1
75.5678 0 1
75.6835 0 1
75.7993 0 1
75.9151 0 1
76.031 0 1
76.147 2905 53.8981
76.263 3022 54.9727
76.3791 3063 55.3444
76.4952 3096 55.6417
76.6113 3034 55.0818
76.7276 3131 55.9553
76.8438 3091 55.5968
76.9601 3067 55.3805
77.0765 3228 56.8155
77.1929 3209 56.648
77.3093 3221 56.7539
77.4258 3094 55.6237
77.5423 3071 55.4166
77.6589 3110 55.7674
77.7755 2988 54.6626
77.8921 3047 55.1996
78.0088 3065 55.3624
78.1256 3096 55.6417
78.2423 3026 55.0091
78.3591 3006 54.827
78.4759 2936 54.1849
78.5928 2997 54.7449
78.7097 2983 54.6168
78.8266 3088 55.5698
78.9436 2846 53.3479
79.0606 2756 52.4976
79.1776 2530 50.2991
79.2946 2278 47.7284
79.4117 2539 50.3885
79.5288 2653 51.5073
79.6459 2816 53.066
79.7631 2929 54.1202
79.8802 2720 52.1536
79.9974 2856 53.4416
80.1147 2795 52.8678
80.2319 2783 52.7541
80.3491 2721 52.1632
80.4664 2712 52.0769
80.5837 2694 51.9038
80.701 2681 51.7784
80.8183 2667 51.643
80.9357 2675 51.7204
81.053 2671 51.6817
81.1704 2745 52.3927
81.2877 2728 52.2303
81.4051 2542 50.4183
81.5225 2521 50.2096
81.6399 2565 50.6458
81.7573 2644 51.4198
81.8747 2633 51.3128
81.9922 2563 50.6261
82.1096 2499 49.99
82.227 2542 50.4183
82.3444 2535 50.3488
82.4619 2555 50.547
82.5793 2468 49.679
82.6967 2564 50.636
82.8142 2294 47.8957
82.9316 1844 42.9418
83.049 2017 44.911
83.1664 2277 47.7179
83.2838 2367 48.6518
83.4012 2406 49.051
83.5186 2331 48.2804
83.636 2270 47.6445
83.7534 2252 47.4552
83.8708 2307 48.0312
83.9881 2306 48.0208
84.1055 2296 47.9166
84.2228 2244 47.3709
84.3401 2251 47.4447
84.4575 2272 47.6655
84.5747 2210 47.0106
84.692 2174 46.6262
84.8093 2285 47.8017
84.9265 2217 47.085
85.0437 2187 46.7654
85.1609 2258 47.5184
85.2781 2242 47.3498
85.3952 2121 46.0543
85.5123 2208 46.9894
85.6294 2180 46.6905
85.7465 2273 47.676
85.8636 2135 46.2061
85.9806 2221 47.1275
86.0976 2249 47.4236
86.2145 2226 47.1805
86.3315 2134 46.1952
86.4484 1976 44.4522
86.5652 1847 42.9767
86.682 2101 45.8367
86.7988 2134 46.1952
86.9156 2100 45.8258
87.0323 2132 46.1736
87.149 2123 46.076
87.2657 2088 45.6946
87.3823 2127 46.1194
87.4988 2086 45.6727
87.6154 2071 45.5082
87.7318 2048 45.2548
87.8483 2128 46.1303
87.9647 2033 45.0888
88.081 2134 46.1952
88.1973 2144 46.3033
88.3136 2102 45.8476
88.4298 2171 46.594
88.546 2092 45.7384
88.6621 2124 46.0869
88.7781 2006 44.7884
88.8942 0 1
89.0101 0 1
89.126 0 1
89.2419 0 1
89.3577 0 1
89.4734 0 1
89.5891 0 1
89.7047 0 1
89.8203 0 1
89.9358 0 1
92.3269 0 1
92.4424 0 1
92.558 0 1
92.6736 0 1
92.7893 0 1
92.905 0 1
93.0208 0 1
93.1366 0 1
93.2525 0 1
93.3685 0 1
93.4845 0 1
93.6005 2013 44.8665
93.7167 2051 45.288
93.8328 2129 46.1411
93.949 2071 45.5082
94.0653 2124 46.0869
94.1816 2158 46.4543
94.2979 2129 46.1411
94.4143 2154 46.4112
94.5307 2157 46.4435
94.6472 2226 47.1805
94.7637 2137 46.2277
94.8803 2213 47.0425
94.9969 2246 47.392
95.1135 2305 48.0104
95.2302 2252 47.4552
95.3469 2317 48.1352
95.4637 2305 48.0104
95.5805 2053 45.31
95.6973 1915 43.7607
95.8142 2053 45.31
95.9311 2170 46.5833
96.048 2383 48.816
96.1649 2409 49.0816
96.2819 2349 48.4665
96.3989 2314 48.1041
96.516 2396 48.949
96.633 2373 48.7134
96.7501 2376 48.7442
96.8673 2362 48.6004
96.9844 2333 48.3011
97.1016 2260 47.5395
97.2188 2335 48.3218
97.336 2325 48.2183
97.4532 2473 49.7293
97.5704 2371 48.6929
97.6877 2315 48.1144
97.805 2331 48.2804
97.9223 2199 46.8935
98.0396 2246 47.392
98.1569 2273 47.676
98.2743 2257 47.5079
98.3916 2243 47.3603
98.509 2239 47.3181
98.6264 2114 45.9783
98.7438 2169 46.5725
98.8612 2233 47.2546
98.9786 2210 47.0106
99.096 2105 45.8803
99.2134 2020 44.9444
99.3308 2015 44.8888
99.4482 1966 44.3396
99.5656 2162 46.4973
99.6831 2209 47
99.8005 2272 47.6655
99.9179 2268 47.6235
100.035 2175 46.6369
100.153 2205 46.9574
100.27 2141 46.2709
100.388 2264 47.5815
100.505 2239 47.3181
100.622 2176 46.6476
100.74 2231 47.2335
100.857 2128 46.1303
100.975 2248 47.4131
101.092 2293 47.8853
101.209 2311 48.0729
101.327 2268 47.6235
101.444 2205 46.9574
101.561 2285 47.8017
101.679 2337 48.3425
101.796 2351 48.4871
101.913 2285 47.8017
102.03 2293 47.8853
102.148 2322 48.1871
102.265 2454 49.5379
102.382 2282 47.7703
102.499 2314 48.1041
102.616 2280 47.7493
102.733 2210 47.0106
102.851 2060 45.3872
102.968 2075 45.5522
103.085 2068 45.4753
103.202 2284 47.7912
103.319 2212 47.0319
103.436 2287 47.8226
103.552 2148 46.3465
103.669 2125 46.0977
103.786 2116 46
103.903 2128 46.1303
104.02 2084 45.6508
104.137 2119 46.0326
104.253 2153 46.4004
104.37 1939 44.0341
104.487 2083 45.6399
104.603 2117 46.0109
104.72 2088 45.6946
104.836 2085 45.6618
104.953 2067 45.4643
105.069 1974 44.4297
105.186 1935 43.9886
105.302 1900 43.589
105.418 1970 44.3847
105.535 1894 43.5201
105.651 1880 43.359
105.767 1912 43.7264
105.883 1953 44.1928
105.999 1905 43.6463
106.115 0 1
106.231 0 1
106.347 0 1
106.463 0 1
106.579 0 1
106.694 0 1
106.81 0 1
106.926 0 1
107.041 0 1
107.157 0 1
109.576 0 1
109.692 0 1
109.807 0 1
109.923 0 1
110.039 0 1
110.155 0 1
110.27 0 1
110.386 0 1
110.502 0 1
110.618 1213 34.8281
110.735 1174 34.2637
110.851 1178 34.322
110.967 1237 35.171
111.083 1185 34.4238
111.199 1117 33.4215
111.316 1224 34.9857
111.432 1111 33.3317
111.549 1145 33.8378
111.665 1038 32.218
111.782 990 31.4643
111.898 1060 32.5576
112.015 1106 33.2566
112.132 1131 33.6303
112.248 1116 33.4066
112.365 1060 32.5576
112.482 1013 31.8277
112.599 986 31.4006
112.716 1030 32.0936
112.832 1030 32.0936
112.949 1046 32.3419
113.066 1064 32.619
113.183 1046 32.3419
113.3 1036 32.187
113.417 1060 32.5576
113.534 1063 32.6037
113.652 1041 32.2645
113.769 1055 32.4808
113.886 1082 32.8938
114.003 1071 32.7261
114.12 1058 32.5269
114.238 1035 32.1714
114.355 1084 32.9242
114.472 991 31.4802
114.589 879 29.6479
114.707 933 30.545
114.824 1063 32.6037
114.942 1116 33.4066
115.059 1220 34.9285
115.176 1190 34.4964
115.294 1153 33.9559
115.411 1124 33.5261
115.529 1076 32.8024
115.646 1168 34.176
115.764 1223 34.9714
115.881 1161 34.0735
115.999 1202 34.6699
116.116 1134 33.6749
116.234 1277 35.7351
116.351 1169 34.1906
116.469 1172 34.2345
116.586 1226 35.0143
116.704 1248 35.327
116.821 1241 35.2278
116.939 1286 35.8608
117.056 1294 35.9722
117.174 1256 35.4401
117.291 1337 36.565
117.409 1373 37.054
117.526 1394 37.3363
117.644 1393 37.3229
117.761 1485 38.5357
117.879 1308 36.1663
117.996 1317 36.2905
118.114 1241 35.2278
118.231 1194 34.5543
118.349 1099 33.1512
118.466 1335 36.5377
118.584 1421 37.6962
118.701 1561 39.5095
118.819 1581 39.7618
118.936 1474 38.3927
119.053 1564 39.5474
119.171 1499 38.7169
119.288 1586 39.8246
119.405 1531 39.128
119.523 1635 40.4351
119.64 1620 40.2492
119.757 1531 39.128
119.875 1585 39.8121
119.992 1523 39.0256
120.109 1602 40.025
120.226 1629 40.3609
120.343 1609 40.1123
120.46 1648 40.5956
120.578 1625 40.3113
120.695 1649 40.6079
120.812 1669 40.8534
120.929 1690 41.1096
121.046 1795 42.3674
121.163 1773 42.107
121.279 1821 42.6732
121.396 1767 42.0357
121.513 1780 42.19
121.63 1802 42.45
121.747 1634 40.4228
121.863 1470 38.3406
121.98 1381 37.1618
122.097 1302 36.0832
122.213 1529 39.1024
122.33 1796 42.3792
122.446 1841 42.9069
122.563 1802 42.45
122.679 1910 43.7035
122.795 1858 43.1045
122.912 1864 43.1741
123.028 1901 43.6005
123.144 2024 44.9889
123.26 1972 44.4072
123.377 0 1
123.493 0 1
123.609 0 1
123.725 0 1
123.84 0 1
123.956 0 1
124.072 0 1
124.188 0 1
124.303 0 1
124.419 0 1
126.852 0 1
126.968 0 1
127.083 0 1
127.199 0 1
127.315 0 1
127.431 0 1
127.547 0 1
127.663 0 1
127.779 0 1
127.895 0 1
128.011 0 1
128.127 0 1
128.243 0 1
128.359 2488 49.8799
128.476 2562 50.6162
128.592 2448 49.4773
128.708 2486 49.8598
128.825 2403 49.0204
128.941 2526 50.2593
129.058 2499 49.99
129.174 2479 49.7896
129.291 2544 50.4381
129.408 2419 49.1833
129.524 2396 48.949
129.641 2481 49.8096
129.758 2506 50.06
129.875 2611 51.0979
129.992 2517 50.1697
130.108 2595 50.9411
130.225 2625 51.2348
130.342 2672 51.6914
130.459 2283 47.7807
130.576 2431 49.3052
130.693 2209 47
130.81 2050 45.2769
130.928 1960 44.2719
131.045 2011 44.8442
131.162 2364 48.621
131.279 2506 50.06
131.396 2587 50.8626
131.513 2719 52.144
131.631 2728 52.2303
131.748 2714 52.0961
131.865 2760 52.5357
131.983 2689 51.8556
132.1 2739 52.3355
132.217 2641 51.3907
132.335 2666 51.6333
132.452 2686 51.8266
132.57 2585 50.8429
132.687 2573 50.7247
132.804 2758 52.5167
132.922 2740 52.345
133.039 2676 51.7301
133.157 2631 51.2933
133.274 2695 51.9134
133.392 2638 51.3615
133.509 2743 52.3737
133.627 2774 52.6688
133.744 2771 52.6403
133.862 2632 51.303
133.979 2725 52.2015
134.097 2538 50.3786
134.214 2394 48.9285
134.332 2363 48.6107
134.449 2143 46.2925
134.567 2266 47.6025
134.684 2400 48.9898
134.802 2550 50.4975
134.919 2714 52.0961
135.037 2767 52.6023
135.154 2891 53.768
135.272 2906 53.9073
135.389 2855 53.4322
135.507 2884 53.7029
135.624 2957 54.3783
135.742 2898 53.8331
135.859 2896 53.8145
135.977 2883 53.6936
136.094 2878 53.647
136.211 2860 53.479
136.329 2885 53.7122
136.446 2860 53.479
136.564 2885 53.7122
136.681 2954 54.3507
136.798 2977 54.5619
136.915 2958 54.3875
137.033 2946 54.2771
137.15 2863 53.507
137.267 2982 54.6077
137.384 2847 53.3573
137.502 2771 52.6403
137.619 2588 50.8724
137.736 2526 50.2593
137.853 2378 48.7647
137.97 2387 48.8569
138.087 2431 49.3052
138.204 2422 49.2138
138.321 2564 50.636
138.438 2666 51.6333
138.555 2803 52.9434
138.672 2815 53.0566
138.788 2955 54.3599
138.905 3018 54.9363
139.022 3143 56.0625
139.139 3077 55.4707
139.255 3049 55.2178
139.372 3041 55.1453
139.488 3077 55.4707
139.605 3061 55.3263
139.721 3016 54.9181
139.838 3049 55.2178
139.954 3092 55.6058
140.071 2954 54.3507
140.187 3157 56.1872
140.303 2991 54.69
140.419 2984 54.626
140.535 3114 55.8032
140.652 2976 54.5527
140.768 0 1
140.884 0 1
141 0 1
141.115 0 1
141.231 0 1
141.347 0 1
141.463 0 1
141.578 0 1
141.694 0 1
144.104 0 1
144.219 0 1
144.335 0 1
144.45 0 1
144.566 0 1
144.682 0 1
144.798 0 1
144.914 0 1
145.03 0 1
145.146 2845 53.3385
145.262 2802 52.9339
145.378 2756 52.4976
145.494 2788 52.8015
145.61 2765 52.5833
145.726 2765 52.5833
145.842 2843 53.3198
145.959 2856 53.4416
146.075 2786 52.7826
146.192 2643 51.4101
146.308 2490 49.8999
146.425 2482 49.8197
146.541 2373 48.7134
146.658 2254 47.4763
146.774 2380 48.7852
146.891 2379 48.775
147.008 2595 50.9411
147.125 2640 51.3809
147.241 2691 51.8748
147.358 2696 51.923
147.475 2624 51.225
147.592 2707 52.0288
147.709 2846 53.3479
147.826 2737 52.3163
147.943 2764 52.5738
148.06 2714 52.0961
148.177 2801 52.9245
148.294 2673 51.7011
148.411 2745 52.3927
148.528 2735 52.2972
148.645 2718 52.1344
148.762 2748 52.4214
148.88 2665 51.6236
148.997 2593 50.9215
149.114 2802 52.9339
149.231 2732 52.2685
149.349 2690 51.8652
149.466 2602 51.0098
149.583 2614 51.1273
149.701 2531 50.309
149.818 2457 49.5681
149.935 2342 48.3942
150.053 2223 47.1487
150.17 2233 47.2546
150.287 2327 48.239
150.405 2302 47.9792
150.522 2371 48.6929
150.64 2484 49.8397
150.757 2632 51.303
150.875 2583 50.8232
150.992 2514 50.1398
151.11 2386 48.8467
151.227 2611 51.0979
151.344 2659 51.5655
151.462 2680 51.7687
151.579 2749 52.4309
151.697 2713 52.0865
151.814 2695 51.9134
151.932 2638 51.3615
152.049 2718 52.1344
152.167 2585 50.8429
152.284 2676 51.7301
152.402 2753 52.469
152.519 2683 51.7977
152.636 2729 52.2398
152.754 2723 52.1824
152.871 2750 52.4404
152.989 2739 52.3355
153.106 2659 51.5655
153.223 2683 51.7977
153.341 2612 51.1077
153.458 2432 49.3153
153.575 2453 49.5278
153.693 2396 48.949
153.81 2332 48.2908
153.927 2309 48.0521
154.044 2374 48.7237
154.162 2422 49.2138
154.279 2668 51.6527
154.396 2663 51.6043
154.513 2711 52.0673
154.63 2656 51.5364
154.747 2644 51.4198
154.864 2564 50.636
154.981 2731 52.259
155.098 2742 52.3641
155.215 2824 53.1413
155.332 2914 53.9815
155.449 2793 52.8488
155.566 2827 53.1695
155.683 2833 53.2259
155.8 2758 52.5167
155.917 2726 52.2111
156.033 2829 53.1883
156.15 0 1
156.267 0 1
156.383 0 1
156.5 0 1
156.617 0 1
156.733 0 1
156.85 0 1
156.966 0 1
157.082 0 1
157.199 0 1
157.315 0 1
157.431 0 1
157.547 0 1
157.664 0 1
157.78 0 1
157.896 0 1
158.012 0 1
158.128 0 1
158.244 0 1
158.359 0 1
158.475 0 1
158.591 0 1
158.706 0 1
