
6.15755 0 1
6.2731 0 1
6.3887 0 1
6.50437 0 1
6.62009 0 1
6.73587 0 1
6.8517 0 1
6.96759 0 1
7.08353 0 1
7.19952 0 1
7.31557 0 1
7.43166 0 1
7.54781 0 1
7.664 0 1
7.78024 0 1
7.89653 0 1
8.01286 0 1
8.12924 0 1
8.24567 0 1
8.36213 0 1
8.47864 0 1
8.59519 0 1
8.71178 0 1
8.82841 0 1
8.94508 0 1
9.06179 0 1
9.17853 0 1
9.29531 0 1
9.41212 0 1
9.52897 0 1
9.64584 0 1
9.76276 0 1
9.8797 0 1
9.99667 0 1
10.1137 0 1
10.2307 0 1
10.3478 0 1
10.4648 0 1
10.5819 0 1
10.6991 0 1
10.8162 0 1
10.9334 0 1
11.0506 0 1
11.1678 0 1
11.285 0 1
11.4023 0 1
11.5196 0 1
11.6369 0 1
11.7542 0 1
11.8715 0 1
11.9888 0 1
12.1062 0 1
12.2235 0 1
12.3409 0 1
12.4582 0 1
12.5756 0 1
12.693 0 1
12.8104 0 1
12.9278 0 1
13.0452 0 1
13.1626 0 1
13.28 0 1
13.3974 0 1
13.5149 0 1
13.6323 0 1
13.7497 0 1
13.8671 0 1
13.9845 0 1
14.1019 0 1
14.2193 0 1
14.3367 0 1
14.4541 0 1
14.5714 0 1
14.6888 0 1
14.8062 0 1
14.9235 0 1
15.0408 0 0
15.1581 0 0
15.2755 0 0
15.3927 0 0
15.51 0 0
15.6273 0 0
15.7445 0 0
15.8617 0 0
15.9789 0 0
16.0961 0 0
16.2132 0 0
16.3304 0 0
16.4475 0 0
16.5646 0 0
16.6816 0 0
16.7986 0 0
16.9156 0 0
17.0326 0 0
17.1496 0 0
17.2665 0 0
17.3833 0 0
17.5002 0 0
17.617 0 0
17.7338 0 0
17.8505 0 0
17.9672 0 0
18.0839 0 0
18.2005 0 0
18.3171 0 0
18.4337 0 0
18.5502 0 0
18.6666 0 0
18.7831 0 0
18.8994 0 0
19.0158 0 0
19.1321 0 0
19.2483 0 0
19.3645 0 0
19.4806 0 0
19.5967 0 0
19.7128 0 0
19.8288 0 0
19.9447 0 0
20.0606 0 1
20.1764 0 1
20.2922 0 1
20.4079 0 1
20.5236 0 1
20.6392 0 1
20.7548 0 1
20.8702 0 1
23.3078 0 1
23.4233 0 1
23.539 0 1
23.6547 0 1
23.7704 0 1
23.8862 0 1
24.0021 0 1
24.118 0 1
24.234 0 1
24.35 0 1
24.4661 366 19.1311
24.5822 357 18.8944
24.6984 390 19.7484
24.8146 393 19.8242
24.9309 402 20.0499
25.0472 493 22.2036
25.1636 549 23.4307
25.28 629 25.0799
25.3965 645 25.3969
25.513 734 27.0924
25.6296 789 28.0891
25.7462 792 28.1425
25.8628 880 29.6648
25.9795 824 28.7054
26.0962 823 28.688
26.213 837 28.931
26.3298 778 27.8927
26.4466 781 27.9464
26.5635 820 28.6356
26.6804 776 27.8568
26.7973 757 27.5136
26.9143 815 28.5482
27.0313 814 28.5307
27.1483 799 28.2666
27.2653 772 27.7849
27.3824 808 28.4253
27.4996 785 28.0179
27.6167 788 28.0713
27.7339 761 27.5862
27.8511 767 27.6948
27.9683 745 27.2947
28.0855 649 25.4755
28.2028 621 24.9199
28.3201 597 24.4336
28.4374 555 23.5584
28.5547 612 24.7386
28.6721 658 25.6515
28.7894 662 25.7294
28.9068 696 26.3818
29.0242 707 26.5895
29.1416 700 26.4575
29.259 725 26.9258
29.3764 777 27.8747
29.4939 746 27.313
29.6113 730 27.0185
29.7288 782 27.9643
29.8463 720 26.8328
29.9638 750 27.3861
30.0812 751 27.4044
30.1987 757 27.5136
30.3162 719 26.8142
30.4337 756 27.4955
30.5512 769 27.7308
30.6687 747 27.3313
30.7862 742 27.2397
30.9037 717 26.7769
31.0212 742 27.2397
31.1387 720 26.8328
31.2562 740 27.2029
31.3737 687 26.2107
31.4912 723 26.8887
31.6087 670 25.8844
31.7262 616 24.8193
31.8436 527 22.9565
31.9611 504 22.4499
32.0785 601 24.5153
32.1959 627 25.04
32.3134 652 25.5343
32.4308 694 26.3439
32.5482 707 26.5895
32.6655 693 26.3249
32.7829 702 26.4953
32.9002 716 26.7582
33.0176 696 26.3818
33.1349 693 26.3249
33.2522 676 26
33.3694 718 26.7955
33.4867 722 26.8701
33.6039 729 27
33.7211 714 26.7208
33.8383 709 26.6271
33.9554 664 25.7682
34.0725 797 28.2312
34.1896 730 27.0185
34.3067 710 26.6458
34.4237 724 26.9072
34.5407 773 27.8029
34.6577 719 26.8142
34.7746 714 26.7208
34.8915 664 25.7682
35.0084 666 25.807
35.1252 657 25.632
35.242 621 24.9199
35.3587 565 23.7697
35.4755 529 23
35.5921 509 22.561
35.7088 500 22.3607
35.8254 539 23.2164
35.9419 581 24.1039
36.0584 607 24.6374
36.1749 676 26
36.2913 617 24.8395
36.4077 679 26.0576
36.524 593 24.3516
36.6403 613 24.7588
36.7565 564 23.7487
36.8727 550 23.4521
36.9889 554 23.5372
37.1049 510 22.5832
37.221 0 1
37.3369 0 1
37.4529 0 1
37.5687 0 1
37.6845 0 1
37.8003 0 1
37.916 0 1
38.0316 0 1
38.1472 0 1
40.5851 0 1
40.7008 0 1
40.8164 0 1
40.9322 0 1
41.048 0 1
41.1639 0 1
41.2798 0 1
41.3958 0 1
41.5118 0 1
41.6279 0 1
41.744 315 17.7482
41.8602 332 18.2209
41.9765 349 18.6815
42.0928 403 20.0749
42.2091 442 21.0238
42.3255 454 21.3073
42.4419 485 22.0227
42.5584 490 22.1359
42.675 523 22.8692
42.7915 573 23.9374
42.9081 556 23.5797
43.0248 576 24
43.1415 585 24.1868
43.2582 602 24.5357
43.375 589 24.2693
43.4918 562 23.7065
43.6087 611 24.7184
43.7256 629 25.0799
43.8425 584 24.1661
43.9595 589 24.2693
44.0765 573 23.9374
44.1935 543 23.3024
44.3106 521 22.8254
44.4277 491 22.1585
44.5448 503 22.4277
44.6619 519 22.7816
44.7791 516 22.7156
44.8963 620 24.8998
45.0136 551 23.4734
45.1308 590 24.2899
45.2481 549 23.4307
45.3654 572 23.9165
45.4827 571 23.8956
45.6001 548 23.4094
45.7174 556 23.5797
45.8348 579 24.0624
45.9522 585 24.1868
46.0697 512 22.6274
46.1871 549 23.4307
46.3046 586 24.2074
46.422 587 24.2281
46.5395 581 24.1039
46.657 594 24.3721
46.7745 588 24.2487
46.892 600 24.4949
47.0096 631 25.1197
47.1271 633 25.1595
47.2446 622 24.9399
47.3622 640 25.2982
47.4797 652 25.5343
47.5973 608 24.6577
47.7149 611 24.7184
47.8324 574 23.9583
47.95 527 22.9565
48.0675 524 22.891
48.1851 495 22.2486
48.3027 529 23
48.4202 566 23.7908
48.5378 615 24.7992
48.6554 598 24.454
48.7729 552 23.4947
48.8904 562 23.7065
49.008 590 24.2899
49.1255 550 23.4521
49.243 550 23.4521
49.3605 588 24.2487
49.478 563 23.7276
49.5955 547 23.388
49.713 557 23.6008
49.8304 573 23.9374
49.9479 542 23.2809
50.0653 622 24.9399
50.1827 581 24.1039
50.3001 602 24.5357
50.4175 610 24.6982
50.5348 620 24.8998
50.6521 661 25.7099
50.7694 659 25.671
50.8867 632 25.1396
51.004 636 25.219
51.1212 644 25.3772
51.2384 637 25.2389
51.3556 530 23.0217
51.4727 496 22.2711
51.5899 505 22.4722
51.707 494 22.2261
51.824 538 23.1948
51.9411 583 24.1454
52.0581 583 24.1454
52.175 570 23.8747
52.2919 520 22.8035
52.4088 541 23.2594
52.5257 560 23.6643
52.6425 514 22.6716
52.7593 503 22.4277
52.876 541 23.2594
52.9927 534 23.1084
53.1094 530 23.0217
53.226 522 22.8473
53.3426 519 22.7816
53.4591 538 23.1948
53.5756 538 23.1948
53.692 528 22.9783
53.8084 558 23.622
53.9248 527 22.9565
54.0411 515 22.6936
54.1573 466 21.587
54.2735 0 1
54.3896 0 1
54.5057 0 1
54.6217 0 1
54.7377 0 1
54.8537 0 1
54.9695 0 1
55.0853 0 1
55.2011 0 1
55.3168 0 1
55.4324 0 1
57.824 0 1
57.9396 0 1
58.0553 0 1
58.1711 0 1
58.2869 0 1
58.4028 0 1
58.5187 0 1
58.6347 0 1
58.7508 0 1
58.8669 0 1
58.983 366 19.1311
59.0992 467 21.6102
59.2155 454 21.3073
59.3318 511 22.6053
59.4482 550 23.4521
59.5646 644 25.3772
59.681 663 25.7488
59.7975 655 25.593
59.9141 648 25.4558
60.0306 693 26.3249
60.1473 666 25.807
60.2639 598 24.454
60.3807 610 24.6982
60.4974 585 24.1868
60.6142 640 25.2982
60.731 628 25.0599
60.8479 653 25.5539
60.9648 648 25.4558
61.0818 733 27.074
61.1987 646 25.4165
61.3158 613 24.7588
61.4328 596 24.4131
61.5499 577 24.0208
61.667 568 23.8328
61.7841 591 24.3105
61.9013 661 25.7099
62.0185 601 24.5153
62.1357 639 25.2784
62.253 656 25.6125
62.3702 700 26.4575
62.4875 717 26.7769
62.6049 726 26.9444
62.7222 782 27.9643
62.8396 796 28.2135
62.9569 836 28.9137
63.0743 829 28.7924
63.1918 828 28.775
63.3092 854 29.2233
63.4267 862 29.3598
63.5441 774 27.8209
63.6616 716 26.7582
63.7791 651 25.5147
63.8966 630 25.0998
64.0142 617 24.8395
64.1317 632 25.1396
64.2492 643 25.3574
64.3668 609 24.6779
64.4843 622 24.9399
64.6019 618 24.8596
64.7195 624 24.98
64.837 612 24.7386
64.9546 615 24.7992
65.0722 607 24.6374
65.1898 554 23.5372
65.3074 585 24.1868
65.4249 642 25.3377
65.5425 568 23.8328
65.6601 625 25
65.7777 622 24.9399
65.8952 684 26.1534
66.0128 683 26.1343
66.1304 740 27.2029
66.2479 763 27.6225
66.3655 822 28.6705
66.483 828 28.775
66.6005 853 29.2062
66.718 843 29.0345
66.8355 805 28.3725
66.953 788 28.0713
67.0705 806 28.3901
67.1879 751 27.4044
67.3054 692 26.3059
67.4228 672 25.923
67.5402 593 24.3516
67.6576 544 23.3238
67.7749 574 23.9583
67.8923 513 22.6495
68.0096 553 23.516
68.1269 581 24.1039
68.2442 581 24.1039
68.3614 652 25.5343
68.4787 592 24.3311
68.5958 621 24.9199
68.713 572 23.9165
68.8302 562 23.7065
68.9473 595 24.3926
69.0643 529 23
69.1814 559 23.6432
69.2984 560 23.6643
69.4154 559 23.6432
69.5323 563 23.7276
69.6492 609 24.6779
69.7661 644 25.3772
69.8829 653 25.5539
69.9997 785 28.0179
70.1165 720 26.8328
70.2332 720 26.8328
70.3499 712 26.6833
70.4665 665 25.7876
70.5831 635 25.1992
70.6996 610 24.6982
70.8161 543 23.3024
70.9326 524 22.891
71.049 445 21.095
71.1653 375 19.3649
71.2817 341 18.4662
71.3979 334 18.2757
71.5141 306 17.4929
71.6303 306 17.4929
71.7464 255 15.9687
71.8624 0 1
71.9784 0 1
72.0944 0 1
72.2102 0 1
72.3261 0 1
72.4418 0 1
72.5575 0 1
72.6732 0 1
75.1054 0 1
75.2209 0 1
75.3365 0 1
75.4521 0 1
75.5678 0 1
75.6835 0 1
75.7993 0 1
75.9151 0 1
76.031 0 1
76.147 424 20.5913
76.263 451 21.2368
76.3791 440 20.9762
76.4952 384 19.5959
76.6113 357 18.8944
76.7276 427 20.664
76.8438 419 20.4695
76.9601 415 20.3715
77.0765 471 21.7025
77.1929 471 21.7025
77.3093 542 23.2809
77.4258 469 21.6564
77.5423 538 23.1948
77.6589 504 22.4499
77.7755 526 22.9347
77.8921 473 21.7486
78.0088 508 22.5389
78.1256 455 21.3307
78.2423 488 22.0907
78.3591 477 21.8403
78.4759 535 23.1301
78.5928 548 23.4094
78.7097 586 24.2074
78.8266 662 25.7294
78.9436 713 26.7021
79.0606 697 26.4008
79.1776 760 27.5681
79.2946 699 26.4386
79.4117 724 26.9072
79.5288 751 27.4044
79.6459 702 26.4953
79.7631 694 26.3439
79.8802 643 25.3574
79.9974 588 24.2487
80.1147 614 24.779
80.2319 512 22.6274
80.3491 484 22
80.4664 466 21.587
80.5837 478 21.8632
80.701 529 23
80.8183 525 22.9129
80.9357 524 22.891
81.053 593 24.3516
81.1704 575 23.9792
81.2877 559 23.6432
81.4051 537 23.1733
81.5225 537 23.1733
81.6399 550 23.4521
81.7573 513 22.6495
81.8747 490 22.1359
81.9922 503 22.4277
82.1096 531 23.0434
82.227 577 24.0208
82.3444 614 24.779
82.4619 718 26.7955
82.5793 701 26.4764
82.6967 782 27.9643
82.8142 733 27.074
82.9316 743 27.258
83.049 764 27.6405
83.1664 750 27.3861
83.2838 752 27.4226
83.4012 687 26.2107
83.5186 620 24.8998
83.636 563 23.7276
83.7534 555 23.5584
83.8708 480 21.9089
83.9881 504 22.4499
84.1055 471 21.7025
84.2228 496 22.2711
84.3401 501 22.383
84.4575 508 22.5389
84.5747 636 25.219
84.692 585 24.1868
84.8093 589 24.2693
84.9265 579 24.0624
85.0437 535 23.1301
85.1609 542 23.2809
85.2781 508 22.5389
85.3952 470 21.6795
85.5123 476 21.8174
85.6294 528 22.9783
85.7465 489 22.1133
85.8636 582 24.1247
85.9806 581 24.1039
86.0976 652 25.5343
86.2145 763 27.6225
86.3315 708 26.6083
86.4484 753 27.4408
86.5652 680 26.0768
86.682 754 27.4591
86.7988 656 25.6125
86.9156 680 26.0768
87.0323 666 25.807
87.149 586 24.2074
87.2657 569 23.8537
87.3823 520 22.8035
87.4988 507 22.5167
87.6154 500 22.3607
87.7318 447 21.1424
87.8483 452 21.2603
87.9647 449 21.1896
88.081 488 22.0907
88.1973 482 21.9545
88.3136 473 21.7486
88.4298 416 20.3961
88.546 359 18.9473
88.6621 284 16.8523
88.7781 268 16.3707
88.8942 0 1
89.0101 0 1
89.126 0 1
89.2419 0 1
89.3577 0 1
89.4734 0 1
89.5891 0 1
89.7047 0 1
89.8203 0 1
89.9358 0 1
92.3269 0 1
92.4424 0 1
92.558 0 1
92.6736 0 1
92.7893 0 1
92.905 0 1
93.0208 0 1
93.1366 0 1
93.2525 0 1
93.3685 0 1
93.4845 0 1
93.6005 320 17.8885
93.7167 399 19.975
93.8328 487 22.0681
93.949 474 21.7715
94.0653 484 22
94.1816 491 22.1585
94.2979 534 23.1084
94.4143 531 23.0434
94.5307 498 22.3159
94.6472 514 22.6716
94.7637 468 21.6333
94.8803 532 23.0651
94.9969 561 23.6854
95.1135 616 24.8193
95.2302 705 26.5518
95.3469 719 26.8142
95.4637 775 27.8388
95.5805 783 27.9821
95.6973 794 28.178
95.8142 826 28.7402
95.9311 807 28.4077
96.048 747 27.3313
96.1649 727 26.9629
96.2819 706 26.5707
96.3989 651 25.5147
96.516 630 25.0998
96.633 573 23.9374
96.7501 522 22.8473
96.8673 508 22.5389
96.9844 520 22.8035
97.1016 503 22.4277
97.2188 494 22.2261
97.336 508 22.5389
97.4532 611 24.7184
97.5704 646 25.4165
97.6877 629 25.0799
97.805 616 24.8193
97.9223 573 23.9374
98.0396 555 23.5584
98.1569 480 21.9089
98.2743 502 22.4054
98.3916 466 21.587
98.509 569 23.8537
98.6264 548 23.4094
98.7438 666 25.807
98.8612 690 26.2679
98.9786 716 26.7582
99.096 765 27.6586
99.2134 744 27.2764
99.3308 821 28.6531
99.4482 798 28.2489
99.5656 788 28.0713
99.6831 766 27.6767
99.8005 732 27.0555
99.9179 707 26.5895
100.035 609 24.6779
100.153 635 25.1992
100.27 568 23.8328
100.388 594 24.3721
100.505 532 23.0651
100.622 491 22.1585
100.74 495 22.2486
100.857 497 22.2935
100.975 590 24.2899
101.092 657 25.632
101.209 640 25.2982
101.327 629 25.0799
101.444 546 23.3666
101.561 555 23.5584
101.679 578 24.0416
101.796 522 22.8473
101.913 505 22.4722
102.03 536 23.1517
102.148 583 24.1454
102.265 600 24.4949
102.382 690 26.2679
102.499 748 27.3496
102.616 795 28.1957
102.733 819 28.6182
102.851 837 28.931
102.968 853 29.2062
103.085 870 29.4958
103.202 896 29.9333
103.319 835 28.8964
103.436 773 27.8029
103.552 737 27.1477
103.669 737 27.1477
103.786 690 26.2679
103.903 616 24.8193
104.02 576 24
104.137 591 24.3105
104.253 534 23.1084
104.37 577 24.0208
104.487 570 23.8747
104.603 699 26.4386
104.72 656 25.6125
104.836 548 23.4094
104.953 548 23.4094
105.069 507 22.5167
105.186 473 21.7486
105.302 463 21.5174
105.418 422 20.5426
105.535 402 20.0499
105.651 402 20.0499
105.767 422 20.5426
105.883 458 21.4009
105.999 458 21.4009
106.115 0 1
106.231 0 1
106.347 0 1
106.463 0 1
106.579 0 1
106.694 0 1
106.81 0 1
106.926 0 1
107.041 0 1
107.157 0 1
109.576 0 1
109.692 0 1
109.807 0 1
109.923 0 1
110.039 0 1
110.155 0 1
110.27 0 1
110.386 0 1
110.502 0 1
110.618 329 18.1384
110.735 369 19.2094
110.851 437 20.9045
110.967 532 23.0651
111.083 582 24.1247
111.199 570 23.8747
111.316 581 24.1039
111.432 658 25.6515
111.549 652 25.5343
111.665 674 25.9615
111.782 723 26.8887
111.898 691 26.2869
112.015 659 25.671
112.132 550 23.4521
112.248 528 22.9783
112.365 502 22.4054
112.482 513 22.6495
112.599 502 22.4054
112.716 507 22.5167
112.832 487 22.0681
112.949 490 22.1359
113.066 508 22.5389
113.183 532 23.0651
113.3 529 23
113.417 560 23.6643
113.534 545 23.3452
113.652 566 23.7908
113.769 581 24.1039
113.886 492 22.1811
114.003 518 22.7596
114.12 520 22.8035
114.238 535 23.1301
114.355 544 23.3238
114.472 682 26.1151
114.589 698 26.4197
114.707 742 27.2397
114.824 784 28
114.942 840 28.9828
115.059 826 28.7402
115.176 822 28.6705
115.294 818 28.6007
115.411 844 29.0517
115.529 764 27.6405
115.646 717 26.7769
115.764 672 25.923
115.881 570 23.8747
115.999 614 24.779
116.116 530 23.0217
116.234 558 23.622
116.351 519 22.7816
116.469 527 22.9565
116.586 550 23.4521
116.704 536 23.1517
116.821 584 24.1661
116.939 579 24.0624
117.056 559 23.6432
117.174 613 24.7588
117.291 585 24.1868
117.409 609 24.6779
117.526 594 24.3721
117.644 559 23.6432
117.761 629 25.0799
117.879 642 25.3377
117.996 694 26.3439
118.114 787 28.0535
118.231 820 28.6356
118.349 783 27.9821
118.466 849 29.1376
118.584 879 29.6479
118.701 852 29.189
118.819 896 29.9333
118.936 809 28.4429
119.053 849 29.1376
119.171 780 27.9285
119.288 647 25.4362
119.405 631 25.1197
119.523 623 24.96
119.64 623 24.96
119.757 557 23.6008
119.875 520 22.8035
119.992 581 24.1039
120.109 517 22.7376
120.226 531 23.0434
120.343 526 22.9347
120.46 570 23.8747
120.578 530 23.0217
120.695 533 23.0868
120.812 557 23.6008
120.929 553 23.516
121.046 551 23.4734
121.163 540 23.2379
121.279 466 21.587
121.396 504 22.4499
121.513 541 23.2594
121.63 613 24.7588
121.747 615 24.7992
121.863 675 25.9808
121.98 617 24.8395
122.097 644 25.3772
122.213 634 25.1794
122.33 639 25.2784
122.446 645 25.3969
122.563 611 24.7184
122.679 591 24.3105
122.795 566 23.7908
122.912 511 22.6053
123.028 419 20.4695
123.144 438 20.9284
123.26 332 18.2209
123.377 0 1
123.493 0 1
123.609 0 1
123.725 0 1
123.84 0 1
123.956 0 1
124.072 0 1
124.188 0 1
124.303 0 1
124.419 0 1
126.852 0 1
126.968 0 1
127.083 0 1
127.199 0 1
127.315 0 1
127.431 0 1
127.547 0 1
127.663 0 1
127.779 0 1
127.895 0 1
128.011 0 1
128.127 0 1
128.243 0 1
128.359 659 25.671
128.476 701 26.4764
128.592 646 25.4165
128.708 629 25.0799
128.825 643 25.3574
128.941 629 25.0799
129.058 584 24.1661
129.174 615 24.7992
129.291 584 24.1661
129.408 650 25.4951
129.524 606 24.6171
129.641 641 25.318
129.758 603 24.5561
129.875 660 25.6905
129.992 661 25.7099
130.108 682 26.1151
130.225 626 25.02
130.342 622 24.9399
130.459 626 25.02
130.576 634 25.1794
130.693 738 27.1662
130.81 704 26.533
130.928 706 26.5707
131.045 753 27.4408
131.162 769 27.7308
131.279 756 27.4955
131.396 738 27.1662
131.513 741 27.2213
131.631 782 27.9643
131.748 696 26.3818
131.865 728 26.9815
131.983 677 26.0192
132.1 665 25.7876
132.217 640 25.2982
132.335 596 24.4131
132.452 593 24.3516
132.57 585 24.1868
132.687 566 23.7908
132.804 512 22.6274
132.922 595 24.3926
133.039 585 24.1868
133.157 599 24.4745
133.274 629 25.0799
133.392 606 24.6171
133.509 642 25.3377
133.627 623 24.96
133.744 613 24.7588
133.862 618 24.8596
133.979 594 24.3721
134.097 634 25.1794
134.214 632 25.1396
134.332 664 25.7682
134.449 681 26.096
134.567 715 26.7395
134.684 702 26.4953
134.802 726 26.9444
134.919 682 26.1151
135.037 754 27.4591
135.154 675 25.9808
135.272 741 27.2213
135.389 719 26.8142
135.507 678 26.0384
135.624 689 26.2488
135.742 683 26.1343
135.859 662 25.7294
135.977 612 24.7386
136.094 565 23.7697
136.211 603 24.5561
136.329 559 23.6432
136.446 592 24.3311
136.564 556 23.5797
136.681 607 24.6374
136.798 627 25.04
136.915 624 24.98
137.033 686 26.1916
137.15 633 25.1595
137.267 668 25.8457
137.384 608 24.6577
137.502 651 25.5147
137.619 624 24.98
137.736 609 24.6779
137.853 622 24.9399
137.97 647 25.4362
138.087 670 25.8844
138.204 622 24.9399
138.321 616 24.8193
138.438 704 26.533
138.555 631 25.1197
138.672 615 24.7992
138.788 656 25.6125
138.905 615 24.7992
139.022 630 25.0998
139.139 544 23.3238
139.255 546 23.3666
139.372 561 23.6854
139.488 494 22.2261
139.605 502 22.4054
139.721 437 20.9045
139.838 421 20.5183
139.954 431 20.7605
140.071 366 19.1311
140.187 369 19.2094
140.303 339 18.412
140.419 321 17.9165
140.535 332 18.2209
140.652 284 16.8523
140.768 0 1
140.884 0 1
141 0 1
141.115 0 1
141.231 0 1
141.347 0 1
141.463 0 1
141.578 0 1
141.694 0 1
144.104 0 1
144.219 0 1
144.335 0 1
144.45 0 1
144.566 0 1
144.682 0 1
144.798 0 1
144.914 0 1
145.03 0 1
145.146 433 20.8087
145.262 425 20.6155
145.378 403 20.0749
145.494 469 21.6564
145.61 506 22.4944
145.726 462 21.4942
145.842 502 22.4054
145.959 549 23.4307
146.075 487 22.0681
146.192 497 22.2935
146.308 476 21.8174
146.425 483 21.9773
146.541 443 21.0476
146.658 510 22.5832
146.774 521 22.8254
146.891 540 23.2379
147.008 546 23.3666
147.125 559 23.6432
147.241 582 24.1247
147.358 620 24.8998
147.475 532 23.0651
147.592 619 24.8797
147.709 558 23.622
147.826 546 23.3666
147.943 544 23.3238
148.06 545 23.3452
148.177 527 22.9565
148.294 530 23.0217
148.411 504 22.4499
148.528 509 22.561
148.645 483 21.9773
148.762 516 22.7156
148.88 488 22.0907
148.997 541 23.2594
149.114 508 22.5389
149.231 532 23.0651
149.349 536 23.1517
149.466 532 23.0651
149.583 507 22.5167
149.701 500 22.3607
149.818 504 22.4499
149.935 485 22.0227
150.053 467 21.6102
150.17 469 21.6564
150.287 456 21.3542
150.405 536 23.1517
150.522 508 22.5389
150.64 566 23.7908
150.757 593 24.3516
150.875 599 24.4745
150.992 579 24.0624
151.11 520 22.8035
151.227 582 24.1247
151.344 575 23.9792
151.462 508 22.5389
151.579 549 23.4307
151.697 580 24.0832
151.814 560 23.6643
151.932 538 23.1948
152.049 509 22.561
152.167 496 22.2711
152.284 510 22.5832
152.402 504 22.4499
152.519 513 22.6495
152.636 524 22.891
152.754 490 22.1359
152.871 513 22.6495
152.989 554 23.5372
153.106 541 23.2594
153.223 576 24
153.341 586 24.2074
153.458 525 22.9129
153.575 537 23.1733
153.693 518 22.7596
153.81 506 22.4944
153.927 558 23.622
154.044 553 23.516
154.162 583 24.1454
154.279 600 24.4949
154.396 648 25.4558
154.513 631 25.1197
154.63 649 25.4755
154.747 638 25.2587
154.864 669 25.865
154.981 597 24.4336
155.098 666 25.807
155.215 642 25.3377
155.332 577 24.0208
155.449 598 24.454
155.566 621 24.9199
155.683 597 24.4336
155.8 560 23.6643
155.917 575 23.9792
156.033 535 23.1301
156.15 0 1
156.267 0 1
156.383 0 1
156.5 0 1
156.617 0 1
156.733 0 1
156.85 0 1
156.966 0 1
157.082 0 1
157.199 0 1
157.315 0 1
157.431 0 1
157.547 0 1
157.664 0 1
157.78 0 1
157.896 0 1
158.012 0 1
158.128 0 1
158.244 0 1
158.359 0 1
158.475 0 1
158.591 0 1
158.706 0 1
