
6.15755 0 1
6.2731 0 1
6.3887 0 1
6.50437 0 1
6.62009 0 1
6.73587 0 1
6.8517 0 1
6.96759 0 1
7.08353 0 1
7.19952 0 1
7.31557 0 1
7.43166 0 1
7.54781 0 1
7.664 0 1
7.78024 0 1
7.89653 0 1
8.01286 0 1
8.12924 0 1
8.24567 0 1
8.36213 0 1
8.47864 0 1
8.59519 0 1
8.71178 0 1
8.82841 0 1
8.94508 0 1
9.06179 0 1
9.17853 0 1
9.29531 0 1
9.41212 0 1
9.52897 0 1
9.64584 0 1
9.76276 0 1
9.8797 0 1
9.99667 0 1
10.1137 0 1
10.2307 0 1
10.3478 0 1
10.4648 0 1
10.5819 0 1
10.6991 0 1
10.8162 0 1
10.9334 0 1
11.0506 0 1
11.1678 0 1
11.285 0 1
11.4023 0 1
11.5196 0 1
11.6369 0 1
11.7542 0 1
11.8715 0 1
11.9888 0 1
12.1062 0 1
12.2235 0 1
12.3409 0 1
12.4582 0 1
12.5756 0 1
12.693 0 1
12.8104 0 1
12.9278 0 1
13.0452 0 1
13.1626 0 1
13.28 0 1
13.3974 0 1
13.5149 0 1
13.6323 0 1
13.7497 0 1
13.8671 0 1
13.9845 0 1
14.1019 0 1
14.2193 0 1
14.3367 0 1
14.4541 0 1
14.5714 0 1
14.6888 0 1
14.8062 0 1
14.9235 0 1
15.0408 3184 56.4269
15.1581 3452 58.7537
15.2755 3547 59.5567
15.3927 3617 60.1415
15.51 3452 58.7537
15.6273 3416 58.4466
15.7445 3387 58.1979
15.8617 3421 58.4893
15.9789 3475 58.9491
16.0961 3519 59.3212
16.2132 3401 58.3181
16.3304 3451 58.7452
16.4475 3516 59.2959
16.5646 3474 58.9406
16.6816 3589 59.9083
16.7986 3503 59.1861
16.9156 3489 59.0678
17.0326 3588 59.8999
17.1496 3616 60.1332
17.2665 3600 60
17.3833 3649 60.407
17.5002 3656 60.4649
17.617 3744 61.1882
17.7338 3633 60.2744
17.8505 3619 60.1581
17.9672 3502 59.1777
18.0839 3596 59.9667
18.2005 3605 60.0417
18.3171 3687 60.7207
18.4337 3775 61.441
18.5502 3751 61.2454
18.6666 3883 62.3137
18.7831 3949 62.8411
18.8994 3796 61.6117
19.0158 3747 61.2127
19.1321 3680 60.663
19.2483 3468 58.8897
19.3645 3324 57.6541
19.4806 3356 57.931
19.5967 3099 55.6687
19.7128 3043 55.1634
19.8288 2779 52.7162
19.9447 2435 49.3457
20.0606 0 1
20.1764 0 1
20.2922 0 1
20.4079 0 1
20.5236 0 1
20.6392 0 1
20.7548 0 1
20.8702 0 1
23.3078 0 1
23.4233 0 1
23.539 0 1
23.6547 0 1
23.7704 0 1
23.8862 0 1
24.0021 0 1
24.118 0 1
24.234 0 1
24.35 0 1
24.4661 1967 44.3509
24.5822 2274 47.6865
24.6984 2595 50.9411
24.8146 2903 53.8795
24.9309 3089 55.5788
25.0472 3266 57.1489
25.1636 3419 58.4722
25.28 3501 59.1692
25.3965 3623 60.1914
25.513 3798 61.6279
25.6296 3834 61.9193
25.7462 4098 64.0156
25.8628 4050 63.6396
25.9795 4146 64.3894
26.0962 4207 64.8614
26.213 4311 65.6582
26.3298 4144 64.3739
26.4466 4131 64.2729
26.5635 4067 63.773
26.6804 4130 64.2651
26.7973 4049 63.6318
26.9143 4171 64.5833
27.0313 4329 65.7951
27.1483 4452 66.7233
27.2653 4508 67.1416
27.3824 4331 65.8103
27.4996 4406 66.3777
27.6167 4401 66.34
27.7339 4357 66.0076
27.8511 4266 65.3146
27.9683 4196 64.7765
28.0855 4202 64.8228
28.2028 4227 65.0154
28.3201 4150 64.4205
28.4374 4201 64.8151
28.5547 4054 63.671
28.6721 3929 62.6817
28.7894 3898 62.434
28.9068 3730 61.0737
29.0242 3745 61.1964
29.1416 3839 61.9597
29.259 3891 62.3779
29.3764 3929 62.6817
29.4939 4011 63.3325
29.6113 4035 63.5216
29.7288 4047 63.616
29.8463 3985 63.1269
29.9638 4159 64.4903
30.0812 4116 64.1561
30.1987 4127 64.2417
30.3162 4091 63.9609
30.4337 4180 64.6529
30.5512 4199 64.7997
30.6687 4436 66.6033
30.7862 4342 65.8939
30.9037 4566 67.5722
31.0212 4504 67.1118
31.1387 4563 67.55
31.2562 4434 66.5883
31.3737 4330 65.8027
31.4912 4244 65.146
31.6087 4199 64.7997
31.7262 4267 65.3223
31.8436 4303 65.5973
31.9611 4101 64.0391
32.0785 4035 63.5216
32.1959 4017 63.3798
32.3134 3825 61.8466
32.4308 3768 61.384
32.5482 3739 61.1474
32.6655 3743 61.1801
32.7829 3848 62.0322
32.9002 3831 61.8951
33.0176 3949 62.8411
33.1349 4119 64.1794
33.2522 4192 64.7457
33.3694 4302 65.5896
33.4867 4263 65.2917
33.6039 4194 64.7611
33.7211 4223 64.9846
33.8383 4232 65.0538
33.9554 4229 65.0308
34.0725 4233 65.0615
34.1896 4400 66.3325
34.3067 4451 66.7158
34.4237 4426 66.5282
34.5407 4513 67.1789
34.6577 4652 68.2056
34.7746 4588 67.7348
34.8915 4506 67.1267
35.0084 4463 66.8057
35.1252 4430 66.5582
35.242 4351 65.9621
35.3587 4506 67.1267
35.4755 4314 65.681
35.5921 4403 66.3551
35.7088 4208 64.8691
35.8254 3969 63
35.9419 3892 62.3859
36.0584 3547 59.5567
36.1749 3563 59.6909
36.2913 3536 59.4643
36.4077 3331 57.7148
36.524 3396 58.2752
36.6403 3340 57.7927
36.7565 3240 56.921
36.8727 3169 56.2939
36.9889 3137 56.0089
37.1049 2925 54.0833
37.221 0 1
37.3369 0 1
37.4529 0 1
37.5687 0 1
37.6845 0 1
37.8003 0 1
37.916 0 1
38.0316 0 1
38.1472 0 1
40.5851 0 1
40.7008 0 1
40.8164 0 1
40.9322 0 1
41.048 0 1
41.1639 0 1
41.2798 0 1
41.3958 0 1
41.5118 0 1
41.6279 0 1
41.744 2012 44.8553
41.8602 2231 47.2335
41.9765 2471 49.7092
42.0928 2845 53.3385
42.2091 2969 54.4885
42.3255 3156 56.1783
42.4419 3466 58.8727
42.5584 3578 59.8164
42.675 3662 60.5145
42.7915 3678 60.6465
42.9081 3849 62.0403
43.0248 4072 63.8122
43.1415 4347 65.9318
43.2582 4339 65.8711
43.375 4518 67.2161
43.4918 4580 67.6757
43.6087 4640 68.1175
43.7256 4611 67.9043
43.8425 4495 67.0448
43.9595 4470 66.8581
44.0765 4397 66.3099
44.1935 4411 66.4154
44.3106 4544 67.4092
44.4277 4575 67.6387
44.5448 4383 66.2042
44.6619 4217 64.9384
44.7791 4086 63.9218
44.8963 3732 61.0901
45.0136 3603 60.025
45.1308 3525 59.3717
45.2481 3482 59.0085
45.3654 3456 58.7878
45.4827 3613 60.1082
45.6001 3797 61.6198
45.7174 3960 62.9285
45.8348 4188 64.7148
45.9522 4373 66.1287
46.0697 4460 66.7832
46.1871 4475 66.8954
46.3046 4441 66.6408
46.422 4645 68.1542
46.5395 4504 67.1118
46.657 4699 68.5493
46.7745 4758 68.9783
46.892 4817 69.4046
47.0096 4987 70.6187
47.1271 5036 70.9648
47.2446 5296 72.7736
47.3622 4993 70.6612
47.4797 4866 69.7567
47.5973 4837 69.5485
47.7149 4829 69.491
47.8324 4933 70.2353
47.95 4987 70.6187
48.0675 4626 68.0147
48.1851 4645 68.1542
48.3027 4456 66.7533
48.4202 4170 64.5755
48.5378 3770 61.4003
48.6554 3633 60.2744
48.7729 3569 59.7411
48.8904 3508 59.2284
49.008 3724 61.0246
49.1255 3838 61.9516
49.243 4161 64.5058
49.3605 4443 66.6558
49.478 4692 68.4982
49.5955 4683 68.4324
49.713 4745 68.884
49.8304 4887 69.9071
49.9479 4716 68.6731
50.0653 4805 69.3181
50.1827 4997 70.6895
50.3001 5122 71.5681
50.4175 5081 71.2811
50.5348 5302 72.8148
50.6521 5375 73.3144
50.7694 5341 73.0821
50.8867 5238 72.374
51.004 5205 72.1457
51.1212 5090 71.3442
51.2384 5086 71.3162
51.3556 5046 71.0352
51.4727 5100 71.4143
51.5899 5116 71.5262
51.707 4956 70.3989
51.824 4646 68.1616
51.9411 4173 64.5988
52.0581 3873 62.2334
52.175 3752 61.2536
52.2919 3708 60.8933
52.4088 3731 61.0819
52.5257 3774 61.4329
52.6425 3932 62.7057
52.7593 4352 65.9697
52.876 4485 66.9701
52.9927 4829 69.491
53.1094 4636 68.0882
53.226 4680 68.4105
53.3426 4625 68.0074
53.4591 4511 67.164
53.5756 4403 66.3551
53.692 4243 65.1383
53.8084 4105 64.0703
53.9248 4030 63.4823
54.0411 3928 62.6738
54.1573 3828 61.8708
54.2735 0 1
54.3896 0 1
54.5057 0 1
54.6217 0 1
54.7377 0 1
54.8537 0 1
54.9695 0 1
55.0853 0 1
55.2011 0 1
55.3168 0 1
55.4324 0 1
57.824 0 1
57.9396 0 1
58.0553 0 1
58.1711 0 1
58.2869 0 1
58.4028 0 1
58.5187 0 1
58.6347 0 1
58.7508 0 1
58.8669 0 1
58.983 4077 63.8514
59.0992 4889 69.9214
59.2155 5094 71.3723
59.3318 5567 74.6123
59.4482 5993 77.4145
59.5646 6238 78.981
59.681 6339 79.6178
59.7975 6429 80.181
59.9141 6720 81.9756
60.0306 6872 82.8975
60.1473 6964 83.4506
60.2639 6979 83.5404
60.3807 6830 82.6438
60.4974 6564 81.0185
60.6142 6109 78.1601
60.731 5759 75.8881
60.8479 5177 71.9514
60.9648 4778 69.1231
61.0818 4636 68.0882
61.1987 4664 68.2935
61.3158 4934 70.2424
61.4328 5616 74.94
61.5499 6210 78.8036
61.667 6784 82.365
61.7841 7040 83.9047
61.9013 7420 86.1394
62.0185 7420 86.1394
62.1357 7342 85.6855
62.253 7382 85.9186
62.3702 7434 86.2206
62.4875 7705 87.7781
62.6049 7694 87.7154
62.7222 7948 89.1516
62.8396 7947 89.1459
62.9569 8111 90.0611
63.0743 8140 90.2219
63.1918 7916 88.9719
63.3092 7936 89.0842
63.4267 7779 88.1986
63.5441 7673 87.5957
63.6616 7781 88.21
63.7791 7639 87.4014
63.8966 7619 87.2869
64.0142 7258 85.1939
64.1317 6516 80.7217
64.2492 5762 75.9078
64.3668 5337 73.0548
64.4843 4897 69.9786
64.6019 4647 68.1689
64.7195 4727 68.7532
64.837 4936 70.2567
64.9546 5415 73.5867
65.0722 6271 79.1896
65.1898 6786 82.3772
65.3074 7495 86.5737
65.4249 7758 88.0795
65.5425 7933 89.0674
65.6601 7812 88.3855
65.7777 7834 88.5099
65.8952 7980 89.3308
66.0128 7889 88.82
66.1304 8338 91.3126
66.2479 8322 91.225
66.3655 8390 91.5969
66.483 8673 93.1289
66.6005 8487 92.1249
66.718 8699 93.2684
66.8355 8492 92.152
66.953 8407 91.6897
67.0705 8380 91.5423
67.1879 8133 90.1831
67.3054 8186 90.4765
67.4228 8203 90.5704
67.5402 8019 89.5489
67.6576 7636 87.3842
67.7749 6926 83.2226
67.8923 6091 78.0449
68.0096 5298 72.7874
68.1269 4815 69.3902
68.2442 4494 67.0373
68.3614 4806 69.3253
68.4787 4781 69.1448
68.5958 5671 75.306
68.713 6609 81.2958
68.8302 7475 86.4581
68.9473 8048 89.7106
69.0643 8543 92.4284
69.1814 8671 93.1182
69.2984 8560 92.5203
69.4154 8233 90.7359
69.5323 8174 90.4102
69.6492 8156 90.3106
69.7661 7967 89.2581
69.8829 8062 89.7886
69.9997 8186 90.4765
70.1165 8309 91.1537
70.2332 8078 89.8777
70.3499 7750 88.0341
70.4665 7463 86.3887
70.5831 7321 85.5628
70.6996 7003 83.6839
70.8161 6634 81.4494
70.9326 6509 80.6784
71.049 6247 79.038
71.1653 5966 77.2399
71.2817 5425 73.6546
71.3979 4802 69.2965
71.5141 4114 64.1405
71.6303 3286 57.3236
71.7464 2180 46.6905
71.8624 0 1
71.9784 0 1
72.0944 0 1
72.2102 0 1
72.3261 0 1
72.4418 0 1
72.5575 0 1
72.6732 0 1
75.1054 0 1
75.2209 0 1
75.3365 0 1
75.4521 0 1
75.5678 0 1
75.6835 0 1
75.7993 0 1
75.9151 0 1
76.031 0 1
76.147 6490 80.5605
76.263 6730 82.0366
76.3791 7293 85.3991
76.4952 7124 84.4038
76.6113 6926 83.2226
76.7276 6478 80.486
76.8438 6079 77.9679
76.9601 5394 73.4439
77.0765 4987 70.6187
77.1929 4630 68.0441
77.3093 4568 67.587
77.4258 4754 68.9493
77.5423 5365 73.2462
77.6589 6327 79.5424
77.7755 7715 87.8351
77.8921 8655 93.0323
78.0088 9389 96.8969
78.1256 9610 98.0306
78.2423 9714 98.5596
78.3591 9694 98.4581
78.4759 9412 97.0155
78.5928 9492 97.4269
78.7097 9438 97.1494
78.8266 9526 97.6012
78.9436 10152 100.757
79.0606 10063 100.315
79.1776 10325 101.612
79.2946 10581 102.864
79.4117 10516 102.548
79.5288 10286 101.42
79.6459 10446 102.206
79.7631 10414 102.049
79.8802 10280 101.39
79.9974 10502 102.479
80.1147 10523 102.582
80.2319 10165 100.822
80.3491 9350 96.6954
80.4664 8585 92.6553
80.5837 7422 86.151
80.701 6283 79.2654
80.8183 5489 74.0878
80.9357 5275 72.6292
81.053 5344 73.1027
81.1704 5643 75.1199
81.2877 6828 82.6317
81.4051 8375 91.515
81.5225 9794 98.9646
81.6399 10724 103.557
81.7573 11453 107.019
81.8747 11426 106.892
81.9922 11672 108.037
82.1096 11413 106.832
82.227 11213 105.891
82.3444 11311 106.353
82.4619 11312 106.358
82.5793 11856 108.885
82.6967 11960 109.362
82.8142 12294 110.878
82.9316 12568 112.107
83.049 12575 112.138
83.1664 12294 110.878
83.2838 12374 111.238
83.4012 12252 110.689
83.5186 12010 109.59
83.636 12168 110.309
83.7534 12046 109.754
83.8708 11540 107.424
83.9881 10571 102.815
84.1055 9591 97.9337
84.2228 8502 92.2063
84.3401 7211 84.9176
84.4575 6239 78.9873
84.5747 5767 75.9408
84.692 6025 77.6209
84.8093 6648 81.5353
84.9265 8118 90.0999
85.0437 9494 97.4372
85.1609 11303 106.316
85.2781 12480 111.714
85.3952 13025 114.127
85.5123 13503 116.202
85.6294 13457 116.004
85.7465 12993 113.987
85.8636 12849 113.353
85.9806 13019 114.101
86.0976 13201 114.896
86.2145 13556 116.43
86.3315 14147 118.941
86.4484 13808 117.507
86.5652 14383 119.929
86.682 13905 117.919
86.7988 13573 116.503
86.9156 12991 113.978
87.0323 12673 112.574
87.149 12617 112.325
87.2657 12404 111.373
87.3823 12368 111.212
87.4988 11806 108.655
87.6154 10542 102.674
87.7318 9149 95.6504
87.8483 7806 88.3516
87.9647 6507 80.666
88.081 5315 72.904
88.1973 4910 70.0714
88.3136 4914 70.0999
88.4298 5370 73.2803
88.546 6324 79.5236
88.6621 7489 86.539
88.7781 8270 90.9395
88.8942 0 1
89.0101 0 1
89.126 0 1
89.2419 0 1
89.3577 0 1
89.4734 0 1
89.5891 0 1
89.7047 0 1
89.8203 0 1
89.9358 0 1
92.3269 0 1
92.4424 0 1
92.558 0 1
92.6736 0 1
92.7893 0 1
92.905 0 1
93.0208 0 1
93.1366 0 1
93.2525 0 1
93.3685 0 1
93.4845 0 1
93.6005 5646 75.1399
93.7167 6116 78.2049
93.8328 7035 83.8749
93.949 8729 93.4291
94.0653 10698 103.431
94.1816 12433 111.503
94.2979 14043 118.503
94.4143 14729 121.363
94.5307 15820 125.778
94.6472 15911 126.139
94.7637 16224 127.373
94.8803 16112 126.933
94.9969 15883 126.028
95.1135 16077 126.795
95.2302 16694 129.205
95.3469 16833 129.742
95.4637 17123 130.855
95.5805 17460 132.136
95.6973 17173 131.046
95.8142 17031 130.503
95.9311 16925 130.096
96.048 16809 129.65
96.1649 16600 128.841
96.2819 16465 128.316
96.3989 16155 127.102
96.516 15818 125.77
96.633 14918 122.139
96.7501 13488 116.138
96.8673 12058 109.809
96.9844 10446 102.206
97.1016 9093 95.3572
97.2188 8309 91.1537
97.336 7879 88.7637
97.4532 8158 90.3216
97.5704 9261 96.2341
97.6877 11088 105.3
97.805 13367 115.616
97.9223 15079 122.797
98.0396 16517 128.518
98.1569 17249 131.335
98.2743 17548 132.469
98.3916 17547 132.465
98.509 17294 131.507
98.6264 16731 129.348
98.7438 17203 131.16
98.8612 17447 132.087
98.9786 17682 132.974
99.096 18147 134.711
99.2134 18489 135.974
99.3308 18171 134.8
99.4482 18328 135.381
99.5656 18081 134.466
99.6831 17786 133.364
99.8005 17718 133.109
99.9179 17594 132.642
100.035 17559 132.51
100.153 17090 130.729
100.27 15798 125.69
100.388 13962 118.161
100.505 12015 109.613
100.622 10582 102.869
100.74 9316 96.5194
100.857 8518 92.293
100.975 8573 92.5905
101.092 9459 97.2574
101.209 11041 105.076
101.327 13307 115.356
101.444 15651 125.104
101.561 17068 130.645
101.679 17871 133.682
101.796 18303 135.289
101.913 18488 135.971
102.03 17985 134.108
102.148 17617 132.729
102.265 17997 134.153
102.382 17482 132.22
102.499 18312 135.322
102.616 18337 135.414
102.733 18858 137.324
102.851 18530 136.125
102.968 18586 136.33
103.085 18350 135.462
103.202 18369 135.532
103.319 18049 134.347
103.436 17869 133.675
103.552 17680 132.966
103.669 17594 132.642
103.786 16747 129.41
103.903 15342 123.863
104.02 13159 114.713
104.137 11613 107.764
104.253 10101 100.504
104.37 9110 95.4463
104.487 9053 95.1473
104.603 9186 95.8436
104.72 10017 100.085
104.836 11357 106.569
104.953 12836 113.296
105.069 13832 117.61
105.186 14301 119.587
105.302 14569 120.702
105.418 14517 120.487
105.535 13771 117.35
105.651 12974 113.903
105.767 11946 109.298
105.883 11043 105.086
105.999 10126 100.628
106.115 0 1
106.231 0 1
106.347 0 1
106.463 0 1
106.579 0 1
106.694 0 1
106.81 0 1
106.926 0 1
107.041 0 1
107.157 0 1
109.576 0 1
109.692 0 1
109.807 0 1
109.923 0 1
110.039 0 1
110.155 0 1
110.27 0 1
110.386 0 1
110.502 0 1
110.618 10488 102.411
110.735 11433 106.925
110.851 11681 108.079
110.967 12089 109.95
111.083 13073 114.337
111.199 14132 118.878
111.316 14895 122.045
111.432 15422 124.185
111.549 15801 125.702
111.665 16115 126.945
111.782 16201 127.283
111.898 16088 126.838
112.015 15933 126.226
112.132 15877 126.004
112.248 15875 125.996
112.365 16014 126.546
112.482 15505 124.519
112.599 13757 117.29
112.716 11911 109.138
112.832 10496 102.45
112.949 9317 96.5246
113.066 8399 91.6461
113.183 8076 89.8666
113.3 8247 90.813
113.417 9252 96.1873
113.534 10920 104.499
113.652 12913 113.635
113.769 14075 118.638
113.886 15639 125.056
114.003 15777 125.607
114.12 16069 126.764
114.238 15799 125.694
114.355 15118 122.955
114.472 14645 121.017
114.589 14910 122.107
114.707 15589 124.856
114.824 15671 125.184
114.942 15904 126.111
115.059 15883 126.028
115.176 15614 124.956
115.294 15460 124.338
115.411 15249 123.487
115.529 15084 122.817
115.646 14607 120.859
115.764 14629 120.95
115.881 14345 119.771
115.999 14427 120.112
116.116 13564 116.465
116.234 12206 110.481
116.351 10673 103.31
116.469 9429 97.103
116.586 8335 91.2962
116.704 8022 89.5656
116.821 7888 88.8144
116.939 8024 89.5768
117.056 9092 95.352
117.174 10709 103.484
117.291 12446 111.562
117.409 13377 115.659
117.526 14248 119.365
117.644 14204 119.181
117.761 14326 119.691
117.879 13981 118.241
117.996 13542 116.37
118.114 13428 115.879
118.231 13457 116.004
118.349 14045 118.512
118.466 14166 119.021
118.584 13952 118.119
118.701 14208 119.197
118.819 14098 118.735
118.936 13910 117.941
119.053 13620 116.705
119.171 13465 116.039
119.288 12670 112.561
119.405 12927 113.697
119.523 12690 112.65
119.64 12773 113.018
119.757 12239 110.63
119.875 11197 105.816
119.992 9917 99.5841
120.109 8758 93.5842
120.226 7798 88.3063
120.343 7511 86.666
120.46 7202 84.8646
120.578 7404 86.0465
120.695 7855 88.6284
120.812 8956 94.6361
120.929 10046 100.23
121.046 10988 104.824
121.163 11334 106.461
121.279 11437 106.944
121.396 11588 107.648
121.513 11279 106.203
121.63 10937 104.58
121.747 10325 101.612
121.863 10350 101.735
121.98 10454 102.245
122.097 10577 102.845
122.213 10337 101.671
122.33 10354 101.755
122.446 9906 99.5289
122.563 9475 97.3396
122.679 8900 94.3398
122.795 8514 92.2713
122.912 8125 90.1388
123.028 7457 86.3539
123.144 7113 84.3386
123.26 6443 80.2683
123.377 0 1
123.493 0 1
123.609 0 1
123.725 0 1
123.84 0 1
123.956 0 1
124.072 0 1
124.188 0 1
124.303 0 1
124.419 0 1
126.852 0 1
126.968 0 1
127.083 0 1
127.199 0 1
127.315 0 1
127.431 0 1
127.547 0 1
127.663 0 1
127.779 0 1
127.895 0 1
128.011 0 1
128.127 0 1
128.243 0 1
128.359 11763 108.457
128.476 11837 108.798
128.592 11924 109.197
128.708 12201 110.458
128.825 12187 110.395
128.941 11734 108.324
129.058 10957 104.676
129.174 10022 100.11
129.291 9172 95.7706
129.408 8780 93.7017
129.524 8598 92.7254
129.641 8337 91.3072
129.758 8336 91.3017
129.875 9408 96.9948
129.992 10248 101.232
130.108 11426 106.892
130.225 11867 108.936
130.342 12583 112.174
130.459 12532 111.946
130.576 13125 114.564
130.693 12393 111.324
130.81 12189 110.404
130.928 12572 112.125
131.045 12909 113.618
131.162 13075 114.346
131.279 13391 115.719
131.396 13175 114.782
131.513 13282 115.248
131.631 13097 114.442
131.748 12843 113.327
131.865 12554 112.045
131.983 12248 110.671
132.1 11894 109.06
132.217 12051 109.777
132.335 12111 110.05
132.452 11822 108.729
132.57 11245 106.042
132.687 10348 101.725
132.804 9870 99.3479
132.922 9014 94.9421
133.039 8756 93.5735
133.157 8633 92.9139
133.274 8526 92.3363
133.392 8918 94.4352
133.509 9614 98.051
133.627 10520 102.567
133.744 11178 105.726
133.862 11830 108.766
133.979 12084 109.927
134.097 12061 109.823
134.214 12014 109.608
134.332 11526 107.359
134.449 11891 109.046
134.567 12009 109.586
134.684 12336 111.068
134.802 12681 112.61
134.919 12759 112.956
135.037 12653 112.486
135.154 12507 111.835
135.272 12381 111.27
135.389 12024 109.654
135.507 11957 109.348
135.624 11781 108.54
135.742 11625 107.819
135.859 11648 107.926
135.977 11721 108.264
136.094 11395 106.747
136.211 10594 102.927
136.329 10082 100.409
136.446 9710 98.5393
136.564 9234 96.0937
136.681 8972 94.7206
136.798 8599 92.7308
136.915 8648 92.9946
137.033 8694 93.2416
137.15 9190 95.8645
137.267 9992 99.96
137.384 10595 102.932
137.502 10839 104.111
137.619 11072 105.224
137.736 11359 106.579
137.853 10816 104
137.97 11154 105.612
138.087 10729 103.581
138.204 11184 105.754
138.321 11537 107.41
138.438 11350 106.536
138.555 11422 106.874
138.672 11025 105
138.788 10759 103.726
138.905 10579 102.854
139.022 10093 100.464
139.139 9835 99.1716
139.255 9233 96.0885
139.372 8944 94.5727
139.488 8524 92.3255
139.605 8157 90.3161
139.721 7973 89.2917
139.838 7378 85.8953
139.954 6711 81.9207
140.071 5993 77.4145
140.187 5514 74.2563
140.303 4959 70.4202
140.419 4436 66.6033
140.535 4249 65.1844
140.652 3813 61.7495
140.768 0 1
140.884 0 1
141 0 1
141.115 0 1
141.231 0 1
141.347 0 1
141.463 0 1
141.578 0 1
141.694 0 1
144.104 0 1
144.219 0 1
144.335 0 1
144.45 0 1
144.566 0 1
144.682 0 1
144.798 0 1
144.914 0 1
145.03 0 1
145.146 6595 81.2096
145.262 6812 82.5348
145.378 6840 82.7043
145.494 6580 81.1172
145.61 6558 80.9815
145.726 6512 80.697
145.842 6539 80.8641
145.959 6692 81.8046
146.075 6733 82.0549
146.192 7063 84.0417
146.308 7346 85.7088
146.425 7534 86.7986
146.541 7674 87.6014
146.658 7592 87.1321
146.774 7515 86.6891
146.891 7558 86.9368
147.008 7882 88.7806
147.125 8088 89.9333
147.241 8243 90.791
147.358 8214 90.6311
147.475 8374 91.5096
147.592 8031 89.6158
147.709 8136 90.1998
147.826 8002 89.4539
147.943 7775 88.176
148.06 7551 86.8965
148.177 7396 86
148.294 7457 86.3539
148.411 7579 87.0575
148.528 7916 88.9719
148.645 7587 87.1034
148.762 7471 86.4349
148.88 7324 85.5804
148.997 7247 85.1293
149.114 6846 82.7406
149.231 6806 82.4985
149.349 6865 82.8553
149.466 6595 81.2096
149.583 6641 81.4923
149.701 6772 82.2922
149.818 6649 81.5414
149.935 6830 82.6438
150.053 7226 85.0059
150.17 7275 85.2936
150.287 7166 84.6522
150.405 7228 85.0176
150.522 7094 84.2259
150.64 7401 86.0291
150.757 7588 87.1091
150.875 7587 87.1034
150.992 7866 88.6905
151.11 7846 88.5776
151.227 7656 87.4986
151.344 7644 87.43
151.462 7472 86.4407
151.579 7252 85.1587
151.697 7265 85.235
151.814 7165 84.6463
151.932 7053 83.9821
152.049 7154 84.5813
152.167 7326 85.5921
152.284 7117 84.3623
152.402 7075 84.113
152.519 6789 82.3954
152.636 6801 82.4682
152.754 6579 81.111
152.871 6488 80.5481
152.989 6496 80.5978
153.106 6303 79.3914
153.223 6167 78.5302
153.341 6474 80.4612
153.458 6391 79.9437
153.575 6431 80.1935
153.693 6618 81.3511
153.81 6798 82.45
153.927 6681 81.7374
154.044 6602 81.2527
154.162 6549 80.9259
154.279 6685 81.7618
154.396 6952 83.3787
154.513 7175 84.7054
154.63 7177 84.7172
154.747 7076 84.119
154.864 7022 83.7974
154.981 6902 83.0783
155.098 6909 83.1204
155.215 6631 81.431
155.332 6463 80.3928
155.449 6628 81.4125
155.566 6496 80.5978
155.683 6521 80.7527
155.8 6358 79.7371
155.917 6205 78.7718
156.033 6090 78.0385
156.15 0 1
156.267 0 1
156.383 0 1
156.5 0 1
156.617 0 1
156.733 0 1
156.85 0 1
156.966 0 1
157.082 0 1
157.199 0 1
157.315 0 1
157.431 0 1
157.547 0 1
157.664 0 1
157.78 0 1
157.896 0 1
158.012 0 1
158.128 0 1
158.244 0 1
158.359 0 1
158.475 0 1
158.591 0 1
158.706 0 1
