
6.15755 0 1
6.2731 0 1
6.3887 0 1
6.50437 0 1
6.62009 0 1
6.73587 0 1
6.8517 0 1
6.96759 0 1
7.08353 0 1
7.19952 0 1
7.31557 0 1
7.43166 0 1
7.54781 0 1
7.664 0 1
7.78024 0 1
7.89653 0 1
8.01286 0 1
8.12924 0 1
8.24567 0 1
8.36213 0 1
8.47864 0 1
8.59519 0 1
8.71178 0 1
8.82841 0 1
8.94508 0 1
9.06179 0 1
9.17853 0 1
9.29531 0 1
9.41212 0 1
9.52897 0 1
9.64584 0 1
9.76276 0 1
9.8797 0 1
9.99667 0 1
10.1137 0 1
10.2307 0 1
10.3478 0 1
10.4648 0 1
10.5819 0 1
10.6991 0 1
10.8162 0 1
10.9334 0 1
11.0506 0 1
11.1678 0 1
11.285 0 1
11.4023 0 1
11.5196 0 1
11.6369 0 1
11.7542 0 1
11.8715 0 1
11.9888 0 1
12.1062 0 1
12.2235 0 1
12.3409 0 1
12.4582 0 1
12.5756 0 1
12.693 0 1
12.8104 0 1
12.9278 0 1
13.0452 0 1
13.1626 0 1
13.28 0 1
13.3974 0 1
13.5149 0 1
13.6323 0 1
13.7497 0 1
13.8671 0 1
13.9845 0 1
14.1019 0 1
14.2193 0 1
14.3367 0 1
14.4541 0 1
14.5714 0 1
14.6888 0 1
14.8062 0 1
14.9235 0 1
15.0408 944 30.7246
15.1581 941 30.6757
15.2755 949 30.8058
15.3927 982 31.3369
15.51 940 30.6594
15.6273 934 30.5614
15.7445 886 29.7658
15.8617 847 29.1033
15.9789 914 30.2324
16.0961 903 30.05
16.2132 894 29.8998
16.3304 923 30.3809
16.4475 840 28.9828
16.5646 860 29.3258
16.6816 833 28.8617
16.7986 814 28.5307
16.9156 853 29.2062
17.0326 795 28.1957
17.1496 868 29.4618
17.2665 791 28.1247
17.3833 794 28.178
17.5002 857 29.2746
17.617 793 28.1603
17.7338 830 28.8097
17.8505 834 28.8791
17.9672 799 28.2666
18.0839 766 27.6767
18.2005 739 27.1846
18.3171 786 28.0357
18.4337 754 27.4591
18.5502 784 28
18.6666 777 27.8747
18.7831 856 29.2575
18.8994 805 28.3725
19.0158 772 27.7849
19.1321 678 26.0384
19.2483 637 25.2389
19.3645 640 25.2982
19.4806 641 25.318
19.5967 667 25.8263
19.7128 590 24.2899
19.8288 628 25.0599
19.9447 574 23.9583
20.0606 0 1
20.1764 0 1
20.2922 0 1
20.4079 0 1
20.5236 0 1
20.6392 0 1
20.7548 0 1
20.8702 0 1
23.3078 0 1
23.4233 0 1
23.539 0 1
23.6547 0 1
23.7704 0 1
23.8862 0 1
24.0021 0 1
24.118 0 1
24.234 0 1
24.35 0 1
24.4661 312 17.6635
24.5822 338 18.3848
24.6984 457 21.3776
24.8146 451 21.2368
24.9309 570 23.8747
25.0472 656 25.6125
25.1636 701 26.4764
25.28 759 27.55
25.3965 803 28.3373
25.513 794 28.178
25.6296 838 28.9482
25.7462 849 29.1376
25.8628 804 28.3549
25.9795 825 28.7228
26.0962 830 28.8097
26.213 844 29.0517
26.3298 802 28.3196
26.4466 771 27.7669
26.5635 682 26.1151
26.6804 686 26.1916
26.7973 609 24.6779
26.9143 634 25.1794
27.0313 622 24.9399
27.1483 624 24.98
27.2653 671 25.9037
27.3824 692 26.3059
27.4996 694 26.3439
27.6167 699 26.4386
27.7339 708 26.6083
27.8511 717 26.7769
27.9683 691 26.2869
28.0855 655 25.593
28.2028 719 26.8142
28.3201 724 26.9072
28.4374 729 27
28.5547 771 27.7669
28.6721 765 27.6586
28.7894 753 27.4408
28.9068 678 26.0384
29.0242 767 27.6948
29.1416 735 27.1109
29.259 698 26.4197
29.3764 690 26.2679
29.4939 700 26.4575
29.6113 631 25.1197
29.7288 655 25.593
29.8463 683 26.1343
29.9638 649 25.4755
30.0812 627 25.04
30.1987 606 24.6171
30.3162 559 23.6432
30.4337 581 24.1039
30.5512 618 24.8596
30.6687 637 25.2389
30.7862 699 26.4386
30.9037 694 26.3439
31.0212 708 26.6083
31.1387 719 26.8142
31.2562 712 26.6833
31.3737 736 27.1293
31.4912 689 26.2488
31.6087 669 25.865
31.7262 668 25.8457
31.8436 651 25.5147
31.9611 722 26.8701
32.0785 667 25.8263
32.1959 680 26.0768
32.3134 669 25.865
32.4308 688 26.2298
32.5482 635 25.1992
32.6655 616 24.8193
32.7829 675 25.9808
32.9002 603 24.5561
33.0176 648 25.4558
33.1349 614 24.779
33.2522 635 25.1992
33.3694 599 24.4745
33.4867 598 24.454
33.6039 603 24.5561
33.7211 602 24.5357
33.8383 635 25.1992
33.9554 585 24.1868
34.0725 602 24.5357
34.1896 550 23.4521
34.3067 600 24.4949
34.4237 644 25.3772
34.5407 642 25.3377
34.6577 631 25.1197
34.7746 666 25.807
34.8915 639 25.2784
35.0084 633 25.1595
35.1252 630 25.0998
35.242 649 25.4755
35.3587 606 24.6171
35.4755 623 24.96
35.5921 654 25.5734
35.7088 588 24.2487
35.8254 603 24.5561
35.9419 641 25.318
36.0584 649 25.4755
36.1749 617 24.8395
36.2913 565 23.7697
36.4077 541 23.2594
36.524 544 23.3238
36.6403 483 21.9773
36.7565 497 22.2935
36.8727 460 21.4476
36.9889 460 21.4476
37.1049 389 19.7231
37.221 0 1
37.3369 0 1
37.4529 0 1
37.5687 0 1
37.6845 0 1
37.8003 0 1
37.916 0 1
38.0316 0 1
38.1472 0 1
40.5851 0 1
40.7008 0 1
40.8164 0 1
40.9322 0 1
41.048 0 1
41.1639 0 1
41.2798 0 1
41.3958 0 1
41.5118 0 1
41.6279 0 1
41.744 278 16.6733
41.8602 345 18.5742
41.9765 440 20.9762
42.0928 436 20.8806
42.2091 454 21.3073
42.3255 489 22.1133
42.4419 516 22.7156
42.5584 518 22.7596
42.675 452 21.2603
42.7915 431 20.7605
42.9081 392 19.799
43.0248 462 21.4942
43.1415 461 21.4709
43.2582 473 21.7486
43.375 483 21.9773
43.4918 482 21.9545
43.6087 531 23.0434
43.7256 525 22.9129
43.8425 510 22.5832
43.9595 516 22.7156
44.0765 502 22.4054
44.1935 468 21.6333
44.3106 489 22.1133
44.4277 531 23.0434
44.5448 518 22.7596
44.6619 531 23.0434
44.7791 561 23.6854
44.8963 512 22.6274
45.0136 517 22.7376
45.1308 534 23.1084
45.2481 526 22.9347
45.3654 476 21.8174
45.4827 532 23.0651
45.6001 523 22.8692
45.7174 529 23
45.8348 523 22.8692
45.9522 500 22.3607
46.0697 488 22.0907
46.1871 477 21.8403
46.3046 434 20.8327
46.422 428 20.6882
46.5395 431 20.7605
46.657 424 20.5913
46.7745 453 21.2838
46.892 460 21.4476
47.0096 485 22.0227
47.1271 470 21.6795
47.2446 516 22.7156
47.3622 448 21.166
47.4797 482 21.9545
47.5973 451 21.2368
47.7149 432 20.7846
47.8324 437 20.9045
47.95 489 22.1133
48.0675 456 21.3542
48.1851 500 22.3607
48.3027 486 22.0454
48.4202 479 21.8861
48.5378 532 23.0651
48.6554 473 21.7486
48.7729 506 22.4944
48.8904 509 22.561
49.008 547 23.388
49.1255 543 23.3024
49.243 542 23.2809
49.3605 527 22.9565
49.478 474 21.7715
49.5955 468 21.6333
49.713 444 21.0713
49.8304 402 20.0499
49.9479 372 19.2873
50.0653 431 20.7605
50.1827 399 19.975
50.3001 401 20.025
50.4175 460 21.4476
50.5348 451 21.2368
50.6521 471 21.7025
50.7694 432 20.7846
50.8867 458 21.4009
51.004 438 20.9284
51.1212 438 20.9284
51.2384 410 20.2485
51.3556 443 21.0476
51.4727 473 21.7486
51.5899 436 20.8806
51.707 514 22.6716
51.824 465 21.5639
51.9411 476 21.8174
52.0581 472 21.7256
52.175 474 21.7715
52.2919 437 20.9045
52.4088 480 21.9089
52.5257 469 21.6564
52.6425 498 22.3159
52.7593 473 21.7486
52.876 452 21.2603
52.9927 459 21.4243
53.1094 394 19.8494
53.226 407 20.1742
53.3426 398 19.9499
53.4591 356 18.868
53.5756 345 18.5742
53.692 373 19.3132
53.8084 368 19.1833
53.9248 391 19.7737
54.0411 418 20.445
54.1573 489 22.1133
54.2735 0 1
54.3896 0 1
54.5057 0 1
54.6217 0 1
54.7377 0 1
54.8537 0 1
54.9695 0 1
55.0853 0 1
55.2011 0 1
55.3168 0 1
55.4324 0 1
57.824 0 1
57.9396 0 1
58.0553 0 1
58.1711 0 1
58.2869 0 1
58.4028 0 1
58.5187 0 1
58.6347 0 1
58.7508 0 1
58.8669 0 1
58.983 1493 38.6394
59.0992 1705 41.2916
59.2155 1961 44.2832
59.3318 2433 49.3254
59.4482 3235 56.8771
59.5646 3682 60.6795
59.681 3807 61.7009
59.7975 3772 61.4166
59.9141 3623 60.1914
60.0306 3364 58
60.1473 3019 54.9454
60.2639 2738 52.3259
60.3807 2337 48.3425
60.4974 2013 44.8665
60.6142 1774 42.1189
60.731 1564 39.5474
60.8479 1358 36.8511
60.9648 1219 34.9142
61.0818 1145 33.8378
61.1987 996 31.5595
61.3158 936 30.5941
61.4328 892 29.8664
61.5499 853 29.2062
61.667 807 28.4077
61.7841 765 27.6586
61.9013 719 26.8142
62.0185 695 26.3629
62.1357 677 26.0192
62.253 647 25.4362
62.3702 598 24.454
62.4875 637 25.2389
62.6049 598 24.454
62.7222 589 24.2693
62.8396 615 24.7992
62.9569 542 23.2809
63.0743 590 24.2899
63.1918 583 24.1454
63.3092 577 24.0208
63.4267 550 23.4521
63.5441 534 23.1084
63.6616 505 22.4722
63.7791 549 23.4307
63.8966 535 23.1301
64.0142 498 22.3159
64.1317 537 23.1733
64.2492 512 22.6274
64.3668 554 23.5372
64.4843 503 22.4277
64.6019 521 22.8254
64.7195 526 22.9347
64.837 522 22.8473
64.9546 516 22.7156
65.0722 466 21.587
65.1898 484 22
65.3074 467 21.6102
65.4249 465 21.5639
65.5425 462 21.4942
65.6601 438 20.9284
65.7777 485 22.0227
65.8952 499 22.3383
66.0128 498 22.3159
66.1304 476 21.8174
66.2479 482 21.9545
66.3655 514 22.6716
66.483 491 22.1585
66.6005 555 23.5584
66.718 535 23.1301
66.8355 563 23.7276
66.953 566 23.7908
67.0705 505 22.4722
67.1879 537 23.1733
67.3054 485 22.0227
67.4228 500 22.3607
67.5402 502 22.4054
67.6576 554 23.5372
67.7749 513 22.6495
67.8923 493 22.2036
68.0096 532 23.0651
68.1269 532 23.0651
68.2442 489 22.1133
68.3614 503 22.4277
68.4787 473 21.7486
68.5958 471 21.7025
68.713 485 22.0227
68.8302 475 21.7945
68.9473 426 20.6398
69.0643 506 22.4944
69.1814 472 21.7256
69.2984 487 22.0681
69.4154 461 21.4709
69.5323 503 22.4277
69.6492 425 20.6155
69.7661 470 21.6795
69.8829 474 21.7715
69.9997 481 21.9317
70.1165 469 21.6564
70.2332 455 21.3307
70.3499 460 21.4476
70.4665 443 21.0476
70.5831 397 19.9249
70.6996 390 19.7484
70.8161 369 19.2094
70.9326 319 17.8606
71.049 339 18.412
71.1653 298 17.2627
71.2817 264 16.2481
71.3979 245 15.6525
71.5141 243 15.5885
71.6303 227 15.0665
71.7464 177 13.3041
71.8624 0 1
71.9784 0 1
72.0944 0 1
72.2102 0 1
72.3261 0 1
72.4418 0 1
72.5575 0 1
72.6732 0 1
75.1054 0 1
75.2209 0 1
75.3365 0 1
75.4521 0 1
75.5678 0 1
75.6835 0 1
75.7993 0 1
75.9151 0 1
76.031 0 1
76.147 339 18.412
76.263 336 18.3303
76.3791 395 19.8746
76.4952 352 18.7617
76.6113 452 21.2603
76.7276 416 20.3961
76.8438 378 19.4422
76.9601 425 20.6155
77.0765 442 21.0238
77.1929 427 20.664
77.3093 409 20.2237
77.4258 377 19.4165
77.5423 369 19.2094
77.6589 405 20.1246
77.7755 417 20.4206
77.8921 384 19.5959
78.0088 370 19.2354
78.1256 372 19.2873
78.2423 371 19.2614
78.3591 392 19.799
78.4759 384 19.5959
78.5928 379 19.4679
78.7097 400 20
78.8266 366 19.1311
78.9436 384 19.5959
79.0606 405 20.1246
79.1776 448 21.166
79.2946 430 20.7364
79.4117 415 20.3715
79.5288 401 20.025
79.6459 446 21.1187
79.7631 384 19.5959
79.8802 451 21.2368
79.9974 421 20.5183
80.1147 421 20.5183
80.2319 420 20.4939
80.3491 485 22.0227
80.4664 432 20.7846
80.5837 435 20.8567
80.701 444 21.0713
80.8183 457 21.3776
80.9357 440 20.9762
81.053 401 20.025
81.1704 400 20
81.2877 397 19.9249
81.4051 395 19.8746
81.5225 407 20.1742
81.6399 396 19.8997
81.7573 385 19.6214
81.8747 388 19.6977
81.9922 419 20.4695
82.1096 429 20.7123
82.227 440 20.9762
82.3444 419 20.4695
82.4619 355 18.8414
82.5793 372 19.2873
82.6967 432 20.7846
82.8142 470 21.6795
82.9316 452 21.2603
83.049 445 21.095
83.1664 485 22.0227
83.2838 442 21.0238
83.4012 457 21.3776
83.5186 409 20.2237
83.636 459 21.4243
83.7534 445 21.095
83.8708 453 21.2838
83.9881 467 21.6102
84.1055 469 21.6564
84.2228 414 20.347
84.3401 435 20.8567
84.4575 430 20.7364
84.5747 414 20.347
84.692 425 20.6155
84.8093 422 20.5426
84.9265 381 19.5192
85.0437 420 20.4939
85.1609 413 20.3224
85.2781 398 19.9499
85.3952 409 20.2237
85.5123 432 20.7846
85.6294 446 21.1187
85.7465 461 21.4709
85.8636 402 20.0499
85.9806 443 21.0476
86.0976 388 19.6977
86.2145 424 20.5913
86.3315 502 22.4054
86.4484 454 21.3073
86.5652 449 21.1896
86.682 442 21.0238
86.7988 433 20.8087
86.9156 452 21.2603
87.0323 430 20.7364
87.149 451 21.2368
87.2657 470 21.6795
87.3823 440 20.9762
87.4988 391 19.7737
87.6154 401 20.025
87.7318 404 20.0998
87.8483 352 18.7617
87.9647 349 18.6815
88.081 342 18.4932
88.1973 306 17.4929
88.3136 298 17.2627
88.4298 254 15.9374
88.546 250 15.8114
88.6621 225 15
88.7781 200 14.1421
88.8942 0 1
89.0101 0 1
89.126 0 1
89.2419 0 1
89.3577 0 1
89.4734 0 1
89.5891 0 1
89.7047 0 1
89.8203 0 1
89.9358 0 1
92.3269 0 1
92.4424 0 1
92.558 0 1
92.6736 0 1
92.7893 0 1
92.905 0 1
93.0208 0 1
93.1366 0 1
93.2525 0 1
93.3685 0 1
93.4845 0 1
93.6005 339 18.412
93.7167 365 19.105
93.8328 394 19.8494
93.949 381 19.5192
94.0653 370 19.2354
94.1816 380 19.4936
94.2979 396 19.8997
94.4143 358 18.9209
94.5307 383 19.5704
94.6472 388 19.6977
94.7637 418 20.445
94.8803 468 21.6333
94.9969 441 21
95.1135 415 20.3715
95.2302 429 20.7123
95.3469 398 19.9499
95.4637 431 20.7605
95.5805 461 21.4709
95.6973 438 20.9284
95.8142 440 20.9762
95.9311 454 21.3073
96.048 456 21.3542
96.1649 447 21.1424
96.2819 451 21.2368
96.3989 460 21.4476
96.516 498 22.3159
96.633 492 22.1811
96.7501 463 21.5174
96.8673 489 22.1133
96.9844 456 21.3542
97.1016 471 21.7025
97.2188 442 21.0238
97.336 418 20.445
97.4532 453 21.2838
97.5704 452 21.2603
97.6877 378 19.4422
97.805 386 19.6469
97.9223 368 19.1833
98.0396 422 20.5426
98.1569 398 19.9499
98.2743 469 21.6564
98.3916 442 21.0238
98.509 447 21.1424
98.6264 424 20.5913
98.7438 436 20.8806
98.8612 469 21.6564
98.9786 456 21.3542
99.096 451 21.2368
99.2134 449 21.1896
99.3308 458 21.4009
99.4482 488 22.0907
99.5656 478 21.8632
99.6831 489 22.1133
99.8005 455 21.3307
99.9179 450 21.2132
100.035 487 22.0681
100.153 521 22.8254
100.27 461 21.4709
100.388 519 22.7816
100.505 453 21.2838
100.622 488 22.0907
100.74 498 22.3159
100.857 487 22.0681
100.975 438 20.9284
101.092 520 22.8035
101.209 477 21.8403
101.327 491 22.1585
101.444 558 23.622
101.561 596 24.4131
101.679 656 25.6125
101.796 700 26.4575
101.913 761 27.5862
102.03 815 28.5482
102.148 883 29.7153
102.265 868 29.4618
102.382 887 29.7825
102.499 789 28.0891
102.616 787 28.0535
102.733 827 28.7576
102.851 862 29.3598
102.968 908 30.133
103.085 999 31.607
103.202 1190 34.4964
103.319 1345 36.6742
103.436 1543 39.281
103.552 1812 42.5676
103.669 2031 45.0666
103.786 2191 46.8081
103.903 2254 47.4763
104.02 2282 47.7703
104.137 2362 48.6004
104.253 2482 49.8197
104.37 2586 50.8527
104.487 2454 49.5379
104.603 2334 48.3115
104.72 1899 43.5775
104.836 1554 39.4208
104.953 1145 33.8378
105.069 798 28.2489
105.186 712 26.6833
105.302 829 28.7924
105.418 1060 32.5576
105.535 1274 35.6931
105.651 1405 37.4833
105.767 1364 36.9324
105.883 1341 36.6197
105.999 1286 35.8608
106.115 0 1
106.231 0 1
106.347 0 1
106.463 0 1
106.579 0 1
106.694 0 1
106.81 0 1
106.926 0 1
107.041 0 1
107.157 0 1
109.576 0 1
109.692 0 1
109.807 0 1
109.923 0 1
110.039 0 1
110.155 0 1
110.27 0 1
110.386 0 1
110.502 0 1
110.618 4869 69.7782
110.735 6451 80.3181
110.851 7431 86.2032
110.967 8125 90.1388
111.083 8875 94.2072
111.199 9691 98.4429
111.316 10369 101.828
111.432 10720 103.537
111.549 11603 107.717
111.665 12243 110.648
111.782 12276 110.797
111.898 13012 114.07
112.015 13840 117.644
112.132 14536 120.565
112.248 15222 123.377
112.365 15802 125.706
112.482 16173 127.173
112.599 16244 127.452
112.716 17018 130.453
112.832 16981 130.311
112.949 16797 129.603
113.066 16747 129.41
113.183 16317 127.738
113.3 15298 123.685
113.417 13264 115.169
113.534 10636 103.131
113.652 8947 94.5886
113.769 7871 88.7187
113.886 7180 84.7349
114.003 7202 84.8646
114.12 7909 88.9326
114.238 8155 90.305
114.355 6878 82.9337
114.472 5681 75.3724
114.589 4558 67.513
114.707 3698 60.8112
114.824 3366 58.0172
114.942 3233 56.8595
115.059 3022 54.9727
115.176 2690 51.8652
115.294 2235 47.2758
115.411 1975 44.441
115.529 1590 39.8748
115.646 1298 36.0278
115.764 1048 32.3728
115.881 876 29.5973
115.999 684 26.1534
116.116 514 22.6716
116.234 499 22.3383
116.351 483 21.9773
116.469 449 21.1896
116.586 425 20.6155
116.704 416 20.3961
116.821 405 20.1246
116.939 388 19.6977
117.056 406 20.1494
117.174 373 19.3132
117.291 382 19.5448
117.409 344 18.5472
117.526 325 18.0278
117.644 370 19.2354
117.761 369 19.2094
117.879 432 20.7846
117.996 420 20.4939
118.114 383 19.5704
118.231 417 20.4206
118.349 409 20.2237
118.466 438 20.9284
118.584 419 20.4695
118.701 398 19.9499
118.819 393 19.8242
118.936 401 20.025
119.053 422 20.5426
119.171 362 19.0263
119.288 428 20.6882
119.405 444 21.0713
119.523 419 20.4695
119.64 411 20.2731
119.757 434 20.8327
119.875 384 19.5959
119.992 366 19.1311
120.109 383 19.5704
120.226 351 18.735
120.343 378 19.4422
120.46 381 19.5192
120.578 388 19.6977
120.695 376 19.3907
120.812 317 17.8045
120.929 317 17.8045
121.046 323 17.9722
121.163 302 17.3781
121.279 325 18.0278
121.396 331 18.1934
121.513 367 19.1572
121.63 403 20.0749
121.747 349 18.6815
121.863 375 19.3649
121.98 343 18.5203
122.097 334 18.2757
122.213 321 17.9165
122.33 304 17.4356
122.446 296 17.2047
122.563 262 16.1864
122.679 259 16.0935
122.795 226 15.0333
122.912 242 15.5563
123.028 198 14.0712
123.144 254 15.9374
123.26 232 15.2315
123.377 0 1
123.493 0 1
123.609 0 1
123.725 0 1
123.84 0 1
123.956 0 1
124.072 0 1
124.188 0 1
124.303 0 1
124.419 0 1
126.852 0 1
126.968 0 1
127.083 0 1
127.199 0 1
127.315 0 1
127.431 0 1
127.547 0 1
127.663 0 1
127.779 0 1
127.895 0 1
128.011 0 1
128.127 0 1
128.243 0 1
128.359 393 19.8242
128.476 423 20.567
128.592 425 20.6155
128.708 430 20.7364
128.825 404 20.0998
128.941 440 20.9762
129.058 482 21.9545
129.174 469 21.6564
129.291 458 21.4009
129.408 457 21.3776
129.524 454 21.3073
129.641 427 20.664
129.758 440 20.9762
129.875 408 20.199
129.992 441 21
130.108 374 19.3391
130.225 381 19.5192
130.342 353 18.7883
130.459 415 20.3715
130.576 526 22.9347
130.693 512 22.6274
130.81 511 22.6053
130.928 527 22.9565
131.045 532 23.0651
131.162 572 23.9165
131.279 592 24.3311
131.396 652 25.5343
131.513 628 25.0599
131.631 637 25.2389
131.748 656 25.6125
131.865 683 26.1343
131.983 702 26.4953
132.1 826 28.7402
132.217 757 27.5136
132.335 852 29.189
132.452 824 28.7054
132.57 857 29.2746
132.687 887 29.7825
132.804 935 30.5778
132.922 930 30.4959
133.039 972 31.1769
133.157 997 31.5753
133.274 983 31.3528
133.392 963 31.0322
133.509 955 30.9031
133.627 929 30.4795
133.744 925 30.4138
133.862 958 30.9516
133.979 910 30.1662
134.097 949 30.8058
134.214 1026 32.0312
134.332 1066 32.6497
134.449 1035 32.1714
134.567 1018 31.9061
134.684 1039 32.2335
134.802 1069 32.6956
134.919 1038 32.218
135.037 1068 32.6803
135.154 1072 32.7414
135.272 961 31
135.389 935 30.5778
135.507 1031 32.1092
135.624 981 31.3209
135.742 1018 31.9061
135.859 990 31.4643
135.977 1079 32.8481
136.094 1099 33.1512
136.211 1075 32.7872
136.329 1035 32.1714
136.446 1020 31.9374
136.564 1023 31.9844
136.681 1105 33.2415
136.798 1001 31.6386
136.915 1065 32.6343
137.033 965 31.0644
137.15 979 31.289
137.267 978 31.273
137.384 949 30.8058
137.502 885 29.7489
137.619 875 29.5804
137.736 979 31.289
137.853 947 30.7734
137.97 933 30.545
138.087 954 30.8869
138.204 921 30.348
138.321 926 30.4302
138.438 960 30.9839
138.555 986 31.4006
138.672 1049 32.3883
138.788 979 31.289
138.905 949 30.8058
139.022 859 29.3087
139.139 860 29.3258
139.255 922 30.3645
139.372 872 29.5296
139.488 799 28.2666
139.605 780 27.9285
139.721 768 27.7128
139.838 706 26.5707
139.954 676 26
140.071 669 25.865
140.187 564 23.7487
140.303 545 23.3452
140.419 549 23.4307
140.535 546 23.3666
140.652 517 22.7376
140.768 0 1
140.884 0 1
141 0 1
141.115 0 1
141.231 0 1
141.347 0 1
141.463 0 1
141.578 0 1
141.694 0 1
144.104 0 1
144.219 0 1
144.335 0 1
144.45 0 1
144.566 0 1
144.682 0 1
144.798 0 1
144.914 0 1
145.03 0 1
145.146 874 29.5635
145.262 798 28.2489
145.378 937 30.6105
145.494 844 29.0517
145.61 854 29.2233
145.726 887 29.7825
145.842 919 30.315
145.959 919 30.315
146.075 876 29.5973
146.192 935 30.5778
146.308 876 29.5973
146.425 912 30.1993
146.541 855 29.2404
146.658 971 31.1609
146.774 955 30.9031
146.891 1052 32.4345
147.008 962 31.0161
147.125 942 30.692
147.241 978 31.273
147.358 1097 33.121
147.475 1020 31.9374
147.592 1005 31.7017
147.709 939 30.6431
147.826 946 30.7571
147.943 921 30.348
148.06 1025 32.0156
148.177 1012 31.8119
148.294 1115 33.3916
148.411 1056 32.4962
148.528 1126 33.5559
148.645 1070 32.7109
148.762 1069 32.6956
148.88 1144 33.8231
148.997 1128 33.5857
149.114 1132 33.6452
149.231 1161 34.0735
149.349 1130 33.6155
149.466 1180 34.3511
149.583 1274 35.6931
149.701 1177 34.3074
149.818 1193 34.5398
149.935 1206 34.7275
150.053 1226 35.0143
150.17 1316 36.2767
150.287 1396 37.3631
150.405 1505 38.7943
150.522 1572 39.6485
150.64 1753 41.8688
150.757 2051 45.288
150.875 2230 47.2229
150.992 2189 46.7868
151.11 2611 51.0979
151.227 3196 56.5332
151.344 3505 59.203
151.462 3690 60.7454
151.579 3706 60.8769
151.697 3874 62.2415
151.814 4422 66.4981
151.932 4614 67.9264
152.049 4901 70.0071
152.167 5039 70.9859
152.284 5146 71.7356
152.402 5358 73.1984
152.519 5499 74.1552
152.636 5559 74.5587
152.754 5705 75.5315
152.871 5863 76.5702
152.989 5989 77.3886
153.106 6053 77.801
153.223 6002 77.4726
153.341 6270 79.1833
153.458 6563 81.0123
153.575 6419 80.1187
153.693 6678 81.719
153.81 6953 83.3847
153.927 7178 84.7231
154.044 6928 83.2346
154.162 6894 83.0301
154.279 6118 78.2176
154.396 5333 73.0274
154.513 6654 81.5721
154.63 7937 89.0898
154.747 8428 91.8041
154.864 8376 91.5205
154.981 8575 92.6013
155.098 8491 92.1466
155.215 8565 92.5473
155.332 8820 93.9149
155.449 8747 93.5254
155.566 9061 95.1893
155.683 9315 96.5142
155.8 9273 96.2964
155.917 9487 97.4012
156.033 9585 97.903
156.15 0 1
156.267 0 1
156.383 0 1
156.5 0 1
156.617 0 1
156.733 0 1
156.85 0 1
156.966 0 1
157.082 0 1
157.199 0 1
157.315 0 1
157.431 0 1
157.547 0 1
157.664 0 1
157.78 0 1
157.896 0 1
158.012 0 1
158.128 0 1
158.244 0 1
158.359 0 1
158.475 0 1
158.591 0 1
158.706 0 1
