
6.15755 0 1
6.2731 0 1
6.3887 0 1
6.50437 0 1
6.62009 0 1
6.73587 0 1
6.8517 0 1
6.96759 0 1
7.08353 0 1
7.19952 0 1
7.31557 0 1
7.43166 0 1
7.54781 0 1
7.664 0 1
7.78024 0 1
7.89653 0 1
8.01286 0 1
8.12924 0 1
8.24567 0 1
8.36213 0 1
8.47864 0 1
8.59519 0 1
8.71178 0 1
8.82841 0 1
8.94508 0 1
9.06179 0 1
9.17853 0 1
9.29531 0 1
9.41212 0 1
9.52897 0 1
9.64584 0 1
9.76276 0 1
9.8797 0 1
9.99667 0 1
10.1137 0 1
10.2307 0 1
10.3478 0 1
10.4648 0 1
10.5819 0 1
10.6991 0 1
10.8162 0 1
10.9334 0 1
11.0506 0 1
11.1678 0 1
11.285 0 1
11.4023 0 1
11.5196 0 1
11.6369 0 1
11.7542 0 1
11.8715 0 1
11.9888 0 1
12.1062 0 1
12.2235 0 1
12.3409 0 1
12.4582 0 1
12.5756 0 1
12.693 0 1
12.8104 0 1
12.9278 0 1
13.0452 0 1
13.1626 0 1
13.28 0 1
13.3974 0 1
13.5149 0 1
13.6323 0 1
13.7497 0 1
13.8671 0 1
13.9845 0 1
14.1019 0 1
14.2193 0 1
14.3367 0 1
14.4541 0 1
14.5714 0 1
14.6888 0 1
14.8062 0 1
14.9235 0 1
15.0408 9577 97.8621
15.1581 9900 99.4987
15.2755 9929 99.6444
15.3927 9872 99.3579
15.51 9785 98.9192
15.6273 9719 98.585
15.7445 9296 96.4158
15.8617 9273 96.2964
15.9789 9942 99.7096
16.0961 10061 100.305
16.2132 10447 102.211
16.3304 10873 104.274
16.4475 11036 105.052
16.5646 11269 106.156
16.6816 11193 105.797
16.7986 11115 105.428
16.9156 11061 105.171
17.0326 11116 105.432
17.1496 10887 104.341
17.2665 11107 105.39
17.3833 10552 102.723
17.5002 10797 103.909
17.617 11111 105.409
17.7338 11376 106.658
17.8505 11431 106.916
17.9672 11721 108.264
18.0839 11931 109.229
18.2005 11969 109.403
18.3171 12513 111.862
18.4337 12547 112.013
18.5502 12955 113.82
18.6666 13045 114.215
18.7831 12913 113.635
18.8994 12892 113.543
19.0158 12760 112.96
19.1321 12350 111.131
19.2483 11989 109.494
19.3645 11624 107.815
19.4806 11677 108.06
19.5967 11992 109.508
19.7128 12549 112.022
19.8288 12789 113.088
19.9447 11749 108.393
20.0606 0 1
20.1764 0 1
20.2922 0 1
20.4079 0 1
20.5236 0 1
20.6392 0 1
20.7548 0 1
20.8702 0 1
23.3078 0 1
23.4233 0 1
23.539 0 1
23.6547 0 1
23.7704 0 1
23.8862 0 1
24.0021 0 1
24.118 0 1
24.234 0 1
24.35 0 1
24.4661 12194 110.426
24.5822 12238 110.625
24.6984 12335 111.063
24.8146 12771 113.009
24.9309 13111 114.503
25.0472 13498 116.181
25.1636 13878 117.805
25.28 14010 118.364
25.3965 13793 117.444
25.513 13580 116.533
25.6296 13619 116.7
25.7462 13647 116.82
25.8628 13157 114.704
25.9795 13469 116.056
26.0962 13602 116.628
26.213 13533 116.331
26.3298 13874 117.788
26.4466 14054 118.55
26.5635 14572 120.715
26.6804 14652 121.045
26.7973 15144 123.061
26.9143 15278 123.604
27.0313 15612 124.948
27.1483 15744 125.475
27.2653 16263 127.526
27.3824 15869 125.972
27.4996 15937 126.242
27.6167 15334 123.831
27.7339 14657 121.066
27.8511 14104 118.76
27.9683 14074 118.634
28.0855 13512 116.241
28.2028 13193 114.861
28.3201 13320 115.412
28.4374 13645 116.812
28.5547 14264 119.432
28.6721 14620 120.913
28.7894 14951 122.274
28.9068 14985 122.413
29.0242 14547 120.611
29.1416 14002 118.33
29.259 13766 117.329
29.3764 13462 116.026
29.4939 13011 114.066
29.6113 13147 114.66
29.7288 13302 115.334
29.8463 13813 117.529
29.9638 13968 118.186
30.0812 14253 119.386
30.1987 14739 121.404
30.3162 14936 122.213
30.4337 15613 124.952
30.5512 15883 126.028
30.6687 16068 126.76
30.7862 16230 127.397
30.9037 15914 126.151
31.0212 16167 127.15
31.1387 15733 125.431
31.2562 15491 124.463
31.3737 15163 123.138
31.4912 14625 120.934
31.6087 14240 119.331
31.7262 13975 118.216
31.8436 13708 117.081
31.9611 14466 120.275
32.0785 14629 120.95
32.1959 15019 122.552
32.3134 15488 124.451
32.4308 15412 124.145
32.5482 15421 124.181
32.6655 15111 122.927
32.7829 14448 120.2
32.9002 14119 118.823
33.0176 13976 118.22
33.1349 13693 117.017
33.2522 13714 117.107
33.3694 13741 117.222
33.4867 14138 118.903
33.6039 14620 120.913
33.7211 14997 122.462
33.8383 15338 123.847
33.9554 16030 126.61
34.0725 15983 126.424
34.1896 16264 127.53
34.3067 16384 128
34.4237 16515 128.511
34.5407 16654 129.05
34.6577 16627 128.946
34.7746 16490 128.413
34.8915 16063 126.74
35.0084 15785 125.638
35.1252 15348 123.887
35.242 14961 122.315
35.3587 14493 120.387
35.4755 14174 119.055
35.5921 14403 120.012
35.7088 15152 123.093
35.8254 15388 124.048
35.9419 15819 125.774
36.0584 15722 125.387
36.1749 15957 126.321
36.2913 15560 124.74
36.4077 15472 124.386
36.524 14514 120.474
36.6403 13990 118.279
36.7565 13965 118.174
36.8727 13728 117.167
36.9889 13913 117.953
37.1049 13917 117.97
37.221 0 1
37.3369 0 1
37.4529 0 1
37.5687 0 1
37.6845 0 1
37.8003 0 1
37.916 0 1
38.0316 0 1
38.1472 0 1
40.5851 0 1
40.7008 0 1
40.8164 0 1
40.9322 0 1
41.048 0 1
41.1639 0 1
41.2798 0 1
41.3958 0 1
41.5118 0 1
41.6279 0 1
41.744 11738 108.342
41.8602 12037 109.713
41.9765 12008 109.581
42.0928 11889 109.037
42.2091 12548 112.018
42.3255 12654 112.49
42.4419 13258 115.143
42.5584 13938 118.059
42.675 14265 119.436
42.7915 14596 120.814
42.9081 14980 122.393
43.0248 15112 122.931
43.1415 15239 123.446
43.2582 15368 123.968
43.375 15322 123.782
43.4918 15140 123.045
43.6087 15082 122.809
43.7256 14743 121.421
43.8425 14283 119.512
43.9595 13808 117.507
44.0765 13380 115.672
44.1935 13186 114.83
44.3106 12530 111.937
44.4277 12765 112.982
44.5448 12932 113.719
44.6619 13163 114.73
44.7791 13297 115.313
44.8963 13001 114.022
45.0136 13170 114.761
45.1308 12446 111.562
45.2481 11837 108.798
45.3654 11180 105.736
45.4827 10553 102.728
45.6001 10775 103.803
45.7174 10376 101.863
45.8348 10797 103.909
45.9522 11135 105.523
46.0697 11439 106.953
46.1871 12018 109.627
46.3046 12317 110.982
46.422 12787 113.08
46.5395 12820 113.225
46.657 13100 114.455
46.7745 13096 114.438
46.892 13137 114.617
47.0096 13034 114.167
47.1271 12699 112.69
47.2446 12807 113.168
47.3622 12309 110.946
47.4797 11896 109.069
47.5973 11647 107.921
47.7149 11090 105.309
47.8324 10978 104.776
47.95 10939 104.59
48.0675 10701 103.446
48.1851 11042 105.081
48.3027 11117 105.437
48.4202 11323 106.41
48.5378 10806 103.952
48.6554 10619 103.049
48.7729 10014 100.07
48.8904 9518 97.5602
49.008 9019 94.9684
49.1255 8844 94.0425
49.243 8826 93.9468
49.3605 9040 95.0789
49.478 9538 97.6627
49.5955 10037 100.185
49.713 10287 101.425
49.8304 10973 104.752
49.9479 11429 106.907
50.0653 11723 108.273
50.1827 12159 110.268
50.3001 12388 111.301
50.4175 12445 111.557
50.5348 12516 111.875
50.6521 12602 112.259
50.7694 12487 111.745
50.8867 12323 111.009
51.004 12340 111.086
51.1212 12386 111.292
51.2384 12234 110.607
51.3556 11924 109.197
51.4727 12125 110.114
51.5899 12584 112.178
51.707 12901 113.583
51.824 13730 117.175
51.9411 14214 119.222
52.0581 14290 119.541
52.175 13685 116.983
52.2919 13398 115.75
52.4088 12560 112.071
52.5257 12367 111.207
52.6425 12066 109.845
52.7593 11989 109.494
52.876 12225 110.567
52.9927 13152 114.682
53.1094 13818 117.55
53.226 14927 122.176
53.3426 15937 126.242
53.4591 16915 130.058
53.5756 17479 132.208
53.692 17812 133.462
53.8084 18141 134.689
53.9248 18415 135.702
54.0411 18850 137.295
54.1573 18980 137.768
54.2735 0 1
54.3896 0 1
54.5057 0 1
54.6217 0 1
54.7377 0 1
54.8537 0 1
54.9695 0 1
55.0853 0 1
55.2011 0 1
55.3168 0 1
55.4324 0 1
57.824 0 1
57.9396 0 1
58.0553 0 1
58.1711 0 1
58.2869 0 1
58.4028 0 1
58.5187 0 1
58.6347 0 1
58.7508 0 1
58.8669 0 1
58.983 21169 145.496
59.0992 22258 149.191
59.2155 22274 149.245
59.3318 23001 151.661
59.4482 22555 150.183
59.5646 22078 148.587
59.681 22022 148.398
59.7975 21726 147.397
59.9141 21349 146.113
60.0306 21121 145.331
60.1473 20748 144.042
60.2639 21020 144.983
60.3807 20802 144.229
60.4974 20999 144.91
60.6142 21153 145.441
60.731 20088 141.732
60.8479 19177 138.481
60.9648 18272 135.174
61.0818 17516 132.348
61.1987 16902 130.008
61.3158 16365 127.926
61.4328 16418 128.133
61.5499 17015 130.442
61.667 17569 132.548
61.7841 18748 136.923
61.9013 19440 139.427
62.0185 20570 143.422
62.1357 21262 145.815
62.253 21311 145.983
62.3702 21844 147.797
62.4875 22431 149.77
62.6049 22201 149
62.7222 22301 149.335
62.8396 22196 148.983
62.9569 22155 148.846
63.0743 21494 146.608
63.1918 21217 145.661
63.3092 20847 144.385
63.4267 20367 142.713
63.5441 20392 142.801
63.6616 19616 140.057
63.7791 19985 141.368
63.8966 20254 142.317
64.0142 20156 141.972
64.1317 20658 143.729
64.2492 19728 140.456
64.3668 18745 136.912
64.4843 17828 133.522
64.6019 16511 128.495
64.7195 16036 126.633
64.837 15292 123.661
64.9546 15359 123.931
65.0722 15889 126.052
65.1898 16428 128.172
65.3074 17844 133.581
65.4249 18525 136.107
65.5425 19709 140.389
65.6601 20680 143.805
65.7777 21315 145.997
65.8952 21504 146.642
66.0128 21647 147.129
66.1304 21835 147.767
66.2479 22483 149.943
66.3655 22434 149.78
66.483 22304 149.345
66.6005 22228 149.091
66.718 22023 148.401
66.8355 21583 146.912
66.953 21475 146.544
67.0705 20991 144.883
67.1879 20885 144.516
67.3054 20756 144.069
67.4228 20923 144.648
67.5402 21338 146.075
67.6576 21267 145.832
67.7749 21444 146.438
67.8923 21231 145.709
68.0096 20218 142.19
68.1269 18992 137.811
68.2442 17616 132.725
68.3614 17046 130.56
68.4787 16944 130.169
68.5958 16336 127.812
68.713 17239 131.297
68.8302 18303 135.289
68.9473 19462 139.506
69.0643 20771 144.121
69.1814 22073 148.57
69.2984 23252 152.486
69.4154 24487 156.483
69.5323 25339 159.182
69.6492 25805 160.639
69.7661 26141 161.682
69.8829 26629 163.184
69.9997 27078 164.554
70.1165 26745 163.539
70.2332 26489 162.754
70.3499 26897 164.003
70.4665 26350 162.327
70.5831 26318 162.228
70.6996 25978 161.177
70.8161 25689 160.278
70.9326 25464 159.574
71.049 25395 159.358
71.1653 25613 160.041
71.2817 25738 160.431
71.3979 25498 159.681
71.5141 24930 157.892
71.6303 22765 150.881
71.7464 19445 139.445
71.8624 0 1
71.9784 0 1
72.0944 0 1
72.2102 0 1
72.3261 0 1
72.4418 0 1
72.5575 0 1
72.6732 0 1
75.1054 0 1
75.2209 0 1
75.3365 0 1
75.4521 0 1
75.5678 0 1
75.6835 0 1
75.7993 0 1
75.9151 0 1
76.031 0 1
76.147 25029 158.206
76.263 27303 165.236
76.3791 27670 166.343
76.4952 28792 169.682
76.6113 29661 172.224
76.7276 30042 173.326
76.8438 29156 170.751
76.9601 27374 165.451
77.0765 25901 160.938
77.1929 23372 152.879
77.3093 21465 146.509
77.4258 20421 142.902
77.5423 19733 140.474
77.6589 20515 143.231
77.7755 21771 147.55
77.8921 23807 154.295
78.0088 25912 160.972
78.1256 28235 168.033
78.2423 29640 172.163
78.3591 31314 176.958
78.4759 32233 179.536
78.5928 32649 180.69
78.7097 32467 180.186
78.8266 31898 178.6
78.9436 34168 184.846
79.0606 32820 181.163
79.1776 32364 179.9
79.2946 32081 179.112
79.4117 31978 178.824
79.5288 31095 176.338
79.6459 30315 174.112
79.7631 30288 174.034
79.8802 29877 172.85
79.9974 29697 172.328
80.1147 29932 173.009
80.2319 30934 175.881
80.3491 31429 177.282
80.4664 30947 175.918
80.5837 29768 172.534
80.701 27832 166.829
80.8183 25214 158.789
80.9357 22915 151.377
81.053 21148 145.424
81.1704 20153 141.961
81.2877 19972 141.322
81.4051 21030 145.017
81.5225 22339 149.462
81.6399 25296 159.047
81.7573 27442 165.656
81.8747 28599 169.112
81.9922 30574 174.854
82.1096 31710 178.073
82.227 31697 178.037
82.3444 32116 179.209
82.4619 32272 179.644
82.5793 33068 181.846
82.6967 31766 178.23
82.8142 31607 177.784
82.9316 31008 176.091
83.049 31003 176.077
83.1664 30171 173.698
83.2838 30065 173.393
83.4012 29245 171.012
83.5186 28520 168.879
83.636 28597 169.106
83.7534 29062 170.476
83.8708 29641 172.166
83.9881 29920 172.974
84.1055 29601 172.049
84.2228 28772 169.623
84.3401 26285 162.126
84.4575 24406 156.224
84.5747 22336 149.452
84.692 20730 143.979
84.8093 19448 139.456
84.9265 19752 140.542
85.0437 21105 145.276
85.1609 23598 153.616
85.2781 26125 161.632
85.3952 27995 167.317
85.5123 30524 174.711
85.6294 32588 180.521
85.7465 34351 185.34
85.8636 35172 187.542
85.9806 35760 189.103
86.0976 36196 190.252
86.2145 36758 191.724
86.3315 38174 195.382
86.4484 35972 189.663
86.5652 37116 192.655
86.682 37890 194.654
86.7988 37806 194.438
86.9156 37525 193.714
87.0323 37133 192.699
87.149 37022 192.411
87.2657 37159 192.767
87.3823 37992 194.915
87.4988 38592 196.448
87.6154 39771 199.427
87.7318 39019 197.532
87.8483 36898 192.089
87.9647 34641 186.121
88.081 31426 177.274
88.1973 28966 170.194
88.3136 26953 164.174
88.4298 26465 162.681
88.546 27085 164.575
88.6621 29080 170.529
88.7781 32319 179.775
88.8942 0 1
89.0101 0 1
89.126 0 1
89.2419 0 1
89.3577 0 1
89.4734 0 1
89.5891 0 1
89.7047 0 1
89.8203 0 1
89.9358 0 1
92.3269 0 1
92.4424 0 1
92.558 0 1
92.6736 0 1
92.7893 0 1
92.905 0 1
93.0208 0 1
93.1366 0 1
93.2525 0 1
93.3685 0 1
93.4845 0 1
93.6005 30144 173.62
93.7167 29313 171.21
93.8328 29274 171.096
93.949 30565 174.828
94.0653 32370 179.917
94.1816 35866 189.383
94.2979 38838 197.074
94.4143 41872 204.626
94.5307 44349 210.592
94.6472 46626 215.931
94.7637 47991 219.068
94.8803 48449 220.111
94.9969 48980 221.314
95.1135 49463 222.403
95.2302 49104 221.594
95.3469 49330 222.104
95.4637 49594 222.697
95.5805 49317 222.074
95.6973 49427 222.322
95.8142 48883 221.095
95.9311 48313 219.802
96.048 48020 219.135
96.1649 47737 218.488
96.2819 46831 216.405
96.3989 47041 216.889
96.516 47825 218.689
96.633 48371 219.934
96.7501 48577 220.402
96.8673 46592 215.852
96.9844 44120 210.048
97.1016 40802 201.995
97.2188 37290 193.106
97.336 34828 186.623
97.4532 31843 178.446
97.5704 30516 174.688
97.6877 31436 177.302
97.805 33358 182.642
97.9223 36437 190.885
98.0396 39859 199.647
98.1569 43185 207.81
98.2743 45525 213.366
98.3916 47992 219.071
98.509 49984 223.571
98.6264 51020 225.876
98.7438 51388 226.689
98.8612 51629 227.22
98.9786 51477 226.885
99.096 51271 226.431
99.2134 50271 224.212
99.3308 51020 225.876
99.4482 50982 225.792
99.5656 50606 224.958
99.6831 50751 225.28
99.8005 49183 221.772
99.9179 48917 221.172
100.035 48819 220.95
100.153 49994 223.593
100.27 50702 225.171
100.388 50976 225.779
100.505 48570 220.386
100.622 45380 213.026
100.74 41786 204.416
100.857 38444 196.071
100.975 34867 186.727
101.092 32560 180.444
101.209 32198 179.438
101.327 33067 181.843
101.444 35977 189.676
101.561 39866 199.665
101.679 43604 208.816
101.796 47443 217.814
101.913 49384 222.225
102.03 51579 227.11
102.148 52398 228.906
102.265 51677 227.326
102.382 54887 234.28
102.499 53674 231.676
102.616 53443 231.177
102.733 52659 229.475
102.851 53064 230.356
102.968 53094 230.421
103.085 52987 230.189
103.202 52404 228.919
103.319 51641 227.247
103.436 51081 226.011
103.552 50949 225.719
103.669 51822 227.644
103.786 53412 231.11
103.903 53309 230.887
104.02 52222 228.521
104.137 48862 221.048
104.253 45816 214.047
104.37 41668 204.127
104.487 38194 195.433
104.603 35768 189.124
104.72 34743 186.395
104.836 35797 189.201
104.953 38095 195.179
105.069 42019 204.985
105.186 46020 214.523
105.302 50023 223.658
105.418 53219 230.692
105.535 55134 234.806
105.651 55959 236.557
105.767 56867 238.468
105.883 57283 239.339
105.999 57341 239.46
106.115 0 1
106.231 0 1
106.347 0 1
106.463 0 1
106.579 0 1
106.694 0 1
106.81 0 1
106.926 0 1
107.041 0 1
107.157 0 1
109.576 0 1
109.692 0 1
109.807 0 1
109.923 0 1
110.039 0 1
110.155 0 1
110.27 0 1
110.386 0 1
110.502 0 1
110.618 50215 224.087
110.735 51938 227.899
110.851 52716 229.6
110.967 52976 230.165
111.083 53035 230.293
111.199 52309 228.712
111.316 52371 228.847
111.432 53319 230.909
111.549 52857 229.907
111.665 51564 227.077
111.782 50459 224.631
111.898 49458 222.392
112.015 49703 222.942
112.132 50416 224.535
112.248 51181 226.232
112.365 51105 226.064
112.482 48231 219.616
112.599 47730 218.472
112.716 43366 208.245
112.832 40203 200.507
112.949 36793 191.815
113.066 34210 184.959
113.183 33004 181.67
113.3 33251 182.349
113.417 34017 184.437
113.534 36791 191.81
113.652 39985 199.962
113.769 42865 207.039
113.886 46356 215.304
114.003 47629 218.241
114.12 48711 220.706
114.238 49364 222.18
114.355 49080 221.54
114.472 49490 222.463
114.589 49997 223.6
114.707 48340 219.864
114.824 48133 219.392
114.942 48392 219.982
115.059 49563 222.627
115.176 48539 220.316
115.294 48310 219.795
115.411 46980 216.749
115.529 46600 215.87
115.646 47333 217.561
115.764 47995 219.078
115.881 48810 220.93
115.999 48449 220.111
116.116 46736 216.185
116.234 43712 209.074
116.351 41518 203.76
116.469 38632 196.55
116.586 35326 187.952
116.704 33607 183.322
116.821 32854 181.257
116.939 32604 180.566
117.056 34070 184.581
117.174 36777 191.773
117.291 39719 199.296
117.409 42593 206.381
117.526 44971 212.064
117.644 46472 215.574
117.761 47280 217.44
117.879 48259 219.679
117.996 47774 218.573
118.114 48078 219.267
118.231 48187 219.515
118.349 47323 217.539
118.466 46610 215.893
118.584 47533 218.021
118.701 47434 217.793
118.819 47464 217.862
118.936 47022 216.846
119.053 45084 212.33
119.171 44939 211.988
119.288 44879 211.847
119.405 46270 215.105
119.523 46512 215.666
119.64 46260 215.081
119.757 44739 211.516
119.875 42828 206.949
119.992 41048 202.603
120.109 38788 196.947
120.226 35827 189.28
120.343 33542 183.145
120.46 32582 180.505
120.578 32426 180.072
120.695 32570 180.472
120.812 33832 183.935
120.929 36730 191.651
121.046 39126 197.803
121.163 41314 203.258
121.279 42998 207.36
121.396 44564 211.102
121.513 45160 212.509
121.63 45943 214.343
121.747 45620 213.588
121.863 45911 214.269
121.98 45153 212.492
122.097 44861 211.804
122.213 44579 211.137
122.33 44317 210.516
122.446 44720 211.471
122.563 44258 210.376
122.679 43659 208.947
122.795 42723 206.695
122.912 42131 205.258
123.028 42798 206.877
123.144 43081 207.56
123.26 42946 207.234
123.377 0 1
123.493 0 1
123.609 0 1
123.725 0 1
123.84 0 1
123.956 0 1
124.072 0 1
124.188 0 1
124.303 0 1
124.419 0 1
126.852 0 1
126.968 0 1
127.083 0 1
127.199 0 1
127.315 0 1
127.431 0 1
127.547 0 1
127.663 0 1
127.779 0 1
127.895 0 1
128.011 0 1
128.127 0 1
128.243 0 1
128.359 46125 214.767
128.476 46219 214.986
128.592 45869 214.17
128.708 44892 211.877
128.825 43047 207.478
128.941 40477 201.189
129.058 38881 197.183
129.174 36532 191.133
129.291 35540 188.521
129.408 35131 187.433
129.524 35123 187.411
129.641 36142 190.11
129.758 37946 194.797
129.875 40060 200.15
129.992 41934 204.778
130.108 43443 208.43
130.225 44595 211.175
130.342 45423 213.127
130.459 44735 211.507
130.576 46983 216.756
130.693 45185 212.568
130.81 44115 210.036
130.928 44007 209.778
131.045 44551 211.071
131.162 45258 212.739
131.279 45769 213.937
131.396 45720 213.822
131.513 44646 211.296
131.631 44503 210.957
131.748 44786 211.627
131.865 45443 213.174
131.983 45348 212.951
132.1 45726 213.836
132.217 44269 210.402
132.335 42552 206.281
132.452 40846 202.104
132.57 38833 197.061
132.687 36343 190.638
132.804 35759 189.101
132.922 34285 185.162
133.039 34329 185.281
133.157 34668 186.193
133.274 35897 189.465
133.392 37853 194.558
133.509 39746 199.364
133.627 41551 203.841
133.744 42474 206.092
133.862 42955 207.256
133.979 43408 208.346
134.097 43276 208.029
134.214 42938 207.215
134.332 43326 208.149
134.449 42335 205.755
134.567 41738 204.299
134.684 43024 207.422
134.802 43641 208.904
134.919 43864 209.437
135.037 43792 209.265
135.154 42211 205.453
135.272 42947 207.237
135.389 42863 207.034
135.507 43663 208.957
135.624 43410 208.351
135.742 43265 208.002
135.859 42407 205.93
135.977 40630 201.569
136.094 39125 197.8
136.211 37201 192.876
136.329 35676 188.881
136.446 34496 185.731
136.564 33639 183.409
136.681 33598 183.298
136.798 34459 185.631
136.915 34723 186.341
137.033 36623 191.371
137.15 38228 195.52
137.267 39072 197.666
137.384 39853 199.632
137.502 40707 201.76
137.619 41011 202.512
137.736 41287 203.192
137.853 40466 201.162
137.97 40435 201.085
138.087 39207 198.008
138.204 39786 199.464
138.321 40715 201.78
138.438 41241 203.079
138.555 41427 203.536
138.672 41801 204.453
138.788 41145 202.842
138.905 41251 203.103
139.022 41788 204.421
139.139 42186 205.392
139.255 42294 205.655
139.372 41576 203.902
139.488 40744 201.851
139.605 40009 200.022
139.721 38830 197.053
139.838 37331 193.212
139.954 35571 188.603
140.071 33905 184.133
140.187 34006 184.407
140.303 33304 182.494
140.419 33140 182.044
140.535 33583 183.257
140.652 33903 184.128
140.768 0 1
140.884 0 1
141 0 1
141.115 0 1
141.231 0 1
141.347 0 1
141.463 0 1
141.578 0 1
141.694 0 1
144.104 0 1
144.219 0 1
144.335 0 1
144.45 0 1
144.566 0 1
144.682 0 1
144.798 0 1
144.914 0 1
145.03 0 1
145.146 23428 153.062
145.262 25373 159.289
145.378 25931 161.031
145.494 26233 161.966
145.61 27293 165.206
145.726 27990 167.302
145.842 28415 168.567
145.959 29422 171.528
146.075 29910 172.945
146.192 30384 174.31
146.308 30804 175.511
146.425 30887 175.747
146.541 30661 175.103
146.658 30293 174.049
146.774 29447 171.601
146.891 29538 171.866
147.008 29891 172.89
147.125 29959 173.087
147.241 31043 176.19
147.358 31358 177.082
147.475 31292 176.895
147.592 31287 176.881
147.709 31235 176.734
147.826 31670 177.961
147.943 31642 177.882
148.06 31962 178.779
148.177 31823 178.39
148.294 31256 176.794
148.411 30575 174.857
148.528 30098 173.488
148.645 29037 170.402
148.762 28512 168.855
148.88 27740 166.553
148.997 27067 164.521
149.114 28107 167.651
149.231 27202 164.93
149.349 27384 165.481
149.466 28664 169.304
149.583 29074 170.511
149.701 29806 172.644
149.818 30406 174.373
149.935 30439 174.468
150.053 30906 175.801
150.17 31097 176.343
150.287 30982 176.017
150.405 30679 175.154
150.522 29885 172.873
150.64 29595 172.032
150.757 30275 173.997
150.875 30689 175.183
150.992 31434 177.296
151.11 31962 178.779
151.227 31717 178.093
151.344 31571 177.682
151.462 31702 178.051
151.579 32254 179.594
151.697 31927 178.681
151.814 31838 178.432
151.932 31348 177.054
152.049 31260 176.805
152.167 30606 174.946
152.284 30130 173.58
152.402 29510 171.785
152.519 28550 168.967
152.636 28632 169.21
152.754 28112 167.666
152.871 28130 167.72
152.989 28470 168.731
153.106 28406 168.541
153.223 29399 171.461
153.341 30293 174.049
153.458 30799 175.496
153.575 31230 176.72
153.693 31338 177.025
153.81 31630 177.848
153.927 30849 175.639
154.044 30524 174.711
154.162 29940 173.032
154.279 30236 173.885
154.396 30592 174.906
154.513 31739 178.154
154.63 32202 179.449
154.747 33097 181.926
154.864 32801 181.11
154.981 33673 183.502
155.098 33115 181.975
155.215 33489 183
155.332 33288 182.45
155.449 32940 181.494
155.566 32536 180.377
155.683 32242 179.561
155.8 31679 177.986
155.917 30970 175.983
156.033 30508 174.665
156.15 0 1
156.267 0 1
156.383 0 1
156.5 0 1
156.617 0 1
156.733 0 1
156.85 0 1
156.966 0 1
157.082 0 1
157.199 0 1
157.315 0 1
157.431 0 1
157.547 0 1
157.664 0 1
157.78 0 1
157.896 0 1
158.012 0 1
158.128 0 1
158.244 0 1
158.359 0 1
158.475 0 1
158.591 0 1
158.706 0 1
