
6.15755 0 1
6.2731 0 1
6.3887 0 1
6.50437 0 1
6.62009 0 1
6.73587 0 1
6.8517 0 1
6.96759 0 1
7.08353 0 1
7.19952 0 1
7.31557 0 1
7.43166 0 1
7.54781 0 1
7.664 0 1
7.78024 0 1
7.89653 0 1
8.01286 0 1
8.12924 0 1
8.24567 0 1
8.36213 0 1
8.47864 0 1
8.59519 0 1
8.71178 0 1
8.82841 0 1
8.94508 0 1
9.06179 0 1
9.17853 0 1
9.29531 0 1
9.41212 0 1
9.52897 0 1
9.64584 0 1
9.76276 0 1
9.8797 0 1
9.99667 0 1
10.1137 0 1
10.2307 0 1
10.3478 0 1
10.4648 0 1
10.5819 0 1
10.6991 0 1
10.8162 0 1
10.9334 0 1
11.0506 0 1
11.1678 0 1
11.285 0 1
11.4023 0 1
11.5196 0 1
11.6369 0 1
11.7542 0 1
11.8715 0 1
11.9888 0 1
12.1062 0 1
12.2235 0 1
12.3409 0 1
12.4582 0 1
12.5756 0 1
12.693 0 1
12.8104 0 1
12.9278 0 1
13.0452 0 1
13.1626 0 1
13.28 0 1
13.3974 0 1
13.5149 0 1
13.6323 0 1
13.7497 0 1
13.8671 0 1
13.9845 0 1
14.1019 0 1
14.2193 0 1
14.3367 0 1
14.4541 0 1
14.5714 0 1
14.6888 0 1
14.8062 0 1
14.9235 0 1
15.0408 0 0
15.1581 0 0
15.2755 0 0
15.3927 0 0
15.51 0 0
15.6273 0 0
15.7445 0 0
15.8617 0 0
15.9789 0 0
16.0961 0 0
16.2132 0 0
16.3304 0 0
16.4475 0 0
16.5646 0 0
16.6816 0 0
16.7986 0 0
16.9156 0 0
17.0326 0 0
17.1496 0 0
17.2665 0 0
17.3833 0 0
17.5002 0 0
17.617 0 0
17.7338 0 0
17.8505 0 0
17.9672 0 0
18.0839 0 0
18.2005 0 0
18.3171 0 0
18.4337 0 0
18.5502 0 0
18.6666 0 0
18.7831 0 0
18.8994 0 0
19.0158 0 0
19.1321 0 0
19.2483 0 0
19.3645 0 0
19.4806 0 0
19.5967 0 0
19.7128 0 0
19.8288 0 0
19.9447 0 0
20.0606 0 1
20.1764 0 1
20.2922 0 1
20.4079 0 1
20.5236 0 1
20.6392 0 1
20.7548 0 1
20.8702 0 1
23.3078 0 1
23.4233 0 1
23.539 0 1
23.6547 0 1
23.7704 0 1
23.8862 0 1
24.0021 0 1
24.118 0 1
24.234 0 1
24.35 0 1
24.4661 1841 42.9069
24.5822 1742 41.7373
24.6984 1743 41.7493
24.8146 1719 41.4608
24.9309 1639 40.4846
25.0472 1641 40.5093
25.1636 1655 40.6817
25.28 1750 41.833
25.3965 1714 41.4005
25.513 1777 42.1545
25.6296 1909 43.6921
25.7462 2019 44.9333
25.8628 2096 45.7821
25.9795 2197 46.8722
26.0962 2155 46.422
26.213 2175 46.6369
26.3298 2044 45.2106
26.4466 2063 45.4203
26.5635 2081 45.618
26.6804 2036 45.1221
26.7973 2127 46.1194
26.9143 2088 45.6946
27.0313 2052 45.299
27.1483 2079 45.5961
27.2653 2057 45.3542
27.3824 2159 46.465
27.4996 2118 46.0217
27.6167 2107 45.9021
27.7339 2083 45.6399
27.8511 2037 45.1331
27.9683 1883 43.3935
28.0855 1850 43.0116
28.2028 1877 43.3244
28.3201 1793 42.3438
28.4374 1724 41.5211
28.5547 1685 41.0488
28.6721 1638 40.4722
28.7894 1686 41.0609
28.9068 1799 42.4146
29.0242 1827 42.7434
29.1416 1884 43.4051
29.259 1909 43.6921
29.3764 1939 44.0341
29.4939 2087 45.6837
29.6113 2103 45.8585
29.7288 2070 45.4973
29.8463 2149 46.3573
29.9638 2086 45.6727
30.0812 2118 46.0217
30.1987 2024 44.9889
30.3162 2068 45.4753
30.4337 2016 44.8999
30.5512 2055 45.3321
30.6687 2107 45.9021
30.7862 2106 45.8912
30.9037 2144 46.3033
31.0212 2124 46.0869
31.1387 2138 46.2385
31.2562 2198 46.8828
31.3737 2128 46.1303
31.4912 2010 44.833
31.6087 2013 44.8665
31.7262 1999 44.7102
31.8436 1910 43.7035
31.9611 1794 42.3556
32.0785 1742 41.7373
32.1959 1821 42.6732
32.3134 1673 40.9023
32.4308 1796 42.3792
32.5482 1874 43.2897
32.6655 1855 43.0697
32.7829 2018 44.9222
32.9002 2051 45.288
33.0176 2028 45.0333
33.1349 2128 46.1303
33.2522 2099 45.8148
33.3694 2167 46.551
33.4867 2239 47.3181
33.6039 2251 47.4447
33.7211 2172 46.6047
33.8383 2133 46.1844
33.9554 2088 45.6946
34.0725 2012 44.8553
34.1896 2004 44.7661
34.3067 2063 45.4203
34.4237 2039 45.1553
34.5407 2197 46.8722
34.6577 2185 46.744
34.7746 2157 46.4435
34.8915 2136 46.2169
35.0084 2119 46.0326
35.1252 2069 45.4863
35.242 1981 44.5084
35.3587 1864 43.1741
35.4755 1953 44.1928
35.5921 1871 43.2551
35.7088 1763 41.9881
35.8254 1902 43.6119
35.9419 1669 40.8534
36.0584 1728 41.5692
36.1749 1756 41.9047
36.2913 1803 42.4617
36.4077 1915 43.7607
36.524 1913 43.7379
36.6403 2077 45.5741
36.7565 2074 45.5412
36.8727 2098 45.8039
36.9889 2090 45.7165
37.1049 2154 46.4112
37.221 0 1
37.3369 0 1
37.4529 0 1
37.5687 0 1
37.6845 0 1
37.8003 0 1
37.916 0 1
38.0316 0 1
38.1472 0 1
40.5851 0 1
40.7008 0 1
40.8164 0 1
40.9322 0 1
41.048 0 1
41.1639 0 1
41.2798 0 1
41.3958 0 1
41.5118 0 1
41.6279 0 1
41.744 1742 41.7373
41.8602 1928 43.909
41.9765 1957 44.238
42.0928 1965 44.3283
42.2091 2048 45.2548
42.3255 1987 44.5758
42.4419 2048 45.2548
42.5584 2008 44.8107
42.675 1963 44.3058
42.7915 1965 44.3283
42.9081 1860 43.1277
43.0248 1862 43.1509
43.1415 1887 43.4396
43.2582 1987 44.5758
43.375 1913 43.7379
43.4918 1938 44.0227
43.6087 1931 43.9431
43.7256 1960 44.2719
43.8425 1918 43.795
43.9595 1903 43.6234
44.0765 1812 42.5676
44.1935 1818 42.638
44.3106 1719 41.4608
44.4277 1683 41.0244
44.5448 1602 40.025
44.6619 1491 38.6135
44.7791 1401 37.4299
44.8963 1467 38.3014
45.0136 1529 39.1024
45.1308 1497 38.6911
45.2481 1493 38.6394
45.3654 1623 40.2865
45.4827 1642 40.5216
45.6001 1689 41.0974
45.7174 1649 40.6079
45.8348 1655 40.6817
45.9522 1587 39.8372
46.0697 1644 40.5463
46.1871 1618 40.2244
46.3046 1498 38.704
46.422 1489 38.5876
46.5395 1438 37.921
46.657 1512 38.8844
46.7745 1443 37.9868
46.892 1574 39.6737
47.0096 1585 39.8121
47.1271 1511 38.8716
47.2446 1498 38.704
47.3622 1529 39.1024
47.4797 1457 38.1707
47.5973 1457 38.1707
47.7149 1479 38.4578
47.8324 1385 37.2156
47.95 1346 36.6879
48.0675 1300 36.0555
48.1851 1221 34.9428
48.3027 1196 34.5832
48.4202 1101 33.1813
48.5378 1165 34.1321
48.6554 1219 34.9142
48.7729 1271 35.6511
48.8904 1349 36.7287
49.008 1336 36.5513
49.1255 1412 37.5766
49.243 1426 37.7624
49.3605 1383 37.1887
49.478 1365 36.9459
49.5955 1396 37.3631
49.713 1318 36.3043
49.8304 1334 36.524
49.9479 1294 35.9722
50.0653 1306 36.1386
50.1827 1332 36.4966
50.3001 1350 36.7423
50.4175 1401 37.4299
50.5348 1540 39.2428
50.6521 1464 38.2623
50.7694 1566 39.5727
50.8867 1583 39.7869
51.004 1508 38.833
51.1212 1603 40.0375
51.2384 1514 38.9102
51.3556 1553 39.4081
51.4727 1468 38.3145
51.5899 1430 37.8153
51.707 1427 37.7757
51.824 1331 36.4829
51.9411 1381 37.1618
52.0581 1403 37.4566
52.175 1439 37.9342
52.2919 1534 39.1663
52.4088 1592 39.8999
52.5257 1709 41.3401
52.6425 1727 41.5572
52.7593 1741 41.7253
52.876 1706 41.3038
52.9927 1780 42.19
53.1094 1830 42.7785
53.226 1743 41.7493
53.3426 1737 41.6773
53.4591 1630 40.3733
53.5756 1671 40.8779
53.692 1726 41.5452
53.8084 1718 41.4488
53.9248 1712 41.3763
54.0411 1843 42.9302
54.1573 1889 43.4626
54.2735 0 1
54.3896 0 1
54.5057 0 1
54.6217 0 1
54.7377 0 1
54.8537 0 1
54.9695 0 1
55.0853 0 1
55.2011 0 1
55.3168 0 1
55.4324 0 1
57.824 0 1
57.9396 0 1
58.0553 0 1
58.1711 0 1
58.2869 0 1
58.4028 0 1
58.5187 0 1
58.6347 0 1
58.7508 0 1
58.8669 0 1
58.983 1898 43.566
59.0992 1972 44.4072
59.2155 2177 46.6583
59.3318 2192 46.8188
59.4482 2182 46.7119
59.5646 2342 48.3942
59.681 2227 47.1911
59.7975 2212 47.0319
59.9141 2241 47.3392
60.0306 2097 45.793
60.1473 2020 44.9444
60.2639 1992 44.6318
60.3807 1832 42.8019
60.4974 1733 41.6293
60.6142 1593 39.9124
60.731 1609 40.1123
60.8479 1643 40.5339
60.9648 1902 43.6119
61.0818 1933 43.9659
61.1987 1960 44.2719
61.3158 1988 44.587
61.4328 1988 44.587
61.5499 2024 44.9889
61.667 1922 43.8406
61.7841 1976 44.4522
61.9013 1912 43.7264
62.0185 1809 42.5323
62.1357 1836 42.8486
62.253 1765 42.0119
62.3702 1835 42.8369
62.4875 1888 43.4511
62.6049 2023 44.9778
62.7222 2018 44.9222
62.8396 2084 45.6508
62.9569 2057 45.3542
63.0743 2077 45.5741
63.1918 2049 45.2659
63.3092 1992 44.6318
63.4267 1981 44.5084
63.5441 1927 43.8976
63.6616 1876 43.3128
63.7791 1772 42.0951
63.8966 1642 40.5216
64.0142 1570 39.6232
64.1317 1520 38.9872
64.2492 1421 37.6962
64.3668 1539 39.2301
64.4843 1571 39.6358
64.6019 1735 41.6533
64.7195 1863 43.1625
64.837 1801 42.4382
64.9546 1894 43.5201
65.0722 1906 43.6578
65.1898 1772 42.0951
65.3074 1808 42.5206
65.4249 1730 41.5933
65.5425 1647 40.5832
65.6601 1578 39.724
65.7777 1635 40.4351
65.8952 1609 40.1123
66.0128 1769 42.0595
66.1304 1805 42.4853
66.2479 1910 43.7035
66.3655 1997 44.6878
66.483 1955 44.2154
66.6005 2017 44.911
66.718 1969 44.3734
66.8355 2023 44.9778
66.953 1970 44.3847
67.0705 1895 43.5316
67.1879 1831 42.7902
67.3054 1757 41.9166
67.4228 1661 40.7554
67.5402 1558 39.4715
67.6576 1376 37.0945
67.7749 1402 37.4433
67.8923 1406 37.4967
68.0096 1427 37.7757
68.1269 1530 39.1152
68.2442 1629 40.3609
68.3614 1751 41.845
68.4787 1751 41.845
68.5958 1781 42.2019
68.713 1807 42.5088
68.8302 1807 42.5088
68.9473 1761 41.9643
69.0643 1697 41.1947
69.1814 1659 40.7308
69.2984 1604 40.05
69.4154 1585 39.8121
69.5323 1687 41.0731
69.6492 1803 42.4617
69.7661 1800 42.4264
69.8829 1890 43.4741
69.9997 2055 45.3321
70.1165 2052 45.299
70.2332 2014 44.8776
70.3499 2038 45.1442
70.4665 2049 45.2659
70.5831 1957 44.238
70.6996 1905 43.6463
70.8161 1868 43.2204
70.9326 1756 41.9047
71.049 1630 40.3733
71.1653 1551 39.3827
71.2817 1449 38.0657
71.3979 1258 35.4683
71.5141 1317 36.2905
71.6303 1278 35.7491
71.7464 1254 35.4119
71.8624 0 1
71.9784 0 1
72.0944 0 1
72.2102 0 1
72.3261 0 1
72.4418 0 1
72.5575 0 1
72.6732 0 1
75.1054 0 1
75.2209 0 1
75.3365 0 1
75.4521 0 1
75.5678 0 1
75.6835 0 1
75.7993 0 1
75.9151 0 1
76.031 0 1
76.147 1588 39.8497
76.263 1669 40.8534
76.3791 1722 41.497
76.4952 1607 40.0874
76.6113 1424 37.7359
76.7276 1296 36
76.8438 1304 36.1109
76.9601 1345 36.6742
77.0765 1477 38.4318
77.1929 1503 38.7685
77.3093 1804 42.4735
77.4258 1832 42.8019
77.5423 1729 41.5812
77.6589 1839 42.8836
77.7755 1752 41.8569
77.8921 1678 40.9634
78.0088 1583 39.7869
78.1256 1598 39.975
78.2423 1477 38.4318
78.3591 1414 37.6032
78.4759 1444 38
78.5928 1566 39.5727
78.7097 1721 41.4849
78.8266 1690 41.1096
78.9436 1926 43.8862
79.0606 1948 44.1362
79.1776 1944 44.0908
79.2946 1955 44.2154
79.4117 1926 43.8862
79.5288 1955 44.2154
79.6459 1868 43.2204
79.7631 1840 42.8952
79.8802 1771 42.0833
79.9974 1739 41.7013
80.1147 1554 39.4208
80.2319 1425 37.7492
80.3491 1330 36.4692
80.4664 1251 35.3695
80.5837 1294 35.9722
80.701 1448 38.0526
80.8183 1517 38.9487
80.9357 1597 39.9625
81.053 1622 40.2741
81.1704 1672 40.8901
81.2877 1601 40.0125
81.4051 1598 39.975
81.5225 1722 41.497
81.6399 1557 39.4588
81.7573 1408 37.5233
81.8747 1331 36.4829
81.9922 1410 37.55
82.1096 1344 36.6606
82.227 1429 37.8021
82.3444 1518 38.9615
82.4619 1616 40.1995
82.5793 1713 41.3884
82.6967 1628 40.3485
82.8142 1729 41.5812
82.9316 1821 42.6732
83.049 1831 42.7902
83.1664 1680 40.9878
83.2838 1621 40.2616
83.4012 1648 40.5956
83.5186 1583 39.7869
83.636 1480 38.4708
83.7534 1436 37.8946
83.8708 1292 35.9444
83.9881 1147 33.8674
84.1055 1207 34.7419
84.2228 1218 34.8999
84.3401 1233 35.1141
84.4575 1377 37.108
84.5747 1561 39.5095
84.692 1688 41.0853
84.8093 1603 40.0375
84.9265 1585 39.8121
85.0437 1528 39.0896
85.1609 1503 38.7685
85.2781 1435 37.8814
85.3952 1378 37.1214
85.5123 1241 35.2278
85.6294 1291 35.9305
85.7465 1354 36.7967
85.8636 1456 38.1576
85.9806 1614 40.1746
86.0976 1711 41.3642
86.2145 1747 41.7971
86.3315 1898 43.566
86.4484 1955 44.2154
86.5652 1969 44.3734
86.682 2052 45.299
86.7988 1961 44.2832
86.9156 1848 42.9884
87.0323 1814 42.5911
87.149 1721 41.4849
87.2657 1645 40.5586
87.3823 1477 38.4318
87.4988 1342 36.6333
87.6154 1364 36.9324
87.7318 1404 37.47
87.8483 1512 38.8844
87.9647 1641 40.5093
88.081 1765 42.0119
88.1973 1759 41.9404
88.3136 1849 43
88.4298 1879 43.3474
88.546 1839 42.8836
88.6621 1779 42.1782
88.7781 1623 40.2865
88.8942 0 1
89.0101 0 1
89.126 0 1
89.2419 0 1
89.3577 0 1
89.4734 0 1
89.5891 0 1
89.7047 0 1
89.8203 0 1
89.9358 0 1
92.3269 0 1
92.4424 0 1
92.558 0 1
92.6736 0 1
92.7893 0 1
92.905 0 1
93.0208 0 1
93.1366 0 1
93.2525 0 1
93.3685 0 1
93.4845 0 1
93.6005 1846 42.9651
93.7167 1840 42.8952
93.8328 1883 43.3935
93.949 1886 43.4281
94.0653 1823 42.6966
94.1816 1811 42.5558
94.2979 1582 39.7744
94.4143 1538 39.2173
94.5307 1542 39.2683
94.6472 1489 38.5876
94.7637 1560 39.4968
94.8803 1592 39.8999
94.9969 1816 42.6146
95.1135 1906 43.6578
95.2302 1995 44.6654
95.3469 2078 45.5851
95.4637 2042 45.1885
95.5805 2122 46.0652
95.6973 2107 45.9021
95.8142 2127 46.1194
95.9311 2117 46.0109
96.048 2053 45.31
96.1649 1924 43.8634
96.2819 1915 43.7607
96.3989 1844 42.9418
96.516 1746 41.7852
96.633 1495 38.6652
96.7501 1517 38.9487
96.8673 1574 39.6737
96.9844 1550 39.37
97.1016 1686 41.0609
97.2188 1829 42.7668
97.336 1818 42.638
97.4532 1890 43.4741
97.5704 1922 43.8406
97.6877 1908 43.6807
97.805 1830 42.7785
97.9223 1664 40.7922
98.0396 1621 40.2616
98.1569 1549 39.3573
98.2743 1421 37.6962
98.3916 1440 37.9473
98.509 1572 39.6485
98.6264 1727 41.5572
98.7438 1937 44.0114
98.8612 1983 44.5309
98.9786 2079 45.5961
99.096 2246 47.392
99.2134 2159 46.465
99.3308 2173 46.6154
99.4482 2125 46.0977
99.5656 2079 45.5961
99.6831 2087 45.6837
99.8005 2020 44.9444
99.9179 1843 42.9302
100.035 1801 42.4382
100.153 1760 41.9524
100.27 1578 39.724
100.388 1581 39.7618
100.505 1640 40.4969
100.622 1736 41.6653
100.74 1813 42.5793
100.857 1997 44.6878
100.975 2013 44.8665
101.092 2090 45.7165
101.209 2033 45.0888
101.327 1940 44.0454
101.444 1900 43.589
101.561 1720 41.4729
101.679 1587 39.8372
101.796 1509 38.8458
101.913 1445 38.0132
102.03 1608 40.0999
102.148 1744 41.7612
102.265 2137 46.2277
102.382 2100 45.8258
102.499 2242 47.3498
102.616 2230 47.2229
102.733 2357 48.5489
102.851 2348 48.4562
102.968 2301 47.9687
103.085 2318 48.1456
103.202 2219 47.1063
103.319 2116 46
103.436 2042 45.1885
103.552 1947 44.1248
103.669 1862 43.1509
103.786 1690 41.1096
103.903 1668 40.8412
104.02 1785 42.2493
104.137 1896 43.5431
104.253 2113 45.9674
104.37 2031 45.0666
104.487 2152 46.3897
104.603 2163 46.5081
104.72 2260 47.5395
104.836 2028 45.0333
104.953 1937 44.0114
105.069 1703 41.2674
105.186 1675 40.9268
105.302 1527 39.0768
105.418 1683 41.0244
105.535 1861 43.1393
105.651 2046 45.2327
105.767 2171 46.594
105.883 2368 48.6621
105.999 2424 49.2341
106.115 0 1
106.231 0 1
106.347 0 1
106.463 0 1
106.579 0 1
106.694 0 1
106.81 0 1
106.926 0 1
107.041 0 1
107.157 0 1
109.576 0 1
109.692 0 1
109.807 0 1
109.923 0 1
110.039 0 1
110.155 0 1
110.27 0 1
110.386 0 1
110.502 0 1
110.618 1680 40.9878
110.735 1901 43.6005
110.851 2174 46.6262
110.967 2313 48.0937
111.083 2352 48.4974
111.199 2389 48.8774
111.316 2413 49.1223
111.432 2437 49.366
111.549 2411 49.1019
111.665 2374 48.7237
111.782 2244 47.3709
111.898 2116 46
112.015 2066 45.4533
112.132 1954 44.2041
112.248 1783 42.2256
112.365 1774 42.1189
112.482 1795 42.3674
112.599 1863 43.1625
112.716 2041 45.1774
112.832 2082 45.6289
112.949 2080 45.607
113.066 2138 46.2385
113.183 2074 45.5412
113.3 2089 45.7056
113.417 1908 43.6807
113.534 1808 42.5206
113.652 1764 42
113.769 1629 40.3609
113.886 1528 39.0896
114.003 1584 39.7995
114.12 1704 41.2795
114.238 1895 43.5316
114.355 2092 45.7384
114.472 2396 48.949
114.589 2117 46.0109
114.707 2267 47.613
114.824 2277 47.7179
114.942 2261 47.55
115.059 2352 48.4974
115.176 2225 47.1699
115.294 2195 46.8508
115.411 2029 45.0444
115.529 2012 44.8553
115.646 1963 44.3058
115.764 1858 43.1045
115.881 1747 41.7971
115.999 1852 43.0349
116.116 1782 42.2137
116.234 1873 43.2782
116.351 1975 44.441
116.469 1960 44.2719
116.586 2058 45.3652
116.704 1983 44.5309
116.821 1942 44.0681
116.939 1934 43.9773
117.056 1833 42.8135
117.174 1725 41.5331
117.291 1609 40.1123
117.409 1568 39.598
117.526 1424 37.7359
117.644 1676 40.939
117.761 1735 41.6533
117.879 1949 44.1475
117.996 1951 44.1701
118.114 2144 46.3033
118.231 2188 46.7761
118.349 2150 46.3681
118.466 2290 47.8539
118.584 2160 46.4758
118.701 2219 47.1063
118.819 2215 47.0638
118.936 2074 45.5412
119.053 2006 44.7884
119.171 1957 44.238
119.288 1866 43.1972
119.405 1856 43.0813
119.523 1871 43.2551
119.64 1725 41.5331
119.757 1798 42.4028
119.875 1874 43.2897
119.992 1855 43.0697
120.109 1902 43.6119
120.226 1898 43.566
120.343 1872 43.2666
120.46 1854 43.0581
120.578 1856 43.0813
120.695 1773 42.107
120.812 1610 40.1248
120.929 1504 38.7814
121.046 1539 39.2301
121.163 1498 38.704
121.279 1554 39.4208
121.396 1732 41.6173
121.513 1915 43.7607
121.63 2013 44.8665
121.747 2113 45.9674
121.863 2135 46.2061
121.98 2097 45.793
122.097 2117 46.0109
122.213 2131 46.1628
122.33 2193 46.8295
122.446 2052 45.299
122.563 2065 45.4423
122.679 1960 44.2719
122.795 1810 42.5441
122.912 1830 42.7785
123.028 1802 42.45
123.144 1754 41.8808
123.26 1600 40
123.377 0 1
123.493 0 1
123.609 0 1
123.725 0 1
123.84 0 1
123.956 0 1
124.072 0 1
124.188 0 1
124.303 0 1
124.419 0 1
126.852 0 1
126.968 0 1
127.083 0 1
127.199 0 1
127.315 0 1
127.431 0 1
127.547 0 1
127.663 0 1
127.779 0 1
127.895 0 1
128.011 0 1
128.127 0 1
128.243 0 1
128.359 1975 44.441
128.476 1942 44.0681
128.592 1969 44.3734
128.708 2001 44.7325
128.825 1955 44.2154
128.941 2063 45.4203
129.058 2115 45.9891
129.174 2220 47.1169
129.291 2096 45.7821
129.408 2059 45.3762
129.524 2009 44.8219
129.641 1883 43.3935
129.758 1802 42.45
129.875 1766 42.0238
129.992 1699 41.2189
130.108 1603 40.0375
130.225 1746 41.7852
130.342 1966 44.3396
130.459 2045 45.2217
130.576 2279 47.7389
130.693 2242 47.3498
130.81 2406 49.051
130.928 2258 47.5184
131.045 2205 46.9574
131.162 2311 48.0729
131.279 2262 47.5605
131.396 2269 47.634
131.513 2192 46.8188
131.631 2211 47.0213
131.748 2122 46.0652
131.865 1998 44.699
131.983 1969 44.3734
132.1 1999 44.7102
132.217 2054 45.3211
132.335 2073 45.5302
132.452 2211 47.0213
132.57 2166 46.5403
132.687 2115 45.9891
132.804 2335 48.3218
132.922 2146 46.3249
133.039 2044 45.2106
133.157 2041 45.1774
133.274 1910 43.7035
133.392 1735 41.6533
133.509 1722 41.497
133.627 1655 40.6817
133.744 1745 41.7732
133.862 1894 43.5201
133.979 2058 45.3652
134.097 2150 46.3681
134.214 2181 46.7012
134.332 2210 47.0106
134.449 2258 47.5184
134.567 2320 48.1664
134.684 2264 47.5815
134.802 2414 49.1325
134.919 2344 48.4149
135.037 2392 48.9081
135.154 2229 47.2123
135.272 2178 46.669
135.389 2213 47.0425
135.507 2175 46.6369
135.624 2114 45.9783
135.742 2094 45.7602
135.859 2214 47.0532
135.977 2262 47.5605
136.094 2232 47.244
136.211 2151 46.3789
136.329 2228 47.2017
136.446 2147 46.3357
136.564 2279 47.7389
136.681 2033 45.0888
136.798 1983 44.5309
136.915 1845 42.9535
137.033 1777 42.1545
137.15 1714 41.4005
137.267 1754 41.8808
137.384 1751 41.845
137.502 1938 44.0227
137.619 2056 45.3431
137.736 2211 47.0213
137.853 2235 47.2758
137.97 2272 47.6655
138.087 2175 46.6369
138.204 2250 47.4342
138.321 2333 48.3011
138.438 2360 48.5798
138.555 2450 49.4975
138.672 2489 49.8899
138.788 2314 48.1041
138.905 2326 48.2286
139.022 2308 48.0416
139.139 2275 47.697
139.255 2290 47.8539
139.372 2270 47.6445
139.488 2288 47.833
139.605 2368 48.6621
139.721 2264 47.5815
139.838 2410 49.0918
139.954 2355 48.5283
140.071 2275 47.697
140.187 2380 48.7852
140.303 2223 47.1487
140.419 2069 45.4863
140.535 1986 44.5646
140.652 1826 42.7317
140.768 0 1
140.884 0 1
141 0 1
141.115 0 1
141.231 0 1
141.347 0 1
141.463 0 1
141.578 0 1
141.694 0 1
144.104 0 1
144.219 0 1
144.335 0 1
144.45 0 1
144.566 0 1
144.682 0 1
144.798 0 1
144.914 0 1
145.03 0 1
145.146 2108 45.913
145.262 2023 44.9778
145.378 1943 44.0795
145.494 1853 43.0465
145.61 1778 42.1663
145.726 1732 41.6173
145.842 1722 41.497
145.959 1563 39.5348
146.075 1758 41.9285
146.192 1863 43.1625
146.308 1933 43.9659
146.425 1944 44.0908
146.541 2036 45.1221
146.658 2048 45.2548
146.774 2051 45.288
146.891 2111 45.9456
147.008 2153 46.4004
147.125 2275 47.697
147.241 2270 47.6445
147.358 2199 46.8935
147.475 2129 46.1411
147.592 2188 46.7761
147.709 2146 46.3249
147.826 2058 45.3652
147.943 2118 46.0217
148.06 2101 45.8367
148.177 2100 45.8258
148.294 2105 45.8803
148.411 2153 46.4004
148.528 2045 45.2217
148.645 2047 45.2438
148.762 2085 45.6618
148.88 2020 44.9444
148.997 1864 43.1741
149.114 1818 42.638
149.231 1709 41.3401
149.349 1728 41.5692
149.466 1687 41.0731
149.583 1542 39.2683
149.701 1660 40.7431
149.818 1782 42.2137
149.935 1801 42.4382
150.053 1920 43.8178
150.17 1916 43.7721
150.287 1863 43.1625
150.405 2083 45.6399
150.522 1990 44.6094
150.64 2057 45.3542
150.757 2177 46.6583
150.875 2056 45.3431
150.992 2076 45.5631
151.11 2138 46.2385
151.227 2156 46.4327
151.344 2112 45.9565
151.462 1972 44.4072
151.579 2091 45.7275
151.697 2089 45.7056
151.814 2067 45.4643
151.932 1996 44.6766
152.049 2090 45.7165
152.167 2082 45.6289
152.284 2091 45.7275
152.402 2095 45.7712
152.519 1997 44.6878
152.636 1944 44.0908
152.754 1812 42.5676
152.871 1758 41.9285
152.989 1675 40.9268
153.106 1689 41.0974
153.223 1629 40.3609
153.341 1663 40.7799
153.458 1820 42.6615
153.575 1981 44.5084
153.693 1915 43.7607
153.81 1943 44.0795
153.927 2031 45.0666
154.044 2196 46.8615
154.162 2077 45.5741
154.279 2100 45.8258
154.396 2205 46.9574
154.513 2202 46.9255
154.63 2217 47.085
154.747 2217 47.085
154.864 2207 46.9787
154.981 2211 47.0213
155.098 2079 45.5961
155.215 2143 46.2925
155.332 2112 45.9565
155.449 2126 46.1086
155.566 2132 46.1736
155.683 2102 45.8476
155.8 2173 46.6154
155.917 2121 46.0543
156.033 2162 46.4973
156.15 0 1
156.267 0 1
156.383 0 1
156.5 0 1
156.617 0 1
156.733 0 1
156.85 0 1
156.966 0 1
157.082 0 1
157.199 0 1
157.315 0 1
157.431 0 1
157.547 0 1
157.664 0 1
157.78 0 1
157.896 0 1
158.012 0 1
158.128 0 1
158.244 0 1
158.359 0 1
158.475 0 1
158.591 0 1
158.706 0 1
