
6.15755 0 1
6.2731 0 1
6.3887 0 1
6.50437 0 1
6.62009 0 1
6.73587 0 1
6.8517 0 1
6.96759 0 1
7.08353 0 1
7.19952 0 1
7.31557 0 1
7.43166 0 1
7.54781 0 1
7.664 0 1
7.78024 0 1
7.89653 0 1
8.01286 0 1
8.12924 0 1
8.24567 0 1
8.36213 0 1
8.47864 0 1
8.59519 0 1
8.71178 0 1
8.82841 0 1
8.94508 0 1
9.06179 0 1
9.17853 0 1
9.29531 0 1
9.41212 0 1
9.52897 0 1
9.64584 0 1
9.76276 0 1
9.8797 0 1
9.99667 0 1
10.1137 0 1
10.2307 0 1
10.3478 0 1
10.4648 0 1
10.5819 0 1
10.6991 0 1
10.8162 0 1
10.9334 0 1
11.0506 0 1
11.1678 0 1
11.285 0 1
11.4023 0 1
11.5196 0 1
11.6369 0 1
11.7542 0 1
11.8715 0 1
11.9888 0 1
12.1062 0 1
12.2235 0 1
12.3409 0 1
12.4582 0 1
12.5756 0 1
12.693 0 1
12.8104 0 1
12.9278 0 1
13.0452 0 1
13.1626 0 1
13.28 0 1
13.3974 0 1
13.5149 0 1
13.6323 0 1
13.7497 0 1
13.8671 0 1
13.9845 0 1
14.1019 0 1
14.2193 0 1
14.3367 0 1
14.4541 0 1
14.5714 0 1
14.6888 0 1
14.8062 0 1
14.9235 0 1
15.0408 0 0
15.1581 0 0
15.2755 0 0
15.3927 0 0
15.51 0 0
15.6273 0 0
15.7445 0 0
15.8617 0 0
15.9789 0 0
16.0961 0 0
16.2132 0 0
16.3304 0 0
16.4475 0 0
16.5646 0 0
16.6816 0 0
16.7986 0 0
16.9156 0 0
17.0326 0 0
17.1496 0 0
17.2665 0 0
17.3833 0 0
17.5002 0 0
17.617 0 0
17.7338 0 0
17.8505 0 0
17.9672 0 0
18.0839 0 0
18.2005 0 0
18.3171 0 0
18.4337 0 0
18.5502 0 0
18.6666 0 0
18.7831 0 0
18.8994 0 0
19.0158 0 0
19.1321 0 0
19.2483 0 0
19.3645 0 0
19.4806 0 0
19.5967 0 0
19.7128 0 0
19.8288 0 0
19.9447 0 0
20.0606 0 1
20.1764 0 1
20.2922 0 1
20.4079 0 1
20.5236 0 1
20.6392 0 1
20.7548 0 1
20.8702 0 1
23.3078 0 1
23.4233 0 1
23.539 0 1
23.6547 0 1
23.7704 0 1
23.8862 0 1
24.0021 0 1
24.118 0 1
24.234 0 1
24.35 0 1
24.4661 2359 48.5695
24.5822 2350 48.4768
24.6984 2282 47.7703
24.8146 2310 48.0625
24.9309 2170 46.5833
25.0472 2227 47.1911
25.1636 2133 46.1844
25.28 2124 46.0869
25.3965 2242 47.3498
25.513 2336 48.3322
25.6296 2440 49.3964
25.7462 2388 48.8672
25.8628 2368 48.6621
25.9795 2403 49.0204
26.0962 2414 49.1325
26.213 2317 48.1352
26.3298 2358 48.5592
26.4466 2274 47.6865
26.5635 2309 48.0521
26.6804 2276 47.7074
26.7973 2370 48.6826
26.9143 2275 47.697
27.0313 2390 48.8876
27.1483 2459 49.5883
27.2653 2507 50.07
27.3824 2479 49.7896
27.4996 2512 50.1199
27.6167 2442 49.4166
27.7339 2536 50.3587
27.8511 2426 49.2544
27.9683 2342 48.3942
28.0855 2360 48.5798
28.2028 2401 49
28.3201 2206 46.9681
28.4374 2250 47.4342
28.5547 2077 45.5741
28.6721 2155 46.422
28.7894 2113 45.9674
28.9068 2130 46.1519
29.0242 2135 46.2061
29.1416 2257 47.5079
29.259 2260 47.5395
29.3764 2198 46.8828
29.4939 2277 47.7179
29.6113 2253 47.4658
29.7288 2262 47.5605
29.8463 2175 46.6369
29.9638 2210 47.0106
30.0812 2167 46.551
30.1987 2114 45.9783
30.3162 2267 47.613
30.4337 2224 47.1593
30.5512 2382 48.8057
30.6687 2367 48.6518
30.7862 2384 48.8262
30.9037 2436 49.3559
31.0212 2453 49.5278
31.1387 2417 49.163
31.2562 2468 49.679
31.3737 2396 48.949
31.4912 2313 48.0937
31.6087 2491 49.9099
31.7262 2374 48.7237
31.8436 2240 47.3286
31.9611 2178 46.669
32.0785 2127 46.1194
32.1959 2128 46.1303
32.3134 2095 45.7712
32.4308 2077 45.5741
32.5482 2150 46.3681
32.6655 2193 46.8295
32.7829 2216 47.0744
32.9002 2194 46.8402
33.0176 2235 47.2758
33.1349 2241 47.3392
33.2522 2256 47.4974
33.3694 2237 47.2969
33.4867 2311 48.0729
33.6039 2222 47.1381
33.7211 2117 46.0109
33.8383 2116 46
33.9554 2219 47.1063
34.0725 2282 47.7703
34.1896 2392 48.9081
34.3067 2415 49.1426
34.4237 2464 49.6387
34.5407 2489 49.8899
34.6577 2563 50.6261
34.7746 2489 49.8899
34.8915 2526 50.2593
35.0084 2499 49.99
35.1252 2485 49.8498
35.242 2418 49.1732
35.3587 2443 49.4267
35.4755 2307 48.0312
35.5921 2293 47.8853
35.7088 2181 46.7012
35.8254 2108 45.913
35.9419 2104 45.8694
36.0584 2041 45.1774
36.1749 2113 45.9674
36.2913 2167 46.551
36.4077 2150 46.3681
36.524 2118 46.0217
36.6403 2194 46.8402
36.7565 2198 46.8828
36.8727 2111 45.9456
36.9889 2236 47.2864
37.1049 2185 46.744
37.221 0 1
37.3369 0 1
37.4529 0 1
37.5687 0 1
37.6845 0 1
37.8003 0 1
37.916 0 1
38.0316 0 1
38.1472 0 1
40.5851 0 1
40.7008 0 1
40.8164 0 1
40.9322 0 1
41.048 0 1
41.1639 0 1
41.2798 0 1
41.3958 0 1
41.5118 0 1
41.6279 0 1
41.744 1849 43
41.8602 1890 43.4741
41.9765 1979 44.486
42.0928 1946 44.1135
42.2091 1942 44.0681
42.3255 2017 44.911
42.4419 1924 43.8634
42.5584 1974 44.4297
42.675 1908 43.6807
42.7915 2037 45.1331
42.9081 2098 45.8039
43.0248 2063 45.4203
43.1415 2183 46.7226
43.2582 2178 46.669
43.375 2242 47.3498
43.4918 2264 47.5815
43.6087 2264 47.5815
43.7256 2178 46.669
43.8425 2266 47.6025
43.9595 2282 47.7703
44.0765 2089 45.7056
44.1935 2194 46.8402
44.3106 2067 45.4643
44.4277 1908 43.6807
44.5448 1828 42.7551
44.6619 1748 41.8091
44.7791 1597 39.9625
44.8963 1713 41.3884
45.0136 1725 41.5331
45.1308 1693 41.1461
45.2481 1771 42.0833
45.3654 1774 42.1189
45.4827 1747 41.7971
45.6001 1836 42.8486
45.7174 1778 42.1663
45.8348 1880 43.359
45.9522 1697 41.1947
46.0697 1698 41.2068
46.1871 1622 40.2741
46.3046 1581 39.7618
46.422 1727 41.5572
46.5395 1769 42.0595
46.657 1813 42.5793
46.7745 1821 42.6732
46.892 1917 43.7836
47.0096 1958 44.2493
47.1271 1917 43.7836
47.2446 1924 43.8634
47.3622 1809 42.5323
47.4797 1815 42.6028
47.5973 1820 42.6615
47.7149 1697 41.1947
47.8324 1664 40.7922
47.95 1556 39.4462
48.0675 1504 38.7814
48.1851 1482 38.4968
48.3027 1451 38.092
48.4202 1333 36.5103
48.5378 1352 36.7696
48.6554 1355 36.8103
48.7729 1389 37.2693
48.8904 1421 37.6962
49.008 1438 37.921
49.1255 1545 39.3065
49.243 1462 38.2361
49.3605 1398 37.3898
49.478 1517 38.9487
49.5955 1528 39.0896
49.713 1476 38.4187
49.8304 1532 39.1408
49.9479 1691 41.1218
50.0653 1755 41.8927
50.1827 1745 41.7732
50.3001 1839 42.8836
50.4175 2037 45.1331
50.5348 1980 44.4972
50.6521 2064 45.4313
50.7694 2244 47.3709
50.8867 2100 45.8258
51.004 2119 46.0326
51.1212 2163 46.5081
51.2384 2291 47.8644
51.3556 2136 46.2169
51.4727 2119 46.0326
51.5899 2051 45.288
51.707 1889 43.4626
51.824 1898 43.566
51.9411 1874 43.2897
52.0581 1898 43.566
52.175 1948 44.1362
52.2919 2059 45.3762
52.4088 1996 44.6766
52.5257 2039 45.1553
52.6425 2059 45.3762
52.7593 2091 45.7275
52.876 2126 46.1086
52.9927 2149 46.3573
53.1094 2154 46.4112
53.226 2233 47.2546
53.3426 2184 46.7333
53.4591 2225 47.1699
53.5756 2390 48.8876
53.692 2565 50.6458
53.8084 2599 50.9804
53.9248 2705 52.0096
54.0411 2766 52.5928
54.1573 2805 52.9623
54.2735 0 1
54.3896 0 1
54.5057 0 1
54.6217 0 1
54.7377 0 1
54.8537 0 1
54.9695 0 1
55.0853 0 1
55.2011 0 1
55.3168 0 1
55.4324 0 1
57.824 0 1
57.9396 0 1
58.0553 0 1
58.1711 0 1
58.2869 0 1
58.4028 0 1
58.5187 0 1
58.6347 0 1
58.7508 0 1
58.8669 0 1
58.983 3125 55.9017
59.0992 3314 57.5674
59.2155 3384 58.1722
59.3318 3369 58.0431
59.4482 3653 60.4401
59.5646 3564 59.6992
59.681 3705 60.8687
59.7975 3437 58.6259
59.9141 3398 58.2924
60.0306 3230 56.8331
60.1473 3043 55.1634
60.2639 2913 53.9722
60.3807 2750 52.4404
60.4974 2681 51.7784
60.6142 2551 50.5074
60.731 2544 50.4381
60.8479 2532 50.319
60.9648 2642 51.4004
61.0818 2660 51.5752
61.1987 2767 52.6023
61.3158 2767 52.6023
61.4328 2813 53.0377
61.5499 2755 52.4881
61.667 2600 50.9902
61.7841 2581 50.8035
61.9013 2637 51.3517
62.0185 2524 50.2394
62.1357 2691 51.8748
62.253 2853 53.4135
62.3702 2957 54.3783
62.4875 3050 55.2268
62.6049 3205 56.6127
62.7222 3266 57.1489
62.8396 3253 57.0351
62.9569 3293 57.3847
63.0743 3353 57.9051
63.1918 3217 56.7186
63.3092 3233 56.8595
63.4267 3063 55.3444
63.5441 3040 55.1362
63.6616 2708 52.0384
63.7791 2595 50.9411
63.8966 2405 49.0408
64.0142 2289 47.8435
64.1317 2226 47.1805
64.2492 2283 47.7807
64.3668 2340 48.3735
64.4843 2383 48.816
64.6019 2396 48.949
64.7195 2426 49.2544
64.837 2573 50.7247
64.9546 2609 51.0784
65.0722 2614 51.1273
65.1898 2521 50.2096
65.3074 2431 49.3052
65.4249 2366 48.6415
65.5425 2535 50.3488
65.6601 2487 49.8698
65.7777 2604 51.0294
65.8952 2886 53.7215
66.0128 2879 53.6563
66.1304 3120 55.857
66.2479 3072 55.4256
66.3655 3237 56.8946
66.483 3340 57.7927
66.6005 3334 57.7408
66.718 3243 56.9473
66.8355 3119 55.848
66.953 3076 55.4617
67.0705 3008 54.8452
67.1879 2877 53.6377
67.3054 2654 51.517
67.4228 2597 50.9608
67.5402 2260 47.5395
67.6576 2223 47.1487
67.7749 2308 48.0416
67.8923 2280 47.7493
68.0096 2412 49.1121
68.1269 2424 49.2341
68.2442 2545 50.448
68.3614 2634 51.3225
68.4787 2777 52.6972
68.5958 2933 54.1572
68.713 2683 51.7977
68.8302 2651 51.4879
68.9473 2576 50.7543
69.0643 2468 49.679
69.1814 2495 49.95
69.2984 2569 50.6853
69.4154 2890 53.7587
69.5323 3028 55.0273
69.6492 3198 56.5509
69.7661 3242 56.9386
69.8829 3298 57.4282
69.9997 3468 58.8897
70.1165 3547 59.5567
70.2332 3613 60.1082
70.3499 3684 60.696
70.4665 3416 58.4466
70.5831 3349 57.8705
70.6996 3273 57.2101
70.8161 3136 56
70.9326 2960 54.4059
71.049 2819 53.0943
71.1653 2540 50.3984
71.2817 2348 48.4562
71.3979 2246 47.392
71.5141 2349 48.4665
71.6303 2290 47.8539
71.7464 2212 47.0319
71.8624 0 1
71.9784 0 1
72.0944 0 1
72.2102 0 1
72.3261 0 1
72.4418 0 1
72.5575 0 1
72.6732 0 1
75.1054 0 1
75.2209 0 1
75.3365 0 1
75.4521 0 1
75.5678 0 1
75.6835 0 1
75.7993 0 1
75.9151 0 1
76.031 0 1
76.147 2948 54.2955
76.263 3048 55.2087
76.3791 2905 53.8981
76.4952 2555 50.547
76.6113 2488 49.8799
76.7276 2469 49.689
76.8438 2457 49.5681
76.9601 2535 50.3488
77.0765 2636 51.342
77.1929 2703 51.9904
77.3093 2905 53.8981
77.4258 2899 53.8424
77.5423 3060 55.3173
77.6589 3096 55.6417
77.7755 2976 54.5527
77.8921 2799 52.9056
78.0088 2665 51.6236
78.1256 2609 51.0784
78.2423 2599 50.9804
78.3591 2826 53.1601
78.4759 2976 54.5527
78.5928 3081 55.5068
78.7097 3253 57.0351
78.8266 3639 60.3241
78.9436 3302 57.463
79.0606 3596 59.9667
79.1776 3633 60.2744
79.2946 3622 60.1831
79.4117 3571 59.7578
79.5288 3511 59.2537
79.6459 3531 59.4222
79.7631 3315 57.576
79.8802 3086 55.5518
79.9974 2798 52.8961
80.1147 2665 51.6236
80.2319 2401 49
80.3491 2330 48.2701
80.4664 2361 48.5901
80.5837 2436 49.3559
80.701 2504 50.04
80.8183 2620 51.1859
80.9357 2652 51.4976
81.053 2815 53.0566
81.1704 2836 53.2541
81.2877 2765 52.5833
81.4051 2816 53.066
81.5225 2731 52.259
81.6399 2510 50.0999
81.7573 2403 49.0204
81.8747 2407 49.0612
81.9922 2430 49.295
82.1096 2666 51.6333
82.227 2747 52.4118
82.3444 2928 54.111
82.4619 3131 55.9553
82.5793 3144 56.0714
82.6967 3269 57.1752
82.8142 3206 56.6216
82.9316 3271 57.1927
83.049 3246 56.9737
83.1664 3127 55.9196
83.2838 2843 53.3198
83.4012 2795 52.8678
83.5186 2802 52.9339
83.636 2506 50.06
83.7534 2326 48.2286
83.8708 2153 46.4004
83.9881 2083 45.6399
84.1055 2137 46.2277
84.2228 2171 46.594
84.3401 2164 46.5188
84.4575 2311 48.0729
84.5747 2572 50.7149
84.692 2715 52.1057
84.8093 2664 51.614
84.9265 2751 52.45
85.0437 2592 50.9117
85.1609 2476 49.7594
85.2781 2327 48.239
85.3952 2215 47.0638
85.5123 2251 47.4447
85.6294 2422 49.2138
85.7465 2726 52.2111
85.8636 2866 53.535
85.9806 2969 54.4885
86.0976 3155 56.1694
86.2145 3338 57.7754
86.3315 3341 57.8014
86.4484 3562 59.6825
86.5652 3492 59.0931
86.682 3612 60.0999
86.7988 3435 58.6089
86.9156 3220 56.745
87.0323 3079 55.4887
87.149 2893 53.7866
87.2657 2820 53.1037
87.3823 2670 51.672
87.4988 2442 49.4166
87.6154 2390 48.8876
87.7318 2391 48.8979
87.8483 2613 51.1175
87.9647 2657 51.5461
88.081 2916 54
88.1973 3027 55.0182
88.3136 3159 56.205
88.4298 2979 54.5802
88.546 2923 54.0648
88.6621 2792 52.8394
88.7781 2535 50.3488
88.8942 0 1
89.0101 0 1
89.126 0 1
89.2419 0 1
89.3577 0 1
89.4734 0 1
89.5891 0 1
89.7047 0 1
89.8203 0 1
89.9358 0 1
92.3269 0 1
92.4424 0 1
92.558 0 1
92.6736 0 1
92.7893 0 1
92.905 0 1
93.0208 0 1
93.1366 0 1
93.2525 0 1
93.3685 0 1
93.4845 0 1
93.6005 2833 53.2259
93.7167 2875 53.619
93.8328 2953 54.3415
93.949 2774 52.6688
94.0653 2825 53.1507
94.1816 2759 52.5262
94.2979 2631 51.2933
94.4143 2584 50.8331
94.5307 2601 51
94.6472 2515 50.1498
94.7637 2857 53.4509
94.8803 3077 55.4707
94.9969 3249 57
95.1135 3300 57.4456
95.2302 3452 58.7537
95.3469 3450 58.7367
95.4637 3656 60.4649
95.5805 3722 61.0082
95.6973 3696 60.7947
95.8142 3645 60.3738
95.9311 3672 60.597
96.048 3474 58.9406
96.1649 3391 58.2323
96.2819 3077 55.4707
96.3989 3054 55.263
96.516 2703 51.9904
96.633 2639 51.3712
96.7501 2539 50.3885
96.8673 2495 49.95
96.9844 2600 50.9902
97.1016 2585 50.8429
97.2188 2894 53.7959
97.336 2955 54.3599
97.4532 3079 55.4887
97.5704 3196 56.5332
97.6877 2975 54.5436
97.805 2960 54.4059
97.9223 2774 52.6688
98.0396 2659 51.5655
98.1569 2626 51.2445
98.2743 2605 51.0392
98.3916 2731 52.259
98.509 2993 54.7083
98.6264 3183 56.4181
98.7438 3332 57.7235
98.8612 3515 59.2874
98.9786 3591 59.925
99.096 3873 62.2334
99.2134 3811 61.7333
99.3308 3830 61.887
99.4482 3856 62.0967
99.5656 3630 60.2495
99.6831 3602 60.0167
99.8005 3357 57.9396
99.9179 3323 57.6455
100.035 3126 55.9106
100.153 2843 53.3198
100.27 2797 52.8867
100.388 2628 51.264
100.505 2570 50.6952
100.622 2651 51.4879
100.74 2886 53.7215
100.857 3008 54.8452
100.975 3136 56
101.092 3103 55.7046
101.209 3122 55.8749
101.327 3106 55.7315
101.444 2970 54.4977
101.561 2880 53.6656
101.679 2779 52.7162
101.796 2709 52.0481
101.913 2750 52.4404
102.03 2912 53.963
102.148 3292 57.376
102.265 3620 60.1664
102.382 3495 59.1185
102.499 3827 61.8628
102.616 3989 63.1585
102.733 4035 63.5216
102.851 3963 62.9524
102.968 4138 64.3273
103.085 4103 64.0547
103.202 3807 61.7009
103.319 3839 61.9597
103.436 3551 59.5903
103.552 3347 57.8533
103.669 3187 56.4535
103.786 2879 53.6563
103.903 2848 53.3667
104.02 2948 54.2955
104.137 2926 54.0925
104.253 3157 56.1872
104.37 3206 56.6216
104.487 3346 57.8446
104.603 3442 58.6686
104.72 3416 58.4466
104.836 3322 57.6368
104.953 3280 57.2713
105.069 3082 55.5158
105.186 2976 54.5527
105.302 3050 55.2268
105.418 3156 56.1783
105.535 3413 58.4209
105.651 3595 59.9583
105.767 3817 61.7819
105.883 4101 64.0391
105.999 4231 65.0461
106.115 0 1
106.231 0 1
106.347 0 1
106.463 0 1
106.579 0 1
106.694 0 1
106.81 0 1
106.926 0 1
107.041 0 1
107.157 0 1
109.576 0 1
109.692 0 1
109.807 0 1
109.923 0 1
110.039 0 1
110.155 0 1
110.27 0 1
110.386 0 1
110.502 0 1
110.618 3150 56.1249
110.735 3525 59.3717
110.851 3835 61.9274
110.967 3864 62.1611
111.083 3976 63.0555
111.199 4174 64.6065
111.316 4161 64.5058
111.432 4079 63.867
111.549 3975 63.0476
111.665 3972 63.0238
111.782 3832 61.9032
111.898 3500 59.1608
112.015 3457 58.7963
112.132 3210 56.6569
112.248 3129 55.9375
112.365 2890 53.7587
112.482 2878 53.647
112.599 2834 53.2353
112.716 2965 54.4518
112.832 3011 54.8726
112.949 3204 56.6039
113.066 3252 57.0263
113.183 3133 55.9732
113.3 3049 55.2178
113.417 2962 54.4243
113.534 2978 54.5711
113.652 2875 53.619
113.769 2793 52.8488
113.886 2747 52.4118
114.003 2883 53.6936
114.12 3076 55.4617
114.238 3437 58.6259
114.355 3540 59.4979
114.472 3645 60.3738
114.589 3802 61.6604
114.707 3851 62.0564
114.824 4042 63.5767
114.942 3903 62.474
115.059 3970 63.0079
115.176 3966 62.9762
115.294 3851 62.0564
115.411 3710 60.9098
115.529 3552 59.5987
115.646 3382 58.155
115.764 3182 56.4092
115.881 3026 55.0091
115.999 2890 53.7587
116.116 2888 53.7401
116.234 2974 54.5344
116.351 3016 54.9181
116.469 3230 56.8331
116.586 3227 56.8067
116.704 3178 56.3738
116.821 3153 56.1516
116.939 3137 56.0089
117.056 3011 54.8726
117.174 3013 54.8908
117.291 2968 54.4794
117.409 2958 54.3875
117.526 3047 55.1996
117.644 3211 56.6657
117.761 3490 59.0762
117.879 3760 61.3188
117.996 3841 61.9758
118.114 4017 63.3798
118.231 4144 64.3739
118.349 4099 64.0234
118.466 4138 64.3273
118.584 4173 64.5988
118.701 4250 65.192
118.819 4029 63.4744
118.936 4098 64.0156
119.053 3944 62.8013
119.171 3733 61.0983
119.288 3586 59.8832
119.405 3391 58.2323
119.523 3286 57.3236
119.64 3096 55.6417
119.757 3136 56
119.875 3136 56
119.992 3160 56.2139
120.109 3280 57.2713
120.226 3283 57.2975
120.343 3220 56.745
120.46 3282 57.2887
120.578 3165 56.2583
120.695 3135 55.9911
120.812 3084 55.5338
120.929 2978 54.5711
121.046 3152 56.1427
121.163 3073 55.4346
121.279 3337 57.7668
121.396 3433 58.5918
121.513 3579 59.8247
121.63 3753 61.2617
121.747 3959 62.9206
121.863 4022 63.4192
121.98 4154 64.4515
122.097 4137 64.3195
122.213 4175 64.6142
122.33 4092 63.9687
122.446 4176 64.622
122.563 4162 64.5136
122.679 3907 62.506
122.795 3818 61.79
122.912 3734 61.1065
123.028 3471 58.9152
123.144 3296 57.4108
123.26 3137 56.0089
123.377 0 1
123.493 0 1
123.609 0 1
123.725 0 1
123.84 0 1
123.956 0 1
124.072 0 1
124.188 0 1
124.303 0 1
124.419 0 1
126.852 0 1
126.968 0 1
127.083 0 1
127.199 0 1
127.315 0 1
127.431 0 1
127.547 0 1
127.663 0 1
127.779 0 1
127.895 0 1
128.011 0 1
128.127 0 1
128.243 0 1
128.359 3810 61.7252
128.476 3683 60.6877
128.592 3623 60.1914
128.708 3538 59.4811
128.825 3569 59.7411
128.941 3764 61.3514
129.058 3855 62.0886
129.174 3765 61.3596
129.291 3764 61.3514
129.408 3673 60.6053
129.524 3652 60.4318
129.641 3609 60.075
129.758 3551 59.5903
129.875 3605 60.0417
129.992 3519 59.3212
130.108 3547 59.5567
130.225 3544 59.5315
130.342 3825 61.8466
130.459 3922 62.6259
130.576 4361 66.0379
130.693 4325 65.7647
130.81 4277 65.3988
130.928 4380 66.1816
131.045 4536 67.3498
131.162 4551 67.4611
131.279 4678 68.3959
131.396 4580 67.6757
131.513 4369 66.0984
131.631 4312 65.6658
131.748 4246 65.1613
131.865 4149 64.4127
131.983 3885 62.3298
132.1 3798 61.6279
132.217 3730 61.0737
132.335 3722 61.0082
132.452 3926 62.6578
132.57 4085 63.914
132.687 3979 63.0793
132.804 4088 63.9375
132.922 4067 63.773
133.039 4082 63.8905
133.157 4005 63.2851
133.274 3860 62.1289
133.392 3877 62.2656
133.509 3802 61.6604
133.627 3926 62.6578
133.744 3904 62.482
133.862 3955 62.8888
133.979 4269 65.3376
134.097 4380 66.1816
134.214 4753 68.942
134.332 4477 66.9104
134.449 4617 67.9485
134.567 4743 68.8694
134.684 4768 69.0507
134.802 4868 69.7711
134.919 4846 69.6132
135.037 4752 68.9348
135.154 4744 68.8767
135.272 4637 68.0955
135.389 4614 67.9264
135.507 4424 66.5132
135.624 4272 65.3605
135.742 4016 63.3719
135.859 4059 63.7103
135.977 4081 63.8827
136.094 4128 64.2495
136.211 4200 64.8074
136.329 4192 64.7457
136.446 4215 64.923
136.564 4245 65.1537
136.681 4246 65.1613
136.798 4195 64.7688
136.915 4105 64.0703
137.033 3965 62.9682
137.15 4018 63.3877
137.267 4045 63.6003
137.384 4057 63.6946
137.502 4048 63.6239
137.619 4314 65.681
137.736 4523 67.2533
137.853 4459 66.7757
137.97 4654 68.2202
138.087 4774 69.0941
138.204 4814 69.383
138.321 4893 69.95
138.438 4862 69.728
138.555 4882 69.8713
138.672 4826 69.4694
138.788 4862 69.728
138.905 4918 70.1285
139.022 4615 67.9338
139.139 4573 67.624
139.255 4353 65.9773
139.372 4306 65.6201
139.488 4204 64.8383
139.605 4098 64.0156
139.721 4367 66.0833
139.838 4461 66.7907
139.954 4405 66.3702
140.071 4327 65.7799
140.187 4319 65.7191
140.303 4281 65.4294
140.419 4154 64.4515
140.535 4098 64.0156
140.652 3873 62.2334
140.768 0 1
140.884 0 1
141 0 1
141.115 0 1
141.231 0 1
141.347 0 1
141.463 0 1
141.578 0 1
141.694 0 1
144.104 0 1
144.219 0 1
144.335 0 1
144.45 0 1
144.566 0 1
144.682 0 1
144.798 0 1
144.914 0 1
145.03 0 1
145.146 8126 90.1443
145.262 8879 94.2284
145.378 9184 95.8332
145.494 8945 94.578
145.61 9030 95.0263
145.726 8918 94.4352
145.842 9035 95.0526
145.959 8984 94.784
146.075 9443 97.1751
146.192 9793 98.9596
146.308 10362 101.794
146.425 11120 105.451
146.541 11434 106.93
146.658 11936 109.252
146.774 12154 110.245
146.891 12554 112.045
147.008 12756 112.942
147.125 13153 114.687
147.241 13138 114.621
147.358 13072 114.333
147.475 12838 113.305
147.592 12506 111.83
147.709 12424 111.463
147.826 11773 108.503
147.943 11530 107.378
148.06 11165 105.665
148.177 11500 107.238
148.294 11967 109.394
148.411 12573 112.129
148.528 12880 113.49
148.645 13005 114.039
148.762 12910 113.622
148.88 12827 113.256
148.997 12160 110.272
149.114 13086 114.394
149.231 11840 108.812
149.349 11193 105.797
149.466 10779 103.822
149.583 10390 101.931
149.701 10406 102.01
149.818 10866 104.24
149.935 11398 106.761
150.053 11519 107.327
150.17 11705 108.19
150.287 12046 109.754
150.405 12374 111.238
150.522 12521 111.897
150.64 12710 112.739
150.757 12914 113.64
150.875 12795 113.115
150.992 12748 112.907
151.11 12100 110
151.227 12264 110.743
151.344 11622 107.805
151.462 11249 106.061
151.579 10944 104.614
151.697 10972 104.747
151.814 11245 106.042
151.932 11870 108.95
152.049 12177 110.349
152.167 12680 112.606
152.284 12847 113.345
152.402 12511 111.853
152.519 12661 112.521
152.636 12424 111.463
152.754 11950 109.316
152.871 11519 107.327
152.989 11074 105.233
153.106 10774 103.798
153.223 10397 101.966
153.341 10664 103.267
153.458 11028 105.014
153.575 11321 106.4
153.693 11500 107.238
153.81 12099 109.995
153.927 12224 110.562
154.044 12599 112.245
154.162 12587 112.192
154.279 12909 113.618
154.396 12958 113.833
154.513 13087 114.398
154.63 12813 113.195
154.747 12704 112.712
154.864 12136 110.164
154.981 12192 110.417
155.098 11682 108.083
155.215 11167 105.674
155.332 11179 105.731
155.449 11756 108.425
155.566 12102 110.009
155.683 12494 111.777
155.8 12530 111.937
155.917 12628 112.374
156.033 12610 112.294
156.15 0 1
156.267 0 1
156.383 0 1
156.5 0 1
156.617 0 1
156.733 0 1
156.85 0 1
156.966 0 1
157.082 0 1
157.199 0 1
157.315 0 1
157.431 0 1
157.547 0 1
157.664 0 1
157.78 0 1
157.896 0 1
158.012 0 1
158.128 0 1
158.244 0 1
158.359 0 1
158.475 0 1
158.591 0 1
158.706 0 1
