
6.15755 0 1
6.2731 0 1
6.3887 0 1
6.50437 0 1
6.62009 0 1
6.73587 0 1
6.8517 0 1
6.96759 0 1
7.08353 0 1
7.19952 0 1
7.31557 0 1
7.43166 0 1
7.54781 0 1
7.664 0 1
7.78024 0 1
7.89653 0 1
8.01286 0 1
8.12924 0 1
8.24567 0 1
8.36213 0 1
8.47864 0 1
8.59519 0 1
8.71178 0 1
8.82841 0 1
8.94508 0 1
9.06179 0 1
9.17853 0 1
9.29531 0 1
9.41212 0 1
9.52897 0 1
9.64584 0 1
9.76276 0 1
9.8797 0 1
9.99667 0 1
10.1137 0 1
10.2307 0 1
10.3478 0 1
10.4648 0 1
10.5819 0 1
10.6991 0 1
10.8162 0 1
10.9334 0 1
11.0506 0 1
11.1678 0 1
11.285 0 1
11.4023 0 1
11.5196 0 1
11.6369 0 1
11.7542 0 1
11.8715 0 1
11.9888 0 1
12.1062 0 1
12.2235 0 1
12.3409 0 1
12.4582 0 1
12.5756 0 1
12.693 0 1
12.8104 0 1
12.9278 0 1
13.0452 0 1
13.1626 0 1
13.28 0 1
13.3974 0 1
13.5149 0 1
13.6323 0 1
13.7497 0 1
13.8671 0 1
13.9845 0 1
14.1019 0 1
14.2193 0 1
14.3367 0 1
14.4541 0 1
14.5714 0 1
14.6888 0 1
14.8062 0 1
14.9235 0 1
15.0408 948 30.7896
15.1581 955 30.9031
15.2755 963 31.0322
15.3927 958 30.9516
15.51 974 31.209
15.6273 921 30.348
15.7445 908 30.133
15.8617 967 31.0966
15.9789 932 30.5287
16.0961 999 31.607
16.2132 1038 32.218
16.3304 1090 33.0151
16.4475 1036 32.187
16.5646 1133 33.6601
16.6816 1080 32.8634
16.7986 1104 33.2265
16.9156 1093 33.0606
17.0326 1085 32.9393
17.1496 1115 33.3916
17.2665 1052 32.4345
17.3833 1066 32.6497
17.5002 1091 33.0303
17.617 1086 32.9545
17.7338 1148 33.8821
17.8505 1150 33.9116
17.9672 1099 33.1512
18.0839 1178 34.322
18.2005 1144 33.8231
18.3171 1236 35.1568
18.4337 1268 35.609
18.5502 1294 35.9722
18.6666 1333 36.5103
18.7831 1232 35.0999
18.8994 1295 35.9861
19.0158 1188 34.4674
19.1321 1274 35.6931
19.2483 1161 34.0735
19.3645 1160 34.0588
19.4806 1139 33.7491
19.5967 1125 33.541
19.7128 1169 34.1906
19.8288 1238 35.1852
19.9447 1142 33.7935
20.0606 0 1
20.1764 0 1
20.2922 0 1
20.4079 0 1
20.5236 0 1
20.6392 0 1
20.7548 0 1
20.8702 0 1
23.3078 0 1
23.4233 0 1
23.539 0 1
23.6547 0 1
23.7704 0 1
23.8862 0 1
24.0021 0 1
24.118 0 1
24.234 0 1
24.35 0 1
24.4661 1201 34.6554
24.5822 1262 35.5246
24.6984 1213 34.8281
24.8146 1273 35.6791
24.9309 1290 35.9166
25.0472 1328 36.4417
25.1636 1425 37.7492
25.28 1334 36.524
25.3965 1354 36.7967
25.513 1399 37.4032
25.6296 1397 37.3765
25.7462 1348 36.7151
25.8628 1283 35.819
25.9795 1301 36.0694
26.0962 1254 35.4119
26.213 1356 36.8239
26.3298 1334 36.524
26.4466 1413 37.5899
26.5635 1392 37.3095
26.6804 1416 37.6298
26.7973 1472 38.3667
26.9143 1578 39.724
27.0313 1442 37.9737
27.1483 1582 39.7744
27.2653 1564 39.5474
27.3824 1558 39.4715
27.4996 1473 38.3797
27.6167 1435 37.8814
27.7339 1468 38.3145
27.8511 1378 37.1214
27.9683 1350 36.7423
28.0855 1277 35.7351
28.2028 1330 36.4692
28.3201 1323 36.3731
28.4374 1378 37.1214
28.5547 1429 37.8021
28.6721 1436 37.8946
28.7894 1531 39.128
28.9068 1462 38.2361
29.0242 1515 38.923
29.1416 1346 36.6879
29.259 1348 36.7151
29.3764 1344 36.6606
29.4939 1285 35.8469
29.6113 1353 36.7831
29.7288 1311 36.2077
29.8463 1276 35.7211
29.9638 1308 36.1663
30.0812 1464 38.2623
30.1987 1466 38.2884
30.3162 1520 38.9872
30.4337 1530 39.1152
30.5512 1554 39.4208
30.6687 1576 39.6989
30.7862 1619 40.2368
30.9037 1642 40.5216
31.0212 1612 40.1497
31.1387 1562 39.5221
31.2562 1572 39.6485
31.3737 1474 38.3927
31.4912 1460 38.2099
31.6087 1337 36.565
31.7262 1306 36.1386
31.8436 1340 36.606
31.9611 1362 36.9053
32.0785 1362 36.9053
32.1959 1475 38.4057
32.3134 1520 38.9872
32.4308 1573 39.6611
32.5482 1500 38.7298
32.6655 1447 38.0395
32.7829 1378 37.1214
32.9002 1356 36.8239
33.0176 1314 36.2491
33.1349 1324 36.3868
33.2522 1323 36.3731
33.3694 1377 37.108
33.4867 1431 37.8286
33.6039 1395 37.3497
33.7211 1500 38.7298
33.8383 1453 38.1182
33.9554 1560 39.4968
34.0725 1629 40.3609
34.1896 1589 39.8623
34.3067 1577 39.7115
34.4237 1581 39.7618
34.5407 1574 39.6737
34.6577 1669 40.8534
34.7746 1512 38.8844
34.8915 1523 39.0256
35.0084 1522 39.0128
35.1252 1498 38.704
35.242 1447 38.0395
35.3587 1402 37.4433
35.4755 1418 37.6563
35.5921 1466 38.2884
35.7088 1528 39.0896
35.8254 1493 38.6394
35.9419 1609 40.1123
36.0584 1500 38.7298
36.1749 1621 40.2616
36.2913 1496 38.6782
36.4077 1473 38.3797
36.524 1457 38.1707
36.6403 1388 37.2559
36.7565 1362 36.9053
36.8727 1358 36.8511
36.9889 1268 35.609
37.1049 1403 37.4566
37.221 0 1
37.3369 0 1
37.4529 0 1
37.5687 0 1
37.6845 0 1
37.8003 0 1
37.916 0 1
38.0316 0 1
38.1472 0 1
40.5851 0 1
40.7008 0 1
40.8164 0 1
40.9322 0 1
41.048 0 1
41.1639 0 1
41.2798 0 1
41.3958 0 1
41.5118 0 1
41.6279 0 1
41.744 1134 33.6749
41.8602 1162 34.0881
41.9765 1209 34.7707
42.0928 1224 34.9857
42.2091 1184 34.4093
42.3255 1282 35.805
42.4419 1335 36.5377
42.5584 1285 35.8469
42.675 1439 37.9342
42.7915 1468 38.3145
42.9081 1440 37.9473
43.0248 1418 37.6563
43.1415 1564 39.5474
43.2582 1513 38.8973
43.375 1511 38.8716
43.4918 1566 39.5727
43.6087 1502 38.7556
43.7256 1475 38.4057
43.8425 1409 37.5366
43.9595 1361 36.8917
44.0765 1335 36.5377
44.1935 1211 34.7994
44.3106 1218 34.8999
44.4277 1256 35.4401
44.5448 1339 36.5923
44.6619 1290 35.9166
44.7791 1357 36.8375
44.8963 1341 36.6197
45.0136 1315 36.2629
45.1308 1213 34.8281
45.2481 1210 34.7851
45.3654 1112 33.3467
45.4827 1039 32.2335
45.6001 1051 32.4191
45.7174 1033 32.1403
45.8348 1069 32.6956
45.9522 1127 33.5708
46.0697 1128 33.5857
46.1871 1209 34.7707
46.3046 1199 34.6266
46.422 1251 35.3695
46.5395 1220 34.9285
46.657 1256 35.4401
46.7745 1270 35.6371
46.892 1292 35.9444
47.0096 1261 35.5106
47.1271 1314 36.2491
47.2446 1252 35.3836
47.3622 1172 34.2345
47.4797 1201 34.6554
47.5973 1170 34.2053
47.7149 1115 33.3916
47.8324 1142 33.7935
47.95 1017 31.8904
48.0675 1072 32.7414
48.1851 1001 31.6386
48.3027 1049 32.3883
48.4202 1119 33.4515
48.5378 1039 32.2335
48.6554 1006 31.7175
48.7729 999 31.607
48.8904 897 29.95
49.008 900 30
49.1255 822 28.6705
49.243 916 30.2655
49.3605 941 30.6757
49.478 941 30.6757
49.5955 985 31.3847
49.713 1004 31.686
49.8304 1092 33.0454
49.9479 1137 33.7194
50.0653 1134 33.6749
50.1827 1190 34.4964
50.3001 1223 34.9714
50.4175 1243 35.2562
50.5348 1261 35.5106
50.6521 1191 34.5109
50.7694 1306 36.1386
50.8867 1206 34.7275
51.004 1242 35.242
51.1212 1252 35.3836
51.2384 1190 34.4964
51.3556 1182 34.3802
51.4727 1180 34.3511
51.5899 1206 34.7275
51.707 1343 36.647
51.824 1339 36.5923
51.9411 1396 37.3631
52.0581 1311 36.2077
52.175 1414 37.6032
52.2919 1349 36.7287
52.4088 1261 35.5106
52.5257 1162 34.0881
52.6425 1233 35.1141
52.7593 1195 34.5688
52.876 1233 35.1141
52.9927 1264 35.5528
53.1094 1344 36.6606
53.226 1475 38.4057
53.3426 1508 38.833
53.4591 1616 40.1995
53.5756 1734 41.6413
53.692 1751 41.845
53.8084 1818 42.638
53.9248 1816 42.6146
54.0411 1870 43.2435
54.1573 1883 43.3935
54.2735 0 1
54.3896 0 1
54.5057 0 1
54.6217 0 1
54.7377 0 1
54.8537 0 1
54.9695 0 1
55.0853 0 1
55.2011 0 1
55.3168 0 1
55.4324 0 1
57.824 0 1
57.9396 0 1
58.0553 0 1
58.1711 0 1
58.2869 0 1
58.4028 0 1
58.5187 0 1
58.6347 0 1
58.7508 0 1
58.8669 0 1
58.983 1968 44.3621
59.0992 2249 47.4236
59.2155 2229 47.2123
59.3318 2223 47.1487
59.4482 2220 47.1169
59.5646 2193 46.8295
59.681 2180 46.6905
59.7975 2127 46.1194
59.9141 1995 44.6654
60.0306 1997 44.6878
60.1473 2042 45.1885
60.2639 1968 44.3621
60.3807 2048 45.2548
60.4974 2026 45.0111
60.6142 2077 45.5741
60.731 1970 44.3847
60.8479 1817 42.6263
60.9648 1767 42.0357
61.0818 1677 40.9512
61.1987 1616 40.1995
61.3158 1552 39.3954
61.4328 1668 40.8412
61.5499 1668 40.8412
61.667 1740 41.7133
61.7841 1809 42.5323
61.9013 1863 43.1625
62.0185 1878 43.3359
62.1357 2098 45.8039
62.253 2161 46.4866
62.3702 2131 46.1628
62.4875 2115 45.9891
62.6049 2198 46.8828
62.7222 2129 46.1411
62.8396 2163 46.5081
62.9569 2191 46.8081
63.0743 1998 44.699
63.1918 2027 45.0222
63.3092 2018 44.9222
63.4267 1991 44.6206
63.5441 2012 44.8553
63.6616 2034 45.0999
63.7791 1941 44.0568
63.8966 1935 43.9886
64.0142 1952 44.1814
64.1317 1953 44.1928
64.2492 1867 43.2088
64.3668 1846 42.9651
64.4843 1709 41.3401
64.6019 1612 40.1497
64.7195 1551 39.3827
64.837 1475 38.4057
64.9546 1518 38.9615
65.0722 1517 38.9487
65.1898 1649 40.6079
65.3074 1770 42.0714
65.4249 1813 42.5793
65.5425 1936 44
65.6601 1904 43.6348
65.7777 2100 45.8258
65.8952 2106 45.8912
66.0128 2187 46.7654
66.1304 2097 45.793
66.2479 2144 46.3033
66.3655 2229 47.2123
66.483 2181 46.7012
66.6005 2146 46.3249
66.718 2155 46.422
66.8355 2026 45.0111
66.953 2046 45.2327
67.0705 2071 45.5082
67.1879 2052 45.299
67.3054 1969 44.3734
67.4228 2059 45.3762
67.5402 2088 45.6946
67.6576 2120 46.0435
67.7749 2115 45.9891
67.8923 2092 45.7384
68.0096 1981 44.5084
68.1269 1833 42.8135
68.2442 1700 41.2311
68.3614 1590 39.8748
68.4787 1641 40.5093
68.5958 1591 39.8873
68.713 1739 41.7013
68.8302 1763 41.9881
68.9473 1855 43.0697
69.0643 2072 45.5192
69.1814 2160 46.4758
69.2984 2211 47.0213
69.4154 2444 49.4368
69.5323 2596 50.951
69.6492 2468 49.679
69.7661 2490 49.8999
69.8829 2571 50.705
69.9997 2608 51.0686
70.1165 2602 51.0098
70.2332 2617 51.1566
70.3499 2580 50.7937
70.4665 2583 50.8232
70.5831 2488 49.8799
70.6996 2526 50.2593
70.8161 2425 49.2443
70.9326 2421 49.2037
71.049 2443 49.4267
71.1653 2544 50.4381
71.2817 2508 50.0799
71.3979 2497 49.97
71.5141 2388 48.8672
71.6303 2210 47.0106
71.7464 1927 43.8976
71.8624 0 1
71.9784 0 1
72.0944 0 1
72.2102 0 1
72.3261 0 1
72.4418 0 1
72.5575 0 1
72.6732 0 1
75.1054 0 1
75.2209 0 1
75.3365 0 1
75.4521 0 1
75.5678 0 1
75.6835 0 1
75.7993 0 1
75.9151 0 1
76.031 0 1
76.147 2396 48.949
76.263 2736 52.3068
76.3791 2735 52.2972
76.4952 2861 53.4883
76.6113 2779 52.7162
76.7276 2903 53.8795
76.8438 2802 52.9339
76.9601 2659 51.5655
77.0765 2452 49.5177
77.1929 2213 47.0425
77.3093 2190 46.7974
77.4258 1983 44.5309
77.5423 1896 43.5431
77.6589 2025 45
77.7755 2161 46.4866
77.8921 2350 48.4768
78.0088 2442 49.4166
78.1256 2749 52.4309
78.2423 2886 53.7215
78.3591 3060 55.3173
78.4759 3098 55.6597
78.5928 3104 55.7136
78.7097 3252 57.0263
78.8266 3040 55.1362
78.9436 3241 56.9298
79.0606 3204 56.6039
79.1776 3135 55.9911
79.2946 3141 56.0446
79.4117 3086 55.5518
79.5288 3012 54.8817
79.6459 2905 53.8981
79.7631 2943 54.2494
79.8802 2802 52.9339
79.9974 2853 53.4135
80.1147 2908 53.9259
80.2319 2971 54.5069
80.3491 3020 54.9545
80.4664 2973 54.5252
80.5837 2837 53.2635
80.701 2752 52.4595
80.8183 2394 48.9285
80.9357 2131 46.1628
81.053 1965 44.3283
81.1704 1958 44.2493
81.2877 1950 44.1588
81.4051 2022 44.9667
81.5225 2125 46.0977
81.6399 2418 49.1732
81.7573 2626 51.2445
81.8747 2710 52.0577
81.9922 2971 54.5069
82.1096 3090 55.5878
82.227 3110 55.7674
82.3444 3090 55.5878
82.4619 3024 54.9909
82.5793 3189 56.4712
82.6967 3095 55.6327
82.8142 3096 55.6417
82.9316 3040 55.1362
83.049 2942 54.2402
83.1664 2876 53.6284
83.2838 2846 53.3479
83.4012 2769 52.6213
83.5186 2873 53.6004
83.636 2824 53.1413
83.7534 2764 52.5738
83.8708 2777 52.6972
83.9881 2869 53.563
84.1055 2930 54.1295
84.2228 2774 52.6688
84.3401 2522 50.2195
84.4575 2312 48.0833
84.5747 2204 46.9468
84.692 1972 44.4072
84.8093 1878 43.3359
84.9265 1834 42.8252
85.0437 2042 45.1885
85.1609 2277 47.7179
85.2781 2521 50.2096
85.3952 2849 53.376
85.5123 3058 55.2992
85.6294 3116 55.8211
85.7465 3334 57.7408
85.8636 3370 58.0517
85.9806 3504 59.1946
86.0976 3408 58.3781
86.2145 3430 58.5662
86.3315 3563 59.6909
86.4484 3411 58.4038
86.5652 3682 60.6795
86.682 3625 60.208
86.7988 3548 59.5651
86.9156 3549 59.5735
87.0323 3571 59.7578
87.149 3614 60.1166
87.2657 3598 59.9833
87.3823 3687 60.7207
87.4988 3786 61.5305
87.6154 3780 61.4817
87.7318 3773 61.4248
87.8483 3559 59.6574
87.9647 3407 58.3695
88.081 2962 54.4243
88.1973 2737 52.3163
88.3136 2630 51.2835
88.4298 2512 50.1199
88.546 2594 50.9313
88.6621 2716 52.1153
88.7781 3061 55.3263
88.8942 0 1
89.0101 0 1
89.126 0 1
89.2419 0 1
89.3577 0 1
89.4734 0 1
89.5891 0 1
89.7047 0 1
89.8203 0 1
89.9358 0 1
92.3269 0 1
92.4424 0 1
92.558 0 1
92.6736 0 1
92.7893 0 1
92.905 0 1
93.0208 0 1
93.1366 0 1
93.2525 0 1
93.3685 0 1
93.4845 0 1
93.6005 2920 54.037
93.7167 2825 53.1507
93.8328 2878 53.647
93.949 2901 53.8609
94.0653 3084 55.5338
94.1816 3479 58.983
94.2979 3704 60.8605
94.4143 4063 63.7417
94.5307 4368 66.0908
94.6472 4461 66.7907
94.7637 4613 67.9191
94.8803 4590 67.7495
94.9969 4641 68.1249
95.1135 4808 69.3397
95.2302 4929 70.2068
95.3469 4733 68.7968
95.4637 4763 69.0145
95.5805 4679 68.4032
95.6973 4814 69.383
95.8142 4740 68.8477
95.9311 4644 68.1469
96.048 4562 67.5426
96.1649 4585 67.7126
96.2819 4574 67.6314
96.3989 4631 68.0515
96.516 4678 68.3959
96.633 4719 68.695
96.7501 4612 67.9117
96.8673 4468 66.8431
96.9844 4222 64.9769
97.1016 3793 61.5873
97.2188 3554 59.6154
97.336 3322 57.6368
97.4532 3031 55.0545
97.5704 2901 53.8609
97.6877 3064 55.3534
97.805 3145 56.0803
97.9223 3528 59.397
98.0396 3826 61.8547
98.1569 4015 63.364
98.2743 4572 67.6166
98.3916 4820 69.4262
98.509 4743 68.8694
98.6264 4765 69.029
98.7438 4824 69.455
98.8612 4836 69.5414
98.9786 4963 70.4486
99.096 4815 69.3902
99.2134 4808 69.3397
99.3308 4971 70.5053
99.4482 4891 69.9357
99.5656 4807 69.3325
99.6831 4762 69.0072
99.8005 4839 69.5629
99.9179 4687 68.4617
100.035 4688 68.469
100.153 4906 70.0428
100.27 4866 69.7567
100.388 4991 70.647
100.505 4578 67.6609
100.622 4393 66.2797
100.74 3939 62.7615
100.857 3659 60.4897
100.975 3358 57.9483
101.092 3062 55.3353
101.209 3072 55.4256
101.327 3167 56.2761
101.444 3446 58.7026
101.561 3819 61.7981
101.679 4156 64.467
101.796 4533 67.3276
101.913 4813 69.3758
102.03 4826 69.4694
102.148 4977 70.5479
102.265 4945 70.3207
102.382 5219 72.2426
102.499 5194 72.0694
102.616 4983 70.5904
102.733 5103 71.4353
102.851 5077 71.2531
102.968 5124 71.5821
103.085 5147 71.7426
103.202 5081 71.2811
103.319 4806 69.3253
103.436 4886 69.8999
103.552 4797 69.2604
103.669 4995 70.6753
103.786 5136 71.6659
103.903 5141 71.7008
104.02 4941 70.2922
104.137 4561 67.5352
104.253 4222 64.9769
104.37 3944 62.8013
104.487 3615 60.1249
104.603 3419 58.4722
104.72 3285 57.3149
104.836 3347 57.8533
104.953 3706 60.8769
105.069 4057 63.6946
105.186 4366 66.0757
105.302 4694 68.5128
105.418 5261 72.5328
105.535 5387 73.3962
105.651 5259 72.519
105.767 5552 74.5117
105.883 5559 74.5587
105.999 5430 73.6885
106.115 0 1
106.231 0 1
106.347 0 1
106.463 0 1
106.579 0 1
106.694 0 1
106.81 0 1
106.926 0 1
107.041 0 1
107.157 0 1
109.576 0 1
109.692 0 1
109.807 0 1
109.923 0 1
110.039 0 1
110.155 0 1
110.27 0 1
110.386 0 1
110.502 0 1
110.618 4786 69.1809
110.735 5035 70.9577
110.851 5057 71.1126
110.967 5224 72.2772
111.083 5137 71.6729
111.199 5092 71.3583
111.316 5044 71.0211
111.432 5074 71.232
111.549 4997 70.6895
111.665 4982 70.5833
111.782 4793 69.2315
111.898 4754 68.9493
112.015 4853 69.6635
112.132 4745 68.884
112.248 4903 70.0214
112.365 4900 70
112.482 4483 66.9552
112.599 4548 67.4389
112.716 4136 64.3117
112.832 3805 61.6847
112.949 3467 58.8812
113.066 3171 56.3116
113.183 3140 56.0357
113.3 3096 55.6417
113.417 3359 57.9569
113.534 3512 59.2621
113.652 3887 62.3458
113.769 4132 64.2806
113.886 4550 67.4537
114.003 4508 67.1416
114.12 4592 67.7643
114.238 4554 67.4833
114.355 4739 68.8404
114.472 4652 68.2056
114.589 4777 69.1158
114.707 4556 67.4981
114.824 4577 67.6535
114.942 4667 68.3154
115.059 4795 69.2459
115.176 4673 68.3593
115.294 4629 68.0368
115.411 4484 66.9627
115.529 4552 67.4685
115.646 4475 66.8954
115.764 4673 68.3593
115.881 4646 68.1616
115.999 4639 68.1102
116.116 4318 65.7115
116.234 4177 64.6297
116.351 3947 62.8252
116.469 3665 60.5392
116.586 3371 58.0603
116.704 3147 56.0981
116.821 3129 55.9375
116.939 3181 56.4004
117.056 3287 57.3324
117.174 3418 58.4637
117.291 3800 61.6441
117.409 4175 64.6142
117.526 4331 65.8103
117.644 4491 67.0149
117.761 4543 67.4018
117.879 4465 66.8207
117.996 4560 67.5278
118.114 4619 67.9632
118.231 4492 67.0224
118.349 4499 67.0746
118.466 4494 67.0373
118.584 4538 67.3647
118.701 4547 67.4314
118.819 4534 67.335
118.936 4480 66.9328
119.053 4350 65.9545
119.171 4169 64.5678
119.288 4188 64.7148
119.405 4368 66.0908
119.523 4339 65.8711
119.64 4410 66.4078
119.757 4334 65.8331
119.875 4021 63.4114
119.992 3842 61.9839
120.109 3719 60.9836
120.226 3418 58.4637
120.343 3234 56.8683
120.46 3199 56.5597
120.578 2994 54.7175
120.695 3152 56.1427
120.812 3325 57.6628
120.929 3493 59.1016
121.046 3658 60.4814
121.163 3872 62.2254
121.279 4102 64.0469
121.396 4248 65.1767
121.513 4355 65.9924
121.63 4348 65.9394
121.747 4417 66.4605
121.863 4343 65.9014
121.98 4290 65.4981
122.097 4198 64.792
122.213 4141 64.3506
122.33 4228 65.0231
122.446 4403 66.3551
122.563 4249 65.1844
122.679 4143 64.3661
122.795 4022 63.4192
122.912 4064 63.7495
123.028 4173 64.5988
123.144 4162 64.5136
123.26 4007 63.3009
123.377 0 1
123.493 0 1
123.609 0 1
123.725 0 1
123.84 0 1
123.956 0 1
124.072 0 1
124.188 0 1
124.303 0 1
124.419 0 1
126.852 0 1
126.968 0 1
127.083 0 1
127.199 0 1
127.315 0 1
127.431 0 1
127.547 0 1
127.663 0 1
127.779 0 1
127.895 0 1
128.011 0 1
128.127 0 1
128.243 0 1
128.359 4309 65.643
128.476 4404 66.3626
128.592 4377 66.1589
128.708 4331 65.8103
128.825 4064 63.7495
128.941 3821 61.8142
129.058 3631 60.2578
129.174 3396 58.2752
129.291 3401 58.3181
129.408 3260 57.0964
129.524 3243 56.9473
129.641 3625 60.208
129.758 3603 60.025
129.875 3786 61.5305
129.992 4064 63.7495
130.108 4242 65.1306
130.225 4216 64.9307
130.342 4278 65.4064
130.459 4202 64.8228
130.576 4446 66.6783
130.693 4335 65.8407
130.81 4270 65.3452
130.928 4202 64.8228
131.045 4273 65.3682
131.162 4302 65.5896
131.279 4406 66.3777
131.396 4452 66.7233
131.513 4206 64.8537
131.631 4242 65.1306
131.748 4149 64.4127
131.865 4380 66.1816
131.983 4279 65.4141
132.1 4332 65.8179
132.217 4207 64.8614
132.335 4130 64.2651
132.452 3961 62.9365
132.57 3758 61.3025
132.687 3509 59.2368
132.804 3425 58.5235
132.922 3372 58.0689
133.039 3326 57.6715
133.157 3381 58.1464
133.274 3567 59.7244
133.392 3659 60.4897
133.509 3803 61.6685
133.627 3904 62.482
133.744 4018 63.3877
133.862 3986 63.1348
133.979 4046 63.6082
134.097 4133 64.2884
134.214 4114 64.1405
134.332 4259 65.261
134.449 4051 63.6475
134.567 4036 63.5295
134.684 4127 64.2417
134.802 4188 64.7148
134.919 4089 63.9453
135.037 4139 64.3351
135.154 3994 63.1981
135.272 4182 64.6684
135.389 4127 64.2417
135.507 4235 65.0769
135.624 4195 64.7688
135.742 4070 63.7966
135.859 4056 63.6867
135.977 3846 62.0161
136.094 3711 60.918
136.211 3531 59.4222
136.329 3408 58.3781
136.446 3345 57.836
136.564 3255 57.0526
136.681 3266 57.1489
136.798 3207 56.6304
136.915 3300 57.4456
137.033 3548 59.5651
137.15 3577 59.808
137.267 3757 61.2944
137.384 3929 62.6817
137.502 3840 61.9677
137.619 3829 61.8789
137.736 3942 62.7853
137.853 3791 61.5711
137.97 3774 61.4329
138.087 3654 60.4483
138.204 3754 61.2699
138.321 3871 62.2174
138.438 3920 62.6099
138.555 4105 64.0703
138.672 3991 63.1744
138.788 3978 63.0714
138.905 3877 62.2656
139.022 3918 62.5939
139.139 4055 63.6789
139.255 3971 63.0159
139.372 4005 63.2851
139.488 3913 62.554
139.605 3812 61.7414
139.721 3666 60.5475
139.838 3602 60.0167
139.954 3378 58.1206
140.071 3230 56.8331
140.187 3341 57.8014
140.303 3181 56.4004
140.419 3143 56.0625
140.535 3263 57.1227
140.652 3275 57.2276
140.768 0 1
140.884 0 1
141 0 1
141.115 0 1
141.231 0 1
141.347 0 1
141.463 0 1
141.578 0 1
141.694 0 1
144.104 0 1
144.219 0 1
144.335 0 1
144.45 0 1
144.566 0 1
144.682 0 1
144.798 0 1
144.914 0 1
145.03 0 1
145.146 2362 48.6004
145.262 2541 50.4083
145.378 2511 50.1099
145.494 2558 50.5767
145.61 2574 50.7346
145.726 2614 51.1273
145.842 2742 52.3641
145.959 2889 53.7494
146.075 2887 53.7308
146.192 2970 54.4977
146.308 3003 54.7996
146.425 3000 54.7723
146.541 2897 53.8238
146.658 2845 53.3385
146.774 2909 53.9351
146.891 2903 53.8795
147.008 2845 53.3385
147.125 2855 53.4322
147.241 2984 54.626
147.358 2988 54.6626
147.475 2995 54.7266
147.592 3097 55.6507
147.709 3026 55.0091
147.826 3046 55.1906
147.943 3175 56.3471
148.06 3068 55.3895
148.177 3047 55.1996
148.294 3007 54.8361
148.411 2970 54.4977
148.528 2932 54.1479
148.645 2852 53.4041
148.762 2733 52.2781
148.88 2691 51.8748
148.997 2541 50.4083
149.114 2752 52.4595
149.231 2721 52.1632
149.349 2735 52.2972
149.466 2864 53.5164
149.583 2815 53.0566
149.701 2926 54.0925
149.818 2935 54.1756
149.935 2966 54.461
150.053 2933 54.1572
150.17 2983 54.6168
150.287 2949 54.3047
150.405 2933 54.1572
150.522 2823 53.1319
150.64 2790 52.8205
150.757 2908 53.9259
150.875 3015 54.909
150.992 3101 55.6866
151.11 3212 56.6745
151.227 3111 55.7763
151.344 3004 54.8088
151.462 2975 54.5436
151.579 3103 55.7046
151.697 3040 55.1362
151.814 3060 55.3173
151.932 3039 55.1271
152.049 3006 54.827
152.167 2932 54.1479
152.284 2958 54.3875
152.402 2775 52.6783
152.519 2699 51.9519
152.636 2708 52.0384
152.754 2761 52.5452
152.871 2770 52.6308
152.989 2745 52.3927
153.106 2725 52.2015
153.223 2878 53.647
153.341 2904 53.8888
153.458 3030 55.0454
153.575 2962 54.4243
153.693 3021 54.9636
153.81 2947 54.2863
153.927 2990 54.6809
154.044 2969 54.4885
154.162 2923 54.0648
154.279 2895 53.8052
154.396 2969 54.4885
154.513 3086 55.5518
154.63 3102 55.6956
154.747 3204 56.6039
154.864 3257 57.0701
154.981 3298 57.4282
155.098 3288 57.3411
155.215 3303 57.4717
155.332 3236 56.8859
155.449 3090 55.5878
155.566 3145 56.0803
155.683 3002 54.7905
155.8 3043 55.1634
155.917 3054 55.263
156.033 2902 53.8702
156.15 0 1
156.267 0 1
156.383 0 1
156.5 0 1
156.617 0 1
156.733 0 1
156.85 0 1
156.966 0 1
157.082 0 1
157.199 0 1
157.315 0 1
157.431 0 1
157.547 0 1
157.664 0 1
157.78 0 1
157.896 0 1
158.012 0 1
158.128 0 1
158.244 0 1
158.359 0 1
158.475 0 1
158.591 0 1
158.706 0 1
