
6.15755 0 1
6.2731 0 1
6.3887 0 1
6.50437 0 1
6.62009 0 1
6.73587 0 1
6.8517 0 1
6.96759 0 1
7.08353 0 1
7.19952 0 1
7.31557 0 1
7.43166 0 1
7.54781 0 1
7.664 0 1
7.78024 0 1
7.89653 0 1
8.01286 0 1
8.12924 0 1
8.24567 0 1
8.36213 0 1
8.47864 0 1
8.59519 0 1
8.71178 0 1
8.82841 0 1
8.94508 0 1
9.06179 0 1
9.17853 0 1
9.29531 0 1
9.41212 0 1
9.52897 0 1
9.64584 0 1
9.76276 0 1
9.8797 0 1
9.99667 0 1
10.1137 0 1
10.2307 0 1
10.3478 0 1
10.4648 0 1
10.5819 0 1
10.6991 0 1
10.8162 0 1
10.9334 0 1
11.0506 0 1
11.1678 0 1
11.285 0 1
11.4023 0 1
11.5196 0 1
11.6369 0 1
11.7542 0 1
11.8715 0 1
11.9888 0 1
12.1062 0 1
12.2235 0 1
12.3409 0 1
12.4582 0 1
12.5756 0 1
12.693 0 1
12.8104 0 1
12.9278 0 1
13.0452 0 1
13.1626 0 1
13.28 0 1
13.3974 0 1
13.5149 0 1
13.6323 0 1
13.7497 0 1
13.8671 0 1
13.9845 0 1
14.1019 0 1
14.2193 0 1
14.3367 0 1
14.4541 0 1
14.5714 0 1
14.6888 0 1
14.8062 0 1
14.9235 0 1
15.0408 23396 152.958
15.1581 24410 156.237
15.2755 24787 157.439
15.3927 24843 157.617
15.51 24952 157.962
15.6273 24603 156.853
15.7445 24670 157.067
15.8617 24777 157.407
15.9789 24617 156.898
16.0961 25621 160.066
16.2132 25575 159.922
16.3304 27067 164.521
16.4475 27329 165.315
16.5646 28095 167.616
16.6816 29679 172.276
16.7986 30236 173.885
16.9156 30749 175.354
17.0326 31281 176.864
17.1496 31942 178.723
17.2665 33036 181.758
17.3833 33669 183.491
17.5002 33733 183.665
17.617 33912 184.152
17.7338 33423 182.82
17.8505 34322 185.262
17.9672 33295 182.469
18.0839 31763 178.222
18.2005 30990 176.04
18.3171 31129 176.434
18.4337 32614 180.593
18.5502 33475 182.962
18.6666 34611 186.04
18.7831 34779 186.491
18.8994 34959 186.973
19.0158 34500 185.742
19.1321 33672 183.499
19.2483 32882 181.334
19.3645 32356 179.878
19.4806 32193 179.424
19.5967 31273 176.842
19.7128 31150 176.494
19.8288 29928 172.997
19.9447 27366 165.427
20.0606 0 1
20.1764 0 1
20.2922 0 1
20.4079 0 1
20.5236 0 1
20.6392 0 1
20.7548 0 1
20.8702 0 1
23.3078 0 1
23.4233 0 1
23.539 0 1
23.6547 0 1
23.7704 0 1
23.8862 0 1
24.0021 0 1
24.118 0 1
24.234 0 1
24.35 0 1
24.4661 31235 176.734
24.5822 31380 177.144
24.6984 31095 176.338
24.8146 31141 176.468
24.9309 30752 175.362
25.0472 31020 176.125
25.1636 31144 176.477
25.28 31511 177.513
25.3965 32324 179.789
25.513 33395 182.743
25.6296 34740 186.387
25.7462 35488 188.383
25.8628 35996 189.726
25.9795 36499 191.047
26.0962 36637 191.408
26.213 36870 192.016
26.3298 36818 191.88
26.4466 36560 191.207
26.5635 35690 188.918
26.6804 34183 184.886
26.7973 32689 180.801
26.9143 32140 179.276
27.0313 33374 182.686
27.1483 35065 187.257
27.2653 35738 189.045
27.3824 36172 190.189
27.4996 35905 189.486
27.6167 34787 186.513
27.7339 34385 185.432
27.8511 34013 184.426
27.9683 32833 181.199
28.0855 32434 180.094
28.2028 31991 178.86
28.3201 31039 176.179
28.4374 31422 177.263
28.5547 30739 175.325
28.6721 30619 174.983
28.7894 30670 175.129
28.9068 31038 176.176
29.0242 31962 178.779
29.1416 32886 181.345
29.259 33818 183.897
29.3764 34306 185.219
29.4939 35059 187.24
29.6113 35400 188.149
29.7288 35494 188.399
29.8463 35969 189.655
29.9638 35400 188.149
30.0812 34837 186.647
30.1987 33190 182.181
30.3162 30914 175.824
30.4337 30191 173.756
30.5512 31067 176.258
30.6687 32468 180.189
30.7862 33927 184.193
30.9037 34046 184.516
31.0212 34361 185.367
31.1387 34078 184.602
31.2562 33519 183.082
31.3737 33166 182.115
31.4912 32282 179.672
31.6087 32129 179.246
31.7262 31614 177.803
31.8436 30981 176.014
31.9611 30529 174.725
32.0785 30100 173.494
32.1959 30118 173.545
32.3134 29847 172.763
32.4308 30208 173.804
32.5482 30968 175.977
32.6655 31297 176.91
32.7829 32252 179.588
32.9002 32771 181.028
33.0176 33610 183.33
33.1349 34360 185.365
33.2522 34451 185.61
33.3694 34376 185.408
33.4867 34523 185.804
33.6039 34326 185.273
33.7211 34147 184.789
33.8383 32607 180.574
33.9554 30728 175.294
34.0725 28913 170.038
34.1896 28714 169.452
34.3067 29758 172.505
34.4237 31341 177.034
34.5407 32254 179.594
34.6577 32827 181.182
34.7746 32509 180.303
34.8915 32305 179.736
35.0084 32284 179.677
35.1252 31495 177.468
35.242 31044 176.193
35.3587 30198 173.776
35.4755 29837 172.734
35.5921 30013 173.243
35.7088 29157 170.754
35.8254 28896 169.988
35.9419 28411 168.556
36.0584 28537 168.929
36.1749 28768 169.611
36.2913 29133 170.684
36.4077 29784 172.58
36.524 30032 173.297
36.6403 30779 175.439
36.7565 31854 178.477
36.8727 32393 179.981
36.9889 32510 180.305
37.1049 32541 180.391
37.221 0 1
37.3369 0 1
37.4529 0 1
37.5687 0 1
37.6845 0 1
37.8003 0 1
37.916 0 1
38.0316 0 1
38.1472 0 1
40.5851 0 1
40.7008 0 1
40.8164 0 1
40.9322 0 1
41.048 0 1
41.1639 0 1
41.2798 0 1
41.3958 0 1
41.5118 0 1
41.6279 0 1
41.744 23747 154.101
41.8602 25535 159.797
41.9765 27028 164.402
42.0928 27625 166.208
42.2091 27350 165.378
42.3255 27767 166.634
42.4419 27278 165.161
42.5584 27240 165.045
42.675 26536 162.899
42.7915 24561 156.719
42.9081 23236 152.434
43.0248 22303 149.342
43.1415 23604 153.636
43.2582 24087 155.2
43.375 24968 158.013
43.4918 25704 160.325
43.6087 25781 160.565
43.7256 25810 160.655
43.8425 25407 159.396
43.9595 24665 157.051
44.0765 24158 155.428
44.1935 23606 153.642
44.3106 23139 152.115
44.4277 22703 150.675
44.5448 21715 147.36
44.6619 20778 144.146
44.7791 20145 141.933
44.8963 19770 140.606
45.0136 19620 140.071
45.1308 19696 140.342
45.2481 20028 141.52
45.3654 20591 143.496
45.4827 20763 144.094
45.6001 21503 146.639
45.7174 21726 147.397
45.8348 21749 147.475
45.9522 21106 145.279
46.0697 21045 145.069
46.1871 20607 143.551
46.3046 19465 139.517
46.422 17911 133.832
46.5395 16986 130.33
46.657 16943 130.165
46.7745 17842 133.574
46.892 18476 135.926
47.0096 18926 137.572
47.1271 19122 138.282
47.2446 19308 138.953
47.3622 19135 138.329
47.4797 18717 136.81
47.5973 18669 136.635
47.7149 18360 135.499
47.8324 18020 134.239
47.95 17517 132.352
48.0675 16887 129.95
48.1851 16721 129.31
48.3027 16148 127.075
48.4202 15731 125.423
48.5378 15641 125.064
48.6554 15881 126.02
48.7729 16114 126.941
48.8904 16637 128.984
49.008 17339 131.678
49.1255 18014 134.216
49.243 18399 135.643
49.3605 18400 135.647
49.478 18825 137.204
49.5955 18613 136.429
49.713 18050 134.35
49.8304 17284 131.469
49.9479 16154 127.098
50.0653 15452 124.306
50.1827 15742 125.467
50.3001 16612 128.888
50.4175 17551 132.48
50.5348 18709 136.781
50.6521 19912 141.11
50.7694 19767 140.595
50.8867 20436 142.955
51.004 20572 143.429
51.1212 20804 144.236
51.2384 20905 144.586
51.3556 21023 144.993
51.4727 20862 144.437
51.5899 20794 144.201
51.707 20653 143.712
51.824 20317 142.538
51.9411 20116 141.831
52.0581 20093 141.75
52.175 20447 142.993
52.2919 21489 146.591
52.4088 22213 149.04
52.5257 23590 153.59
52.6425 24498 156.518
52.7593 25012 158.152
52.876 25683 160.259
52.9927 25301 159.063
53.1094 25612 160.037
53.226 25860 160.81
53.3426 25668 160.212
53.4591 24150 155.403
53.5756 22639 150.463
53.692 21289 145.908
53.8084 21477 146.55
53.9248 22730 150.765
54.0411 23990 154.887
54.1573 25148 158.581
54.2735 0 1
54.3896 0 1
54.5057 0 1
54.6217 0 1
54.7377 0 1
54.8537 0 1
54.9695 0 1
55.0853 0 1
55.2011 0 1
55.3168 0 1
55.4324 0 1
57.824 0 1
57.9396 0 1
58.0553 0 1
58.1711 0 1
58.2869 0 1
58.4028 0 1
58.5187 0 1
58.6347 0 1
58.7508 0 1
58.8669 0 1
58.983 25348 159.211
59.0992 27387 165.49
59.2155 29525 171.828
59.3318 30592 174.906
59.4482 31837 178.429
59.5646 32272 179.644
59.681 32991 181.634
59.7975 32616 180.599
59.9141 32547 180.408
60.0306 32100 179.165
60.1473 31909 178.631
60.2639 30679 175.154
60.3807 30306 174.086
60.4974 29273 171.094
60.6142 28332 168.321
60.731 27558 166.006
60.8479 27398 165.523
60.9648 27597 166.123
61.0818 28589 169.083
61.1987 29119 170.643
61.3158 30641 175.046
61.4328 31253 176.785
61.5499 32233 179.536
61.667 31591 177.739
61.7841 31102 176.358
61.9013 30946 175.915
62.0185 29285 171.129
62.1357 27330 165.318
62.253 25928 161.022
62.3702 25159 158.616
62.4875 26211 161.898
62.6049 27661 166.316
62.7222 28820 169.765
62.8396 30439 174.468
62.9569 30618 174.98
63.0743 31114 176.392
63.1918 31660 177.933
63.3092 31480 177.426
63.4267 31078 176.29
63.5441 30428 174.436
63.6616 30131 173.583
63.7791 29566 171.948
63.8966 28693 169.39
64.0142 28040 167.451
64.1317 26717 163.453
64.2492 25614 160.044
64.3668 25380 159.311
64.4843 25908 160.96
64.6019 26532 162.886
64.7195 27534 165.934
64.837 28896 169.988
64.9546 29793 172.606
65.0722 29915 172.96
65.1898 30314 174.109
65.3074 31024 176.136
65.4249 29941 173.035
65.5425 28706 169.428
65.6601 27310 165.257
65.7777 25386 159.33
65.8952 24035 155.032
66.0128 23997 154.91
66.1304 24783 157.426
66.2479 26748 163.548
66.3655 28007 167.353
66.483 29131 170.678
66.6005 29902 172.922
66.718 30901 175.787
66.8355 30632 175.02
66.953 30663 175.109
67.0705 30461 174.531
67.1879 29929 173
67.3054 29294 171.155
67.4228 29118 170.64
67.5402 28367 168.425
67.6576 27426 165.608
67.7749 25998 161.239
67.8923 25096 158.417
68.0096 24587 156.802
68.1269 25128 158.518
68.2442 25858 160.804
68.3614 26974 164.238
68.4787 28367 168.425
68.5958 29854 172.783
68.713 30747 175.348
68.8302 30884 175.738
68.9473 31017 176.116
69.0643 30977 176.003
69.1814 30186 173.741
69.2984 28471 168.734
69.4154 26722 163.469
69.5323 25159 158.616
69.6492 24787 157.439
69.7661 25869 160.838
69.8829 27664 166.325
69.9997 29404 171.476
70.1165 30675 175.143
70.2332 31772 178.247
70.3499 32150 179.304
70.4665 32735 180.928
70.5831 32609 180.58
70.6996 32665 180.735
70.8161 32376 179.933
70.9326 31959 178.771
71.049 31395 177.186
71.1653 30354 174.224
71.2817 29622 172.11
71.3979 27812 166.769
71.5141 25961 161.124
71.6303 24395 156.189
71.7464 22889 151.291
71.8624 0 1
71.9784 0 1
72.0944 0 1
72.2102 0 1
72.3261 0 1
72.4418 0 1
72.5575 0 1
72.6732 0 1
75.1054 0 1
75.2209 0 1
75.3365 0 1
75.4521 0 1
75.5678 0 1
75.6835 0 1
75.7993 0 1
75.9151 0 1
76.031 0 1
76.147 28998 170.288
76.263 30628 175.009
76.3791 30210 173.81
76.4952 29524 171.825
76.6113 28129 167.717
76.7276 26709 163.429
76.8438 25882 160.879
76.9601 26361 162.361
77.0765 27318 165.282
77.1929 28849 169.85
77.3093 30700 175.214
77.4258 32128 179.243
77.5423 32750 180.97
77.6589 32931 181.469
77.7755 32657 180.712
77.8921 32331 179.808
78.0088 31190 176.607
78.1256 28981 170.238
78.2423 26937 164.125
78.3591 24431 156.304
78.4759 23697 153.938
78.5928 24866 157.69
78.7097 26920 164.073
78.8266 27919 167.09
78.9436 31001 176.071
79.0606 31413 177.237
79.1776 32358 179.883
79.2946 32433 180.092
79.4117 33132 182.022
79.5288 32795 181.094
79.6459 32653 180.701
79.7631 32230 179.527
79.8802 31648 177.899
79.9974 30731 175.303
80.1147 29896 172.905
80.2319 28313 168.265
80.3491 26588 163.058
80.4664 25442 159.505
80.5837 25664 160.2
80.701 26884 163.963
80.8183 28437 168.633
80.9357 30522 174.705
81.053 32123 179.229
81.1704 32336 179.822
81.2877 32198 179.438
81.4051 32411 180.031
81.5225 32555 180.43
81.6399 30941 175.901
81.7573 29507 171.776
81.8747 26859 163.887
81.9922 24918 157.854
82.1096 23885 154.548
82.227 24800 157.48
82.3444 27088 164.584
82.4619 29358 171.342
82.5793 30826 175.573
82.6967 31137 176.457
82.8142 32262 179.616
82.9316 32572 180.477
83.049 32891 181.359
83.1664 32970 181.576
83.2838 32910 181.411
83.4012 32759 180.994
83.5186 31610 177.792
83.636 31299 176.915
83.7534 30225 173.853
83.8708 28913 170.038
83.9881 27205 164.939
84.1055 25442 159.505
84.2228 25993 161.223
84.3401 26754 163.567
84.4575 28464 168.713
84.5747 30239 173.894
84.692 32501 180.28
84.8093 33598 183.298
84.9265 33644 183.423
85.0437 33958 184.277
85.1609 32936 181.483
85.2781 31067 176.258
85.3952 28594 169.098
85.5123 26595 163.08
85.6294 25220 158.808
85.7465 24988 158.076
85.8636 26908 164.037
85.9806 29089 170.555
86.0976 31001 176.071
86.2145 32542 180.394
86.3315 33549 183.164
86.4484 34273 185.13
86.5652 34461 185.637
86.682 34735 186.373
86.7988 35116 187.393
86.9156 34784 186.505
87.0323 34709 186.304
87.149 33783 183.802
87.2657 32694 180.815
87.3823 31814 178.365
87.4988 30398 174.35
87.6154 28124 167.702
87.7318 27514 165.873
87.8483 28318 168.28
87.9647 29877 172.85
88.081 32106 179.181
88.1973 34364 185.375
88.3136 35082 187.302
88.4298 35510 188.441
88.546 35034 187.174
88.6621 34770 186.467
88.7781 33363 182.655
88.8942 0 1
89.0101 0 1
89.126 0 1
89.2419 0 1
89.3577 0 1
89.4734 0 1
89.5891 0 1
89.7047 0 1
89.8203 0 1
89.9358 0 1
92.3269 0 1
92.4424 0 1
92.558 0 1
92.6736 0 1
92.7893 0 1
92.905 0 1
93.0208 0 1
93.1366 0 1
93.2525 0 1
93.3685 0 1
93.4845 0 1
93.6005 33042 181.775
93.7167 33673 183.502
93.8328 33210 182.236
93.949 32284 179.677
94.0653 30986 176.028
94.1816 29241 171
94.2979 27563 166.021
94.4143 26228 161.951
94.5307 26274 162.093
94.6472 27546 165.97
94.7637 29205 170.895
94.8803 30789 175.468
94.9969 32018 178.936
95.1135 33216 182.253
95.2302 33879 184.062
95.3469 34190 184.905
95.4637 35067 187.262
95.5805 35329 187.96
95.6973 35319 187.933
95.8142 35325 187.949
95.9311 34644 186.129
96.048 34413 185.507
96.1649 33440 182.866
96.2819 32440 180.111
96.3989 30981 176.014
96.516 28925 170.074
96.633 27901 167.036
96.7501 28109 167.657
96.8673 29028 170.376
96.9844 30881 175.73
97.1016 32883 181.337
97.2188 34204 184.943
97.336 35052 187.222
97.4532 34836 186.644
97.5704 34416 185.515
97.6877 33477 182.967
97.805 31597 177.755
97.9223 29075 170.514
98.0396 27770 166.643
98.1569 26682 163.346
98.2743 26603 163.104
98.3916 27293 165.206
98.509 29408 171.488
98.6264 30785 175.457
98.7438 32581 180.502
98.8612 33229 182.288
98.9786 34071 184.583
99.096 34202 184.938
99.2134 34952 186.955
99.3308 34860 186.708
99.4482 34815 186.588
99.5656 34109 184.686
99.6831 33778 183.788
99.8005 32794 181.091
99.9179 31741 178.16
100.035 30134 173.591
100.153 28701 169.414
100.27 27172 164.839
100.388 27689 166.4
100.505 29432 171.558
100.622 31641 177.879
100.74 33653 183.448
100.857 34007 184.41
100.975 34469 185.658
101.092 34567 185.922
101.209 34427 185.545
101.327 33097 181.926
101.444 31336 177.02
101.561 28780 169.647
101.679 27788 166.697
101.796 26954 164.177
101.913 27092 164.596
102.03 28620 169.174
102.148 30900 175.784
102.265 30261 173.957
102.382 36342 190.636
102.499 34616 186.054
102.616 35488 188.383
102.733 35691 188.921
102.851 36335 190.617
102.968 37016 192.395
103.085 36504 191.06
103.202 36107 190.018
103.319 35214 187.654
103.436 34757 186.432
103.552 32775 181.039
103.669 30567 174.834
103.786 29302 171.178
103.903 29558 171.924
104.02 31491 177.457
104.137 33842 183.962
104.253 36115 190.039
104.37 36651 191.445
104.487 36767 191.747
104.603 37130 192.691
104.72 36717 191.617
104.836 35079 187.294
104.953 32731 180.917
105.069 30708 175.237
105.186 29375 171.391
105.302 28838 169.818
105.418 29369 171.374
105.535 31671 177.963
105.651 33475 182.962
105.767 35306 187.899
105.883 35882 189.425
105.999 36412 190.819
106.115 0 1
106.231 0 1
106.347 0 1
106.463 0 1
106.579 0 1
106.694 0 1
106.81 0 1
106.926 0 1
107.041 0 1
107.157 0 1
109.576 0 1
109.692 0 1
109.807 0 1
109.923 0 1
110.039 0 1
110.155 0 1
110.27 0 1
110.386 0 1
110.502 0 1
110.618 28399 168.52
110.735 30300 174.069
110.851 31120 176.409
110.967 31923 178.67
111.083 32598 180.549
111.199 33054 181.808
111.316 33214 182.247
111.432 33247 182.338
111.549 33055 181.81
111.665 31783 178.278
111.782 31568 177.674
111.898 30291 174.043
112.015 28730 169.499
112.132 26715 163.447
112.248 25269 158.962
112.365 25580 159.937
112.482 27671 166.346
112.599 28669 169.319
112.716 30384 174.31
112.832 30673 175.137
112.949 29985 173.162
113.066 30260 173.954
113.183 29541 171.875
113.3 28009 167.359
113.417 26447 162.625
113.534 24405 156.221
113.652 23148 152.145
113.769 22315 149.382
113.886 22002 148.331
114.003 23510 153.33
114.12 24919 157.858
114.238 25394 159.355
114.355 26210 161.895
114.472 26696 163.389
114.589 26237 161.978
114.707 27243 165.055
114.824 27092 164.596
114.942 26986 164.274
115.059 26619 163.153
115.176 26084 161.505
115.294 25701 160.315
115.411 24607 156.866
115.529 23494 153.278
115.646 21688 147.268
115.764 19966 141.301
115.881 20081 141.707
115.999 20461 143.042
116.116 21978 148.25
116.234 22885 151.278
116.351 23105 152.003
116.469 23081 151.924
116.586 23052 151.829
116.704 22778 150.924
116.821 21982 148.263
116.939 20778 144.146
117.056 19644 140.157
117.174 18738 136.887
117.291 17870 133.679
117.409 17510 132.325
117.526 17945 133.959
117.644 19099 138.199
117.761 19726 140.449
117.879 20576 143.443
117.996 20689 143.837
118.114 21443 146.434
118.231 21606 146.99
118.349 21750 147.479
118.466 21943 148.132
118.584 22417 149.723
118.701 22360 149.533
118.819 21774 147.56
118.936 21756 147.499
119.053 21126 145.348
119.171 20493 143.154
119.288 19625 140.089
119.405 18355 135.481
119.523 18566 136.257
119.64 19816 140.769
119.757 21415 146.339
119.875 21915 148.037
119.992 22613 150.376
120.109 23059 151.852
120.226 23204 152.329
120.343 23139 152.115
120.46 22818 151.056
120.578 21980 148.257
120.695 20900 144.568
120.812 20146 141.937
120.929 19805 140.73
121.046 19306 138.946
121.163 19193 138.539
121.279 20211 142.165
121.396 21524 146.711
121.513 22546 150.153
121.63 23454 153.147
121.747 23986 154.874
121.863 24670 157.067
121.98 25304 159.072
122.097 25699 160.309
122.213 26016 161.295
122.33 25936 161.047
122.446 26269 162.077
122.563 25604 160.012
122.679 25730 160.406
122.795 24970 158.019
122.912 24630 156.939
123.028 22981 151.595
123.144 22271 149.235
123.26 22179 148.926
123.377 0 1
123.493 0 1
123.609 0 1
123.725 0 1
123.84 0 1
123.956 0 1
124.072 0 1
124.188 0 1
124.303 0 1
124.419 0 1
126.852 0 1
126.968 0 1
127.083 0 1
127.199 0 1
127.315 0 1
127.431 0 1
127.547 0 1
127.663 0 1
127.779 0 1
127.895 0 1
128.011 0 1
128.127 0 1
128.243 0 1
128.359 26426 162.561
128.476 25966 161.14
128.592 26710 163.432
128.708 28441 168.645
128.825 30218 173.833
128.941 30870 175.699
129.058 31139 176.462
129.174 30967 175.974
129.291 30946 175.915
129.408 30107 173.514
129.524 28820 169.765
129.641 27511 165.864
129.758 26194 161.846
129.875 25181 158.685
129.992 24473 156.438
130.108 24150 155.403
130.225 24631 156.943
130.342 25683 160.259
130.459 26405 162.496
130.576 26797 163.698
130.693 27210 164.955
130.81 27781 166.676
130.928 27932 167.129
131.045 28002 167.338
131.162 28098 167.625
131.279 28471 168.734
131.396 28033 167.431
131.513 27852 166.889
131.631 27314 165.269
131.748 26068 161.456
131.865 24883 157.743
131.983 23659 153.815
132.1 23748 154.104
132.217 25186 158.701
132.335 26354 162.339
132.452 26985 164.271
132.57 27093 164.6
132.687 25934 161.04
132.804 27300 165.227
132.922 26215 161.91
133.039 24929 157.889
133.157 23761 154.146
133.274 22940 151.46
133.392 21515 146.68
133.509 20995 144.897
133.627 20443 142.979
133.744 20958 144.769
133.862 21661 147.177
133.979 21810 147.682
134.097 22423 149.743
134.214 22794 150.977
134.332 22254 149.178
134.449 22889 151.291
134.567 22890 151.294
134.684 22811 151.033
134.802 22734 150.778
134.919 22545 150.15
135.037 22158 148.856
135.154 21465 146.509
135.272 20772 144.125
135.389 19671 140.253
135.507 18542 136.169
135.624 18617 136.444
135.742 18977 137.757
135.859 19821 140.787
135.977 20669 143.767
136.094 20504 143.192
136.211 20327 142.573
136.329 20321 142.552
136.446 20007 141.446
136.564 19512 139.685
136.681 18269 135.163
136.798 17915 133.847
136.915 17210 131.187
137.033 16358 127.898
137.15 16073 126.779
137.267 15933 126.226
137.384 16306 127.695
137.502 16807 129.642
137.619 17284 131.469
137.736 17814 133.469
137.853 17746 133.214
137.97 18377 135.562
138.087 18715 136.803
138.204 19039 137.982
138.321 19480 139.571
138.438 19903 141.078
138.555 19927 141.163
138.672 20124 141.859
138.788 19943 141.22
138.905 19690 140.321
139.022 19122 138.282
139.139 18628 136.484
139.255 18759 136.963
139.372 19716 140.414
139.488 21160 145.465
139.605 22046 148.479
139.721 22343 149.476
139.838 22800 150.997
139.954 23097 151.977
140.071 22493 149.977
140.187 22938 151.453
140.303 21856 147.838
140.419 21044 145.066
140.535 20565 143.405
140.652 19703 140.367
140.768 0 1
140.884 0 1
141 0 1
141.115 0 1
141.231 0 1
141.347 0 1
141.463 0 1
141.578 0 1
141.694 0 1
144.104 0 1
144.219 0 1
144.335 0 1
144.45 0 1
144.566 0 1
144.682 0 1
144.798 0 1
144.914 0 1
145.03 0 1
145.146 19246 138.73
145.262 19256 138.766
145.378 18684 136.689
145.494 18071 134.428
145.61 17437 132.049
145.726 16990 130.346
145.842 16483 128.386
145.959 15940 126.254
146.075 16142 127.051
146.192 16280 127.593
146.308 16357 127.894
146.425 16640 128.996
146.541 16981 130.311
146.658 17027 130.488
146.774 16663 129.085
146.891 17238 131.294
147.008 16785 129.557
147.125 17213 131.198
147.241 16912 130.046
147.358 16944 130.169
147.475 16633 128.969
147.592 15490 124.459
147.709 14890 122.025
147.826 14554 120.64
147.943 14650 121.037
148.06 14800 121.655
148.177 15675 125.2
148.294 15827 125.805
148.411 15875 125.996
148.528 15758 125.531
148.645 15654 125.116
148.762 15218 123.361
148.88 15127 122.992
148.997 15225 123.39
149.114 12947 113.785
149.231 13438 115.922
149.349 12835 113.292
149.466 12879 113.486
149.583 12790 113.093
149.701 12671 112.566
149.818 12727 112.814
149.935 13252 115.117
150.053 13191 114.852
150.17 13601 116.623
150.287 14056 118.558
150.405 13705 117.068
150.522 13964 118.169
150.64 14129 118.865
150.757 14340 119.75
150.875 14742 121.417
150.992 14380 119.917
151.11 14614 120.888
151.227 14190 119.122
151.344 13531 116.323
151.462 13268 115.187
151.579 13542 116.37
151.697 14416 120.067
151.814 15141 123.049
151.932 15524 124.595
152.049 15732 125.427
152.167 15775 125.599
152.284 15656 125.124
152.402 15530 124.619
152.519 15082 122.809
152.636 15022 122.564
152.754 14537 120.569
152.871 14438 120.158
152.989 14078 118.651
153.106 14010 118.364
153.223 13837 117.631
153.341 14063 118.588
153.458 14390 119.958
153.575 14795 121.635
153.693 15020 122.556
153.81 15109 122.919
153.927 15433 124.23
154.044 15765 125.559
154.162 16071 126.771
154.279 16434 128.195
154.396 16839 129.765
154.513 17296 131.514
154.63 17374 131.81
154.747 17315 131.586
154.864 17324 131.621
154.981 16640 128.996
155.098 16458 128.289
155.215 16781 129.541
155.332 17594 132.642
155.449 18316 135.337
155.566 18565 136.253
155.683 18915 137.532
155.8 18884 137.419
155.917 18867 137.357
156.033 19078 138.123
156.15 0 1
156.267 0 1
156.383 0 1
156.5 0 1
156.617 0 1
156.733 0 1
156.85 0 1
156.966 0 1
157.082 0 1
157.199 0 1
157.315 0 1
157.431 0 1
157.547 0 1
157.664 0 1
157.78 0 1
157.896 0 1
158.012 0 1
158.128 0 1
158.244 0 1
158.359 0 1
158.475 0 1
158.591 0 1
158.706 0 1
