
6.15755 0 1
6.2731 0 1
6.3887 0 1
6.50437 0 1
6.62009 0 1
6.73587 0 1
6.8517 0 1
6.96759 0 1
7.08353 0 1
7.19952 0 1
7.31557 0 1
7.43166 0 1
7.54781 0 1
7.664 0 1
7.78024 0 1
7.89653 0 1
8.01286 0 1
8.12924 0 1
8.24567 0 1
8.36213 0 1
8.47864 0 1
8.59519 0 1
8.71178 0 1
8.82841 0 1
8.94508 0 1
9.06179 0 1
9.17853 0 1
9.29531 0 1
9.41212 0 1
9.52897 0 1
9.64584 0 1
9.76276 0 1
9.8797 0 1
9.99667 0 1
10.1137 0 1
10.2307 0 1
10.3478 0 1
10.4648 0 1
10.5819 0 1
10.6991 0 1
10.8162 0 1
10.9334 0 1
11.0506 0 1
11.1678 0 1
11.285 0 1
11.4023 0 1
11.5196 0 1
11.6369 0 1
11.7542 0 1
11.8715 0 1
11.9888 0 1
12.1062 0 1
12.2235 0 1
12.3409 0 1
12.4582 0 1
12.5756 0 1
12.693 0 1
12.8104 0 1
12.9278 0 1
13.0452 0 1
13.1626 0 1
13.28 0 1
13.3974 0 1
13.5149 0 1
13.6323 0 1
13.7497 0 1
13.8671 0 1
13.9845 0 1
14.1019 0 1
14.2193 0 1
14.3367 0 1
14.4541 0 1
14.5714 0 1
14.6888 0 1
14.8062 0 1
14.9235 0 1
15.0408 8653 93.0215
15.1581 9037 95.0631
15.2755 9277 96.3172
15.3927 9141 95.6086
15.51 9341 96.6488
15.6273 9443 97.1751
15.7445 9320 96.5401
15.8617 9297 96.421
15.9789 9296 96.4158
16.0961 9424 97.0773
16.2132 9558 97.765
16.3304 9830 99.1464
16.4475 10201 101
16.5646 10605 102.981
16.6816 10966 104.719
16.7986 11029 105.019
16.9156 11470 107.098
17.0326 11824 108.738
17.1496 12089 109.95
17.2665 12490 111.759
17.3833 12147 110.213
17.5002 12441 111.539
17.617 12564 112.089
17.7338 12622 112.348
17.8505 12692 112.659
17.9672 12443 111.548
18.0839 11694 108.139
18.2005 11619 107.791
18.3171 11482 107.154
18.4337 12013 109.604
18.5502 12472 111.678
18.6666 12779 113.044
18.7831 13003 114.031
18.8994 12672 112.57
19.0158 12808 113.172
19.1321 12645 112.45
19.2483 12075 109.886
19.3645 12055 109.795
19.4806 11886 109.023
19.5967 11843 108.826
19.7128 11478 107.135
19.8288 11022 104.986
19.9447 10120 100.598
20.0606 0 1
20.1764 0 1
20.2922 0 1
20.4079 0 1
20.5236 0 1
20.6392 0 1
20.7548 0 1
20.8702 0 1
23.3078 0 1
23.4233 0 1
23.539 0 1
23.6547 0 1
23.7704 0 1
23.8862 0 1
24.0021 0 1
24.118 0 1
24.234 0 1
24.35 0 1
24.4661 11811 108.678
24.5822 11488 107.182
24.6984 11480 107.145
24.8146 11459 107.047
24.9309 11157 105.627
25.0472 11202 105.84
25.1636 11213 105.891
25.28 11559 107.513
25.3965 11979 109.449
25.513 12401 111.36
25.6296 12799 113.133
25.7462 13203 114.904
25.8628 13403 115.771
25.9795 13653 116.846
26.0962 13613 116.675
26.213 13543 116.374
26.3298 13755 117.282
26.4466 13422 115.853
26.5635 13273 115.209
26.6804 12830 113.27
26.7973 12118 110.082
26.9143 11813 108.688
27.0313 12304 110.923
27.1483 12907 113.609
27.2653 13314 115.386
27.3824 13292 115.291
27.4996 13141 114.634
27.6167 13021 114.11
27.7339 12757 112.947
27.8511 12331 111.045
27.9683 12158 110.263
28.0855 12158 110.263
28.2028 11990 109.499
28.3201 11559 107.513
28.4374 11565 107.541
28.5547 11438 106.949
28.6721 11239 106.014
28.7894 11307 106.334
28.9068 11556 107.499
29.0242 11861 108.908
29.1416 12013 109.604
29.259 12299 110.901
29.3764 12633 112.397
29.4939 12883 113.503
29.6113 13132 114.595
29.7288 13083 114.381
29.8463 12993 113.987
29.9638 13197 114.878
30.0812 13057 114.267
30.1987 12337 111.072
30.3162 11556 107.499
30.4337 11045 105.095
30.5512 11304 106.32
30.6687 11962 109.371
30.7862 12553 112.04
30.9037 12444 111.553
31.0212 12729 112.823
31.1387 12702 112.703
31.2562 12546 112.009
31.3737 12389 111.306
31.4912 12239 110.63
31.6087 11680 108.074
31.7262 11680 108.074
31.8436 11409 106.813
31.9611 11120 105.451
32.0785 11032 105.033
32.1959 10929 104.542
32.3134 10959 104.685
32.4308 11028 105.014
32.5482 11318 106.386
32.6655 11619 107.791
32.7829 11973 109.421
32.9002 12314 110.968
33.0176 12457 111.611
33.1349 12801 113.142
33.2522 12973 113.899
33.3694 12679 112.601
33.4867 12709 112.734
33.6039 12644 112.446
33.7211 12581 112.165
33.8383 12056 109.8
33.9554 11281 106.212
34.0725 10754 103.701
34.1896 10888 104.346
34.3067 10903 104.417
34.4237 11400 106.771
34.5407 11672 108.037
34.6577 12003 109.558
34.7746 11989 109.494
34.8915 11998 109.535
35.0084 11709 108.208
35.1252 11586 107.638
35.242 11621 107.801
35.3587 11264 106.132
35.4755 11026 105.005
35.5921 10849 104.159
35.7088 11099 105.352
35.8254 10768 103.769
35.9419 10521 102.572
36.0584 10566 102.791
36.1749 10578 102.849
36.2913 10809 103.966
36.4077 11075 105.238
36.524 11494 107.21
36.6403 11607 107.736
36.7565 11808 108.665
36.8727 12113 110.059
36.9889 12024 109.654
37.1049 12146 110.209
37.221 0 1
37.3369 0 1
37.4529 0 1
37.5687 0 1
37.6845 0 1
37.8003 0 1
37.916 0 1
38.0316 0 1
38.1472 0 1
40.5851 0 1
40.7008 0 1
40.8164 0 1
40.9322 0 1
41.048 0 1
41.1639 0 1
41.2798 0 1
41.3958 0 1
41.5118 0 1
41.6279 0 1
41.744 8526 92.3363
41.8602 9463 97.278
41.9765 9605 98.0051
42.0928 10015 100.075
42.2091 10203 101.01
42.3255 9977 99.8849
42.4419 10083 100.414
42.5584 10043 100.215
42.675 9609 98.0255
42.7915 9227 96.0573
42.9081 8410 91.7061
43.0248 8069 89.8276
43.1415 8358 91.4221
43.2582 8912 94.4034
43.375 9132 95.5615
43.4918 9493 97.432
43.6087 9362 96.7574
43.7256 9264 96.2497
43.8425 9162 95.7183
43.9595 8984 94.784
44.0765 8902 94.3504
44.1935 8463 91.9946
44.3106 8343 91.34
44.4277 8239 90.7689
44.5448 7983 89.3476
44.6619 7425 86.1684
44.7791 7199 84.8469
44.8963 7081 84.1487
45.0136 7114 84.3445
45.1308 7152 84.5695
45.2481 7221 84.9765
45.3654 7406 86.0581
45.4827 7681 87.6413
45.6001 7709 87.8009
45.7174 7852 88.6115
45.8348 7766 88.1249
45.9522 7756 88.0682
46.0697 7621 87.2983
46.1871 7341 85.6796
46.3046 7075 84.113
46.422 6529 80.8022
46.5395 6226 78.905
46.657 6084 78
46.7745 6396 79.975
46.892 6738 82.0853
47.0096 6986 83.5823
47.1271 6961 83.4326
47.2446 7027 83.8272
47.3622 7100 84.2615
47.4797 6729 82.0305
47.5973 6805 82.4924
47.7149 6602 81.2527
47.8324 6445 80.2808
47.95 6281 79.2528
48.0675 6049 77.7753
48.1851 6037 77.6981
48.3027 5739 75.7562
48.4202 5661 75.2396
48.5378 5573 74.6525
48.6554 5784 76.0526
48.7729 5775 75.9934
48.8904 6038 77.7046
49.008 6110 78.1665
49.1255 6490 80.5605
49.243 6648 81.5353
49.3605 6685 81.7618
49.478 6809 82.5167
49.5955 6760 82.2192
49.713 6491 80.5667
49.8304 6100 78.1025
49.9479 5964 77.2269
50.0653 5690 75.4321
50.1827 5518 74.2832
50.3001 5839 76.4133
50.4175 6224 78.8923
50.5348 6614 81.3265
50.6521 7026 83.8212
50.7694 6975 83.5165
50.8867 7271 85.2702
51.004 7458 86.3597
51.1212 7382 85.9186
51.2384 7527 86.7583
51.3556 7404 86.0465
51.4727 7501 86.6083
51.5899 7532 86.7871
51.707 7410 86.0814
51.824 7350 85.7321
51.9411 7304 85.4634
52.0581 7059 84.0179
52.175 7346 85.7088
52.2919 7594 87.1436
52.4088 8066 89.8109
52.5257 8493 92.1575
52.6425 8861 94.1329
52.7593 8977 94.747
52.876 9090 95.3415
52.9927 9346 96.6747
53.1094 9454 97.2317
53.226 9479 97.3602
53.3426 9447 97.1957
53.4591 8839 94.016
53.5756 8320 91.214
53.692 7988 89.3756
53.8084 7804 88.3403
53.9248 8142 90.233
54.0411 8800 93.8083
54.1573 9236 96.1041
54.2735 0 1
54.3896 0 1
54.5057 0 1
54.6217 0 1
54.7377 0 1
54.8537 0 1
54.9695 0 1
55.0853 0 1
55.2011 0 1
55.3168 0 1
55.4324 0 1
57.824 0 1
57.9396 0 1
58.0553 0 1
58.1711 0 1
58.2869 0 1
58.4028 0 1
58.5187 0 1
58.6347 0 1
58.7508 0 1
58.8669 0 1
58.983 9090 95.3415
59.0992 10095 100.474
59.2155 10765 103.755
59.3318 11151 105.598
59.4482 11709 108.208
59.5646 11836 108.793
59.681 11992 109.508
59.7975 12085 109.932
59.9141 11931 109.229
60.0306 11728 108.296
60.1473 11561 107.522
60.2639 11080 105.262
60.3807 11024 104.995
60.4974 10602 102.966
60.6142 10358 101.774
60.731 10105 100.524
60.8479 9820 99.0959
60.9648 9849 99.2421
61.0818 10247 101.227
61.1987 10669 103.291
61.3158 11161 105.646
61.4328 11564 107.536
61.5499 11565 107.541
61.667 11547 107.457
61.7841 11388 106.715
61.9013 11112 105.413
62.0185 10651 103.204
62.1357 10208 101.035
62.253 9550 97.7241
62.3702 9239 96.1197
62.4875 9461 97.2677
62.6049 9900 99.4987
62.7222 10261 101.297
62.8396 10791 103.88
62.9569 10957 104.676
63.0743 11182 105.745
63.1918 11389 106.719
63.3092 11212 105.887
63.4267 11188 105.773
63.5441 11115 105.428
63.6616 10862 104.221
63.7791 10814 103.99
63.8966 10345 101.71
64.0142 9946 99.7296
64.1317 9698 98.4784
64.2492 9238 96.1145
64.3668 9062 95.1945
64.4843 9274 96.3016
64.6019 9592 97.9388
64.7195 9916 99.5791
64.837 10428 102.118
64.9546 10763 103.745
65.0722 10833 104.082
65.1898 10775 103.803
65.3074 11070 105.214
65.4249 10804 103.942
65.5425 10554 102.733
65.6601 9958 99.7898
65.7777 9073 95.2523
65.8952 8637 92.9355
66.0128 8603 92.7524
66.1304 8997 94.8525
66.2479 9482 97.3756
66.3655 10229 101.139
66.483 10522 102.577
66.6005 10663 103.262
66.718 11069 105.209
66.8355 11054 105.138
66.953 11011 104.933
67.0705 10675 103.32
67.1879 10738 103.624
67.3054 10751 103.687
67.4228 10687 103.378
67.5402 10082 100.409
67.6576 9789 98.9394
67.7749 9498 97.4577
67.8923 8925 94.4722
68.0096 8937 94.5357
68.1269 8916 94.4246
68.2442 9350 96.6954
68.3614 9567 97.811
68.4787 10328 101.627
68.5958 10609 103
68.713 11060 105.167
68.8302 11303 106.316
68.9473 11369 106.626
69.0643 11212 105.887
69.1814 11073 105.228
69.2984 10237 101.178
69.4154 9810 99.0454
69.5323 8959 94.652
69.6492 8967 94.6942
69.7661 9498 97.4577
69.8829 9994 99.97
69.9997 10786 103.856
70.1165 11119 105.447
70.2332 11349 106.532
70.3499 11549 107.466
70.4665 11760 108.444
70.5831 11779 108.531
70.6996 11819 108.715
70.8161 11888 109.032
70.9326 11452 107.014
71.049 11235 105.995
71.1653 10891 104.36
71.2817 10631 103.107
71.3979 10090 100.449
71.5141 9448 97.2008
71.6303 8723 93.397
71.7464 8187 90.482
71.8624 0 1
71.9784 0 1
72.0944 0 1
72.2102 0 1
72.3261 0 1
72.4418 0 1
72.5575 0 1
72.6732 0 1
75.1054 0 1
75.2209 0 1
75.3365 0 1
75.4521 0 1
75.5678 0 1
75.6835 0 1
75.7993 0 1
75.9151 0 1
76.031 0 1
76.147 10343 101.701
76.263 10797 103.909
76.3791 10704 103.46
76.4952 10218 101.084
76.6113 10187 100.931
76.7276 9524 97.591
76.8438 9107 95.4306
76.9601 9274 96.3016
77.0765 9585 97.903
77.1929 10342 101.696
77.3093 10641 103.155
77.4258 11328 106.433
77.5423 11763 108.457
77.6589 11530 107.378
77.7755 11949 109.311
77.8921 11532 107.387
78.0088 11342 106.499
78.1256 10238 101.183
78.2423 9628 98.1224
78.3591 8956 94.6361
78.4759 8404 91.6733
78.5928 8781 93.707
78.7097 9453 97.2265
78.8266 9998 99.99
78.9436 11208 105.868
79.0606 11116 105.432
79.1776 11259 106.108
79.2946 11584 107.629
79.4117 11500 107.238
79.5288 11633 107.856
79.6459 11424 106.883
79.7631 11368 106.621
79.8802 11380 106.677
79.9974 10975 104.762
80.1147 10712 103.499
80.2319 10167 100.832
80.3491 9400 96.9536
80.4664 8994 94.8367
80.5837 9019 94.9684
80.701 9340 96.6437
80.8183 9918 99.5892
80.9357 10656 103.228
81.053 11300 106.301
81.1704 11330 106.442
81.2877 11386 106.705
81.4051 11573 107.578
81.5225 11360 106.583
81.6399 10885 104.331
81.7573 10607 102.99
81.8747 9541 97.678
81.9922 8797 93.7923
82.1096 8477 92.0706
82.227 8948 94.5939
82.3444 9501 97.4731
82.4619 10107 100.534
82.5793 11133 105.513
82.6967 11067 105.2
82.8142 11334 106.461
82.9316 11398 106.761
83.049 11730 108.305
83.1664 11467 107.084
83.2838 11631 107.847
83.4012 11349 106.532
83.5186 11235 105.995
83.636 11163 105.655
83.7534 10604 102.976
83.8708 10201 101
83.9881 9513 97.5346
84.1055 9059 95.1788
84.2228 9261 96.2341
84.3401 9406 96.9845
84.4575 10178 100.886
84.5747 10819 104.014
84.692 11564 107.536
84.8093 11809 108.669
84.9265 11797 108.614
85.0437 11947 109.302
85.1609 11640 107.889
85.2781 10903 104.417
85.3952 10112 100.558
85.5123 9743 98.7066
85.6294 8907 94.3769
85.7465 8837 94.0053
85.8636 9663 98.3006
85.9806 10282 101.4
86.0976 11155 105.617
86.2145 11416 106.846
86.3315 11849 108.853
86.4484 12366 111.203
86.5652 12443 111.548
86.682 12477 111.7
86.7988 12752 112.925
86.9156 12359 111.171
87.0323 12375 111.243
87.149 12107 110.032
87.2657 11795 108.605
87.3823 11395 106.747
87.4988 10829 104.062
87.6154 9746 98.7218
87.7318 9846 99.227
87.8483 10093 100.464
87.9647 10722 103.547
88.081 11506 107.266
88.1973 12246 110.662
88.3136 12433 111.503
88.4298 12686 112.632
88.546 12583 112.174
88.6621 12389 111.306
88.7781 11959 109.357
88.8942 0 1
89.0101 0 1
89.126 0 1
89.2419 0 1
89.3577 0 1
89.4734 0 1
89.5891 0 1
89.7047 0 1
89.8203 0 1
89.9358 0 1
92.3269 0 1
92.4424 0 1
92.558 0 1
92.6736 0 1
92.7893 0 1
92.905 0 1
93.0208 0 1
93.1366 0 1
93.2525 0 1
93.3685 0 1
93.4845 0 1
93.6005 11978 109.444
93.7167 12129 110.132
93.8328 11936 109.252
93.949 11805 108.651
94.0653 11264 106.132
94.1816 10683 103.359
94.2979 10077 100.384
94.4143 9634 98.1529
94.5307 9377 96.8349
94.6472 9875 99.373
94.7637 10658 103.238
94.8803 10872 104.269
94.9969 11594 107.675
95.1135 11871 108.954
95.2302 12110 110.045
95.3469 12110 110.045
95.4637 12498 111.794
95.5805 12685 112.628
95.6973 12634 112.401
95.8142 12732 112.836
95.9311 12505 111.826
96.048 12359 111.171
96.1649 12083 109.923
96.2819 11581 107.615
96.3989 11050 105.119
96.516 10440 102.176
96.633 9859 99.2925
96.7501 9801 99
96.8673 10507 102.504
96.9844 11096 105.338
97.1016 11860 108.904
97.2188 12352 111.14
97.336 12678 112.597
97.4532 12418 111.436
97.5704 12396 111.337
97.6877 12186 110.39
97.805 11235 105.995
97.9223 10693 103.407
98.0396 9950 99.7497
98.1569 9583 97.8928
98.2743 9618 98.0714
98.3916 9902 99.5088
98.509 10488 102.411
98.6264 10999 104.876
98.7438 11543 107.438
98.8612 12004 109.563
98.9786 12350 111.131
99.096 12212 110.508
99.2134 12336 111.068
99.3308 12355 111.153
99.4482 12270 110.77
99.5656 12291 110.865
99.6831 11902 109.096
99.8005 11830 108.766
99.9179 11306 106.33
100.035 10809 103.966
100.153 10155 100.772
100.27 9610 98.0306
100.388 9780 98.8939
100.505 10649 103.194
100.622 11521 107.336
100.74 12119 110.086
100.857 12008 109.581
100.975 12424 111.463
101.092 12189 110.404
101.209 12131 110.141
101.327 11793 108.596
101.444 11193 105.797
101.561 10543 102.679
101.679 9901 99.5038
101.796 9597 97.9643
101.913 9734 98.661
102.03 10202 101.005
102.148 10820 104.019
102.265 10620 103.053
102.382 12978 113.921
102.499 12315 110.973
102.616 12515 111.87
102.733 12843 113.327
102.851 12885 113.512
102.968 13198 114.883
103.085 13128 114.577
103.202 13003 114.031
103.319 12550 112.027
103.436 12335 111.063
103.552 11361 106.588
103.669 10979 104.781
103.786 10343 101.701
103.903 10579 102.854
104.02 11295 106.278
104.137 12312 110.959
104.253 12825 113.248
104.37 13321 115.417
104.487 13549 116.4
104.603 13073 114.337
104.72 13164 114.734
104.836 12264 110.743
104.953 11644 107.907
105.069 11039 105.067
105.186 10539 102.66
105.302 10330 101.637
105.418 10691 103.397
105.535 11278 106.198
105.651 11849 108.853
105.767 12376 111.247
105.883 12714 112.756
105.999 13094 114.429
106.115 0 1
106.231 0 1
106.347 0 1
106.463 0 1
106.579 0 1
106.694 0 1
106.81 0 1
106.926 0 1
107.041 0 1
107.157 0 1
109.576 0 1
109.692 0 1
109.807 0 1
109.923 0 1
110.039 0 1
110.155 0 1
110.27 0 1
110.386 0 1
110.502 0 1
110.618 10281 101.395
110.735 10729 103.581
110.851 11110 105.404
110.967 11178 105.726
111.083 11495 107.215
111.199 11553 107.485
111.316 11822 108.729
111.432 11795 108.605
111.549 11619 107.791
111.665 11494 107.21
111.782 11280 106.207
111.898 10681 103.349
112.015 10050 100.25
112.132 9483 97.3807
112.248 8896 94.3186
112.365 9038 95.0684
112.482 9775 98.8686
112.599 10145 100.722
112.716 10808 103.962
112.832 10764 103.75
112.949 10706 103.47
113.066 10549 102.708
113.183 10333 101.651
113.3 9753 98.7573
113.417 9355 96.7212
113.534 8521 92.3093
113.652 8232 90.7304
113.769 7908 88.9269
113.886 7782 88.2156
114.003 8060 89.7775
114.12 8805 93.835
114.238 9071 95.2418
114.355 9272 96.2912
114.472 9540 97.6729
114.589 9366 96.7781
114.707 9569 97.8213
114.824 9401 96.9588
114.942 9614 98.051
115.059 9249 96.1717
115.176 9223 96.0365
115.294 8862 94.1382
115.411 8703 93.2899
115.529 8151 90.2829
115.646 7557 86.931
115.764 7084 84.1665
115.881 7060 84.0238
115.999 7328 85.6037
116.116 7724 87.8863
116.234 8009 89.493
116.351 8220 90.6642
116.469 8106 90.0333
116.586 7882 88.7806
116.704 7868 88.7017
116.821 7706 87.7838
116.939 7246 85.1234
117.056 6803 82.4803
117.174 6545 80.9012
117.291 6267 79.1644
117.409 6083 77.9936
117.526 6259 79.1138
117.644 6728 82.0244
117.761 6901 83.0723
117.879 7210 84.9117
117.996 7245 85.1176
118.114 7687 87.6755
118.231 7787 88.244
118.349 7752 88.0454
118.466 7707 87.7895
118.584 7986 89.3644
118.701 7924 89.0169
118.819 7647 87.4471
118.936 7686 87.6698
119.053 7409 86.0755
119.171 7079 84.1368
119.288 6656 81.5843
119.405 6434 80.2122
119.523 6549 80.9259
119.64 7012 83.7377
119.757 7551 86.8965
119.875 7970 89.2749
119.992 7947 89.1459
120.109 8082 89.8999
120.226 8237 90.7579
120.343 8174 90.4102
120.46 7961 89.2244
120.578 7744 88
120.695 7242 85.0999
120.812 7105 84.2912
120.929 6850 82.7647
121.046 6769 82.2739
121.163 6819 82.5772
121.279 7183 84.7526
121.396 7645 87.4357
121.513 8039 89.6605
121.63 8453 91.9402
121.747 8526 92.3363
121.863 8650 93.0054
121.98 8743 93.504
122.097 9140 95.6033
122.213 9133 95.5667
122.33 9227 96.0573
122.446 9396 96.933
122.563 9097 95.3782
122.679 9100 95.3939
122.795 8946 94.5833
122.912 8579 92.6229
123.028 7973 89.2917
123.144 7827 88.4703
123.26 7973 89.2917
123.377 0 1
123.493 0 1
123.609 0 1
123.725 0 1
123.84 0 1
123.956 0 1
124.072 0 1
124.188 0 1
124.303 0 1
124.419 0 1
126.852 0 1
126.968 0 1
127.083 0 1
127.199 0 1
127.315 0 1
127.431 0 1
127.547 0 1
127.663 0 1
127.779 0 1
127.895 0 1
128.011 0 1
128.127 0 1
128.243 0 1
128.359 9425 97.0824
128.476 9289 96.3795
128.592 9563 97.7906
128.708 9932 99.6594
128.825 10839 104.111
128.941 11048 105.109
129.058 11001 104.886
129.174 10963 104.704
129.291 11010 104.929
129.408 10601 102.961
129.524 10362 101.794
129.641 9895 99.4736
129.758 9425 97.0824
129.875 8920 94.4458
129.992 8823 93.9308
130.108 8469 92.0272
130.225 8781 93.707
130.342 8938 94.541
130.459 9295 96.4106
130.576 9340 96.6437
130.693 9516 97.55
130.81 9853 99.2623
130.928 9780 98.8939
131.045 9888 99.4384
131.162 10000 100
131.279 9942 99.7096
131.396 10029 100.145
131.513 9805 99.0202
131.631 9481 97.3704
131.748 9295 96.4106
131.865 8645 92.9785
131.983 8318 91.2031
132.1 8383 91.5587
132.217 8787 93.739
132.335 9351 96.7006
132.452 9570 97.8264
132.57 9642 98.1937
132.687 9106 95.4254
132.804 9730 98.6408
132.922 9195 95.8906
133.039 8919 94.4405
133.157 8406 91.6842
133.274 8055 89.7497
133.392 7544 86.8562
133.509 7307 85.481
133.627 7019 83.7795
133.744 7320 85.557
133.862 7624 87.3155
133.979 7712 87.818
134.097 7768 88.1363
134.214 8105 90.0278
134.332 7793 88.278
134.449 8041 89.6716
134.567 7913 88.955
134.684 7956 89.1964
134.802 7945 89.1347
134.919 7898 88.8707
135.037 7690 87.6926
135.154 7497 86.5852
135.272 7154 84.5813
135.389 6908 83.1144
135.507 6423 80.1436
135.624 6457 80.3555
135.742 6704 81.878
135.859 6959 83.4206
135.977 7223 84.9882
136.094 7254 85.1704
136.211 6978 83.5344
136.329 7136 84.4748
136.446 7064 84.0476
136.564 6789 82.3954
136.681 6418 80.1124
136.798 6205 78.7718
136.915 5833 76.3741
137.033 5672 75.3127
137.15 5649 75.1598
137.267 5628 75.02
137.384 5733 75.7166
137.502 5912 76.8895
137.619 6046 77.756
137.736 6149 78.4156
137.853 6069 77.9038
137.97 6363 79.7684
138.087 6588 81.1665
138.204 6787 82.3833
138.321 6900 83.0662
138.438 6996 83.6421
138.555 7119 84.3742
138.672 7117 84.3623
138.788 7049 83.9583
138.905 6984 83.5703
139.022 6628 81.4125
139.139 6415 80.0937
139.255 6610 81.3019
139.372 7025 83.8153
139.488 7347 85.7146
139.605 7723 87.8806
139.721 7978 89.3197
139.838 8016 89.5321
139.954 7997 89.4259
140.071 8128 90.1554
140.187 8052 89.7329
140.303 7764 88.1136
140.419 7173 84.6936
140.535 7146 84.534
140.652 7115 84.3505
140.768 0 1
140.884 0 1
141 0 1
141.115 0 1
141.231 0 1
141.347 0 1
141.463 0 1
141.578 0 1
141.694 0 1
144.104 0 1
144.219 0 1
144.335 0 1
144.45 0 1
144.566 0 1
144.682 0 1
144.798 0 1
144.914 0 1
145.03 0 1
145.146 6823 82.6015
145.262 6669 81.6639
145.378 6457 80.3555
145.494 6437 80.2309
145.61 5923 76.961
145.726 5799 76.1512
145.842 5674 75.326
145.959 5546 74.4715
146.075 5610 74.8999
146.192 5668 75.2861
146.308 5653 75.1864
146.425 5739 75.7562
146.541 5857 76.531
146.658 5657 75.213
146.774 5891 76.7529
146.891 5799 76.1512
147.008 5685 75.3989
147.125 5851 76.4918
147.241 5835 76.3872
147.358 5748 75.8156
147.475 5656 75.2064
147.592 5468 73.9459
147.709 5166 71.8749
147.826 4913 70.0928
147.943 4847 69.6204
148.06 5147 71.7426
148.177 5364 73.2393
148.294 5464 73.9189
148.411 5496 74.135
148.528 5312 72.8835
148.645 5405 73.5187
148.762 5275 72.6292
148.88 5143 71.7147
148.997 5126 71.5961
149.114 4471 66.8655
149.231 4536 67.3498
149.349 4377 66.1589
149.466 4383 66.2042
149.583 4335 65.8407
149.701 4212 64.8999
149.818 4451 66.7158
149.935 4441 66.6408
150.053 4448 66.6933
150.17 4648 68.1762
150.287 4565 67.5648
150.405 4724 68.7314
150.522 4687 68.4617
150.64 4896 69.9714
150.757 4914 70.0999
150.875 4868 69.7711
150.992 5049 71.0563
151.11 4977 70.5479
151.227 4845 69.606
151.344 4632 68.0588
151.462 4420 66.4831
151.579 4572 67.6166
151.697 4806 69.3253
151.814 5236 72.3602
151.932 5109 71.4773
152.049 5430 73.6885
152.167 5334 73.0342
152.284 5385 73.3826
152.402 5362 73.2257
152.519 5233 72.3395
152.636 5030 70.9225
152.754 4923 70.1641
152.871 4843 69.5917
152.989 4786 69.1809
153.106 4694 68.5128
153.223 4618 67.9559
153.341 4883 69.8785
153.458 4980 70.5691
153.575 5100 71.4143
153.693 5056 71.1056
153.81 5201 72.118
153.927 5210 72.1803
154.044 5432 73.7021
154.162 5354 73.171
154.279 5598 74.8198
154.396 5869 76.6094
154.513 5896 76.7854
154.63 6052 77.7946
154.747 5787 76.0723
154.864 5693 75.452
154.981 5700 75.4983
155.098 5667 75.2795
155.215 5733 75.7166
155.332 6159 78.4793
155.449 6282 79.2591
155.566 6479 80.4922
155.683 6610 81.3019
155.8 6660 81.6088
155.917 6497 80.604
156.033 6519 80.7403
156.15 0 1
156.267 0 1
156.383 0 1
156.5 0 1
156.617 0 1
156.733 0 1
156.85 0 1
156.966 0 1
157.082 0 1
157.199 0 1
157.315 0 1
157.431 0 1
157.547 0 1
157.664 0 1
157.78 0 1
157.896 0 1
158.012 0 1
158.128 0 1
158.244 0 1
158.359 0 1
158.475 0 1
158.591 0 1
158.706 0 1
