
6.15755 0 1
6.2731 0 1
6.3887 0 1
6.50437 0 1
6.62009 0 1
6.73587 0 1
6.8517 0 1
6.96759 0 1
7.08353 0 1
7.19952 0 1
7.31557 0 1
7.43166 0 1
7.54781 0 1
7.664 0 1
7.78024 0 1
7.89653 0 1
8.01286 0 1
8.12924 0 1
8.24567 0 1
8.36213 0 1
8.47864 0 1
8.59519 0 1
8.71178 0 1
8.82841 0 1
8.94508 0 1
9.06179 0 1
9.17853 0 1
9.29531 0 1
9.41212 0 1
9.52897 0 1
9.64584 0 1
9.76276 0 1
9.8797 0 1
9.99667 0 1
10.1137 0 1
10.2307 0 1
10.3478 0 1
10.4648 0 1
10.5819 0 1
10.6991 0 1
10.8162 0 1
10.9334 0 1
11.0506 0 1
11.1678 0 1
11.285 0 1
11.4023 0 1
11.5196 0 1
11.6369 0 1
11.7542 0 1
11.8715 0 1
11.9888 0 1
12.1062 0 1
12.2235 0 1
12.3409 0 1
12.4582 0 1
12.5756 0 1
12.693 0 1
12.8104 0 1
12.9278 0 1
13.0452 0 1
13.1626 0 1
13.28 0 1
13.3974 0 1
13.5149 0 1
13.6323 0 1
13.7497 0 1
13.8671 0 1
13.9845 0 1
14.1019 0 1
14.2193 0 1
14.3367 0 1
14.4541 0 1
14.5714 0 1
14.6888 0 1
14.8062 0 1
14.9235 0 1
15.0408 0 0
15.1581 0 0
15.2755 0 0
15.3927 0 0
15.51 0 0
15.6273 0 0
15.7445 0 0
15.8617 0 0
15.9789 0 0
16.0961 0 0
16.2132 0 0
16.3304 0 0
16.4475 0 0
16.5646 0 0
16.6816 0 0
16.7986 0 0
16.9156 0 0
17.0326 0 0
17.1496 0 0
17.2665 0 0
17.3833 0 0
17.5002 0 0
17.617 0 0
17.7338 0 0
17.8505 0 0
17.9672 0 0
18.0839 0 0
18.2005 0 0
18.3171 0 0
18.4337 0 0
18.5502 0 0
18.6666 0 0
18.7831 0 0
18.8994 0 0
19.0158 0 0
19.1321 0 0
19.2483 0 0
19.3645 0 0
19.4806 0 0
19.5967 0 0
19.7128 0 0
19.8288 0 0
19.9447 0 0
20.0606 0 1
20.1764 0 1
20.2922 0 1
20.4079 0 1
20.5236 0 1
20.6392 0 1
20.7548 0 1
20.8702 0 1
23.3078 0 1
23.4233 0 1
23.539 0 1
23.6547 0 1
23.7704 0 1
23.8862 0 1
24.0021 0 1
24.118 0 1
24.234 0 1
24.35 0 1
24.4661 1212 34.8138
24.5822 1212 34.8138
24.6984 1108 33.2866
24.8146 1152 33.9411
24.9309 1151 33.9264
25.0472 1159 34.0441
25.1636 1134 33.6749
25.28 1175 34.2783
25.3965 1258 35.4683
25.513 1258 35.4683
25.6296 1317 36.2905
25.7462 1301 36.0694
25.8628 1362 36.9053
25.9795 1385 37.2156
26.0962 1428 37.7889
26.213 1317 36.2905
26.3298 1343 36.647
26.4466 1352 36.7696
26.5635 1314 36.2491
26.6804 1318 36.3043
26.7973 1238 35.1852
26.9143 1271 35.6511
27.0313 1270 35.6371
27.1483 1280 35.7771
27.2653 1327 36.428
27.3824 1282 35.805
27.4996 1308 36.1663
27.6167 1312 36.2215
27.7339 1356 36.8239
27.8511 1299 36.0416
27.9683 1230 35.0714
28.0855 1194 34.5543
28.2028 1140 33.7639
28.3201 1090 33.0151
28.4374 1103 33.2114
28.5547 1093 33.0606
28.6721 1063 32.6037
28.7894 1146 33.8526
28.9068 1160 34.0588
29.0242 1201 34.6554
29.1416 1299 36.0416
29.259 1343 36.647
29.3764 1263 35.5387
29.4939 1219 34.9142
29.6113 1328 36.4417
29.7288 1293 35.9583
29.8463 1247 35.3129
29.9638 1338 36.5787
30.0812 1245 35.2846
30.1987 1214 34.8425
30.3162 1217 34.8855
30.4337 1166 34.1467
30.5512 1209 34.7707
30.6687 1208 34.7563
30.7862 1352 36.7696
30.9037 1329 36.4555
31.0212 1308 36.1663
31.1387 1292 35.9444
31.2562 1293 35.9583
31.3737 1320 36.3318
31.4912 1275 35.7071
31.6087 1244 35.2704
31.7262 1191 34.5109
31.8436 1151 33.9264
31.9611 1117 33.4215
32.0785 1069 32.6956
32.1959 1127 33.5708
32.3134 1084 32.9242
32.4308 1191 34.5109
32.5482 1265 35.5668
32.6655 1317 36.2905
32.7829 1311 36.2077
32.9002 1300 36.0555
33.0176 1331 36.4829
33.1349 1291 35.9305
33.2522 1289 35.9026
33.3694 1324 36.3868
33.4867 1284 35.8329
33.6039 1261 35.5106
33.7211 1255 35.426
33.8383 1279 35.7631
33.9554 1145 33.8378
34.0725 1181 34.3657
34.1896 1315 36.2629
34.3067 1247 35.3129
34.4237 1310 36.1939
34.5407 1351 36.756
34.6577 1347 36.7015
34.7746 1304 36.1109
34.8915 1326 36.4143
35.0084 1264 35.5528
35.1252 1314 36.2491
35.242 1281 35.7911
35.3587 1194 34.5543
35.4755 1134 33.6749
35.5921 1101 33.1813
35.7088 1097 33.121
35.8254 1016 31.8748
35.9419 1068 32.6803
36.0584 1094 33.0757
36.1749 1141 33.7787
36.2913 1193 34.5398
36.4077 1299 36.0416
36.524 1272 35.6651
36.6403 1270 35.6371
36.7565 1354 36.7967
36.8727 1354 36.7967
36.9889 1307 36.1525
37.1049 1291 35.9305
37.221 0 1
37.3369 0 1
37.4529 0 1
37.5687 0 1
37.6845 0 1
37.8003 0 1
37.916 0 1
38.0316 0 1
38.1472 0 1
40.5851 0 1
40.7008 0 1
40.8164 0 1
40.9322 0 1
41.048 0 1
41.1639 0 1
41.2798 0 1
41.3958 0 1
41.5118 0 1
41.6279 0 1
41.744 1170 34.2053
41.8602 1219 34.9142
41.9765 1135 33.6898
42.0928 1138 33.7343
42.2091 1130 33.6155
42.3255 1229 35.0571
42.4419 1133 33.6601
42.5584 1143 33.8083
42.675 1029 32.078
42.7915 1024 32
42.9081 1073 32.7567
43.0248 1146 33.8526
43.1415 1128 33.5857
43.2582 1207 34.7419
43.375 1239 35.1994
43.4918 1218 34.8999
43.6087 1185 34.4238
43.7256 1113 33.3617
43.8425 1155 33.9853
43.9595 1104 33.2265
44.0765 1095 33.0908
44.1935 1020 31.9374
44.3106 940 30.6594
44.4277 938 30.6268
44.5448 863 29.3769
44.6619 839 28.9655
44.7791 854 29.2233
44.8963 890 29.8329
45.0136 894 29.8998
45.1308 1015 31.8591
45.2481 993 31.5119
45.3654 1057 32.5115
45.4827 1098 33.1361
45.6001 932 30.5287
45.7174 1009 31.7648
45.8348 963 31.0322
45.9522 1023 31.9844
46.0697 984 31.3688
46.1871 875 29.5804
46.3046 855 29.2404
46.422 884 29.7321
46.5395 877 29.6142
46.657 906 30.0998
46.7745 911 30.1828
46.892 978 31.273
47.0096 862 29.3598
47.1271 889 29.8161
47.2446 892 29.8664
47.3622 990 31.4643
47.4797 879 29.6479
47.5973 844 29.0517
47.7149 813 28.5132
47.8324 770 27.7489
47.95 718 26.7955
48.0675 687 26.2107
48.1851 624 24.98
48.3027 651 25.5147
48.4202 702 26.4953
48.5378 737 27.1477
48.6554 796 28.2135
48.7729 731 27.037
48.8904 840 28.9828
49.008 829 28.7924
49.1255 901 30.0167
49.243 883 29.7153
49.3605 809 28.4429
49.478 848 29.1204
49.5955 798 28.2489
49.713 772 27.7849
49.8304 778 27.8927
49.9479 854 29.2233
50.0653 866 29.4279
50.1827 889 29.8161
50.3001 909 30.1496
50.4175 980 31.305
50.5348 965 31.0644
50.6521 1024 32
50.7694 1022 31.9687
50.8867 1096 33.1059
51.004 1053 32.45
51.1212 999 31.607
51.2384 1012 31.8119
51.3556 1013 31.8277
51.4727 999 31.607
51.5899 975 31.225
51.707 904 30.0666
51.824 905 30.0832
51.9411 948 30.7896
52.0581 1028 32.0624
52.175 1130 33.6155
52.2919 1170 34.2053
52.4088 1217 34.8855
52.5257 1225 35
52.6425 1259 35.4824
52.7593 1243 35.2562
52.876 1282 35.805
52.9927 1271 35.6511
53.1094 1264 35.5528
53.226 1307 36.1525
53.3426 1244 35.2704
53.4591 1188 34.4674
53.5756 1217 34.8855
53.692 1243 35.2562
53.8084 1302 36.0832
53.9248 1373 37.054
54.0411 1352 36.7696
54.1573 1338 36.5787
54.2735 0 1
54.3896 0 1
54.5057 0 1
54.6217 0 1
54.7377 0 1
54.8537 0 1
54.9695 0 1
55.0853 0 1
55.2011 0 1
55.3168 0 1
55.4324 0 1
57.824 0 1
57.9396 0 1
58.0553 0 1
58.1711 0 1
58.2869 0 1
58.4028 0 1
58.5187 0 1
58.6347 0 1
58.7508 0 1
58.8669 0 1
58.983 1688 41.0853
59.0992 1741 41.7253
59.2155 1782 42.2137
59.3318 1804 42.4735
59.4482 1719 41.4608
59.5646 1791 42.3202
59.681 1845 42.9535
59.7975 1718 41.4488
59.9141 1644 40.5463
60.0306 1655 40.6817
60.1473 1521 39
60.2639 1367 36.973
60.3807 1316 36.2767
60.4974 1337 36.565
60.6142 1388 37.2559
60.731 1428 37.7889
60.8479 1567 39.5854
60.9648 1746 41.7852
61.0818 1782 42.2137
61.1987 1765 42.0119
61.3158 1793 42.3438
61.4328 1824 42.7083
61.5499 1783 42.2256
61.667 1757 41.9166
61.7841 1695 41.1704
61.9013 1677 40.9512
62.0185 1583 39.7869
62.1357 1750 41.833
62.253 1772 42.0951
62.3702 1758 41.9285
62.4875 1738 41.6893
62.6049 1769 42.0595
62.7222 1943 44.0795
62.8396 1882 43.382
62.9569 1846 42.9651
63.0743 1803 42.4617
63.1918 1857 43.0929
63.3092 1694 41.1582
63.4267 1713 41.3884
63.5441 1539 39.2301
63.6616 1522 39.0128
63.7791 1392 37.3095
63.8966 1292 35.9444
64.0142 1288 35.8887
64.1317 1322 36.3593
64.2492 1516 38.9358
64.3668 1610 40.1248
64.4843 1680 40.9878
64.6019 1791 42.3202
64.7195 1745 41.7732
64.837 1839 42.8836
64.9546 1790 42.3084
65.0722 1827 42.7434
65.1898 1777 42.1545
65.3074 1762 41.9762
65.4249 1696 41.1825
65.5425 1726 41.5452
65.6601 1757 41.9166
65.7777 1767 42.0357
65.8952 1747 41.7971
66.0128 1918 43.795
66.1304 1994 44.6542
66.2479 1964 44.317
66.3655 1865 43.1856
66.483 1973 44.4185
66.6005 1935 43.9886
66.718 1849 43
66.8355 1876 43.3128
66.953 1838 42.8719
67.0705 1838 42.8719
67.1879 1711 41.3642
67.3054 1560 39.4968
67.4228 1398 37.3898
67.5402 1295 35.9861
67.6576 1296 36
67.7749 1402 37.4433
67.8923 1522 39.0128
68.0096 1723 41.509
68.1269 1932 43.9545
68.2442 1933 43.9659
68.3614 1972 44.4072
68.4787 2047 45.2438
68.5958 1964 44.317
68.713 1962 44.2945
68.8302 1952 44.1814
68.9473 1931 43.9431
69.0643 1925 43.8748
69.1814 1951 44.1701
69.2984 1971 44.3959
69.4154 2006 44.7884
69.5323 2151 46.3789
69.6492 2098 45.8039
69.7661 2164 46.5188
69.8829 2132 46.1736
69.9997 2241 47.3392
70.1165 2239 47.3181
70.2332 2349 48.4665
70.3499 2246 47.392
70.4665 2251 47.4447
70.5831 2237 47.2969
70.6996 2081 45.618
70.8161 1982 44.5197
70.9326 1833 42.8135
71.049 1713 41.3884
71.1653 1413 37.5899
71.2817 1367 36.973
71.3979 1431 37.8286
71.5141 1581 39.7618
71.6303 1659 40.7308
71.7464 1757 41.9166
71.8624 0 1
71.9784 0 1
72.0944 0 1
72.2102 0 1
72.3261 0 1
72.4418 0 1
72.5575 0 1
72.6732 0 1
75.1054 0 1
75.2209 0 1
75.3365 0 1
75.4521 0 1
75.5678 0 1
75.6835 0 1
75.7993 0 1
75.9151 0 1
76.031 0 1
76.147 1979 44.486
76.263 2081 45.618
76.3791 1814 42.5911
76.4952 1708 41.328
76.6113 1598 39.975
76.7276 1613 40.1622
76.8438 1763 41.9881
76.9601 2003 44.7549
77.0765 2342 48.3942
77.1929 2544 50.4381
77.3093 2579 50.7839
77.4258 2525 50.2494
77.5423 2558 50.5767
77.6589 2484 49.8397
77.7755 2643 51.4101
77.8921 2560 50.5964
78.0088 2526 50.2593
78.1256 2414 49.1325
78.2423 2385 48.8365
78.3591 2341 48.3839
78.4759 2462 49.6185
78.5928 2444 49.4368
78.7097 2601 51
78.8266 2749 52.4309
78.9436 2541 50.4083
79.0606 2757 52.5071
79.1776 2688 51.8459
79.2946 2762 52.5547
79.4117 2715 52.1057
79.5288 2703 51.9904
79.6459 2487 49.8698
79.7631 2563 50.6261
79.8802 2396 48.949
79.9974 2120 46.0435
80.1147 1866 43.1972
80.2319 1726 41.5452
80.3491 1757 41.9166
80.4664 2026 45.0111
80.5837 2264 47.5815
80.701 2575 50.7445
80.8183 2794 52.8583
80.9357 2764 52.5738
81.053 2741 52.3546
81.1704 2746 52.4023
81.2877 2847 53.3573
81.4051 2820 53.1037
81.5225 2836 53.2541
81.6399 2730 52.2494
81.7573 2681 51.7784
81.8747 2560 50.5964
81.9922 2647 51.449
82.1096 2608 51.0686
82.227 2715 52.1057
82.3444 2726 52.2111
82.4619 2887 53.7308
82.5793 2797 52.8867
82.6967 2957 54.3783
82.8142 2865 53.5257
82.9316 2822 53.1225
83.049 2893 53.7866
83.1664 2784 52.7636
83.2838 2791 52.8299
83.4012 2697 51.9326
83.5186 2460 49.5984
83.636 2288 47.833
83.7534 2046 45.2327
83.8708 1817 42.6263
83.9881 1789 42.2966
84.1055 1966 44.3396
84.2228 2259 47.5289
84.3401 2628 51.264
84.4575 2740 52.345
84.5747 2816 53.066
84.692 2953 54.3415
84.8093 2990 54.6809
84.9265 2902 53.8702
85.0437 3043 55.1634
85.1609 3015 54.909
85.2781 3063 55.3444
85.3952 2858 53.4603
85.5123 2871 53.5817
85.6294 2787 52.792
85.7465 2932 54.1479
85.8636 2968 54.4794
85.9806 3111 55.7763
86.0976 3242 56.9386
86.2145 3358 57.9483
86.3315 3303 57.4717
86.4484 3506 59.2115
86.5652 3451 58.7452
86.682 3407 58.3695
86.7988 3351 57.8878
86.9156 3214 56.6922
87.0323 3140 56.0357
87.149 2948 54.2955
87.2657 2746 52.4023
87.3823 2376 48.7442
87.4988 2242 47.3498
87.6154 2270 47.6445
87.7318 2697 51.9326
87.8483 3056 55.2811
87.9647 3478 58.9746
88.081 3451 58.7452
88.1973 3642 60.349
88.3136 3710 60.9098
88.4298 3733 61.0983
88.546 3790 61.563
88.6621 3766 61.3677
88.7781 3582 59.8498
88.8942 0 1
89.0101 0 1
89.126 0 1
89.2419 0 1
89.3577 0 1
89.4734 0 1
89.5891 0 1
89.7047 0 1
89.8203 0 1
89.9358 0 1
92.3269 0 1
92.4424 0 1
92.558 0 1
92.6736 0 1
92.7893 0 1
92.905 0 1
93.0208 0 1
93.1366 0 1
93.2525 0 1
93.3685 0 1
93.4845 0 1
93.6005 4006 63.293
93.7167 4001 63.2535
93.8328 3845 62.0081
93.949 3862 62.145
94.0653 3994 63.1981
94.1816 3897 62.426
94.2979 3909 62.522
94.4143 3909 62.522
94.5307 3812 61.7414
94.6472 3684 60.696
94.7637 3692 60.7618
94.8803 3933 62.7136
94.9969 3848 62.0322
95.1135 4075 63.8357
95.2302 4075 63.8357
95.3469 4090 63.9531
95.4637 4184 64.6838
95.5805 4256 65.238
95.6973 4385 66.2193
95.8142 4317 65.7039
95.9311 4226 65.0077
96.048 4072 63.8122
96.1649 3849 62.0403
96.2819 3740 61.1555
96.3989 3469 58.8982
96.516 3137 56.0089
96.633 2777 52.6972
96.7501 2770 52.6308
96.8673 2803 52.9434
96.9844 3406 58.3609
97.1016 3757 61.2944
97.2188 4250 65.192
97.336 4460 66.7832
97.4532 4507 67.1342
97.5704 4415 66.4455
97.6877 4565 67.5648
97.805 4434 66.5883
97.9223 4484 66.9627
98.0396 4388 66.242
98.1569 4359 66.0227
98.2743 4220 64.9615
98.3916 4231 65.0461
98.509 4137 64.3195
98.6264 4204 64.8383
98.7438 4257 65.2457
98.8612 4490 67.0075
98.9786 4616 67.9412
99.096 4606 67.8675
99.2134 4752 68.9348
99.3308 4675 68.374
99.4482 4795 69.2459
99.5656 4677 68.3886
99.6831 4494 67.0373
99.8005 4342 65.8939
99.9179 4136 64.3117
100.035 3903 62.474
100.153 3307 57.5065
100.27 3017 54.9272
100.388 3141 56.0446
100.505 3504 59.1946
100.622 4246 65.1613
100.74 4607 67.8749
100.857 4870 69.7854
100.975 4783 69.1592
101.092 4825 69.4622
101.209 4735 68.8113
101.327 4886 69.8999
101.444 4854 69.6707
101.561 4752 68.9348
101.679 4894 69.9571
101.796 4601 67.8307
101.913 4654 68.2202
102.03 4614 67.9264
102.148 4556 67.4981
102.265 4921 70.1498
102.382 4757 68.971
102.499 4894 69.9571
102.616 4923 70.1641
102.733 4966 70.4699
102.851 5232 72.3326
102.968 5253 72.4776
103.085 5171 71.9097
103.202 5159 71.8262
103.319 4894 69.9571
103.436 4634 68.0735
103.552 4123 64.2106
103.669 3619 60.1581
103.786 3229 56.8243
103.903 3308 57.5152
104.02 3955 62.8888
104.137 4529 67.2978
104.253 5191 72.0486
104.37 4999 70.7036
104.487 5409 73.5459
104.603 5382 73.3621
104.72 5270 72.5948
104.836 5345 73.1095
104.953 5318 72.9246
105.069 5345 73.1095
105.186 5265 72.5603
105.302 5231 72.3257
105.418 5040 70.993
105.535 5046 71.0352
105.651 5092 71.3583
105.767 5151 71.7705
105.883 5300 72.8011
105.999 5468 73.9459
106.115 0 1
106.231 0 1
106.347 0 1
106.463 0 1
106.579 0 1
106.694 0 1
106.81 0 1
106.926 0 1
107.041 0 1
107.157 0 1
109.576 0 1
109.692 0 1
109.807 0 1
109.923 0 1
110.039 0 1
110.155 0 1
110.27 0 1
110.386 0 1
110.502 0 1
110.618 4647 68.1689
110.735 4841 69.5773
110.851 4962 70.4415
110.967 4946 70.3278
111.083 5139 71.6868
111.199 5076 71.2461
111.316 5179 71.9653
111.432 5160 71.8331
111.549 5151 71.7705
111.665 4980 70.5691
111.782 4874 69.814
111.898 4449 66.7008
112.015 4263 65.2917
112.132 3610 60.0833
112.248 3187 56.4535
112.365 3261 57.1052
112.482 3628 60.2329
112.599 3938 62.7535
112.716 4451 66.7158
112.832 4712 68.644
112.949 4817 69.4046
113.066 4766 69.0362
113.183 4888 69.9142
113.3 4726 68.7459
113.417 4770 69.0652
113.534 4753 68.942
113.652 4684 68.4398
113.769 4635 68.0808
113.886 4461 66.7907
114.003 4343 65.9014
114.12 4196 64.7765
114.238 4258 65.2534
114.355 4233 65.0615
114.472 4318 65.7115
114.589 4345 65.9166
114.707 4362 66.0454
114.824 4543 67.4018
114.942 4527 67.283
115.059 4592 67.7643
115.176 4386 66.2269
115.294 4357 66.0076
115.411 4196 64.7765
115.529 3963 62.9524
115.646 3556 59.6322
115.764 3063 55.3444
115.881 2899 53.8424
115.999 3131 55.9553
116.116 3552 59.5987
116.234 3872 62.2254
116.351 4231 65.0461
116.469 4293 65.521
116.586 4447 66.6858
116.704 4386 66.2269
116.821 4353 65.9773
116.939 4497 67.0597
117.056 4456 66.7533
117.174 4431 66.5658
117.291 4444 66.6633
117.409 4376 66.1513
117.526 4277 65.3988
117.644 4309 65.643
117.761 4208 64.8691
117.879 4112 64.1249
117.996 4147 64.3972
118.114 4128 64.2495
118.231 4360 66.0303
118.349 4314 65.681
118.466 4459 66.7757
118.584 4538 67.3647
118.701 4533 67.3276
118.819 4403 66.3551
118.936 4262 65.284
119.053 4126 64.2339
119.171 3809 61.7171
119.288 3411 58.4038
119.405 3039 55.1271
119.523 2761 52.5452
119.64 3009 54.8544
119.757 3384 58.1722
119.875 3884 62.3217
119.992 4027 63.4586
120.109 4234 65.0692
120.226 4307 65.6277
120.343 4365 66.0681
120.46 4287 65.4752
120.578 4143 64.3661
120.695 4328 65.7875
120.812 4334 65.8331
120.929 4229 65.0308
121.046 4108 64.0937
121.163 4074 63.8279
121.279 4123 64.2106
121.396 4080 63.8749
121.513 4070 63.7966
121.63 4019 63.3956
121.747 3968 62.9921
121.863 4026 63.4508
121.98 4081 63.8827
122.097 4153 64.4438
122.213 4220 64.9615
122.33 4158 64.4826
122.446 4307 65.6277
122.563 4116 64.1561
122.679 3959 62.9206
122.795 3827 61.8628
122.912 3566 59.716
123.028 3204 56.6039
123.144 2829 53.1883
123.26 2620 51.1859
123.377 0 1
123.493 0 1
123.609 0 1
123.725 0 1
123.84 0 1
123.956 0 1
124.072 0 1
124.188 0 1
124.303 0 1
124.419 0 1
126.852 0 1
126.968 0 1
127.083 0 1
127.199 0 1
127.315 0 1
127.431 0 1
127.547 0 1
127.663 0 1
127.779 0 1
127.895 0 1
128.011 0 1
128.127 0 1
128.243 0 1
128.359 3235 56.8771
128.476 2862 53.4977
128.592 2964 54.4426
128.708 3421 58.4893
128.825 3890 62.3699
128.941 4247 65.169
129.058 4470 66.8581
129.174 4438 66.6183
129.291 4670 68.3374
129.408 4400 66.3325
129.524 4333 65.8255
129.641 4473 66.8805
129.758 4308 65.6354
129.875 4314 65.681
129.992 4357 66.0076
130.108 4327 65.7799
130.225 4179 64.6452
130.342 4202 64.8228
130.459 4000 63.2456
130.576 4155 64.4593
130.693 4197 64.7843
130.81 4214 64.9153
130.928 4208 64.8691
131.045 4186 64.6993
131.162 4294 65.5286
131.279 4433 66.5808
131.396 4209 64.8768
131.513 4177 64.6297
131.631 4016 63.3719
131.748 3836 61.9355
131.865 3334 57.7408
131.983 2839 53.2823
132.1 3012 54.8817
132.217 3131 55.9553
132.335 3613 60.1082
132.452 3948 62.8331
132.57 4278 65.4064
132.687 4044 63.5925
132.804 4417 66.4605
132.922 4299 65.5668
133.039 4370 66.106
133.157 4244 65.146
133.274 4192 64.7457
133.392 4148 64.405
133.509 4056 63.6867
133.627 4121 64.195
133.744 4082 63.8905
133.862 3947 62.8252
133.979 4012 63.3404
134.097 3994 63.1981
134.214 3940 62.7694
134.332 3896 62.4179
134.449 4077 63.8514
134.567 3974 63.0397
134.684 4154 64.4515
134.802 4181 64.6607
134.919 4137 64.3195
135.037 3972 63.0238
135.154 3821 61.8142
135.272 3902 62.466
135.389 3379 58.1292
135.507 3090 55.5878
135.624 2855 53.4322
135.742 2885 53.7122
135.859 3246 56.9737
135.977 3750 61.2372
136.094 3999 63.2376
136.211 4043 63.5846
136.329 4094 63.9844
136.446 4210 64.8845
136.564 3999 63.2376
136.681 4138 64.3273
136.798 3946 62.8172
136.915 4029 63.4744
137.033 4109 64.1015
137.15 4030 63.4823
137.267 3906 62.498
137.384 3959 62.9206
137.502 3830 61.887
137.619 3839 61.9597
137.736 3709 60.9016
137.853 3796 61.6117
137.97 3794 61.5955
138.087 3843 61.9919
138.204 3784 61.5142
138.321 3804 61.6766
138.438 4011 63.3325
138.555 3847 62.0242
138.672 3881 62.2977
138.788 3790 61.563
138.905 3759 61.3107
139.022 3373 58.0775
139.139 3084 55.5338
139.255 2838 53.2729
139.372 2919 54.0278
139.488 3102 55.6956
139.605 3496 59.127
139.721 3789 61.5549
139.838 3911 62.538
139.954 3911 62.538
140.071 3981 63.0952
140.187 3993 63.1902
140.303 3880 62.2896
140.419 3825 61.8466
140.535 3994 63.1981
140.652 3760 61.3188
140.768 0 1
140.884 0 1
141 0 1
141.115 0 1
141.231 0 1
141.347 0 1
141.463 0 1
141.578 0 1
141.694 0 1
144.104 0 1
144.219 0 1
144.335 0 1
144.45 0 1
144.566 0 1
144.682 0 1
144.798 0 1
144.914 0 1
145.03 0 1
145.146 3411 58.4038
145.262 3434 58.6003
145.378 3323 57.6455
145.494 3236 56.8859
145.61 3358 57.9483
145.726 3164 56.2494
145.842 3169 56.2939
145.959 3252 57.0263
146.075 3121 55.8659
146.192 3132 55.9643
146.308 3213 56.6833
146.425 3142 56.0535
146.541 3202 56.5862
146.658 3117 55.8301
146.774 3082 55.5158
146.891 3082 55.5158
147.008 3128 55.9285
147.125 3117 55.8301
147.241 3182 56.4092
147.358 3159 56.205
147.475 2955 54.3599
147.592 2866 53.535
147.709 2498 49.98
147.826 2295 47.9062
147.943 2341 48.3839
148.06 2439 49.3862
148.177 2679 51.7591
148.294 2996 54.7357
148.411 3130 55.9464
148.528 3096 55.6417
148.645 2998 54.754
148.762 3085 55.5428
148.88 3050 55.2268
148.997 2951 54.3231
149.114 3204 56.6039
149.231 2997 54.7449
149.349 2893 53.7866
149.466 2908 53.9259
149.583 2897 53.8238
149.701 2894 53.7959
149.818 2838 53.2729
149.935 2958 54.3875
150.053 2871 53.5817
150.17 2866 53.535
150.287 2899 53.8424
150.405 2794 52.8583
150.522 2844 53.3292
150.64 2951 54.3231
150.757 2984 54.626
150.875 2984 54.626
150.992 2844 53.3292
151.11 2826 53.1601
151.227 2552 50.5173
151.344 2442 49.4166
151.462 2236 47.2864
151.579 2202 46.9255
151.697 2310 48.0625
151.814 2646 51.4393
151.932 2899 53.8424
152.049 3026 55.0091
152.167 3002 54.7905
152.284 2972 54.5161
152.402 3007 54.8361
152.519 2929 54.1202
152.636 2945 54.2679
152.754 2978 54.5711
152.871 2917 54.0093
152.989 2905 53.8981
153.106 2810 53.0094
153.223 2884 53.7029
153.341 2846 53.3479
153.458 2799 52.9056
153.575 2924 54.074
153.693 2873 53.6004
153.81 2795 52.8678
153.927 2842 53.3104
154.044 2793 52.8488
154.162 2956 54.3691
154.279 2919 54.0278
154.396 3009 54.8544
154.513 2938 54.2033
154.63 3078 55.4797
154.747 2864 53.5164
154.864 2755 52.4881
154.981 2598 50.9706
155.098 2468 49.679
155.215 2360 48.5798
155.332 2497 49.97
155.449 2749 52.4309
155.566 2873 53.6004
155.683 2946 54.2771
155.8 3024 54.9909
155.917 2946 54.2771
156.033 2992 54.6992
156.15 0 1
156.267 0 1
156.383 0 1
156.5 0 1
156.617 0 1
156.733 0 1
156.85 0 1
156.966 0 1
157.082 0 1
157.199 0 1
157.315 0 1
157.431 0 1
157.547 0 1
157.664 0 1
157.78 0 1
157.896 0 1
158.012 0 1
158.128 0 1
158.244 0 1
158.359 0 1
158.475 0 1
158.591 0 1
158.706 0 1
