
6.15755 0 1
6.2731 0 1
6.3887 0 1
6.50437 0 1
6.62009 0 1
6.73587 0 1
6.8517 0 1
6.96759 0 1
7.08353 0 1
7.19952 0 1
7.31557 0 1
7.43166 0 1
7.54781 0 1
7.664 0 1
7.78024 0 1
7.89653 0 1
8.01286 0 1
8.12924 0 1
8.24567 0 1
8.36213 0 1
8.47864 0 1
8.59519 0 1
8.71178 0 1
8.82841 0 1
8.94508 0 1
9.06179 0 1
9.17853 0 1
9.29531 0 1
9.41212 0 1
9.52897 0 1
9.64584 0 1
9.76276 0 1
9.8797 0 1
9.99667 0 1
10.1137 0 1
10.2307 0 1
10.3478 0 1
10.4648 0 1
10.5819 0 1
10.6991 0 1
10.8162 0 1
10.9334 0 1
11.0506 0 1
11.1678 0 1
11.285 0 1
11.4023 0 1
11.5196 0 1
11.6369 0 1
11.7542 0 1
11.8715 0 1
11.9888 0 1
12.1062 0 1
12.2235 0 1
12.3409 0 1
12.4582 0 1
12.5756 0 1
12.693 0 1
12.8104 0 1
12.9278 0 1
13.0452 0 1
13.1626 0 1
13.28 0 1
13.3974 0 1
13.5149 0 1
13.6323 0 1
13.7497 0 1
13.8671 0 1
13.9845 0 1
14.1019 0 1
14.2193 0 1
14.3367 0 1
14.4541 0 1
14.5714 0 1
14.6888 0 1
14.8062 0 1
14.9235 0 1
15.0408 1168 34.176
15.1581 1266 35.5809
15.2755 1281 35.7911
15.3927 1260 35.4965
15.51 1304 36.1109
15.6273 1222 34.9571
15.7445 1245 35.2846
15.8617 1235 35.1426
15.9789 1160 34.0588
16.0961 1141 33.7787
16.2132 1174 34.2637
16.3304 1211 34.7994
16.4475 1141 33.7787
16.5646 1208 34.7563
16.6816 1204 34.6987
16.7986 1250 35.3553
16.9156 1221 34.9428
17.0326 1224 34.9857
17.1496 1273 35.6791
17.2665 1218 34.8999
17.3833 1281 35.7911
17.5002 1284 35.8329
17.617 1308 36.1663
17.7338 1358 36.8511
17.8505 1425 37.7492
17.9672 1362 36.9053
18.0839 1436 37.8946
18.2005 1523 39.0256
18.3171 1520 38.9872
18.4337 1518 38.9615
18.5502 1596 39.95
18.6666 1598 39.975
18.7831 1575 39.6863
18.8994 1489 38.5876
19.0158 1453 38.1182
19.1321 1369 37
19.2483 1362 36.9053
19.3645 1315 36.2629
19.4806 1270 35.6371
19.5967 1222 34.9571
19.7128 1209 34.7707
19.8288 1205 34.7131
19.9447 1070 32.7109
20.0606 0 1
20.1764 0 1
20.2922 0 1
20.4079 0 1
20.5236 0 1
20.6392 0 1
20.7548 0 1
20.8702 0 1
23.3078 0 1
23.4233 0 1
23.539 0 1
23.6547 0 1
23.7704 0 1
23.8862 0 1
24.0021 0 1
24.118 0 1
24.234 0 1
24.35 0 1
24.4661 1184 34.4093
24.5822 1194 34.5543
24.6984 1198 34.6121
24.8146 1218 34.8999
24.9309 1233 35.1141
25.0472 1206 34.7275
25.1636 1224 34.9857
25.28 1244 35.2704
25.3965 1274 35.6931
25.513 1338 36.5787
25.6296 1283 35.819
25.7462 1266 35.5809
25.8628 1354 36.7967
25.9795 1386 37.229
26.0962 1389 37.2693
26.213 1439 37.9342
26.3298 1440 37.9473
26.4466 1503 38.7685
26.5635 1420 37.6829
26.6804 1478 38.4448
26.7973 1460 38.2099
26.9143 1528 39.0896
27.0313 1468 38.3145
27.1483 1522 39.0128
27.2653 1516 38.9358
27.3824 1413 37.5899
27.4996 1405 37.4833
27.6167 1406 37.4967
27.7339 1356 36.8239
27.8511 1246 35.2987
27.9683 1210 34.7851
28.0855 1187 34.4529
28.2028 1161 34.0735
28.3201 1119 33.4515
28.4374 1168 34.176
28.5547 1207 34.7419
28.6721 1269 35.623
28.7894 1171 34.2199
28.9068 1236 35.1568
29.0242 1197 34.5977
29.1416 1239 35.1994
29.259 1234 35.1283
29.3764 1211 34.7994
29.4939 1247 35.3129
29.6113 1213 34.8281
29.7288 1266 35.5809
29.8463 1272 35.6651
29.9638 1322 36.3593
30.0812 1353 36.7831
30.1987 1368 36.9865
30.3162 1347 36.7015
30.4337 1468 38.3145
30.5512 1496 38.6782
30.6687 1453 38.1182
30.7862 1399 37.4032
30.9037 1381 37.1618
31.0212 1352 36.7696
31.1387 1343 36.647
31.2562 1346 36.6879
31.3737 1200 34.641
31.4912 1218 34.8999
31.6087 1177 34.3074
31.7262 1161 34.0735
31.8436 1073 32.7567
31.9611 1128 33.5857
32.0785 1101 33.1813
32.1959 1138 33.7343
32.3134 1228 35.0428
32.4308 1209 34.7707
32.5482 1226 35.0143
32.6655 1282 35.805
32.7829 1271 35.6511
32.9002 1208 34.7563
33.0176 1224 34.9857
33.1349 1207 34.7419
33.2522 1219 34.9142
33.3694 1210 34.7851
33.4867 1281 35.7911
33.6039 1277 35.7351
33.7211 1281 35.7911
33.8383 1266 35.5809
33.9554 1457 38.1707
34.0725 1338 36.5787
34.1896 1288 35.8887
34.3067 1429 37.8021
34.4237 1356 36.8239
34.5407 1307 36.1525
34.6577 1245 35.2846
34.7746 1258 35.4683
34.8915 1246 35.2987
35.0084 1151 33.9264
35.1252 1101 33.1813
35.242 1094 33.0757
35.3587 1063 32.6037
35.4755 1032 32.1248
35.5921 1083 32.909
35.7088 1080 32.8634
35.8254 1074 32.7719
35.9419 1131 33.6303
36.0584 1157 34.0147
36.1749 1132 33.6452
36.2913 1210 34.7851
36.4077 1162 34.0881
36.524 1126 33.5559
36.6403 1158 34.0294
36.7565 1177 34.3074
36.8727 1127 33.5708
36.9889 1155 33.9853
37.1049 1119 33.4515
37.221 0 1
37.3369 0 1
37.4529 0 1
37.5687 0 1
37.6845 0 1
37.8003 0 1
37.916 0 1
38.0316 0 1
38.1472 0 1
40.5851 0 1
40.7008 0 1
40.8164 0 1
40.9322 0 1
41.048 0 1
41.1639 0 1
41.2798 0 1
41.3958 0 1
41.5118 0 1
41.6279 0 1
41.744 923 30.3809
41.8602 1065 32.6343
41.9765 1000 31.6228
42.0928 987 31.4166
42.2091 1034 32.1559
42.3255 1039 32.2335
42.4419 1072 32.7414
42.5584 1060 32.5576
42.675 1089 33
42.7915 1105 33.2415
42.9081 1099 33.1512
43.0248 1085 32.9393
43.1415 1159 34.0441
43.2582 1105 33.2415
43.375 1217 34.8855
43.4918 1096 33.1059
43.6087 1171 34.2199
43.7256 1155 33.9853
43.8425 1097 33.121
43.9595 1126 33.5559
44.0765 1027 32.0468
44.1935 977 31.257
44.3106 1036 32.187
44.4277 1016 31.8748
44.5448 1008 31.749
44.6619 944 30.7246
44.7791 994 31.5278
44.8963 954 30.8869
45.0136 978 31.273
45.1308 904 30.0666
45.2481 852 29.189
45.3654 920 30.3315
45.4827 839 28.9655
45.6001 923 30.3809
45.7174 845 29.0689
45.8348 831 28.8271
45.9522 850 29.1548
46.0697 778 27.8927
46.1871 796 28.2135
46.3046 758 27.5318
46.422 765 27.6586
46.5395 807 28.4077
46.657 726 26.9444
46.7745 782 27.9643
46.892 817 28.5832
47.0096 775 27.8388
47.1271 723 26.8887
47.2446 785 28.0179
47.3622 800 28.2843
47.4797 738 27.1662
47.5973 705 26.5518
47.7149 698 26.4197
47.8324 698 26.4197
47.95 613 24.7588
48.0675 599 24.4745
48.1851 661 25.7099
48.3027 634 25.1794
48.4202 596 24.4131
48.5378 640 25.2982
48.6554 628 25.0599
48.7729 595 24.3926
48.8904 639 25.2784
49.008 631 25.1197
49.1255 571 23.8956
49.243 660 25.6905
49.3605 586 24.2074
49.478 678 26.0384
49.5955 651 25.5147
49.713 631 25.1197
49.8304 625 25
49.9479 609 24.6779
50.0653 621 24.9199
50.1827 685 26.1725
50.3001 734 27.0924
50.4175 702 26.4953
50.5348 730 27.0185
50.6521 715 26.7395
50.7694 739 27.1846
50.8867 748 27.3496
51.004 738 27.1662
51.1212 715 26.7395
51.2384 808 28.4253
51.3556 836 28.9137
51.4727 841 29
51.5899 859 29.3087
51.707 849 29.1376
51.824 810 28.4605
51.9411 824 28.7054
52.0581 794 28.178
52.175 787 28.0535
52.2919 786 28.0357
52.4088 765 27.6586
52.5257 833 28.8617
52.6425 817 28.5832
52.7593 794 28.178
52.876 812 28.4956
52.9927 804 28.3549
53.1094 870 29.4958
53.226 870 29.4958
53.3426 900 30
53.4591 857 29.2746
53.5756 895 29.9166
53.692 933 30.545
53.8084 874 29.5635
53.9248 994 31.5278
54.0411 1004 31.686
54.1573 1008 31.749
54.2735 0 1
54.3896 0 1
54.5057 0 1
54.6217 0 1
54.7377 0 1
54.8537 0 1
54.9695 0 1
55.0853 0 1
55.2011 0 1
55.3168 0 1
55.4324 0 1
57.824 0 1
57.9396 0 1
58.0553 0 1
58.1711 0 1
58.2869 0 1
58.4028 0 1
58.5187 0 1
58.6347 0 1
58.7508 0 1
58.8669 0 1
58.983 1177 34.3074
59.0992 1199 34.6266
59.2155 1146 33.8526
59.3318 1194 34.5543
59.4482 1161 34.0735
59.5646 1279 35.7631
59.681 1308 36.1663
59.7975 1259 35.4824
59.9141 1308 36.1663
60.0306 1299 36.0416
60.1473 1238 35.1852
60.2639 1149 33.8969
60.3807 1211 34.7994
60.4974 1095 33.0908
60.6142 1076 32.8024
60.731 1041 32.2645
60.8479 1016 31.8748
60.9648 1024 32
61.0818 947 30.7734
61.1987 957 30.9354
61.3158 938 30.6268
61.4328 1010 31.7805
61.5499 1038 32.218
61.667 1083 32.909
61.7841 1029 32.078
61.9013 1053 32.45
62.0185 1090 33.0151
62.1357 1043 32.2955
62.253 1110 33.3167
62.3702 1103 33.2114
62.4875 1124 33.5261
62.6049 1130 33.6155
62.7222 1070 32.7109
62.8396 1185 34.4238
62.9569 1153 33.9559
63.0743 1240 35.2136
63.1918 1226 35.0143
63.3092 1274 35.6931
63.4267 1243 35.2562
63.5441 1246 35.2987
63.6616 1171 34.2199
63.7791 1152 33.9411
63.8966 1147 33.8674
64.0142 1089 33
64.1317 979 31.289
64.2492 1001 31.6386
64.3668 915 30.249
64.4843 950 30.8221
64.6019 865 29.4109
64.7195 872 29.5296
64.837 878 29.6311
64.9546 944 30.7246
65.0722 995 31.5436
65.1898 951 30.8383
65.3074 985 31.3847
65.4249 986 31.4006
65.5425 968 31.1127
65.6601 973 31.1929
65.7777 1000 31.6228
65.8952 1007 31.7333
66.0128 1036 32.187
66.1304 1031 32.1092
66.2479 1106 33.2566
66.3655 1117 33.4215
66.483 1181 34.3657
66.6005 1160 34.0588
66.718 1133 33.6601
66.8355 1162 34.0881
66.953 1185 34.4238
67.0705 1158 34.0294
67.1879 1183 34.3948
67.3054 1163 34.1028
67.4228 1098 33.1361
67.5402 989 31.4484
67.6576 910 30.1662
67.7749 929 30.4795
67.8923 855 29.2404
68.0096 892 29.8664
68.1269 889 29.8161
68.2442 906 30.0998
68.3614 839 28.9655
68.4787 900 30
68.5958 979 31.289
68.713 1005 31.7017
68.8302 949 30.8058
68.9473 923 30.3809
69.0643 945 30.7409
69.1814 1008 31.749
69.2984 1031 32.1092
69.4154 1020 31.9374
69.5323 1091 33.0303
69.6492 1045 32.3265
69.7661 1157 34.0147
69.8829 1151 33.9264
69.9997 1189 34.4819
70.1165 1245 35.2846
70.2332 1274 35.6931
70.3499 1291 35.9305
70.4665 1307 36.1525
70.5831 1199 34.6266
70.6996 1252 35.3836
70.8161 1247 35.3129
70.9326 1163 34.1028
71.049 1067 32.665
71.1653 930 30.4959
71.2817 938 30.6268
71.3979 948 30.7896
71.5141 838 28.9482
71.6303 871 29.5127
71.7464 824 28.7054
71.8624 0 1
71.9784 0 1
72.0944 0 1
72.2102 0 1
72.3261 0 1
72.4418 0 1
72.5575 0 1
72.6732 0 1
75.1054 0 1
75.2209 0 1
75.3365 0 1
75.4521 0 1
75.5678 0 1
75.6835 0 1
75.7993 0 1
75.9151 0 1
76.031 0 1
76.147 1050 32.4037
76.263 1109 33.3017
76.3791 1042 32.28
76.4952 955 30.9031
76.6113 935 30.5778
76.7276 919 30.315
76.8438 975 31.225
76.9601 910 30.1662
77.0765 975 31.225
77.1929 938 30.6268
77.3093 944 30.7246
77.4258 933 30.545
77.5423 1048 32.3728
77.6589 985 31.3847
77.7755 1007 31.7333
77.8921 1021 31.9531
78.0088 979 31.289
78.1256 990 31.4643
78.2423 1075 32.7872
78.3591 1048 32.3728
78.4759 1061 32.573
78.5928 1196 34.5832
78.7097 1150 33.9116
78.8266 1227 35.0286
78.9436 1333 36.5103
79.0606 1310 36.1939
79.1776 1273 35.6791
79.2946 1218 34.8999
79.4117 1302 36.0832
79.5288 1206 34.7275
79.6459 1280 35.7771
79.7631 1251 35.3695
79.8802 1076 32.8024
79.9974 1012 31.8119
80.1147 994 31.5278
80.2319 935 30.5778
80.3491 941 30.6757
80.4664 917 30.282
80.5837 897 29.95
80.701 934 30.5614
80.8183 932 30.5287
80.9357 957 30.9354
81.053 937 30.6105
81.1704 970 31.1448
81.2877 1000 31.6228
81.4051 1044 32.311
81.5225 986 31.4006
81.6399 1009 31.7648
81.7573 1008 31.749
81.8747 986 31.4006
81.9922 984 31.3688
82.1096 1064 32.619
82.227 1158 34.0294
82.3444 1171 34.2199
82.4619 1246 35.2987
82.5793 1337 36.565
82.6967 1235 35.1426
82.8142 1190 34.4964
82.9316 1277 35.7351
83.049 1313 36.2353
83.1664 1228 35.0428
83.2838 1207 34.7419
83.4012 1154 33.9706
83.5186 1024 32
83.636 1009 31.7648
83.7534 961 31
83.8708 969 31.1288
83.9881 945 30.7409
84.1055 950 30.8221
84.2228 975 31.225
84.3401 1024 32
84.4575 978 31.273
84.5747 990 31.4643
84.692 1001 31.6386
84.8093 1040 32.249
84.9265 998 31.5911
85.0437 1071 32.7261
85.1609 1028 32.0624
85.2781 986 31.4006
85.3952 1102 33.1964
85.5123 1118 33.4365
85.6294 1031 32.1092
85.7465 1182 34.3802
85.8636 1216 34.8712
85.9806 1290 35.9166
86.0976 1296 36
86.2145 1351 36.756
86.3315 1405 37.4833
86.4484 1415 37.6165
86.5652 1421 37.6962
86.682 1410 37.55
86.7988 1374 37.0675
86.9156 1248 35.327
87.0323 1237 35.171
87.149 1166 34.1467
87.2657 1055 32.4808
87.3823 1038 32.218
87.4988 1011 31.7962
87.6154 1038 32.218
87.7318 1074 32.7719
87.8483 1014 31.8434
87.9647 1116 33.4066
88.081 1084 32.9242
88.1973 1098 33.1361
88.3136 1162 34.0881
88.4298 1120 33.4664
88.546 1131 33.6303
88.6621 1044 32.311
88.7781 1111 33.3317
88.8942 0 1
89.0101 0 1
89.126 0 1
89.2419 0 1
89.3577 0 1
89.4734 0 1
89.5891 0 1
89.7047 0 1
89.8203 0 1
89.9358 0 1
92.3269 0 1
92.4424 0 1
92.558 0 1
92.6736 0 1
92.7893 0 1
92.905 0 1
93.0208 0 1
93.1366 0 1
93.2525 0 1
93.3685 0 1
93.4845 0 1
93.6005 1055 32.4808
93.7167 1051 32.4191
93.8328 1015 31.8591
93.949 1056 32.4962
94.0653 1014 31.8434
94.1816 1021 31.9531
94.2979 1060 32.5576
94.4143 1163 34.1028
94.5307 1198 34.6121
94.6472 1183 34.3948
94.7637 1213 34.8281
94.8803 1277 35.7351
94.9969 1321 36.3456
95.1135 1326 36.4143
95.2302 1305 36.1248
95.3469 1354 36.7967
95.4637 1382 37.1753
95.5805 1293 35.9583
95.6973 1313 36.2353
95.8142 1332 36.4966
95.9311 1212 34.8138
96.048 1159 34.0441
96.1649 1158 34.0294
96.2819 1129 33.6006
96.3989 1117 33.4215
96.516 1047 32.3574
96.633 1042 32.28
96.7501 1048 32.3728
96.8673 1069 32.6956
96.9844 1025 32.0156
97.1016 1092 33.0454
97.2188 1048 32.3728
97.336 1065 32.6343
97.4532 1065 32.6343
97.5704 1070 32.7109
97.6877 1010 31.7805
97.805 992 31.496
97.9223 1049 32.3883
98.0396 1090 33.0151
98.1569 1036 32.187
98.2743 1024 32
98.3916 1193 34.5398
98.509 1262 35.5246
98.6264 1259 35.4824
98.7438 1262 35.5246
98.8612 1259 35.4824
98.9786 1275 35.7071
99.096 1301 36.0694
99.2134 1304 36.1109
99.3308 1266 35.5809
99.4482 1231 35.0856
99.5656 1213 34.8281
99.6831 1133 33.6601
99.8005 1144 33.8231
99.9179 1055 32.4808
100.035 1045 32.3265
100.153 1031 32.1092
100.27 1004 31.686
100.388 990 31.4643
100.505 1035 32.1714
100.622 1031 32.1092
100.74 972 31.1769
100.857 1067 32.665
100.975 1030 32.0936
101.092 1045 32.3265
101.209 1000 31.6228
101.327 983 31.3528
101.444 963 31.0322
101.561 963 31.0322
101.679 984 31.3688
101.796 1073 32.7567
101.913 1105 33.2415
102.03 1272 35.6651
102.148 1310 36.1939
102.265 1259 35.4824
102.382 1464 38.2623
102.499 1317 36.2905
102.616 1307 36.1525
102.733 1364 36.9324
102.851 1349 36.7287
102.968 1405 37.4833
103.085 1351 36.756
103.202 1262 35.5246
103.319 1280 35.7771
103.436 1255 35.426
103.552 1177 34.3074
103.669 1121 33.4813
103.786 1142 33.7935
103.903 1132 33.6452
104.02 1195 34.5688
104.137 1012 31.8119
104.253 1128 33.5857
104.37 1152 33.9411
104.487 1172 34.2345
104.603 1095 33.0908
104.72 1075 32.7872
104.836 1020 31.9374
104.953 1101 33.1813
105.069 1112 33.3467
105.186 1086 32.9545
105.302 1180 34.3511
105.418 1218 34.8999
105.535 1289 35.9026
105.651 1359 36.8646
105.767 1504 38.7814
105.883 1378 37.1214
105.999 1341 36.6197
106.115 0 1
106.231 0 1
106.347 0 1
106.463 0 1
106.579 0 1
106.694 0 1
106.81 0 1
106.926 0 1
107.041 0 1
107.157 0 1
109.576 0 1
109.692 0 1
109.807 0 1
109.923 0 1
110.039 0 1
110.155 0 1
110.27 0 1
110.386 0 1
110.502 0 1
110.618 1143 33.8083
110.735 1241 35.2278
110.851 1267 35.5949
110.967 1239 35.1994
111.083 1192 34.5254
111.199 1190 34.4964
111.316 1331 36.4829
111.432 1268 35.609
111.549 1198 34.6121
111.665 1119 33.4515
111.782 1146 33.8526
111.898 1141 33.7787
112.015 1084 32.9242
112.132 1014 31.8434
112.248 970 31.1448
112.365 956 30.9192
112.482 1029 32.078
112.599 950 30.8221
112.716 945 30.7409
112.832 936 30.5941
112.949 865 29.4109
113.066 911 30.1828
113.183 877 29.6142
113.3 839 28.9655
113.417 851 29.1719
113.534 915 30.249
113.652 837 28.931
113.769 934 30.5614
113.886 905 30.0832
114.003 966 31.0805
114.12 996 31.5595
114.238 1050 32.4037
114.355 998 31.5911
114.472 1028 32.0624
114.589 973 31.1929
114.707 1016 31.8748
114.824 986 31.4006
114.942 995 31.5436
115.059 996 31.5595
115.176 954 30.8869
115.294 941 30.6757
115.411 947 30.7734
115.529 879 29.6479
115.646 877 29.6142
115.764 811 28.4781
115.881 779 27.9106
115.999 771 27.7669
116.116 709 26.6271
116.234 745 27.2947
116.351 711 26.6646
116.469 698 26.4197
116.586 669 25.865
116.704 690 26.2679
116.821 699 26.4386
116.939 652 25.5343
117.056 712 26.6833
117.174 676 26
117.291 758 27.5318
117.409 714 26.7208
117.526 771 27.7669
117.644 745 27.2947
117.761 813 28.5132
117.879 819 28.6182
117.996 790 28.1069
118.114 772 27.7849
118.231 777 27.8747
118.349 736 27.1293
118.466 822 28.6705
118.584 945 30.7409
118.701 895 29.9166
118.819 867 29.4449
118.936 846 29.0861
119.053 856 29.2575
119.171 886 29.7658
119.288 853 29.2062
119.405 804 28.3549
119.523 782 27.9643
119.64 775 27.8388
119.757 794 28.178
119.875 737 27.1477
119.992 746 27.313
120.109 741 27.2213
120.226 730 27.0185
120.343 726 26.9444
120.46 747 27.3313
120.578 773 27.8029
120.695 748 27.3496
120.812 722 26.8701
120.929 857 29.2746
121.046 779 27.9106
121.163 862 29.3598
121.279 855 29.2404
121.396 871 29.5127
121.513 902 30.0333
121.63 956 30.9192
121.747 855 29.2404
121.863 818 28.6007
121.98 854 29.2233
122.097 880 29.6648
122.213 986 31.4006
122.33 980 31.305
122.446 1052 32.4345
122.563 1025 32.0156
122.679 1005 31.7017
122.795 992 31.496
122.912 1017 31.8904
123.028 941 30.6757
123.144 916 30.2655
123.26 940 30.6594
123.377 0 1
123.493 0 1
123.609 0 1
123.725 0 1
123.84 0 1
123.956 0 1
124.072 0 1
124.188 0 1
124.303 0 1
124.419 0 1
126.852 0 1
126.968 0 1
127.083 0 1
127.199 0 1
127.315 0 1
127.431 0 1
127.547 0 1
127.663 0 1
127.779 0 1
127.895 0 1
128.011 0 1
128.127 0 1
128.243 0 1
128.359 1145 33.8378
128.476 1172 34.2345
128.592 1134 33.6749
128.708 1082 32.8938
128.825 1081 32.8786
128.941 1065 32.6343
129.058 1037 32.2025
129.174 1015 31.8591
129.291 1010 31.7805
129.408 1010 31.7805
129.524 1023 31.9844
129.641 1048 32.3728
129.758 1019 31.9218
129.875 929 30.4795
129.992 1068 32.6803
130.108 1024 32
130.225 961 31
130.342 1014 31.8434
130.459 1107 33.2716
130.576 969 31.1288
130.693 943 30.7083
130.81 833 28.8617
130.928 718 26.7955
131.045 860 29.3258
131.162 971 31.1609
131.279 1014 31.8434
131.396 995 31.5436
131.513 1009 31.7648
131.631 947 30.7734
131.748 1043 32.2955
131.865 1028 32.0624
131.983 957 30.9354
132.1 951 30.8383
132.217 987 31.4166
132.335 984 31.3688
132.452 901 30.0167
132.57 923 30.3809
132.687 858 29.2916
132.804 871 29.5127
132.922 894 29.8998
133.039 850 29.1548
133.157 821 28.6531
133.274 806 28.3901
133.392 859 29.3087
133.509 844 29.0517
133.627 840 28.9828
133.744 866 29.4279
133.862 875 29.5804
133.979 884 29.7321
134.097 818 28.6007
134.214 711 26.6646
134.332 667 25.8263
134.449 556 23.5797
134.567 713 26.7021
134.684 739 27.1846
134.802 812 28.4956
134.919 821 28.6531
135.037 778 27.8927
135.154 798 28.2489
135.272 757 27.5136
135.389 756 27.4955
135.507 749 27.3679
135.624 754 27.4591
135.742 728 26.9815
135.859 708 26.6083
135.977 727 26.9629
136.094 690 26.2679
136.211 663 25.7488
136.329 689 26.2488
136.446 690 26.2679
136.564 715 26.7395
136.681 634 25.1794
136.798 662 25.7294
136.915 653 25.5539
137.033 631 25.1197
137.15 627 25.04
137.267 742 27.2397
137.384 705 26.5518
137.502 626 25.02
137.619 632 25.1396
137.736 628 25.0599
137.853 554 23.5372
137.97 489 22.1133
138.087 470 21.6795
138.204 602 24.5357
138.321 695 26.3629
138.438 744 27.2764
138.555 711 26.6646
138.672 735 27.1109
138.788 708 26.6083
138.905 746 27.313
139.022 711 26.6646
139.139 762 27.6043
139.255 727 26.9629
139.372 757 27.5136
139.488 817 28.5832
139.605 807 28.4077
139.721 742 27.2397
139.838 807 28.4077
139.954 773 27.8029
140.071 782 27.9643
140.187 805 28.3725
140.303 814 28.5307
140.419 782 27.9643
140.535 752 27.4226
140.652 769 27.7308
140.768 0 1
140.884 0 1
141 0 1
141.115 0 1
141.231 0 1
141.347 0 1
141.463 0 1
141.578 0 1
141.694 0 1
144.104 0 1
144.219 0 1
144.335 0 1
144.45 0 1
144.566 0 1
144.682 0 1
144.798 0 1
144.914 0 1
145.03 0 1
145.146 686 26.1916
145.262 692 26.3059
145.378 643 25.3574
145.494 636 25.219
145.61 624 24.98
145.726 582 24.1247
145.842 630 25.0998
145.959 553 23.516
146.075 562 23.7065
146.192 585 24.1868
146.308 581 24.1039
146.425 554 23.5372
146.541 506 22.4944
146.658 443 21.0476
146.774 433 20.8087
146.891 519 22.7816
147.008 510 22.5832
147.125 551 23.4734
147.241 580 24.0832
147.358 559 23.6432
147.475 554 23.5372
147.592 499 22.3383
147.709 527 22.9565
147.826 569 23.8537
147.943 529 23
148.06 511 22.6053
148.177 572 23.9165
148.294 512 22.6274
148.411 458 21.4009
148.528 484 22
148.645 519 22.7816
148.762 476 21.8174
148.88 428 20.6882
148.997 473 21.7486
149.114 427 20.664
149.231 423 20.567
149.349 454 21.3073
149.466 414 20.347
149.583 439 20.9523
149.701 422 20.5426
149.818 497 22.2935
149.935 434 20.8327
150.053 406 20.1494
150.17 390 19.7484
150.287 350 18.7083
150.405 363 19.0526
150.522 405 20.1246
150.64 454 21.3073
150.757 408 20.199
150.875 415 20.3715
150.992 391 19.7737
151.11 462 21.4942
151.227 414 20.347
151.344 432 20.7846
151.462 445 21.095
151.579 439 20.9523
151.697 420 20.4939
151.814 457 21.3776
151.932 438 20.9284
152.049 414 20.347
152.167 410 20.2485
152.284 411 20.2731
152.402 383 19.5704
152.519 390 19.7484
152.636 407 20.1742
152.754 370 19.2354
152.871 447 21.1424
152.989 422 20.5426
153.106 405 20.1246
153.223 409 20.2237
153.341 469 21.6564
153.458 426 20.6398
153.575 435 20.8567
153.693 421 20.5183
153.81 404 20.0998
153.927 393 19.8242
154.044 436 20.8806
154.162 432 20.7846
154.279 488 22.0907
154.396 521 22.8254
154.513 507 22.5167
154.63 525 22.9129
154.747 510 22.5832
154.864 528 22.9783
154.981 492 22.1811
155.098 501 22.383
155.215 509 22.561
155.332 527 22.9565
155.449 531 23.0434
155.566 513 22.6495
155.683 490 22.1359
155.8 476 21.8174
155.917 516 22.7156
156.033 460 21.4476
156.15 0 1
156.267 0 1
156.383 0 1
156.5 0 1
156.617 0 1
156.733 0 1
156.85 0 1
156.966 0 1
157.082 0 1
157.199 0 1
157.315 0 1
157.431 0 1
157.547 0 1
157.664 0 1
157.78 0 1
157.896 0 1
158.012 0 1
158.128 0 1
158.244 0 1
158.359 0 1
158.475 0 1
158.591 0 1
158.706 0 1
