
6.15755 0 1
6.2731 0 1
6.3887 0 1
6.50437 0 1
6.62009 0 1
6.73587 0 1
6.8517 0 1
6.96759 0 1
7.08353 0 1
7.19952 0 1
7.31557 0 1
7.43166 0 1
7.54781 0 1
7.664 0 1
7.78024 0 1
7.89653 0 1
8.01286 0 1
8.12924 0 1
8.24567 0 1
8.36213 0 1
8.47864 0 1
8.59519 0 1
8.71178 0 1
8.82841 0 1
8.94508 0 1
9.06179 0 1
9.17853 0 1
9.29531 0 1
9.41212 0 1
9.52897 0 1
9.64584 0 1
9.76276 0 1
9.8797 0 1
9.99667 0 1
10.1137 0 1
10.2307 0 1
10.3478 0 1
10.4648 0 1
10.5819 0 1
10.6991 0 1
10.8162 0 1
10.9334 0 1
11.0506 0 1
11.1678 0 1
11.285 0 1
11.4023 0 1
11.5196 0 1
11.6369 0 1
11.7542 0 1
11.8715 0 1
11.9888 0 1
12.1062 0 1
12.2235 0 1
12.3409 0 1
12.4582 0 1
12.5756 0 1
12.693 0 1
12.8104 0 1
12.9278 0 1
13.0452 0 1
13.1626 0 1
13.28 0 1
13.3974 0 1
13.5149 0 1
13.6323 0 1
13.7497 0 1
13.8671 0 1
13.9845 0 1
14.1019 0 1
14.2193 0 1
14.3367 0 1
14.4541 0 1
14.5714 0 1
14.6888 0 1
14.8062 0 1
14.9235 0 1
15.0408 1296 36
15.1581 1362 36.9053
15.2755 1375 37.081
15.3927 1409 37.5366
15.51 1405 37.4833
15.6273 1304 36.1109
15.7445 1340 36.606
15.8617 1278 35.7491
15.9789 1244 35.2704
16.0961 1300 36.0555
16.2132 1312 36.2215
16.3304 1238 35.1852
16.4475 1257 35.4542
16.5646 1322 36.3593
16.6816 1319 36.318
16.7986 1315 36.2629
16.9156 1346 36.6879
17.0326 1313 36.2353
17.1496 1372 37.0405
17.2665 1455 38.1445
17.3833 1351 36.756
17.5002 1384 37.2022
17.617 1419 37.6696
17.7338 1495 38.6652
17.8505 1519 38.9744
17.9672 1515 38.923
18.0839 1651 40.6325
18.2005 1591 39.8873
18.3171 1731 41.6053
18.4337 1729 41.5812
18.5502 1699 41.2189
18.6666 1768 42.0476
18.7831 1697 41.1947
18.8994 1665 40.8044
19.0158 1621 40.2616
19.1321 1571 39.6358
19.2483 1424 37.7359
19.3645 1405 37.4833
19.4806 1374 37.0675
19.5967 1414 37.6032
19.7128 1315 36.2629
19.8288 1252 35.3836
19.9447 1166 34.1467
20.0606 0 1
20.1764 0 1
20.2922 0 1
20.4079 0 1
20.5236 0 1
20.6392 0 1
20.7548 0 1
20.8702 0 1
23.3078 0 1
23.4233 0 1
23.539 0 1
23.6547 0 1
23.7704 0 1
23.8862 0 1
24.0021 0 1
24.118 0 1
24.234 0 1
24.35 0 1
24.4661 1358 36.8511
24.5822 1363 36.9188
24.6984 1353 36.7831
24.8146 1279 35.7631
24.9309 1271 35.6511
25.0472 1353 36.7831
25.1636 1437 37.9078
25.28 1412 37.5766
25.3965 1344 36.6606
25.513 1417 37.6431
25.6296 1389 37.2693
25.7462 1521 39
25.8628 1525 39.0512
25.9795 1492 38.6264
26.0962 1596 39.95
26.213 1525 39.0512
26.3298 1540 39.2428
26.4466 1522 39.0128
26.5635 1589 39.8623
26.6804 1587 39.8372
26.7973 1555 39.4335
26.9143 1615 40.1871
27.0313 1640 40.4969
27.1483 1669 40.8534
27.2653 1654 40.6694
27.3824 1667 40.8289
27.4996 1614 40.1746
27.6167 1511 38.8716
27.7339 1410 37.55
27.8511 1457 38.1707
27.9683 1397 37.3765
28.0855 1317 36.2905
28.2028 1329 36.4555
28.3201 1313 36.2353
28.4374 1298 36.0278
28.5547 1407 37.51
28.6721 1384 37.2022
28.7894 1372 37.0405
28.9068 1292 35.9444
29.0242 1394 37.3363
29.1416 1397 37.3765
29.259 1337 36.565
29.3764 1434 37.8682
29.4939 1396 37.3631
29.6113 1442 37.9737
29.7288 1432 37.8418
29.8463 1470 38.3406
29.9638 1427 37.7757
30.0812 1537 39.2046
30.1987 1521 39
30.3162 1526 39.064
30.4337 1588 39.8497
30.5512 1617 40.2119
30.6687 1537 39.2046
30.7862 1623 40.2865
30.9037 1547 39.3319
31.0212 1547 39.3319
31.1387 1485 38.5357
31.2562 1438 37.921
31.3737 1352 36.7696
31.4912 1358 36.8511
31.6087 1274 35.6931
31.7262 1294 35.9722
31.8436 1322 36.3593
31.9611 1227 35.0286
32.0785 1267 35.5949
32.1959 1337 36.565
32.3134 1325 36.4005
32.4308 1321 36.3456
32.5482 1417 37.6431
32.6655 1402 37.4433
32.7829 1394 37.3363
32.9002 1390 37.2827
33.0176 1389 37.2693
33.1349 1403 37.4566
33.2522 1419 37.6696
33.3694 1420 37.6829
33.4867 1428 37.7889
33.6039 1456 38.1576
33.7211 1456 38.1576
33.8383 1496 38.6782
33.9554 1575 39.6863
34.0725 1524 39.0384
34.1896 1567 39.5854
34.3067 1510 38.8587
34.4237 1523 39.0256
34.5407 1498 38.704
34.6577 1499 38.7169
34.7746 1414 37.6032
34.8915 1351 36.756
35.0084 1361 36.8917
35.1252 1292 35.9444
35.242 1277 35.7351
35.3587 1279 35.7631
35.4755 1237 35.171
35.5921 1212 34.8138
35.7088 1217 34.8855
35.8254 1264 35.5528
35.9419 1227 35.0286
36.0584 1309 36.1801
36.1749 1308 36.1663
36.2913 1355 36.8103
36.4077 1351 36.756
36.524 1298 36.0278
36.6403 1323 36.3731
36.7565 1316 36.2767
36.8727 1334 36.524
36.9889 1227 35.0286
37.1049 1305 36.1248
37.221 0 1
37.3369 0 1
37.4529 0 1
37.5687 0 1
37.6845 0 1
37.8003 0 1
37.916 0 1
38.0316 0 1
38.1472 0 1
40.5851 0 1
40.7008 0 1
40.8164 0 1
40.9322 0 1
41.048 0 1
41.1639 0 1
41.2798 0 1
41.3958 0 1
41.5118 0 1
41.6279 0 1
41.744 1014 31.8434
41.8602 1143 33.8083
41.9765 1189 34.4819
42.0928 1228 35.0428
42.2091 1198 34.6121
42.3255 1220 34.9285
42.4419 1259 35.4824
42.5584 1228 35.0428
42.675 1289 35.9026
42.7915 1288 35.8887
42.9081 1256 35.4401
43.0248 1321 36.3456
43.1415 1278 35.7491
43.2582 1357 36.8375
43.375 1324 36.3868
43.4918 1328 36.4417
43.6087 1253 35.3977
43.7256 1319 36.318
43.8425 1225 35
43.9595 1194 34.5543
44.0765 1198 34.6121
44.1935 1186 34.4384
44.3106 1166 34.1467
44.4277 1150 33.9116
44.5448 1111 33.3317
44.6619 1123 33.5112
44.7791 1094 33.0757
44.8963 1072 32.7414
45.0136 978 31.273
45.1308 1001 31.6386
45.2481 1058 32.5269
45.3654 1090 33.0151
45.4827 1041 32.2645
45.6001 945 30.7409
45.7174 966 31.0805
45.8348 982 31.3369
45.9522 914 30.2324
46.0697 919 30.315
46.1871 924 30.3974
46.3046 841 29
46.422 900 30
46.5395 862 29.3598
46.657 865 29.4109
46.7745 870 29.4958
46.892 901 30.0167
47.0096 907 30.1164
47.1271 890 29.8329
47.2446 890 29.8329
47.3622 918 30.2985
47.4797 852 29.189
47.5973 832 28.8444
47.7149 764 27.6405
47.8324 788 28.0713
47.95 788 28.0713
48.0675 782 27.9643
48.1851 789 28.0891
48.3027 754 27.4591
48.4202 744 27.2764
48.5378 712 26.6833
48.6554 686 26.1916
48.7729 721 26.8514
48.8904 755 27.4773
49.008 736 27.1293
49.1255 744 27.2764
49.243 745 27.2947
49.3605 684 26.1534
49.478 700 26.4575
49.5955 737 27.1477
49.713 768 27.7128
49.8304 749 27.3679
49.9479 778 27.8927
50.0653 824 28.7054
50.1827 813 28.5132
50.3001 815 28.5482
50.4175 829 28.7924
50.5348 855 29.2404
50.6521 851 29.1719
50.7694 897 29.95
50.8867 911 30.1828
51.004 885 29.7489
51.1212 903 30.05
51.2384 925 30.4138
51.3556 995 31.5436
51.4727 999 31.607
51.5899 984 31.3688
51.707 1002 31.6544
51.824 976 31.241
51.9411 935 30.5778
52.0581 945 30.7409
52.175 1000 31.6228
52.2919 995 31.5436
52.4088 992 31.496
52.5257 1006 31.7175
52.6425 1002 31.6544
52.7593 923 30.3809
52.876 947 30.7734
52.9927 934 30.5614
53.1094 1016 31.8748
53.226 1020 31.9374
53.3426 1067 32.665
53.4591 1083 32.909
53.5756 1041 32.2645
53.692 1111 33.3317
53.8084 1154 33.9706
53.9248 1195 34.5688
54.0411 1222 34.9571
54.1573 1186 34.4384
54.2735 0 1
54.3896 0 1
54.5057 0 1
54.6217 0 1
54.7377 0 1
54.8537 0 1
54.9695 0 1
55.0853 0 1
55.2011 0 1
55.3168 0 1
55.4324 0 1
57.824 0 1
57.9396 0 1
58.0553 0 1
58.1711 0 1
58.2869 0 1
58.4028 0 1
58.5187 0 1
58.6347 0 1
58.7508 0 1
58.8669 0 1
58.983 1315 36.2629
59.0992 1433 37.855
59.2155 1491 38.6135
59.3318 1485 38.5357
59.4482 1422 37.7094
59.5646 1514 38.9102
59.681 1521 39
59.7975 1544 39.2938
59.9141 1561 39.5095
60.0306 1525 39.0512
60.1473 1522 39.0128
60.2639 1421 37.6962
60.3807 1438 37.921
60.4974 1306 36.1386
60.6142 1282 35.805
60.731 1294 35.9722
60.8479 1186 34.4384
60.9648 1204 34.6987
61.0818 1169 34.1906
61.1987 1172 34.2345
61.3158 1155 33.9853
61.4328 1220 34.9285
61.5499 1218 34.8999
61.667 1230 35.0714
61.7841 1192 34.5254
61.9013 1216 34.8712
62.0185 1203 34.6843
62.1357 1278 35.7491
62.253 1308 36.1663
62.3702 1332 36.4966
62.4875 1351 36.756
62.6049 1393 37.3229
62.7222 1319 36.318
62.8396 1427 37.7757
62.9569 1454 38.1314
63.0743 1478 38.4448
63.1918 1427 37.7757
63.3092 1423 37.7227
63.4267 1475 38.4057
63.5441 1436 37.8946
63.6616 1404 37.47
63.7791 1423 37.7227
63.8966 1311 36.2077
64.0142 1219 34.9142
64.1317 1196 34.5832
64.2492 1134 33.6749
64.3668 1152 33.9411
64.4843 1033 32.1403
64.6019 1036 32.187
64.7195 1075 32.7872
64.837 1081 32.8786
64.9546 1104 33.2265
65.0722 1184 34.4093
65.1898 1102 33.1964
65.3074 1142 33.7935
65.4249 1162 34.0881
65.5425 1157 34.0147
65.6601 1255 35.426
65.7777 1209 34.7707
65.8952 1244 35.2704
66.0128 1282 35.805
66.1304 1299 36.0416
66.2479 1347 36.7015
66.3655 1322 36.3593
66.483 1370 37.0135
66.6005 1433 37.855
66.718 1397 37.3765
66.8355 1492 38.6264
66.953 1467 38.3014
67.0705 1450 38.0789
67.1879 1440 37.9473
67.3054 1368 36.9865
67.4228 1351 36.756
67.5402 1163 34.1028
67.6576 1156 34
67.7749 1011 31.7962
67.8923 1058 32.5269
68.0096 1114 33.3766
68.1269 1021 31.9531
68.2442 1077 32.8177
68.3614 1050 32.4037
68.4787 1103 33.2114
68.5958 1122 33.4963
68.713 1196 34.5832
68.8302 1183 34.3948
68.9473 1097 33.121
69.0643 1140 33.7639
69.1814 1173 34.2491
69.2984 1169 34.1906
69.4154 1316 36.2767
69.5323 1279 35.7631
69.6492 1277 35.7351
69.7661 1362 36.9053
69.8829 1410 37.55
69.9997 1492 38.6264
70.1165 1508 38.833
70.2332 1530 39.1152
70.3499 1566 39.5727
70.4665 1559 39.4842
70.5831 1444 38
70.6996 1538 39.2173
70.8161 1538 39.2173
70.9326 1384 37.2022
71.049 1262 35.5246
71.1653 1198 34.6121
71.2817 1156 34
71.3979 1085 32.9393
71.5141 1041 32.2645
71.6303 1036 32.187
71.7464 985 31.3847
71.8624 0 1
71.9784 0 1
72.0944 0 1
72.2102 0 1
72.3261 0 1
72.4418 0 1
72.5575 0 1
72.6732 0 1
75.1054 0 1
75.2209 0 1
75.3365 0 1
75.4521 0 1
75.5678 0 1
75.6835 0 1
75.7993 0 1
75.9151 0 1
76.031 0 1
76.147 1383 37.1887
76.263 1306 36.1386
76.3791 1171 34.2199
76.4952 1185 34.4238
76.6113 1202 34.6699
76.7276 1185 34.4238
76.8438 1125 33.541
76.9601 1139 33.7491
77.0765 1100 33.1662
77.1929 1221 34.9428
77.3093 1157 34.0147
77.4258 1177 34.3074
77.5423 1245 35.2846
77.6589 1265 35.5668
77.7755 1218 34.8999
77.8921 1161 34.0735
78.0088 1167 34.1614
78.1256 1177 34.3074
78.2423 1192 34.5254
78.3591 1223 34.9714
78.4759 1332 36.4966
78.5928 1335 36.5377
78.7097 1402 37.4433
78.8266 1343 36.647
78.9436 1546 39.3192
79.0606 1559 39.4842
79.1776 1529 39.1024
79.2946 1492 38.6264
79.4117 1523 39.0256
79.5288 1560 39.4968
79.6459 1509 38.8458
79.7631 1388 37.2559
79.8802 1404 37.47
79.9974 1231 35.0856
80.1147 1235 35.1426
80.2319 1183 34.3948
80.3491 1157 34.0147
80.4664 1177 34.3074
80.5837 1164 34.1174
80.701 1194 34.5543
80.8183 1136 33.7046
80.9357 1212 34.8138
81.053 1179 34.3366
81.1704 1208 34.7563
81.2877 1229 35.0571
81.4051 1171 34.2199
81.5225 1196 34.5832
81.6399 1170 34.2053
81.7573 1193 34.5398
81.8747 1191 34.5109
81.9922 1201 34.6554
82.1096 1269 35.623
82.227 1347 36.7015
82.3444 1435 37.8814
82.4619 1456 38.1576
82.5793 1614 40.1746
82.6967 1517 38.9487
82.8142 1527 39.0768
82.9316 1605 40.0625
83.049 1528 39.0896
83.1664 1562 39.5221
83.2838 1518 38.9615
83.4012 1405 37.4833
83.5186 1350 36.7423
83.636 1208 34.7563
83.7534 1170 34.2053
83.8708 1202 34.6699
83.9881 1164 34.1174
84.1055 1203 34.6843
84.2228 1223 34.9714
84.3401 1179 34.3366
84.4575 1222 34.9571
84.5747 1226 35.0143
84.692 1253 35.3977
84.8093 1374 37.0675
84.9265 1343 36.647
85.0437 1221 34.9428
85.1609 1248 35.327
85.2781 1244 35.2704
85.3952 1289 35.9026
85.5123 1297 36.0139
85.6294 1384 37.2022
85.7465 1328 36.4417
85.8636 1525 39.0512
85.9806 1504 38.7814
86.0976 1652 40.6448
86.2145 1628 40.3485
86.3315 1624 40.2989
86.4484 1591 39.8873
86.5652 1657 40.7063
86.682 1717 41.4367
86.7988 1586 39.8246
86.9156 1594 39.9249
87.0323 1500 38.7298
87.149 1406 37.4967
87.2657 1335 36.5377
87.3823 1287 35.8748
87.4988 1239 35.1994
87.6154 1242 35.242
87.7318 1310 36.1939
87.8483 1339 36.5923
87.9647 1344 36.6606
88.081 1287 35.8748
88.1973 1325 36.4005
88.3136 1446 38.0263
88.4298 1338 36.5787
88.546 1375 37.081
88.6621 1315 36.2629
88.7781 1200 34.641
88.8942 0 1
89.0101 0 1
89.126 0 1
89.2419 0 1
89.3577 0 1
89.4734 0 1
89.5891 0 1
89.7047 0 1
89.8203 0 1
89.9358 0 1
92.3269 0 1
92.4424 0 1
92.558 0 1
92.6736 0 1
92.7893 0 1
92.905 0 1
93.0208 0 1
93.1366 0 1
93.2525 0 1
93.3685 0 1
93.4845 0 1
93.6005 1315 36.2629
93.7167 1301 36.0694
93.8328 1242 35.242
93.949 1233 35.1141
94.0653 1183 34.3948
94.1816 1197 34.5977
94.2979 1263 35.5387
94.4143 1347 36.7015
94.5307 1299 36.0416
94.6472 1374 37.0675
94.7637 1478 38.4448
94.8803 1486 38.5487
94.9969 1597 39.9625
95.1135 1652 40.6448
95.2302 1582 39.7744
95.3469 1592 39.8999
95.4637 1683 41.0244
95.5805 1628 40.3485
95.6973 1607 40.0874
95.8142 1524 39.0384
95.9311 1481 38.4838
96.048 1392 37.3095
96.1649 1297 36.0139
96.2819 1318 36.3043
96.3989 1327 36.428
96.516 1279 35.7631
96.633 1289 35.9026
96.7501 1274 35.6931
96.8673 1290 35.9166
96.9844 1304 36.1109
97.1016 1262 35.5246
97.2188 1327 36.428
97.336 1372 37.0405
97.4532 1282 35.805
97.5704 1221 34.9428
97.6877 1227 35.0286
97.805 1245 35.2846
97.9223 1228 35.0428
98.0396 1254 35.4119
98.1569 1266 35.5809
98.2743 1359 36.8646
98.3916 1385 37.2156
98.509 1395 37.3497
98.6264 1484 38.5227
98.7438 1593 39.9124
98.8612 1598 39.975
98.9786 1579 39.7366
99.096 1596 39.95
99.2134 1538 39.2173
99.3308 1572 39.6485
99.4482 1456 38.1576
99.5656 1460 38.2099
99.6831 1418 37.6563
99.8005 1409 37.5366
99.9179 1266 35.5809
100.035 1262 35.5246
100.153 1313 36.2353
100.27 1243 35.2562
100.388 1250 35.3553
100.505 1302 36.0832
100.622 1175 34.2783
100.74 1260 35.4965
100.857 1334 36.524
100.975 1284 35.8329
101.092 1293 35.9583
101.209 1253 35.3977
101.327 1213 34.8281
101.444 1180 34.3511
101.561 1187 34.4529
101.679 1244 35.2704
101.796 1279 35.7631
101.913 1310 36.1939
102.03 1420 37.6829
102.148 1526 39.064
102.265 1411 37.5633
102.382 1782 42.2137
102.499 1620 40.2492
102.616 1602 40.025
102.733 1619 40.2368
102.851 1656 40.694
102.968 1705 41.2916
103.085 1598 39.975
103.202 1554 39.4208
103.319 1461 38.223
103.436 1405 37.4833
103.552 1414 37.6032
103.669 1424 37.7359
103.786 1403 37.4566
103.903 1372 37.0405
104.02 1314 36.2491
104.137 1346 36.6879
104.253 1412 37.5766
104.37 1435 37.8814
104.487 1411 37.5633
104.603 1395 37.3497
104.72 1363 36.9188
104.836 1316 36.2767
104.953 1261 35.5106
105.069 1312 36.2215
105.186 1292 35.9444
105.302 1382 37.1753
105.418 1460 38.2099
105.535 1613 40.1622
105.651 1582 39.7744
105.767 1619 40.2368
105.883 1641 40.5093
105.999 1557 39.4588
106.115 0 1
106.231 0 1
106.347 0 1
106.463 0 1
106.579 0 1
106.694 0 1
106.81 0 1
106.926 0 1
107.041 0 1
107.157 0 1
109.576 0 1
109.692 0 1
109.807 0 1
109.923 0 1
110.039 0 1
110.155 0 1
110.27 0 1
110.386 0 1
110.502 0 1
110.618 1361 36.8917
110.735 1465 38.2753
110.851 1506 38.8072
110.967 1429 37.8021
111.083 1446 38.0263
111.199 1417 37.6431
111.316 1434 37.8682
111.432 1480 38.4708
111.549 1506 38.8072
111.665 1533 39.1535
111.782 1415 37.6165
111.898 1431 37.8286
112.015 1297 36.0139
112.132 1263 35.5387
112.248 1339 36.5923
112.365 1228 35.0428
112.482 1270 35.6371
112.599 1215 34.8569
112.716 1174 34.2637
112.832 1133 33.6601
112.949 1166 34.1467
113.066 1156 34
113.183 1097 33.121
113.3 1078 32.8329
113.417 994 31.5278
113.534 1072 32.7414
113.652 1073 32.7567
113.769 1078 32.8329
113.886 1090 33.0151
114.003 1117 33.4215
114.12 1162 34.0881
114.238 1184 34.4093
114.355 1141 33.7787
114.472 1165 34.1321
114.589 1129 33.6006
114.707 1154 33.9706
114.824 1154 33.9706
114.942 1287 35.8748
115.059 1238 35.1852
115.176 1174 34.2637
115.294 1203 34.6843
115.411 1108 33.2866
115.529 1065 32.6343
115.646 1011 31.7962
115.764 970 31.1448
115.881 1003 31.6702
115.999 997 31.5753
116.116 957 30.9354
116.234 872 29.5296
116.351 893 29.8831
116.469 916 30.2655
116.586 864 29.3939
116.704 839 28.9655
116.821 864 29.3939
116.939 868 29.4618
117.056 874 29.5635
117.174 846 29.0861
117.291 924 30.3974
117.409 844 29.0517
117.526 928 30.4631
117.644 901 30.0167
117.761 985 31.3847
117.879 970 31.1448
117.996 981 31.3209
118.114 963 31.0322
118.231 925 30.4138
118.349 952 30.8545
118.466 981 31.3209
118.584 1048 32.3728
118.701 1118 33.4365
118.819 1098 33.1361
118.936 1021 31.9531
119.053 1017 31.8904
119.171 1018 31.9061
119.288 984 31.3688
119.405 942 30.692
119.523 928 30.4631
119.64 967 31.0966
119.757 950 30.8221
119.875 903 30.05
119.992 908 30.133
120.109 939 30.6431
120.226 917 30.282
120.343 893 29.8831
120.46 904 30.0666
120.578 897 29.95
120.695 919 30.315
120.812 996 31.5595
120.929 1000 31.6228
121.046 926 30.4302
121.163 1009 31.7648
121.279 1070 32.7109
121.396 1056 32.4962
121.513 1063 32.6037
121.63 1094 33.0757
121.747 1022 31.9687
121.863 936 30.5941
121.98 1035 32.1714
122.097 1105 33.2415
122.213 1137 33.7194
122.33 1150 33.9116
122.446 1228 35.0428
122.563 1187 34.4529
122.679 1229 35.0571
122.795 1182 34.3802
122.912 1204 34.6987
123.028 1195 34.5688
123.144 1180 34.3511
123.26 1109 33.3017
123.377 0 1
123.493 0 1
123.609 0 1
123.725 0 1
123.84 0 1
123.956 0 1
124.072 0 1
124.188 0 1
124.303 0 1
124.419 0 1
126.852 0 1
126.968 0 1
127.083 0 1
127.199 0 1
127.315 0 1
127.431 0 1
127.547 0 1
127.663 0 1
127.779 0 1
127.895 0 1
128.011 0 1
128.127 0 1
128.243 0 1
128.359 1428 37.7889
128.476 1360 36.8782
128.592 1303 36.0971
128.708 1375 37.081
128.825 1216 34.8712
128.941 1309 36.1801
129.058 1213 34.8281
129.174 1192 34.5254
129.291 1155 33.9853
129.408 1220 34.9285
129.524 1221 34.9428
129.641 1165 34.1321
129.758 1220 34.9285
129.875 1186 34.4384
129.992 1246 35.2987
130.108 1173 34.2491
130.225 1287 35.8748
130.342 1190 34.4964
130.459 1232 35.0999
130.576 1202 34.6699
130.693 1074 32.7719
130.81 946 30.7571
130.928 871 29.5127
131.045 1034 32.1559
131.162 1218 34.8999
131.279 1208 34.7563
131.396 1236 35.1568
131.513 1261 35.5106
131.631 1248 35.327
131.748 1222 34.9571
131.865 1177 34.3074
131.983 1195 34.5688
132.1 1227 35.0286
132.217 1184 34.4093
132.335 1191 34.5109
132.452 1170 34.2053
132.57 1136 33.7046
132.687 1022 31.9687
132.804 1118 33.4365
132.922 1083 32.909
133.039 1043 32.2955
133.157 1042 32.28
133.274 1000 31.6228
133.392 1017 31.8904
133.509 963 31.0322
133.627 1007 31.7333
133.744 1004 31.686
133.862 1030 32.0936
133.979 979 31.289
134.097 981 31.3209
134.214 860 29.3258
134.332 739 27.1846
134.449 680 26.0768
134.567 857 29.2746
134.684 895 29.9166
134.802 1010 31.7805
134.919 988 31.4325
135.037 998 31.5911
135.154 924 30.3974
135.272 929 30.4795
135.389 974 31.209
135.507 903 30.05
135.624 919 30.315
135.742 928 30.4631
135.859 916 30.2655
135.977 855 29.2404
136.094 814 28.5307
136.211 883 29.7153
136.329 872 29.5296
136.446 797 28.2312
136.564 786 28.0357
136.681 839 28.9655
136.798 800 28.2843
136.915 794 28.178
137.033 738 27.1662
137.15 751 27.4044
137.267 790 28.1069
137.384 781 27.9464
137.502 744 27.2764
137.619 812 28.4956
137.736 748 27.3496
137.853 626 25.02
137.97 558 23.622
138.087 580 24.0832
138.204 785 28.0179
138.321 816 28.5657
138.438 785 28.0179
138.555 893 29.8831
138.672 911 30.1828
138.788 883 29.7153
138.905 937 30.6105
139.022 884 29.7321
139.139 947 30.7734
139.255 934 30.5614
139.372 909 30.1496
139.488 855 29.2404
139.605 953 30.8707
139.721 940 30.6594
139.838 911 30.1828
139.954 979 31.289
140.071 896 29.9333
140.187 951 30.8383
140.303 905 30.0832
140.419 1036 32.187
140.535 928 30.4631
140.652 929 30.4795
140.768 0 1
140.884 0 1
141 0 1
141.115 0 1
141.231 0 1
141.347 0 1
141.463 0 1
141.578 0 1
141.694 0 1
144.104 0 1
144.219 0 1
144.335 0 1
144.45 0 1
144.566 0 1
144.682 0 1
144.798 0 1
144.914 0 1
145.03 0 1
145.146 774 27.8209
145.262 832 28.8444
145.378 746 27.313
145.494 820 28.6356
145.61 781 27.9464
145.726 778 27.8927
145.842 740 27.2029
145.959 764 27.6405
146.075 736 27.1293
146.192 739 27.1846
146.308 704 26.533
146.425 704 26.533
146.541 657 25.632
146.658 563 23.7276
146.774 535 23.1301
146.891 605 24.5967
147.008 614 24.779
147.125 714 26.7208
147.241 635 25.1992
147.358 701 26.4764
147.475 706 26.5707
147.592 621 24.9199
147.709 704 26.533
147.826 685 26.1725
147.943 673 25.9422
148.06 640 25.2982
148.177 627 25.04
148.294 674 25.9615
148.411 626 25.02
148.528 662 25.7294
148.645 614 24.779
148.762 590 24.2899
148.88 580 24.0832
148.997 595 24.3926
149.114 579 24.0624
149.231 523 22.8692
149.349 563 23.7276
149.466 567 23.8118
149.583 572 23.9165
149.701 552 23.4947
149.818 580 24.0832
149.935 514 22.6716
150.053 511 22.6053
150.17 516 22.7156
150.287 469 21.6564
150.405 438 20.9284
150.522 497 22.2935
150.64 557 23.6008
150.757 573 23.9374
150.875 551 23.4734
150.992 575 23.9792
151.11 613 24.7588
151.227 536 23.1517
151.344 569 23.8537
151.462 521 22.8254
151.579 551 23.4734
151.697 554 23.5372
151.814 571 23.8956
151.932 600 24.4949
152.049 520 22.8035
152.167 584 24.1661
152.284 555 23.5584
152.402 541 23.2594
152.519 498 22.3159
152.636 547 23.388
152.754 536 23.1517
152.871 525 22.9129
152.989 570 23.8747
153.106 580 24.0832
153.223 517 22.7376
153.341 502 22.4054
153.458 541 23.2594
153.575 523 22.8692
153.693 525 22.9129
153.81 537 23.1733
153.927 485 22.0227
154.044 502 22.4054
154.162 539 23.2164
154.279 588 24.2487
154.396 635 25.1992
154.513 683 26.1343
154.63 654 25.5734
154.747 666 25.807
154.864 687 26.2107
154.981 661 25.7099
155.098 638 25.2587
155.215 678 26.0384
155.332 675 25.9808
155.449 652 25.5343
155.566 645 25.3969
155.683 630 25.0998
155.8 601 24.5153
155.917 600 24.4949
156.033 561 23.6854
156.15 0 1
156.267 0 1
156.383 0 1
156.5 0 1
156.617 0 1
156.733 0 1
156.85 0 1
156.966 0 1
157.082 0 1
157.199 0 1
157.315 0 1
157.431 0 1
157.547 0 1
157.664 0 1
157.78 0 1
157.896 0 1
158.012 0 1
158.128 0 1
158.244 0 1
158.359 0 1
158.475 0 1
158.591 0 1
158.706 0 1
