
6.15755 0 1
6.2731 0 1
6.3887 0 1
6.50437 0 1
6.62009 0 1
6.73587 0 1
6.8517 0 1
6.96759 0 1
7.08353 0 1
7.19952 0 1
7.31557 0 1
7.43166 0 1
7.54781 0 1
7.664 0 1
7.78024 0 1
7.89653 0 1
8.01286 0 1
8.12924 0 1
8.24567 0 1
8.36213 0 1
8.47864 0 1
8.59519 0 1
8.71178 0 1
8.82841 0 1
8.94508 0 1
9.06179 0 1
9.17853 0 1
9.29531 0 1
9.41212 0 1
9.52897 0 1
9.64584 0 1
9.76276 0 1
9.8797 0 1
9.99667 0 1
10.1137 0 1
10.2307 0 1
10.3478 0 1
10.4648 0 1
10.5819 0 1
10.6991 0 1
10.8162 0 1
10.9334 0 1
11.0506 0 1
11.1678 0 1
11.285 0 1
11.4023 0 1
11.5196 0 1
11.6369 0 1
11.7542 0 1
11.8715 0 1
11.9888 0 1
12.1062 0 1
12.2235 0 1
12.3409 0 1
12.4582 0 1
12.5756 0 1
12.693 0 1
12.8104 0 1
12.9278 0 1
13.0452 0 1
13.1626 0 1
13.28 0 1
13.3974 0 1
13.5149 0 1
13.6323 0 1
13.7497 0 1
13.8671 0 1
13.9845 0 1
14.1019 0 1
14.2193 0 1
14.3367 0 1
14.4541 0 1
14.5714 0 1
14.6888 0 1
14.8062 0 1
14.9235 0 1
15.0408 0 0
15.1581 0 0
15.2755 0 0
15.3927 0 0
15.51 0 0
15.6273 0 0
15.7445 0 0
15.8617 0 0
15.9789 0 0
16.0961 0 0
16.2132 0 0
16.3304 0 0
16.4475 0 0
16.5646 0 0
16.6816 0 0
16.7986 0 0
16.9156 0 0
17.0326 0 0
17.1496 0 0
17.2665 0 0
17.3833 0 0
17.5002 0 0
17.617 0 0
17.7338 0 0
17.8505 0 0
17.9672 0 0
18.0839 0 0
18.2005 0 0
18.3171 0 0
18.4337 0 0
18.5502 0 0
18.6666 0 0
18.7831 0 0
18.8994 0 0
19.0158 0 0
19.1321 0 0
19.2483 0 0
19.3645 0 0
19.4806 0 0
19.5967 0 0
19.7128 0 0
19.8288 0 0
19.9447 0 0
20.0606 0 1
20.1764 0 1
20.2922 0 1
20.4079 0 1
20.5236 0 1
20.6392 0 1
20.7548 0 1
20.8702 0 1
23.3078 0 1
23.4233 0 1
23.539 0 1
23.6547 0 1
23.7704 0 1
23.8862 0 1
24.0021 0 1
24.118 0 1
24.234 0 1
24.35 0 1
24.4661 1279 35.7631
24.5822 1427 37.7757
24.6984 1521 39
24.8146 1681 41
24.9309 1998 44.699
25.0472 2239 47.3181
25.1636 2480 49.7996
25.28 2630 51.2835
25.3965 2626 51.2445
25.513 2620 51.1859
25.6296 2713 52.0865
25.7462 2744 52.3832
25.8628 2724 52.192
25.9795 2637 51.3517
26.0962 2724 52.192
26.213 2802 52.9339
26.3298 2827 53.1695
26.4466 2815 53.0566
26.5635 2756 52.4976
26.6804 2735 52.2972
26.7973 2590 50.892
26.9143 2683 51.7977
27.0313 2552 50.5173
27.1483 2604 51.0294
27.2653 2516 50.1597
27.3824 2334 48.3115
27.4996 2345 48.4252
27.6167 2195 46.8508
27.7339 2253 47.4658
27.8511 2379 48.775
27.9683 2405 49.0408
28.0855 2532 50.319
28.2028 2544 50.4381
28.3201 2549 50.4876
28.4374 2543 50.4282
28.5547 2513 50.1298
28.6721 2533 50.3289
28.7894 2600 50.9902
28.9068 2501 50.01
29.0242 2584 50.8331
29.1416 2663 51.6043
29.259 2572 50.7149
29.3764 2677 51.7397
29.4939 2502 50.02
29.6113 2462 49.6185
29.7288 2430 49.295
29.8463 2373 48.7134
29.9638 2376 48.7442
30.0812 2500 50
30.1987 2395 48.9387
30.3162 2466 49.6588
30.4337 2415 49.1426
30.5512 2526 50.2593
30.6687 2593 50.9215
30.7862 2538 50.3786
30.9037 2339 48.3632
31.0212 2336 48.3322
31.1387 2291 47.8644
31.2562 2319 48.156
31.3737 2415 49.1426
31.4912 2567 50.6656
31.6087 2488 49.8799
31.7262 2634 51.3225
31.8436 2553 50.5272
31.9611 2514 50.1398
32.0785 2531 50.309
32.1959 2523 50.2295
32.3134 2518 50.1797
32.4308 2346 48.4355
32.5482 2395 48.9387
32.6655 2333 48.3011
32.7829 2258 47.5184
32.9002 2259 47.5289
33.0176 2250 47.4342
33.1349 2256 47.4974
33.2522 2239 47.3181
33.3694 2136 46.2169
33.4867 2363 48.6107
33.6039 2243 47.3603
33.7211 2213 47.0425
33.8383 2303 47.9896
33.9554 2327 48.239
34.0725 2392 48.9081
34.1896 2462 49.6185
34.3067 2454 49.5379
34.4237 2434 49.3356
34.5407 2304 48
34.6577 2211 47.0213
34.7746 2216 47.0744
34.8915 2320 48.1664
35.0084 2361 48.5901
35.1252 2514 50.1398
35.242 2582 50.8134
35.3587 2502 50.02
35.4755 2630 51.2835
35.5921 2362 48.6004
35.7088 2362 48.6004
35.8254 2292 47.8748
35.9419 2167 46.551
36.0584 2121 46.0543
36.1749 2068 45.4753
36.2913 2096 45.7821
36.4077 1985 44.5533
36.524 1921 43.8292
36.6403 1706 41.3038
36.7565 1532 39.1408
36.8727 1424 37.7359
36.9889 1415 37.6165
37.1049 1414 37.6032
37.221 0 1
37.3369 0 1
37.4529 0 1
37.5687 0 1
37.6845 0 1
37.8003 0 1
37.916 0 1
38.0316 0 1
38.1472 0 1
40.5851 0 1
40.7008 0 1
40.8164 0 1
40.9322 0 1
41.048 0 1
41.1639 0 1
41.2798 0 1
41.3958 0 1
41.5118 0 1
41.6279 0 1
41.744 1837 42.8602
41.8602 2460 49.5984
41.9765 3053 55.254
42.0928 3168 56.285
42.2091 3291 57.3672
42.3255 3220 56.745
42.4419 3327 57.6802
42.5584 3306 57.4978
42.675 3462 58.8388
42.7915 3425 58.5235
42.9081 3656 60.4649
43.0248 3612 60.0999
43.1415 3529 59.4054
43.2582 3443 58.6771
43.375 3100 55.6776
43.4918 3220 56.745
43.6087 3266 57.1489
43.7256 3231 56.8419
43.8425 3377 58.112
43.9595 3495 59.1185
44.0765 3462 58.8388
44.1935 3296 57.4108
44.3106 3303 57.4717
44.4277 3267 57.1577
44.5448 3143 56.0625
44.6619 3002 54.7905
44.7791 2878 53.647
44.8963 2869 53.563
45.0136 2573 50.7247
45.1308 2487 49.8698
45.2481 2431 49.3052
45.3654 2366 48.6415
45.4827 2202 46.9255
45.6001 2139 46.2493
45.7174 2080 45.607
45.8348 2050 45.2769
45.9522 2023 44.9778
46.0697 2127 46.1194
46.1871 2064 45.4313
46.3046 2113 45.9674
46.422 2203 46.9361
46.5395 2170 46.5833
46.657 2164 46.5188
46.7745 2132 46.1736
46.892 1970 44.3847
47.0096 1947 44.1248
47.1271 1960 44.2719
47.2446 2005 44.7772
47.3622 2025 45
47.4797 2042 45.1885
47.5973 2075 45.5522
47.7149 2175 46.6369
47.8324 2027 45.0222
47.95 2002 44.7437
48.0675 2019 44.9333
48.1851 2060 45.3872
48.3027 1925 43.8748
48.4202 1937 44.0114
48.5378 1878 43.3359
48.6554 1862 43.1509
48.7729 1804 42.4735
48.8904 1765 42.0119
49.008 1832 42.8019
49.1255 1816 42.6146
49.243 1781 42.2019
49.3605 1880 43.359
49.478 1956 44.2267
49.5955 2033 45.0888
49.713 1913 43.7379
49.8304 1955 44.2154
49.9479 2101 45.8367
50.0653 2089 45.7056
50.1827 2058 45.3652
50.3001 1883 43.3935
50.4175 1616 40.1995
50.5348 1597 39.9625
50.6521 1703 41.2674
50.7694 1943 44.0795
50.8867 2063 45.4203
51.004 2094 45.7602
51.1212 2009 44.8219
51.2384 2085 45.6618
51.3556 1987 44.5758
51.4727 2071 45.5082
51.5899 2023 44.9778
51.707 2010 44.833
51.824 2018 44.9222
51.9411 1957 44.238
52.0581 1948 44.1362
52.175 1887 43.4396
52.2919 1969 44.3734
52.4088 1822 42.6849
52.5257 1841 42.9069
52.6425 1870 43.2435
52.7593 1845 42.9535
52.876 1844 42.9418
52.9927 1823 42.6966
53.1094 1853 43.0465
53.226 1860 43.1277
53.3426 1859 43.1161
53.4591 1834 42.8252
53.5756 1659 40.7308
53.692 1409 37.5366
53.8084 1242 35.242
53.9248 1186 34.4384
54.0411 1085 32.9393
54.1573 1021 31.9531
54.2735 0 1
54.3896 0 1
54.5057 0 1
54.6217 0 1
54.7377 0 1
54.8537 0 1
54.9695 0 1
55.0853 0 1
55.2011 0 1
55.3168 0 1
55.4324 0 1
57.824 0 1
57.9396 0 1
58.0553 0 1
58.1711 0 1
58.2869 0 1
58.4028 0 1
58.5187 0 1
58.6347 0 1
58.7508 0 1
58.8669 0 1
58.983 1606 40.0749
59.0992 1676 40.939
59.2155 1601 40.0125
59.3318 1864 43.1741
59.4482 2048 45.2548
59.5646 2173 46.6154
59.681 2371 48.6929
59.7975 2332 48.2908
59.9141 2431 49.3052
60.0306 2416 49.1528
60.1473 2456 49.558
60.2639 2463 49.6286
60.3807 2333 48.3011
60.4974 2176 46.6476
60.6142 2431 49.3052
60.731 2459 49.5883
60.8479 2487 49.8698
60.9648 2479 49.7896
61.0818 2412 49.1121
61.1987 2396 48.949
61.3158 2341 48.3839
61.4328 2314 48.1041
61.5499 2291 47.8644
61.667 2304 48
61.7841 2313 48.0937
61.9013 2324 48.2079
62.0185 2371 48.6929
62.1357 2378 48.7647
62.253 2366 48.6415
62.3702 2324 48.2079
62.4875 2180 46.6905
62.6049 2161 46.4866
62.7222 2215 47.0638
62.8396 2208 46.9894
62.9569 2369 48.6724
63.0743 2450 49.4975
63.1918 2429 49.2849
63.3092 2527 50.2693
63.4267 2567 50.6656
63.5441 2590 50.892
63.6616 2509 50.0899
63.7791 2396 48.949
63.8966 2475 49.7494
64.0142 2414 49.1325
64.1317 2380 48.7852
64.2492 2361 48.5901
64.3668 2443 49.4267
64.4843 2408 49.0714
64.6019 2382 48.8057
64.7195 2317 48.1352
64.837 2337 48.3425
64.9546 2280 47.7493
65.0722 2218 47.0956
65.1898 2294 47.8957
65.3074 2304 48
65.4249 2240 47.3286
65.5425 2353 48.5077
65.6601 2395 48.9387
65.7777 2445 49.4469
65.8952 2272 47.6655
66.0128 2146 46.3249
66.1304 1924 43.8634
66.2479 1901 43.6005
66.3655 2060 45.3872
66.483 2238 47.3075
66.6005 2321 48.1768
66.718 2443 49.4267
66.8355 2449 49.4874
66.953 2459 49.5883
67.0705 2414 49.1325
67.1879 2451 49.5076
67.3054 2345 48.4252
67.4228 2334 48.3115
67.5402 2311 48.0729
67.6576 2363 48.6107
67.7749 2352 48.4974
67.8923 2328 48.2494
68.0096 2397 48.9592
68.1269 2326 48.2286
68.2442 2280 47.7493
68.3614 2361 48.5901
68.4787 2323 48.1975
68.5958 2173 46.6154
68.713 2153 46.4004
68.8302 2109 45.9239
68.9473 2093 45.7493
69.0643 2258 47.5184
69.1814 2280 47.7493
69.2984 2202 46.9255
69.4154 2227 47.1911
69.5323 2226 47.1805
69.6492 2080 45.607
69.7661 1882 43.382
69.8829 1799 42.4146
69.9997 1848 42.9884
70.1165 1965 44.3283
70.2332 1987 44.5758
70.3499 1919 43.8064
70.4665 1846 42.9651
70.5831 1651 40.6325
70.6996 1621 40.2616
70.8161 1518 38.9615
70.9326 1490 38.6005
71.049 1349 36.7287
71.1653 1382 37.1753
71.2817 1313 36.2353
71.3979 1222 34.9571
71.5141 1175 34.2783
71.6303 1191 34.5109
71.7464 1115 33.3916
71.8624 0 1
71.9784 0 1
72.0944 0 1
72.2102 0 1
72.3261 0 1
72.4418 0 1
72.5575 0 1
72.6732 0 1
75.1054 0 1
75.2209 0 1
75.3365 0 1
75.4521 0 1
75.5678 0 1
75.6835 0 1
75.7993 0 1
75.9151 0 1
76.031 0 1
76.147 1752 41.8569
76.263 2070 45.4973
76.3791 2167 46.551
76.4952 2060 45.3872
76.6113 2115 45.9891
76.7276 2132 46.1736
76.8438 2149 46.3573
76.9601 2153 46.4004
77.0765 2152 46.3897
77.1929 2202 46.9255
77.3093 2161 46.4866
77.4258 2171 46.594
77.5423 2158 46.4543
77.6589 2136 46.2169
77.7755 2161 46.4866
77.8921 2089 45.7056
78.0088 2120 46.0435
78.1256 2108 45.913
78.2423 2161 46.4866
78.3591 2221 47.1275
78.4759 2186 46.7547
78.5928 2159 46.465
78.7097 2025 45
78.8266 1644 40.5463
78.9436 1570 39.6232
79.0606 1576 39.6989
79.1776 1906 43.6578
79.2946 2202 46.9255
79.4117 2218 47.0956
79.5288 2208 46.9894
79.6459 2230 47.2229
79.7631 2322 48.1871
79.8802 2367 48.6518
79.9974 2283 47.7807
80.1147 2288 47.833
80.2319 2319 48.156
80.3491 2274 47.6865
80.4664 2284 47.7912
80.5837 2313 48.0937
80.701 2357 48.5489
80.8183 2388 48.8672
80.9357 2457 49.5681
81.053 2423 49.224
81.1704 2324 48.2079
81.2877 2345 48.4252
81.4051 2291 47.8644
81.5225 2341 48.3839
81.6399 2246 47.392
81.7573 2295 47.9062
81.8747 2267 47.613
81.9922 2484 49.8397
82.1096 2589 50.8822
82.227 2626 51.2445
82.3444 2459 49.5883
82.4619 2184 46.7333
82.5793 2101 45.8367
82.6967 2087 45.6837
82.8142 2649 51.4684
82.9316 3164 56.2494
83.049 3444 58.6856
83.1664 3675 60.6218
83.2838 3700 60.8276
83.4012 3959 62.9206
83.5186 3858 62.1128
83.636 3932 62.7057
83.7534 3993 63.1902
83.8708 4053 63.6632
83.9881 4152 64.436
84.1055 4189 64.7225
84.2228 4188 64.7148
84.3401 4174 64.6065
84.4575 4355 65.9924
84.5747 4267 65.3223
84.692 4093 63.9766
84.8093 4232 65.0538
84.9265 4102 64.0469
85.0437 4218 64.9461
85.1609 4098 64.0156
85.2781 4186 64.6993
85.3952 4046 63.6082
85.5123 4157 64.4748
85.6294 4111 64.1171
85.7465 4043 63.5846
85.8636 3729 61.0655
85.9806 3210 56.6569
86.0976 2701 51.9711
86.2145 2644 51.4198
86.3315 2981 54.5985
86.4484 3777 61.4573
86.5652 3950 62.849
86.682 4123 64.2106
86.7988 4191 64.7379
86.9156 3939 62.7615
87.0323 4156 64.467
87.149 3964 62.9603
87.2657 4179 64.6452
87.3823 4064 63.7495
87.4988 3933 62.7136
87.6154 3555 59.6238
87.7318 3286 57.3236
87.8483 3058 55.2992
87.9647 3021 54.9636
88.081 2813 53.0377
88.1973 2902 53.8702
88.3136 2724 52.192
88.4298 2665 51.6236
88.546 2443 49.4267
88.6621 2403 49.0204
88.7781 2230 47.2229
88.8942 0 1
89.0101 0 1
89.126 0 1
89.2419 0 1
89.3577 0 1
89.4734 0 1
89.5891 0 1
89.7047 0 1
89.8203 0 1
89.9358 0 1
92.3269 0 1
92.4424 0 1
92.558 0 1
92.6736 0 1
92.7893 0 1
92.905 0 1
93.0208 0 1
93.1366 0 1
93.2525 0 1
93.3685 0 1
93.4845 0 1
93.6005 4237 65.0922
93.7167 4311 65.6582
93.8328 4241 65.123
93.949 4264 65.2993
94.0653 4278 65.4064
94.1816 4291 65.5057
94.2979 4202 64.8228
94.4143 4201 64.8151
94.5307 4365 66.0681
94.6472 4170 64.5755
94.7637 4003 63.2693
94.8803 3655 60.4566
94.9969 3209 56.648
95.1135 2948 54.2955
95.2302 3249 57
95.3469 3607 60.0583
95.4637 4084 63.9062
95.5805 4409 66.4003
95.6973 4369 66.0984
95.8142 4415 66.4455
95.9311 4413 66.4304
96.048 4313 65.6734
96.1649 4393 66.2797
96.2819 4304 65.6049
96.3989 4332 65.8179
96.516 4400 66.3325
96.633 4511 67.164
96.7501 4548 67.4389
96.8673 4397 66.3099
96.9844 4455 66.7458
97.1016 4599 67.8159
97.2188 4542 67.3944
97.336 4574 67.6314
97.4532 4468 66.8431
97.5704 4348 65.9394
97.6877 4316 65.6963
97.805 4377 66.1589
97.9223 4367 66.0833
98.0396 4352 65.9697
98.1569 4288 65.4828
98.2743 4223 64.9846
98.3916 3941 62.7774
98.509 3284 57.3062
98.6264 2962 54.4243
98.7438 3025 55
98.8612 3507 59.2199
98.9786 3980 63.0872
99.096 4220 64.9615
99.2134 4011 63.3325
99.3308 3975 63.0476
99.4482 3836 61.9355
99.5656 3838 61.9516
99.6831 3586 59.8832
99.8005 3628 60.2329
99.9179 3484 59.0254
100.035 3496 59.127
100.153 3347 57.8533
100.27 3410 58.3952
100.388 3356 57.931
100.505 3248 56.9912
100.622 3294 57.3934
100.74 3143 56.0625
100.857 3035 55.0908
100.975 3084 55.5338
101.092 3063 55.3444
101.209 2871 53.5817
101.327 2923 54.0648
101.444 2955 54.3599
101.561 3001 54.7814
101.679 2983 54.6168
101.796 2918 54.0185
101.913 2819 53.0943
102.03 2477 49.7695
102.148 2425 49.2443
102.265 2175 46.6369
102.382 2453 49.5278
102.499 2514 50.1398
102.616 2745 52.3927
102.733 2788 52.8015
102.851 2794 52.8583
102.968 2811 53.0189
103.085 2833 53.2259
103.202 2673 51.7011
103.319 2689 51.8556
103.436 2754 52.4786
103.552 2643 51.4101
103.669 2642 51.4004
103.786 2625 51.2348
103.903 2702 51.9808
104.02 2762 52.5547
104.137 2803 52.9434
104.253 2798 52.8961
104.37 2650 51.4782
104.487 2678 51.7494
104.603 2611 51.0979
104.72 2581 50.8035
104.836 2378 48.7647
104.953 2061 45.3982
105.069 1848 42.9884
105.186 1790 42.3084
105.302 1585 39.8121
105.418 1495 38.6652
105.535 1368 36.9865
105.651 1157 34.0147
105.767 1034 32.1559
105.883 853 29.2062
105.999 842 29.0172
106.115 0 1
106.231 0 1
106.347 0 1
106.463 0 1
106.579 0 1
106.694 0 1
106.81 0 1
106.926 0 1
107.041 0 1
107.157 0 1
109.576 0 1
109.692 0 1
109.807 0 1
109.923 0 1
110.039 0 1
110.155 0 1
110.27 0 1
110.386 0 1
110.502 0 1
110.618 2580 50.7937
110.735 2848 53.3667
110.851 2572 50.7149
110.967 2430 49.295
111.083 2351 48.4871
111.199 2585 50.8429
111.316 2788 52.8015
111.432 2951 54.3231
111.549 2890 53.7587
111.665 3018 54.9363
111.782 2937 54.1941
111.898 2968 54.4794
112.015 2963 54.4334
112.132 2960 54.4059
112.248 2962 54.4243
112.365 3066 55.3715
112.482 2890 53.7587
112.599 3128 55.9285
112.716 3182 56.4092
112.832 3240 56.921
112.949 3267 57.1577
113.066 3261 57.1052
113.183 3374 58.0861
113.3 3303 57.4717
113.417 3246 56.9737
113.534 3172 56.3205
113.652 3314 57.5674
113.769 3370 58.0517
113.886 3286 57.3236
114.003 3163 56.2406
114.12 3178 56.3738
114.238 3096 55.6417
114.355 3013 54.8908
114.472 2600 50.9902
114.589 2553 50.5272
114.707 2601 51
114.824 2745 52.3927
114.942 3090 55.5878
115.059 3076 55.4617
115.176 3075 55.4527
115.294 3222 56.7627
115.411 3058 55.2992
115.529 3128 55.9285
115.646 2971 54.5069
115.764 3001 54.7814
115.881 2921 54.0463
115.999 3003 54.7996
116.116 3059 55.3082
116.234 3229 56.8243
116.351 3143 56.0625
116.469 3343 57.8187
116.586 3317 57.5934
116.704 3294 57.3934
116.821 3443 58.6771
116.939 3343 57.8187
117.056 3476 58.9576
117.174 3369 58.0431
117.291 3294 57.3934
117.409 3304 57.4804
117.526 3397 58.2838
117.644 3253 57.0351
117.761 3357 57.9396
117.879 3235 56.8771
117.996 2880 53.6656
118.114 2653 51.5073
118.231 2689 51.8556
118.349 2674 51.7107
118.466 2954 54.3507
118.584 2930 54.1295
118.701 3150 56.1249
118.819 3115 55.8122
118.936 2950 54.3139
119.053 2967 54.4702
119.171 3038 55.1181
119.288 2896 53.8145
119.405 2934 54.1664
119.523 2967 54.4702
119.64 2967 54.4702
119.757 2884 53.7029
119.875 3005 54.8179
119.992 3035 55.0908
120.109 2994 54.7175
120.226 3120 55.857
120.343 3132 55.9643
120.46 3225 56.7891
120.578 3224 56.7803
120.695 3167 56.2761
120.812 3155 56.1694
120.929 3136 56
121.046 3131 55.9553
121.163 3085 55.5428
121.279 2949 54.3047
121.396 2981 54.5985
121.513 2955 54.3599
121.63 2627 51.2543
121.747 2479 49.7896
121.863 2171 46.594
121.98 2111 45.9456
122.097 2131 46.1628
122.213 2212 47.0319
122.33 2155 46.422
122.446 2183 46.7226
122.563 2037 45.1331
122.679 1979 44.486
122.795 1898 43.566
122.912 1894 43.5201
123.028 1874 43.2897
123.144 1795 42.3674
123.26 1817 42.6263
123.377 0 1
123.493 0 1
123.609 0 1
123.725 0 1
123.84 0 1
123.956 0 1
124.072 0 1
124.188 0 1
124.303 0 1
124.419 0 1
126.852 0 1
126.968 0 1
127.083 0 1
127.199 0 1
127.315 0 1
127.431 0 1
127.547 0 1
127.663 0 1
127.779 0 1
127.895 0 1
128.011 0 1
128.127 0 1
128.243 0 1
128.359 3464 58.8558
128.476 3445 58.6941
128.592 3485 59.0339
128.708 3500 59.1608
128.825 3444 58.6856
128.941 3552 59.5987
129.058 3510 59.2453
129.174 3670 60.5805
129.291 3773 61.4248
129.408 3807 61.7009
129.524 3863 62.153
129.641 4050 63.6396
129.758 4100 64.0312
129.875 4118 64.1716
129.992 4263 65.2917
130.108 4220 64.9615
130.225 4290 65.4981
130.342 4124 64.2184
130.459 4003 63.2693
130.576 4037 63.5374
130.693 3734 61.1065
130.81 3765 61.3596
130.928 3706 60.8769
131.045 3823 61.8304
131.162 3892 62.3859
131.279 4062 63.7338
131.396 4006 63.293
131.513 4026 63.4508
131.631 4112 64.1249
131.748 4012 63.3404
131.865 3970 63.0079
131.983 3952 62.8649
132.1 3954 62.8808
132.217 3878 62.2736
132.335 3914 62.562
132.452 3881 62.2977
132.57 3885 62.3298
132.687 3771 61.4085
132.804 4144 64.3739
132.922 3968 62.9921
133.039 4050 63.6396
133.157 4065 63.7574
133.274 4189 64.7225
133.392 4175 64.6142
133.509 4340 65.8787
133.627 4397 66.3099
133.744 4513 67.1789
133.862 4445 66.6708
133.979 4412 66.4229
134.097 4425 66.5207
134.214 4199 64.7997
134.332 4084 63.9062
134.449 4145 64.3817
134.567 4032 63.498
134.684 4207 64.8614
134.802 4198 64.792
134.919 4418 66.468
135.037 4568 67.587
135.154 4398 66.3174
135.272 4413 66.4304
135.389 4184 64.6838
135.507 4240 65.1153
135.624 4195 64.7688
135.742 4057 63.6946
135.859 4001 63.2535
135.977 4050 63.6396
136.094 4013 63.3482
136.211 4084 63.9062
136.329 4093 63.9766
136.446 4077 63.8514
136.564 4050 63.6396
136.681 4187 64.707
136.798 4121 64.195
136.915 4251 65.1997
137.033 4280 65.4217
137.15 4290 65.4981
137.267 4196 64.7765
137.384 4368 66.0908
137.502 4233 65.0615
137.619 4210 64.8845
137.736 4126 64.2339
137.853 4023 63.4271
137.97 3926 62.6578
138.087 3826 61.8547
138.204 3978 63.0714
138.321 3953 62.8729
138.438 4148 64.405
138.555 4163 64.5213
138.672 4108 64.0937
138.788 4058 63.7024
138.905 4059 63.7103
139.022 3921 62.6179
139.139 3719 60.9836
139.255 3612 60.0999
139.372 3505 59.203
139.488 3248 56.9912
139.605 3221 56.7539
139.721 3036 55.0999
139.838 3010 54.8635
139.954 2982 54.6077
140.071 2822 53.1225
140.187 2851 53.3948
140.303 2734 52.2877
140.419 2862 53.4977
140.535 2918 54.0185
140.652 2960 54.4059
140.768 0 1
140.884 0 1
141 0 1
141.115 0 1
141.231 0 1
141.347 0 1
141.463 0 1
141.578 0 1
141.694 0 1
144.104 0 1
144.219 0 1
144.335 0 1
144.45 0 1
144.566 0 1
144.682 0 1
144.798 0 1
144.914 0 1
145.03 0 1
145.146 8340 91.3236
145.262 8573 92.5905
145.378 8711 93.3327
145.494 8858 94.1169
145.61 8563 92.5365
145.726 9032 95.0368
145.842 8893 94.3027
145.959 8973 94.7259
146.075 8807 93.8456
146.192 8756 93.5735
146.308 8677 93.1504
146.425 8491 92.1466
146.541 8110 90.0555
146.658 6945 83.3367
146.774 5881 76.6877
146.891 5637 75.08
147.008 6360 79.7496
147.125 7501 86.6083
147.241 8241 90.78
147.358 8627 92.8816
147.475 8695 93.247
147.592 8556 92.4986
147.709 8621 92.8493
147.826 8741 93.4933
147.943 8607 92.7739
148.06 8818 93.9042
148.177 8695 93.247
148.294 8752 93.5521
148.411 8813 93.8776
148.528 8879 94.2284
148.645 8814 93.8829
148.762 8697 93.2577
148.88 8757 93.5788
148.997 8877 94.2178
149.114 9289 96.3795
149.231 8931 94.504
149.349 9017 94.9579
149.466 8788 93.7443
149.583 8928 94.4881
149.701 8901 94.3451
149.818 8989 94.8103
149.935 8834 93.9894
150.053 9000 94.8683
150.17 8618 92.8332
150.287 7833 88.5042
150.405 6667 81.6517
150.522 5941 77.0779
150.64 6415 80.0937
150.757 7491 86.5506
150.875 8273 90.956
150.992 8671 93.1182
151.11 8596 92.7146
151.227 8677 93.1504
151.344 8678 93.1558
151.462 8657 93.043
151.579 8825 93.9415
151.697 8787 93.739
151.814 8799 93.803
151.932 8729 93.4291
152.049 8764 93.6162
152.167 8777 93.6856
152.284 8853 94.0904
152.402 8932 94.5093
152.519 9042 95.0894
152.636 9042 95.0894
152.754 9145 95.6295
152.871 9009 94.9158
152.989 8953 94.6203
153.106 9104 95.4149
153.223 9296 96.4158
153.341 9208 95.9583
153.458 9184 95.8332
153.575 9261 96.2341
153.693 9162 95.7183
153.81 8951 94.6097
153.927 7751 88.0398
154.044 6834 82.668
154.162 6265 79.1518
154.279 6770 82.28
154.396 7837 88.5268
154.513 8845 94.0479
154.63 9042 95.0894
154.747 9122 95.5092
154.864 8968 94.6995
154.981 8756 93.5735
155.098 8787 93.739
155.215 8775 93.675
155.332 8299 91.0988
155.449 8329 91.2634
155.566 8272 90.9505
155.683 8014 89.5209
155.8 7964 89.2412
155.917 7824 88.4534
156.033 7647 87.4471
156.15 0 1
156.267 0 1
156.383 0 1
156.5 0 1
156.617 0 1
156.733 0 1
156.85 0 1
156.966 0 1
157.082 0 1
157.199 0 1
157.315 0 1
157.431 0 1
157.547 0 1
157.664 0 1
157.78 0 1
157.896 0 1
158.012 0 1
158.128 0 1
158.244 0 1
158.359 0 1
158.475 0 1
158.591 0 1
158.706 0 1
