
6.15755 0 1
6.2731 0 1
6.3887 0 1
6.50437 0 1
6.62009 0 1
6.73587 0 1
6.8517 0 1
6.96759 0 1
7.08353 0 1
7.19952 0 1
7.31557 0 1
7.43166 0 1
7.54781 0 1
7.664 0 1
7.78024 0 1
7.89653 0 1
8.01286 0 1
8.12924 0 1
8.24567 0 1
8.36213 0 1
8.47864 0 1
8.59519 0 1
8.71178 0 1
8.82841 0 1
8.94508 0 1
9.06179 0 1
9.17853 0 1
9.29531 0 1
9.41212 0 1
9.52897 0 1
9.64584 0 1
9.76276 0 1
9.8797 0 1
9.99667 0 1
10.1137 0 1
10.2307 0 1
10.3478 0 1
10.4648 0 1
10.5819 0 1
10.6991 0 1
10.8162 0 1
10.9334 0 1
11.0506 0 1
11.1678 0 1
11.285 0 1
11.4023 0 1
11.5196 0 1
11.6369 0 1
11.7542 0 1
11.8715 0 1
11.9888 0 1
12.1062 0 1
12.2235 0 1
12.3409 0 1
12.4582 0 1
12.5756 0 1
12.693 0 1
12.8104 0 1
12.9278 0 1
13.0452 0 1
13.1626 0 1
13.28 0 1
13.3974 0 1
13.5149 0 1
13.6323 0 1
13.7497 0 1
13.8671 0 1
13.9845 0 1
14.1019 0 1
14.2193 0 1
14.3367 0 1
14.4541 0 1
14.5714 0 1
14.6888 0 1
14.8062 0 1
14.9235 0 1
15.0408 0 0
15.1581 0 0
15.2755 0 0
15.3927 0 0
15.51 0 0
15.6273 0 0
15.7445 0 0
15.8617 0 0
15.9789 0 0
16.0961 0 0
16.2132 0 0
16.3304 0 0
16.4475 0 0
16.5646 0 0
16.6816 0 0
16.7986 0 0
16.9156 0 0
17.0326 0 0
17.1496 0 0
17.2665 0 0
17.3833 0 0
17.5002 0 0
17.617 0 0
17.7338 0 0
17.8505 0 0
17.9672 0 0
18.0839 0 0
18.2005 0 0
18.3171 0 0
18.4337 0 0
18.5502 0 0
18.6666 0 0
18.7831 0 0
18.8994 0 0
19.0158 0 0
19.1321 0 0
19.2483 0 0
19.3645 0 0
19.4806 0 0
19.5967 0 0
19.7128 0 0
19.8288 0 0
19.9447 0 0
20.0606 0 1
20.1764 0 1
20.2922 0 1
20.4079 0 1
20.5236 0 1
20.6392 0 1
20.7548 0 1
20.8702 0 1
23.3078 0 1
23.4233 0 1
23.539 0 1
23.6547 0 1
23.7704 0 1
23.8862 0 1
24.0021 0 1
24.118 0 1
24.234 0 1
24.35 0 1
24.4661 399 19.975
24.5822 508 22.5389
24.6984 593 24.3516
24.8146 630 25.0998
24.9309 693 26.3249
25.0472 764 27.6405
25.1636 824 28.7054
25.28 914 30.2324
25.3965 943 30.7083
25.513 1015 31.8591
25.6296 1026 32.0312
25.7462 1113 33.3617
25.8628 1121 33.4813
25.9795 1133 33.6601
26.0962 1084 32.9242
26.213 1064 32.619
26.3298 921 30.348
26.4466 981 31.3209
26.5635 828 28.775
26.6804 909 30.1496
26.7973 972 31.1769
26.9143 908 30.133
27.0313 936 30.5941
27.1483 968 31.1127
27.2653 1017 31.8904
27.3824 1019 31.9218
27.4996 1062 32.5883
27.6167 938 30.6268
27.7339 987 31.4166
27.8511 916 30.2655
27.9683 963 31.0322
28.0855 945 30.7409
28.2028 837 28.931
28.3201 879 29.6479
28.4374 859 29.3087
28.5547 849 29.1376
28.6721 971 31.1609
28.7894 993 31.5119
28.9068 1013 31.8277
29.0242 1027 32.0468
29.1416 1060 32.5576
29.259 1017 31.8904
29.3764 1026 32.0312
29.4939 1028 32.0624
29.6113 997 31.5753
29.7288 995 31.5436
29.8463 831 28.8271
29.9638 849 29.1376
30.0812 807 28.4077
30.1987 823 28.688
30.3162 928 30.4631
30.4337 862 29.3598
30.5512 930 30.4959
30.6687 928 30.4631
30.7862 982 31.3369
30.9037 995 31.5436
31.0212 967 31.0966
31.1387 970 31.1448
31.2562 992 31.496
31.3737 904 30.0666
31.4912 923 30.3809
31.6087 870 29.4958
31.7262 930 30.4959
31.8436 851 29.1719
31.9611 822 28.6705
32.0785 804 28.3549
32.1959 860 29.3258
32.3134 916 30.2655
32.4308 971 31.1609
32.5482 1020 31.9374
32.6655 985 31.3847
32.7829 987 31.4166
32.9002 1055 32.4808
33.0176 1022 31.9687
33.1349 1010 31.7805
33.2522 961 31
33.3694 917 30.282
33.4867 818 28.6007
33.6039 799 28.2666
33.7211 768 27.7128
33.8383 829 28.7924
33.9554 856 29.2575
34.0725 836 28.9137
34.1896 896 29.9333
34.3067 945 30.7409
34.4237 946 30.7571
34.5407 933 30.545
34.6577 891 29.8496
34.7746 930 30.4959
34.8915 937 30.6105
35.0084 902 30.0333
35.1252 938 30.6268
35.242 875 29.5804
35.3587 842 29.0172
35.4755 845 29.0689
35.5921 856 29.2575
35.7088 751 27.4044
35.8254 789 28.0891
35.9419 841 29
36.0584 887 29.7825
36.1749 884 29.7321
36.2913 930 30.4959
36.4077 929 30.4795
36.524 837 28.931
36.6403 873 29.5466
36.7565 812 28.4956
36.8727 758 27.5318
36.9889 734 27.0924
37.1049 678 26.0384
37.221 0 1
37.3369 0 1
37.4529 0 1
37.5687 0 1
37.6845 0 1
37.8003 0 1
37.916 0 1
38.0316 0 1
38.1472 0 1
40.5851 0 1
40.7008 0 1
40.8164 0 1
40.9322 0 1
41.048 0 1
41.1639 0 1
41.2798 0 1
41.3958 0 1
41.5118 0 1
41.6279 0 1
41.744 442 21.0238
41.8602 494 22.2261
41.9765 584 24.1661
42.0928 594 24.3721
42.2091 608 24.6577
42.3255 554 23.5372
42.4419 593 24.3516
42.5584 571 23.8956
42.675 635 25.1992
42.7915 650 25.4951
42.9081 740 27.2029
43.0248 750 27.3861
43.1415 761 27.5862
43.2582 787 28.0535
43.375 744 27.2764
43.4918 764 27.6405
43.6087 786 28.0357
43.7256 769 27.7308
43.8425 752 27.4226
43.9595 781 27.9464
44.0765 767 27.6948
44.1935 703 26.5141
44.3106 676 26
44.4277 608 24.6577
44.5448 619 24.8797
44.6619 655 25.593
44.7791 700 26.4575
44.8963 747 27.3313
45.0136 753 27.4408
45.1308 755 27.4773
45.2481 814 28.5307
45.3654 749 27.3679
45.4827 756 27.4955
45.6001 811 28.4781
45.7174 761 27.5862
45.8348 735 27.1109
45.9522 724 26.9072
46.0697 682 26.1151
46.1871 640 25.2982
46.3046 684 26.1534
46.422 738 27.1662
46.5395 764 27.6405
46.657 799 28.2666
46.7745 856 29.2575
46.892 803 28.3373
47.0096 788 28.0713
47.1271 820 28.6356
47.2446 847 29.1033
47.3622 801 28.3019
47.4797 791 28.1247
47.5973 800 28.2843
47.7149 698 26.4197
47.8324 712 26.6833
47.95 662 25.7294
48.0675 659 25.671
48.1851 658 25.6515
48.3027 690 26.2679
48.4202 698 26.4197
48.5378 797 28.2312
48.6554 838 28.9482
48.7729 817 28.5832
48.8904 802 28.3196
49.008 831 28.8271
49.1255 793 28.1603
49.243 814 28.5307
49.3605 744 27.2764
49.478 753 27.4408
49.5955 726 26.9444
49.713 707 26.5895
49.8304 678 26.0384
49.9479 695 26.3629
50.0653 696 26.3818
50.1827 746 27.313
50.3001 840 28.9828
50.4175 799 28.2666
50.5348 812 28.4956
50.6521 872 29.5296
50.7694 819 28.6182
50.8867 880 29.6648
51.004 800 28.2843
51.1212 783 27.9821
51.2384 711 26.6646
51.3556 686 26.1916
51.4727 638 25.2587
51.5899 637 25.2389
51.707 601 24.5153
51.824 652 25.5343
51.9411 747 27.3313
52.0581 802 28.3196
52.175 831 28.8271
52.2919 825 28.7228
52.4088 860 29.3258
52.5257 840 28.9828
52.6425 810 28.4605
52.7593 891 29.8496
52.876 866 29.4279
52.9927 780 27.9285
53.1094 779 27.9106
53.226 694 26.3439
53.3426 653 25.5539
53.4591 690 26.2679
53.5756 741 27.2213
53.692 684 26.1534
53.8084 716 26.7582
53.9248 687 26.2107
54.0411 661 25.7099
54.1573 637 25.2389
54.2735 0 1
54.3896 0 1
54.5057 0 1
54.6217 0 1
54.7377 0 1
54.8537 0 1
54.9695 0 1
55.0853 0 1
55.2011 0 1
55.3168 0 1
55.4324 0 1
57.824 0 1
57.9396 0 1
58.0553 0 1
58.1711 0 1
58.2869 0 1
58.4028 0 1
58.5187 0 1
58.6347 0 1
58.7508 0 1
58.8669 0 1
58.983 477 21.8403
59.0992 572 23.9165
59.2155 628 25.0599
59.3318 697 26.4008
59.4482 809 28.4429
59.5646 859 29.3087
59.681 925 30.4138
59.7975 873 29.5466
59.9141 870 29.4958
60.0306 878 29.6311
60.1473 829 28.7924
60.2639 793 28.1603
60.3807 768 27.7128
60.4974 766 27.6767
60.6142 813 28.5132
60.731 834 28.8791
60.8479 961 31
60.9648 1010 31.7805
61.0818 1034 32.1559
61.1987 1033 32.1403
61.3158 1006 31.7175
61.4328 1035 32.1714
61.5499 913 30.2159
61.667 953 30.8707
61.7841 898 29.9666
61.9013 873 29.5466
62.0185 901 30.0167
62.1357 889 29.8161
62.253 906 30.0998
62.3702 949 30.8058
62.4875 953 30.8707
62.6049 1049 32.3883
62.7222 980 31.305
62.8396 931 30.5123
62.9569 1022 31.9687
63.0743 997 31.5753
63.1918 967 31.0966
63.3092 974 31.209
63.4267 913 30.2159
63.5441 899 29.9833
63.6616 821 28.6531
63.7791 763 27.6225
63.8966 742 27.2397
64.0142 751 27.4044
64.1317 808 28.4253
64.2492 894 29.8998
64.3668 936 30.5941
64.4843 953 30.8707
64.6019 987 31.4166
64.7195 900 30
64.837 1003 31.6702
64.9546 952 30.8545
65.0722 978 31.273
65.1898 885 29.7489
65.3074 838 28.9482
65.4249 879 29.6479
65.5425 814 28.5307
65.6601 852 29.189
65.7777 836 28.9137
65.8952 903 30.05
66.0128 859 29.3087
66.1304 914 30.2324
66.2479 925 30.4138
66.3655 949 30.8058
66.483 979 31.289
66.6005 960 30.9839
66.718 963 31.0322
66.8355 941 30.6757
66.953 931 30.5123
67.0705 872 29.5296
67.1879 830 28.8097
67.3054 778 27.8927
67.4228 693 26.3249
67.5402 646 25.4165
67.6576 656 25.6125
67.7749 747 27.3313
67.8923 808 28.4253
68.0096 821 28.6531
68.1269 965 31.0644
68.2442 926 30.4302
68.3614 936 30.5941
68.4787 912 30.1993
68.5958 936 30.5941
68.713 953 30.8707
68.8302 888 29.7993
68.9473 786 28.0357
69.0643 808 28.4253
69.1814 759 27.55
69.2984 745 27.2947
69.4154 788 28.0713
69.5323 828 28.775
69.6492 865 29.4109
69.7661 910 30.1662
69.8829 872 29.5296
69.9997 915 30.249
70.1165 952 30.8545
70.2332 911 30.1828
70.3499 910 30.1662
70.4665 867 29.4449
70.5831 823 28.688
70.6996 724 26.9072
70.8161 722 26.8701
70.9326 647 25.4362
71.049 541 23.2594
71.1653 387 19.6723
71.2817 362 19.0263
71.3979 350 18.7083
71.5141 316 17.7764
71.6303 297 17.2337
71.7464 325 18.0278
71.8624 0 1
71.9784 0 1
72.0944 0 1
72.2102 0 1
72.3261 0 1
72.4418 0 1
72.5575 0 1
72.6732 0 1
75.1054 0 1
75.2209 0 1
75.3365 0 1
75.4521 0 1
75.5678 0 1
75.6835 0 1
75.7993 0 1
75.9151 0 1
76.031 0 1
76.147 499 22.3383
76.263 496 22.2711
76.3791 497 22.2935
76.4952 445 21.095
76.6113 453 21.2838
76.7276 500 22.3607
76.8438 586 24.2074
76.9601 674 25.9615
77.0765 790 28.1069
77.1929 791 28.1247
77.3093 897 29.95
77.4258 819 28.6182
77.5423 792 28.1425
77.6589 796 28.2135
77.7755 768 27.7128
77.8921 740 27.2029
78.0088 728 26.9815
78.1256 753 27.4408
78.2423 708 26.6083
78.3591 665 25.7876
78.4759 743 27.258
78.5928 722 26.8701
78.7097 790 28.1069
78.8266 768 27.7128
78.9436 807 28.4077
79.0606 803 28.3373
79.1776 826 28.7402
79.2946 821 28.6531
79.4117 781 27.9464
79.5288 737 27.1477
79.6459 787 28.0535
79.7631 792 28.1425
79.8802 734 27.0924
79.9974 634 25.1794
80.1147 542 23.2809
80.2319 524 22.891
80.3491 496 22.2711
80.4664 554 23.5372
80.5837 658 25.6515
80.701 754 27.4591
80.8183 859 29.3087
80.9357 825 28.7228
81.053 779 27.9106
81.1704 807 28.4077
81.2877 737 27.1477
81.4051 808 28.4253
81.5225 781 27.9464
81.6399 771 27.7669
81.7573 742 27.2397
81.8747 731 27.037
81.9922 681 26.096
82.1096 772 27.7849
82.227 742 27.2397
82.3444 767 27.6948
82.4619 880 29.6648
82.5793 817 28.5832
82.6967 803 28.3373
82.8142 809 28.4429
82.9316 859 29.3087
83.049 844 29.0517
83.1664 808 28.4253
83.2838 719 26.8142
83.4012 784 28
83.5186 733 27.074
83.636 680 26.0768
83.7534 589 24.2693
83.8708 504 22.4499
83.9881 476 21.8174
84.1055 540 23.2379
84.2228 589 24.2693
84.3401 693 26.3249
84.4575 810 28.4605
84.5747 796 28.2135
84.692 807 28.4077
84.8093 838 28.9482
84.9265 811 28.4781
85.0437 766 27.6767
85.1609 766 27.6767
85.2781 735 27.1109
85.3952 757 27.5136
85.5123 694 26.3439
85.6294 754 27.4591
85.7465 733 27.074
85.8636 764 27.6405
85.9806 721 26.8514
86.0976 780 27.9285
86.2145 810 28.4605
86.3315 780 27.9285
86.4484 817 28.5832
86.5652 864 29.3939
86.682 822 28.6705
86.7988 774 27.8209
86.9156 834 28.8791
87.0323 749 27.3679
87.149 744 27.2764
87.2657 647 25.4362
87.3823 525 22.9129
87.4988 438 20.9284
87.6154 481 21.9317
87.7318 549 23.4307
87.8483 653 25.5539
87.9647 722 26.8701
88.081 749 27.3679
88.1973 722 26.8701
88.3136 697 26.4008
88.4298 681 26.096
88.546 638 25.2587
88.6621 522 22.8473
88.7781 395 19.8746
88.8942 0 1
89.0101 0 1
89.126 0 1
89.2419 0 1
89.3577 0 1
89.4734 0 1
89.5891 0 1
89.7047 0 1
89.8203 0 1
89.9358 0 1
92.3269 0 1
92.4424 0 1
92.558 0 1
92.6736 0 1
92.7893 0 1
92.905 0 1
93.0208 0 1
93.1366 0 1
93.2525 0 1
93.3685 0 1
93.4845 0 1
93.6005 449 21.1896
93.7167 551 23.4734
93.8328 532 23.0651
93.949 581 24.1039
94.0653 648 25.4558
94.1816 644 25.3772
94.2979 710 26.6458
94.4143 735 27.1109
94.5307 774 27.8209
94.6472 724 26.9072
94.7637 782 27.9643
94.8803 701 26.4764
94.9969 811 28.4781
95.1135 809 28.4429
95.2302 740 27.2029
95.3469 818 28.6007
95.4637 864 29.3939
95.5805 845 29.0689
95.6973 868 29.4618
95.8142 788 28.0713
95.9311 833 28.8617
96.048 787 28.0535
96.1649 841 29
96.2819 770 27.7489
96.3989 705 26.5518
96.516 622 24.9399
96.633 553 23.516
96.7501 457 21.3776
96.8673 469 21.6564
96.9844 519 22.7816
97.1016 601 24.5153
97.2188 694 26.3439
97.336 740 27.2029
97.4532 815 28.5482
97.5704 846 29.0861
97.6877 883 29.7153
97.805 837 28.931
97.9223 779 27.9106
98.0396 770 27.7489
98.1569 731 27.037
98.2743 707 26.5895
98.3916 736 27.1293
98.509 733 27.074
98.6264 767 27.6948
98.7438 799 28.2666
98.8612 730 27.0185
98.9786 845 29.0689
99.096 848 29.1204
99.2134 832 28.8444
99.3308 838 28.9482
99.4482 843 29.0345
99.5656 896 29.9333
99.6831 846 29.0861
99.8005 803 28.3373
99.9179 753 27.4408
100.035 697 26.4008
100.153 632 25.1396
100.27 570 23.8747
100.388 528 22.9783
100.505 555 23.5584
100.622 629 25.0799
100.74 789 28.0891
100.857 767 27.6948
100.975 857 29.2746
101.092 851 29.1719
101.209 834 28.8791
101.327 851 29.1719
101.444 842 29.0172
101.561 770 27.7489
101.679 818 28.6007
101.796 808 28.4253
101.913 764 27.6405
102.03 734 27.0924
102.148 752 27.4226
102.265 812 28.4956
102.382 896 29.9333
102.499 841 29
102.616 867 29.4449
102.733 888 29.7993
102.851 910 30.1662
102.968 860 29.3258
103.085 883 29.7153
103.202 926 30.4302
103.319 830 28.8097
103.436 822 28.6705
103.552 738 27.1662
103.669 630 25.0998
103.786 543 23.3024
103.903 470 21.6795
104.02 558 23.622
104.137 618 24.8596
104.253 780 27.9285
104.37 848 29.1204
104.487 821 28.6531
104.603 900 30
104.72 865 29.4109
104.836 847 29.1033
104.953 818 28.6007
105.069 771 27.7669
105.186 839 28.9655
105.302 736 27.1293
105.418 780 27.9285
105.535 772 27.7849
105.651 790 28.1069
105.767 721 26.8514
105.883 737 27.1477
105.999 628 25.0599
106.115 0 1
106.231 0 1
106.347 0 1
106.463 0 1
106.579 0 1
106.694 0 1
106.81 0 1
106.926 0 1
107.041 0 1
107.157 0 1
109.576 0 1
109.692 0 1
109.807 0 1
109.923 0 1
110.039 0 1
110.155 0 1
110.27 0 1
110.386 0 1
110.502 0 1
110.618 294 17.1464
110.735 383 19.5704
110.851 406 20.1494
110.967 486 22.0454
111.083 578 24.0416
111.199 603 24.5561
111.316 659 25.671
111.432 710 26.6458
111.549 763 27.6225
111.665 781 27.9464
111.782 782 27.9643
111.898 817 28.5832
112.015 684 26.1534
112.132 604 24.5764
112.248 530 23.0217
112.365 445 21.095
112.482 434 20.8327
112.599 495 22.2486
112.716 580 24.0832
112.832 654 25.5734
112.949 725 26.9258
113.066 774 27.8209
113.183 794 28.178
113.3 753 27.4408
113.417 769 27.7308
113.534 737 27.1477
113.652 692 26.3059
113.769 671 25.9037
113.886 689 26.2488
114.003 688 26.2298
114.12 769 27.7308
114.238 750 27.3861
114.355 757 27.5136
114.472 781 27.9464
114.589 710 26.6458
114.707 751 27.4044
114.824 829 28.7924
114.942 778 27.8927
115.059 809 28.4429
115.176 804 28.3549
115.294 811 28.4781
115.411 739 27.1846
115.529 708 26.6083
115.646 650 25.4951
115.764 600 24.4949
115.881 499 22.3383
115.999 411 20.2731
116.116 448 21.166
116.234 532 23.0651
116.351 589 24.2693
116.469 709 26.6271
116.586 724 26.9072
116.704 734 27.0924
116.821 738 27.1662
116.939 751 27.4044
117.056 757 27.5136
117.174 702 26.4953
117.291 742 27.2397
117.409 723 26.8887
117.526 767 27.6948
117.644 717 26.7769
117.761 727 26.9629
117.879 707 26.5895
117.996 674 25.9615
118.114 751 27.4044
118.231 776 27.8568
118.349 786 28.0357
118.466 755 27.4773
118.584 815 28.5482
118.701 769 27.7308
118.819 771 27.7669
118.936 752 27.4226
119.053 706 26.5707
119.171 696 26.3818
119.288 662 25.7294
119.405 535 23.1301
119.523 446 21.1187
119.64 414 20.347
119.757 483 21.9773
119.875 491 22.1585
119.992 549 23.4307
120.109 682 26.1151
120.226 730 27.0185
120.343 700 26.4575
120.46 754 27.4591
120.578 735 27.1109
120.695 716 26.7582
120.812 685 26.1725
120.929 658 25.6515
121.046 665 25.7876
121.163 674 25.9615
121.279 638 25.2587
121.396 667 25.8263
121.513 747 27.3313
121.63 657 25.632
121.747 677 26.0192
121.863 727 26.9629
121.98 721 26.8514
122.097 663 25.7488
122.213 712 26.6833
122.33 676 26
122.446 657 25.632
122.563 658 25.6515
122.679 630 25.0998
122.795 553 23.516
122.912 482 21.9545
123.028 363 19.0526
123.144 286 16.9115
123.26 230 15.1658
123.377 0 1
123.493 0 1
123.609 0 1
123.725 0 1
123.84 0 1
123.956 0 1
124.072 0 1
124.188 0 1
124.303 0 1
124.419 0 1
126.852 0 1
126.968 0 1
127.083 0 1
127.199 0 1
127.315 0 1
127.431 0 1
127.547 0 1
127.663 0 1
127.779 0 1
127.895 0 1
128.011 0 1
128.127 0 1
128.243 0 1
128.359 573 23.9374
128.476 588 24.2487
128.592 533 23.0868
128.708 446 21.1187
128.825 458 21.4009
128.941 561 23.6854
129.058 641 25.318
129.174 731 27.037
129.291 791 28.1247
129.408 783 27.9821
129.524 796 28.2135
129.641 815 28.5482
129.758 763 27.6225
129.875 733 27.074
129.992 769 27.7308
130.108 752 27.4226
130.225 740 27.2029
130.342 702 26.4953
130.459 778 27.8927
130.576 807 28.4077
130.693 752 27.4226
130.81 787 28.0535
130.928 766 27.6767
131.045 765 27.6586
131.162 735 27.1109
131.279 755 27.4773
131.396 783 27.9821
131.513 734 27.0924
131.631 716 26.7582
131.748 739 27.1846
131.865 707 26.5895
131.983 646 25.4165
132.1 560 23.6643
132.217 450 21.2132
132.335 430 20.7364
132.452 511 22.6053
132.57 620 24.8998
132.687 663 25.7488
132.804 770 27.7489
132.922 741 27.2213
133.039 741 27.2213
133.157 728 26.9815
133.274 777 27.8747
133.392 785 28.0179
133.509 707 26.5895
133.627 776 27.8568
133.744 711 26.6646
133.862 701 26.4764
133.979 732 27.0555
134.097 689 26.2488
134.214 729 27
134.332 773 27.8029
134.449 734 27.0924
134.567 779 27.9106
134.684 759 27.55
134.802 748 27.3496
134.919 750 27.3861
135.037 747 27.3313
135.154 724 26.9072
135.272 733 27.074
135.389 637 25.2389
135.507 660 25.6905
135.624 586 24.2074
135.742 437 20.9045
135.859 445 21.095
135.977 470 21.6795
136.094 548 23.4094
136.211 616 24.8193
136.329 681 26.096
136.446 761 27.5862
136.564 724 26.9072
136.681 714 26.7208
136.798 718 26.7955
136.915 724 26.9072
137.033 746 27.313
137.15 725 26.9258
137.267 705 26.5518
137.384 726 26.9444
137.502 691 26.2869
137.619 726 26.9444
137.736 730 27.0185
137.853 735 27.1109
137.97 715 26.7395
138.087 749 27.3679
138.204 749 27.3679
138.321 699 26.4386
138.438 735 27.1109
138.555 736 27.1293
138.672 683 26.1343
138.788 652 25.5343
138.905 692 26.3059
139.022 697 26.4008
139.139 593 24.3516
139.255 554 23.5372
139.372 512 22.6274
139.488 430 20.7364
139.605 398 19.9499
139.721 411 20.2731
139.838 469 21.6564
139.954 480 21.9089
140.071 512 22.6274
140.187 435 20.8567
140.303 361 19
140.419 351 18.735
140.535 372 19.2873
140.652 332 18.2209
140.768 0 1
140.884 0 1
141 0 1
141.115 0 1
141.231 0 1
141.347 0 1
141.463 0 1
141.578 0 1
141.694 0 1
144.104 0 1
144.219 0 1
144.335 0 1
144.45 0 1
144.566 0 1
144.682 0 1
144.798 0 1
144.914 0 1
145.03 0 1
145.146 411 20.2731
145.262 473 21.7486
145.378 563 23.7276
145.494 587 24.2281
145.61 560 23.6643
145.726 565 23.7697
145.842 556 23.5797
145.959 511 22.6053
146.075 569 23.8537
146.192 541 23.2594
146.308 528 22.9783
146.425 537 23.1733
146.541 538 23.1948
146.658 555 23.5584
146.774 548 23.4094
146.891 566 23.7908
147.008 559 23.6432
147.125 512 22.6274
147.241 547 23.388
147.358 571 23.8956
147.475 535 23.1301
147.592 533 23.0868
147.709 489 22.1133
147.826 475 21.7945
147.943 445 21.095
148.06 420 20.4939
148.177 359 18.9473
148.294 355 18.8414
148.411 355 18.8414
148.528 362 19.0263
148.645 458 21.4009
148.762 517 22.7376
148.88 503 22.4277
148.997 541 23.2594
149.114 546 23.3666
149.231 527 22.9565
149.349 584 24.1661
149.466 566 23.7908
149.583 513 22.6495
149.701 481 21.9317
149.818 531 23.0434
149.935 480 21.9089
150.053 538 23.1948
150.17 511 22.6053
150.287 568 23.8328
150.405 541 23.2594
150.522 512 22.6274
150.64 483 21.9773
150.757 574 23.9583
150.875 545 23.3452
150.992 564 23.7487
151.11 489 22.1133
151.227 519 22.7816
151.344 477 21.8403
151.462 488 22.0907
151.579 450 21.2132
151.697 393 19.8242
151.814 379 19.4679
151.932 345 18.5742
152.049 370 19.2354
152.167 420 20.4939
152.284 469 21.6564
152.402 500 22.3607
152.519 511 22.6053
152.636 541 23.2594
152.754 542 23.2809
152.871 506 22.4944
152.989 541 23.2594
153.106 529 23
153.223 521 22.8254
153.341 540 23.2379
153.458 514 22.6716
153.575 551 23.4734
153.693 522 22.8473
153.81 510 22.5832
153.927 559 23.6432
154.044 504 22.4499
154.162 529 23
154.279 530 23.0217
154.396 519 22.7816
154.513 506 22.4944
154.63 557 23.6008
154.747 564 23.7487
154.864 551 23.4734
154.981 526 22.9347
155.098 453 21.2838
155.215 459 21.4243
155.332 441 21
155.449 351 18.735
155.566 348 18.6548
155.683 363 19.0526
155.8 394 19.8494
155.917 488 22.0907
156.033 517 22.7376
156.15 0 1
156.267 0 1
156.383 0 1
156.5 0 1
156.617 0 1
156.733 0 1
156.85 0 1
156.966 0 1
157.082 0 1
157.199 0 1
157.315 0 1
157.431 0 1
157.547 0 1
157.664 0 1
157.78 0 1
157.896 0 1
158.012 0 1
158.128 0 1
158.244 0 1
158.359 0 1
158.475 0 1
158.591 0 1
158.706 0 1
