
6.15755 0 1
6.2731 0 1
6.3887 0 1
6.50437 0 1
6.62009 0 1
6.73587 0 1
6.8517 0 1
6.96759 0 1
7.08353 0 1
7.19952 0 1
7.31557 0 1
7.43166 0 1
7.54781 0 1
7.664 0 1
7.78024 0 1
7.89653 0 1
8.01286 0 1
8.12924 0 1
8.24567 0 1
8.36213 0 1
8.47864 0 1
8.59519 0 1
8.71178 0 1
8.82841 0 1
8.94508 0 1
9.06179 0 1
9.17853 0 1
9.29531 0 1
9.41212 0 1
9.52897 0 1
9.64584 0 1
9.76276 0 1
9.8797 0 1
9.99667 0 1
10.1137 0 1
10.2307 0 1
10.3478 0 1
10.4648 0 1
10.5819 0 1
10.6991 0 1
10.8162 0 1
10.9334 0 1
11.0506 0 1
11.1678 0 1
11.285 0 1
11.4023 0 1
11.5196 0 1
11.6369 0 1
11.7542 0 1
11.8715 0 1
11.9888 0 1
12.1062 0 1
12.2235 0 1
12.3409 0 1
12.4582 0 1
12.5756 0 1
12.693 0 1
12.8104 0 1
12.9278 0 1
13.0452 0 1
13.1626 0 1
13.28 0 1
13.3974 0 1
13.5149 0 1
13.6323 0 1
13.7497 0 1
13.8671 0 1
13.9845 0 1
14.1019 0 1
14.2193 0 1
14.3367 0 1
14.4541 0 1
14.5714 0 1
14.6888 0 1
14.8062 0 1
14.9235 0 1
15.0408 2554 50.5371
15.1581 2598 50.9706
15.2755 2663 51.6043
15.3927 2707 52.0288
15.51 2800 52.915
15.6273 2663 51.6043
15.7445 2571 50.705
15.8617 2582 50.8134
15.9789 2484 49.8397
16.0961 2467 49.6689
16.2132 2584 50.8331
16.3304 2599 50.9804
16.4475 2644 51.4198
16.5646 2499 49.99
16.6816 2443 49.4267
16.7986 2417 49.163
16.9156 2446 49.4571
17.0326 2415 49.1426
17.1496 2280 47.7493
17.2665 2276 47.7074
17.3833 2132 46.1736
17.5002 2212 47.0319
17.617 2273 47.676
17.7338 2261 47.55
17.8505 2337 48.3425
17.9672 2457 49.5681
18.0839 2652 51.4976
18.2005 2589 50.8822
18.3171 2689 51.8556
18.4337 2786 52.7826
18.5502 2700 51.9615
18.6666 2692 51.8845
18.7831 2707 52.0288
18.8994 2710 52.0577
19.0158 2613 51.1175
19.1321 2577 50.7642
19.2483 2454 49.5379
19.3645 2433 49.3254
19.4806 2357 48.5489
19.5967 2286 47.8121
19.7128 2293 47.8853
19.8288 2247 47.4025
19.9447 2035 45.111
20.0606 0 1
20.1764 0 1
20.2922 0 1
20.4079 0 1
20.5236 0 1
20.6392 0 1
20.7548 0 1
20.8702 0 1
23.3078 0 1
23.4233 0 1
23.539 0 1
23.6547 0 1
23.7704 0 1
23.8862 0 1
24.0021 0 1
24.118 0 1
24.234 0 1
24.35 0 1
24.4661 2181 46.7012
24.5822 2148 46.3465
24.6984 2183 46.7226
24.8146 2282 47.7703
24.9309 2360 48.5798
25.0472 2360 48.5798
25.1636 2466 49.6588
25.28 2442 49.4166
25.3965 2429 49.2849
25.513 2483 49.8297
25.6296 2508 50.0799
25.7462 2477 49.7695
25.8628 2491 49.9099
25.9795 2352 48.4974
26.0962 2228 47.2017
26.213 2245 47.3814
26.3298 2215 47.0638
26.4466 2237 47.2969
26.5635 2313 48.0937
26.6804 2395 48.9387
26.7973 2411 49.1019
26.9143 2449 49.4874
27.0313 2414 49.1325
27.1483 2500 50
27.2653 2505 50.05
27.3824 2540 50.3984
27.4996 2607 51.0588
27.6167 2502 50.02
27.7339 2401 49
27.8511 2413 49.1223
27.9683 2340 48.3735
28.0855 2296 47.9166
28.2028 2136 46.2169
28.3201 2237 47.2969
28.4374 2267 47.613
28.5547 2273 47.676
28.6721 2407 49.0612
28.7894 2388 48.8672
28.9068 2362 48.6004
29.0242 2315 48.1144
29.1416 2232 47.244
29.259 2319 48.156
29.3764 2197 46.8722
29.4939 2185 46.744
29.6113 2016 44.8999
29.7288 2063 45.4203
29.8463 2033 45.0888
29.9638 2100 45.8258
30.0812 2135 46.2061
30.1987 2186 46.7547
30.3162 2239 47.3181
30.4337 2394 48.9285
30.5512 2370 48.6826
30.6687 2334 48.3115
30.7862 2396 48.949
30.9037 2437 49.366
31.0212 2412 49.1121
31.1387 2412 49.1121
31.2562 2472 49.7192
31.3737 2377 48.7545
31.4912 2403 49.0204
31.6087 2293 47.8853
31.7262 2211 47.0213
31.8436 2096 45.7821
31.9611 2266 47.6025
32.0785 2212 47.0319
32.1959 2234 47.2652
32.3134 2327 48.239
32.4308 2336 48.3322
32.5482 2369 48.6724
32.6655 2300 47.9583
32.7829 2243 47.3603
32.9002 2250 47.4342
33.0176 2231 47.2335
33.1349 2157 46.4435
33.2522 2083 45.6399
33.3694 1968 44.3621
33.4867 2019 44.9333
33.6039 2060 45.3872
33.7211 2081 45.618
33.8383 2113 45.9674
33.9554 2250 47.4342
34.0725 2340 48.3735
34.1896 2148 46.3465
34.3067 2306 48.0208
34.4237 2386 48.8467
34.5407 2427 49.2646
34.6577 2381 48.7955
34.7746 2370 48.6826
34.8915 2383 48.816
35.0084 2370 48.6826
35.1252 2241 47.3392
35.242 2180 46.6905
35.3587 2146 46.3249
35.4755 2120 46.0435
35.5921 2083 45.6399
35.7088 2132 46.1736
35.8254 2240 47.3286
35.9419 2248 47.4131
36.0584 2277 47.7179
36.1749 2232 47.244
36.2913 2212 47.0319
36.4077 2169 46.5725
36.524 2217 47.085
36.6403 2201 46.9148
36.7565 2091 45.7275
36.8727 2125 46.0977
36.9889 1969 44.3734
37.1049 1967 44.3509
37.221 0 1
37.3369 0 1
37.4529 0 1
37.5687 0 1
37.6845 0 1
37.8003 0 1
37.916 0 1
38.0316 0 1
38.1472 0 1
40.5851 0 1
40.7008 0 1
40.8164 0 1
40.9322 0 1
41.048 0 1
41.1639 0 1
41.2798 0 1
41.3958 0 1
41.5118 0 1
41.6279 0 1
41.744 1685 41.0488
41.8602 1880 43.359
41.9765 1736 41.6653
42.0928 1759 41.9404
42.2091 1701 41.2432
42.3255 1645 40.5586
42.4419 1646 40.5709
42.5584 1710 41.3521
42.675 1722 41.497
42.7915 1821 42.6732
42.9081 1844 42.9418
43.0248 1791 42.3202
43.1415 1874 43.2897
43.2582 1859 43.1161
43.375 1987 44.5758
43.4918 1907 43.6692
43.6087 1862 43.1509
43.7256 1871 43.2551
43.8425 1886 43.4281
43.9595 1854 43.0581
44.0765 1802 42.45
44.1935 1676 40.939
44.3106 1736 41.6653
44.4277 1586 39.8246
44.5448 1553 39.4081
44.6619 1506 38.8072
44.7791 1577 39.7115
44.8963 1632 40.398
45.0136 1660 40.7431
45.1308 1563 39.5348
45.2481 1563 39.5348
45.3654 1477 38.4318
45.4827 1509 38.8458
45.6001 1448 38.0526
45.7174 1432 37.8418
45.8348 1374 37.0675
45.9522 1355 36.8103
46.0697 1390 37.2827
46.1871 1387 37.2424
46.3046 1417 37.6431
46.422 1394 37.3363
46.5395 1429 37.8021
46.657 1451 38.092
46.7745 1534 39.1663
46.892 1469 38.3275
47.0096 1435 37.8814
47.1271 1549 39.3573
47.2446 1513 38.8973
47.3622 1445 38.0132
47.4797 1356 36.8239
47.5973 1418 37.6563
47.7149 1463 38.2492
47.8324 1348 36.7151
47.95 1291 35.9305
48.0675 1222 34.9571
48.1851 1236 35.1568
48.3027 1224 34.9857
48.4202 1288 35.8887
48.5378 1348 36.7151
48.6554 1331 36.4829
48.7729 1310 36.1939
48.8904 1291 35.9305
49.008 1248 35.327
49.1255 1238 35.1852
49.243 1240 35.2136
49.3605 1257 35.4542
49.478 1239 35.1994
49.5955 1178 34.322
49.713 1282 35.805
49.8304 1312 36.2215
49.9479 1382 37.1753
50.0653 1379 37.1349
50.1827 1472 38.3667
50.3001 1396 37.3631
50.4175 1406 37.4967
50.5348 1465 38.2753
50.6521 1475 38.4057
50.7694 1512 38.8844
50.8867 1529 39.1024
51.004 1604 40.05
51.1212 1628 40.3485
51.2384 1682 41.0122
51.3556 1546 39.3192
51.4727 1559 39.4842
51.5899 1576 39.6989
51.707 1602 40.025
51.824 1644 40.5463
51.9411 1725 41.5331
52.0581 1823 42.6966
52.175 1786 42.2611
52.2919 1745 41.7732
52.4088 1814 42.5911
52.5257 1869 43.2319
52.6425 1833 42.8135
52.7593 1791 42.3202
52.876 1800 42.4264
52.9927 1725 41.5331
53.1094 1811 42.5558
53.226 1724 41.5211
53.3426 1866 43.1972
53.4591 1942 44.0681
53.5756 1933 43.9659
53.692 1985 44.5533
53.8084 2144 46.3033
53.9248 2088 45.6946
54.0411 2208 46.9894
54.1573 2247 47.4025
54.2735 0 1
54.3896 0 1
54.5057 0 1
54.6217 0 1
54.7377 0 1
54.8537 0 1
54.9695 0 1
55.0853 0 1
55.2011 0 1
55.3168 0 1
55.4324 0 1
57.824 0 1
57.9396 0 1
58.0553 0 1
58.1711 0 1
58.2869 0 1
58.4028 0 1
58.5187 0 1
58.6347 0 1
58.7508 0 1
58.8669 0 1
58.983 2513 50.1298
59.0992 2675 51.7204
59.2155 2702 51.9808
59.3318 2664 51.614
59.4482 2624 51.225
59.5646 2751 52.45
59.681 2798 52.8961
59.7975 2796 52.8772
59.9141 2685 51.817
60.0306 2663 51.6043
60.1473 2683 51.7977
60.2639 2506 50.06
60.3807 2404 49.0306
60.4974 2432 49.3153
60.6142 2373 48.7134
60.731 2588 50.8724
60.8479 2606 51.049
60.9648 2574 50.7346
61.0818 2576 50.7543
61.1987 2549 50.4876
61.3158 2537 50.3686
61.4328 2458 49.5782
61.5499 2407 49.0612
61.667 2376 48.7442
61.7841 2258 47.5184
61.9013 2290 47.8539
62.0185 2350 48.4768
62.1357 2354 48.518
62.253 2244 47.3709
62.3702 2426 49.2544
62.4875 2489 49.8899
62.6049 2474 49.7393
62.7222 2598 50.9706
62.8396 2522 50.2195
62.9569 2679 51.7591
63.0743 2477 49.7695
63.1918 2573 50.7247
63.3092 2413 49.1223
63.4267 2578 50.774
63.5441 2423 49.224
63.6616 2324 48.2079
63.7791 2288 47.833
63.8966 2215 47.0638
64.0142 2133 46.1844
64.1317 2181 46.7012
64.2492 2299 47.9479
64.3668 2291 47.8644
64.4843 2403 49.0204
64.6019 2399 48.9796
64.7195 2344 48.4149
64.837 2212 47.0319
64.9546 2316 48.1248
65.0722 2348 48.4562
65.1898 2270 47.6445
65.3074 2221 47.1275
65.4249 2091 45.7275
65.5425 2135 46.2061
65.6601 2198 46.8828
65.7777 2083 45.6399
65.8952 2206 46.9681
66.0128 2324 48.2079
66.1304 2354 48.518
66.2479 2360 48.5798
66.3655 2334 48.3115
66.483 2542 50.4183
66.6005 2492 49.9199
66.718 2454 49.5379
66.8355 2521 50.2096
66.953 2388 48.8672
67.0705 2429 49.2849
67.1879 2451 49.5076
67.3054 2382 48.8057
67.4228 2350 48.4768
67.5402 2352 48.4974
67.6576 2152 46.3897
67.7749 2165 46.5296
67.8923 2288 47.833
68.0096 2369 48.6724
68.1269 2392 48.9081
68.2442 2409 49.0816
68.3614 2525 50.2494
68.4787 2418 49.1732
68.5958 2458 49.5782
68.713 2393 48.9183
68.8302 2425 49.2443
68.9473 2269 47.634
69.0643 2259 47.5289
69.1814 2189 46.7868
69.2984 2248 47.4131
69.4154 2176 46.6476
69.5323 2311 48.0729
69.6492 2441 49.4065
69.7661 2526 50.2593
69.8829 2518 50.1797
69.9997 2643 51.4101
70.1165 2641 51.3907
70.2332 2670 51.672
70.3499 2777 52.6972
70.4665 2748 52.4214
70.5831 2661 51.5849
70.6996 2741 52.3546
70.8161 2591 50.9019
70.9326 2649 51.4684
71.049 2577 50.7642
71.1653 2475 49.7494
71.2817 2357 48.5489
71.3979 2207 46.9787
71.5141 2304 48
71.6303 2260 47.5395
71.7464 2211 47.0213
71.8624 0 1
71.9784 0 1
72.0944 0 1
72.2102 0 1
72.3261 0 1
72.4418 0 1
72.5575 0 1
72.6732 0 1
75.1054 0 1
75.2209 0 1
75.3365 0 1
75.4521 0 1
75.5678 0 1
75.6835 0 1
75.7993 0 1
75.9151 0 1
76.031 0 1
76.147 2495 49.95
76.263 2675 51.7204
76.3791 2661 51.5849
76.4952 2448 49.4773
76.6113 2468 49.679
76.7276 2408 49.0714
76.8438 2605 51.0392
76.9601 2728 52.2303
77.0765 2702 51.9808
77.1929 2768 52.6118
77.3093 2708 52.0384
77.4258 2772 52.6498
77.5423 2812 53.0283
77.6589 2823 53.1319
77.7755 2511 50.1099
77.8921 2505 50.05
78.0088 2549 50.4876
78.1256 2451 49.5076
78.2423 2357 48.5489
78.3591 2376 48.7442
78.4759 2469 49.689
78.5928 2579 50.7839
78.7097 2619 51.1762
78.8266 2626 51.2445
78.9436 2701 51.9711
79.0606 2715 52.1057
79.1776 2793 52.8488
79.2946 2764 52.5738
79.4117 2727 52.2207
79.5288 2799 52.9056
79.6459 2854 53.4228
79.7631 2733 52.2781
79.8802 2728 52.2303
79.9974 2670 51.672
80.1147 2462 49.6185
80.2319 2516 50.1597
80.3491 2435 49.3457
80.4664 2414 49.1325
80.5837 2499 49.99
80.701 2612 51.1077
80.8183 2676 51.7301
80.9357 2708 52.0384
81.053 2599 50.9804
81.1704 2596 50.951
81.2877 2698 51.9423
81.4051 2637 51.3517
81.5225 2590 50.892
81.6399 2503 50.03
81.7573 2483 49.8297
81.8747 2213 47.0425
81.9922 2200 46.9042
82.1096 2357 48.5489
82.227 2485 49.8498
82.3444 2560 50.5964
82.4619 2565 50.6458
82.5793 2724 52.192
82.6967 2624 51.225
82.8142 2724 52.192
82.9316 2731 52.259
83.049 2598 50.9706
83.1664 2809 53
83.2838 2750 52.4404
83.4012 2704 52
83.5186 2560 50.5964
83.636 2621 51.1957
83.7534 2586 50.8527
83.8708 2280 47.7493
83.9881 2332 48.2908
84.1055 2330 48.2701
84.2228 2577 50.7642
84.3401 2612 51.1077
84.4575 2607 51.0588
84.5747 2586 50.8527
84.692 2651 51.4879
84.8093 2678 51.7494
84.9265 2703 51.9904
85.0437 2696 51.923
85.1609 2522 50.2195
85.2781 2542 50.4183
85.3952 2378 48.7647
85.5123 2287 47.8226
85.6294 2362 48.6004
85.7465 2487 49.8698
85.8636 2466 49.6588
85.9806 2675 51.7204
86.0976 2734 52.2877
86.2145 2760 52.5357
86.3315 2841 53.301
86.4484 2867 53.5444
86.5652 2927 54.1018
86.682 2975 54.5436
86.7988 2920 54.037
86.9156 2844 53.3292
87.0323 2920 54.037
87.149 2913 53.9722
87.2657 2863 53.507
87.3823 2728 52.2303
87.4988 2573 50.7247
87.6154 2531 50.309
87.7318 2538 50.3786
87.8483 2817 53.0754
87.9647 2774 52.6688
88.081 2857 53.4509
88.1973 2873 53.6004
88.3136 2814 53.0471
88.4298 2798 52.8961
88.546 2922 54.0555
88.6621 2845 53.3385
88.7781 2730 52.2494
88.8942 0 1
89.0101 0 1
89.126 0 1
89.2419 0 1
89.3577 0 1
89.4734 0 1
89.5891 0 1
89.7047 0 1
89.8203 0 1
89.9358 0 1
92.3269 0 1
92.4424 0 1
92.558 0 1
92.6736 0 1
92.7893 0 1
92.905 0 1
93.0208 0 1
93.1366 0 1
93.2525 0 1
93.3685 0 1
93.4845 0 1
93.6005 2713 52.0865
93.7167 2804 52.9528
93.8328 2790 52.8205
93.949 2713 52.0865
94.0653 2560 50.5964
94.1816 2483 49.8297
94.2979 2423 49.224
94.4143 2393 48.9183
94.5307 2338 48.3529
94.6472 2437 49.366
94.7637 2515 50.1498
94.8803 2552 50.5173
94.9969 2775 52.6783
95.1135 2696 51.923
95.2302 2720 52.1536
95.3469 2698 51.9423
95.4637 2892 53.7773
95.5805 2776 52.6878
95.6973 2836 53.2541
95.8142 2920 54.037
95.9311 2830 53.1977
96.048 2804 52.9528
96.1649 2807 52.9811
96.2819 2758 52.5167
96.3989 2579 50.7839
96.516 2600 50.9902
96.633 2512 50.1199
96.7501 2502 50.02
96.8673 2607 51.0588
96.9844 2648 51.4587
97.1016 2577 50.7642
97.2188 2750 52.4404
97.336 2583 50.8232
97.4532 2668 51.6527
97.5704 2669 51.6624
97.6877 2653 51.5073
97.805 2632 51.303
97.9223 2500 50
98.0396 2405 49.0408
98.1569 2335 48.3218
98.2743 2282 47.7703
98.3916 2367 48.6518
98.509 2512 50.1199
98.6264 2644 51.4198
98.7438 2610 51.0882
98.8612 2608 51.0686
98.9786 2723 52.1824
99.096 2789 52.811
99.2134 2732 52.2685
99.3308 2797 52.8867
99.4482 2738 52.3259
99.5656 2739 52.3355
99.6831 2730 52.2494
99.8005 2684 51.8073
99.9179 2621 51.1957
100.035 2529 50.2892
100.153 2448 49.4773
100.27 2356 48.5386
100.388 2388 48.8672
100.505 2449 49.4874
100.622 2533 50.3289
100.74 2688 51.8459
100.857 2726 52.2111
100.975 2629 51.2738
101.092 2658 51.5558
101.209 2649 51.4684
101.327 2737 52.3163
101.444 2592 50.9117
101.561 2509 50.0899
101.679 2554 50.5371
101.796 2427 49.2646
101.913 2387 48.8569
102.03 2418 49.1732
102.148 2528 50.2792
102.265 2460 49.5984
102.382 2909 53.9351
102.499 2753 52.469
102.616 2771 52.6403
102.733 2914 53.9815
102.851 2997 54.7449
102.968 2900 53.8516
103.085 3036 55.0999
103.202 2888 53.7401
103.319 2903 53.8795
103.436 2895 53.8052
103.552 2789 52.811
103.669 2713 52.0865
103.786 2608 51.0686
103.903 2658 51.5558
104.02 2739 52.3355
104.137 2700 51.9615
104.253 2821 53.1131
104.37 2815 53.0566
104.487 2905 53.8981
104.603 2928 54.111
104.72 2958 54.3875
104.836 2935 54.1756
104.953 2811 53.0189
105.069 2681 51.7784
105.186 2523 50.2295
105.302 2471 49.7092
105.418 2476 49.7594
105.535 2650 51.4782
105.651 2788 52.8015
105.767 2803 52.9434
105.883 2872 53.591
105.999 2918 54.0185
106.115 0 1
106.231 0 1
106.347 0 1
106.463 0 1
106.579 0 1
106.694 0 1
106.81 0 1
106.926 0 1
107.041 0 1
107.157 0 1
109.576 0 1
109.692 0 1
109.807 0 1
109.923 0 1
110.039 0 1
110.155 0 1
110.27 0 1
110.386 0 1
110.502 0 1
110.618 2346 48.4355
110.735 2529 50.2892
110.851 2498 49.98
110.967 2528 50.2792
111.083 2658 51.5558
111.199 2662 51.5946
111.316 2754 52.4786
111.432 2700 51.9615
111.549 2639 51.3712
111.665 2696 51.923
111.782 2596 50.951
111.898 2647 51.449
112.015 2625 51.2348
112.132 2502 50.02
112.248 2357 48.5489
112.365 2261 47.55
112.482 2269 47.634
112.599 2243 47.3603
112.716 2308 48.0416
112.832 2367 48.6518
112.949 2389 48.8774
113.066 2492 49.9199
113.183 2431 49.3052
113.3 2399 48.9796
113.417 2400 48.9898
113.534 2453 49.5278
113.652 2207 46.9787
113.769 2192 46.8188
113.886 2029 45.0444
114.003 2053 45.31
114.12 2056 45.3431
114.238 2189 46.7868
114.355 2283 47.7807
114.472 2252 47.4552
114.589 2140 46.2601
114.707 2321 48.1768
114.824 2262 47.5605
114.942 2300 47.9583
115.059 2231 47.2335
115.176 2237 47.2969
115.294 2168 46.5618
115.411 2203 46.9361
115.529 2165 46.5296
115.646 2097 45.793
115.764 2091 45.7275
115.881 1924 43.8634
115.999 1857 43.0929
116.116 1766 42.0238
116.234 1851 43.0232
116.351 1927 43.8976
116.469 1977 44.4635
116.586 1908 43.6807
116.704 1988 44.587
116.821 1932 43.9545
116.939 2017 44.911
117.056 1984 44.5421
117.174 1951 44.1701
117.291 1766 42.0238
117.409 1731 41.6053
117.526 1662 40.7676
117.644 1719 41.4608
117.761 1743 41.7493
117.879 1848 42.9884
117.996 1878 43.3359
118.114 1981 44.5084
118.231 2004 44.7661
118.349 1984 44.5421
118.466 1997 44.6878
118.584 1904 43.6348
118.701 2080 45.607
118.819 2006 44.7884
118.936 2005 44.7772
119.053 1950 44.1588
119.171 1948 44.1362
119.288 1938 44.0227
119.405 1837 42.8602
119.523 1812 42.5676
119.64 1826 42.7317
119.757 1762 41.9762
119.875 1826 42.7317
119.992 1998 44.699
120.109 1927 43.8976
120.226 1965 44.3283
120.343 2074 45.5412
120.46 2169 46.5725
120.578 2125 46.0977
120.695 2084 45.6508
120.812 2149 46.3573
120.929 2060 45.3872
121.046 2032 45.0777
121.163 1942 44.0681
121.279 1862 43.1509
121.396 1907 43.6692
121.513 2052 45.299
121.63 2115 45.9891
121.747 2149 46.3573
121.863 2239 47.3181
121.98 2338 48.3529
122.097 2360 48.5798
122.213 2324 48.2079
122.33 2329 48.2597
122.446 2334 48.3115
122.563 2462 49.6185
122.679 2289 47.8435
122.795 2344 48.4149
122.912 2292 47.8748
123.028 2350 48.4768
123.144 2173 46.6154
123.26 2123 46.076
123.377 0 1
123.493 0 1
123.609 0 1
123.725 0 1
123.84 0 1
123.956 0 1
124.072 0 1
124.188 0 1
124.303 0 1
124.419 0 1
126.852 0 1
126.968 0 1
127.083 0 1
127.199 0 1
127.315 0 1
127.431 0 1
127.547 0 1
127.663 0 1
127.779 0 1
127.895 0 1
128.011 0 1
128.127 0 1
128.243 0 1
128.359 2802 52.9339
128.476 2661 51.5849
128.592 2576 50.7543
128.708 2327 48.239
128.825 2454 49.5379
128.941 2469 49.689
129.058 2546 50.4579
129.174 2564 50.636
129.291 2659 51.5655
129.408 2771 52.6403
129.524 2742 52.3641
129.641 2776 52.6878
129.758 2830 53.1977
129.875 2760 52.5357
129.992 2579 50.7839
130.108 2534 50.3389
130.225 2392 48.9081
130.342 2419 49.1833
130.459 2419 49.1833
130.576 2434 49.3356
130.693 2546 50.4579
130.81 2627 51.2543
130.928 2627 51.2543
131.045 2696 51.923
131.162 2758 52.5167
131.279 2717 52.1249
131.396 2712 52.0769
131.513 2742 52.3641
131.631 2775 52.6783
131.748 2646 51.4393
131.865 2693 51.8941
131.983 2435 49.3457
132.1 2533 50.3289
132.217 2417 49.163
132.335 2284 47.7912
132.452 2445 49.4469
132.57 2435 49.3457
132.687 2449 49.4874
132.804 2614 51.1273
132.922 2585 50.8429
133.039 2621 51.1957
133.157 2759 52.5262
133.274 2549 50.4876
133.392 2586 50.8527
133.509 2472 49.7192
133.627 2441 49.4065
133.744 2330 48.2701
133.862 2199 46.8935
133.979 2100 45.8258
134.097 2248 47.4131
134.214 2500 50
134.332 2456 49.558
134.449 2514 50.1398
134.567 2586 50.8527
134.684 2555 50.547
134.802 2623 51.2152
134.919 2579 50.7839
135.037 2561 50.6063
135.154 2503 50.03
135.272 2413 49.1223
135.389 2334 48.3115
135.507 2283 47.7807
135.624 2216 47.0744
135.742 2093 45.7493
135.859 2003 44.7549
135.977 2109 45.9239
136.094 2093 45.7493
136.211 2091 45.7275
136.329 2103 45.8585
136.446 2125 46.0977
136.564 2206 46.9681
136.681 2137 46.2277
136.798 2193 46.8295
136.915 2165 46.5296
137.033 2090 45.7165
137.15 2121 46.0543
137.267 1976 44.4522
137.384 1898 43.566
137.502 1890 43.4741
137.619 1910 43.7035
137.736 1969 44.3734
137.853 2098 45.8039
137.97 2096 45.7821
138.087 2270 47.6445
138.204 2310 48.0625
138.321 2262 47.5605
138.438 2246 47.392
138.555 2378 48.7647
138.672 2400 48.9898
138.788 2364 48.621
138.905 2340 48.3735
139.022 2365 48.6313
139.139 2327 48.239
139.255 2277 47.7179
139.372 2276 47.7074
139.488 2202 46.9255
139.605 2167 46.551
139.721 2289 47.8435
139.838 2392 48.9081
139.954 2402 49.0102
140.071 2374 48.7237
140.187 2534 50.3389
140.303 2525 50.2494
140.419 2638 51.3615
140.535 2642 51.4004
140.652 2584 50.8331
140.768 0 1
140.884 0 1
141 0 1
141.115 0 1
141.231 0 1
141.347 0 1
141.463 0 1
141.578 0 1
141.694 0 1
144.104 0 1
144.219 0 1
144.335 0 1
144.45 0 1
144.566 0 1
144.682 0 1
144.798 0 1
144.914 0 1
145.03 0 1
145.146 4062 63.7338
145.262 4413 66.4304
145.378 4491 67.0149
145.494 4716 68.6731
145.61 4885 69.8928
145.726 5075 71.239
145.842 5183 71.9931
145.959 5184 72
146.075 4914 70.0999
146.192 5040 70.993
146.308 4789 69.2026
146.425 5165 71.8679
146.541 5664 75.2596
146.658 5894 76.7724
146.774 6300 79.3725
146.891 6672 81.6823
147.008 6844 82.7285
147.125 7242 85.0999
147.241 7431 86.2032
147.358 7536 86.8101
147.475 7510 86.6603
147.592 7484 86.5101
147.709 7398 86.0116
147.826 7282 85.3346
147.943 7176 84.7113
148.06 6942 83.3187
148.177 6677 81.7129
148.294 6568 81.0432
148.411 6693 81.8108
148.528 6733 82.0549
148.645 7047 83.9464
148.762 6941 83.3127
148.88 7220 84.9706
148.997 7703 87.7667
149.114 7025 83.8153
149.231 7381 85.9127
149.349 7126 84.4156
149.466 7044 83.9285
149.583 7031 83.8511
149.701 6313 79.4544
149.818 6103 78.1217
149.935 5768 75.9474
150.053 5776 76
150.17 6115 78.1985
150.287 6383 79.8937
150.405 6632 81.4371
150.522 6852 82.7768
150.64 7045 83.9345
150.757 7075 84.113
150.875 7071 84.0892
150.992 6900 83.0662
151.11 7137 84.4808
151.227 6909 83.1204
151.344 6905 83.0963
151.462 6752 82.1706
151.579 6772 82.2922
151.697 6656 81.5843
151.814 6480 80.4984
151.932 6399 79.9937
152.049 6444 80.2745
152.167 6699 81.8474
152.284 6893 83.0241
152.402 7273 85.2819
152.519 7502 86.6141
152.636 7626 87.327
152.754 7977 89.3141
152.871 7776 88.1816
152.989 7914 88.9607
153.106 7550 86.8907
153.223 7247 85.1293
153.341 7089 84.1962
153.458 6614 81.3265
153.575 6425 80.1561
153.693 6561 81
153.81 6857 82.807
153.927 7415 86.1104
154.044 7492 86.5563
154.162 7687 87.6755
154.279 8082 89.8999
154.396 8219 90.6587
154.513 8383 91.5587
154.63 8670 93.1128
154.747 8458 91.9674
154.864 8392 91.6079
154.981 8478 92.0761
155.098 8229 90.7138
155.215 8278 90.9835
155.332 8151 90.2829
155.449 7969 89.2693
155.566 7882 88.7806
155.683 8187 90.482
155.8 8149 90.2718
155.917 8261 90.89
156.033 8633 92.9139
156.15 0 1
156.267 0 1
156.383 0 1
156.5 0 1
156.617 0 1
156.733 0 1
156.85 0 1
156.966 0 1
157.082 0 1
157.199 0 1
157.315 0 1
157.431 0 1
157.547 0 1
157.664 0 1
157.78 0 1
157.896 0 1
158.012 0 1
158.128 0 1
158.244 0 1
158.359 0 1
158.475 0 1
158.591 0 1
158.706 0 1
