
6.15755 0 1
6.2731 0 1
6.3887 0 1
6.50437 0 1
6.62009 0 1
6.73587 0 1
6.8517 0 1
6.96759 0 1
7.08353 0 1
7.19952 0 1
7.31557 0 1
7.43166 0 1
7.54781 0 1
7.664 0 1
7.78024 0 1
7.89653 0 1
8.01286 0 1
8.12924 0 1
8.24567 0 1
8.36213 0 1
8.47864 0 1
8.59519 0 1
8.71178 0 1
8.82841 0 1
8.94508 0 1
9.06179 0 1
9.17853 0 1
9.29531 0 1
9.41212 0 1
9.52897 0 1
9.64584 0 1
9.76276 0 1
9.8797 0 1
9.99667 0 1
10.1137 0 1
10.2307 0 1
10.3478 0 1
10.4648 0 1
10.5819 0 1
10.6991 0 1
10.8162 0 1
10.9334 0 1
11.0506 0 1
11.1678 0 1
11.285 0 1
11.4023 0 1
11.5196 0 1
11.6369 0 1
11.7542 0 1
11.8715 0 1
11.9888 0 1
12.1062 0 1
12.2235 0 1
12.3409 0 1
12.4582 0 1
12.5756 0 1
12.693 0 1
12.8104 0 1
12.9278 0 1
13.0452 0 1
13.1626 0 1
13.28 0 1
13.3974 0 1
13.5149 0 1
13.6323 0 1
13.7497 0 1
13.8671 0 1
13.9845 0 1
14.1019 0 1
14.2193 0 1
14.3367 0 1
14.4541 0 1
14.5714 0 1
14.6888 0 1
14.8062 0 1
14.9235 0 1
15.0408 0 0
15.1581 0 0
15.2755 0 0
15.3927 0 0
15.51 0 0
15.6273 0 0
15.7445 0 0
15.8617 0 0
15.9789 0 0
16.0961 0 0
16.2132 0 0
16.3304 0 0
16.4475 0 0
16.5646 0 0
16.6816 0 0
16.7986 0 0
16.9156 0 0
17.0326 0 0
17.1496 0 0
17.2665 0 0
17.3833 0 0
17.5002 0 0
17.617 0 0
17.7338 0 0
17.8505 0 0
17.9672 0 0
18.0839 0 0
18.2005 0 0
18.3171 0 0
18.4337 0 0
18.5502 0 0
18.6666 0 0
18.7831 0 0
18.8994 0 0
19.0158 0 0
19.1321 0 0
19.2483 0 0
19.3645 0 0
19.4806 0 0
19.5967 0 0
19.7128 0 0
19.8288 0 0
19.9447 0 0
20.0606 0 1
20.1764 0 1
20.2922 0 1
20.4079 0 1
20.5236 0 1
20.6392 0 1
20.7548 0 1
20.8702 0 1
23.3078 0 1
23.4233 0 1
23.539 0 1
23.6547 0 1
23.7704 0 1
23.8862 0 1
24.0021 0 1
24.118 0 1
24.234 0 1
24.35 0 1
24.4661 44953 212.021
24.5822 45438 213.162
24.6984 45081 212.323
24.8146 45028 212.198
24.9309 44571 211.118
25.0472 43889 209.497
25.1636 43641 208.904
25.28 44257 210.373
25.3965 45303 212.845
25.513 45842 214.107
25.6296 47737 218.488
25.7462 49709 222.955
25.8628 50691 225.147
25.9795 51595 227.145
26.0962 51637 227.238
26.213 51995 228.024
26.3298 51178 226.226
26.4466 50089 223.806
26.5635 47593 218.158
26.6804 45491 213.286
26.7973 44106 210.014
26.9143 44632 211.263
27.0313 46049 214.59
27.1483 47901 218.863
27.2653 49515 222.52
27.3824 49754 223.056
27.4996 50388 224.473
27.6167 49588 222.684
27.7339 49214 221.842
27.8511 48165 219.465
27.9683 47288 217.458
28.0855 46561 215.78
28.2028 45911 214.269
28.3201 45647 213.652
28.4374 44682 211.381
28.5547 43500 208.567
28.6721 42877 207.068
28.7894 43120 207.654
28.9068 43440 208.423
29.0242 44245 210.345
29.1416 45903 214.25
29.259 46901 216.566
29.3764 48106 219.331
29.4939 49035 221.438
29.6113 49054 221.481
29.7288 49743 223.031
29.8463 49594 222.697
29.9638 48328 219.836
30.0812 45444 213.176
30.1987 42984 207.326
30.3162 41072 202.662
30.4337 42158 205.324
30.5512 44189 210.212
30.6687 45722 213.827
30.7862 46508 215.657
30.9037 48423 220.052
31.0212 49298 222.032
31.1387 48960 221.269
31.2562 48232 219.618
31.3737 48341 219.866
31.4912 47498 217.94
31.6087 46323 215.228
31.7262 46028 214.541
31.8436 45430 213.143
31.9611 44778 211.608
32.0785 43621 208.856
32.1959 42733 206.72
32.3134 42679 206.589
32.4308 43022 207.417
32.5482 43691 209.024
32.6655 45332 212.913
32.7829 46365 215.325
32.9002 48055 219.215
33.0176 48349 219.884
33.1349 48280 219.727
33.2522 48327 219.834
33.3694 49371 222.196
33.4867 48944 221.233
33.6039 47968 219.016
33.7211 45328 212.904
33.8383 42667 206.56
33.9554 41083 202.689
34.0725 40777 201.933
34.1896 42736 206.727
34.3067 44851 211.781
34.4237 45801 214.012
34.5407 47200 217.256
34.6577 48254 219.668
34.7746 47930 218.929
34.8915 48024 219.144
35.0084 47404 217.725
35.1252 47573 218.112
35.242 46375 215.349
35.3587 45213 212.633
35.4755 45090 212.344
35.5921 44222 210.29
35.7088 43385 208.291
35.8254 42246 205.538
35.9419 41292 203.204
36.0584 41531 203.792
36.1749 42380 205.864
36.2913 43146 207.716
36.4077 43729 209.115
36.524 45222 212.655
36.6403 46188 214.914
36.7565 47403 217.722
36.8727 47872 218.797
36.9889 47544 218.046
37.1049 46877 216.511
37.221 0 1
37.3369 0 1
37.4529 0 1
37.5687 0 1
37.6845 0 1
37.8003 0 1
37.916 0 1
38.0316 0 1
38.1472 0 1
40.5851 0 1
40.7008 0 1
40.8164 0 1
40.9322 0 1
41.048 0 1
41.1639 0 1
41.2798 0 1
41.3958 0 1
41.5118 0 1
41.6279 0 1
41.744 36709 191.596
41.8602 38656 196.611
41.9765 39547 198.864
42.0928 40343 200.856
42.2091 40245 200.612
42.3255 40494 201.231
42.4419 38435 196.048
42.5584 35525 188.481
42.675 33236 182.307
42.7915 32607 180.574
42.9081 34155 184.811
43.0248 36133 190.087
43.1415 36879 192.039
43.2582 37914 194.715
43.375 38249 195.574
43.4918 39147 197.856
43.6087 38228 195.52
43.7256 37925 194.743
43.8425 36872 192.021
43.9595 36747 191.695
44.0765 35643 188.794
44.1935 34785 186.507
44.3106 33783 183.802
44.4277 32698 180.826
44.5448 31567 177.671
44.6619 29842 172.748
44.7791 29491 171.729
44.8963 29888 172.881
45.0136 29834 172.725
45.1308 30329 174.152
45.2481 31102 176.358
45.3654 31685 178.003
45.4827 32447 180.131
45.6001 31206 176.652
45.7174 31451 177.344
45.8348 31297 176.91
45.9522 29857 172.792
46.0697 28101 167.634
46.1871 25540 159.812
46.3046 24256 155.743
46.422 24389 156.17
46.5395 26131 161.651
46.657 26881 163.954
46.7745 27885 166.988
46.892 27966 167.23
47.0096 28046 167.469
47.1271 28352 168.381
47.2446 27884 166.985
47.3622 27073 164.539
47.4797 26504 162.8
47.5973 26162 161.747
47.7149 25464 159.574
47.8324 24633 156.949
47.95 23779 154.204
48.0675 23220 152.381
48.1851 21682 147.248
48.3027 21194 145.582
48.4202 21430 146.39
48.5378 21970 148.223
48.6554 21998 148.317
48.7729 23036 151.776
48.8904 23945 154.742
49.008 23798 154.266
49.1255 23895 154.58
49.243 24057 155.103
49.3605 24011 154.955
49.478 22375 149.583
49.5955 21247 145.764
49.713 20059 141.63
49.8304 19522 139.721
49.9479 20525 143.265
50.0653 22100 148.661
50.1827 23717 154.003
50.3001 24918 157.854
50.4175 25880 160.873
50.5348 26991 164.289
50.6521 27619 166.19
50.7694 28299 168.223
50.8867 28698 169.405
51.004 28800 169.706
51.1212 29088 170.552
51.2384 29337 171.28
51.3556 29622 172.11
51.4727 28999 170.291
51.5899 28615 169.16
51.707 28349 168.372
51.824 28237 168.039
51.9411 29251 171.029
52.0581 31133 176.445
52.175 32908 181.406
52.2919 34534 185.833
52.4088 35598 188.674
52.5257 36619 191.361
52.6425 37232 192.956
52.7593 37770 194.345
52.876 37880 194.628
52.9927 37283 193.088
53.1094 35662 188.844
53.226 33437 182.858
53.3426 31504 177.494
53.4591 31366 177.104
53.5756 33134 182.027
53.692 36677 191.512
53.8084 38291 195.681
53.9248 40261 200.651
54.0411 41546 203.828
54.1573 42946 207.234
54.2735 0 1
54.3896 0 1
54.5057 0 1
54.6217 0 1
54.7377 0 1
54.8537 0 1
54.9695 0 1
55.0853 0 1
55.2011 0 1
55.3168 0 1
55.4324 0 1
57.824 0 1
57.9396 0 1
58.0553 0 1
58.1711 0 1
58.2869 0 1
58.4028 0 1
58.5187 0 1
58.6347 0 1
58.7508 0 1
58.8669 0 1
58.983 44733 211.502
59.0992 48016 219.126
59.2155 49131 221.655
59.3318 50684 225.131
59.4482 50884 225.575
59.5646 50974 225.774
59.681 51002 225.836
59.7975 50312 224.303
59.9141 48763 220.823
60.0306 47597 218.167
60.1473 46165 214.86
60.2639 44242 210.338
60.3807 42293 205.653
60.4974 41326 203.288
60.6142 41999 204.937
60.731 43227 207.911
60.8479 43710 209.069
60.9648 44981 212.087
61.0818 46412 215.434
61.1987 46378 215.356
61.3158 46261 215.084
61.4328 45355 212.967
61.5499 44196 210.228
61.667 41189 202.951
61.7841 38353 195.839
61.9013 36666 191.484
62.0185 35949 189.602
62.1357 37600 193.907
62.253 39650 199.123
62.3702 42007 204.956
62.4875 43488 208.538
62.6049 44730 211.495
62.7222 45963 214.39
62.8396 45965 214.394
62.9569 46627 215.933
63.0743 46515 215.673
63.1918 46083 214.67
63.3092 45151 212.488
63.4267 43788 209.256
63.5441 42727 206.705
63.6616 41360 203.372
63.7791 39403 198.502
63.8966 37953 194.815
64.0142 37249 193
64.1317 37671 194.09
64.2492 38429 196.033
64.3668 40043 200.107
64.4843 41229 203.049
64.6019 41788 204.421
64.7195 42393 205.896
64.837 42005 204.951
64.9546 41586 203.926
65.0722 40467 201.164
65.1898 38322 195.76
65.3074 36285 190.486
65.4249 32980 181.604
65.5425 32199 179.441
65.6601 33047 181.788
65.7777 35294 187.867
65.8952 37480 193.598
66.0128 39681 199.201
66.1304 40986 202.45
66.2479 41836 204.539
66.3655 42726 206.703
66.483 43847 209.397
66.6005 44335 210.559
66.718 43315 208.123
66.8355 43784 209.246
66.953 42844 206.988
67.0705 41646 204.074
67.1879 40280 200.699
67.3054 38578 196.413
67.4228 37093 192.595
67.5402 35059 187.24
67.6576 34701 186.282
67.7749 36056 189.884
67.8923 37560 193.804
68.0096 39204 198
68.1269 40739 201.839
68.2442 41550 203.838
68.3614 42496 206.146
68.4787 42558 206.296
68.5958 42351 205.794
68.713 41291 203.202
68.8302 38625 196.532
68.9473 35964 189.642
69.0643 33944 184.239
69.1814 33111 181.964
69.2984 34535 185.836
69.4154 37033 192.44
69.5323 40040 200.1
69.6492 41942 204.797
69.7661 43329 208.156
69.8829 46183 214.902
69.9997 47263 217.401
70.1165 47585 218.14
70.2332 48232 219.618
70.3499 47979 219.041
70.4665 47787 218.602
70.5831 47404 217.725
70.6996 46169 214.87
70.8161 44434 210.794
70.9326 42801 206.884
71.049 40371 200.925
71.1653 38311 195.732
71.2817 37359 193.285
71.3979 37123 192.673
71.5141 38381 195.911
71.6303 39525 198.809
71.7464 37463 193.554
71.8624 0 1
71.9784 0 1
72.0944 0 1
72.2102 0 1
72.3261 0 1
72.4418 0 1
72.5575 0 1
72.6732 0 1
75.1054 0 1
75.2209 0 1
75.3365 0 1
75.4521 0 1
75.5678 0 1
75.6835 0 1
75.7993 0 1
75.9151 0 1
76.031 0 1
76.147 41433 203.551
76.263 44209 210.259
76.3791 42914 207.157
76.4952 40107 200.267
76.6113 39003 197.492
76.7276 38820 197.028
76.8438 40794 201.975
76.9601 42988 207.335
77.0765 44671 211.355
77.1929 46104 214.718
77.3093 46784 216.296
77.4258 47712 218.431
77.5423 46854 216.458
77.6589 46056 214.607
77.7755 42568 206.32
77.8921 38805 196.99
78.0088 36213 190.297
78.1256 33946 184.244
78.2423 32260 179.611
78.3591 33513 183.066
78.4759 37114 192.65
78.5928 40355 200.886
78.7097 42279 205.619
78.8266 43582 208.763
78.9436 45786 213.977
79.0606 45910 214.266
79.1776 46436 215.49
79.2946 46794 216.319
79.4117 46985 216.76
79.5288 46443 215.506
79.6459 45595 213.53
79.7631 43722 209.098
79.8802 41633 204.042
79.9974 39659 199.146
80.1147 37274 193.065
80.2319 34952 186.955
80.3491 35352 188.021
80.4664 36594 191.296
80.5837 38066 195.105
80.701 40411 201.025
80.8183 41009 202.507
80.9357 41497 203.708
81.053 42214 205.46
81.1704 41205 202.99
81.2877 41332 203.303
81.4051 38862 197.134
81.5225 35906 189.489
81.6399 32217 179.491
81.7573 30754 175.368
81.8747 28883 169.95
81.9922 29759 172.508
82.1096 33023 181.722
82.227 35476 188.351
82.3444 37474 193.582
82.4619 38932 197.312
82.5793 40253 200.632
82.6967 40315 200.786
82.8142 40568 201.415
82.9316 40766 201.906
83.049 40701 201.745
83.1664 39758 199.394
83.2838 38660 196.621
83.4012 37360 193.287
83.5186 35688 188.913
83.636 34206 184.949
83.7534 31905 178.62
83.8708 30405 174.37
83.9881 30664 175.111
84.1055 31478 177.42
84.2228 33540 183.139
84.3401 35552 188.552
84.4575 36724 191.635
84.5747 37818 194.469
84.692 38174 195.382
84.8093 38149 195.318
84.9265 36343 190.638
85.0437 33228 182.285
85.1609 30901 175.787
85.2781 28457 168.692
85.3952 27960 167.212
85.5123 28180 167.869
85.6294 31032 176.159
85.7465 34680 186.226
85.8636 37385 193.352
85.9806 39250 198.116
86.0976 41469 203.639
86.2145 42724 206.698
86.3315 43875 209.464
86.4484 45808 214.028
86.5652 45888 214.215
86.682 45281 212.793
86.7988 45369 213
86.9156 44761 211.568
87.0323 43086 207.572
87.149 41357 203.364
87.2657 40150 200.375
87.3823 37804 194.433
87.4988 37453 193.528
87.6154 39256 198.131
87.7318 42362 205.82
87.8483 44942 211.995
87.9647 46635 215.951
88.081 48357 219.902
88.1973 48860 221.043
88.3136 49445 222.362
88.4298 48429 220.066
88.546 44794 211.646
88.6621 40814 202.025
88.7781 38255 195.589
88.8942 0 1
89.0101 0 1
89.126 0 1
89.2419 0 1
89.3577 0 1
89.4734 0 1
89.5891 0 1
89.7047 0 1
89.8203 0 1
89.9358 0 1
92.3269 0 1
92.4424 0 1
92.558 0 1
92.6736 0 1
92.7893 0 1
92.905 0 1
93.0208 0 1
93.1366 0 1
93.2525 0 1
93.3685 0 1
93.4845 0 1
93.6005 51384 226.68
93.7167 51932 227.886
93.8328 50695 225.156
93.949 49117 221.624
94.0653 45447 213.183
94.1816 42149 205.302
94.2979 39553 198.879
94.4143 38082 195.146
94.5307 38500 196.214
94.6472 40311 200.776
94.7637 43574 208.744
94.8803 46382 215.365
94.9969 49000 221.359
95.1135 50652 225.06
95.2302 52367 228.838
95.3469 53155 230.554
95.4637 54309 233.043
95.5805 54479 233.407
95.6973 55189 234.923
95.8142 55486 235.555
95.9311 54748 233.983
96.048 53545 231.398
96.1649 51258 226.402
96.2819 49793 223.143
96.3989 46968 216.721
96.516 45371 213.005
96.633 43722 209.098
96.7501 44874 211.835
96.8673 46176 214.886
96.9844 49046 221.463
97.1016 51104 226.062
97.2188 52520 229.172
97.336 52575 229.292
97.4532 52482 229.09
97.5704 50814 225.42
97.6877 47350 217.601
97.805 43023 207.42
97.9223 40207 200.517
98.0396 38218 195.494
98.1569 37338 193.23
98.2743 38163 195.354
98.3916 40970 202.41
98.509 44807 211.677
98.6264 47245 217.359
98.7438 49304 222.045
98.8612 50654 225.064
98.9786 52244 228.569
99.096 53253 230.766
99.2134 53648 231.62
99.3308 54749 233.985
99.4482 54264 232.946
99.5656 53186 230.621
99.6831 52074 228.197
99.8005 49569 222.641
99.9179 48537 220.311
100.035 45884 214.206
100.153 43698 209.041
100.27 42988 207.335
100.388 45709 213.797
100.505 47610 218.197
100.622 50060 223.741
100.74 50884 225.575
100.857 51125 226.108
100.975 51578 227.108
101.092 50857 225.515
101.209 49224 221.865
101.327 44896 211.887
101.444 42031 205.015
101.561 39486 198.711
101.679 38044 195.049
101.796 38123 195.251
101.913 40557 201.388
102.03 43745 209.153
102.148 47401 217.718
102.265 53487 231.273
102.382 48610 220.477
102.499 53699 231.73
102.616 54696 233.872
102.733 56131 236.92
102.851 57188 239.14
102.968 56618 237.945
103.085 56029 236.704
103.202 55162 234.866
103.319 54038 232.461
103.436 51911 227.84
103.552 49292 222.018
103.669 46832 216.407
103.786 46283 215.135
103.903 49172 221.748
104.02 52268 228.622
104.137 54809 234.113
104.253 56858 238.449
104.37 54885 234.275
104.487 57182 239.128
104.603 57210 239.186
104.72 54197 232.802
104.836 50415 224.533
104.953 46755 216.229
105.069 44291 210.454
105.186 43198 207.841
105.302 44098 209.995
105.418 47507 217.961
105.535 51865 227.739
105.651 55520 235.627
105.767 59156 243.22
105.883 61196 247.378
105.999 62960 250.918
106.115 0 1
106.231 0 1
106.347 0 1
106.463 0 1
106.579 0 1
106.694 0 1
106.81 0 1
106.926 0 1
107.041 0 1
107.157 0 1
109.576 0 1
109.692 0 1
109.807 0 1
109.923 0 1
110.039 0 1
110.155 0 1
110.27 0 1
110.386 0 1
110.502 0 1
110.618 62475 249.95
110.735 68133 261.023
110.851 71784 267.925
110.967 74637 273.198
111.083 76053 275.777
111.199 77452 278.302
111.316 78889 280.872
111.432 80003 282.848
111.549 79813 282.512
111.665 78914 280.916
111.782 76756 277.049
111.898 75040 273.934
112.015 71391 267.191
112.132 66548 257.969
112.248 64388 253.748
112.365 65923 256.755
112.482 69904 264.394
112.599 72972 270.133
112.716 76179 276.005
112.832 76455 276.505
112.949 76831 277.184
113.066 76588 276.745
113.183 74666 273.251
113.3 70187 264.928
113.417 64932 254.818
113.534 60450 245.866
113.652 57736 240.283
113.769 55304 235.168
113.886 56818 238.365
114.003 59371 243.662
114.12 64860 254.676
114.238 68715 262.135
114.355 71930 268.198
114.472 78235 279.705
114.589 71472 267.342
114.707 76515 276.613
114.824 78255 279.741
114.942 78983 281.039
115.059 80156 283.118
115.176 79781 282.455
115.294 78404 280.007
115.411 76265 276.161
115.529 73362 270.854
115.646 69439 263.513
115.764 66860 258.573
115.881 66158 257.212
115.999 69698 264.004
116.116 73952 271.941
116.234 78013 279.308
116.351 77837 278.993
116.469 78327 279.87
116.586 79141 281.32
116.704 77947 279.19
116.821 74479 272.908
116.939 68594 261.905
117.056 64220 253.417
117.174 61459 247.909
117.291 58644 242.165
117.409 56917 238.573
117.526 59707 244.35
117.644 64410 253.791
117.761 68885 262.46
117.879 72420 269.11
117.996 74265 272.516
118.114 77207 277.861
118.231 77480 278.352
118.349 77879 279.068
118.466 79079 281.21
118.584 80060 282.949
118.701 79732 282.369
118.819 78886 280.867
118.936 76956 277.409
119.053 74739 273.384
119.171 71641 267.658
119.288 67449 259.709
119.405 64488 253.945
119.523 65041 255.031
119.64 68166 261.086
119.757 71431 267.266
119.875 73042 270.263
119.992 73332 270.799
120.109 73360 270.851
120.226 73576 271.249
120.343 72190 268.682
120.46 69635 263.884
120.578 64421 253.813
120.695 60300 245.561
120.812 56726 238.172
120.929 54418 233.277
121.046 52291 228.672
121.163 53726 231.789
121.279 56140 236.939
121.396 59915 244.775
121.513 63223 251.442
121.63 64334 253.641
121.747 66318 257.523
121.863 66983 258.811
121.98 67399 259.613
122.097 67949 260.67
122.213 67783 260.352
122.33 67805 260.394
122.446 66309 257.505
122.563 64425 253.821
122.679 62974 250.946
122.795 61519 248.03
122.912 58043 240.921
123.028 54718 233.919
123.144 52585 229.314
123.26 53089 230.411
123.377 0 1
123.493 0 1
123.609 0 1
123.725 0 1
123.84 0 1
123.956 0 1
124.072 0 1
124.188 0 1
124.303 0 1
124.419 0 1
126.852 0 1
126.968 0 1
127.083 0 1
127.199 0 1
127.315 0 1
127.431 0 1
127.547 0 1
127.663 0 1
127.779 0 1
127.895 0 1
128.011 0 1
128.127 0 1
128.243 0 1
128.359 54646 233.765
128.476 54959 234.433
128.592 57646 240.096
128.708 60959 246.899
128.825 62926 250.851
128.941 63331 251.657
129.058 63800 252.587
129.174 63962 252.907
129.291 63402 251.798
129.408 61340 247.669
129.524 57408 239.6
129.641 54610 233.688
129.758 52272 228.631
129.875 50694 225.153
129.992 49728 222.998
130.108 50842 225.482
130.225 54219 232.85
130.342 57785 240.385
130.459 59650 244.233
130.576 63358 251.71
130.693 63858 252.701
130.81 65410 255.754
130.928 66264 257.418
131.045 67362 259.542
131.162 68146 261.048
131.279 68405 261.543
131.396 68743 262.189
131.513 67924 260.622
131.631 65974 256.854
131.748 64663 254.289
131.865 61380 247.75
131.983 60377 245.717
132.1 62394 249.788
132.217 66448 257.775
132.335 69100 262.869
132.452 69290 263.23
132.57 70134 264.828
132.687 67428 259.669
132.804 72182 268.667
132.922 67329 259.478
133.039 64180 253.338
133.157 60934 246.848
133.274 57789 240.393
133.392 56154 236.968
133.509 54566 233.594
133.627 55425 235.425
133.744 58056 240.948
133.862 60955 246.891
133.979 63773 252.533
134.097 65702 256.324
134.214 68558 261.836
134.332 67771 260.329
134.449 69786 264.17
134.567 70550 265.612
134.684 71885 268.114
134.802 71874 268.093
134.919 72128 268.567
135.037 71117 266.678
135.154 69931 264.445
135.272 67141 259.116
135.389 65124 255.194
135.507 62208 249.415
135.624 63445 251.883
135.742 66534 257.942
135.859 70455 265.434
135.977 71388 267.185
136.094 71413 267.232
136.211 71398 267.204
136.329 71441 267.284
136.446 70461 265.445
136.564 67739 260.267
136.681 64046 253.073
136.798 61682 248.359
136.915 59009 242.918
137.033 56923 238.585
137.15 55205 234.957
137.267 55986 236.614
137.384 58538 241.946
137.502 61193 247.372
137.619 63039 251.076
137.736 65133 255.212
137.853 65183 255.31
137.97 67891 260.559
138.087 67017 258.876
138.204 69569 263.759
138.321 70350 265.236
138.438 70886 266.244
138.555 72085 268.486
138.672 71084 266.616
138.788 69938 264.458
138.905 68140 261.036
139.022 65250 255.441
139.139 63467 251.927
139.255 64076 253.132
139.372 67265 259.355
139.488 69826 264.246
139.605 71614 267.608
139.721 71901 268.144
139.838 71832 268.015
139.954 71880 268.104
140.071 69720 264.045
140.187 68434 261.599
140.303 64025 253.032
140.419 61454 247.899
140.535 59030 242.961
140.652 56295 237.266
140.768 0 1
140.884 0 1
141 0 1
141.115 0 1
141.231 0 1
141.347 0 1
141.463 0 1
141.578 0 1
141.694 0 1
144.104 0 1
144.219 0 1
144.335 0 1
144.45 0 1
144.566 0 1
144.682 0 1
144.798 0 1
144.914 0 1
145.03 0 1
145.146 58628 242.132
145.262 57545 239.885
145.378 54978 234.474
145.494 53456 231.206
145.61 51273 226.435
145.726 49959 223.515
145.842 49465 222.407
145.959 49702 222.939
146.075 51642 227.249
146.192 53722 231.78
146.308 55268 235.091
146.425 55977 236.595
146.541 57383 239.547
146.658 58142 241.127
146.774 59217 243.345
146.891 60246 245.451
147.008 60543 246.055
147.125 61662 248.318
147.241 61752 248.499
147.358 60733 246.441
147.475 59289 243.493
147.592 57127 239.013
147.709 54721 233.925
147.826 54107 232.609
147.943 55695 235.998
148.06 57595 239.99
148.177 60313 245.587
148.294 60869 246.716
148.411 60853 246.684
148.528 61229 247.445
148.645 60278 245.516
148.762 59686 244.307
148.88 57336 239.449
148.997 53369 231.017
149.114 53998 232.375
149.231 51199 226.272
149.349 50171 223.989
149.466 47742 218.499
149.583 48550 220.341
149.701 49078 221.536
149.818 51489 226.912
149.935 52652 229.46
150.053 53977 232.33
150.17 54933 234.378
150.287 55583 235.76
150.405 57121 239
150.522 57498 239.787
150.64 57952 240.732
150.757 59494 243.914
150.875 58838 242.565
150.992 58266 241.384
151.11 57021 238.791
151.227 55450 235.478
151.344 52781 229.741
151.462 51165 226.197
151.579 53605 231.528
151.697 55448 235.474
151.814 58307 241.468
151.932 58712 242.306
152.049 59483 243.891
152.167 58603 242.081
152.284 59365 243.649
152.402 57677 240.16
152.519 55075 234.681
152.636 52923 230.05
152.754 51687 227.348
152.871 50037 223.69
152.989 48697 220.674
153.106 47126 217.085
153.223 48289 219.748
153.341 49734 223.011
153.458 51254 226.393
153.575 52405 228.921
153.693 53163 230.571
153.81 54690 233.859
153.927 55566 235.724
154.044 57184 239.132
154.162 57832 240.483
154.279 59348 243.614
154.396 60269 245.497
154.513 60364 245.691
154.63 59819 244.579
154.747 59433 243.789
154.864 57760 240.333
154.981 55358 235.283
155.098 54146 232.693
155.215 55315 235.191
155.332 57838 240.495
155.449 59462 243.848
155.566 59603 244.137
155.683 59930 244.806
155.8 58643 242.163
155.917 58613 242.101
156.033 57868 240.558
156.15 0 1
156.267 0 1
156.383 0 1
156.5 0 1
156.617 0 1
156.733 0 1
156.85 0 1
156.966 0 1
157.082 0 1
157.199 0 1
157.315 0 1
157.431 0 1
157.547 0 1
157.664 0 1
157.78 0 1
157.896 0 1
158.012 0 1
158.128 0 1
158.244 0 1
158.359 0 1
158.475 0 1
158.591 0 1
158.706 0 1
