
6.15755 0 1
6.2731 0 1
6.3887 0 1
6.50437 0 1
6.62009 0 1
6.73587 0 1
6.8517 0 1
6.96759 0 1
7.08353 0 1
7.19952 0 1
7.31557 0 1
7.43166 0 1
7.54781 0 1
7.664 0 1
7.78024 0 1
7.89653 0 1
8.01286 0 1
8.12924 0 1
8.24567 0 1
8.36213 0 1
8.47864 0 1
8.59519 0 1
8.71178 0 1
8.82841 0 1
8.94508 0 1
9.06179 0 1
9.17853 0 1
9.29531 0 1
9.41212 0 1
9.52897 0 1
9.64584 0 1
9.76276 0 1
9.8797 0 1
9.99667 0 1
10.1137 0 1
10.2307 0 1
10.3478 0 1
10.4648 0 1
10.5819 0 1
10.6991 0 1
10.8162 0 1
10.9334 0 1
11.0506 0 1
11.1678 0 1
11.285 0 1
11.4023 0 1
11.5196 0 1
11.6369 0 1
11.7542 0 1
11.8715 0 1
11.9888 0 1
12.1062 0 1
12.2235 0 1
12.3409 0 1
12.4582 0 1
12.5756 0 1
12.693 0 1
12.8104 0 1
12.9278 0 1
13.0452 0 1
13.1626 0 1
13.28 0 1
13.3974 0 1
13.5149 0 1
13.6323 0 1
13.7497 0 1
13.8671 0 1
13.9845 0 1
14.1019 0 1
14.2193 0 1
14.3367 0 1
14.4541 0 1
14.5714 0 1
14.6888 0 1
14.8062 0 1
14.9235 0 1
15.0408 0 0
15.1581 0 0
15.2755 0 0
15.3927 0 0
15.51 0 0
15.6273 0 0
15.7445 0 0
15.8617 0 0
15.9789 0 0
16.0961 0 0
16.2132 0 0
16.3304 0 0
16.4475 0 0
16.5646 0 0
16.6816 0 0
16.7986 0 0
16.9156 0 0
17.0326 0 0
17.1496 0 0
17.2665 0 0
17.3833 0 0
17.5002 0 0
17.617 0 0
17.7338 0 0
17.8505 0 0
17.9672 0 0
18.0839 0 0
18.2005 0 0
18.3171 0 0
18.4337 0 0
18.5502 0 0
18.6666 0 0
18.7831 0 0
18.8994 0 0
19.0158 0 0
19.1321 0 0
19.2483 0 0
19.3645 0 0
19.4806 0 0
19.5967 0 0
19.7128 0 0
19.8288 0 0
19.9447 0 0
20.0606 0 1
20.1764 0 1
20.2922 0 1
20.4079 0 1
20.5236 0 1
20.6392 0 1
20.7548 0 1
20.8702 0 1
23.3078 0 1
23.4233 0 1
23.539 0 1
23.6547 0 1
23.7704 0 1
23.8862 0 1
24.0021 0 1
24.118 0 1
24.234 0 1
24.35 0 1
24.4661 1718 41.4488
24.5822 1659 40.7308
24.6984 1678 40.9634
24.8146 1697 41.1947
24.9309 1757 41.9166
25.0472 1713 41.3884
25.1636 1736 41.6653
25.28 1893 43.5086
25.3965 1794 42.3556
25.513 1839 42.8836
25.6296 1873 43.2782
25.7462 1838 42.8719
25.8628 1753 41.8688
25.9795 1846 42.9651
26.0962 1832 42.8019
26.213 1883 43.3935
26.3298 1824 42.7083
26.4466 1805 42.4853
26.5635 1860 43.1277
26.6804 1815 42.6028
26.7973 1667 40.8289
26.9143 1627 40.3361
27.0313 1555 39.4335
27.1483 1641 40.5093
27.2653 1601 40.0125
27.3824 1695 41.1704
27.4996 1655 40.6817
27.6167 1652 40.6448
27.7339 1604 40.05
27.8511 1488 38.5746
27.9683 1555 39.4335
28.0855 1594 39.9249
28.2028 1591 39.8873
28.3201 1559 39.4842
28.4374 1588 39.8497
28.5547 1681 41
28.6721 1712 41.3763
28.7894 1739 41.7013
28.9068 1763 41.9881
29.0242 1722 41.497
29.1416 1745 41.7732
29.259 1736 41.6653
29.3764 1752 41.8569
29.4939 1695 41.1704
29.6113 1712 41.3763
29.7288 1713 41.3884
29.8463 1676 40.939
29.9638 1733 41.6293
30.0812 1784 42.2374
30.1987 1652 40.6448
30.3162 1593 39.9124
30.4337 1532 39.1408
30.5512 1474 38.3927
30.6687 1448 38.0526
30.7862 1517 38.9487
30.9037 1478 38.4448
31.0212 1555 39.4335
31.1387 1594 39.9249
31.2562 1552 39.3954
31.3737 1550 39.37
31.4912 1502 38.7556
31.6087 1484 38.5227
31.7262 1660 40.7431
31.8436 1453 38.1182
31.9611 1536 39.1918
32.0785 1609 40.1123
32.1959 1688 41.0853
32.3134 1625 40.3113
32.4308 1714 41.4005
32.5482 1735 41.6533
32.6655 1668 40.8412
32.7829 1700 41.2311
32.9002 1775 42.1307
33.0176 1675 40.9268
33.1349 1779 42.1782
33.2522 1720 41.4729
33.3694 1668 40.8412
33.4867 1624 40.2989
33.6039 1717 41.4367
33.7211 1724 41.5211
33.8383 1684 41.0366
33.9554 1656 40.694
34.0725 1477 38.4318
34.1896 1522 39.0128
34.3067 1431 37.8286
34.4237 1360 36.8782
34.5407 1389 37.2693
34.6577 1438 37.921
34.7746 1505 38.7943
34.8915 1485 38.5357
35.0084 1436 37.8946
35.1252 1435 37.8814
35.242 1431 37.8286
35.3587 1444 38
35.4755 1467 38.3014
35.5921 1494 38.6523
35.7088 1617 40.2119
35.8254 1611 40.1373
35.9419 1555 39.4335
36.0584 1680 40.9878
36.1749 1652 40.6448
36.2913 1619 40.2368
36.4077 1667 40.8289
36.524 1564 39.5474
36.6403 1644 40.5463
36.7565 1653 40.6571
36.8727 1569 39.6106
36.9889 1514 38.9102
37.1049 1626 40.3237
37.221 0 1
37.3369 0 1
37.4529 0 1
37.5687 0 1
37.6845 0 1
37.8003 0 1
37.916 0 1
38.0316 0 1
38.1472 0 1
40.5851 0 1
40.7008 0 1
40.8164 0 1
40.9322 0 1
41.048 0 1
41.1639 0 1
41.2798 0 1
41.3958 0 1
41.5118 0 1
41.6279 0 1
41.744 1296 36
41.8602 1411 37.5633
41.9765 1325 36.4005
42.0928 1336 36.5513
42.2091 1330 36.4692
42.3255 1416 37.6298
42.4419 1318 36.3043
42.5584 1296 36
42.675 1332 36.4966
42.7915 1349 36.7287
42.9081 1279 35.7631
43.0248 1219 34.9142
43.1415 1163 34.1028
43.2582 1131 33.6303
43.375 1220 34.9285
43.4918 1254 35.4119
43.6087 1190 34.4964
43.7256 1184 34.4093
43.8425 1164 34.1174
43.9595 1120 33.4664
44.0765 1167 34.1614
44.1935 1167 34.1614
44.3106 1181 34.3657
44.4277 1274 35.6931
44.5448 1253 35.3977
44.6619 1306 36.1386
44.7791 1270 35.6371
44.8963 1274 35.6931
45.0136 1243 35.2562
45.1308 1197 34.5977
45.2481 1223 34.9714
45.3654 1248 35.327
45.4827 1181 34.3657
45.6001 1173 34.2491
45.7174 1172 34.2345
45.8348 1138 33.7343
45.9522 1113 33.3617
46.0697 1240 35.2136
46.1871 1096 33.1059
46.3046 1111 33.3317
46.422 1142 33.7935
46.5395 998 31.5911
46.657 903 30.05
46.7745 926 30.4302
46.892 937 30.6105
47.0096 923 30.3809
47.1271 1017 31.8904
47.2446 933 30.545
47.3622 955 30.9031
47.4797 899 29.9833
47.5973 901 30.0167
47.7149 859 29.3087
47.8324 904 30.0666
47.95 914 30.2324
48.0675 921 30.348
48.1851 932 30.5287
48.3027 937 30.6105
48.4202 928 30.4631
48.5378 933 30.545
48.6554 995 31.5436
48.7729 886 29.7658
48.8904 933 30.545
49.008 919 30.315
49.1255 924 30.3974
49.243 890 29.8329
49.3605 923 30.3809
49.478 948 30.7896
49.5955 974 31.209
49.713 936 30.5941
49.8304 1024 32
49.9479 997 31.5753
50.0653 906 30.0998
50.1827 851 29.1719
50.3001 824 28.7054
50.4175 818 28.6007
50.5348 900 30
50.6521 972 31.1769
50.7694 1031 32.1092
50.8867 924 30.3974
51.004 951 30.8383
51.1212 994 31.5278
51.2384 1072 32.7414
51.3556 1037 32.2025
51.4727 1118 33.4365
51.5899 1056 32.4962
51.707 1127 33.5708
51.824 1191 34.5109
51.9411 1159 34.0441
52.0581 1163 34.1028
52.175 1164 34.1174
52.2919 1172 34.2345
52.4088 1198 34.6121
52.5257 1232 35.0999
52.6425 1193 34.5398
52.7593 1286 35.8608
52.876 1202 34.6699
52.9927 1287 35.8748
53.1094 1210 34.7851
53.226 1239 35.1994
53.3426 1263 35.5387
53.4591 1272 35.6651
53.5756 1256 35.4401
53.692 1268 35.609
53.8084 1192 34.5254
53.9248 1108 33.2866
54.0411 1049 32.3883
54.1573 1124 33.5261
54.2735 0 1
54.3896 0 1
54.5057 0 1
54.6217 0 1
54.7377 0 1
54.8537 0 1
54.9695 0 1
55.0853 0 1
55.2011 0 1
55.3168 0 1
55.4324 0 1
57.824 0 1
57.9396 0 1
58.0553 0 1
58.1711 0 1
58.2869 0 1
58.4028 0 1
58.5187 0 1
58.6347 0 1
58.7508 0 1
58.8669 0 1
58.983 1343 36.647
59.0992 1249 35.3412
59.2155 1204 34.6987
59.3318 1235 35.1426
59.4482 1219 34.9142
59.5646 1290 35.9166
59.681 1348 36.7151
59.7975 1289 35.9026
59.9141 1335 36.5377
60.0306 1320 36.3318
60.1473 1378 37.1214
60.2639 1382 37.1753
60.3807 1434 37.8682
60.4974 1384 37.2022
60.6142 1369 37
60.731 1337 36.565
60.8479 1338 36.5787
60.9648 1372 37.0405
61.0818 1371 37.027
61.1987 1289 35.9026
61.3158 1316 36.2767
61.4328 1355 36.8103
61.5499 1335 36.5377
61.667 1302 36.0832
61.7841 1211 34.7994
61.9013 1302 36.0832
62.0185 1265 35.5668
62.1357 1314 36.2491
62.253 1217 34.8855
62.3702 1223 34.9714
62.4875 1247 35.3129
62.6049 1127 33.5708
62.7222 1089 33
62.8396 1137 33.7194
62.9569 1181 34.3657
63.0743 1141 33.7787
63.1918 1130 33.6155
63.3092 1136 33.7046
63.4267 1167 34.1614
63.5441 1185 34.4238
63.6616 1252 35.3836
63.7791 1229 35.0571
63.8966 1173 34.2491
64.0142 1156 34
64.1317 1173 34.2491
64.2492 1173 34.2491
64.3668 1133 33.6601
64.4843 1133 33.6601
64.6019 1175 34.2783
64.7195 1153 33.9559
64.837 1140 33.7639
64.9546 1086 32.9545
65.0722 1101 33.1813
65.1898 1078 32.8329
65.3074 1086 32.9545
65.4249 1065 32.6343
65.5425 1143 33.8083
65.6601 1068 32.6803
65.7777 1084 32.9242
65.8952 1103 33.2114
66.0128 1033 32.1403
66.1304 1003 31.6702
66.2479 913 30.2159
66.3655 893 29.8831
66.483 956 30.9192
66.6005 960 30.9839
66.718 995 31.5436
66.8355 959 30.9677
66.953 1048 32.3728
67.0705 1036 32.187
67.1879 1037 32.2025
67.3054 1040 32.249
67.4228 1046 32.3419
67.5402 1047 32.3574
67.6576 1056 32.4962
67.7749 982 31.3369
67.8923 1050 32.4037
68.0096 1065 32.6343
68.1269 1015 31.8591
68.2442 1038 32.218
68.3614 1009 31.7648
68.4787 976 31.241
68.5958 1043 32.2955
68.713 1002 31.6544
68.8302 1054 32.4654
68.9473 1024 32
69.0643 974 31.209
69.1814 934 30.5614
69.2984 981 31.3209
69.4154 1012 31.8119
69.5323 1003 31.6702
69.6492 981 31.3209
69.7661 987 31.4166
69.8829 946 30.7571
69.9997 829 28.7924
70.1165 872 29.5296
70.2332 933 30.545
70.3499 875 29.5804
70.4665 903 30.05
70.5831 963 31.0322
70.6996 945 30.7409
70.8161 961 31
70.9326 948 30.7896
71.049 876 29.5973
71.1653 916 30.2655
71.2817 920 30.3315
71.3979 937 30.6105
71.5141 863 29.3769
71.6303 824 28.7054
71.7464 802 28.3196
71.8624 0 1
71.9784 0 1
72.0944 0 1
72.2102 0 1
72.3261 0 1
72.4418 0 1
72.5575 0 1
72.6732 0 1
75.1054 0 1
75.2209 0 1
75.3365 0 1
75.4521 0 1
75.5678 0 1
75.6835 0 1
75.7993 0 1
75.9151 0 1
76.031 0 1
76.147 669 25.865
76.263 743 27.258
76.3791 731 27.037
76.4952 735 27.1109
76.6113 682 26.1151
76.7276 745 27.2947
76.8438 736 27.1293
76.9601 724 26.9072
77.0765 686 26.1916
77.1929 692 26.3059
77.3093 697 26.4008
77.4258 708 26.6083
77.5423 658 25.6515
77.6589 688 26.2298
77.7755 654 25.5734
77.8921 689 26.2488
78.0088 641 25.318
78.1256 648 25.4558
78.2423 640 25.2982
78.3591 635 25.1992
78.4759 598 24.454
78.5928 637 25.2389
78.7097 590 24.2899
78.8266 616 24.8193
78.9436 545 23.3452
79.0606 488 22.0907
79.1776 436 20.8806
79.2946 427 20.664
79.4117 487 22.0681
79.5288 526 22.9347
79.6459 598 24.454
79.7631 525 22.9129
79.8802 492 22.1811
79.9974 482 21.9545
80.1147 519 22.7816
80.2319 493 22.2036
80.3491 459 21.4243
80.4664 444 21.0713
80.5837 449 21.1896
80.701 455 21.3307
80.8183 417 20.4206
80.9357 412 20.2978
81.053 398 19.9499
81.1704 379 19.4679
81.2877 388 19.6977
81.4051 371 19.2614
81.5225 354 18.8149
81.6399 365 19.105
81.7573 346 18.6011
81.8747 331 18.1934
81.9922 347 18.6279
82.1096 330 18.1659
82.227 338 18.3848
82.3444 317 17.8045
82.4619 272 16.4924
82.5793 294 17.1464
82.6967 255 15.9687
82.8142 264 16.2481
82.9316 215 14.6629
83.049 210 14.4914
83.1664 248 15.748
83.2838 227 15.0665
83.4012 204 14.2829
83.5186 213 14.5945
83.636 158 12.5698
83.7534 190 13.784
83.8708 182 13.4907
83.9881 195 13.9642
84.1055 165 12.8452
84.2228 186 13.6382
84.3401 168 12.9615
84.4575 152 12.3288
84.5747 146 12.083
84.692 168 12.9615
84.8093 145 12.0416
84.9265 133 11.5326
85.0437 168 12.9615
85.1609 137 11.7047
85.2781 134 11.5758
85.3952 143 11.9583
85.5123 158 12.5698
85.6294 123 11.0905
85.7465 130 11.4018
85.8636 135 11.619
85.9806 130 11.4018
86.0976 114 10.6771
86.2145 112 10.583
86.3315 114 10.6771
86.4484 136 11.6619
86.5652 157 12.53
86.682 164 12.8062
86.7988 162 12.7279
86.9156 175 13.2288
87.0323 184 13.5647
87.149 188 13.7113
87.2657 200 14.1421
87.3823 192 13.8564
87.4988 211 14.5258
87.6154 200 14.1421
87.7318 220 14.8324
87.8483 219 14.7986
87.9647 250 15.8114
88.081 247 15.7162
88.1973 280 16.7332
88.3136 315 17.7482
88.4298 319 17.8606
88.546 312 17.6635
88.6621 303 17.4069
88.7781 298 17.2627
88.8942 0 1
89.0101 0 1
89.126 0 1
89.2419 0 1
89.3577 0 1
89.4734 0 1
89.5891 0 1
89.7047 0 1
89.8203 0 1
89.9358 0 1
92.3269 0 1
92.4424 0 1
92.558 0 1
92.6736 0 1
92.7893 0 1
92.905 0 1
93.0208 0 1
93.1366 0 1
93.2525 0 1
93.3685 0 1
93.4845 0 1
93.6005 521 22.8254
93.7167 533 23.0868
93.8328 496 22.2711
93.949 467 21.6102
94.0653 470 21.6795
94.1816 476 21.8174
94.2979 449 21.1896
94.4143 436 20.8806
94.5307 430 20.7364
94.6472 415 20.3715
94.7637 390 19.7484
94.8803 444 21.0713
94.9969 417 20.4206
95.1135 411 20.2731
95.2302 410 20.2485
95.3469 365 19.105
95.4637 289 17
95.5805 287 16.9411
95.6973 391 19.7737
95.8142 418 20.445
95.9311 418 20.445
96.048 430 20.7364
96.1649 471 21.7025
96.2819 516 22.7156
96.3989 492 22.1811
96.516 483 21.9773
96.633 524 22.891
96.7501 535 23.1301
96.8673 572 23.9165
96.9844 578 24.0416
97.1016 558 23.622
97.2188 575 23.9792
97.336 560 23.6643
97.4532 590 24.2899
97.5704 655 25.593
97.6877 641 25.318
97.805 621 24.9199
97.9223 716 26.7582
98.0396 664 25.7682
98.1569 728 26.9815
98.2743 756 27.4955
98.3916 699 26.4386
98.509 777 27.8747
98.6264 760 27.5681
98.7438 696 26.3818
98.8612 765 27.6586
98.9786 689 26.2488
99.096 533 23.0868
99.2134 522 22.8473
99.3308 730 27.0185
99.4482 819 28.6182
99.5656 878 29.6311
99.6831 848 29.1204
99.8005 900 30
99.9179 903 30.05
100.035 926 30.4302
100.153 943 30.7083
100.27 918 30.2985
100.388 887 29.7825
100.505 946 30.7571
100.622 1024 32
100.74 951 30.8383
100.857 1014 31.8434
100.975 952 30.8545
101.092 1021 31.9531
101.209 994 31.5278
101.327 953 30.8707
101.444 984 31.3688
101.561 1039 32.2335
101.679 1065 32.6343
101.796 1041 32.2645
101.913 1040 32.249
102.03 1019 31.9218
102.148 1083 32.909
102.265 1111 33.3317
102.382 969 31.1288
102.499 1012 31.8119
102.616 762 27.6043
102.733 702 26.4953
102.851 859 29.3087
102.968 1009 31.7648
103.085 1050 32.4037
103.202 1055 32.4808
103.319 1078 32.8329
103.436 1115 33.3916
103.552 1100 33.1662
103.669 1136 33.7046
103.786 1101 33.1813
103.903 1081 32.8786
104.02 1112 33.3467
104.137 1102 33.1964
104.253 1122 33.4963
104.37 1148 33.8821
104.487 1123 33.5112
104.603 1136 33.7046
104.72 1096 33.1059
104.836 1105 33.2415
104.953 1153 33.9559
105.069 1130 33.6155
105.186 1144 33.8231
105.302 1132 33.6452
105.418 1110 33.3167
105.535 1168 34.176
105.651 1145 33.8378
105.767 1108 33.2866
105.883 965 31.0644
105.999 916 30.2655
106.115 0 1
106.231 0 1
106.347 0 1
106.463 0 1
106.579 0 1
106.694 0 1
106.81 0 1
106.926 0 1
107.041 0 1
107.157 0 1
109.576 0 1
109.692 0 1
109.807 0 1
109.923 0 1
110.039 0 1
110.155 0 1
110.27 0 1
110.386 0 1
110.502 0 1
110.618 872 29.5296
110.735 876 29.5973
110.851 808 28.4253
110.967 866 29.4279
111.083 761 27.5862
111.199 727 26.9629
111.316 703 26.5141
111.432 723 26.8887
111.549 784 28
111.665 829 28.7924
111.782 823 28.688
111.898 831 28.8271
112.015 857 29.2746
112.132 883 29.7153
112.248 802 28.3196
112.365 772 27.7849
112.482 772 27.7849
112.599 701 26.4764
112.716 749 27.3679
112.832 739 27.1846
112.949 735 27.1109
113.066 741 27.2213
113.183 665 25.7876
113.3 757 27.5136
113.417 721 26.8514
113.534 656 25.6125
113.652 686 26.1916
113.769 690 26.2679
113.886 662 25.7294
114.003 672 25.923
114.12 686 26.1916
114.238 645 25.3969
114.355 578 24.0416
114.472 614 24.779
114.589 591 24.3105
114.707 583 24.1454
114.824 540 23.2379
114.942 575 23.9792
115.059 571 23.8956
115.176 604 24.5764
115.294 656 25.6125
115.411 616 24.8193
115.529 601 24.5153
115.646 671 25.9037
115.764 618 24.8596
115.881 582 24.1247
115.999 613 24.7588
116.116 592 24.3311
116.234 628 25.0599
116.351 584 24.1661
116.469 633 25.1595
116.586 623 24.96
116.704 642 25.3377
116.821 574 23.9583
116.939 605 24.5967
117.056 603 24.5561
117.174 629 25.0799
117.291 595 24.3926
117.409 606 24.6171
117.526 600 24.4949
117.644 602 24.5357
117.761 594 24.3721
117.879 589 24.2693
117.996 555 23.5584
118.114 475 21.7945
118.231 513 22.6495
118.349 593 24.3516
118.466 587 24.2281
118.584 595 24.3926
118.701 589 24.2693
118.819 647 25.4362
118.936 628 25.0599
119.053 578 24.0416
119.171 663 25.7488
119.288 624 24.98
119.405 638 25.2587
119.523 619 24.8797
119.64 603 24.5561
119.757 641 25.318
119.875 663 25.7488
119.992 668 25.8457
120.109 637 25.2389
120.226 602 24.5357
120.343 624 24.98
120.46 576 24
120.578 645 25.3969
120.695 635 25.1992
120.812 661 25.7099
120.929 685 26.1725
121.046 656 25.6125
121.163 684 26.1534
121.279 630 25.0998
121.396 686 26.1916
121.513 591 24.3105
121.63 518 22.7596
121.747 483 21.9773
121.863 482 21.9545
121.98 518 22.7596
122.097 609 24.6779
122.213 675 25.9808
122.33 714 26.7208
122.446 655 25.593
122.563 715 26.7395
122.679 712 26.6833
122.795 720 26.8328
122.912 678 26.0384
123.028 703 26.5141
123.144 694 26.3439
123.26 689 26.2488
123.377 0 1
123.493 0 1
123.609 0 1
123.725 0 1
123.84 0 1
123.956 0 1
124.072 0 1
124.188 0 1
124.303 0 1
124.419 0 1
126.852 0 1
126.968 0 1
127.083 0 1
127.199 0 1
127.315 0 1
127.431 0 1
127.547 0 1
127.663 0 1
127.779 0 1
127.895 0 1
128.011 0 1
128.127 0 1
128.243 0 1
128.359 852 29.189
128.476 907 30.1164
128.592 876 29.5973
128.708 910 30.1662
128.825 919 30.315
128.941 951 30.8383
129.058 868 29.4618
129.174 920 30.3315
129.291 900 30
129.408 884 29.7321
129.524 900 30
129.641 928 30.4631
129.758 921 30.348
129.875 933 30.545
129.992 884 29.7321
130.108 925 30.4138
130.225 850 29.1548
130.342 872 29.5296
130.459 811 28.4781
130.576 680 26.0768
130.693 606 24.6171
130.81 585 24.1868
130.928 654 25.5734
131.045 821 28.6531
131.162 894 29.8998
131.279 945 30.7409
131.396 914 30.2324
131.513 1007 31.7333
131.631 1020 31.9374
131.748 976 31.241
131.865 957 30.9354
131.983 978 31.273
132.1 965 31.0644
132.217 991 31.4802
132.335 945 30.7409
132.452 966 31.0805
132.57 983 31.3528
132.687 942 30.692
132.804 1025 32.0156
132.922 1039 32.2335
133.039 982 31.3369
133.157 940 30.6594
133.274 966 31.0805
133.392 990 31.4643
133.509 981 31.3209
133.627 1042 32.28
133.744 931 30.5123
133.862 894 29.8998
133.979 848 29.1204
134.097 795 28.1957
134.214 730 27.0185
134.332 712 26.6833
134.449 727 26.9629
134.567 729 27
134.684 826 28.7402
134.802 997 31.5753
134.919 1011 31.7962
135.037 982 31.3369
135.154 1081 32.8786
135.272 1082 32.8938
135.389 1025 32.0156
135.507 1014 31.8434
135.624 1069 32.6956
135.742 1109 33.3017
135.859 1109 33.3017
135.977 1065 32.6343
136.094 1096 33.1059
136.211 1044 32.311
136.329 1083 32.909
136.446 1110 33.3167
136.564 1065 32.6343
136.681 1106 33.2566
136.798 1090 33.0151
136.915 1149 33.8969
137.033 1107 33.2716
137.15 1066 32.6497
137.267 1064 32.619
137.384 1027 32.0468
137.502 1022 31.9687
137.619 976 31.241
137.736 923 30.3809
137.853 832 28.8444
137.97 823 28.688
138.087 857 29.2746
138.204 854 29.2233
138.321 952 30.8545
138.438 987 31.4166
138.555 1087 32.9697
138.672 1188 34.4674
138.788 1165 34.1321
138.905 1165 34.1321
139.022 1183 34.3948
139.139 1235 35.1426
139.255 1161 34.0735
139.372 1216 34.8712
139.488 1223 34.9714
139.605 1184 34.4093
139.721 1193 34.5398
139.838 1198 34.6121
139.954 1183 34.3948
140.071 1187 34.4529
140.187 1249 35.3412
140.303 1214 34.8425
140.419 1196 34.5832
140.535 1121 33.4813
140.652 1173 34.2491
140.768 0 1
140.884 0 1
141 0 1
141.115 0 1
141.231 0 1
141.347 0 1
141.463 0 1
141.578 0 1
141.694 0 1
144.104 0 1
144.219 0 1
144.335 0 1
144.45 0 1
144.566 0 1
144.682 0 1
144.798 0 1
144.914 0 1
145.03 0 1
145.146 1160 34.0588
145.262 1123 33.5112
145.378 1171 34.2199
145.494 1139 33.7491
145.61 1118 33.4365
145.726 1125 33.541
145.842 1109 33.3017
145.959 1003 31.6702
146.075 1024 32
146.192 992 31.496
146.308 1018 31.9061
146.425 902 30.0333
146.541 861 29.3428
146.658 865 29.4109
146.774 928 30.4631
146.891 1006 31.7175
147.008 997 31.5753
147.125 1031 32.1092
147.241 1079 32.8481
147.358 1117 33.4215
147.475 1144 33.8231
147.592 1208 34.7563
147.709 1121 33.4813
147.826 1070 32.7109
147.943 1176 34.2929
148.06 1105 33.2415
148.177 1078 32.8329
148.294 1078 32.8329
148.411 1167 34.1614
148.528 1152 33.9411
148.645 1165 34.1321
148.762 1227 35.0286
148.88 1091 33.0303
148.997 1112 33.3467
149.114 1179 34.3366
149.231 1116 33.4066
149.349 1109 33.3017
149.466 1065 32.6343
149.583 1097 33.121
149.701 972 31.1769
149.818 944 30.7246
149.935 911 30.1828
150.053 953 30.8707
150.17 904 30.0666
150.287 975 31.225
150.405 962 31.0161
150.522 946 30.7571
150.64 990 31.4643
150.757 1044 32.311
150.875 1076 32.8024
150.992 1074 32.7719
151.11 1176 34.2929
151.227 1124 33.5261
151.344 1154 33.9706
151.462 1167 34.1614
151.579 1176 34.2929
151.697 1142 33.7935
151.814 1182 34.3802
151.932 1167 34.1614
152.049 1207 34.7419
152.167 1216 34.8712
152.284 1155 33.9853
152.402 1164 34.1174
152.519 1126 33.5559
152.636 1193 34.5398
152.754 1166 34.1467
152.871 1151 33.9264
152.989 1193 34.5398
153.106 1116 33.4066
153.223 1085 32.9393
153.341 1028 32.0624
153.458 957 30.9354
153.575 940 30.6594
153.693 951 30.8383
153.81 949 30.8058
153.927 992 31.496
154.044 1001 31.6386
154.162 1068 32.6803
154.279 1077 32.8177
154.396 1190 34.4964
154.513 1087 32.9697
154.63 1166 34.1467
154.747 1228 35.0428
154.864 1265 35.5668
154.981 1213 34.8281
155.098 1232 35.0999
155.215 1198 34.6121
155.332 1215 34.8569
155.449 1189 34.4819
155.566 1248 35.327
155.683 1312 36.2215
155.8 1284 35.8329
155.917 1236 35.1568
156.033 1239 35.1994
156.15 0 1
156.267 0 1
156.383 0 1
156.5 0 1
156.617 0 1
156.733 0 1
156.85 0 1
156.966 0 1
157.082 0 1
157.199 0 1
157.315 0 1
157.431 0 1
157.547 0 1
157.664 0 1
157.78 0 1
157.896 0 1
158.012 0 1
158.128 0 1
158.244 0 1
158.359 0 1
158.475 0 1
158.591 0 1
158.706 0 1
