
6.15755 0 1
6.2731 0 1
6.3887 0 1
6.50437 0 1
6.62009 0 1
6.73587 0 1
6.8517 0 1
6.96759 0 1
7.08353 0 1
7.19952 0 1
7.31557 0 1
7.43166 0 1
7.54781 0 1
7.664 0 1
7.78024 0 1
7.89653 0 1
8.01286 0 1
8.12924 0 1
8.24567 0 1
8.36213 0 1
8.47864 0 1
8.59519 0 1
8.71178 0 1
8.82841 0 1
8.94508 0 1
9.06179 0 1
9.17853 0 1
9.29531 0 1
9.41212 0 1
9.52897 0 1
9.64584 0 1
9.76276 0 1
9.8797 0 1
9.99667 0 1
10.1137 0 1
10.2307 0 1
10.3478 0 1
10.4648 0 1
10.5819 0 1
10.6991 0 1
10.8162 0 1
10.9334 0 1
11.0506 0 1
11.1678 0 1
11.285 0 1
11.4023 0 1
11.5196 0 1
11.6369 0 1
11.7542 0 1
11.8715 0 1
11.9888 0 1
12.1062 0 1
12.2235 0 1
12.3409 0 1
12.4582 0 1
12.5756 0 1
12.693 0 1
12.8104 0 1
12.9278 0 1
13.0452 0 1
13.1626 0 1
13.28 0 1
13.3974 0 1
13.5149 0 1
13.6323 0 1
13.7497 0 1
13.8671 0 1
13.9845 0 1
14.1019 0 1
14.2193 0 1
14.3367 0 1
14.4541 0 1
14.5714 0 1
14.6888 0 1
14.8062 0 1
14.9235 0 1
15.0408 1823 42.6966
15.1581 1922 43.8406
15.2755 1989 44.5982
15.3927 2090 45.7165
15.51 1987 44.5758
15.6273 2134 46.1952
15.7445 2049 45.2659
15.8617 1982 44.5197
15.9789 2002 44.7437
16.0961 1955 44.2154
16.2132 2060 45.3872
16.3304 2032 45.0777
16.4475 2058 45.3652
16.5646 2184 46.7333
16.6816 2261 47.55
16.7986 2392 48.9081
16.9156 2382 48.8057
17.0326 2422 49.2138
17.1496 2354 48.518
17.2665 2393 48.9183
17.3833 2405 49.0408
17.5002 2276 47.7074
17.617 2123 46.076
17.7338 2146 46.3249
17.8505 2051 45.288
17.9672 2070 45.4973
18.0839 2108 45.913
18.2005 2125 46.0977
18.3171 2164 46.5188
18.4337 2207 46.9787
18.5502 2324 48.2079
18.6666 2335 48.3218
18.7831 2381 48.7955
18.8994 2324 48.2079
19.0158 2314 48.1041
19.1321 2244 47.3709
19.2483 2247 47.4025
19.3645 2073 45.5302
19.4806 1938 44.0227
19.5967 1734 41.6413
19.7128 1764 42
19.8288 1498 38.704
19.9447 1385 37.2156
20.0606 0 1
20.1764 0 1
20.2922 0 1
20.4079 0 1
20.5236 0 1
20.6392 0 1
20.7548 0 1
20.8702 0 1
23.3078 0 1
23.4233 0 1
23.539 0 1
23.6547 0 1
23.7704 0 1
23.8862 0 1
24.0021 0 1
24.118 0 1
24.234 0 1
24.35 0 1
24.4661 956 30.9192
24.5822 1168 34.176
24.6984 1225 35
24.8146 1471 38.3536
24.9309 1451 38.092
25.0472 1659 40.7308
25.1636 1891 43.4856
25.28 2045 45.2217
25.3965 2219 47.1063
25.513 2335 48.3218
25.6296 2414 49.1325
25.7462 2451 49.5076
25.8628 2552 50.5173
25.9795 2486 49.8598
26.0962 2472 49.7192
26.213 2347 48.4458
26.3298 2265 47.592
26.4466 2203 46.9361
26.5635 2206 46.9681
26.6804 2203 46.9361
26.7973 2202 46.9255
26.9143 2271 47.655
27.0313 2432 49.3153
27.1483 2389 48.8774
27.2653 2327 48.239
27.3824 2414 49.1325
27.4996 2450 49.4975
27.6167 2476 49.7594
27.7339 2300 47.9583
27.8511 2257 47.5079
27.9683 2201 46.9148
28.0855 2180 46.6905
28.2028 2120 46.0435
28.3201 2043 45.1996
28.4374 1990 44.6094
28.5547 2015 44.8888
28.6721 2106 45.8912
28.7894 2247 47.4025
28.9068 2328 48.2494
29.0242 2433 49.3254
29.1416 2444 49.4368
29.259 2440 49.3964
29.3764 2465 49.6488
29.4939 2443 49.4267
29.6113 2359 48.5695
29.7288 2306 48.0208
29.8463 2223 47.1487
29.9638 2097 45.793
30.0812 2006 44.7884
30.1987 2118 46.0217
30.3162 2140 46.2601
30.4337 2106 45.8912
30.5512 2246 47.392
30.6687 2281 47.7598
30.7862 2289 47.8435
30.9037 2413 49.1223
31.0212 2367 48.6518
31.1387 2387 48.8569
31.2562 2336 48.3322
31.3737 2243 47.3603
31.4912 2236 47.2864
31.6087 2181 46.7012
31.7262 2117 46.0109
31.8436 2067 45.4643
31.9611 2024 44.9889
32.0785 2033 45.0888
32.1959 2009 44.8219
32.3134 2126 46.1086
32.4308 2239 47.3181
32.5482 2289 47.8435
32.6655 2342 48.3942
32.7829 2366 48.6415
32.9002 2308 48.0416
33.0176 2387 48.8569
33.1349 2351 48.4871
33.2522 2345 48.4252
33.3694 2266 47.6025
33.4867 2140 46.2601
33.6039 2059 45.3762
33.7211 1976 44.4522
33.8383 1967 44.3509
33.9554 2017 44.911
34.0725 2122 46.0652
34.1896 2178 46.669
34.3067 2124 46.0869
34.4237 2162 46.4973
34.5407 2284 47.7912
34.6577 2222 47.1381
34.7746 2250 47.4342
34.8915 2228 47.2017
35.0084 2111 45.9456
35.1252 2180 46.6905
35.242 2071 45.5082
35.3587 1996 44.6766
35.4755 1930 43.9318
35.5921 1860 43.1277
35.7088 1908 43.6807
35.8254 1945 44.1022
35.9419 1967 44.3509
36.0584 2010 44.833
36.1749 2066 45.4533
36.2913 2135 46.2061
36.4077 2112 45.9565
36.524 2045 45.2217
36.6403 1936 44
36.7565 1903 43.6234
36.8727 1917 43.7836
36.9889 1680 40.9878
37.1049 1512 38.8844
37.221 0 1
37.3369 0 1
37.4529 0 1
37.5687 0 1
37.6845 0 1
37.8003 0 1
37.916 0 1
38.0316 0 1
38.1472 0 1
40.5851 0 1
40.7008 0 1
40.8164 0 1
40.9322 0 1
41.048 0 1
41.1639 0 1
41.2798 0 1
41.3958 0 1
41.5118 0 1
41.6279 0 1
41.744 1057 32.5115
41.8602 1189 34.4819
41.9765 1264 35.5528
42.0928 1346 36.6879
42.2091 1374 37.0675
42.3255 1318 36.3043
42.4419 1339 36.5923
42.5584 1343 36.647
42.675 1531 39.128
42.7915 1681 41
42.9081 1678 40.9634
43.0248 1726 41.5452
43.1415 1792 42.332
43.2582 1791 42.3202
43.375 1835 42.8369
43.4918 1897 43.5546
43.6087 1899 43.5775
43.7256 1837 42.8602
43.8425 1840 42.8952
43.9595 1805 42.4853
44.0765 1808 42.5206
44.1935 1624 40.2989
44.3106 1642 40.5216
44.4277 1586 39.8246
44.5448 1588 39.8497
44.6619 1693 41.1461
44.7791 1622 40.2741
44.8963 1729 41.5812
45.0136 1937 44.0114
45.1308 1954 44.2041
45.2481 1943 44.0795
45.3654 1880 43.359
45.4827 1928 43.909
45.6001 1940 44.0454
45.7174 1851 43.0232
45.8348 1770 42.0714
45.9522 1586 39.8246
46.0697 1514 38.9102
46.1871 1525 39.0512
46.3046 1578 39.724
46.422 1674 40.9145
46.5395 1713 41.3884
46.657 1833 42.8135
46.7745 1858 43.1045
46.892 1879 43.3474
47.0096 1915 43.7607
47.1271 1903 43.6234
47.2446 2016 44.8999
47.3622 1932 43.9545
47.4797 1789 42.2966
47.5973 1834 42.8252
47.7149 1857 43.0929
47.8324 1674 40.9145
47.95 1650 40.6202
48.0675 1617 40.2119
48.1851 1618 40.2244
48.3027 1692 41.1339
48.4202 1786 42.2611
48.5378 1894 43.5201
48.6554 1933 43.9659
48.7729 1928 43.909
48.8904 1938 44.0227
49.008 1967 44.3509
49.1255 1901 43.6005
49.243 1832 42.8019
49.3605 1690 41.1096
49.478 1595 39.9375
49.5955 1530 39.1152
49.713 1464 38.2623
49.8304 1517 38.9487
49.9479 1675 40.9268
50.0653 1751 41.845
50.1827 1782 42.2137
50.3001 1818 42.638
50.4175 1817 42.6263
50.5348 1940 44.0454
50.6521 1932 43.9545
50.7694 1973 44.4185
50.8867 1973 44.4185
51.004 2001 44.7325
51.1212 1913 43.7379
51.2384 1935 43.9886
51.3556 1946 44.1135
51.4727 1718 41.4488
51.5899 1673 40.9023
51.707 1785 42.2493
51.824 1822 42.6849
51.9411 2080 45.607
52.0581 2068 45.4753
52.175 2238 47.3075
52.2919 2472 49.7192
52.4088 2333 48.3011
52.5257 2450 49.4975
52.6425 2542 50.4183
52.7593 2397 48.9592
52.876 2310 48.0625
52.9927 2184 46.7333
53.1094 2162 46.4973
53.226 2023 44.9778
53.3426 1979 44.486
53.4591 1940 44.0454
53.5756 1914 43.7493
53.692 2006 44.7884
53.8084 1989 44.5982
53.9248 1935 43.9886
54.0411 1913 43.7379
54.1573 1759 41.9404
54.2735 0 1
54.3896 0 1
54.5057 0 1
54.6217 0 1
54.7377 0 1
54.8537 0 1
54.9695 0 1
55.0853 0 1
55.2011 0 1
55.3168 0 1
55.4324 0 1
57.824 0 1
57.9396 0 1
58.0553 0 1
58.1711 0 1
58.2869 0 1
58.4028 0 1
58.5187 0 1
58.6347 0 1
58.7508 0 1
58.8669 0 1
58.983 1613 40.1622
59.0992 1763 41.9881
59.2155 1974 44.4297
59.3318 2009 44.8219
59.4482 2101 45.8367
59.5646 2124 46.0869
59.681 2154 46.4112
59.7975 2318 48.1456
59.9141 2190 46.7974
60.0306 2282 47.7703
60.1473 2055 45.3321
60.2639 2050 45.2769
60.3807 1979 44.486
60.4974 2135 46.2061
60.6142 2116 46
60.731 2249 47.4236
60.8479 2437 49.366
60.9648 2392 48.9081
61.0818 2485 49.8498
61.1987 2463 49.6286
61.3158 2384 48.8262
61.4328 2270 47.6445
61.5499 2114 45.9783
61.667 1962 44.2945
61.7841 1846 42.9651
61.9013 1829 42.7668
62.0185 1829 42.7668
62.1357 2017 44.911
62.253 2036 45.1221
62.3702 2221 47.1275
62.4875 2284 47.7912
62.6049 2329 48.2597
62.7222 2419 49.1833
62.8396 2437 49.366
62.9569 2448 49.4773
63.0743 2392 48.9081
63.1918 2407 49.0612
63.3092 2298 47.9375
63.4267 2288 47.833
63.5441 2157 46.4435
63.6616 2097 45.793
63.7791 2023 44.9778
63.8966 1891 43.4856
64.0142 2031 45.0666
64.1317 2042 45.1885
64.2492 2195 46.8508
64.3668 2285 47.8017
64.4843 2364 48.621
64.6019 2413 49.1223
64.7195 2371 48.6929
64.837 2282 47.7703
64.9546 2311 48.0729
65.0722 2238 47.3075
65.1898 2043 45.1996
65.3074 1862 43.1509
65.4249 1802 42.45
65.5425 1710 41.3521
65.6601 1743 41.7493
65.7777 1964 44.317
65.8952 2024 44.9889
66.0128 2189 46.7868
66.1304 2174 46.6262
66.2479 2307 48.0312
66.3655 2298 47.9375
66.483 2290 47.8539
66.6005 2436 49.3559
66.718 2305 48.0104
66.8355 2229 47.2123
66.953 2225 47.1699
67.0705 2217 47.085
67.1879 2124 46.0869
67.3054 2040 45.1664
67.4228 1897 43.5546
67.5402 1919 43.8064
67.6576 1921 43.8292
67.7749 2037 45.1331
67.8923 2083 45.6399
68.0096 2179 46.6798
68.1269 2216 47.0744
68.2442 2317 48.1352
68.3614 2391 48.8979
68.4787 2279 47.7389
68.5958 2290 47.8539
68.713 2242 47.3498
68.8302 2097 45.793
68.9473 1890 43.4741
69.0643 1744 41.7612
69.1814 1657 40.7063
69.2984 1673 40.9023
69.4154 1874 43.2897
69.5323 1948 44.1362
69.6492 2028 45.0333
69.7661 2139 46.2493
69.8829 2231 47.2335
69.9997 2149 46.3573
70.1165 2132 46.1736
70.2332 2052 45.299
70.3499 1986 44.5646
70.4665 1845 42.9535
70.5831 1782 42.2137
70.6996 1738 41.6893
70.8161 1566 39.5727
70.9326 1456 38.1576
71.049 1254 35.4119
71.1653 1027 32.0468
71.2817 919 30.315
71.3979 890 29.8329
71.5141 840 28.9828
71.6303 822 28.6705
71.7464 767 27.6948
71.8624 0 1
71.9784 0 1
72.0944 0 1
72.2102 0 1
72.3261 0 1
72.4418 0 1
72.5575 0 1
72.6732 0 1
75.1054 0 1
75.2209 0 1
75.3365 0 1
75.4521 0 1
75.5678 0 1
75.6835 0 1
75.7993 0 1
75.9151 0 1
76.031 0 1
76.147 1387 37.2424
76.263 1433 37.855
76.3791 1473 38.3797
76.4952 1461 38.223
76.6113 1442 37.9737
76.7276 1626 40.3237
76.8438 1841 42.9069
76.9601 1898 43.566
77.0765 1942 44.0681
77.1929 1999 44.7102
77.3093 1974 44.4297
77.4258 2030 45.0555
77.5423 1992 44.6318
77.6589 1876 43.3128
77.7755 1737 41.6773
77.8921 1643 40.5339
78.0088 1467 38.3014
78.1256 1368 36.9865
78.2423 1448 38.0526
78.3591 1516 38.9358
78.4759 1635 40.4351
78.5928 1800 42.4264
78.7097 1896 43.5431
78.8266 1851 43.0232
78.9436 1958 44.2493
79.0606 1907 43.6692
79.1776 1905 43.6463
79.2946 2046 45.2327
79.4117 2108 45.913
79.5288 2022 44.9667
79.6459 2043 45.1996
79.7631 1981 44.5084
79.8802 1883 43.3935
79.9974 1808 42.5206
80.1147 1719 41.4608
80.2319 1652 40.6448
80.3491 1674 40.9145
80.4664 1822 42.6849
80.5837 1829 42.7668
80.701 2015 44.8888
80.8183 2090 45.7165
80.9357 2038 45.1442
81.053 2085 45.6618
81.1704 2116 46
81.2877 2117 46.0109
81.4051 2044 45.2106
81.5225 1745 41.7732
81.6399 1650 40.6202
81.7573 1518 38.9615
81.8747 1461 38.223
81.9922 1463 38.2492
82.1096 1576 39.6989
82.227 1810 42.5441
82.3444 1956 44.2267
82.4619 1934 43.9773
82.5793 2085 45.6618
82.6967 2038 45.1442
82.8142 2061 45.3982
82.9316 2088 45.6946
83.049 2136 46.2169
83.1664 2074 45.5412
83.2838 2164 46.5188
83.4012 1976 44.4522
83.5186 1833 42.8135
83.636 1834 42.8252
83.7534 1792 42.332
83.8708 1668 40.8412
83.9881 1614 40.1746
84.1055 1772 42.0951
84.2228 1859 43.1161
84.3401 1966 44.3396
84.4575 2096 45.7821
84.5747 2130 46.1519
84.692 2059 45.3762
84.8093 2074 45.5412
84.9265 2031 45.0666
85.0437 2017 44.911
85.1609 1768 42.0476
85.2781 1609 40.1123
85.3952 1560 39.4968
85.5123 1421 37.6962
85.6294 1503 38.7685
85.7465 1720 41.4729
85.8636 1833 42.8135
85.9806 1951 44.1701
86.0976 2015 44.8888
86.2145 2014 44.8776
86.3315 2076 45.5631
86.4484 2155 46.422
86.5652 2203 46.9361
86.682 2107 45.9021
86.7988 2024 44.9889
86.9156 2115 45.9891
87.0323 2068 45.4753
87.149 1934 43.9773
87.2657 1816 42.6146
87.3823 1616 40.1995
87.4988 1481 38.4838
87.6154 1412 37.5766
87.7318 1484 38.5227
87.8483 1588 39.8497
87.9647 1630 40.3733
88.081 1692 41.1339
88.1973 1560 39.4968
88.3136 1495 38.6652
88.4298 1493 38.6394
88.546 1383 37.1887
88.6621 1141 33.7787
88.7781 936 30.5941
88.8942 0 1
89.0101 0 1
89.126 0 1
89.2419 0 1
89.3577 0 1
89.4734 0 1
89.5891 0 1
89.7047 0 1
89.8203 0 1
89.9358 0 1
92.3269 0 1
92.4424 0 1
92.558 0 1
92.6736 0 1
92.7893 0 1
92.905 0 1
93.0208 0 1
93.1366 0 1
93.2525 0 1
93.3685 0 1
93.4845 0 1
93.6005 1644 40.5463
93.7167 1707 41.3159
93.8328 1740 41.7133
93.949 1827 42.7434
94.0653 1792 42.332
94.1816 1763 41.9881
94.2979 1662 40.7676
94.4143 1672 40.8901
94.5307 1474 38.3927
94.6472 1536 39.1918
94.7637 1590 39.8748
94.8803 1700 41.2311
94.9969 1793 42.3438
95.1135 1903 43.6234
95.2302 1911 43.715
95.3469 2029 45.0444
95.4637 2012 44.8553
95.5805 2109 45.9239
95.6973 2210 47.0106
95.8142 2126 46.1086
95.9311 2112 45.9565
96.048 2189 46.7868
96.1649 2140 46.2601
96.2819 2066 45.4533
96.3989 2024 44.9889
96.516 1857 43.0929
96.633 1769 42.0595
96.7501 1753 41.8688
96.8673 1799 42.4146
96.9844 1852 43.0349
97.1016 1959 44.2606
97.2188 2126 46.1086
97.336 2134 46.1952
97.4532 2198 46.8828
97.5704 2207 46.9787
97.6877 2202 46.9255
97.805 2078 45.5851
97.9223 1946 44.1135
98.0396 1848 42.9884
98.1569 1694 41.1582
98.2743 1560 39.4968
98.3916 1591 39.8873
98.509 1660 40.7431
98.6264 1860 43.1277
98.7438 2040 45.1664
98.8612 2047 45.2438
98.9786 2110 45.9347
99.096 2198 46.8828
99.2134 2267 47.613
99.3308 2238 47.3075
99.4482 2356 48.5386
99.5656 2274 47.6865
99.6831 2276 47.7074
99.8005 2345 48.4252
99.9179 2163 46.5081
100.035 2160 46.4758
100.153 1974 44.4297
100.27 1847 42.9767
100.388 1930 43.9318
100.505 1977 44.4635
100.622 2099 45.8148
100.74 2244 47.3709
100.857 2220 47.1169
100.975 2292 47.8748
101.092 2343 48.4045
101.209 2325 48.2183
101.327 2294 47.8957
101.444 2216 47.0744
101.561 1884 43.4051
101.679 1794 42.3556
101.796 1620 40.2492
101.913 1534 39.1663
102.03 1669 40.8534
102.148 1878 43.3359
102.265 1989 44.5982
102.382 2153 46.4004
102.499 2256 47.4974
102.616 2302 47.9792
102.733 2309 48.0521
102.851 2307 48.0312
102.968 2380 48.7852
103.085 2485 49.8498
103.202 2344 48.4149
103.319 2375 48.734
103.436 2196 46.8615
103.552 2245 47.3814
103.669 2094 45.7602
103.786 1947 44.1248
103.903 1948 44.1362
104.02 2070 45.4973
104.137 2124 46.0869
104.253 2232 47.244
104.37 2395 48.9387
104.487 2432 49.3153
104.603 2450 49.4975
104.72 2358 48.5592
104.836 2242 47.3498
104.953 2129 46.1411
105.069 1908 43.6807
105.186 1676 40.939
105.302 1565 39.5601
105.418 1522 39.0128
105.535 1452 38.1051
105.651 1469 38.3275
105.767 1533 39.1535
105.883 1481 38.4838
105.999 1436 37.8946
106.115 0 1
106.231 0 1
106.347 0 1
106.463 0 1
106.579 0 1
106.694 0 1
106.81 0 1
106.926 0 1
107.041 0 1
107.157 0 1
109.576 0 1
109.692 0 1
109.807 0 1
109.923 0 1
110.039 0 1
110.155 0 1
110.27 0 1
110.386 0 1
110.502 0 1
110.618 1051 32.4191
110.735 1361 36.8917
110.851 1527 39.0768
110.967 1690 41.1096
111.083 1853 43.0465
111.199 2001 44.7325
111.316 2109 45.9239
111.432 2147 46.3357
111.549 2149 46.3573
111.665 2195 46.8508
111.782 2214 47.0532
111.898 2220 47.1169
112.015 2215 47.0638
112.132 2044 45.2106
112.248 1896 43.5431
112.365 1861 43.1393
112.482 1840 42.8952
112.599 1914 43.7493
112.716 2095 45.7712
112.832 2190 46.7974
112.949 2269 47.634
113.066 2201 46.9148
113.183 2223 47.1487
113.3 2248 47.4131
113.417 2224 47.1593
113.534 1935 43.9886
113.652 1900 43.589
113.769 1723 41.509
113.886 1625 40.3113
114.003 1574 39.6737
114.12 1685 41.0488
114.238 1824 42.7083
114.355 2005 44.7772
114.472 1916 43.7721
114.589 2187 46.7654
114.707 2187 46.7654
114.824 2342 48.3942
114.942 2284 47.7912
115.059 2277 47.7179
115.176 2337 48.3425
115.294 2337 48.3425
115.411 2298 47.9375
115.529 2194 46.8402
115.646 2129 46.1411
115.764 1947 44.1248
115.881 1916 43.7721
115.999 1830 42.7785
116.116 1889 43.4626
116.234 1957 44.238
116.351 2145 46.3141
116.469 2245 47.3814
116.586 2159 46.465
116.704 2283 47.7807
116.821 2225 47.1699
116.939 2349 48.4665
117.056 2212 47.0319
117.174 1984 44.5421
117.291 1811 42.5558
117.409 1624 40.2989
117.526 1639 40.4846
117.644 1587 39.8372
117.761 1786 42.2611
117.879 1868 43.2204
117.996 1964 44.317
118.114 2065 45.4423
118.231 2081 45.618
118.349 2177 46.6583
118.466 2208 46.9894
118.584 2267 47.613
118.701 2197 46.8722
118.819 2210 47.0106
118.936 2152 46.3897
119.053 2156 46.4327
119.171 2017 44.911
119.288 1897 43.5546
119.405 1929 43.9204
119.523 1806 42.4971
119.64 1747 41.7971
119.757 1891 43.4856
119.875 1940 44.0454
119.992 2020 44.9444
120.109 2115 45.9891
120.226 2079 45.5961
120.343 2164 46.5188
120.46 2169 46.5725
120.578 2085 45.6618
120.695 2098 45.8039
120.812 1919 43.8064
120.929 1755 41.8927
121.046 1568 39.598
121.163 1535 39.1791
121.279 1425 37.7492
121.396 1592 39.8999
121.513 1536 39.1918
121.63 1595 39.9375
121.747 1772 42.0951
121.863 1638 40.4722
121.98 1628 40.3485
122.097 1752 41.8569
122.213 1705 41.2916
122.33 1652 40.6448
122.446 1607 40.0874
122.563 1539 39.2301
122.679 1482 38.4968
122.795 1343 36.647
122.912 1277 35.7351
123.028 1067 32.665
123.144 966 31.0805
123.26 850 29.1548
123.377 0 1
123.493 0 1
123.609 0 1
123.725 0 1
123.84 0 1
123.956 0 1
124.072 0 1
124.188 0 1
124.303 0 1
124.419 0 1
126.852 0 1
126.968 0 1
127.083 0 1
127.199 0 1
127.315 0 1
127.431 0 1
127.547 0 1
127.663 0 1
127.779 0 1
127.895 0 1
128.011 0 1
128.127 0 1
128.243 0 1
128.359 2053 45.31
128.476 1962 44.2945
128.592 1973 44.4185
128.708 1976 44.4522
128.825 2021 44.9555
128.941 2145 46.3141
129.058 2137 46.2277
129.174 2287 47.8226
129.291 2354 48.518
129.408 2190 46.7974
129.524 2343 48.4045
129.641 2252 47.4552
129.758 2220 47.1169
129.875 2091 45.7275
129.992 1828 42.7551
130.108 1741 41.7253
130.225 1615 40.1871
130.342 1724 41.5211
130.459 1826 42.7317
130.576 1992 44.6318
130.693 2013 44.8665
130.81 2060 45.3872
130.928 2143 46.2925
131.045 2218 47.0956
131.162 2373 48.7134
131.279 2237 47.2969
131.396 2298 47.9375
131.513 2345 48.4252
131.631 2217 47.085
131.748 2161 46.4866
131.865 2109 45.9239
131.983 2062 45.4093
132.1 2074 45.5412
132.217 2015 44.8888
132.335 2036 45.1221
132.452 2147 46.3357
132.57 2160 46.4758
132.687 2316 48.1248
132.804 2212 47.0319
132.922 2386 48.8467
133.039 2335 48.3218
133.157 2346 48.4355
133.274 2301 47.9687
133.392 2208 46.9894
133.509 2017 44.911
133.627 1897 43.5546
133.744 1821 42.6732
133.862 1642 40.5216
133.979 1788 42.2847
134.097 1938 44.0227
134.214 2065 45.4423
134.332 2073 45.5302
134.449 2092 45.7384
134.567 2167 46.551
134.684 2264 47.5815
134.802 2313 48.0937
134.919 2365 48.6313
135.037 2208 46.9894
135.154 2240 47.3286
135.272 2184 46.7333
135.389 2156 46.4327
135.507 2135 46.2061
135.624 2140 46.2601
135.742 2052 45.299
135.859 1996 44.6766
135.977 2026 45.0111
136.094 2083 45.6399
136.211 2225 47.1699
136.329 2386 48.8467
136.446 2252 47.4552
136.564 2330 48.2701
136.681 2307 48.0312
136.798 2352 48.4974
136.915 2309 48.0521
137.033 2219 47.1063
137.15 2046 45.2327
137.267 1823 42.6966
137.384 1718 41.4488
137.502 1649 40.6079
137.619 1750 41.833
137.736 1837 42.8602
137.853 1988 44.587
137.97 2065 45.4423
138.087 2136 46.2169
138.204 2195 46.8508
138.321 2169 46.5725
138.438 2263 47.571
138.555 2328 48.2494
138.672 2272 47.6655
138.788 2107 45.9021
138.905 2105 45.8803
139.022 1951 44.1701
139.139 1857 43.0929
139.255 1742 41.7373
139.372 1580 39.7492
139.488 1540 39.2428
139.605 1486 38.5487
139.721 1466 38.2884
139.838 1500 38.7298
139.954 1503 38.7685
140.071 1382 37.1753
140.187 1303 36.0971
140.303 1141 33.7787
140.419 1188 34.4674
140.535 1089 33
140.652 988 31.4325
140.768 0 1
140.884 0 1
141 0 1
141.115 0 1
141.231 0 1
141.347 0 1
141.463 0 1
141.578 0 1
141.694 0 1
144.104 0 1
144.219 0 1
144.335 0 1
144.45 0 1
144.566 0 1
144.682 0 1
144.798 0 1
144.914 0 1
145.03 0 1
145.146 1627 40.3361
145.262 1784 42.2374
145.378 1918 43.795
145.494 1807 42.5088
145.61 1816 42.6146
145.726 1690 41.1096
145.842 1637 40.4599
145.959 1606 40.0749
146.075 1483 38.5097
146.192 1465 38.2753
146.308 1336 36.5513
146.425 1406 37.4967
146.541 1535 39.1791
146.658 1637 40.4599
146.774 1611 40.1373
146.891 1681 41
147.008 1798 42.4028
147.125 1672 40.8901
147.241 1775 42.1307
147.358 1831 42.7902
147.475 1701 41.2432
147.592 1734 41.6413
147.709 1744 41.7612
147.826 1724 41.5211
147.943 1668 40.8412
148.06 1663 40.7799
148.177 1523 39.0256
148.294 1639 40.4846
148.411 1590 39.8748
148.528 1662 40.7676
148.645 1760 41.9524
148.762 1755 41.8927
148.88 1902 43.6119
148.997 1852 43.0349
149.114 1781 42.2019
149.231 1855 43.0697
149.349 1821 42.6732
149.466 1738 41.6893
149.583 1575 39.6863
149.701 1514 38.9102
149.818 1505 38.7943
149.935 1414 37.6032
150.053 1349 36.7287
150.17 1483 38.5097
150.287 1496 38.6782
150.405 1595 39.9375
150.522 1632 40.398
150.64 1653 40.6571
150.757 1675 40.9268
150.875 1679 40.9756
150.992 1704 41.2795
151.11 1729 41.5812
151.227 1730 41.5933
151.344 1677 40.9512
151.462 1652 40.6448
151.579 1665 40.8044
151.697 1506 38.8072
151.814 1538 39.2173
151.932 1489 38.5876
152.049 1517 38.9487
152.167 1591 39.8873
152.284 1618 40.2244
152.402 1656 40.694
152.519 1722 41.497
152.636 1753 41.8688
152.754 1737 41.6773
152.871 1625 40.3113
152.989 1697 41.1947
153.106 1577 39.7115
153.223 1486 38.5487
153.341 1465 38.2753
153.458 1382 37.1753
153.575 1395 37.3497
153.693 1407 37.51
153.81 1405 37.4833
153.927 1428 37.7889
154.044 1473 38.3797
154.162 1514 38.9102
154.279 1574 39.6737
154.396 1525 39.0512
154.513 1628 40.3485
154.63 1601 40.0125
154.747 1612 40.1497
154.864 1599 39.9875
154.981 1518 38.9615
155.098 1502 38.7556
155.215 1449 38.0657
155.332 1431 37.8286
155.449 1500 38.7298
155.566 1383 37.1887
155.683 1430 37.8153
155.8 1411 37.5633
155.917 1447 38.0395
156.033 1387 37.2424
156.15 0 1
156.267 0 1
156.383 0 1
156.5 0 1
156.617 0 1
156.733 0 1
156.85 0 1
156.966 0 1
157.082 0 1
157.199 0 1
157.315 0 1
157.431 0 1
157.547 0 1
157.664 0 1
157.78 0 1
157.896 0 1
158.012 0 1
158.128 0 1
158.244 0 1
158.359 0 1
158.475 0 1
158.591 0 1
158.706 0 1
