
6.15755 0 1
6.2731 0 1
6.3887 0 1
6.50437 0 1
6.62009 0 1
6.73587 0 1
6.8517 0 1
6.96759 0 1
7.08353 0 1
7.19952 0 1
7.31557 0 1
7.43166 0 1
7.54781 0 1
7.664 0 1
7.78024 0 1
7.89653 0 1
8.01286 0 1
8.12924 0 1
8.24567 0 1
8.36213 0 1
8.47864 0 1
8.59519 0 1
8.71178 0 1
8.82841 0 1
8.94508 0 1
9.06179 0 1
9.17853 0 1
9.29531 0 1
9.41212 0 1
9.52897 0 1
9.64584 0 1
9.76276 0 1
9.8797 0 1
9.99667 0 1
10.1137 0 1
10.2307 0 1
10.3478 0 1
10.4648 0 1
10.5819 0 1
10.6991 0 1
10.8162 0 1
10.9334 0 1
11.0506 0 1
11.1678 0 1
11.285 0 1
11.4023 0 1
11.5196 0 1
11.6369 0 1
11.7542 0 1
11.8715 0 1
11.9888 0 1
12.1062 0 1
12.2235 0 1
12.3409 0 1
12.4582 0 1
12.5756 0 1
12.693 0 1
12.8104 0 1
12.9278 0 1
13.0452 0 1
13.1626 0 1
13.28 0 1
13.3974 0 1
13.5149 0 1
13.6323 0 1
13.7497 0 1
13.8671 0 1
13.9845 0 1
14.1019 0 1
14.2193 0 1
14.3367 0 1
14.4541 0 1
14.5714 0 1
14.6888 0 1
14.8062 0 1
14.9235 0 1
15.0408 757 27.5136
15.1581 753 27.4408
15.2755 783 27.9821
15.3927 833 28.8617
15.51 797 28.2312
15.6273 792 28.1425
15.7445 843 29.0345
15.8617 791 28.1247
15.9789 772 27.7849
16.0961 779 27.9106
16.2132 822 28.6705
16.3304 838 28.9482
16.4475 805 28.3725
16.5646 839 28.9655
16.6816 905 30.0832
16.7986 929 30.4795
16.9156 986 31.4006
17.0326 932 30.5287
17.1496 962 31.0161
17.2665 990 31.4643
17.3833 937 30.6105
17.5002 902 30.0333
17.617 902 30.0333
17.7338 845 29.0689
17.8505 807 28.4077
17.9672 863 29.3769
18.0839 822 28.6705
18.2005 852 29.189
18.3171 913 30.2159
18.4337 928 30.4631
18.5502 931 30.5123
18.6666 932 30.5287
18.7831 903 30.05
18.8994 958 30.9516
19.0158 966 31.0805
19.1321 892 29.8664
19.2483 845 29.0689
19.3645 865 29.4109
19.4806 806 28.3901
19.5967 729 27
19.7128 638 25.2587
19.8288 631 25.1197
19.9447 562 23.7065
20.0606 0 1
20.1764 0 1
20.2922 0 1
20.4079 0 1
20.5236 0 1
20.6392 0 1
20.7548 0 1
20.8702 0 1
23.3078 0 1
23.4233 0 1
23.539 0 1
23.6547 0 1
23.7704 0 1
23.8862 0 1
24.0021 0 1
24.118 0 1
24.234 0 1
24.35 0 1
24.4661 389 19.7231
24.5822 408 20.199
24.6984 524 22.891
24.8146 579 24.0624
24.9309 640 25.2982
25.0472 716 26.7582
25.1636 750 27.3861
25.28 862 29.3598
25.3965 909 30.1496
25.513 947 30.7734
25.6296 973 31.1929
25.7462 1055 32.4808
25.8628 1021 31.9531
25.9795 1044 32.311
26.0962 1045 32.3265
26.213 989 31.4484
26.3298 933 30.545
26.4466 837 28.931
26.5635 862 29.3598
26.6804 858 29.2916
26.7973 944 30.7246
26.9143 911 30.1828
27.0313 918 30.2985
27.1483 928 30.4631
27.2653 986 31.4006
27.3824 1004 31.686
27.4996 972 31.1769
27.6167 941 30.6757
27.7339 958 30.9516
27.8511 953 30.8707
27.9683 916 30.2655
28.0855 894 29.8998
28.2028 859 29.3087
28.3201 825 28.7228
28.4374 815 28.5482
28.5547 820 28.6356
28.6721 864 29.3939
28.7894 775 27.8388
28.9068 986 31.4006
29.0242 911 30.1828
29.1416 996 31.5595
29.259 1009 31.7648
29.3764 996 31.5595
29.4939 969 31.1288
29.6113 969 31.1288
29.7288 956 30.9192
29.8463 937 30.6105
29.9638 775 27.8388
30.0812 798 28.2489
30.1987 781 27.9464
30.3162 898 29.9666
30.4337 859 29.3087
30.5512 905 30.0832
30.6687 887 29.7825
30.7862 941 30.6757
30.9037 943 30.7083
31.0212 984 31.3688
31.1387 886 29.7658
31.2562 904 30.0666
31.3737 960 30.9839
31.4912 904 30.0666
31.6087 851 29.1719
31.7262 865 29.4109
31.8436 799 28.2666
31.9611 824 28.7054
32.0785 800 28.2843
32.1959 866 29.4279
32.3134 834 28.8791
32.4308 964 31.0483
32.5482 975 31.225
32.6655 973 31.1929
32.7829 975 31.225
32.9002 971 31.1609
33.0176 998 31.5911
33.1349 1013 31.8277
33.2522 902 30.0333
33.3694 904 30.0666
33.4867 856 29.2575
33.6039 798 28.2489
33.7211 772 27.7849
33.8383 865 29.4109
33.9554 820 28.6356
34.0725 840 28.9828
34.1896 838 28.9482
34.3067 889 29.8161
34.4237 904 30.0666
34.5407 905 30.0832
34.6577 891 29.8496
34.7746 856 29.2575
34.8915 916 30.2655
35.0084 875 29.5804
35.1252 849 29.1376
35.242 823 28.688
35.3587 811 28.4781
35.4755 764 27.6405
35.5921 784 28
35.7088 770 27.7489
35.8254 765 27.6586
35.9419 780 27.9285
36.0584 815 28.5482
36.1749 816 28.5657
36.2913 782 27.9643
36.4077 848 29.1204
36.524 786 28.0357
36.6403 814 28.5307
36.7565 735 27.1109
36.8727 748 27.3496
36.9889 656 25.6125
37.1049 667 25.8263
37.221 0 1
37.3369 0 1
37.4529 0 1
37.5687 0 1
37.6845 0 1
37.8003 0 1
37.916 0 1
38.0316 0 1
38.1472 0 1
40.5851 0 1
40.7008 0 1
40.8164 0 1
40.9322 0 1
41.048 0 1
41.1639 0 1
41.2798 0 1
41.3958 0 1
41.5118 0 1
41.6279 0 1
41.744 478 21.8632
41.8602 466 21.587
41.9765 539 23.2164
42.0928 548 23.4094
42.2091 566 23.7908
42.3255 532 23.0651
42.4419 522 22.8473
42.5584 532 23.0651
42.675 576 24
42.7915 614 24.779
42.9081 698 26.4197
43.0248 704 26.533
43.1415 716 26.7582
43.2582 729 27
43.375 708 26.6083
43.4918 719 26.8142
43.6087 745 27.2947
43.7256 773 27.8029
43.8425 716 26.7582
43.9595 710 26.6458
44.0765 687 26.2107
44.1935 661 25.7099
44.3106 661 25.7099
44.4277 638 25.2587
44.5448 572 23.9165
44.6619 660 25.6905
44.7791 641 25.318
44.8963 660 25.6905
45.0136 749 27.3679
45.1308 775 27.8388
45.2481 807 28.4077
45.3654 790 28.1069
45.4827 756 27.4955
45.6001 785 28.0179
45.7174 725 26.9258
45.8348 683 26.1343
45.9522 640 25.2982
46.0697 624 24.98
46.1871 660 25.6905
46.3046 673 25.9422
46.422 694 26.3439
46.5395 724 26.9072
46.657 704 26.533
46.7745 808 28.4253
46.892 796 28.2135
47.0096 792 28.1425
47.1271 772 27.7849
47.2446 740 27.2029
47.3622 792 28.1425
47.4797 744 27.2764
47.5973 732 27.0555
47.7149 762 27.6043
47.8324 680 26.0768
47.95 710 26.6458
48.0675 649 25.4755
48.1851 641 25.318
48.3027 641 25.318
48.4202 703 26.5141
48.5378 717 26.7769
48.6554 755 27.4773
48.7729 805 28.3725
48.8904 801 28.3019
49.008 776 27.8568
49.1255 771 27.7669
49.243 748 27.3496
49.3605 660 25.6905
49.478 649 25.4755
49.5955 614 24.779
49.713 614 24.779
49.8304 624 24.98
49.9479 660 25.6905
50.0653 705 26.5518
50.1827 699 26.4386
50.3001 778 27.8927
50.4175 804 28.3549
50.5348 855 29.2404
50.6521 889 29.8161
50.7694 807 28.4077
50.8867 880 29.6648
51.004 830 28.8097
51.1212 847 29.1033
51.2384 843 29.0345
51.3556 847 29.1033
51.4727 794 28.178
51.5899 773 27.8029
51.707 724 26.9072
51.824 774 27.8209
51.9411 895 29.9166
52.0581 948 30.7896
52.175 1041 32.2645
52.2919 1138 33.7343
52.4088 1153 33.9559
52.5257 1146 33.8526
52.6425 1184 34.4093
52.7593 1179 34.3366
52.876 1158 34.0294
52.9927 1039 32.2335
53.1094 1035 32.1714
53.226 991 31.4802
53.3426 990 31.4643
53.4591 919 30.315
53.5756 924 30.3974
53.692 980 31.305
53.8084 899 29.9833
53.9248 916 30.2655
54.0411 838 28.9482
54.1573 754 27.4591
54.2735 0 1
54.3896 0 1
54.5057 0 1
54.6217 0 1
54.7377 0 1
54.8537 0 1
54.9695 0 1
55.0853 0 1
55.2011 0 1
55.3168 0 1
55.4324 0 1
57.824 0 1
57.9396 0 1
58.0553 0 1
58.1711 0 1
58.2869 0 1
58.4028 0 1
58.5187 0 1
58.6347 0 1
58.7508 0 1
58.8669 0 1
58.983 550 23.4521
59.0992 655 25.593
59.2155 699 26.4386
59.3318 757 27.5136
59.4482 783 27.9821
59.5646 843 29.0345
59.681 814 28.5307
59.7975 854 29.2233
59.9141 825 28.7228
60.0306 871 29.5127
60.1473 837 28.931
60.2639 868 29.4618
60.3807 723 26.8887
60.4974 807 28.4077
60.6142 927 30.4467
60.731 875 29.5804
60.8479 963 31.0322
60.9648 962 31.0161
61.0818 986 31.4006
61.1987 968 31.1127
61.3158 933 30.545
61.4328 946 30.7571
61.5499 926 30.4302
61.667 822 28.6705
61.7841 788 28.0713
61.9013 770 27.7489
62.0185 750 27.3861
62.1357 810 28.4605
62.253 898 29.9666
62.3702 867 29.4449
62.4875 953 30.8707
62.6049 916 30.2655
62.7222 916 30.2655
62.8396 999 31.607
62.9569 1023 31.9844
63.0743 1036 32.187
63.1918 934 30.5614
63.3092 920 30.3315
63.4267 945 30.7409
63.5441 892 29.8664
63.6616 825 28.7228
63.7791 780 27.9285
63.8966 779 27.9106
64.0142 763 27.6225
64.1317 793 28.1603
64.2492 879 29.6479
64.3668 895 29.9166
64.4843 906 30.0998
64.6019 938 30.6268
64.7195 932 30.5287
64.837 924 30.3974
64.9546 920 30.3315
65.0722 956 30.9192
65.1898 806 28.3901
65.3074 779 27.9106
65.4249 727 26.9629
65.5425 736 27.1293
65.6601 693 26.3249
65.7777 786 28.0357
65.8952 838 28.9482
66.0128 887 29.7825
66.1304 866 29.4279
66.2479 901 30.0167
66.3655 920 30.3315
66.483 998 31.5911
66.6005 972 31.1769
66.718 979 31.289
66.8355 957 30.9354
66.953 949 30.8058
67.0705 849 29.1376
67.1879 848 29.1204
67.3054 851 29.1719
67.4228 780 27.9285
67.5402 762 27.6043
67.6576 762 27.6043
67.7749 763 27.6225
67.8923 801 28.3019
68.0096 907 30.1164
68.1269 887 29.7825
68.2442 905 30.0832
68.3614 896 29.9333
68.4787 930 30.4959
68.5958 933 30.545
68.713 871 29.5127
68.8302 770 27.7489
68.9473 803 28.3373
69.0643 722 26.8701
69.1814 653 25.5539
69.2984 710 26.6458
69.4154 681 26.096
69.5323 767 27.6948
69.6492 872 29.5296
69.7661 850 29.1548
69.8829 891 29.8496
69.9997 872 29.5296
70.1165 835 28.8964
70.2332 835 28.8964
70.3499 840 28.9828
70.4665 765 27.6586
70.5831 746 27.313
70.6996 703 26.5141
70.8161 627 25.04
70.9326 574 23.9583
71.049 535 23.1301
71.1653 443 21.0476
71.2817 393 19.8242
71.3979 348 18.6548
71.5141 324 18
71.6303 300 17.3205
71.7464 268 16.3707
71.8624 0 1
71.9784 0 1
72.0944 0 1
72.2102 0 1
72.3261 0 1
72.4418 0 1
72.5575 0 1
72.6732 0 1
75.1054 0 1
75.2209 0 1
75.3365 0 1
75.4521 0 1
75.5678 0 1
75.6835 0 1
75.7993 0 1
75.9151 0 1
76.031 0 1
76.147 536 23.1517
76.263 626 25.02
76.3791 591 24.3105
76.4952 578 24.0416
76.6113 557 23.6008
76.7276 641 25.318
76.8438 680 26.0768
76.9601 739 27.1846
77.0765 791 28.1247
77.1929 806 28.3901
77.3093 799 28.2666
77.4258 807 28.4077
77.5423 817 28.5832
77.6589 760 27.5681
77.7755 732 27.0555
77.8921 671 25.9037
78.0088 614 24.779
78.1256 635 25.1992
78.2423 584 24.1661
78.3591 596 24.4131
78.4759 682 26.1151
78.5928 705 26.5518
78.7097 748 27.3496
78.8266 773 27.8029
78.9436 808 28.4253
79.0606 795 28.1957
79.1776 804 28.3549
79.2946 838 28.9482
79.4117 849 29.1376
79.5288 798 28.2489
79.6459 815 28.5482
79.7631 809 28.4429
79.8802 745 27.2947
79.9974 717 26.7769
80.1147 605 24.5967
80.2319 639 25.2784
80.3491 622 24.9399
80.4664 681 26.096
80.5837 767 27.6948
80.701 782 27.9643
80.8183 876 29.5973
80.9357 787 28.0535
81.053 886 29.7658
81.1704 779 27.9106
81.2877 819 28.6182
81.4051 823 28.688
81.5225 748 27.3496
81.6399 683 26.1343
81.7573 695 26.3629
81.8747 577 24.0208
81.9922 581 24.1039
82.1096 597 24.4336
82.227 739 27.1846
82.3444 756 27.4955
82.4619 754 27.4591
82.5793 833 28.8617
82.6967 803 28.3373
82.8142 834 28.8791
82.9316 830 28.8097
83.049 859 29.3087
83.1664 889 29.8161
83.2838 803 28.3373
83.4012 770 27.7489
83.5186 768 27.7128
83.636 796 28.2135
83.7534 706 26.5707
83.8708 682 26.1151
83.9881 654 25.5734
84.1055 678 26.0384
84.2228 750 27.3861
84.3401 774 27.8209
84.4575 834 28.8791
84.5747 830 28.8097
84.692 886 29.7658
84.8093 855 29.2404
84.9265 856 29.2575
85.0437 828 28.775
85.1609 753 27.4408
85.2781 645 25.3969
85.3952 618 24.8596
85.5123 587 24.2281
85.6294 606 24.6171
85.7465 636 25.219
85.8636 761 27.5862
85.9806 736 27.1293
86.0976 814 28.5307
86.2145 840 28.9828
86.3315 808 28.4253
86.4484 815 28.5482
86.5652 844 29.0517
86.682 887 29.7825
86.7988 906 30.0998
86.9156 849 29.1376
87.0323 762 27.6043
87.149 808 28.4253
87.2657 796 28.2135
87.3823 670 25.8844
87.4988 645 25.3969
87.6154 547 23.388
87.7318 559 23.6432
87.8483 618 24.8596
87.9647 651 25.5147
88.081 667 25.8263
88.1973 707 26.5895
88.3136 648 25.4558
88.4298 590 24.2899
88.546 594 24.3721
88.6621 518 22.7596
88.7781 422 20.5426
88.8942 0 1
89.0101 0 1
89.126 0 1
89.2419 0 1
89.3577 0 1
89.4734 0 1
89.5891 0 1
89.7047 0 1
89.8203 0 1
89.9358 0 1
92.3269 0 1
92.4424 0 1
92.558 0 1
92.6736 0 1
92.7893 0 1
92.905 0 1
93.0208 0 1
93.1366 0 1
93.2525 0 1
93.3685 0 1
93.4845 0 1
93.6005 668 25.8457
93.7167 687 26.2107
93.8328 706 26.5707
93.949 688 26.2298
94.0653 729 27
94.1816 723 26.8887
94.2979 732 27.0555
94.4143 689 26.2488
94.5307 657 25.632
94.6472 620 24.8998
94.7637 669 25.865
94.8803 668 25.8457
94.9969 747 27.3313
95.1135 782 27.9643
95.2302 762 27.6043
95.3469 856 29.2575
95.4637 825 28.7228
95.5805 785 28.0179
95.6973 881 29.6816
95.8142 851 29.1719
95.9311 880 29.6648
96.048 832 28.8444
96.1649 852 29.189
96.2819 851 29.1719
96.3989 749 27.3679
96.516 792 28.1425
96.633 645 25.3969
96.7501 671 25.9037
96.8673 690 26.2679
96.9844 709 26.6271
97.1016 782 27.9643
97.2188 831 28.8271
97.336 910 30.1662
97.4532 894 29.8998
97.5704 965 31.0644
97.6877 915 30.249
97.805 836 28.9137
97.9223 841 29
98.0396 751 27.4044
98.1569 699 26.4386
98.2743 668 25.8457
98.3916 600 24.4949
98.509 727 26.9629
98.6264 727 26.9629
98.7438 754 27.4591
98.8612 873 29.5466
98.9786 847 29.1033
99.096 898 29.9666
99.2134 930 30.4959
99.3308 919 30.315
99.4482 901 30.0167
99.5656 925 30.4138
99.6831 924 30.3974
99.8005 896 29.9333
99.9179 892 29.8664
100.035 819 28.6182
100.153 818 28.6007
100.27 747 27.3313
100.388 782 27.9643
100.505 742 27.2397
100.622 802 28.3196
100.74 894 29.8998
100.857 899 29.9833
100.975 915 30.249
101.092 924 30.3974
101.209 900 30
101.327 949 30.8058
101.444 930 30.4959
101.561 875 29.5804
101.679 755 27.4773
101.796 672 25.923
101.913 670 25.8844
102.03 695 26.3629
102.148 816 28.5657
102.265 808 28.4253
102.382 950 30.8221
102.499 873 29.5466
102.616 916 30.2655
102.733 965 31.0644
102.851 984 31.3688
102.968 975 31.225
103.085 988 31.4325
103.202 973 31.1929
103.319 1005 31.7017
103.436 947 30.7734
103.552 901 30.0167
103.669 925 30.4138
103.786 851 29.1719
103.903 806 28.3901
104.02 753 27.4408
104.137 901 30.0167
104.253 942 30.692
104.37 994 31.5278
104.487 1027 32.0468
104.603 982 31.3369
104.72 1065 32.6343
104.836 957 30.9354
104.953 938 30.6268
105.069 794 28.178
105.186 749 27.3679
105.302 626 25.02
105.418 604 24.5764
105.535 615 24.7992
105.651 627 25.04
105.767 673 25.9422
105.883 638 25.2587
105.999 590 24.2899
106.115 0 1
106.231 0 1
106.347 0 1
106.463 0 1
106.579 0 1
106.694 0 1
106.81 0 1
106.926 0 1
107.041 0 1
107.157 0 1
109.576 0 1
109.692 0 1
109.807 0 1
109.923 0 1
110.039 0 1
110.155 0 1
110.27 0 1
110.386 0 1
110.502 0 1
110.618 387 19.6723
110.735 496 22.2711
110.851 616 24.8193
110.967 697 26.4008
111.083 760 27.5681
111.199 868 29.4618
111.316 870 29.4958
111.432 935 30.5778
111.549 876 29.5973
111.665 893 29.8831
111.782 947 30.7734
111.898 975 31.225
112.015 890 29.8329
112.132 929 30.4795
112.248 790 28.1069
112.365 756 27.4955
112.482 768 27.7128
112.599 807 28.4077
112.716 854 29.2233
112.832 895 29.9166
112.949 895 29.9166
113.066 941 30.6757
113.183 1012 31.8119
113.3 903 30.05
113.417 937 30.6105
113.534 949 30.8058
113.652 863 29.3769
113.769 737 27.1477
113.886 702 26.4953
114.003 673 25.9422
114.12 747 27.3313
114.238 794 28.178
114.355 850 29.1548
114.472 889 29.8161
114.589 953 30.8707
114.707 980 31.305
114.824 968 31.1127
114.942 1008 31.749
115.059 953 30.8707
115.176 968 31.1127
115.294 936 30.5941
115.411 962 31.0161
115.529 930 30.4959
115.646 944 30.7246
115.764 859 29.3087
115.881 817 28.5832
115.999 777 27.8747
116.116 797 28.2312
116.234 863 29.3769
116.351 900 30
116.469 909 30.1496
116.586 934 30.5614
116.704 915 30.249
116.821 907 30.1164
116.939 892 29.8664
117.056 891 29.8496
117.174 905 30.0832
117.291 826 28.7402
117.409 725 26.9258
117.526 675 25.9808
117.644 710 26.6458
117.761 707 26.5895
117.879 809 28.4429
117.996 923 30.3809
118.114 879 29.6479
118.231 852 29.189
118.349 915 30.249
118.466 899 29.9833
118.584 974 31.209
118.701 910 30.1662
118.819 887 29.7825
118.936 882 29.6985
119.053 827 28.7576
119.171 869 29.4788
119.288 825 28.7228
119.405 747 27.3313
119.523 702 26.4953
119.64 700 26.4575
119.757 746 27.313
119.875 759 27.55
119.992 777 27.8747
120.109 797 28.2312
120.226 869 29.4788
120.343 871 29.5127
120.46 862 29.3598
120.578 879 29.6479
120.695 763 27.6225
120.812 760 27.5681
120.929 726 26.9444
121.046 613 24.7588
121.163 630 25.0998
121.279 593 24.3516
121.396 598 24.454
121.513 664 25.7682
121.63 644 25.3772
121.747 649 25.4755
121.863 678 26.0384
121.98 631 25.1197
122.097 677 26.0192
122.213 702 26.4953
122.33 711 26.6646
122.446 656 25.6125
122.563 591 24.3105
122.679 605 24.5967
122.795 509 22.561
122.912 480 21.9089
123.028 402 20.0499
123.144 329 18.1384
123.26 317 17.8045
123.377 0 1
123.493 0 1
123.609 0 1
123.725 0 1
123.84 0 1
123.956 0 1
124.072 0 1
124.188 0 1
124.303 0 1
124.419 0 1
126.852 0 1
126.968 0 1
127.083 0 1
127.199 0 1
127.315 0 1
127.431 0 1
127.547 0 1
127.663 0 1
127.779 0 1
127.895 0 1
128.011 0 1
128.127 0 1
128.243 0 1
128.359 853 29.2062
128.476 811 28.4781
128.592 796 28.2135
128.708 805 28.3725
128.825 804 28.3549
128.941 936 30.5941
129.058 893 29.8831
129.174 945 30.7409
129.291 945 30.7409
129.408 954 30.8869
129.524 986 31.4006
129.641 926 30.4302
129.758 955 30.9031
129.875 888 29.7993
129.992 818 28.6007
130.108 781 27.9464
130.225 653 25.5539
130.342 685 26.1725
130.459 736 27.1293
130.576 810 28.4605
130.693 869 29.4788
130.81 874 29.5635
130.928 913 30.2159
131.045 845 29.0689
131.162 902 30.0333
131.279 954 30.8869
131.396 975 31.225
131.513 930 30.4959
131.631 952 30.8545
131.748 945 30.7409
131.865 889 29.8161
131.983 861 29.3428
132.1 802 28.3196
132.217 803 28.3373
132.335 783 27.9821
132.452 809 28.4429
132.57 886 29.7658
132.687 958 30.9516
132.804 949 30.8058
132.922 923 30.3809
133.039 945 30.7409
133.157 957 30.9354
133.274 993 31.5119
133.392 884 29.7321
133.509 830 28.8097
133.627 798 28.2489
133.744 748 27.3496
133.862 721 26.8514
133.979 684 26.1534
134.097 814 28.5307
134.214 843 29.0345
134.332 863 29.3769
134.449 911 30.1828
134.567 895 29.9166
134.684 957 30.9354
134.802 912 30.1993
134.919 955 30.9031
135.037 997 31.5753
135.154 966 31.0805
135.272 956 30.9192
135.389 925 30.4138
135.507 865 29.4109
135.624 882 29.6985
135.742 825 28.7228
135.859 814 28.5307
135.977 830 28.8097
136.094 794 28.178
136.211 885 29.7489
136.329 887 29.7825
136.446 958 30.9516
136.564 951 30.8383
136.681 966 31.0805
136.798 1008 31.749
136.915 920 30.3315
137.033 921 30.348
137.15 840 28.9828
137.267 781 27.9464
137.384 789 28.0891
137.502 690 26.2679
137.619 677 26.0192
137.736 781 27.9464
137.853 812 28.4956
137.97 833 28.8617
138.087 888 29.7993
138.204 917 30.282
138.321 959 30.9677
138.438 880 29.6648
138.555 982 31.3369
138.672 902 30.0333
138.788 943 30.7083
138.905 864 29.3939
139.022 846 29.0861
139.139 738 27.1662
139.255 749 27.3679
139.372 705 26.5518
139.488 634 25.1794
139.605 620 24.8998
139.721 627 25.04
139.838 629 25.0799
139.954 632 25.1396
140.071 581 24.1039
140.187 571 23.8956
140.303 513 22.6495
140.419 477 21.8403
140.535 505 22.4722
140.652 472 21.7256
140.768 0 1
140.884 0 1
141 0 1
141.115 0 1
141.231 0 1
141.347 0 1
141.463 0 1
141.578 0 1
141.694 0 1
144.104 0 1
144.219 0 1
144.335 0 1
144.45 0 1
144.566 0 1
144.682 0 1
144.798 0 1
144.914 0 1
145.03 0 1
145.146 679 26.0576
145.262 744 27.2764
145.378 721 26.8514
145.494 759 27.55
145.61 772 27.7849
145.726 806 28.3901
145.842 703 26.5141
145.959 686 26.1916
146.075 629 25.0799
146.192 626 25.02
146.308 579 24.0624
146.425 626 25.02
146.541 645 25.3969
146.658 678 26.0384
146.774 648 25.4558
146.891 708 26.6083
147.008 768 27.7128
147.125 756 27.4955
147.241 706 26.5707
147.358 755 27.4773
147.475 752 27.4226
147.592 752 27.4226
147.709 703 26.5141
147.826 668 25.8457
147.943 702 26.4953
148.06 727 26.9629
148.177 640 25.2982
148.294 654 25.5734
148.411 654 25.5734
148.528 656 25.6125
148.645 708 26.6083
148.762 715 26.7395
148.88 735 27.1109
148.997 793 28.1603
149.114 737 27.1477
149.231 820 28.6356
149.349 732 27.0555
149.466 762 27.6043
149.583 690 26.2679
149.701 728 26.9815
149.818 619 24.8797
149.935 622 24.9399
150.053 577 24.0208
150.17 671 25.9037
150.287 672 25.923
150.405 645 25.3969
150.522 613 24.7588
150.64 652 25.5343
150.757 734 27.0924
150.875 703 26.5141
150.992 677 26.0192
151.11 691 26.2869
151.227 756 27.4955
151.344 665 25.7876
151.462 690 26.2679
151.579 721 26.8514
151.697 638 25.2587
151.814 589 24.2693
151.932 640 25.2982
152.049 647 25.4362
152.167 672 25.923
152.284 651 25.5147
152.402 670 25.8844
152.519 755 27.4773
152.636 657 25.632
152.754 717 26.7769
152.871 663 25.7488
152.989 669 25.865
153.106 704 26.533
153.223 606 24.6171
153.341 640 25.2982
153.458 611 24.7184
153.575 583 24.1454
153.693 514 22.6716
153.81 565 23.7697
153.927 588 24.2487
154.044 587 24.2281
154.162 640 25.2982
154.279 663 25.7488
154.396 700 26.4575
154.513 668 25.8457
154.63 690 26.2679
154.747 629 25.0799
154.864 622 24.9399
154.981 613 24.7588
155.098 621 24.9199
155.215 633 25.1595
155.332 606 24.6171
155.449 566 23.7908
155.566 607 24.6374
155.683 576 24
155.8 584 24.1661
155.917 564 23.7487
156.033 609 24.6779
156.15 0 1
156.267 0 1
156.383 0 1
156.5 0 1
156.617 0 1
156.733 0 1
156.85 0 1
156.966 0 1
157.082 0 1
157.199 0 1
157.315 0 1
157.431 0 1
157.547 0 1
157.664 0 1
157.78 0 1
157.896 0 1
158.012 0 1
158.128 0 1
158.244 0 1
158.359 0 1
158.475 0 1
158.591 0 1
158.706 0 1
