
6.15755 0 1
6.2731 0 1
6.3887 0 1
6.50437 0 1
6.62009 0 1
6.73587 0 1
6.8517 0 1
6.96759 0 1
7.08353 0 1
7.19952 0 1
7.31557 0 1
7.43166 0 1
7.54781 0 1
7.664 0 1
7.78024 0 1
7.89653 0 1
8.01286 0 1
8.12924 0 1
8.24567 0 1
8.36213 0 1
8.47864 0 1
8.59519 0 1
8.71178 0 1
8.82841 0 1
8.94508 0 1
9.06179 0 1
9.17853 0 1
9.29531 0 1
9.41212 0 1
9.52897 0 1
9.64584 0 1
9.76276 0 1
9.8797 0 1
9.99667 0 1
10.1137 0 1
10.2307 0 1
10.3478 0 1
10.4648 0 1
10.5819 0 1
10.6991 0 1
10.8162 0 1
10.9334 0 1
11.0506 0 1
11.1678 0 1
11.285 0 1
11.4023 0 1
11.5196 0 1
11.6369 0 1
11.7542 0 1
11.8715 0 1
11.9888 0 1
12.1062 0 1
12.2235 0 1
12.3409 0 1
12.4582 0 1
12.5756 0 1
12.693 0 1
12.8104 0 1
12.9278 0 1
13.0452 0 1
13.1626 0 1
13.28 0 1
13.3974 0 1
13.5149 0 1
13.6323 0 1
13.7497 0 1
13.8671 0 1
13.9845 0 1
14.1019 0 1
14.2193 0 1
14.3367 0 1
14.4541 0 1
14.5714 0 1
14.6888 0 1
14.8062 0 1
14.9235 0 1
15.0408 0 0
15.1581 0 0
15.2755 0 0
15.3927 0 0
15.51 0 0
15.6273 0 0
15.7445 0 0
15.8617 0 0
15.9789 0 0
16.0961 0 0
16.2132 0 0
16.3304 0 0
16.4475 0 0
16.5646 0 0
16.6816 0 0
16.7986 0 0
16.9156 0 0
17.0326 0 0
17.1496 0 0
17.2665 0 0
17.3833 0 0
17.5002 0 0
17.617 0 0
17.7338 0 0
17.8505 0 0
17.9672 0 0
18.0839 0 0
18.2005 0 0
18.3171 0 0
18.4337 0 0
18.5502 0 0
18.6666 0 0
18.7831 0 0
18.8994 0 0
19.0158 0 0
19.1321 0 0
19.2483 0 0
19.3645 0 0
19.4806 0 0
19.5967 0 0
19.7128 0 0
19.8288 0 0
19.9447 0 0
20.0606 0 1
20.1764 0 1
20.2922 0 1
20.4079 0 1
20.5236 0 1
20.6392 0 1
20.7548 0 1
20.8702 0 1
23.3078 0 1
23.4233 0 1
23.539 0 1
23.6547 0 1
23.7704 0 1
23.8862 0 1
24.0021 0 1
24.118 0 1
24.234 0 1
24.35 0 1
24.4661 1203 34.6843
24.5822 1275 35.7071
24.6984 1238 35.1852
24.8146 1280 35.7771
24.9309 1279 35.7631
25.0472 1320 36.3318
25.1636 1339 36.5923
25.28 1384 37.2022
25.3965 1392 37.3095
25.513 1459 38.1969
25.6296 1427 37.7757
25.7462 1415 37.6165
25.8628 1362 36.9053
25.9795 1469 38.3275
26.0962 1412 37.5766
26.213 1384 37.2022
26.3298 1403 37.4566
26.4466 1458 38.1838
26.5635 1463 38.2492
26.6804 1379 37.1349
26.7973 1293 35.9583
26.9143 1201 34.6554
27.0313 1244 35.2704
27.1483 1282 35.805
27.2653 1257 35.4542
27.3824 1304 36.1109
27.4996 1394 37.3363
27.6167 1231 35.0856
27.7339 1207 34.7419
27.8511 1230 35.0714
27.9683 1183 34.3948
28.0855 1190 34.4964
28.2028 1192 34.5254
28.3201 1123 33.5112
28.4374 1272 35.6651
28.5547 1257 35.4542
28.6721 1319 36.318
28.7894 1292 35.9444
28.9068 1349 36.7287
29.0242 1403 37.4566
29.1416 1286 35.8608
29.259 1328 36.4417
29.3764 1339 36.5923
29.4939 1302 36.0832
29.6113 1313 36.2353
29.7288 1318 36.3043
29.8463 1309 36.1801
29.9638 1402 37.4433
30.0812 1284 35.8329
30.1987 1297 36.0139
30.3162 1250 35.3553
30.4337 1176 34.2929
30.5512 1143 33.8083
30.6687 1180 34.3511
30.7862 1157 34.0147
30.9037 1242 35.242
31.0212 1159 34.0441
31.1387 1174 34.2637
31.2562 1197 34.5977
31.3737 1234 35.1283
31.4912 1170 34.2053
31.6087 1190 34.4964
31.7262 1159 34.0441
31.8436 1219 34.9142
31.9611 1211 34.7994
32.0785 1194 34.5543
32.1959 1235 35.1426
32.3134 1268 35.609
32.4308 1361 36.8917
32.5482 1303 36.0971
32.6655 1285 35.8469
32.7829 1326 36.4143
32.9002 1265 35.5668
33.0176 1266 35.5809
33.1349 1294 35.9722
33.2522 1310 36.1939
33.3694 1333 36.5103
33.4867 1269 35.623
33.6039 1325 36.4005
33.7211 1233 35.1141
33.8383 1322 36.3593
33.9554 1214 34.8425
34.0725 1163 34.1028
34.1896 1107 33.2716
34.3067 1063 32.6037
34.4237 1073 32.7567
34.5407 1155 33.9853
34.6577 1173 34.2491
34.7746 1156 34
34.8915 1181 34.3657
35.0084 1152 33.9411
35.1252 1113 33.3617
35.242 1047 32.3574
35.3587 1178 34.322
35.4755 1145 33.8378
35.5921 1160 34.0588
35.7088 1183 34.3948
35.8254 1159 34.0441
35.9419 1220 34.9285
36.0584 1270 35.6371
36.1749 1234 35.1283
36.2913 1232 35.0999
36.4077 1284 35.8329
36.524 1298 36.0278
36.6403 1217 34.8855
36.7565 1238 35.1852
36.8727 1248 35.327
36.9889 1208 34.7563
37.1049 1197 34.5977
37.221 0 1
37.3369 0 1
37.4529 0 1
37.5687 0 1
37.6845 0 1
37.8003 0 1
37.916 0 1
38.0316 0 1
38.1472 0 1
40.5851 0 1
40.7008 0 1
40.8164 0 1
40.9322 0 1
41.048 0 1
41.1639 0 1
41.2798 0 1
41.3958 0 1
41.5118 0 1
41.6279 0 1
41.744 1025 32.0156
41.8602 1043 32.2955
41.9765 1005 31.7017
42.0928 1042 32.28
42.2091 1011 31.7962
42.3255 1095 33.0908
42.4419 1104 33.2265
42.5584 1045 32.3265
42.675 1059 32.5423
42.7915 1049 32.3883
42.9081 1010 31.7805
43.0248 958 30.9516
43.1415 889 29.8161
43.2582 912 30.1993
43.375 945 30.7409
43.4918 961 31
43.6087 965 31.0644
43.7256 959 30.9677
43.8425 941 30.6757
43.9595 903 30.05
44.0765 932 30.5287
44.1935 945 30.7409
44.3106 895 29.9166
44.4277 962 31.0161
44.5448 954 30.8869
44.6619 994 31.5278
44.7791 915 30.249
44.8963 939 30.6431
45.0136 906 30.0998
45.1308 916 30.2655
45.2481 931 30.5123
45.3654 884 29.7321
45.4827 877 29.6142
45.6001 929 30.4795
45.7174 889 29.8161
45.8348 929 30.4795
45.9522 847 29.1033
46.0697 884 29.7321
46.1871 858 29.2916
46.3046 888 29.7993
46.422 877 29.6142
46.5395 769 27.7308
46.657 744 27.2764
46.7745 699 26.4386
46.892 681 26.096
47.0096 751 27.4044
47.1271 774 27.8209
47.2446 717 26.7769
47.3622 716 26.7582
47.4797 707 26.5895
47.5973 638 25.2587
47.7149 622 24.9399
47.8324 740 27.2029
47.95 728 26.9815
48.0675 734 27.0924
48.1851 715 26.7395
48.3027 732 27.0555
48.4202 680 26.0768
48.5378 733 27.074
48.6554 696 26.3818
48.7729 712 26.6833
48.8904 729 27
49.008 739 27.1846
49.1255 747 27.3313
49.243 741 27.2213
49.3605 722 26.8701
49.478 751 27.4044
49.5955 722 26.8701
49.713 755 27.4773
49.8304 716 26.7582
49.9479 801 28.3019
50.0653 758 27.5318
50.1827 718 26.7955
50.3001 615 24.7992
50.4175 627 25.04
50.5348 665 25.7876
50.6521 684 26.1534
50.7694 711 26.6646
50.8867 738 27.1662
51.004 767 27.6948
51.1212 739 27.1846
51.2384 835 28.8964
51.3556 777 27.8747
51.4727 836 28.9137
51.5899 826 28.7402
51.707 873 29.5466
51.824 905 30.0832
51.9411 882 29.6985
52.0581 905 30.0832
52.175 868 29.4618
52.2919 944 30.7246
52.4088 944 30.7246
52.5257 957 30.9354
52.6425 913 30.2159
52.7593 956 30.9192
52.876 986 31.4006
52.9927 897 29.95
53.1094 956 30.9192
53.226 960 30.9839
53.3426 963 31.0322
53.4591 964 31.0483
53.5756 959 30.9677
53.692 953 30.8707
53.8084 965 31.0644
53.9248 872 29.5296
54.0411 816 28.5657
54.1573 858 29.2916
54.2735 0 1
54.3896 0 1
54.5057 0 1
54.6217 0 1
54.7377 0 1
54.8537 0 1
54.9695 0 1
55.0853 0 1
55.2011 0 1
55.3168 0 1
55.4324 0 1
57.824 0 1
57.9396 0 1
58.0553 0 1
58.1711 0 1
58.2869 0 1
58.4028 0 1
58.5187 0 1
58.6347 0 1
58.7508 0 1
58.8669 0 1
58.983 1036 32.187
59.0992 950 30.8221
59.2155 937 30.6105
59.3318 904 30.0666
59.4482 965 31.0644
59.5646 906 30.0998
59.681 1024 32
59.7975 1075 32.7872
59.9141 1112 33.3467
60.0306 1023 31.9844
60.1473 1091 33.0303
60.2639 1049 32.3883
60.3807 1035 32.1714
60.4974 1030 32.0936
60.6142 1069 32.6956
60.731 1045 32.3265
60.8479 991 31.4802
60.9648 1079 32.8481
61.0818 1094 33.0757
61.1987 1030 32.0936
61.3158 1004 31.686
61.4328 1051 32.4191
61.5499 1001 31.6386
61.667 968 31.1127
61.7841 1019 31.9218
61.9013 1053 32.45
62.0185 1003 31.6702
62.1357 933 30.545
62.253 946 30.7571
62.3702 981 31.3209
62.4875 935 30.5778
62.6049 805 28.3725
62.7222 837 28.931
62.8396 869 29.4788
62.9569 861 29.3428
63.0743 850 29.1548
63.1918 920 30.3315
63.3092 890 29.8329
63.4267 890 29.8329
63.5441 974 31.209
63.6616 879 29.6479
63.7791 926 30.4302
63.8966 912 30.1993
64.0142 927 30.4467
64.1317 960 30.9839
64.2492 862 29.3598
64.3668 890 29.8329
64.4843 937 30.6105
64.6019 917 30.282
64.7195 898 29.9666
64.837 882 29.6985
64.9546 913 30.2159
65.0722 874 29.5635
65.1898 901 30.0167
65.3074 820 28.6356
65.4249 866 29.4279
65.5425 871 29.5127
65.6601 831 28.8271
65.7777 867 29.4449
65.8952 876 29.5973
66.0128 853 29.2062
66.1304 805 28.3725
66.2479 729 27
66.3655 696 26.3818
66.483 705 26.5518
66.6005 759 27.55
66.718 765 27.6586
66.8355 750 27.3861
66.953 844 29.0517
67.0705 816 28.5657
67.1879 812 28.4956
67.3054 836 28.9137
67.4228 804 28.3549
67.5402 829 28.7924
67.6576 802 28.3196
67.7749 804 28.3549
67.8923 779 27.9106
68.0096 786 28.0357
68.1269 824 28.7054
68.2442 758 27.5318
68.3614 836 28.9137
68.4787 830 28.8097
68.5958 806 28.3901
68.713 770 27.7489
68.8302 774 27.8209
68.9473 789 28.0891
69.0643 767 27.6948
69.1814 789 28.0891
69.2984 763 27.6225
69.4154 769 27.7308
69.5323 805 28.3725
69.6492 768 27.7128
69.7661 746 27.313
69.8829 676 26
69.9997 661 25.7099
70.1165 640 25.2982
70.2332 670 25.8844
70.3499 720 26.8328
70.4665 685 26.1725
70.5831 713 26.7021
70.6996 735 27.1109
70.8161 747 27.3313
70.9326 737 27.1477
71.049 724 26.9072
71.1653 769 27.7308
71.2817 697 26.4008
71.3979 703 26.5141
71.5141 674 25.9615
71.6303 665 25.7876
71.7464 576 24
71.8624 0 1
71.9784 0 1
72.0944 0 1
72.2102 0 1
72.3261 0 1
72.4418 0 1
72.5575 0 1
72.6732 0 1
75.1054 0 1
75.2209 0 1
75.3365 0 1
75.4521 0 1
75.5678 0 1
75.6835 0 1
75.7993 0 1
75.9151 0 1
76.031 0 1
76.147 556 23.5797
76.263 612 24.7386
76.3791 621 24.9199
76.4952 596 24.4131
76.6113 581 24.1039
76.7276 533 23.0868
76.8438 620 24.8998
76.9601 530 23.0217
77.0765 541 23.2594
77.1929 552 23.4947
77.3093 534 23.1084
77.4258 574 23.9583
77.5423 524 22.891
77.6589 544 23.3238
77.7755 510 22.5832
77.8921 513 22.6495
78.0088 534 23.1084
78.1256 475 21.7945
78.2423 462 21.4942
78.3591 452 21.2603
78.4759 452 21.2603
78.5928 474 21.7715
78.7097 447 21.1424
78.8266 487 22.0681
78.9436 461 21.4709
79.0606 405 20.1246
79.1776 319 17.8606
79.2946 359 18.9473
79.4117 386 19.6469
79.5288 416 20.3961
79.6459 405 20.1246
79.7631 405 20.1246
79.8802 389 19.7231
79.9974 392 19.799
80.1147 365 19.105
80.2319 365 19.105
80.3491 366 19.1311
80.4664 398 19.9499
80.5837 371 19.2614
80.701 330 18.1659
80.8183 349 18.6815
80.9357 308 17.5499
81.053 323 17.9722
81.1704 327 18.0831
81.2877 305 17.4642
81.4051 316 17.7764
81.5225 291 17.0587
81.6399 278 16.6733
81.7573 268 16.3707
81.8747 225 15
81.9922 282 16.7929
82.1096 235 15.3297
82.227 238 15.4272
82.3444 227 15.0665
82.4619 211 14.5258
82.5793 221 14.8661
82.6967 227 15.0665
82.8142 205 14.3178
82.9316 169 13
83.049 190 13.784
83.1664 183 13.5277
83.2838 180 13.4164
83.4012 162 12.7279
83.5186 167 12.9228
83.636 154 12.4097
83.7534 165 12.8452
83.8708 163 12.7671
83.9881 138 11.7473
84.1055 142 11.9164
84.2228 113 10.6301
84.3401 113 10.6301
84.4575 120 10.9545
84.5747 116 10.7703
84.692 132 11.4891
84.8093 137 11.7047
84.9265 108 10.3923
85.0437 117 10.8167
85.1609 113 10.6301
85.2781 111 10.5357
85.3952 89 9.43398
85.5123 97 9.84886
85.6294 96 9.79796
85.7465 113 10.6301
85.8636 89 9.43398
85.9806 103 10.1489
86.0976 101 10.0499
86.2145 92 9.59166
86.3315 94 9.69536
86.4484 126 11.225
86.5652 132 11.4891
86.682 131 11.4455
86.7988 137 11.7047
86.9156 138 11.7473
87.0323 128 11.3137
87.149 149 12.2066
87.2657 143 11.9583
87.3823 152 12.3288
87.4988 163 12.7671
87.6154 180 13.4164
87.7318 170 13.0384
87.8483 207 14.3875
87.9647 194 13.9284
88.081 222 14.8997
88.1973 215 14.6629
88.3136 203 14.2478
88.4298 240 15.4919
88.546 276 16.6132
88.6621 275 16.5831
88.7781 264 16.2481
88.8942 0 1
89.0101 0 1
89.126 0 1
89.2419 0 1
89.3577 0 1
89.4734 0 1
89.5891 0 1
89.7047 0 1
89.8203 0 1
89.9358 0 1
92.3269 0 1
92.4424 0 1
92.558 0 1
92.6736 0 1
92.7893 0 1
92.905 0 1
93.0208 0 1
93.1366 0 1
93.2525 0 1
93.3685 0 1
93.4845 0 1
93.6005 405 20.1246
93.7167 450 21.2132
93.8328 382 19.5448
93.949 351 18.735
94.0653 358 18.9209
94.1816 385 19.6214
94.2979 326 18.0555
94.4143 376 19.3907
94.5307 341 18.4662
94.6472 325 18.0278
94.7637 334 18.2757
94.8803 321 17.9165
94.9969 328 18.1108
95.1135 316 17.7764
95.2302 317 17.8045
95.3469 290 17.0294
95.4637 236 15.3623
95.5805 232 15.2315
95.6973 302 17.3781
95.8142 355 18.8414
95.9311 343 18.5203
96.048 355 18.8414
96.1649 372 19.2873
96.2819 371 19.2614
96.3989 382 19.5448
96.516 392 19.799
96.633 397 19.9249
96.7501 432 20.7846
96.8673 379 19.4679
96.9844 412 20.2978
97.1016 434 20.8327
97.2188 454 21.3073
97.336 463 21.5174
97.4532 462 21.4942
97.5704 439 20.9523
97.6877 496 22.2711
97.805 487 22.0681
97.9223 550 23.4521
98.0396 540 23.2379
98.1569 526 22.9347
98.2743 545 23.3452
98.3916 509 22.561
98.509 601 24.5153
98.6264 596 24.4131
98.7438 568 23.8328
98.8612 584 24.1661
98.9786 562 23.7065
99.096 369 19.2094
99.2134 412 20.2978
99.3308 582 24.1247
99.4482 642 25.3377
99.5656 658 25.6515
99.6831 676 26
99.8005 657 25.632
99.9179 659 25.671
100.035 675 25.9808
100.153 710 26.6458
100.27 707 26.5895
100.388 719 26.8142
100.505 753 27.4408
100.622 744 27.2764
100.74 762 27.6043
100.857 768 27.7128
100.975 788 28.0713
101.092 772 27.7849
101.209 726 26.9444
101.327 763 27.6225
101.444 740 27.2029
101.561 828 28.775
101.679 788 28.0713
101.796 822 28.6705
101.913 781 27.9464
102.03 787 28.0535
102.148 769 27.7308
102.265 874 29.5635
102.382 769 27.7308
102.499 703 26.5141
102.616 644 25.3772
102.733 544 23.3238
102.851 666 25.807
102.968 798 28.2489
103.085 859 29.3087
103.202 835 28.8964
103.319 847 29.1033
103.436 874 29.5635
103.552 819 28.6182
103.669 802 28.3196
103.786 872 29.5296
103.903 859 29.3087
104.02 846 29.0861
104.137 895 29.9166
104.253 859 29.3087
104.37 851 29.1719
104.487 873 29.5466
104.603 894 29.8998
104.72 823 28.688
104.836 872 29.5296
104.953 866 29.4279
105.069 943 30.7083
105.186 849 29.1376
105.302 834 28.8791
105.418 871 29.5127
105.535 891 29.8496
105.651 879 29.6479
105.767 849 29.1376
105.883 819 28.6182
105.999 770 27.7489
106.115 0 1
106.231 0 1
106.347 0 1
106.463 0 1
106.579 0 1
106.694 0 1
106.81 0 1
106.926 0 1
107.041 0 1
107.157 0 1
109.576 0 1
109.692 0 1
109.807 0 1
109.923 0 1
110.039 0 1
110.155 0 1
110.27 0 1
110.386 0 1
110.502 0 1
110.618 686 26.1916
110.735 701 26.4764
110.851 667 25.8263
110.967 702 26.4953
111.083 600 24.4949
111.199 562 23.7065
111.316 532 23.0651
111.432 568 23.8328
111.549 657 25.632
111.665 638 25.2587
111.782 673 25.9422
111.898 651 25.5147
112.015 681 26.096
112.132 614 24.779
112.248 633 25.1595
112.365 611 24.7184
112.482 553 23.516
112.599 552 23.4947
112.716 606 24.6171
112.832 567 23.8118
112.949 584 24.1661
113.066 500 22.3607
113.183 578 24.0416
113.3 553 23.516
113.417 568 23.8328
113.534 576 24
113.652 534 23.1084
113.769 488 22.0907
113.886 527 22.9565
114.003 523 22.8692
114.12 524 22.891
114.238 508 22.5389
114.355 466 21.587
114.472 501 22.383
114.589 474 21.7715
114.707 482 21.9545
114.824 473 21.7486
114.942 425 20.6155
115.059 406 20.1494
115.176 493 22.2036
115.294 503 22.4277
115.411 434 20.8327
115.529 468 21.6333
115.646 524 22.891
115.764 505 22.4722
115.881 470 21.6795
115.999 467 21.6102
116.116 475 21.7945
116.234 482 21.9545
116.351 474 21.7715
116.469 490 22.1359
116.586 476 21.8174
116.704 473 21.7486
116.821 489 22.1133
116.939 482 21.9545
117.056 458 21.4009
117.174 475 21.7945
117.291 467 21.6102
117.409 457 21.3776
117.526 502 22.4054
117.644 450 21.2132
117.761 497 22.2935
117.879 448 21.166
117.996 385 19.6214
118.114 410 20.2485
118.231 416 20.3961
118.349 475 21.7945
118.466 474 21.7715
118.584 429 20.7123
118.701 442 21.0238
118.819 497 22.2935
118.936 492 22.1811
119.053 508 22.5389
119.171 459 21.4243
119.288 531 23.0434
119.405 497 22.2935
119.523 484 22
119.64 485 22.0227
119.757 510 22.5832
119.875 473 21.7486
119.992 507 22.5167
120.109 462 21.4942
120.226 461 21.4709
120.343 528 22.9783
120.46 508 22.5389
120.578 486 22.0454
120.695 524 22.891
120.812 509 22.561
120.929 512 22.6274
121.046 463 21.5174
121.163 538 23.1948
121.279 537 23.1733
121.396 507 22.5167
121.513 468 21.6333
121.63 427 20.664
121.747 394 19.8494
121.863 373 19.3132
121.98 441 21
122.097 502 22.4054
122.213 503 22.4277
122.33 507 22.5167
122.446 519 22.7816
122.563 529 23
122.679 507 22.5167
122.795 500 22.3607
122.912 543 23.3024
123.028 556 23.5797
123.144 571 23.8956
123.26 520 22.8035
123.377 0 1
123.493 0 1
123.609 0 1
123.725 0 1
123.84 0 1
123.956 0 1
124.072 0 1
124.188 0 1
124.303 0 1
124.419 0 1
126.852 0 1
126.968 0 1
127.083 0 1
127.199 0 1
127.315 0 1
127.431 0 1
127.547 0 1
127.663 0 1
127.779 0 1
127.895 0 1
128.011 0 1
128.127 0 1
128.243 0 1
128.359 684 26.1534
128.476 692 26.3059
128.592 702 26.4953
128.708 711 26.6646
128.825 702 26.4953
128.941 718 26.7955
129.058 673 25.9422
129.174 700 26.4575
129.291 715 26.7395
129.408 765 27.6586
129.524 681 26.096
129.641 713 26.7021
129.758 727 26.9629
129.875 756 27.4955
129.992 726 26.9444
130.108 733 27.074
130.225 691 26.2869
130.342 662 25.7294
130.459 579 24.0624
130.576 570 23.8747
130.693 523 22.8692
130.81 470 21.6795
130.928 454 21.3073
131.045 612 24.7386
131.162 723 26.8887
131.279 735 27.1109
131.396 689 26.2488
131.513 757 27.5136
131.631 767 27.6948
131.748 761 27.5862
131.865 716 26.7582
131.983 762 27.6043
132.1 757 27.5136
132.217 784 28
132.335 762 27.6043
132.452 750 27.3861
132.57 738 27.1662
132.687 682 26.1151
132.804 709 26.6271
132.922 712 26.6833
133.039 765 27.6586
133.157 753 27.4408
133.274 779 27.9106
133.392 758 27.5318
133.509 749 27.3679
133.627 815 28.5482
133.744 781 27.9464
133.862 689 26.2488
133.979 649 25.4755
134.097 609 24.6779
134.214 601 24.5153
134.332 549 23.4307
134.449 576 24
134.567 624 24.98
134.684 650 25.4951
134.802 696 26.3818
134.919 810 28.4605
135.037 765 27.6586
135.154 798 28.2489
135.272 863 29.3769
135.389 833 28.8617
135.507 884 29.7321
135.624 872 29.5296
135.742 823 28.688
135.859 851 29.1719
135.977 870 29.4958
136.094 842 29.0172
136.211 814 28.5307
136.329 845 29.0689
136.446 822 28.6705
136.564 853 29.2062
136.681 836 28.9137
136.798 817 28.5832
136.915 821 28.6531
137.033 871 29.5127
137.15 842 29.0172
137.267 866 29.4279
137.384 769 27.7308
137.502 740 27.2029
137.619 786 28.0357
137.736 692 26.3059
137.853 635 25.1992
137.97 608 24.6577
138.087 679 26.0576
138.204 633 25.1595
138.321 704 26.533
138.438 809 28.4429
138.555 795 28.1957
138.672 897 29.95
138.788 936 30.5941
138.905 943 30.7083
139.022 926 30.4302
139.139 917 30.282
139.255 926 30.4302
139.372 874 29.5635
139.488 896 29.9333
139.605 916 30.2655
139.721 886 29.7658
139.838 926 30.4302
139.954 929 30.4795
140.071 864 29.3939
140.187 918 30.2985
140.303 922 30.3645
140.419 928 30.4631
140.535 884 29.7321
140.652 911 30.1828
140.768 0 1
140.884 0 1
141 0 1
141.115 0 1
141.231 0 1
141.347 0 1
141.463 0 1
141.578 0 1
141.694 0 1
144.104 0 1
144.219 0 1
144.335 0 1
144.45 0 1
144.566 0 1
144.682 0 1
144.798 0 1
144.914 0 1
145.03 0 1
145.146 853 29.2062
145.262 890 29.8329
145.378 897 29.95
145.494 902 30.0333
145.61 875 29.5804
145.726 910 30.1662
145.842 840 28.9828
145.959 865 29.4109
146.075 832 28.8444
146.192 794 28.178
146.308 731 27.037
146.425 692 26.3059
146.541 677 26.0192
146.658 662 25.7294
146.774 675 25.9808
146.891 725 26.9258
147.008 791 28.1247
147.125 822 28.6705
147.241 853 29.2062
147.358 885 29.7489
147.475 956 30.9192
147.592 887 29.7825
147.709 904 30.0666
147.826 875 29.5804
147.943 892 29.8664
148.06 918 30.2985
148.177 930 30.4959
148.294 875 29.5804
148.411 917 30.282
148.528 904 30.0666
148.645 930 30.4959
148.762 894 29.8998
148.88 828 28.775
148.997 866 29.4279
149.114 888 29.7993
149.231 919 30.315
149.349 918 30.2985
149.466 874 29.5635
149.583 777 27.8747
149.701 754 27.4591
149.818 747 27.3313
149.935 738 27.1662
150.053 734 27.0924
150.17 765 27.6586
150.287 759 27.55
150.405 726 26.9444
150.522 749 27.3679
150.64 824 28.7054
150.757 804 28.3549
150.875 826 28.7402
150.992 851 29.1719
151.11 890 29.8329
151.227 856 29.2575
151.344 859 29.3087
151.462 847 29.1033
151.579 884 29.7321
151.697 883 29.7153
151.814 875 29.5804
151.932 937 30.6105
152.049 958 30.9516
152.167 925 30.4138
152.284 988 31.4325
152.402 859 29.3087
152.519 913 30.2159
152.636 902 30.0333
152.754 968 31.1127
152.871 907 30.1164
152.989 880 29.6648
153.106 871 29.5127
153.223 885 29.7489
153.341 840 28.9828
153.458 800 28.2843
153.575 797 28.2312
153.693 768 27.7128
153.81 747 27.3313
153.927 732 27.0555
154.044 797 28.2312
154.162 797 28.2312
154.279 862 29.3598
154.396 920 30.3315
154.513 894 29.8998
154.63 897 29.95
154.747 915 30.249
154.864 933 30.545
154.981 931 30.5123
155.098 995 31.5436
155.215 975 31.225
155.332 977 31.257
155.449 931 30.5123
155.566 962 31.0161
155.683 960 30.9839
155.8 987 31.4166
155.917 959 30.9677
156.033 1004 31.686
156.15 0 1
156.267 0 1
156.383 0 1
156.5 0 1
156.617 0 1
156.733 0 1
156.85 0 1
156.966 0 1
157.082 0 1
157.199 0 1
157.315 0 1
157.431 0 1
157.547 0 1
157.664 0 1
157.78 0 1
157.896 0 1
158.012 0 1
158.128 0 1
158.244 0 1
158.359 0 1
158.475 0 1
158.591 0 1
158.706 0 1
