
6.15755 0 1
6.2731 0 1
6.3887 0 1
6.50437 0 1
6.62009 0 1
6.73587 0 1
6.8517 0 1
6.96759 0 1
7.08353 0 1
7.19952 0 1
7.31557 0 1
7.43166 0 1
7.54781 0 1
7.664 0 1
7.78024 0 1
7.89653 0 1
8.01286 0 1
8.12924 0 1
8.24567 0 1
8.36213 0 1
8.47864 0 1
8.59519 0 1
8.71178 0 1
8.82841 0 1
8.94508 0 1
9.06179 0 1
9.17853 0 1
9.29531 0 1
9.41212 0 1
9.52897 0 1
9.64584 0 1
9.76276 0 1
9.8797 0 1
9.99667 0 1
10.1137 0 1
10.2307 0 1
10.3478 0 1
10.4648 0 1
10.5819 0 1
10.6991 0 1
10.8162 0 1
10.9334 0 1
11.0506 0 1
11.1678 0 1
11.285 0 1
11.4023 0 1
11.5196 0 1
11.6369 0 1
11.7542 0 1
11.8715 0 1
11.9888 0 1
12.1062 0 1
12.2235 0 1
12.3409 0 1
12.4582 0 1
12.5756 0 1
12.693 0 1
12.8104 0 1
12.9278 0 1
13.0452 0 1
13.1626 0 1
13.28 0 1
13.3974 0 1
13.5149 0 1
13.6323 0 1
13.7497 0 1
13.8671 0 1
13.9845 0 1
14.1019 0 1
14.2193 0 1
14.3367 0 1
14.4541 0 1
14.5714 0 1
14.6888 0 1
14.8062 0 1
14.9235 0 1
15.0408 0 0
15.1581 0 0
15.2755 0 0
15.3927 0 0
15.51 0 0
15.6273 0 0
15.7445 0 0
15.8617 0 0
15.9789 0 0
16.0961 0 0
16.2132 0 0
16.3304 0 0
16.4475 0 0
16.5646 0 0
16.6816 0 0
16.7986 0 0
16.9156 0 0
17.0326 0 0
17.1496 0 0
17.2665 0 0
17.3833 0 0
17.5002 0 0
17.617 0 0
17.7338 0 0
17.8505 0 0
17.9672 0 0
18.0839 0 0
18.2005 0 0
18.3171 0 0
18.4337 0 0
18.5502 0 0
18.6666 0 0
18.7831 0 0
18.8994 0 0
19.0158 0 0
19.1321 0 0
19.2483 0 0
19.3645 0 0
19.4806 0 0
19.5967 0 0
19.7128 0 0
19.8288 0 0
19.9447 0 0
20.0606 0 1
20.1764 0 1
20.2922 0 1
20.4079 0 1
20.5236 0 1
20.6392 0 1
20.7548 0 1
20.8702 0 1
23.3078 0 1
23.4233 0 1
23.539 0 1
23.6547 0 1
23.7704 0 1
23.8862 0 1
24.0021 0 1
24.118 0 1
24.234 0 1
24.35 0 1
24.4661 1714 41.4005
24.5822 1652 40.6448
24.6984 1704 41.2795
24.8146 1745 41.7732
24.9309 1662 40.7676
25.0472 1779 42.1782
25.1636 1802 42.45
25.28 1796 42.3792
25.3965 1715 41.4126
25.513 1694 41.1582
25.6296 1803 42.4617
25.7462 1877 43.3244
25.8628 1791 42.3202
25.9795 1856 43.0813
26.0962 1777 42.1545
26.213 1758 41.9285
26.3298 1754 41.8808
26.4466 1726 41.5452
26.5635 1683 41.0244
26.6804 1507 38.8201
26.7973 1428 37.7889
26.9143 1457 38.1707
27.0313 1593 39.9124
27.1483 1663 40.7799
27.2653 1668 40.8412
27.3824 1722 41.497
27.4996 1862 43.1509
27.6167 1788 42.2847
27.7339 1718 41.4488
27.8511 1721 41.4849
27.9683 1735 41.6533
28.0855 1721 41.4849
28.2028 1705 41.2916
28.3201 1662 40.7676
28.4374 1729 41.5812
28.5547 1655 40.6817
28.6721 1694 41.1582
28.7894 1744 41.7612
28.9068 1721 41.4849
29.0242 1757 41.9166
29.1416 1712 41.3763
29.259 1632 40.398
29.3764 1664 40.7922
29.4939 1683 41.0244
29.6113 1713 41.3884
29.7288 1724 41.5211
29.8463 1657 40.7063
29.9638 1639 40.4846
30.0812 1455 38.1445
30.1987 1462 38.2361
30.3162 1342 36.6333
30.4337 1307 36.1525
30.5512 1472 38.3667
30.6687 1581 39.7618
30.7862 1671 40.8779
30.9037 1691 41.1218
31.0212 1728 41.5692
31.1387 1703 41.2674
31.2562 1761 41.9643
31.3737 1754 41.8808
31.4912 1762 41.9762
31.6087 1623 40.2865
31.7262 1683 41.0244
31.8436 1641 40.5093
31.9611 1727 41.5572
32.0785 1752 41.8569
32.1959 1696 41.1825
32.3134 1721 41.4849
32.4308 1687 41.0731
32.5482 1803 42.4617
32.6655 1701 41.2432
32.7829 1770 42.0714
32.9002 1680 40.9878
33.0176 1707 41.3159
33.1349 1674 40.9145
33.2522 1793 42.3438
33.3694 1747 41.7971
33.4867 1777 42.1545
33.6039 1656 40.694
33.7211 1645 40.5586
33.8383 1418 37.6563
33.9554 1390 37.2827
34.0725 1317 36.2905
34.1896 1486 38.5487
34.3067 1622 40.2741
34.4237 1702 41.2553
34.5407 1697 41.1947
34.6577 1766 42.0238
34.7746 1730 41.5933
34.8915 1791 42.3202
35.0084 1735 41.6533
35.1252 1801 42.4382
35.242 1759 41.9404
35.3587 1713 41.3884
35.4755 1750 41.833
35.5921 1744 41.7612
35.7088 1790 42.3084
35.8254 1777 42.1545
35.9419 1739 41.7013
36.0584 1710 41.3521
36.1749 1781 42.2019
36.2913 1852 43.0349
36.4077 1743 41.7493
36.524 1719 41.4608
36.6403 1802 42.45
36.7565 1756 41.9047
36.8727 1791 42.3202
36.9889 1775 42.1307
37.1049 1613 40.1622
37.221 0 1
37.3369 0 1
37.4529 0 1
37.5687 0 1
37.6845 0 1
37.8003 0 1
37.916 0 1
38.0316 0 1
38.1472 0 1
40.5851 0 1
40.7008 0 1
40.8164 0 1
40.9322 0 1
41.048 0 1
41.1639 0 1
41.2798 0 1
41.3958 0 1
41.5118 0 1
41.6279 0 1
41.744 1456 38.1576
41.8602 1509 38.8458
41.9765 1519 38.9744
42.0928 1506 38.8072
42.2091 1485 38.5357
42.3255 1485 38.5357
42.4419 1413 37.5899
42.5584 1340 36.606
42.675 1241 35.2278
42.7915 1134 33.6749
42.9081 1203 34.6843
43.0248 1334 36.524
43.1415 1439 37.9342
43.2582 1480 38.4708
43.375 1555 39.4335
43.4918 1517 38.9487
43.6087 1547 39.3319
43.7256 1494 38.6523
43.8425 1552 39.3954
43.9595 1457 38.1707
44.0765 1490 38.6005
44.1935 1395 37.3497
44.3106 1398 37.3898
44.4277 1304 36.1109
44.5448 1314 36.2491
44.6619 1346 36.6879
44.7791 1340 36.606
44.8963 1385 37.2156
45.0136 1383 37.1887
45.1308 1417 37.6431
45.2481 1368 36.9865
45.3654 1385 37.2156
45.4827 1411 37.5633
45.6001 1333 36.5103
45.7174 1380 37.1484
45.8348 1330 36.4692
45.9522 1281 35.7911
46.0697 1236 35.1568
46.1871 1079 32.8481
46.3046 992 31.496
46.422 976 31.241
46.5395 1075 32.7872
46.657 1151 33.9264
46.7745 1266 35.5809
46.892 1315 36.2629
47.0096 1300 36.0555
47.1271 1303 36.0971
47.2446 1270 35.6371
47.3622 1224 34.9857
47.4797 1216 34.8712
47.5973 1208 34.7563
47.7149 1111 33.3317
47.8324 1143 33.8083
47.95 1162 34.0881
48.0675 1095 33.0908
48.1851 1114 33.3766
48.3027 1126 33.5559
48.4202 1090 33.0151
48.5378 1156 34
48.6554 1225 35
48.7729 1204 34.6987
48.8904 1132 33.6452
49.008 1263 35.5387
49.1255 1222 34.9571
49.243 1318 36.3043
49.3605 1246 35.2987
49.478 1294 35.9722
49.5955 1178 34.322
49.713 1067 32.665
49.8304 970 31.1448
49.9479 959 30.9677
50.0653 1095 33.0908
50.1827 1234 35.1283
50.3001 1311 36.2077
50.4175 1461 38.223
50.5348 1421 37.6962
50.6521 1511 38.8716
50.7694 1595 39.9375
50.8867 1584 39.7995
51.004 1625 40.3113
51.1212 1570 39.6232
51.2384 1648 40.5956
51.3556 1554 39.4208
51.4727 1598 39.975
51.5899 1575 39.6863
51.707 1603 40.0375
51.824 1709 41.3401
51.9411 1690 41.1096
52.0581 1747 41.7971
52.175 1806 42.4971
52.2919 1891 43.4856
52.4088 1874 43.2897
52.5257 1942 44.0681
52.6425 2025 45
52.7593 2003 44.7549
52.876 2000 44.7214
52.9927 2063 45.4203
53.1094 1898 43.566
53.226 1853 43.0465
53.3426 1740 41.7133
53.4591 1574 39.6737
53.5756 1586 39.8246
53.692 1769 42.0595
53.8084 1970 44.3847
53.9248 2103 45.8585
54.0411 2183 46.7226
54.1573 2257 47.5079
54.2735 0 1
54.3896 0 1
54.5057 0 1
54.6217 0 1
54.7377 0 1
54.8537 0 1
54.9695 0 1
55.0853 0 1
55.2011 0 1
55.3168 0 1
55.4324 0 1
57.824 0 1
57.9396 0 1
58.0553 0 1
58.1711 0 1
58.2869 0 1
58.4028 0 1
58.5187 0 1
58.6347 0 1
58.7508 0 1
58.8669 0 1
58.983 2747 52.4118
59.0992 3045 55.1815
59.2155 3100 55.6776
59.3318 3298 57.4282
59.4482 3324 57.6541
59.5646 3236 56.8859
59.681 3265 57.1402
59.7975 3102 55.6956
59.9141 3151 56.1338
60.0306 3051 55.2359
60.1473 3020 54.9545
60.2639 2869 53.563
60.3807 3001 54.7814
60.4974 3035 55.0908
60.6142 3073 55.4346
60.731 3106 55.7315
60.8479 3310 57.5326
60.9648 3206 56.6216
61.0818 3248 56.9912
61.1987 3333 57.7321
61.3158 3320 57.6194
61.4328 3318 57.6021
61.5499 3189 56.4712
61.667 3056 55.2811
61.7841 2937 54.1941
61.9013 2687 51.8363
62.0185 2518 50.1797
62.1357 2493 49.93
62.253 2791 52.8299
62.3702 2943 54.2494
62.4875 3309 57.5239
62.6049 3480 58.9915
62.7222 3449 58.7282
62.8396 3483 59.0169
62.9569 3547 59.5567
63.0743 3577 59.808
63.1918 3496 59.127
63.3092 3430 58.5662
63.4267 3341 57.8014
63.5441 3350 57.8792
63.6616 3092 55.6058
63.7791 3084 55.5338
63.8966 3086 55.5518
64.0142 3164 56.2494
64.1317 3229 56.8243
64.2492 3380 58.1378
64.3668 3552 59.5987
64.4843 3499 59.1523
64.6019 3572 59.7662
64.7195 3534 59.4475
64.837 3662 60.5145
64.9546 3724 61.0246
65.0722 3556 59.6322
65.1898 3440 58.6515
65.3074 3411 58.4038
65.4249 2946 54.2771
65.5425 2785 52.7731
65.6601 2637 51.3517
65.7777 2867 53.5444
65.8952 3161 56.2228
66.0128 3384 58.1722
66.1304 3635 60.291
66.2479 3734 61.1065
66.3655 3924 62.6418
66.483 3866 62.1772
66.6005 4058 63.7024
66.718 3924 62.6418
66.8355 3889 62.3618
66.953 3868 62.1932
67.0705 3772 61.4166
67.1879 3627 60.2246
67.3054 3595 59.9583
67.4228 3528 59.397
67.5402 3424 58.515
67.6576 3550 59.5819
67.7749 3704 60.8605
67.8923 3747 61.2127
68.0096 4009 63.3167
68.1269 3990 63.1664
68.2442 4127 64.2417
68.3614 4198 64.792
68.4787 4114 64.1405
68.5958 4275 65.3835
68.713 4194 64.7611
68.8302 4209 64.8768
68.9473 3846 62.0161
69.0643 3429 58.5577
69.1814 3387 58.1979
69.2984 3153 56.1516
69.4154 3321 57.6281
69.5323 3531 59.4222
69.6492 3918 62.5939
69.7661 4182 64.6684
69.8829 4352 65.9697
69.9997 4524 67.2607
70.1165 4661 68.2715
70.2332 4732 68.7895
70.3499 4795 69.2459
70.4665 4651 68.1982
70.5831 4533 67.3276
70.6996 4599 67.8159
70.8161 4294 65.5286
70.9326 4312 65.6658
71.049 4048 63.6239
71.1653 3878 62.2736
71.2817 3909 62.522
71.3979 3993 63.1902
71.5141 4120 64.1872
71.6303 4229 65.0308
71.7464 4078 63.8592
71.8624 0 1
71.9784 0 1
72.0944 0 1
72.2102 0 1
72.3261 0 1
72.4418 0 1
72.5575 0 1
72.6732 0 1
75.1054 0 1
75.2209 0 1
75.3365 0 1
75.4521 0 1
75.5678 0 1
75.6835 0 1
75.7993 0 1
75.9151 0 1
76.031 0 1
76.147 4246 65.1613
76.263 4317 65.7039
76.3791 4285 65.4599
76.4952 4108 64.0937
76.6113 4158 64.4826
76.7276 4446 66.6783
76.8438 4485 66.9701
76.9601 4621 67.9779
77.0765 4823 69.4478
77.1929 4910 70.0714
77.3093 5134 71.6519
77.4258 5208 72.1665
77.5423 4997 70.6895
77.6589 5051 71.0704
77.7755 4889 69.9214
77.8921 4668 68.3228
78.0088 4351 65.9621
78.1256 4007 63.3009
78.2423 3644 60.3656
78.3591 3571 59.7578
78.4759 3699 60.8194
78.5928 4081 63.8827
78.7097 4510 67.1565
78.8266 4908 70.0571
78.9436 4749 68.913
79.0606 5052 71.0774
79.1776 5102 71.4283
79.2946 4959 70.4202
79.4117 5042 71.007
79.5288 4990 70.6399
79.6459 4865 69.7496
79.7631 4847 69.6204
79.8802 4509 67.1491
79.9974 4352 65.9697
80.1147 4314 65.681
80.2319 4258 65.2534
80.3491 4147 64.3972
80.4664 4427 66.5357
80.5837 4626 68.0147
80.701 4711 68.6367
80.8183 4858 69.6994
80.9357 4980 70.5691
81.053 4853 69.6635
81.1704 4953 70.3776
81.2877 4901 70.0071
81.4051 4878 69.8427
81.5225 4698 68.542
81.6399 4439 66.6258
81.7573 4042 63.5767
81.8747 3762 61.3351
81.9922 3467 58.8812
82.1096 3534 59.4475
82.227 3754 61.2699
82.3444 4170 64.5755
82.4619 4367 66.0833
82.5793 4603 67.8454
82.6967 4742 68.8622
82.8142 4696 68.5274
82.9316 4799 69.2748
83.049 4839 69.5629
83.1664 4726 68.7459
83.2838 4591 67.7569
83.4012 4496 67.0522
83.5186 4295 65.5362
83.636 4083 63.8984
83.7534 3802 61.6604
83.8708 3711 60.918
83.9881 3700 60.8276
84.1055 3984 63.1189
84.2228 4185 64.6916
84.3401 4405 66.3702
84.4575 4605 67.8602
84.5747 4666 68.3081
84.692 4730 68.775
84.8093 4733 68.7968
84.9265 4958 70.4131
85.0437 4737 68.8259
85.1609 4446 66.6783
85.2781 4047 63.616
85.3952 3860 62.1289
85.5123 3584 59.8665
85.6294 3482 59.0085
85.7465 3805 61.6847
85.8636 3988 63.1506
85.9806 4447 66.6858
86.0976 4634 68.0735
86.2145 4849 69.6348
86.3315 4894 69.9571
86.4484 5287 72.7118
86.5652 5205 72.1457
86.682 5226 72.2911
86.7988 5253 72.4776
86.9156 4977 70.5479
87.0323 4930 70.214
87.149 4847 69.6204
87.2657 4585 67.7126
87.3823 4287 65.4752
87.4988 4152 64.436
87.6154 4330 65.8027
87.7318 4674 68.3667
87.8483 5041 71
87.9647 5251 72.4638
88.081 5367 73.2598
88.1973 5518 74.2832
88.3136 5465 73.9256
88.4298 5660 75.233
88.546 5487 74.0743
88.6621 5237 72.3671
88.7781 4913 70.0928
88.8942 0 1
89.0101 0 1
89.126 0 1
89.2419 0 1
89.3577 0 1
89.4734 0 1
89.5891 0 1
89.7047 0 1
89.8203 0 1
89.9358 0 1
92.3269 0 1
92.4424 0 1
92.558 0 1
92.6736 0 1
92.7893 0 1
92.905 0 1
93.0208 0 1
93.1366 0 1
93.2525 0 1
93.3685 0 1
93.4845 0 1
93.6005 5528 74.3505
93.7167 5385 73.3826
93.8328 5390 73.4166
93.949 5548 74.4849
94.0653 5307 72.8492
94.1816 5234 72.3464
94.2979 4959 70.4202
94.4143 4653 68.2129
94.5307 4344 65.909
94.6472 4322 65.7419
94.7637 4241 65.123
94.8803 4445 66.6708
94.9969 4732 68.7895
95.1135 5015 70.8167
95.2302 5112 71.4983
95.3469 5391 73.4234
95.4637 5678 75.3525
95.5805 5680 75.3658
95.6973 5662 75.2463
95.8142 5914 76.9025
95.9311 5806 76.1971
96.048 5527 74.3438
96.1649 5527 74.3438
96.2819 5196 72.0833
96.3989 5042 71.007
96.516 4732 68.7895
96.633 4452 66.7233
96.7501 4491 67.0149
96.8673 4634 68.0735
96.9844 4980 70.5691
97.1016 5319 72.9315
97.2188 5589 74.7596
97.336 5782 76.0395
97.4532 5922 76.9545
97.5704 5881 76.6877
97.6877 5878 76.6681
97.805 5566 74.6056
97.9223 5394 73.4439
98.0396 5100 71.4143
98.1569 4842 69.5845
98.2743 4578 67.6609
98.3916 4369 66.0984
98.509 4631 68.0515
98.6264 4907 70.05
98.7438 5071 71.211
98.8612 5141 71.7008
98.9786 5523 74.3169
99.096 5685 75.3989
99.2134 5783 76.046
99.3308 5974 77.2917
99.4482 6015 77.5564
99.5656 5899 76.8049
99.6831 5879 76.6746
99.8005 5858 76.5376
99.9179 5594 74.793
100.035 5356 73.1847
100.153 4919 70.1356
100.27 4560 67.5278
100.388 4683 68.4324
100.505 5221 72.2565
100.622 5482 74.0405
100.74 5833 76.3741
100.857 5951 77.1427
100.975 6099 78.0961
101.092 5857 76.531
101.209 6074 77.9359
101.327 6019 77.5822
101.444 5935 77.039
101.561 5737 75.743
101.679 5370 73.2803
101.796 5065 71.1688
101.913 4767 69.0435
102.03 4707 68.6076
102.148 4841 69.5773
102.265 5538 74.4177
102.382 5281 72.6705
102.499 5721 75.6373
102.616 5717 75.6108
102.733 6254 79.0822
102.851 6478 80.486
102.968 6444 80.2745
103.085 6301 79.3788
103.202 6231 78.9367
103.319 6132 78.3071
103.436 5900 76.8115
103.552 5715 75.5976
103.669 5278 72.6498
103.786 5103 71.4353
103.903 4932 70.2282
104.02 5449 73.8173
104.137 5851 76.4918
104.253 6344 79.6492
104.37 6326 79.5362
104.487 6524 80.7713
104.603 6569 81.0494
104.72 6582 81.1295
104.836 6570 81.0555
104.953 6511 80.6908
105.069 6104 78.1281
105.186 5696 75.4718
105.302 5394 73.4439
105.418 5223 72.2703
105.535 5162 71.8471
105.651 5740 75.7628
105.767 5954 77.1622
105.883 6115 78.1985
105.999 6271 79.1896
106.115 0 1
106.231 0 1
106.347 0 1
106.463 0 1
106.579 0 1
106.694 0 1
106.81 0 1
106.926 0 1
107.041 0 1
107.157 0 1
109.576 0 1
109.692 0 1
109.807 0 1
109.923 0 1
110.039 0 1
110.155 0 1
110.27 0 1
110.386 0 1
110.502 0 1
110.618 5161 71.8401
110.735 5572 74.6458
110.851 5880 76.6812
110.967 5893 76.7659
111.083 6021 77.5951
111.199 6154 78.4474
111.316 6257 79.1012
111.432 6299 79.3662
111.549 6407 80.0437
111.665 6137 78.339
111.782 6051 77.7882
111.898 5827 76.3348
112.015 5505 74.1957
112.132 5117 71.5332
112.248 4681 68.4178
112.365 4562 67.5426
112.482 4856 69.685
112.599 5351 73.1505
112.716 5684 75.3923
112.832 5866 76.5898
112.949 5975 77.2981
113.066 5957 77.1816
113.183 5937 77.0519
113.3 5923 76.961
113.417 5768 75.9474
113.534 5571 74.6391
113.652 5390 73.4166
113.769 5090 71.3442
113.886 4752 68.9348
114.003 4638 68.1029
114.12 4601 67.8307
114.238 4840 69.5701
114.355 5086 71.3162
114.472 5265 72.5603
114.589 5153 71.7844
114.707 5298 72.7874
114.824 5393 73.437
114.942 5572 74.6458
115.059 5570 74.6324
115.176 5686 75.4056
115.294 5612 74.9133
115.411 5285 72.698
115.529 5267 72.5741
115.646 4854 69.6707
115.764 4427 66.5357
115.881 4285 65.4599
115.999 4279 65.4141
116.116 4631 68.0515
116.234 5164 71.861
116.351 5392 73.4302
116.469 5680 75.3658
116.586 5583 74.7195
116.704 5667 75.2795
116.821 5617 74.9466
116.939 5623 74.9867
117.056 5592 74.7797
117.174 5384 73.3757
117.291 5346 73.1163
117.409 4944 70.3136
117.526 4840 69.5701
117.644 4645 68.1542
117.761 4677 68.3886
117.879 5018 70.8378
117.996 5194 72.0694
118.114 5349 73.1369
118.231 5421 73.6274
118.349 5356 73.1847
118.466 5630 75.0333
118.584 5604 74.8599
118.701 5694 75.4586
118.819 5847 76.4657
118.936 5563 74.5855
119.053 5607 74.8799
119.171 5297 72.7805
119.288 4850 69.6419
119.405 4436 66.6033
119.523 4151 64.4283
119.64 4359 66.0227
119.757 4613 67.9191
119.875 5074 71.232
119.992 5388 73.403
120.109 5443 73.7767
120.226 5667 75.2795
120.343 5695 75.4652
120.46 5632 75.0467
120.578 5623 74.9867
120.695 5486 74.0675
120.812 5562 74.5788
120.929 5399 73.4779
121.046 5204 72.1388
121.163 4905 70.0357
121.279 4812 69.3686
121.396 4752 68.9348
121.513 4792 69.2243
121.63 4948 70.342
121.747 4985 70.6045
121.863 5245 72.4224
121.98 5379 73.3417
122.097 5287 72.7118
122.213 5525 74.3303
122.33 5499 74.1552
122.446 5648 75.1532
122.563 5493 74.1148
122.679 5458 73.8783
122.795 5412 73.5663
122.912 5164 71.861
123.028 4672 68.352
123.144 4455 66.7458
123.26 4207 64.8614
123.377 0 1
123.493 0 1
123.609 0 1
123.725 0 1
123.84 0 1
123.956 0 1
124.072 0 1
124.188 0 1
124.303 0 1
124.419 0 1
126.852 0 1
126.968 0 1
127.083 0 1
127.199 0 1
127.315 0 1
127.431 0 1
127.547 0 1
127.663 0 1
127.779 0 1
127.895 0 1
128.011 0 1
128.127 0 1
128.243 0 1
128.359 4746 68.8912
128.476 4465 66.8207
128.592 4555 67.4907
128.708 5024 70.8802
128.825 5732 75.71
128.941 6047 77.7625
129.058 6075 77.9423
129.174 6240 78.9937
129.291 6233 78.9494
129.408 6277 79.2275
129.524 6111 78.1729
129.641 6150 78.4219
129.758 6056 77.8203
129.875 5971 77.2722
129.992 5833 76.3741
130.108 5599 74.8265
130.225 5358 73.1984
130.342 5328 72.9932
130.459 5285 72.698
130.576 5581 74.7061
130.693 5606 74.8732
130.81 5742 75.776
130.928 5835 76.3872
131.045 5915 76.909
131.162 5981 77.3369
131.279 6157 78.4666
131.396 6057 77.8267
131.513 5988 77.3822
131.631 5835 76.3872
131.748 5579 74.6927
131.865 5142 71.7077
131.983 4502 67.0969
132.1 4427 66.5357
132.217 4826 69.4694
132.335 5320 72.9383
132.452 5644 75.1266
132.57 6010 77.5242
132.687 5802 76.1709
132.804 6272 79.196
132.922 5972 77.2787
133.039 5963 77.2205
133.157 5988 77.3822
133.274 5728 75.6836
133.392 5938 77.0584
133.509 5612 74.9133
133.627 5591 74.773
133.744 5397 73.4643
133.862 5024 70.8802
133.979 5127 71.6031
134.097 5155 71.7983
134.214 5445 73.7902
134.332 5371 73.2871
134.449 5653 75.1864
134.567 5771 75.9671
134.684 5731 75.7034
134.802 5818 76.2758
134.919 5858 76.5376
135.037 5750 75.8288
135.154 5799 76.1512
135.272 5478 74.0135
135.389 5280 72.6636
135.507 4719 68.695
135.624 4349 65.9469
135.742 4507 67.1342
135.859 4663 68.2862
135.977 5212 72.1942
136.094 5757 75.8749
136.211 5836 76.3937
136.329 6057 77.8267
136.446 6007 77.5048
136.564 5771 75.9671
136.681 5993 77.4145
136.798 5857 76.531
136.915 5864 76.5768
137.033 5820 76.2889
137.15 5705 75.5315
137.267 5570 74.6324
137.384 5492 74.108
137.502 5335 73.0411
137.619 5197 72.0902
137.736 5222 72.2634
137.853 5175 71.9375
137.97 5290 72.7324
138.087 5579 74.6927
138.204 5597 74.8131
138.321 5657 75.213
138.438 5858 76.5376
138.555 5832 76.3675
138.672 5831 76.361
138.788 5851 76.4918
138.905 5628 75.02
139.022 5121 71.5612
139.139 4698 68.542
139.255 4408 66.3928
139.372 4519 67.2235
139.488 4838 69.5557
139.605 5423 73.641
139.721 5534 74.3909
139.838 5843 76.4395
139.954 5855 76.518
140.071 5812 76.2365
140.187 5758 75.8815
140.303 5730 75.6968
140.419 5820 76.2889
140.535 5731 75.7034
140.652 5601 74.8398
140.768 0 1
140.884 0 1
141 0 1
141.115 0 1
141.231 0 1
141.347 0 1
141.463 0 1
141.578 0 1
141.694 0 1
144.104 0 1
144.219 0 1
144.335 0 1
144.45 0 1
144.566 0 1
144.682 0 1
144.798 0 1
144.914 0 1
145.03 0 1
145.146 5043 71.0141
145.262 5057 71.1126
145.378 4963 70.4486
145.494 5074 71.232
145.61 5037 70.9718
145.726 4978 70.5549
145.842 4916 70.1142
145.959 4788 69.1954
146.075 4637 68.0955
146.192 4531 67.3127
146.308 4504 67.1118
146.425 4439 66.6258
146.541 4508 67.1416
146.658 4592 67.7643
146.774 4752 68.9348
146.891 4794 69.2387
147.008 4718 68.6877
147.125 4871 69.7925
147.241 4754 68.9493
147.358 4733 68.7968
147.475 4570 67.6018
147.592 4503 67.1044
147.709 3966 62.9762
147.826 3594 59.95
147.943 3641 60.3407
148.06 3841 61.9758
148.177 4248 65.1767
148.294 4525 67.2681
148.411 4760 68.9928
148.528 4809 69.347
148.645 4787 69.1881
148.762 4741 68.8549
148.88 4717 68.6804
148.997 4616 67.9412
149.114 4761 69
149.231 4662 68.2788
149.349 4577 67.6535
149.466 4570 67.6018
149.583 4382 66.1967
149.701 4377 66.1589
149.818 4246 65.1613
149.935 4242 65.1306
150.053 4182 64.6684
150.17 4249 65.1844
150.287 4315 65.6887
150.405 4450 66.7083
150.522 4375 66.1438
150.64 4443 66.6558
150.757 4478 66.9179
150.875 4477 66.9104
150.992 4432 66.5733
151.11 4252 65.2074
151.227 4069 63.7887
151.344 3844 62
151.462 3455 58.7792
151.579 3515 59.2874
151.697 3720 60.9918
151.814 4054 63.671
151.932 4329 65.7951
152.049 4438 66.6183
152.167 4467 66.8356
152.284 4601 67.8307
152.402 4534 67.335
152.519 4550 67.4537
152.636 4615 67.9338
152.754 4481 66.9403
152.871 4537 67.3573
152.989 4594 67.7791
153.106 4604 67.8528
153.223 4504 67.1118
153.341 4419 66.4756
153.458 4255 65.2304
153.575 4143 64.3661
153.693 4107 64.0859
153.81 4294 65.5286
153.927 4297 65.5515
154.044 4324 65.7571
154.162 4400 66.3325
154.279 4575 67.6387
154.396 4528 67.2904
154.513 4591 67.7569
154.63 4594 67.7791
154.747 4371 66.1135
154.864 4101 64.0391
154.981 3935 62.7296
155.098 3724 61.0246
155.215 3631 60.2578
155.332 3987 63.1427
155.449 4273 65.3682
155.566 4422 66.4981
155.683 4549 67.4463
155.8 4586 67.72
155.917 4709 68.6222
156.033 4600 67.8233
156.15 0 1
156.267 0 1
156.383 0 1
156.5 0 1
156.617 0 1
156.733 0 1
156.85 0 1
156.966 0 1
157.082 0 1
157.199 0 1
157.315 0 1
157.431 0 1
157.547 0 1
157.664 0 1
157.78 0 1
157.896 0 1
158.012 0 1
158.128 0 1
158.244 0 1
158.359 0 1
158.475 0 1
158.591 0 1
158.706 0 1
