
6.15755 0 1
6.2731 0 1
6.3887 0 1
6.50437 0 1
6.62009 0 1
6.73587 0 1
6.8517 0 1
6.96759 0 1
7.08353 0 1
7.19952 0 1
7.31557 0 1
7.43166 0 1
7.54781 0 1
7.664 0 1
7.78024 0 1
7.89653 0 1
8.01286 0 1
8.12924 0 1
8.24567 0 1
8.36213 0 1
8.47864 0 1
8.59519 0 1
8.71178 0 1
8.82841 0 1
8.94508 0 1
9.06179 0 1
9.17853 0 1
9.29531 0 1
9.41212 0 1
9.52897 0 1
9.64584 0 1
9.76276 0 1
9.8797 0 1
9.99667 0 1
10.1137 0 1
10.2307 0 1
10.3478 0 1
10.4648 0 1
10.5819 0 1
10.6991 0 1
10.8162 0 1
10.9334 0 1
11.0506 0 1
11.1678 0 1
11.285 0 1
11.4023 0 1
11.5196 0 1
11.6369 0 1
11.7542 0 1
11.8715 0 1
11.9888 0 1
12.1062 0 1
12.2235 0 1
12.3409 0 1
12.4582 0 1
12.5756 0 1
12.693 0 1
12.8104 0 1
12.9278 0 1
13.0452 0 1
13.1626 0 1
13.28 0 1
13.3974 0 1
13.5149 0 1
13.6323 0 1
13.7497 0 1
13.8671 0 1
13.9845 0 1
14.1019 0 1
14.2193 0 1
14.3367 0 1
14.4541 0 1
14.5714 0 1
14.6888 0 1
14.8062 0 1
14.9235 0 1
15.0408 728 26.9815
15.1581 780 27.9285
15.2755 848 29.1204
15.3927 935 30.5778
15.51 944 30.7246
15.6273 915 30.249
15.7445 918 30.2985
15.8617 816 28.5657
15.9789 873 29.5466
16.0961 757 27.5136
16.2132 788 28.0713
16.3304 788 28.0713
16.4475 802 28.3196
16.5646 748 27.3496
16.6816 757 27.5136
16.7986 757 27.5136
16.9156 760 27.5681
17.0326 727 26.9629
17.1496 731 27.037
17.2665 671 25.9037
17.3833 699 26.4386
17.5002 751 27.4044
17.617 765 27.6586
17.7338 760 27.5681
17.8505 732 27.0555
17.9672 747 27.3313
18.0839 748 27.3496
18.2005 749 27.3679
18.3171 767 27.6948
18.4337 768 27.7128
18.5502 771 27.7669
18.6666 775 27.8388
18.7831 750 27.3861
18.8994 735 27.1109
19.0158 751 27.4044
19.1321 688 26.2298
19.2483 656 25.6125
19.3645 654 25.5734
19.4806 618 24.8596
19.5967 590 24.2899
19.7128 554 23.5372
19.8288 567 23.8118
19.9447 507 22.5167
20.0606 0 1
20.1764 0 1
20.2922 0 1
20.4079 0 1
20.5236 0 1
20.6392 0 1
20.7548 0 1
20.8702 0 1
23.3078 0 1
23.4233 0 1
23.539 0 1
23.6547 0 1
23.7704 0 1
23.8862 0 1
24.0021 0 1
24.118 0 1
24.234 0 1
24.35 0 1
24.4661 278 16.6733
24.5822 278 16.6733
24.6984 305 17.4642
24.8146 351 18.735
24.9309 424 20.5913
25.0472 454 21.3073
25.1636 579 24.0624
25.28 600 24.4949
25.3965 650 25.4951
25.513 747 27.3313
25.6296 761 27.5862
25.7462 781 27.9464
25.8628 746 27.313
25.9795 782 27.9643
26.0962 777 27.8747
26.213 819 28.6182
26.3298 771 27.7669
26.4466 763 27.6225
26.5635 730 27.0185
26.6804 741 27.2213
26.7973 755 27.4773
26.9143 680 26.0768
27.0313 672 25.923
27.1483 700 26.4575
27.2653 658 25.6515
27.3824 720 26.8328
27.4996 688 26.2298
27.6167 705 26.5518
27.7339 703 26.5141
27.8511 685 26.1725
27.9683 701 26.4764
28.0855 584 24.1661
28.2028 648 25.4558
28.3201 654 25.5734
28.4374 661 25.7099
28.5547 680 26.0768
28.6721 713 26.7021
28.7894 705 26.5518
28.9068 681 26.096
29.0242 720 26.8328
29.1416 737 27.1477
29.259 708 26.6083
29.3764 713 26.7021
29.4939 713 26.7021
29.6113 731 27.037
29.7288 716 26.7582
29.8463 728 26.9815
29.9638 780 27.9285
30.0812 736 27.1293
30.1987 741 27.2213
30.3162 679 26.0576
30.4337 688 26.2298
30.5512 643 25.3574
30.6687 659 25.671
30.7862 665 25.7876
30.9037 651 25.5147
31.0212 682 26.1151
31.1387 610 24.6982
31.2562 612 24.7386
31.3737 637 25.2389
31.4912 591 24.3105
31.6087 578 24.0416
31.7262 596 24.4131
31.8436 559 23.6432
31.9611 584 24.1661
32.0785 622 24.9399
32.1959 609 24.6779
32.3134 634 25.1794
32.4308 650 25.4951
32.5482 691 26.2869
32.6655 681 26.096
32.7829 660 25.6905
32.9002 707 26.5895
33.0176 700 26.4575
33.1349 730 27.0185
33.2522 664 25.7682
33.3694 691 26.2869
33.4867 759 27.55
33.6039 680 26.0768
33.7211 642 25.3377
33.8383 754 27.4591
33.9554 742 27.2397
34.0725 653 25.5539
34.1896 626 25.02
34.3067 628 25.0599
34.4237 650 25.4951
34.5407 604 24.5764
34.6577 622 24.9399
34.7746 618 24.8596
34.8915 651 25.5147
35.0084 592 24.3311
35.1252 525 22.9129
35.242 559 23.6432
35.3587 554 23.5372
35.4755 598 24.454
35.5921 597 24.4336
35.7088 604 24.5764
35.8254 596 24.4131
35.9419 652 25.5343
36.0584 634 25.1794
36.1749 654 25.5734
36.2913 637 25.2389
36.4077 682 26.1151
36.524 621 24.9199
36.6403 606 24.6171
36.7565 626 25.02
36.8727 552 23.4947
36.9889 528 22.9783
37.1049 506 22.4944
37.221 0 1
37.3369 0 1
37.4529 0 1
37.5687 0 1
37.6845 0 1
37.8003 0 1
37.916 0 1
38.0316 0 1
38.1472 0 1
40.5851 0 1
40.7008 0 1
40.8164 0 1
40.9322 0 1
41.048 0 1
41.1639 0 1
41.2798 0 1
41.3958 0 1
41.5118 0 1
41.6279 0 1
41.744 194 13.9284
41.8602 228 15.0997
41.9765 307 17.5214
42.0928 395 19.8746
42.2091 406 20.1494
42.3255 435 20.8567
42.4419 537 23.1733
42.5584 519 22.7816
42.675 552 23.4947
42.7915 521 22.8254
42.9081 541 23.2594
43.0248 558 23.622
43.1415 513 22.6495
43.2582 497 22.2935
43.375 465 21.5639
43.4918 507 22.5167
43.6087 519 22.7816
43.7256 464 21.5407
43.8425 473 21.7486
43.9595 509 22.561
44.0765 446 21.1187
44.1935 498 22.3159
44.3106 463 21.5174
44.4277 506 22.4944
44.5448 557 23.6008
44.6619 567 23.8118
44.7791 605 24.5967
44.8963 541 23.2594
45.0136 539 23.2164
45.1308 537 23.1733
45.2481 525 22.9129
45.3654 551 23.4734
45.4827 518 22.7596
45.6001 525 22.9129
45.7174 523 22.8692
45.8348 514 22.6716
45.9522 542 23.2809
46.0697 565 23.7697
46.1871 565 23.7697
46.3046 575 23.9792
46.422 567 23.8118
46.5395 540 23.2379
46.657 614 24.779
46.7745 510 22.5832
46.892 503 22.4277
47.0096 520 22.8035
47.1271 526 22.9347
47.2446 541 23.2594
47.3622 504 22.4499
47.4797 506 22.4944
47.5973 468 21.6333
47.7149 480 21.9089
47.8324 503 22.4277
47.95 524 22.891
48.0675 587 24.2281
48.1851 578 24.0416
48.3027 544 23.3238
48.4202 502 22.4054
48.5378 510 22.5832
48.6554 526 22.9347
48.7729 471 21.7025
48.8904 511 22.6053
49.008 497 22.2935
49.1255 447 21.1424
49.243 508 22.5389
49.3605 529 23
49.478 496 22.2711
49.5955 503 22.4277
49.713 558 23.622
49.8304 529 23
49.9479 522 22.8473
50.0653 598 24.454
50.1827 560 23.6643
50.3001 541 23.2594
50.4175 490 22.1359
50.5348 525 22.9129
50.6521 487 22.0681
50.7694 484 22
50.8867 465 21.5639
51.004 474 21.7715
51.1212 473 21.7486
51.2384 501 22.383
51.3556 487 22.0681
51.4727 553 23.516
51.5899 536 23.1517
51.707 524 22.891
51.824 516 22.7156
51.9411 516 22.7156
52.0581 489 22.1133
52.175 475 21.7945
52.2919 465 21.5639
52.4088 441 21
52.5257 442 21.0238
52.6425 426 20.6398
52.7593 437 20.9045
52.876 463 21.5174
52.9927 428 20.6882
53.1094 455 21.3307
53.226 452 21.2603
53.3426 471 21.7025
53.4591 507 22.5167
53.5756 460 21.4476
53.692 488 22.0907
53.8084 511 22.6053
53.9248 456 21.3542
54.0411 417 20.4206
54.1573 304 17.4356
54.2735 0 1
54.3896 0 1
54.5057 0 1
54.6217 0 1
54.7377 0 1
54.8537 0 1
54.9695 0 1
55.0853 0 1
55.2011 0 1
55.3168 0 1
55.4324 0 1
57.824 0 1
57.9396 0 1
58.0553 0 1
58.1711 0 1
58.2869 0 1
58.4028 0 1
58.5187 0 1
58.6347 0 1
58.7508 0 1
58.8669 0 1
58.983 268 16.3707
59.0992 300 17.3205
59.2155 380 19.4936
59.3318 349 18.6815
59.4482 376 19.3907
59.5646 429 20.7123
59.681 440 20.9762
59.7975 436 20.8806
59.9141 478 21.8632
60.0306 516 22.7156
60.1473 518 22.7596
60.2639 498 22.3159
60.3807 491 22.1585
60.4974 511 22.6053
60.6142 510 22.5832
60.731 464 21.5407
60.8479 470 21.6795
60.9648 442 21.0238
61.0818 419 20.4695
61.1987 439 20.9523
61.3158 424 20.5913
61.4328 399 19.975
61.5499 466 21.587
61.667 475 21.7945
61.7841 447 21.1424
61.9013 468 21.6333
62.0185 469 21.6564
62.1357 514 22.6716
62.253 460 21.4476
62.3702 472 21.7256
62.4875 506 22.4944
62.6049 519 22.7816
62.7222 512 22.6274
62.8396 488 22.0907
62.9569 508 22.5389
63.0743 472 21.7256
63.1918 481 21.9317
63.3092 423 20.567
63.4267 478 21.8632
63.5441 468 21.6333
63.6616 488 22.0907
63.7791 448 21.166
63.8966 420 20.4939
64.0142 454 21.3073
64.1317 425 20.6155
64.2492 395 19.8746
64.3668 413 20.3224
64.4843 363 19.0526
64.6019 335 18.303
64.7195 362 19.0263
64.837 347 18.6279
64.9546 338 18.3848
65.0722 381 19.5192
65.1898 376 19.3907
65.3074 362 19.0263
65.4249 355 18.8414
65.5425 380 19.4936
65.6601 382 19.5448
65.7777 377 19.4165
65.8952 375 19.3649
66.0128 401 20.025
66.1304 429 20.7123
66.2479 418 20.445
66.3655 416 20.3961
66.483 446 21.1187
66.6005 481 21.9317
66.718 432 20.7846
66.8355 359 18.9473
66.953 337 18.3576
67.0705 379 19.4679
67.1879 420 20.4939
67.3054 388 19.6977
67.4228 406 20.1494
67.5402 363 19.0526
67.6576 287 16.9411
67.7749 273 16.5227
67.8923 242 15.5563
68.0096 245 15.6525
68.1269 266 16.3095
68.2442 279 16.7033
68.3614 289 17
68.4787 255 15.9687
68.5958 263 16.2173
68.713 249 15.7797
68.8302 266 16.3095
68.9473 240 15.4919
69.0643 274 16.5529
69.1814 251 15.843
69.2984 263 16.2173
69.4154 248 15.748
69.5323 269 16.4012
69.6492 274 16.5529
69.7661 304 17.4356
69.8829 343 18.5203
69.9997 291 17.0587
70.1165 284 16.8523
70.2332 330 18.1659
70.3499 281 16.7631
70.4665 309 17.5784
70.5831 249 15.7797
70.6996 243 15.5885
70.8161 277 16.6433
70.9326 254 15.9374
71.049 222 14.8997
71.1653 204 14.2829
71.2817 172 13.1149
71.3979 154 12.4097
71.5141 138 11.7473
71.6303 146 12.083
71.7464 123 11.0905
71.8624 0 1
71.9784 0 1
72.0944 0 1
72.2102 0 1
72.3261 0 1
72.4418 0 1
72.5575 0 1
72.6732 0 1
75.1054 0 1
75.2209 0 1
75.3365 0 1
75.4521 0 1
75.5678 0 1
75.6835 0 1
75.7993 0 1
75.9151 0 1
76.031 0 1
76.147 183 13.5277
76.263 260 16.1245
76.3791 251 15.843
76.4952 233 15.2643
76.6113 199 14.1067
76.7276 234 15.2971
76.8438 251 15.843
76.9601 219 14.7986
77.0765 227 15.0665
77.1929 234 15.2971
77.3093 264 16.2481
77.4258 294 17.1464
77.5423 284 16.8523
77.6589 287 16.9411
77.7755 291 17.0587
77.8921 289 17
78.0088 295 17.1756
78.1256 300 17.3205
78.2423 309 17.5784
78.3591 303 17.4069
78.4759 322 17.9444
78.5928 334 18.2757
78.7097 358 18.9209
78.8266 408 20.199
78.9436 441 21
79.0606 418 20.445
79.1776 376 19.3907
79.2946 417 20.4206
79.4117 438 20.9284
79.5288 451 21.2368
79.6459 481 21.9317
79.7631 466 21.587
79.8802 446 21.1187
79.9974 446 21.1187
80.1147 404 20.0998
80.2319 412 20.2978
80.3491 391 19.7737
80.4664 398 19.9499
80.5837 374 19.3391
80.701 395 19.8746
80.8183 423 20.567
80.9357 409 20.2237
81.053 452 21.2603
81.1704 442 21.0238
81.2877 462 21.4942
81.4051 449 21.1896
81.5225 446 21.1187
81.6399 444 21.0713
81.7573 445 21.095
81.8747 449 21.1896
81.9922 417 20.4206
82.1096 435 20.8567
82.227 465 21.5639
82.3444 471 21.7025
82.4619 533 23.0868
82.5793 540 23.2379
82.6967 574 23.9583
82.8142 526 22.9347
82.9316 527 22.9565
83.049 498 22.3159
83.1664 513 22.6495
83.2838 549 23.4307
83.4012 514 22.6716
83.5186 496 22.2711
83.636 504 22.4499
83.7534 470 21.6795
83.8708 459 21.4243
83.9881 449 21.1896
84.1055 455 21.3307
84.2228 452 21.2603
84.3401 450 21.2132
84.4575 461 21.4709
84.5747 523 22.8692
84.692 507 22.5167
84.8093 547 23.388
84.9265 516 22.7156
85.0437 506 22.4944
85.1609 495 22.2486
85.2781 479 21.8861
85.3952 505 22.4722
85.5123 485 22.0227
85.6294 502 22.4054
85.7465 522 22.8473
85.8636 513 22.6495
85.9806 511 22.6053
86.0976 610 24.6982
86.2145 615 24.7992
86.3315 569 23.8537
86.4484 536 23.1517
86.5652 492 22.1811
86.682 521 22.8254
86.7988 595 24.3926
86.9156 569 23.8537
87.0323 588 24.2487
87.149 564 23.7487
87.2657 553 23.516
87.3823 540 23.2379
87.4988 511 22.6053
87.6154 537 23.1733
87.7318 516 22.7156
87.8483 535 23.1301
87.9647 446 21.1187
88.081 401 20.025
88.1973 359 18.9473
88.3136 330 18.1659
88.4298 312 17.6635
88.546 286 16.9115
88.6621 249 15.7797
88.7781 218 14.7648
88.8942 0 1
89.0101 0 1
89.126 0 1
89.2419 0 1
89.3577 0 1
89.4734 0 1
89.5891 0 1
89.7047 0 1
89.8203 0 1
89.9358 0 1
92.3269 0 1
92.4424 0 1
92.558 0 1
92.6736 0 1
92.7893 0 1
92.905 0 1
93.0208 0 1
93.1366 0 1
93.2525 0 1
93.3685 0 1
93.4845 0 1
93.6005 233 15.2643
93.7167 334 18.2757
93.8328 467 21.6102
93.949 498 22.3159
94.0653 458 21.4009
94.1816 444 21.0713
94.2979 482 21.9545
94.4143 490 22.1359
94.5307 483 21.9773
94.6472 521 22.8254
94.7637 501 22.383
94.8803 513 22.6495
94.9969 468 21.6333
95.1135 519 22.7816
95.2302 516 22.7156
95.3469 554 23.5372
95.4637 598 24.454
95.5805 591 24.3105
95.6973 550 23.4521
95.8142 427 20.664
95.9311 437 20.9045
96.048 454 21.3073
96.1649 485 22.0227
96.2819 448 21.166
96.3989 417 20.4206
96.516 362 19.0263
96.633 361 19
96.7501 353 18.7883
96.8673 305 17.4642
96.9844 303 17.4069
97.1016 261 16.1555
97.2188 292 17.088
97.336 303 17.4069
97.4532 328 18.1108
97.5704 316 17.7764
97.6877 326 18.0555
97.805 273 16.5227
97.9223 233 15.2643
98.0396 258 16.0624
98.1569 227 15.0665
98.2743 220 14.8324
98.3916 199 14.1067
98.509 207 14.3875
98.6264 224 14.9666
98.7438 238 15.4272
98.8612 243 15.5885
98.9786 266 16.3095
99.096 273 16.5227
99.2134 291 17.0587
99.3308 287 16.9411
99.4482 299 17.2916
99.5656 260 16.1245
99.6831 294 17.1464
99.8005 269 16.4012
99.9179 218 14.7648
100.035 250 15.8114
100.153 215 14.6629
100.27 185 13.6015
100.388 174 13.1909
100.505 160 12.6491
100.622 178 13.3417
100.74 167 12.9228
100.857 170 13.0384
100.975 173 13.1529
101.092 224 14.9666
101.209 290 17.0294
101.327 262 16.1864
101.444 232 15.2315
101.561 209 14.4568
101.679 224 14.9666
101.796 237 15.3948
101.913 251 15.843
102.03 260 16.1245
102.148 295 17.1756
102.265 292 17.088
102.382 321 17.9165
102.499 373 19.3132
102.616 373 19.3132
102.733 369 19.2094
102.851 375 19.3649
102.968 399 19.975
103.085 422 20.5426
103.202 464 21.5407
103.319 442 21.0238
103.436 461 21.4709
103.552 387 19.6723
103.669 375 19.3649
103.786 389 19.7231
103.903 335 18.303
104.02 348 18.6548
104.137 348 18.6548
104.253 328 18.1108
104.37 387 19.6723
104.487 374 19.3391
104.603 406 20.1494
104.72 413 20.3224
104.836 397 19.9249
104.953 353 18.7883
105.069 351 18.735
105.186 370 19.2354
105.302 376 19.3907
105.418 334 18.2757
105.535 272 16.4924
105.651 268 16.3707
105.767 275 16.5831
105.883 236 15.3623
105.999 215 14.6629
106.115 0 1
106.231 0 1
106.347 0 1
106.463 0 1
106.579 0 1
106.694 0 1
106.81 0 1
106.926 0 1
107.041 0 1
107.157 0 1
109.576 0 1
109.692 0 1
109.807 0 1
109.923 0 1
110.039 0 1
110.155 0 1
110.27 0 1
110.386 0 1
110.502 0 1
110.618 306 17.4929
110.735 335 18.303
110.851 328 18.1108
110.967 463 21.5174
111.083 510 22.5832
111.199 510 22.5832
111.316 495 22.2486
111.432 506 22.4944
111.549 523 22.8692
111.665 563 23.7276
111.782 584 24.1661
111.898 610 24.6982
112.015 547 23.388
112.132 533 23.0868
112.248 519 22.7816
112.365 476 21.8174
112.482 480 21.9089
112.599 522 22.8473
112.716 494 22.2261
112.832 498 22.3159
112.949 468 21.6333
113.066 506 22.4944
113.183 495 22.2486
113.3 517 22.7376
113.417 513 22.6495
113.534 498 22.3159
113.652 503 22.4277
113.769 531 23.0434
113.886 551 23.4734
114.003 480 21.9089
114.12 545 23.3452
114.238 561 23.6854
114.355 598 24.454
114.472 548 23.4094
114.589 615 24.7992
114.707 611 24.7184
114.824 615 24.7992
114.942 602 24.5357
115.059 676 26
115.176 635 25.1992
115.294 659 25.671
115.411 674 25.9615
115.529 652 25.5343
115.646 611 24.7184
115.764 600 24.4949
115.881 581 24.1039
115.999 566 23.7908
116.116 544 23.3238
116.234 584 24.1661
116.351 538 23.1948
116.469 527 22.9565
116.586 471 21.7025
116.704 526 22.9347
116.821 506 22.4944
116.939 554 23.5372
117.056 565 23.7697
117.174 568 23.8328
117.291 591 24.3105
117.409 563 23.7276
117.526 547 23.388
117.644 603 24.5561
117.761 636 25.219
117.879 579 24.0624
117.996 611 24.7184
118.114 620 24.8998
118.231 621 24.9199
118.349 615 24.7992
118.466 606 24.6171
118.584 627 25.04
118.701 670 25.8844
118.819 619 24.8797
118.936 662 25.7294
119.053 621 24.9199
119.171 667 25.8263
119.288 638 25.2587
119.405 619 24.8797
119.523 539 23.2164
119.64 559 23.6432
119.757 528 22.9783
119.875 561 23.6854
119.992 498 22.3159
120.109 520 22.8035
120.226 522 22.8473
120.343 521 22.8254
120.46 474 21.7715
120.578 488 22.0907
120.695 489 22.1133
120.812 491 22.1585
120.929 491 22.1585
121.046 521 22.8254
121.163 528 22.9783
121.279 553 23.516
121.396 558 23.622
121.513 588 24.2487
121.63 575 23.9792
121.747 573 23.9374
121.863 605 24.5967
121.98 539 23.2164
122.097 546 23.3666
122.213 516 22.7156
122.33 488 22.0907
122.446 416 20.3961
122.563 395 19.8746
122.679 393 19.8242
122.795 374 19.3391
122.912 334 18.2757
123.028 309 17.5784
123.144 347 18.6279
123.26 311 17.6352
123.377 0 1
123.493 0 1
123.609 0 1
123.725 0 1
123.84 0 1
123.956 0 1
124.072 0 1
124.188 0 1
124.303 0 1
124.419 0 1
126.852 0 1
126.968 0 1
127.083 0 1
127.199 0 1
127.315 0 1
127.431 0 1
127.547 0 1
127.663 0 1
127.779 0 1
127.895 0 1
128.011 0 1
128.127 0 1
128.243 0 1
128.359 640 25.2982
128.476 664 25.7682
128.592 638 25.2587
128.708 682 26.1151
128.825 619 24.8797
128.941 602 24.5357
129.058 621 24.9199
129.174 619 24.8797
129.291 575 23.9792
129.408 570 23.8747
129.524 600 24.4949
129.641 535 23.1301
129.758 562 23.7065
129.875 578 24.0416
129.992 614 24.779
130.108 594 24.3721
130.225 590 24.2899
130.342 628 25.0599
130.459 613 24.7588
130.576 654 25.5734
130.693 609 24.6779
130.81 627 25.04
130.928 560 23.6643
131.045 593 24.3516
131.162 583 24.1454
131.279 620 24.8998
131.396 625 25
131.513 612 24.7386
131.631 585 24.1868
131.748 522 22.8473
131.865 579 24.0624
131.983 606 24.6171
132.1 606 24.6171
132.217 663 25.7488
132.335 589 24.2693
132.452 618 24.8596
132.57 601 24.5153
132.687 617 24.8395
132.804 587 24.2281
132.922 614 24.779
133.039 557 23.6008
133.157 563 23.7276
133.274 576 24
133.392 605 24.5967
133.509 558 23.622
133.627 630 25.0998
133.744 592 24.3311
133.862 616 24.8193
133.979 658 25.6515
134.097 642 25.3377
134.214 599 24.4745
134.332 608 24.6577
134.449 549 23.4307
134.567 602 24.5357
134.684 594 24.3721
134.802 598 24.454
134.919 551 23.4734
135.037 537 23.1733
135.154 544 23.3238
135.272 574 23.9583
135.389 596 24.4131
135.507 645 25.3969
135.624 584 24.1661
135.742 670 25.8844
135.859 621 24.9199
135.977 639 25.2784
136.094 605 24.5967
136.211 578 24.0416
136.329 604 24.5764
136.446 607 24.6374
136.564 599 24.4745
136.681 538 23.1948
136.798 547 23.388
136.915 581 24.1039
137.033 588 24.2487
137.15 577 24.0208
137.267 593 24.3516
137.384 606 24.6171
137.502 623 24.96
137.619 616 24.8193
137.736 616 24.8193
137.853 526 22.9347
137.97 559 23.6432
138.087 510 22.5832
138.204 525 22.9129
138.321 529 23
138.438 543 23.3024
138.555 571 23.8956
138.672 563 23.7276
138.788 517 22.7376
138.905 530 23.0217
139.022 519 22.7816
139.139 534 23.1084
139.255 501 22.383
139.372 490 22.1359
139.488 493 22.2036
139.605 467 21.6102
139.721 425 20.6155
139.838 426 20.6398
139.954 376 19.3907
140.071 370 19.2354
140.187 288 16.9706
140.303 308 17.5499
140.419 319 17.8606
140.535 300 17.3205
140.652 311 17.6352
140.768 0 1
140.884 0 1
141 0 1
141.115 0 1
141.231 0 1
141.347 0 1
141.463 0 1
141.578 0 1
141.694 0 1
144.104 0 1
144.219 0 1
144.335 0 1
144.45 0 1
144.566 0 1
144.682 0 1
144.798 0 1
144.914 0 1
145.03 0 1
145.146 399 19.975
145.262 453 21.2838
145.378 467 21.6102
145.494 470 21.6795
145.61 479 21.8861
145.726 496 22.2711
145.842 477 21.8403
145.959 497 22.2935
146.075 498 22.3159
146.192 473 21.7486
146.308 473 21.7486
146.425 482 21.9545
146.541 474 21.7715
146.658 438 20.9284
146.774 422 20.5426
146.891 452 21.2603
147.008 429 20.7123
147.125 438 20.9284
147.241 457 21.3776
147.358 447 21.1424
147.475 448 21.166
147.592 538 23.1948
147.709 479 21.8861
147.826 443 21.0476
147.943 441 21
148.06 456 21.3542
148.177 441 21
148.294 492 22.1811
148.411 435 20.8567
148.528 513 22.6495
148.645 487 22.0681
148.762 484 22
148.88 474 21.7715
148.997 486 22.0454
149.114 475 21.7945
149.231 499 22.3383
149.349 461 21.4709
149.466 458 21.4009
149.583 451 21.2368
149.701 452 21.2603
149.818 480 21.9089
149.935 517 22.7376
150.053 496 22.2711
150.17 460 21.4476
150.287 450 21.2132
150.405 420 20.4939
150.522 432 20.7846
150.64 458 21.4009
150.757 506 22.4944
150.875 449 21.1896
150.992 460 21.4476
151.11 453 21.2838
151.227 473 21.7486
151.344 483 21.9773
151.462 396 19.8997
151.579 439 20.9523
151.697 440 20.9762
151.814 450 21.2132
151.932 459 21.4243
152.049 478 21.8632
152.167 521 22.8254
152.284 488 22.0907
152.402 488 22.0907
152.519 495 22.2486
152.636 481 21.9317
152.754 471 21.7025
152.871 486 22.0454
152.989 480 21.9089
153.106 487 22.0681
153.223 479 21.8861
153.341 482 21.9545
153.458 431 20.7605
153.575 442 21.0238
153.693 466 21.587
153.81 461 21.4709
153.927 453 21.2838
154.044 452 21.2603
154.162 476 21.8174
154.279 440 20.9762
154.396 495 22.2486
154.513 499 22.3383
154.63 485 22.0227
154.747 513 22.6495
154.864 505 22.4722
154.981 480 21.9089
155.098 480 21.9089
155.215 486 22.0454
155.332 455 21.3307
155.449 502 22.4054
155.566 467 21.6102
155.683 504 22.4499
155.8 500 22.3607
155.917 460 21.4476
156.033 502 22.4054
156.15 0 1
156.267 0 1
156.383 0 1
156.5 0 1
156.617 0 1
156.733 0 1
156.85 0 1
156.966 0 1
157.082 0 1
157.199 0 1
157.315 0 1
157.431 0 1
157.547 0 1
157.664 0 1
157.78 0 1
157.896 0 1
158.012 0 1
158.128 0 1
158.244 0 1
158.359 0 1
158.475 0 1
158.591 0 1
158.706 0 1
