
6.15755 0 1
6.2731 0 1
6.3887 0 1
6.50437 0 1
6.62009 0 1
6.73587 0 1
6.8517 0 1
6.96759 0 1
7.08353 0 1
7.19952 0 1
7.31557 0 1
7.43166 0 1
7.54781 0 1
7.664 0 1
7.78024 0 1
7.89653 0 1
8.01286 0 1
8.12924 0 1
8.24567 0 1
8.36213 0 1
8.47864 0 1
8.59519 0 1
8.71178 0 1
8.82841 0 1
8.94508 0 1
9.06179 0 1
9.17853 0 1
9.29531 0 1
9.41212 0 1
9.52897 0 1
9.64584 0 1
9.76276 0 1
9.8797 0 1
9.99667 0 1
10.1137 0 1
10.2307 0 1
10.3478 0 1
10.4648 0 1
10.5819 0 1
10.6991 0 1
10.8162 0 1
10.9334 0 1
11.0506 0 1
11.1678 0 1
11.285 0 1
11.4023 0 1
11.5196 0 1
11.6369 0 1
11.7542 0 1
11.8715 0 1
11.9888 0 1
12.1062 0 1
12.2235 0 1
12.3409 0 1
12.4582 0 1
12.5756 0 1
12.693 0 1
12.8104 0 1
12.9278 0 1
13.0452 0 1
13.1626 0 1
13.28 0 1
13.3974 0 1
13.5149 0 1
13.6323 0 1
13.7497 0 1
13.8671 0 1
13.9845 0 1
14.1019 0 1
14.2193 0 1
14.3367 0 1
14.4541 0 1
14.5714 0 1
14.6888 0 1
14.8062 0 1
14.9235 0 1
15.0408 0 0
15.1581 0 0
15.2755 0 0
15.3927 0 0
15.51 0 0
15.6273 0 0
15.7445 0 0
15.8617 0 0
15.9789 0 0
16.0961 0 0
16.2132 0 0
16.3304 0 0
16.4475 0 0
16.5646 0 0
16.6816 0 0
16.7986 0 0
16.9156 0 0
17.0326 0 0
17.1496 0 0
17.2665 0 0
17.3833 0 0
17.5002 0 0
17.617 0 0
17.7338 0 0
17.8505 0 0
17.9672 0 0
18.0839 0 0
18.2005 0 0
18.3171 0 0
18.4337 0 0
18.5502 0 0
18.6666 0 0
18.7831 0 0
18.8994 0 0
19.0158 0 0
19.1321 0 0
19.2483 0 0
19.3645 0 0
19.4806 0 0
19.5967 0 0
19.7128 0 0
19.8288 0 0
19.9447 0 0
20.0606 0 1
20.1764 0 1
20.2922 0 1
20.4079 0 1
20.5236 0 1
20.6392 0 1
20.7548 0 1
20.8702 0 1
23.3078 0 1
23.4233 0 1
23.539 0 1
23.6547 0 1
23.7704 0 1
23.8862 0 1
24.0021 0 1
24.118 0 1
24.234 0 1
24.35 0 1
24.4661 1512 38.8844
24.5822 1586 39.8246
24.6984 1604 40.05
24.8146 1563 39.5348
24.9309 1598 39.975
25.0472 1528 39.0896
25.1636 1615 40.1871
25.28 1578 39.724
25.3965 1636 40.4475
25.513 1571 39.6358
25.6296 1565 39.5601
25.7462 1616 40.1995
25.8628 1645 40.5586
25.9795 1624 40.2989
26.0962 1695 41.1704
26.213 1612 40.1497
26.3298 1509 38.8458
26.4466 1502 38.7556
26.5635 1504 38.7814
26.6804 1405 37.4833
26.7973 1263 35.5387
26.9143 1335 36.5377
27.0313 1381 37.1618
27.1483 1467 38.3014
27.2653 1508 38.833
27.3824 1549 39.3573
27.4996 1531 39.128
27.6167 1554 39.4208
27.7339 1568 39.598
27.8511 1530 39.1152
27.9683 1574 39.6737
28.0855 1431 37.8286
28.2028 1550 39.37
28.3201 1500 38.7298
28.4374 1471 38.3536
28.5547 1495 38.6652
28.6721 1493 38.6394
28.7894 1511 38.8716
28.9068 1579 39.7366
29.0242 1581 39.7618
29.1416 1596 39.95
29.259 1603 40.0375
29.3764 1546 39.3192
29.4939 1540 39.2428
29.6113 1534 39.1663
29.7288 1557 39.4588
29.8463 1499 38.7169
29.9638 1460 38.2099
30.0812 1340 36.606
30.1987 1257 35.4542
30.3162 1213 34.8281
30.4337 1259 35.4824
30.5512 1319 36.318
30.6687 1421 37.6962
30.7862 1470 38.3406
30.9037 1548 39.3446
31.0212 1533 39.1535
31.1387 1576 39.6989
31.2562 1524 39.0384
31.3737 1574 39.6737
31.4912 1540 39.2428
31.6087 1548 39.3446
31.7262 1490 38.6005
31.8436 1521 39
31.9611 1511 38.8716
32.0785 1528 39.0896
32.1959 1541 39.2556
32.3134 1471 38.3536
32.4308 1565 39.5601
32.5482 1641 40.5093
32.6655 1668 40.8412
32.7829 1558 39.4715
32.9002 1548 39.3446
33.0176 1521 39
33.1349 1534 39.1663
33.2522 1594 39.9249
33.3694 1552 39.3954
33.4867 1578 39.724
33.6039 1521 39
33.7211 1396 37.3631
33.8383 1290 35.9166
33.9554 1232 35.0999
34.0725 1244 35.2704
34.1896 1317 36.2905
34.3067 1360 36.8782
34.4237 1500 38.7298
34.5407 1516 38.9358
34.6577 1600 40
34.7746 1574 39.6737
34.8915 1594 39.9249
35.0084 1581 39.7618
35.1252 1513 38.8973
35.242 1552 39.3954
35.3587 1531 39.128
35.4755 1500 38.7298
35.5921 1571 39.6358
35.7088 1472 38.3667
35.8254 1560 39.4968
35.9419 1577 39.7115
36.0584 1572 39.6485
36.1749 1544 39.2938
36.2913 1607 40.0874
36.4077 1611 40.1373
36.524 1558 39.4715
36.6403 1579 39.7366
36.7565 1551 39.3827
36.8727 1557 39.4588
36.9889 1541 39.2556
37.1049 1540 39.2428
37.221 0 1
37.3369 0 1
37.4529 0 1
37.5687 0 1
37.6845 0 1
37.8003 0 1
37.916 0 1
38.0316 0 1
38.1472 0 1
40.5851 0 1
40.7008 0 1
40.8164 0 1
40.9322 0 1
41.048 0 1
41.1639 0 1
41.2798 0 1
41.3958 0 1
41.5118 0 1
41.6279 0 1
41.744 1359 36.8646
41.8602 1392 37.3095
41.9765 1319 36.318
42.0928 1383 37.1887
42.2091 1455 38.1445
42.3255 1299 36.0416
42.4419 1334 36.524
42.5584 1217 34.8855
42.675 1126 33.5559
42.7915 984 31.3688
42.9081 1065 32.6343
43.0248 1138 33.7343
43.1415 1211 34.7994
43.2582 1323 36.3731
43.375 1369 37
43.4918 1462 38.2361
43.6087 1313 36.2353
43.7256 1400 37.4166
43.8425 1320 36.3318
43.9595 1288 35.8887
44.0765 1253 35.3977
44.1935 1373 37.054
44.3106 1157 34.0147
44.4277 1152 33.9411
44.5448 1149 33.8969
44.6619 1134 33.6749
44.7791 1274 35.6931
44.8963 1192 34.5254
45.0136 1239 35.1994
45.1308 1245 35.2846
45.2481 1142 33.7935
45.3654 1256 35.4401
45.4827 1241 35.2278
45.6001 1274 35.6931
45.7174 1195 34.5688
45.8348 1266 35.5809
45.9522 1255 35.426
46.0697 1110 33.3167
46.1871 977 31.257
46.3046 922 30.3645
46.422 865 29.4109
46.5395 976 31.241
46.657 1053 32.45
46.7745 1113 33.3617
46.892 1054 32.4654
47.0096 1177 34.3074
47.1271 1108 33.2866
47.2446 1128 33.5857
47.3622 1117 33.4215
47.4797 1105 33.2415
47.5973 1047 32.3574
47.7149 1092 33.0454
47.8324 1022 31.9687
47.95 1117 33.4215
48.0675 1004 31.686
48.1851 985 31.3847
48.3027 972 31.1769
48.4202 994 31.5278
48.5378 1068 32.6803
48.6554 1024 32
48.7729 1098 33.1361
48.8904 1135 33.6898
49.008 1124 33.5261
49.1255 1085 32.9393
49.243 1050 32.4037
49.3605 1058 32.5269
49.478 1039 32.2335
49.5955 1050 32.4037
49.713 949 30.8058
49.8304 909 30.1496
49.9479 946 30.7571
50.0653 865 29.4109
50.1827 1121 33.4813
50.3001 1178 34.322
50.4175 1205 34.7131
50.5348 1327 36.428
50.6521 1392 37.3095
50.7694 1403 37.4566
50.8867 1410 37.55
51.004 1466 38.2884
51.1212 1454 38.1314
51.2384 1490 38.6005
51.3556 1483 38.5097
51.4727 1409 37.5366
51.5899 1478 38.4448
51.707 1462 38.2361
51.824 1540 39.2428
51.9411 1565 39.5601
52.0581 1621 40.2616
52.175 1648 40.5956
52.2919 1701 41.2432
52.4088 1806 42.4971
52.5257 1810 42.5441
52.6425 1720 41.4729
52.7593 1836 42.8486
52.876 1804 42.4735
52.9927 1837 42.8602
53.1094 1831 42.7902
53.226 1749 41.821
53.3426 1496 38.6782
53.4591 1452 38.1051
53.5756 1348 36.7151
53.692 1594 39.9249
53.8084 1746 41.7852
53.9248 1802 42.45
54.0411 1995 44.6654
54.1573 2028 45.0333
54.2735 0 1
54.3896 0 1
54.5057 0 1
54.6217 0 1
54.7377 0 1
54.8537 0 1
54.9695 0 1
55.0853 0 1
55.2011 0 1
55.3168 0 1
55.4324 0 1
57.824 0 1
57.9396 0 1
58.0553 0 1
58.1711 0 1
58.2869 0 1
58.4028 0 1
58.5187 0 1
58.6347 0 1
58.7508 0 1
58.8669 0 1
58.983 2455 49.548
59.0992 2750 52.4404
59.2155 2858 53.4603
59.3318 3030 55.0454
59.4482 3081 55.5068
59.5646 3066 55.3715
59.681 2984 54.626
59.7975 2923 54.0648
59.9141 2912 53.963
60.0306 2871 53.5817
60.1473 2734 52.2877
60.2639 2640 51.3809
60.3807 2785 52.7731
60.4974 2922 54.0555
60.6142 2863 53.507
60.731 2883 53.6936
60.8479 2946 54.2771
60.9648 3085 55.5428
61.0818 3061 55.3263
61.1987 3037 55.109
61.3158 3108 55.7494
61.4328 3140 56.0357
61.5499 2980 54.5894
61.667 2926 54.0925
61.7841 2810 53.0094
61.9013 2430 49.295
62.0185 2358 48.5592
62.1357 2298 47.9375
62.253 2560 50.5964
62.3702 2862 53.4977
62.4875 3004 54.8088
62.6049 3139 56.0268
62.7222 3289 57.3498
62.8396 3204 56.6039
62.9569 3327 57.6802
63.0743 3244 56.9561
63.1918 3232 56.8507
63.3092 3203 56.5951
63.4267 3097 55.6507
63.5441 3092 55.6058
63.6616 3081 55.5068
63.7791 2971 54.5069
63.8966 2957 54.3783
64.0142 2968 54.4794
64.1317 3094 55.6237
64.2492 3118 55.8391
64.3668 3323 57.6455
64.4843 3434 58.6003
64.6019 3324 57.6541
64.7195 3454 58.7707
64.837 3478 58.9746
64.9546 3436 58.6174
65.0722 3391 58.2323
65.1898 3234 56.8683
65.3074 3044 55.1725
65.4249 2864 53.5164
65.5425 2654 51.517
65.6601 2421 49.2037
65.7777 2559 50.5866
65.8952 2824 53.1413
66.0128 3138 56.0179
66.1304 3473 58.9322
66.2479 3470 58.9067
66.3655 3573 59.7746
66.483 3716 60.959
66.6005 3704 60.8605
66.718 3656 60.4649
66.8355 3598 59.9833
66.953 3539 59.4895
67.0705 3582 59.8498
67.1879 3403 58.3352
67.3054 3421 58.4893
67.4228 3290 57.3585
67.5402 3217 56.7186
67.6576 3297 57.4195
67.7749 3385 58.1808
67.8923 3663 60.5227
68.0096 3709 60.9016
68.1269 3802 61.6604
68.2442 3938 62.7535
68.3614 3928 62.6738
68.4787 4032 63.498
68.5958 3922 62.6259
68.713 4125 64.2262
68.8302 4072 63.8122
68.9473 3787 61.5386
69.0643 3357 57.9396
69.1814 3174 56.3383
69.2984 2943 54.2494
69.4154 3017 54.9272
69.5323 3407 58.3695
69.6492 3781 61.4898
69.7661 4119 64.1794
69.8829 4224 64.9923
69.9997 4442 66.6483
70.1165 4350 65.9545
70.2332 4567 67.5796
70.3499 4384 66.2118
70.4665 4282 65.437
70.5831 4288 65.4828
70.6996 4280 65.4217
70.8161 4127 64.2417
70.9326 3864 62.1611
71.049 3836 61.9355
71.1653 3649 60.407
71.2817 3666 60.5475
71.3979 3807 61.7009
71.5141 3859 62.1208
71.6303 4006 63.293
71.7464 3791 61.5711
71.8624 0 1
71.9784 0 1
72.0944 0 1
72.2102 0 1
72.3261 0 1
72.4418 0 1
72.5575 0 1
72.6732 0 1
75.1054 0 1
75.2209 0 1
75.3365 0 1
75.4521 0 1
75.5678 0 1
75.6835 0 1
75.7993 0 1
75.9151 0 1
76.031 0 1
76.147 3857 62.1048
76.263 4095 63.9922
76.3791 4101 64.0391
76.4952 3991 63.1744
76.6113 3914 62.562
76.7276 4033 63.5059
76.8438 4219 64.9538
76.9601 4533 67.3276
77.0765 4642 68.1322
77.1929 4802 69.2965
77.3093 4725 68.7386
77.4258 4825 69.4622
77.5423 4855 69.6778
77.6589 4819 69.419
77.7755 4715 68.6659
77.8921 4566 67.5722
78.0088 4096 64
78.1256 3649 60.407
78.2423 3264 57.1314
78.3591 3209 56.648
78.4759 3384 58.1722
78.5928 3774 61.4329
78.7097 4315 65.6887
78.8266 4645 68.1542
78.9436 4486 66.9776
79.0606 4683 68.4324
79.1776 4767 69.0435
79.2946 4897 69.9786
79.4117 4822 69.4406
79.5288 4803 69.3037
79.6459 4720 68.7023
79.7631 4478 66.9179
79.8802 4232 65.0538
79.9974 4086 63.9218
80.1147 3903 62.474
80.2319 3901 62.458
80.3491 3880 62.2896
80.4664 4098 64.0156
80.5837 4387 66.2344
80.701 4495 67.0448
80.8183 4639 68.1102
80.9357 4632 68.0588
81.053 4698 68.542
81.1704 4583 67.6979
81.2877 4647 68.1689
81.4051 4667 68.3154
81.5225 4602 67.838
81.6399 3993 63.1902
81.7573 3859 62.1208
81.8747 3431 58.5747
81.9922 3224 56.7803
82.1096 3382 58.155
82.227 3562 59.6825
82.3444 3910 62.53
82.4619 4232 65.0538
82.5793 4313 65.6734
82.6967 4667 68.3154
82.8142 4434 66.5883
82.9316 4745 68.884
83.049 4614 67.9264
83.1664 4338 65.8635
83.2838 4375 66.1438
83.4012 4144 64.3739
83.5186 4106 64.0781
83.636 3941 62.7774
83.7534 3677 60.6383
83.8708 3566 59.716
83.9881 3574 59.7829
84.1055 3737 61.131
84.2228 3928 62.6738
84.3401 4183 64.6761
84.4575 4208 64.8691
84.5747 4462 66.7982
84.692 4459 66.7757
84.8093 4526 67.2756
84.9265 4528 67.2904
85.0437 4383 66.2042
85.1609 4205 64.846
85.2781 3954 62.8808
85.3952 3688 60.7289
85.5123 3360 57.9655
85.6294 3302 57.463
85.7465 3456 58.7878
85.8636 3866 62.1772
85.9806 4174 64.6065
86.0976 4486 66.9776
86.2145 4837 69.5485
86.3315 4692 68.4982
86.4484 5074 71.232
86.5652 5100 71.4143
86.682 4930 70.214
86.7988 4892 69.9428
86.9156 4876 69.8284
87.0323 4710 68.6294
87.149 4466 66.8281
87.2657 4350 65.9545
87.3823 4054 63.671
87.4988 4153 64.4438
87.6154 4261 65.2763
87.7318 4387 66.2344
87.8483 4799 69.2748
87.9647 5030 70.9225
88.081 4988 70.6258
88.1973 5325 72.9726
88.3136 5275 72.6292
88.4298 5212 72.1942
88.546 5198 72.0972
88.6621 5112 71.4983
88.7781 4818 69.4118
88.8942 0 1
89.0101 0 1
89.126 0 1
89.2419 0 1
89.3577 0 1
89.4734 0 1
89.5891 0 1
89.7047 0 1
89.8203 0 1
89.9358 0 1
92.3269 0 1
92.4424 0 1
92.558 0 1
92.6736 0 1
92.7893 0 1
92.905 0 1
93.0208 0 1
93.1366 0 1
93.2525 0 1
93.3685 0 1
93.4845 0 1
93.6005 5160 71.8331
93.7167 5303 72.8217
93.8328 5204 72.1388
93.949 5267 72.5741
94.0653 5237 72.3671
94.1816 5042 71.007
94.2979 4789 69.2026
94.4143 4432 66.5733
94.5307 4255 65.2304
94.6472 4132 64.2806
94.7637 3972 63.0238
94.8803 4279 65.4141
94.9969 4480 66.9328
95.1135 4721 68.7095
95.2302 4815 69.3902
95.3469 5125 71.5891
95.4637 5262 72.5396
95.5805 5435 73.7225
95.6973 5460 73.8918
95.8142 5564 74.5922
95.9311 5378 73.3348
96.048 5306 72.8423
96.1649 5238 72.374
96.2819 5145 71.7287
96.3989 4787 69.1881
96.516 4479 66.9253
96.633 4314 65.681
96.7501 4194 64.7611
96.8673 4393 66.2797
96.9844 4764 69.0217
97.1016 4945 70.3207
97.2188 5209 72.1734
97.336 5581 74.7061
97.4532 5434 73.7157
97.5704 5501 74.1687
97.6877 5555 74.5319
97.805 5348 73.13
97.9223 5296 72.7736
98.0396 4916 70.1142
98.1569 4625 68.0074
98.2743 4349 65.9469
98.3916 4186 64.6993
98.509 4231 65.0461
98.6264 4520 67.2309
98.7438 4780 69.1375
98.8612 4991 70.647
98.9786 5326 72.9794
99.096 5575 74.6659
99.2134 5560 74.5654
99.3308 5673 75.3193
99.4482 5706 75.5381
99.5656 5689 75.4255
99.6831 5546 74.4715
99.8005 5382 73.3621
99.9179 5226 72.2911
100.035 5027 70.9013
100.153 4888 69.9142
100.27 4293 65.521
100.388 4430 66.5582
100.505 4803 69.3037
100.622 5252 72.4707
100.74 5533 74.3841
100.857 5632 75.0467
100.975 5775 75.9934
101.092 5608 74.8866
101.209 5740 75.7628
101.327 5745 75.7958
101.444 5702 75.5116
101.561 5384 73.3757
101.679 5101 71.4213
101.796 4762 69.0072
101.913 4468 66.8431
102.03 4586 67.72
102.148 4652 68.2056
102.265 5411 73.5595
102.382 5032 70.9366
102.499 5384 73.3757
102.616 5657 75.213
102.733 5967 77.2464
102.851 5948 77.1233
102.968 6096 78.0769
103.085 6063 77.8653
103.202 5741 75.7694
103.319 5848 76.4722
103.436 5557 74.5453
103.552 5530 74.364
103.669 4905 70.0357
103.786 4696 68.5274
103.903 4845 69.606
104.02 5079 71.2671
104.137 5533 74.3841
104.253 6047 77.7625
104.37 6093 78.0577
104.487 6102 78.1153
104.603 6246 79.0316
104.72 6287 79.2906
104.836 6199 78.7337
104.953 6165 78.5175
105.069 5934 77.0325
105.186 5399 73.4779
105.302 4965 70.4628
105.418 5116 71.5262
105.535 5112 71.4983
105.651 5383 73.3689
105.767 5702 75.5116
105.883 5828 76.3413
105.999 5893 76.7659
106.115 0 1
106.231 0 1
106.347 0 1
106.463 0 1
106.579 0 1
106.694 0 1
106.81 0 1
106.926 0 1
107.041 0 1
107.157 0 1
109.576 0 1
109.692 0 1
109.807 0 1
109.923 0 1
110.039 0 1
110.155 0 1
110.27 0 1
110.386 0 1
110.502 0 1
110.618 4792 69.2243
110.735 5126 71.5961
110.851 5471 73.9662
110.967 5573 74.6525
111.083 5602 74.8465
111.199 5991 77.4016
111.316 6051 77.7882
111.432 5998 77.4468
111.549 5910 76.8765
111.665 5941 77.0779
111.782 5631 75.04
111.898 5582 74.7128
112.015 5263 72.5465
112.132 4943 70.3065
112.248 4444 66.6633
112.365 4215 64.923
112.482 4641 68.1249
112.599 5093 71.3653
112.716 5429 73.6817
112.832 5682 75.379
112.949 5550 74.4983
113.066 5552 74.5117
113.183 5611 74.9066
113.3 5617 74.9466
113.417 5454 73.8512
113.534 5305 72.8354
113.652 5228 72.3049
113.769 4809 69.347
113.886 4572 67.6166
114.003 4456 66.7533
114.12 4456 66.7533
114.238 4724 68.7314
114.355 4769 69.0579
114.472 4788 69.1954
114.589 5000 70.7107
114.707 5051 71.0704
114.824 5340 73.0753
114.942 5317 72.9178
115.059 5314 72.8972
115.176 5308 72.856
115.294 5400 73.4847
115.411 5179 71.9653
115.529 4952 70.3704
115.646 4757 68.971
115.764 4281 65.4294
115.881 3906 62.498
115.999 4161 64.5058
116.116 4443 66.6558
116.234 4944 70.3136
116.351 5060 71.1337
116.469 5228 72.3049
116.586 5474 73.9865
116.704 5470 73.9594
116.821 5312 72.8835
116.939 5310 72.8697
117.056 5343 73.0958
117.174 5172 71.9166
117.291 4929 70.2068
117.409 4818 69.4118
117.526 4494 67.0373
117.644 4463 66.8057
117.761 4459 66.7757
117.879 4802 69.2965
117.996 4965 70.4628
118.114 4944 70.3136
118.231 5121 71.5612
118.349 5030 70.9225
118.466 5262 72.5396
118.584 5389 73.4098
118.701 5509 74.2226
118.819 5401 73.4915
118.936 5359 73.2052
119.053 5360 73.212
119.171 4999 70.7036
119.288 4814 69.383
119.405 4250 65.192
119.523 3880 62.2896
119.64 4026 63.4508
119.757 4284 65.4523
119.875 4883 69.8785
119.992 5241 72.3948
120.109 5293 72.753
120.226 5443 73.7767
120.343 5334 73.0342
120.46 5267 72.5741
120.578 5315 72.904
120.695 5165 71.8679
120.812 5089 71.3372
120.929 5108 71.4703
121.046 4808 69.3397
121.163 4770 69.0652
121.279 4487 66.9851
121.396 4404 66.3626
121.513 4470 66.8581
121.63 4709 68.6222
121.747 4769 69.0579
121.863 5033 70.9436
121.98 5091 71.3512
122.097 5004 70.739
122.213 5242 72.4017
122.33 5145 71.7287
122.446 5253 72.4776
122.563 5355 73.1779
122.679 5267 72.5741
122.795 5000 70.7107
122.912 5004 70.739
123.028 4431 66.5658
123.144 4099 64.0234
123.26 3818 61.79
123.377 0 1
123.493 0 1
123.609 0 1
123.725 0 1
123.84 0 1
123.956 0 1
124.072 0 1
124.188 0 1
124.303 0 1
124.419 0 1
126.852 0 1
126.968 0 1
127.083 0 1
127.199 0 1
127.315 0 1
127.431 0 1
127.547 0 1
127.663 0 1
127.779 0 1
127.895 0 1
128.011 0 1
128.127 0 1
128.243 0 1
128.359 4537 67.3573
128.476 4243 65.1383
128.592 4438 66.6183
128.708 4813 69.3758
128.825 5312 72.8835
128.941 5668 75.2861
129.058 5892 76.7594
129.174 5910 76.8765
129.291 5905 76.844
129.408 5857 76.531
129.524 5772 75.9737
129.641 5884 76.7072
129.758 5821 76.2955
129.875 5738 75.7496
129.992 5362 73.2257
130.108 5320 72.9383
130.225 5167 71.8818
130.342 5005 70.746
130.459 4975 70.5337
130.576 5178 71.9583
130.693 5391 73.4234
130.81 5569 74.6257
130.928 5585 74.7329
131.045 5508 74.2159
131.162 5627 75.0133
131.279 5802 76.1709
131.396 5708 75.5513
131.513 5755 75.8617
131.631 5407 73.5323
131.748 5333 73.0274
131.865 4801 69.2892
131.983 4347 65.9318
132.1 4313 65.6734
132.217 4592 67.7643
132.335 4948 70.342
132.452 5589 74.7596
132.57 5522 74.3102
132.687 5509 74.2226
132.804 5970 77.2658
132.922 5783 76.046
133.039 5667 75.2795
133.157 5651 75.1731
133.274 5652 75.1798
133.392 5371 73.2871
133.509 5324 72.9657
133.627 5270 72.5948
133.744 5051 71.0704
133.862 4864 69.7424
133.979 4952 70.3704
134.097 4901 70.0071
134.214 5081 71.2811
134.332 5073 71.225
134.449 5301 72.808
134.567 5359 73.2052
134.684 5351 73.1505
134.802 5509 74.2226
134.919 5445 73.7902
135.037 5405 73.5187
135.154 5340 73.0753
135.272 5304 72.8286
135.389 4941 70.2922
135.507 4401 66.34
135.624 4148 64.405
135.742 4187 64.707
135.859 4525 67.2681
135.977 5053 71.0845
136.094 5423 73.641
136.211 5495 74.1283
136.329 5548 74.4849
136.446 5606 74.8732
136.564 5676 75.3392
136.681 5766 75.9342
136.798 5387 73.3962
136.915 5536 74.4043
137.033 5439 73.7496
137.15 5349 73.1369
137.267 5334 73.0342
137.384 5111 71.4913
137.502 4916 70.1142
137.619 4894 69.9571
137.736 4954 70.3847
137.853 4794 69.2387
137.97 4911 70.0785
138.087 5493 74.1148
138.204 5346 73.1163
138.321 5458 73.8783
138.438 5363 73.2325
138.555 5428 73.675
138.672 5481 74.0338
138.788 5460 73.8918
138.905 5226 72.2911
139.022 4853 69.6635
139.139 4487 66.9851
139.255 4069 63.7887
139.372 4301 65.582
139.488 4537 67.3573
139.605 5026 70.8943
139.721 5135 71.6589
139.838 5659 75.2263
139.954 5531 74.3707
140.071 5496 74.135
140.187 5419 73.6139
140.303 5530 74.364
140.419 5545 74.4648
140.535 5448 73.8106
140.652 5433 73.7089
140.768 0 1
140.884 0 1
141 0 1
141.115 0 1
141.231 0 1
141.347 0 1
141.463 0 1
141.578 0 1
141.694 0 1
144.104 0 1
144.219 0 1
144.335 0 1
144.45 0 1
144.566 0 1
144.682 0 1
144.798 0 1
144.914 0 1
145.03 0 1
145.146 4622 67.9853
145.262 4821 69.4334
145.378 4673 68.3593
145.494 4722 68.7168
145.61 4823 69.4478
145.726 4772 69.0797
145.842 4580 67.6757
145.959 4546 67.424
146.075 4418 66.468
146.192 4246 65.1613
146.308 4197 64.7843
146.425 4096 64
146.541 4347 65.9318
146.658 4388 66.242
146.774 4369 66.0984
146.891 4475 66.8954
147.008 4387 66.2344
147.125 4570 67.6018
147.241 4516 67.2012
147.358 4297 65.5515
147.475 4208 64.8691
147.592 4063 63.7417
147.709 3823 61.8304
147.826 3349 57.8705
147.943 3440 58.6515
148.06 3627 60.2246
148.177 4093 63.9766
148.294 4366 66.0757
148.411 4296 65.5439
148.528 4407 66.3852
148.645 4413 66.4304
148.762 4371 66.1135
148.88 4408 66.3928
148.997 4152 64.436
149.114 4638 68.1029
149.231 4331 65.8103
149.349 4249 65.1844
149.466 4299 65.5668
149.583 4155 64.4593
149.701 4059 63.7103
149.818 4014 63.3561
149.935 3912 62.546
150.053 3883 62.3137
150.17 3902 62.466
150.287 4023 63.4271
150.405 4069 63.7887
150.522 4143 64.3661
150.64 4169 64.5678
150.757 4085 63.914
150.875 4106 64.0781
150.992 4066 63.7652
151.11 3803 61.6685
151.227 3731 61.0819
151.344 3440 58.6515
151.462 3177 56.3649
151.579 3204 56.6039
151.697 3392 58.2409
151.814 3766 61.3677
151.932 4129 64.2573
152.049 4347 65.9318
152.167 4409 66.4003
152.284 4357 66.0076
152.402 4264 65.2993
152.519 4254 65.2227
152.636 4367 66.0833
152.754 4276 65.3911
152.871 4149 64.4127
152.989 4188 64.7148
153.106 4162 64.5136
153.223 4203 64.8305
153.341 4107 64.0859
153.458 4029 63.4744
153.575 3928 62.6738
153.693 3831 61.8951
153.81 3947 62.8252
153.927 3966 62.9762
154.044 4042 63.5767
154.162 4128 64.2495
154.279 4098 64.0156
154.396 4163 64.5213
154.513 4260 65.2687
154.63 4056 63.6867
154.747 4034 63.5138
154.864 3735 61.1146
154.981 3707 60.8851
155.098 3412 58.4123
155.215 3464 58.8558
155.332 3613 60.1082
155.449 3991 63.1744
155.566 4019 63.3956
155.683 4351 65.9621
155.8 4353 65.9773
155.917 4276 65.3911
156.033 4384 66.2118
156.15 0 1
156.267 0 1
156.383 0 1
156.5 0 1
156.617 0 1
156.733 0 1
156.85 0 1
156.966 0 1
157.082 0 1
157.199 0 1
157.315 0 1
157.431 0 1
157.547 0 1
157.664 0 1
157.78 0 1
157.896 0 1
158.012 0 1
158.128 0 1
158.244 0 1
158.359 0 1
158.475 0 1
158.591 0 1
158.706 0 1
