
6.15755 0 1
6.2731 0 1
6.3887 0 1
6.50437 0 1
6.62009 0 1
6.73587 0 1
6.8517 0 1
6.96759 0 1
7.08353 0 1
7.19952 0 1
7.31557 0 1
7.43166 0 1
7.54781 0 1
7.664 0 1
7.78024 0 1
7.89653 0 1
8.01286 0 1
8.12924 0 1
8.24567 0 1
8.36213 0 1
8.47864 0 1
8.59519 0 1
8.71178 0 1
8.82841 0 1
8.94508 0 1
9.06179 0 1
9.17853 0 1
9.29531 0 1
9.41212 0 1
9.52897 0 1
9.64584 0 1
9.76276 0 1
9.8797 0 1
9.99667 0 1
10.1137 0 1
10.2307 0 1
10.3478 0 1
10.4648 0 1
10.5819 0 1
10.6991 0 1
10.8162 0 1
10.9334 0 1
11.0506 0 1
11.1678 0 1
11.285 0 1
11.4023 0 1
11.5196 0 1
11.6369 0 1
11.7542 0 1
11.8715 0 1
11.9888 0 1
12.1062 0 1
12.2235 0 1
12.3409 0 1
12.4582 0 1
12.5756 0 1
12.693 0 1
12.8104 0 1
12.9278 0 1
13.0452 0 1
13.1626 0 1
13.28 0 1
13.3974 0 1
13.5149 0 1
13.6323 0 1
13.7497 0 1
13.8671 0 1
13.9845 0 1
14.1019 0 1
14.2193 0 1
14.3367 0 1
14.4541 0 1
14.5714 0 1
14.6888 0 1
14.8062 0 1
14.9235 0 1
15.0408 858 29.2916
15.1581 915 30.249
15.2755 890 29.8329
15.3927 892 29.8664
15.51 866 29.4279
15.6273 933 30.545
15.7445 889 29.8161
15.8617 844 29.0517
15.9789 853 29.2062
16.0961 840 28.9828
16.2132 771 27.7669
16.3304 835 28.8964
16.4475 747 27.3313
16.5646 743 27.258
16.6816 768 27.7128
16.7986 775 27.8388
16.9156 797 28.2312
17.0326 816 28.5657
17.1496 777 27.8747
17.2665 792 28.1425
17.3833 791 28.1247
17.5002 823 28.688
17.617 761 27.5862
17.7338 823 28.688
17.8505 808 28.4253
17.9672 837 28.931
18.0839 788 28.0713
18.2005 772 27.7849
18.3171 735 27.1109
18.4337 754 27.4591
18.5502 794 28.178
18.6666 789 28.0891
18.7831 803 28.3373
18.8994 763 27.6225
19.0158 736 27.1293
19.1321 778 27.8927
19.2483 756 27.4955
19.3645 755 27.4773
19.4806 634 25.1794
19.5967 646 25.4165
19.7128 579 24.0624
19.8288 548 23.4094
19.9447 466 21.587
20.0606 0 1
20.1764 0 1
20.2922 0 1
20.4079 0 1
20.5236 0 1
20.6392 0 1
20.7548 0 1
20.8702 0 1
23.3078 0 1
23.4233 0 1
23.539 0 1
23.6547 0 1
23.7704 0 1
23.8862 0 1
24.0021 0 1
24.118 0 1
24.234 0 1
24.35 0 1
24.4661 361 19
24.5822 352 18.7617
24.6984 443 21.0476
24.8146 481 21.9317
24.9309 536 23.1517
25.0472 630 25.0998
25.1636 609 24.6779
25.28 747 27.3313
25.3965 790 28.1069
25.513 790 28.1069
25.6296 787 28.0535
25.7462 872 29.5296
25.8628 819 28.6182
25.9795 825 28.7228
26.0962 827 28.7576
26.213 767 27.6948
26.3298 836 28.9137
26.4466 785 28.0179
26.5635 818 28.6007
26.6804 740 27.2029
26.7973 696 26.3818
26.9143 641 25.318
27.0313 661 25.7099
27.1483 641 25.318
27.2653 729 27
27.3824 730 27.0185
27.4996 733 27.074
27.6167 739 27.1846
27.7339 761 27.5862
27.8511 780 27.9285
27.9683 790 28.1069
28.0855 717 26.7769
28.2028 754 27.4591
28.3201 738 27.1662
28.4374 726 26.9444
28.5547 693 26.3249
28.6721 699 26.4386
28.7894 666 25.807
28.9068 737 27.1477
29.0242 720 26.8328
29.1416 777 27.8747
29.259 738 27.1662
29.3764 703 26.5141
29.4939 730 27.0185
29.6113 710 26.6458
29.7288 701 26.4764
29.8463 711 26.6646
29.9638 720 26.8328
30.0812 719 26.8142
30.1987 683 26.1343
30.3162 632 25.1396
30.4337 641 25.318
30.5512 540 23.2379
30.6687 605 24.5967
30.7862 662 25.7294
30.9037 713 26.7021
31.0212 782 27.9643
31.1387 720 26.8328
31.2562 776 27.8568
31.3737 756 27.4955
31.4912 773 27.8029
31.6087 770 27.7489
31.7262 737 27.1477
31.8436 719 26.8142
31.9611 628 25.0599
32.0785 662 25.7294
32.1959 668 25.8457
32.3134 664 25.7682
32.4308 648 25.4558
32.5482 702 26.4953
32.6655 658 25.6515
32.7829 622 24.9399
32.9002 607 24.6374
33.0176 687 26.2107
33.1349 662 25.7294
33.2522 634 25.1794
33.3694 617 24.8395
33.4867 665 25.7876
33.6039 691 26.2869
33.7211 677 26.0192
33.8383 616 24.8193
33.9554 602 24.5357
34.0725 535 23.1301
34.1896 565 23.7697
34.3067 577 24.0208
34.4237 634 25.1794
34.5407 681 26.096
34.6577 724 26.9072
34.7746 682 26.1151
34.8915 687 26.2107
35.0084 679 26.0576
35.1252 648 25.4558
35.242 665 25.7876
35.3587 673 25.9422
35.4755 603 24.5561
35.5921 586 24.2074
35.7088 566 23.7908
35.8254 562 23.7065
35.9419 580 24.0832
36.0584 567 23.8118
36.1749 600 24.4949
36.2913 665 25.7876
36.4077 601 24.5153
36.524 606 24.6171
36.6403 587 24.2281
36.7565 499 22.3383
36.8727 445 21.095
36.9889 462 21.4942
37.1049 407 20.1742
37.221 0 1
37.3369 0 1
37.4529 0 1
37.5687 0 1
37.6845 0 1
37.8003 0 1
37.916 0 1
38.0316 0 1
38.1472 0 1
40.5851 0 1
40.7008 0 1
40.8164 0 1
40.9322 0 1
41.048 0 1
41.1639 0 1
41.2798 0 1
41.3958 0 1
41.5118 0 1
41.6279 0 1
41.744 270 16.4317
41.8602 353 18.7883
41.9765 391 19.7737
42.0928 492 22.1811
42.2091 509 22.561
42.3255 513 22.6495
42.4419 518 22.7596
42.5584 522 22.8473
42.675 532 23.0651
42.7915 506 22.4944
42.9081 511 22.6053
43.0248 499 22.3383
43.1415 494 22.2261
43.2582 524 22.891
43.375 491 22.1585
43.4918 558 23.622
43.6087 534 23.1084
43.7256 516 22.7156
43.8425 537 23.1733
43.9595 538 23.1948
44.0765 537 23.1733
44.1935 531 23.0434
44.3106 529 23
44.4277 431 20.7605
44.5448 463 21.5174
44.6619 463 21.5174
44.7791 510 22.5832
44.8963 518 22.7596
45.0136 534 23.1084
45.1308 517 22.7376
45.2481 547 23.388
45.3654 546 23.3666
45.4827 591 24.3105
45.6001 548 23.4094
45.7174 565 23.7697
45.8348 552 23.4947
45.9522 534 23.1084
46.0697 577 24.0208
46.1871 530 23.0217
46.3046 464 21.5407
46.422 479 21.8861
46.5395 422 20.5426
46.657 426 20.6398
46.7745 468 21.6333
46.892 476 21.8174
47.0096 488 22.0907
47.1271 497 22.2935
47.2446 499 22.3383
47.3622 532 23.0651
47.4797 496 22.2711
47.5973 475 21.7945
47.7149 440 20.9762
47.8324 447 21.1424
47.95 435 20.8567
48.0675 470 21.6795
48.1851 477 21.8403
48.3027 476 21.8174
48.4202 487 22.0681
48.5378 489 22.1133
48.6554 538 23.1948
48.7729 525 22.9129
48.8904 491 22.1585
49.008 503 22.4277
49.1255 526 22.9347
49.243 528 22.9783
49.3605 474 21.7715
49.478 481 21.9317
49.5955 495 22.2486
49.713 449 21.1896
49.8304 407 20.1742
49.9479 421 20.5183
50.0653 350 18.7083
50.1827 373 19.3132
50.3001 460 21.4476
50.4175 457 21.3776
50.5348 487 22.0681
50.6521 489 22.1133
50.7694 462 21.4942
50.8867 483 21.9773
51.004 490 22.1359
51.1212 454 21.3073
51.2384 450 21.2132
51.3556 453 21.2838
51.4727 394 19.8494
51.5899 465 21.5639
51.707 385 19.6214
51.824 456 21.3542
51.9411 476 21.8174
52.0581 427 20.664
52.175 503 22.4277
52.2919 474 21.7715
52.4088 485 22.0227
52.5257 485 22.0227
52.6425 494 22.2261
52.7593 485 22.0227
52.876 465 21.5639
52.9927 487 22.0681
53.1094 482 21.9545
53.226 471 21.7025
53.3426 419 20.4695
53.4591 361 19
53.5756 367 19.1572
53.692 350 18.7083
53.8084 377 19.4165
53.9248 314 17.72
54.0411 306 17.4929
54.1573 344 18.5472
54.2735 0 1
54.3896 0 1
54.5057 0 1
54.6217 0 1
54.7377 0 1
54.8537 0 1
54.9695 0 1
55.0853 0 1
55.2011 0 1
55.3168 0 1
55.4324 0 1
57.824 0 1
57.9396 0 1
58.0553 0 1
58.1711 0 1
58.2869 0 1
58.4028 0 1
58.5187 0 1
58.6347 0 1
58.7508 0 1
58.8669 0 1
58.983 466 21.587
59.0992 597 24.4336
59.2155 700 26.4575
59.3318 719 26.8142
59.4482 755 27.4773
59.5646 888 29.7993
59.681 809 28.4429
59.7975 869 29.4788
59.9141 883 29.7153
60.0306 931 30.5123
60.1473 851 29.1719
60.2639 829 28.7924
60.3807 830 28.8097
60.4974 839 28.9655
60.6142 954 30.8869
60.731 893 29.8831
60.8479 876 29.5973
60.9648 846 29.0861
61.0818 831 28.8271
61.1987 810 28.4605
61.3158 812 28.4956
61.4328 823 28.688
61.5499 790 28.1069
61.667 744 27.2764
61.7841 749 27.3679
61.9013 721 26.8514
62.0185 672 25.923
62.1357 620 24.8998
62.253 637 25.2389
62.3702 632 25.1396
62.4875 614 24.779
62.6049 640 25.2982
62.7222 624 24.98
62.8396 630 25.0998
62.9569 634 25.1794
63.0743 603 24.5561
63.1918 612 24.7386
63.3092 606 24.6171
63.4267 575 23.9792
63.5441 543 23.3024
63.6616 526 22.9347
63.7791 533 23.0868
63.8966 520 22.8035
64.0142 553 23.516
64.1317 506 22.4944
64.2492 525 22.9129
64.3668 575 23.9792
64.4843 555 23.5584
64.6019 536 23.1517
64.7195 509 22.561
64.837 514 22.6716
64.9546 571 23.8956
65.0722 548 23.4094
65.1898 541 23.2594
65.3074 557 23.6008
65.4249 510 22.5832
65.5425 464 21.5407
65.6601 506 22.4944
65.7777 499 22.3383
65.8952 494 22.2261
66.0128 522 22.8473
66.1304 508 22.5389
66.2479 525 22.9129
66.3655 578 24.0416
66.483 524 22.891
66.6005 550 23.4521
66.718 554 23.5372
66.8355 539 23.2164
66.953 536 23.1517
67.0705 506 22.4944
67.1879 499 22.3383
67.3054 529 23
67.4228 493 22.2036
67.5402 527 22.9565
67.6576 505 22.4722
67.7749 526 22.9347
67.8923 511 22.6053
68.0096 540 23.2379
68.1269 481 21.9317
68.2442 509 22.561
68.3614 561 23.6854
68.4787 520 22.8035
68.5958 556 23.5797
68.713 526 22.9347
68.8302 534 23.1084
68.9473 486 22.0454
69.0643 525 22.9129
69.1814 504 22.4499
69.2984 414 20.347
69.4154 492 22.1811
69.5323 513 22.6495
69.6492 433 20.8087
69.7661 496 22.2711
69.8829 553 23.516
69.9997 517 22.7376
70.1165 506 22.4944
70.2332 511 22.6053
70.3499 476 21.8174
70.4665 465 21.5639
70.5831 429 20.7123
70.6996 407 20.1742
70.8161 365 19.105
70.9326 352 18.7617
71.049 314 17.72
71.1653 315 17.7482
71.2817 288 16.9706
71.3979 262 16.1864
71.5141 235 15.3297
71.6303 237 15.3948
71.7464 182 13.4907
71.8624 0 1
71.9784 0 1
72.0944 0 1
72.2102 0 1
72.3261 0 1
72.4418 0 1
72.5575 0 1
72.6732 0 1
75.1054 0 1
75.2209 0 1
75.3365 0 1
75.4521 0 1
75.5678 0 1
75.6835 0 1
75.7993 0 1
75.9151 0 1
76.031 0 1
76.147 300 17.3205
76.263 324 18
76.3791 330 18.1659
76.4952 416 20.3961
76.6113 399 19.975
76.7276 430 20.7364
76.8438 475 21.7945
76.9601 463 21.5174
77.0765 393 19.8242
77.1929 445 21.095
77.3093 425 20.6155
77.4258 402 20.0499
77.5423 469 21.6564
77.6589 453 21.2838
77.7755 475 21.7945
77.8921 444 21.0713
78.0088 435 20.8567
78.1256 403 20.0749
78.2423 394 19.8494
78.3591 390 19.7484
78.4759 382 19.5448
78.5928 385 19.6214
78.7097 407 20.1742
78.8266 383 19.5704
78.9436 462 21.4942
79.0606 453 21.2838
79.1776 458 21.4009
79.2946 477 21.8403
79.4117 452 21.2603
79.5288 405 20.1246
79.6459 421 20.5183
79.7631 420 20.4939
79.8802 409 20.2237
79.9974 440 20.9762
80.1147 451 21.2368
80.2319 471 21.7025
80.3491 437 20.9045
80.4664 437 20.9045
80.5837 446 21.1187
80.701 440 20.9762
80.8183 418 20.445
80.9357 436 20.8806
81.053 412 20.2978
81.1704 440 20.9762
81.2877 475 21.7945
81.4051 415 20.3715
81.5225 469 21.6564
81.6399 462 21.4942
81.7573 442 21.0238
81.8747 468 21.6333
81.9922 405 20.1246
82.1096 343 18.5203
82.227 376 19.3907
82.3444 383 19.5704
82.4619 444 21.0713
82.5793 417 20.4206
82.6967 444 21.0713
82.8142 494 22.2261
82.9316 482 21.9545
83.049 438 20.9284
83.1664 458 21.4009
83.2838 388 19.6977
83.4012 438 20.9284
83.5186 414 20.347
83.636 477 21.8403
83.7534 454 21.3073
83.8708 463 21.5174
83.9881 474 21.7715
84.1055 439 20.9523
84.2228 461 21.4709
84.3401 440 20.9762
84.4575 462 21.4942
84.5747 449 21.1896
84.692 436 20.8806
84.8093 440 20.9762
84.9265 427 20.664
85.0437 468 21.6333
85.1609 452 21.2603
85.2781 454 21.3073
85.3952 485 22.0227
85.5123 429 20.7123
85.6294 409 20.2237
85.7465 425 20.6155
85.8636 452 21.2603
85.9806 415 20.3715
86.0976 423 20.567
86.2145 430 20.7364
86.3315 449 21.1896
86.4484 441 21
86.5652 494 22.2261
86.682 474 21.7715
86.7988 458 21.4009
86.9156 451 21.2368
87.0323 418 20.445
87.149 436 20.8806
87.2657 476 21.8174
87.3823 444 21.0713
87.4988 437 20.9045
87.6154 466 21.587
87.7318 425 20.6155
87.8483 412 20.2978
87.9647 372 19.2873
88.081 363 19.0526
88.1973 329 18.1384
88.3136 328 18.1108
88.4298 297 17.2337
88.546 260 16.1245
88.6621 228 15.0997
88.7781 255 15.9687
88.8942 0 1
89.0101 0 1
89.126 0 1
89.2419 0 1
89.3577 0 1
89.4734 0 1
89.5891 0 1
89.7047 0 1
89.8203 0 1
89.9358 0 1
92.3269 0 1
92.4424 0 1
92.558 0 1
92.6736 0 1
92.7893 0 1
92.905 0 1
93.0208 0 1
93.1366 0 1
93.2525 0 1
93.3685 0 1
93.4845 0 1
93.6005 367 19.1572
93.7167 391 19.7737
93.8328 404 20.0998
93.949 455 21.3307
94.0653 457 21.3776
94.1816 447 21.1424
94.2979 484 22
94.4143 447 21.1424
94.5307 445 21.095
94.6472 406 20.1494
94.7637 417 20.4206
94.8803 470 21.6795
94.9969 443 21.0476
95.1135 458 21.4009
95.2302 465 21.5639
95.3469 441 21
95.4637 490 22.1359
95.5805 492 22.1811
95.6973 500 22.3607
95.8142 490 22.1359
95.9311 428 20.6882
96.048 422 20.5426
96.1649 447 21.1424
96.2819 432 20.7846
96.3989 436 20.8806
96.516 484 22
96.633 474 21.7715
96.7501 486 22.0454
96.8673 498 22.3159
96.9844 480 21.9089
97.1016 448 21.166
97.2188 481 21.9317
97.336 480 21.9089
97.4532 454 21.3073
97.5704 454 21.3073
97.6877 485 22.0227
97.805 470 21.6795
97.9223 457 21.3776
98.0396 507 22.5167
98.1569 491 22.1585
98.2743 494 22.2261
98.3916 464 21.5407
98.509 478 21.8632
98.6264 446 21.1187
98.7438 456 21.3542
98.8612 472 21.7256
98.9786 516 22.7156
99.096 524 22.891
99.2134 517 22.7376
99.3308 476 21.8174
99.4482 492 22.1811
99.5656 510 22.5832
99.6831 465 21.5639
99.8005 533 23.0868
99.9179 516 22.7156
100.035 535 23.1301
100.153 519 22.7816
100.27 510 22.5832
100.388 507 22.5167
100.505 522 22.8473
100.622 537 23.1733
100.74 507 22.5167
100.857 504 22.4499
100.975 468 21.6333
101.092 513 22.6495
101.209 505 22.4722
101.327 537 23.1733
101.444 523 22.8692
101.561 522 22.8473
101.679 520 22.8035
101.796 494 22.2261
101.913 514 22.6716
102.03 552 23.4947
102.148 495 22.2486
102.265 510 22.5832
102.382 484 22
102.499 508 22.5389
102.616 541 23.2594
102.733 561 23.6854
102.851 539 23.2164
102.968 576 24
103.085 515 22.6936
103.202 523 22.8692
103.319 575 23.9792
103.436 537 23.1733
103.552 510 22.5832
103.669 546 23.3666
103.786 540 23.2379
103.903 550 23.4521
104.02 581 24.1039
104.137 555 23.5584
104.253 526 22.9347
104.37 528 22.9783
104.487 542 23.2809
104.603 530 23.0217
104.72 512 22.6274
104.836 571 23.8956
104.953 505 22.4722
105.069 517 22.7376
105.186 497 22.2935
105.302 427 20.664
105.418 414 20.347
105.535 387 19.6723
105.651 319 17.8606
105.767 324 18
105.883 304 17.4356
105.999 294 17.1464
106.115 0 1
106.231 0 1
106.347 0 1
106.463 0 1
106.579 0 1
106.694 0 1
106.81 0 1
106.926 0 1
107.041 0 1
107.157 0 1
109.576 0 1
109.692 0 1
109.807 0 1
109.923 0 1
110.039 0 1
110.155 0 1
110.27 0 1
110.386 0 1
110.502 0 1
110.618 231 15.1987
110.735 314 17.72
110.851 372 19.2873
110.967 425 20.6155
111.083 410 20.2485
111.199 482 21.9545
111.316 508 22.5389
111.432 572 23.9165
111.549 533 23.0868
111.665 501 22.383
111.782 527 22.9565
111.898 525 22.9129
112.015 514 22.6716
112.132 518 22.7596
112.248 517 22.7376
112.365 537 23.1733
112.482 545 23.3452
112.599 515 22.6936
112.716 515 22.6936
112.832 569 23.8537
112.949 541 23.2594
113.066 501 22.383
113.183 519 22.7816
113.3 496 22.2711
113.417 522 22.8473
113.534 496 22.2711
113.652 508 22.5389
113.769 467 21.6102
113.886 462 21.4942
114.003 470 21.6795
114.12 506 22.4944
114.238 442 21.0238
114.355 496 22.2711
114.472 474 21.7715
114.589 500 22.3607
114.707 480 21.9089
114.824 528 22.9783
114.942 470 21.6795
115.059 521 22.8254
115.176 502 22.4054
115.294 459 21.4243
115.411 471 21.7025
115.529 506 22.4944
115.646 489 22.1133
115.764 479 21.8861
115.881 478 21.8632
115.999 545 23.3452
116.116 484 22
116.234 513 22.6495
116.351 537 23.1733
116.469 494 22.2261
116.586 437 20.9045
116.704 458 21.4009
116.821 452 21.2603
116.939 479 21.8861
117.056 491 22.1585
117.174 444 21.0713
117.291 468 21.6333
117.409 440 20.9762
117.526 473 21.7486
117.644 459 21.4243
117.761 442 21.0238
117.879 471 21.7025
117.996 429 20.7123
118.114 422 20.5426
118.231 457 21.3776
118.349 458 21.4009
118.466 505 22.4722
118.584 459 21.4243
118.701 471 21.7025
118.819 460 21.4476
118.936 444 21.0713
119.053 473 21.7486
119.171 420 20.4939
119.288 432 20.7846
119.405 464 21.5407
119.523 447 21.1424
119.64 472 21.7256
119.757 446 21.1187
119.875 468 21.6333
119.992 441 21
120.109 465 21.5639
120.226 396 19.8997
120.343 437 20.9045
120.46 414 20.347
120.578 464 21.5407
120.695 432 20.7846
120.812 458 21.4009
120.929 427 20.664
121.046 432 20.7846
121.163 424 20.5913
121.279 421 20.5183
121.396 394 19.8494
121.513 365 19.105
121.63 386 19.6469
121.747 389 19.7231
121.863 374 19.3391
121.98 395 19.8746
122.097 388 19.6977
122.213 371 19.2614
122.33 356 18.868
122.446 339 18.412
122.563 336 18.3303
122.679 351 18.735
122.795 278 16.6733
122.912 246 15.6844
123.028 229 15.1327
123.144 275 16.5831
123.26 216 14.6969
123.377 0 1
123.493 0 1
123.609 0 1
123.725 0 1
123.84 0 1
123.956 0 1
124.072 0 1
124.188 0 1
124.303 0 1
124.419 0 1
126.852 0 1
126.968 0 1
127.083 0 1
127.199 0 1
127.315 0 1
127.431 0 1
127.547 0 1
127.663 0 1
127.779 0 1
127.895 0 1
128.011 0 1
128.127 0 1
128.243 0 1
128.359 403 20.0749
128.476 468 21.6333
128.592 435 20.8567
128.708 451 21.2368
128.825 505 22.4722
128.941 504 22.4499
129.058 505 22.4722
129.174 460 21.4476
129.291 508 22.5389
129.408 508 22.5389
129.524 494 22.2261
129.641 500 22.3607
129.758 524 22.891
129.875 468 21.6333
129.992 549 23.4307
130.108 534 23.1084
130.225 515 22.6936
130.342 507 22.5167
130.459 529 23
130.576 496 22.2711
130.693 491 22.1585
130.81 487 22.0681
130.928 560 23.6643
131.045 581 24.1039
131.162 561 23.6854
131.279 669 25.865
131.396 670 25.8844
131.513 634 25.1794
131.631 719 26.8142
131.748 695 26.3629
131.865 604 24.5764
131.983 724 26.9072
132.1 710 26.6458
132.217 754 27.4591
132.335 784 28
132.452 746 27.313
132.57 778 27.8927
132.687 771 27.7669
132.804 876 29.5973
132.922 879 29.6479
133.039 846 29.0861
133.157 841 29
133.274 899 29.9833
133.392 931 30.5123
133.509 886 29.7658
133.627 876 29.5973
133.744 908 30.133
133.862 908 30.133
133.979 825 28.7228
134.097 798 28.2489
134.214 791 28.1247
134.332 786 28.0357
134.449 794 28.178
134.567 771 27.7669
134.684 839 28.9655
134.802 855 29.2404
134.919 914 30.2324
135.037 879 29.6479
135.154 937 30.6105
135.272 873 29.5466
135.389 935 30.5778
135.507 876 29.5973
135.624 856 29.2575
135.742 824 28.7054
135.859 929 30.4795
135.977 945 30.7409
136.094 889 29.8161
136.211 935 30.5778
136.329 891 29.8496
136.446 927 30.4467
136.564 904 30.0666
136.681 933 30.545
136.798 936 30.5941
136.915 1006 31.7175
137.033 922 30.3645
137.15 945 30.7409
137.267 942 30.692
137.384 889 29.8161
137.502 932 30.5287
137.619 846 29.0861
137.736 828 28.775
137.853 829 28.7924
137.97 793 28.1603
138.087 814 28.5307
138.204 834 28.8791
138.321 857 29.2746
138.438 891 29.8496
138.555 900 30
138.672 901 30.0167
138.788 940 30.6594
138.905 939 30.6431
139.022 915 30.249
139.139 782 27.9643
139.255 813 28.5132
139.372 713 26.7021
139.488 695 26.3629
139.605 726 26.9444
139.721 696 26.3818
139.838 641 25.318
139.954 655 25.593
140.071 642 25.3377
140.187 563 23.7276
140.303 543 23.3024
140.419 476 21.8174
140.535 478 21.8632
140.652 471 21.7025
140.768 0 1
140.884 0 1
141 0 1
141.115 0 1
141.231 0 1
141.347 0 1
141.463 0 1
141.578 0 1
141.694 0 1
144.104 0 1
144.219 0 1
144.335 0 1
144.45 0 1
144.566 0 1
144.682 0 1
144.798 0 1
144.914 0 1
145.03 0 1
145.146 1160 34.0588
145.262 1245 35.2846
145.378 1396 37.3631
145.494 1376 37.0945
145.61 1507 38.8201
145.726 1481 38.4838
145.842 1500 38.7298
145.959 1527 39.0768
146.075 1615 40.1871
146.192 1572 39.6485
146.308 1550 39.37
146.425 1552 39.3954
146.541 1598 39.975
146.658 1606 40.0749
146.774 1498 38.704
146.891 1531 39.128
147.008 1529 39.1024
147.125 1509 38.8458
147.241 1507 38.8201
147.358 1586 39.8246
147.475 1665 40.8044
147.592 1708 41.328
147.709 1703 41.2674
147.826 1575 39.6863
147.943 1601 40.0125
148.06 1512 38.8844
148.177 1439 37.9342
148.294 1397 37.3765
148.411 1407 37.51
148.528 1559 39.4842
148.645 1503 38.7685
148.762 1558 39.4715
148.88 1482 38.4968
148.997 1545 39.3065
149.114 1548 39.3446
149.231 1516 38.9358
149.349 1580 39.7492
149.466 1513 38.8973
149.583 1556 39.4462
149.701 1508 38.833
149.818 1451 38.092
149.935 1436 37.8946
150.053 1379 37.1349
150.17 1423 37.7227
150.287 1375 37.081
150.405 1342 36.6333
150.522 1363 36.9188
150.64 1410 37.55
150.757 1329 36.4555
150.875 1327 36.428
150.992 1285 35.8469
151.11 1380 37.1484
151.227 1412 37.5766
151.344 1457 38.1707
151.462 1401 37.4299
151.579 1304 36.1109
151.697 1256 35.4401
151.814 1265 35.5668
151.932 1240 35.2136
152.049 1337 36.565
152.167 1380 37.1484
152.284 1459 38.1969
152.402 1398 37.3898
152.519 1376 37.0945
152.636 1414 37.6032
152.754 1365 36.9459
152.871 1486 38.5487
152.989 1368 36.9865
153.106 1396 37.3631
153.223 1345 36.6742
153.341 1368 36.9865
153.458 1377 37.108
153.575 1307 36.1525
153.693 1285 35.8469
153.81 1248 35.327
153.927 1256 35.4401
154.044 1233 35.1141
154.162 1262 35.5246
154.279 1229 35.0571
154.396 1313 36.2353
154.513 1225 35
154.63 1248 35.327
154.747 1349 36.7287
154.864 1418 37.6563
154.981 1295 35.9861
155.098 1294 35.9722
155.215 1324 36.3868
155.332 1302 36.0832
155.449 1356 36.8239
155.566 1318 36.3043
155.683 1346 36.6879
155.8 1380 37.1484
155.917 1442 37.9737
156.033 1377 37.108
156.15 0 1
156.267 0 1
156.383 0 1
156.5 0 1
156.617 0 1
156.733 0 1
156.85 0 1
156.966 0 1
157.082 0 1
157.199 0 1
157.315 0 1
157.431 0 1
157.547 0 1
157.664 0 1
157.78 0 1
157.896 0 1
158.012 0 1
158.128 0 1
158.244 0 1
158.359 0 1
158.475 0 1
158.591 0 1
158.706 0 1
