
6.15755 0 1
6.2731 0 1
6.3887 0 1
6.50437 0 1
6.62009 0 1
6.73587 0 1
6.8517 0 1
6.96759 0 1
7.08353 0 1
7.19952 0 1
7.31557 0 1
7.43166 0 1
7.54781 0 1
7.664 0 1
7.78024 0 1
7.89653 0 1
8.01286 0 1
8.12924 0 1
8.24567 0 1
8.36213 0 1
8.47864 0 1
8.59519 0 1
8.71178 0 1
8.82841 0 1
8.94508 0 1
9.06179 0 1
9.17853 0 1
9.29531 0 1
9.41212 0 1
9.52897 0 1
9.64584 0 1
9.76276 0 1
9.8797 0 1
9.99667 0 1
10.1137 0 1
10.2307 0 1
10.3478 0 1
10.4648 0 1
10.5819 0 1
10.6991 0 1
10.8162 0 1
10.9334 0 1
11.0506 0 1
11.1678 0 1
11.285 0 1
11.4023 0 1
11.5196 0 1
11.6369 0 1
11.7542 0 1
11.8715 0 1
11.9888 0 1
12.1062 0 1
12.2235 0 1
12.3409 0 1
12.4582 0 1
12.5756 0 1
12.693 0 1
12.8104 0 1
12.9278 0 1
13.0452 0 1
13.1626 0 1
13.28 0 1
13.3974 0 1
13.5149 0 1
13.6323 0 1
13.7497 0 1
13.8671 0 1
13.9845 0 1
14.1019 0 1
14.2193 0 1
14.3367 0 1
14.4541 0 1
14.5714 0 1
14.6888 0 1
14.8062 0 1
14.9235 0 1
15.0408 0 0
15.1581 0 0
15.2755 0 0
15.3927 0 0
15.51 0 0
15.6273 0 0
15.7445 0 0
15.8617 0 0
15.9789 0 0
16.0961 0 0
16.2132 0 0
16.3304 0 0
16.4475 0 0
16.5646 0 0
16.6816 0 0
16.7986 0 0
16.9156 0 0
17.0326 0 0
17.1496 0 0
17.2665 0 0
17.3833 0 0
17.5002 0 0
17.617 0 0
17.7338 0 0
17.8505 0 0
17.9672 0 0
18.0839 0 0
18.2005 0 0
18.3171 0 0
18.4337 0 0
18.5502 0 0
18.6666 0 0
18.7831 0 0
18.8994 0 0
19.0158 0 0
19.1321 0 0
19.2483 0 0
19.3645 0 0
19.4806 0 0
19.5967 0 0
19.7128 0 0
19.8288 0 0
19.9447 0 0
20.0606 0 1
20.1764 0 1
20.2922 0 1
20.4079 0 1
20.5236 0 1
20.6392 0 1
20.7548 0 1
20.8702 0 1
23.3078 0 1
23.4233 0 1
23.539 0 1
23.6547 0 1
23.7704 0 1
23.8862 0 1
24.0021 0 1
24.118 0 1
24.234 0 1
24.35 0 1
24.4661 13343 115.512
24.5822 13428 115.879
24.6984 13007 114.048
24.8146 13036 114.175
24.9309 12824 113.243
25.0472 12543 111.996
25.1636 12592 112.214
25.28 12809 113.177
25.3965 12918 113.657
25.513 13197 114.878
25.6296 13635 116.769
25.7462 13883 117.826
25.8628 13757 117.29
25.9795 14105 118.764
26.0962 13971 118.199
26.213 13957 118.14
26.3298 13471 116.065
26.4466 13475 116.082
26.5635 12951 113.802
26.6804 12724 112.801
26.7973 13009 114.057
26.9143 13371 115.633
27.0313 13538 116.353
27.1483 13926 118.008
27.2653 14174 119.055
27.3824 14386 119.942
27.4996 14337 119.737
27.6167 14217 119.235
27.7339 14026 118.431
27.8511 13673 116.932
27.9683 13342 115.508
28.0855 13166 114.743
28.2028 13170 114.761
28.3201 12453 111.593
28.4374 12401 111.36
28.5547 11920 109.179
28.6721 11997 109.531
28.7894 12002 109.554
28.9068 12144 110.2
29.0242 12073 109.877
29.1416 12258 110.716
29.259 12273 110.784
29.3764 12529 111.933
29.4939 12633 112.397
29.6113 12481 111.718
29.7288 12817 113.212
29.8463 12273 110.784
29.9638 12123 110.104
30.0812 12037 109.713
30.1987 11935 109.247
30.3162 12114 110.064
30.4337 12350 111.131
30.5512 12907 113.609
30.6687 13113 114.512
30.7862 13507 116.22
30.9037 13183 114.817
31.0212 13325 115.434
31.1387 13581 116.538
31.2562 13222 114.987
31.3737 13236 115.048
31.4912 13187 114.835
31.6087 12831 113.274
31.7262 12774 113.022
31.8436 12518 111.884
31.9611 12138 110.173
32.0785 12038 109.718
32.1959 11439 106.953
32.3134 11478 107.135
32.4308 11714 108.231
32.5482 11799 108.623
32.6655 11878 108.986
32.7829 11855 108.881
32.9002 11842 108.821
33.0176 11838 108.803
33.1349 12102 110.009
33.2522 12341 111.09
33.3694 12363 111.189
33.4867 12212 110.508
33.6039 11949 109.311
33.7211 11934 109.243
33.8383 11884 109.014
33.9554 12016 109.618
34.0725 12313 110.964
34.1896 12572 112.125
34.3067 13007 114.048
34.4237 13465 116.039
34.5407 13547 116.392
34.6577 13682 116.97
34.7746 13541 116.366
34.8915 13694 117.021
35.0084 13073 114.337
35.1252 13128 114.577
35.242 13021 114.11
35.3587 12769 113
35.4755 12522 111.902
35.5921 12450 111.58
35.7088 12113 110.059
35.8254 11681 108.079
35.9419 11526 107.359
36.0584 11423 106.878
36.1749 11370 106.63
36.2913 11370 106.63
36.4077 11601 107.708
36.524 11566 107.545
36.6403 11843 108.826
36.7565 11891 109.046
36.8727 11724 108.277
36.9889 11786 108.563
37.1049 11956 109.343
37.221 0 1
37.3369 0 1
37.4529 0 1
37.5687 0 1
37.6845 0 1
37.8003 0 1
37.916 0 1
38.0316 0 1
38.1472 0 1
40.5851 0 1
40.7008 0 1
40.8164 0 1
40.9322 0 1
41.048 0 1
41.1639 0 1
41.2798 0 1
41.3958 0 1
41.5118 0 1
41.6279 0 1
41.744 9741 98.6965
41.8602 10014 100.07
41.9765 10431 102.132
42.0928 10576 102.84
42.2091 10773 103.793
42.3255 10598 102.947
42.4419 10210 101.045
42.5584 9855 99.2724
42.675 10036 100.18
42.7915 10447 102.211
42.9081 10679 103.339
43.0248 11019 104.971
43.1415 11218 105.915
43.2582 11449 107
43.375 11848 108.849
43.4918 11977 109.439
43.6087 11564 107.536
43.7256 11894 109.06
43.8425 11343 106.504
43.9595 11469 107.093
44.0765 11132 105.508
44.1935 10792 103.885
44.3106 10619 103.049
44.4277 10308 101.528
44.5448 9620 98.0816
44.6619 9143 95.619
44.7791 9089 95.3362
44.8963 8935 94.5251
45.0136 8887 94.2709
45.1308 9116 95.4777
45.2481 9116 95.4777
45.3654 9193 95.8801
45.4827 9182 95.8228
45.6001 9248 96.1665
45.7174 9055 95.1578
45.8348 9077 95.2733
45.9522 8883 94.2497
46.0697 8634 92.9193
46.1871 8535 92.3851
46.3046 8529 92.3526
46.422 8874 94.2019
46.5395 9340 96.6437
46.657 9542 97.6832
46.7745 9494 97.4372
46.892 9675 98.3616
47.0096 9830 99.1464
47.1271 9833 99.1615
47.2446 9546 97.7036
47.3622 9785 98.9192
47.4797 9489 97.4115
47.5973 9157 95.6922
47.7149 9099 95.3887
47.8324 8679 93.1612
47.95 8408 91.6951
48.0675 7822 88.4421
48.1851 7507 86.6429
48.3027 7297 85.4225
48.4202 7175 84.7054
48.5378 7210 84.9117
48.6554 7390 85.9651
48.7729 7437 86.238
48.8904 7595 87.1493
49.008 7784 88.227
49.1255 7826 88.4647
49.243 7925 89.0225
49.3605 7785 88.2326
49.478 7631 87.3556
49.5955 7573 87.023
49.713 7623 87.3098
49.8304 7800 88.3176
49.9479 8268 90.9285
50.0653 9023 94.9895
50.1827 9303 96.4521
50.3001 9526 97.6012
50.4175 9985 99.925
50.5348 10200 100.995
50.6521 10666 103.276
50.7694 10631 103.107
50.8867 10987 104.819
51.004 11303 106.316
51.1212 11461 107.056
51.2384 11281 106.212
51.3556 11446 106.986
51.4727 11041 105.076
51.5899 10458 102.264
51.707 9994 99.97
51.824 9844 99.2169
51.9411 9785 98.9192
52.0581 9909 99.544
52.175 10151 100.752
52.2919 10229 101.139
52.4088 10433 102.142
52.5257 10542 102.674
52.6425 10600 102.956
52.7593 10860 104.211
52.876 11127 105.485
52.9927 11218 105.915
53.1094 11145 105.57
53.226 11102 105.366
53.3426 11025 105
53.4591 11460 107.051
53.5756 11890 109.041
53.692 12725 112.805
53.8084 13240 115.065
53.9248 13560 116.447
54.0411 14106 118.769
54.1573 14436 120.15
54.2735 0 1
54.3896 0 1
54.5057 0 1
54.6217 0 1
54.7377 0 1
54.8537 0 1
54.9695 0 1
55.0853 0 1
55.2011 0 1
55.3168 0 1
55.4324 0 1
57.824 0 1
57.9396 0 1
58.0553 0 1
58.1711 0 1
58.2869 0 1
58.4028 0 1
58.5187 0 1
58.6347 0 1
58.7508 0 1
58.8669 0 1
58.983 15731 125.423
59.0992 16188 127.232
59.2155 16779 129.534
59.3318 17143 130.931
59.4482 17606 132.688
59.5646 17318 131.598
59.681 17694 133.019
59.7975 17086 130.713
59.9141 16702 129.236
60.0306 16020 126.57
60.1473 14976 122.376
60.2639 14172 119.046
60.3807 13454 115.991
60.4974 12864 113.42
60.6142 12745 112.894
60.731 12285 110.838
60.8479 12628 112.374
60.9648 13034 114.167
61.0818 13324 115.43
61.1987 13381 115.676
61.3158 13315 115.391
61.4328 13310 115.369
61.5499 13368 115.62
61.667 13076 114.35
61.7841 12931 113.715
61.9013 12906 113.605
62.0185 12944 113.772
62.1357 13594 116.593
62.253 14385 119.937
62.3702 14906 122.09
62.4875 15624 124.996
62.6049 15923 126.186
62.7222 16483 128.386
62.8396 16285 127.613
62.9569 16700 129.228
63.0743 16644 129.012
63.1918 16676 129.136
63.3092 16469 128.332
63.4267 15659 125.136
63.5441 14879 121.98
63.6616 14143 118.924
63.7791 13441 115.935
63.8966 12442 111.544
64.0142 11788 108.573
64.1317 11597 107.689
64.2492 11520 107.331
64.3668 11747 108.384
64.4843 11856 108.885
64.6019 12285 110.838
64.7195 12205 110.476
64.837 12341 111.09
64.9546 12520 111.893
65.0722 12255 110.702
65.1898 12159 110.268
65.3074 12018 109.627
65.4249 11720 108.259
65.5425 11889 109.037
65.6601 12281 110.82
65.7777 13181 114.809
65.8952 13807 117.503
66.0128 14293 119.553
66.1304 14983 122.405
66.2479 15589 124.856
66.3655 15895 126.075
66.483 16125 126.984
66.6005 16163 127.134
66.718 16202 127.287
66.8355 16002 126.499
66.953 15520 124.579
67.0705 14833 121.791
67.1879 14209 119.202
67.3054 13206 114.917
67.4228 12330 111.041
67.5402 11426 106.892
67.6576 11135 105.523
67.7749 11072 105.224
67.8923 11323 106.41
68.0096 11379 106.672
68.1269 11626 107.824
68.2442 12412 111.409
68.3614 12576 112.143
68.4787 12693 112.663
68.5958 13024 114.123
68.713 12752 112.925
68.8302 12412 111.409
68.9473 12362 111.185
69.0643 12035 109.704
69.1814 12010 109.59
69.2984 12534 111.955
69.4154 13445 115.953
69.5323 14114 118.802
69.6492 14952 122.278
69.7661 15868 125.968
69.8829 16293 127.644
69.9997 17059 130.61
70.1165 17435 132.042
70.2332 17472 132.182
70.3499 17345 131.7
70.4665 17093 130.74
70.5831 16842 129.777
70.6996 16244 127.452
70.8161 15156 123.11
70.9326 14390 119.958
71.049 13364 115.603
71.1653 12566 112.098
71.2817 11622 107.805
71.3979 11472 107.107
71.5141 11281 106.212
71.6303 11265 106.137
71.7464 10972 104.747
71.8624 0 1
71.9784 0 1
72.0944 0 1
72.2102 0 1
72.3261 0 1
72.4418 0 1
72.5575 0 1
72.6732 0 1
75.1054 0 1
75.2209 0 1
75.3365 0 1
75.4521 0 1
75.5678 0 1
75.6835 0 1
75.7993 0 1
75.9151 0 1
76.031 0 1
76.147 14708 121.277
76.263 15105 122.902
76.3791 14350 119.791
76.4952 13151 114.678
76.6113 12499 111.799
76.7276 12594 112.223
76.8438 12318 110.986
76.9601 12729 112.823
77.0765 12995 113.996
77.1929 13707 117.077
77.3093 14184 119.097
77.4258 14458 120.241
77.5423 14610 120.872
77.6589 14675 121.14
77.7755 13966 118.178
77.8921 13688 116.996
78.0088 12905 113.6
78.1256 13008 114.053
78.2423 12795 113.115
78.3591 13258 115.143
78.4759 14523 120.511
78.5928 15487 124.447
78.7097 15929 126.21
78.8266 17857 133.63
78.9436 16987 130.334
79.0606 17563 132.525
79.1776 17889 133.75
79.2946 18177 134.822
79.4117 17722 133.124
79.5288 17605 132.684
79.6459 17348 131.712
79.7631 16531 128.573
79.8802 15384 124.032
79.9974 14519 120.495
80.1147 13197 114.878
80.2319 12167 110.304
80.3491 11513 107.299
80.4664 11433 106.925
80.5837 11822 108.729
80.701 12047 109.759
80.8183 12545 112.004
80.9357 13023 114.118
81.053 13343 115.512
81.1704 13165 114.739
81.2877 13199 114.887
81.4051 12753 112.929
81.5225 12643 112.441
81.6399 11944 109.289
81.7573 11744 108.37
81.8747 11573 107.578
81.9922 11829 108.761
82.1096 12811 113.186
82.227 13802 117.482
82.3444 14570 120.706
82.4619 15391 124.06
82.5793 15497 124.487
82.6967 16548 128.639
82.8142 16176 127.185
82.9316 16286 127.617
83.049 16283 127.605
83.1664 15647 125.088
83.2838 15072 122.768
83.4012 14244 119.348
83.5186 13584 116.55
83.636 12649 112.468
83.7534 11910 109.133
83.8708 10833 104.082
83.9881 10299 101.484
84.1055 10286 101.42
84.2228 10266 101.321
84.3401 11056 105.148
84.4575 11614 107.768
84.5747 12368 111.212
84.692 12897 113.565
84.8093 12907 113.609
84.9265 12393 111.324
85.0437 12014 109.608
85.1609 11350 106.536
85.2781 11078 105.252
85.3952 10984 104.805
85.5123 10905 104.427
85.6294 11650 107.935
85.7465 12888 113.525
85.8636 13823 117.571
85.9806 14951 122.274
86.0976 15794 125.674
86.2145 16306 127.695
86.3315 16180 127.201
86.4484 17750 133.229
86.5652 17272 131.423
86.682 17181 131.076
86.7988 17002 130.392
86.9156 16382 127.992
87.0323 15315 123.754
87.149 14776 121.557
87.2657 13972 118.203
87.3823 12701 112.699
87.4988 12018 109.627
87.6154 11874 108.968
87.7318 11976 109.435
87.8483 12452 111.589
87.9647 13245 115.087
88.081 13802 117.482
88.1973 14721 121.33
88.3136 14878 121.975
88.4298 14495 120.395
88.546 13783 117.401
88.6621 13276 115.222
88.7781 12296 110.887
88.8942 0 1
89.0101 0 1
89.126 0 1
89.2419 0 1
89.3577 0 1
89.4734 0 1
89.5891 0 1
89.7047 0 1
89.8203 0 1
89.9358 0 1
92.3269 0 1
92.4424 0 1
92.558 0 1
92.6736 0 1
92.7893 0 1
92.905 0 1
93.0208 0 1
93.1366 0 1
93.2525 0 1
93.3685 0 1
93.4845 0 1
93.6005 16868 129.877
93.7167 17498 132.28
93.8328 18518 136.081
93.949 18653 136.576
94.0653 18751 136.934
94.1816 18743 136.905
94.2979 18844 137.273
94.4143 18908 137.506
94.5307 19093 138.177
94.6472 20322 142.555
94.7637 21692 147.282
94.8803 24105 155.258
94.9969 26162 161.747
95.1135 28495 168.805
95.2302 30156 173.655
95.3469 31719 178.098
95.4637 32965 181.563
95.5805 34267 185.113
95.6973 35374 188.08
95.8142 35956 189.621
95.9311 36592 191.29
96.048 36205 190.276
96.1649 35812 189.241
96.2819 35000 187.083
96.3989 33818 183.897
96.516 32423 180.064
96.633 30851 175.645
96.7501 29570 171.959
96.8673 29825 172.699
96.9844 31458 177.364
97.1016 34168 184.846
97.2188 36154 190.142
97.336 38524 196.275
97.4532 39737 199.341
97.5704 39672 199.178
97.6877 38808 196.997
97.805 37096 192.603
97.9223 34752 186.419
98.0396 32505 180.291
98.1569 31423 177.265
98.2743 30661 175.103
98.3916 31615 177.806
98.509 33929 184.198
98.6264 36596 191.301
98.7438 38617 196.512
98.8612 40484 201.206
98.9786 41611 203.988
99.096 42568 206.32
99.2134 42914 207.157
99.3308 43536 208.653
99.4482 43481 208.521
99.5656 43169 207.772
99.6831 41916 204.734
99.8005 40744 201.851
99.9179 39658 199.143
100.035 38055 195.077
100.153 35492 188.393
100.27 32960 181.549
100.388 31726 178.118
100.505 33027 181.733
100.622 34350 185.338
100.74 36987 192.32
100.857 38698 196.718
100.975 39527 198.814
101.092 39838 199.595
101.209 39088 197.707
101.327 37850 194.551
101.444 36190 190.237
101.561 33637 183.404
101.679 31494 177.465
101.796 30614 174.969
101.913 29923 172.983
102.03 31827 178.401
102.148 34729 186.357
102.265 38693 196.705
102.382 36399 190.785
102.499 39199 197.987
102.616 39521 198.799
102.733 39909 199.772
102.851 39889 199.722
102.968 39329 198.315
103.085 38591 196.446
103.202 36883 192.049
103.319 35008 187.104
103.436 33109 181.959
103.552 31236 176.737
103.669 27846 166.871
103.786 25787 160.583
103.903 23793 154.25
104.02 23915 154.645
104.137 24074 155.158
104.253 25386 159.33
104.37 24572 156.755
104.487 24994 158.095
104.603 24623 156.917
104.72 23342 152.781
104.836 21887 147.943
104.953 20146 141.937
105.069 18487 135.967
105.186 17371 131.799
105.302 16720 129.306
105.418 17115 130.824
105.535 17979 134.086
105.651 19237 138.698
105.767 20472 143.08
105.883 21059 145.117
105.999 21026 145.003
106.115 0 1
106.231 0 1
106.347 0 1
106.463 0 1
106.579 0 1
106.694 0 1
106.81 0 1
106.926 0 1
107.041 0 1
107.157 0 1
109.576 0 1
109.692 0 1
109.807 0 1
109.923 0 1
110.039 0 1
110.155 0 1
110.27 0 1
110.386 0 1
110.502 0 1
110.618 15269 123.568
110.735 16720 129.306
110.851 17778 133.334
110.967 18987 137.793
111.083 19060 138.058
111.199 19684 140.3
111.316 19789 140.673
111.432 19828 140.812
111.549 19637 140.132
111.665 19087 138.156
111.782 18330 135.388
111.898 17945 133.959
112.015 16717 129.294
112.132 15731 125.423
112.248 14554 120.64
112.365 13889 117.852
112.482 13593 116.589
112.599 13562 116.456
112.716 14036 118.474
112.832 14525 120.52
112.949 14763 121.503
113.066 14891 122.029
113.183 14293 119.553
113.3 14020 118.406
113.417 13683 116.974
113.534 13414 115.819
113.652 13043 114.206
113.769 13138 114.621
113.886 12917 113.653
114.003 13615 116.683
114.12 14844 121.836
114.238 16292 127.64
114.355 17141 130.924
114.472 17876 133.701
114.589 18433 135.768
114.707 18613 136.429
114.824 18731 136.861
114.942 19055 138.04
115.059 19008 137.87
115.176 18891 137.445
115.294 18359 135.495
115.411 17746 133.214
115.529 17308 131.56
115.646 16458 128.289
115.764 15548 124.692
115.881 14813 121.709
115.999 13956 118.136
116.116 14201 119.168
116.234 14465 120.271
116.351 14560 120.665
116.469 15044 122.654
116.586 15290 123.653
116.704 14991 122.438
116.821 14980 122.393
116.939 14773 121.544
117.056 14321 119.67
117.174 14302 119.591
117.291 14130 118.87
117.409 14127 118.857
117.526 14198 119.155
117.644 15328 123.806
117.761 16726 129.329
117.879 17932 133.91
117.996 18443 135.805
118.114 19262 138.788
118.231 19888 141.025
118.349 19973 141.326
118.466 19991 141.39
118.584 20113 141.82
118.701 20201 142.13
118.819 19910 141.103
118.936 19533 139.761
119.053 18817 137.175
119.171 18174 134.811
119.288 17287 131.48
119.405 16592 128.81
119.523 15287 123.641
119.64 15037 122.625
119.757 14689 121.198
119.875 14896 122.049
119.992 15270 123.572
120.109 15549 124.696
120.226 15522 124.587
120.343 15080 122.801
120.46 15046 122.662
120.578 15021 122.56
120.695 14690 121.202
120.812 14494 120.391
120.929 14704 121.26
121.046 14521 120.503
121.163 14980 122.393
121.279 15371 123.98
121.396 16443 128.23
121.513 17329 131.64
121.63 18341 135.429
121.747 18890 137.441
121.863 19323 139.007
121.98 19749 140.531
122.097 19775 140.624
122.213 19745 140.517
122.33 19822 140.791
122.446 19941 141.213
122.563 19456 139.485
122.679 18875 137.386
122.795 18684 136.689
122.912 18133 134.659
123.028 17558 132.507
123.144 16422 128.148
123.26 15572 124.788
123.377 0 1
123.493 0 1
123.609 0 1
123.725 0 1
123.84 0 1
123.956 0 1
124.072 0 1
124.188 0 1
124.303 0 1
124.419 0 1
126.852 0 1
126.968 0 1
127.083 0 1
127.199 0 1
127.315 0 1
127.431 0 1
127.547 0 1
127.663 0 1
127.779 0 1
127.895 0 1
128.011 0 1
128.127 0 1
128.243 0 1
128.359 18794 137.091
128.476 17884 133.731
128.592 16892 129.969
128.708 16929 130.111
128.825 17239 131.297
128.941 17750 133.229
129.058 17500 132.288
129.174 17473 132.185
129.291 17368 131.788
129.408 17199 131.145
129.524 16656 129.058
129.641 16548 128.639
129.758 16383 127.996
129.875 16245 127.456
129.992 16324 127.765
130.108 16573 128.736
130.225 16813 129.665
130.342 17657 132.88
130.459 18284 135.218
130.576 20080 141.704
130.693 20013 141.467
130.81 20293 142.454
130.928 20279 142.404
131.045 20347 142.643
131.162 20275 142.39
131.279 20439 142.965
131.396 20352 142.66
131.513 19877 140.986
131.631 19541 139.789
131.748 19030 137.949
131.865 18498 136.007
131.983 17575 132.571
132.1 16682 129.159
132.217 16478 128.367
132.335 16722 129.314
132.452 16877 129.912
132.57 17253 131.351
132.687 16555 128.666
132.804 17389 131.867
132.922 16769 129.495
133.039 16613 128.891
133.157 16500 128.452
133.274 16366 127.93
133.392 16099 126.882
133.509 16076 126.791
133.627 16165 127.142
133.744 16548 128.639
133.862 17244 131.316
133.979 18145 134.703
134.097 18748 136.923
134.214 19534 139.764
134.332 19678 140.278
134.449 19865 140.943
134.567 20210 142.162
134.684 20408 142.857
134.802 20259 142.334
134.919 20820 144.291
135.037 20364 142.702
135.154 19943 141.22
135.272 19549 139.818
135.389 18885 137.423
135.507 18628 136.484
135.624 17679 132.962
135.742 16911 130.042
135.859 17128 130.874
135.977 17298 131.522
136.094 17651 132.857
136.211 17839 133.563
136.329 17711 133.083
136.446 17566 132.537
136.564 17467 132.163
136.681 17648 132.846
136.798 17072 130.66
136.915 16881 129.927
137.033 16821 129.696
137.15 16775 129.518
137.267 16513 128.503
137.384 16966 130.254
137.502 17682 132.974
137.619 18108 134.566
137.736 19118 138.268
137.853 19223 138.647
137.97 19680 140.285
138.087 20426 142.92
138.204 20215 142.179
138.321 20640 143.666
138.438 20813 144.267
138.555 21028 145.01
138.672 20865 144.447
138.788 20530 143.283
138.905 20073 141.679
139.022 19794 140.691
139.139 19032 137.957
139.255 18429 135.753
139.372 17834 133.544
139.488 17706 133.064
139.605 17777 133.33
139.721 18167 134.785
139.838 18151 134.726
139.954 18196 134.893
140.071 17837 133.555
140.187 17466 132.159
140.303 17344 131.697
140.419 17046 130.56
140.535 16538 128.6
140.652 16425 128.16
140.768 0 1
140.884 0 1
141 0 1
141.115 0 1
141.231 0 1
141.347 0 1
141.463 0 1
141.578 0 1
141.694 0 1
144.104 0 1
144.219 0 1
144.335 0 1
144.45 0 1
144.566 0 1
144.682 0 1
144.798 0 1
144.914 0 1
145.03 0 1
145.146 16955 130.211
145.262 16876 129.908
145.378 16961 130.234
145.494 16681 129.155
145.61 16468 128.328
145.726 16297 127.66
145.842 16174 127.177
145.959 16182 127.208
146.075 16632 128.965
146.192 17198 131.141
146.308 17829 133.525
146.425 18138 134.677
146.541 18627 136.481
146.658 18698 136.741
146.774 18922 137.557
146.891 19345 139.086
147.008 19573 139.904
147.125 19517 139.703
147.241 19542 139.793
147.358 19251 138.748
147.475 18971 137.735
147.592 18680 136.675
147.709 18059 134.384
147.826 17491 132.254
147.943 17131 130.885
148.06 16688 129.182
148.177 17098 130.759
148.294 17298 131.522
148.411 17369 131.792
148.528 17638 132.808
148.645 17447 132.087
148.762 17350 131.719
148.88 17215 131.206
148.997 16543 128.62
149.114 17351 131.723
149.231 16630 128.957
149.349 16447 128.246
149.466 16319 127.746
149.583 16368 127.937
149.701 16604 128.857
149.818 17109 130.801
149.935 17410 131.947
150.053 18071 134.428
150.17 18371 135.54
150.287 18941 137.626
150.405 19010 137.877
150.522 19798 140.705
150.64 19998 141.414
150.757 20005 141.439
150.875 20193 142.102
150.992 20062 141.64
151.11 19781 140.645
151.227 19320 138.996
151.344 18956 137.681
151.462 18475 135.923
151.579 18047 134.339
151.697 17948 133.97
151.814 18296 135.263
151.932 18276 135.189
152.049 18932 137.594
152.167 18559 136.231
152.284 18509 136.048
152.402 18641 136.532
152.519 18476 135.926
152.636 18188 134.863
152.754 18055 134.369
152.871 17887 133.742
152.989 17670 132.929
153.106 17911 133.832
153.223 17543 132.45
153.341 17989 134.123
153.458 18425 135.739
153.575 19065 138.076
153.693 19363 139.151
153.81 19984 141.365
153.927 20235 142.25
154.044 20969 144.807
154.162 21298 145.938
154.279 21580 146.901
154.396 21783 147.591
154.513 21690 147.275
154.63 21603 146.98
154.747 21489 146.591
154.864 21083 145.2
154.981 20596 143.513
155.098 20137 141.905
155.215 19357 139.129
155.332 19200 138.564
155.449 19528 139.743
155.566 19712 140.399
155.683 20049 141.594
155.8 19866 140.947
155.917 19790 140.677
156.033 19437 139.417
156.15 0 1
156.267 0 1
156.383 0 1
156.5 0 1
156.617 0 1
156.733 0 1
156.85 0 1
156.966 0 1
157.082 0 1
157.199 0 1
157.315 0 1
157.431 0 1
157.547 0 1
157.664 0 1
157.78 0 1
157.896 0 1
158.012 0 1
158.128 0 1
158.244 0 1
158.359 0 1
158.475 0 1
158.591 0 1
158.706 0 1
