
6.15755 0 1
6.2731 0 1
6.3887 0 1
6.50437 0 1
6.62009 0 1
6.73587 0 1
6.8517 0 1
6.96759 0 1
7.08353 0 1
7.19952 0 1
7.31557 0 1
7.43166 0 1
7.54781 0 1
7.664 0 1
7.78024 0 1
7.89653 0 1
8.01286 0 1
8.12924 0 1
8.24567 0 1
8.36213 0 1
8.47864 0 1
8.59519 0 1
8.71178 0 1
8.82841 0 1
8.94508 0 1
9.06179 0 1
9.17853 0 1
9.29531 0 1
9.41212 0 1
9.52897 0 1
9.64584 0 1
9.76276 0 1
9.8797 0 1
9.99667 0 1
10.1137 0 1
10.2307 0 1
10.3478 0 1
10.4648 0 1
10.5819 0 1
10.6991 0 1
10.8162 0 1
10.9334 0 1
11.0506 0 1
11.1678 0 1
11.285 0 1
11.4023 0 1
11.5196 0 1
11.6369 0 1
11.7542 0 1
11.8715 0 1
11.9888 0 1
12.1062 0 1
12.2235 0 1
12.3409 0 1
12.4582 0 1
12.5756 0 1
12.693 0 1
12.8104 0 1
12.9278 0 1
13.0452 0 1
13.1626 0 1
13.28 0 1
13.3974 0 1
13.5149 0 1
13.6323 0 1
13.7497 0 1
13.8671 0 1
13.9845 0 1
14.1019 0 1
14.2193 0 1
14.3367 0 1
14.4541 0 1
14.5714 0 1
14.6888 0 1
14.8062 0 1
14.9235 0 1
15.0408 0 0
15.1581 0 0
15.2755 0 0
15.3927 0 0
15.51 0 0
15.6273 0 0
15.7445 0 0
15.8617 0 0
15.9789 0 0
16.0961 0 0
16.2132 0 0
16.3304 0 0
16.4475 0 0
16.5646 0 0
16.6816 0 0
16.7986 0 0
16.9156 0 0
17.0326 0 0
17.1496 0 0
17.2665 0 0
17.3833 0 0
17.5002 0 0
17.617 0 0
17.7338 0 0
17.8505 0 0
17.9672 0 0
18.0839 0 0
18.2005 0 0
18.3171 0 0
18.4337 0 0
18.5502 0 0
18.6666 0 0
18.7831 0 0
18.8994 0 0
19.0158 0 0
19.1321 0 0
19.2483 0 0
19.3645 0 0
19.4806 0 0
19.5967 0 0
19.7128 0 0
19.8288 0 0
19.9447 0 0
20.0606 0 1
20.1764 0 1
20.2922 0 1
20.4079 0 1
20.5236 0 1
20.6392 0 1
20.7548 0 1
20.8702 0 1
23.3078 0 1
23.4233 0 1
23.539 0 1
23.6547 0 1
23.7704 0 1
23.8862 0 1
24.0021 0 1
24.118 0 1
24.234 0 1
24.35 0 1
24.4661 1712 41.3763
24.5822 1756 41.9047
24.6984 1689 41.0974
24.8146 1692 41.1339
24.9309 1741 41.7253
25.0472 1721 41.4849
25.1636 1652 40.6448
25.28 1696 41.1825
25.3965 1684 41.0366
25.513 1668 40.8412
25.6296 1777 42.1545
25.7462 1913 43.7379
25.8628 1922 43.8406
25.9795 2056 45.3431
26.0962 1961 44.2832
26.213 2036 45.1221
26.3298 1930 43.9318
26.4466 1929 43.9204
26.5635 1910 43.7035
26.6804 1787 42.2729
26.7973 1727 41.5572
26.9143 1695 41.1704
27.0313 1742 41.7373
27.1483 1820 42.6615
27.2653 1893 43.5086
27.3824 1949 44.1475
27.4996 1889 43.4626
27.6167 1937 44.0114
27.7339 1907 43.6692
27.8511 1880 43.359
27.9683 1786 42.2611
28.0855 1736 41.6653
28.2028 1755 41.8927
28.3201 1782 42.2137
28.4374 1734 41.6413
28.5547 1646 40.5709
28.6721 1671 40.8779
28.7894 1610 40.1248
28.9068 1597 39.9625
29.0242 1646 40.5709
29.1416 1702 41.2553
29.259 1625 40.3113
29.3764 1868 43.2204
29.4939 1861 43.1393
29.6113 1928 43.909
29.7288 1936 44
29.8463 1924 43.8634
29.9638 1957 44.238
30.0812 1880 43.359
30.1987 1762 41.9762
30.3162 1750 41.833
30.4337 1703 41.2674
30.5512 1778 42.1663
30.6687 1857 43.0929
30.7862 1817 42.6263
30.9037 2027 45.0222
31.0212 1948 44.1362
31.1387 1922 43.8406
31.2562 2028 45.0333
31.3737 1933 43.9659
31.4912 1989 44.5982
31.6087 1873 43.2782
31.7262 1892 43.4971
31.8436 1726 41.5452
31.9611 1880 43.359
32.0785 1664 40.7922
32.1959 1667 40.8289
32.3134 1620 40.2492
32.4308 1656 40.694
32.5482 1638 40.4722
32.6655 1695 41.1704
32.7829 1698 41.2068
32.9002 1912 43.7264
33.0176 1937 44.0114
33.1349 2002 44.7437
33.2522 1906 43.6578
33.3694 1931 43.9431
33.4867 2010 44.833
33.6039 1945 44.1022
33.7211 1951 44.1701
33.8383 1793 42.3438
33.9554 1747 41.7971
34.0725 1741 41.7253
34.1896 1752 41.8569
34.3067 1852 43.0349
34.4237 1941 44.0568
34.5407 1911 43.715
34.6577 1919 43.8064
34.7746 1910 43.7035
34.8915 1903 43.6234
35.0084 1920 43.8178
35.1252 1910 43.7035
35.242 1904 43.6348
35.3587 1827 42.7434
35.4755 1797 42.391
35.5921 1839 42.8836
35.7088 1731 41.6053
35.8254 1625 40.3113
35.9419 1574 39.6737
36.0584 1579 39.7366
36.1749 1642 40.5216
36.2913 1551 39.3827
36.4077 1659 40.7308
36.524 1720 41.4729
36.6403 1799 42.4146
36.7565 1801 42.4382
36.8727 1821 42.6732
36.9889 1946 44.1135
37.1049 1783 42.2256
37.221 0 1
37.3369 0 1
37.4529 0 1
37.5687 0 1
37.6845 0 1
37.8003 0 1
37.916 0 1
38.0316 0 1
38.1472 0 1
40.5851 0 1
40.7008 0 1
40.8164 0 1
40.9322 0 1
41.048 0 1
41.1639 0 1
41.2798 0 1
41.3958 0 1
41.5118 0 1
41.6279 0 1
41.744 1494 38.6523
41.8602 1510 38.8587
41.9765 1585 39.8121
42.0928 1600 40
42.2091 1637 40.4599
42.3255 1650 40.6202
42.4419 1617 40.2119
42.5584 1662 40.7676
42.675 1494 38.6523
42.7915 1457 38.1707
42.9081 1485 38.5357
43.0248 1467 38.3014
43.1415 1504 38.7814
43.2582 1592 39.8999
43.375 1591 39.8873
43.4918 1634 40.4228
43.6087 1607 40.0874
43.7256 1596 39.95
43.8425 1622 40.2741
43.9595 1588 39.8497
44.0765 1554 39.4208
44.1935 1450 38.0789
44.3106 1444 38
44.4277 1369 37
44.5448 1352 36.7696
44.6619 1219 34.9142
44.7791 1279 35.7631
44.8963 1283 35.819
45.0136 1136 33.7046
45.1308 1254 35.4119
45.2481 1280 35.7771
45.3654 1394 37.3363
45.4827 1375 37.081
45.6001 1361 36.8917
45.7174 1424 37.7359
45.8348 1455 38.1445
45.9522 1427 37.7757
46.0697 1362 36.9053
46.1871 1283 35.819
46.3046 1217 34.8855
46.422 1169 34.1906
46.5395 1170 34.2053
46.657 1209 34.7707
46.7745 1213 34.8281
46.892 1245 35.2846
47.0096 1237 35.171
47.1271 1262 35.5246
47.2446 1234 35.1283
47.3622 1257 35.4542
47.4797 1269 35.623
47.5973 1159 34.0441
47.7149 1116 33.4066
47.8324 1180 34.3511
47.95 1105 33.2415
48.0675 1064 32.619
48.1851 931 30.5123
48.3027 908 30.133
48.4202 926 30.4302
48.5378 946 30.7571
48.6554 982 31.3369
48.7729 965 31.0644
48.8904 1047 32.3574
49.008 1112 33.3467
49.1255 1155 33.9853
49.243 1201 34.6554
49.3605 1146 33.8526
49.478 1124 33.5261
49.5955 1126 33.5559
49.713 1044 32.311
49.8304 1008 31.749
49.9479 968 31.1127
50.0653 1018 31.9061
50.1827 1071 32.7261
50.3001 1174 34.2637
50.4175 1232 35.0999
50.5348 1291 35.9305
50.6521 1239 35.1994
50.7694 1337 36.565
50.8867 1305 36.1248
51.004 1357 36.8375
51.1212 1322 36.3593
51.2384 1320 36.3318
51.3556 1369 37
51.4727 1261 35.5106
51.5899 1312 36.2215
51.707 1172 34.2345
51.824 1159 34.0441
51.9411 1183 34.3948
52.0581 1193 34.5398
52.175 1293 35.9583
52.2919 1367 36.973
52.4088 1446 38.0263
52.5257 1501 38.7427
52.6425 1601 40.0125
52.7593 1586 39.8246
52.876 1556 39.4462
52.9927 1568 39.598
53.1094 1627 40.3361
53.226 1503 38.7685
53.3426 1373 37.054
53.4591 1380 37.1484
53.5756 1375 37.081
53.692 1425 37.7492
53.8084 1543 39.281
53.9248 1583 39.7869
54.0411 1626 40.3237
54.1573 1595 39.9375
54.2735 0 1
54.3896 0 1
54.5057 0 1
54.6217 0 1
54.7377 0 1
54.8537 0 1
54.9695 0 1
55.0853 0 1
55.2011 0 1
55.3168 0 1
55.4324 0 1
57.824 0 1
57.9396 0 1
58.0553 0 1
58.1711 0 1
58.2869 0 1
58.4028 0 1
58.5187 0 1
58.6347 0 1
58.7508 0 1
58.8669 0 1
58.983 1629 40.3609
59.0992 1784 42.2374
59.2155 2003 44.7549
59.3318 1886 43.4281
59.4482 2007 44.7996
59.5646 1990 44.6094
59.681 1916 43.7721
59.7975 1914 43.7493
59.9141 1976 44.4522
60.0306 1849 43
60.1473 1755 41.8927
60.2639 1821 42.6732
60.3807 1742 41.7373
60.4974 1687 41.0731
60.6142 1594 39.9249
60.731 1605 40.0625
60.8479 1636 40.4475
60.9648 1647 40.5832
61.0818 1770 42.0714
61.1987 1800 42.4264
61.3158 1831 42.7902
61.4328 1916 43.7721
61.5499 1836 42.8486
61.667 1824 42.7083
61.7841 1794 42.3556
61.9013 1703 41.2674
62.0185 1562 39.5221
62.1357 1486 38.5487
62.253 1575 39.6863
62.3702 1751 41.845
62.4875 1753 41.8688
62.6049 1825 42.72
62.7222 1916 43.7721
62.8396 1930 43.9318
62.9569 1833 42.8135
63.0743 1810 42.5441
63.1918 1879 43.3474
63.3092 1828 42.7551
63.4267 1752 41.8569
63.5441 1747 41.7971
63.6616 1687 41.0731
63.7791 1637 40.4599
63.8966 1612 40.1497
64.0142 1523 39.0256
64.1317 1408 37.5233
64.2492 1449 38.0657
64.3668 1476 38.4187
64.4843 1580 39.7492
64.6019 1584 39.7995
64.7195 1708 41.328
64.837 1762 41.9762
64.9546 1766 42.0238
65.0722 1691 41.1218
65.1898 1665 40.8044
65.3074 1689 41.0974
65.4249 1542 39.2683
65.5425 1450 38.0789
65.6601 1425 37.7492
65.7777 1400 37.4166
65.8952 1480 38.4708
66.0128 1549 39.3573
66.1304 1667 40.8289
66.2479 1720 41.4729
66.3655 1745 41.7732
66.483 1767 42.0357
66.6005 1704 41.2795
66.718 1744 41.7612
66.8355 1691 41.1218
66.953 1758 41.9285
67.0705 1704 41.2795
67.1879 1629 40.3609
67.3054 1551 39.3827
67.4228 1593 39.9124
67.5402 1427 37.7757
67.6576 1336 36.5513
67.7749 1335 36.5377
67.8923 1434 37.8682
68.0096 1414 37.6032
68.1269 1603 40.0375
68.2442 1650 40.6202
68.3614 1723 41.509
68.4787 1757 41.9166
68.5958 1694 41.1582
68.713 1763 41.9881
68.8302 1753 41.8688
68.9473 1651 40.6325
69.0643 1470 38.3406
69.1814 1471 38.3536
69.2984 1370 37.0135
69.4154 1389 37.2693
69.5323 1539 39.2301
69.6492 1619 40.2368
69.7661 1660 40.7431
69.8829 1756 41.9047
69.9997 1820 42.6615
70.1165 1871 43.2551
70.2332 1766 42.0238
70.3499 1847 42.9767
70.4665 1837 42.8602
70.5831 1781 42.2019
70.6996 1708 41.328
70.8161 1726 41.5452
70.9326 1695 41.1704
71.049 1588 39.8497
71.1653 1529 39.1024
71.2817 1438 37.921
71.3979 1353 36.7831
71.5141 1279 35.7631
71.6303 1310 36.1939
71.7464 1324 36.3868
71.8624 0 1
71.9784 0 1
72.0944 0 1
72.2102 0 1
72.3261 0 1
72.4418 0 1
72.5575 0 1
72.6732 0 1
75.1054 0 1
75.2209 0 1
75.3365 0 1
75.4521 0 1
75.5678 0 1
75.6835 0 1
75.7993 0 1
75.9151 0 1
76.031 0 1
76.147 1475 38.4057
76.263 1584 39.7995
76.3791 1544 39.2938
76.4952 1496 38.6782
76.6113 1518 38.9615
76.7276 1294 35.9722
76.8438 1404 37.47
76.9601 1429 37.8021
77.0765 1447 38.0395
77.1929 1611 40.1373
77.3093 1675 40.9268
77.4258 1758 41.9285
77.5423 1693 41.1461
77.6589 1699 41.2189
77.7755 1717 41.4367
77.8921 1734 41.6413
78.0088 1581 39.7618
78.1256 1491 38.6135
78.2423 1298 36.0278
78.3591 1386 37.229
78.4759 1402 37.4433
78.5928 1406 37.4967
78.7097 1585 39.8121
78.8266 1675 40.9268
78.9436 1793 42.3438
79.0606 1745 41.7732
79.1776 1780 42.19
79.2946 1733 41.6293
79.4117 1760 41.9524
79.5288 1675 40.9268
79.6459 1713 41.3884
79.7631 1683 41.0244
79.8802 1596 39.95
79.9974 1568 39.598
80.1147 1523 39.0256
80.2319 1418 37.6563
80.3491 1287 35.8748
80.4664 1287 35.8748
80.5837 1347 36.7015
80.701 1416 37.6298
80.8183 1518 38.9615
80.9357 1582 39.7744
81.053 1638 40.4722
81.1704 1629 40.3609
81.2877 1661 40.7554
81.4051 1600 40
81.5225 1576 39.6989
81.6399 1585 39.8121
81.7573 1393 37.3229
81.8747 1324 36.3868
81.9922 1205 34.7131
82.1096 1237 35.171
82.227 1396 37.3631
82.3444 1445 38.0132
82.4619 1469 38.3275
82.5793 1577 39.7115
82.6967 1632 40.398
82.8142 1685 41.0488
82.9316 1656 40.694
83.049 1626 40.3237
83.1664 1646 40.5709
83.2838 1565 39.5601
83.4012 1610 40.1248
83.5186 1547 39.3319
83.636 1419 37.6696
83.7534 1396 37.3631
83.8708 1252 35.3836
83.9881 1141 33.7787
84.1055 1202 34.6699
84.2228 1226 35.0143
84.3401 1355 36.8103
84.4575 1444 38
84.5747 1461 38.223
84.692 1518 38.9615
84.8093 1544 39.2938
84.9265 1527 39.0768
85.0437 1532 39.1408
85.1609 1481 38.4838
85.2781 1368 36.9865
85.3952 1316 36.2767
85.5123 1247 35.3129
85.6294 1182 34.3802
85.7465 1381 37.1618
85.8636 1424 37.7359
85.9806 1549 39.3573
86.0976 1590 39.8748
86.2145 1714 41.4005
86.3315 1655 40.6817
86.4484 1767 42.0357
86.5652 1769 42.0595
86.682 1803 42.4617
86.7988 1773 42.107
86.9156 1734 41.6413
87.0323 1703 41.2674
87.149 1593 39.9124
87.2657 1649 40.6079
87.3823 1466 38.2884
87.4988 1393 37.3229
87.6154 1354 36.7967
87.7318 1502 38.7556
87.8483 1524 39.0384
87.9647 1657 40.7063
88.081 1755 41.8927
88.1973 1747 41.7971
88.3136 1888 43.4511
88.4298 1803 42.4617
88.546 1723 41.509
88.6621 1674 40.9145
88.7781 1581 39.7618
88.8942 0 1
89.0101 0 1
89.126 0 1
89.2419 0 1
89.3577 0 1
89.4734 0 1
89.5891 0 1
89.7047 0 1
89.8203 0 1
89.9358 0 1
92.3269 0 1
92.4424 0 1
92.558 0 1
92.6736 0 1
92.7893 0 1
92.905 0 1
93.0208 0 1
93.1366 0 1
93.2525 0 1
93.3685 0 1
93.4845 0 1
93.6005 1751 41.845
93.7167 1792 42.332
93.8328 1856 43.0813
93.949 1756 41.9047
94.0653 1758 41.9285
94.1816 1782 42.2137
94.2979 1612 40.1497
94.4143 1481 38.4838
94.5307 1398 37.3898
94.6472 1385 37.2156
94.7637 1542 39.2683
94.8803 1599 39.9875
94.9969 1636 40.4475
95.1135 1802 42.45
95.2302 1786 42.2611
95.3469 1899 43.5775
95.4637 1973 44.4185
95.5805 1927 43.8976
95.6973 1989 44.5982
95.8142 2007 44.7996
95.9311 1920 43.8178
96.048 1912 43.7264
96.1649 1857 43.0929
96.2819 1879 43.3474
96.3989 1788 42.2847
96.516 1643 40.5339
96.633 1570 39.6232
96.7501 1479 38.4578
96.8673 1479 38.4578
96.9844 1633 40.4104
97.1016 1729 41.5812
97.2188 1841 42.9069
97.336 1940 44.0454
97.4532 1951 44.1701
97.5704 2002 44.7437
97.6877 1947 44.1248
97.805 1858 43.1045
97.9223 1730 41.5933
98.0396 1724 41.5211
98.1569 1563 39.5348
98.2743 1514 38.9102
98.3916 1492 38.6264
98.509 1720 41.4729
98.6264 1752 41.8569
98.7438 1950 44.1588
98.8612 2100 45.8258
98.9786 2045 45.2217
99.096 2150 46.3681
99.2134 2143 46.2925
99.3308 2128 46.1303
99.4482 2073 45.5302
99.5656 2121 46.0543
99.6831 2077 45.5741
99.8005 2014 44.8776
99.9179 1972 44.4072
100.035 1880 43.359
100.153 1811 42.5558
100.27 1716 41.4246
100.388 1696 41.1825
100.505 1755 41.8927
100.622 1910 43.7035
100.74 2021 44.9555
100.857 2107 45.9021
100.975 2104 45.8694
101.092 2174 46.6262
101.209 2120 46.0435
101.327 2085 45.6618
101.444 1963 44.3058
101.561 1914 43.7493
101.679 1686 41.0609
101.796 1628 40.3485
101.913 1601 40.0125
102.03 1835 42.8369
102.148 1839 42.8836
102.265 2170 46.5833
102.382 2005 44.7772
102.499 2161 46.4866
102.616 2308 48.0416
102.733 2214 47.0532
102.851 2353 48.5077
102.968 2225 47.1699
103.085 2229 47.2123
103.202 2304 48
103.319 2157 46.4435
103.436 2140 46.2601
103.552 2110 45.9347
103.669 1963 44.3058
103.786 1818 42.638
103.903 1837 42.8602
104.02 1889 43.4626
104.137 2017 44.911
104.253 2184 46.7333
104.37 2145 46.3141
104.487 2333 48.3011
104.603 2262 47.5605
104.72 2261 47.55
104.836 2169 46.5725
104.953 2066 45.4533
105.069 1951 44.1701
105.186 1833 42.8135
105.302 1763 41.9881
105.418 1789 42.2966
105.535 1856 43.0813
105.651 2130 46.1519
105.767 2199 46.8935
105.883 2264 47.5815
105.999 2286 47.8121
106.115 0 1
106.231 0 1
106.347 0 1
106.463 0 1
106.579 0 1
106.694 0 1
106.81 0 1
106.926 0 1
107.041 0 1
107.157 0 1
109.576 0 1
109.692 0 1
109.807 0 1
109.923 0 1
110.039 0 1
110.155 0 1
110.27 0 1
110.386 0 1
110.502 0 1
110.618 1800 42.4264
110.735 2028 45.0333
110.851 2116 46
110.967 2186 46.7547
111.083 2265 47.592
111.199 2238 47.3075
111.316 2302 47.9792
111.432 2406 49.051
111.549 2266 47.6025
111.665 2294 47.8957
111.782 2307 48.0312
111.898 2149 46.3573
112.015 2090 45.7165
112.132 2082 45.6289
112.248 1905 43.6463
112.365 1849 43
112.482 1888 43.4511
112.599 1856 43.0813
112.716 1981 44.5084
112.832 2118 46.0217
112.949 2094 45.7602
113.066 2232 47.244
113.183 2193 46.8295
113.3 2249 47.4236
113.417 2136 46.2169
113.534 1970 44.3847
113.652 1805 42.4853
113.769 1757 41.9166
113.886 1658 40.7185
114.003 1635 40.4351
114.12 1900 43.589
114.238 1983 44.5309
114.355 2051 45.288
114.472 2249 47.4236
114.589 2076 45.5631
114.707 2285 47.8017
114.824 2309 48.0521
114.942 2307 48.0312
115.059 2300 47.9583
115.176 2297 47.927
115.294 2203 46.9361
115.411 2109 45.9239
115.529 2085 45.6618
115.646 2109 45.9239
115.764 1873 43.2782
115.881 1774 42.1189
115.999 1734 41.6413
116.116 1909 43.6921
116.234 2039 45.1553
116.351 2097 45.793
116.469 2171 46.594
116.586 2305 48.0104
116.704 2089 45.7056
116.821 2127 46.1194
116.939 2104 45.8694
117.056 1980 44.4972
117.174 1847 42.9767
117.291 1738 41.6893
117.409 1613 40.1622
117.526 1608 40.0999
117.644 1721 41.4849
117.761 1847 42.9767
117.879 2009 44.8219
117.996 2045 45.2217
118.114 2079 45.5961
118.231 2146 46.3249
118.349 2157 46.4435
118.466 2212 47.0319
118.584 2133 46.1844
118.701 2200 46.9042
118.819 2207 46.9787
118.936 2085 45.6618
119.053 2044 45.2106
119.171 2001 44.7325
119.288 1890 43.4741
119.405 1786 42.2611
119.523 1788 42.2847
119.64 1679 40.9756
119.757 1825 42.72
119.875 1898 43.566
119.992 2017 44.911
120.109 2073 45.5302
120.226 1996 44.6766
120.343 2022 44.9667
120.46 2055 45.3321
120.578 1942 44.0681
120.695 1852 43.0349
120.812 1720 41.4729
120.929 1679 40.9756
121.046 1576 39.6989
121.163 1571 39.6358
121.279 1599 39.9875
121.396 1660 40.7431
121.513 1797 42.391
121.63 1882 43.382
121.747 1973 44.4185
121.863 2006 44.7884
121.98 2038 45.1442
122.097 2013 44.8665
122.213 2137 46.2277
122.33 2011 44.8442
122.446 2016 44.8999
122.563 1974 44.4297
122.679 1971 44.3959
122.795 1881 43.3705
122.912 1843 42.9302
123.028 1796 42.3792
123.144 1650 40.6202
123.26 1666 40.8167
123.377 0 1
123.493 0 1
123.609 0 1
123.725 0 1
123.84 0 1
123.956 0 1
124.072 0 1
124.188 0 1
124.303 0 1
124.419 0 1
126.852 0 1
126.968 0 1
127.083 0 1
127.199 0 1
127.315 0 1
127.431 0 1
127.547 0 1
127.663 0 1
127.779 0 1
127.895 0 1
128.011 0 1
128.127 0 1
128.243 0 1
128.359 1781 42.2019
128.476 1816 42.6146
128.592 1764 42
128.708 1778 42.1663
128.825 1894 43.5201
128.941 2004 44.7661
129.058 2057 45.3542
129.174 2037 45.1331
129.291 2056 45.3431
129.408 2012 44.8553
129.524 2051 45.288
129.641 1898 43.566
129.758 1764 42
129.875 1692 41.1339
129.992 1577 39.7115
130.108 1626 40.3237
130.225 1658 40.7185
130.342 1684 41.0366
130.459 1919 43.8064
130.576 1897 43.5546
130.693 1964 44.317
130.81 2023 44.9778
130.928 2012 44.8553
131.045 1994 44.6542
131.162 2098 45.8039
131.279 2099 45.8148
131.396 2074 45.5412
131.513 2043 45.1996
131.631 2006 44.7884
131.748 1973 44.4185
131.865 1846 42.9651
131.983 1763 41.9881
132.1 1774 42.1189
132.217 1748 41.8091
132.335 1912 43.7264
132.452 1948 44.1362
132.57 2043 45.1996
132.687 1916 43.7721
132.804 2115 45.9891
132.922 2027 45.0222
133.039 1975 44.441
133.157 1814 42.5911
133.274 1739 41.7013
133.392 1654 40.6694
133.509 1621 40.2616
133.627 1555 39.4335
133.744 1681 41
133.862 1673 40.9023
133.979 1857 43.0929
134.097 1873 43.2782
134.214 1954 44.2041
134.332 1874 43.2897
134.449 2015 44.8888
134.567 1940 44.0454
134.684 2037 45.1331
134.802 2109 45.9239
134.919 2052 45.299
135.037 2058 45.3652
135.154 2010 44.833
135.272 1850 43.0116
135.389 1961 44.2832
135.507 1814 42.5911
135.624 1801 42.4382
135.742 1765 42.0119
135.859 1813 42.5793
135.977 1904 43.6348
136.094 2086 45.6727
136.211 2110 45.9347
136.329 2017 44.911
136.446 2009 44.8219
136.564 2021 44.9555
136.681 1973 44.4185
136.798 1819 42.6497
136.915 1768 42.0476
137.033 1701 41.2432
137.15 1628 40.3485
137.267 1589 39.8623
137.384 1616 40.1995
137.502 1700 41.2311
137.619 1885 43.4166
137.736 1910 43.7035
137.853 1937 44.0114
137.97 1951 44.1701
138.087 1905 43.6463
138.204 1974 44.4297
138.321 2102 45.8476
138.438 2085 45.6618
138.555 2101 45.8367
138.672 2106 45.8912
138.788 2016 44.8999
138.905 1962 44.2945
139.022 1954 44.2041
139.139 1946 44.1135
139.255 1852 43.0349
139.372 1860 43.1277
139.488 1856 43.0813
139.605 2034 45.0999
139.721 2055 45.3321
139.838 2079 45.5961
139.954 2135 46.2061
140.071 1989 44.5982
140.187 2076 45.5631
140.303 1961 44.2832
140.419 1895 43.5316
140.535 1777 42.1545
140.652 1705 41.2916
140.768 0 1
140.884 0 1
141 0 1
141.115 0 1
141.231 0 1
141.347 0 1
141.463 0 1
141.578 0 1
141.694 0 1
144.104 0 1
144.219 0 1
144.335 0 1
144.45 0 1
144.566 0 1
144.682 0 1
144.798 0 1
144.914 0 1
145.03 0 1
145.146 1812 42.5676
145.262 1714 41.4005
145.378 1665 40.8044
145.494 1594 39.9249
145.61 1534 39.1663
145.726 1487 38.5616
145.842 1470 38.3406
145.959 1447 38.0395
146.075 1514 38.9102
146.192 1545 39.3065
146.308 1596 39.95
146.425 1709 41.3401
146.541 1701 41.2432
146.658 1744 41.7612
146.774 1720 41.4729
146.891 1791 42.3202
147.008 1764 42
147.125 1844 42.9418
147.241 1815 42.6028
147.358 1808 42.5206
147.475 1739 41.7013
147.592 1731 41.6053
147.709 1648 40.5956
147.826 1564 39.5474
147.943 1668 40.8412
148.06 1548 39.3446
148.177 1627 40.3361
148.294 1737 41.6773
148.411 1845 42.9535
148.528 1721 41.4849
148.645 1725 41.5331
148.762 1754 41.8808
148.88 1719 41.4608
148.997 1615 40.1871
149.114 1632 40.398
149.231 1456 38.1576
149.349 1489 38.5876
149.466 1418 37.6563
149.583 1367 36.973
149.701 1447 38.0395
149.818 1530 39.1152
149.935 1487 38.5616
150.053 1556 39.4462
150.17 1534 39.1663
150.287 1721 41.4849
150.405 1678 40.9634
150.522 1725 41.5331
150.64 1731 41.6053
150.757 1825 42.72
150.875 1757 41.9166
150.992 1783 42.2256
151.11 1647 40.5832
151.227 1619 40.2368
151.344 1647 40.5832
151.462 1547 39.3319
151.579 1497 38.6911
151.697 1515 38.923
151.814 1583 39.7869
151.932 1629 40.3609
152.049 1738 41.6893
152.167 1758 41.9285
152.284 1680 40.9878
152.402 1711 41.3642
152.519 1706 41.3038
152.636 1562 39.5221
152.754 1516 38.9358
152.871 1493 38.6394
152.989 1438 37.921
153.106 1406 37.4967
153.223 1409 37.5366
153.341 1458 38.1838
153.458 1546 39.3192
153.575 1587 39.8372
153.693 1577 39.7115
153.81 1570 39.6232
153.927 1614 40.1746
154.044 1660 40.7431
154.162 1785 42.2493
154.279 1748 41.8091
154.396 1698 41.2068
154.513 1823 42.6966
154.63 1805 42.4853
154.747 1764 42
154.864 1716 41.4246
154.981 1697 41.1947
155.098 1667 40.8289
155.215 1656 40.694
155.332 1623 40.2865
155.449 1679 40.9756
155.566 1885 43.4166
155.683 1777 42.1545
155.8 1852 43.0349
155.917 1873 43.2782
156.033 1784 42.2374
156.15 0 1
156.267 0 1
156.383 0 1
156.5 0 1
156.617 0 1
156.733 0 1
156.85 0 1
156.966 0 1
157.082 0 1
157.199 0 1
157.315 0 1
157.431 0 1
157.547 0 1
157.664 0 1
157.78 0 1
157.896 0 1
158.012 0 1
158.128 0 1
158.244 0 1
158.359 0 1
158.475 0 1
158.591 0 1
158.706 0 1
