
6.15755 0 1
6.2731 0 1
6.3887 0 1
6.50437 0 1
6.62009 0 1
6.73587 0 1
6.8517 0 1
6.96759 0 1
7.08353 0 1
7.19952 0 1
7.31557 0 1
7.43166 0 1
7.54781 0 1
7.664 0 1
7.78024 0 1
7.89653 0 1
8.01286 0 1
8.12924 0 1
8.24567 0 1
8.36213 0 1
8.47864 0 1
8.59519 0 1
8.71178 0 1
8.82841 0 1
8.94508 0 1
9.06179 0 1
9.17853 0 1
9.29531 0 1
9.41212 0 1
9.52897 0 1
9.64584 0 1
9.76276 0 1
9.8797 0 1
9.99667 0 1
10.1137 0 1
10.2307 0 1
10.3478 0 1
10.4648 0 1
10.5819 0 1
10.6991 0 1
10.8162 0 1
10.9334 0 1
11.0506 0 1
11.1678 0 1
11.285 0 1
11.4023 0 1
11.5196 0 1
11.6369 0 1
11.7542 0 1
11.8715 0 1
11.9888 0 1
12.1062 0 1
12.2235 0 1
12.3409 0 1
12.4582 0 1
12.5756 0 1
12.693 0 1
12.8104 0 1
12.9278 0 1
13.0452 0 1
13.1626 0 1
13.28 0 1
13.3974 0 1
13.5149 0 1
13.6323 0 1
13.7497 0 1
13.8671 0 1
13.9845 0 1
14.1019 0 1
14.2193 0 1
14.3367 0 1
14.4541 0 1
14.5714 0 1
14.6888 0 1
14.8062 0 1
14.9235 0 1
15.0408 0 0
15.1581 0 0
15.2755 0 0
15.3927 0 0
15.51 0 0
15.6273 0 0
15.7445 0 0
15.8617 0 0
15.9789 0 0
16.0961 0 0
16.2132 0 0
16.3304 0 0
16.4475 0 0
16.5646 0 0
16.6816 0 0
16.7986 0 0
16.9156 0 0
17.0326 0 0
17.1496 0 0
17.2665 0 0
17.3833 0 0
17.5002 0 0
17.617 0 0
17.7338 0 0
17.8505 0 0
17.9672 0 0
18.0839 0 0
18.2005 0 0
18.3171 0 0
18.4337 0 0
18.5502 0 0
18.6666 0 0
18.7831 0 0
18.8994 0 0
19.0158 0 0
19.1321 0 0
19.2483 0 0
19.3645 0 0
19.4806 0 0
19.5967 0 0
19.7128 0 0
19.8288 0 0
19.9447 0 0
20.0606 0 1
20.1764 0 1
20.2922 0 1
20.4079 0 1
20.5236 0 1
20.6392 0 1
20.7548 0 1
20.8702 0 1
23.3078 0 1
23.4233 0 1
23.539 0 1
23.6547 0 1
23.7704 0 1
23.8862 0 1
24.0021 0 1
24.118 0 1
24.234 0 1
24.35 0 1
24.4661 178178 422.111
24.5822 181475 425.999
24.6984 184598 429.649
24.8146 188254 433.882
24.9309 192883 439.184
25.0472 193522 439.911
25.1636 192561 438.818
25.28 191540 437.653
25.3965 188047 433.644
25.513 186049 431.334
25.6296 183336 428.178
25.7462 181653 426.208
25.8628 176887 420.579
25.9795 173750 416.833
26.0962 169692 411.937
26.213 167397 409.142
26.3298 161103 401.376
26.4466 159384 399.229
26.5635 155689 394.574
26.6804 151126 388.749
26.7973 148685 385.597
26.9143 143986 379.455
27.0313 137226 370.44
27.1483 133738 365.702
27.2653 129729 360.179
27.3824 126498 355.666
27.4996 123127 350.895
27.6167 116656 341.549
27.7339 111360 333.706
27.8511 107232 327.463
27.9683 103757 322.113
28.0855 103721 322.057
28.2028 103263 321.346
28.3201 107976 328.597
28.4374 110142 331.876
28.5547 113844 337.408
28.6721 115898 340.438
28.7894 118601 344.385
28.9068 118640 344.442
29.0242 117760 343.162
29.1416 117368 342.59
29.259 117426 342.675
29.3764 117500 342.783
29.4939 116399 341.173
29.6113 116226 340.919
29.7288 115991 340.575
29.8463 115625 340.037
29.9638 115531 339.899
30.0812 115302 339.561
30.1987 115271 339.516
30.3162 114317 338.108
30.4337 113377 336.715
30.5512 112130 334.858
30.6687 109511 330.924
30.7862 105375 324.615
30.9037 105441 324.717
31.0212 105065 324.137
31.1387 103086 321.07
31.2562 99855 315.998
31.3737 96146 310.074
31.4912 94176 306.881
31.6087 93986 306.571
31.7262 95380 308.837
31.8436 99279 315.086
31.9611 102867 320.729
32.0785 106692 326.637
32.1959 109655 331.142
32.3134 111644 334.132
32.4308 110891 333.003
32.5482 111138 333.374
32.6655 111015 333.189
32.7829 110750 332.791
32.9002 111310 333.632
33.0176 110783 332.841
33.1349 110561 332.507
33.2522 109571 331.015
33.3694 112158 334.9
33.4867 111095 333.309
33.6039 110816 332.89
33.7211 110801 332.868
33.8383 110323 332.149
33.9554 110525 332.453
34.0725 108825 329.886
34.1896 108433 329.292
34.3067 105994 325.567
34.4237 103443 321.626
34.5407 100976 317.767
34.6577 98793 314.314
34.7746 97400 312.09
34.8915 93872 306.385
35.0084 90676 301.125
35.1252 87889 296.461
35.242 88455 297.414
35.3587 89274 298.788
35.4755 93080 305.09
35.5921 97564 312.352
35.7088 101688 318.886
35.8254 104838 323.787
35.9419 106488 326.325
36.0584 107334 327.619
36.1749 106988 327.09
36.2913 106568 326.448
36.4077 106770 326.757
36.524 106700 326.65
36.6403 105390 324.638
36.7565 106378 326.156
36.8727 106157 325.817
36.9889 105963 325.52
37.1049 104549 323.34
37.221 0 1
37.3369 0 1
37.4529 0 1
37.5687 0 1
37.6845 0 1
37.8003 0 1
37.916 0 1
38.0316 0 1
38.1472 0 1
40.5851 0 1
40.7008 0 1
40.8164 0 1
40.9322 0 1
41.048 0 1
41.1639 0 1
41.2798 0 1
41.3958 0 1
41.5118 0 1
41.6279 0 1
41.744 85058 291.647
41.8602 88081 296.784
41.9765 88318 297.183
42.0928 87683 296.113
42.2091 87781 296.279
42.3255 87552 295.892
42.4419 86682 294.418
42.5584 87324 295.506
42.675 86053 293.348
42.7915 85912 293.107
42.9081 84748 291.115
43.0248 84159 290.102
43.1415 81639 285.725
43.2582 79255 281.523
43.375 77813 278.95
43.4918 77279 277.991
43.6087 74545 273.029
43.7256 70525 265.565
43.8425 67518 259.842
43.9595 66203 257.299
44.0765 67486 259.781
44.1935 69819 264.233
44.3106 72512 269.281
44.4277 74304 272.588
44.5448 74416 272.793
44.6619 73615 271.321
44.7791 73158 270.477
44.8963 72210 268.719
45.0136 71667 267.707
45.1308 69759 264.119
45.2481 69324 263.295
45.3654 68368 261.473
45.4827 67444 259.7
45.6001 66287 257.463
45.7174 66422 257.725
45.8348 65270 255.48
45.9522 64834 254.625
46.0697 64402 253.775
46.1871 63427 251.847
46.3046 62729 250.458
46.422 61525 248.042
46.5395 60893 246.765
46.657 60015 244.98
46.7745 58607 242.089
46.892 55909 236.451
47.0096 55180 234.904
47.1271 54479 233.407
47.2446 52780 229.739
47.3622 49334 222.113
47.4797 48014 219.121
47.5973 47383 217.676
47.7149 48766 220.83
47.8324 51076 226
47.95 51071 225.989
48.0675 52572 229.286
48.1851 50817 225.426
48.3027 51069 225.985
48.4202 50298 224.272
48.5378 49693 222.919
48.6554 49401 222.263
48.7729 49231 221.881
48.8904 49275 221.98
49.008 48740 220.771
49.1255 48830 220.975
49.243 49024 221.414
49.3605 49080 221.54
49.478 49210 221.833
49.5955 49737 223.018
49.713 49702 222.939
49.8304 50148 223.937
49.9479 50445 224.6
50.0653 51120 226.097
50.1827 51830 227.662
50.3001 51015 225.865
50.4175 49458 222.392
50.5348 48612 220.481
50.6521 47731 218.474
50.7694 48242 219.641
50.8867 47897 218.854
51.004 48659 220.588
51.1212 52193 228.458
51.2384 56448 237.588
51.3556 60422 245.809
51.4727 62336 249.672
51.5899 63508 252.008
51.707 64772 254.503
51.824 66196 257.286
51.9411 66579 258.029
52.0581 68240 261.228
52.175 69855 264.301
52.2919 70787 266.058
52.4088 70820 266.12
52.5257 71782 267.922
52.6425 73291 270.723
52.7593 73163 270.487
52.876 75306 274.419
52.9927 75724 275.18
53.1094 76695 276.939
53.226 77071 277.617
53.3426 77779 278.889
53.4591 78866 280.831
53.5756 79033 281.128
53.692 79882 282.634
53.8084 79801 282.491
53.9248 79323 281.643
54.0411 77317 278.059
54.1573 73480 271.072
54.2735 0 1
54.3896 0 1
54.5057 0 1
54.6217 0 1
54.7377 0 1
54.8537 0 1
54.9695 0 1
55.0853 0 1
55.2011 0 1
55.3168 0 1
55.4324 0 1
57.824 0 1
57.9396 0 1
58.0553 0 1
58.1711 0 1
58.2869 0 1
58.4028 0 1
58.5187 0 1
58.6347 0 1
58.7508 0 1
58.8669 0 1
58.983 86823 294.657
59.0992 86494 294.099
59.2155 82784 287.722
59.3318 78226 279.689
59.4482 75666 275.075
59.5646 76332 276.282
59.681 79210 281.443
59.7975 82895 287.915
59.9141 85694 292.735
60.0306 85651 292.662
60.1473 86752 294.537
60.2639 85763 292.853
60.3807 85204 291.897
60.4974 85043 291.621
60.6142 83746 289.389
60.731 83475 288.92
60.8479 82491 287.212
60.9648 81683 285.802
61.0818 82269 286.826
61.1987 80869 284.375
61.3158 80623 283.942
61.4328 79802 282.492
61.5499 79919 282.699
61.667 79151 281.338
61.7841 78246 279.725
61.9013 79040 281.141
62.0185 78162 279.575
62.1357 77531 278.444
62.253 76800 277.128
62.3702 76593 276.754
62.4875 75388 274.569
62.6049 73318 270.773
62.7222 71227 266.884
62.8396 67560 259.923
62.9569 66256 257.402
63.0743 67073 258.985
63.1918 69612 263.841
63.3092 72118 268.548
63.4267 73099 270.368
63.5441 73175 270.509
63.6616 72922 270.041
63.7791 72169 268.643
63.8966 71873 268.091
64.0142 71026 266.507
64.1317 69964 264.507
64.2492 69837 264.267
64.3668 69617 263.85
64.4843 68878 262.446
64.6019 68820 262.336
64.7195 68237 261.222
64.837 68057 260.877
64.9546 67601 260.002
65.0722 67330 259.48
65.1898 66650 258.167
65.3074 67298 259.419
65.4249 66213 257.319
65.5425 66062 257.025
65.6601 65990 256.885
65.7777 65416 255.766
65.8952 65760 256.437
66.0128 65444 255.82
66.1304 64598 254.161
66.2479 62508 250.016
66.3655 58703 242.287
66.483 55184 234.913
66.6005 56214 237.095
66.718 59730 244.397
66.8355 62535 250.07
66.953 63275 251.545
67.0705 64089 253.158
67.1879 63001 251
67.3054 63446 251.885
67.4228 62826 250.651
67.5402 62556 250.112
67.6576 61979 248.956
67.7749 62005 249.008
67.8923 60886 246.751
68.0096 61252 247.491
68.1269 61268 247.524
68.2442 60798 246.573
68.3614 60892 246.763
68.4787 61521 248.034
68.5958 60390 245.744
68.713 60812 246.601
68.8302 60365 245.693
68.9473 60345 245.652
69.0643 59321 243.559
69.1814 59554 244.037
69.2984 60009 244.967
69.4154 59810 244.561
69.5323 59641 244.215
69.6492 59362 243.643
69.7661 58621 242.118
69.8829 59278 243.471
69.9997 56003 236.65
70.1165 51595 227.145
70.2332 50722 225.215
70.3499 53058 230.343
70.4665 55872 236.373
70.5831 55996 236.635
70.6996 56756 238.235
70.8161 55648 235.898
70.9326 54663 233.801
71.049 54037 232.459
71.1653 53093 230.419
71.2817 52507 229.144
71.3979 50417 224.537
71.5141 49079 221.538
71.6303 47665 218.323
71.7464 43412 208.355
71.8624 0 1
71.9784 0 1
72.0944 0 1
72.2102 0 1
72.3261 0 1
72.4418 0 1
72.5575 0 1
72.6732 0 1
75.1054 0 1
75.2209 0 1
75.3365 0 1
75.4521 0 1
75.5678 0 1
75.6835 0 1
75.7993 0 1
75.9151 0 1
76.031 0 1
76.147 27049 164.466
76.263 27580 166.072
76.3791 26874 163.933
76.4952 25870 160.842
76.6113 24996 158.101
76.7276 23754 154.123
76.8438 23061 151.858
76.9601 22066 148.546
77.0765 21320 146.014
77.1929 21230 145.705
77.3093 21100 145.258
77.4258 20838 144.354
77.5423 20680 143.805
77.6589 20529 143.279
77.7755 20720 143.944
77.8921 20902 144.575
78.0088 20941 144.71
78.1256 21001 144.917
78.2423 21862 147.858
78.3591 22195 148.98
78.4759 22788 150.957
78.5928 24111 155.277
78.7097 25416 159.424
78.8266 26130 161.648
78.9436 26993 164.295
79.0606 23705 153.964
79.1776 19157 138.409
79.2946 24918 157.854
79.4117 30386 174.316
79.5288 31760 178.213
79.6459 31361 177.09
79.7631 31186 176.596
79.8802 33312 182.516
79.9974 34164 184.835
80.1147 34633 186.099
80.2319 35171 187.539
80.3491 34872 186.74
80.4664 35622 188.738
80.5837 35762 189.108
80.701 36000 189.737
80.8183 36299 190.523
80.9357 37106 192.629
81.053 37380 193.339
81.1704 37337 193.228
81.2877 37521 193.703
81.4051 37541 193.755
81.5225 37998 194.931
81.6399 37212 192.904
81.7573 38540 196.316
81.8747 37529 193.724
81.9922 37884 194.638
82.1096 39054 197.621
82.227 39260 198.141
82.3444 39019 197.532
82.4619 40026 200.065
82.5793 39980 199.95
82.6967 35615 188.719
82.8142 30406 174.373
82.9316 33047 181.788
83.049 38985 197.446
83.1664 40574 201.43
83.2838 39809 199.522
83.4012 38143 195.302
83.5186 38906 197.246
83.636 40914 202.272
83.7534 41748 204.323
83.8708 42242 205.529
83.9881 42296 205.66
84.1055 42542 206.257
84.2228 43137 207.694
84.3401 43596 208.797
84.4575 44039 209.855
84.5747 44694 211.41
84.692 45547 213.417
84.8093 46902 216.569
84.9265 46343 215.274
85.0437 46893 216.548
85.1609 47701 218.406
85.2781 47970 219.021
85.3952 49053 221.479
85.5123 49335 222.115
85.6294 50528 224.784
85.7465 50968 225.761
85.8636 51544 227.033
85.9806 52074 228.197
86.0976 51220 226.318
86.2145 45935 214.325
86.3315 39360 198.394
86.4484 42027 205.005
86.5652 50447 224.604
86.682 55857 236.341
86.7988 56733 238.187
86.9156 57066 238.885
87.0323 56864 238.462
87.149 57042 238.835
87.2657 58273 241.398
87.3823 58564 242
87.4988 58609 242.093
87.6154 59152 243.212
87.7318 59793 244.526
87.8483 60332 245.626
87.9647 61081 247.146
88.081 61675 248.345
88.1973 61690 248.375
88.3136 62425 249.85
88.4298 62224 249.447
88.546 62569 250.138
88.6621 62483 249.966
88.7781 61929 248.855
88.8942 0 1
89.0101 0 1
89.126 0 1
89.2419 0 1
89.3577 0 1
89.4734 0 1
89.5891 0 1
89.7047 0 1
89.8203 0 1
89.9358 0 1
92.3269 0 1
92.4424 0 1
92.558 0 1
92.6736 0 1
92.7893 0 1
92.905 0 1
93.0208 0 1
93.1366 0 1
93.2525 0 1
93.3685 0 1
93.4845 0 1
93.6005 48718 220.722
93.7167 49210 221.833
93.8328 48277 219.72
93.949 47658 218.307
94.0653 46943 216.663
94.1816 46055 214.604
94.2979 45386 213.04
94.4143 44581 211.142
94.5307 44810 211.684
94.6472 43546 208.677
94.7637 42951 207.246
94.8803 42361 205.818
94.9969 42278 205.616
95.1135 41506 203.73
95.2302 41078 202.677
95.3469 40004 200.01
95.4637 37167 192.787
95.5805 33116 181.978
95.6973 31439 177.31
95.8142 34286 185.165
95.9311 36497 191.042
96.048 36234 190.352
96.1649 35487 188.38
96.2819 34873 186.743
96.3989 34013 184.426
96.516 33092 181.912
96.633 32443 180.119
96.7501 32237 179.547
96.8673 31052 176.216
96.9844 30706 175.231
97.1016 30163 173.675
97.2188 29900 172.916
97.336 29239 170.994
97.4532 28791 169.679
97.5704 28469 168.728
97.6877 28016 167.38
97.805 26964 164.207
97.9223 26478 162.721
98.0396 26122 161.623
98.1569 25812 160.661
98.2743 25071 158.338
98.3916 24555 156.7
98.509 24710 157.194
98.6264 23925 154.677
98.7438 23051 151.826
98.8612 23271 152.548
98.9786 23790 154.24
99.096 24218 155.621
99.2134 23199 152.312
99.3308 21921 148.057
99.4482 22009 148.354
99.5656 22796 150.983
99.6831 22508 150.027
99.8005 21924 148.068
99.9179 21155 145.448
100.035 21042 145.059
100.153 20612 143.569
100.27 20616 143.583
100.388 20367 142.713
100.505 20290 142.443
100.622 20325 142.566
100.74 20369 142.72
100.857 20710 143.91
100.975 20810 144.257
101.092 20903 144.579
101.209 21044 145.066
101.327 20973 144.821
101.444 20713 143.92
101.561 20712 143.917
101.679 20839 144.357
101.796 20740 144.014
101.913 20606 143.548
102.03 20693 143.851
102.148 18868 137.361
102.265 17927 133.892
102.382 14811 121.7
102.499 18577 136.297
102.616 21619 147.034
102.733 22998 151.651
102.851 23653 153.795
102.968 22872 151.235
103.085 22854 151.175
103.202 22815 151.046
103.319 23185 152.266
103.436 22953 151.502
103.552 22848 151.156
103.669 22681 150.602
103.786 22701 150.669
103.903 23247 152.47
104.02 23489 153.261
104.137 23534 153.408
104.253 24969 158.016
104.37 24075 155.161
104.487 25671 160.222
104.603 25912 160.972
104.72 25906 160.953
104.836 26310 162.204
104.953 26537 162.902
105.069 26921 164.076
105.186 27221 164.988
105.302 27531 165.925
105.418 27575 166.057
105.535 25910 160.966
105.651 22487 149.957
105.767 18397 135.636
105.883 17215 131.206
105.999 21472 146.533
106.115 0 1
106.231 0 1
106.347 0 1
106.463 0 1
106.579 0 1
106.694 0 1
106.81 0 1
106.926 0 1
107.041 0 1
107.157 0 1
109.576 0 1
109.692 0 1
109.807 0 1
109.923 0 1
110.039 0 1
110.155 0 1
110.27 0 1
110.386 0 1
110.502 0 1
110.618 32839 181.215
110.735 29615 172.09
110.851 25554 159.856
110.967 23248 152.473
111.083 26605 163.11
111.199 34938 186.917
111.316 41065 202.645
111.432 42739 206.734
111.549 43854 209.413
111.665 43823 209.339
111.782 43501 208.569
111.898 43446 208.437
112.015 43839 209.378
112.132 43213 207.877
112.248 42956 207.258
112.365 43800 209.284
112.482 44341 210.573
112.599 43230 207.918
112.716 44623 211.242
112.832 45140 212.462
112.949 45440 213.167
113.066 46214 214.974
113.183 45900 214.243
113.3 46336 215.258
113.417 46444 215.509
113.534 46703 216.109
113.652 47453 217.837
113.769 47270 217.417
113.886 47755 218.529
114.003 44940 211.991
114.12 43094 207.591
114.238 39221 198.043
114.355 34526 185.812
114.472 33087 181.898
114.589 29528 171.837
114.707 36027 189.808
114.824 44990 212.108
114.942 50829 225.453
115.059 52492 229.111
115.176 53718 231.771
115.294 53381 231.043
115.411 53542 231.391
115.529 53792 231.931
115.646 53403 231.091
115.764 53613 231.545
115.881 53699 231.73
115.999 53764 231.871
116.116 54577 233.617
116.234 54901 234.31
116.351 54928 234.367
116.469 55924 236.483
116.586 56153 236.966
116.704 56501 237.699
116.821 56519 237.737
116.939 56619 237.947
117.056 57415 239.614
117.174 57738 240.287
117.291 57835 240.489
117.409 58013 240.859
117.526 56537 237.775
117.644 54307 233.039
117.761 50811 225.413
117.879 47331 217.557
117.996 43798 209.28
118.114 41868 204.617
118.231 42245 205.536
118.349 45666 213.696
118.466 52945 230.098
118.584 59921 244.788
118.701 62671 250.342
118.819 62615 250.23
118.936 63108 251.213
119.053 63016 251.03
119.171 63228 251.452
119.288 62588 250.176
119.405 63138 251.273
119.523 63161 251.319
119.64 62842 250.683
119.757 62864 250.727
119.875 63573 252.137
119.992 63281 251.557
120.109 64049 253.079
120.226 64151 253.28
120.343 63952 252.887
120.46 64713 254.387
120.578 64934 254.822
120.695 65173 255.29
120.812 65711 256.342
120.929 65890 256.69
121.046 65164 255.272
121.163 64137 253.253
121.279 62530 250.06
121.396 59483 243.891
121.513 55425 235.425
121.63 51675 227.321
121.747 50133 223.904
121.863 49142 221.68
121.98 50025 223.663
122.097 53146 230.534
122.213 59526 243.98
122.33 65764 256.445
122.446 68856 262.404
122.563 69273 263.198
122.679 69052 262.777
122.795 69531 263.687
122.912 69331 263.308
123.028 68981 262.642
123.144 68789 262.277
123.26 68065 260.893
123.377 0 1
123.493 0 1
123.609 0 1
123.725 0 1
123.84 0 1
123.956 0 1
124.072 0 1
124.188 0 1
124.303 0 1
124.419 0 1
126.852 0 1
126.968 0 1
127.083 0 1
127.199 0 1
127.315 0 1
127.431 0 1
127.547 0 1
127.663 0 1
127.779 0 1
127.895 0 1
128.011 0 1
128.127 0 1
128.243 0 1
128.359 82221 286.742
128.476 82860 287.854
128.592 83399 288.789
128.708 84052 289.917
128.825 84702 291.036
128.941 85371 292.183
129.058 85952 293.176
129.174 85953 293.177
129.291 85715 292.771
129.408 86224 293.639
129.524 86932 294.842
129.641 86503 294.114
129.758 86622 294.316
129.875 85540 292.472
129.992 84187 290.15
130.108 82081 286.498
130.225 77760 278.855
130.342 74546 273.031
130.459 69881 264.35
130.576 69704 264.015
130.693 67084 259.006
130.81 68291 261.325
130.928 69251 263.156
131.045 73420 270.961
131.162 79576 282.092
131.279 85716 292.773
131.396 88771 297.945
131.513 91196 301.987
131.631 91047 301.74
131.748 92004 303.322
131.865 91459 302.422
131.983 91486 302.467
132.1 91346 302.235
132.217 91246 302.07
132.335 91036 301.722
132.452 90995 301.654
132.57 91833 303.04
132.687 88640 297.725
132.804 94917 308.086
132.922 92205 303.653
133.039 92358 303.905
133.157 92330 303.859
133.274 92170 303.595
133.392 91747 302.898
133.509 89925 299.875
133.627 87743 296.214
133.744 84344 290.42
133.862 80836 284.317
133.979 77620 278.604
134.097 75096 274.036
134.214 74414 272.789
134.332 72976 270.141
134.449 75783 275.287
134.567 77929 279.158
134.684 81716 285.86
134.802 87645 296.049
134.919 91316 302.185
135.037 94969 308.17
135.154 95188 308.526
135.272 95554 309.118
135.389 97084 311.583
135.507 96223 310.198
135.624 96349 310.401
135.742 96600 310.805
135.859 95997 309.834
135.977 95949 309.756
136.094 95238 308.607
136.211 95889 309.659
136.329 95847 309.592
136.446 96124 310.039
136.564 96562 310.744
136.681 95611 309.21
136.798 96934 311.342
136.915 95763 309.456
137.033 94723 307.771
137.15 93785 306.243
137.267 90637 301.06
137.384 86675 294.406
137.502 84047 289.909
137.619 80972 284.556
137.736 78230 279.696
137.853 76581 276.733
137.97 79103 281.253
138.087 78261 279.752
138.204 82259 286.808
138.321 86441 294.009
138.438 90657 301.093
138.555 95327 308.751
138.672 97235 311.825
138.788 99990 316.212
138.905 101120 317.994
139.022 101734 318.958
139.139 102543 320.223
139.255 102535 320.211
139.372 101767 319.009
139.488 101819 319.091
139.605 102605 320.32
139.721 102035 319.429
139.838 102087 319.511
139.954 101958 319.309
140.071 100340 316.765
140.187 102604 320.319
140.303 101109 317.976
140.419 100579 317.142
140.535 100137 316.444
140.652 98133 313.262
140.768 0 1
140.884 0 1
141 0 1
141.115 0 1
141.231 0 1
141.347 0 1
141.463 0 1
141.578 0 1
141.694 0 1
144.104 0 1
144.219 0 1
144.335 0 1
144.45 0 1
144.566 0 1
144.682 0 1
144.798 0 1
144.914 0 1
145.03 0 1
145.146 89097 298.491
145.262 90864 301.437
145.378 91271 302.111
145.494 90766 301.274
145.61 89617 299.361
145.726 87503 295.809
145.842 86074 293.384
145.959 83073 288.224
146.075 79934 282.726
146.192 77715 278.774
146.308 75735 275.2
146.425 74397 272.758
146.541 73816 271.691
146.658 75153 274.14
146.774 76649 276.856
146.891 79326 281.649
147.008 82183 286.676
147.125 86747 294.528
147.241 88372 297.274
147.358 89067 298.441
147.475 90533 300.887
147.592 92318 303.839
147.709 92316 303.835
147.826 92611 304.321
147.943 93273 305.406
148.06 91539 302.554
148.177 91981 303.284
148.294 91753 302.908
148.411 91646 302.731
148.528 92294 303.799
148.645 91720 302.853
148.762 90838 301.393
148.88 91978 303.279
148.997 88970 298.278
149.114 92579 304.268
149.231 90002 300.003
149.349 88923 298.2
149.466 84119 290.033
149.583 83192 288.43
149.701 79760 282.418
149.818 77686 278.722
149.935 75483 274.742
150.053 75037 273.929
150.17 74049 272.119
150.287 75344 274.489
150.405 76698 276.944
150.522 78974 281.023
150.64 81922 286.22
150.757 85614 292.599
150.875 86579 294.243
150.992 86619 294.311
151.11 87380 295.601
151.227 88996 298.322
151.344 90907 301.508
151.462 91148 301.907
151.579 92259 303.742
151.697 91753 302.908
151.814 91716 302.846
151.932 91330 302.209
152.049 91325 302.2
152.167 90864 301.437
152.284 91284 302.132
152.402 91438 302.387
152.519 90729 301.213
152.636 90635 301.056
152.754 90097 300.162
152.871 88995 298.32
152.989 88035 296.707
153.106 84732 291.088
153.223 82467 287.171
153.341 79566 282.074
153.458 77154 277.766
153.575 75730 275.191
153.693 74646 273.214
153.81 74577 273.088
153.927 75640 275.027
154.044 78006 279.296
154.162 79934 282.726
154.279 83189 288.425
154.396 86859 294.719
154.513 89130 298.546
154.63 89237 298.726
154.747 89540 299.232
154.864 90233 300.388
154.981 90844 301.403
155.098 92138 303.542
155.215 92196 303.638
155.332 92558 304.233
155.449 92324 303.849
155.566 91982 303.285
155.683 92363 303.913
155.8 92494 304.128
155.917 91814 303.008
156.033 92057 303.409
156.15 0 1
156.267 0 1
156.383 0 1
156.5 0 1
156.617 0 1
156.733 0 1
156.85 0 1
156.966 0 1
157.082 0 1
157.199 0 1
157.315 0 1
157.431 0 1
157.547 0 1
157.664 0 1
157.78 0 1
157.896 0 1
158.012 0 1
158.128 0 1
158.244 0 1
158.359 0 1
158.475 0 1
158.591 0 1
158.706 0 1
