
6.15755 0 1
6.2731 0 1
6.3887 0 1
6.50437 0 1
6.62009 0 1
6.73587 0 1
6.8517 0 1
6.96759 0 1
7.08353 0 1
7.19952 0 1
7.31557 0 1
7.43166 0 1
7.54781 0 1
7.664 0 1
7.78024 0 1
7.89653 0 1
8.01286 0 1
8.12924 0 1
8.24567 0 1
8.36213 0 1
8.47864 0 1
8.59519 0 1
8.71178 0 1
8.82841 0 1
8.94508 0 1
9.06179 0 1
9.17853 0 1
9.29531 0 1
9.41212 0 1
9.52897 0 1
9.64584 0 1
9.76276 0 1
9.8797 0 1
9.99667 0 1
10.1137 0 1
10.2307 0 1
10.3478 0 1
10.4648 0 1
10.5819 0 1
10.6991 0 1
10.8162 0 1
10.9334 0 1
11.0506 0 1
11.1678 0 1
11.285 0 1
11.4023 0 1
11.5196 0 1
11.6369 0 1
11.7542 0 1
11.8715 0 1
11.9888 0 1
12.1062 0 1
12.2235 0 1
12.3409 0 1
12.4582 0 1
12.5756 0 1
12.693 0 1
12.8104 0 1
12.9278 0 1
13.0452 0 1
13.1626 0 1
13.28 0 1
13.3974 0 1
13.5149 0 1
13.6323 0 1
13.7497 0 1
13.8671 0 1
13.9845 0 1
14.1019 0 1
14.2193 0 1
14.3367 0 1
14.4541 0 1
14.5714 0 1
14.6888 0 1
14.8062 0 1
14.9235 0 1
15.0408 0 0
15.1581 0 0
15.2755 0 0
15.3927 0 0
15.51 0 0
15.6273 0 0
15.7445 0 0
15.8617 0 0
15.9789 0 0
16.0961 0 0
16.2132 0 0
16.3304 0 0
16.4475 0 0
16.5646 0 0
16.6816 0 0
16.7986 0 0
16.9156 0 0
17.0326 0 0
17.1496 0 0
17.2665 0 0
17.3833 0 0
17.5002 0 0
17.617 0 0
17.7338 0 0
17.8505 0 0
17.9672 0 0
18.0839 0 0
18.2005 0 0
18.3171 0 0
18.4337 0 0
18.5502 0 0
18.6666 0 0
18.7831 0 0
18.8994 0 0
19.0158 0 0
19.1321 0 0
19.2483 0 0
19.3645 0 0
19.4806 0 0
19.5967 0 0
19.7128 0 0
19.8288 0 0
19.9447 0 0
20.0606 0 1
20.1764 0 1
20.2922 0 1
20.4079 0 1
20.5236 0 1
20.6392 0 1
20.7548 0 1
20.8702 0 1
23.3078 0 1
23.4233 0 1
23.539 0 1
23.6547 0 1
23.7704 0 1
23.8862 0 1
24.0021 0 1
24.118 0 1
24.234 0 1
24.35 0 1
24.4661 1269 35.623
24.5822 1378 37.1214
24.6984 1467 38.3014
24.8146 1626 40.3237
24.9309 1847 42.9767
25.0472 2243 47.3603
25.1636 2348 48.4562
25.28 2575 50.7445
25.3965 2492 49.9199
25.513 2624 51.225
25.6296 2617 51.1566
25.7462 2590 50.892
25.8628 2551 50.5074
25.9795 2585 50.8429
26.0962 2682 51.788
26.213 2704 52
26.3298 2816 53.066
26.4466 2698 51.9423
26.5635 2659 51.5655
26.6804 2654 51.517
26.7973 2586 50.8527
26.9143 2537 50.3686
27.0313 2374 48.7237
27.1483 2426 49.2544
27.2653 2388 48.8672
27.3824 2375 48.734
27.4996 2293 47.8853
27.6167 2120 46.0435
27.7339 2107 45.9021
27.8511 2192 46.8188
27.9683 2358 48.5592
28.0855 2424 49.2341
28.2028 2424 49.2341
28.3201 2513 50.1298
28.4374 2535 50.3488
28.5547 2453 49.5278
28.6721 2472 49.7192
28.7894 2388 48.8672
28.9068 2493 49.93
29.0242 2457 49.5681
29.1416 2428 49.2747
29.259 2502 50.02
29.3764 2483 49.8297
29.4939 2387 48.8569
29.6113 2301 47.9687
29.7288 2357 48.5489
29.8463 2237 47.2969
29.9638 2239 47.3181
30.0812 2324 48.2079
30.1987 2430 49.295
30.3162 2350 48.4768
30.4337 2396 48.949
30.5512 2429 49.2849
30.6687 2411 49.1019
30.7862 2360 48.5798
30.9037 2270 47.6445
31.0212 2129 46.1411
31.1387 2211 47.0213
31.2562 2231 47.2335
31.3737 2376 48.7442
31.4912 2397 48.9592
31.6087 2433 49.3254
31.7262 2485 49.8498
31.8436 2429 49.2849
31.9611 2448 49.4773
32.0785 2425 49.2443
32.1959 2346 48.4355
32.3134 2295 47.9062
32.4308 2331 48.2804
32.5482 2209 47
32.6655 2286 47.8121
32.7829 2191 46.8081
32.9002 2190 46.7974
33.0176 2105 45.8803
33.1349 2030 45.0555
33.2522 2037 45.1331
33.3694 2093 45.7493
33.4867 2165 46.5296
33.6039 2099 45.8148
33.7211 2188 46.7761
33.8383 2196 46.8615
33.9554 2277 47.7179
34.0725 2240 47.3286
34.1896 2313 48.0937
34.3067 2259 47.5289
34.4237 2436 49.3559
34.5407 2215 47.0638
34.6577 2204 46.9468
34.7746 2127 46.1194
34.8915 2187 46.7654
35.0084 2188 46.7761
35.1252 2436 49.3559
35.242 2323 48.1975
35.3587 2427 49.2646
35.4755 2344 48.4149
35.5921 2323 48.1975
35.7088 2250 47.4342
35.8254 2133 46.1844
35.9419 2083 45.6399
36.0584 2065 45.4423
36.1749 1913 43.7379
36.2913 1903 43.6234
36.4077 1858 43.1045
36.524 1778 42.1663
36.6403 1613 40.1622
36.7565 1509 38.8458
36.8727 1565 39.5601
36.9889 1426 37.7624
37.1049 1392 37.3095
37.221 0 1
37.3369 0 1
37.4529 0 1
37.5687 0 1
37.6845 0 1
37.8003 0 1
37.916 0 1
38.0316 0 1
38.1472 0 1
40.5851 0 1
40.7008 0 1
40.8164 0 1
40.9322 0 1
41.048 0 1
41.1639 0 1
41.2798 0 1
41.3958 0 1
41.5118 0 1
41.6279 0 1
41.744 2177 46.6583
41.8602 3035 55.0908
41.9765 3550 59.5819
42.0928 3914 62.562
42.2091 4030 63.4823
42.3255 3996 63.2139
42.4419 4034 63.5138
42.5584 4135 64.304
42.675 4179 64.6452
42.7915 4135 64.304
42.9081 4165 64.5368
43.0248 4405 66.3702
43.1415 4312 65.6658
43.2582 3980 63.0872
43.375 3815 61.7657
43.4918 3730 61.0737
43.6087 3758 61.3025
43.7256 3823 61.8304
43.8425 3963 62.9524
43.9595 4043 63.5846
44.0765 3913 62.554
44.1935 3733 61.0983
44.3106 3633 60.2744
44.4277 3420 58.4808
44.5448 3218 56.7274
44.6619 3096 55.6417
44.7791 2898 53.8331
44.8963 2718 52.1344
45.0136 2557 50.5668
45.1308 2500 50
45.2481 2264 47.5815
45.3654 2178 46.669
45.4827 1992 44.6318
45.6001 1955 44.2154
45.7174 1824 42.7083
45.8348 1818 42.638
45.9522 1816 42.6146
46.0697 1859 43.1161
46.1871 1785 42.2493
46.3046 1947 44.1248
46.422 1969 44.3734
46.5395 1932 43.9545
46.657 1943 44.0795
46.7745 2021 44.9555
46.892 1793 42.3438
47.0096 1814 42.5911
47.1271 1825 42.72
47.2446 1866 43.1972
47.3622 1942 44.0681
47.4797 1900 43.589
47.5973 1878 43.3359
47.7149 1907 43.6692
47.8324 1919 43.8064
47.95 1867 43.2088
48.0675 1845 42.9535
48.1851 1871 43.2551
48.3027 1882 43.382
48.4202 1734 41.6413
48.5378 1687 41.0731
48.6554 1689 41.0974
48.7729 1735 41.6533
48.8904 1680 40.9878
49.008 1672 40.8901
49.1255 1617 40.2119
49.243 1600 40
49.3605 1694 41.1582
49.478 1718 41.4488
49.5955 1810 42.5441
49.713 1773 42.107
49.8304 1873 43.2782
49.9479 1882 43.382
50.0653 1848 42.9884
50.1827 1886 43.4281
50.3001 1768 42.0476
50.4175 1592 39.8999
50.5348 1472 38.3667
50.6521 1520 38.9872
50.7694 1705 41.2916
50.8867 1797 42.391
51.004 1850 43.0116
51.1212 1961 44.2832
51.2384 1856 43.0813
51.3556 1811 42.5558
51.4727 1820 42.6615
51.5899 1873 43.2782
51.707 1854 43.0581
51.824 1809 42.5323
51.9411 1799 42.4146
52.0581 1714 41.4005
52.175 1721 41.4849
52.2919 1669 40.8534
52.4088 1720 41.4729
52.5257 1614 40.1746
52.6425 1658 40.7185
52.7593 1621 40.2616
52.876 1694 41.1582
52.9927 1592 39.8999
53.1094 1571 39.6358
53.226 1608 40.0999
53.3426 1599 39.9875
53.4591 1638 40.4722
53.5756 1496 38.6782
53.692 1318 36.3043
53.8084 1180 34.3511
53.9248 1081 32.8786
54.0411 976 31.241
54.1573 979 31.289
54.2735 0 1
54.3896 0 1
54.5057 0 1
54.6217 0 1
54.7377 0 1
54.8537 0 1
54.9695 0 1
55.0853 0 1
55.2011 0 1
55.3168 0 1
55.4324 0 1
57.824 0 1
57.9396 0 1
58.0553 0 1
58.1711 0 1
58.2869 0 1
58.4028 0 1
58.5187 0 1
58.6347 0 1
58.7508 0 1
58.8669 0 1
58.983 1444 38
59.0992 1447 38.0395
59.2155 1497 38.6911
59.3318 1614 40.1746
59.4482 1761 41.9643
59.5646 1852 43.0349
59.681 2109 45.9239
59.7975 2109 45.9239
59.9141 2057 45.3542
60.0306 2102 45.8476
60.1473 2182 46.7119
60.2639 2117 46.0109
60.3807 2145 46.3141
60.4974 2064 45.4313
60.6142 2127 46.1194
60.731 2157 46.4435
60.8479 2102 45.8476
60.9648 2095 45.7712
61.0818 2217 47.085
61.1987 2141 46.2709
61.3158 1960 44.2719
61.4328 2006 44.7884
61.5499 1992 44.6318
61.667 1927 43.8976
61.7841 2012 44.8553
61.9013 2109 45.9239
62.0185 2038 45.1442
62.1357 2037 45.1331
62.253 2098 45.8039
62.3702 2040 45.1664
62.4875 1944 44.0908
62.6049 1821 42.6732
62.7222 1911 43.715
62.8396 1954 44.2041
62.9569 2097 45.793
63.0743 2136 46.2169
63.1918 2174 46.6262
63.3092 2162 46.4973
63.4267 2239 47.3181
63.5441 2140 46.2601
63.6616 2242 47.3498
63.7791 2278 47.7284
63.8966 2167 46.551
64.0142 2164 46.5188
64.1317 2122 46.0652
64.2492 2165 46.5296
64.3668 2155 46.422
64.4843 2163 46.5081
64.6019 2149 46.3573
64.7195 1947 44.1248
64.837 2008 44.8107
64.9546 1970 44.3847
65.0722 1934 43.9773
65.1898 1905 43.6463
65.3074 2063 45.4203
65.4249 1971 44.3959
65.5425 2047 45.2438
65.6601 2048 45.2548
65.7777 2058 45.3652
65.8952 2133 46.1844
66.0128 1917 43.7836
66.1304 1881 43.3705
66.2479 1706 41.3038
66.3655 1776 42.1426
66.483 1896 43.5431
66.6005 2065 45.4423
66.718 2212 47.0319
66.8355 2127 46.1194
66.953 2112 45.9565
67.0705 2086 45.6727
67.1879 2065 45.4423
67.3054 2134 46.1952
67.4228 2077 45.5741
67.5402 1947 44.1248
67.6576 2050 45.2769
67.7749 1997 44.6878
67.8923 2064 45.4313
68.0096 2079 45.5961
68.1269 2095 45.7712
68.2442 1985 44.5533
68.3614 1991 44.6206
68.4787 1956 44.2267
68.5958 1906 43.6578
68.713 1963 44.3058
68.8302 1843 42.9302
68.9473 1835 42.8369
69.0643 1938 44.0227
69.1814 1966 44.3396
69.2984 1996 44.6766
69.4154 1935 43.9886
69.5323 1898 43.566
69.6492 1844 42.9418
69.7661 1794 42.3556
69.8829 1562 39.5221
69.9997 1648 40.5956
70.1165 1742 41.7373
70.2332 1804 42.4735
70.3499 1734 41.6413
70.4665 1635 40.4351
70.5831 1506 38.8072
70.6996 1346 36.6879
70.8161 1309 36.1801
70.9326 1315 36.2629
71.049 1263 35.5387
71.1653 1219 34.9142
71.2817 1151 33.9264
71.3979 1121 33.4813
71.5141 1053 32.45
71.6303 1047 32.3574
71.7464 939 30.6431
71.8624 0 1
71.9784 0 1
72.0944 0 1
72.2102 0 1
72.3261 0 1
72.4418 0 1
72.5575 0 1
72.6732 0 1
75.1054 0 1
75.2209 0 1
75.3365 0 1
75.4521 0 1
75.5678 0 1
75.6835 0 1
75.7993 0 1
75.9151 0 1
76.031 0 1
76.147 1681 41
76.263 1757 41.9166
76.3791 1862 43.1509
76.4952 1911 43.715
76.6113 1852 43.0349
76.7276 1792 42.332
76.8438 1874 43.2897
76.9601 1866 43.1972
77.0765 1877 43.3244
77.1929 2006 44.7884
77.3093 1966 44.3396
77.4258 1970 44.3847
77.5423 1828 42.7551
77.6589 1876 43.3128
77.7755 1956 44.2267
77.8921 1921 43.8292
78.0088 1920 43.8178
78.1256 1848 42.9884
78.2423 1880 43.359
78.3591 1941 44.0568
78.4759 1993 44.643
78.5928 1951 44.1701
78.7097 1668 40.8412
78.8266 1503 38.7685
78.9436 1303 36.0971
79.0606 1433 37.855
79.1776 1520 38.9872
79.2946 1892 43.4971
79.4117 1961 44.2832
79.5288 2059 45.3762
79.6459 1946 44.1135
79.7631 2055 45.3321
79.8802 1968 44.3621
79.9974 1945 44.1022
80.1147 2063 45.4203
80.2319 2051 45.288
80.3491 2101 45.8367
80.4664 1962 44.2945
80.5837 2046 45.2327
80.701 2063 45.4203
80.8183 2139 46.2493
80.9357 2131 46.1628
81.053 2036 45.1221
81.1704 2002 44.7437
81.2877 2114 45.9783
81.4051 2061 45.3982
81.5225 2099 45.8148
81.6399 1991 44.6206
81.7573 2129 46.1411
81.8747 2182 46.7119
81.9922 2302 47.9792
82.1096 2340 48.3735
82.227 2437 49.366
82.3444 2330 48.2701
82.4619 2137 46.2277
82.5793 2036 45.1221
82.6967 2052 45.299
82.8142 2463 49.6286
82.9316 2977 54.5619
83.049 3246 56.9737
83.1664 3321 57.6281
83.2838 3633 60.2744
83.4012 3743 61.1801
83.5186 3810 61.7252
83.636 3925 62.6498
83.7534 3998 63.2297
83.8708 3993 63.1902
83.9881 4031 63.4902
84.1055 4070 63.7966
84.2228 4199 64.7997
84.3401 4160 64.4981
84.4575 4189 64.7225
84.5747 4084 63.9062
84.692 4043 63.5846
84.8093 4030 63.4823
84.9265 3979 63.0793
85.0437 3944 62.8013
85.1609 3933 62.7136
85.2781 4116 64.1561
85.3952 3994 63.1981
85.5123 3945 62.8092
85.6294 3966 62.9762
85.7465 3852 62.0645
85.8636 3903 62.474
85.9806 3187 56.4535
86.0976 2717 52.1249
86.2145 2574 50.7346
86.3315 2942 54.2402
86.4484 3676 60.63
86.5652 3913 62.554
86.682 3992 63.1823
86.7988 4061 63.726
86.9156 3937 62.7455
87.0323 3988 63.1506
87.149 3954 62.8808
87.2657 3905 62.49
87.3823 3971 63.0159
87.4988 3882 62.3057
87.6154 3416 58.4466
87.7318 3203 56.5951
87.8483 2993 54.7083
87.9647 2898 53.8331
88.081 2884 53.7029
88.1973 2722 52.1728
88.3136 2552 50.5173
88.4298 2542 50.4183
88.546 2377 48.7545
88.6621 2334 48.3115
88.7781 2286 47.8121
88.8942 0 1
89.0101 0 1
89.126 0 1
89.2419 0 1
89.3577 0 1
89.4734 0 1
89.5891 0 1
89.7047 0 1
89.8203 0 1
89.9358 0 1
92.3269 0 1
92.4424 0 1
92.558 0 1
92.6736 0 1
92.7893 0 1
92.905 0 1
93.0208 0 1
93.1366 0 1
93.2525 0 1
93.3685 0 1
93.4845 0 1
93.6005 4229 65.0308
93.7167 4064 63.7495
93.8328 4076 63.8436
93.949 4078 63.8592
94.0653 4138 64.3273
94.1816 4138 64.3273
94.2979 4136 64.3117
94.4143 4150 64.4205
94.5307 4200 64.8074
94.6472 4066 63.7652
94.7637 3971 63.0159
94.8803 3676 60.63
94.9969 3264 57.1314
95.1135 3002 54.7905
95.2302 3047 55.1996
95.3469 3441 58.66
95.4637 3891 62.3779
95.5805 4091 63.9609
95.6973 4262 65.284
95.8142 4315 65.6887
95.9311 4206 64.8537
96.048 4251 65.1997
96.1649 4265 65.307
96.2819 4269 65.3376
96.3989 4308 65.6354
96.516 4327 65.7799
96.633 4374 66.1362
96.7501 4279 65.4141
96.8673 4348 65.9394
96.9844 4398 66.3174
97.1016 4471 66.8655
97.2188 4355 65.9924
97.336 4286 65.4675
97.4532 4281 65.4294
97.5704 4124 64.2184
97.6877 4118 64.1716
97.805 4078 63.8592
97.9223 4045 63.6003
98.0396 4130 64.2651
98.1569 4172 64.591
98.2743 3869 62.2013
98.3916 3517 59.3043
98.509 3027 55.0182
98.6264 2755 52.4881
98.7438 2703 51.9904
98.8612 2885 53.7122
98.9786 3165 56.2583
99.096 3295 57.4021
99.2134 3153 56.1516
99.3308 3059 55.3082
99.4482 3024 54.9909
99.5656 2822 53.1225
99.6831 2776 52.6878
99.8005 2782 52.7447
99.9179 2734 52.2877
100.035 2731 52.259
100.153 2683 51.7977
100.27 2563 50.6261
100.388 2848 53.3667
100.505 2797 52.8867
100.622 2780 52.7257
100.74 2778 52.7067
100.857 2715 52.1057
100.975 2718 52.1344
101.092 2653 51.5073
101.209 2624 51.225
101.327 2721 52.1632
101.444 2684 51.8073
101.561 2743 52.3737
101.679 2723 52.1824
101.796 2664 51.614
101.913 2677 51.7397
102.03 2453 49.5278
102.148 2185 46.744
102.265 1972 44.4072
102.382 2254 47.4763
102.499 2319 48.156
102.616 2563 50.6261
102.733 2507 50.07
102.851 2456 49.558
102.968 2518 50.1797
103.085 2447 49.4672
103.202 2449 49.4874
103.319 2519 50.1896
103.436 2445 49.4469
103.552 2450 49.4975
103.669 2430 49.295
103.786 2486 49.8598
103.903 2432 49.3153
104.02 2500 50
104.137 2512 50.1199
104.253 2597 50.9608
104.37 2442 49.4166
104.487 2450 49.4975
104.603 2453 49.5278
104.72 2292 47.8748
104.836 2232 47.244
104.953 1999 44.7102
105.069 1768 42.0476
105.186 1652 40.6448
105.302 1433 37.855
105.418 1374 37.0675
105.535 1310 36.1939
105.651 1138 33.7343
105.767 962 31.0161
105.883 809 28.4429
105.999 708 26.6083
106.115 0 1
106.231 0 1
106.347 0 1
106.463 0 1
106.579 0 1
106.694 0 1
106.81 0 1
106.926 0 1
107.041 0 1
107.157 0 1
109.576 0 1
109.692 0 1
109.807 0 1
109.923 0 1
110.039 0 1
110.155 0 1
110.27 0 1
110.386 0 1
110.502 0 1
110.618 2485 49.8498
110.735 2618 51.1664
110.851 2524 50.2394
110.967 2261 47.55
111.083 2225 47.1699
111.199 2342 48.3942
111.316 2543 50.4282
111.432 2743 52.3737
111.549 2789 52.811
111.665 2758 52.5167
111.782 2800 52.915
111.898 2775 52.6783
112.015 2777 52.6972
112.132 2724 52.192
112.248 2675 51.7204
112.365 2752 52.4595
112.482 2726 52.2111
112.599 2891 53.768
112.716 2866 53.535
112.832 2894 53.7959
112.949 2951 54.3231
113.066 3017 54.9272
113.183 3088 55.5698
113.3 3075 55.4527
113.417 3115 55.8122
113.534 2993 54.7083
113.652 3068 55.3895
113.769 3002 54.7905
113.886 3042 55.1543
114.003 3010 54.8635
114.12 2975 54.5436
114.238 2935 54.1756
114.355 2726 52.2111
114.472 2360 48.5798
114.589 2400 48.9898
114.707 2410 49.0918
114.824 2665 51.6236
114.942 2802 52.9339
115.059 2907 53.9166
115.176 2863 53.507
115.294 2802 52.9339
115.411 2909 53.9351
115.529 2779 52.7162
115.646 2806 52.9717
115.764 2755 52.4881
115.881 2717 52.1249
115.999 2891 53.768
116.116 2789 52.811
116.234 2862 53.4977
116.351 3028 55.0273
116.469 3101 55.6866
116.586 3101 55.6866
116.704 3169 56.2939
116.821 3157 56.1872
116.939 3210 56.6569
117.056 3129 55.9375
117.174 3050 55.2268
117.291 3007 54.8361
117.409 3159 56.205
117.526 3046 55.1906
117.644 3143 56.0625
117.761 3156 56.1783
117.879 2967 54.4702
117.996 2737 52.3163
118.114 2488 49.8799
118.231 2452 49.5177
118.349 2578 50.774
118.466 2675 51.7204
118.584 2776 52.6878
118.701 2952 54.3323
118.819 2875 53.619
118.936 2935 54.1756
119.053 2843 53.3198
119.171 2773 52.6593
119.288 2753 52.469
119.405 2694 51.9038
119.523 2838 53.2729
119.64 2646 51.4393
119.757 2828 53.1789
119.875 2795 52.8678
119.992 2732 52.2685
120.109 2888 53.7401
120.226 2876 53.6284
120.343 2927 54.1018
120.46 2887 53.7308
120.578 2948 54.2955
120.695 2917 54.0093
120.812 2838 53.2729
120.929 2798 52.8961
121.046 2896 53.8145
121.163 2852 53.4041
121.279 2950 54.3139
121.396 2803 52.9434
121.513 2675 51.7204
121.63 2585 50.8429
121.747 2295 47.9062
121.863 2000 44.7214
121.98 1991 44.6206
122.097 2062 45.4093
122.213 2008 44.8107
122.33 2028 45.0333
122.446 2086 45.6727
122.563 1970 44.3847
122.679 1951 44.1701
122.795 1774 42.1189
122.912 1744 41.7612
123.028 1742 41.7373
123.144 1715 41.4126
123.26 1604 40.05
123.377 0 1
123.493 0 1
123.609 0 1
123.725 0 1
123.84 0 1
123.956 0 1
124.072 0 1
124.188 0 1
124.303 0 1
124.419 0 1
126.852 0 1
126.968 0 1
127.083 0 1
127.199 0 1
127.315 0 1
127.431 0 1
127.547 0 1
127.663 0 1
127.779 0 1
127.895 0 1
128.011 0 1
128.127 0 1
128.243 0 1
128.359 3128 55.9285
128.476 3293 57.3847
128.592 3208 56.6392
128.708 3402 58.3267
128.825 3328 57.6888
128.941 3427 58.5406
129.058 3376 58.1034
129.174 3364 58
129.291 3627 60.2246
129.408 3557 59.6406
129.524 3801 61.6523
129.641 3753 61.2617
129.758 3857 62.1048
129.875 3913 62.554
129.992 3972 63.0238
130.108 3977 63.0635
130.225 4045 63.6003
130.342 3979 63.0793
130.459 3863 62.153
130.576 3889 62.3618
130.693 3580 59.8331
130.81 3432 58.5833
130.928 3503 59.1861
131.045 3587 59.8916
131.162 3571 59.7578
131.279 3667 60.5558
131.396 3758 61.3025
131.513 3827 61.8628
131.631 3739 61.1474
131.748 3769 61.3922
131.865 3716 60.959
131.983 3697 60.803
132.1 3799 61.636
132.217 3620 60.1664
132.335 3711 60.918
132.452 3503 59.1861
132.57 3713 60.9344
132.687 3489 59.0678
132.804 3833 61.9112
132.922 3767 61.3759
133.039 3747 61.2127
133.157 3794 61.5955
133.274 3953 62.8729
133.392 3949 62.8411
133.509 3974 63.0397
133.627 3999 63.2376
133.744 4290 65.4981
133.862 4127 64.2417
133.979 4318 65.7115
134.097 4155 64.4593
134.214 4025 63.4429
134.332 3891 62.3779
134.449 3992 63.1823
134.567 3989 63.1585
134.684 4040 63.561
134.802 4154 64.4515
134.919 4061 63.726
135.037 4176 64.622
135.154 4101 64.0391
135.272 4036 63.5295
135.389 4105 64.0703
135.507 3931 62.6977
135.624 4016 63.3719
135.742 3907 62.506
135.859 3870 62.2093
135.977 3870 62.2093
136.094 3866 62.1772
136.211 3848 62.0322
136.329 3802 61.6604
136.446 3878 62.2736
136.564 3834 61.9193
136.681 3778 61.4654
136.798 3965 62.9682
136.915 3870 62.2093
137.033 4041 63.5689
137.15 3977 63.0635
137.267 4027 63.4586
137.384 4009 63.3167
137.502 3901 62.458
137.619 4080 63.8749
137.736 3859 62.1208
137.853 3827 61.8628
137.97 3761 61.327
138.087 3663 60.5227
138.204 3817 61.7819
138.321 3797 61.6198
138.438 3923 62.6339
138.555 4017 63.3798
138.672 3993 63.1902
138.788 3935 62.7296
138.905 3673 60.6053
139.022 3591 59.925
139.139 3569 59.7411
139.255 3566 59.716
139.372 3371 58.0603
139.488 3139 56.0268
139.605 2989 54.6717
139.721 2844 53.3292
139.838 2853 53.4135
139.954 2813 53.0377
140.071 2665 51.6236
140.187 2646 51.4393
140.303 2691 51.8748
140.419 2754 52.4786
140.535 2844 53.3292
140.652 2781 52.7352
140.768 0 1
140.884 0 1
141 0 1
141.115 0 1
141.231 0 1
141.347 0 1
141.463 0 1
141.578 0 1
141.694 0 1
144.104 0 1
144.219 0 1
144.335 0 1
144.45 0 1
144.566 0 1
144.682 0 1
144.798 0 1
144.914 0 1
145.03 0 1
145.146 8348 91.3674
145.262 8674 93.1343
145.378 8747 93.5254
145.494 8766 93.6269
145.61 8748 93.5307
145.726 8863 94.1435
145.842 8744 93.5094
145.959 8845 94.0479
146.075 8708 93.3167
146.192 8828 93.9574
146.308 8595 92.7092
146.425 8642 92.9624
146.541 7862 88.6679
146.658 7033 83.863
146.774 5903 76.831
146.891 5645 75.1332
147.008 6385 79.9062
147.125 7489 86.539
147.241 8316 91.1921
147.358 8618 92.8332
147.475 8772 93.659
147.592 8766 93.6269
147.709 8779 93.6963
147.826 8650 93.0054
147.943 8691 93.2255
148.06 8948 94.5939
148.177 8640 92.9516
148.294 8913 94.4087
148.411 8867 94.1647
148.528 8934 94.5198
148.645 9052 95.142
148.762 8854 94.0957
148.88 8973 94.7259
148.997 8681 93.1719
149.114 9324 96.5609
149.231 8937 94.5357
149.349 9225 96.0469
149.466 8963 94.6731
149.583 9202 95.9271
149.701 9085 95.3153
149.818 9155 95.6818
149.935 9121 95.5039
150.053 9014 94.9421
150.17 8574 92.5959
150.287 7629 87.3441
150.405 6812 82.5348
150.522 6085 78.0064
150.64 6317 79.4796
150.757 7424 86.1626
150.875 8418 91.7497
150.992 8997 94.8525
151.11 8661 93.0645
151.227 9041 95.0842
151.344 8826 93.9468
151.462 8677 93.1504
151.579 8884 94.255
151.697 8787 93.739
151.814 9009 94.9158
151.932 9066 95.2155
152.049 8995 94.842
152.167 9071 95.2418
152.284 9063 95.1998
152.402 9176 95.7914
152.519 9179 95.8071
152.636 9214 95.9896
152.754 9175 95.7862
152.871 9158 95.6974
152.989 9203 95.9323
153.106 9414 97.0258
153.223 9385 96.8762
153.341 9379 96.8452
153.458 9354 96.7161
153.575 9390 96.902
153.693 9453 97.2265
153.81 9020 94.9737
153.927 8031 89.6158
154.044 6926 83.2226
154.162 6525 80.7775
154.279 6972 83.4985
154.396 8045 89.6939
154.513 8943 94.5674
154.63 9174 95.781
154.747 9386 96.8814
154.864 9011 94.9263
154.981 8992 94.8262
155.098 8961 94.6626
155.215 9081 95.2943
155.332 8777 93.6856
155.449 8572 92.5851
155.566 8562 92.5311
155.683 8109 90.05
155.8 8128 90.1554
155.917 7882 88.7806
156.033 7749 88.0284
156.15 0 1
156.267 0 1
156.383 0 1
156.5 0 1
156.617 0 1
156.733 0 1
156.85 0 1
156.966 0 1
157.082 0 1
157.199 0 1
157.315 0 1
157.431 0 1
157.547 0 1
157.664 0 1
157.78 0 1
157.896 0 1
158.012 0 1
158.128 0 1
158.244 0 1
158.359 0 1
158.475 0 1
158.591 0 1
158.706 0 1
