
6.15755 0 1
6.2731 0 1
6.3887 0 1
6.50437 0 1
6.62009 0 1
6.73587 0 1
6.8517 0 1
6.96759 0 1
7.08353 0 1
7.19952 0 1
7.31557 0 1
7.43166 0 1
7.54781 0 1
7.664 0 1
7.78024 0 1
7.89653 0 1
8.01286 0 1
8.12924 0 1
8.24567 0 1
8.36213 0 1
8.47864 0 1
8.59519 0 1
8.71178 0 1
8.82841 0 1
8.94508 0 1
9.06179 0 1
9.17853 0 1
9.29531 0 1
9.41212 0 1
9.52897 0 1
9.64584 0 1
9.76276 0 1
9.8797 0 1
9.99667 0 1
10.1137 0 1
10.2307 0 1
10.3478 0 1
10.4648 0 1
10.5819 0 1
10.6991 0 1
10.8162 0 1
10.9334 0 1
11.0506 0 1
11.1678 0 1
11.285 0 1
11.4023 0 1
11.5196 0 1
11.6369 0 1
11.7542 0 1
11.8715 0 1
11.9888 0 1
12.1062 0 1
12.2235 0 1
12.3409 0 1
12.4582 0 1
12.5756 0 1
12.693 0 1
12.8104 0 1
12.9278 0 1
13.0452 0 1
13.1626 0 1
13.28 0 1
13.3974 0 1
13.5149 0 1
13.6323 0 1
13.7497 0 1
13.8671 0 1
13.9845 0 1
14.1019 0 1
14.2193 0 1
14.3367 0 1
14.4541 0 1
14.5714 0 1
14.6888 0 1
14.8062 0 1
14.9235 0 1
15.0408 304 17.4356
15.1581 304 17.4356
15.2755 303 17.4069
15.3927 260 16.1245
15.51 283 16.8226
15.6273 255 15.9687
15.7445 264 16.2481
15.8617 273 16.5227
15.9789 309 17.5784
16.0961 313 17.6918
16.2132 273 16.5227
16.3304 302 17.3781
16.4475 294 17.1464
16.5646 316 17.7764
16.6816 305 17.4642
16.7986 326 18.0555
16.9156 287 16.9411
17.0326 293 17.1172
17.1496 314 17.72
17.2665 284 16.8523
17.3833 301 17.3494
17.5002 276 16.6132
17.617 340 18.4391
17.7338 294 17.1464
17.8505 293 17.1172
17.9672 282 16.7929
18.0839 279 16.7033
18.2005 263 16.2173
18.3171 275 16.5831
18.4337 309 17.5784
18.5502 302 17.3781
18.6666 314 17.72
18.7831 338 18.3848
18.8994 327 18.0831
19.0158 325 18.0278
19.1321 278 16.6733
19.2483 276 16.6132
19.3645 263 16.2173
19.4806 249 15.7797
19.5967 260 16.1245
19.7128 251 15.843
19.8288 231 15.1987
19.9447 196 14
20.0606 0 1
20.1764 0 1
20.2922 0 1
20.4079 0 1
20.5236 0 1
20.6392 0 1
20.7548 0 1
20.8702 0 1
23.3078 0 1
23.4233 0 1
23.539 0 1
23.6547 0 1
23.7704 0 1
23.8862 0 1
24.0021 0 1
24.118 0 1
24.234 0 1
24.35 0 1
24.4661 91 9.53939
24.5822 124 11.1355
24.6984 149 12.2066
24.8146 165 12.8452
24.9309 203 14.2478
25.0472 241 15.5242
25.1636 250 15.8114
25.28 309 17.5784
25.3965 301 17.3494
25.513 338 18.3848
25.6296 358 18.9209
25.7462 346 18.6011
25.8628 336 18.3303
25.9795 340 18.4391
26.0962 359 18.9473
26.213 329 18.1384
26.3298 348 18.6548
26.4466 340 18.4391
26.5635 315 17.7482
26.6804 318 17.8326
26.7973 335 18.303
26.9143 295 17.1756
27.0313 285 16.8819
27.1483 281 16.7631
27.2653 319 17.8606
27.3824 337 18.3576
27.4996 307 17.5214
27.6167 300 17.3205
27.7339 277 16.6433
27.8511 320 17.8885
27.9683 315 17.7482
28.0855 294 17.1464
28.2028 270 16.4317
28.3201 296 17.2047
28.4374 312 17.6635
28.5547 300 17.3205
28.6721 319 17.8606
28.7894 346 18.6011
28.9068 332 18.2209
29.0242 337 18.3576
29.1416 349 18.6815
29.259 334 18.2757
29.3764 348 18.6548
29.4939 319 17.8606
29.6113 332 18.2209
29.7288 326 18.0555
29.8463 317 17.8045
29.9638 303 17.4069
30.0812 287 16.9411
30.1987 288 16.9706
30.3162 269 16.4012
30.4337 273 16.5227
30.5512 264 16.2481
30.6687 295 17.1756
30.7862 296 17.2047
30.9037 275 16.5831
31.0212 338 18.3848
31.1387 297 17.2337
31.2562 292 17.088
31.3737 281 16.7631
31.4912 311 17.6352
31.6087 291 17.0587
31.7262 267 16.3401
31.8436 275 16.5831
31.9611 314 17.72
32.0785 303 17.4069
32.1959 301 17.3494
32.3134 324 18
32.4308 287 16.9411
32.5482 301 17.3494
32.6655 308 17.5499
32.7829 317 17.8045
32.9002 307 17.5214
33.0176 303 17.4069
33.1349 325 18.0278
33.2522 338 18.3848
33.3694 305 17.4642
33.4867 310 17.6068
33.6039 282 16.7929
33.7211 297 17.2337
33.8383 289 17
33.9554 284 16.8523
34.0725 279 16.7033
34.1896 270 16.4317
34.3067 261 16.1555
34.4237 269 16.4012
34.5407 297 17.2337
34.6577 293 17.1172
34.7746 253 15.906
34.8915 277 16.6433
35.0084 301 17.3494
35.1252 261 16.1555
35.242 271 16.4621
35.3587 277 16.6433
35.4755 264 16.2481
35.5921 277 16.6433
35.7088 316 17.7764
35.8254 322 17.9444
35.9419 307 17.5214
36.0584 303 17.4069
36.1749 305 17.4642
36.2913 304 17.4356
36.4077 294 17.1464
36.524 280 16.7332
36.6403 257 16.0312
36.7565 269 16.4012
36.8727 245 15.6525
36.9889 215 14.6629
37.1049 206 14.3527
37.221 0 1
37.3369 0 1
37.4529 0 1
37.5687 0 1
37.6845 0 1
37.8003 0 1
37.916 0 1
38.0316 0 1
38.1472 0 1
40.5851 0 1
40.7008 0 1
40.8164 0 1
40.9322 0 1
41.048 0 1
41.1639 0 1
41.2798 0 1
41.3958 0 1
41.5118 0 1
41.6279 0 1
41.744 113 10.6301
41.8602 138 11.7473
41.9765 161 12.6886
42.0928 186 13.6382
42.2091 202 14.2127
42.3255 229 15.1327
42.4419 253 15.906
42.5584 257 16.0312
42.675 256 16
42.7915 247 15.7162
42.9081 251 15.843
43.0248 214 14.6287
43.1415 228 15.0997
43.2582 229 15.1327
43.375 266 16.3095
43.4918 257 16.0312
43.6087 246 15.6844
43.7256 247 15.7162
43.8425 213 14.5945
43.9595 221 14.8661
44.0765 215 14.6629
44.1935 229 15.1327
44.3106 247 15.7162
44.4277 242 15.5563
44.5448 248 15.748
44.6619 280 16.7332
44.7791 269 16.4012
44.8963 276 16.6132
45.0136 266 16.3095
45.1308 254 15.9374
45.2481 259 16.0935
45.3654 266 16.3095
45.4827 295 17.1756
45.6001 267 16.3401
45.7174 275 16.5831
45.8348 283 16.8226
45.9522 270 16.4317
46.0697 255 15.9687
46.1871 261 16.1555
46.3046 249 15.7797
46.422 271 16.4621
46.5395 249 15.7797
46.657 242 15.5563
46.7745 252 15.8745
46.892 245 15.6525
47.0096 272 16.4924
47.1271 279 16.7033
47.2446 249 15.7797
47.3622 277 16.6433
47.4797 241 15.5242
47.5973 273 16.5227
47.7149 228 15.0997
47.8324 260 16.1245
47.95 266 16.3095
48.0675 257 16.0312
48.1851 231 15.1987
48.3027 264 16.2481
48.4202 254 15.9374
48.5378 292 17.088
48.6554 248 15.748
48.7729 275 16.5831
48.8904 276 16.6132
49.008 290 17.0294
49.1255 269 16.4012
49.243 310 17.6068
49.3605 283 16.8226
49.478 282 16.7929
49.5955 270 16.4317
49.713 272 16.4924
49.8304 244 15.6205
49.9479 241 15.5242
50.0653 230 15.1658
50.1827 246 15.6844
50.3001 249 15.7797
50.4175 262 16.1864
50.5348 249 15.7797
50.6521 250 15.8114
50.7694 231 15.1987
50.8867 226 15.0333
51.004 255 15.9687
51.1212 253 15.906
51.2384 260 16.1245
51.3556 275 16.5831
51.4727 238 15.4272
51.5899 270 16.4317
51.707 273 16.5227
51.824 260 16.1245
51.9411 257 16.0312
52.0581 270 16.4317
52.175 284 16.8523
52.2919 275 16.5831
52.4088 284 16.8523
52.5257 271 16.4621
52.6425 259 16.0935
52.7593 276 16.6132
52.876 271 16.4621
52.9927 272 16.4924
53.1094 281 16.7631
53.226 266 16.3095
53.3426 264 16.2481
53.4591 289 17
53.5756 244 15.6205
53.692 239 15.4596
53.8084 218 14.7648
53.9248 203 14.2478
54.0411 175 13.2288
54.1573 155 12.4499
54.2735 0 1
54.3896 0 1
54.5057 0 1
54.6217 0 1
54.7377 0 1
54.8537 0 1
54.9695 0 1
55.0853 0 1
55.2011 0 1
55.3168 0 1
55.4324 0 1
57.824 0 1
57.9396 0 1
58.0553 0 1
58.1711 0 1
58.2869 0 1
58.4028 0 1
58.5187 0 1
58.6347 0 1
58.7508 0 1
58.8669 0 1
58.983 168 12.9615
59.0992 178 13.3417
59.2155 202 14.2127
59.3318 249 15.7797
59.4482 269 16.4012
59.5646 303 17.4069
59.681 289 17
59.7975 303 17.4069
59.9141 323 17.9722
60.0306 339 18.412
60.1473 348 18.6548
60.2639 341 18.4662
60.3807 349 18.6815
60.4974 317 17.8045
60.6142 327 18.0831
60.731 363 19.0526
60.8479 345 18.5742
60.9648 349 18.6815
61.0818 348 18.6548
61.1987 324 18
61.3158 344 18.5472
61.4328 305 17.4642
61.5499 341 18.4662
61.667 349 18.6815
61.7841 327 18.0831
61.9013 320 17.8885
62.0185 339 18.412
62.1357 368 19.1833
62.253 341 18.4662
62.3702 349 18.6815
62.4875 279 16.7033
62.6049 285 16.8819
62.7222 345 18.5742
62.8396 340 18.4391
62.9569 330 18.1659
63.0743 310 17.6068
63.1918 310 17.6068
63.3092 330 18.1659
63.4267 331 18.1934
63.5441 316 17.7764
63.6616 318 17.8326
63.7791 326 18.0555
63.8966 342 18.4932
64.0142 315 17.7482
64.1317 326 18.0555
64.2492 329 18.1384
64.3668 330 18.1659
64.4843 329 18.1384
64.6019 306 17.4929
64.7195 331 18.1934
64.837 340 18.4391
64.9546 319 17.8606
65.0722 306 17.4929
65.1898 291 17.0587
65.3074 351 18.735
65.4249 301 17.3494
65.5425 319 17.8606
65.6601 337 18.3576
65.7777 287 16.9411
65.8952 336 18.3303
66.0128 307 17.5214
66.1304 315 17.7482
66.2479 281 16.7631
66.3655 307 17.5214
66.483 317 17.8045
66.6005 353 18.7883
66.718 354 18.8149
66.8355 302 17.3781
66.953 307 17.5214
67.0705 318 17.8326
67.1879 319 17.8606
67.3054 314 17.72
67.4228 319 17.8606
67.5402 337 18.3576
67.6576 297 17.2337
67.7749 325 18.0278
67.8923 309 17.5784
68.0096 303 17.4069
68.1269 352 18.7617
68.2442 309 17.5784
68.3614 343 18.5203
68.4787 302 17.3781
68.5958 327 18.0831
68.713 302 17.3781
68.8302 310 17.6068
68.9473 295 17.1756
69.0643 306 17.4929
69.1814 335 18.303
69.2984 328 18.1108
69.4154 313 17.6918
69.5323 303 17.4069
69.6492 323 17.9722
69.7661 310 17.6068
69.8829 308 17.5499
69.9997 296 17.2047
70.1165 314 17.72
70.2332 293 17.1172
70.3499 292 17.088
70.4665 288 16.9706
70.5831 257 16.0312
70.6996 265 16.2788
70.8161 228 15.0997
70.9326 186 13.6382
71.049 176 13.2665
71.1653 177 13.3041
71.2817 136 11.6619
71.3979 154 12.4097
71.5141 130 11.4018
71.6303 124 11.1355
71.7464 97 9.84886
71.8624 0 1
71.9784 0 1
72.0944 0 1
72.2102 0 1
72.3261 0 1
72.4418 0 1
72.5575 0 1
72.6732 0 1
75.1054 0 1
75.2209 0 1
75.3365 0 1
75.4521 0 1
75.5678 0 1
75.6835 0 1
75.7993 0 1
75.9151 0 1
76.031 0 1
76.147 189 13.7477
76.263 205 14.3178
76.3791 237 15.3948
76.4952 272 16.4924
76.6113 290 17.0294
76.7276 270 16.4317
76.8438 275 16.5831
76.9601 259 16.0935
77.0765 296 17.2047
77.1929 278 16.6733
77.3093 289 17
77.4258 254 15.9374
77.5423 260 16.1245
77.6589 287 16.9411
77.7755 294 17.1464
77.8921 284 16.8523
78.0088 314 17.72
78.1256 245 15.6525
78.2423 289 17
78.3591 287 16.9411
78.4759 319 17.8606
78.5928 300 17.3205
78.7097 358 18.9209
78.8266 285 16.8819
78.9436 291 17.0587
79.0606 264 16.2481
79.1776 258 16.0624
79.2946 315 17.7482
79.4117 283 16.8226
79.5288 286 16.9115
79.6459 293 17.1172
79.7631 314 17.72
79.8802 294 17.1464
79.9974 307 17.5214
80.1147 320 17.8885
80.2319 281 16.7631
80.3491 308 17.5499
80.4664 326 18.0555
80.5837 288 16.9706
80.701 361 19
80.8183 312 17.6635
80.9357 355 18.8414
81.053 333 18.2483
81.1704 327 18.0831
81.2877 310 17.6068
81.4051 341 18.4662
81.5225 315 17.7482
81.6399 320 17.8885
81.7573 322 17.9444
81.8747 272 16.4924
81.9922 266 16.3095
82.1096 307 17.5214
82.227 313 17.6918
82.3444 312 17.6635
82.4619 278 16.6733
82.5793 276 16.6132
82.6967 274 16.5529
82.8142 227 15.0665
82.9316 289 17
83.049 279 16.7033
83.1664 259 16.0935
83.2838 248 15.748
83.4012 255 15.9687
83.5186 253 15.906
83.636 248 15.748
83.7534 265 16.2788
83.8708 265 16.2788
83.9881 262 16.1864
84.1055 249 15.7797
84.2228 259 16.0935
84.3401 247 15.7162
84.4575 248 15.748
84.5747 272 16.4924
84.692 227 15.0665
84.8093 252 15.8745
84.9265 234 15.2971
85.0437 221 14.8661
85.1609 228 15.0997
85.2781 247 15.7162
85.3952 242 15.5563
85.5123 224 14.9666
85.6294 253 15.906
85.7465 238 15.4272
85.8636 235 15.3297
85.9806 243 15.5885
86.0976 224 14.9666
86.2145 198 14.0712
86.3315 196 14
86.4484 201 14.1774
86.5652 191 13.8203
86.682 189 13.7477
86.7988 200 14.1421
86.9156 211 14.5258
87.0323 187 13.6748
87.149 223 14.9332
87.2657 212 14.5602
87.3823 205 14.3178
87.4988 201 14.1774
87.6154 197 14.0357
87.7318 164 12.8062
87.8483 176 13.2665
87.9647 166 12.8841
88.081 123 11.0905
88.1973 142 11.9164
88.3136 101 10.0499
88.4298 101 10.0499
88.546 84 9.16515
88.6621 61 7.81025
88.7781 55 7.4162
88.8942 0 1
89.0101 0 1
89.126 0 1
89.2419 0 1
89.3577 0 1
89.4734 0 1
89.5891 0 1
89.7047 0 1
89.8203 0 1
89.9358 0 1
92.3269 0 1
92.4424 0 1
92.558 0 1
92.6736 0 1
92.7893 0 1
92.905 0 1
93.0208 0 1
93.1366 0 1
93.2525 0 1
93.3685 0 1
93.4845 0 1
93.6005 124 11.1355
93.7167 141 11.8743
93.8328 185 13.6015
93.949 198 14.0712
94.0653 182 13.4907
94.1816 205 14.3178
94.2979 184 13.5647
94.4143 209 14.4568
94.5307 206 14.3527
94.6472 200 14.1421
94.7637 223 14.9332
94.8803 224 14.9666
94.9969 225 15
95.1135 234 15.2971
95.2302 205 14.3178
95.3469 240 15.4919
95.4637 207 14.3875
95.5805 229 15.1327
95.6973 192 13.8564
95.8142 221 14.8661
95.9311 199 14.1067
96.048 210 14.4914
96.1649 224 14.9666
96.2819 244 15.6205
96.3989 261 16.1555
96.516 241 15.5242
96.633 257 16.0312
96.7501 227 15.0665
96.8673 242 15.5563
96.9844 240 15.4919
97.1016 259 16.0935
97.2188 222 14.8997
97.336 245 15.6525
97.4532 236 15.3623
97.5704 226 15.0333
97.6877 261 16.1555
97.805 277 16.6433
97.9223 271 16.4621
98.0396 281 16.7631
98.1569 274 16.5529
98.2743 274 16.5529
98.3916 222 14.8997
98.509 266 16.3095
98.6264 269 16.4012
98.7438 282 16.7929
98.8612 285 16.8819
98.9786 281 16.7631
99.096 238 15.4272
99.2134 225 15
99.3308 233 15.2643
99.4482 283 16.8226
99.5656 260 16.1245
99.6831 300 17.3205
99.8005 310 17.6068
99.9179 298 17.2627
100.035 288 16.9706
100.153 281 16.7631
100.27 302 17.3781
100.388 291 17.0587
100.505 287 16.9411
100.622 270 16.4317
100.74 259 16.0935
100.857 279 16.7033
100.975 285 16.8819
101.092 273 16.5227
101.209 263 16.2173
101.327 303 17.4069
101.444 323 17.9722
101.561 307 17.5214
101.679 317 17.8045
101.796 311 17.6352
101.913 298 17.2627
102.03 280 16.7332
102.148 299 17.2916
102.265 292 17.088
102.382 289 17
102.499 316 17.7764
102.616 292 17.088
102.733 260 16.1245
102.851 273 16.5227
102.968 309 17.5784
103.085 325 18.0278
103.202 311 17.6352
103.319 291 17.0587
103.436 330 18.1659
103.552 301 17.3494
103.669 324 18
103.786 325 18.0278
103.903 337 18.3576
104.02 310 17.6068
104.137 307 17.5214
104.253 293 17.1172
104.37 281 16.7631
104.487 338 18.3848
104.603 316 17.7764
104.72 363 19.0526
104.836 318 17.8326
104.953 336 18.3303
105.069 311 17.6352
105.186 319 17.8606
105.302 293 17.1172
105.418 297 17.2337
105.535 247 15.7162
105.651 194 13.9284
105.767 187 13.6748
105.883 180 13.4164
105.999 127 11.2694
106.115 0 1
106.231 0 1
106.347 0 1
106.463 0 1
106.579 0 1
106.694 0 1
106.81 0 1
106.926 0 1
107.041 0 1
107.157 0 1
109.576 0 1
109.692 0 1
109.807 0 1
109.923 0 1
110.039 0 1
110.155 0 1
110.27 0 1
110.386 0 1
110.502 0 1
110.618 156 12.49
110.735 205 14.3178
110.851 195 13.9642
110.967 258 16.0624
111.083 235 15.3297
111.199 254 15.9374
111.316 284 16.8523
111.432 264 16.2481
111.549 259 16.0935
111.665 259 16.0935
111.782 283 16.8226
111.898 260 16.1245
112.015 250 15.8114
112.132 292 17.088
112.248 318 17.8326
112.365 278 16.6733
112.482 288 16.9706
112.599 297 17.2337
112.716 303 17.4069
112.832 300 17.3205
112.949 268 16.3707
113.066 296 17.2047
113.183 300 17.3205
113.3 251 15.843
113.417 285 16.8819
113.534 260 16.1245
113.652 266 16.3095
113.769 273 16.5227
113.886 299 17.2916
114.003 281 16.7631
114.12 301 17.3494
114.238 303 17.4069
114.355 273 16.5227
114.472 286 16.9115
114.589 278 16.6733
114.707 270 16.4317
114.824 271 16.4621
114.942 257 16.0312
115.059 289 17
115.176 254 15.9374
115.294 268 16.3707
115.411 291 17.0587
115.529 282 16.7929
115.646 291 17.0587
115.764 295 17.1756
115.881 292 17.088
115.999 260 16.1245
116.116 294 17.1464
116.234 316 17.7764
116.351 262 16.1864
116.469 285 16.8819
116.586 289 17
116.704 280 16.7332
116.821 313 17.6918
116.939 279 16.7033
117.056 255 15.9687
117.174 267 16.3401
117.291 268 16.3707
117.409 267 16.3401
117.526 272 16.4924
117.644 308 17.5499
117.761 314 17.72
117.879 280 16.7332
117.996 248 15.748
118.114 286 16.9115
118.231 265 16.2788
118.349 273 16.5227
118.466 278 16.6733
118.584 304 17.4356
118.701 316 17.7764
118.819 290 17.0294
118.936 284 16.8523
119.053 252 15.8745
119.171 246 15.6844
119.288 261 16.1555
119.405 267 16.3401
119.523 260 16.1245
119.64 271 16.4621
119.757 275 16.5831
119.875 274 16.5529
119.992 276 16.6132
120.109 282 16.7929
120.226 251 15.843
120.343 270 16.4317
120.46 266 16.3095
120.578 242 15.5563
120.695 283 16.8226
120.812 277 16.6433
120.929 246 15.6844
121.046 266 16.3095
121.163 267 16.3401
121.279 277 16.6433
121.396 257 16.0312
121.513 260 16.1245
121.63 272 16.4924
121.747 241 15.5242
121.863 222 14.8997
121.98 219 14.7986
122.097 207 14.3875
122.213 195 13.9642
122.33 216 14.6969
122.446 187 13.6748
122.563 176 13.2665
122.679 166 12.8841
122.795 144 12
122.912 143 11.9583
123.028 104 10.198
123.144 138 11.7473
123.26 110 10.4881
123.377 0 1
123.493 0 1
123.609 0 1
123.725 0 1
123.84 0 1
123.956 0 1
124.072 0 1
124.188 0 1
124.303 0 1
124.419 0 1
126.852 0 1
126.968 0 1
127.083 0 1
127.199 0 1
127.315 0 1
127.431 0 1
127.547 0 1
127.663 0 1
127.779 0 1
127.895 0 1
128.011 0 1
128.127 0 1
128.243 0 1
128.359 295 17.1756
128.476 287 16.9411
128.592 286 16.9115
128.708 277 16.6433
128.825 289 17
128.941 279 16.7033
129.058 304 17.4356
129.174 323 17.9722
129.291 289 17
129.408 307 17.5214
129.524 286 16.9115
129.641 313 17.6918
129.758 276 16.6132
129.875 311 17.6352
129.992 275 16.5831
130.108 308 17.5499
130.225 298 17.2627
130.342 289 17
130.459 250 15.8114
130.576 284 16.8523
130.693 300 17.3205
130.81 293 17.1172
130.928 296 17.2047
131.045 293 17.1172
131.162 266 16.3095
131.279 268 16.3707
131.396 283 16.8226
131.513 278 16.6733
131.631 281 16.7631
131.748 279 16.7033
131.865 300 17.3205
131.983 268 16.3707
132.1 298 17.2627
132.217 278 16.6733
132.335 300 17.3205
132.452 314 17.72
132.57 320 17.8885
132.687 321 17.9165
132.804 295 17.1756
132.922 294 17.1464
133.039 269 16.4012
133.157 292 17.088
133.274 312 17.6635
133.392 329 18.1384
133.509 279 16.7033
133.627 303 17.4069
133.744 321 17.9165
133.862 293 17.1172
133.979 267 16.3401
134.097 289 17
134.214 269 16.4012
134.332 259 16.0935
134.449 249 15.7797
134.567 263 16.2173
134.684 300 17.3205
134.802 276 16.6132
134.919 302 17.3781
135.037 289 17
135.154 283 16.8226
135.272 281 16.7631
135.389 276 16.6132
135.507 278 16.6733
135.624 277 16.6433
135.742 288 16.9706
135.859 278 16.6733
135.977 286 16.9115
136.094 280 16.7332
136.211 322 17.9444
136.329 309 17.5784
136.446 293 17.1172
136.564 336 18.3303
136.681 303 17.4069
136.798 279 16.7033
136.915 287 16.9411
137.033 360 18.9737
137.15 310 17.6068
137.267 296 17.2047
137.384 310 17.6068
137.502 291 17.0587
137.619 304 17.4356
137.736 257 16.0312
137.853 282 16.7929
137.97 290 17.0294
138.087 289 17
138.204 279 16.7033
138.321 273 16.5227
138.438 274 16.5529
138.555 258 16.0624
138.672 297 17.2337
138.788 272 16.4924
138.905 260 16.1245
139.022 279 16.7033
139.139 245 15.6525
139.255 239 15.4596
139.372 263 16.2173
139.488 244 15.6205
139.605 217 14.7309
139.721 211 14.5258
139.838 197 14.0357
139.954 176 13.2665
140.071 145 12.0416
140.187 157 12.53
140.303 144 12
140.419 153 12.3693
140.535 150 12.2474
140.652 123 11.0905
140.768 0 1
140.884 0 1
141 0 1
141.115 0 1
141.231 0 1
141.347 0 1
141.463 0 1
141.578 0 1
141.694 0 1
144.104 0 1
144.219 0 1
144.335 0 1
144.45 0 1
144.566 0 1
144.682 0 1
144.798 0 1
144.914 0 1
145.03 0 1
145.146 237 15.3948
145.262 203 14.2478
145.378 244 15.6205
145.494 251 15.843
145.61 239 15.4596
145.726 241 15.5242
145.842 216 14.6969
145.959 223 14.9332
146.075 213 14.5945
146.192 245 15.6525
146.308 229 15.1327
146.425 252 15.8745
146.541 213 14.5945
146.658 198 14.0712
146.774 204 14.2829
146.891 226 15.0333
147.008 201 14.1774
147.125 199 14.1067
147.241 230 15.1658
147.358 232 15.2315
147.475 240 15.4919
147.592 212 14.5602
147.709 207 14.3875
147.826 227 15.0665
147.943 196 14
148.06 219 14.7986
148.177 215 14.6629
148.294 219 14.7986
148.411 224 14.9666
148.528 221 14.8661
148.645 224 14.9666
148.762 233 15.2643
148.88 221 14.8661
148.997 234 15.2971
149.114 234 15.2971
149.231 228 15.0997
149.349 241 15.5242
149.466 228 15.0997
149.583 214 14.6287
149.701 245 15.6525
149.818 182 13.4907
149.935 198 14.0712
150.053 197 14.0357
150.17 220 14.8324
150.287 221 14.8661
150.405 176 13.2665
150.522 235 15.3297
150.64 187 13.6748
150.757 223 14.9332
150.875 207 14.3875
150.992 200 14.1421
151.11 205 14.3178
151.227 216 14.6969
151.344 205 14.3178
151.462 219 14.7986
151.579 192 13.8564
151.697 200 14.1421
151.814 203 14.2478
151.932 233 15.2643
152.049 199 14.1067
152.167 225 15
152.284 201 14.1774
152.402 232 15.2315
152.519 219 14.7986
152.636 221 14.8661
152.754 213 14.5945
152.871 220 14.8324
152.989 215 14.6629
153.106 213 14.5945
153.223 215 14.6629
153.341 240 15.4919
153.458 210 14.4914
153.575 205 14.3178
153.693 196 14
153.81 212 14.5602
153.927 224 14.9666
154.044 232 15.2315
154.162 224 14.9666
154.279 213 14.5945
154.396 217 14.7309
154.513 219 14.7986
154.63 199 14.1067
154.747 212 14.5602
154.864 219 14.7986
154.981 199 14.1067
155.098 216 14.6969
155.215 193 13.8924
155.332 203 14.2478
155.449 205 14.3178
155.566 208 14.4222
155.683 190 13.784
155.8 224 14.9666
155.917 205 14.3178
156.033 217 14.7309
156.15 0 1
156.267 0 1
156.383 0 1
156.5 0 1
156.617 0 1
156.733 0 1
156.85 0 1
156.966 0 1
157.082 0 1
157.199 0 1
157.315 0 1
157.431 0 1
157.547 0 1
157.664 0 1
157.78 0 1
157.896 0 1
158.012 0 1
158.128 0 1
158.244 0 1
158.359 0 1
158.475 0 1
158.591 0 1
158.706 0 1
