
6.15755 0 1
6.2731 0 1
6.3887 0 1
6.50437 0 1
6.62009 0 1
6.73587 0 1
6.8517 0 1
6.96759 0 1
7.08353 0 1
7.19952 0 1
7.31557 0 1
7.43166 0 1
7.54781 0 1
7.664 0 1
7.78024 0 1
7.89653 0 1
8.01286 0 1
8.12924 0 1
8.24567 0 1
8.36213 0 1
8.47864 0 1
8.59519 0 1
8.71178 0 1
8.82841 0 1
8.94508 0 1
9.06179 0 1
9.17853 0 1
9.29531 0 1
9.41212 0 1
9.52897 0 1
9.64584 0 1
9.76276 0 1
9.8797 0 1
9.99667 0 1
10.1137 0 1
10.2307 0 1
10.3478 0 1
10.4648 0 1
10.5819 0 1
10.6991 0 1
10.8162 0 1
10.9334 0 1
11.0506 0 1
11.1678 0 1
11.285 0 1
11.4023 0 1
11.5196 0 1
11.6369 0 1
11.7542 0 1
11.8715 0 1
11.9888 0 1
12.1062 0 1
12.2235 0 1
12.3409 0 1
12.4582 0 1
12.5756 0 1
12.693 0 1
12.8104 0 1
12.9278 0 1
13.0452 0 1
13.1626 0 1
13.28 0 1
13.3974 0 1
13.5149 0 1
13.6323 0 1
13.7497 0 1
13.8671 0 1
13.9845 0 1
14.1019 0 1
14.2193 0 1
14.3367 0 1
14.4541 0 1
14.5714 0 1
14.6888 0 1
14.8062 0 1
14.9235 0 1
15.0408 0 0
15.1581 0 0
15.2755 0 0
15.3927 0 0
15.51 0 0
15.6273 0 0
15.7445 0 0
15.8617 0 0
15.9789 0 0
16.0961 0 0
16.2132 0 0
16.3304 0 0
16.4475 0 0
16.5646 0 0
16.6816 0 0
16.7986 0 0
16.9156 0 0
17.0326 0 0
17.1496 0 0
17.2665 0 0
17.3833 0 0
17.5002 0 0
17.617 0 0
17.7338 0 0
17.8505 0 0
17.9672 0 0
18.0839 0 0
18.2005 0 0
18.3171 0 0
18.4337 0 0
18.5502 0 0
18.6666 0 0
18.7831 0 0
18.8994 0 0
19.0158 0 0
19.1321 0 0
19.2483 0 0
19.3645 0 0
19.4806 0 0
19.5967 0 0
19.7128 0 0
19.8288 0 0
19.9447 0 0
20.0606 0 1
20.1764 0 1
20.2922 0 1
20.4079 0 1
20.5236 0 1
20.6392 0 1
20.7548 0 1
20.8702 0 1
23.3078 0 1
23.4233 0 1
23.539 0 1
23.6547 0 1
23.7704 0 1
23.8862 0 1
24.0021 0 1
24.118 0 1
24.234 0 1
24.35 0 1
24.4661 5511 74.2361
24.5822 6717 81.9573
24.6984 7731 87.9261
24.8146 8545 92.4392
24.9309 9232 96.0833
25.0472 10337 101.671
25.1636 11241 106.024
25.28 12157 110.259
25.3965 12727 112.814
25.513 13419 115.84
25.6296 13866 117.754
25.7462 14561 120.669
25.8628 14757 121.478
25.9795 14947 122.258
26.0962 14461 120.254
26.213 13759 117.299
26.3298 13053 114.25
26.4466 12547 112.013
26.5635 12029 109.677
26.6804 11763 108.457
26.7973 12583 112.174
26.9143 12765 112.982
27.0313 12893 113.547
27.1483 13091 114.416
27.2653 13678 116.953
27.3824 13786 117.414
27.4996 14074 118.634
27.6167 13565 116.469
27.7339 13331 115.46
27.8511 12847 113.345
27.9683 12944 113.772
28.0855 12210 110.499
28.2028 11854 108.876
28.3201 11827 108.752
28.4374 11838 108.803
28.5547 12007 109.576
28.6721 12674 112.579
28.7894 13282 115.248
28.9068 13614 116.679
29.0242 14056 118.558
29.1416 14178 119.071
29.259 13844 117.661
29.3764 13944 118.085
29.4939 13913 117.953
29.6113 13651 116.837
29.7288 13082 114.377
29.8463 12053 109.786
29.9638 11682 108.083
30.0812 11495 107.215
30.1987 11571 107.569
30.3162 11923 109.192
30.4337 12253 110.693
30.5512 12454 111.597
30.6687 12689 112.645
30.7862 13105 114.477
30.9037 13424 115.862
31.0212 13544 116.379
31.1387 13434 115.905
31.2562 13110 114.499
31.3737 12729 112.823
31.4912 12558 112.062
31.6087 11959 109.357
31.7262 11860 108.904
31.8436 11304 106.32
31.9611 11379 106.672
32.0785 11569 107.559
32.1959 12221 110.549
32.3134 12763 112.973
32.4308 13348 115.534
32.5482 13616 116.688
32.6655 13351 115.547
32.7829 13505 116.211
32.9002 13421 115.849
33.0176 13603 116.632
33.1349 13374 115.646
33.2522 13082 114.377
33.3694 12571 112.12
33.4867 12008 109.581
33.6039 11492 107.201
33.7211 11287 106.24
33.8383 11260 106.113
33.9554 11603 107.717
34.0725 11895 109.064
34.1896 12358 111.167
34.3067 12331 111.045
34.4237 12893 113.547
34.5407 13241 115.07
34.6577 13240 115.065
34.7746 12975 113.908
34.8915 12909 113.618
35.0084 12685 112.628
35.1252 12394 111.328
35.242 11778 108.526
35.3587 11523 107.345
35.4755 11273 106.174
35.5921 10699 103.436
35.7088 10731 103.591
35.8254 11064 105.186
35.9419 11708 108.204
36.0584 12066 109.845
36.1749 12516 111.875
36.2913 12526 111.92
36.4077 12299 110.901
36.524 11847 108.844
36.6403 11436 106.939
36.7565 11257 106.099
36.8727 10833 104.082
36.9889 9856 99.2774
37.1049 8746 93.5201
37.221 0 1
37.3369 0 1
37.4529 0 1
37.5687 0 1
37.6845 0 1
37.8003 0 1
37.916 0 1
38.0316 0 1
38.1472 0 1
40.5851 0 1
40.7008 0 1
40.8164 0 1
40.9322 0 1
41.048 0 1
41.1639 0 1
41.2798 0 1
41.3958 0 1
41.5118 0 1
41.6279 0 1
41.744 6425 80.1561
41.8602 7089 84.1962
41.9765 7694 87.7154
42.0928 7857 88.6397
42.2091 7944 89.1291
42.3255 7907 88.9213
42.4419 7949 89.1572
42.5584 8253 90.846
42.675 8725 93.4077
42.7915 9815 99.0707
42.9081 9852 99.2572
43.0248 10280 101.39
43.1415 10458 102.264
43.2582 10632 103.112
43.375 10852 104.173
43.4918 11084 105.281
43.6087 11143 105.56
43.7256 11088 105.3
43.8425 10838 104.106
43.9595 10666 103.276
44.0765 10123 100.613
44.1935 10004 100.02
44.3106 9490 97.4166
44.4277 9084 95.31
44.5448 8953 94.6203
44.6619 9015 94.9474
44.7791 9632 98.1428
44.8963 10104 100.519
45.0136 10864 104.231
45.1308 10901 104.408
45.2481 11109 105.399
45.3654 11178 105.726
45.4827 11357 106.569
45.6001 11071 105.219
45.7174 10789 103.87
45.8348 10332 101.646
45.9522 10069 100.344
46.0697 9721 98.5951
46.1871 9572 97.8366
46.3046 9828 99.1363
46.422 10023 100.115
46.5395 10378 101.872
46.657 10788 103.865
46.7745 11053 105.133
46.892 11099 105.352
47.0096 11308 106.339
47.1271 11649 107.931
47.2446 11716 108.24
47.3622 11471 107.103
47.4797 11070 105.214
47.5973 10711 103.494
47.7149 10409 102.025
47.8324 10041 100.205
47.95 9379 96.8452
48.0675 9024 94.9947
48.1851 8963 94.6731
48.3027 9367 96.7833
48.4202 10003 100.015
48.5378 10903 104.417
48.6554 11427 106.897
48.7729 11395 106.747
48.8904 11375 106.654
49.008 11400 106.771
49.1255 11123 105.466
49.243 10945 104.618
49.3605 10255 101.267
49.478 10074 100.369
49.5955 9665 98.3107
49.713 9476 97.3447
49.8304 9579 97.8724
49.9479 10055 100.275
50.0653 10500 102.47
50.1827 10713 103.504
50.3001 10750 103.682
50.4175 11020 104.976
50.5348 11274 106.179
50.6521 11140 105.546
50.7694 11459 107.047
50.8867 11452 107.014
51.004 11123 105.466
51.1212 10826 104.048
51.2384 10380 101.882
51.3556 9874 99.368
51.4727 9437 97.1442
51.5899 8811 93.8669
51.707 8858 94.1169
51.824 9259 96.2237
51.9411 10103 100.514
52.0581 10966 104.719
52.175 11476 107.126
52.2919 11466 107.079
52.4088 11608 107.74
52.5257 11455 107.028
52.6425 11751 108.402
52.7593 11507 107.271
52.876 11264 106.132
52.9927 10725 103.562
53.1094 10290 101.44
53.226 10012 100.06
53.3426 9869 99.3428
53.4591 9634 98.1529
53.5756 9622 98.0918
53.692 9911 99.554
53.8084 9971 99.8549
53.9248 9543 97.6883
54.0411 9268 96.2705
54.1573 8666 93.0914
54.2735 0 1
54.3896 0 1
54.5057 0 1
54.6217 0 1
54.7377 0 1
54.8537 0 1
54.9695 0 1
55.0853 0 1
55.2011 0 1
55.3168 0 1
55.4324 0 1
57.824 0 1
57.9396 0 1
58.0553 0 1
58.1711 0 1
58.2869 0 1
58.4028 0 1
58.5187 0 1
58.6347 0 1
58.7508 0 1
58.8669 0 1
58.983 7012 83.7377
59.0992 8112 90.0666
59.2155 8874 94.2019
59.3318 9898 99.4887
59.4482 10684 103.363
59.5646 11507 107.271
59.681 12053 109.786
59.7975 12422 111.454
59.9141 12310 110.95
60.0306 12019 109.631
60.1473 11473 107.112
60.2639 10932 104.556
60.3807 10534 102.635
60.4974 10713 103.504
60.6142 11434 106.93
60.731 12203 110.467
60.8479 13249 115.104
60.9648 13680 116.962
61.0818 13892 117.864
61.1987 13977 118.224
61.3158 13914 117.958
61.4328 13644 116.808
61.5499 13251 115.113
61.667 12708 112.73
61.7841 12288 110.851
61.9013 11846 108.839
62.0185 11774 108.508
62.1357 12283 110.829
62.253 12837 113.3
62.3702 13373 115.642
62.4875 13518 116.267
62.6049 13583 116.546
62.7222 14067 118.604
62.8396 14122 118.836
62.9569 14077 118.647
63.0743 14040 118.491
63.1918 13909 117.936
63.3092 13822 117.567
63.4267 13465 116.039
63.5441 12494 111.777
63.6616 11530 107.378
63.7791 10642 103.16
63.8966 10031 100.155
64.0142 10029 100.145
64.1317 10837 104.101
64.2492 11817 108.706
64.3668 12956 113.824
64.4843 13308 115.36
64.6019 13463 116.03
64.7195 13506 116.215
64.837 13458 116.009
64.9546 13220 114.978
65.0722 13120 114.543
65.1898 12697 112.681
65.3074 12065 109.841
65.4249 11818 108.711
65.5425 11499 107.233
65.6601 11740 108.351
65.7777 12165 110.295
65.8952 12732 112.836
66.0128 13223 114.991
66.1304 13373 115.642
66.2479 13744 117.235
66.3655 13565 116.469
66.483 13576 116.516
66.6005 13751 117.265
66.718 13536 116.344
66.8355 13358 115.577
66.953 13152 114.682
67.0705 12802 113.146
67.1879 11952 109.325
67.3054 11083 105.276
67.4228 9984 99.92
67.5402 9227 96.0573
67.6576 9342 96.654
67.7749 9879 99.3932
67.8923 11007 104.914
68.0096 12106 110.027
68.1269 12807 113.168
68.2442 13171 114.765
68.3614 13055 114.258
68.4787 13024 114.123
68.5958 12734 112.845
68.713 12622 112.348
68.8302 12067 109.85
68.9473 11726 108.287
69.0643 11389 106.719
69.1814 11223 105.939
69.2984 11294 106.273
69.4154 11352 106.546
69.5323 11975 109.43
69.6492 12165 110.295
69.7661 12813 113.195
69.8829 13015 114.083
69.9997 12985 113.952
70.1165 12744 112.889
70.2332 12458 111.615
70.3499 12183 110.377
70.4665 11682 108.083
70.5831 11216 105.906
70.6996 10531 102.621
70.8161 10065 100.324
70.9326 9052 95.142
71.049 7359 85.7846
71.1653 5719 75.6241
71.2817 4764 69.0217
71.3979 4511 67.164
71.5141 4606 67.8675
71.6303 4450 66.7083
71.7464 4153 64.4438
71.8624 0 1
71.9784 0 1
72.0944 0 1
72.2102 0 1
72.3261 0 1
72.4418 0 1
72.5575 0 1
72.6732 0 1
75.1054 0 1
75.2209 0 1
75.3365 0 1
75.4521 0 1
75.5678 0 1
75.6835 0 1
75.7993 0 1
75.9151 0 1
76.031 0 1
76.147 6589 81.1727
76.263 6768 82.2679
76.3791 6630 81.4248
76.4952 6330 79.5613
76.6113 6332 79.5739
76.7276 7003 83.6839
76.8438 8102 90.0111
76.9601 9549 97.719
77.0765 10689 103.388
77.1929 10993 104.848
77.3093 10988 104.824
77.4258 10998 104.871
77.5423 11084 105.281
77.6589 10891 104.36
77.7755 10564 102.781
77.8921 10272 101.351
78.0088 9928 99.6393
78.1256 9929 99.6444
78.2423 9716 98.5698
78.3591 9853 99.2623
78.4759 10234 101.163
78.5928 10514 102.538
78.7097 10740 103.634
78.8266 11381 106.682
78.9436 11471 107.103
79.0606 11585 107.634
79.1776 11631 107.847
79.2946 11582 107.62
79.4117 11533 107.392
79.5288 11412 106.827
79.6459 11122 105.461
79.7631 10768 103.769
79.8802 10420 102.078
79.9974 9416 97.0361
80.1147 7711 87.8123
80.2319 6935 83.2766
80.3491 7154 84.5813
80.4664 8189 90.4931
80.5837 9370 96.7988
80.701 10695 103.417
80.8183 11020 104.976
80.9357 11232 105.981
81.053 11291 106.259
81.1704 11348 106.527
81.2877 11319 106.391
81.4051 11327 106.428
81.5225 10765 103.755
81.6399 10277 101.376
81.7573 10096 100.479
81.8747 10074 100.369
81.9922 9820 99.0959
82.1096 10432 102.137
82.227 10422 102.088
82.3444 10836 104.096
82.4619 11469 107.093
82.5793 11625 107.819
82.6967 11890 109.041
82.8142 11776 108.517
82.9316 12085 109.932
83.049 11934 109.243
83.1664 11595 107.68
83.2838 11272 106.17
83.4012 11033 105.038
83.5186 10671 103.301
83.636 9545 97.6985
83.7534 8293 91.0659
83.8708 7006 83.7019
83.9881 6847 82.7466
84.1055 7500 86.6025
84.2228 8511 92.2551
84.3401 9868 99.3378
84.4575 11172 105.698
84.5747 11507 107.271
84.692 11659 107.977
84.8093 11454 107.023
84.9265 11338 106.48
85.0437 11017 104.962
85.1609 10845 104.139
85.2781 10389 101.926
85.3952 10118 100.588
85.5123 10239 101.188
85.6294 10295 101.464
85.7465 10405 102.005
85.8636 10922 104.508
85.9806 11102 105.366
86.0976 11100 105.357
86.2145 11688 108.111
86.3315 11764 108.462
86.4484 11964 109.38
86.5652 12176 110.345
86.682 11957 109.348
86.7988 11539 107.42
86.9156 11506 107.266
87.0323 11098 105.347
87.149 10497 102.455
87.2657 9375 96.8246
87.3823 7615 87.264
87.4988 6426 80.1623
87.6154 6618 81.3511
87.7318 7360 85.7904
87.8483 8735 93.4612
87.9647 9916 99.5791
88.081 10150 100.747
88.1973 10224 101.114
88.3136 9822 99.106
88.4298 9376 96.8297
88.546 8544 92.4338
88.6621 7105 84.2912
88.7781 5471 73.9662
88.8942 0 1
89.0101 0 1
89.126 0 1
89.2419 0 1
89.3577 0 1
89.4734 0 1
89.5891 0 1
89.7047 0 1
89.8203 0 1
89.9358 0 1
92.3269 0 1
92.4424 0 1
92.558 0 1
92.6736 0 1
92.7893 0 1
92.905 0 1
93.0208 0 1
93.1366 0 1
93.2525 0 1
93.3685 0 1
93.4845 0 1
93.6005 6556 80.9691
93.7167 7326 85.5921
93.8328 7810 88.3742
93.949 8481 92.0923
94.0653 8974 94.7312
94.1816 9306 96.4676
94.2979 9916 99.5791
94.4143 10476 102.352
94.5307 10700 103.441
94.6472 10487 102.406
94.7637 10630 103.102
94.8803 10931 104.551
94.9969 11278 106.198
95.1135 11057 105.152
95.2302 11398 106.761
95.3469 11882 109.005
95.4637 11897 109.073
95.5805 12065 109.841
95.6973 12286 110.842
95.8142 12113 110.059
95.9311 11844 108.83
96.048 11597 107.689
96.1649 11290 106.254
96.2819 10893 104.37
96.3989 10020 100.1
96.516 9095 95.3677
96.633 7707 87.7895
96.7501 6633 81.4432
96.8673 6887 82.988
96.9844 7420 86.1394
97.1016 8521 92.3093
97.2188 9981 99.905
97.336 11152 105.603
97.4532 11501 107.243
97.5704 11683 108.088
97.6877 11684 108.093
97.805 11587 107.643
97.9223 11085 105.285
98.0396 10764 103.75
98.1569 10631 103.107
98.2743 10454 102.245
98.3916 10604 102.976
98.509 10698 103.431
98.6264 10986 104.814
98.7438 11331 106.447
98.8612 11399 106.766
98.9786 11549 107.466
99.096 11840 108.812
99.2134 12239 110.63
99.3308 12204 110.472
99.4482 12364 111.194
99.5656 12424 111.463
99.6831 12176 110.345
99.8005 11772 108.499
99.9179 11022 104.986
100.035 10232 101.153
100.153 8936 94.5304
100.27 7628 87.3384
100.388 7359 85.7846
100.505 7925 89.0225
100.622 9063 95.1998
100.74 10880 104.307
100.857 11785 108.559
100.975 11903 109.101
101.092 12016 109.618
101.209 11977 109.439
101.327 12001 109.549
101.444 11792 108.591
101.561 11344 106.508
101.679 11292 106.264
101.796 10902 104.413
101.913 10931 104.551
102.03 11181 105.74
102.148 11590 107.657
102.265 11530 107.378
102.382 12024 109.654
102.499 12153 110.241
102.616 12220 110.544
102.733 12704 112.712
102.851 12715 112.761
102.968 12795 113.115
103.085 12766 112.987
103.202 12563 112.085
103.319 12535 111.96
103.436 11772 108.499
103.552 10473 102.338
103.669 9256 96.2081
103.786 7947 89.1459
103.903 7304 85.4634
104.02 8006 89.4763
104.137 9256 96.2081
104.253 10854 104.183
104.37 11835 108.789
104.487 12248 110.671
104.603 12365 111.198
104.72 12399 111.351
104.836 12213 110.512
104.953 11707 108.199
105.069 11343 106.504
105.186 11102 105.366
105.302 10802 103.933
105.418 10648 103.189
105.535 10431 102.132
105.651 10377 101.868
105.767 10213 101.059
105.883 9873 99.363
105.999 8790 93.755
106.115 0 1
106.231 0 1
106.347 0 1
106.463 0 1
106.579 0 1
106.694 0 1
106.81 0 1
106.926 0 1
107.041 0 1
107.157 0 1
109.576 0 1
109.692 0 1
109.807 0 1
109.923 0 1
110.039 0 1
110.155 0 1
110.27 0 1
110.386 0 1
110.502 0 1
110.618 4313 65.6734
110.735 5456 73.8647
110.851 6454 80.3368
110.967 7097 84.2437
111.083 7964 89.2412
111.199 8899 94.3345
111.316 9596 97.9592
111.432 10107 100.534
111.549 10520 102.567
111.665 10997 104.867
111.782 11120 105.451
111.898 10932 104.556
112.015 9962 99.8098
112.132 9009 94.9158
112.248 8035 89.6382
112.365 6775 82.3104
112.482 6475 80.4674
112.599 7062 84.0357
112.716 8016 89.5321
112.832 9396 96.933
112.949 10496 102.45
113.066 10644 103.17
113.183 10961 104.695
113.3 10865 104.235
113.417 10667 103.281
113.534 10641 103.155
113.652 10291 101.445
113.769 10091 100.454
113.886 9851 99.2522
114.003 10110 100.548
114.12 10242 101.203
114.238 10376 101.863
114.355 10833 104.082
114.472 11336 106.471
114.589 10840 104.115
114.707 11174 105.707
114.824 11600 107.703
114.942 11407 106.804
115.059 11402 106.78
115.176 11367 106.616
115.294 11295 106.278
115.411 11053 105.133
115.529 10515 102.543
115.646 9588 97.9183
115.764 8437 91.8531
115.881 7414 86.1046
115.999 6477 80.4798
116.116 6757 82.201
116.234 7512 86.6718
116.351 8985 94.7892
116.469 10149 100.742
116.586 10472 102.333
116.704 10384 101.902
116.821 10559 102.757
116.939 10684 103.363
117.056 10684 103.363
117.174 10483 102.387
117.291 10176 100.876
117.409 9939 99.6945
117.526 9980 99.8999
117.644 9813 99.0606
117.761 10174 100.866
117.879 10654 103.218
117.996 10788 103.865
118.114 10965 104.714
118.231 11157 105.627
118.349 11221 105.929
118.466 11071 105.219
118.584 11140 105.546
118.701 11408 106.808
118.819 11010 104.929
118.936 10679 103.339
119.053 10471 102.328
119.171 10021 100.105
119.288 8964 94.6784
119.405 7842 88.5551
119.523 6601 81.2465
119.64 5954 77.1622
119.757 6516 80.7217
119.875 7360 85.7904
119.992 8426 91.7932
120.109 9563 97.7906
120.226 9978 99.8899
120.343 9907 99.5339
120.46 10259 101.287
120.578 10242 101.203
120.695 10273 101.356
120.812 10059 100.295
120.929 9669 98.3311
121.046 9427 97.0927
121.163 9419 97.0515
121.279 9528 97.6115
121.396 9624 98.102
121.513 9880 99.3982
121.63 9982 99.91
121.747 10097 100.484
121.863 10145 100.722
121.98 10188 100.936
122.097 10131 100.653
122.213 9931 99.6544
122.33 9966 99.8299
122.446 9447 97.1957
122.563 9141 95.6086
122.679 8634 92.9193
122.795 7981 89.3364
122.912 6746 82.134
123.028 5332 73.0205
123.144 4036 63.5295
123.26 3165 56.2583
123.377 0 1
123.493 0 1
123.609 0 1
123.725 0 1
123.84 0 1
123.956 0 1
124.072 0 1
124.188 0 1
124.303 0 1
124.419 0 1
126.852 0 1
126.968 0 1
127.083 0 1
127.199 0 1
127.315 0 1
127.431 0 1
127.547 0 1
127.663 0 1
127.779 0 1
127.895 0 1
128.011 0 1
128.127 0 1
128.243 0 1
128.359 8229 90.7138
128.476 8458 91.9674
128.592 7660 87.5214
128.708 6806 82.4985
128.825 6938 83.2947
128.941 7451 86.3192
129.058 8886 94.2656
129.174 10075 100.374
129.291 10945 104.618
129.408 10842 104.125
129.524 11173 105.702
129.641 11035 105.048
129.758 11092 105.319
129.875 11006 104.909
129.992 10853 104.178
130.108 10829 104.062
130.225 10892 104.365
130.342 10619 103.049
130.459 10822 104.029
130.576 10795 103.899
130.693 11155 105.617
130.81 11121 105.456
130.928 11260 106.113
131.045 11249 106.061
131.162 11271 106.165
131.279 11324 106.414
131.396 11247 106.052
131.513 11321 106.4
131.631 10924 104.518
131.748 10504 102.489
131.865 10012 100.06
131.983 9513 97.5346
132.1 8244 90.7965
132.217 7118 84.3682
132.335 6818 82.5712
132.452 7389 85.9593
132.57 8352 91.3893
132.687 9614 98.051
132.804 10399 101.975
132.922 10747 103.668
133.039 11022 104.986
133.157 10696 103.421
133.274 10973 104.752
133.392 10955 104.666
133.509 10712 103.499
133.627 10568 102.801
133.744 10346 101.715
133.862 10580 102.859
133.979 10698 103.431
134.097 10495 102.445
134.214 11122 105.461
134.332 10985 104.809
134.449 10952 104.652
134.567 11029 105.019
134.684 10971 104.743
134.802 11073 105.228
134.919 10883 104.322
135.037 10711 103.494
135.154 10455 102.25
135.272 10192 100.955
135.389 10163 100.812
135.507 9393 96.9175
135.624 8687 93.2041
135.742 7593 87.1378
135.859 6580 81.1172
135.977 7015 83.7556
136.094 7900 88.8819
136.211 9004 94.8894
136.329 10105 100.524
136.446 10438 102.167
136.564 10725 103.562
136.681 10764 103.75
136.798 10791 103.88
136.915 10709 103.484
137.033 10749 103.677
137.15 10778 103.817
137.267 10327 101.622
137.384 10475 102.347
137.502 10200 100.995
137.619 10155 100.772
137.736 10424 102.098
137.853 10219 101.089
137.97 10390 101.931
138.087 10982 104.795
138.204 10745 103.658
138.321 10722 103.547
138.438 10711 103.494
138.555 10476 102.352
138.672 10498 102.46
138.788 10044 100.22
138.905 9848 99.2371
139.022 9422 97.067
139.139 8872 94.1913
139.255 8149 90.2718
139.372 7042 83.9166
139.488 5967 77.2464
139.605 5956 77.1751
139.721 6227 78.9113
139.838 6887 82.988
139.954 7457 86.3539
140.071 7104 84.2852
140.187 6210 78.8036
140.303 5475 73.9932
140.419 4957 70.406
140.535 4842 69.5845
140.652 4425 66.5207
140.768 0 1
140.884 0 1
141 0 1
141.115 0 1
141.231 0 1
141.347 0 1
141.463 0 1
141.578 0 1
141.694 0 1
144.104 0 1
144.219 0 1
144.335 0 1
144.45 0 1
144.566 0 1
144.682 0 1
144.798 0 1
144.914 0 1
145.03 0 1
145.146 6223 78.886
145.262 6927 83.2286
145.378 7599 87.1722
145.494 8101 90.0056
145.61 8084 89.9111
145.726 8140 90.2219
145.842 8136 90.1998
145.959 8112 90.0666
146.075 8024 89.5768
146.192 7990 89.3868
146.308 7928 89.0393
146.425 7844 88.5664
146.541 7683 87.6527
146.658 7860 88.6566
146.774 7861 88.6623
146.891 8013 89.5154
147.008 8179 90.4378
147.125 8092 89.9555
147.241 8032 89.6214
147.358 7977 89.3141
147.475 7951 89.1684
147.592 7832 88.4986
147.709 7710 87.8066
147.826 7277 85.3053
147.943 6923 83.2046
148.06 6458 80.3617
148.177 5921 76.948
148.294 5440 73.7564
148.411 5638 75.0866
148.528 6242 79.0063
148.645 6550 80.9321
148.762 7533 86.7929
148.88 7874 88.7356
148.997 8038 89.6549
149.114 7889 88.82
149.231 8079 89.8833
149.349 8071 89.8387
149.466 7870 88.713
149.583 8039 89.6605
149.701 8159 90.3272
149.818 7863 88.6736
149.935 7723 87.8806
150.053 7653 87.4814
150.17 7929 89.0449
150.287 7734 87.9432
150.405 7813 88.3912
150.522 7765 88.1192
150.64 8054 89.7441
150.757 8029 89.6047
150.875 7898 88.8707
150.992 8104 90.0222
151.11 7965 89.2468
151.227 7793 88.278
151.344 7691 87.6983
151.462 7235 85.0588
151.579 6876 82.9216
151.697 6559 80.9877
151.814 5939 77.0649
151.932 5523 74.3169
152.049 5546 74.4715
152.167 5974 77.2917
152.284 6633 81.4432
152.402 7377 85.8895
152.519 8023 89.5712
152.636 7975 89.3029
152.754 7964 89.2412
152.871 8165 90.3604
152.989 7925 89.0225
153.106 7977 89.3141
153.223 7966 89.2525
153.341 7894 88.8482
153.458 7702 87.761
153.575 7751 88.0398
153.693 7737 87.9602
153.81 7661 87.5271
153.927 7846 88.5776
154.044 7727 87.9034
154.162 7702 87.761
154.279 8071 89.8387
154.396 8053 89.7385
154.513 7911 88.9438
154.63 7972 89.2861
154.747 8204 90.5759
154.864 7797 88.3006
154.981 7617 87.2754
155.098 7185 84.7644
155.215 6782 82.3529
155.332 6509 80.6784
155.449 5944 77.0973
155.566 5453 73.8444
155.683 6033 77.6724
155.8 6353 79.7057
155.917 6844 82.7285
156.033 7523 86.7352
156.15 0 1
156.267 0 1
156.383 0 1
156.5 0 1
156.617 0 1
156.733 0 1
156.85 0 1
156.966 0 1
157.082 0 1
157.199 0 1
157.315 0 1
157.431 0 1
157.547 0 1
157.664 0 1
157.78 0 1
157.896 0 1
158.012 0 1
158.128 0 1
158.244 0 1
158.359 0 1
158.475 0 1
158.591 0 1
158.706 0 1
