
6.15755 0 1
6.2731 0 1
6.3887 0 1
6.50437 0 1
6.62009 0 1
6.73587 0 1
6.8517 0 1
6.96759 0 1
7.08353 0 1
7.19952 0 1
7.31557 0 1
7.43166 0 1
7.54781 0 1
7.664 0 1
7.78024 0 1
7.89653 0 1
8.01286 0 1
8.12924 0 1
8.24567 0 1
8.36213 0 1
8.47864 0 1
8.59519 0 1
8.71178 0 1
8.82841 0 1
8.94508 0 1
9.06179 0 1
9.17853 0 1
9.29531 0 1
9.41212 0 1
9.52897 0 1
9.64584 0 1
9.76276 0 1
9.8797 0 1
9.99667 0 1
10.1137 0 1
10.2307 0 1
10.3478 0 1
10.4648 0 1
10.5819 0 1
10.6991 0 1
10.8162 0 1
10.9334 0 1
11.0506 0 1
11.1678 0 1
11.285 0 1
11.4023 0 1
11.5196 0 1
11.6369 0 1
11.7542 0 1
11.8715 0 1
11.9888 0 1
12.1062 0 1
12.2235 0 1
12.3409 0 1
12.4582 0 1
12.5756 0 1
12.693 0 1
12.8104 0 1
12.9278 0 1
13.0452 0 1
13.1626 0 1
13.28 0 1
13.3974 0 1
13.5149 0 1
13.6323 0 1
13.7497 0 1
13.8671 0 1
13.9845 0 1
14.1019 0 1
14.2193 0 1
14.3367 0 1
14.4541 0 1
14.5714 0 1
14.6888 0 1
14.8062 0 1
14.9235 0 1
15.0408 2194 46.8402
15.1581 2296 47.9166
15.2755 2312 48.0833
15.3927 2355 48.5283
15.51 2303 47.9896
15.6273 2322 48.1871
15.7445 2290 47.8539
15.8617 2209 47
15.9789 2079 45.5961
16.0961 2067 45.4643
16.2132 2110 45.9347
16.3304 2187 46.7654
16.4475 2111 45.9456
16.5646 2143 46.2925
16.6816 2104 45.8694
16.7986 2016 44.8999
16.9156 2021 44.9555
17.0326 1988 44.587
17.1496 1942 44.0681
17.2665 1864 43.1741
17.3833 1811 42.5558
17.5002 1852 43.0349
17.617 1814 42.5911
17.7338 1881 43.3705
17.8505 1925 43.8748
17.9672 2121 46.0543
18.0839 2083 45.6399
18.2005 2203 46.9361
18.3171 2236 47.2864
18.4337 2236 47.2864
18.5502 2284 47.7912
18.6666 2323 48.1975
18.7831 2358 48.5592
18.8994 2278 47.7284
19.0158 2185 46.744
19.1321 2036 45.1221
19.2483 2057 45.3542
19.3645 2047 45.2438
19.4806 1876 43.3128
19.5967 1864 43.1741
19.7128 1895 43.5316
19.8288 1847 42.9767
19.9447 1627 40.3361
20.0606 0 1
20.1764 0 1
20.2922 0 1
20.4079 0 1
20.5236 0 1
20.6392 0 1
20.7548 0 1
20.8702 0 1
23.3078 0 1
23.4233 0 1
23.539 0 1
23.6547 0 1
23.7704 0 1
23.8862 0 1
24.0021 0 1
24.118 0 1
24.234 0 1
24.35 0 1
24.4661 1846 42.9651
24.5822 1713 41.3884
24.6984 1725 41.5331
24.8146 1807 42.5088
24.9309 1852 43.0349
25.0472 1890 43.4741
25.1636 1956 44.2267
25.28 1998 44.699
25.3965 1930 43.9318
25.513 1991 44.6206
25.6296 1985 44.5533
25.7462 1966 44.3396
25.8628 2003 44.7549
25.9795 1811 42.5558
26.0962 1842 42.9185
26.213 1833 42.8135
26.3298 1761 41.9643
26.4466 1834 42.8252
26.5635 1864 43.1741
26.6804 1826 42.7317
26.7973 1943 44.0795
26.9143 1831 42.7902
27.0313 1992 44.6318
27.1483 2015 44.8888
27.2653 2051 45.288
27.3824 2131 46.1628
27.4996 2013 44.8665
27.6167 1952 44.1814
27.7339 2001 44.7325
27.8511 2038 45.1442
27.9683 1935 43.9886
28.0855 1771 42.0833
28.2028 1776 42.1426
28.3201 1750 41.833
28.4374 1814 42.5911
28.5547 1819 42.6497
28.6721 1848 42.9884
28.7894 1826 42.7317
28.9068 1947 44.1248
29.0242 1894 43.5201
29.1416 1835 42.8369
29.259 1786 42.2611
29.3764 1730 41.5933
29.4939 1713 41.3884
29.6113 1688 41.0853
29.7288 1631 40.3856
29.8463 1611 40.1373
29.9638 1650 40.6202
30.0812 1698 41.2068
30.1987 1739 41.7013
30.3162 1864 43.1741
30.4337 1926 43.8862
30.5512 1843 42.9302
30.6687 1954 44.2041
30.7862 1956 44.2267
30.9037 1930 43.9318
31.0212 1936 44
31.1387 1979 44.486
31.2562 1902 43.6119
31.3737 1871 43.2551
31.4912 1817 42.6263
31.6087 1829 42.7668
31.7262 1734 41.6413
31.8436 1730 41.5933
31.9611 1740 41.7133
32.0785 1797 42.391
32.1959 1828 42.7551
32.3134 1703 41.2674
32.4308 1830 42.7785
32.5482 1798 42.4028
32.6655 1678 40.9634
32.7829 1753 41.8688
32.9002 1786 42.2611
33.0176 1687 41.0731
33.1349 1626 40.3237
33.2522 1720 41.4729
33.3694 1608 40.0999
33.4867 1628 40.3485
33.6039 1649 40.6079
33.7211 1731 41.6053
33.8383 1694 41.1582
33.9554 1767 42.0357
34.0725 1793 42.3438
34.1896 1825 42.72
34.3067 1849 43
34.4237 1842 42.9185
34.5407 1847 42.9767
34.6577 1883 43.3935
34.7746 1926 43.8862
34.8915 1968 44.3621
35.0084 1891 43.4856
35.1252 1828 42.7551
35.242 1817 42.6263
35.3587 1839 42.8836
35.4755 1679 40.9756
35.5921 1689 41.0974
35.7088 1705 41.2916
35.8254 1681 41
35.9419 1769 42.0595
36.0584 1727 41.5572
36.1749 1751 41.845
36.2913 1733 41.6293
36.4077 1704 41.2795
36.524 1645 40.5586
36.6403 1661 40.7554
36.7565 1691 41.1218
36.8727 1621 40.2616
36.9889 1492 38.6264
37.1049 1540 39.2428
37.221 0 1
37.3369 0 1
37.4529 0 1
37.5687 0 1
37.6845 0 1
37.8003 0 1
37.916 0 1
38.0316 0 1
38.1472 0 1
40.5851 0 1
40.7008 0 1
40.8164 0 1
40.9322 0 1
41.048 0 1
41.1639 0 1
41.2798 0 1
41.3958 0 1
41.5118 0 1
41.6279 0 1
41.744 1316 36.2767
41.8602 1378 37.1214
41.9765 1398 37.3898
42.0928 1343 36.647
42.2091 1333 36.5103
42.3255 1303 36.0971
42.4419 1338 36.5787
42.5584 1305 36.1248
42.675 1431 37.8286
42.7915 1330 36.4692
42.9081 1440 37.9473
43.0248 1459 38.1969
43.1415 1460 38.2099
43.2582 1401 37.4299
43.375 1485 38.5357
43.4918 1439 37.9342
43.6087 1479 38.4578
43.7256 1436 37.8946
43.8425 1378 37.1214
43.9595 1417 37.6431
44.0765 1377 37.108
44.1935 1279 35.7631
44.3106 1255 35.426
44.4277 1218 34.8999
44.5448 1185 34.4238
44.6619 1157 34.0147
44.7791 1187 34.4529
44.8963 1224 34.9857
45.0136 1166 34.1467
45.1308 1189 34.4819
45.2481 1230 35.0714
45.3654 1122 33.4963
45.4827 1049 32.3883
45.6001 1077 32.8177
45.7174 1030 32.0936
45.8348 1011 31.7962
45.9522 958 30.9516
46.0697 1030 32.0936
46.1871 937 30.6105
46.3046 1058 32.5269
46.422 1110 33.3167
46.5395 1069 32.6956
46.657 1135 33.6898
46.7745 1081 32.8786
46.892 1133 33.6601
47.0096 1093 33.0606
47.1271 1082 32.8938
47.2446 1017 31.8904
47.3622 1097 33.121
47.4797 1097 33.121
47.5973 1046 32.3419
47.7149 1175 34.2783
47.8324 1010 31.7805
47.95 938 30.6268
48.0675 923 30.3809
48.1851 889 29.8161
48.3027 923 30.3809
48.4202 891 29.8496
48.5378 979 31.289
48.6554 964 31.0483
48.7729 947 30.7734
48.8904 929 30.4795
49.008 915 30.249
49.1255 996 31.5595
49.243 945 30.7409
49.3605 927 30.4467
49.478 939 30.6431
49.5955 907 30.1164
49.713 936 30.5941
49.8304 913 30.2159
49.9479 989 31.4484
50.0653 982 31.3369
50.1827 1090 33.0151
50.3001 1053 32.45
50.4175 1098 33.1361
50.5348 1081 32.8786
50.6521 1177 34.3074
50.7694 1193 34.5398
50.8867 1216 34.8712
51.004 1213 34.8281
51.1212 1266 35.5809
51.2384 1141 33.7787
51.3556 1190 34.4964
51.4727 1148 33.8821
51.5899 1127 33.5708
51.707 1186 34.4384
51.824 1225 35
51.9411 1255 35.426
52.0581 1333 36.5103
52.175 1418 37.6563
52.2919 1361 36.8917
52.4088 1384 37.2022
52.5257 1299 36.0416
52.6425 1402 37.4433
52.7593 1365 36.9459
52.876 1341 36.6197
52.9927 1314 36.2491
53.1094 1355 36.8103
53.226 1397 37.3765
53.3426 1384 37.2022
53.4591 1483 38.5097
53.5756 1422 37.7094
53.692 1578 39.724
53.8084 1606 40.0749
53.9248 1589 39.8623
54.0411 1633 40.4104
54.1573 1711 41.3642
54.2735 0 1
54.3896 0 1
54.5057 0 1
54.6217 0 1
54.7377 0 1
54.8537 0 1
54.9695 0 1
55.0853 0 1
55.2011 0 1
55.3168 0 1
55.4324 0 1
57.824 0 1
57.9396 0 1
58.0553 0 1
58.1711 0 1
58.2869 0 1
58.4028 0 1
58.5187 0 1
58.6347 0 1
58.7508 0 1
58.8669 0 1
58.983 1905 43.6463
59.0992 2060 45.3872
59.2155 2131 46.1628
59.3318 2054 45.3211
59.4482 2065 45.4423
59.5646 2140 46.2601
59.681 2129 46.1411
59.7975 2150 46.3681
59.9141 2118 46.0217
60.0306 2071 45.5082
60.1473 2019 44.9333
60.2639 1848 42.9884
60.3807 1831 42.7902
60.4974 1881 43.3705
60.6142 1846 42.9651
60.731 1914 43.7493
60.8479 1955 44.2154
60.9648 1997 44.6878
61.0818 1951 44.1701
61.1987 1933 43.9659
61.3158 1835 42.8369
61.4328 1953 44.1928
61.5499 1942 44.0681
61.667 1743 41.7493
61.7841 1738 41.6893
61.9013 1744 41.7612
62.0185 1772 42.0951
62.1357 1822 42.6849
62.253 1900 43.589
62.3702 1911 43.715
62.4875 1950 44.1588
62.6049 1880 43.359
62.7222 1839 42.8836
62.8396 1935 43.9886
62.9569 1901 43.6005
63.0743 1911 43.715
63.1918 1972 44.4072
63.3092 1866 43.1972
63.4267 1838 42.8719
63.5441 1839 42.8836
63.6616 1785 42.2493
63.7791 1761 41.9643
63.8966 1683 41.0244
64.0142 1619 40.2368
64.1317 1641 40.5093
64.2492 1627 40.3361
64.3668 1744 41.7612
64.4843 1726 41.5452
64.6019 1732 41.6173
64.7195 1732 41.6173
64.837 1789 42.2966
64.9546 1721 41.4849
65.0722 1772 42.0951
65.1898 1632 40.398
65.3074 1688 41.0853
65.4249 1660 40.7431
65.5425 1643 40.5339
65.6601 1567 39.5854
65.7777 1617 40.2119
65.8952 1708 41.328
66.0128 1729 41.5812
66.1304 1768 42.0476
66.2479 1789 42.2966
66.3655 1782 42.2137
66.483 1802 42.45
66.6005 1847 42.9767
66.718 1882 43.382
66.8355 1803 42.4617
66.953 1820 42.6615
67.0705 1808 42.5206
67.1879 1823 42.6966
67.3054 1817 42.6263
67.4228 1743 41.7493
67.5402 1718 41.4488
67.6576 1709 41.3401
67.7749 1703 41.2674
67.8923 1729 41.5812
68.0096 1870 43.2435
68.1269 1830 42.7785
68.2442 1889 43.4626
68.3614 1787 42.2729
68.4787 1744 41.7612
68.5958 1872 43.2666
68.713 1895 43.5316
68.8302 1834 42.8252
68.9473 1765 42.0119
69.0643 1740 41.7133
69.1814 1695 41.1704
69.2984 1722 41.497
69.4154 1772 42.0951
69.5323 1737 41.6773
69.6492 1959 44.2606
69.7661 1904 43.6348
69.8829 1807 42.5088
69.9997 2012 44.8553
70.1165 1964 44.317
70.2332 2023 44.9778
70.3499 2053 45.31
70.4665 2022 44.9667
70.5831 2011 44.8442
70.6996 2041 45.1774
70.8161 1989 44.5982
70.9326 2007 44.7996
71.049 2042 45.1885
71.1653 1989 44.5982
71.2817 1685 41.0488
71.3979 1778 42.1663
71.5141 1698 41.2068
71.6303 1751 41.845
71.7464 1764 42
71.8624 0 1
71.9784 0 1
72.0944 0 1
72.2102 0 1
72.3261 0 1
72.4418 0 1
72.5575 0 1
72.6732 0 1
75.1054 0 1
75.2209 0 1
75.3365 0 1
75.4521 0 1
75.5678 0 1
75.6835 0 1
75.7993 0 1
75.9151 0 1
76.031 0 1
76.147 1937 44.0114
76.263 2012 44.8553
76.3791 2091 45.7275
76.4952 2002 44.7437
76.6113 1881 43.3705
76.7276 1919 43.8064
76.8438 1913 43.7379
76.9601 2068 45.4753
77.0765 2104 45.8694
77.1929 2239 47.3181
77.3093 2169 46.5725
77.4258 2161 46.4866
77.5423 2096 45.7821
77.6589 2127 46.1194
77.7755 2040 45.1664
77.8921 2008 44.8107
78.0088 1887 43.4396
78.1256 1855 43.0697
78.2423 1858 43.1045
78.3591 1905 43.6463
78.4759 1950 44.1588
78.5928 2017 44.911
78.7097 2020 44.9444
78.8266 2049 45.2659
78.9436 2208 46.9894
79.0606 2075 45.5522
79.1776 2101 45.8367
79.2946 2179 46.6798
79.4117 2183 46.7226
79.5288 2128 46.1303
79.6459 2175 46.6369
79.7631 2046 45.2327
79.8802 2119 46.0326
79.9974 2077 45.5741
80.1147 2076 45.5631
80.2319 1868 43.2204
80.3491 1868 43.2204
80.4664 1847 42.9767
80.5837 1963 44.3058
80.701 2030 45.0555
80.8183 1990 44.6094
80.9357 1949 44.1475
81.053 1945 44.1022
81.1704 1996 44.6766
81.2877 2073 45.5302
81.4051 2055 45.3321
81.5225 2018 44.9222
81.6399 1896 43.5431
81.7573 1799 42.4146
81.8747 1773 42.107
81.9922 1682 41.0122
82.1096 1770 42.0714
82.227 1842 42.9185
82.3444 1890 43.4741
82.4619 1844 42.9418
82.5793 1956 44.2267
82.6967 2014 44.8776
82.8142 2040 45.1664
82.9316 1923 43.852
83.049 2042 45.1885
83.1664 1996 44.6766
83.2838 2034 45.0999
83.4012 2057 45.3542
83.5186 2109 45.9239
83.636 1974 44.4297
83.7534 1942 44.0681
83.8708 1852 43.0349
83.9881 1819 42.6497
84.1055 1819 42.6497
84.2228 1916 43.7721
84.3401 1988 44.587
84.4575 2131 46.1628
84.5747 2068 45.4753
84.692 1900 43.589
84.8093 2006 44.7884
84.9265 2101 45.8367
85.0437 2034 45.0999
85.1609 1978 44.4747
85.2781 1910 43.7035
85.3952 1819 42.6497
85.5123 1924 43.8634
85.6294 1718 41.4488
85.7465 1845 42.9535
85.8636 2008 44.8107
85.9806 2047 45.2438
86.0976 2159 46.465
86.2145 2055 45.3321
86.3315 2145 46.3141
86.4484 2256 47.4974
86.5652 2140 46.2601
86.682 2194 46.8402
86.7988 2243 47.3603
86.9156 2252 47.4552
87.0323 2198 46.8828
87.149 2105 45.8803
87.2657 2124 46.0869
87.3823 2080 45.607
87.4988 2046 45.2327
87.6154 1945 44.1022
87.7318 1982 44.5197
87.8483 2092 45.7384
87.9647 2178 46.669
88.081 2182 46.7119
88.1973 2179 46.6798
88.3136 2098 45.8039
88.4298 2199 46.8935
88.546 2171 46.594
88.6621 2119 46.0326
88.7781 2015 44.8888
88.8942 0 1
89.0101 0 1
89.126 0 1
89.2419 0 1
89.3577 0 1
89.4734 0 1
89.5891 0 1
89.7047 0 1
89.8203 0 1
89.9358 0 1
92.3269 0 1
92.4424 0 1
92.558 0 1
92.6736 0 1
92.7893 0 1
92.905 0 1
93.0208 0 1
93.1366 0 1
93.2525 0 1
93.3685 0 1
93.4845 0 1
93.6005 1972 44.4072
93.7167 2110 45.9347
93.8328 2012 44.8553
93.949 2099 45.8148
94.0653 2037 45.1331
94.1816 1943 44.0795
94.2979 1822 42.6849
94.4143 1808 42.5206
94.5307 1784 42.2374
94.6472 1844 42.9418
94.7637 1878 43.3359
94.8803 2020 44.9444
94.9969 1988 44.587
95.1135 1993 44.643
95.2302 2019 44.9333
95.3469 2047 45.2438
95.4637 2084 45.6508
95.5805 2147 46.3357
95.6973 2156 46.4327
95.8142 2189 46.7868
95.9311 2115 45.9891
96.048 2152 46.3897
96.1649 2069 45.4863
96.2819 2158 46.4543
96.3989 1977 44.4635
96.516 1936 44
96.633 1939 44.0341
96.7501 1889 43.4626
96.8673 1958 44.2493
96.9844 2014 44.8776
97.1016 1958 44.2493
97.2188 1939 44.0341
97.336 2041 45.1774
97.4532 2051 45.288
97.5704 2069 45.4863
97.6877 2105 45.8803
97.805 2063 45.4203
97.9223 1954 44.2041
98.0396 1793 42.3438
98.1569 1858 43.1045
98.2743 1748 41.8091
98.3916 1876 43.3128
98.509 1880 43.359
98.6264 1947 44.1248
98.7438 1865 43.1856
98.8612 2094 45.7602
98.9786 1973 44.4185
99.096 2085 45.6618
99.2134 2101 45.8367
99.3308 1971 44.3959
99.4482 2066 45.4533
99.5656 2089 45.7056
99.6831 2068 45.4753
99.8005 2057 45.3542
99.9179 2046 45.2327
100.035 1911 43.715
100.153 1767 42.0357
100.27 1808 42.5206
100.388 1794 42.3556
100.505 1850 43.0116
100.622 1925 43.8748
100.74 1953 44.1928
100.857 1954 44.2041
100.975 1977 44.4635
101.092 2052 45.299
101.209 2070 45.4973
101.327 2102 45.8476
101.444 1969 44.3734
101.561 1924 43.8634
101.679 1916 43.7721
101.796 1769 42.0595
101.913 1746 41.7852
102.03 1885 43.4166
102.148 1926 43.8862
102.265 1859 43.1161
102.382 2159 46.465
102.499 2041 45.1774
102.616 2178 46.669
102.733 2165 46.5296
102.851 2192 46.8188
102.968 2200 46.9042
103.085 2167 46.551
103.202 2203 46.9361
103.319 2097 45.793
103.436 2206 46.9681
103.552 2158 46.4543
103.669 2075 45.5522
103.786 1866 43.1972
103.903 2047 45.2438
104.02 1915 43.7607
104.137 2094 45.7602
104.253 2151 46.3789
104.37 2100 45.8258
104.487 2148 46.3465
104.603 2169 46.5725
104.72 2301 47.9687
104.836 2198 46.8828
104.953 2111 45.9456
105.069 2032 45.0777
105.186 1985 44.5533
105.302 1909 43.6921
105.418 1908 43.6807
105.535 2078 45.5851
105.651 2024 44.9889
105.767 2097 45.793
105.883 2082 45.6289
105.999 2186 46.7547
106.115 0 1
106.231 0 1
106.347 0 1
106.463 0 1
106.579 0 1
106.694 0 1
106.81 0 1
106.926 0 1
107.041 0 1
107.157 0 1
109.576 0 1
109.692 0 1
109.807 0 1
109.923 0 1
110.039 0 1
110.155 0 1
110.27 0 1
110.386 0 1
110.502 0 1
110.618 1734 41.6413
110.735 1818 42.638
110.851 1946 44.1135
110.967 1924 43.8634
111.083 1989 44.5982
111.199 1901 43.6005
111.316 2110 45.9347
111.432 2055 45.3321
111.549 2010 44.833
111.665 1961 44.2832
111.782 1959 44.2606
111.898 1925 43.8748
112.015 1896 43.5431
112.132 1845 42.9535
112.248 1797 42.391
112.365 1659 40.7308
112.482 1713 41.3884
112.599 1713 41.3884
112.716 1796 42.3792
112.832 1714 41.4005
112.949 1802 42.45
113.066 1827 42.7434
113.183 1886 43.4281
113.3 1822 42.6849
113.417 1814 42.5911
113.534 1776 42.1426
113.652 1721 41.4849
113.769 1580 39.7492
113.886 1528 39.0896
114.003 1495 38.6652
114.12 1527 39.0768
114.238 1586 39.8246
114.355 1592 39.8999
114.472 1801 42.4382
114.589 1648 40.5956
114.707 1770 42.0714
114.824 1654 40.6694
114.942 1678 40.9634
115.059 1677 40.9512
115.176 1719 41.4608
115.294 1634 40.4228
115.411 1635 40.4351
115.529 1554 39.4208
115.646 1549 39.3573
115.764 1473 38.3797
115.881 1384 37.2022
115.999 1325 36.4005
116.116 1318 36.3043
116.234 1376 37.0945
116.351 1384 37.2022
116.469 1452 38.1051
116.586 1415 37.6165
116.704 1507 38.8201
116.821 1513 38.8973
116.939 1510 38.8587
117.056 1453 38.1182
117.174 1452 38.1051
117.291 1289 35.9026
117.409 1274 35.6931
117.526 1311 36.2077
117.644 1260 35.4965
117.761 1279 35.7631
117.879 1380 37.1484
117.996 1425 37.7492
118.114 1388 37.2559
118.231 1481 38.4838
118.349 1410 37.55
118.466 1457 38.1707
118.584 1441 37.9605
118.701 1553 39.4081
118.819 1507 38.8201
118.936 1428 37.7889
119.053 1445 38.0132
119.171 1509 38.8458
119.288 1376 37.0945
119.405 1372 37.0405
119.523 1320 36.3318
119.64 1316 36.2767
119.757 1264 35.5528
119.875 1413 37.5899
119.992 1439 37.9342
120.109 1474 38.3927
120.226 1474 38.3927
120.343 1461 38.223
120.46 1573 39.6611
120.578 1590 39.8748
120.695 1626 40.3237
120.812 1587 39.8372
120.929 1443 37.9868
121.046 1498 38.704
121.163 1454 38.1314
121.279 1394 37.3363
121.396 1437 37.9078
121.513 1532 39.1408
121.63 1618 40.2244
121.747 1668 40.8412
121.863 1722 41.497
121.98 1804 42.4735
122.097 1773 42.107
122.213 1739 41.7013
122.33 1755 41.8927
122.446 1762 41.9762
122.563 1719 41.4608
122.679 1766 42.0238
122.795 1773 42.107
122.912 1688 41.0853
123.028 1612 40.1497
123.144 1617 40.2119
123.26 1579 39.7366
123.377 0 1
123.493 0 1
123.609 0 1
123.725 0 1
123.84 0 1
123.956 0 1
124.072 0 1
124.188 0 1
124.303 0 1
124.419 0 1
126.852 0 1
126.968 0 1
127.083 0 1
127.199 0 1
127.315 0 1
127.431 0 1
127.547 0 1
127.663 0 1
127.779 0 1
127.895 0 1
128.011 0 1
128.127 0 1
128.243 0 1
128.359 2044 45.2106
128.476 2040 45.1664
128.592 1907 43.6692
128.708 1854 43.0581
128.825 1825 42.72
128.941 1877 43.3244
129.058 1858 43.1045
129.174 1985 44.5533
129.291 2081 45.618
129.408 2027 45.0222
129.524 1955 44.2154
129.641 2016 44.8999
129.758 2148 46.3465
129.875 1953 44.1928
129.992 1935 43.9886
130.108 1874 43.2897
130.225 1747 41.7971
130.342 1775 42.1307
130.459 1818 42.638
130.576 1837 42.8602
130.693 1886 43.4281
130.81 1891 43.4856
130.928 2004 44.7661
131.045 2048 45.2548
131.162 2035 45.111
131.279 2022 44.9667
131.396 1947 44.1248
131.513 2021 44.9555
131.631 1965 44.3283
131.748 1945 44.1022
131.865 1858 43.1045
131.983 1867 43.2088
132.1 1828 42.7551
132.217 1729 41.5812
132.335 1729 41.5812
132.452 1703 41.2674
132.57 1780 42.19
132.687 1757 41.9166
132.804 2019 44.9333
132.922 1928 43.909
133.039 1911 43.715
133.157 1913 43.7379
133.274 1947 44.1248
133.392 1927 43.8976
133.509 1881 43.3705
133.627 1769 42.0595
133.744 1723 41.509
133.862 1685 41.0488
133.979 1667 40.8289
134.097 1782 42.2137
134.214 1892 43.4971
134.332 1792 42.332
134.449 1923 43.852
134.567 1851 43.0232
134.684 1915 43.7607
134.802 1912 43.7264
134.919 1942 44.0681
135.037 1902 43.6119
135.154 1881 43.3705
135.272 1816 42.6146
135.389 1865 43.1856
135.507 1686 41.0609
135.624 1673 40.9023
135.742 1652 40.6448
135.859 1589 39.8623
135.977 1514 38.9102
136.094 1551 39.3827
136.211 1514 38.9102
136.329 1680 40.9878
136.446 1636 40.4475
136.564 1662 40.7676
136.681 1617 40.2119
136.798 1684 41.0366
136.915 1695 41.1704
137.033 1679 40.9756
137.15 1518 38.9615
137.267 1508 38.833
137.384 1442 37.9737
137.502 1416 37.6298
137.619 1352 36.7696
137.736 1497 38.6911
137.853 1553 39.4081
137.97 1687 41.0731
138.087 1710 41.3521
138.204 1671 40.8779
138.321 1801 42.4382
138.438 1756 41.9047
138.555 1836 42.8486
138.672 1835 42.8369
138.788 1887 43.4396
138.905 1753 41.8688
139.022 1796 42.3792
139.139 1740 41.7133
139.255 1715 41.4126
139.372 1736 41.6653
139.488 1633 40.4104
139.605 1691 41.1218
139.721 1675 40.9268
139.838 1797 42.391
139.954 1806 42.4971
140.071 1885 43.4166
140.187 2005 44.7772
140.303 1863 43.1625
140.419 1998 44.699
140.535 1953 44.1928
140.652 1946 44.1135
140.768 0 1
140.884 0 1
141 0 1
141.115 0 1
141.231 0 1
141.347 0 1
141.463 0 1
141.578 0 1
141.694 0 1
144.104 0 1
144.219 0 1
144.335 0 1
144.45 0 1
144.566 0 1
144.682 0 1
144.798 0 1
144.914 0 1
145.03 0 1
145.146 2615 51.1371
145.262 2788 52.8015
145.378 2924 54.074
145.494 3019 54.9454
145.61 3305 57.4891
145.726 3558 59.649
145.842 3429 58.5577
145.959 3485 59.0339
146.075 3474 58.9406
146.192 3420 58.4808
146.308 3350 57.8792
146.425 3627 60.2246
146.541 3952 62.8649
146.658 4365 66.0681
146.774 4582 67.6905
146.891 5003 70.7319
147.008 5172 71.9166
147.125 5633 75.0533
147.241 5945 77.1038
147.358 6009 77.5177
147.475 6068 77.8974
147.592 6197 78.721
147.709 6222 78.8797
147.826 6159 78.4793
147.943 6099 78.0961
148.06 6143 78.3773
148.177 6029 77.6466
148.294 5968 77.2528
148.411 5909 76.87
148.528 6200 78.7401
148.645 6471 80.4425
148.762 6783 82.359
148.88 6790 82.4015
148.997 7200 84.8528
149.114 6416 80.0999
149.231 6927 83.2286
149.349 6718 81.9634
149.466 6772 82.2922
149.583 6329 79.555
149.701 5952 77.1492
149.818 5691 75.4387
149.935 5526 74.3371
150.053 5597 74.8131
150.17 5737 75.743
150.287 6167 78.5302
150.405 6170 78.5493
150.522 6388 79.925
150.64 6534 80.8332
150.757 6677 81.7129
150.875 6680 81.7313
150.992 6480 80.4984
151.11 6739 82.0914
151.227 6725 82.0061
151.344 6478 80.486
151.462 6408 80.05
151.579 6441 80.2558
151.697 6336 79.599
151.814 6035 77.6853
151.932 6004 77.4855
152.049 6214 78.8289
152.167 6466 80.4114
152.284 6561 81
152.402 6903 83.0843
152.519 7102 84.2734
152.636 7025 83.8153
152.754 7336 85.6505
152.871 7493 86.5621
152.989 7468 86.4176
153.106 7248 85.1352
153.223 6730 82.0366
153.341 6466 80.4114
153.458 6151 78.4283
153.575 6134 78.3199
153.693 6255 79.0886
153.81 6504 80.6474
153.927 6702 81.8657
154.044 7294 85.4049
154.162 7170 84.6759
154.279 7566 86.9828
154.396 7784 88.227
154.513 8007 89.4818
154.63 7977 89.3141
154.747 7997 89.4259
154.864 7891 88.8313
154.981 7836 88.5212
155.098 7826 88.4647
155.215 7750 88.0341
155.332 7557 86.931
155.449 7326 85.5921
155.566 7485 86.5159
155.683 7616 87.2697
155.8 7718 87.8521
155.917 7979 89.3252
156.033 8267 90.923
156.15 0 1
156.267 0 1
156.383 0 1
156.5 0 1
156.617 0 1
156.733 0 1
156.85 0 1
156.966 0 1
157.082 0 1
157.199 0 1
157.315 0 1
157.431 0 1
157.547 0 1
157.664 0 1
157.78 0 1
157.896 0 1
158.012 0 1
158.128 0 1
158.244 0 1
158.359 0 1
158.475 0 1
158.591 0 1
158.706 0 1
