
6.15755 0 1
6.2731 0 1
6.3887 0 1
6.50437 0 1
6.62009 0 1
6.73587 0 1
6.8517 0 1
6.96759 0 1
7.08353 0 1
7.19952 0 1
7.31557 0 1
7.43166 0 1
7.54781 0 1
7.664 0 1
7.78024 0 1
7.89653 0 1
8.01286 0 1
8.12924 0 1
8.24567 0 1
8.36213 0 1
8.47864 0 1
8.59519 0 1
8.71178 0 1
8.82841 0 1
8.94508 0 1
9.06179 0 1
9.17853 0 1
9.29531 0 1
9.41212 0 1
9.52897 0 1
9.64584 0 1
9.76276 0 1
9.8797 0 1
9.99667 0 1
10.1137 0 1
10.2307 0 1
10.3478 0 1
10.4648 0 1
10.5819 0 1
10.6991 0 1
10.8162 0 1
10.9334 0 1
11.0506 0 1
11.1678 0 1
11.285 0 1
11.4023 0 1
11.5196 0 1
11.6369 0 1
11.7542 0 1
11.8715 0 1
11.9888 0 1
12.1062 0 1
12.2235 0 1
12.3409 0 1
12.4582 0 1
12.5756 0 1
12.693 0 1
12.8104 0 1
12.9278 0 1
13.0452 0 1
13.1626 0 1
13.28 0 1
13.3974 0 1
13.5149 0 1
13.6323 0 1
13.7497 0 1
13.8671 0 1
13.9845 0 1
14.1019 0 1
14.2193 0 1
14.3367 0 1
14.4541 0 1
14.5714 0 1
14.6888 0 1
14.8062 0 1
14.9235 0 1
15.0408 15331 123.818
15.1581 15837 125.845
15.2755 16124 126.98
15.3927 16304 127.687
15.51 16518 128.522
15.6273 16628 128.95
15.7445 16525 128.55
15.8617 16203 127.291
15.9789 16440 128.219
16.0961 16629 128.953
16.2132 16730 129.345
16.3304 17408 131.939
16.4475 17813 133.465
16.5646 18670 136.638
16.6816 19225 138.654
16.7986 19585 139.946
16.9156 19971 141.319
17.0326 20720 143.944
17.1496 20989 144.876
17.2665 21425 146.373
17.3833 21460 146.492
17.5002 21336 146.068
17.617 21114 145.307
17.7338 20301 142.482
17.8505 19319 138.993
17.9672 19192 138.535
18.0839 19106 138.224
18.2005 20038 141.556
18.3171 21114 145.307
18.4337 21684 147.255
18.5502 22383 149.609
18.6666 22835 151.113
18.7831 22894 151.308
18.8994 23196 152.302
19.0158 22574 150.246
19.1321 22243 149.141
19.2483 21686 147.262
19.3645 21452 146.465
19.4806 20816 144.278
19.5967 20526 143.269
19.7128 20185 142.074
19.8288 19914 141.117
19.9447 17843 133.578
20.0606 0 1
20.1764 0 1
20.2922 0 1
20.4079 0 1
20.5236 0 1
20.6392 0 1
20.7548 0 1
20.8702 0 1
23.3078 0 1
23.4233 0 1
23.539 0 1
23.6547 0 1
23.7704 0 1
23.8862 0 1
24.0021 0 1
24.118 0 1
24.234 0 1
24.35 0 1
24.4661 21318 146.007
24.5822 21233 145.715
24.6984 20862 144.437
24.8146 20669 143.767
24.9309 20314 142.527
25.0472 20690 143.84
25.1636 21159 145.461
25.28 21578 146.895
25.3965 22450 149.833
25.513 23241 152.45
25.6296 24141 155.374
25.7462 24185 155.515
25.8628 24158 155.428
25.9795 24347 156.035
26.0962 24100 155.242
26.213 23246 152.466
26.3298 22608 150.36
26.4466 21202 145.609
26.5635 20413 142.874
26.6804 20582 143.464
26.7973 21889 147.949
26.9143 22295 149.315
27.0313 23269 152.542
27.1483 23791 154.243
27.2653 23838 154.396
27.3824 24348 156.038
27.4996 24093 155.219
27.6167 23892 154.57
27.7339 23306 152.663
27.8511 22821 151.066
27.9683 22317 149.389
28.0855 22255 149.181
28.2028 21801 147.652
28.3201 20944 144.72
28.4374 21025 145
28.5547 20752 144.056
28.6721 21095 145.241
28.7894 21444 146.438
28.9068 22299 149.328
29.0242 22791 150.967
29.1416 23038 151.783
29.259 23720 154.013
29.3764 24115 155.29
29.4939 23514 153.343
29.6113 23492 153.271
29.7288 22593 150.31
29.8463 21253 145.784
29.9638 20041 141.566
30.0812 19153 138.394
30.1987 19476 139.556
30.3162 20139 141.912
30.4337 21296 145.931
30.5512 22096 148.647
30.6687 22057 148.516
30.7862 23254 152.493
30.9037 22877 151.251
31.0212 23381 152.908
31.1387 23314 152.689
31.2562 23279 152.575
31.3737 22624 150.413
31.4912 22312 149.372
31.6087 21810 147.682
31.7262 21369 146.181
31.8436 21283 145.887
31.9611 20478 143.101
32.0785 20297 142.468
32.1959 20824 144.305
32.3134 21199 145.599
32.4308 21543 146.775
32.5482 22326 149.419
32.6655 22849 151.159
32.7829 23353 152.817
32.9002 23217 152.371
33.0176 23386 152.925
33.1349 23316 152.696
33.2522 23218 152.375
33.3694 22062 148.533
33.4867 20766 144.104
33.6039 19348 139.097
33.7211 18688 136.704
33.8383 18139 134.681
33.9554 19088 138.159
34.0725 20107 141.799
34.1896 20614 143.576
34.3067 21262 145.815
34.4237 21712 147.35
34.5407 22409 149.696
34.6577 22199 148.993
34.7746 22019 148.388
34.8915 22218 149.057
35.0084 21719 147.374
35.1252 21628 147.065
35.242 21268 145.836
35.3587 20734 143.993
35.4755 20891 144.537
35.5921 20122 141.852
35.7088 19759 140.567
35.8254 19481 139.574
35.9419 19789 140.673
36.0584 20344 142.632
36.1749 20859 144.426
36.2913 21357 146.14
36.4077 21867 147.875
36.524 22200 148.997
36.6403 22382 149.606
36.7565 22326 149.419
36.8727 22104 148.674
36.9889 21021 144.986
37.1049 19978 141.344
37.221 0 1
37.3369 0 1
37.4529 0 1
37.5687 0 1
37.6845 0 1
37.8003 0 1
37.916 0 1
38.0316 0 1
38.1472 0 1
40.5851 0 1
40.7008 0 1
40.8164 0 1
40.9322 0 1
41.048 0 1
41.1639 0 1
41.2798 0 1
41.3958 0 1
41.5118 0 1
41.6279 0 1
41.744 17008 130.415
41.8602 18268 135.159
41.9765 18662 136.609
42.0928 18672 136.646
42.2091 18121 134.614
42.3255 16686 129.174
42.4419 15316 123.758
42.5584 14592 120.797
42.675 14330 119.708
42.7915 14879 121.98
42.9081 15620 124.98
43.0248 16358 127.898
43.1415 16744 129.399
43.2582 17071 130.656
43.375 17121 130.847
43.4918 17494 132.265
43.6087 17785 133.36
43.7256 17515 132.344
43.8425 17200 131.149
43.9595 16815 129.673
44.0765 16603 128.853
44.1935 16432 128.187
44.3106 16064 126.744
44.4277 15350 123.895
44.5448 14886 122.008
44.6619 14285 119.52
44.7791 14270 119.457
44.8963 14265 119.436
45.0136 14843 121.832
45.1308 14999 122.47
45.2481 15339 123.851
45.3654 15100 122.882
45.4827 15289 123.649
45.6001 14994 122.45
45.7174 14700 121.244
45.8348 13762 117.312
45.9522 12637 112.414
46.0697 11747 108.384
46.1871 10940 104.594
46.3046 11236 106
46.422 11755 108.42
46.5395 12495 111.781
46.657 12908 113.613
46.7745 12900 113.578
46.892 13203 114.904
47.0096 13420 115.845
47.1271 13260 115.152
47.2446 13399 115.754
47.3622 13380 115.672
47.4797 13366 115.611
47.5973 13210 114.935
47.7149 12644 112.446
47.8324 12785 113.071
47.95 12199 110.449
48.0675 11791 108.586
48.1851 11633 107.856
48.3027 11517 107.317
48.4202 11382 106.686
48.5378 12039 109.722
48.6554 12240 110.635
48.7729 12897 113.565
48.8904 12949 113.794
49.008 12821 113.23
49.1255 12795 113.115
49.243 12101 110.005
49.3605 11583 107.624
49.478 10645 103.175
49.5955 9892 99.4585
49.713 9620 98.0816
49.8304 9592 97.9388
49.9479 10515 102.543
50.0653 11371 106.635
50.1827 11768 108.48
50.3001 12576 112.143
50.4175 12672 112.57
50.5348 13077 114.355
50.6521 13487 116.134
50.7694 13941 118.072
50.8867 13956 118.136
51.004 14138 118.903
51.1212 14191 119.126
51.2384 14176 119.063
51.3556 14355 119.812
51.4727 14413 120.054
51.5899 13793 117.444
51.707 13921 117.987
51.824 14019 118.402
51.9411 14537 120.569
52.0581 14722 121.334
52.175 15582 124.828
52.2919 16432 128.187
52.4088 16802 129.623
52.5257 16664 129.089
52.6425 16756 129.445
52.7593 16382 127.992
52.876 15877 126.004
52.9927 14865 121.922
53.1094 13748 117.252
53.226 12836 113.296
53.3426 12376 111.247
53.4591 12839 113.309
53.5756 13755 117.282
53.692 14992 122.442
53.8084 16101 126.89
53.9248 16671 129.116
54.0411 17144 130.935
54.1573 17484 132.227
54.2735 0 1
54.3896 0 1
54.5057 0 1
54.6217 0 1
54.7377 0 1
54.8537 0 1
54.9695 0 1
55.0853 0 1
55.2011 0 1
55.3168 0 1
55.4324 0 1
57.824 0 1
57.9396 0 1
58.0553 0 1
58.1711 0 1
58.2869 0 1
58.4028 0 1
58.5187 0 1
58.6347 0 1
58.7508 0 1
58.8669 0 1
58.983 18507 136.04
59.0992 20100 141.774
59.2155 20677 143.795
59.3318 21008 144.941
59.4482 21556 146.82
59.5646 21882 147.926
59.681 22099 148.657
59.7975 22246 149.151
59.9141 22112 148.701
60.0306 22047 148.482
60.1473 21156 145.451
60.2639 20607 143.551
60.3807 19866 140.947
60.4974 19582 139.936
60.6142 19216 138.622
60.731 19847 140.879
60.8479 20430 142.934
60.9648 20892 144.541
61.0818 21246 145.76
61.1987 20871 144.468
61.3158 20702 143.882
61.4328 20294 142.457
61.5499 18867 137.357
61.667 17236 131.286
61.7841 16162 127.13
61.9013 15247 123.479
62.0185 15059 122.715
62.1357 15749 125.495
62.253 17058 130.606
62.3702 17952 133.985
62.4875 18939 137.619
62.6049 19656 140.2
62.7222 19899 141.064
62.8396 20632 143.638
62.9569 21077 145.179
63.0743 21245 145.757
63.1918 21115 145.31
63.3092 21416 146.342
63.4267 21053 145.097
63.5441 20603 143.537
63.6616 20247 142.292
63.7791 19746 140.52
63.8966 19116 138.261
64.0142 18461 135.871
64.1317 18223 134.993
64.2492 18926 137.572
64.3668 19766 140.592
64.4843 20046 141.584
64.6019 20026 141.513
64.7195 20237 142.257
64.837 20143 141.926
64.9546 19708 140.385
65.0722 18809 137.146
65.1898 17273 131.427
65.3074 16088 126.838
65.4249 14492 120.383
65.5425 14229 119.285
65.6601 14340 119.75
65.7777 15435 124.238
65.8952 16632 128.965
66.0128 17702 133.049
66.1304 18543 136.173
66.2479 19231 138.676
66.3655 19713 140.403
66.483 20167 142.011
66.6005 20688 143.833
66.718 20754 144.062
66.8355 21183 145.544
66.953 21076 145.176
67.0705 20879 144.496
67.1879 20306 142.499
67.3054 19950 141.244
67.4228 19574 139.907
67.5402 18370 135.536
67.6576 17574 132.567
67.7749 17793 133.39
67.8923 18549 136.195
68.0096 19137 138.337
68.1269 19925 141.156
68.2442 20307 142.503
68.3614 20307 142.503
68.4787 20329 142.58
68.5958 20120 141.845
68.713 19243 138.719
68.8302 17937 133.929
68.9473 16606 128.864
69.0643 15753 125.511
69.1814 14584 120.764
69.2984 14634 120.971
69.4154 15429 124.214
69.5323 17121 130.847
69.6492 18630 136.492
69.7661 19606 140.021
69.8829 20269 142.369
69.9997 21258 145.801
70.1165 21409 146.318
70.2332 21967 148.213
70.3499 21979 148.253
70.4665 22322 149.405
70.5831 22398 149.66
70.6996 22254 149.178
70.8161 22234 149.111
70.9326 21463 146.503
71.049 20672 143.778
71.1653 19605 140.018
71.2817 19002 137.848
71.3979 18064 134.402
71.5141 17928 133.895
71.6303 18549 136.195
71.7464 18389 135.606
71.8624 0 1
71.9784 0 1
72.0944 0 1
72.2102 0 1
72.3261 0 1
72.4418 0 1
72.5575 0 1
72.6732 0 1
75.1054 0 1
75.2209 0 1
75.3365 0 1
75.4521 0 1
75.5678 0 1
75.6835 0 1
75.7993 0 1
75.9151 0 1
76.031 0 1
76.147 19583 139.939
76.263 20103 141.785
76.3791 19576 139.914
76.4952 18614 136.433
76.6113 18678 136.667
76.7276 19458 139.492
76.8438 20780 144.153
76.9601 21335 146.065
77.0765 21782 147.587
77.1929 21910 148.02
77.3093 21983 148.267
77.4258 21242 145.746
77.5423 19987 141.375
77.6589 18376 135.558
77.7755 17073 130.664
77.8921 15706 125.324
78.0088 14981 122.397
78.1256 14202 119.172
78.2423 14941 122.233
78.3591 16384 128
78.4759 17746 133.214
78.5928 18974 137.746
78.7097 19918 141.131
78.8266 20408 142.857
78.9436 22021 148.395
79.0606 21817 147.706
79.1776 22334 149.446
79.2946 22425 149.75
79.4117 22747 150.821
79.5288 22582 150.273
79.6459 22332 149.439
79.7631 21600 146.969
79.8802 21058 145.114
79.9974 19919 141.135
80.1147 18711 136.788
80.2319 18910 137.514
80.3491 19396 139.27
80.4664 20641 143.67
80.5837 21216 145.657
80.701 21545 146.782
80.8183 21574 146.881
80.9357 21557 146.823
81.053 21316 146
81.1704 21246 145.76
81.2877 19377 139.201
81.4051 17517 132.352
81.5225 16233 127.409
81.6399 14977 122.381
81.7573 14751 121.454
81.8747 14775 121.552
81.9922 16097 126.874
82.1096 17707 133.068
82.227 19222 138.643
82.3444 20033 141.538
82.4619 21055 145.103
82.5793 21908 148.014
82.6967 21673 147.218
82.8142 22581 150.27
82.9316 22689 150.629
83.049 22720 150.732
83.1664 22659 150.529
83.2838 22081 148.597
83.4012 21830 147.75
83.5186 21059 145.117
83.636 20003 141.432
83.7534 19109 138.235
83.8708 18814 137.164
83.9881 19566 139.879
84.1055 20561 143.391
84.2228 21782 147.587
84.3401 22049 148.489
84.4575 22068 148.553
84.5747 21845 147.801
84.692 21250 145.774
84.8093 19930 141.174
84.9265 18428 135.75
85.0437 17096 130.752
85.1609 15961 126.337
85.2781 15266 123.556
85.3952 14822 121.746
85.5123 16013 126.542
85.6294 17689 133
85.7465 18963 137.706
85.8636 20018 141.485
85.9806 21205 145.619
86.0976 21603 146.98
86.2145 22599 150.33
86.3315 23287 152.601
86.4484 24245 155.708
86.5652 24001 154.923
86.682 23672 153.857
86.7988 24038 155.042
86.9156 23711 153.984
87.0323 22971 151.562
87.149 21983 148.267
87.2657 21060 145.121
87.3823 20292 142.45
87.4988 21012 144.955
87.6154 21555 146.816
87.7318 22703 150.675
87.8483 23110 152.02
87.9647 23229 152.411
88.081 23431 153.072
88.1973 22955 151.509
88.3136 22044 148.472
88.4298 20253 142.313
88.546 18918 137.543
88.6621 17344 131.697
88.7781 16377 127.973
88.8942 0 1
89.0101 0 1
89.126 0 1
89.2419 0 1
89.3577 0 1
89.4734 0 1
89.5891 0 1
89.7047 0 1
89.8203 0 1
89.9358 0 1
92.3269 0 1
92.4424 0 1
92.558 0 1
92.6736 0 1
92.7893 0 1
92.905 0 1
93.0208 0 1
93.1366 0 1
93.2525 0 1
93.3685 0 1
93.4845 0 1
93.6005 19516 139.7
93.7167 18563 136.246
93.8328 17502 132.295
93.949 16807 129.642
94.0653 16228 127.389
94.1816 16212 127.326
94.2979 16716 129.29
94.4143 18013 134.213
94.5307 18938 137.615
94.6472 20140 141.915
94.7637 21006 144.934
94.8803 21533 146.741
94.9969 22357 149.523
95.1135 23024 151.737
95.2302 23280 152.578
95.3469 23649 153.782
95.4637 23882 154.538
95.5805 24065 155.129
95.6973 23808 154.298
95.8142 23597 153.613
95.9311 23395 152.954
96.048 22679 150.595
96.1649 21549 146.796
96.2819 20749 144.045
96.3989 20734 143.993
96.516 21528 146.724
96.633 22244 149.144
96.7501 23035 151.773
96.8673 23464 153.18
96.9844 23233 152.424
97.1016 22958 151.519
97.2188 22010 148.358
97.336 20546 143.339
97.4532 19613 140.046
97.5704 18165 134.778
97.6877 17183 131.084
97.805 16529 128.565
97.9223 16141 127.047
98.0396 16510 128.491
98.1569 17790 133.379
98.2743 18993 137.815
98.3916 19799 140.709
98.509 20445 142.986
98.6264 21209 145.633
98.7438 21786 147.601
98.8612 22835 151.113
98.9786 23117 152.043
99.096 23251 152.483
99.2134 23368 152.866
99.3308 23194 152.296
99.4482 23250 152.48
99.5656 22883 151.271
99.6831 22044 148.472
99.8005 21005 144.931
99.9179 20825 144.309
100.035 20487 143.133
100.153 21118 145.32
100.27 22346 149.486
100.388 22292 149.305
100.505 22323 149.409
100.622 22598 150.326
100.74 22266 149.218
100.857 21451 146.462
100.975 20482 143.115
101.092 19152 138.391
101.209 17971 134.056
101.327 16759 129.457
101.444 16435 128.199
101.561 16258 127.507
101.679 17196 131.134
101.796 18470 135.904
101.913 19757 140.56
102.03 20927 144.662
102.148 21758 147.506
102.265 21012 144.955
102.382 24978 158.044
102.499 23872 154.506
102.616 24124 155.319
102.733 24624 156.92
102.851 24659 157.032
102.968 24957 157.978
103.085 24533 156.63
103.202 24005 154.935
103.319 23068 151.882
103.436 21941 148.125
103.552 21759 147.509
103.669 22672 150.572
103.786 24136 155.358
103.903 24535 156.637
104.02 24578 156.774
104.137 25047 158.262
104.253 24557 156.707
104.37 23485 153.248
104.487 22595 150.316
104.603 20408 142.857
104.72 19035 137.967
104.836 18615 136.437
104.953 17755 133.248
105.069 17765 133.285
105.186 19108 138.232
105.302 20510 143.213
105.418 21987 148.28
105.535 22839 151.126
105.651 23614 153.668
105.767 24035 155.032
105.883 24644 156.984
105.999 25254 158.915
106.115 0 1
106.231 0 1
106.347 0 1
106.463 0 1
106.579 0 1
106.694 0 1
106.81 0 1
106.926 0 1
107.041 0 1
107.157 0 1
109.576 0 1
109.692 0 1
109.807 0 1
109.923 0 1
110.039 0 1
110.155 0 1
110.27 0 1
110.386 0 1
110.502 0 1
110.618 19938 141.202
110.735 21097 145.248
110.851 21387 146.243
110.967 22009 148.354
111.083 22208 149.023
111.199 22420 149.733
111.316 22971 151.562
111.432 22699 150.662
111.549 22599 150.33
111.665 21524 146.711
111.782 20828 144.319
111.898 19561 139.861
112.015 19266 138.802
112.132 19584 139.943
112.248 20763 144.094
112.365 20935 144.689
112.482 21665 147.19
112.599 20504 143.192
112.716 20254 142.317
112.832 19782 140.648
112.949 18959 137.692
113.066 17389 131.867
113.183 16154 127.098
113.3 15456 124.322
113.417 14752 121.458
113.534 13972 118.203
113.652 14407 120.029
113.769 15378 124.008
113.886 15892 126.063
114.003 16443 128.23
114.12 17160 130.996
114.238 17383 131.845
114.355 17762 133.274
114.472 18276 135.189
114.589 17724 133.132
114.707 18143 134.696
114.824 17889 133.75
114.942 18200 134.907
115.059 18059 134.384
115.176 17508 132.318
115.294 16637 128.984
115.411 15869 125.972
115.529 15320 123.774
115.646 15306 123.717
115.764 15612 124.948
115.881 16193 127.252
115.999 15923 126.186
116.116 15889 126.052
116.234 15765 125.559
116.351 15403 124.109
116.469 14683 121.173
116.586 13620 116.705
116.704 12896 113.561
116.821 12274 110.788
116.939 11752 108.407
117.056 11367 106.616
117.174 11047 105.105
117.291 11469 107.093
117.409 11965 109.385
117.526 12905 113.6
117.644 13100 114.455
117.761 13665 116.897
117.879 13926 118.008
117.996 13990 118.279
118.114 14375 119.896
118.231 14917 122.135
118.349 14695 121.223
118.466 15031 122.601
118.584 14992 122.442
118.701 15142 123.053
118.819 15098 122.874
118.936 14411 120.046
119.053 13841 117.648
119.171 13952 118.119
119.288 13937 118.055
119.405 14408 120.033
119.523 14927 122.176
119.64 15057 122.707
119.757 15205 123.309
119.875 15177 123.195
119.992 15240 123.45
120.109 14783 121.585
120.226 14244 119.348
120.343 13631 116.752
120.46 12935 113.732
120.578 12443 111.548
120.695 12140 110.182
120.812 11861 108.908
120.929 12395 111.333
121.046 13367 115.616
121.163 13756 117.286
121.279 14438 120.158
121.396 14939 122.225
121.513 15359 123.931
121.63 15913 126.147
121.747 16094 126.862
121.863 16384 128
121.98 17011 130.426
122.097 16903 130.012
122.213 17304 131.545
122.33 17584 132.605
122.446 17662 132.898
122.563 17114 130.82
122.679 17025 130.48
122.795 16575 128.744
122.912 16635 128.977
123.028 16774 129.514
123.144 17133 130.893
123.26 17515 132.344
123.377 0 1
123.493 0 1
123.609 0 1
123.725 0 1
123.84 0 1
123.956 0 1
124.072 0 1
124.188 0 1
124.303 0 1
124.419 0 1
126.852 0 1
126.968 0 1
127.083 0 1
127.199 0 1
127.315 0 1
127.431 0 1
127.547 0 1
127.663 0 1
127.779 0 1
127.895 0 1
128.011 0 1
128.127 0 1
128.243 0 1
128.359 19202 138.571
128.476 20211 142.165
128.592 20681 143.809
128.708 20731 143.983
128.825 21259 145.805
128.941 21117 145.317
129.058 20713 143.92
129.174 19909 141.099
129.291 19238 138.701
129.408 18176 134.818
129.524 17395 131.89
129.641 16775 129.518
129.758 16400 128.062
129.875 15818 125.77
129.992 16267 127.542
130.108 16919 130.073
130.225 17103 130.778
130.342 17483 132.223
130.459 17773 133.315
130.576 17762 133.274
130.693 18271 135.17
130.81 18304 135.292
130.928 18204 134.922
131.045 18704 136.763
131.162 18880 137.405
131.279 19398 139.277
131.396 18933 137.597
131.513 18878 137.397
131.631 18107 134.562
131.748 17594 132.642
131.865 17193 131.122
131.983 17837 133.555
132.1 18119 134.607
132.217 18534 136.14
132.335 18320 135.351
132.452 18328 135.381
132.57 18040 134.313
132.687 17188 131.103
132.804 17282 131.461
132.922 16153 127.094
133.039 15261 123.535
133.157 14662 121.087
133.274 14100 118.743
133.392 13656 116.859
133.509 13533 116.331
133.627 14104 118.76
133.744 14225 119.269
133.862 14551 120.628
133.979 14968 122.344
134.097 14611 120.876
134.214 15189 123.244
134.332 14666 121.103
134.449 15087 122.829
134.567 15080 122.801
134.684 15210 123.329
134.802 15100 122.882
134.919 15049 122.674
135.037 14843 121.832
135.154 14682 121.169
135.272 14048 118.524
135.389 13644 116.808
135.507 13440 115.931
135.624 13813 117.529
135.742 14115 118.807
135.859 14366 119.858
135.977 13953 118.123
136.094 13681 116.966
136.211 13508 116.224
136.329 12889 113.53
136.446 12606 112.276
136.564 11999 109.54
136.681 11481 107.149
136.798 11111 105.409
136.915 10839 104.111
137.033 10214 101.064
137.15 10511 102.523
137.267 11054 105.138
137.384 11198 105.821
137.502 11423 106.878
137.619 11462 107.061
137.736 12004 109.563
137.853 11673 108.042
137.97 11951 109.321
138.087 12370 111.221
138.204 12697 112.681
138.321 12840 113.314
138.438 13082 114.377
138.555 13541 116.366
138.672 13493 116.159
138.788 13383 115.685
138.905 13446 115.957
139.022 13098 114.446
139.139 13603 116.632
139.255 14073 118.63
139.372 14438 120.158
139.488 14694 121.219
139.605 14960 122.311
139.721 15148 123.077
139.838 15109 122.919
139.954 14898 122.057
140.071 14158 118.987
140.187 13879 117.809
140.303 13385 115.694
140.419 13310 115.369
140.535 12900 113.578
140.652 12559 112.067
140.768 0 1
140.884 0 1
141 0 1
141.115 0 1
141.231 0 1
141.347 0 1
141.463 0 1
141.578 0 1
141.694 0 1
144.104 0 1
144.219 0 1
144.335 0 1
144.45 0 1
144.566 0 1
144.682 0 1
144.798 0 1
144.914 0 1
145.03 0 1
145.146 12482 111.723
145.262 12093 109.968
145.378 11906 109.115
145.494 11570 107.564
145.61 11082 105.271
145.726 10509 102.513
145.842 10684 103.363
145.959 10728 103.576
146.075 11027 105.01
146.192 11032 105.033
146.308 10993 104.848
146.425 11014 104.948
146.541 10834 104.087
146.658 10853 104.178
146.774 11057 105.152
146.891 10927 104.532
147.008 10991 104.838
147.125 10966 104.719
147.241 11144 105.565
147.358 10948 104.633
147.475 10704 103.46
147.592 10468 102.313
147.709 10490 102.421
147.826 10174 100.866
147.943 10241 101.198
148.06 10430 102.127
148.177 10609 103
148.294 10552 102.723
148.411 10611 103.01
148.528 10379 101.877
148.645 10400 101.98
148.762 9771 98.8484
148.88 9617 98.0663
148.997 9243 96.1405
149.114 8489 92.1358
149.231 8493 92.1575
149.349 8293 91.0659
149.466 8368 91.4768
149.583 8283 91.011
149.701 8487 92.1249
149.818 8525 92.3309
149.935 8559 92.5149
150.053 8717 93.3649
150.17 8702 93.2845
150.287 9063 95.1998
150.405 9122 95.5092
150.522 9298 96.4261
150.64 9191 95.8697
150.757 9344 96.6644
150.875 9762 98.8028
150.992 9675 98.3616
151.11 9721 98.5951
151.227 9337 96.6282
151.344 9288 96.3743
151.462 9295 96.4106
151.579 9525 97.5961
151.697 9842 99.2069
151.814 10083 100.414
151.932 10256 101.272
152.049 10376 101.863
152.167 10355 101.76
152.284 10279 101.385
152.402 9913 99.564
152.519 9951 99.7547
152.636 9546 97.7036
152.754 9504 97.4885
152.871 9376 96.8297
152.989 8985 94.7892
153.106 9026 95.0053
153.223 9081 95.2943
153.341 9394 96.9226
153.458 9738 98.6813
153.575 9901 99.5038
153.693 9858 99.2875
153.81 10148 100.737
153.927 10237 101.178
154.044 10418 102.069
154.162 10629 103.097
154.279 10933 104.561
154.396 11166 105.669
154.513 11435 106.935
154.63 11708 108.204
154.747 11638 107.88
154.864 11567 107.55
154.981 11301 106.306
155.098 11367 106.616
155.215 11901 109.092
155.332 12013 109.604
155.449 12459 111.62
155.566 12314 110.968
155.683 12693 112.663
155.8 12697 112.681
155.917 12725 112.805
156.033 12321 111
156.15 0 1
156.267 0 1
156.383 0 1
156.5 0 1
156.617 0 1
156.733 0 1
156.85 0 1
156.966 0 1
157.082 0 1
157.199 0 1
157.315 0 1
157.431 0 1
157.547 0 1
157.664 0 1
157.78 0 1
157.896 0 1
158.012 0 1
158.128 0 1
158.244 0 1
158.359 0 1
158.475 0 1
158.591 0 1
158.706 0 1
