
6.15755 0 1
6.2731 0 1
6.3887 0 1
6.50437 0 1
6.62009 0 1
6.73587 0 1
6.8517 0 1
6.96759 0 1
7.08353 0 1
7.19952 0 1
7.31557 0 1
7.43166 0 1
7.54781 0 1
7.664 0 1
7.78024 0 1
7.89653 0 1
8.01286 0 1
8.12924 0 1
8.24567 0 1
8.36213 0 1
8.47864 0 1
8.59519 0 1
8.71178 0 1
8.82841 0 1
8.94508 0 1
9.06179 0 1
9.17853 0 1
9.29531 0 1
9.41212 0 1
9.52897 0 1
9.64584 0 1
9.76276 0 1
9.8797 0 1
9.99667 0 1
10.1137 0 1
10.2307 0 1
10.3478 0 1
10.4648 0 1
10.5819 0 1
10.6991 0 1
10.8162 0 1
10.9334 0 1
11.0506 0 1
11.1678 0 1
11.285 0 1
11.4023 0 1
11.5196 0 1
11.6369 0 1
11.7542 0 1
11.8715 0 1
11.9888 0 1
12.1062 0 1
12.2235 0 1
12.3409 0 1
12.4582 0 1
12.5756 0 1
12.693 0 1
12.8104 0 1
12.9278 0 1
13.0452 0 1
13.1626 0 1
13.28 0 1
13.3974 0 1
13.5149 0 1
13.6323 0 1
13.7497 0 1
13.8671 0 1
13.9845 0 1
14.1019 0 1
14.2193 0 1
14.3367 0 1
14.4541 0 1
14.5714 0 1
14.6888 0 1
14.8062 0 1
14.9235 0 1
15.0408 0 0
15.1581 0 0
15.2755 0 0
15.3927 0 0
15.51 0 0
15.6273 0 0
15.7445 0 0
15.8617 0 0
15.9789 0 0
16.0961 0 0
16.2132 0 0
16.3304 0 0
16.4475 0 0
16.5646 0 0
16.6816 0 0
16.7986 0 0
16.9156 0 0
17.0326 0 0
17.1496 0 0
17.2665 0 0
17.3833 0 0
17.5002 0 0
17.617 0 0
17.7338 0 0
17.8505 0 0
17.9672 0 0
18.0839 0 0
18.2005 0 0
18.3171 0 0
18.4337 0 0
18.5502 0 0
18.6666 0 0
18.7831 0 0
18.8994 0 0
19.0158 0 0
19.1321 0 0
19.2483 0 0
19.3645 0 0
19.4806 0 0
19.5967 0 0
19.7128 0 0
19.8288 0 0
19.9447 0 0
20.0606 0 1
20.1764 0 1
20.2922 0 1
20.4079 0 1
20.5236 0 1
20.6392 0 1
20.7548 0 1
20.8702 0 1
23.3078 0 1
23.4233 0 1
23.539 0 1
23.6547 0 1
23.7704 0 1
23.8862 0 1
24.0021 0 1
24.118 0 1
24.234 0 1
24.35 0 1
24.4661 1446 38.0263
24.5822 1400 37.4166
24.6984 1399 37.4032
24.8146 1254 35.4119
24.9309 1289 35.9026
25.0472 1243 35.2562
25.1636 1256 35.4401
25.28 1292 35.9444
25.3965 1368 36.9865
25.513 1434 37.8682
25.6296 1521 39
25.7462 1693 41.1461
25.8628 1618 40.2244
25.9795 1654 40.6694
26.0962 1617 40.2119
26.213 1599 39.9875
26.3298 1559 39.4842
26.4466 1607 40.0874
26.5635 1600 40
26.6804 1445 38.0132
26.7973 1446 38.0263
26.9143 1429 37.8021
27.0313 1506 38.8072
27.1483 1571 39.6358
27.2653 1588 39.8497
27.3824 1503 38.7685
27.4996 1641 40.5093
27.6167 1515 38.923
27.7339 1622 40.2741
27.8511 1513 38.8973
27.9683 1494 38.6523
28.0855 1439 37.9342
28.2028 1442 37.9737
28.3201 1264 35.5528
28.4374 1245 35.2846
28.5547 1171 34.2199
28.6721 1233 35.1141
28.7894 1328 36.4417
28.9068 1288 35.8887
29.0242 1409 37.5366
29.1416 1434 37.8682
29.259 1530 39.1152
29.3764 1545 39.3065
29.4939 1470 38.3406
29.6113 1564 39.5474
29.7288 1487 38.5616
29.8463 1563 39.5348
29.9638 1525 39.0512
30.0812 1499 38.7169
30.1987 1370 37.0135
30.3162 1421 37.6962
30.4337 1384 37.2022
30.5512 1541 39.2556
30.6687 1551 39.3827
30.7862 1471 38.3536
30.9037 1549 39.3573
31.0212 1510 38.8587
31.1387 1588 39.8497
31.2562 1573 39.6611
31.3737 1560 39.4968
31.4912 1503 38.7685
31.6087 1558 39.4715
31.7262 1423 37.7227
31.8436 1347 36.7015
31.9611 1309 36.1801
32.0785 1236 35.1568
32.1959 1235 35.1426
32.3134 1213 34.8281
32.4308 1284 35.8329
32.5482 1366 36.9594
32.6655 1533 39.1535
32.7829 1531 39.128
32.9002 1495 38.6652
33.0176 1524 39.0384
33.1349 1522 39.0128
33.2522 1563 39.5348
33.3694 1594 39.9249
33.4867 1520 38.9872
33.6039 1499 38.7169
33.7211 1547 39.3319
33.8383 1527 39.0768
33.9554 1477 38.4318
34.0725 1473 38.3797
34.1896 1531 39.128
34.3067 1578 39.724
34.4237 1616 40.1995
34.5407 1548 39.3446
34.6577 1543 39.281
34.7746 1544 39.2938
34.8915 1629 40.3609
35.0084 1622 40.2741
35.1252 1579 39.7366
35.242 1515 38.923
35.3587 1484 38.5227
35.4755 1360 36.8782
35.5921 1319 36.318
35.7088 1225 35
35.8254 1211 34.7994
35.9419 1239 35.1994
36.0584 1272 35.6651
36.1749 1344 36.6606
36.2913 1524 39.0384
36.4077 1519 38.9744
36.524 1495 38.6652
36.6403 1552 39.3954
36.7565 1569 39.6106
36.8727 1546 39.3192
36.9889 1605 40.0625
37.1049 1567 39.5854
37.221 0 1
37.3369 0 1
37.4529 0 1
37.5687 0 1
37.6845 0 1
37.8003 0 1
37.916 0 1
38.0316 0 1
38.1472 0 1
40.5851 0 1
40.7008 0 1
40.8164 0 1
40.9322 0 1
41.048 0 1
41.1639 0 1
41.2798 0 1
41.3958 0 1
41.5118 0 1
41.6279 0 1
41.744 1305 36.1248
41.8602 1372 37.0405
41.9765 1409 37.5366
42.0928 1373 37.054
42.2091 1426 37.7624
42.3255 1421 37.6962
42.4419 1264 35.5528
42.5584 1427 37.7757
42.675 1266 35.5809
42.7915 1263 35.5387
42.9081 1294 35.9722
43.0248 1354 36.7967
43.1415 1383 37.1887
43.2582 1423 37.7227
43.375 1456 38.1576
43.4918 1399 37.4032
43.6087 1417 37.6431
43.7256 1355 36.8103
43.8425 1385 37.2156
43.9595 1355 36.8103
44.0765 1319 36.318
44.1935 1279 35.7631
44.3106 1193 34.5398
44.4277 1068 32.6803
44.5448 892 29.8664
44.6619 928 30.4631
44.7791 997 31.5753
44.8963 1040 32.249
45.0136 1110 33.3167
45.1308 1237 35.171
45.2481 1191 34.5109
45.3654 1268 35.609
45.4827 1237 35.171
45.6001 1235 35.1426
45.7174 1224 34.9857
45.8348 1294 35.9722
45.9522 1214 34.8425
46.0697 1178 34.322
46.1871 1196 34.5832
46.3046 1170 34.2053
46.422 1103 33.2114
46.5395 1180 34.3511
46.657 1163 34.1028
46.7745 1157 34.0147
46.892 1185 34.4238
47.0096 1142 33.7935
47.1271 1162 34.0881
47.2446 1129 33.6006
47.3622 1149 33.8969
47.4797 1085 32.9393
47.5973 1100 33.1662
47.7149 1072 32.7414
47.8324 996 31.5595
47.95 921 30.348
48.0675 825 28.7228
48.1851 706 26.5707
48.3027 734 27.0924
48.4202 832 28.8444
48.5378 939 30.6431
48.6554 951 30.8383
48.7729 1037 32.2025
48.8904 1044 32.311
49.008 1019 31.9218
49.1255 1123 33.5112
49.243 1067 32.665
49.3605 1073 32.7567
49.478 1148 33.8821
49.5955 1103 33.2114
49.713 1186 34.4384
49.8304 1123 33.5112
49.9479 1134 33.6749
50.0653 1175 34.2783
50.1827 1204 34.6987
50.3001 1215 34.8569
50.4175 1201 34.6554
50.5348 1253 35.3977
50.6521 1369 37
50.7694 1288 35.8887
50.8867 1374 37.0675
51.004 1410 37.55
51.1212 1424 37.7359
51.2384 1447 38.0395
51.3556 1332 36.4966
51.4727 1213 34.8281
51.5899 1106 33.2566
51.707 1051 32.4191
51.824 1059 32.5423
51.9411 1260 35.4965
52.0581 1329 36.4555
52.175 1567 39.5854
52.2919 1603 40.0375
52.4088 1627 40.3361
52.5257 1735 41.6533
52.6425 1744 41.7612
52.7593 1814 42.5911
52.876 1842 42.9185
52.9927 1815 42.6028
53.1094 1869 43.2319
53.226 1780 42.19
53.3426 1795 42.3674
53.4591 1814 42.5911
53.5756 1778 42.1663
53.692 1816 42.6146
53.8084 1880 43.359
53.9248 1926 43.8862
54.0411 1959 44.2606
54.1573 2044 45.2106
54.2735 0 1
54.3896 0 1
54.5057 0 1
54.6217 0 1
54.7377 0 1
54.8537 0 1
54.9695 0 1
55.0853 0 1
55.2011 0 1
55.3168 0 1
55.4324 0 1
57.824 0 1
57.9396 0 1
58.0553 0 1
58.1711 0 1
58.2869 0 1
58.4028 0 1
58.5187 0 1
58.6347 0 1
58.7508 0 1
58.8669 0 1
58.983 2644 51.4198
59.0992 2809 53
59.2155 2813 53.0377
59.3318 2881 53.6749
59.4482 2854 53.4228
59.5646 2813 53.0377
59.681 2823 53.1319
59.7975 2768 52.6118
59.9141 2621 51.1957
60.0306 2583 50.8232
60.1473 2358 48.5592
60.2639 2160 46.4758
60.3807 2054 45.3211
60.4974 2037 45.1331
60.6142 2208 46.9894
60.731 2450 49.4975
60.8479 2678 51.7494
60.9648 2904 53.8888
61.0818 2949 54.3047
61.1987 2915 53.9907
61.3158 3090 55.5878
61.4328 3014 54.8999
61.5499 3068 55.3895
61.667 2980 54.5894
61.7841 2973 54.5252
61.9013 2990 54.6809
62.0185 3052 55.2449
62.1357 2861 53.4883
62.253 2944 54.2586
62.3702 2875 53.619
62.4875 3007 54.8361
62.6049 3123 55.8838
62.7222 3163 56.2406
62.8396 3177 56.3649
62.9569 3229 56.8243
63.0743 3029 55.0364
63.1918 3022 54.9727
63.3092 2956 54.3691
63.4267 3006 54.827
63.5441 2738 52.3259
63.6616 2610 51.0882
63.7791 2212 47.0319
63.8966 2065 45.4423
64.0142 2118 46.0217
64.1317 2370 48.6826
64.2492 2622 51.2055
64.3668 2914 53.9815
64.4843 3119 55.848
64.6019 3199 56.5597
64.7195 3199 56.5597
64.837 3304 57.4804
64.9546 3246 56.9737
65.0722 3237 56.8946
65.1898 3363 57.9914
65.3074 3243 56.9473
65.4249 3253 57.0351
65.5425 3234 56.8683
65.6601 3251 57.0175
65.7777 3181 56.4004
65.8952 3184 56.4269
66.0128 3211 56.6657
66.1304 3288 57.3411
66.2479 3397 58.2838
66.3655 3398 58.2924
66.483 3504 59.1946
66.6005 3501 59.1692
66.718 3415 58.438
66.8355 3332 57.7235
66.953 3271 57.1927
67.0705 3126 55.9106
67.1879 3009 54.8544
67.3054 2725 52.2015
67.4228 2495 49.95
67.5402 2209 47
67.6576 2400 48.9898
67.7749 2598 50.9706
67.8923 3004 54.8088
68.0096 3290 57.3585
68.1269 3452 58.7537
68.2442 3639 60.3241
68.3614 3687 60.7207
68.4787 3719 60.9836
68.5958 3684 60.696
68.713 3727 61.0492
68.8302 3802 61.6604
68.9473 3849 62.0403
69.0643 3791 61.5711
69.1814 3771 61.4085
69.2984 3698 60.8112
69.4154 3760 61.3188
69.5323 3890 62.3699
69.6492 3876 62.2575
69.7661 3817 61.7819
69.8829 3849 62.0403
69.9997 4032 63.498
70.1165 4108 64.0937
70.2332 4178 64.6375
70.3499 4161 64.5058
70.4665 4008 63.3088
70.5831 3852 62.0645
70.6996 3668 60.564
70.8161 3562 59.6825
70.9326 3384 58.1722
71.049 3014 54.8999
71.1653 2657 51.5461
71.2817 2482 49.8197
71.3979 2630 51.2835
71.5141 2913 53.9722
71.6303 3157 56.1872
71.7464 3194 56.5155
71.8624 0 1
71.9784 0 1
72.0944 0 1
72.2102 0 1
72.3261 0 1
72.4418 0 1
72.5575 0 1
72.6732 0 1
75.1054 0 1
75.2209 0 1
75.3365 0 1
75.4521 0 1
75.5678 0 1
75.6835 0 1
75.7993 0 1
75.9151 0 1
76.031 0 1
76.147 3385 58.1808
76.263 3510 59.2453
76.3791 3155 56.1694
76.4952 2899 53.8424
76.6113 2755 52.4881
76.7276 2993 54.7083
76.8438 3238 56.9034
76.9601 3715 60.9508
77.0765 4090 63.9531
77.1929 4274 65.3758
77.3093 4265 65.307
77.4258 4385 66.2193
77.5423 4263 65.2917
77.6589 4369 66.0984
77.7755 4419 66.4756
77.8921 4518 67.2161
78.0088 4336 65.8483
78.1256 4165 64.5368
78.2423 4140 64.3428
78.3591 4235 65.0769
78.4759 4276 65.3911
78.5928 4146 64.3894
78.7097 4151 64.4283
78.8266 4444 66.6633
78.9436 4126 64.2339
79.0606 4252 65.2074
79.1776 4278 65.4064
79.2946 4355 65.9924
79.4117 4391 66.2646
79.5288 4210 64.8845
79.6459 4047 63.616
79.7631 3783 61.5061
79.8802 3569 59.7411
79.9974 3385 58.1808
80.1147 2971 54.5069
80.2319 2857 53.4509
80.3491 2762 52.5547
80.4664 3208 56.6392
80.5837 3728 61.0574
80.701 3883 62.3137
80.8183 4218 64.9461
80.9357 4370 66.106
81.053 4328 65.7875
81.1704 4203 64.8305
81.2877 4207 64.8614
81.4051 4247 65.169
81.5225 4309 65.643
81.6399 4057 63.6946
81.7573 4278 65.4064
81.8747 4078 63.8592
81.9922 4067 63.773
82.1096 4121 64.195
82.227 3953 62.8729
82.3444 4017 63.3798
82.4619 3975 63.0476
82.5793 4049 63.6318
82.6967 4186 64.6993
82.8142 4174 64.6065
82.9316 4088 63.9375
83.049 4188 64.7148
83.1664 3941 62.7774
83.2838 3869 62.2013
83.4012 3555 59.6238
83.5186 3483 59.0169
83.636 3033 55.0727
83.7534 2829 53.1883
83.8708 2522 50.2195
83.9881 2691 51.8748
84.1055 2876 53.6284
84.2228 3216 56.7098
84.3401 3610 60.0833
84.4575 3892 62.3859
84.5747 3976 63.0555
84.692 4117 64.1639
84.8093 4097 64.0078
84.9265 3962 62.9444
85.0437 4172 64.591
85.1609 4150 64.4205
85.2781 4123 64.2106
85.3952 4088 63.9375
85.5123 4175 64.6142
85.6294 4069 63.7887
85.7465 3995 63.206
85.8636 4207 64.8614
85.9806 4151 64.4283
86.0976 4249 65.1844
86.2145 4226 65.0077
86.3315 4223 64.9846
86.4484 4383 66.2042
86.5652 4396 66.3023
86.682 4426 66.5282
86.7988 4301 65.582
86.9156 4190 64.7302
87.0323 3935 62.7296
87.149 3719 60.9836
87.2657 3451 58.7452
87.3823 3181 56.4004
87.4988 3076 55.4617
87.6154 3273 57.2101
87.7318 3651 60.4235
87.8483 4014 63.3561
87.9647 4683 68.4324
88.081 4643 68.1396
88.1973 4740 68.8477
88.3136 4842 69.5845
88.4298 4720 68.7023
88.546 4790 69.2098
88.6621 4719 68.695
88.7781 4717 68.6804
88.8942 0 1
89.0101 0 1
89.126 0 1
89.2419 0 1
89.3577 0 1
89.4734 0 1
89.5891 0 1
89.7047 0 1
89.8203 0 1
89.9358 0 1
92.3269 0 1
92.4424 0 1
92.558 0 1
92.6736 0 1
92.7893 0 1
92.905 0 1
93.0208 0 1
93.1366 0 1
93.2525 0 1
93.3685 0 1
93.4845 0 1
93.6005 4718 68.6877
93.7167 4738 68.8331
93.8328 4697 68.5347
93.949 4697 68.5347
94.0653 4811 69.3614
94.1816 4685 68.4471
94.2979 4767 69.0435
94.4143 4786 69.1809
94.5307 4667 68.3154
94.6472 4740 68.8477
94.7637 4651 68.1982
94.8803 4707 68.6076
94.9969 4624 68
95.1135 4850 69.6419
95.2302 4633 68.0661
95.3469 4785 69.1737
95.4637 4796 69.2532
95.5805 4886 69.8999
95.6973 4912 70.0857
95.8142 4780 69.1375
95.9311 4726 68.7459
96.048 4585 67.7126
96.1649 4359 66.0227
96.2819 3951 62.857
96.3989 3758 61.3025
96.516 3373 58.0775
96.633 3231 56.8419
96.7501 3281 57.28
96.8673 3672 60.597
96.9844 4135 64.304
97.1016 4446 66.6783
97.2188 4868 69.7711
97.336 5041 71
97.4532 5033 70.9436
97.5704 5027 70.9013
97.6877 4886 69.8999
97.805 5011 70.7884
97.9223 5026 70.8943
98.0396 5021 70.859
98.1569 4820 69.4262
98.2743 4983 70.5904
98.3916 5053 71.0845
98.509 4947 70.3349
98.6264 4793 69.2315
98.7438 5053 71.0845
98.8612 5074 71.232
98.9786 5071 71.211
99.096 4919 70.1356
99.2134 5184 72
99.3308 5047 71.0422
99.4482 5061 71.1407
99.5656 5252 72.4707
99.6831 4898 69.9857
99.8005 4688 68.469
99.9179 4420 66.4831
100.035 4010 63.3246
100.153 3704 60.8605
100.27 3562 59.6825
100.388 3703 60.8523
100.505 4255 65.2304
100.622 4758 68.9783
100.74 5030 70.9225
100.857 5141 71.7008
100.975 5240 72.3878
101.092 5305 72.8354
101.209 5278 72.6498
101.327 5348 73.13
101.444 5198 72.0972
101.561 5175 71.9375
101.679 5195 72.0763
101.796 5354 73.171
101.913 5229 72.3118
102.03 5243 72.4086
102.148 5172 71.9166
102.265 5616 74.94
102.382 5187 72.0208
102.499 5378 73.3348
102.616 5275 72.6292
102.733 5495 74.1283
102.851 5591 74.773
102.968 5410 73.5527
103.085 5514 74.2563
103.202 5381 73.3553
103.319 5109 71.4773
103.436 4784 69.1665
103.552 4339 65.8711
103.669 3809 61.7171
103.786 3691 60.7536
103.903 3873 62.2334
104.02 4467 66.8356
104.137 4953 70.3776
104.253 5611 74.9066
104.37 5435 73.7225
104.487 5689 75.4255
104.603 5646 75.1399
104.72 5793 76.1118
104.836 5742 75.776
104.953 5696 75.4718
105.069 5726 75.6703
105.186 5793 76.1118
105.302 5769 75.9539
105.418 5722 75.6439
105.535 5633 75.0533
105.651 5843 76.4395
105.767 5804 76.184
105.883 5759 75.8881
105.999 5794 76.1183
106.115 0 1
106.231 0 1
106.347 0 1
106.463 0 1
106.579 0 1
106.694 0 1
106.81 0 1
106.926 0 1
107.041 0 1
107.157 0 1
109.576 0 1
109.692 0 1
109.807 0 1
109.923 0 1
110.039 0 1
110.155 0 1
110.27 0 1
110.386 0 1
110.502 0 1
110.618 5376 73.3212
110.735 5443 73.7767
110.851 5604 74.8599
110.967 5553 74.5185
111.083 5454 73.8512
111.199 5575 74.6659
111.316 5591 74.773
111.432 5570 74.6324
111.549 5434 73.7157
111.665 5296 72.7736
111.782 5062 71.1477
111.898 4652 68.2056
112.015 4304 65.6049
112.132 3847 62.0242
112.248 3605 60.0417
112.365 3833 61.9112
112.482 4146 64.3894
112.599 4500 67.082
112.716 5085 71.3092
112.832 5161 71.8401
112.949 5186 72.0139
113.066 5166 71.8749
113.183 5219 72.2426
113.3 5157 71.8123
113.417 5246 72.4293
113.534 5091 71.3512
113.652 5001 70.7177
113.769 4956 70.3989
113.886 4947 70.3349
114.003 4880 69.857
114.12 4914 70.0999
114.238 4934 70.2424
114.355 4834 69.527
114.472 4881 69.8642
114.589 4745 68.884
114.707 4828 69.4838
114.824 4802 69.2965
114.942 4857 69.6922
115.059 4836 69.5414
115.176 4779 69.1303
115.294 4671 68.3447
115.411 4507 67.1342
115.529 4178 64.6375
115.646 3724 61.0246
115.764 3427 58.5406
115.881 3345 57.836
115.999 3768 61.384
116.116 4045 63.6003
116.234 4481 66.9403
116.351 4780 69.1375
116.469 4847 69.6204
116.586 4910 70.0714
116.704 5036 70.9648
116.821 4796 69.2532
116.939 4901 70.0071
117.056 4885 69.8928
117.174 4847 69.6204
117.291 4751 68.9275
117.409 5000 70.7107
117.526 4894 69.9571
117.644 4977 70.5479
117.761 4862 69.728
117.879 4870 69.7854
117.996 4971 70.5053
118.114 4804 69.3109
118.231 4932 70.2282
118.349 4817 69.4046
118.466 4890 69.9285
118.584 5002 70.7248
118.701 4985 70.6045
118.819 4982 70.5833
118.936 4657 68.2422
119.053 4516 67.2012
119.171 4142 64.3584
119.288 3699 60.8194
119.405 3390 58.2237
119.523 3375 58.0948
119.64 3719 60.9836
119.757 4057 63.6946
119.875 4525 67.2681
119.992 4713 68.6513
120.109 4873 69.8069
120.226 4890 69.9285
120.343 4855 69.6778
120.46 4793 69.2315
120.578 4824 69.455
120.695 4875 69.8212
120.812 4836 69.5414
120.929 4812 69.3686
121.046 4822 69.4406
121.163 4859 69.7065
121.279 4715 68.6659
121.396 4837 69.5485
121.513 4858 69.6994
121.63 4837 69.5485
121.747 4704 68.5857
121.863 4784 69.1665
121.98 4771 69.0724
122.097 4707 68.6076
122.213 4792 69.2243
122.33 4773 69.0869
122.446 4751 68.9275
122.563 4650 68.1909
122.679 4537 67.3573
122.795 4329 65.7951
122.912 3948 62.8331
123.028 3721 61
123.144 3364 58
123.26 3364 58
123.377 0 1
123.493 0 1
123.609 0 1
123.725 0 1
123.84 0 1
123.956 0 1
124.072 0 1
124.188 0 1
124.303 0 1
124.419 0 1
126.852 0 1
126.968 0 1
127.083 0 1
127.199 0 1
127.315 0 1
127.431 0 1
127.547 0 1
127.663 0 1
127.779 0 1
127.895 0 1
128.011 0 1
128.127 0 1
128.243 0 1
128.359 3874 62.2415
128.476 3779 61.4736
128.592 3973 63.0317
128.708 4544 67.4092
128.825 4935 70.2496
128.941 5277 72.643
129.058 5365 73.2462
129.174 5528 74.3505
129.291 5274 72.6223
129.408 5293 72.753
129.524 5444 73.7835
129.641 5407 73.5323
129.758 5435 73.7225
129.875 5290 72.7324
129.992 5251 72.4638
130.108 5069 71.1969
130.225 5137 71.6729
130.342 5297 72.7805
130.459 4904 70.0286
130.576 5322 72.952
130.693 5111 71.4913
130.81 5203 72.1318
130.928 5088 71.3302
131.045 5151 71.7705
131.162 5191 72.0486
131.279 5160 71.8331
131.396 5105 71.4493
131.513 4807 69.3325
131.631 4859 69.7065
131.748 4398 66.3174
131.865 4129 64.2573
131.983 3794 61.5955
132.1 3731 61.0819
132.217 4263 65.2917
132.335 4721 68.7095
132.452 4937 70.2638
132.57 5205 72.1457
132.687 4979 70.562
132.804 5322 72.952
132.922 5161 71.8401
133.039 5082 71.2881
133.157 5181 71.9792
133.274 4960 70.4273
133.392 5008 70.7672
133.509 5118 71.5402
133.627 5171 71.9097
133.744 4989 70.6329
133.862 5095 71.3793
133.979 4996 70.6824
134.097 4940 70.2851
134.214 5052 71.0774
134.332 4882 69.8713
134.449 4957 70.406
134.567 4953 70.3776
134.684 5114 71.5122
134.802 4883 69.8785
134.919 5111 71.4913
135.037 4934 70.2424
135.154 4763 69.0145
135.272 4534 67.335
135.389 4205 64.846
135.507 3802 61.6604
135.624 3603 60.025
135.742 3859 62.1208
135.859 4272 65.3605
135.977 4691 68.4909
136.094 4977 70.5479
136.211 4960 70.4273
136.329 5103 71.4353
136.446 5085 71.3092
136.564 5234 72.3464
136.681 5121 71.5612
136.798 4966 70.4699
136.915 5081 71.2811
137.033 4996 70.6824
137.15 5004 70.739
137.267 5041 71
137.384 5062 71.1477
137.502 4924 70.1712
137.619 4827 69.4766
137.736 4864 69.7424
137.853 4858 69.6994
137.97 4783 69.1592
138.087 5058 71.1196
138.204 4911 70.0785
138.321 4934 70.2424
138.438 4962 70.4415
138.555 4922 70.157
138.672 4975 70.5337
138.788 4645 68.1542
138.905 4511 67.164
139.022 4381 66.1891
139.139 4022 63.4192
139.255 3758 61.3025
139.372 3812 61.7414
139.488 4276 65.3911
139.605 4650 68.1909
139.721 4925 70.1783
139.838 5102 71.4283
139.954 5092 71.3583
140.071 4895 69.9643
140.187 5151 71.7705
140.303 4946 70.3278
140.419 5128 71.6101
140.535 4971 70.5053
140.652 4769 69.0579
140.768 0 1
140.884 0 1
141 0 1
141.115 0 1
141.231 0 1
141.347 0 1
141.463 0 1
141.578 0 1
141.694 0 1
144.104 0 1
144.219 0 1
144.335 0 1
144.45 0 1
144.566 0 1
144.682 0 1
144.798 0 1
144.914 0 1
145.03 0 1
145.146 4243 65.1383
145.262 4317 65.7039
145.378 4472 66.873
145.494 4258 65.2534
145.61 4419 66.4756
145.726 4233 65.0615
145.842 4233 65.0615
145.959 4155 64.4593
146.075 4090 63.9531
146.192 4198 64.792
146.308 4019 63.3956
146.425 4065 63.7574
146.541 3978 63.0714
146.658 4036 63.5295
146.774 3973 63.0317
146.891 4203 64.8305
147.008 4183 64.6761
147.125 4089 63.9453
147.241 4194 64.7611
147.358 3946 62.8172
147.475 3774 61.4329
147.592 3673 60.6053
147.709 3263 57.1227
147.826 3008 54.8452
147.943 3145 56.0803
148.06 3422 58.4979
148.177 3707 60.8851
148.294 3959 62.9206
148.411 4077 63.8514
148.528 4206 64.8537
148.645 4081 63.8827
148.762 4122 64.2028
148.88 4119 64.1794
148.997 3943 62.7933
149.114 4282 65.437
149.231 4017 63.3798
149.349 3885 62.3298
149.466 3887 62.3458
149.583 3605 60.0417
149.701 3726 61.041
149.818 3754 61.2699
149.935 3772 61.4166
150.053 3755 61.2781
150.17 3736 61.1228
150.287 3778 61.4654
150.405 3921 62.6179
150.522 3903 62.474
150.64 3944 62.8013
150.757 3901 62.458
150.875 3789 61.5549
150.992 3761 61.327
151.11 3697 60.803
151.227 3659 60.4897
151.344 3118 55.8391
151.462 2925 54.0833
151.579 3054 55.263
151.697 3254 57.0438
151.814 3585 59.8749
151.932 3863 62.153
152.049 3870 62.2093
152.167 3998 63.2297
152.284 4052 63.6553
152.402 4006 63.293
152.519 4037 63.5374
152.636 3935 62.7296
152.754 4004 63.2772
152.871 3803 61.6685
152.989 3832 61.9032
153.106 3728 61.0574
153.223 3731 61.0819
153.341 3791 61.5711
153.458 3601 60.0083
153.575 3512 59.2621
153.693 3682 60.6795
153.81 3737 61.131
153.927 3728 61.0574
154.044 3817 61.7819
154.162 3937 62.7455
154.279 3968 62.9921
154.396 3985 63.1269
154.513 3925 62.6498
154.63 3839 61.9597
154.747 3946 62.8172
154.864 3657 60.4731
154.981 3329 57.6975
155.098 3119 55.848
155.215 3251 57.0175
155.332 3412 58.4123
155.449 3817 61.7819
155.566 4042 63.5767
155.683 4041 63.5689
155.8 3935 62.7296
155.917 4102 64.0469
156.033 4040 63.561
156.15 0 1
156.267 0 1
156.383 0 1
156.5 0 1
156.617 0 1
156.733 0 1
156.85 0 1
156.966 0 1
157.082 0 1
157.199 0 1
157.315 0 1
157.431 0 1
157.547 0 1
157.664 0 1
157.78 0 1
157.896 0 1
158.012 0 1
158.128 0 1
158.244 0 1
158.359 0 1
158.475 0 1
158.591 0 1
158.706 0 1
