
6.15755 0 1
6.2731 0 1
6.3887 0 1
6.50437 0 1
6.62009 0 1
6.73587 0 1
6.8517 0 1
6.96759 0 1
7.08353 0 1
7.19952 0 1
7.31557 0 1
7.43166 0 1
7.54781 0 1
7.664 0 1
7.78024 0 1
7.89653 0 1
8.01286 0 1
8.12924 0 1
8.24567 0 1
8.36213 0 1
8.47864 0 1
8.59519 0 1
8.71178 0 1
8.82841 0 1
8.94508 0 1
9.06179 0 1
9.17853 0 1
9.29531 0 1
9.41212 0 1
9.52897 0 1
9.64584 0 1
9.76276 0 1
9.8797 0 1
9.99667 0 1
10.1137 0 1
10.2307 0 1
10.3478 0 1
10.4648 0 1
10.5819 0 1
10.6991 0 1
10.8162 0 1
10.9334 0 1
11.0506 0 1
11.1678 0 1
11.285 0 1
11.4023 0 1
11.5196 0 1
11.6369 0 1
11.7542 0 1
11.8715 0 1
11.9888 0 1
12.1062 0 1
12.2235 0 1
12.3409 0 1
12.4582 0 1
12.5756 0 1
12.693 0 1
12.8104 0 1
12.9278 0 1
13.0452 0 1
13.1626 0 1
13.28 0 1
13.3974 0 1
13.5149 0 1
13.6323 0 1
13.7497 0 1
13.8671 0 1
13.9845 0 1
14.1019 0 1
14.2193 0 1
14.3367 0 1
14.4541 0 1
14.5714 0 1
14.6888 0 1
14.8062 0 1
14.9235 0 1
15.0408 64 8
15.1581 78 8.83176
15.2755 93 9.64365
15.3927 92 9.59166
15.51 92 9.59166
15.6273 77 8.77496
15.7445 72 8.48528
15.8617 78 8.83176
15.9789 88 9.38083
16.0961 96 9.79796
16.2132 80 8.94427
16.3304 72 8.48528
16.4475 71 8.42615
16.5646 80 8.94427
16.6816 79 8.88819
16.7986 68 8.24621
16.9156 61 7.81025
17.0326 62 7.87401
17.1496 59 7.68115
17.2665 53 7.28011
17.3833 71 8.42615
17.5002 63 7.93725
17.617 64 8
17.7338 80 8.94427
17.8505 58 7.61577
17.9672 73 8.544
18.0839 72 8.48528
18.2005 83 9.11043
18.3171 72 8.48528
18.4337 72 8.48528
18.5502 69 8.30662
18.6666 56 7.48331
18.7831 78 8.83176
18.8994 56 7.48331
19.0158 56 7.48331
19.1321 54 7.34847
19.2483 58 7.61577
19.3645 55 7.4162
19.4806 48 6.9282
19.5967 46 6.78233
19.7128 57 7.54983
19.8288 49 7
19.9447 39 6.245
20.0606 0 1
20.1764 0 1
20.2922 0 1
20.4079 0 1
20.5236 0 1
20.6392 0 1
20.7548 0 1
20.8702 0 1
23.3078 0 1
23.4233 0 1
23.539 0 1
23.6547 0 1
23.7704 0 1
23.8862 0 1
24.0021 0 1
24.118 0 1
24.234 0 1
24.35 0 1
24.4661 36 6
24.5822 52 7.2111
24.6984 45 6.7082
24.8146 51 7.14143
24.9309 63 7.93725
25.0472 51 7.14143
25.1636 58 7.61577
25.28 64 8
25.3965 80 8.94427
25.513 67 8.18535
25.6296 84 9.16515
25.7462 78 8.83176
25.8628 70 8.3666
25.9795 63 7.93725
26.0962 83 9.11043
26.213 65 8.06226
26.3298 69 8.30662
26.4466 62 7.87401
26.5635 62 7.87401
26.6804 53 7.28011
26.7973 64 8
26.9143 42 6.48074
27.0313 60 7.74597
27.1483 58 7.61577
27.2653 47 6.85565
27.3824 74 8.60233
27.4996 59 7.68115
27.6167 58 7.61577
27.7339 68 8.24621
27.8511 63 7.93725
27.9683 60 7.74597
28.0855 65 8.06226
28.2028 59 7.68115
28.3201 69 8.30662
28.4374 69 8.30662
28.5547 55 7.4162
28.6721 75 8.66025
28.7894 66 8.12404
28.9068 78 8.83176
29.0242 65 8.06226
29.1416 73 8.544
29.259 49 7
29.3764 70 8.3666
29.4939 83 9.11043
29.6113 63 7.93725
29.7288 71 8.42615
29.8463 60 7.74597
29.9638 44 6.63325
30.0812 48 6.9282
30.1987 68 8.24621
30.3162 56 7.48331
30.4337 58 7.61577
30.5512 64 8
30.6687 78 8.83176
30.7862 57 7.54983
30.9037 67 8.18535
31.0212 64 8
31.1387 66 8.12404
31.2562 69 8.30662
31.3737 69 8.30662
31.4912 64 8
31.6087 65 8.06226
31.7262 66 8.12404
31.8436 65 8.06226
31.9611 61 7.81025
32.0785 64 8
32.1959 47 6.85565
32.3134 60 7.74597
32.4308 49 7
32.5482 65 8.06226
32.6655 61 7.81025
32.7829 57 7.54983
32.9002 71 8.42615
33.0176 52 7.2111
33.1349 56 7.48331
33.2522 47 6.85565
33.3694 60 7.74597
33.4867 42 6.48074
33.6039 48 6.9282
33.7211 65 8.06226
33.8383 58 7.61577
33.9554 58 7.61577
34.0725 65 8.06226
34.1896 60 7.74597
34.3067 58 7.61577
34.4237 58 7.61577
34.5407 60 7.74597
34.6577 62 7.87401
34.7746 49 7
34.8915 52 7.2111
35.0084 59 7.68115
35.1252 59 7.68115
35.242 58 7.61577
35.3587 51 7.14143
35.4755 52 7.2111
35.5921 59 7.68115
35.7088 53 7.28011
35.8254 55 7.4162
35.9419 54 7.34847
36.0584 52 7.2111
36.1749 41 6.40312
36.2913 48 6.9282
36.4077 65 8.06226
36.524 48 6.9282
36.6403 49 7
36.7565 45 6.7082
36.8727 35 5.91608
36.9889 36 6
37.1049 34 5.83095
37.221 0 1
37.3369 0 1
37.4529 0 1
37.5687 0 1
37.6845 0 1
37.8003 0 1
37.916 0 1
38.0316 0 1
38.1472 0 1
40.5851 0 1
40.7008 0 1
40.8164 0 1
40.9322 0 1
41.048 0 1
41.1639 0 1
41.2798 0 1
41.3958 0 1
41.5118 0 1
41.6279 0 1
41.744 29 5.38516
41.8602 38 6.16441
41.9765 23 4.79583
42.0928 31 5.56776
42.2091 35 5.91608
42.3255 39 6.245
42.4419 36 6
42.5584 51 7.14143
42.675 51 7.14143
42.7915 40 6.32456
42.9081 49 7
43.0248 49 7
43.1415 54 7.34847
43.2582 37 6.08276
43.375 42 6.48074
43.4918 39 6.245
43.6087 49 7
43.7256 55 7.4162
43.8425 35 5.91608
43.9595 23 4.79583
44.0765 48 6.9282
44.1935 54 7.34847
44.3106 43 6.55744
44.4277 53 7.28011
44.5448 42 6.48074
44.6619 39 6.245
44.7791 46 6.78233
44.8963 42 6.48074
45.0136 52 7.2111
45.1308 50 7.07107
45.2481 40 6.32456
45.3654 49 7
45.4827 47 6.85565
45.6001 49 7
45.7174 36 6
45.8348 41 6.40312
45.9522 46 6.78233
46.0697 40 6.32456
46.1871 39 6.245
46.3046 40 6.32456
46.422 41 6.40312
46.5395 51 7.14143
46.657 45 6.7082
46.7745 39 6.245
46.892 56 7.48331
47.0096 49 7
47.1271 37 6.08276
47.2446 36 6
47.3622 39 6.245
47.4797 40 6.32456
47.5973 40 6.32456
47.7149 34 5.83095
47.8324 45 6.7082
47.95 60 7.74597
48.0675 42 6.48074
48.1851 51 7.14143
48.3027 37 6.08276
48.4202 39 6.245
48.5378 55 7.4162
48.6554 40 6.32456
48.7729 51 7.14143
48.8904 46 6.78233
49.008 37 6.08276
49.1255 43 6.55744
49.243 43 6.55744
49.3605 38 6.16441
49.478 40 6.32456
49.5955 40 6.32456
49.713 27 5.19615
49.8304 41 6.40312
49.9479 43 6.55744
50.0653 48 6.9282
50.1827 36 6
50.3001 50 7.07107
50.4175 50 7.07107
50.5348 36 6
50.6521 40 6.32456
50.7694 58 7.61577
50.8867 37 6.08276
51.004 32 5.65685
51.1212 44 6.63325
51.2384 48 6.9282
51.3556 43 6.55744
51.4727 39 6.245
51.5899 41 6.40312
51.707 57 7.54983
51.824 57 7.54983
51.9411 53 7.28011
52.0581 49 7
52.175 35 5.91608
52.2919 46 6.78233
52.4088 40 6.32456
52.5257 53 7.28011
52.6425 44 6.63325
52.7593 45 6.7082
52.876 43 6.55744
52.9927 43 6.55744
53.1094 32 5.65685
53.226 32 5.65685
53.3426 29 5.38516
53.4591 28 5.2915
53.5756 42 6.48074
53.692 35 5.91608
53.8084 38 6.16441
53.9248 41 6.40312
54.0411 27 5.19615
54.1573 30 5.47723
54.2735 0 1
54.3896 0 1
54.5057 0 1
54.6217 0 1
54.7377 0 1
54.8537 0 1
54.9695 0 1
55.0853 0 1
55.2011 0 1
55.3168 0 1
55.4324 0 1
57.824 0 1
57.9396 0 1
58.0553 0 1
58.1711 0 1
58.2869 0 1
58.4028 0 1
58.5187 0 1
58.6347 0 1
58.7508 0 1
58.8669 0 1
58.983 632 25.1396
59.0992 1238 35.1852
59.2155 2280 47.7493
59.3318 3607 60.0583
59.4482 5167 71.8818
59.5646 7065 84.0536
59.681 8678 93.1558
59.7975 10611 103.01
59.9141 12383 111.279
60.0306 13729 117.171
60.1473 14922 122.156
60.2639 15601 124.904
60.3807 15953 126.305
60.4974 15907 126.123
60.6142 15348 123.887
60.731 14602 120.839
60.8479 13757 117.29
60.9648 12765 112.982
61.0818 12079 109.905
61.1987 11377 106.663
61.3158 10660 103.247
61.4328 9687 98.4226
61.5499 8512 92.2605
61.667 8065 89.8053
61.7841 7691 87.6983
61.9013 8375 91.515
62.0185 9388 96.8917
62.1357 10244 101.213
62.253 10390 101.931
62.3702 9575 97.8519
62.4875 8457 91.9619
62.6049 6610 81.3019
62.7222 5139 71.6868
62.8396 4027 63.4586
62.9569 3022 54.9727
63.0743 2625 51.2348
63.1918 2079 45.5961
63.3092 1733 41.6293
63.4267 1362 36.9053
63.5441 1038 32.218
63.6616 770 27.7489
63.7791 627 25.04
63.8966 469 21.6564
64.0142 480 21.9089
64.1317 387 19.6723
64.2492 293 17.1172
64.3668 204 14.2829
64.4843 146 12.083
64.6019 71 8.42615
64.7195 69 8.30662
64.837 52 7.2111
64.9546 52 7.2111
65.0722 53 7.28011
65.1898 57 7.54983
65.3074 44 6.63325
65.4249 30 5.47723
65.5425 41 6.40312
65.6601 48 6.9282
65.7777 43 6.55744
65.8952 39 6.245
66.0128 38 6.16441
66.1304 50 7.07107
66.2479 48 6.9282
66.3655 40 6.32456
66.483 50 7.07107
66.6005 48 6.9282
66.718 40 6.32456
66.8355 55 7.4162
66.953 47 6.85565
67.0705 49 7
67.1879 43 6.55744
67.3054 43 6.55744
67.4228 51 7.14143
67.5402 43 6.55744
67.6576 39 6.245
67.7749 43 6.55744
67.8923 56 7.48331
68.0096 34 5.83095
68.1269 43 6.55744
68.2442 48 6.9282
68.3614 58 7.61577
68.4787 40 6.32456
68.5958 42 6.48074
68.713 30 5.47723
68.8302 40 6.32456
68.9473 57 7.54983
69.0643 40 6.32456
69.1814 38 6.16441
69.2984 40 6.32456
69.4154 53 7.28011
69.5323 47 6.85565
69.6492 47 6.85565
69.7661 40 6.32456
69.8829 44 6.63325
69.9997 41 6.40312
70.1165 48 6.9282
70.2332 34 5.83095
70.3499 46 6.78233
70.4665 34 5.83095
70.5831 39 6.245
70.6996 28 5.2915
70.8161 41 6.40312
70.9326 34 5.83095
71.049 28 5.2915
71.1653 36 6
71.2817 29 5.38516
71.3979 22 4.69042
71.5141 32 5.65685
71.6303 20 4.47214
71.7464 31 5.56776
71.8624 0 1
71.9784 0 1
72.0944 0 1
72.2102 0 1
72.3261 0 1
72.4418 0 1
72.5575 0 1
72.6732 0 1
75.1054 0 1
75.2209 0 1
75.3365 0 1
75.4521 0 1
75.5678 0 1
75.6835 0 1
75.7993 0 1
75.9151 0 1
76.031 0 1
76.147 39 6.245
76.263 33 5.74456
76.3791 32 5.65685
76.4952 37 6.08276
76.6113 43 6.55744
76.7276 38 6.16441
76.8438 48 6.9282
76.9601 45 6.7082
77.0765 34 5.83095
77.1929 40 6.32456
77.3093 34 5.83095
77.4258 47 6.85565
77.5423 41 6.40312
77.6589 39 6.245
77.7755 44 6.63325
77.8921 35 5.91608
78.0088 41 6.40312
78.1256 29 5.38516
78.2423 41 6.40312
78.3591 27 5.19615
78.4759 43 6.55744
78.5928 58 7.61577
78.7097 37 6.08276
78.8266 36 6
78.9436 33 5.74456
79.0606 41 6.40312
79.1776 42 6.48074
79.2946 39 6.245
79.4117 26 5.09902
79.5288 44 6.63325
79.6459 44 6.63325
79.7631 40 6.32456
79.8802 49 7
79.9974 34 5.83095
80.1147 37 6.08276
80.2319 50 7.07107
80.3491 45 6.7082
80.4664 38 6.16441
80.5837 39 6.245
80.701 40 6.32456
80.8183 32 5.65685
80.9357 45 6.7082
81.053 47 6.85565
81.1704 35 5.91608
81.2877 42 6.48074
81.4051 36 6
81.5225 43 6.55744
81.6399 48 6.9282
81.7573 40 6.32456
81.8747 41 6.40312
81.9922 44 6.63325
82.1096 33 5.74456
82.227 42 6.48074
82.3444 39 6.245
82.4619 37 6.08276
82.5793 25 5
82.6967 32 5.65685
82.8142 48 6.9282
82.9316 39 6.245
83.049 37 6.08276
83.1664 33 5.74456
83.2838 41 6.40312
83.4012 30 5.47723
83.5186 37 6.08276
83.636 35 5.91608
83.7534 37 6.08276
83.8708 52 7.2111
83.9881 49 7
84.1055 42 6.48074
84.2228 45 6.7082
84.3401 38 6.16441
84.4575 36 6
84.5747 32 5.65685
84.692 42 6.48074
84.8093 48 6.9282
84.9265 35 5.91608
85.0437 40 6.32456
85.1609 45 6.7082
85.2781 55 7.4162
85.3952 34 5.83095
85.5123 34 5.83095
85.6294 44 6.63325
85.7465 38 6.16441
85.8636 41 6.40312
85.9806 32 5.65685
86.0976 49 7
86.2145 29 5.38516
86.3315 45 6.7082
86.4484 48 6.9282
86.5652 38 6.16441
86.682 45 6.7082
86.7988 45 6.7082
86.9156 47 6.85565
87.0323 45 6.7082
87.149 46 6.78233
87.2657 43 6.55744
87.3823 48 6.9282
87.4988 44 6.63325
87.6154 37 6.08276
87.7318 40 6.32456
87.8483 38 6.16441
87.9647 39 6.245
88.081 26 5.09902
88.1973 38 6.16441
88.3136 25 5
88.4298 23 4.79583
88.546 29 5.38516
88.6621 32 5.65685
88.7781 37 6.08276
88.8942 0 1
89.0101 0 1
89.126 0 1
89.2419 0 1
89.3577 0 1
89.4734 0 1
89.5891 0 1
89.7047 0 1
89.8203 0 1
89.9358 0 1
92.3269 0 1
92.4424 0 1
92.558 0 1
92.6736 0 1
92.7893 0 1
92.905 0 1
93.0208 0 1
93.1366 0 1
93.2525 0 1
93.3685 0 1
93.4845 0 1
93.6005 35 5.91608
93.7167 40 6.32456
93.8328 41 6.40312
93.949 37 6.08276
94.0653 34 5.83095
94.1816 49 7
94.2979 43 6.55744
94.4143 51 7.14143
94.5307 33 5.74456
94.6472 45 6.7082
94.7637 41 6.40312
94.8803 48 6.9282
94.9969 42 6.48074
95.1135 37 6.08276
95.2302 27 5.19615
95.3469 45 6.7082
95.4637 41 6.40312
95.5805 56 7.48331
95.6973 49 7
95.8142 35 5.91608
95.9311 47 6.85565
96.048 36 6
96.1649 35 5.91608
96.2819 34 5.83095
96.3989 39 6.245
96.516 36 6
96.633 39 6.245
96.7501 47 6.85565
96.8673 50 7.07107
96.9844 51 7.14143
97.1016 45 6.7082
97.2188 35 5.91608
97.336 46 6.78233
97.4532 42 6.48074
97.5704 37 6.08276
97.6877 42 6.48074
97.805 45 6.7082
97.9223 41 6.40312
98.0396 40 6.32456
98.1569 48 6.9282
98.2743 42 6.48074
98.3916 42 6.48074
98.509 34 5.83095
98.6264 39 6.245
98.7438 56 7.48331
98.8612 38 6.16441
98.9786 35 5.91608
99.096 49 7
99.2134 45 6.7082
99.3308 51 7.14143
99.4482 44 6.63325
99.5656 54 7.34847
99.6831 39 6.245
99.8005 48 6.9282
99.9179 48 6.9282
100.035 43 6.55744
100.153 43 6.55744
100.27 40 6.32456
100.388 42 6.48074
100.505 37 6.08276
100.622 52 7.2111
100.74 39 6.245
100.857 59 7.68115
100.975 41 6.40312
101.092 39 6.245
101.209 47 6.85565
101.327 58 7.61577
101.444 46 6.78233
101.561 45 6.7082
101.679 33 5.74456
101.796 52 7.2111
101.913 28 5.2915
102.03 49 7
102.148 52 7.2111
102.265 41 6.40312
102.382 40 6.32456
102.499 45 6.7082
102.616 47 6.85565
102.733 48 6.9282
102.851 50 7.07107
102.968 51 7.14143
103.085 59 7.68115
103.202 54 7.34847
103.319 51 7.14143
103.436 46 6.78233
103.552 49 7
103.669 47 6.85565
103.786 53 7.28011
103.903 57 7.54983
104.02 62 7.87401
104.137 65 8.06226
104.253 45 6.7082
104.37 43 6.55744
104.487 40 6.32456
104.603 45 6.7082
104.72 52 7.2111
104.836 47 6.85565
104.953 45 6.7082
105.069 48 6.9282
105.186 44 6.63325
105.302 40 6.32456
105.418 43 6.55744
105.535 28 5.2915
105.651 31 5.56776
105.767 30 5.47723
105.883 21 4.58258
105.999 22 4.69042
106.115 0 1
106.231 0 1
106.347 0 1
106.463 0 1
106.579 0 1
106.694 0 1
106.81 0 1
106.926 0 1
107.041 0 1
107.157 0 1
109.576 0 1
109.692 0 1
109.807 0 1
109.923 0 1
110.039 0 1
110.155 0 1
110.27 0 1
110.386 0 1
110.502 0 1
110.618 21 4.58258
110.735 23 4.79583
110.851 29 5.38516
110.967 32 5.65685
111.083 21 4.58258
111.199 35 5.91608
111.316 40 6.32456
111.432 45 6.7082
111.549 55 7.4162
111.665 52 7.2111
111.782 37 6.08276
111.898 46 6.78233
112.015 43 6.55744
112.132 41 6.40312
112.248 44 6.63325
112.365 41 6.40312
112.482 51 7.14143
112.599 28 5.2915
112.716 42 6.48074
112.832 31 5.56776
112.949 51 7.14143
113.066 52 7.2111
113.183 40 6.32456
113.3 54 7.34847
113.417 48 6.9282
113.534 44 6.63325
113.652 36 6
113.769 48 6.9282
113.886 40 6.32456
114.003 40 6.32456
114.12 39 6.245
114.238 33 5.74456
114.355 37 6.08276
114.472 39 6.245
114.589 39 6.245
114.707 36 6
114.824 44 6.63325
114.942 31 5.56776
115.059 63 7.93725
115.176 41 6.40312
115.294 50 7.07107
115.411 35 5.91608
115.529 41 6.40312
115.646 44 6.63325
115.764 46 6.78233
115.881 34 5.83095
115.999 41 6.40312
116.116 45 6.7082
116.234 55 7.4162
116.351 35 5.91608
116.469 43 6.55744
116.586 39 6.245
116.704 35 5.91608
116.821 45 6.7082
116.939 37 6.08276
117.056 37 6.08276
117.174 38 6.16441
117.291 46 6.78233
117.409 40 6.32456
117.526 35 5.91608
117.644 44 6.63325
117.761 28 5.2915
117.879 28 5.2915
117.996 34 5.83095
118.114 39 6.245
118.231 35 5.91608
118.349 43 6.55744
118.466 40 6.32456
118.584 38 6.16441
118.701 40 6.32456
118.819 35 5.91608
118.936 44 6.63325
119.053 39 6.245
119.171 47 6.85565
119.288 44 6.63325
119.405 29 5.38516
119.523 37 6.08276
119.64 39 6.245
119.757 36 6
119.875 36 6
119.992 36 6
120.109 39 6.245
120.226 38 6.16441
120.343 34 5.83095
120.46 35 5.91608
120.578 46 6.78233
120.695 25 5
120.812 38 6.16441
120.929 42 6.48074
121.046 41 6.40312
121.163 32 5.65685
121.279 30 5.47723
121.396 35 5.91608
121.513 27 5.19615
121.63 29 5.38516
121.747 24 4.89898
121.863 33 5.74456
121.98 42 6.48074
122.097 31 5.56776
122.213 43 6.55744
122.33 26 5.09902
122.446 25 5
122.563 25 5
122.679 41 6.40312
122.795 19 4.3589
122.912 24 4.89898
123.028 22 4.69042
123.144 27 5.19615
123.26 14 3.74166
123.377 0 1
123.493 0 1
123.609 0 1
123.725 0 1
123.84 0 1
123.956 0 1
124.072 0 1
124.188 0 1
124.303 0 1
124.419 0 1
126.852 0 1
126.968 0 1
127.083 0 1
127.199 0 1
127.315 0 1
127.431 0 1
127.547 0 1
127.663 0 1
127.779 0 1
127.895 0 1
128.011 0 1
128.127 0 1
128.243 0 1
128.359 44 6.63325
128.476 33 5.74456
128.592 37 6.08276
128.708 43 6.55744
128.825 44 6.63325
128.941 46 6.78233
129.058 33 5.74456
129.174 52 7.2111
129.291 37 6.08276
129.408 39 6.245
129.524 25 5
129.641 35 5.91608
129.758 48 6.9282
129.875 42 6.48074
129.992 32 5.65685
130.108 46 6.78233
130.225 34 5.83095
130.342 48 6.9282
130.459 36 6
130.576 46 6.78233
130.693 36 6
130.81 30 5.47723
130.928 41 6.40312
131.045 42 6.48074
131.162 46 6.78233
131.279 39 6.245
131.396 33 5.74456
131.513 44 6.63325
131.631 35 5.91608
131.748 41 6.40312
131.865 45 6.7082
131.983 44 6.63325
132.1 31 5.56776
132.217 38 6.16441
132.335 55 7.4162
132.452 45 6.7082
132.57 40 6.32456
132.687 50 7.07107
132.804 44 6.63325
132.922 41 6.40312
133.039 35 5.91608
133.157 45 6.7082
133.274 54 7.34847
133.392 47 6.85565
133.509 38 6.16441
133.627 40 6.32456
133.744 40 6.32456
133.862 47 6.85565
133.979 40 6.32456
134.097 43 6.55744
134.214 39 6.245
134.332 27 5.19615
134.449 46 6.78233
134.567 38 6.16441
134.684 54 7.34847
134.802 46 6.78233
134.919 50 7.07107
135.037 44 6.63325
135.154 41 6.40312
135.272 44 6.63325
135.389 55 7.4162
135.507 36 6
135.624 47 6.85565
135.742 57 7.54983
135.859 42 6.48074
135.977 42 6.48074
136.094 49 7
136.211 39 6.245
136.329 46 6.78233
136.446 44 6.63325
136.564 48 6.9282
136.681 54 7.34847
136.798 50 7.07107
136.915 61 7.81025
137.033 47 6.85565
137.15 55 7.4162
137.267 37 6.08276
137.384 40 6.32456
137.502 45 6.7082
137.619 56 7.48331
137.736 38 6.16441
137.853 45 6.7082
137.97 45 6.7082
138.087 42 6.48074
138.204 50 7.07107
138.321 52 7.2111
138.438 47 6.85565
138.555 35 5.91608
138.672 39 6.245
138.788 36 6
138.905 47 6.85565
139.022 49 7
139.139 36 6
139.255 46 6.78233
139.372 43 6.55744
139.488 43 6.55744
139.605 38 6.16441
139.721 36 6
139.838 34 5.83095
139.954 31 5.56776
140.071 26 5.09902
140.187 36 6
140.303 34 5.83095
140.419 31 5.56776
140.535 34 5.83095
140.652 25 5
140.768 0 1
140.884 0 1
141 0 1
141.115 0 1
141.231 0 1
141.347 0 1
141.463 0 1
141.578 0 1
141.694 0 1
144.104 0 1
144.219 0 1
144.335 0 1
144.45 0 1
144.566 0 1
144.682 0 1
144.798 0 1
144.914 0 1
145.03 0 1
145.146 40 6.32456
145.262 47 6.85565
145.378 49 7
145.494 39 6.245
145.61 45 6.7082
145.726 49 7
145.842 56 7.48331
145.959 49 7
146.075 58 7.61577
146.192 65 8.06226
146.308 77 8.77496
146.425 64 8
146.541 60 7.74597
146.658 77 8.77496
146.774 65 8.06226
146.891 79 8.88819
147.008 81 9
147.125 85 9.21954
147.241 88 9.38083
147.358 98 9.89949
147.475 105 10.247
147.592 96 9.79796
147.709 81 9
147.826 93 9.64365
147.943 112 10.583
148.06 92 9.59166
148.177 100 10
148.294 101 10.0499
148.411 123 11.0905
148.528 107 10.3441
148.645 114 10.6771
148.762 94 9.69536
148.88 91 9.53939
148.997 119 10.9087
149.114 110 10.4881
149.231 131 11.4455
149.349 120 10.9545
149.466 111 10.5357
149.583 134 11.5758
149.701 119 10.9087
149.818 114 10.6771
149.935 129 11.3578
150.053 126 11.225
150.17 100 10
150.287 100 10
150.405 113 10.6301
150.522 107 10.3441
150.64 104 10.198
150.757 115 10.7238
150.875 122 11.0454
150.992 115 10.7238
151.11 115 10.7238
151.227 121 11
151.344 100 10
151.462 100 10
151.579 105 10.247
151.697 110 10.4881
151.814 102 10.0995
151.932 99 9.94987
152.049 111 10.5357
152.167 120 10.9545
152.284 111 10.5357
152.402 107 10.3441
152.519 114 10.6771
152.636 109 10.4403
152.754 100 10
152.871 86 9.27362
152.989 110 10.4881
153.106 104 10.198
153.223 102 10.0995
153.341 96 9.79796
153.458 96 9.79796
153.575 109 10.4403
153.693 83 9.11043
153.81 82 9.05539
153.927 100 10
154.044 107 10.3441
154.162 88 9.38083
154.279 94 9.69536
154.396 82 9.05539
154.513 92 9.59166
154.63 84 9.16515
154.747 102 10.0995
154.864 103 10.1489
154.981 73 8.544
155.098 101 10.0499
155.215 88 9.38083
155.332 105 10.247
155.449 87 9.32738
155.566 90 9.48683
155.683 89 9.43398
155.8 86 9.27362
155.917 108 10.3923
156.033 91 9.53939
156.15 0 1
156.267 0 1
156.383 0 1
156.5 0 1
156.617 0 1
156.733 0 1
156.85 0 1
156.966 0 1
157.082 0 1
157.199 0 1
157.315 0 1
157.431 0 1
157.547 0 1
157.664 0 1
157.78 0 1
157.896 0 1
158.012 0 1
158.128 0 1
158.244 0 1
158.359 0 1
158.475 0 1
158.591 0 1
158.706 0 1
