
6.15755 0 1
6.2731 0 1
6.3887 0 1
6.50437 0 1
6.62009 0 1
6.73587 0 1
6.8517 0 1
6.96759 0 1
7.08353 0 1
7.19952 0 1
7.31557 0 1
7.43166 0 1
7.54781 0 1
7.664 0 1
7.78024 0 1
7.89653 0 1
8.01286 0 1
8.12924 0 1
8.24567 0 1
8.36213 0 1
8.47864 0 1
8.59519 0 1
8.71178 0 1
8.82841 0 1
8.94508 0 1
9.06179 0 1
9.17853 0 1
9.29531 0 1
9.41212 0 1
9.52897 0 1
9.64584 0 1
9.76276 0 1
9.8797 0 1
9.99667 0 1
10.1137 0 1
10.2307 0 1
10.3478 0 1
10.4648 0 1
10.5819 0 1
10.6991 0 1
10.8162 0 1
10.9334 0 1
11.0506 0 1
11.1678 0 1
11.285 0 1
11.4023 0 1
11.5196 0 1
11.6369 0 1
11.7542 0 1
11.8715 0 1
11.9888 0 1
12.1062 0 1
12.2235 0 1
12.3409 0 1
12.4582 0 1
12.5756 0 1
12.693 0 1
12.8104 0 1
12.9278 0 1
13.0452 0 1
13.1626 0 1
13.28 0 1
13.3974 0 1
13.5149 0 1
13.6323 0 1
13.7497 0 1
13.8671 0 1
13.9845 0 1
14.1019 0 1
14.2193 0 1
14.3367 0 1
14.4541 0 1
14.5714 0 1
14.6888 0 1
14.8062 0 1
14.9235 0 1
15.0408 995 31.5436
15.1581 999 31.607
15.2755 1090 33.0151
15.3927 1123 33.5112
15.51 1066 32.6497
15.6273 1129 33.6006
15.7445 1045 32.3265
15.8617 1006 31.7175
15.9789 1032 32.1248
16.0961 968 31.1127
16.2132 955 30.9031
16.3304 948 30.7896
16.4475 965 31.0644
16.5646 873 29.5466
16.6816 990 31.4643
16.7986 944 30.7246
16.9156 985 31.3847
17.0326 944 30.7246
17.1496 938 30.6268
17.2665 950 30.8221
17.3833 887 29.7825
17.5002 909 30.1496
17.617 890 29.8329
17.7338 973 31.1929
17.8505 995 31.5436
17.9672 920 30.3315
18.0839 922 30.3645
18.2005 901 30.0167
18.3171 818 28.6007
18.4337 847 29.1033
18.5502 920 30.3315
18.6666 902 30.0333
18.7831 945 30.7409
18.8994 883 29.7153
19.0158 946 30.7571
19.1321 866 29.4279
19.2483 868 29.4618
19.3645 800 28.2843
19.4806 768 27.7128
19.5967 708 26.6083
19.7128 635 25.1992
19.8288 579 24.0624
19.9447 512 22.6274
20.0606 0 1
20.1764 0 1
20.2922 0 1
20.4079 0 1
20.5236 0 1
20.6392 0 1
20.7548 0 1
20.8702 0 1
23.3078 0 1
23.4233 0 1
23.539 0 1
23.6547 0 1
23.7704 0 1
23.8862 0 1
24.0021 0 1
24.118 0 1
24.234 0 1
24.35 0 1
24.4661 381 19.5192
24.5822 458 21.4009
24.6984 517 22.7376
24.8146 557 23.6008
24.9309 650 25.4951
25.0472 737 27.1477
25.1636 823 28.688
25.28 830 28.8097
25.3965 912 30.1993
25.513 941 30.6757
25.6296 990 31.4643
25.7462 1030 32.0936
25.8628 981 31.3209
25.9795 1008 31.749
26.0962 1038 32.218
26.213 955 30.9031
26.3298 904 30.0666
26.4466 878 29.6311
26.5635 883 29.7153
26.6804 839 28.9655
26.7973 739 27.1846
26.9143 684 26.1534
27.0313 681 26.096
27.1483 793 28.1603
27.2653 786 28.0357
27.3824 846 29.0861
27.4996 863 29.3769
27.6167 855 29.2404
27.7339 878 29.6311
27.8511 879 29.6479
27.9683 851 29.1719
28.0855 851 29.1719
28.2028 828 28.775
28.3201 829 28.7924
28.4374 811 28.4781
28.5547 797 28.2312
28.6721 834 28.8791
28.7894 827 28.7576
28.9068 819 28.6182
29.0242 864 29.3939
29.1416 885 29.7489
29.259 853 29.2062
29.3764 877 29.6142
29.4939 846 29.0861
29.6113 821 28.6531
29.7288 874 29.5635
29.8463 846 29.0861
29.9638 831 28.8271
30.0812 847 29.1033
30.1987 782 27.9643
30.3162 722 26.8701
30.4337 736 27.1293
30.5512 719 26.8142
30.6687 778 27.8927
30.7862 797 28.2312
30.9037 887 29.7825
31.0212 847 29.1033
31.1387 858 29.2916
31.2562 880 29.6648
31.3737 862 29.3598
31.4912 918 30.2985
31.6087 819 28.6182
31.7262 827 28.7576
31.8436 794 28.178
31.9611 751 27.4044
32.0785 772 27.7849
32.1959 785 28.0179
32.3134 787 28.0535
32.4308 759 27.55
32.5482 783 27.9821
32.6655 776 27.8568
32.7829 747 27.3313
32.9002 720 26.8328
33.0176 762 27.6043
33.1349 765 27.6586
33.2522 749 27.3679
33.3694 755 27.4773
33.4867 811 28.4781
33.6039 749 27.3679
33.7211 760 27.5681
33.8383 713 26.7021
33.9554 669 25.865
34.0725 706 26.5707
34.1896 660 25.6905
34.3067 735 27.1109
34.4237 746 27.313
34.5407 750 27.3861
34.6577 788 28.0713
34.7746 838 28.9482
34.8915 772 27.7849
35.0084 805 28.3725
35.1252 808 28.4253
35.242 774 27.8209
35.3587 741 27.2213
35.4755 685 26.1725
35.5921 716 26.7582
35.7088 686 26.1916
35.8254 649 25.4755
35.9419 708 26.6083
36.0584 713 26.7021
36.1749 753 27.4408
36.2913 726 26.9444
36.4077 704 26.533
36.524 645 25.3969
36.6403 581 24.1039
36.7565 573 23.9374
36.8727 541 23.2594
36.9889 542 23.2809
37.1049 492 22.1811
37.221 0 1
37.3369 0 1
37.4529 0 1
37.5687 0 1
37.6845 0 1
37.8003 0 1
37.916 0 1
38.0316 0 1
38.1472 0 1
40.5851 0 1
40.7008 0 1
40.8164 0 1
40.9322 0 1
41.048 0 1
41.1639 0 1
41.2798 0 1
41.3958 0 1
41.5118 0 1
41.6279 0 1
41.744 347 18.6279
41.8602 380 19.4936
41.9765 469 21.6564
42.0928 500 22.3607
42.2091 537 23.1733
42.3255 548 23.4094
42.4419 548 23.4094
42.5584 528 22.9783
42.675 559 23.6432
42.7915 525 22.9129
42.9081 508 22.5389
43.0248 542 23.2809
43.1415 559 23.6432
43.2582 564 23.7487
43.375 595 24.3926
43.4918 555 23.5584
43.6087 558 23.622
43.7256 608 24.6577
43.8425 595 24.3926
43.9595 520 22.8035
44.0765 539 23.2164
44.1935 534 23.1084
44.3106 508 22.5389
44.4277 491 22.1585
44.5448 485 22.0227
44.6619 515 22.6936
44.7791 576 24
44.8963 580 24.0832
45.0136 572 23.9165
45.1308 591 24.3105
45.2481 542 23.2809
45.3654 563 23.7276
45.4827 608 24.6577
45.6001 604 24.5764
45.7174 622 24.9399
45.8348 628 25.0599
45.9522 624 24.98
46.0697 576 24
46.1871 584 24.1661
46.3046 544 23.3238
46.422 464 21.5407
46.5395 475 21.7945
46.657 520 22.8035
46.7745 501 22.383
46.892 536 23.1517
47.0096 544 23.3238
47.1271 549 23.4307
47.2446 592 24.3311
47.3622 548 23.4094
47.4797 580 24.0832
47.5973 579 24.0624
47.7149 555 23.5584
47.8324 514 22.6716
47.95 478 21.8632
48.0675 497 22.2935
48.1851 514 22.6716
48.3027 546 23.3666
48.4202 555 23.5584
48.5378 596 24.4131
48.6554 604 24.5764
48.7729 580 24.0832
48.8904 572 23.9165
49.008 590 24.2899
49.1255 568 23.8328
49.243 575 23.9792
49.3605 610 24.6982
49.478 551 23.4734
49.5955 482 21.9545
49.713 521 22.8254
49.8304 483 21.9773
49.9479 433 20.8087
50.0653 453 21.2838
50.1827 483 21.9773
50.3001 515 22.6936
50.4175 521 22.8254
50.5348 534 23.1084
50.6521 530 23.0217
50.7694 502 22.4054
50.8867 511 22.6053
51.004 555 23.5584
51.1212 521 22.8254
51.2384 470 21.6795
51.3556 499 22.3383
51.4727 495 22.2486
51.5899 527 22.9565
51.707 550 23.4521
51.824 559 23.6432
51.9411 546 23.3666
52.0581 525 22.9129
52.175 513 22.6495
52.2919 537 23.1733
52.4088 543 23.3024
52.5257 502 22.4054
52.6425 550 23.4521
52.7593 501 22.383
52.876 536 23.1517
52.9927 536 23.1517
53.1094 516 22.7156
53.226 461 21.4709
53.3426 490 22.1359
53.4591 434 20.8327
53.5756 418 20.445
53.692 398 19.9499
53.8084 461 21.4709
53.9248 409 20.2237
54.0411 425 20.6155
54.1573 354 18.8149
54.2735 0 1
54.3896 0 1
54.5057 0 1
54.6217 0 1
54.7377 0 1
54.8537 0 1
54.9695 0 1
55.0853 0 1
55.2011 0 1
55.3168 0 1
55.4324 0 1
57.824 0 1
57.9396 0 1
58.0553 0 1
58.1711 0 1
58.2869 0 1
58.4028 0 1
58.5187 0 1
58.6347 0 1
58.7508 0 1
58.8669 0 1
58.983 557 23.6008
59.0992 640 25.2982
59.2155 756 27.4955
59.3318 824 28.7054
59.4482 884 29.7321
59.5646 953 30.8707
59.681 994 31.5278
59.7975 950 30.8221
59.9141 970 31.1448
60.0306 1016 31.8748
60.1473 972 31.1769
60.2639 1081 32.8786
60.3807 1057 32.5115
60.4974 1051 32.4191
60.6142 1052 32.4345
60.731 1089 33
60.8479 1033 32.1403
60.9648 1032 32.1248
61.0818 1071 32.7261
61.1987 1000 31.6228
61.3158 983 31.3528
61.4328 1006 31.7175
61.5499 989 31.4484
61.667 930 30.4959
61.7841 932 30.5287
61.9013 780 27.9285
62.0185 792 28.1425
62.1357 732 27.0555
62.253 766 27.6767
62.3702 762 27.6043
62.4875 742 27.2397
62.6049 761 27.5862
62.7222 772 27.7849
62.8396 721 26.8514
62.9569 710 26.6458
63.0743 692 26.3059
63.1918 697 26.4008
63.3092 646 25.4165
63.4267 622 24.9399
63.5441 638 25.2587
63.6616 581 24.1039
63.7791 648 25.4558
63.8966 658 25.6515
64.0142 654 25.5734
64.1317 640 25.2982
64.2492 646 25.4165
64.3668 633 25.1595
64.4843 668 25.8457
64.6019 593 24.3516
64.7195 636 25.219
64.837 619 24.8797
64.9546 606 24.6171
65.0722 655 25.593
65.1898 595 24.3926
65.3074 586 24.2074
65.4249 584 24.1661
65.5425 557 23.6008
65.6601 577 24.0208
65.7777 537 23.1733
65.8952 562 23.7065
66.0128 577 24.0208
66.1304 606 24.6171
66.2479 588 24.2487
66.3655 617 24.8395
66.483 670 25.8844
66.6005 627 25.04
66.718 598 24.454
66.8355 603 24.5561
66.953 569 23.8537
67.0705 555 23.5584
67.1879 542 23.2809
67.3054 639 25.2784
67.4228 626 25.02
67.5402 621 24.9199
67.6576 635 25.1992
67.7749 625 25
67.8923 561 23.6854
68.0096 576 24
68.1269 577 24.0208
68.2442 607 24.6374
68.3614 586 24.2074
68.4787 565 23.7697
68.5958 578 24.0416
68.713 595 24.3926
68.8302 603 24.5561
68.9473 575 23.9792
69.0643 560 23.6643
69.1814 541 23.2594
69.2984 555 23.5584
69.4154 606 24.6171
69.5323 546 23.3666
69.6492 535 23.1301
69.7661 607 24.6374
69.8829 598 24.454
69.9997 496 22.2711
70.1165 609 24.6779
70.2332 590 24.2899
70.3499 523 22.8692
70.4665 542 23.2809
70.5831 481 21.9317
70.6996 471 21.7025
70.8161 415 20.3715
70.9326 459 21.4243
71.049 369 19.2094
71.1653 352 18.7617
71.2817 328 18.1108
71.3979 328 18.1108
71.5141 290 17.0294
71.6303 275 16.5831
71.7464 265 16.2788
71.8624 0 1
71.9784 0 1
72.0944 0 1
72.2102 0 1
72.3261 0 1
72.4418 0 1
72.5575 0 1
72.6732 0 1
75.1054 0 1
75.2209 0 1
75.3365 0 1
75.4521 0 1
75.5678 0 1
75.6835 0 1
75.7993 0 1
75.9151 0 1
76.031 0 1
76.147 328 18.1108
76.263 421 20.5183
76.3791 439 20.9523
76.4952 479 21.8861
76.6113 494 22.2261
76.7276 525 22.9129
76.8438 519 22.7816
76.9601 508 22.5389
77.0765 485 22.0227
77.1929 531 23.0434
77.3093 493 22.2036
77.4258 475 21.7945
77.5423 550 23.4521
77.6589 528 22.9783
77.7755 499 22.3383
77.8921 514 22.6716
78.0088 461 21.4709
78.1256 446 21.1187
78.2423 454 21.3073
78.3591 427 20.664
78.4759 435 20.8567
78.5928 462 21.4942
78.7097 463 21.5174
78.8266 449 21.1896
78.9436 549 23.4307
79.0606 528 22.9783
79.1776 566 23.7908
79.2946 504 22.4499
79.4117 566 23.7908
79.5288 535 23.1301
79.6459 442 21.0238
79.7631 511 22.6053
79.8802 498 22.3159
79.9974 570 23.8747
80.1147 565 23.7697
80.2319 548 23.4094
80.3491 538 23.1948
80.4664 588 24.2487
80.5837 559 23.6432
80.701 585 24.1868
80.8183 542 23.2809
80.9357 538 23.1948
81.053 527 22.9565
81.1704 537 23.1733
81.2877 551 23.4734
81.4051 559 23.6432
81.5225 536 23.1517
81.6399 504 22.4499
81.7573 512 22.6274
81.8747 519 22.7816
81.9922 489 22.1133
82.1096 476 21.8174
82.227 508 22.5389
82.3444 492 22.1811
82.4619 516 22.7156
82.5793 545 23.3452
82.6967 525 22.9129
82.8142 518 22.7596
82.9316 590 24.2899
83.049 545 23.3452
83.1664 537 23.1733
83.2838 505 22.4722
83.4012 548 23.4094
83.5186 546 23.3666
83.636 570 23.8747
83.7534 574 23.9583
83.8708 607 24.6374
83.9881 591 24.3105
84.1055 571 23.8956
84.2228 592 24.3311
84.3401 563 23.7276
84.4575 538 23.1948
84.5747 562 23.7065
84.692 600 24.4949
84.8093 593 24.3516
84.9265 568 23.8328
85.0437 559 23.6432
85.1609 549 23.4307
85.2781 563 23.7276
85.3952 575 23.9792
85.5123 548 23.4094
85.6294 537 23.1733
85.7465 532 23.0651
85.8636 526 22.9347
85.9806 563 23.7276
86.0976 603 24.5561
86.2145 597 24.4336
86.3315 615 24.7992
86.4484 566 23.7908
86.5652 629 25.0799
86.682 608 24.6577
86.7988 594 24.3721
86.9156 561 23.6854
87.0323 574 23.9583
87.149 568 23.8328
87.2657 593 24.3516
87.3823 555 23.5584
87.4988 571 23.8956
87.6154 584 24.1661
87.7318 565 23.7697
87.8483 525 22.9129
87.9647 509 22.561
88.081 451 21.2368
88.1973 406 20.1494
88.3136 426 20.6398
88.4298 379 19.4679
88.546 354 18.8149
88.6621 337 18.3576
88.7781 322 17.9444
88.8942 0 1
89.0101 0 1
89.126 0 1
89.2419 0 1
89.3577 0 1
89.4734 0 1
89.5891 0 1
89.7047 0 1
89.8203 0 1
89.9358 0 1
92.3269 0 1
92.4424 0 1
92.558 0 1
92.6736 0 1
92.7893 0 1
92.905 0 1
93.0208 0 1
93.1366 0 1
93.2525 0 1
93.3685 0 1
93.4845 0 1
93.6005 487 22.0681
93.7167 526 22.9347
93.8328 549 23.4307
93.949 589 24.2693
94.0653 583 24.1454
94.1816 618 24.8596
94.2979 634 25.1794
94.4143 594 24.3721
94.5307 649 25.4755
94.6472 549 23.4307
94.7637 608 24.6577
94.8803 582 24.1247
94.9969 557 23.6008
95.1135 588 24.2487
95.2302 603 24.5561
95.3469 588 24.2487
95.4637 595 24.3926
95.5805 656 25.6125
95.6973 637 25.2389
95.8142 616 24.8193
95.9311 595 24.3926
96.048 670 25.8844
96.1649 627 25.04
96.2819 624 24.98
96.3989 549 23.4307
96.516 640 25.2982
96.633 625 25
96.7501 636 25.219
96.8673 694 26.3439
96.9844 638 25.2587
97.1016 620 24.8998
97.2188 658 25.6515
97.336 600 24.4949
97.4532 623 24.96
97.5704 644 25.3772
97.6877 641 25.318
97.805 596 24.4131
97.9223 638 25.2587
98.0396 624 24.98
98.1569 572 23.9165
98.2743 548 23.4094
98.3916 605 24.5967
98.509 555 23.5584
98.6264 546 23.3666
98.7438 575 23.9792
98.8612 652 25.5343
98.9786 604 24.5764
99.096 658 25.6515
99.2134 690 26.2679
99.3308 721 26.8514
99.4482 661 25.7099
99.5656 682 26.1151
99.6831 682 26.1151
99.8005 680 26.0768
99.9179 648 25.4558
100.035 627 25.04
100.153 668 25.8457
100.27 675 25.9808
100.388 695 26.3629
100.505 692 26.3059
100.622 649 25.4755
100.74 673 25.9422
100.857 650 25.4951
100.975 627 25.04
101.092 709 26.6271
101.209 639 25.2784
101.327 643 25.3574
101.444 656 25.6125
101.561 635 25.1992
101.679 675 25.9808
101.796 665 25.7876
101.913 641 25.318
102.03 608 24.6577
102.148 604 24.5764
102.265 613 24.7588
102.382 626 25.02
102.499 675 25.9808
102.616 677 26.0192
102.733 739 27.1846
102.851 677 26.0192
102.968 719 26.8142
103.085 667 25.8263
103.202 681 26.096
103.319 725 26.9258
103.436 709 26.6271
103.552 709 26.6271
103.669 697 26.4008
103.786 713 26.7021
103.903 724 26.9072
104.02 771 27.7669
104.137 734 27.0924
104.253 704 26.533
104.37 719 26.8142
104.487 668 25.8457
104.603 668 25.8457
104.72 670 25.8844
104.836 625 25
104.953 652 25.5343
105.069 619 24.8797
105.186 609 24.6779
105.302 571 23.8956
105.418 538 23.1948
105.535 485 22.0227
105.651 422 20.5426
105.767 414 20.347
105.883 351 18.735
105.999 366 19.1311
106.115 0 1
106.231 0 1
106.347 0 1
106.463 0 1
106.579 0 1
106.694 0 1
106.81 0 1
106.926 0 1
107.041 0 1
107.157 0 1
109.576 0 1
109.692 0 1
109.807 0 1
109.923 0 1
110.039 0 1
110.155 0 1
110.27 0 1
110.386 0 1
110.502 0 1
110.618 337 18.3576
110.735 383 19.5704
110.851 422 20.5426
110.967 469 21.6564
111.083 515 22.6936
111.199 527 22.9565
111.316 588 24.2487
111.432 662 25.7294
111.549 606 24.6171
111.665 685 26.1725
111.782 675 25.9808
111.898 627 25.04
112.015 626 25.02
112.132 635 25.1992
112.248 644 25.3772
112.365 672 25.923
112.482 661 25.7099
112.599 660 25.6905
112.716 625 25
112.832 596 24.4131
112.949 562 23.7065
113.066 630 25.0998
113.183 625 25
113.3 641 25.318
113.417 579 24.0624
113.534 628 25.0599
113.652 580 24.0832
113.769 580 24.0832
113.886 621 24.9199
114.003 549 23.4307
114.12 513 22.6495
114.238 545 23.3452
114.355 567 23.8118
114.472 471 21.7025
114.589 535 23.1301
114.707 555 23.5584
114.824 569 23.8537
114.942 517 22.7376
115.059 619 24.8797
115.176 560 23.6643
115.294 593 24.3516
115.411 609 24.6779
115.529 543 23.3024
115.646 537 23.1733
115.764 497 22.2935
115.881 541 23.2594
115.999 597 24.4336
116.116 570 23.8747
116.234 574 23.9583
116.351 566 23.7908
116.469 538 23.1948
116.586 483 21.9773
116.704 512 22.6274
116.821 557 23.6008
116.939 542 23.2809
117.056 529 23
117.174 551 23.4734
117.291 536 23.1517
117.409 529 23
117.526 488 22.0907
117.644 501 22.383
117.761 492 22.1811
117.879 478 21.8632
117.996 470 21.6795
118.114 477 21.8403
118.231 510 22.5832
118.349 510 22.5832
118.466 517 22.7376
118.584 514 22.6716
118.701 523 22.8692
118.819 549 23.4307
118.936 522 22.8473
119.053 549 23.4307
119.171 527 22.9565
119.288 536 23.1517
119.405 503 22.4277
119.523 522 22.8473
119.64 532 23.0651
119.757 539 23.2164
119.875 556 23.5797
119.992 475 21.7945
120.109 503 22.4277
120.226 485 22.0227
120.343 518 22.7596
120.46 517 22.7376
120.578 533 23.0868
120.695 512 22.6274
120.812 469 21.6564
120.929 501 22.383
121.046 478 21.8632
121.163 525 22.9129
121.279 435 20.8567
121.396 433 20.8087
121.513 382 19.5448
121.63 450 21.2132
121.747 387 19.6723
121.863 435 20.8567
121.98 462 21.4942
122.097 448 21.166
122.213 418 20.445
122.33 385 19.6214
122.446 376 19.3907
122.563 363 19.0526
122.679 346 18.6011
122.795 357 18.8944
122.912 284 16.8523
123.028 286 16.9115
123.144 277 16.6433
123.26 275 16.5831
123.377 0 1
123.493 0 1
123.609 0 1
123.725 0 1
123.84 0 1
123.956 0 1
124.072 0 1
124.188 0 1
124.303 0 1
124.419 0 1
126.852 0 1
126.968 0 1
127.083 0 1
127.199 0 1
127.315 0 1
127.431 0 1
127.547 0 1
127.663 0 1
127.779 0 1
127.895 0 1
128.011 0 1
128.127 0 1
128.243 0 1
128.359 498 22.3159
128.476 540 23.2379
128.592 530 23.0217
128.708 537 23.1733
128.825 555 23.5584
128.941 630 25.0998
129.058 560 23.6643
129.174 530 23.0217
129.291 542 23.2809
129.408 554 23.5372
129.524 572 23.9165
129.641 526 22.9347
129.758 581 24.1039
129.875 592 24.3311
129.992 617 24.8395
130.108 618 24.8596
130.225 573 23.9374
130.342 585 24.1868
130.459 559 23.6432
130.576 558 23.622
130.693 579 24.0624
130.81 637 25.2389
130.928 640 25.2982
131.045 727 26.9629
131.162 711 26.6646
131.279 859 29.3087
131.396 902 30.0333
131.513 995 31.5436
131.631 1087 32.9697
131.748 1043 32.2955
131.865 1103 33.2114
131.983 1259 35.4824
132.1 1235 35.1426
132.217 1352 36.7696
132.335 1376 37.0945
132.452 1444 38
132.57 1516 38.9358
132.687 1519 38.9744
132.804 1592 39.8999
132.922 1565 39.5601
133.039 1578 39.724
133.157 1648 40.5956
133.274 1705 41.2916
133.392 1718 41.4488
133.509 1642 40.5216
133.627 1818 42.638
133.744 1713 41.3884
133.862 1772 42.0951
133.979 1778 42.1663
134.097 1667 40.8289
134.214 1696 41.1825
134.332 1587 39.8372
134.449 1546 39.3192
134.567 1652 40.6448
134.684 1924 43.8634
134.802 2103 45.8585
134.919 2374 48.7237
135.037 2507 50.07
135.154 2819 53.0943
135.272 2990 54.6809
135.389 3254 57.0438
135.507 3393 58.2495
135.624 3684 60.696
135.742 4032 63.498
135.859 4460 66.7832
135.977 4844 69.5989
136.094 5216 72.2219
136.211 5547 74.4782
136.329 5675 75.3326
136.446 5794 76.1183
136.564 6092 78.0513
136.681 6339 79.6178
136.798 6342 79.6367
136.915 6599 81.2342
137.033 6842 82.7164
137.15 7214 84.9353
137.267 7498 86.591
137.384 7460 86.3713
137.502 7499 86.5968
137.619 6958 83.4146
137.736 5562 74.5788
137.853 3471 58.9152
137.97 2824 53.1413
138.087 4447 66.6858
138.204 6610 81.3019
138.321 7416 86.1162
138.438 7770 88.1476
138.555 8024 89.5768
138.672 7961 89.2244
138.788 8133 90.1831
138.905 8061 89.7831
139.022 7321 85.5628
139.139 6594 81.2034
139.255 6242 79.0063
139.372 6102 78.1153
139.488 6042 77.7303
139.605 6067 77.8909
139.721 6004 77.4855
139.838 6001 77.4661
139.954 6140 78.3582
140.071 6060 77.846
140.187 6259 79.1138
140.303 6451 80.3181
140.419 6470 80.4363
140.535 6618 81.3511
140.652 6771 82.2861
140.768 0 1
140.884 0 1
141 0 1
141.115 0 1
141.231 0 1
141.347 0 1
141.463 0 1
141.578 0 1
141.694 0 1
144.104 0 1
144.219 0 1
144.335 0 1
144.45 0 1
144.566 0 1
144.682 0 1
144.798 0 1
144.914 0 1
145.03 0 1
145.146 21847 147.807
145.262 26752 163.56
145.378 30121 173.554
145.494 32213 179.48
145.61 34022 184.451
145.726 34696 186.269
145.842 35783 189.164
145.959 36455 190.932
146.075 36554 191.191
146.192 34983 187.037
146.308 32791 181.083
146.425 29506 171.773
146.541 27322 165.294
146.658 26647 163.239
146.774 28533 168.917
146.891 32148 179.299
147.008 36763 191.737
147.125 39347 198.361
147.241 42076 205.124
147.358 43409 208.348
147.475 44521 211
147.592 45541 213.403
147.709 46360 215.314
147.826 46514 215.671
147.943 46412 215.434
148.06 45520 213.354
148.177 44526 211.012
148.294 43532 208.643
148.411 42282 205.626
148.528 41035 202.571
148.645 40275 200.686
148.762 38983 197.441
148.88 38463 196.12
148.997 38573 196.4
149.114 36448 190.914
149.231 35969 189.655
149.349 35181 187.566
149.466 31481 177.429
149.583 28282 168.173
149.701 24932 157.899
149.818 21813 147.692
149.935 20237 142.257
150.053 20790 144.187
150.17 23074 151.901
150.287 24740 157.29
150.405 25252 158.909
150.522 24042 155.055
150.64 22081 148.597
150.757 19616 140.057
150.875 18604 136.396
150.992 19393 139.259
151.11 18980 137.768
151.227 18348 135.455
151.344 16846 129.792
151.462 15800 125.698
151.579 14896 122.049
151.697 14243 119.344
151.814 13629 116.743
151.932 12986 113.956
152.049 12352 111.14
152.167 11689 108.116
152.284 11458 107.042
152.402 10971 104.743
152.519 10686 103.373
152.636 10391 101.936
152.754 10335 101.661
152.871 9634 98.1529
152.989 8720 93.3809
153.106 7602 87.1894
153.223 6524 80.7713
153.341 5632 75.0467
153.458 5169 71.8958
153.575 5294 72.7599
153.693 5873 76.6355
153.81 6635 81.4555
153.927 6940 83.3067
154.044 6131 78.3007
154.162 5557 74.5453
154.279 5627 75.0133
154.396 5885 76.7138
154.513 6047 77.7625
154.63 5808 76.2102
154.747 5750 75.8288
154.864 5714 75.591
154.981 5319 72.9315
155.098 5071 71.211
155.215 4829 69.491
155.332 4667 68.3154
155.449 4521 67.2384
155.566 4518 67.2161
155.683 4277 65.3988
155.8 4298 65.5591
155.917 4082 63.8905
156.033 3846 62.0161
156.15 0 1
156.267 0 1
156.383 0 1
156.5 0 1
156.617 0 1
156.733 0 1
156.85 0 1
156.966 0 1
157.082 0 1
157.199 0 1
157.315 0 1
157.431 0 1
157.547 0 1
157.664 0 1
157.78 0 1
157.896 0 1
158.012 0 1
158.128 0 1
158.244 0 1
158.359 0 1
158.475 0 1
158.591 0 1
158.706 0 1
