
6.15755 0 1
6.2731 0 1
6.3887 0 1
6.50437 0 1
6.62009 0 1
6.73587 0 1
6.8517 0 1
6.96759 0 1
7.08353 0 1
7.19952 0 1
7.31557 0 1
7.43166 0 1
7.54781 0 1
7.664 0 1
7.78024 0 1
7.89653 0 1
8.01286 0 1
8.12924 0 1
8.24567 0 1
8.36213 0 1
8.47864 0 1
8.59519 0 1
8.71178 0 1
8.82841 0 1
8.94508 0 1
9.06179 0 1
9.17853 0 1
9.29531 0 1
9.41212 0 1
9.52897 0 1
9.64584 0 1
9.76276 0 1
9.8797 0 1
9.99667 0 1
10.1137 0 1
10.2307 0 1
10.3478 0 1
10.4648 0 1
10.5819 0 1
10.6991 0 1
10.8162 0 1
10.9334 0 1
11.0506 0 1
11.1678 0 1
11.285 0 1
11.4023 0 1
11.5196 0 1
11.6369 0 1
11.7542 0 1
11.8715 0 1
11.9888 0 1
12.1062 0 1
12.2235 0 1
12.3409 0 1
12.4582 0 1
12.5756 0 1
12.693 0 1
12.8104 0 1
12.9278 0 1
13.0452 0 1
13.1626 0 1
13.28 0 1
13.3974 0 1
13.5149 0 1
13.6323 0 1
13.7497 0 1
13.8671 0 1
13.9845 0 1
14.1019 0 1
14.2193 0 1
14.3367 0 1
14.4541 0 1
14.5714 0 1
14.6888 0 1
14.8062 0 1
14.9235 0 1
15.0408 4157 64.4748
15.1581 4143 64.3661
15.2755 4428 66.5432
15.3927 4463 66.8057
15.51 4489 67
15.6273 4360 66.0303
15.7445 4248 65.1767
15.8617 4100 64.0312
15.9789 3959 62.9206
16.0961 3896 62.4179
16.2132 4009 63.3167
16.3304 3871 62.2174
16.4475 3953 62.8729
16.5646 3880 62.2896
16.6816 3744 61.1882
16.7986 3722 61.0082
16.9156 3656 60.4649
17.0326 3594 59.95
17.1496 3601 60.0083
17.2665 3593 59.9416
17.3833 3547 59.5567
17.5002 3538 59.4811
17.617 3579 59.8247
17.7338 3594 59.95
17.8505 3479 58.983
17.9672 3296 57.4108
18.0839 3361 57.9741
18.2005 3381 58.1464
18.3171 3532 59.4306
18.4337 3546 59.5483
18.5502 3521 59.338
18.6666 3549 59.5735
18.7831 3600 60
18.8994 3537 59.4727
19.0158 3449 58.7282
19.1321 3494 59.1101
19.2483 3352 57.8965
19.3645 3089 55.5788
19.4806 2922 54.0555
19.5967 2747 52.4118
19.7128 2620 51.1859
19.8288 2549 50.4876
19.9447 2286 47.8121
20.0606 0 1
20.1764 0 1
20.2922 0 1
20.4079 0 1
20.5236 0 1
20.6392 0 1
20.7548 0 1
20.8702 0 1
23.3078 0 1
23.4233 0 1
23.539 0 1
23.6547 0 1
23.7704 0 1
23.8862 0 1
24.0021 0 1
24.118 0 1
24.234 0 1
24.35 0 1
24.4661 1515 38.923
24.5822 1760 41.9524
24.6984 2123 46.076
24.8146 2483 49.8297
24.9309 2790 52.8205
25.0472 3245 56.9649
25.1636 3569 59.7411
25.28 3780 61.4817
25.3965 3848 62.0322
25.513 3968 62.9921
25.6296 4058 63.7024
25.7462 4073 63.8201
25.8628 4071 63.8044
25.9795 3988 63.1506
26.0962 3878 62.2736
26.213 3813 61.7495
26.3298 3695 60.7865
26.4466 3425 58.5235
26.5635 3403 58.3352
26.6804 3328 57.6888
26.7973 3245 56.9649
26.9143 3166 56.2672
27.0313 3285 57.3149
27.1483 3319 57.6108
27.2653 3408 58.3781
27.3824 3366 58.0172
27.4996 3515 59.2874
27.6167 3585 59.8749
27.7339 3506 59.2115
27.8511 3534 59.4475
27.9683 3522 59.3464
28.0855 3509 59.2368
28.2028 3491 59.0847
28.3201 3484 59.0254
28.4374 3629 60.2412
28.5547 3632 60.2661
28.6721 3673 60.6053
28.7894 3610 60.0833
28.9068 3595 59.9583
29.0242 3634 60.2827
29.1416 3547 59.5567
29.259 3617 60.1415
29.3764 3466 58.8727
29.4939 3487 59.0508
29.6113 3305 57.4891
29.7288 3252 57.0263
29.8463 3209 56.648
29.9638 3054 55.263
30.0812 2930 54.1295
30.1987 3037 55.109
30.3162 3112 55.7853
30.4337 3163 56.2406
30.5512 3170 56.3028
30.6687 3291 57.3672
30.7862 3265 57.1402
30.9037 3433 58.5918
31.0212 3596 59.9667
31.1387 3639 60.3241
31.2562 3528 59.397
31.3737 3577 59.808
31.4912 3575 59.7913
31.6087 3462 58.8388
31.7262 3420 58.4808
31.8436 3276 57.2364
31.9611 3362 57.9828
32.0785 3460 58.8218
32.1959 3351 57.8878
32.3134 3412 58.4123
32.4308 3257 57.0701
32.5482 3270 57.1839
32.6655 3285 57.3149
32.7829 3083 55.5248
32.9002 3138 56.0179
33.0176 3015 54.909
33.1349 2933 54.1572
33.2522 2894 53.7959
33.3694 2862 53.4977
33.4867 2871 53.5817
33.6039 2722 52.1728
33.7211 2731 52.259
33.8383 2838 53.2729
33.9554 2933 54.1572
34.0725 3107 55.7405
34.1896 2970 54.4977
34.3067 3117 55.8301
34.4237 3010 54.8635
34.5407 2988 54.6626
34.6577 3114 55.8032
34.7746 3220 56.745
34.8915 3113 55.7943
35.0084 3250 57.0088
35.1252 3181 56.4004
35.242 3036 55.0999
35.3587 2989 54.6717
35.4755 2940 54.2218
35.5921 3019 54.9454
35.7088 3034 55.0818
35.8254 3018 54.9363
35.9419 3005 54.8179
36.0584 2989 54.6717
36.1749 2822 53.1225
36.2913 2690 51.8652
36.4077 2736 52.3068
36.524 2547 50.4678
36.6403 2365 48.6313
36.7565 2242 47.3498
36.8727 2089 45.7056
36.9889 1865 43.1856
37.1049 1737 41.6773
37.221 0 1
37.3369 0 1
37.4529 0 1
37.5687 0 1
37.6845 0 1
37.8003 0 1
37.916 0 1
38.0316 0 1
38.1472 0 1
40.5851 0 1
40.7008 0 1
40.8164 0 1
40.9322 0 1
41.048 0 1
41.1639 0 1
41.2798 0 1
41.3958 0 1
41.5118 0 1
41.6279 0 1
41.744 1344 36.6606
41.8602 1527 39.0768
41.9765 1834 42.8252
42.0928 1839 42.8836
42.2091 1978 44.4747
42.3255 1925 43.8748
42.4419 2132 46.1736
42.5584 2137 46.2277
42.675 2316 48.1248
42.7915 2443 49.4267
42.9081 2395 48.9387
43.0248 2238 47.3075
43.1415 2107 45.9021
43.2582 2214 47.0532
43.375 2289 47.8435
43.4918 2416 49.1528
43.6087 2178 46.669
43.7256 2210 47.0106
43.8425 2313 48.0937
43.9595 2252 47.4552
44.0765 2232 47.244
44.1935 2301 47.9687
44.3106 2238 47.3075
44.4277 2311 48.0729
44.5448 2311 48.0729
44.6619 2372 48.7032
44.7791 2269 47.634
44.8963 2421 49.2037
45.0136 2346 48.4355
45.1308 2372 48.7032
45.2481 2384 48.8262
45.3654 2352 48.4974
45.4827 2274 47.6865
45.6001 2309 48.0521
45.7174 2309 48.0521
45.8348 2140 46.2601
45.9522 2187 46.7654
46.0697 2079 45.5961
46.1871 2163 46.5081
46.3046 2398 48.9694
46.422 2284 47.7912
46.5395 2309 48.0521
46.657 2127 46.1194
46.7745 2084 45.6508
46.892 2193 46.8295
47.0096 2286 47.8121
47.1271 2337 48.3425
47.2446 2223 47.1487
47.3622 2272 47.6655
47.4797 2182 46.7119
47.5973 2200 46.9042
47.7149 2231 47.2335
47.8324 2180 46.6905
47.95 2201 46.9148
48.0675 2184 46.7333
48.1851 2327 48.239
48.3027 2339 48.3632
48.4202 2361 48.5901
48.5378 2370 48.6826
48.6554 2302 47.9792
48.7729 2278 47.7284
48.8904 2264 47.5815
49.008 2229 47.2123
49.1255 2155 46.422
49.243 2066 45.4533
49.3605 2046 45.2327
49.478 1977 44.4635
49.5955 1981 44.5084
49.713 2064 45.4313
49.8304 2100 45.8258
49.9479 2207 46.9787
50.0653 2023 44.9778
50.1827 1971 44.3959
50.3001 1914 43.7493
50.4175 1992 44.6318
50.5348 2157 46.4435
50.6521 2227 47.1911
50.7694 2058 45.3652
50.8867 2103 45.8585
51.004 2110 45.9347
51.1212 2159 46.465
51.2384 2127 46.1194
51.3556 2127 46.1194
51.4727 2139 46.2493
51.5899 2194 46.8402
51.707 2210 47.0106
51.824 2245 47.3814
51.9411 2180 46.6905
52.0581 2161 46.4866
52.175 2029 45.0444
52.2919 2080 45.607
52.4088 2070 45.4973
52.5257 2105 45.8803
52.6425 2026 45.0111
52.7593 1966 44.3396
52.876 1957 44.238
52.9927 1889 43.4626
53.1094 1888 43.4511
53.226 1882 43.382
53.3426 1904 43.6348
53.4591 2057 45.3542
53.5756 1866 43.1972
53.692 1662 40.7676
53.8084 1562 39.5221
53.9248 1520 38.9872
54.0411 1317 36.2905
54.1573 1224 34.9857
54.2735 0 1
54.3896 0 1
54.5057 0 1
54.6217 0 1
54.7377 0 1
54.8537 0 1
54.9695 0 1
55.0853 0 1
55.2011 0 1
55.3168 0 1
55.4324 0 1
57.824 0 1
57.9396 0 1
58.0553 0 1
58.1711 0 1
58.2869 0 1
58.4028 0 1
58.5187 0 1
58.6347 0 1
58.7508 0 1
58.8669 0 1
58.983 1808 42.5206
59.0992 2055 45.3321
59.2155 2397 48.9592
59.3318 2490 49.8999
59.4482 2795 52.8678
59.5646 2998 54.754
59.681 2995 54.7266
59.7975 3088 55.5698
59.9141 3043 55.1634
60.0306 3270 57.1839
60.1473 3350 57.8792
60.2639 3332 57.7235
60.3807 3418 58.4637
60.4974 3317 57.5934
60.6142 3339 57.7841
60.731 3285 57.3149
60.8479 3234 56.8683
60.9648 3125 55.9017
61.0818 3080 55.4977
61.1987 3003 54.7996
61.3158 3069 55.3986
61.4328 2838 53.2729
61.5499 2766 52.5928
61.667 2582 50.8134
61.7841 2731 52.259
61.9013 2648 51.4587
62.0185 2730 52.2494
62.1357 2871 53.5817
62.253 2786 52.7826
62.3702 2704 52
62.4875 2731 52.259
62.6049 2633 51.3128
62.7222 2627 51.2543
62.8396 2639 51.3712
62.9569 2624 51.225
63.0743 2654 51.517
63.1918 2458 49.5782
63.3092 2461 49.6085
63.4267 2598 50.9706
63.5441 2568 50.6754
63.6616 2526 50.2593
63.7791 2582 50.8134
63.8966 2601 51
64.0142 2602 51.0098
64.1317 2599 50.9804
64.2492 2560 50.5964
64.3668 2572 50.7149
64.4843 2439 49.3862
64.6019 2511 50.1099
64.7195 2325 48.2183
64.837 2357 48.5489
64.9546 2269 47.634
65.0722 2256 47.4974
65.1898 2157 46.4435
65.3074 2169 46.5725
65.4249 2204 46.9468
65.5425 2174 46.6262
65.6601 2384 48.8262
65.7777 2411 49.1019
65.8952 2360 48.5798
66.0128 2456 49.558
66.1304 2379 48.775
66.2479 2488 49.8799
66.3655 2417 49.163
66.483 2511 50.1099
66.6005 2488 49.8799
66.718 2420 49.1935
66.8355 2341 48.3839
66.953 2349 48.4665
67.0705 2391 48.8979
67.1879 2465 49.6488
67.3054 2516 50.1597
67.4228 2536 50.3587
67.5402 2509 50.0899
67.6576 2512 50.1199
67.7749 2487 49.8698
67.8923 2458 49.5782
68.0096 2535 50.3488
68.1269 2467 49.6689
68.2442 2458 49.5782
68.3614 2338 48.3529
68.4787 2297 47.927
68.5958 2203 46.9361
68.713 2111 45.9456
68.8302 2098 45.8039
68.9473 2064 45.4313
69.0643 2187 46.7654
69.1814 2214 47.0532
69.2984 2330 48.2701
69.4154 2239 47.3181
69.5323 2462 49.6185
69.6492 2248 47.4131
69.7661 2245 47.3814
69.8829 2327 48.239
69.9997 2216 47.0744
70.1165 2228 47.2017
70.2332 2226 47.1805
70.3499 2146 46.3249
70.4665 1967 44.3509
70.5831 1775 42.1307
70.6996 1747 41.7971
70.8161 1761 41.9643
70.9326 1680 40.9878
71.049 1552 39.3954
71.1653 1498 38.704
71.2817 1340 36.606
71.3979 1325 36.4005
71.5141 1170 34.2053
71.6303 1066 32.6497
71.7464 949 30.8058
71.8624 0 1
71.9784 0 1
72.0944 0 1
72.2102 0 1
72.3261 0 1
72.4418 0 1
72.5575 0 1
72.6732 0 1
75.1054 0 1
75.2209 0 1
75.3365 0 1
75.4521 0 1
75.5678 0 1
75.6835 0 1
75.7993 0 1
75.9151 0 1
76.031 0 1
76.147 1484 38.5227
76.263 1730 41.5933
76.3791 1897 43.5546
76.4952 1933 43.9659
76.6113 2032 45.0777
76.7276 2142 46.2817
76.8438 2011 44.8442
76.9601 2054 45.3211
77.0765 2025 45
77.1929 1970 44.3847
77.3093 2080 45.607
77.4258 2037 45.1331
77.5423 1988 44.587
77.6589 1880 43.359
77.7755 1864 43.1741
77.8921 1790 42.3084
78.0088 1808 42.5206
78.1256 1819 42.6497
78.2423 1906 43.6578
78.3591 1926 43.8862
78.4759 1976 44.4522
78.5928 2121 46.0543
78.7097 2079 45.5961
78.8266 2086 45.6727
78.9436 2106 45.8912
79.0606 2013 44.8665
79.1776 1914 43.7493
79.2946 2120 46.0435
79.4117 2103 45.8585
79.5288 1973 44.4185
79.6459 1938 44.0227
79.7631 2007 44.7996
79.8802 2221 47.1275
79.9974 2235 47.2758
80.1147 2327 48.239
80.2319 2235 47.2758
80.3491 2202 46.9255
80.4664 2228 47.2017
80.5837 2203 46.9361
80.701 2161 46.4866
80.8183 2139 46.2493
80.9357 2142 46.2817
81.053 2144 46.3033
81.1704 2049 45.2659
81.2877 2083 45.6399
81.4051 1948 44.1362
81.5225 1898 43.566
81.6399 1900 43.589
81.7573 1882 43.382
81.8747 1860 43.1277
81.9922 2026 45.0111
82.1096 2094 45.7602
82.227 2232 47.244
82.3444 2144 46.3033
82.4619 2245 47.3814
82.5793 2224 47.1593
82.6967 2242 47.3498
82.8142 2144 46.3033
82.9316 2176 46.6476
83.049 2218 47.0956
83.1664 2177 46.6583
83.2838 2075 45.5522
83.4012 2078 45.5851
83.5186 2279 47.7389
83.636 2233 47.2546
83.7534 2373 48.7134
83.8708 2468 49.679
83.9881 2306 48.0208
84.1055 2363 48.6107
84.2228 2330 48.2701
84.3401 2367 48.6518
84.4575 2250 47.4342
84.5747 2255 47.4868
84.692 2173 46.6154
84.8093 2229 47.2123
84.9265 2195 46.8508
85.0437 1978 44.4747
85.1609 1957 44.238
85.2781 1940 44.0454
85.3952 1924 43.8634
85.5123 2106 45.8912
85.6294 2136 46.2169
85.7465 2162 46.4973
85.8636 2325 48.2183
85.9806 2278 47.7284
86.0976 2256 47.4974
86.2145 2433 49.3254
86.3315 2334 48.3115
86.4484 2372 48.7032
86.5652 2337 48.3425
86.682 2322 48.1871
86.7988 2256 47.4974
86.9156 2190 46.7974
87.0323 2251 47.4447
87.149 2295 47.9062
87.2657 2341 48.3839
87.3823 2321 48.1768
87.4988 2217 47.085
87.6154 2149 46.3573
87.7318 2076 45.5631
87.8483 2034 45.0999
87.9647 1918 43.795
88.081 1797 42.391
88.1973 1639 40.4846
88.3136 1498 38.704
88.4298 1400 37.4166
88.546 1284 35.8329
88.6621 1161 34.0735
88.7781 1067 32.665
88.8942 0 1
89.0101 0 1
89.126 0 1
89.2419 0 1
89.3577 0 1
89.4734 0 1
89.5891 0 1
89.7047 0 1
89.8203 0 1
89.9358 0 1
92.3269 0 1
92.4424 0 1
92.558 0 1
92.6736 0 1
92.7893 0 1
92.905 0 1
93.0208 0 1
93.1366 0 1
93.2525 0 1
93.3685 0 1
93.4845 0 1
93.6005 1828 42.7551
93.7167 2012 44.8553
93.8328 2037 45.1331
93.949 2242 47.3498
94.0653 2162 46.4973
94.1816 2182 46.7119
94.2979 2180 46.6905
94.4143 2053 45.31
94.5307 2011 44.8442
94.6472 2147 46.3357
94.7637 2131 46.1628
94.8803 2231 47.2335
94.9969 2363 48.6107
95.1135 2368 48.6621
95.2302 2381 48.7955
95.3469 2434 49.3356
95.4637 2405 49.0408
95.5805 2406 49.051
95.6973 2481 49.8096
95.8142 2411 49.1019
95.9311 2399 48.9796
96.048 2322 48.1871
96.1649 2448 49.4773
96.2819 2366 48.6415
96.3989 2499 49.99
96.516 2470 49.6991
96.633 2573 50.7247
96.7501 2525 50.2494
96.8673 2499 49.99
96.9844 2498 49.98
97.1016 2445 49.4469
97.2188 2482 49.8197
97.336 2429 49.2849
97.4532 2420 49.1935
97.5704 2378 48.7647
97.6877 2367 48.6518
97.805 2291 47.8644
97.9223 2237 47.2969
98.0396 2116 46
98.1569 2181 46.7012
98.2743 2095 45.7712
98.3916 2295 47.9062
98.509 2534 50.3389
98.6264 2522 50.2195
98.7438 2616 51.1468
98.8612 2592 50.9117
98.9786 2679 51.7591
99.096 2567 50.6656
99.2134 2634 51.3225
99.3308 2549 50.4876
99.4482 2530 50.2991
99.5656 2599 50.9804
99.6831 2527 50.2693
99.8005 2554 50.5371
99.9179 2555 50.547
100.035 2611 51.0979
100.153 2632 51.303
100.27 2713 52.0865
100.388 2721 52.1632
100.505 2690 51.8652
100.622 2635 51.3323
100.74 2568 50.6754
100.857 2531 50.309
100.975 2466 49.6588
101.092 2577 50.7642
101.209 2540 50.3984
101.327 2542 50.4183
101.444 2492 49.9199
101.561 2363 48.6107
101.679 2345 48.4252
101.796 2385 48.8365
101.913 2427 49.2646
102.03 2551 50.5074
102.148 2664 51.614
102.265 2869 53.563
102.382 2770 52.6308
102.499 2688 51.8459
102.616 2760 52.5357
102.733 2786 52.7826
102.851 2942 54.2402
102.968 2817 53.0754
103.085 2902 53.8702
103.202 2836 53.2541
103.319 2936 54.1849
103.436 2801 52.9245
103.552 2877 53.6377
103.669 2998 54.754
103.786 3008 54.8452
103.903 3107 55.7405
104.02 2983 54.6168
104.137 2924 54.074
104.253 2988 54.6626
104.37 2994 54.7175
104.487 2876 53.6284
104.603 2872 53.591
104.72 2877 53.6377
104.836 2820 53.1037
104.953 2725 52.2015
105.069 2618 51.1664
105.186 2582 50.8134
105.302 2262 47.5605
105.418 2237 47.2969
105.535 2142 46.2817
105.651 1995 44.6654
105.767 1860 43.1277
105.883 1704 41.2795
105.999 1592 39.8999
106.115 0 1
106.231 0 1
106.347 0 1
106.463 0 1
106.579 0 1
106.694 0 1
106.81 0 1
106.926 0 1
107.041 0 1
107.157 0 1
109.576 0 1
109.692 0 1
109.807 0 1
109.923 0 1
110.039 0 1
110.155 0 1
110.27 0 1
110.386 0 1
110.502 0 1
110.618 1300 36.0555
110.735 1598 39.975
110.851 1998 44.699
110.967 2142 46.2817
111.083 2467 49.6689
111.199 2615 51.1371
111.316 2540 50.3984
111.432 2720 52.1536
111.549 2830 53.1977
111.665 2756 52.4976
111.782 2778 52.7067
111.898 2611 51.0979
112.015 2667 51.643
112.132 2681 51.7784
112.248 2605 51.0392
112.365 2768 52.6118
112.482 2744 52.3832
112.599 2745 52.3927
112.716 2830 53.1977
112.832 2762 52.5547
112.949 2572 50.7149
113.066 2631 51.2933
113.183 2688 51.8459
113.3 2566 50.6557
113.417 2517 50.1697
113.534 2598 50.9706
113.652 2478 49.7795
113.769 2498 49.98
113.886 2294 47.8957
114.003 2262 47.5605
114.12 2132 46.1736
114.238 2149 46.3573
114.355 2375 48.734
114.472 2417 49.163
114.589 2369 48.6724
114.707 2469 49.689
114.824 2351 48.4871
114.942 2421 49.2037
115.059 2513 50.1298
115.176 2563 50.6261
115.294 2475 49.7494
115.411 2350 48.4768
115.529 2320 48.1664
115.646 2280 47.7493
115.764 2294 47.8957
115.881 2350 48.4768
115.999 2417 49.163
116.116 2346 48.4355
116.234 2417 49.163
116.351 2319 48.156
116.469 2336 48.3322
116.586 2245 47.3814
116.704 2204 46.9468
116.821 2240 47.3286
116.939 2328 48.2494
117.056 2236 47.2864
117.174 2335 48.3218
117.291 2332 48.2908
117.409 2161 46.4866
117.526 2177 46.6583
117.644 2051 45.288
117.761 1973 44.4185
117.879 1975 44.441
117.996 1934 43.9773
118.114 2124 46.0869
118.231 2286 47.8121
118.349 2256 47.4974
118.466 2253 47.4658
118.584 2286 47.8121
118.701 2321 48.1768
118.819 2301 47.9687
118.936 2288 47.833
119.053 2177 46.6583
119.171 2069 45.4863
119.288 2026 45.0111
119.405 2006 44.7884
119.523 2129 46.1411
119.64 2210 47.0106
119.757 2157 46.4435
119.875 2185 46.744
119.992 2120 46.0435
120.109 2114 45.9783
120.226 2033 45.0888
120.343 2200 46.9042
120.46 2197 46.8722
120.578 2147 46.3357
120.695 2065 45.4423
120.812 1992 44.6318
120.929 2087 45.6837
121.046 2014 44.8776
121.163 1963 44.3058
121.279 1900 43.589
121.396 1777 42.1545
121.513 1777 42.1545
121.63 1729 41.5812
121.747 1705 41.2916
121.863 1674 40.9145
121.98 1710 41.3521
122.097 1757 41.9166
122.213 1770 42.0714
122.33 1780 42.19
122.446 1669 40.8534
122.563 1585 39.8121
122.679 1483 38.5097
122.795 1388 37.2559
122.912 1233 35.1141
123.028 1195 34.5688
123.144 1182 34.3802
123.26 1124 33.5261
123.377 0 1
123.493 0 1
123.609 0 1
123.725 0 1
123.84 0 1
123.956 0 1
124.072 0 1
124.188 0 1
124.303 0 1
124.419 0 1
126.852 0 1
126.968 0 1
127.083 0 1
127.199 0 1
127.315 0 1
127.431 0 1
127.547 0 1
127.663 0 1
127.779 0 1
127.895 0 1
128.011 0 1
128.127 0 1
128.243 0 1
128.359 2185 46.744
128.476 2091 45.7275
128.592 2148 46.3465
128.708 2225 47.1699
128.825 2432 49.3153
128.941 2319 48.156
129.058 2313 48.0937
129.174 2380 48.7852
129.291 2263 47.571
129.408 2436 49.3559
129.524 2343 48.4045
129.641 2405 49.0408
129.758 2255 47.4868
129.875 2313 48.0937
129.992 2449 49.4874
130.108 2469 49.689
130.225 2403 49.0204
130.342 2346 48.4355
130.459 2222 47.1381
130.576 2282 47.7703
130.693 2209 47
130.81 2234 47.2652
130.928 2270 47.6445
131.045 2500 50
131.162 2644 51.4198
131.279 2864 53.5164
131.396 2899 53.8424
131.513 2742 52.3641
131.631 3013 54.8908
131.748 2953 54.3415
131.865 2995 54.7266
131.983 3040 55.1362
132.1 3243 56.9473
132.217 3376 58.1034
132.335 3424 58.515
132.452 3758 61.3025
132.57 3915 62.57
132.687 3749 61.2291
132.804 4042 63.5767
132.922 4044 63.5925
133.039 4121 64.195
133.157 4131 64.2729
133.274 4300 65.5744
133.392 4214 64.9153
133.509 4441 66.6408
133.627 4214 64.9153
133.744 4148 64.405
133.862 4136 64.3117
133.979 3995 63.206
134.097 3838 61.9516
134.214 3690 60.7454
134.332 3757 61.2944
134.449 3751 61.2454
134.567 3892 62.3859
134.684 4213 64.9076
134.802 4401 66.34
134.919 4502 67.0969
135.037 4387 66.2344
135.154 4341 65.8863
135.272 4278 65.4064
135.389 4275 65.3835
135.507 4236 65.0846
135.624 4199 64.7997
135.742 4258 65.2534
135.859 4388 66.242
135.977 4578 67.6609
136.094 4578 67.6609
136.211 4602 67.838
136.329 4502 67.0969
136.446 4547 67.4314
136.564 4631 68.0515
136.681 4602 67.838
136.798 4513 67.1789
136.915 4660 68.2642
137.033 4688 68.469
137.15 4577 67.6535
137.267 4690 68.4836
137.384 4493 67.0298
137.502 4395 66.2948
137.619 4203 64.8305
137.736 4085 63.914
137.853 3632 60.2661
137.97 3647 60.3904
138.087 3668 60.564
138.204 4162 64.5136
138.321 4630 68.0441
138.438 4805 69.3181
138.555 4798 69.2676
138.672 4876 69.8284
138.788 4845 69.606
138.905 4623 67.9926
139.022 4443 66.6558
139.139 4018 63.3877
139.255 4003 63.2693
139.372 3970 63.0079
139.488 3806 61.6928
139.605 3711 60.918
139.721 3676 60.63
139.838 3638 60.3158
139.954 3563 59.6909
140.071 3408 58.3781
140.187 3182 56.4092
140.303 2953 54.3415
140.419 2861 53.4883
140.535 2775 52.6783
140.652 2652 51.4976
140.768 0 1
140.884 0 1
141 0 1
141.115 0 1
141.231 0 1
141.347 0 1
141.463 0 1
141.578 0 1
141.694 0 1
144.104 0 1
144.219 0 1
144.335 0 1
144.45 0 1
144.566 0 1
144.682 0 1
144.798 0 1
144.914 0 1
145.03 0 1
145.146 6974 83.5105
145.262 7435 86.2264
145.378 7829 88.4816
145.494 7966 89.2525
145.61 8108 90.0444
145.726 8208 90.598
145.842 8323 91.2305
145.959 8283 91.011
146.075 8328 91.2579
146.192 8332 91.2798
146.308 8165 90.3604
146.425 7644 87.43
146.541 6620 81.3634
146.658 5175 71.9375
146.774 4862 69.728
146.891 6024 77.6144
147.008 7583 87.0804
147.125 8088 89.9333
147.241 8103 90.0167
147.358 8349 91.3729
147.475 8200 90.5539
147.592 8117 90.0944
147.709 7901 88.8876
147.826 7782 88.2156
147.943 7686 87.6698
148.06 7336 85.6505
148.177 7237 85.0706
148.294 7382 85.9186
148.411 7313 85.5161
148.528 7446 86.2902
148.645 7579 87.0575
148.762 7336 85.6505
148.88 7427 86.18
148.997 7476 86.4639
149.114 7366 85.8254
149.231 7430 86.1974
149.349 7385 85.936
149.466 7369 85.8429
149.583 7270 85.2643
149.701 7266 85.2408
149.818 7205 84.8823
149.935 7156 84.5931
150.053 6761 82.2253
150.17 6119 78.224
150.287 5052 71.0774
150.405 4573 67.624
150.522 4840 69.5701
150.64 5714 75.591
150.757 6434 80.2122
150.875 6653 81.5659
150.992 6568 81.0432
151.11 6742 82.1097
151.227 6466 80.4114
151.344 6591 81.185
151.462 6367 79.7935
151.579 6182 78.6257
151.697 6369 79.806
151.814 6405 80.0312
151.932 6556 80.9691
152.049 6572 81.0679
152.167 6710 81.9146
152.284 6682 81.7435
152.402 6880 82.9458
152.519 6881 82.9518
152.636 6931 83.2526
152.754 6871 82.8915
152.871 6905 83.0963
152.989 6797 82.4439
153.106 6929 83.2406
153.223 6924 83.2106
153.341 6887 82.988
153.458 7113 84.3386
153.575 6986 83.5823
153.693 6456 80.3492
153.81 5493 74.1148
153.927 4698 68.542
154.044 4799 69.2748
154.162 5616 74.94
154.279 6083 77.9936
154.396 6575 81.0864
154.513 6493 80.5792
154.63 6601 81.2465
154.747 6734 82.061
154.864 6628 81.4125
154.981 6464 80.399
155.098 6352 79.6994
155.215 6227 78.9113
155.332 6139 78.3518
155.449 6161 78.492
155.566 6158 78.4729
155.683 6195 78.7083
155.8 6233 78.9494
155.917 6330 79.5613
156.033 6272 79.196
156.15 0 1
156.267 0 1
156.383 0 1
156.5 0 1
156.617 0 1
156.733 0 1
156.85 0 1
156.966 0 1
157.082 0 1
157.199 0 1
157.315 0 1
157.431 0 1
157.547 0 1
157.664 0 1
157.78 0 1
157.896 0 1
158.012 0 1
158.128 0 1
158.244 0 1
158.359 0 1
158.475 0 1
158.591 0 1
158.706 0 1
