
6.15755 0 1
6.2731 0 1
6.3887 0 1
6.50437 0 1
6.62009 0 1
6.73587 0 1
6.8517 0 1
6.96759 0 1
7.08353 0 1
7.19952 0 1
7.31557 0 1
7.43166 0 1
7.54781 0 1
7.664 0 1
7.78024 0 1
7.89653 0 1
8.01286 0 1
8.12924 0 1
8.24567 0 1
8.36213 0 1
8.47864 0 1
8.59519 0 1
8.71178 0 1
8.82841 0 1
8.94508 0 1
9.06179 0 1
9.17853 0 1
9.29531 0 1
9.41212 0 1
9.52897 0 1
9.64584 0 1
9.76276 0 1
9.8797 0 1
9.99667 0 1
10.1137 0 1
10.2307 0 1
10.3478 0 1
10.4648 0 1
10.5819 0 1
10.6991 0 1
10.8162 0 1
10.9334 0 1
11.0506 0 1
11.1678 0 1
11.285 0 1
11.4023 0 1
11.5196 0 1
11.6369 0 1
11.7542 0 1
11.8715 0 1
11.9888 0 1
12.1062 0 1
12.2235 0 1
12.3409 0 1
12.4582 0 1
12.5756 0 1
12.693 0 1
12.8104 0 1
12.9278 0 1
13.0452 0 1
13.1626 0 1
13.28 0 1
13.3974 0 1
13.5149 0 1
13.6323 0 1
13.7497 0 1
13.8671 0 1
13.9845 0 1
14.1019 0 1
14.2193 0 1
14.3367 0 1
14.4541 0 1
14.5714 0 1
14.6888 0 1
14.8062 0 1
14.9235 0 1
15.0408 1605 40.0625
15.1581 1585 39.8121
15.2755 1694 41.1582
15.3927 1714 41.4005
15.51 1668 40.8412
15.6273 1773 42.107
15.7445 1696 41.1825
15.8617 1653 40.6571
15.9789 1662 40.7676
16.0961 1667 40.8289
16.2132 1684 41.0366
16.3304 1731 41.6053
16.4475 1729 41.5812
16.5646 1805 42.4853
16.6816 1955 44.2154
16.7986 2004 44.7661
16.9156 2078 45.5851
17.0326 2034 45.0999
17.1496 2002 44.7437
17.2665 2058 45.3652
17.3833 2019 44.9333
17.5002 2000 44.7214
17.617 1964 44.317
17.7338 1826 42.7317
17.8505 1778 42.1663
17.9672 1748 41.8091
18.0839 1750 41.833
18.2005 1864 43.1741
18.3171 1957 44.238
18.4337 1889 43.4626
18.5502 1894 43.5201
18.6666 1937 44.0114
18.7831 1940 44.0454
18.8994 2042 45.1885
19.0158 1884 43.4051
19.1321 1885 43.4166
19.2483 1919 43.8064
19.3645 1697 41.1947
19.4806 1661 40.7554
19.5967 1595 39.9375
19.7128 1412 37.5766
19.8288 1304 36.1109
19.9447 1224 34.9857
20.0606 0 1
20.1764 0 1
20.2922 0 1
20.4079 0 1
20.5236 0 1
20.6392 0 1
20.7548 0 1
20.8702 0 1
23.3078 0 1
23.4233 0 1
23.539 0 1
23.6547 0 1
23.7704 0 1
23.8862 0 1
24.0021 0 1
24.118 0 1
24.234 0 1
24.35 0 1
24.4661 796 28.2135
24.5822 1057 32.5115
24.6984 1099 33.1512
24.8146 1187 34.4529
24.9309 1336 36.5513
25.0472 1482 38.4968
25.1636 1622 40.2741
25.28 1826 42.7317
25.3965 1885 43.4166
25.513 2007 44.7996
25.6296 2149 46.3573
25.7462 2197 46.8722
25.8628 2210 47.0106
25.9795 2106 45.8912
26.0962 2175 46.6369
26.213 2047 45.2438
26.3298 1976 44.4522
26.4466 1843 42.9302
26.5635 1831 42.7902
26.6804 1821 42.6732
26.7973 1937 44.0114
26.9143 1865 43.1856
27.0313 1994 44.6542
27.1483 1976 44.4522
27.2653 2043 45.1996
27.3824 2013 44.8665
27.4996 2089 45.7056
27.6167 2029 45.0444
27.7339 1995 44.6654
27.8511 1925 43.8748
27.9683 1890 43.4741
28.0855 1766 42.0238
28.2028 1806 42.4971
28.3201 1736 41.6653
28.4374 1716 41.4246
28.5547 1815 42.6028
28.6721 1871 43.2551
28.7894 1881 43.3705
28.9068 1991 44.6206
29.0242 2079 45.5961
29.1416 2138 46.2385
29.259 2066 45.4533
29.3764 2142 46.2817
29.4939 2130 46.1519
29.6113 2055 45.3321
29.7288 1890 43.4741
29.8463 1883 43.3935
29.9638 1852 43.0349
30.0812 1726 41.5452
30.1987 1760 41.9524
30.3162 1784 42.2374
30.4337 1842 42.9185
30.5512 1881 43.3705
30.6687 1851 43.0232
30.7862 1910 43.7035
30.9037 1982 44.5197
31.0212 2008 44.8107
31.1387 1963 44.3058
31.2562 2022 44.9667
31.3737 1867 43.2088
31.4912 1946 44.1135
31.6087 1809 42.5323
31.7262 1737 41.6773
31.8436 1709 41.3401
31.9611 1682 41.0122
32.0785 1688 41.0853
32.1959 1792 42.332
32.3134 1891 43.4856
32.4308 1910 43.7035
32.5482 1957 44.238
32.6655 1994 44.6542
32.7829 2067 45.4643
32.9002 1972 44.4072
33.0176 2101 45.8367
33.1349 2000 44.7214
33.2522 1944 44.0908
33.3694 1832 42.8019
33.4867 1753 41.8688
33.6039 1828 42.7551
33.7211 1660 40.7431
33.8383 1742 41.7373
33.9554 1713 41.3884
34.0725 1784 42.2374
34.1896 1795 42.3674
34.3067 1858 43.1045
34.4237 1839 42.8836
34.5407 1889 43.4626
34.6577 1992 44.6318
34.7746 1943 44.0795
34.8915 1937 44.0114
35.0084 1898 43.566
35.1252 1865 43.1856
35.242 1724 41.5211
35.3587 1689 41.0974
35.4755 1660 40.7431
35.5921 1672 40.8901
35.7088 1618 40.2244
35.8254 1603 40.0375
35.9419 1662 40.7676
36.0584 1687 41.0731
36.1749 1774 42.1189
36.2913 1894 43.5201
36.4077 1804 42.4735
36.524 1725 41.5331
36.6403 1696 41.1825
36.7565 1650 40.6202
36.8727 1552 39.3954
36.9889 1429 37.8021
37.1049 1351 36.756
37.221 0 1
37.3369 0 1
37.4529 0 1
37.5687 0 1
37.6845 0 1
37.8003 0 1
37.916 0 1
38.0316 0 1
38.1472 0 1
40.5851 0 1
40.7008 0 1
40.8164 0 1
40.9322 0 1
41.048 0 1
41.1639 0 1
41.2798 0 1
41.3958 0 1
41.5118 0 1
41.6279 0 1
41.744 963 31.0322
41.8602 1053 32.45
41.9765 1160 34.0588
42.0928 1087 32.9697
42.2091 1125 33.541
42.3255 1136 33.7046
42.4419 1078 32.8329
42.5584 1151 33.9264
42.675 1225 35
42.7915 1330 36.4692
42.9081 1439 37.9342
43.0248 1454 38.1314
43.1415 1524 39.0384
43.2582 1533 39.1535
43.375 1539 39.2301
43.4918 1582 39.7744
43.6087 1523 39.0256
43.7256 1575 39.6863
43.8425 1541 39.2556
43.9595 1498 38.704
44.0765 1478 38.4448
44.1935 1432 37.8418
44.3106 1395 37.3497
44.4277 1357 36.8375
44.5448 1245 35.2846
44.6619 1352 36.7696
44.7791 1474 38.3927
44.8963 1454 38.1314
45.0136 1537 39.2046
45.1308 1587 39.8372
45.2481 1619 40.2368
45.3654 1588 39.8497
45.4827 1660 40.7431
45.6001 1596 39.95
45.7174 1524 39.0384
45.8348 1484 38.5227
45.9522 1385 37.2156
46.0697 1298 36.0278
46.1871 1266 35.5809
46.3046 1285 35.8469
46.422 1440 37.9473
46.5395 1505 38.7943
46.657 1511 38.8716
46.7745 1488 38.5746
46.892 1558 39.4715
47.0096 1599 39.9875
47.1271 1618 40.2244
47.2446 1637 40.4599
47.3622 1652 40.6448
47.4797 1569 39.6106
47.5973 1521 39
47.7149 1465 38.2753
47.8324 1387 37.2424
47.95 1360 36.8782
48.0675 1314 36.2491
48.1851 1334 36.524
48.3027 1394 37.3363
48.4202 1461 38.223
48.5378 1570 39.6232
48.6554 1650 40.6202
48.7729 1604 40.05
48.8904 1599 39.9875
49.008 1616 40.1995
49.1255 1600 40
49.243 1492 38.6264
49.3605 1492 38.6264
49.478 1327 36.428
49.5955 1293 35.9583
49.713 1259 35.4824
49.8304 1251 35.3695
49.9479 1363 36.9188
50.0653 1459 38.1969
50.1827 1536 39.1918
50.3001 1499 38.7169
50.4175 1597 39.9625
50.5348 1628 40.3485
50.6521 1538 39.2173
50.7694 1592 39.8999
50.8867 1656 40.694
51.004 1628 40.3485
51.1212 1644 40.5463
51.2384 1509 38.8458
51.3556 1587 39.8372
51.4727 1509 38.8458
51.5899 1461 38.223
51.707 1417 37.6431
51.824 1524 39.0384
51.9411 1622 40.2741
52.0581 1723 41.509
52.175 1906 43.6578
52.2919 1914 43.7493
52.4088 2009 44.8219
52.5257 2012 44.8553
52.6425 2009 44.8219
52.7593 1982 44.5197
52.876 1952 44.1814
52.9927 1869 43.2319
53.1094 1811 42.5558
53.226 1640 40.4969
53.3426 1526 39.064
53.4591 1610 40.1248
53.5756 1714 41.4005
53.692 1755 41.8927
53.8084 1658 40.7185
53.9248 1655 40.6817
54.0411 1575 39.6863
54.1573 1524 39.0384
54.2735 0 1
54.3896 0 1
54.5057 0 1
54.6217 0 1
54.7377 0 1
54.8537 0 1
54.9695 0 1
55.0853 0 1
55.2011 0 1
55.3168 0 1
55.4324 0 1
57.824 0 1
57.9396 0 1
58.0553 0 1
58.1711 0 1
58.2869 0 1
58.4028 0 1
58.5187 0 1
58.6347 0 1
58.7508 0 1
58.8669 0 1
58.983 1289 35.9026
59.0992 1407 37.51
59.2155 1548 39.3446
59.3318 1649 40.6079
59.4482 1694 41.1582
59.5646 1688 41.0853
59.681 1879 43.3474
59.7975 1733 41.6293
59.9141 1945 44.1022
60.0306 1825 42.72
60.1473 1768 42.0476
60.2639 1687 41.0731
60.3807 1713 41.3884
60.4974 1679 40.9756
60.6142 1821 42.6732
60.731 1918 43.795
60.8479 2011 44.8442
60.9648 2096 45.7821
61.0818 2091 45.7275
61.1987 2024 44.9889
61.3158 2055 45.3321
61.4328 1971 44.3959
61.5499 1779 42.1782
61.667 1694 41.1582
61.7841 1610 40.1248
61.9013 1490 38.6005
62.0185 1527 39.0768
62.1357 1638 40.4722
62.253 1746 41.7852
62.3702 1766 42.0238
62.4875 1789 42.2966
62.6049 1873 43.2782
62.7222 1914 43.7493
62.8396 1989 44.5982
62.9569 1951 44.1701
63.0743 2002 44.7437
63.1918 2013 44.8665
63.3092 1969 44.3734
63.4267 1913 43.7379
63.5441 1890 43.4741
63.6616 1841 42.9069
63.7791 1676 40.939
63.8966 1578 39.724
64.0142 1718 41.4488
64.1317 1758 41.9285
64.2492 1763 41.9881
64.3668 1935 43.9886
64.4843 1956 44.2267
64.6019 2020 44.9444
64.7195 1994 44.6542
64.837 2053 45.31
64.9546 1949 44.1475
65.0722 1839 42.8836
65.1898 1747 41.7971
65.3074 1513 38.8973
65.4249 1536 39.1918
65.5425 1462 38.2361
65.6601 1517 38.9487
65.7777 1626 40.3237
65.8952 1746 41.7852
66.0128 1768 42.0476
66.1304 1801 42.4382
66.2479 1914 43.7493
66.3655 1872 43.2666
66.483 1922 43.8406
66.6005 2060 45.3872
66.718 1984 44.5421
66.8355 1924 43.8634
66.953 1805 42.4853
67.0705 1838 42.8719
67.1879 1737 41.6773
67.3054 1699 41.2189
67.4228 1528 39.0896
67.5402 1507 38.8201
67.6576 1621 40.2616
67.7749 1564 39.5474
67.8923 1730 41.5933
68.0096 1842 42.9185
68.1269 1900 43.589
68.2442 1900 43.589
68.3614 1949 44.1475
68.4787 1943 44.0795
68.5958 1882 43.382
68.713 1780 42.19
68.8302 1770 42.0714
68.9473 1639 40.4846
69.0643 1475 38.4057
69.1814 1342 36.6333
69.2984 1328 36.4417
69.4154 1489 38.5876
69.5323 1607 40.0874
69.6492 1693 41.1461
69.7661 1704 41.2795
69.8829 1815 42.6028
69.9997 1834 42.8252
70.1165 1759 41.9404
70.2332 1708 41.328
70.3499 1620 40.2492
70.4665 1555 39.4335
70.5831 1539 39.2301
70.6996 1355 36.8103
70.8161 1297 36.0139
70.9326 1201 34.6554
71.049 1005 31.7017
71.1653 880 29.6648
71.2817 803 28.3373
71.3979 799 28.2666
71.5141 661 25.7099
71.6303 709 26.6271
71.7464 659 25.671
71.8624 0 1
71.9784 0 1
72.0944 0 1
72.2102 0 1
72.3261 0 1
72.4418 0 1
72.5575 0 1
72.6732 0 1
75.1054 0 1
75.2209 0 1
75.3365 0 1
75.4521 0 1
75.5678 0 1
75.6835 0 1
75.7993 0 1
75.9151 0 1
76.031 0 1
76.147 1122 33.4963
76.263 1211 34.7994
76.3791 1237 35.171
76.4952 1252 35.3836
76.6113 1249 35.3412
76.7276 1299 36.0416
76.8438 1471 38.3536
76.9601 1560 39.4968
77.0765 1660 40.7431
77.1929 1684 41.0366
77.3093 1681 41
77.4258 1653 40.6571
77.5423 1652 40.6448
77.6589 1600 40
77.7755 1479 38.4578
77.8921 1363 36.9188
78.0088 1218 34.8999
78.1256 1182 34.3802
78.2423 1111 33.3317
78.3591 1248 35.327
78.4759 1359 36.8646
78.5928 1471 38.3536
78.7097 1473 38.3797
78.8266 1546 39.3192
78.9436 1626 40.3237
79.0606 1651 40.6325
79.1776 1621 40.2616
79.2946 1737 41.6773
79.4117 1714 41.4005
79.5288 1568 39.598
79.6459 1638 40.4722
79.7631 1477 38.4318
79.8802 1543 39.281
79.9974 1438 37.921
80.1147 1310 36.1939
80.2319 1351 36.756
80.3491 1294 35.9722
80.4664 1449 38.0657
80.5837 1537 39.2046
80.701 1575 39.6863
80.8183 1677 40.9512
80.9357 1689 41.0974
81.053 1694 41.1582
81.1704 1726 41.5452
81.2877 1623 40.2865
81.4051 1601 40.0125
81.5225 1525 39.0512
81.6399 1386 37.229
81.7573 1235 35.1426
81.8747 1189 34.4819
81.9922 1195 34.5688
82.1096 1364 36.9324
82.227 1401 37.4299
82.3444 1490 38.6005
82.4619 1576 39.6989
82.5793 1601 40.0125
82.6967 1674 40.9145
82.8142 1709 41.3401
82.9316 1747 41.7971
83.049 1761 41.9643
83.1664 1649 40.6079
83.2838 1618 40.2244
83.4012 1624 40.2989
83.5186 1545 39.3065
83.636 1601 40.0125
83.7534 1481 38.4838
83.8708 1462 38.2361
83.9881 1337 36.565
84.1055 1393 37.3229
84.2228 1538 39.2173
84.3401 1566 39.5727
84.4575 1753 41.8688
84.5747 1746 41.7852
84.692 1727 41.5572
84.8093 1776 42.1426
84.9265 1657 40.7063
85.0437 1595 39.9375
85.1609 1412 37.5766
85.2781 1276 35.7211
85.3952 1204 34.6987
85.5123 1186 34.4384
85.6294 1293 35.9583
85.7465 1396 37.3631
85.8636 1416 37.6298
85.9806 1624 40.2989
86.0976 1616 40.1995
86.2145 1671 40.8779
86.3315 1716 41.4246
86.4484 1752 41.8569
86.5652 1783 42.2256
86.682 1739 41.7013
86.7988 1678 40.9634
86.9156 1709 41.3401
87.0323 1743 41.7493
87.149 1582 39.7744
87.2657 1496 38.6782
87.3823 1350 36.7423
87.4988 1270 35.6371
87.6154 1154 33.9706
87.7318 1214 34.8425
87.8483 1326 36.4143
87.9647 1348 36.7151
88.081 1386 37.229
88.1973 1327 36.428
88.3136 1314 36.2491
88.4298 1272 35.6651
88.546 1167 34.1614
88.6621 992 31.496
88.7781 761 27.5862
88.8942 0 1
89.0101 0 1
89.126 0 1
89.2419 0 1
89.3577 0 1
89.4734 0 1
89.5891 0 1
89.7047 0 1
89.8203 0 1
89.9358 0 1
92.3269 0 1
92.4424 0 1
92.558 0 1
92.6736 0 1
92.7893 0 1
92.905 0 1
93.0208 0 1
93.1366 0 1
93.2525 0 1
93.3685 0 1
93.4845 0 1
93.6005 1329 36.4555
93.7167 1383 37.1887
93.8328 1434 37.8682
93.949 1469 38.3275
94.0653 1486 38.5487
94.1816 1490 38.6005
94.2979 1459 38.1969
94.4143 1313 36.2353
94.5307 1277 35.7351
94.6472 1188 34.4674
94.7637 1204 34.6987
94.8803 1354 36.7967
94.9969 1497 38.6911
95.1135 1571 39.6358
95.2302 1589 39.8623
95.3469 1746 41.7852
95.4637 1684 41.0366
95.5805 1752 41.8569
95.6973 1834 42.8252
95.8142 1724 41.5211
95.9311 1714 41.4005
96.048 1683 41.0244
96.1649 1775 42.1307
96.2819 1645 40.5586
96.3989 1625 40.3113
96.516 1577 39.7115
96.633 1470 38.3406
96.7501 1423 37.7227
96.8673 1478 38.4448
96.9844 1459 38.1969
97.1016 1564 39.5474
97.2188 1674 40.9145
97.336 1767 42.0357
97.4532 1821 42.6732
97.5704 1850 43.0116
97.6877 1815 42.6028
97.805 1727 41.5572
97.9223 1610 40.1248
98.0396 1450 38.0789
98.1569 1434 37.8682
98.2743 1244 35.2704
98.3916 1257 35.4542
98.509 1358 36.8511
98.6264 1506 38.8072
98.7438 1618 40.2244
98.8612 1670 40.8656
98.9786 1784 42.2374
99.096 1934 43.9773
99.2134 1762 41.9762
99.3308 1906 43.6578
99.4482 1960 44.2719
99.5656 1808 42.5206
99.6831 1857 43.0929
99.8005 1790 42.3084
99.9179 1757 41.9166
100.035 1675 40.9268
100.153 1656 40.694
100.27 1562 39.5221
100.388 1512 38.8844
100.505 1574 39.6737
100.622 1724 41.5211
100.74 1899 43.5775
100.857 1880 43.359
100.975 1842 42.9185
101.092 1946 44.1135
101.209 1899 43.5775
101.327 1858 43.1045
101.444 1735 41.6533
101.561 1678 40.9634
101.679 1540 39.2428
101.796 1414 37.6032
101.913 1327 36.428
102.03 1395 37.3497
102.148 1585 39.8121
102.265 1658 40.7185
102.382 1809 42.5323
102.499 1763 41.9881
102.616 1847 42.9767
102.733 1829 42.7668
102.851 1933 43.9659
102.968 2018 44.9222
103.085 1942 44.0681
103.202 1963 44.3058
103.319 1837 42.8602
103.436 1929 43.9204
103.552 1753 41.8688
103.669 1638 40.4722
103.786 1664 40.7922
103.903 1560 39.4968
104.02 1668 40.8412
104.137 1861 43.1393
104.253 1816 42.6146
104.37 2043 45.1996
104.487 1996 44.6766
104.603 2059 45.3762
104.72 1998 44.699
104.836 1854 43.0581
104.953 1741 41.7253
105.069 1589 39.8623
105.186 1413 37.5899
105.302 1361 36.8917
105.418 1296 36
105.535 1281 35.7911
105.651 1238 35.1852
105.767 1270 35.6371
105.883 1258 35.4683
105.999 1196 34.5832
106.115 0 1
106.231 0 1
106.347 0 1
106.463 0 1
106.579 0 1
106.694 0 1
106.81 0 1
106.926 0 1
107.041 0 1
107.157 0 1
109.576 0 1
109.692 0 1
109.807 0 1
109.923 0 1
110.039 0 1
110.155 0 1
110.27 0 1
110.386 0 1
110.502 0 1
110.618 824 28.7054
110.735 1097 33.121
110.851 1265 35.5668
110.967 1383 37.1887
111.083 1562 39.5221
111.199 1607 40.0874
111.316 1723 41.509
111.432 1741 41.7253
111.549 1747 41.7971
111.665 1831 42.7902
111.782 1790 42.3084
111.898 1737 41.6773
112.015 1729 41.5812
112.132 1693 41.1461
112.248 1651 40.6325
112.365 1523 39.0256
112.482 1516 38.9358
112.599 1662 40.7676
112.716 1678 40.9634
112.832 1867 43.2088
112.949 1827 42.7434
113.066 1847 42.9767
113.183 1856 43.0813
113.3 1858 43.1045
113.417 1807 42.5088
113.534 1674 40.9145
113.652 1476 38.4187
113.769 1424 37.7359
113.886 1377 37.108
114.003 1199 34.6266
114.12 1439 37.9342
114.238 1553 39.4081
114.355 1589 39.8623
114.472 1671 40.8779
114.589 1843 42.9302
114.707 1801 42.4382
114.824 1887 43.4396
114.942 1856 43.0813
115.059 1913 43.7379
115.176 1883 43.3935
115.294 1821 42.6732
115.411 1876 43.3128
115.529 1793 42.3438
115.646 1784 42.2374
115.764 1617 40.2119
115.881 1530 39.1152
115.999 1635 40.4351
116.116 1645 40.5586
116.234 1659 40.7308
116.351 1806 42.4971
116.469 1827 42.7434
116.586 1805 42.4853
116.704 1825 42.72
116.821 1820 42.6615
116.939 1781 42.2019
117.056 1786 42.2611
117.174 1678 40.9634
117.291 1461 38.223
117.409 1365 36.9459
117.526 1414 37.6032
117.644 1347 36.7015
117.761 1384 37.2022
117.879 1570 39.6232
117.996 1606 40.0749
118.114 1680 40.9878
118.231 1728 41.5692
118.349 1696 41.1825
118.466 1771 42.0833
118.584 1859 43.1161
118.701 1772 42.0951
118.819 1688 41.0853
118.936 1786 42.2611
119.053 1810 42.5441
119.171 1649 40.6079
119.288 1609 40.1123
119.405 1568 39.598
119.523 1491 38.6135
119.64 1505 38.7943
119.757 1487 38.5616
119.875 1582 39.7744
119.992 1664 40.7922
120.109 1691 41.1218
120.226 1750 41.833
120.343 1730 41.5933
120.46 1668 40.8412
120.578 1800 42.4264
120.695 1689 41.0974
120.812 1555 39.4335
120.929 1468 38.3145
121.046 1304 36.1109
121.163 1285 35.8469
121.279 1181 34.3657
121.396 1204 34.6987
121.513 1320 36.3318
121.63 1346 36.6879
121.747 1463 38.2492
121.863 1337 36.565
121.98 1415 37.6165
122.097 1471 38.3536
122.213 1334 36.524
122.33 1361 36.8917
122.446 1322 36.3593
122.563 1209 34.7707
122.679 1179 34.3366
122.795 1091 33.0303
122.912 1001 31.6386
123.028 859 29.3087
123.144 756 27.4955
123.26 744 27.2764
123.377 0 1
123.493 0 1
123.609 0 1
123.725 0 1
123.84 0 1
123.956 0 1
124.072 0 1
124.188 0 1
124.303 0 1
124.419 0 1
126.852 0 1
126.968 0 1
127.083 0 1
127.199 0 1
127.315 0 1
127.431 0 1
127.547 0 1
127.663 0 1
127.779 0 1
127.895 0 1
128.011 0 1
128.127 0 1
128.243 0 1
128.359 1575 39.6863
128.476 1634 40.4228
128.592 1582 39.7744
128.708 1637 40.4599
128.825 1701 41.2432
128.941 1779 42.1782
129.058 1779 42.1782
129.174 1854 43.0581
129.291 1885 43.4166
129.408 1813 42.5793
129.524 1924 43.8634
129.641 1879 43.3474
129.758 1855 43.0697
129.875 1634 40.4228
129.992 1526 39.064
130.108 1405 37.4833
130.225 1350 36.7423
130.342 1380 37.1484
130.459 1482 38.4968
130.576 1635 40.4351
130.693 1576 39.6989
130.81 1741 41.7253
130.928 1748 41.8091
131.045 1806 42.4971
131.162 1865 43.1856
131.279 1871 43.2551
131.396 1949 44.1475
131.513 1813 42.5793
131.631 1874 43.2897
131.748 1754 41.8808
131.865 1779 42.1782
131.983 1673 40.9023
132.1 1675 40.9268
132.217 1632 40.398
132.335 1682 41.0122
132.452 1726 41.5452
132.57 1870 43.2435
132.687 1834 42.8252
132.804 1916 43.7721
132.922 1972 44.4072
133.039 1928 43.909
133.157 1965 44.3283
133.274 1943 44.0795
133.392 1885 43.4166
133.509 1716 41.4246
133.627 1599 39.9875
133.744 1490 38.6005
133.862 1452 38.1051
133.979 1422 37.7094
134.097 1587 39.8372
134.214 1641 40.5093
134.332 1708 41.328
134.449 1763 41.9881
134.567 1802 42.45
134.684 1900 43.589
134.802 1837 42.8602
134.919 1894 43.5201
135.037 1853 43.0465
135.154 1834 42.8252
135.272 1764 42
135.389 1819 42.6497
135.507 1789 42.2966
135.624 1668 40.8412
135.742 1662 40.7676
135.859 1654 40.6694
135.977 1706 41.3038
136.094 1780 42.19
136.211 1838 42.8719
136.329 1932 43.9545
136.446 1879 43.3474
136.564 1959 44.2606
136.681 1923 43.852
136.798 1901 43.6005
136.915 1921 43.8292
137.033 1811 42.5558
137.15 1722 41.497
137.267 1575 39.6863
137.384 1461 38.223
137.502 1461 38.223
137.619 1430 37.8153
137.736 1543 39.281
137.853 1658 40.7185
137.97 1675 40.9268
138.087 1663 40.7799
138.204 1770 42.0714
138.321 1891 43.4856
138.438 1836 42.8486
138.555 1898 43.566
138.672 1778 42.1663
138.788 1807 42.5088
138.905 1734 41.6413
139.022 1644 40.5463
139.139 1542 39.2683
139.255 1420 37.6829
139.372 1306 36.1386
139.488 1292 35.9444
139.605 1282 35.805
139.721 1283 35.819
139.838 1203 34.6843
139.954 1269 35.623
140.071 1302 36.0832
140.187 1120 33.4664
140.303 1003 31.6702
140.419 1010 31.7805
140.535 990 31.4643
140.652 881 29.6816
140.768 0 1
140.884 0 1
141 0 1
141.115 0 1
141.231 0 1
141.347 0 1
141.463 0 1
141.578 0 1
141.694 0 1
144.104 0 1
144.219 0 1
144.335 0 1
144.45 0 1
144.566 0 1
144.682 0 1
144.798 0 1
144.914 0 1
145.03 0 1
145.146 1409 37.5366
145.262 1444 38
145.378 1469 38.3275
145.494 1463 38.2492
145.61 1488 38.5746
145.726 1413 37.5899
145.842 1357 36.8375
145.959 1355 36.8103
146.075 1154 33.9706
146.192 1179 34.3366
146.308 1167 34.1614
146.425 1113 33.3617
146.541 1210 34.7851
146.658 1266 35.5809
146.774 1380 37.1484
146.891 1389 37.2693
147.008 1495 38.6652
147.125 1445 38.0132
147.241 1433 37.855
147.358 1429 37.8021
147.475 1450 38.0789
147.592 1423 37.7227
147.709 1415 37.6165
147.826 1360 36.8782
147.943 1362 36.9053
148.06 1317 36.2905
148.177 1304 36.1109
148.294 1360 36.8782
148.411 1354 36.7967
148.528 1349 36.7287
148.645 1418 37.6563
148.762 1441 37.9605
148.88 1429 37.8021
148.997 1483 38.5097
149.114 1404 37.47
149.231 1482 38.4968
149.349 1469 38.3275
149.466 1446 38.0263
149.583 1308 36.1663
149.701 1224 34.9857
149.818 1235 35.1426
149.935 1167 34.1614
150.053 1196 34.5832
150.17 1196 34.5832
150.287 1219 34.9142
150.405 1283 35.819
150.522 1359 36.8646
150.64 1356 36.8239
150.757 1382 37.1753
150.875 1398 37.3898
150.992 1422 37.7094
151.11 1409 37.5366
151.227 1484 38.5227
151.344 1421 37.6962
151.462 1311 36.2077
151.579 1339 36.5923
151.697 1322 36.3593
151.814 1285 35.8469
151.932 1267 35.5949
152.049 1306 36.1386
152.167 1345 36.6742
152.284 1324 36.3868
152.402 1414 37.6032
152.519 1429 37.8021
152.636 1421 37.6962
152.754 1456 38.1576
152.871 1473 38.3797
152.989 1406 37.4967
153.106 1342 36.6333
153.223 1252 35.3836
153.341 1176 34.2929
153.458 1077 32.8177
153.575 1189 34.4819
153.693 1073 32.7567
153.81 1179 34.3366
153.927 1205 34.7131
154.044 1199 34.6266
154.162 1233 35.1141
154.279 1285 35.8469
154.396 1350 36.7423
154.513 1300 36.0555
154.63 1387 37.2424
154.747 1378 37.1214
154.864 1283 35.819
154.981 1305 36.1248
155.098 1244 35.2704
155.215 1184 34.4093
155.332 1255 35.426
155.449 1236 35.1568
155.566 1202 34.6699
155.683 1200 34.641
155.8 1204 34.6987
155.917 1240 35.2136
156.033 1216 34.8712
156.15 0 1
156.267 0 1
156.383 0 1
156.5 0 1
156.617 0 1
156.733 0 1
156.85 0 1
156.966 0 1
157.082 0 1
157.199 0 1
157.315 0 1
157.431 0 1
157.547 0 1
157.664 0 1
157.78 0 1
157.896 0 1
158.012 0 1
158.128 0 1
158.244 0 1
158.359 0 1
158.475 0 1
158.591 0 1
158.706 0 1
