
6.15755 0 1
6.2731 0 1
6.3887 0 1
6.50437 0 1
6.62009 0 1
6.73587 0 1
6.8517 0 1
6.96759 0 1
7.08353 0 1
7.19952 0 1
7.31557 0 1
7.43166 0 1
7.54781 0 1
7.664 0 1
7.78024 0 1
7.89653 0 1
8.01286 0 1
8.12924 0 1
8.24567 0 1
8.36213 0 1
8.47864 0 1
8.59519 0 1
8.71178 0 1
8.82841 0 1
8.94508 0 1
9.06179 0 1
9.17853 0 1
9.29531 0 1
9.41212 0 1
9.52897 0 1
9.64584 0 1
9.76276 0 1
9.8797 0 1
9.99667 0 1
10.1137 0 1
10.2307 0 1
10.3478 0 1
10.4648 0 1
10.5819 0 1
10.6991 0 1
10.8162 0 1
10.9334 0 1
11.0506 0 1
11.1678 0 1
11.285 0 1
11.4023 0 1
11.5196 0 1
11.6369 0 1
11.7542 0 1
11.8715 0 1
11.9888 0 1
12.1062 0 1
12.2235 0 1
12.3409 0 1
12.4582 0 1
12.5756 0 1
12.693 0 1
12.8104 0 1
12.9278 0 1
13.0452 0 1
13.1626 0 1
13.28 0 1
13.3974 0 1
13.5149 0 1
13.6323 0 1
13.7497 0 1
13.8671 0 1
13.9845 0 1
14.1019 0 1
14.2193 0 1
14.3367 0 1
14.4541 0 1
14.5714 0 1
14.6888 0 1
14.8062 0 1
14.9235 0 1
15.0408 0 0
15.1581 0 0
15.2755 0 0
15.3927 0 0
15.51 0 0
15.6273 0 0
15.7445 0 0
15.8617 0 0
15.9789 0 0
16.0961 0 0
16.2132 0 0
16.3304 0 0
16.4475 0 0
16.5646 0 0
16.6816 0 0
16.7986 0 0
16.9156 0 0
17.0326 0 0
17.1496 0 0
17.2665 0 0
17.3833 0 0
17.5002 0 0
17.617 0 0
17.7338 0 0
17.8505 0 0
17.9672 0 0
18.0839 0 0
18.2005 0 0
18.3171 0 0
18.4337 0 0
18.5502 0 0
18.6666 0 0
18.7831 0 0
18.8994 0 0
19.0158 0 0
19.1321 0 0
19.2483 0 0
19.3645 0 0
19.4806 0 0
19.5967 0 0
19.7128 0 0
19.8288 0 0
19.9447 0 0
20.0606 0 1
20.1764 0 1
20.2922 0 1
20.4079 0 1
20.5236 0 1
20.6392 0 1
20.7548 0 1
20.8702 0 1
23.3078 0 1
23.4233 0 1
23.539 0 1
23.6547 0 1
23.7704 0 1
23.8862 0 1
24.0021 0 1
24.118 0 1
24.234 0 1
24.35 0 1
24.4661 27519 165.889
24.5822 27283 165.176
24.6984 26275 162.096
24.8146 25377 159.302
24.9309 24949 157.953
25.0472 23844 154.415
25.1636 24772 157.391
25.28 25512 159.725
25.3965 26788 163.67
25.513 28458 168.695
25.6296 29973 173.127
25.7462 31092 176.329
25.8628 31324 176.986
25.9795 31162 176.528
26.0962 31340 177.031
26.213 31226 176.709
26.3298 30688 175.18
26.4466 30618 174.98
26.5635 29657 172.212
26.6804 28480 168.76
26.7973 28159 167.806
26.9143 28693 169.39
27.0313 29450 171.61
27.1483 30356 174.23
27.2653 30817 175.548
27.3824 30875 175.713
27.4996 30934 175.881
27.6167 31024 176.136
27.7339 30774 175.425
27.8511 30007 173.225
27.9683 29581 171.991
28.0855 28492 168.796
28.2028 27661 166.316
28.3201 25989 161.211
28.4374 24369 156.106
28.5547 23495 153.281
28.6721 23405 152.987
28.7894 24500 156.525
28.9068 25768 160.524
29.0242 27155 164.788
29.1416 28596 169.104
29.259 29280 171.114
29.3764 30272 173.989
29.4939 29915 172.96
29.6113 30502 174.648
29.7288 30288 174.034
29.8463 30141 173.612
29.9638 29795 172.612
30.0812 29023 170.361
30.1987 28230 168.018
30.3162 27915 167.078
30.4337 28264 168.119
30.5512 29147 170.725
30.6687 29443 171.59
30.7862 30681 175.16
30.9037 30240 173.897
31.0212 30478 174.579
31.1387 30858 175.664
31.2562 30635 175.029
31.3737 30760 175.385
31.4912 30143 173.617
31.6087 29125 170.66
31.7262 27759 166.61
31.8436 26465 162.681
31.9611 24731 157.261
32.0785 23443 153.111
32.1959 23695 153.932
32.3134 24191 155.535
32.4308 25878 160.866
32.5482 27228 165.009
32.6655 29033 170.391
32.7829 30056 173.367
32.9002 30458 174.522
33.0176 30280 174.011
33.1349 30726 175.288
33.2522 30625 175
33.3694 31030 176.153
33.4867 30612 174.963
33.6039 30469 174.554
33.7211 29676 172.267
33.8383 29347 171.31
33.9554 28823 169.773
34.0725 28618 169.169
34.1896 29481 171.7
34.3067 30261 173.957
34.4237 30874 175.71
34.5407 31128 176.431
34.6577 30964 175.966
34.7746 30841 175.616
34.8915 31267 176.825
35.0084 30786 175.459
35.1252 30997 176.06
35.242 30366 174.258
35.3587 29247 171.018
35.4755 27835 166.838
35.5921 26182 161.809
35.7088 24001 154.923
35.8254 22903 151.337
35.9419 23265 152.529
36.0584 24391 156.176
36.1749 25568 159.9
36.2913 27262 165.112
36.4077 28975 170.22
36.524 29983 173.156
36.6403 30892 175.761
36.7565 30806 175.516
36.8727 31123 176.417
36.9889 30798 175.494
37.1049 30534 174.74
37.221 0 1
37.3369 0 1
37.4529 0 1
37.5687 0 1
37.6845 0 1
37.8003 0 1
37.916 0 1
38.0316 0 1
38.1472 0 1
40.5851 0 1
40.7008 0 1
40.8164 0 1
40.9322 0 1
41.048 0 1
41.1639 0 1
41.2798 0 1
41.3958 0 1
41.5118 0 1
41.6279 0 1
41.744 26477 162.718
41.8602 27269 165.133
41.9765 27602 166.138
42.0928 27748 166.577
42.2091 28065 167.526
42.3255 27911 167.066
42.4419 27721 166.496
42.5584 26992 164.292
42.675 26382 162.425
42.7915 26041 161.372
42.9081 26094 161.536
43.0248 26762 163.591
43.1415 27652 166.289
43.2582 28252 168.083
43.375 28227 168.009
43.4918 28683 169.361
43.6087 28041 167.454
43.7256 27574 166.054
43.8425 27373 165.448
43.9595 26970 164.225
44.0765 26647 163.239
44.1935 25684 160.262
44.3106 23571 153.528
44.4277 21546 146.786
44.5448 19317 138.986
44.6619 18415 135.702
44.7791 18917 137.539
44.8963 20371 142.727
45.0136 22018 148.385
45.1308 23787 154.23
45.2481 24546 156.672
45.3654 24570 156.748
45.4827 24660 157.035
45.6001 24817 157.534
45.7174 24792 157.455
45.8348 24512 156.563
45.9522 24192 155.538
46.0697 23445 153.118
46.1871 23047 151.812
46.3046 22375 149.583
46.422 22290 149.298
46.5395 22362 149.539
46.657 22542 150.14
46.7745 22809 151.026
46.892 23172 152.224
47.0096 23130 152.086
47.1271 23215 152.365
47.2446 22562 150.207
47.3622 22356 149.519
47.4797 22180 148.93
47.5973 21435 146.407
47.7149 21171 145.503
47.8324 20119 141.841
47.95 18754 136.945
48.0675 16248 127.468
48.1851 14751 121.454
48.3027 14998 122.466
48.4202 16147 127.071
48.5378 17981 134.093
48.6554 19158 138.412
48.7729 20021 141.496
48.8904 20758 144.076
49.008 21298 145.938
49.1255 21329 146.045
49.243 21663 147.184
49.3605 21581 146.905
49.478 21368 146.178
49.5955 21445 146.441
49.713 21241 145.743
49.8304 21136 145.382
49.9479 21445 146.441
50.0653 21949 148.152
50.1827 22898 151.321
50.3001 23584 153.571
50.4175 24876 157.721
50.5348 25245 158.887
50.6521 26219 161.923
50.7694 26590 163.064
50.8867 26871 163.924
51.004 27148 164.767
51.1212 27571 166.045
51.2384 27511 165.864
51.3556 27117 164.672
51.4727 24969 158.016
51.5899 22318 149.392
51.707 20760 144.083
51.824 21513 146.673
51.9411 23927 154.684
52.0581 26696 163.389
52.175 30027 173.283
52.2919 31195 176.621
52.4088 32300 179.722
52.5257 33131 182.019
52.6425 33028 181.736
52.7593 33916 184.163
52.876 33934 184.212
52.9927 34676 186.215
53.1094 34776 186.483
53.226 34545 185.863
53.3426 34848 186.676
53.4591 34607 186.03
53.5756 35148 187.478
53.692 35601 188.682
53.8084 35825 189.275
53.9248 37061 192.512
54.0411 37849 194.548
54.1573 39085 197.699
54.2735 0 1
54.3896 0 1
54.5057 0 1
54.6217 0 1
54.7377 0 1
54.8537 0 1
54.9695 0 1
55.0853 0 1
55.2011 0 1
55.3168 0 1
55.4324 0 1
57.824 0 1
57.9396 0 1
58.0553 0 1
58.1711 0 1
58.2869 0 1
58.4028 0 1
58.5187 0 1
58.6347 0 1
58.7508 0 1
58.8669 0 1
58.983 48573 220.393
59.0992 50634 225.02
59.2155 51161 226.188
59.3318 52362 228.827
59.4482 52954 230.117
59.5646 52644 229.443
59.681 52265 228.615
59.7975 50855 225.511
59.9141 49507 222.502
60.0306 47506 217.959
60.1473 43928 209.59
60.2639 39339 198.341
60.3807 36723 191.632
60.4974 36685 191.533
60.6142 38862 197.134
60.731 43119 207.651
60.8479 47564 218.092
60.9648 51090 226.031
61.0818 52215 228.506
61.1987 52943 230.093
61.3158 53614 231.547
61.4328 53399 231.082
61.5499 53304 230.877
61.667 53450 231.193
61.7841 53092 230.417
61.9013 52961 230.133
62.0185 52832 229.852
62.1357 51878 227.767
62.253 52447 229.013
62.3702 53161 230.567
62.4875 54235 232.884
62.6049 55110 234.755
62.7222 56853 238.439
62.8396 56511 237.72
62.9569 57071 238.895
63.0743 56323 237.325
63.1918 55216 234.981
63.3092 54297 233.017
63.4267 53105 230.445
63.5441 50409 224.519
63.6616 45875 214.184
63.7791 40578 201.44
63.8966 37566 193.82
64.0142 37954 194.818
64.1317 41638 204.054
64.2492 46223 214.995
64.3668 51074 225.996
64.4843 53914 232.194
64.6019 55960 236.559
64.7195 56800 238.328
64.837 57253 239.276
64.9546 57647 240.098
65.0722 57541 239.877
65.1898 57156 239.073
65.3074 57959 240.747
65.4249 56500 237.697
65.5425 56376 237.436
65.6601 56250 237.171
65.7777 56502 237.701
65.8952 56539 237.779
66.0128 56891 238.518
66.1304 58187 241.22
66.2479 59228 243.368
66.3655 60438 245.841
66.483 61268 247.524
66.6005 61439 247.869
66.718 60974 246.929
66.8355 58796 242.479
66.953 58390 241.64
67.0705 56604 237.916
67.1879 54072 232.534
67.3054 48655 220.579
67.4228 42941 207.222
67.5402 39533 198.829
67.6576 40483 201.204
67.7749 43774 209.222
67.8923 50677 225.116
68.0096 55970 236.58
68.1269 60413 245.791
68.2442 62435 249.87
68.3614 63218 251.432
68.4787 63942 252.868
68.5958 64442 253.854
68.713 65289 255.517
68.8302 64585 254.136
68.9473 64987 254.925
69.0643 65017 254.984
69.1814 63966 252.915
69.2984 64320 253.614
69.4154 64517 254.002
69.5323 65076 255.1
69.6492 65715 256.349
69.7661 67233 259.293
69.8829 67706 260.204
69.9997 69697 264.002
70.1165 70528 265.571
70.2332 71095 266.636
70.3499 70014 264.602
70.4665 69003 262.684
70.5831 66955 258.757
70.6996 64666 254.295
70.8161 61698 248.391
70.9326 57823 240.464
71.049 51964 227.956
71.1653 45488 213.279
71.2817 42930 207.196
71.3979 44365 210.63
71.5141 48272 219.709
71.6303 53687 231.705
71.7464 54835 234.169
71.8624 0 1
71.9784 0 1
72.0944 0 1
72.2102 0 1
72.3261 0 1
72.4418 0 1
72.5575 0 1
72.6732 0 1
75.1054 0 1
75.2209 0 1
75.3365 0 1
75.4521 0 1
75.5678 0 1
75.6835 0 1
75.7993 0 1
75.9151 0 1
76.031 0 1
76.147 57481 239.752
76.263 58945 242.786
76.3791 55474 235.529
76.4952 48302 219.777
76.6113 46311 215.2
76.7276 49163 221.727
76.8438 54335 233.099
76.9601 62034 249.066
77.0765 68702 262.111
77.1929 72554 269.358
77.3093 74566 273.068
77.4258 74260 272.507
77.5423 75098 274.04
77.6589 74807 273.509
77.7755 74089 272.193
77.8921 73707 271.49
78.0088 74258 272.503
78.1256 72439 269.145
78.2423 71939 268.214
78.3591 72331 268.944
78.4759 71085 266.618
78.5928 71347 267.109
78.7097 71895 268.132
78.8266 75583 274.924
78.9436 70196 264.945
79.0606 73457 271.03
79.1776 74224 272.441
79.2946 75588 274.933
79.4117 74829 273.549
79.5288 73376 270.88
79.6459 69868 264.326
79.7631 66398 257.678
79.8802 63021 251.04
79.9974 58334 241.524
80.1147 52101 228.256
80.2319 47418 217.757
80.3491 48663 220.597
80.4664 53662 231.651
80.5837 60779 246.534
80.701 67607 260.013
80.8183 70863 266.201
80.9357 71885 268.114
81.053 73423 270.967
81.1704 72179 268.661
81.2877 72507 269.271
81.4051 72381 269.037
81.5225 72383 269.041
81.6399 70412 265.353
81.7573 71453 267.307
81.8747 69914 264.413
81.9922 69293 263.236
82.1096 69330 263.306
82.227 69300 263.249
82.3444 69343 263.331
82.4619 70310 265.16
82.5793 69143 262.951
82.6967 72854 269.915
82.8142 71066 266.582
82.9316 70785 266.055
83.049 70892 266.256
83.1664 69434 263.503
83.2838 66137 257.171
83.4012 61355 247.699
83.5186 57599 239.998
83.636 53552 231.413
83.7534 48164 219.463
83.8708 43989 209.736
83.9881 44220 210.286
84.1055 48094 219.303
84.2228 53775 231.894
84.3401 60617 246.205
84.4575 66433 257.746
84.5747 68537 261.796
84.692 69853 264.297
84.8093 70100 264.764
84.9265 70045 264.66
85.0437 70398 265.326
85.1609 69878 264.344
85.2781 70139 264.838
85.3952 69641 263.896
85.5123 70044 264.658
85.6294 69880 264.348
85.7465 70498 265.515
85.8636 70436 265.398
85.9806 71294 267.009
86.0976 71854 268.056
86.2145 72882 269.967
86.3315 72509 269.275
86.4484 77625 278.613
86.5652 76627 276.816
86.682 76856 277.229
86.7988 75035 273.925
86.9156 72336 268.954
87.0323 67241 259.309
87.149 63703 252.395
87.2657 59251 243.415
87.3823 53840 232.034
87.4988 51025 225.887
87.6154 53907 232.179
87.7318 60580 246.13
87.8483 68736 262.176
87.9647 74927 273.728
88.081 78576 280.314
88.1973 80489 283.706
88.3136 80585 283.875
88.4298 80948 284.514
88.546 80081 282.986
88.6621 80115 283.046
88.7781 78913 280.915
88.8942 0 1
89.0101 0 1
89.126 0 1
89.2419 0 1
89.3577 0 1
89.4734 0 1
89.5891 0 1
89.7047 0 1
89.8203 0 1
89.9358 0 1
92.3269 0 1
92.4424 0 1
92.558 0 1
92.6736 0 1
92.7893 0 1
92.905 0 1
93.0208 0 1
93.1366 0 1
93.2525 0 1
93.3685 0 1
93.4845 0 1
93.6005 78208 279.657
93.7167 79299 281.601
93.8328 79480 281.922
93.949 78981 281.036
94.0653 79334 281.663
94.1816 78465 280.116
94.2979 79252 281.517
94.4143 79327 281.65
94.5307 78726 280.582
94.6472 79220 281.46
94.7637 78521 280.216
94.8803 80498 283.722
94.9969 79947 282.749
95.1135 80780 284.218
95.2302 80685 284.051
95.3469 81212 284.977
95.4637 81829 286.058
95.5805 83150 288.357
95.6973 84261 290.277
95.8142 83988 289.807
95.9311 81346 285.212
96.048 79220 281.46
96.1649 74883 273.648
96.2819 70119 264.8
96.3989 64030 253.041
96.516 58791 242.469
96.633 55313 235.187
96.7501 56002 236.647
96.8673 60520 246.008
96.9844 67461 259.733
97.1016 75686 275.111
97.2188 80230 283.249
97.336 84557 290.787
97.4532 85786 292.892
97.5704 85023 291.587
97.6877 85462 292.339
97.805 84636 290.923
97.9223 84045 289.905
98.0396 83825 289.525
98.1569 84146 290.079
98.2743 84380 290.482
98.3916 84183 290.143
98.509 84253 290.264
98.6264 83650 289.223
98.7438 83942 289.727
98.8612 83912 289.676
98.9786 86298 293.765
99.096 86057 293.355
99.2134 87093 295.115
99.3308 87862 296.415
99.4482 87726 296.186
99.5656 87111 295.146
99.6831 84661 290.966
99.8005 80613 283.924
99.9179 75221 274.264
100.035 68853 262.399
100.153 62920 250.839
100.27 60369 245.701
100.388 62764 250.527
100.505 69363 263.369
100.622 77481 278.354
100.74 83831 289.536
100.857 87524 295.845
100.975 88709 297.841
101.092 89526 299.209
101.209 89027 298.374
101.327 89233 298.719
101.444 89187 298.642
101.561 88450 297.405
101.679 88783 297.965
101.796 88917 298.19
101.913 88849 298.075
102.03 89092 298.483
102.148 89320 298.865
102.265 94190 306.904
102.382 86160 293.53
102.499 91089 301.81
102.616 92164 303.585
102.733 93005 304.967
102.851 94266 307.028
102.968 94197 306.915
103.085 93293 305.439
103.202 90325 300.541
103.319 87857 296.407
103.436 82018 286.388
103.552 74735 273.377
103.669 66530 257.934
103.786 62938 250.874
103.903 66401 257.684
104.02 74293 272.567
104.137 83529 289.014
104.253 92795 304.623
104.37 91912 303.17
104.487 96255 310.25
104.603 96971 311.402
104.72 96206 310.171
104.836 96567 310.752
104.953 96126 310.042
105.069 96374 310.442
105.186 96714 310.989
105.302 96693 310.955
105.418 96808 311.14
105.535 96756 311.056
105.651 96669 310.916
105.767 97143 311.678
105.883 98062 313.149
105.999 99159 314.895
106.115 0 1
106.231 0 1
106.347 0 1
106.463 0 1
106.579 0 1
106.694 0 1
106.81 0 1
106.926 0 1
107.041 0 1
107.157 0 1
109.576 0 1
109.692 0 1
109.807 0 1
109.923 0 1
110.039 0 1
110.155 0 1
110.27 0 1
110.386 0 1
110.502 0 1
110.618 90844 301.403
110.735 93014 304.982
110.851 93557 305.871
110.967 93663 306.044
111.083 93425 305.655
111.199 94801 307.898
111.316 94860 307.994
111.432 94260 307.018
111.549 93429 305.662
111.665 90624 301.038
111.782 86256 293.694
111.898 81420 285.342
112.015 73612 271.315
112.132 65868 256.648
112.248 60903 246.785
112.365 63703 252.395
112.482 70542 265.597
112.599 76124 275.906
112.716 83155 288.366
112.832 86488 294.088
112.949 86387 293.917
113.066 87516 295.831
113.183 87153 295.217
113.3 85788 292.896
113.417 85517 292.433
113.534 84332 290.4
113.652 84225 290.215
113.769 84324 290.386
113.886 83496 288.957
114.003 82721 287.613
114.12 82974 288.052
114.238 82435 287.115
114.355 83005 288.106
114.472 82502 287.232
114.589 82430 287.106
114.707 82195 286.697
114.824 82421 287.091
114.942 83403 288.796
115.059 83488 288.943
115.176 82374 287.009
115.294 79784 282.461
115.411 76550 276.677
115.529 71440 267.283
115.646 64350 253.673
115.764 58906 242.706
115.881 57332 239.441
115.999 61395 247.78
116.116 68822 262.339
116.234 75377 274.549
116.351 79749 282.399
116.469 81743 285.907
116.586 82541 287.299
116.704 83559 289.066
116.821 83130 288.323
116.939 83562 289.071
117.056 82412 287.075
117.174 82489 287.209
117.291 82313 286.902
117.409 82153 286.623
117.526 82556 287.326
117.644 82583 287.373
117.761 83383 288.761
117.879 83040 288.167
117.996 82342 286.953
118.114 84168 290.117
118.231 83966 289.769
118.349 83020 288.132
118.466 84377 290.477
118.584 84245 290.25
118.701 84440 290.586
118.819 83622 289.175
118.936 80378 283.51
119.053 77014 277.514
119.171 71581 267.546
119.288 65279 255.498
119.405 59731 244.399
119.523 57623 240.048
119.64 62528 250.056
119.757 68118 260.994
119.875 74660 273.24
119.992 78602 280.36
120.109 80908 284.443
120.226 82119 286.564
120.343 82753 287.668
120.46 82483 287.199
120.578 81618 285.689
120.695 81899 286.18
120.812 82090 286.514
120.929 80896 284.422
121.046 81629 285.708
121.163 81140 284.851
121.279 80855 284.35
121.396 81043 284.681
121.513 80741 284.15
121.63 82211 286.725
121.747 81058 284.707
121.863 82106 286.541
121.98 82537 287.293
122.097 81545 285.561
122.213 81351 285.221
122.33 81660 285.762
122.446 81221 284.993
122.563 79915 282.692
122.679 77009 277.505
122.795 74448 272.852
122.912 70218 264.987
123.028 64014 253.01
123.144 58514 241.897
123.26 57191 239.146
123.377 0 1
123.493 0 1
123.609 0 1
123.725 0 1
123.84 0 1
123.956 0 1
124.072 0 1
124.188 0 1
124.303 0 1
124.419 0 1
126.852 0 1
126.968 0 1
127.083 0 1
127.199 0 1
127.315 0 1
127.431 0 1
127.547 0 1
127.663 0 1
127.779 0 1
127.895 0 1
128.011 0 1
128.127 0 1
128.243 0 1
128.359 66755 258.37
128.476 63720 252.428
128.592 67998 260.764
128.708 76056 275.783
128.825 83579 289.1
128.941 88676 297.785
129.058 90087 300.145
129.174 90677 301.126
129.291 91258 302.089
129.408 90926 301.539
129.524 90679 301.13
129.641 89844 299.74
129.758 90365 300.608
129.875 90344 300.573
129.992 89765 299.608
130.108 88584 297.631
130.225 88936 298.221
130.342 88506 297.5
130.459 86520 294.143
130.576 90431 300.717
130.693 87906 296.489
130.81 88473 297.444
130.928 88411 297.34
131.045 88331 297.205
131.162 88498 297.486
131.279 89454 299.089
131.396 88124 296.857
131.513 85626 292.619
131.631 81935 286.243
131.748 77306 278.04
131.865 71258 266.942
131.983 65653 256.228
132.1 67165 259.162
132.217 72402 269.076
132.335 79872 282.616
132.452 85740 292.814
132.57 87403 295.64
132.687 84965 291.488
132.804 91570 302.605
132.922 87995 296.64
133.039 87968 296.594
133.157 87931 296.532
133.274 88072 296.769
133.392 87625 296.015
133.509 87442 295.706
133.627 86388 293.918
133.744 85903 293.092
133.862 85935 293.147
133.979 85945 293.164
134.097 85819 292.949
134.214 87313 295.488
134.332 84087 289.978
134.449 85524 292.445
134.567 85878 293.049
134.684 87375 295.593
134.802 87421 295.67
134.919 87168 295.242
135.037 85702 292.749
135.154 81919 286.215
135.272 78503 280.184
135.389 72371 269.019
135.507 67045 258.93
135.624 64560 254.087
135.742 67158 259.149
135.859 73716 271.507
135.977 80431 283.604
136.094 85340 292.13
136.211 86954 294.88
136.329 87577 295.934
136.446 86959 294.888
136.564 87327 295.511
136.681 87959 296.579
136.798 86102 293.431
136.915 87330 295.516
137.033 86476 294.068
137.15 86057 293.355
137.267 85105 291.728
137.384 84238 290.238
137.502 84263 290.281
137.619 83657 289.235
137.736 84144 290.076
137.853 82245 286.784
137.97 82002 286.36
138.087 85102 291.722
138.204 84801 291.206
138.321 84863 291.313
138.438 85870 293.036
138.555 85884 293.06
138.672 85568 292.52
138.788 82136 286.594
138.905 78518 280.211
139.022 74931 273.735
139.139 69217 263.091
139.255 65594 256.113
139.372 67110 259.056
139.488 72987 270.161
139.605 79353 281.697
139.721 83899 289.653
139.838 85689 292.727
139.954 87241 295.366
140.071 85720 292.78
140.187 86079 293.392
140.303 85827 292.962
140.419 85336 292.123
140.535 83917 289.684
140.652 83606 289.147
140.768 0 1
140.884 0 1
141 0 1
141.115 0 1
141.231 0 1
141.347 0 1
141.463 0 1
141.578 0 1
141.694 0 1
144.104 0 1
144.219 0 1
144.335 0 1
144.45 0 1
144.566 0 1
144.682 0 1
144.798 0 1
144.914 0 1
145.03 0 1
145.146 75132 274.102
145.262 75379 274.552
145.378 76122 275.902
145.494 75422 274.631
145.61 74693 273.3
145.726 74030 272.085
145.842 73359 270.849
145.959 72167 268.639
146.075 71670 267.713
146.192 71775 267.909
146.308 71488 267.372
146.425 71611 267.602
146.541 71006 266.47
146.658 71474 267.346
146.774 71679 267.729
146.891 73242 270.633
147.008 73428 270.976
147.125 73238 270.625
147.241 72286 268.861
147.358 70669 265.836
147.475 68193 261.138
147.592 64851 254.659
147.709 59724 244.385
147.826 55501 235.587
147.943 56603 237.914
148.06 60620 246.211
148.177 66492 257.86
148.294 70199 264.951
148.411 71753 267.868
148.528 72123 268.557
148.645 71750 267.862
148.762 71947 268.229
148.88 71394 267.197
148.997 68679 262.067
149.114 73058 270.292
149.231 70051 264.671
149.349 69825 264.244
149.466 67550 259.904
149.583 66330 257.546
149.701 66162 257.22
149.818 66046 256.994
149.935 65669 256.26
150.053 65671 256.264
150.17 66193 257.28
150.287 67066 258.971
150.405 67644 260.085
150.522 68390 261.515
150.64 69341 263.327
150.757 69596 263.811
150.875 68819 262.334
150.992 68444 261.618
151.11 64570 254.106
151.227 62460 249.92
151.344 56987 238.72
151.462 53205 230.662
151.579 54389 233.214
151.697 58922 242.739
151.814 64764 254.488
151.932 68269 261.283
152.049 69650 263.913
152.167 70378 265.289
152.284 70535 265.584
152.402 70610 265.725
152.519 70339 265.215
152.636 70473 265.468
152.754 69919 264.422
152.871 68702 262.111
152.989 67638 260.073
153.106 67260 259.345
153.223 65600 256.125
153.341 65029 255.008
153.458 65024 254.998
153.575 65557 256.041
153.693 65651 256.225
153.81 66153 257.202
153.927 67047 258.934
154.044 68071 260.904
154.162 69381 263.403
154.279 69732 264.068
154.396 70703 265.9
154.513 71038 266.53
154.63 70495 265.509
154.747 68596 261.908
154.864 65250 255.441
154.981 61118 247.221
155.098 57534 239.862
155.215 58435 241.733
155.332 62379 249.758
155.449 66741 258.343
155.566 69287 263.224
155.683 70636 265.774
155.8 70635 265.772
155.917 71345 267.105
156.033 71124 266.691
156.15 0 1
156.267 0 1
156.383 0 1
156.5 0 1
156.617 0 1
156.733 0 1
156.85 0 1
156.966 0 1
157.082 0 1
157.199 0 1
157.315 0 1
157.431 0 1
157.547 0 1
157.664 0 1
157.78 0 1
157.896 0 1
158.012 0 1
158.128 0 1
158.244 0 1
158.359 0 1
158.475 0 1
158.591 0 1
158.706 0 1
