
6.15755 0 1
6.2731 0 1
6.3887 0 1
6.50437 0 1
6.62009 0 1
6.73587 0 1
6.8517 0 1
6.96759 0 1
7.08353 0 1
7.19952 0 1
7.31557 0 1
7.43166 0 1
7.54781 0 1
7.664 0 1
7.78024 0 1
7.89653 0 1
8.01286 0 1
8.12924 0 1
8.24567 0 1
8.36213 0 1
8.47864 0 1
8.59519 0 1
8.71178 0 1
8.82841 0 1
8.94508 0 1
9.06179 0 1
9.17853 0 1
9.29531 0 1
9.41212 0 1
9.52897 0 1
9.64584 0 1
9.76276 0 1
9.8797 0 1
9.99667 0 1
10.1137 0 1
10.2307 0 1
10.3478 0 1
10.4648 0 1
10.5819 0 1
10.6991 0 1
10.8162 0 1
10.9334 0 1
11.0506 0 1
11.1678 0 1
11.285 0 1
11.4023 0 1
11.5196 0 1
11.6369 0 1
11.7542 0 1
11.8715 0 1
11.9888 0 1
12.1062 0 1
12.2235 0 1
12.3409 0 1
12.4582 0 1
12.5756 0 1
12.693 0 1
12.8104 0 1
12.9278 0 1
13.0452 0 1
13.1626 0 1
13.28 0 1
13.3974 0 1
13.5149 0 1
13.6323 0 1
13.7497 0 1
13.8671 0 1
13.9845 0 1
14.1019 0 1
14.2193 0 1
14.3367 0 1
14.4541 0 1
14.5714 0 1
14.6888 0 1
14.8062 0 1
14.9235 0 1
15.0408 0 0
15.1581 0 0
15.2755 0 0
15.3927 0 0
15.51 0 0
15.6273 0 0
15.7445 0 0
15.8617 0 0
15.9789 0 0
16.0961 0 0
16.2132 0 0
16.3304 0 0
16.4475 0 0
16.5646 0 0
16.6816 0 0
16.7986 0 0
16.9156 0 0
17.0326 0 0
17.1496 0 0
17.2665 0 0
17.3833 0 0
17.5002 0 0
17.617 0 0
17.7338 0 0
17.8505 0 0
17.9672 0 0
18.0839 0 0
18.2005 0 0
18.3171 0 0
18.4337 0 0
18.5502 0 0
18.6666 0 0
18.7831 0 0
18.8994 0 0
19.0158 0 0
19.1321 0 0
19.2483 0 0
19.3645 0 0
19.4806 0 0
19.5967 0 0
19.7128 0 0
19.8288 0 0
19.9447 0 0
20.0606 0 1
20.1764 0 1
20.2922 0 1
20.4079 0 1
20.5236 0 1
20.6392 0 1
20.7548 0 1
20.8702 0 1
23.3078 0 1
23.4233 0 1
23.539 0 1
23.6547 0 1
23.7704 0 1
23.8862 0 1
24.0021 0 1
24.118 0 1
24.234 0 1
24.35 0 1
24.4661 3827 61.8628
24.5822 4202 64.8228
24.6984 4696 68.5274
24.8146 5303 72.8217
24.9309 6515 80.7155
25.0472 7769 88.1419
25.1636 8347 91.3619
25.28 8490 92.1412
25.3965 8280 90.9945
25.513 7885 88.7975
25.6296 7928 89.0393
25.7462 7570 87.0057
25.8628 7325 85.5862
25.9795 7142 84.5104
26.0962 6927 83.2286
26.213 6704 81.878
26.3298 6542 80.8826
26.4466 6491 80.5667
26.5635 6298 79.3599
26.6804 6029 77.6466
26.7973 5638 75.0866
26.9143 5637 75.08
27.0313 5402 73.4983
27.1483 5380 73.3485
27.2653 5193 72.0625
27.3824 4930 70.214
27.4996 4750 68.9202
27.6167 4560 67.5278
27.7339 4583 67.6979
27.8511 4911 70.0785
27.9683 5377 73.328
28.0855 5442 73.7699
28.2028 5644 75.1266
28.3201 5855 76.518
28.4374 5935 77.039
28.5547 6095 78.0705
28.6721 6036 77.6917
28.7894 5992 77.408
28.9068 6087 78.0192
29.0242 6071 77.9166
29.1416 6249 79.0506
29.259 6376 79.8499
29.3764 6427 80.1686
29.4939 6122 78.2432
29.6113 5913 76.896
29.7288 5712 75.5778
29.8463 5699 75.4917
29.9638 5498 74.1485
30.0812 5625 75
30.1987 5516 74.2698
30.3162 5574 74.6592
30.4337 5484 74.054
30.5512 5584 74.7262
30.6687 5387 73.3962
30.7862 5590 74.7663
30.9037 5160 71.8331
31.0212 5000 70.7107
31.1387 5013 70.8025
31.2562 5086 71.3162
31.3737 5296 72.7736
31.4912 5783 76.046
31.6087 5922 76.9545
31.7262 5940 77.0714
31.8436 6027 77.6338
31.9611 5853 76.5049
32.0785 5945 77.1038
32.1959 5670 75.2994
32.3134 5601 74.8398
32.4308 5460 73.8918
32.5482 5490 74.0945
32.6655 5244 72.4155
32.7829 4950 70.3562
32.9002 4982 70.5833
33.0176 4756 68.9638
33.1349 4760 68.9928
33.2522 4678 68.3959
33.3694 4557 67.5056
33.4867 4654 68.2202
33.6039 4734 68.8041
33.7211 4825 69.4622
33.8383 5003 70.7319
33.9554 5069 71.1969
34.0725 5051 71.0704
34.1896 5199 72.1041
34.3067 5351 73.1505
34.4237 5260 72.5259
34.5407 5041 71
34.6577 5167 71.8818
34.7746 4966 70.4699
34.8915 5119 71.5472
35.0084 5266 72.5672
35.1252 5587 74.7462
35.242 5624 74.9933
35.3587 5567 74.6123
35.4755 5364 73.2393
35.5921 5179 71.9653
35.7088 5129 71.617
35.8254 4937 70.2638
35.9419 4739 68.8404
36.0584 4526 67.2756
36.1749 4485 66.9701
36.2913 4215 64.923
36.4077 3953 62.8729
36.524 3639 60.3241
36.6403 3242 56.9386
36.7565 2837 53.2635
36.8727 2602 51.0098
36.9889 2463 49.6286
37.1049 2364 48.621
37.221 0 1
37.3369 0 1
37.4529 0 1
37.5687 0 1
37.6845 0 1
37.8003 0 1
37.916 0 1
38.0316 0 1
38.1472 0 1
40.5851 0 1
40.7008 0 1
40.8164 0 1
40.9322 0 1
41.048 0 1
41.1639 0 1
41.2798 0 1
41.3958 0 1
41.5118 0 1
41.6279 0 1
41.744 2012 44.8553
41.8602 2591 50.9019
41.9765 3164 56.2494
42.0928 3610 60.0833
42.2091 3481 59
42.3255 3566 59.716
42.4419 3659 60.4897
42.5584 3871 62.2174
42.675 3874 62.2415
42.7915 4192 64.7457
42.9081 4470 66.8581
43.0248 4713 68.6513
43.1415 4737 68.8259
43.2582 4603 67.8454
43.375 4540 67.3795
43.4918 4419 66.4756
43.6087 4417 66.4605
43.7256 4493 67.0298
43.8425 4512 67.1714
43.9595 4427 66.5357
44.0765 4385 66.2193
44.1935 4502 67.0969
44.3106 4430 66.5582
44.4277 4309 65.643
44.5448 4380 66.1816
44.6619 4470 66.8581
44.7791 4454 66.7383
44.8963 4606 67.8675
45.0136 4610 67.897
45.1308 4686 68.4544
45.2481 4875 69.8212
45.3654 5029 70.9154
45.4827 5197 72.0902
45.6001 5411 73.5595
45.7174 5694 75.4586
45.8348 6080 77.9744
45.9522 6232 78.943
46.0697 6547 80.9135
46.1871 6934 83.2706
46.3046 7135 84.4689
46.422 7571 87.0115
46.5395 7588 87.1091
46.657 7561 86.954
46.7745 7390 85.9651
46.892 6674 81.6946
47.0096 6050 77.7817
47.1271 6323 79.5173
47.2446 6748 82.1462
47.3622 6745 82.1279
47.4797 6808 82.5106
47.5973 6975 83.5165
47.7149 6813 82.5409
47.8324 7117 84.3623
47.95 7086 84.1784
48.0675 7102 84.2734
48.1851 7049 83.9583
48.3027 7168 84.664
48.4202 6923 83.2046
48.5378 7018 83.7735
48.6554 6754 82.1827
48.7729 6627 81.4064
48.8904 6732 82.0488
49.008 6617 81.3449
49.1255 6541 80.8764
49.243 6744 82.1219
49.3605 6733 82.0549
49.478 6794 82.4257
49.5955 6971 83.4925
49.713 7093 84.22
49.8304 7114 84.3445
49.9479 6915 83.1565
50.0653 6502 80.635
50.1827 6373 79.8311
50.3001 5584 74.7262
50.4175 4511 67.164
50.5348 4150 64.4205
50.6521 4333 65.8255
50.7694 4759 68.9855
50.8867 4900 70
51.004 4851 69.6491
51.1212 4658 68.2495
51.2384 4525 67.2681
51.3556 4434 66.5883
51.4727 4208 64.8691
51.5899 4162 64.5136
51.707 4051 63.6475
51.824 4052 63.6553
51.9411 4023 63.4271
52.0581 4002 63.2614
52.175 3863 62.153
52.2919 3962 62.9444
52.4088 3806 61.6928
52.5257 3710 60.9098
52.6425 3666 60.5475
52.7593 3639 60.3241
52.876 3540 59.4979
52.9927 3392 58.2409
53.1094 3388 58.2065
53.226 3428 58.5491
53.3426 3410 58.3952
53.4591 3242 56.9386
53.5756 2946 54.2771
53.692 2556 50.5569
53.8084 2197 46.8722
53.9248 1942 44.0681
54.0411 1685 41.0488
54.1573 1537 39.2046
54.2735 0 1
54.3896 0 1
54.5057 0 1
54.6217 0 1
54.7377 0 1
54.8537 0 1
54.9695 0 1
55.0853 0 1
55.2011 0 1
55.3168 0 1
55.4324 0 1
57.824 0 1
57.9396 0 1
58.0553 0 1
58.1711 0 1
58.2869 0 1
58.4028 0 1
58.5187 0 1
58.6347 0 1
58.7508 0 1
58.8669 0 1
58.983 2969 54.4885
59.0992 2947 54.2863
59.2155 3001 54.7814
59.3318 3270 57.1839
59.4482 3639 60.3241
59.5646 3939 62.7615
59.681 4074 63.8279
59.7975 4171 64.5833
59.9141 4158 64.4826
60.0306 4238 65.0999
60.1473 4223 64.9846
60.2639 4144 64.3739
60.3807 4197 64.7843
60.4974 4217 64.9384
60.6142 4144 64.3739
60.731 4309 65.643
60.8479 4488 66.9925
60.9648 4507 67.1342
61.0818 4366 66.0757
61.1987 4446 66.6783
61.3158 4213 64.9076
61.4328 4288 65.4828
61.5499 4068 63.7809
61.667 3979 63.0793
61.7841 4160 64.4981
61.9013 4106 64.0781
62.0185 4228 65.0231
62.1357 4143 64.3661
62.253 4096 64
62.3702 4113 64.1327
62.4875 3835 61.9274
62.6049 3607 60.0583
62.7222 3747 61.2127
62.8396 3784 61.5142
62.9569 4093 63.9766
63.0743 4170 64.5755
63.1918 4273 65.3682
63.3092 4318 65.7115
63.4267 4277 65.3988
63.5441 4291 65.5057
63.6616 4247 65.169
63.7791 4123 64.2106
63.8966 4237 65.0922
64.0142 4100 64.0312
64.1317 4330 65.8027
64.2492 4149 64.4127
64.3668 4248 65.1767
64.4843 4214 64.9153
64.6019 4132 64.2806
64.7195 4093 63.9766
64.837 4084 63.9062
64.9546 4355 65.9924
65.0722 4409 66.4003
65.1898 4645 68.1542
65.3074 5060 71.1337
65.4249 5289 72.7255
65.5425 6048 77.7689
65.6601 6809 82.5167
65.7777 7433 86.2148
65.8952 7856 88.6341
66.0128 8014 89.5209
66.1304 7768 88.1363
66.2479 7727 87.9034
66.3655 8720 93.3809
66.483 10433 102.142
66.6005 12181 110.368
66.718 13343 115.512
66.8355 14050 118.533
66.953 14406 120.025
67.0705 15023 122.568
67.1879 15163 123.138
67.3054 15185 123.227
67.4228 15788 125.65
67.5402 15908 126.127
67.6576 15921 126.178
67.7749 16228 127.389
67.8923 16141 127.047
68.0096 16703 129.24
68.1269 16624 128.934
68.2442 16530 128.569
68.3614 16566 128.709
68.4787 16676 129.136
68.5958 16754 129.437
68.713 16687 129.178
68.8302 16897 129.988
68.9473 17048 130.568
69.0643 17345 131.7
69.1814 17490 132.25
69.2984 17933 133.914
69.4154 17874 133.694
69.5323 17991 134.131
69.6492 17012 130.43
69.7661 15181 123.211
69.8829 13336 115.482
69.9997 14177 119.067
70.1165 15883 126.028
70.2332 16455 128.277
70.3499 15426 124.201
70.4665 13454 115.991
70.5831 11874 108.968
70.6996 11048 105.109
70.8161 10486 102.401
70.9326 10076 100.379
71.049 9445 97.1854
71.1653 8992 94.8262
71.2817 8542 92.4229
71.3979 8111 90.0611
71.5141 7622 87.3041
71.6303 7189 84.788
71.7464 6976 83.5225
71.8624 0 1
71.9784 0 1
72.0944 0 1
72.2102 0 1
72.3261 0 1
72.4418 0 1
72.5575 0 1
72.6732 0 1
75.1054 0 1
75.2209 0 1
75.3365 0 1
75.4521 0 1
75.5678 0 1
75.6835 0 1
75.7993 0 1
75.9151 0 1
76.031 0 1
76.147 19270 138.816
76.263 20849 144.392
76.3791 20551 143.356
76.4952 20138 141.908
76.6113 19207 138.589
76.7276 18846 137.281
76.8438 18098 134.529
76.9601 17413 131.958
77.0765 16812 129.661
77.1929 16009 126.527
77.3093 15298 123.685
77.4258 14895 122.045
77.5423 14150 118.954
77.6589 13704 117.064
77.7755 13318 115.404
77.8921 13123 114.556
78.0088 12844 113.331
78.1256 12599 112.245
78.2423 12865 113.424
78.3591 12493 111.772
78.4759 12436 111.517
78.5928 11947 109.302
78.7097 10474 102.343
78.8266 8239 90.7689
78.9436 6859 82.8191
79.0606 7151 84.5636
79.1776 8818 93.9042
79.2946 10779 103.822
79.4117 11455 107.028
79.5288 11844 108.83
79.6459 11656 107.963
79.7631 11641 107.893
79.8802 11775 108.513
79.9974 11601 107.708
80.1147 11562 107.527
80.2319 11328 106.433
80.3491 11226 105.953
80.4664 11001 104.886
80.5837 10900 104.403
80.701 10647 103.184
80.8183 10556 102.742
80.9357 10294 101.459
81.053 10136 100.678
81.1704 9835 99.1716
81.2877 9527 97.6064
81.4051 9254 96.1977
81.5225 9567 97.811
81.6399 9032 95.0368
81.7573 9202 95.9271
81.8747 9069 95.2313
81.9922 9125 95.5249
82.1096 9176 95.7914
82.227 8962 94.6678
82.3444 8114 90.0777
82.4619 6626 81.4002
82.5793 5854 76.5114
82.6967 5664 75.2596
82.8142 6952 83.3787
82.9316 8250 90.8295
83.049 8911 94.3981
83.1664 9026 95.0053
83.2838 9037 95.0631
83.4012 9016 94.9526
83.5186 9061 95.1893
83.636 9081 95.2943
83.7534 8955 94.6309
83.8708 8758 93.5842
83.9881 8747 93.5254
84.1055 8811 93.8669
84.2228 8456 91.9565
84.3401 8353 91.3947
84.4575 8204 90.5759
84.5747 7914 88.9607
84.692 7635 87.3785
84.8093 7290 85.3815
84.9265 6905 83.0963
85.0437 6638 81.4739
85.1609 6483 80.5171
85.2781 6154 78.4474
85.3952 5909 76.87
85.5123 5738 75.7496
85.6294 5475 73.9932
85.7465 5474 73.9865
85.8636 5015 70.8167
85.9806 4346 65.9242
86.0976 3947 62.8252
86.2145 3881 62.2977
86.3315 4286 65.4675
86.4484 5177 71.9514
86.5652 5706 75.5381
86.682 5820 76.2889
86.7988 5954 77.1622
86.9156 6010 77.5242
87.0323 6081 77.9808
87.149 6179 78.6066
87.2657 6331 79.5676
87.3823 6091 78.0449
87.4988 5969 77.2593
87.6154 5815 76.2561
87.7318 5401 73.4915
87.8483 4982 70.5833
87.9647 4962 70.4415
88.081 4861 69.7209
88.1973 4701 68.5638
88.3136 4780 69.1375
88.4298 4684 68.4398
88.546 4648 68.1762
88.6621 4700 68.5565
88.7781 4844 69.5989
88.8942 0 1
89.0101 0 1
89.126 0 1
89.2419 0 1
89.3577 0 1
89.4734 0 1
89.5891 0 1
89.7047 0 1
89.8203 0 1
89.9358 0 1
92.3269 0 1
92.4424 0 1
92.558 0 1
92.6736 0 1
92.7893 0 1
92.905 0 1
93.0208 0 1
93.1366 0 1
93.2525 0 1
93.3685 0 1
93.4845 0 1
93.6005 9996 99.98
93.7167 10113 100.563
93.8328 10578 102.849
93.949 11266 106.141
94.0653 11368 106.621
94.1816 11933 109.238
94.2979 12047 109.759
94.4143 12186 110.39
94.5307 12498 111.794
94.6472 12550 112.027
94.7637 12356 111.158
94.8803 11344 106.508
94.9969 10535 102.64
95.1135 9480 97.3653
95.2302 10064 100.319
95.3469 11125 105.475
95.4637 12244 110.653
95.5805 13028 114.14
95.6973 13186 114.83
95.8142 13335 115.477
95.9311 13237 115.052
96.048 12939 113.75
96.1649 13101 114.46
96.2819 12553 112.04
96.3989 12003 109.558
96.516 12018 109.627
96.633 12009 109.586
96.7501 12128 110.127
96.8673 12244 110.653
96.9844 12413 111.414
97.1016 12092 109.964
97.2188 12683 112.619
97.336 13130 114.586
97.4532 13638 116.782
97.5704 14132 118.878
97.6877 14469 120.287
97.805 15129 123
97.9223 15644 125.076
98.0396 16038 126.641
98.1569 15897 126.083
98.2743 15577 124.808
98.3916 14934 122.205
98.509 13101 114.46
98.6264 11868 108.94
98.7438 12053 109.786
98.8612 13624 116.722
98.9786 15191 123.252
99.096 16284 127.609
99.2134 16429 128.176
99.3308 16374 127.961
99.4482 16556 128.67
99.5656 16583 128.775
99.6831 16448 128.25
99.8005 16239 127.432
99.9179 15630 125.02
100.035 15310 123.734
100.153 14947 122.258
100.27 14996 122.458
100.388 14953 122.282
100.505 15295 123.673
100.622 15181 123.211
100.74 15359 123.931
100.857 15466 124.362
100.975 16118 126.957
101.092 16542 128.616
101.209 16716 129.29
101.327 16818 129.684
101.444 16815 129.673
101.561 17522 132.371
101.679 17318 131.598
101.796 17387 131.86
101.913 17097 130.755
102.03 15920 126.174
102.148 14051 118.537
102.265 12503 111.817
102.382 13865 117.75
102.499 15226 123.394
102.616 16870 129.885
102.733 17652 132.861
102.851 17619 132.737
102.968 17870 133.679
103.085 17689 133
103.202 17774 133.319
103.319 17835 133.548
103.436 18100 134.536
103.552 18097 134.525
103.669 18010 134.201
103.786 18130 134.648
103.903 18234 135.033
104.02 18299 135.274
104.137 18424 135.735
104.253 18849 137.292
104.37 17849 133.6
104.487 17734 133.169
104.603 17132 130.889
104.72 16517 128.518
104.836 15688 125.252
104.953 14271 119.461
105.069 12892 113.543
105.186 11400 106.771
105.302 10857 104.197
105.418 10480 102.372
105.535 9820 99.0959
105.651 8928 94.4881
105.767 7799 88.3119
105.883 6900 83.0662
105.999 6241 79
106.115 0 1
106.231 0 1
106.347 0 1
106.463 0 1
106.579 0 1
106.694 0 1
106.81 0 1
106.926 0 1
107.041 0 1
107.157 0 1
109.576 0 1
109.692 0 1
109.807 0 1
109.923 0 1
110.039 0 1
110.155 0 1
110.27 0 1
110.386 0 1
110.502 0 1
110.618 24125 155.322
110.735 25580 159.937
110.851 24960 157.987
110.967 24354 156.058
111.083 24015 154.968
111.199 25002 158.12
111.316 26078 161.487
111.432 26708 163.426
111.549 27365 165.424
111.665 27477 165.762
111.782 27519 165.889
111.898 26796 163.695
112.015 26254 162.031
112.132 26052 161.406
112.248 25667 160.209
112.365 26278 162.105
112.482 25869 160.838
112.599 27684 166.385
112.716 28680 169.352
112.832 29698 172.331
112.949 31364 177.099
113.066 32514 180.316
113.183 32385 179.958
113.3 31975 178.816
113.417 32073 179.089
113.534 32447 180.131
113.652 32092 179.142
113.769 31913 178.642
113.886 31706 178.062
114.003 31888 178.572
114.12 32361 179.892
114.238 32056 179.042
114.355 31368 177.11
114.472 29586 172.006
114.589 29574 171.971
114.707 29488 171.721
114.824 31153 176.502
114.942 33490 183.003
115.059 33894 184.103
115.176 34081 184.61
115.294 34376 185.408
115.411 34154 184.808
115.529 33382 182.707
115.646 32606 180.571
115.764 32102 179.17
115.881 31139 176.462
115.999 30938 175.892
116.116 30950 175.926
116.234 32271 179.641
116.351 33808 183.87
116.469 34893 186.797
116.586 35785 189.169
116.704 36751 191.706
116.821 36904 192.104
116.939 36045 189.855
117.056 34841 186.657
117.174 33645 183.426
117.291 32395 179.986
117.409 32436 180.1
117.526 33242 182.324
117.644 33886 184.082
117.761 34163 184.832
117.879 33780 183.793
117.996 31554 177.634
118.114 29627 172.125
118.231 30060 173.378
118.349 30961 175.957
118.466 31995 178.871
118.584 32752 180.975
118.701 31690 178.017
118.819 31637 177.868
118.936 30462 174.534
119.053 29360 171.348
119.171 28608 169.139
119.288 27393 165.508
119.405 26245 162.003
119.523 25967 161.143
119.64 26203 161.873
119.757 26530 162.88
119.875 28063 167.52
119.992 29270 171.085
120.109 30487 174.605
120.226 31574 177.691
120.343 31437 177.305
120.46 30318 174.121
120.578 29213 170.918
120.695 28055 167.496
120.812 26494 162.77
120.929 25668 160.212
121.046 25464 159.574
121.163 25781 160.565
121.279 25946 161.078
121.396 25784 160.574
121.513 25308 159.085
121.63 23782 154.214
121.747 21916 148.041
121.863 19887 141.021
121.98 18498 136.007
122.097 17776 133.327
122.213 17636 132.801
122.33 17307 131.556
122.446 16705 129.248
122.563 15874 125.992
122.679 15305 123.713
122.795 14200 119.164
122.912 13049 114.232
123.028 12255 110.702
123.144 11552 107.48
123.26 10843 104.13
123.377 0 1
123.493 0 1
123.609 0 1
123.725 0 1
123.84 0 1
123.956 0 1
124.072 0 1
124.188 0 1
124.303 0 1
124.419 0 1
126.852 0 1
126.968 0 1
127.083 0 1
127.199 0 1
127.315 0 1
127.431 0 1
127.547 0 1
127.663 0 1
127.779 0 1
127.895 0 1
128.011 0 1
128.127 0 1
128.243 0 1
128.359 17091 130.733
128.476 17093 130.74
128.592 17121 130.847
128.708 17055 130.595
128.825 17413 131.958
128.941 17634 132.793
129.058 17910 133.828
129.174 18613 136.429
129.291 19478 139.564
129.408 20648 143.694
129.524 21940 148.122
129.641 23160 152.184
129.758 24128 155.332
129.875 24683 157.108
129.992 24780 157.417
130.108 24768 157.379
130.225 24129 155.335
130.342 23799 154.269
130.459 22476 149.92
130.576 22109 148.691
130.693 20336 142.604
130.81 19550 139.821
130.928 18945 137.641
131.045 19483 139.582
131.162 20059 141.63
131.279 20961 144.779
131.396 20918 144.631
131.513 20665 143.753
131.631 20669 143.767
131.748 20666 143.757
131.865 20589 143.489
131.983 20166 142.007
132.1 20848 144.388
132.217 20767 144.108
132.335 20982 144.852
132.452 20868 144.458
132.57 21251 145.777
132.687 20295 142.461
132.804 21332 146.055
132.922 20689 143.837
133.039 20735 143.997
133.157 20659 143.732
133.274 21147 145.42
133.392 21290 145.911
133.509 21646 147.126
133.627 22211 149.034
133.744 22236 149.117
133.862 22337 149.456
133.979 22776 150.917
134.097 22576 150.253
134.214 21948 148.149
134.332 21483 146.571
134.449 21764 147.526
134.567 21941 148.125
134.684 22741 150.801
134.802 23633 153.73
134.919 24150 155.403
135.037 24002 154.926
135.154 23692 153.922
135.272 22910 151.36
135.389 23181 152.253
135.507 22504 150.013
135.624 22594 150.313
135.742 22085 148.61
135.859 21799 147.645
135.977 21005 144.931
136.094 20884 144.513
136.211 20566 143.409
136.329 20636 143.652
136.446 20767 144.108
136.564 20780 144.153
136.681 20654 143.715
136.798 20778 144.146
136.915 20857 144.42
137.033 21116 145.313
137.15 21259 145.805
137.267 20924 144.651
137.384 20707 143.899
137.502 20919 144.634
137.619 20465 143.056
137.736 19467 139.524
137.853 18772 137.011
137.97 18116 134.596
138.087 17213 131.198
138.204 17685 132.985
138.321 18473 135.915
138.438 18910 137.514
138.555 19087 138.156
138.672 19399 139.28
138.788 19279 138.849
138.905 19419 139.352
139.022 18510 136.051
139.139 17872 133.686
139.255 16852 129.815
139.372 16352 127.875
139.488 15449 124.294
139.605 15089 122.837
139.721 14279 119.495
139.838 13879 117.809
139.954 13168 114.752
140.071 12832 113.278
140.187 12618 112.33
140.303 12904 113.596
140.419 13119 114.538
140.535 13765 117.324
140.652 14107 118.773
140.768 0 1
140.884 0 1
141 0 1
141.115 0 1
141.231 0 1
141.347 0 1
141.463 0 1
141.578 0 1
141.694 0 1
144.104 0 1
144.219 0 1
144.335 0 1
144.45 0 1
144.566 0 1
144.682 0 1
144.798 0 1
144.914 0 1
145.03 0 1
145.146 24073 155.155
145.262 24025 155
145.378 24625 156.924
145.494 24628 156.933
145.61 24762 157.359
145.726 25192 158.72
145.842 25420 159.437
145.959 25751 160.471
146.075 25668 160.212
146.192 25238 158.865
146.308 24720 157.226
146.425 24248 155.718
146.541 23599 153.62
146.658 21375 146.202
146.774 19802 140.72
146.891 18880 137.405
147.008 19920 141.138
147.125 22596 150.32
147.241 24468 156.423
147.358 25449 159.527
147.475 26307 162.194
147.592 26428 162.567
147.709 26925 164.088
147.826 27456 165.699
147.943 27254 165.088
148.06 27791 166.706
148.177 27590 166.102
148.294 27436 165.638
148.411 27310 165.257
148.528 27646 166.271
148.645 27286 165.185
148.762 27465 165.726
148.88 27417 165.581
148.997 27144 164.754
149.114 28302 168.232
149.231 27648 166.277
149.349 28049 167.478
149.466 27170 164.833
149.583 27490 165.801
149.701 27319 165.285
149.818 27631 166.226
149.935 27525 165.907
150.053 27292 165.203
150.17 26613 163.135
150.287 25112 158.468
150.405 22765 150.881
150.522 21294 145.925
150.64 21202 145.609
150.757 22525 150.083
150.875 23866 154.486
150.992 24784 157.429
151.11 23675 153.867
151.227 23362 152.846
151.344 22745 150.814
151.462 22291 149.302
151.579 22837 151.119
151.697 23401 152.974
151.814 23922 154.667
151.932 24149 155.399
152.049 24239 155.689
152.167 24746 157.309
152.284 24912 157.835
152.402 25067 158.326
152.519 24668 157.06
152.636 24670 157.067
152.754 25011 158.149
152.871 25002 158.12
152.989 25305 159.075
153.106 25762 160.505
153.223 25396 159.361
153.341 25659 160.184
153.458 25837 160.739
153.575 26674 163.322
153.693 26922 164.079
153.81 26375 162.404
153.927 24960 157.987
154.044 22654 150.512
154.162 21411 146.325
154.279 22070 148.56
154.396 23784 154.221
154.513 24871 157.705
154.63 25481 159.628
154.747 25023 158.187
154.864 24337 156.003
154.981 24217 155.618
155.098 23149 152.148
155.215 22664 150.546
155.332 21296 145.931
155.449 20447 142.993
155.566 19340 139.068
155.683 18641 136.532
155.8 17351 131.723
155.917 16900 130
156.033 16428 128.172
156.15 0 1
156.267 0 1
156.383 0 1
156.5 0 1
156.617 0 1
156.733 0 1
156.85 0 1
156.966 0 1
157.082 0 1
157.199 0 1
157.315 0 1
157.431 0 1
157.547 0 1
157.664 0 1
157.78 0 1
157.896 0 1
158.012 0 1
158.128 0 1
158.244 0 1
158.359 0 1
158.475 0 1
158.591 0 1
158.706 0 1
