
6.15755 0 1
6.2731 0 1
6.3887 0 1
6.50437 0 1
6.62009 0 1
6.73587 0 1
6.8517 0 1
6.96759 0 1
7.08353 0 1
7.19952 0 1
7.31557 0 1
7.43166 0 1
7.54781 0 1
7.664 0 1
7.78024 0 1
7.89653 0 1
8.01286 0 1
8.12924 0 1
8.24567 0 1
8.36213 0 1
8.47864 0 1
8.59519 0 1
8.71178 0 1
8.82841 0 1
8.94508 0 1
9.06179 0 1
9.17853 0 1
9.29531 0 1
9.41212 0 1
9.52897 0 1
9.64584 0 1
9.76276 0 1
9.8797 0 1
9.99667 0 1
10.1137 0 1
10.2307 0 1
10.3478 0 1
10.4648 0 1
10.5819 0 1
10.6991 0 1
10.8162 0 1
10.9334 0 1
11.0506 0 1
11.1678 0 1
11.285 0 1
11.4023 0 1
11.5196 0 1
11.6369 0 1
11.7542 0 1
11.8715 0 1
11.9888 0 1
12.1062 0 1
12.2235 0 1
12.3409 0 1
12.4582 0 1
12.5756 0 1
12.693 0 1
12.8104 0 1
12.9278 0 1
13.0452 0 1
13.1626 0 1
13.28 0 1
13.3974 0 1
13.5149 0 1
13.6323 0 1
13.7497 0 1
13.8671 0 1
13.9845 0 1
14.1019 0 1
14.2193 0 1
14.3367 0 1
14.4541 0 1
14.5714 0 1
14.6888 0 1
14.8062 0 1
14.9235 0 1
15.0408 605 24.5967
15.1581 621 24.9199
15.2755 626 25.02
15.3927 662 25.7294
15.51 723 26.8887
15.6273 715 26.7395
15.7445 743 27.258
15.8617 709 26.6271
15.9789 657 25.632
16.0961 657 25.632
16.2132 638 25.2587
16.3304 674 25.9615
16.4475 619 24.8797
16.5646 588 24.2487
16.6816 637 25.2389
16.7986 621 24.9199
16.9156 620 24.8998
17.0326 617 24.8395
17.1496 583 24.1454
17.2665 579 24.0624
17.3833 618 24.8596
17.5002 582 24.1247
17.617 551 23.4734
17.7338 596 24.4131
17.8505 606 24.6171
17.9672 627 25.04
18.0839 673 25.9422
18.2005 643 25.3574
18.3171 718 26.7955
18.4337 740 27.2029
18.5502 778 27.8927
18.6666 753 27.4408
18.7831 719 26.8142
18.8994 752 27.4226
19.0158 729 27
19.1321 719 26.8142
19.2483 699 26.4386
19.3645 672 25.923
19.4806 619 24.8797
19.5967 634 25.1794
19.7128 601 24.5153
19.8288 620 24.8998
19.9447 559 23.6432
20.0606 0 1
20.1764 0 1
20.2922 0 1
20.4079 0 1
20.5236 0 1
20.6392 0 1
20.7548 0 1
20.8702 0 1
23.3078 0 1
23.4233 0 1
23.539 0 1
23.6547 0 1
23.7704 0 1
23.8862 0 1
24.0021 0 1
24.118 0 1
24.234 0 1
24.35 0 1
24.4661 641 25.318
24.5822 678 26.0384
24.6984 645 25.3969
24.8146 604 24.5764
24.9309 652 25.5343
25.0472 682 26.1151
25.1636 652 25.5343
25.28 668 25.8457
25.3965 698 26.4197
25.513 730 27.0185
25.6296 679 26.0576
25.7462 754 27.4591
25.8628 724 26.9072
25.9795 731 27.037
26.0962 665 25.7876
26.213 662 25.7294
26.3298 730 27.0185
26.4466 687 26.2107
26.5635 665 25.7876
26.6804 716 26.7582
26.7973 603 24.5561
26.9143 672 25.923
27.0313 647 25.4362
27.1483 643 25.3574
27.2653 656 25.6125
27.3824 642 25.3377
27.4996 671 25.9037
27.6167 660 25.6905
27.7339 663 25.7488
27.8511 617 24.8395
27.9683 649 25.4755
28.0855 659 25.671
28.2028 682 26.1151
28.3201 676 26
28.4374 620 24.8998
28.5547 625 25
28.6721 644 25.3772
28.7894 629 25.0799
28.9068 679 26.0576
29.0242 671 25.9037
29.1416 650 25.4951
29.259 666 25.807
29.3764 647 25.4362
29.4939 636 25.219
29.6113 634 25.1794
29.7288 576 24
29.8463 589 24.2693
29.9638 562 23.7065
30.0812 574 23.9583
30.1987 607 24.6374
30.3162 642 25.3377
30.4337 618 24.8596
30.5512 675 25.9808
30.6687 608 24.6577
30.7862 627 25.04
30.9037 646 25.4165
31.0212 665 25.7876
31.1387 703 26.5141
31.2562 671 25.9037
31.3737 673 25.9422
31.4912 683 26.1343
31.6087 651 25.5147
31.7262 706 26.5707
31.8436 643 25.3574
31.9611 631 25.1197
32.0785 656 25.6125
32.1959 601 24.5153
32.3134 658 25.6515
32.4308 677 26.0192
32.5482 633 25.1595
32.6655 581 24.1039
32.7829 640 25.2982
32.9002 644 25.3772
33.0176 567 23.8118
33.1349 554 23.5372
33.2522 567 23.8118
33.3694 606 24.6171
33.4867 561 23.6854
33.6039 540 23.2379
33.7211 536 23.1517
33.8383 592 24.3311
33.9554 574 23.9583
34.0725 636 25.219
34.1896 647 25.4362
34.3067 584 24.1661
34.4237 562 23.7065
34.5407 569 23.8537
34.6577 716 26.7582
34.7746 718 26.7955
34.8915 707 26.5895
35.0084 679 26.0576
35.1252 662 25.7294
35.242 674 25.9615
35.3587 676 26
35.4755 690 26.2679
35.5921 721 26.8514
35.7088 642 25.3377
35.8254 652 25.5343
35.9419 659 25.671
36.0584 609 24.6779
36.1749 666 25.807
36.2913 591 24.3105
36.4077 547 23.388
36.524 545 23.3452
36.6403 571 23.8956
36.7565 536 23.1517
36.8727 565 23.7697
36.9889 507 22.5167
37.1049 497 22.2935
37.221 0 1
37.3369 0 1
37.4529 0 1
37.5687 0 1
37.6845 0 1
37.8003 0 1
37.916 0 1
38.0316 0 1
38.1472 0 1
40.5851 0 1
40.7008 0 1
40.8164 0 1
40.9322 0 1
41.048 0 1
41.1639 0 1
41.2798 0 1
41.3958 0 1
41.5118 0 1
41.6279 0 1
41.744 456 21.3542
41.8602 456 21.3542
41.9765 425 20.6155
42.0928 433 20.8087
42.2091 436 20.8806
42.3255 425 20.6155
42.4419 424 20.5913
42.5584 422 20.5426
42.675 479 21.8861
42.7915 442 21.0238
42.9081 489 22.1133
43.0248 474 21.7715
43.1415 446 21.1187
43.2582 457 21.3776
43.375 526 22.9347
43.4918 459 21.4243
43.6087 519 22.7816
43.7256 501 22.383
43.8425 506 22.4944
43.9595 520 22.8035
44.0765 493 22.2036
44.1935 451 21.2368
44.3106 420 20.4939
44.4277 457 21.3776
44.5448 430 20.7364
44.6619 418 20.445
44.7791 435 20.8567
44.8963 408 20.199
45.0136 419 20.4695
45.1308 405 20.1246
45.2481 412 20.2978
45.3654 377 19.4165
45.4827 371 19.2614
45.6001 361 19
45.7174 324 18
45.8348 310 17.6068
45.9522 315 17.7482
46.0697 311 17.6352
46.1871 333 18.2483
46.3046 348 18.6548
46.422 344 18.5472
46.5395 334 18.2757
46.657 313 17.6918
46.7745 287 16.9411
46.892 312 17.6635
47.0096 335 18.303
47.1271 353 18.7883
47.2446 366 19.1311
47.3622 359 18.9473
47.4797 317 17.8045
47.5973 324 18
47.7149 351 18.735
47.8324 314 17.72
47.95 305 17.4642
48.0675 303 17.4069
48.1851 321 17.9165
48.3027 298 17.2627
48.4202 315 17.7482
48.5378 328 18.1108
48.6554 303 17.4069
48.7729 312 17.6635
48.8904 316 17.7764
49.008 280 16.7332
49.1255 287 16.9411
49.243 274 16.5529
49.3605 257 16.0312
49.478 240 15.4919
49.5955 242 15.5563
49.713 282 16.7929
49.8304 293 17.1172
49.9479 286 16.9115
50.0653 288 16.9706
50.1827 290 17.0294
50.3001 272 16.4924
50.4175 292 17.088
50.5348 356 18.868
50.6521 363 19.0526
50.7694 339 18.412
50.8867 380 19.4936
51.004 339 18.412
51.1212 352 18.7617
51.2384 392 19.799
51.3556 387 19.6723
51.4727 369 19.2094
51.5899 352 18.7617
51.707 363 19.0526
51.824 365 19.105
51.9411 398 19.9499
52.0581 407 20.1742
52.175 407 20.1742
52.2919 394 19.8494
52.4088 401 20.025
52.5257 403 20.0749
52.6425 432 20.7846
52.7593 408 20.199
52.876 412 20.2978
52.9927 388 19.6977
53.1094 370 19.2354
53.226 400 20
53.3426 410 20.2485
53.4591 455 21.3307
53.5756 457 21.3776
53.692 443 21.0476
53.8084 438 20.9284
53.9248 350 18.7083
54.0411 381 19.5192
54.1573 448 21.166
54.2735 0 1
54.3896 0 1
54.5057 0 1
54.6217 0 1
54.7377 0 1
54.8537 0 1
54.9695 0 1
55.0853 0 1
55.2011 0 1
55.3168 0 1
55.4324 0 1
57.824 0 1
57.9396 0 1
58.0553 0 1
58.1711 0 1
58.2869 0 1
58.4028 0 1
58.5187 0 1
58.6347 0 1
58.7508 0 1
58.8669 0 1
58.983 449 21.1896
59.0992 423 20.567
59.2155 509 22.561
59.3318 540 23.2379
59.4482 493 22.2036
59.5646 568 23.8328
59.681 539 23.2164
59.7975 568 23.8328
59.9141 563 23.7276
60.0306 543 23.3024
60.1473 558 23.622
60.2639 521 22.8254
60.3807 507 22.5167
60.4974 510 22.5832
60.6142 509 22.561
60.731 533 23.0868
60.8479 538 23.1948
60.9648 513 22.6495
61.0818 545 23.3452
61.1987 504 22.4499
61.3158 518 22.7596
61.4328 453 21.2838
61.5499 458 21.4009
61.667 431 20.7605
61.7841 450 21.2132
61.9013 450 21.2132
62.0185 502 22.4054
62.1357 487 22.0681
62.253 440 20.9762
62.3702 430 20.7364
62.4875 393 19.8242
62.6049 401 20.025
62.7222 465 21.5639
62.8396 495 22.2486
62.9569 505 22.4722
63.0743 503 22.4277
63.1918 498 22.3159
63.3092 483 21.9773
63.4267 520 22.8035
63.5441 473 21.7486
63.6616 499 22.3383
63.7791 494 22.2261
63.8966 438 20.9284
64.0142 473 21.7486
64.1317 472 21.7256
64.2492 481 21.9317
64.3668 471 21.7025
64.4843 481 21.9317
64.6019 485 22.0227
64.7195 419 20.4695
64.837 460 21.4476
64.9546 445 21.095
65.0722 431 20.7605
65.1898 383 19.5704
65.3074 401 20.025
65.4249 397 19.9249
65.5425 439 20.9523
65.6601 438 20.9284
65.7777 436 20.8806
65.8952 404 20.0998
66.0128 378 19.4422
66.1304 363 19.0526
66.2479 387 19.6723
66.3655 472 21.7256
66.483 491 22.1585
66.6005 511 22.6053
66.718 498 22.3159
66.8355 506 22.4944
66.953 508 22.5389
67.0705 491 22.1585
67.1879 476 21.8174
67.3054 446 21.1187
67.4228 421 20.5183
67.5402 454 21.3073
67.6576 443 21.0476
67.7749 455 21.3307
67.8923 497 22.2935
68.0096 513 22.6495
68.1269 475 21.7945
68.2442 484 22
68.3614 506 22.4944
68.4787 462 21.4942
68.5958 475 21.7945
68.713 423 20.567
68.8302 394 19.8494
68.9473 378 19.4422
69.0643 405 20.1246
69.1814 476 21.8174
69.2984 507 22.5167
69.4154 482 21.9545
69.5323 484 22
69.6492 394 19.8494
69.7661 389 19.7231
69.8829 439 20.9523
69.9997 476 21.8174
70.1165 528 22.9783
70.2332 515 22.6936
70.3499 534 23.1084
70.4665 525 22.9129
70.5831 518 22.7596
70.6996 482 21.9545
70.8161 515 22.6936
70.9326 495 22.2486
71.049 531 23.0434
71.1653 499 22.3383
71.2817 514 22.6716
71.3979 475 21.7945
71.5141 551 23.4734
71.6303 470 21.6795
71.7464 486 22.0454
71.8624 0 1
71.9784 0 1
72.0944 0 1
72.2102 0 1
72.3261 0 1
72.4418 0 1
72.5575 0 1
72.6732 0 1
75.1054 0 1
75.2209 0 1
75.3365 0 1
75.4521 0 1
75.5678 0 1
75.6835 0 1
75.7993 0 1
75.9151 0 1
76.031 0 1
76.147 476 21.8174
76.263 508 22.5389
76.3791 473 21.7486
76.4952 496 22.2711
76.6113 451 21.2368
76.7276 498 22.3159
76.8438 511 22.6053
76.9601 520 22.8035
77.0765 518 22.7596
77.1929 523 22.8692
77.3093 545 23.3452
77.4258 559 23.6432
77.5423 459 21.4243
77.6589 445 21.095
77.7755 482 21.9545
77.8921 468 21.6333
78.0088 447 21.1424
78.1256 450 21.2132
78.2423 458 21.4009
78.3591 529 23
78.4759 454 21.3073
78.5928 425 20.6155
78.7097 359 18.9473
78.8266 348 18.6548
78.9436 400 20
79.0606 448 21.166
79.1776 521 22.8254
79.2946 528 22.9783
79.4117 556 23.5797
79.5288 532 23.0651
79.6459 571 23.8956
79.7631 499 22.3383
79.8802 525 22.9129
79.9974 449 21.1896
80.1147 440 20.9762
80.2319 455 21.3307
80.3491 469 21.6564
80.4664 482 21.9545
80.5837 452 21.2603
80.701 499 22.3383
80.8183 518 22.7596
80.9357 529 23
81.053 484 22
81.1704 478 21.8632
81.2877 466 21.587
81.4051 410 20.2485
81.5225 386 19.6469
81.6399 381 19.5192
81.7573 446 21.1187
81.8747 409 20.2237
81.9922 459 21.4243
82.1096 409 20.2237
82.227 402 20.0499
82.3444 347 18.6279
82.4619 348 18.6548
82.5793 352 18.7617
82.6967 419 20.4695
82.8142 441 21
82.9316 467 21.6102
83.049 474 21.7715
83.1664 472 21.7256
83.2838 474 21.7715
83.4012 483 21.9773
83.5186 432 20.7846
83.636 459 21.4243
83.7534 420 20.4939
83.8708 452 21.2603
83.9881 411 20.2731
84.1055 482 21.9545
84.2228 467 21.6102
84.3401 490 22.1359
84.4575 462 21.4942
84.5747 500 22.3607
84.692 459 21.4243
84.8093 421 20.5183
84.9265 435 20.8567
85.0437 420 20.4939
85.1609 421 20.5183
85.2781 451 21.2368
85.3952 420 20.4939
85.5123 460 21.4476
85.6294 494 22.2261
85.7465 459 21.4243
85.8636 454 21.3073
85.9806 422 20.5426
86.0976 374 19.3391
86.2145 465 21.5639
86.3315 549 23.4307
86.4484 530 23.0217
86.5652 572 23.9165
86.682 508 22.5389
86.7988 525 22.9129
86.9156 517 22.7376
87.0323 531 23.0434
87.149 540 23.2379
87.2657 510 22.5832
87.3823 522 22.8473
87.4988 542 23.2809
87.6154 559 23.6432
87.7318 601 24.5153
87.8483 612 24.7386
87.9647 659 25.671
88.081 581 24.1039
88.1973 620 24.8998
88.3136 582 24.1247
88.4298 564 23.7487
88.546 491 22.1585
88.6621 517 22.7376
88.7781 517 22.7376
88.8942 0 1
89.0101 0 1
89.126 0 1
89.2419 0 1
89.3577 0 1
89.4734 0 1
89.5891 0 1
89.7047 0 1
89.8203 0 1
89.9358 0 1
92.3269 0 1
92.4424 0 1
92.558 0 1
92.6736 0 1
92.7893 0 1
92.905 0 1
93.0208 0 1
93.1366 0 1
93.2525 0 1
93.3685 0 1
93.4845 0 1
93.6005 676 26
93.7167 609 24.6779
93.8328 604 24.5764
93.949 600 24.4949
94.0653 506 22.4944
94.1816 572 23.9165
94.2979 582 24.1247
94.4143 589 24.2693
94.5307 587 24.2281
94.6472 587 24.2281
94.7637 625 25
94.8803 613 24.7588
94.9969 554 23.5372
95.1135 591 24.3105
95.2302 539 23.2164
95.3469 543 23.3024
95.4637 631 25.1197
95.5805 655 25.593
95.6973 666 25.807
95.8142 649 25.4755
95.9311 681 26.096
96.048 674 25.9615
96.1649 638 25.2587
96.2819 673 25.9422
96.3989 666 25.807
96.516 630 25.0998
96.633 667 25.8263
96.7501 649 25.4755
96.8673 628 25.0599
96.9844 671 25.9037
97.1016 662 25.7294
97.2188 693 26.3249
97.336 680 26.0768
97.4532 675 25.9808
97.5704 619 24.8797
97.6877 591 24.3105
97.805 593 24.3516
97.9223 559 23.6432
98.0396 575 23.9792
98.1569 635 25.1992
98.2743 612 24.7386
98.3916 668 25.8457
98.509 662 25.7294
98.6264 672 25.923
98.7438 578 24.0416
98.8612 596 24.4131
98.9786 585 24.1868
99.096 623 24.96
99.2134 720 26.8328
99.3308 674 25.9615
99.4482 706 26.5707
99.5656 743 27.258
99.6831 702 26.4953
99.8005 638 25.2587
99.9179 721 26.8514
100.035 683 26.1343
100.153 637 25.2389
100.27 610 24.6982
100.388 700 26.4575
100.505 670 25.8844
100.622 753 27.4408
100.74 721 26.8514
100.857 778 27.8927
100.975 749 27.3679
101.092 750 27.3861
101.209 726 26.9444
101.327 627 25.04
101.444 648 25.4558
101.561 659 25.671
101.679 671 25.9037
101.796 676 26
101.913 701 26.4764
102.03 702 26.4953
102.148 690 26.2679
102.265 680 26.0768
102.382 679 26.0576
102.499 635 25.1992
102.616 670 25.8844
102.733 783 27.9821
102.851 763 27.6225
102.968 777 27.8747
103.085 766 27.6767
103.202 762 27.6043
103.319 766 27.6767
103.436 762 27.6043
103.552 711 26.6646
103.669 743 27.258
103.786 784 28
103.903 800 28.2843
104.02 780 27.9285
104.137 816 28.5657
104.253 882 29.6985
104.37 786 28.0357
104.487 824 28.7054
104.603 820 28.6356
104.72 860 29.3258
104.836 819 28.6182
104.953 775 27.8388
105.069 747 27.3313
105.186 730 27.0185
105.302 768 27.7128
105.418 869 29.4788
105.535 897 29.95
105.651 811 28.4781
105.767 782 27.9643
105.883 819 28.6182
105.999 797 28.2312
106.115 0 1
106.231 0 1
106.347 0 1
106.463 0 1
106.579 0 1
106.694 0 1
106.81 0 1
106.926 0 1
107.041 0 1
107.157 0 1
109.576 0 1
109.692 0 1
109.807 0 1
109.923 0 1
110.039 0 1
110.155 0 1
110.27 0 1
110.386 0 1
110.502 0 1
110.618 866 29.4279
110.735 818 28.6007
110.851 811 28.4781
110.967 811 28.4781
111.083 816 28.5657
111.199 817 28.5832
111.316 839 28.9655
111.432 930 30.4959
111.549 910 30.1662
111.665 910 30.1662
111.782 872 29.5296
111.898 905 30.0832
112.015 878 29.6311
112.132 820 28.6356
112.248 781 27.9464
112.365 887 29.7825
112.482 783 27.9821
112.599 814 28.5307
112.716 871 29.5127
112.832 865 29.4109
112.949 908 30.133
113.066 938 30.6268
113.183 913 30.2159
113.3 904 30.0666
113.417 848 29.1204
113.534 801 28.3019
113.652 836 28.9137
113.769 808 28.4253
113.886 808 28.4253
114.003 846 29.0861
114.12 918 30.2985
114.238 851 29.1719
114.355 817 28.5832
114.472 833 28.8617
114.589 752 27.4226
114.707 844 29.0517
114.824 837 28.931
114.942 879 29.6479
115.059 887 29.7825
115.176 910 30.1662
115.294 910 30.1662
115.411 876 29.5973
115.529 874 29.5635
115.646 863 29.3769
115.764 827 28.7576
115.881 788 28.0713
115.999 847 29.1033
116.116 835 28.8964
116.234 890 29.8329
116.351 943 30.7083
116.469 938 30.6268
116.586 939 30.6431
116.704 906 30.0998
116.821 939 30.6431
116.939 928 30.4631
117.056 972 31.1769
117.174 929 30.4795
117.291 931 30.5123
117.409 877 29.6142
117.526 929 30.4795
117.644 908 30.133
117.761 922 30.3645
117.879 900 30
117.996 895 29.9166
118.114 863 29.3769
118.231 827 28.7576
118.349 867 29.4449
118.466 900 30
118.584 955 30.9031
118.701 899 29.9833
118.819 927 30.4467
118.936 919 30.315
119.053 874 29.5635
119.171 883 29.7153
119.288 940 30.6594
119.405 907 30.1164
119.523 926 30.4302
119.64 859 29.3087
119.757 857 29.2746
119.875 890 29.8329
119.992 951 30.8383
120.109 942 30.692
120.226 998 31.5911
120.343 1026 32.0312
120.46 955 30.9031
120.578 971 31.1609
120.695 974 31.209
120.812 897 29.95
120.929 953 30.8707
121.046 947 30.7734
121.163 885 29.7489
121.279 934 30.5614
121.396 890 29.8329
121.513 966 31.0805
121.63 925 30.4138
121.747 874 29.5635
121.863 832 28.8444
121.98 918 30.2985
122.097 868 29.4618
122.213 898 29.9666
122.33 940 30.6594
122.446 896 29.9333
122.563 921 30.348
122.679 893 29.8831
122.795 877 29.6142
122.912 854 29.2233
123.028 850 29.1548
123.144 854 29.2233
123.26 827 28.7576
123.377 0 1
123.493 0 1
123.609 0 1
123.725 0 1
123.84 0 1
123.956 0 1
124.072 0 1
124.188 0 1
124.303 0 1
124.419 0 1
126.852 0 1
126.968 0 1
127.083 0 1
127.199 0 1
127.315 0 1
127.431 0 1
127.547 0 1
127.663 0 1
127.779 0 1
127.895 0 1
128.011 0 1
128.127 0 1
128.243 0 1
128.359 1061 32.573
128.476 1007 31.7333
128.592 1067 32.665
128.708 973 31.1929
128.825 991 31.4802
128.941 1036 32.187
129.058 1055 32.4808
129.174 1078 32.8329
129.291 1066 32.6497
129.408 1060 32.5576
129.524 1131 33.6303
129.641 1175 34.2783
129.758 1147 33.8674
129.875 1143 33.8083
129.992 1153 33.9559
130.108 1080 32.8634
130.225 1149 33.8969
130.342 1163 34.1028
130.459 1132 33.6452
130.576 1244 35.2704
130.693 1171 34.2199
130.81 1146 33.8526
130.928 1116 33.4066
131.045 1146 33.8526
131.162 1183 34.3948
131.279 1182 34.3802
131.396 1147 33.8674
131.513 1171 34.2199
131.631 1213 34.8281
131.748 1263 35.5387
131.865 1163 34.1028
131.983 1188 34.4674
132.1 1080 32.8634
132.217 1077 32.8177
132.335 1078 32.8329
132.452 1083 32.909
132.57 1089 33
132.687 1075 32.7872
132.804 1170 34.2053
132.922 1145 33.8378
133.039 1158 34.0294
133.157 1185 34.4238
133.274 1145 33.8378
133.392 1190 34.4964
133.509 1144 33.8231
133.627 1180 34.3511
133.744 1236 35.1568
133.862 1217 34.8855
133.979 1308 36.1663
134.097 1334 36.524
134.214 1264 35.5528
134.332 1290 35.9166
134.449 1279 35.7631
134.567 1221 34.9428
134.684 1318 36.3043
134.802 1323 36.3731
134.919 1302 36.0832
135.037 1281 35.7911
135.154 1277 35.7351
135.272 1347 36.7015
135.389 1253 35.3977
135.507 1270 35.6371
135.624 1244 35.2704
135.742 1172 34.2345
135.859 1166 34.1467
135.977 1219 34.9142
136.094 1211 34.7994
136.211 1236 35.1568
136.329 1241 35.2278
136.446 1175 34.2783
136.564 1221 34.9428
136.681 1229 35.0571
136.798 1198 34.6121
136.915 1222 34.9571
137.033 1228 35.0428
137.15 1182 34.3802
137.267 1258 35.4683
137.384 1235 35.1426
137.502 1222 34.9571
137.619 1272 35.6651
137.736 1344 36.6606
137.853 1279 35.7631
137.97 1327 36.428
138.087 1271 35.6511
138.204 1320 36.3318
138.321 1351 36.756
138.438 1365 36.9459
138.555 1410 37.55
138.672 1421 37.6962
138.788 1383 37.1887
138.905 1360 36.8782
139.022 1349 36.7287
139.139 1395 37.3497
139.255 1209 34.7707
139.372 1244 35.2704
139.488 1270 35.6371
139.605 1292 35.9444
139.721 1310 36.1939
139.838 1236 35.1568
139.954 1320 36.3318
140.071 1330 36.4692
140.187 1304 36.1109
140.303 1297 36.0139
140.419 1332 36.4966
140.535 1310 36.1939
140.652 1181 34.3657
140.768 0 1
140.884 0 1
141 0 1
141.115 0 1
141.231 0 1
141.347 0 1
141.463 0 1
141.578 0 1
141.694 0 1
144.104 0 1
144.219 0 1
144.335 0 1
144.45 0 1
144.566 0 1
144.682 0 1
144.798 0 1
144.914 0 1
145.03 0 1
145.146 1036 32.187
145.262 1092 33.0454
145.378 1124 33.5261
145.494 1084 32.9242
145.61 1171 34.2199
145.726 1154 33.9706
145.842 1229 35.0571
145.959 1165 34.1321
146.075 1165 34.1321
146.192 1134 33.6749
146.308 1150 33.9116
146.425 1129 33.6006
146.541 1133 33.6601
146.658 1049 32.3883
146.774 1092 33.0454
146.891 1045 32.3265
147.008 1076 32.8024
147.125 1053 32.45
147.241 1047 32.3574
147.358 1056 32.4962
147.475 1049 32.3883
147.592 1095 33.0908
147.709 1167 34.1614
147.826 1132 33.6452
147.943 1204 34.6987
148.06 1175 34.2783
148.177 1230 35.0714
148.294 1146 33.8526
148.411 1207 34.7419
148.528 1215 34.8569
148.645 1219 34.9142
148.762 1252 35.3836
148.88 1195 34.5688
148.997 1270 35.6371
149.114 1264 35.5528
149.231 1312 36.2215
149.349 1268 35.609
149.466 1329 36.4555
149.583 1324 36.3868
149.701 1337 36.565
149.818 1243 35.2562
149.935 1251 35.3695
150.053 1246 35.2987
150.17 1262 35.5246
150.287 1200 34.641
150.405 1203 34.6843
150.522 1213 34.8281
150.64 1216 34.8712
150.757 1127 33.5708
150.875 1106 33.2566
150.992 1092 33.0454
151.11 1100 33.1662
151.227 1084 32.9242
151.344 1091 33.0303
151.462 1045 32.3265
151.579 1011 31.7962
151.697 994 31.5278
151.814 1014 31.8434
151.932 959 30.9677
152.049 1005 31.7017
152.167 1048 32.3728
152.284 1054 32.4654
152.402 1038 32.218
152.519 1077 32.8177
152.636 1171 34.2199
152.754 1159 34.0441
152.871 1179 34.3366
152.989 1209 34.7707
153.106 1221 34.9428
153.223 1181 34.3657
153.341 1252 35.3836
153.458 1252 35.3836
153.575 1260 35.4965
153.693 1341 36.6197
153.81 1280 35.7771
153.927 1319 36.318
154.044 1386 37.229
154.162 1373 37.054
154.279 1278 35.7491
154.396 1310 36.1939
154.513 1313 36.2353
154.63 1289 35.9026
154.747 1291 35.9305
154.864 1342 36.6333
154.981 1266 35.5809
155.098 1267 35.5949
155.215 1257 35.4542
155.332 1203 34.6843
155.449 1124 33.5261
155.566 1099 33.1512
155.683 1070 32.7109
155.8 1033 32.1403
155.917 1008 31.749
156.033 969 31.1288
156.15 0 1
156.267 0 1
156.383 0 1
156.5 0 1
156.617 0 1
156.733 0 1
156.85 0 1
156.966 0 1
157.082 0 1
157.199 0 1
157.315 0 1
157.431 0 1
157.547 0 1
157.664 0 1
157.78 0 1
157.896 0 1
158.012 0 1
158.128 0 1
158.244 0 1
158.359 0 1
158.475 0 1
158.591 0 1
158.706 0 1
