
6.15755 0 1
6.2731 0 1
6.3887 0 1
6.50437 0 1
6.62009 0 1
6.73587 0 1
6.8517 0 1
6.96759 0 1
7.08353 0 1
7.19952 0 1
7.31557 0 1
7.43166 0 1
7.54781 0 1
7.664 0 1
7.78024 0 1
7.89653 0 1
8.01286 0 1
8.12924 0 1
8.24567 0 1
8.36213 0 1
8.47864 0 1
8.59519 0 1
8.71178 0 1
8.82841 0 1
8.94508 0 1
9.06179 0 1
9.17853 0 1
9.29531 0 1
9.41212 0 1
9.52897 0 1
9.64584 0 1
9.76276 0 1
9.8797 0 1
9.99667 0 1
10.1137 0 1
10.2307 0 1
10.3478 0 1
10.4648 0 1
10.5819 0 1
10.6991 0 1
10.8162 0 1
10.9334 0 1
11.0506 0 1
11.1678 0 1
11.285 0 1
11.4023 0 1
11.5196 0 1
11.6369 0 1
11.7542 0 1
11.8715 0 1
11.9888 0 1
12.1062 0 1
12.2235 0 1
12.3409 0 1
12.4582 0 1
12.5756 0 1
12.693 0 1
12.8104 0 1
12.9278 0 1
13.0452 0 1
13.1626 0 1
13.28 0 1
13.3974 0 1
13.5149 0 1
13.6323 0 1
13.7497 0 1
13.8671 0 1
13.9845 0 1
14.1019 0 1
14.2193 0 1
14.3367 0 1
14.4541 0 1
14.5714 0 1
14.6888 0 1
14.8062 0 1
14.9235 0 1
15.0408 1626 40.3237
15.1581 1648 40.5956
15.2755 1733 41.6293
15.3927 1663 40.7799
15.51 1694 41.1582
15.6273 1664 40.7922
15.7445 1607 40.0874
15.8617 1630 40.3733
15.9789 1567 39.5854
16.0961 1568 39.598
16.2132 1565 39.5601
16.3304 1583 39.7869
16.4475 1498 38.704
16.5646 1632 40.398
16.6816 1628 40.3485
16.7986 1565 39.5601
16.9156 1566 39.5727
17.0326 1587 39.8372
17.1496 1605 40.0625
17.2665 1606 40.0749
17.3833 1598 39.975
17.5002 1563 39.5348
17.617 1518 38.9615
17.7338 1444 38
17.8505 1457 38.1707
17.9672 1505 38.7943
18.0839 1695 41.1704
18.2005 1693 41.1461
18.3171 1773 42.107
18.4337 1811 42.5558
18.5502 1751 41.845
18.6666 1694 41.1582
18.7831 1751 41.845
18.8994 1755 41.8927
19.0158 1663 40.7799
19.1321 1657 40.7063
19.2483 1602 40.025
19.3645 1584 39.7995
19.4806 1577 39.7115
19.5967 1551 39.3827
19.7128 1446 38.0263
19.8288 1108 33.2866
19.9447 453 21.2838
20.0606 0 1
20.1764 0 1
20.2922 0 1
20.4079 0 1
20.5236 0 1
20.6392 0 1
20.7548 0 1
20.8702 0 1
23.3078 0 1
23.4233 0 1
23.539 0 1
23.6547 0 1
23.7704 0 1
23.8862 0 1
24.0021 0 1
24.118 0 1
24.234 0 1
24.35 0 1
24.4661 1626 40.3237
24.5822 1622 40.2741
24.6984 1663 40.7799
24.8146 1684 41.0366
24.9309 1685 41.0488
25.0472 1653 40.6571
25.1636 1678 40.9634
25.28 1689 41.0974
25.3965 1711 41.3642
25.513 1631 40.3856
25.6296 1655 40.6817
25.7462 1720 41.4729
25.8628 1743 41.7493
25.9795 1685 41.0488
26.0962 1830 42.7785
26.213 1790 42.3084
26.3298 1743 41.7493
26.4466 1708 41.328
26.5635 1492 38.6264
26.6804 1413 37.5899
26.7973 1387 37.2424
26.9143 1530 39.1152
27.0313 1574 39.6737
27.1483 1667 40.8289
27.2653 1692 41.1339
27.3824 1648 40.5956
27.4996 1710 41.3521
27.6167 1645 40.5586
27.7339 1685 41.0488
27.8511 1698 41.2068
27.9683 1695 41.1704
28.0855 1689 41.0974
28.2028 1666 40.8167
28.3201 1613 40.1622
28.4374 1609 40.1123
28.5547 1581 39.7618
28.6721 1607 40.0874
28.7894 1590 39.8748
28.9068 1630 40.3733
29.0242 1703 41.2674
29.1416 1583 39.7869
29.259 1673 40.9023
29.3764 1601 40.0125
29.4939 1694 41.1582
29.6113 1630 40.3733
29.7288 1641 40.5093
29.8463 1594 39.9249
29.9638 1550 39.37
30.0812 1540 39.2428
30.1987 1452 38.1051
30.3162 1303 36.0971
30.4337 1365 36.9459
30.5512 1460 38.2099
30.6687 1561 39.5095
30.7862 1642 40.5216
30.9037 1605 40.0625
31.0212 1751 41.845
31.1387 1628 40.3485
31.2562 1655 40.6817
31.3737 1543 39.281
31.4912 1634 40.4228
31.6087 1702 41.2553
31.7262 1672 40.8901
31.8436 1631 40.3856
31.9611 1574 39.6737
32.0785 1594 39.9249
32.1959 1629 40.3609
32.3134 1616 40.1995
32.4308 1591 39.8873
32.5482 1607 40.0874
32.6655 1568 39.598
32.7829 1632 40.398
32.9002 1571 39.6358
33.0176 1619 40.2368
33.1349 1622 40.2741
33.2522 1566 39.5727
33.3694 1576 39.6989
33.4867 1644 40.5463
33.6039 1524 39.0384
33.7211 1449 38.0657
33.8383 1335 36.5377
33.9554 1247 35.3129
34.0725 1313 36.2353
34.1896 1397 37.3765
34.3067 1483 38.5097
34.4237 1551 39.3827
34.5407 1629 40.3609
34.6577 1690 41.1096
34.7746 1686 41.0609
34.8915 1590 39.8748
35.0084 1615 40.1871
35.1252 1567 39.5854
35.242 1525 39.0512
35.3587 1553 39.4081
35.4755 1633 40.4104
35.5921 1501 38.7427
35.7088 1570 39.6232
35.8254 1507 38.8201
35.9419 1535 39.1791
36.0584 1447 38.0395
36.1749 1501 38.7427
36.2913 1508 38.833
36.4077 1503 38.7685
36.524 1551 39.3827
36.6403 1522 39.0128
36.7565 1482 38.4968
36.8727 1586 39.8246
36.9889 1518 38.9615
37.1049 1514 38.9102
37.221 0 1
37.3369 0 1
37.4529 0 1
37.5687 0 1
37.6845 0 1
37.8003 0 1
37.916 0 1
38.0316 0 1
38.1472 0 1
40.5851 0 1
40.7008 0 1
40.8164 0 1
40.9322 0 1
41.048 0 1
41.1639 0 1
41.2798 0 1
41.3958 0 1
41.5118 0 1
41.6279 0 1
41.744 1186 34.4384
41.8602 1257 35.4542
41.9765 1253 35.3977
42.0928 1259 35.4824
42.2091 1213 34.8281
42.3255 1340 36.606
42.4419 1215 34.8569
42.5584 1097 33.121
42.675 989 31.4484
42.7915 970 31.1448
42.9081 990 31.4643
43.0248 1086 32.9545
43.1415 1164 34.1174
43.2582 1178 34.322
43.375 1190 34.4964
43.4918 1212 34.8138
43.6087 1197 34.5977
43.7256 1156 34
43.8425 1214 34.8425
43.9595 1165 34.1321
44.0765 1112 33.3467
44.1935 1089 33
44.3106 1058 32.5269
44.4277 1071 32.7261
44.5448 1051 32.4191
44.6619 993 31.5119
44.7791 974 31.209
44.8963 991 31.4802
45.0136 957 30.9354
45.1308 926 30.4302
45.2481 913 30.2159
45.3654 883 29.7153
45.4827 890 29.8329
45.6001 954 30.8869
45.7174 956 30.9192
45.8348 983 31.3528
45.9522 880 29.6648
46.0697 778 27.8927
46.1871 753 27.4408
46.3046 697 26.4008
46.422 744 27.2764
46.5395 775 27.8388
46.657 796 28.2135
46.7745 813 28.5132
46.892 838 28.9482
47.0096 857 29.2746
47.1271 863 29.3769
47.2446 884 29.7321
47.3622 850 29.1548
47.4797 792 28.1425
47.5973 840 28.9828
47.7149 765 27.6586
47.8324 822 28.6705
47.95 777 27.8747
48.0675 624 24.98
48.1851 699 26.4386
48.3027 684 26.1534
48.4202 721 26.8514
48.5378 728 26.9815
48.6554 686 26.1916
48.7729 647 25.4362
48.8904 651 25.5147
49.008 651 25.5147
49.1255 695 26.3629
49.243 730 27.0185
49.3605 714 26.7208
49.478 662 25.7294
49.5955 635 25.1992
49.713 561 23.6854
49.8304 560 23.6643
49.9479 629 25.0799
50.0653 648 25.4558
50.1827 678 26.0384
50.3001 724 26.9072
50.4175 812 28.4956
50.5348 852 29.189
50.6521 850 29.1548
50.7694 831 28.8271
50.8867 863 29.3769
51.004 895 29.9166
51.1212 953 30.8707
51.2384 968 31.1127
51.3556 926 30.4302
51.4727 959 30.9677
51.5899 1006 31.7175
51.707 966 31.0805
51.824 967 31.0966
51.9411 997 31.5753
52.0581 1047 32.3574
52.175 980 31.305
52.2919 1049 32.3883
52.4088 1073 32.7567
52.5257 1125 33.541
52.6425 1094 33.0757
52.7593 1204 34.6987
52.876 1153 33.9559
52.9927 1181 34.3657
53.1094 1072 32.7414
53.226 1014 31.8434
53.3426 927 30.4467
53.4591 902 30.0333
53.5756 978 31.273
53.692 1088 32.9848
53.8084 1214 34.8425
53.9248 1337 36.565
54.0411 1257 35.4542
54.1573 1361 36.8917
54.2735 0 1
54.3896 0 1
54.5057 0 1
54.6217 0 1
54.7377 0 1
54.8537 0 1
54.9695 0 1
55.0853 0 1
55.2011 0 1
55.3168 0 1
55.4324 0 1
57.824 0 1
57.9396 0 1
58.0553 0 1
58.1711 0 1
58.2869 0 1
58.4028 0 1
58.5187 0 1
58.6347 0 1
58.7508 0 1
58.8669 0 1
58.983 1348 36.7151
59.0992 1452 38.1051
59.2155 1537 39.2046
59.3318 1528 39.0896
59.4482 1578 39.724
59.5646 1597 39.9625
59.681 1554 39.4208
59.7975 1497 38.6911
59.9141 1513 38.8973
60.0306 1478 38.4448
60.1473 1450 38.0789
60.2639 1540 39.2428
60.3807 1360 36.8782
60.4974 1394 37.3363
60.6142 1421 37.6962
60.731 1356 36.8239
60.8479 1249 35.3412
60.9648 1340 36.606
61.0818 1345 36.6742
61.1987 1375 37.081
61.3158 1398 37.3898
61.4328 1380 37.1484
61.5499 1347 36.7015
61.667 1244 35.2704
61.7841 1223 34.9714
61.9013 1134 33.6749
62.0185 1101 33.1813
62.1357 1108 33.2866
62.253 1177 34.3074
62.3702 1370 37.0135
62.4875 1397 37.3765
62.6049 1463 38.2492
62.7222 1506 38.8072
62.8396 1518 38.9615
62.9569 1545 39.3065
63.0743 1546 39.3192
63.1918 1632 40.398
63.3092 1537 39.2046
63.4267 1562 39.5221
63.5441 1495 38.6652
63.6616 1502 38.7556
63.7791 1434 37.8682
63.8966 1453 38.1182
64.0142 1489 38.5876
64.1317 1392 37.3095
64.2492 1387 37.2424
64.3668 1484 38.5227
64.4843 1478 38.4448
64.6019 1464 38.2623
64.7195 1439 37.9342
64.837 1525 39.0512
64.9546 1537 39.2046
65.0722 1456 38.1576
65.1898 1376 37.0945
65.3074 1315 36.2629
65.4249 1212 34.8138
65.5425 1063 32.6037
65.6601 1131 33.6303
65.7777 1182 34.3802
65.8952 1297 36.0139
66.0128 1402 37.4433
66.1304 1463 38.2492
66.2479 1504 38.7814
66.3655 1557 39.4588
66.483 1562 39.5221
66.6005 1535 39.1791
66.718 1578 39.724
66.8355 1531 39.128
66.953 1571 39.6358
67.0705 1476 38.4187
67.1879 1393 37.3229
67.3054 1374 37.0675
67.4228 1415 37.6165
67.5402 1300 36.0555
67.6576 1293 35.9583
67.7749 1288 35.8887
67.8923 1286 35.8608
68.0096 1309 36.1801
68.1269 1328 36.4417
68.2442 1323 36.3731
68.3614 1269 35.623
68.4787 1369 37
68.5958 1329 36.4555
68.713 1304 36.1109
68.8302 1267 35.5949
68.9473 1130 33.6155
69.0643 1067 32.665
69.1814 1030 32.0936
69.2984 933 30.545
69.4154 1046 32.3419
69.5323 1183 34.3948
69.6492 1261 35.5106
69.7661 1377 37.108
69.8829 1397 37.3765
69.9997 1459 38.1969
70.1165 1480 38.4708
70.2332 1451 38.092
70.3499 1475 38.4057
70.4665 1557 39.4588
70.5831 1490 38.6005
70.6996 1386 37.229
70.8161 1455 38.1445
70.9326 1348 36.7151
71.049 1299 36.0416
71.1653 1263 35.5387
71.2817 1256 35.4401
71.3979 1234 35.1283
71.5141 1280 35.7771
71.6303 1219 34.9142
71.7464 1143 33.8083
71.8624 0 1
71.9784 0 1
72.0944 0 1
72.2102 0 1
72.3261 0 1
72.4418 0 1
72.5575 0 1
72.6732 0 1
75.1054 0 1
75.2209 0 1
75.3365 0 1
75.4521 0 1
75.5678 0 1
75.6835 0 1
75.7993 0 1
75.9151 0 1
76.031 0 1
76.147 1385 37.2156
76.263 1419 37.6696
76.3791 1390 37.2827
76.4952 1393 37.3229
76.6113 1326 36.4143
76.7276 1296 36
76.8438 1330 36.4692
76.9601 1345 36.6742
77.0765 1350 36.7423
77.1929 1363 36.9188
77.3093 1415 37.6165
77.4258 1499 38.7169
77.5423 1421 37.6962
77.6589 1420 37.6829
77.7755 1401 37.4299
77.8921 1208 34.7563
78.0088 1158 34.0294
78.1256 995 31.5436
78.2423 912 30.1993
78.3591 938 30.6268
78.4759 1012 31.8119
78.5928 1243 35.2562
78.7097 1320 36.3318
78.8266 1362 36.9053
78.9436 1481 38.4838
79.0606 1475 38.4057
79.1776 1439 37.9342
79.2946 1495 38.6652
79.4117 1450 38.0789
79.5288 1410 37.55
79.6459 1398 37.3898
79.7631 1371 37.027
79.8802 1346 36.6879
79.9974 1220 34.9285
80.1147 1217 34.8855
80.2319 1139 33.7491
80.3491 1219 34.9142
80.4664 1176 34.2929
80.5837 1241 35.2278
80.701 1210 34.7851
80.8183 1249 35.3412
80.9357 1263 35.5387
81.053 1290 35.9166
81.1704 1238 35.1852
81.2877 1161 34.0735
81.4051 1207 34.7419
81.5225 1056 32.4962
81.6399 1007 31.7333
81.7573 917 30.282
81.8747 897 29.95
81.9922 849 29.1376
82.1096 951 30.8383
82.227 1071 32.7261
82.3444 1113 33.3617
82.4619 1282 35.805
82.5793 1271 35.6511
82.6967 1271 35.6511
82.8142 1236 35.1568
82.9316 1325 36.4005
83.049 1239 35.1994
83.1664 1274 35.6931
83.2838 1214 34.8425
83.4012 1167 34.1614
83.5186 1131 33.6303
83.636 1056 32.4962
83.7534 981 31.3209
83.8708 993 31.5119
83.9881 988 31.4325
84.1055 1023 31.9844
84.2228 993 31.5119
84.3401 1075 32.7872
84.4575 1084 32.9242
84.5747 1141 33.7787
84.692 1089 33
84.8093 1096 33.1059
84.9265 1081 32.8786
85.0437 1048 32.3728
85.1609 931 30.5123
85.2781 895 29.9166
85.3952 852 29.189
85.5123 774 27.8209
85.6294 854 29.2233
85.7465 982 31.3369
85.8636 1106 33.2566
85.9806 1171 34.2199
86.0976 1260 35.4965
86.2145 1278 35.7491
86.3315 1392 37.3095
86.4484 1409 37.5366
86.5652 1390 37.2827
86.682 1427 37.7757
86.7988 1445 38.0132
86.9156 1304 36.1109
87.0323 1266 35.5809
87.149 1312 36.2215
87.2657 1265 35.5668
87.3823 1216 34.8712
87.4988 1163 34.1028
87.6154 1234 35.1283
87.7318 1268 35.609
87.8483 1310 36.1939
87.9647 1366 36.9594
88.081 1377 37.108
88.1973 1433 37.855
88.3136 1383 37.1887
88.4298 1399 37.4032
88.546 1360 36.8782
88.6621 1197 34.5977
88.7781 1085 32.9393
88.8942 0 1
89.0101 0 1
89.126 0 1
89.2419 0 1
89.3577 0 1
89.4734 0 1
89.5891 0 1
89.7047 0 1
89.8203 0 1
89.9358 0 1
92.3269 0 1
92.4424 0 1
92.558 0 1
92.6736 0 1
92.7893 0 1
92.905 0 1
93.0208 0 1
93.1366 0 1
93.2525 0 1
93.3685 0 1
93.4845 0 1
93.6005 1393 37.3229
93.7167 1427 37.7757
93.8328 1425 37.7492
93.949 1350 36.7423
94.0653 1226 35.0143
94.1816 1168 34.176
94.2979 1033 32.1403
94.4143 981 31.3209
94.5307 1116 33.4066
94.6472 989 31.4484
94.7637 1071 32.7261
94.8803 1150 33.9116
94.9969 1317 36.2905
95.1135 1423 37.7227
95.2302 1519 38.9744
95.3469 1499 38.7169
95.4637 1526 39.064
95.5805 1530 39.1152
95.6973 1593 39.9124
95.8142 1529 39.1024
95.9311 1559 39.4842
96.048 1456 38.1576
96.1649 1388 37.2559
96.2819 1373 37.054
96.3989 1380 37.1484
96.516 1337 36.565
96.633 1347 36.7015
96.7501 1303 36.0971
96.8673 1269 35.623
96.9844 1341 36.6197
97.1016 1356 36.8239
97.2188 1410 37.55
97.336 1483 38.5097
97.4532 1449 38.0657
97.5704 1419 37.6696
97.6877 1361 36.8917
97.805 1206 34.7275
97.9223 1158 34.0294
98.0396 1036 32.187
98.1569 993 31.5119
98.2743 1057 32.5115
98.3916 1072 32.7414
98.509 1112 33.3467
98.6264 1290 35.9166
98.7438 1425 37.7492
98.8612 1418 37.6563
98.9786 1568 39.598
99.096 1531 39.128
99.2134 1591 39.8873
99.3308 1567 39.5854
99.4482 1544 39.2938
99.5656 1573 39.6611
99.6831 1423 37.7227
99.8005 1516 38.9358
99.9179 1375 37.081
100.035 1364 36.9324
100.153 1359 36.8646
100.27 1295 35.9861
100.388 1289 35.9026
100.505 1398 37.3898
100.622 1447 38.0395
100.74 1385 37.2156
100.857 1514 38.9102
100.975 1425 37.7492
101.092 1533 39.1535
101.209 1393 37.3229
101.327 1384 37.2022
101.444 1279 35.7631
101.561 1180 34.3511
101.679 985 31.3847
101.796 998 31.5911
101.913 991 31.4802
102.03 1163 34.1028
102.148 1319 36.318
102.265 1435 37.8814
102.382 1578 39.724
102.499 1596 39.95
102.616 1639 40.4846
102.733 1698 41.2068
102.851 1696 41.1825
102.968 1658 40.7185
103.085 1638 40.4722
103.202 1612 40.1497
103.319 1601 40.0125
103.436 1478 38.4448
103.552 1506 38.8072
103.669 1417 37.6431
103.786 1411 37.5633
103.903 1372 37.0405
104.02 1459 38.1969
104.137 1458 38.1838
104.253 1517 38.9487
104.37 1567 39.5854
104.487 1557 39.4588
104.603 1544 39.2938
104.72 1550 39.37
104.836 1390 37.2827
104.953 1251 35.3695
105.069 1200 34.641
105.186 1157 34.0147
105.302 1096 33.1059
105.418 1185 34.4238
105.535 1332 36.4966
105.651 1531 39.128
105.767 1579 39.7366
105.883 1766 42.0238
105.999 1788 42.2847
106.115 0 1
106.231 0 1
106.347 0 1
106.463 0 1
106.579 0 1
106.694 0 1
106.81 0 1
106.926 0 1
107.041 0 1
107.157 0 1
109.576 0 1
109.692 0 1
109.807 0 1
109.923 0 1
110.039 0 1
110.155 0 1
110.27 0 1
110.386 0 1
110.502 0 1
110.618 1308 36.1663
110.735 1489 38.5876
110.851 1616 40.1995
110.967 1693 41.1461
111.083 1652 40.6448
111.199 1646 40.5709
111.316 1700 41.2311
111.432 1783 42.2256
111.549 1757 41.9166
111.665 1768 42.0476
111.782 1636 40.4475
111.898 1579 39.7366
112.015 1617 40.2119
112.132 1444 38
112.248 1426 37.7624
112.365 1400 37.4166
112.482 1339 36.5923
112.599 1368 36.9865
112.716 1413 37.5899
112.832 1459 38.1969
112.949 1461 38.223
113.066 1514 38.9102
113.183 1513 38.8973
113.3 1422 37.7094
113.417 1273 35.6791
113.534 1264 35.5528
113.652 1075 32.7872
113.769 1092 33.0454
113.886 1071 32.7261
114.003 1150 33.9116
114.12 1233 35.1141
114.238 1431 37.8286
114.355 1489 38.5876
114.472 1542 39.2683
114.589 1597 39.9625
114.707 1616 40.1995
114.824 1667 40.8289
114.942 1728 41.5692
115.059 1735 41.6533
115.176 1613 40.1622
115.294 1616 40.1995
115.411 1594 39.9249
115.529 1556 39.4462
115.646 1507 38.8201
115.764 1487 38.5616
115.881 1474 38.3927
115.999 1407 37.51
116.116 1423 37.7227
116.234 1473 38.3797
116.351 1473 38.3797
116.469 1539 39.2301
116.586 1478 38.4448
116.704 1524 39.0384
116.821 1489 38.5876
116.939 1399 37.4032
117.056 1274 35.6931
117.174 1147 33.8674
117.291 1177 34.3074
117.409 1171 34.2199
117.526 1177 34.3074
117.644 1251 35.3695
117.761 1382 37.1753
117.879 1500 38.7298
117.996 1542 39.2683
118.114 1625 40.3113
118.231 1745 41.7732
118.349 1696 41.1825
118.466 1726 41.5452
118.584 1793 42.3438
118.701 1786 42.2611
118.819 1688 41.0853
118.936 1665 40.8044
119.053 1642 40.5216
119.171 1553 39.4081
119.288 1513 38.8973
119.405 1488 38.5746
119.523 1471 38.3536
119.64 1377 37.108
119.757 1479 38.4578
119.875 1470 38.3406
119.992 1506 38.8072
120.109 1503 38.7685
120.226 1471 38.3536
120.343 1540 39.2428
120.46 1515 38.923
120.578 1420 37.6829
120.695 1292 35.9444
120.812 1275 35.7071
120.929 1237 35.171
121.046 1201 34.6554
121.163 1148 33.8821
121.279 1258 35.4683
121.396 1370 37.0135
121.513 1460 38.2099
121.63 1581 39.7618
121.747 1500 38.7298
121.863 1676 40.939
121.98 1636 40.4475
122.097 1671 40.8779
122.213 1704 41.2795
122.33 1693 41.1461
122.446 1629 40.3609
122.563 1679 40.9756
122.679 1551 39.3827
122.795 1525 39.0512
122.912 1531 39.128
123.028 1475 38.4057
123.144 1420 37.6829
123.26 1407 37.51
123.377 0 1
123.493 0 1
123.609 0 1
123.725 0 1
123.84 0 1
123.956 0 1
124.072 0 1
124.188 0 1
124.303 0 1
124.419 0 1
126.852 0 1
126.968 0 1
127.083 0 1
127.199 0 1
127.315 0 1
127.431 0 1
127.547 0 1
127.663 0 1
127.779 0 1
127.895 0 1
128.011 0 1
128.127 0 1
128.243 0 1
128.359 1562 39.5221
128.476 1506 38.8072
128.592 1515 38.923
128.708 1563 39.5348
128.825 1598 39.975
128.941 1622 40.2741
129.058 1694 41.1582
129.174 1629 40.3609
129.291 1646 40.5709
129.408 1601 40.0125
129.524 1521 39
129.641 1522 39.0128
129.758 1359 36.8646
129.875 1371 37.027
129.992 1370 37.0135
130.108 1314 36.2491
130.225 1390 37.2827
130.342 1546 39.3192
130.459 1529 39.1024
130.576 1757 41.9166
130.693 1786 42.2611
130.81 1756 41.9047
130.928 1786 42.2611
131.045 1802 42.45
131.162 1821 42.6732
131.279 1813 42.5793
131.396 1893 43.5086
131.513 1829 42.7668
131.631 1827 42.7434
131.748 1739 41.7013
131.865 1651 40.6325
131.983 1586 39.8246
132.1 1548 39.3446
132.217 1644 40.5463
132.335 1620 40.2492
132.452 1745 41.7732
132.57 1723 41.509
132.687 1679 40.9756
132.804 1742 41.7373
132.922 1647 40.5832
133.039 1639 40.4846
133.157 1545 39.3065
133.274 1431 37.8286
133.392 1439 37.9342
133.509 1377 37.108
133.627 1321 36.3456
133.744 1360 36.8782
133.862 1513 38.8973
133.979 1590 39.8748
134.097 1635 40.4351
134.214 1719 41.4608
134.332 1716 41.4246
134.449 1834 42.8252
134.567 1805 42.4853
134.684 1857 43.0929
134.802 1846 42.9651
134.919 1819 42.6497
135.037 1785 42.2493
135.154 1779 42.1782
135.272 1723 41.509
135.389 1689 41.0974
135.507 1684 41.0366
135.624 1558 39.4715
135.742 1604 40.05
135.859 1612 40.1497
135.977 1703 41.2674
136.094 1687 41.0731
136.211 1755 41.8927
136.329 1714 41.4005
136.446 1704 41.2795
136.564 1651 40.6325
136.681 1568 39.598
136.798 1619 40.2368
136.915 1487 38.5616
137.033 1370 37.0135
137.15 1419 37.6696
137.267 1398 37.3898
137.384 1399 37.4032
137.502 1540 39.2428
137.619 1603 40.0375
137.736 1534 39.1663
137.853 1722 41.497
137.97 1746 41.7852
138.087 1692 41.1339
138.204 1787 42.2729
138.321 1779 42.1782
138.438 1847 42.9767
138.555 1825 42.72
138.672 1775 42.1307
138.788 1825 42.72
138.905 1807 42.5088
139.022 1709 41.3401
139.139 1605 40.0625
139.255 1588 39.8497
139.372 1589 39.8623
139.488 1580 39.7492
139.605 1709 41.3401
139.721 1701 41.2432
139.838 1686 41.0609
139.954 1712 41.3763
140.071 1695 41.1704
140.187 1658 40.7185
140.303 1636 40.4475
140.419 1507 38.8201
140.535 1420 37.6829
140.652 1349 36.7287
140.768 0 1
140.884 0 1
141 0 1
141.115 0 1
141.231 0 1
141.347 0 1
141.463 0 1
141.578 0 1
141.694 0 1
144.104 0 1
144.219 0 1
144.335 0 1
144.45 0 1
144.566 0 1
144.682 0 1
144.798 0 1
144.914 0 1
145.03 0 1
145.146 1197 34.5977
145.262 1264 35.5528
145.378 1331 36.4829
145.494 1174 34.2637
145.61 1192 34.5254
145.726 1110 33.3167
145.842 1175 34.2783
145.959 1084 32.9242
146.075 1096 33.1059
146.192 1173 34.2491
146.308 1211 34.7994
146.425 1277 35.7351
146.541 1370 37.0135
146.658 1300 36.0555
146.774 1352 36.7696
146.891 1328 36.4417
147.008 1379 37.1349
147.125 1320 36.3318
147.241 1394 37.3363
147.358 1426 37.7624
147.475 1416 37.6298
147.592 1385 37.2156
147.709 1388 37.2559
147.826 1387 37.2424
147.943 1294 35.9722
148.06 1220 34.9285
148.177 1214 34.8425
148.294 1237 35.171
148.411 1314 36.2491
148.528 1310 36.1939
148.645 1358 36.8511
148.762 1387 37.2424
148.88 1302 36.0832
148.997 1358 36.8511
149.114 1349 36.7287
149.231 1306 36.1386
149.349 1336 36.5513
149.466 1282 35.805
149.583 1186 34.4384
149.701 1133 33.6601
149.818 1207 34.7419
149.935 1131 33.6303
150.053 1256 35.4401
150.17 1264 35.5528
150.287 1320 36.3318
150.405 1260 35.4965
150.522 1294 35.9722
150.64 1368 36.9865
150.757 1433 37.855
150.875 1454 38.1314
150.992 1437 37.9078
151.11 1534 39.1663
151.227 1543 39.281
151.344 1425 37.7492
151.462 1406 37.4967
151.579 1450 38.0789
151.697 1307 36.1525
151.814 1294 35.9722
151.932 1273 35.6791
152.049 1341 36.6197
152.167 1358 36.8511
152.284 1443 37.9868
152.402 1445 38.0132
152.519 1549 39.3573
152.636 1392 37.3095
152.754 1443 37.9868
152.871 1354 36.7967
152.989 1318 36.3043
153.106 1267 35.5949
153.223 1282 35.805
153.341 1236 35.1568
153.458 1193 34.5398
153.575 1237 35.171
153.693 1273 35.6791
153.81 1332 36.4966
153.927 1392 37.3095
154.044 1423 37.7227
154.162 1452 38.1051
154.279 1499 38.7169
154.396 1493 38.6394
154.513 1528 39.0896
154.63 1598 39.975
154.747 1576 39.6989
154.864 1528 39.0896
154.981 1525 39.0512
155.098 1519 38.9744
155.215 1539 39.2301
155.332 1432 37.8418
155.449 1410 37.55
155.566 1436 37.8946
155.683 1504 38.7814
155.8 1523 39.0256
155.917 1579 39.7366
156.033 1533 39.1535
156.15 0 1
156.267 0 1
156.383 0 1
156.5 0 1
156.617 0 1
156.733 0 1
156.85 0 1
156.966 0 1
157.082 0 1
157.199 0 1
157.315 0 1
157.431 0 1
157.547 0 1
157.664 0 1
157.78 0 1
157.896 0 1
158.012 0 1
158.128 0 1
158.244 0 1
158.359 0 1
158.475 0 1
158.591 0 1
158.706 0 1
