
6.15755 0 1
6.2731 0 1
6.3887 0 1
6.50437 0 1
6.62009 0 1
6.73587 0 1
6.8517 0 1
6.96759 0 1
7.08353 0 1
7.19952 0 1
7.31557 0 1
7.43166 0 1
7.54781 0 1
7.664 0 1
7.78024 0 1
7.89653 0 1
8.01286 0 1
8.12924 0 1
8.24567 0 1
8.36213 0 1
8.47864 0 1
8.59519 0 1
8.71178 0 1
8.82841 0 1
8.94508 0 1
9.06179 0 1
9.17853 0 1
9.29531 0 1
9.41212 0 1
9.52897 0 1
9.64584 0 1
9.76276 0 1
9.8797 0 1
9.99667 0 1
10.1137 0 1
10.2307 0 1
10.3478 0 1
10.4648 0 1
10.5819 0 1
10.6991 0 1
10.8162 0 1
10.9334 0 1
11.0506 0 1
11.1678 0 1
11.285 0 1
11.4023 0 1
11.5196 0 1
11.6369 0 1
11.7542 0 1
11.8715 0 1
11.9888 0 1
12.1062 0 1
12.2235 0 1
12.3409 0 1
12.4582 0 1
12.5756 0 1
12.693 0 1
12.8104 0 1
12.9278 0 1
13.0452 0 1
13.1626 0 1
13.28 0 1
13.3974 0 1
13.5149 0 1
13.6323 0 1
13.7497 0 1
13.8671 0 1
13.9845 0 1
14.1019 0 1
14.2193 0 1
14.3367 0 1
14.4541 0 1
14.5714 0 1
14.6888 0 1
14.8062 0 1
14.9235 0 1
15.0408 3423 58.5064
15.1581 3269 57.1752
15.2755 3486 59.0424
15.3927 3312 57.55
15.51 3414 58.4294
15.6273 3250 57.0088
15.7445 3323 57.6455
15.8617 3217 56.7186
15.9789 3343 57.8187
16.0961 3529 59.4054
16.2132 3705 60.8687
16.3304 3777 61.4573
16.4475 3698 60.8112
16.5646 3953 62.8729
16.6816 3973 63.0317
16.7986 4008 63.3088
16.9156 3858 62.1128
17.0326 3817 61.7819
17.1496 3941 62.7774
17.2665 3882 62.3057
17.3833 3801 61.6523
17.5002 3727 61.0492
17.617 3856 62.0967
17.7338 3938 62.7535
17.8505 4041 63.5689
17.9672 4084 63.9062
18.0839 4168 64.56
18.2005 4168 64.56
18.3171 4223 64.9846
18.4337 4387 66.2344
18.5502 4564 67.5574
18.6666 4406 66.3777
18.7831 4611 67.9043
18.8994 4431 66.5658
19.0158 4466 66.8281
19.1321 4279 65.4141
19.2483 3990 63.1664
19.3645 4195 64.7688
19.4806 3966 62.9762
19.5967 4231 65.0461
19.7128 4419 66.4756
19.8288 4507 67.1342
19.9447 4051 63.6475
20.0606 0 1
20.1764 0 1
20.2922 0 1
20.4079 0 1
20.5236 0 1
20.6392 0 1
20.7548 0 1
20.8702 0 1
23.3078 0 1
23.4233 0 1
23.539 0 1
23.6547 0 1
23.7704 0 1
23.8862 0 1
24.0021 0 1
24.118 0 1
24.234 0 1
24.35 0 1
24.4661 4192 64.7457
24.5822 4058 63.7024
24.6984 4243 65.1383
24.8146 4387 66.2344
24.9309 4518 67.2161
25.0472 4589 67.7422
25.1636 4744 68.8767
25.28 4887 69.9071
25.3965 4723 68.7241
25.513 4777 69.1158
25.6296 4662 68.2788
25.7462 4708 68.6149
25.8628 4611 67.9043
25.9795 4673 68.3593
26.0962 4647 68.1689
26.213 4697 68.5347
26.3298 4776 69.1086
26.4466 4970 70.4982
26.5635 4944 70.3136
26.6804 5069 71.1969
26.7973 5191 72.0486
26.9143 5310 72.8697
27.0313 5350 73.1437
27.1483 5404 73.5119
27.2653 5405 73.5187
27.3824 5456 73.8647
27.4996 5381 73.3553
27.6167 5220 72.2496
27.7339 5043 71.0141
27.8511 4991 70.647
27.9683 4758 68.9783
28.0855 4610 67.897
28.2028 4542 67.3944
28.3201 4587 67.7274
28.4374 4701 68.5638
28.5547 4903 70.0214
28.6721 5061 71.1407
28.7894 5216 72.2219
28.9068 5109 71.4773
29.0242 4798 69.2676
29.1416 4962 70.4415
29.259 4675 68.374
29.3764 4610 67.897
29.4939 4563 67.55
29.6113 4617 67.9485
29.7288 4501 67.0895
29.8463 4722 68.7168
29.9638 4792 69.2243
30.0812 4903 70.0214
30.1987 5104 71.4423
30.3162 5063 71.1548
30.4337 5267 72.5741
30.5512 5301 72.808
30.6687 5440 73.7564
30.7862 5599 74.8265
30.9037 5486 74.0675
31.0212 5523 74.3169
31.1387 5407 73.5323
31.2562 5375 73.3144
31.3737 5280 72.6636
31.4912 4998 70.6965
31.6087 4963 70.4486
31.7262 4731 68.7823
31.8436 4856 69.685
31.9611 4892 69.9428
32.0785 4979 70.562
32.1959 5204 72.1388
32.3134 5263 72.5465
32.4308 5263 72.5465
32.5482 5273 72.6154
32.6655 5120 71.5542
32.7829 4824 69.455
32.9002 4870 69.7854
33.0176 4849 69.6348
33.1349 4658 68.2495
33.2522 4582 67.6905
33.3694 4707 68.6076
33.4867 4978 70.5549
33.6039 5151 71.7705
33.7211 5107 71.4633
33.8383 5252 72.4707
33.9554 5283 72.6842
34.0725 5406 73.5255
34.1896 5552 74.5117
34.3067 5644 75.1266
34.4237 5545 74.4648
34.5407 5592 74.7797
34.6577 5661 75.2396
34.7746 5537 74.411
34.8915 5433 73.7089
35.0084 5185 72.0069
35.1252 5268 72.581
35.242 4921 70.1498
35.3587 5013 70.8025
35.4755 4974 70.5266
35.5921 4907 70.05
35.7088 5021 70.859
35.8254 5097 71.3933
35.9419 5332 73.0205
36.0584 5519 74.29
36.1749 5457 73.8715
36.2913 5244 72.4155
36.4077 5343 73.0958
36.524 4904 70.0286
36.6403 4755 68.9565
36.7565 4673 68.3593
36.8727 4687 68.4617
36.9889 4630 68.0441
37.1049 4744 68.8767
37.221 0 1
37.3369 0 1
37.4529 0 1
37.5687 0 1
37.6845 0 1
37.8003 0 1
37.916 0 1
38.0316 0 1
38.1472 0 1
40.5851 0 1
40.7008 0 1
40.8164 0 1
40.9322 0 1
41.048 0 1
41.1639 0 1
41.2798 0 1
41.3958 0 1
41.5118 0 1
41.6279 0 1
41.744 3987 63.1427
41.8602 4046 63.6082
41.9765 3906 62.498
42.0928 4177 64.6297
42.2091 4196 64.7765
42.3255 4297 65.5515
42.4419 4537 67.3573
42.5584 4767 69.0435
42.675 4890 69.9285
42.7915 4913 70.0928
42.9081 5043 71.0141
43.0248 4940 70.2851
43.1415 5121 71.5612
43.2582 5173 71.9236
43.375 5223 72.2703
43.4918 5128 71.6101
43.6087 5107 71.4633
43.7256 4831 69.5054
43.8425 4864 69.7424
43.9595 4624 68
44.0765 4484 66.9627
44.1935 4283 65.4446
44.3106 4283 65.4446
44.4277 4355 65.9924
44.5448 4297 65.5515
44.6619 4556 67.4981
44.7791 4405 66.3702
44.8963 4507 67.1342
45.0136 4296 65.5439
45.1308 4076 63.8436
45.2481 3957 62.9047
45.3654 3828 61.8708
45.4827 3530 59.4138
45.6001 3682 60.6795
45.7174 3474 58.9406
45.8348 3583 59.8582
45.9522 3686 60.7124
46.0697 3965 62.9682
46.1871 3984 63.1189
46.3046 4207 64.8614
46.422 4260 65.2687
46.5395 4325 65.7647
46.657 4337 65.8559
46.7745 4374 66.1362
46.892 4295 65.5362
47.0096 4441 66.6408
47.1271 4308 65.6354
47.2446 4202 64.8228
47.3622 4075 63.8357
47.4797 4024 63.435
47.5973 3832 61.9032
47.7149 3737 61.131
47.8324 3703 60.8523
47.95 3589 59.9083
48.0675 3603 60.025
48.1851 3727 61.0492
48.3027 3773 61.4248
48.4202 3815 61.7657
48.5378 3575 59.7913
48.6554 3504 59.1946
48.7729 3260 57.0964
48.8904 3168 56.285
49.008 2991 54.69
49.1255 2922 54.0555
49.243 2888 53.7401
49.3605 3077 55.4707
49.478 3184 56.4269
49.5955 3363 57.9914
49.713 3587 59.8916
49.8304 3785 61.5224
49.9479 3746 61.2046
50.0653 3898 62.434
50.1827 3998 63.2297
50.3001 4223 64.9846
50.4175 4157 64.4748
50.5348 4237 65.0922
50.6521 4271 65.3529
50.7694 4177 64.6297
50.8867 4057 63.6946
51.004 4092 63.9687
51.1212 4081 63.8827
51.2384 3960 62.9285
51.3556 3929 62.6817
51.4727 4075 63.8357
51.5899 4140 64.3428
51.707 4317 65.7039
51.824 4537 67.3573
51.9411 4734 68.8041
52.0581 4527 67.283
52.175 4605 67.8602
52.2919 4306 65.6201
52.4088 4263 65.2917
52.5257 3982 63.1031
52.6425 3967 62.9841
52.7593 4216 64.9307
52.876 4197 64.7843
52.9927 4270 65.3452
53.1094 4630 68.0441
53.226 4969 70.4911
53.3426 5338 73.0616
53.4591 5530 74.364
53.5756 5624 74.9933
53.692 5794 76.1183
53.8084 6041 77.7239
53.9248 6069 77.9038
54.0411 6224 78.8923
54.1573 6208 78.7909
54.2735 0 1
54.3896 0 1
54.5057 0 1
54.6217 0 1
54.7377 0 1
54.8537 0 1
54.9695 0 1
55.0853 0 1
55.2011 0 1
55.3168 0 1
55.4324 0 1
57.824 0 1
57.9396 0 1
58.0553 0 1
58.1711 0 1
58.2869 0 1
58.4028 0 1
58.5187 0 1
58.6347 0 1
58.7508 0 1
58.8669 0 1
58.983 7045 83.9345
59.0992 7216 84.947
59.2155 7364 85.8138
59.3318 7411 86.0872
59.4482 7232 85.0412
59.5646 7331 85.6213
59.681 7170 84.6759
59.7975 7108 84.309
59.9141 7104 84.2852
60.0306 6887 82.988
60.1473 6925 83.2166
60.2639 6943 83.3247
60.3807 6862 82.8372
60.4974 6822 82.5954
60.6142 6849 82.7587
60.731 6399 79.9937
60.8479 6289 79.3032
60.9648 5990 77.3951
61.0818 5646 75.1399
61.1987 5503 74.1822
61.3158 5272 72.6085
61.4328 5371 73.2871
61.5499 5569 74.6257
61.667 5875 76.6485
61.7841 6120 78.2304
61.9013 6370 79.8123
62.0185 6746 82.134
62.1357 7066 84.0595
62.253 7098 84.2496
62.3702 7315 85.5278
62.4875 7237 85.0706
62.6049 7195 84.8233
62.7222 7218 84.9588
62.8396 7106 84.2971
62.9569 7279 85.3171
63.0743 7077 84.1249
63.1918 7045 83.9345
63.3092 6871 82.8915
63.4267 6587 81.1603
63.5441 6629 81.4187
63.6616 6463 80.3928
63.7791 6592 81.1911
63.8966 6631 81.431
64.0142 6532 80.8208
64.1317 6519 80.7403
64.2492 6225 78.8987
64.3668 6091 78.0449
64.4843 5716 75.6042
64.6019 5435 73.7225
64.7195 5094 71.3723
64.837 4962 70.4415
64.9546 4946 70.3278
65.0722 5303 72.8217
65.1898 5462 73.9053
65.3074 5875 76.6485
65.4249 6123 78.2496
65.5425 6406 80.0375
65.6601 6788 82.3893
65.7777 6941 83.3127
65.8952 7070 84.0833
66.0128 7269 85.2584
66.1304 7120 84.3801
66.2479 7260 85.2056
66.3655 7101 84.2674
66.483 7242 85.0999
66.6005 6990 83.6062
66.718 7135 84.4689
66.8355 7104 84.2852
66.953 6886 82.9819
67.0705 6740 82.0975
67.1879 6706 81.8902
67.3054 6703 81.8719
67.4228 6765 82.2496
67.5402 6822 82.5954
67.6576 7080 84.1427
67.7749 6854 82.7889
67.8923 6738 82.0853
68.0096 6423 80.1436
68.1269 6019 77.5822
68.2442 5676 75.3392
68.3614 5367 73.2598
68.4787 5277 72.643
68.5958 5230 72.3187
68.713 5496 74.135
68.8302 5764 75.921
68.9473 6395 79.9687
69.0643 6660 81.6088
69.1814 7113 84.3386
69.2984 7542 86.8447
69.4154 7765 88.1192
69.5323 8166 90.3659
69.6492 8442 91.8804
69.7661 8410 91.7061
69.8829 8487 92.1249
69.9997 8448 91.913
70.1165 8457 91.9619
70.2332 8658 93.0484
70.3499 8356 91.4112
70.4665 8338 91.3126
70.5831 8201 90.5594
70.6996 8168 90.377
70.8161 8213 90.6256
70.9326 8033 89.627
71.049 7984 89.3532
71.1653 8305 91.1318
71.2817 8242 90.7855
71.3979 8206 90.587
71.5141 7801 88.3233
71.6303 7224 84.9941
71.7464 6172 78.5621
71.8624 0 1
71.9784 0 1
72.0944 0 1
72.2102 0 1
72.3261 0 1
72.4418 0 1
72.5575 0 1
72.6732 0 1
75.1054 0 1
75.2209 0 1
75.3365 0 1
75.4521 0 1
75.5678 0 1
75.6835 0 1
75.7993 0 1
75.9151 0 1
76.031 0 1
76.147 8019 89.5489
76.263 8686 93.1987
76.3791 8763 93.6109
76.4952 9301 96.4417
76.6113 9412 97.0155
76.7276 9289 96.3795
76.8438 9033 95.0421
76.9601 8534 92.3797
77.0765 7812 88.3855
77.1929 7220 84.9706
77.3093 6709 81.9085
77.4258 6476 80.4736
77.5423 6287 79.2906
77.6589 6341 79.6304
77.7755 6886 82.9819
77.8921 7753 88.0511
78.0088 8449 91.9184
78.1256 9003 94.8841
78.2423 9451 97.2163
78.3591 10110 100.548
78.4759 10026 100.13
78.5928 10250 101.242
78.7097 10292 101.449
78.8266 9889 99.4435
78.9436 10585 102.883
79.0606 10079 100.394
79.1776 10067 100.334
79.2946 9916 99.5791
79.4117 9857 99.2824
79.5288 9485 97.391
79.6459 9613 98.0459
79.7631 9437 97.1442
79.8802 9368 96.7884
79.9974 9334 96.6126
80.1147 9461 97.2677
80.2319 9739 98.6864
80.3491 9725 98.6154
80.4664 9491 97.4218
80.5837 9012 94.9316
80.701 8234 90.7414
80.8183 7610 87.2353
80.9357 6884 82.9699
81.053 6462 80.3866
81.1704 6112 78.1793
81.2877 6165 78.5175
81.4051 6469 80.4301
81.5225 7101 84.2674
81.6399 7939 89.1011
81.7573 8675 93.1397
81.8747 9073 95.2523
81.9922 9644 98.2039
82.1096 9926 99.6293
82.227 9978 99.8899
82.3444 10105 100.524
82.4619 9991 99.955
82.5793 10126 100.628
82.6967 9766 98.8231
82.8142 9603 97.9949
82.9316 9689 98.4327
83.049 9548 97.7139
83.1664 9371 96.8039
83.2838 9302 96.4469
83.4012 9023 94.9895
83.5186 8887 94.2709
83.636 8855 94.101
83.7534 9051 95.1367
83.8708 9059 95.1788
83.9881 9319 96.535
84.1055 9021 94.9789
84.2228 8536 92.3905
84.3401 7811 88.3799
84.4575 7436 86.2322
84.5747 6832 82.6559
84.692 6191 78.6829
84.8093 5968 77.2528
84.9265 6159 78.4793
85.0437 6481 80.5047
85.1609 7375 85.8778
85.2781 8227 90.7028
85.3952 8945 94.578
85.5123 9688 98.4276
85.6294 9949 99.7447
85.7465 10511 102.523
85.8636 10799 103.918
85.9806 10936 104.575
86.0976 10994 104.852
86.2145 11382 106.686
86.3315 11838 108.803
86.4484 11015 104.952
86.5652 11390 106.724
86.682 11443 106.972
86.7988 11384 106.696
86.9156 11426 106.892
87.0323 11166 105.669
87.149 11306 106.33
87.2657 11403 106.785
87.3823 11509 107.28
87.4988 11683 108.088
87.6154 12157 110.259
87.7318 11819 108.715
87.8483 11228 105.962
87.9647 10254 101.262
88.081 9249 96.1717
88.1973 8462 91.9891
88.3136 8177 90.4268
88.4298 7903 88.8988
88.546 8310 91.1592
88.6621 9047 95.1157
88.7781 9985 99.925
88.8942 0 1
89.0101 0 1
89.126 0 1
89.2419 0 1
89.3577 0 1
89.4734 0 1
89.5891 0 1
89.7047 0 1
89.8203 0 1
89.9358 0 1
92.3269 0 1
92.4424 0 1
92.558 0 1
92.6736 0 1
92.7893 0 1
92.905 0 1
93.0208 0 1
93.1366 0 1
93.2525 0 1
93.3685 0 1
93.4845 0 1
93.6005 8880 94.2338
93.7167 8881 94.2391
93.8328 8949 94.5992
93.949 9252 96.1873
94.0653 9992 99.96
94.1816 10886 104.336
94.2979 12021 109.64
94.4143 12862 113.411
94.5307 13479 116.099
94.6472 14170 119.038
94.7637 14350 119.791
94.8803 14770 121.532
94.9969 14500 120.416
95.1135 14688 121.194
95.2302 14958 122.303
95.3469 14851 121.865
95.4637 14815 121.717
95.5805 14731 121.371
95.6973 14920 122.147
95.8142 14788 121.606
95.9311 14553 120.636
96.048 14169 119.034
96.1649 14126 118.853
96.2819 14119 118.823
96.3989 14251 119.378
96.516 14450 120.208
96.633 14246 119.357
96.7501 14540 120.582
96.8673 14001 118.326
96.9844 12968 113.877
97.1016 11951 109.321
97.2188 10973 104.752
97.336 10119 100.593
97.4532 9477 97.3499
97.5704 9154 95.6765
97.6877 9385 96.8762
97.805 10266 101.321
97.9223 11366 106.611
98.0396 12153 110.241
98.1569 13187 114.835
98.2743 13989 118.275
98.3916 14619 120.909
98.509 14982 122.401
98.6264 15181 123.211
98.7438 15153 123.098
98.8612 15188 123.24
98.9786 15181 123.211
99.096 15109 122.919
99.2134 14890 122.025
99.3308 15178 123.199
99.4482 15345 123.875
99.5656 15168 123.158
99.6831 15055 122.699
99.8005 14841 121.824
99.9179 14520 120.499
100.035 14665 121.099
100.153 15133 123.016
100.27 15286 123.637
100.388 15132 123.012
100.505 14346 119.775
100.622 13339 115.495
100.74 12385 111.288
100.857 11216 105.906
100.975 10066 100.329
101.092 9667 98.3209
101.209 9619 98.0765
101.327 10039 100.195
101.444 10987 104.819
101.561 12334 111.059
101.679 13061 114.285
101.796 14269 119.453
101.913 14929 122.184
102.03 15255 123.511
102.148 15760 125.539
102.265 15497 124.487
102.382 16286 127.617
102.499 15941 126.258
102.616 15873 125.988
102.733 15589 124.856
102.851 15361 123.94
102.968 15894 126.071
103.085 15800 125.698
103.202 15547 124.688
103.319 15266 123.556
103.436 15274 123.588
103.552 15344 123.871
103.669 15512 124.547
103.786 15884 126.032
103.903 15630 125.02
104.02 15108 122.915
104.137 14175 119.059
104.253 13288 115.274
104.37 12289 110.856
104.487 10997 104.867
104.603 10632 103.112
104.72 10259 101.287
104.836 10692 103.402
104.953 11595 107.68
105.069 12861 113.406
105.186 13951 118.114
105.302 15150 123.085
105.418 16024 126.586
105.535 16572 128.732
105.651 16866 129.869
105.767 17173 131.046
105.883 16935 130.135
105.999 17124 130.859
106.115 0 1
106.231 0 1
106.347 0 1
106.463 0 1
106.579 0 1
106.694 0 1
106.81 0 1
106.926 0 1
107.041 0 1
107.157 0 1
109.576 0 1
109.692 0 1
109.807 0 1
109.923 0 1
110.039 0 1
110.155 0 1
110.27 0 1
110.386 0 1
110.502 0 1
110.618 14923 122.16
110.735 15168 123.158
110.851 15571 124.784
110.967 15706 125.324
111.083 15632 125.028
111.199 15546 124.684
111.316 15594 124.876
111.432 15887 126.044
111.549 15476 124.403
111.665 15420 124.177
111.782 15201 123.292
111.898 14884 122
112.015 14931 122.192
112.132 15304 123.709
112.248 15397 124.085
112.365 15309 123.73
112.482 13863 117.741
112.599 13847 117.673
112.716 12873 113.459
112.832 11740 108.351
112.949 10972 104.747
113.066 10204 101.015
113.183 10126 100.628
113.3 10156 100.777
113.417 10529 102.611
113.534 11425 106.888
113.652 12075 109.886
113.769 12942 113.763
113.886 14022 118.415
114.003 14150 118.954
114.12 14646 121.021
114.238 14905 122.086
114.355 15033 122.609
114.472 14837 121.807
114.589 14845 121.84
114.707 14304 119.599
114.824 14238 119.323
114.942 14605 120.851
115.059 15005 122.495
115.176 14724 121.342
115.294 14705 121.264
115.411 14229 119.285
115.529 14360 119.833
115.646 14432 120.133
115.764 14816 121.721
115.881 14692 121.211
115.999 14387 119.946
116.116 13908 117.932
116.234 12752 112.925
116.351 12255 110.702
116.469 11397 106.757
116.586 10392 101.941
116.704 9924 99.6193
116.821 9867 99.3328
116.939 10083 100.414
117.056 10600 102.956
117.174 11257 106.099
117.291 12005 109.567
117.409 13071 114.328
117.526 13733 117.188
117.644 14030 118.448
117.761 14121 118.832
117.879 14585 120.768
117.996 14487 120.362
118.114 14407 120.029
118.231 14467 120.279
118.349 14321 119.67
118.466 13897 117.886
118.584 14315 119.645
118.701 14550 120.623
118.819 14199 119.16
118.936 14111 118.79
119.053 13883 117.826
119.171 13465 116.039
119.288 13925 118.004
119.405 14079 118.655
119.523 14220 119.248
119.64 13737 117.205
119.757 13425 115.866
119.875 12852 113.367
119.992 12197 110.44
120.109 11489 107.187
120.226 10679 103.339
120.343 10138 100.688
120.46 9825 99.1211
120.578 9642 98.1937
120.695 10025 100.125
120.812 10331 101.642
120.929 11299 106.297
121.046 11929 109.22
121.163 12721 112.787
121.279 13317 115.399
121.396 13467 116.047
121.513 13798 117.465
121.63 14150 118.954
121.747 14047 118.52
121.863 13926 118.008
121.98 13746 117.243
122.097 13527 116.306
122.213 13515 116.254
122.33 13414 115.819
122.446 13709 117.085
122.563 13529 116.314
122.679 13234 115.039
122.795 12938 113.745
122.912 12836 113.296
123.028 13142 114.639
123.144 13175 114.782
123.26 13165 114.739
123.377 0 1
123.493 0 1
123.609 0 1
123.725 0 1
123.84 0 1
123.956 0 1
124.072 0 1
124.188 0 1
124.303 0 1
124.419 0 1
126.852 0 1
126.968 0 1
127.083 0 1
127.199 0 1
127.315 0 1
127.431 0 1
127.547 0 1
127.663 0 1
127.779 0 1
127.895 0 1
128.011 0 1
128.127 0 1
128.243 0 1
128.359 14117 118.815
128.476 14063 118.588
128.592 13712 117.098
128.708 13506 116.215
128.825 12798 113.128
128.941 12522 111.902
129.058 11729 108.301
129.174 11185 105.759
129.291 10843 104.13
129.408 10720 103.537
129.524 10712 103.499
129.641 11249 106.061
129.758 11876 108.977
129.875 12577 112.147
129.992 12897 113.565
130.108 13460 116.017
130.225 13743 117.231
130.342 13973 118.207
130.459 13661 116.88
130.576 14211 119.21
130.693 13862 117.737
130.81 13433 115.901
130.928 13669 116.914
131.045 13650 116.833
131.162 13870 117.771
131.279 14195 119.143
131.396 13974 118.212
131.513 13695 117.026
131.631 13872 117.779
131.748 13863 117.741
131.865 14356 119.817
131.983 14284 119.516
132.1 13800 117.473
132.217 13576 116.516
132.335 13227 115.009
132.452 12643 112.441
132.57 11648 107.926
132.687 11099 105.352
132.804 11214 105.896
132.922 10297 101.474
133.039 10634 103.121
133.157 10884 104.326
133.274 11284 106.226
133.392 11808 108.665
133.509 12350 111.131
133.627 12690 112.65
133.744 13062 114.289
133.862 13371 115.633
133.979 13385 115.694
134.097 13344 115.516
134.214 13151 114.678
134.332 13281 115.243
134.449 13023 114.118
134.567 12967 113.873
134.684 13329 115.451
134.802 13685 116.983
134.919 13492 116.155
135.037 13278 115.23
135.154 13146 114.656
135.272 13286 115.265
135.389 13470 116.06
135.507 13657 116.863
135.624 13426 115.871
135.742 13317 115.399
135.859 13085 114.39
135.977 12708 112.73
136.094 11976 109.435
136.211 11496 107.219
136.329 11040 105.071
136.446 10680 103.344
136.564 10668 103.286
136.681 10340 101.686
136.798 10797 103.909
136.915 11060 105.167
137.033 11560 107.517
137.15 11943 109.284
137.267 12515 111.87
137.384 12586 112.187
137.502 12845 113.336
137.619 12735 112.849
137.736 13035 114.171
137.853 12492 111.768
137.97 12673 112.574
138.087 11972 109.417
138.204 12311 110.955
138.321 12649 112.468
138.438 12944 113.772
138.555 12977 113.917
138.672 12902 113.587
138.788 12865 113.424
138.905 12815 113.203
139.022 13007 114.048
139.139 13219 114.974
139.255 12986 113.956
139.372 12949 113.794
139.488 12821 113.23
139.605 12712 112.748
139.721 11900 109.087
139.838 11654 107.954
139.954 11225 105.948
140.071 10655 103.223
140.187 10569 102.806
140.303 10379 101.877
140.419 10317 101.573
140.535 10426 102.108
140.652 10489 102.416
140.768 0 1
140.884 0 1
141 0 1
141.115 0 1
141.231 0 1
141.347 0 1
141.463 0 1
141.578 0 1
141.694 0 1
144.104 0 1
144.219 0 1
144.335 0 1
144.45 0 1
144.566 0 1
144.682 0 1
144.798 0 1
144.914 0 1
145.03 0 1
145.146 7615 87.264
145.262 7997 89.4259
145.378 8259 90.879
145.494 8545 92.4392
145.61 8641 92.957
145.726 8761 93.6002
145.842 8996 94.8472
145.959 9440 97.1597
146.075 9453 97.2265
146.192 9511 97.5244
146.308 9750 98.7421
146.425 9785 98.9192
146.541 9768 98.8332
146.658 9418 97.0464
146.774 9335 96.6178
146.891 9200 95.9166
147.008 9500 97.4679
147.125 9722 98.6002
147.241 9729 98.6357
147.358 10079 100.394
147.475 9980 99.8999
147.592 9997 99.985
147.709 9897 99.4837
147.826 10535 102.64
147.943 10243 101.208
148.06 10340 101.686
148.177 10078 100.389
148.294 10014 100.07
148.411 9714 98.5596
148.528 9480 97.3653
148.645 9233 96.0885
148.762 9015 94.9474
148.88 8888 94.2762
148.997 8537 92.3959
149.114 8930 94.4987
149.231 8918 94.4352
149.349 8905 94.3663
149.466 9285 96.3587
149.583 9219 96.0156
149.701 9452 97.2214
149.818 9740 98.6914
149.935 9634 98.1529
150.053 9726 98.6205
150.17 9919 99.5942
150.287 9835 99.1716
150.405 9656 98.2649
150.522 9540 97.6729
150.64 9546 97.7036
150.757 9605 98.0051
150.875 9866 99.3277
150.992 9898 99.4887
151.11 10095 100.474
151.227 10199 100.99
151.344 10193 100.96
151.462 9834 99.1665
151.579 10337 101.671
151.697 10278 101.38
151.814 10195 100.97
151.932 10139 100.693
152.049 9938 99.6895
152.167 9691 98.4429
152.284 9603 97.9949
152.402 9353 96.7109
152.519 9206 95.9479
152.636 9069 95.2313
152.754 8909 94.3875
152.871 9197 95.901
152.989 9318 96.5298
153.106 9266 96.2601
153.223 9381 96.8556
153.341 9651 98.2395
153.458 9714 98.5596
153.575 9964 99.8198
153.693 9917 99.5841
153.81 9973 99.8649
153.927 9994 99.97
154.044 9651 98.2395
154.162 9542 97.6832
154.279 9633 98.1478
154.396 9908 99.5389
154.513 10110 100.548
154.63 10402 101.99
154.747 10422 102.088
154.864 10697 103.426
154.981 10672 103.305
155.098 10750 103.682
155.215 10736 103.615
155.332 10730 103.586
155.449 10431 102.132
155.566 10371 101.838
155.683 10293 101.454
155.8 10086 100.429
155.917 9890 99.4485
156.033 9912 99.559
156.15 0 1
156.267 0 1
156.383 0 1
156.5 0 1
156.617 0 1
156.733 0 1
156.85 0 1
156.966 0 1
157.082 0 1
157.199 0 1
157.315 0 1
157.431 0 1
157.547 0 1
157.664 0 1
157.78 0 1
157.896 0 1
158.012 0 1
158.128 0 1
158.244 0 1
158.359 0 1
158.475 0 1
158.591 0 1
158.706 0 1
