
6.15755 0 1
6.2731 0 1
6.3887 0 1
6.50437 0 1
6.62009 0 1
6.73587 0 1
6.8517 0 1
6.96759 0 1
7.08353 0 1
7.19952 0 1
7.31557 0 1
7.43166 0 1
7.54781 0 1
7.664 0 1
7.78024 0 1
7.89653 0 1
8.01286 0 1
8.12924 0 1
8.24567 0 1
8.36213 0 1
8.47864 0 1
8.59519 0 1
8.71178 0 1
8.82841 0 1
8.94508 0 1
9.06179 0 1
9.17853 0 1
9.29531 0 1
9.41212 0 1
9.52897 0 1
9.64584 0 1
9.76276 0 1
9.8797 0 1
9.99667 0 1
10.1137 0 1
10.2307 0 1
10.3478 0 1
10.4648 0 1
10.5819 0 1
10.6991 0 1
10.8162 0 1
10.9334 0 1
11.0506 0 1
11.1678 0 1
11.285 0 1
11.4023 0 1
11.5196 0 1
11.6369 0 1
11.7542 0 1
11.8715 0 1
11.9888 0 1
12.1062 0 1
12.2235 0 1
12.3409 0 1
12.4582 0 1
12.5756 0 1
12.693 0 1
12.8104 0 1
12.9278 0 1
13.0452 0 1
13.1626 0 1
13.28 0 1
13.3974 0 1
13.5149 0 1
13.6323 0 1
13.7497 0 1
13.8671 0 1
13.9845 0 1
14.1019 0 1
14.2193 0 1
14.3367 0 1
14.4541 0 1
14.5714 0 1
14.6888 0 1
14.8062 0 1
14.9235 0 1
15.0408 0 0
15.1581 0 0
15.2755 0 0
15.3927 0 0
15.51 0 0
15.6273 0 0
15.7445 0 0
15.8617 0 0
15.9789 0 0
16.0961 0 0
16.2132 0 0
16.3304 0 0
16.4475 0 0
16.5646 0 0
16.6816 0 0
16.7986 0 0
16.9156 0 0
17.0326 0 0
17.1496 0 0
17.2665 0 0
17.3833 0 0
17.5002 0 0
17.617 0 0
17.7338 0 0
17.8505 0 0
17.9672 0 0
18.0839 0 0
18.2005 0 0
18.3171 0 0
18.4337 0 0
18.5502 0 0
18.6666 0 0
18.7831 0 0
18.8994 0 0
19.0158 0 0
19.1321 0 0
19.2483 0 0
19.3645 0 0
19.4806 0 0
19.5967 0 0
19.7128 0 0
19.8288 0 0
19.9447 0 0
20.0606 0 1
20.1764 0 1
20.2922 0 1
20.4079 0 1
20.5236 0 1
20.6392 0 1
20.7548 0 1
20.8702 0 1
23.3078 0 1
23.4233 0 1
23.539 0 1
23.6547 0 1
23.7704 0 1
23.8862 0 1
24.0021 0 1
24.118 0 1
24.234 0 1
24.35 0 1
24.4661 1054 32.4654
24.5822 1033 32.1403
24.6984 1035 32.1714
24.8146 1006 31.7175
24.9309 1075 32.7872
25.0472 1074 32.7719
25.1636 1136 33.7046
25.28 1120 33.4664
25.3965 1152 33.9411
25.513 1103 33.2114
25.6296 1169 34.1906
25.7462 1175 34.2783
25.8628 1107 33.2716
25.9795 1149 33.8969
26.0962 1073 32.7567
26.213 1179 34.3366
26.3298 1106 33.2566
26.4466 1134 33.6749
26.5635 1145 33.8378
26.6804 1160 34.0588
26.7973 1012 31.8119
26.9143 1029 32.078
27.0313 970 31.1448
27.1483 982 31.3369
27.2653 1041 32.2645
27.3824 1030 32.0936
27.4996 1091 33.0303
27.6167 1008 31.749
27.7339 1013 31.8277
27.8511 1010 31.7805
27.9683 985 31.3847
28.0855 982 31.3369
28.2028 995 31.5436
28.3201 928 30.4631
28.4374 1030 32.0936
28.5547 965 31.0644
28.6721 1032 32.1248
28.7894 1082 32.8938
28.9068 1028 32.0624
29.0242 1107 33.2716
29.1416 1122 33.4963
29.259 1078 32.8329
29.3764 1056 32.4962
29.4939 1072 32.7414
29.6113 1095 33.0908
29.7288 1082 32.8938
29.8463 1092 33.0454
29.9638 1029 32.078
30.0812 1066 32.6497
30.1987 1050 32.4037
30.3162 1048 32.3728
30.4337 953 30.8707
30.5512 940 30.6594
30.6687 905 30.0832
30.7862 935 30.5778
30.9037 968 31.1127
31.0212 989 31.4484
31.1387 978 31.273
31.2562 920 30.3315
31.3737 946 30.7571
31.4912 931 30.5123
31.6087 943 30.7083
31.7262 990 31.4643
31.8436 905 30.0832
31.9611 955 30.9031
32.0785 980 31.305
32.1959 1041 32.2645
32.3134 1083 32.909
32.4308 974 31.209
32.5482 1034 32.1559
32.6655 1023 31.9844
32.7829 986 31.4006
32.9002 1058 32.5269
33.0176 1017 31.8904
33.1349 1036 32.187
33.2522 1001 31.6386
33.3694 1019 31.9218
33.4867 1029 32.078
33.6039 1025 32.0156
33.7211 1034 32.1559
33.8383 1034 32.1559
33.9554 997 31.5753
34.0725 985 31.3847
34.1896 897 29.95
34.3067 884 29.7321
34.4237 867 29.4449
34.5407 862 29.3598
34.6577 925 30.4138
34.7746 950 30.8221
34.8915 957 30.9354
35.0084 862 29.3598
35.1252 909 30.1496
35.242 883 29.7153
35.3587 896 29.9333
35.4755 874 29.5635
35.5921 940 30.6594
35.7088 942 30.692
35.8254 911 30.1828
35.9419 986 31.4006
36.0584 1005 31.7017
36.1749 969 31.1288
36.2913 989 31.4484
36.4077 1036 32.187
36.524 1054 32.4654
36.6403 965 31.0644
36.7565 1013 31.8277
36.8727 1016 31.8748
36.9889 1044 32.311
37.1049 913 30.2159
37.221 0 1
37.3369 0 1
37.4529 0 1
37.5687 0 1
37.6845 0 1
37.8003 0 1
37.916 0 1
38.0316 0 1
38.1472 0 1
40.5851 0 1
40.7008 0 1
40.8164 0 1
40.9322 0 1
41.048 0 1
41.1639 0 1
41.2798 0 1
41.3958 0 1
41.5118 0 1
41.6279 0 1
41.744 803 28.3373
41.8602 805 28.3725
41.9765 817 28.5832
42.0928 861 29.3428
42.2091 881 29.6816
42.3255 862 29.3598
42.4419 860 29.3258
42.5584 882 29.6985
42.675 850 29.1548
42.7915 802 28.3196
42.9081 858 29.2916
43.0248 764 27.6405
43.1415 694 26.3439
43.2582 703 26.5141
43.375 760 27.5681
43.4918 783 27.9821
43.6087 784 28
43.7256 750 27.3861
43.8425 753 27.4408
43.9595 686 26.1916
44.0765 722 26.8701
44.1935 751 27.4044
44.3106 705 26.5518
44.4277 716 26.7582
44.5448 786 28.0357
44.6619 784 28
44.7791 830 28.8097
44.8963 772 27.7849
45.0136 739 27.1846
45.1308 693 26.3249
45.2481 734 27.0924
45.3654 726 26.9444
45.4827 698 26.4197
45.6001 733 27.074
45.7174 672 25.923
45.8348 643 25.3574
45.9522 707 26.5895
46.0697 678 26.0384
46.1871 675 25.9808
46.3046 689 26.2488
46.422 656 25.6125
46.5395 661 25.7099
46.657 602 24.5357
46.7745 528 22.9783
46.892 571 23.8956
47.0096 606 24.6171
47.1271 610 24.6982
47.2446 610 24.6982
47.3622 527 22.9565
47.4797 570 23.8747
47.5973 555 23.5584
47.7149 508 22.5389
47.8324 539 23.2164
47.95 549 23.4307
48.0675 559 23.6432
48.1851 599 24.4745
48.3027 610 24.6982
48.4202 606 24.6171
48.5378 581 24.1039
48.6554 581 24.1039
48.7729 555 23.5584
48.8904 553 23.516
49.008 583 24.1454
49.1255 557 23.6008
49.243 571 23.8956
49.3605 584 24.1661
49.478 585 24.1868
49.5955 558 23.622
49.713 597 24.4336
49.8304 611 24.7184
49.9479 613 24.7588
50.0653 520 22.8035
50.1827 573 23.9374
50.3001 505 22.4722
50.4175 472 21.7256
50.5348 539 23.2164
50.6521 551 23.4734
50.7694 561 23.6854
50.8867 623 24.96
51.004 597 24.4336
51.1212 596 24.4131
51.2384 604 24.5764
51.3556 618 24.8596
51.4727 685 26.1725
51.5899 746 27.313
51.707 717 26.7769
51.824 681 26.096
51.9411 760 27.5681
52.0581 692 26.3059
52.175 709 26.6271
52.2919 715 26.7395
52.4088 736 27.1293
52.5257 717 26.7769
52.6425 737 27.1477
52.7593 786 28.0357
52.876 744 27.2764
52.9927 803 28.3373
53.1094 818 28.6007
53.226 767 27.6948
53.3426 793 28.1603
53.4591 805 28.3725
53.5756 782 27.9643
53.692 817 28.5832
53.8084 794 28.178
53.9248 736 27.1293
54.0411 667 25.8263
54.1573 629 25.0799
54.2735 0 1
54.3896 0 1
54.5057 0 1
54.6217 0 1
54.7377 0 1
54.8537 0 1
54.9695 0 1
55.0853 0 1
55.2011 0 1
55.3168 0 1
55.4324 0 1
57.824 0 1
57.9396 0 1
58.0553 0 1
58.1711 0 1
58.2869 0 1
58.4028 0 1
58.5187 0 1
58.6347 0 1
58.7508 0 1
58.8669 0 1
58.983 830 28.8097
59.0992 753 27.4408
59.2155 745 27.2947
59.3318 776 27.8568
59.4482 764 27.6405
59.5646 818 28.6007
59.681 775 27.8388
59.7975 826 28.7402
59.9141 850 29.1548
60.0306 889 29.8161
60.1473 853 29.2062
60.2639 859 29.3087
60.3807 846 29.0861
60.4974 831 28.8271
60.6142 816 28.5657
60.731 838 28.9482
60.8479 818 28.6007
60.9648 782 27.9643
61.0818 792 28.1425
61.1987 786 28.0357
61.3158 822 28.6705
61.4328 788 28.0713
61.5499 819 28.6182
61.667 773 27.8029
61.7841 843 29.0345
61.9013 804 28.3549
62.0185 780 27.9285
62.1357 792 28.1425
62.253 764 27.6405
62.3702 713 26.7021
62.4875 782 27.9643
62.6049 671 25.9037
62.7222 651 25.5147
62.8396 661 25.7099
62.9569 709 26.6271
63.0743 688 26.2298
63.1918 690 26.2679
63.3092 711 26.6646
63.4267 723 26.8887
63.5441 750 27.3861
63.6616 742 27.2397
63.7791 717 26.7769
63.8966 744 27.2764
64.0142 710 26.6458
64.1317 706 26.5707
64.2492 671 25.9037
64.3668 713 26.7021
64.4843 682 26.1151
64.6019 698 26.4197
64.7195 678 26.0384
64.837 715 26.7395
64.9546 690 26.2679
65.0722 697 26.4008
65.1898 716 26.7582
65.3074 705 26.5518
65.4249 698 26.4197
65.5425 648 25.4558
65.6601 671 25.9037
65.7777 709 26.6271
65.8952 661 25.7099
66.0128 648 25.4558
66.1304 613 24.7588
66.2479 619 24.8797
66.3655 599 24.4745
66.483 587 24.2281
66.6005 566 23.7908
66.718 614 24.779
66.8355 578 24.0416
66.953 682 26.1151
67.0705 627 25.04
67.1879 677 26.0192
67.3054 622 24.9399
67.4228 610 24.6982
67.5402 652 25.5343
67.6576 680 26.0768
67.7749 631 25.1197
67.8923 653 25.5539
68.0096 646 25.4165
68.1269 653 25.5539
68.2442 635 25.1992
68.3614 633 25.1595
68.4787 600 24.4949
68.5958 656 25.6125
68.713 651 25.5147
68.8302 630 25.0998
68.9473 643 25.3574
69.0643 675 25.9808
69.1814 599 24.4745
69.2984 625 25
69.4154 681 26.096
69.5323 642 25.3377
69.6492 631 25.1197
69.7661 603 24.5561
69.8829 568 23.8328
69.9997 549 23.4307
70.1165 523 22.8692
70.2332 545 23.3452
70.3499 515 22.6936
70.4665 548 23.4094
70.5831 589 24.2693
70.6996 632 25.1396
70.8161 562 23.7065
70.9326 584 24.1661
71.049 619 24.8797
71.1653 543 23.3024
71.2817 551 23.4734
71.3979 524 22.891
71.5141 575 23.9792
71.6303 512 22.6274
71.7464 480 21.9089
71.8624 0 1
71.9784 0 1
72.0944 0 1
72.2102 0 1
72.3261 0 1
72.4418 0 1
72.5575 0 1
72.6732 0 1
75.1054 0 1
75.2209 0 1
75.3365 0 1
75.4521 0 1
75.5678 0 1
75.6835 0 1
75.7993 0 1
75.9151 0 1
76.031 0 1
76.147 379 19.4679
76.263 424 20.5913
76.3791 464 21.5407
76.4952 464 21.5407
76.6113 449 21.1896
76.7276 413 20.3224
76.8438 450 21.2132
76.9601 455 21.3307
77.0765 409 20.2237
77.1929 411 20.2731
77.3093 429 20.7123
77.4258 404 20.0998
77.5423 382 19.5448
77.6589 434 20.8327
77.7755 440 20.9762
77.8921 377 19.4165
78.0088 439 20.9523
78.1256 373 19.3132
78.2423 428 20.6882
78.3591 393 19.8242
78.4759 352 18.7617
78.5928 408 20.199
78.7097 382 19.5448
78.8266 390 19.7484
78.9436 347 18.6279
79.0606 298 17.2627
79.1776 259 16.0935
79.2946 253 15.906
79.4117 304 17.4356
79.5288 342 18.4932
79.6459 318 17.8326
79.7631 314 17.72
79.8802 295 17.1756
79.9974 310 17.6068
80.1147 320 17.8885
80.2319 269 16.4012
80.3491 298 17.2627
80.4664 303 17.4069
80.5837 262 16.1864
80.701 285 16.8819
80.8183 255 15.9687
80.9357 266 16.3095
81.053 241 15.5242
81.1704 234 15.2971
81.2877 261 16.1555
81.4051 251 15.843
81.5225 238 15.4272
81.6399 216 14.6969
81.7573 202 14.2127
81.8747 213 14.5945
81.9922 195 13.9642
82.1096 189 13.7477
82.227 212 14.5602
82.3444 186 13.6382
82.4619 193 13.8924
82.5793 183 13.5277
82.6967 175 13.2288
82.8142 127 11.2694
82.9316 123 11.0905
83.049 122 11.0454
83.1664 123 11.0905
83.2838 156 12.49
83.4012 121 11
83.5186 129 11.3578
83.636 123 11.0905
83.7534 111 10.5357
83.8708 95 9.74679
83.9881 114 10.6771
84.1055 91 9.53939
84.2228 99 9.94987
84.3401 107 10.3441
84.4575 84 9.16515
84.5747 102 10.0995
84.692 95 9.74679
84.8093 93 9.64365
84.9265 68 8.24621
85.0437 83 9.11043
85.1609 82 9.05539
85.2781 70 8.3666
85.3952 99 9.94987
85.5123 84 9.16515
85.6294 85 9.21954
85.7465 83 9.11043
85.8636 81 9
85.9806 83 9.11043
86.0976 72 8.48528
86.2145 60 7.74597
86.3315 88 9.38083
86.4484 92 9.59166
86.5652 116 10.7703
86.682 104 10.198
86.7988 115 10.7238
86.9156 112 10.583
87.0323 109 10.4403
87.149 100 10
87.2657 128 11.3137
87.3823 122 11.0454
87.4988 113 10.6301
87.6154 135 11.619
87.7318 142 11.9164
87.8483 161 12.6886
87.9647 154 12.4097
88.081 179 13.3791
88.1973 179 13.3791
88.3136 178 13.3417
88.4298 201 14.1774
88.546 183 13.5277
88.6621 182 13.4907
88.7781 211 14.5258
88.8942 0 1
89.0101 0 1
89.126 0 1
89.2419 0 1
89.3577 0 1
89.4734 0 1
89.5891 0 1
89.7047 0 1
89.8203 0 1
89.9358 0 1
92.3269 0 1
92.4424 0 1
92.558 0 1
92.6736 0 1
92.7893 0 1
92.905 0 1
93.0208 0 1
93.1366 0 1
93.2525 0 1
93.3685 0 1
93.4845 0 1
93.6005 323 17.9722
93.7167 294 17.1464
93.8328 356 18.868
93.949 311 17.6352
94.0653 321 17.9165
94.1816 314 17.72
94.2979 297 17.2337
94.4143 283 16.8226
94.5307 254 15.9374
94.6472 265 16.2788
94.7637 243 15.5885
94.8803 257 16.0312
94.9969 246 15.6844
95.1135 252 15.8745
95.2302 246 15.6844
95.3469 215 14.6629
95.4637 194 13.9284
95.5805 186 13.6382
95.6973 219 14.7986
95.8142 272 16.4924
95.9311 308 17.5499
96.048 293 17.1172
96.1649 284 16.8523
96.2819 254 15.9374
96.3989 283 16.8226
96.516 296 17.2047
96.633 327 18.0831
96.7501 327 18.0831
96.8673 320 17.8885
96.9844 324 18
97.1016 365 19.105
97.2188 357 18.8944
97.336 329 18.1384
97.4532 391 19.7737
97.5704 406 20.1494
97.6877 423 20.567
97.805 394 19.8494
97.9223 412 20.2978
98.0396 440 20.9762
98.1569 470 21.6795
98.2743 455 21.3307
98.3916 479 21.8861
98.509 460 21.4476
98.6264 444 21.0713
98.7438 467 21.6102
98.8612 489 22.1133
98.9786 426 20.6398
99.096 309 17.5784
99.2134 348 18.6548
99.3308 456 21.3542
99.4482 523 22.8692
99.5656 548 23.4094
99.6831 548 23.4094
99.8005 532 23.0651
99.9179 527 22.9565
100.035 586 24.2074
100.153 532 23.0651
100.27 546 23.3666
100.388 575 23.9792
100.505 626 25.02
100.622 600 24.4949
100.74 568 23.8328
100.857 605 24.5967
100.975 615 24.7992
101.092 579 24.0624
101.209 587 24.2281
101.327 647 25.4362
101.444 623 24.96
101.561 643 25.3574
101.679 642 25.3377
101.796 634 25.1794
101.913 680 26.0768
102.03 657 25.632
102.148 657 25.632
102.265 727 26.9629
102.382 610 24.6982
102.499 627 25.04
102.616 476 21.8174
102.733 464 21.5407
102.851 561 23.6854
102.968 570 23.8747
103.085 688 26.2298
103.202 687 26.2107
103.319 650 25.4951
103.436 697 26.4008
103.552 706 26.5707
103.669 659 25.671
103.786 708 26.6083
103.903 642 25.3377
104.02 680 26.0768
104.137 690 26.2679
104.253 683 26.1343
104.37 727 26.9629
104.487 691 26.2869
104.603 701 26.4764
104.72 722 26.8701
104.836 755 27.4773
104.953 725 26.9258
105.069 741 27.2213
105.186 701 26.4764
105.302 692 26.3059
105.418 709 26.6271
105.535 612 24.7386
105.651 680 26.0768
105.767 683 26.1343
105.883 682 26.1151
105.999 601 24.5153
106.115 0 1
106.231 0 1
106.347 0 1
106.463 0 1
106.579 0 1
106.694 0 1
106.81 0 1
106.926 0 1
107.041 0 1
107.157 0 1
109.576 0 1
109.692 0 1
109.807 0 1
109.923 0 1
110.039 0 1
110.155 0 1
110.27 0 1
110.386 0 1
110.502 0 1
110.618 534 23.1084
110.735 572 23.9165
110.851 563 23.7276
110.967 544 23.3238
111.083 465 21.5639
111.199 459 21.4243
111.316 416 20.3961
111.432 439 20.9523
111.549 476 21.8174
111.665 547 23.388
111.782 514 22.6716
111.898 489 22.1133
112.015 499 22.3383
112.132 529 23
112.248 512 22.6274
112.365 455 21.3307
112.482 498 22.3159
112.599 468 21.6333
112.716 473 21.7486
112.832 447 21.1424
112.949 420 20.4939
113.066 403 20.0749
113.183 454 21.3073
113.3 433 20.8087
113.417 445 21.095
113.534 401 20.025
113.652 401 20.025
113.769 414 20.347
113.886 425 20.6155
114.003 390 19.7484
114.12 393 19.8242
114.238 375 19.3649
114.355 395 19.8746
114.472 364 19.0788
114.589 363 19.0526
114.707 334 18.2757
114.824 342 18.4932
114.942 377 19.4165
115.059 382 19.5448
115.176 416 20.3961
115.294 396 19.8997
115.411 376 19.3907
115.529 400 20
115.646 384 19.5959
115.764 394 19.8494
115.881 371 19.2614
115.999 393 19.8242
116.116 366 19.1311
116.234 415 20.3715
116.351 367 19.1572
116.469 381 19.5192
116.586 365 19.105
116.704 388 19.6977
116.821 359 18.9473
116.939 380 19.4936
117.056 368 19.1833
117.174 398 19.9499
117.291 366 19.1311
117.409 370 19.2354
117.526 381 19.5192
117.644 387 19.6723
117.761 364 19.0788
117.879 353 18.7883
117.996 306 17.4929
118.114 288 16.9706
118.231 346 18.6011
118.349 348 18.6548
118.466 388 19.6977
118.584 346 18.6011
118.701 367 19.1572
118.819 369 19.2094
118.936 360 18.9737
119.053 367 19.1572
119.171 394 19.8494
119.288 391 19.7737
119.405 401 20.025
119.523 364 19.0788
119.64 408 20.199
119.757 380 19.4936
119.875 429 20.7123
119.992 395 19.8746
120.109 408 20.199
120.226 404 20.0998
120.343 374 19.3391
120.46 423 20.567
120.578 393 19.8242
120.695 358 18.9209
120.812 438 20.9284
120.929 440 20.9762
121.046 424 20.5913
121.163 418 20.445
121.279 405 20.1246
121.396 389 19.7231
121.513 388 19.6977
121.63 336 18.3303
121.747 334 18.2757
121.863 285 16.8819
121.98 369 19.2094
122.097 374 19.3391
122.213 388 19.6977
122.33 406 20.1494
122.446 411 20.2731
122.563 423 20.567
122.679 384 19.5959
122.795 426 20.6398
122.912 470 21.6795
123.028 472 21.7256
123.144 434 20.8327
123.26 423 20.567
123.377 0 1
123.493 0 1
123.609 0 1
123.725 0 1
123.84 0 1
123.956 0 1
124.072 0 1
124.188 0 1
124.303 0 1
124.419 0 1
126.852 0 1
126.968 0 1
127.083 0 1
127.199 0 1
127.315 0 1
127.431 0 1
127.547 0 1
127.663 0 1
127.779 0 1
127.895 0 1
128.011 0 1
128.127 0 1
128.243 0 1
128.359 554 23.5372
128.476 567 23.8118
128.592 515 22.6936
128.708 552 23.4947
128.825 561 23.6854
128.941 602 24.5357
129.058 571 23.8956
129.174 557 23.6008
129.291 541 23.2594
129.408 591 24.3105
129.524 575 23.9792
129.641 625 25
129.758 559 23.6432
129.875 582 24.1247
129.992 568 23.8328
130.108 576 24
130.225 589 24.2693
130.342 517 22.7376
130.459 462 21.4942
130.576 427 20.664
130.693 371 19.2614
130.81 378 19.4422
130.928 402 20.0499
131.045 499 22.3383
131.162 565 23.7697
131.279 603 24.5561
131.396 592 24.3311
131.513 589 24.2693
131.631 596 24.4131
131.748 635 25.1992
131.865 582 24.1247
131.983 613 24.7588
132.1 547 23.388
132.217 639 25.2784
132.335 616 24.8193
132.452 573 23.9374
132.57 594 24.3721
132.687 551 23.4734
132.804 622 24.9399
132.922 553 23.516
133.039 610 24.6982
133.157 609 24.6779
133.274 649 25.4755
133.392 568 23.8328
133.509 594 24.3721
133.627 643 25.3574
133.744 585 24.1868
133.862 572 23.9165
133.979 554 23.5372
134.097 524 22.891
134.214 456 21.3542
134.332 426 20.6398
134.449 463 21.5174
134.567 480 21.9089
134.684 559 23.6432
134.802 605 24.5967
134.919 581 24.1039
135.037 642 25.3377
135.154 674 25.9615
135.272 665 25.7876
135.389 625 25
135.507 661 25.7099
135.624 644 25.3772
135.742 718 26.7955
135.859 650 25.4951
135.977 663 25.7488
136.094 632 25.1396
136.211 671 25.9037
136.329 664 25.7682
136.446 706 26.5707
136.564 682 26.1151
136.681 646 25.4165
136.798 665 25.7876
136.915 720 26.8328
137.033 689 26.2488
137.15 667 25.8263
137.267 697 26.4008
137.384 639 25.2784
137.502 621 24.9199
137.619 569 23.8537
137.736 563 23.7276
137.853 522 22.8473
137.97 490 22.1359
138.087 536 23.1517
138.204 542 23.2809
138.321 565 23.7697
138.438 674 25.9615
138.555 656 25.6125
138.672 713 26.7021
138.788 734 27.0924
138.905 730 27.0185
139.022 790 28.1069
139.139 702 26.4953
139.255 762 27.6043
139.372 751 27.4044
139.488 770 27.7489
139.605 758 27.5318
139.721 738 27.1662
139.838 711 26.6646
139.954 699 26.4386
140.071 769 27.7308
140.187 714 26.7208
140.303 730 27.0185
140.419 709 26.6271
140.535 721 26.8514
140.652 742 27.2397
140.768 0 1
140.884 0 1
141 0 1
141.115 0 1
141.231 0 1
141.347 0 1
141.463 0 1
141.578 0 1
141.694 0 1
144.104 0 1
144.219 0 1
144.335 0 1
144.45 0 1
144.566 0 1
144.682 0 1
144.798 0 1
144.914 0 1
145.03 0 1
145.146 728 26.9815
145.262 737 27.1477
145.378 674 25.9615
145.494 716 26.7582
145.61 693 26.3249
145.726 680 26.0768
145.842 688 26.2298
145.959 638 25.2587
146.075 640 25.2982
146.192 640 25.2982
146.308 607 24.6374
146.425 570 23.8747
146.541 567 23.8118
146.658 546 23.3666
146.774 531 23.0434
146.891 583 24.1454
147.008 603 24.5561
147.125 622 24.9399
147.241 681 26.096
147.358 654 25.5734
147.475 618 24.8596
147.592 695 26.3629
147.709 736 27.1293
147.826 713 26.7021
147.943 704 26.533
148.06 712 26.6833
148.177 702 26.4953
148.294 736 27.1293
148.411 709 26.6271
148.528 703 26.5141
148.645 659 25.671
148.762 669 25.865
148.88 685 26.1725
148.997 666 25.807
149.114 801 28.3019
149.231 674 25.9615
149.349 685 26.1725
149.466 624 24.98
149.583 645 25.3969
149.701 657 25.632
149.818 595 24.3926
149.935 600 24.4949
150.053 605 24.5967
150.17 573 23.9374
150.287 554 23.5372
150.405 561 23.6854
150.522 614 24.779
150.64 620 24.8998
150.757 627 25.04
150.875 618 24.8596
150.992 714 26.7208
151.11 698 26.4197
151.227 696 26.3818
151.344 696 26.3818
151.462 709 26.6271
151.579 710 26.6458
151.697 696 26.3818
151.814 694 26.3439
151.932 693 26.3249
152.049 711 26.6646
152.167 691 26.2869
152.284 739 27.1846
152.402 698 26.4197
152.519 720 26.8328
152.636 728 26.9815
152.754 717 26.7769
152.871 709 26.6271
152.989 689 26.2488
153.106 704 26.533
153.223 643 25.3574
153.341 605 24.5967
153.458 637 25.2389
153.575 598 24.454
153.693 629 25.0799
153.81 641 25.318
153.927 598 24.454
154.044 648 25.4558
154.162 683 26.1343
154.279 683 26.1343
154.396 670 25.8844
154.513 683 26.1343
154.63 720 26.8328
154.747 703 26.5141
154.864 726 26.9444
154.981 748 27.3496
155.098 759 27.55
155.215 766 27.6767
155.332 754 27.4591
155.449 793 28.1603
155.566 731 27.037
155.683 744 27.2764
155.8 755 27.4773
155.917 732 27.0555
156.033 743 27.258
156.15 0 1
156.267 0 1
156.383 0 1
156.5 0 1
156.617 0 1
156.733 0 1
156.85 0 1
156.966 0 1
157.082 0 1
157.199 0 1
157.315 0 1
157.431 0 1
157.547 0 1
157.664 0 1
157.78 0 1
157.896 0 1
158.012 0 1
158.128 0 1
158.244 0 1
158.359 0 1
158.475 0 1
158.591 0 1
158.706 0 1
