
6.15755 0 1
6.2731 0 1
6.3887 0 1
6.50437 0 1
6.62009 0 1
6.73587 0 1
6.8517 0 1
6.96759 0 1
7.08353 0 1
7.19952 0 1
7.31557 0 1
7.43166 0 1
7.54781 0 1
7.664 0 1
7.78024 0 1
7.89653 0 1
8.01286 0 1
8.12924 0 1
8.24567 0 1
8.36213 0 1
8.47864 0 1
8.59519 0 1
8.71178 0 1
8.82841 0 1
8.94508 0 1
9.06179 0 1
9.17853 0 1
9.29531 0 1
9.41212 0 1
9.52897 0 1
9.64584 0 1
9.76276 0 1
9.8797 0 1
9.99667 0 1
10.1137 0 1
10.2307 0 1
10.3478 0 1
10.4648 0 1
10.5819 0 1
10.6991 0 1
10.8162 0 1
10.9334 0 1
11.0506 0 1
11.1678 0 1
11.285 0 1
11.4023 0 1
11.5196 0 1
11.6369 0 1
11.7542 0 1
11.8715 0 1
11.9888 0 1
12.1062 0 1
12.2235 0 1
12.3409 0 1
12.4582 0 1
12.5756 0 1
12.693 0 1
12.8104 0 1
12.9278 0 1
13.0452 0 1
13.1626 0 1
13.28 0 1
13.3974 0 1
13.5149 0 1
13.6323 0 1
13.7497 0 1
13.8671 0 1
13.9845 0 1
14.1019 0 1
14.2193 0 1
14.3367 0 1
14.4541 0 1
14.5714 0 1
14.6888 0 1
14.8062 0 1
14.9235 0 1
15.0408 479 21.8861
15.1581 511 22.6053
15.2755 510 22.5832
15.3927 545 23.3452
15.51 496 22.2711
15.6273 520 22.8035
15.7445 492 22.1811
15.8617 511 22.6053
15.9789 493 22.2036
16.0961 490 22.1359
16.2132 472 21.7256
16.3304 480 21.9089
16.4475 496 22.2711
16.5646 506 22.4944
16.6816 557 23.6008
16.7986 493 22.2036
16.9156 553 23.516
17.0326 524 22.891
17.1496 603 24.5561
17.2665 546 23.3666
17.3833 528 22.9783
17.5002 533 23.0868
17.617 508 22.5389
17.7338 461 21.4709
17.8505 458 21.4009
17.9672 457 21.3776
18.0839 493 22.2036
18.2005 515 22.6936
18.3171 523 22.8692
18.4337 498 22.3159
18.5502 525 22.9129
18.6666 516 22.7156
18.7831 573 23.9374
18.8994 533 23.0868
19.0158 532 23.0651
19.1321 485 22.0227
19.2483 457 21.3776
19.3645 429 20.7123
19.4806 459 21.4243
19.5967 388 19.6977
19.7128 329 18.1384
19.8288 294 17.1464
19.9447 308 17.5499
20.0606 0 1
20.1764 0 1
20.2922 0 1
20.4079 0 1
20.5236 0 1
20.6392 0 1
20.7548 0 1
20.8702 0 1
23.3078 0 1
23.4233 0 1
23.539 0 1
23.6547 0 1
23.7704 0 1
23.8862 0 1
24.0021 0 1
24.118 0 1
24.234 0 1
24.35 0 1
24.4661 210 14.4914
24.5822 213 14.5945
24.6984 243 15.5885
24.8146 239 15.4596
24.9309 284 16.8523
25.0472 291 17.0587
25.1636 327 18.0831
25.28 407 20.1742
25.3965 416 20.3961
25.513 394 19.8494
25.6296 497 22.2935
25.7462 443 21.0476
25.8628 461 21.4709
25.9795 465 21.5639
26.0962 505 22.4722
26.213 465 21.5639
26.3298 447 21.1424
26.4466 374 19.3391
26.5635 415 20.3715
26.6804 392 19.799
26.7973 432 20.7846
26.9143 409 20.2237
27.0313 413 20.3224
27.1483 488 22.0907
27.2653 442 21.0238
27.3824 432 20.7846
27.4996 448 21.166
27.6167 471 21.7025
27.7339 458 21.4009
27.8511 421 20.5183
27.9683 403 20.0749
28.0855 393 19.8242
28.2028 367 19.1572
28.3201 381 19.5192
28.4374 377 19.4165
28.5547 381 19.5192
28.6721 378 19.4422
28.7894 332 18.2209
28.9068 402 20.0499
29.0242 437 20.9045
29.1416 401 20.025
29.259 421 20.5183
29.3764 409 20.2237
29.4939 467 21.6102
29.6113 421 20.5183
29.7288 437 20.9045
29.8463 393 19.8242
29.9638 380 19.4936
30.0812 336 18.3303
30.1987 362 19.0263
30.3162 417 20.4206
30.4337 360 18.9737
30.5512 406 20.1494
30.6687 405 20.1246
30.7862 397 19.9249
30.9037 413 20.3224
31.0212 410 20.2485
31.1387 380 19.4936
31.2562 392 19.799
31.3737 381 19.5192
31.4912 339 18.412
31.6087 355 18.8414
31.7262 411 20.2731
31.8436 321 17.9165
31.9611 323 17.9722
32.0785 313 17.6918
32.1959 341 18.4662
32.3134 374 19.3391
32.4308 392 19.799
32.5482 400 20
32.6655 416 20.3961
32.7829 429 20.7123
32.9002 437 20.9045
33.0176 399 19.975
33.1349 428 20.6882
33.2522 383 19.5704
33.3694 379 19.4679
33.4867 360 18.9737
33.6039 339 18.412
33.7211 342 18.4932
33.8383 283 16.8226
33.9554 328 18.1108
34.0725 406 20.1494
34.1896 341 18.4662
34.3067 384 19.5959
34.4237 363 19.0526
34.5407 389 19.7231
34.6577 378 19.4422
34.7746 427 20.664
34.8915 405 20.1246
35.0084 403 20.0749
35.1252 387 19.6723
35.242 367 19.1572
35.3587 361 19
35.4755 334 18.2757
35.5921 344 18.5472
35.7088 313 17.6918
35.8254 295 17.1756
35.9419 321 17.9165
36.0584 334 18.2757
36.1749 326 18.0555
36.2913 345 18.5742
36.4077 357 18.8944
36.524 332 18.2209
36.6403 322 17.9444
36.7565 364 19.0788
36.8727 333 18.2483
36.9889 283 16.8226
37.1049 260 16.1245
37.221 0 1
37.3369 0 1
37.4529 0 1
37.5687 0 1
37.6845 0 1
37.8003 0 1
37.916 0 1
38.0316 0 1
38.1472 0 1
40.5851 0 1
40.7008 0 1
40.8164 0 1
40.9322 0 1
41.048 0 1
41.1639 0 1
41.2798 0 1
41.3958 0 1
41.5118 0 1
41.6279 0 1
41.744 191 13.8203
41.8602 177 13.3041
41.9765 243 15.5885
42.0928 230 15.1658
42.2091 254 15.9374
42.3255 243 15.5885
42.4419 246 15.6844
42.5584 224 14.9666
42.675 249 15.7797
42.7915 263 16.2173
42.9081 279 16.7033
43.0248 312 17.6635
43.1415 336 18.3303
43.2582 332 18.2209
43.375 339 18.412
43.4918 310 17.6068
43.6087 333 18.2483
43.7256 315 17.7482
43.8425 323 17.9722
43.9595 288 16.9706
44.0765 274 16.5529
44.1935 312 17.6635
44.3106 286 16.9115
44.4277 291 17.0587
44.5448 258 16.0624
44.6619 246 15.6844
44.7791 252 15.8745
44.8963 284 16.8523
45.0136 277 16.6433
45.1308 310 17.6068
45.2481 304 17.4356
45.3654 312 17.6635
45.4827 322 17.9444
45.6001 317 17.8045
45.7174 318 17.8326
45.8348 306 17.4929
45.9522 284 16.8523
46.0697 239 15.4596
46.1871 263 16.2173
46.3046 260 16.1245
46.422 284 16.8523
46.5395 282 16.7929
46.657 317 17.8045
46.7745 307 17.5214
46.892 295 17.1756
47.0096 295 17.1756
47.1271 334 18.2757
47.2446 295 17.1756
47.3622 354 18.8149
47.4797 296 17.2047
47.5973 342 18.4932
47.7149 311 17.6352
47.8324 307 17.5214
47.95 260 16.1245
48.0675 259 16.0935
48.1851 261 16.1555
48.3027 250 15.8114
48.4202 289 17
48.5378 288 16.9706
48.6554 325 18.0278
48.7729 346 18.6011
48.8904 341 18.4662
49.008 316 17.7764
49.1255 343 18.5203
49.243 336 18.3303
49.3605 293 17.1172
49.478 256 16
49.5955 264 16.2481
49.713 252 15.8745
49.8304 259 16.0935
49.9479 283 16.8226
50.0653 298 17.2627
50.1827 320 17.8885
50.3001 314 17.72
50.4175 314 17.72
50.5348 328 18.1108
50.6521 327 18.0831
50.7694 329 18.1384
50.8867 332 18.2209
51.004 322 17.9444
51.1212 316 17.7764
51.2384 257 16.0312
51.3556 314 17.72
51.4727 278 16.6733
51.5899 239 15.4596
51.707 238 15.4272
51.824 287 16.9411
51.9411 275 16.5831
52.0581 279 16.7033
52.175 309 17.5784
52.2919 325 18.0278
52.4088 322 17.9444
52.5257 294 17.1464
52.6425 341 18.4662
52.7593 355 18.8414
52.876 330 18.1659
52.9927 312 17.6635
53.1094 287 16.9411
53.226 277 16.6433
53.3426 266 16.3095
53.4591 245 15.6525
53.5756 272 16.4924
53.692 266 16.3095
53.8084 226 15.0333
53.9248 252 15.8745
54.0411 262 16.1864
54.1573 238 15.4272
54.2735 0 1
54.3896 0 1
54.5057 0 1
54.6217 0 1
54.7377 0 1
54.8537 0 1
54.9695 0 1
55.0853 0 1
55.2011 0 1
55.3168 0 1
55.4324 0 1
57.824 0 1
57.9396 0 1
58.0553 0 1
58.1711 0 1
58.2869 0 1
58.4028 0 1
58.5187 0 1
58.6347 0 1
58.7508 0 1
58.8669 0 1
58.983 196 14
59.0992 240 15.4919
59.2155 312 17.6635
59.3318 299 17.2916
59.4482 297 17.2337
59.5646 331 18.1934
59.681 355 18.8414
59.7975 367 19.1572
59.9141 375 19.3649
60.0306 368 19.1833
60.1473 357 18.8944
60.2639 354 18.8149
60.3807 343 18.5203
60.4974 341 18.4662
60.6142 367 19.1572
60.731 344 18.5472
60.8479 378 19.4422
60.9648 372 19.2873
61.0818 389 19.7231
61.1987 404 20.0998
61.3158 377 19.4165
61.4328 399 19.975
61.5499 405 20.1246
61.667 392 19.799
61.7841 360 18.9737
61.9013 332 18.2209
62.0185 303 17.4069
62.1357 286 16.9115
62.253 385 19.6214
62.3702 366 19.1311
62.4875 350 18.7083
62.6049 388 19.6977
62.7222 382 19.5448
62.8396 420 20.4939
62.9569 399 19.975
63.0743 411 20.2731
63.1918 409 20.2237
63.3092 377 19.4165
63.4267 398 19.9499
63.5441 383 19.5704
63.6616 389 19.7231
63.7791 311 17.6352
63.8966 323 17.9722
64.0142 311 17.6352
64.1317 305 17.4642
64.2492 318 17.8326
64.3668 343 18.5203
64.4843 371 19.2614
64.6019 382 19.5448
64.7195 415 20.3715
64.837 429 20.7123
64.9546 398 19.9499
65.0722 373 19.3132
65.1898 365 19.105
65.3074 348 18.6548
65.4249 321 17.9165
65.5425 314 17.72
65.6601 355 18.8414
65.7777 346 18.6011
65.8952 337 18.3576
66.0128 390 19.7484
66.1304 386 19.6469
66.2479 403 20.0749
66.3655 417 20.4206
66.483 386 19.6469
66.6005 379 19.4679
66.718 374 19.3391
66.8355 413 20.3224
66.953 385 19.6214
67.0705 370 19.2354
67.1879 362 19.0263
67.3054 358 18.9209
67.4228 395 19.8746
67.5402 330 18.1659
67.6576 292 17.088
67.7749 329 18.1384
67.8923 355 18.8414
68.0096 363 19.0526
68.1269 450 21.2132
68.2442 463 21.5174
68.3614 501 22.383
68.4787 520 22.8035
68.5958 530 23.0217
68.713 540 23.2379
68.8302 530 23.0217
68.9473 557 23.6008
69.0643 499 22.3383
69.1814 504 22.4499
69.2984 479 21.8861
69.4154 515 22.6936
69.5323 553 23.516
69.6492 552 23.4947
69.7661 605 24.5967
69.8829 661 25.7099
69.9997 661 25.7099
70.1165 639 25.2784
70.2332 619 24.8797
70.3499 627 25.04
70.4665 598 24.454
70.5831 637 25.2389
70.6996 564 23.7487
70.8161 581 24.1039
70.9326 507 22.5167
71.049 499 22.3383
71.1653 406 20.1494
71.2817 289 17
71.3979 232 15.2315
71.5141 230 15.1658
71.6303 179 13.3791
71.7464 185 13.6015
71.8624 0 1
71.9784 0 1
72.0944 0 1
72.2102 0 1
72.3261 0 1
72.4418 0 1
72.5575 0 1
72.6732 0 1
75.1054 0 1
75.2209 0 1
75.3365 0 1
75.4521 0 1
75.5678 0 1
75.6835 0 1
75.7993 0 1
75.9151 0 1
76.031 0 1
76.147 298 17.2627
76.263 285 16.8819
76.3791 308 17.5499
76.4952 260 16.1245
76.6113 307 17.5214
76.7276 315 17.7482
76.8438 287 16.9411
76.9601 346 18.6011
77.0765 353 18.7883
77.1929 419 20.4695
77.3093 432 20.7846
77.4258 474 21.7715
77.5423 467 21.6102
77.6589 476 21.8174
77.7755 497 22.2935
77.8921 483 21.9773
78.0088 465 21.5639
78.1256 421 20.5183
78.2423 438 20.9284
78.3591 434 20.8327
78.4759 448 21.166
78.5928 566 23.7908
78.7097 614 24.779
78.8266 624 24.98
78.9436 726 26.9444
79.0606 663 25.7488
79.1776 673 25.9422
79.2946 758 27.5318
79.4117 787 28.0535
79.5288 793 28.1603
79.6459 753 27.4408
79.7631 772 27.7849
79.8802 764 27.6405
79.9974 752 27.4226
80.1147 676 26
80.2319 673 25.9422
80.3491 640 25.2982
80.4664 694 26.3439
80.5837 734 27.0924
80.701 789 28.0891
80.8183 849 29.1376
80.9357 768 27.7128
81.053 872 29.5296
81.1704 875 29.5804
81.2877 895 29.9166
81.4051 912 30.1993
81.5225 811 28.4781
81.6399 815 28.5482
81.7573 665 25.7876
81.8747 605 24.5967
81.9922 569 23.8537
82.1096 597 24.4336
82.227 615 24.7992
82.3444 703 26.5141
82.4619 749 27.3679
82.5793 659 25.671
82.6967 669 25.865
82.8142 755 27.4773
82.9316 708 26.6083
83.049 703 26.5141
83.1664 679 26.0576
83.2838 621 24.9199
83.4012 622 24.9399
83.5186 560 23.6643
83.636 541 23.2594
83.7534 466 21.587
83.8708 447 21.1424
83.9881 390 19.7484
84.1055 410 20.2485
84.2228 379 19.4679
84.3401 385 19.6214
84.4575 380 19.4936
84.5747 422 20.5426
84.692 451 21.2368
84.8093 457 21.3776
84.9265 417 20.4206
85.0437 444 21.0713
85.1609 353 18.7883
85.2781 326 18.0555
85.3952 321 17.9165
85.5123 270 16.4317
85.6294 267 16.3401
85.7465 309 17.5784
85.8636 306 17.4929
85.9806 331 18.1934
86.0976 321 17.9165
86.2145 307 17.5214
86.3315 351 18.735
86.4484 394 19.8494
86.5652 366 19.1311
86.682 382 19.5448
86.7988 442 21.0238
86.9156 374 19.3391
87.0323 365 19.105
87.149 347 18.6279
87.2657 338 18.3848
87.3823 281 16.7631
87.4988 272 16.4924
87.6154 211 14.5258
87.7318 252 15.8745
87.8483 212 14.5602
87.9647 245 15.6525
88.081 278 16.6733
88.1973 293 17.1172
88.3136 270 16.4317
88.4298 263 16.2173
88.546 268 16.3707
88.6621 209 14.4568
88.7781 204 14.2829
88.8942 0 1
89.0101 0 1
89.126 0 1
89.2419 0 1
89.3577 0 1
89.4734 0 1
89.5891 0 1
89.7047 0 1
89.8203 0 1
89.9358 0 1
92.3269 0 1
92.4424 0 1
92.558 0 1
92.6736 0 1
92.7893 0 1
92.905 0 1
93.0208 0 1
93.1366 0 1
93.2525 0 1
93.3685 0 1
93.4845 0 1
93.6005 256 16
93.7167 289 17
93.8328 291 17.0587
93.949 287 16.9411
94.0653 311 17.6352
94.1816 313 17.6918
94.2979 344 18.5472
94.4143 331 18.1934
94.5307 315 17.7482
94.6472 328 18.1108
94.7637 299 17.2916
94.8803 327 18.0831
94.9969 319 17.8606
95.1135 354 18.8149
95.2302 332 18.2209
95.3469 371 19.2614
95.4637 423 20.567
95.5805 420 20.4939
95.6973 445 21.095
95.8142 452 21.2603
95.9311 445 21.095
96.048 399 19.975
96.1649 438 20.9284
96.2819 439 20.9523
96.3989 426 20.6398
96.516 405 20.1246
96.633 357 18.8944
96.7501 346 18.6011
96.8673 345 18.5742
96.9844 356 18.868
97.1016 352 18.7617
97.2188 370 19.2354
97.336 391 19.7737
97.4532 388 19.6977
97.5704 445 21.095
97.6877 423 20.567
97.805 448 21.166
97.9223 462 21.4942
98.0396 392 19.799
98.1569 379 19.4679
98.2743 350 18.7083
98.3916 353 18.7883
98.509 346 18.6011
98.6264 380 19.4936
98.7438 385 19.6214
98.8612 435 20.8567
98.9786 450 21.2132
99.096 444 21.0713
99.2134 424 20.5913
99.3308 450 21.2132
99.4482 486 22.0454
99.5656 465 21.5639
99.6831 480 21.9089
99.8005 470 21.6795
99.9179 449 21.1896
100.035 400 20
100.153 435 20.8567
100.27 412 20.2978
100.388 360 18.9737
100.505 364 19.0788
100.622 335 18.303
100.74 370 19.2354
100.857 390 19.7484
100.975 406 20.1494
101.092 413 20.3224
101.209 398 19.9499
101.327 420 20.4939
101.444 413 20.3224
101.561 382 19.5448
101.679 372 19.2873
101.796 322 17.9444
101.913 329 18.1384
102.03 287 16.9411
102.148 361 19
102.265 400 20
102.382 418 20.445
102.499 376 19.3907
102.616 422 20.5426
102.733 419 20.4695
102.851 397 19.9249
102.968 414 20.347
103.085 422 20.5426
103.202 441 21
103.319 432 20.7846
103.436 422 20.5426
103.552 386 19.6469
103.669 400 20
103.786 383 19.5704
103.903 354 18.8149
104.02 317 17.8045
104.137 322 17.9444
104.253 328 18.1108
104.37 390 19.7484
104.487 446 21.1187
104.603 505 22.4722
104.72 520 22.8035
104.836 518 22.7596
104.953 518 22.7596
105.069 448 21.166
105.186 493 22.2036
105.302 445 21.095
105.418 472 21.7256
105.535 447 21.1424
105.651 430 20.7364
105.767 442 21.0238
105.883 422 20.5426
105.999 490 22.1359
106.115 0 1
106.231 0 1
106.347 0 1
106.463 0 1
106.579 0 1
106.694 0 1
106.81 0 1
106.926 0 1
107.041 0 1
107.157 0 1
109.576 0 1
109.692 0 1
109.807 0 1
109.923 0 1
110.039 0 1
110.155 0 1
110.27 0 1
110.386 0 1
110.502 0 1
110.618 300 17.3205
110.735 337 18.3576
110.851 444 21.0713
110.967 472 21.7256
111.083 573 23.9374
111.199 607 24.6374
111.316 671 25.9037
111.432 646 25.4165
111.549 730 27.0185
111.665 715 26.7395
111.782 722 26.8701
111.898 771 27.7669
112.015 746 27.313
112.132 749 27.3679
112.248 705 26.5518
112.365 626 25.02
112.482 538 23.1948
112.599 559 23.6432
112.716 528 22.9783
112.832 518 22.7596
112.949 635 25.1992
113.066 663 25.7488
113.183 706 26.5707
113.3 718 26.7955
113.417 768 27.7128
113.534 692 26.3059
113.652 725 26.9258
113.769 657 25.632
113.886 566 23.7908
114.003 536 23.1517
114.12 506 22.4944
114.238 534 23.1084
114.355 599 24.4745
114.472 592 24.3311
114.589 582 24.1247
114.707 550 23.4521
114.824 598 24.454
114.942 549 23.4307
115.059 569 23.8537
115.176 564 23.7487
115.294 532 23.0651
115.411 494 22.2261
115.529 486 22.0454
115.646 484 22
115.764 477 21.8403
115.881 450 21.2132
115.999 370 19.2354
116.116 337 18.3576
116.234 333 18.2483
116.351 359 18.9473
116.469 404 20.0998
116.586 396 19.8997
116.704 476 21.8174
116.821 458 21.4009
116.939 452 21.2603
117.056 469 21.6564
117.174 428 20.6882
117.291 425 20.6155
117.409 376 19.3907
117.526 386 19.6469
117.644 327 18.0831
117.761 366 19.1311
117.879 362 19.0263
117.996 336 18.3303
118.114 397 19.9249
118.231 404 20.0998
118.349 382 19.5448
118.466 417 20.4206
118.584 403 20.0749
118.701 408 20.199
118.819 377 19.4165
118.936 348 18.6548
119.053 375 19.3649
119.171 324 18
119.288 307 17.5214
119.405 291 17.0587
119.523 271 16.4621
119.64 264 16.2481
119.757 268 16.3707
119.875 247 15.7162
119.992 244 15.6205
120.109 261 16.1555
120.226 297 17.2337
120.343 299 17.2916
120.46 295 17.1756
120.578 323 17.9722
120.695 337 18.3576
120.812 310 17.6068
120.929 294 17.1464
121.046 264 16.2481
121.163 257 16.0312
121.279 236 15.3623
121.396 218 14.7648
121.513 224 14.9666
121.63 236 15.3623
121.747 237 15.3948
121.863 255 15.9687
121.98 247 15.7162
122.097 253 15.906
122.213 269 16.4012
122.33 239 15.4596
122.446 269 16.4012
122.563 231 15.1987
122.679 246 15.6844
122.795 217 14.7309
122.912 195 13.9642
123.028 190 13.784
123.144 146 12.083
123.26 115 10.7238
123.377 0 1
123.493 0 1
123.609 0 1
123.725 0 1
123.84 0 1
123.956 0 1
124.072 0 1
124.188 0 1
124.303 0 1
124.419 0 1
126.852 0 1
126.968 0 1
127.083 0 1
127.199 0 1
127.315 0 1
127.431 0 1
127.547 0 1
127.663 0 1
127.779 0 1
127.895 0 1
128.011 0 1
128.127 0 1
128.243 0 1
128.359 360 18.9737
128.476 391 19.7737
128.592 398 19.9499
128.708 380 19.4936
128.825 377 19.4165
128.941 386 19.6469
129.058 403 20.0749
129.174 400 20
129.291 445 21.095
129.408 455 21.3307
129.524 455 21.3307
129.641 469 21.6564
129.758 513 22.6495
129.875 517 22.7376
129.992 411 20.2731
130.108 391 19.7737
130.225 334 18.2757
130.342 347 18.6279
130.459 313 17.6918
130.576 400 20
130.693 418 20.445
130.81 429 20.7123
130.928 499 22.3383
131.045 459 21.4243
131.162 439 20.9523
131.279 492 22.1811
131.396 501 22.383
131.513 476 21.8174
131.631 443 21.0476
131.748 479 21.8861
131.865 434 20.8327
131.983 462 21.4942
132.1 431 20.7605
132.217 423 20.567
132.335 362 19.0263
132.452 379 19.4679
132.57 401 20.025
132.687 435 20.8567
132.804 443 21.0476
132.922 462 21.4942
133.039 456 21.3542
133.157 458 21.4009
133.274 440 20.9762
133.392 434 20.8327
133.509 410 20.2485
133.627 369 19.2094
133.744 376 19.3907
133.862 349 18.6815
133.979 291 17.0587
134.097 397 19.9249
134.214 413 20.3224
134.332 420 20.4939
134.449 430 20.7364
134.567 431 20.7605
134.684 447 21.1424
134.802 440 20.9762
134.919 465 21.5639
135.037 449 21.1896
135.154 439 20.9523
135.272 427 20.664
135.389 444 21.0713
135.507 418 20.445
135.624 387 19.6723
135.742 381 19.5192
135.859 366 19.1311
135.977 344 18.5472
136.094 388 19.6977
136.211 387 19.6723
136.329 402 20.0499
136.446 382 19.5448
136.564 428 20.6882
136.681 414 20.347
136.798 450 21.2132
136.915 452 21.2603
137.033 405 20.1246
137.15 385 19.6214
137.267 355 18.8414
137.384 307 17.5214
137.502 309 17.5784
137.619 290 17.0294
137.736 352 18.7617
137.853 351 18.735
137.97 357 18.8944
138.087 391 19.7737
138.204 399 19.975
138.321 398 19.9499
138.438 401 20.025
138.555 393 19.8242
138.672 407 20.1742
138.788 378 19.4422
138.905 331 18.1934
139.022 337 18.3576
139.139 343 18.5203
139.255 276 16.6132
139.372 312 17.6635
139.488 305 17.4642
139.605 222 14.8997
139.721 244 15.6205
139.838 206 14.3527
139.954 207 14.3875
140.071 196 14
140.187 233 15.2643
140.303 198 14.0712
140.419 160 12.6491
140.535 159 12.6095
140.652 148 12.1655
140.768 0 1
140.884 0 1
141 0 1
141.115 0 1
141.231 0 1
141.347 0 1
141.463 0 1
141.578 0 1
141.694 0 1
144.104 0 1
144.219 0 1
144.335 0 1
144.45 0 1
144.566 0 1
144.682 0 1
144.798 0 1
144.914 0 1
145.03 0 1
145.146 212 14.5602
145.262 189 13.7477
145.378 229 15.1327
145.494 233 15.2643
145.61 232 15.2315
145.726 220 14.8324
145.842 208 14.4222
145.959 218 14.7648
146.075 209 14.4568
146.192 235 15.3297
146.308 190 13.784
146.425 201 14.1774
146.541 218 14.7648
146.658 185 13.6015
146.774 204 14.2829
146.891 241 15.5242
147.008 241 15.5242
147.125 246 15.6844
147.241 233 15.2643
147.358 228 15.0997
147.475 277 16.6433
147.592 245 15.6525
147.709 223 14.9332
147.826 261 16.1555
147.943 223 14.9332
148.06 216 14.6969
148.177 232 15.2315
148.294 196 14
148.411 225 15
148.528 244 15.6205
148.645 248 15.748
148.762 230 15.1658
148.88 254 15.9374
148.997 251 15.843
149.114 308 17.5499
149.231 313 17.6918
149.349 270 16.4317
149.466 274 16.5529
149.583 313 17.6918
149.701 247 15.7162
149.818 227 15.0665
149.935 211 14.5258
150.053 209 14.4568
150.17 195 13.9642
150.287 254 15.9374
150.405 262 16.1864
150.522 219 14.7986
150.64 252 15.8745
150.757 287 16.9411
150.875 242 15.5563
150.992 274 16.5529
151.11 294 17.1464
151.227 237 15.3948
151.344 255 15.9687
151.462 250 15.8114
151.579 224 14.9666
151.697 242 15.5563
151.814 249 15.7797
151.932 224 14.9666
152.049 214 14.6287
152.167 226 15.0333
152.284 232 15.2315
152.402 273 16.5227
152.519 243 15.5885
152.636 300 17.3205
152.754 281 16.7631
152.871 263 16.2173
152.989 266 16.3095
153.106 261 16.1555
153.223 240 15.4919
153.341 220 14.8324
153.458 225 15
153.575 216 14.6969
153.693 204 14.2829
153.81 232 15.2315
153.927 257 16.0312
154.044 225 15
154.162 259 16.0935
154.279 286 16.9115
154.396 257 16.0312
154.513 228 15.0997
154.63 280 16.7332
154.747 257 16.0312
154.864 287 16.9411
154.981 245 15.6525
155.098 237 15.3948
155.215 203 14.2478
155.332 219 14.7986
155.449 217 14.7309
155.566 176 13.2665
155.683 223 14.9332
155.8 246 15.6844
155.917 202 14.2127
156.033 207 14.3875
156.15 0 1
156.267 0 1
156.383 0 1
156.5 0 1
156.617 0 1
156.733 0 1
156.85 0 1
156.966 0 1
157.082 0 1
157.199 0 1
157.315 0 1
157.431 0 1
157.547 0 1
157.664 0 1
157.78 0 1
157.896 0 1
158.012 0 1
158.128 0 1
158.244 0 1
158.359 0 1
158.475 0 1
158.591 0 1
158.706 0 1
