
6.15755 0 1
6.2731 0 1
6.3887 0 1
6.50437 0 1
6.62009 0 1
6.73587 0 1
6.8517 0 1
6.96759 0 1
7.08353 0 1
7.19952 0 1
7.31557 0 1
7.43166 0 1
7.54781 0 1
7.664 0 1
7.78024 0 1
7.89653 0 1
8.01286 0 1
8.12924 0 1
8.24567 0 1
8.36213 0 1
8.47864 0 1
8.59519 0 1
8.71178 0 1
8.82841 0 1
8.94508 0 1
9.06179 0 1
9.17853 0 1
9.29531 0 1
9.41212 0 1
9.52897 0 1
9.64584 0 1
9.76276 0 1
9.8797 0 1
9.99667 0 1
10.1137 0 1
10.2307 0 1
10.3478 0 1
10.4648 0 1
10.5819 0 1
10.6991 0 1
10.8162 0 1
10.9334 0 1
11.0506 0 1
11.1678 0 1
11.285 0 1
11.4023 0 1
11.5196 0 1
11.6369 0 1
11.7542 0 1
11.8715 0 1
11.9888 0 1
12.1062 0 1
12.2235 0 1
12.3409 0 1
12.4582 0 1
12.5756 0 1
12.693 0 1
12.8104 0 1
12.9278 0 1
13.0452 0 1
13.1626 0 1
13.28 0 1
13.3974 0 1
13.5149 0 1
13.6323 0 1
13.7497 0 1
13.8671 0 1
13.9845 0 1
14.1019 0 1
14.2193 0 1
14.3367 0 1
14.4541 0 1
14.5714 0 1
14.6888 0 1
14.8062 0 1
14.9235 0 1
15.0408 992 31.496
15.1581 1019 31.9218
15.2755 1051 32.4191
15.3927 1005 31.7017
15.51 998 31.5911
15.6273 1019 31.9218
15.7445 944 30.7246
15.8617 1016 31.8748
15.9789 939 30.6431
16.0961 942 30.692
16.2132 922 30.3645
16.3304 900 30
16.4475 950 30.8221
16.5646 902 30.0333
16.6816 889 29.8161
16.7986 896 29.9333
16.9156 885 29.7489
17.0326 869 29.4788
17.1496 872 29.5296
17.2665 865 29.4109
17.3833 824 28.7054
17.5002 890 29.8329
17.617 822 28.6705
17.7338 923 30.3809
17.8505 946 30.7571
17.9672 871 29.5127
18.0839 838 28.9482
18.2005 827 28.7576
18.3171 835 28.8964
18.4337 852 29.189
18.5502 852 29.189
18.6666 872 29.5296
18.7831 899 29.9833
18.8994 808 28.4253
19.0158 793 28.1603
19.1321 761 27.5862
19.2483 791 28.1247
19.3645 716 26.7582
19.4806 708 26.6083
19.5967 670 25.8844
19.7128 626 25.02
19.8288 597 24.4336
19.9447 596 24.4131
20.0606 0 1
20.1764 0 1
20.2922 0 1
20.4079 0 1
20.5236 0 1
20.6392 0 1
20.7548 0 1
20.8702 0 1
23.3078 0 1
23.4233 0 1
23.539 0 1
23.6547 0 1
23.7704 0 1
23.8862 0 1
24.0021 0 1
24.118 0 1
24.234 0 1
24.35 0 1
24.4661 625 25
24.5822 719 26.8142
24.6984 797 28.2312
24.8146 872 29.5296
24.9309 878 29.6311
25.0472 851 29.1719
25.1636 833 28.8617
25.28 845 29.0689
25.3965 869 29.4788
25.513 917 30.282
25.6296 947 30.7734
25.7462 963 31.0322
25.8628 924 30.3974
25.9795 858 29.2916
26.0962 858 29.2916
26.213 862 29.3598
26.3298 885 29.7489
26.4466 819 28.6182
26.5635 800 28.2843
26.6804 797 28.2312
26.7973 685 26.1725
26.9143 696 26.3818
27.0313 665 25.7876
27.1483 733 27.074
27.2653 761 27.5862
27.3824 747 27.3313
27.4996 798 28.2489
27.6167 723 26.8887
27.7339 793 28.1603
27.8511 752 27.4226
27.9683 758 27.5318
28.0855 763 27.6225
28.2028 751 27.4044
28.3201 819 28.6182
28.4374 818 28.6007
28.5547 831 28.8271
28.6721 827 28.7576
28.7894 755 27.4773
28.9068 802 28.3196
29.0242 808 28.4253
29.1416 865 29.4109
29.259 783 27.9821
29.3764 754 27.4591
29.4939 709 26.6271
29.6113 744 27.2764
29.7288 737 27.1477
29.8463 784 28
29.9638 744 27.2764
30.0812 662 25.7294
30.1987 682 26.1151
30.3162 651 25.5147
30.4337 676 26
30.5512 707 26.5895
30.6687 709 26.6271
30.7862 737 27.1477
30.9037 800 28.2843
31.0212 795 28.1957
31.1387 758 27.5318
31.2562 739 27.1846
31.3737 742 27.2397
31.4912 760 27.5681
31.6087 743 27.258
31.7262 677 26.0192
31.8436 762 27.6043
31.9611 704 26.533
32.0785 777 27.8747
32.1959 718 26.7955
32.3134 720 26.8328
32.4308 714 26.7208
32.5482 736 27.1293
32.6655 686 26.1916
32.7829 685 26.1725
32.9002 643 25.3574
33.0176 671 25.9037
33.1349 672 25.923
33.2522 662 25.7294
33.3694 651 25.5147
33.4867 644 25.3772
33.6039 654 25.5734
33.7211 665 25.7876
33.8383 641 25.318
33.9554 631 25.1197
34.0725 641 25.318
34.1896 705 26.5518
34.3067 692 26.3059
34.4237 693 26.3249
34.5407 736 27.1293
34.6577 716 26.7582
34.7746 675 25.9808
34.8915 663 25.7488
35.0084 675 25.9808
35.1252 636 25.219
35.242 647 25.4362
35.3587 637 25.2389
35.4755 623 24.96
35.5921 639 25.2784
35.7088 652 25.5343
35.8254 657 25.632
35.9419 656 25.6125
36.0584 658 25.6515
36.1749 673 25.9422
36.2913 627 25.04
36.4077 678 26.0384
36.524 580 24.0832
36.6403 618 24.8596
36.7565 569 23.8537
36.8727 543 23.3024
36.9889 524 22.891
37.1049 389 19.7231
37.221 0 1
37.3369 0 1
37.4529 0 1
37.5687 0 1
37.6845 0 1
37.8003 0 1
37.916 0 1
38.0316 0 1
38.1472 0 1
40.5851 0 1
40.7008 0 1
40.8164 0 1
40.9322 0 1
41.048 0 1
41.1639 0 1
41.2798 0 1
41.3958 0 1
41.5118 0 1
41.6279 0 1
41.744 290 17.0294
41.8602 339 18.412
41.9765 404 20.0998
42.0928 402 20.0499
42.2091 475 21.7945
42.3255 505 22.4722
42.4419 559 23.6432
42.5584 511 22.6053
42.675 527 22.9565
42.7915 541 23.2594
42.9081 516 22.7156
43.0248 579 24.0624
43.1415 602 24.5357
43.2582 540 23.2379
43.375 514 22.6716
43.4918 510 22.5832
43.6087 540 23.2379
43.7256 532 23.0651
43.8425 484 22
43.9595 470 21.6795
44.0765 520 22.8035
44.1935 541 23.2594
44.3106 537 23.1733
44.4277 510 22.5832
44.5448 528 22.9783
44.6619 511 22.6053
44.7791 533 23.0868
44.8963 538 23.1948
45.0136 550 23.4521
45.1308 579 24.0624
45.2481 544 23.3238
45.3654 568 23.8328
45.4827 580 24.0832
45.6001 557 23.6008
45.7174 560 23.6643
45.8348 562 23.7065
45.9522 581 24.1039
46.0697 541 23.2594
46.1871 524 22.891
46.3046 510 22.5832
46.422 538 23.1948
46.5395 577 24.0208
46.657 535 23.1301
46.7745 507 22.5167
46.892 553 23.516
47.0096 502 22.4054
47.1271 532 23.0651
47.2446 511 22.6053
47.3622 501 22.383
47.4797 476 21.8174
47.5973 472 21.7256
47.7149 485 22.0227
47.8324 488 22.0907
47.95 510 22.5832
48.0675 527 22.9565
48.1851 533 23.0868
48.3027 553 23.516
48.4202 541 23.2594
48.5378 545 23.3452
48.6554 563 23.7276
48.7729 604 24.5764
48.8904 608 24.6577
49.008 624 24.98
49.1255 593 24.3516
49.243 615 24.7992
49.3605 595 24.3926
49.478 540 23.2379
49.5955 547 23.388
49.713 513 22.6495
49.8304 513 22.6495
49.9479 526 22.9347
50.0653 545 23.3452
50.1827 599 24.4745
50.3001 647 25.4362
50.4175 566 23.7908
50.5348 596 24.4131
50.6521 587 24.2281
50.7694 576 24
50.8867 542 23.2809
51.004 535 23.1301
51.1212 463 21.5174
51.2384 526 22.9347
51.3556 519 22.7816
51.4727 543 23.3024
51.5899 575 23.9792
51.707 572 23.9165
51.824 618 24.8596
51.9411 668 25.8457
52.0581 684 26.1534
52.175 720 26.8328
52.2919 785 28.0179
52.4088 777 27.8747
52.5257 754 27.4591
52.6425 691 26.2869
52.7593 752 27.4226
52.876 732 27.0555
52.9927 727 26.9629
53.1094 705 26.5518
53.226 699 26.4386
53.3426 673 25.9422
53.4591 863 29.3769
53.5756 1229 35.0571
53.692 1811 42.5558
53.8084 2587 50.8626
53.9248 3457 58.7963
54.0411 4411 66.4154
54.1573 4778 69.1231
54.2735 0 1
54.3896 0 1
54.5057 0 1
54.6217 0 1
54.7377 0 1
54.8537 0 1
54.9695 0 1
55.0853 0 1
55.2011 0 1
55.3168 0 1
55.4324 0 1
57.824 0 1
57.9396 0 1
58.0553 0 1
58.1711 0 1
58.2869 0 1
58.4028 0 1
58.5187 0 1
58.6347 0 1
58.7508 0 1
58.8669 0 1
58.983 3422 58.4979
59.0992 4084 63.9062
59.2155 4417 66.4605
59.3318 4621 67.9779
59.4482 4799 69.2748
59.5646 5002 70.7248
59.681 4969 70.4911
59.7975 4822 69.4406
59.9141 4472 66.873
60.0306 3676 60.63
60.1473 2848 53.3667
60.2639 2298 47.9375
60.3807 1889 43.4626
60.4974 1905 43.6463
60.6142 1747 41.7971
60.731 1756 41.9047
60.8479 1690 41.1096
60.9648 1582 39.7744
61.0818 1457 38.1707
61.1987 1360 36.8782
61.3158 1272 35.6651
61.4328 1119 33.4515
61.5499 1111 33.3317
61.667 957 30.9354
61.7841 933 30.545
61.9013 925 30.4138
62.0185 846 29.0861
62.1357 837 28.931
62.253 832 28.8444
62.3702 804 28.3549
62.4875 807 28.4077
62.6049 820 28.6356
62.7222 824 28.7054
62.8396 738 27.1662
62.9569 729 27
63.0743 713 26.7021
63.1918 723 26.8887
63.3092 639 25.2784
63.4267 634 25.1794
63.5441 610 24.6982
63.6616 610 24.6982
63.7791 594 24.3721
63.8966 607 24.6374
64.0142 609 24.6779
64.1317 618 24.8596
64.2492 614 24.779
64.3668 633 25.1595
64.4843 632 25.1396
64.6019 641 25.318
64.7195 608 24.6577
64.837 598 24.454
64.9546 567 23.8118
65.0722 600 24.4949
65.1898 619 24.8797
65.3074 613 24.7588
65.4249 590 24.2899
65.5425 598 24.454
65.6601 586 24.2074
65.7777 566 23.7908
65.8952 597 24.4336
66.0128 597 24.4336
66.1304 606 24.6171
66.2479 563 23.7276
66.3655 573 23.9374
66.483 595 24.3926
66.6005 632 25.1396
66.718 609 24.6779
66.8355 536 23.1517
66.953 565 23.7697
67.0705 603 24.5561
67.1879 593 24.3516
67.3054 589 24.2693
67.4228 574 23.9583
67.5402 619 24.8797
67.6576 542 23.2809
67.7749 607 24.6374
67.8923 604 24.5764
68.0096 586 24.2074
68.1269 560 23.6643
68.2442 559 23.6432
68.3614 570 23.8747
68.4787 596 24.4131
68.5958 572 23.9165
68.713 617 24.8395
68.8302 601 24.5153
68.9473 547 23.388
69.0643 627 25.04
69.1814 538 23.1948
69.2984 596 24.4131
69.4154 545 23.3452
69.5323 601 24.5153
69.6492 577 24.0208
69.7661 594 24.3721
69.8829 622 24.9399
69.9997 566 23.7908
70.1165 577 24.0208
70.2332 551 23.4734
70.3499 549 23.4307
70.4665 500 22.3607
70.5831 510 22.5832
70.6996 458 21.4009
70.8161 461 21.4709
70.9326 388 19.6977
71.049 332 18.2209
71.1653 325 18.0278
71.2817 297 17.2337
71.3979 279 16.7033
71.5141 261 16.1555
71.6303 289 17
71.7464 196 14
71.8624 0 1
71.9784 0 1
72.0944 0 1
72.2102 0 1
72.3261 0 1
72.4418 0 1
72.5575 0 1
72.6732 0 1
75.1054 0 1
75.2209 0 1
75.3365 0 1
75.4521 0 1
75.5678 0 1
75.6835 0 1
75.7993 0 1
75.9151 0 1
76.031 0 1
76.147 325 18.0278
76.263 376 19.3907
76.3791 427 20.664
76.4952 451 21.2368
76.6113 469 21.6564
76.7276 447 21.1424
76.8438 446 21.1187
76.9601 483 21.9773
77.0765 476 21.8174
77.1929 472 21.7256
77.3093 485 22.0227
77.4258 529 23
77.5423 488 22.0907
77.6589 516 22.7156
77.7755 479 21.8861
77.8921 522 22.8473
78.0088 488 22.0907
78.1256 476 21.8174
78.2423 465 21.5639
78.3591 475 21.7945
78.4759 458 21.4009
78.5928 492 22.1811
78.7097 497 22.2935
78.8266 430 20.7364
78.9436 468 21.6333
79.0606 459 21.4243
79.1776 457 21.3776
79.2946 536 23.1517
79.4117 491 22.1585
79.5288 448 21.166
79.6459 487 22.0681
79.7631 550 23.4521
79.8802 465 21.5639
79.9974 508 22.5389
80.1147 483 21.9773
80.2319 454 21.3073
80.3491 453 21.2838
80.4664 497 22.2935
80.5837 474 21.7715
80.701 519 22.7816
80.8183 519 22.7816
80.9357 521 22.8254
81.053 481 21.9317
81.1704 498 22.3159
81.2877 486 22.0454
81.4051 516 22.7156
81.5225 503 22.4277
81.6399 491 22.1585
81.7573 538 23.1948
81.8747 493 22.2036
81.9922 514 22.6716
82.1096 537 23.1733
82.227 554 23.5372
82.3444 451 21.2368
82.4619 469 21.6564
82.5793 466 21.587
82.6967 480 21.9089
82.8142 493 22.2036
82.9316 518 22.7596
83.049 514 22.6716
83.1664 524 22.891
83.2838 522 22.8473
83.4012 513 22.6495
83.5186 553 23.516
83.636 528 22.9783
83.7534 515 22.6936
83.8708 496 22.2711
83.9881 496 22.2711
84.1055 513 22.6495
84.2228 476 21.8174
84.3401 494 22.2261
84.4575 533 23.0868
84.5747 485 22.0227
84.692 535 23.1301
84.8093 507 22.5167
84.9265 523 22.8692
85.0437 517 22.7376
85.1609 499 22.3383
85.2781 482 21.9545
85.3952 502 22.4054
85.5123 516 22.7156
85.6294 503 22.4277
85.7465 527 22.9565
85.8636 520 22.8035
85.9806 483 21.9773
86.0976 462 21.4942
86.2145 526 22.9347
86.3315 497 22.2935
86.4484 519 22.7816
86.5652 493 22.2036
86.682 524 22.891
86.7988 501 22.383
86.9156 519 22.7816
87.0323 560 23.6643
87.149 565 23.7697
87.2657 549 23.4307
87.3823 445 21.095
87.4988 467 21.6102
87.6154 480 21.9089
87.7318 428 20.6882
87.8483 450 21.2132
87.9647 452 21.2603
88.081 354 18.8149
88.1973 336 18.3303
88.3136 350 18.7083
88.4298 341 18.4662
88.546 330 18.1659
88.6621 322 17.9444
88.7781 297 17.2337
88.8942 0 1
89.0101 0 1
89.126 0 1
89.2419 0 1
89.3577 0 1
89.4734 0 1
89.5891 0 1
89.7047 0 1
89.8203 0 1
89.9358 0 1
92.3269 0 1
92.4424 0 1
92.558 0 1
92.6736 0 1
92.7893 0 1
92.905 0 1
93.0208 0 1
93.1366 0 1
93.2525 0 1
93.3685 0 1
93.4845 0 1
93.6005 366 19.1311
93.7167 430 20.7364
93.8328 458 21.4009
93.949 471 21.7025
94.0653 503 22.4277
94.1816 518 22.7596
94.2979 503 22.4277
94.4143 524 22.891
94.5307 555 23.5584
94.6472 576 24
94.7637 483 21.9773
94.8803 545 23.3452
94.9969 481 21.9317
95.1135 463 21.5174
95.2302 471 21.7025
95.3469 470 21.6795
95.4637 476 21.8174
95.5805 535 23.1301
95.6973 522 22.8473
95.8142 558 23.622
95.9311 548 23.4094
96.048 533 23.0868
96.1649 558 23.622
96.2819 538 23.1948
96.3989 543 23.3024
96.516 481 21.9317
96.633 534 23.1084
96.7501 496 22.2711
96.8673 516 22.7156
96.9844 499 22.3383
97.1016 490 22.1359
97.2188 538 23.1948
97.336 543 23.3024
97.4532 538 23.1948
97.5704 529 23
97.6877 551 23.4734
97.805 554 23.5372
97.9223 514 22.6716
98.0396 572 23.9165
98.1569 547 23.388
98.2743 545 23.3452
98.3916 532 23.0651
98.509 516 22.7156
98.6264 503 22.4277
98.7438 511 22.6053
98.8612 460 21.4476
98.9786 549 23.4307
99.096 587 24.2281
99.2134 546 23.3666
99.3308 591 24.3105
99.4482 568 23.8328
99.5656 616 24.8193
99.6831 606 24.6171
99.8005 564 23.7487
99.9179 562 23.7065
100.035 579 24.0624
100.153 578 24.0416
100.27 558 23.622
100.388 514 22.6716
100.505 546 23.3666
100.622 491 22.1585
100.74 579 24.0624
100.857 542 23.2809
100.975 533 23.0868
101.092 513 22.6495
101.209 596 24.4131
101.327 602 24.5357
101.444 705 26.5518
101.561 642 25.3377
101.679 696 26.3818
101.796 627 25.04
101.913 680 26.0768
102.03 601 24.5153
102.148 615 24.7992
102.265 599 24.4745
102.382 614 24.779
102.499 559 23.6432
102.616 627 25.04
102.733 592 24.3311
102.851 648 25.4558
102.968 660 25.6905
103.085 714 26.7208
103.202 725 26.9258
103.319 710 26.6458
103.436 694 26.3439
103.552 687 26.2107
103.669 722 26.8701
103.786 649 25.4755
103.903 698 26.4197
104.02 756 27.4955
104.137 717 26.7769
104.253 774 27.8209
104.37 836 28.9137
104.487 886 29.7658
104.603 891 29.8496
104.72 921 30.348
104.836 941 30.6757
104.953 914 30.2324
105.069 963 31.0322
105.186 1015 31.8591
105.302 1006 31.7175
105.418 886 29.7658
105.535 835 28.8964
105.651 680 26.0768
105.767 666 25.807
105.883 639 25.2784
105.999 608 24.6577
106.115 0 1
106.231 0 1
106.347 0 1
106.463 0 1
106.579 0 1
106.694 0 1
106.81 0 1
106.926 0 1
107.041 0 1
107.157 0 1
109.576 0 1
109.692 0 1
109.807 0 1
109.923 0 1
110.039 0 1
110.155 0 1
110.27 0 1
110.386 0 1
110.502 0 1
110.618 473 21.7486
110.735 539 23.2164
110.851 658 25.6515
110.967 532 23.0651
111.083 572 23.9165
111.199 683 26.1343
111.316 776 27.8568
111.432 750 27.3861
111.549 856 29.2575
111.665 871 29.5127
111.782 835 28.8964
111.898 892 29.8664
112.015 984 31.3688
112.132 995 31.5436
112.248 1001 31.6386
112.365 962 31.0161
112.482 802 28.3196
112.599 809 28.4429
112.716 849 29.1376
112.832 876 29.5973
112.949 1101 33.1813
113.066 1381 37.1618
113.183 1405 37.4833
113.3 1552 39.3954
113.417 1644 40.5463
113.534 1732 41.6173
113.652 1713 41.3884
113.769 1736 41.6653
113.886 1821 42.6732
114.003 1811 42.5558
114.12 1713 41.3884
114.238 1657 40.7063
114.355 1560 39.4968
114.472 1430 37.8153
114.589 1124 33.5261
114.707 1104 33.2265
114.824 1263 35.5387
114.942 1267 35.5949
115.059 1251 35.3695
115.176 1217 34.8855
115.294 1063 32.6037
115.411 953 30.8707
115.529 779 27.9106
115.646 577 24.0208
115.764 576 24
115.881 522 22.8473
115.999 481 21.9317
116.116 485 22.0227
116.234 454 21.3073
116.351 495 22.2486
116.469 445 21.095
116.586 479 21.8861
116.704 469 21.6564
116.821 500 22.3607
116.939 475 21.7945
117.056 524 22.891
117.174 502 22.4054
117.291 536 23.1517
117.409 514 22.6716
117.526 516 22.7156
117.644 525 22.9129
117.761 508 22.5389
117.879 505 22.4722
117.996 426 20.6398
118.114 416 20.3961
118.231 426 20.6398
118.349 466 21.587
118.466 480 21.9089
118.584 468 21.6333
118.701 482 21.9545
118.819 506 22.4944
118.936 461 21.4709
119.053 488 22.0907
119.171 500 22.3607
119.288 481 21.9317
119.405 430 20.7364
119.523 409 20.2237
119.64 384 19.5959
119.757 429 20.7123
119.875 409 20.2237
119.992 434 20.8327
120.109 444 21.0713
120.226 446 21.1187
120.343 431 20.7605
120.46 453 21.2838
120.578 445 21.095
120.695 489 22.1133
120.812 460 21.4476
120.929 515 22.6936
121.046 489 22.1133
121.163 443 21.0476
121.279 476 21.8174
121.396 412 20.2978
121.513 396 19.8997
121.63 413 20.3224
121.747 324 18
121.863 378 19.4422
121.98 382 19.5448
122.097 381 19.5192
122.213 376 19.3907
122.33 372 19.2873
122.446 366 19.1311
122.563 369 19.2094
122.679 334 18.2757
122.795 337 18.3576
122.912 297 17.2337
123.028 276 16.6132
123.144 257 16.0312
123.26 215 14.6629
123.377 0 1
123.493 0 1
123.609 0 1
123.725 0 1
123.84 0 1
123.956 0 1
124.072 0 1
124.188 0 1
124.303 0 1
124.419 0 1
126.852 0 1
126.968 0 1
127.083 0 1
127.199 0 1
127.315 0 1
127.431 0 1
127.547 0 1
127.663 0 1
127.779 0 1
127.895 0 1
128.011 0 1
128.127 0 1
128.243 0 1
128.359 455 21.3307
128.476 495 22.2486
128.592 461 21.4709
128.708 451 21.2368
128.825 480 21.9089
128.941 454 21.3073
129.058 492 22.1811
129.174 506 22.4944
129.291 524 22.891
129.408 500 22.3607
129.524 505 22.4722
129.641 498 22.3159
129.758 580 24.0832
129.875 518 22.7596
129.992 563 23.7276
130.108 582 24.1247
130.225 611 24.7184
130.342 598 24.454
130.459 589 24.2693
130.576 519 22.7816
130.693 545 23.3452
130.81 509 22.561
130.928 519 22.7816
131.045 578 24.0416
131.162 696 26.3818
131.279 725 26.9258
131.396 735 27.1109
131.513 726 26.9444
131.631 786 28.0357
131.748 808 28.4253
131.865 835 28.8964
131.983 915 30.249
132.1 892 29.8664
132.217 921 30.348
132.335 916 30.2655
132.452 953 30.8707
132.57 1085 32.9393
132.687 1107 33.2716
132.804 1175 34.2783
132.922 1204 34.6987
133.039 1276 35.7211
133.157 1279 35.7631
133.274 1253 35.3977
133.392 1284 35.8329
133.509 1328 36.4417
133.627 1262 35.5246
133.744 1313 36.2353
133.862 1298 36.0278
133.979 1301 36.0694
134.097 1218 34.8999
134.214 1121 33.4813
134.332 1071 32.7261
134.449 1046 32.3419
134.567 1120 33.4664
134.684 1175 34.2783
134.802 1203 34.6843
134.919 1269 35.623
135.037 1275 35.7071
135.154 1278 35.7491
135.272 1293 35.9583
135.389 1241 35.2278
135.507 1258 35.4683
135.624 1166 34.1467
135.742 1209 34.7707
135.859 1119 33.4515
135.977 1226 35.0143
136.094 1192 34.5254
136.211 1232 35.0999
136.329 1224 34.9857
136.446 1237 35.171
136.564 1224 34.9857
136.681 1274 35.6931
136.798 1281 35.7911
136.915 1243 35.2562
137.033 1246 35.2987
137.15 1222 34.9571
137.267 1300 36.0555
137.384 1296 36
137.502 1221 34.9428
137.619 1249 35.3412
137.736 1058 32.5269
137.853 991 31.4802
137.97 1059 32.5423
138.087 1037 32.2025
138.204 995 31.5436
138.321 1115 33.3916
138.438 1150 33.9116
138.555 1205 34.7131
138.672 1205 34.7131
138.788 1199 34.6266
138.905 1172 34.2345
139.022 1162 34.0881
139.139 1106 33.2566
139.255 1116 33.4066
139.372 1022 31.9687
139.488 852 29.189
139.605 905 30.0832
139.721 874 29.5635
139.838 817 28.5832
139.954 810 28.4605
140.071 760 27.5681
140.187 766 27.6767
140.303 672 25.923
140.419 638 25.2587
140.535 639 25.2784
140.652 628 25.0599
140.768 0 1
140.884 0 1
141 0 1
141.115 0 1
141.231 0 1
141.347 0 1
141.463 0 1
141.578 0 1
141.694 0 1
144.104 0 1
144.219 0 1
144.335 0 1
144.45 0 1
144.566 0 1
144.682 0 1
144.798 0 1
144.914 0 1
145.03 0 1
145.146 908 30.133
145.262 991 31.4802
145.378 1023 31.9844
145.494 1060 32.5576
145.61 1068 32.6803
145.726 1052 32.4345
145.842 1080 32.8634
145.959 1139 33.7491
146.075 1131 33.6303
146.192 1099 33.1512
146.308 1109 33.3017
146.425 1104 33.2265
146.541 1082 32.8938
146.658 1018 31.9061
146.774 964 31.0483
146.891 982 31.3369
147.008 1121 33.4813
147.125 1104 33.2265
147.241 1113 33.3617
147.358 1134 33.6749
147.475 1096 33.1059
147.592 1071 32.7261
147.709 1118 33.4365
147.826 1152 33.9411
147.943 1141 33.7787
148.06 1101 33.1813
148.177 1011 31.7962
148.294 1057 32.5115
148.411 1082 32.8938
148.528 1036 32.187
148.645 1092 33.0454
148.762 1149 33.8969
148.88 1127 33.5708
148.997 1201 34.6554
149.114 1057 32.5115
149.231 1127 33.5708
149.349 1131 33.6303
149.466 1204 34.6987
149.583 1124 33.5261
149.701 1156 34
149.818 1168 34.176
149.935 1149 33.8969
150.053 1143 33.8083
150.17 1112 33.3467
150.287 1028 32.0624
150.405 1029 32.078
150.522 1059 32.5423
150.64 1130 33.6155
150.757 1134 33.6749
150.875 1141 33.7787
150.992 1141 33.7787
151.11 1128 33.5857
151.227 1113 33.3617
151.344 1083 32.909
151.462 1123 33.5112
151.579 1156 34
151.697 1127 33.5708
151.814 1111 33.3317
151.932 1135 33.6898
152.049 1163 34.1028
152.167 1177 34.3074
152.284 1175 34.2783
152.402 1198 34.6121
152.519 1192 34.5254
152.636 1153 33.9559
152.754 1210 34.7851
152.871 1165 34.1321
152.989 1206 34.7275
153.106 1184 34.4093
153.223 1237 35.171
153.341 1255 35.426
153.458 1275 35.7071
153.575 1158 34.0294
153.693 1159 34.0441
153.81 1163 34.1028
153.927 1141 33.7787
154.044 1145 33.8378
154.162 1269 35.623
154.279 1334 36.524
154.396 1346 36.6879
154.513 1395 37.3497
154.63 1414 37.6032
154.747 1503 38.7685
154.864 1576 39.6989
154.981 1742 41.7373
155.098 1803 42.4617
155.215 2048 45.2548
155.332 2251 47.4447
155.449 2283 47.7807
155.566 2555 50.547
155.683 2683 51.7977
155.8 2835 53.2447
155.917 3036 55.0999
156.033 3173 56.3294
156.15 0 1
156.267 0 1
156.383 0 1
156.5 0 1
156.617 0 1
156.733 0 1
156.85 0 1
156.966 0 1
157.082 0 1
157.199 0 1
157.315 0 1
157.431 0 1
157.547 0 1
157.664 0 1
157.78 0 1
157.896 0 1
158.012 0 1
158.128 0 1
158.244 0 1
158.359 0 1
158.475 0 1
158.591 0 1
158.706 0 1
