
6.15755 0 1
6.2731 0 1
6.3887 0 1
6.50437 0 1
6.62009 0 1
6.73587 0 1
6.8517 0 1
6.96759 0 1
7.08353 0 1
7.19952 0 1
7.31557 0 1
7.43166 0 1
7.54781 0 1
7.664 0 1
7.78024 0 1
7.89653 0 1
8.01286 0 1
8.12924 0 1
8.24567 0 1
8.36213 0 1
8.47864 0 1
8.59519 0 1
8.71178 0 1
8.82841 0 1
8.94508 0 1
9.06179 0 1
9.17853 0 1
9.29531 0 1
9.41212 0 1
9.52897 0 1
9.64584 0 1
9.76276 0 1
9.8797 0 1
9.99667 0 1
10.1137 0 1
10.2307 0 1
10.3478 0 1
10.4648 0 1
10.5819 0 1
10.6991 0 1
10.8162 0 1
10.9334 0 1
11.0506 0 1
11.1678 0 1
11.285 0 1
11.4023 0 1
11.5196 0 1
11.6369 0 1
11.7542 0 1
11.8715 0 1
11.9888 0 1
12.1062 0 1
12.2235 0 1
12.3409 0 1
12.4582 0 1
12.5756 0 1
12.693 0 1
12.8104 0 1
12.9278 0 1
13.0452 0 1
13.1626 0 1
13.28 0 1
13.3974 0 1
13.5149 0 1
13.6323 0 1
13.7497 0 1
13.8671 0 1
13.9845 0 1
14.1019 0 1
14.2193 0 1
14.3367 0 1
14.4541 0 1
14.5714 0 1
14.6888 0 1
14.8062 0 1
14.9235 0 1
15.0408 0 0
15.1581 0 0
15.2755 0 0
15.3927 0 0
15.51 0 0
15.6273 0 0
15.7445 0 0
15.8617 0 0
15.9789 0 0
16.0961 0 0
16.2132 0 0
16.3304 0 0
16.4475 0 0
16.5646 0 0
16.6816 0 0
16.7986 0 0
16.9156 0 0
17.0326 0 0
17.1496 0 0
17.2665 0 0
17.3833 0 0
17.5002 0 0
17.617 0 0
17.7338 0 0
17.8505 0 0
17.9672 0 0
18.0839 0 0
18.2005 0 0
18.3171 0 0
18.4337 0 0
18.5502 0 0
18.6666 0 0
18.7831 0 0
18.8994 0 0
19.0158 0 0
19.1321 0 0
19.2483 0 0
19.3645 0 0
19.4806 0 0
19.5967 0 0
19.7128 0 0
19.8288 0 0
19.9447 0 0
20.0606 0 1
20.1764 0 1
20.2922 0 1
20.4079 0 1
20.5236 0 1
20.6392 0 1
20.7548 0 1
20.8702 0 1
23.3078 0 1
23.4233 0 1
23.539 0 1
23.6547 0 1
23.7704 0 1
23.8862 0 1
24.0021 0 1
24.118 0 1
24.234 0 1
24.35 0 1
24.4661 387 19.6723
24.5822 399 19.975
24.6984 418 20.445
24.8146 385 19.6214
24.9309 397 19.9249
25.0472 436 20.8806
25.1636 452 21.2603
25.28 469 21.6564
25.3965 475 21.7945
25.513 430 20.7364
25.6296 436 20.8806
25.7462 434 20.8327
25.8628 465 21.5639
25.9795 447 21.1424
26.0962 435 20.8567
26.213 471 21.7025
26.3298 394 19.8494
26.4466 454 21.3073
26.5635 454 21.3073
26.6804 429 20.7123
26.7973 440 20.9762
26.9143 398 19.9499
27.0313 394 19.8494
27.1483 407 20.1742
27.2653 440 20.9762
27.3824 381 19.5192
27.4996 445 21.095
27.6167 378 19.4422
27.7339 397 19.9249
27.8511 379 19.4679
27.9683 413 20.3224
28.0855 399 19.975
28.2028 410 20.2485
28.3201 395 19.8746
28.4374 395 19.8746
28.5547 384 19.5959
28.6721 392 19.799
28.7894 393 19.8242
28.9068 430 20.7364
29.0242 414 20.347
29.1416 448 21.166
29.259 434 20.8327
29.3764 397 19.9249
29.4939 397 19.9249
29.6113 443 21.0476
29.7288 450 21.2132
29.8463 434 20.8327
29.9638 448 21.166
30.0812 405 20.1246
30.1987 400 20
30.3162 409 20.2237
30.4337 424 20.5913
30.5512 386 19.6469
30.6687 338 18.3848
30.7862 379 19.4679
30.9037 360 18.9737
31.0212 391 19.7737
31.1387 384 19.5959
31.2562 390 19.7484
31.3737 395 19.8746
31.4912 376 19.3907
31.6087 376 19.3907
31.7262 395 19.8746
31.8436 372 19.2873
31.9611 393 19.8242
32.0785 367 19.1572
32.1959 393 19.8242
32.3134 427 20.664
32.4308 392 19.799
32.5482 400 20
32.6655 460 21.4476
32.7829 428 20.6882
32.9002 406 20.1494
33.0176 406 20.1494
33.1349 431 20.7605
33.2522 409 20.2237
33.3694 446 21.1187
33.4867 377 19.4165
33.6039 402 20.0499
33.7211 424 20.5913
33.8383 418 20.445
33.9554 392 19.799
34.0725 408 20.199
34.1896 344 18.5472
34.3067 347 18.6279
34.4237 350 18.7083
34.5407 322 17.9444
34.6577 344 18.5472
34.7746 373 19.3132
34.8915 388 19.6977
35.0084 360 18.9737
35.1252 354 18.8149
35.242 370 19.2354
35.3587 372 19.2873
35.4755 361 19
35.5921 378 19.4422
35.7088 382 19.5448
35.8254 410 20.2485
35.9419 394 19.8494
36.0584 422 20.5426
36.1749 425 20.6155
36.2913 409 20.2237
36.4077 419 20.4695
36.524 380 19.4936
36.6403 381 19.5192
36.7565 409 20.2237
36.8727 411 20.2731
36.9889 411 20.2731
37.1049 376 19.3907
37.221 0 1
37.3369 0 1
37.4529 0 1
37.5687 0 1
37.6845 0 1
37.8003 0 1
37.916 0 1
38.0316 0 1
38.1472 0 1
40.5851 0 1
40.7008 0 1
40.8164 0 1
40.9322 0 1
41.048 0 1
41.1639 0 1
41.2798 0 1
41.3958 0 1
41.5118 0 1
41.6279 0 1
41.744 317 17.8045
41.8602 296 17.2047
41.9765 341 18.4662
42.0928 346 18.6011
42.2091 330 18.1659
42.3255 342 18.4932
42.4419 330 18.1659
42.5584 331 18.1934
42.675 342 18.4932
42.7915 317 17.8045
42.9081 310 17.6068
43.0248 296 17.2047
43.1415 277 16.6433
43.2582 283 16.8226
43.375 272 16.4924
43.4918 325 18.0278
43.6087 312 17.6635
43.7256 308 17.5499
43.8425 273 16.5227
43.9595 310 17.6068
44.0765 280 16.7332
44.1935 287 16.9411
44.3106 301 17.3494
44.4277 325 18.0278
44.5448 347 18.6279
44.6619 333 18.2483
44.7791 307 17.5214
44.8963 324 18
45.0136 305 17.4642
45.1308 312 17.6635
45.2481 300 17.3205
45.3654 278 16.6733
45.4827 289 17
45.6001 270 16.4317
45.7174 284 16.8523
45.8348 297 17.2337
45.9522 260 16.1245
46.0697 237 15.3948
46.1871 296 17.2047
46.3046 272 16.4924
46.422 303 17.4069
46.5395 262 16.1864
46.657 248 15.748
46.7745 219 14.7986
46.892 226 15.0333
47.0096 229 15.1327
47.1271 231 15.1987
47.2446 269 16.4012
47.3622 218 14.7648
47.4797 237 15.3948
47.5973 219 14.7986
47.7149 209 14.4568
47.8324 219 14.7986
47.95 206 14.3527
48.0675 229 15.1327
48.1851 240 15.4919
48.3027 253 15.906
48.4202 241 15.5242
48.5378 233 15.2643
48.6554 241 15.5242
48.7729 224 14.9666
48.8904 250 15.8114
49.008 243 15.5885
49.1255 242 15.5563
49.243 224 14.9666
49.3605 220 14.8324
49.478 244 15.6205
49.5955 221 14.8661
49.713 238 15.4272
49.8304 236 15.3623
49.9479 261 16.1555
50.0653 252 15.8745
50.1827 243 15.5885
50.3001 200 14.1421
50.4175 213 14.5945
50.5348 212 14.5602
50.6521 241 15.5242
50.7694 251 15.843
50.8867 252 15.8745
51.004 229 15.1327
51.1212 240 15.4919
51.2384 246 15.6844
51.3556 275 16.5831
51.4727 271 16.4621
51.5899 268 16.3707
51.707 280 16.7332
51.824 289 17
51.9411 283 16.8226
52.0581 264 16.2481
52.175 269 16.4012
52.2919 291 17.0587
52.4088 314 17.72
52.5257 276 16.6132
52.6425 324 18
52.7593 331 18.1934
52.876 299 17.2916
52.9927 319 17.8606
53.1094 305 17.4642
53.226 282 16.7929
53.3426 351 18.735
53.4591 289 17
53.5756 295 17.1756
53.692 297 17.2337
53.8084 301 17.3494
53.9248 295 17.1756
54.0411 218 14.7648
54.1573 274 16.5529
54.2735 0 1
54.3896 0 1
54.5057 0 1
54.6217 0 1
54.7377 0 1
54.8537 0 1
54.9695 0 1
55.0853 0 1
55.2011 0 1
55.3168 0 1
55.4324 0 1
57.824 0 1
57.9396 0 1
58.0553 0 1
58.1711 0 1
58.2869 0 1
58.4028 0 1
58.5187 0 1
58.6347 0 1
58.7508 0 1
58.8669 0 1
58.983 318 17.8326
59.0992 272 16.4924
59.2155 280 16.7332
59.3318 298 17.2627
59.4482 314 17.72
59.5646 297 17.2337
59.681 330 18.1659
59.7975 317 17.8045
59.9141 317 17.8045
60.0306 307 17.5214
60.1473 343 18.5203
60.2639 359 18.9473
60.3807 348 18.6548
60.4974 321 17.9165
60.6142 339 18.412
60.731 362 19.0263
60.8479 351 18.735
60.9648 325 18.0278
61.0818 338 18.3848
61.1987 319 17.8606
61.3158 311 17.6352
61.4328 330 18.1659
61.5499 284 16.8523
61.667 292 17.088
61.7841 327 18.0831
61.9013 298 17.2627
62.0185 304 17.4356
62.1357 328 18.1108
62.253 303 17.4069
62.3702 300 17.3205
62.4875 280 16.7332
62.6049 275 16.5831
62.7222 267 16.3401
62.8396 282 16.7929
62.9569 258 16.0624
63.0743 273 16.5227
63.1918 290 17.0294
63.3092 276 16.6132
63.4267 313 17.6918
63.5441 343 18.5203
63.6616 324 18
63.7791 301 17.3494
63.8966 278 16.6733
64.0142 276 16.6132
64.1317 269 16.4012
64.2492 316 17.7764
64.3668 275 16.5831
64.4843 277 16.6433
64.6019 273 16.5227
64.7195 303 17.4069
64.837 297 17.2337
64.9546 276 16.6132
65.0722 252 15.8745
65.1898 262 16.1864
65.3074 280 16.7332
65.4249 262 16.1864
65.5425 291 17.0587
65.6601 271 16.4621
65.7777 240 15.4919
65.8952 262 16.1864
66.0128 289 17
66.1304 235 15.3297
66.2479 251 15.843
66.3655 207 14.3875
66.483 237 15.3948
66.6005 215 14.6629
66.718 231 15.1987
66.8355 242 15.5563
66.953 243 15.5885
67.0705 253 15.906
67.1879 243 15.5885
67.3054 255 15.9687
67.4228 263 16.2173
67.5402 246 15.6844
67.6576 257 16.0312
67.7749 252 15.8745
67.8923 253 15.906
68.0096 238 15.4272
68.1269 236 15.3623
68.2442 277 16.6433
68.3614 247 15.7162
68.4787 270 16.4317
68.5958 261 16.1555
68.713 255 15.9687
68.8302 244 15.6205
68.9473 231 15.1987
69.0643 230 15.1658
69.1814 263 16.2173
69.2984 267 16.3401
69.4154 237 15.3948
69.5323 272 16.4924
69.6492 240 15.4919
69.7661 235 15.3297
69.8829 214 14.6287
69.9997 194 13.9284
70.1165 208 14.4222
70.2332 220 14.8324
70.3499 228 15.0997
70.4665 211 14.5258
70.5831 225 15
70.6996 250 15.8114
70.8161 240 15.4919
70.9326 246 15.6844
71.049 210 14.4914
71.1653 224 14.9666
71.2817 207 14.3875
71.3979 235 15.3297
71.5141 241 15.5242
71.6303 209 14.4568
71.7464 227 15.0665
71.8624 0 1
71.9784 0 1
72.0944 0 1
72.2102 0 1
72.3261 0 1
72.4418 0 1
72.5575 0 1
72.6732 0 1
75.1054 0 1
75.2209 0 1
75.3365 0 1
75.4521 0 1
75.5678 0 1
75.6835 0 1
75.7993 0 1
75.9151 0 1
76.031 0 1
76.147 187 13.6748
76.263 166 12.8841
76.3791 185 13.6015
76.4952 170 13.0384
76.6113 182 13.4907
76.7276 184 13.5647
76.8438 190 13.784
76.9601 181 13.4536
77.0765 171 13.0767
77.1929 190 13.784
77.3093 160 12.6491
77.4258 214 14.6287
77.5423 178 13.3417
77.6589 184 13.5647
77.7755 168 12.9615
77.8921 174 13.1909
78.0088 197 14.0357
78.1256 162 12.7279
78.2423 175 13.2288
78.3591 151 12.2882
78.4759 145 12.0416
78.5928 148 12.1655
78.7097 173 13.1529
78.8266 146 12.083
78.9436 132 11.4891
79.0606 128 11.3137
79.1776 110 10.4881
79.2946 123 11.0905
79.4117 125 11.1803
79.5288 136 11.6619
79.6459 120 10.9545
79.7631 136 11.6619
79.8802 120 10.9545
79.9974 144 12
80.1147 126 11.225
80.2319 119 10.9087
80.3491 99 9.94987
80.4664 131 11.4455
80.5837 129 11.3578
80.701 104 10.198
80.8183 125 11.1803
80.9357 118 10.8628
81.053 101 10.0499
81.1704 76 8.7178
81.2877 93 9.64365
81.4051 93 9.64365
81.5225 124 11.1355
81.6399 109 10.4403
81.7573 88 9.38083
81.8747 99 9.94987
81.9922 86 9.27362
82.1096 79 8.88819
82.227 74 8.60233
82.3444 79 8.88819
82.4619 92 9.59166
82.5793 56 7.48331
82.6967 65 8.06226
82.8142 63 7.93725
82.9316 60 7.74597
83.049 51 7.14143
83.1664 65 8.06226
83.2838 50 7.07107
83.4012 52 7.2111
83.5186 63 7.93725
83.636 45 6.7082
83.7534 38 6.16441
83.8708 55 7.4162
83.9881 51 7.14143
84.1055 42 6.48074
84.2228 46 6.78233
84.3401 38 6.16441
84.4575 46 6.78233
84.5747 36 6
84.692 40 6.32456
84.8093 40 6.32456
84.9265 40 6.32456
85.0437 37 6.08276
85.1609 41 6.40312
85.2781 31 5.56776
85.3952 27 5.19615
85.5123 34 5.83095
85.6294 36 6
85.7465 53 7.28011
85.8636 41 6.40312
85.9806 31 5.56776
86.0976 29 5.38516
86.2145 19 4.3589
86.3315 27 5.19615
86.4484 30 5.47723
86.5652 40 6.32456
86.682 31 5.56776
86.7988 40 6.32456
86.9156 36 6
87.0323 47 6.85565
87.149 48 6.9282
87.2657 46 6.78233
87.3823 64 8
87.4988 35 5.91608
87.6154 58 7.61577
87.7318 44 6.63325
87.8483 68 8.24621
87.9647 49 7
88.081 64 8
88.1973 75 8.66025
88.3136 92 9.59166
88.4298 79 8.88819
88.546 81 9
88.6621 83 9.11043
88.7781 78 8.83176
88.8942 0 1
89.0101 0 1
89.126 0 1
89.2419 0 1
89.3577 0 1
89.4734 0 1
89.5891 0 1
89.7047 0 1
89.8203 0 1
89.9358 0 1
92.3269 0 1
92.4424 0 1
92.558 0 1
92.6736 0 1
92.7893 0 1
92.905 0 1
93.0208 0 1
93.1366 0 1
93.2525 0 1
93.3685 0 1
93.4845 0 1
93.6005 126 11.225
93.7167 121 11
93.8328 114 10.6771
93.949 126 11.225
94.0653 118 10.8628
94.1816 115 10.7238
94.2979 113 10.6301
94.4143 112 10.583
94.5307 119 10.9087
94.6472 122 11.0454
94.7637 118 10.8628
94.8803 117 10.8167
94.9969 111 10.5357
95.1135 82 9.05539
95.2302 96 9.79796
95.3469 104 10.198
95.4637 83 9.11043
95.5805 72 8.48528
95.6973 123 11.0905
95.8142 109 10.4403
95.9311 126 11.225
96.048 139 11.7898
96.1649 128 11.3137
96.2819 135 11.619
96.3989 130 11.4018
96.516 131 11.4455
96.633 126 11.225
96.7501 147 12.1244
96.8673 131 11.4455
96.9844 148 12.1655
97.1016 129 11.3578
97.2188 139 11.7898
97.336 147 12.1244
97.4532 163 12.7671
97.5704 154 12.4097
97.6877 159 12.6095
97.805 180 13.4164
97.9223 189 13.7477
98.0396 180 13.4164
98.1569 196 14
98.2743 165 12.8452
98.3916 190 13.784
98.509 168 12.9615
98.6264 185 13.6015
98.7438 192 13.8564
98.8612 210 14.4914
98.9786 169 13
99.096 146 12.083
99.2134 120 10.9545
99.3308 178 13.3417
99.4482 206 14.3527
99.5656 221 14.8661
99.6831 206 14.3527
99.8005 229 15.1327
99.9179 219 14.7986
100.035 223 14.9332
100.153 229 15.1327
100.27 219 14.7986
100.388 268 16.3707
100.505 207 14.3875
100.622 216 14.6969
100.74 250 15.8114
100.857 238 15.4272
100.975 229 15.1327
101.092 285 16.8819
101.209 260 16.1245
101.327 230 15.1658
101.444 243 15.5885
101.561 241 15.5242
101.679 227 15.0665
101.796 238 15.4272
101.913 241 15.5242
102.03 251 15.843
102.148 292 17.088
102.265 273 16.5227
102.382 246 15.6844
102.499 230 15.1658
102.616 229 15.1327
102.733 169 13
102.851 235 15.3297
102.968 245 15.6525
103.085 261 16.1555
103.202 271 16.4621
103.319 275 16.5831
103.436 260 16.1245
103.552 282 16.7929
103.669 271 16.4621
103.786 237 15.3948
103.903 277 16.6433
104.02 281 16.7631
104.137 258 16.0624
104.253 290 17.0294
104.37 238 15.4272
104.487 269 16.4012
104.603 285 16.8819
104.72 278 16.6733
104.836 256 16
104.953 281 16.7631
105.069 294 17.1464
105.186 268 16.3707
105.302 285 16.8819
105.418 275 16.5831
105.535 296 17.2047
105.651 300 17.3205
105.767 284 16.8523
105.883 255 15.9687
105.999 259 16.0935
106.115 0 1
106.231 0 1
106.347 0 1
106.463 0 1
106.579 0 1
106.694 0 1
106.81 0 1
106.926 0 1
107.041 0 1
107.157 0 1
109.576 0 1
109.692 0 1
109.807 0 1
109.923 0 1
110.039 0 1
110.155 0 1
110.27 0 1
110.386 0 1
110.502 0 1
110.618 201 14.1774
110.735 246 15.6844
110.851 234 15.2971
110.967 212 14.5602
111.083 226 15.0333
111.199 169 13
111.316 154 12.4097
111.432 174 13.1909
111.549 199 14.1067
111.665 213 14.5945
111.782 224 14.9666
111.898 250 15.8114
112.015 204 14.2829
112.132 199 14.1067
112.248 195 13.9642
112.365 207 14.3875
112.482 218 14.7648
112.599 182 13.4907
112.716 180 13.4164
112.832 180 13.4164
112.949 184 13.5647
113.066 209 14.4568
113.183 177 13.3041
113.3 161 12.6886
113.417 183 13.5277
113.534 174 13.1909
113.652 162 12.7279
113.769 168 12.9615
113.886 177 13.3041
114.003 145 12.0416
114.12 167 12.9228
114.238 157 12.53
114.355 155 12.4499
114.472 141 11.8743
114.589 152 12.3288
114.707 132 11.4891
114.824 136 11.6619
114.942 144 12
115.059 131 11.4455
115.176 179 13.3791
115.294 163 12.7671
115.411 155 12.4499
115.529 159 12.6095
115.646 161 12.6886
115.764 157 12.53
115.881 160 12.6491
115.999 179 13.3791
116.116 153 12.3693
116.234 182 13.4907
116.351 165 12.8452
116.469 149 12.2066
116.586 155 12.4499
116.704 167 12.9228
116.821 166 12.8841
116.939 165 12.8452
117.056 164 12.8062
117.174 150 12.2474
117.291 159 12.6095
117.409 151 12.2882
117.526 144 12
117.644 148 12.1655
117.761 137 11.7047
117.879 153 12.3693
117.996 133 11.5326
118.114 121 11
118.231 132 11.4891
118.349 133 11.5326
118.466 147 12.1244
118.584 140 11.8322
118.701 175 13.2288
118.819 167 12.9228
118.936 160 12.6491
119.053 143 11.9583
119.171 156 12.49
119.288 162 12.7279
119.405 158 12.5698
119.523 169 13
119.64 145 12.0416
119.757 188 13.7113
119.875 173 13.1529
119.992 166 12.8841
120.109 149 12.2066
120.226 178 13.3417
120.343 156 12.49
120.46 170 13.0384
120.578 170 13.0384
120.695 188 13.7113
120.812 171 13.0767
120.929 146 12.083
121.046 174 13.1909
121.163 192 13.8564
121.279 180 13.4164
121.396 161 12.6886
121.513 156 12.49
121.63 129 11.3578
121.747 109 10.4403
121.863 119 10.9087
121.98 140 11.8322
122.097 153 12.3693
122.213 156 12.49
122.33 144 12
122.446 162 12.7279
122.563 168 12.9615
122.679 155 12.4499
122.795 167 12.9228
122.912 192 13.8564
123.028 156 12.49
123.144 195 13.9642
123.26 200 14.1421
123.377 0 1
123.493 0 1
123.609 0 1
123.725 0 1
123.84 0 1
123.956 0 1
124.072 0 1
124.188 0 1
124.303 0 1
124.419 0 1
126.852 0 1
126.968 0 1
127.083 0 1
127.199 0 1
127.315 0 1
127.431 0 1
127.547 0 1
127.663 0 1
127.779 0 1
127.895 0 1
128.011 0 1
128.127 0 1
128.243 0 1
128.359 244 15.6205
128.476 209 14.4568
128.592 232 15.2315
128.708 233 15.2643
128.825 246 15.6844
128.941 254 15.9374
129.058 227 15.0665
129.174 215 14.6629
129.291 223 14.9332
129.408 243 15.5885
129.524 231 15.1987
129.641 219 14.7986
129.758 244 15.6205
129.875 235 15.3297
129.992 236 15.3623
130.108 247 15.7162
130.225 218 14.7648
130.342 190 13.784
130.459 196 14
130.576 218 14.7648
130.693 178 13.3417
130.81 176 13.2665
130.928 172 13.1149
131.045 202 14.2127
131.162 232 15.2315
131.279 231 15.1987
131.396 219 14.7986
131.513 213 14.5945
131.631 253 15.906
131.748 251 15.843
131.865 207 14.3875
131.983 237 15.3948
132.1 255 15.9687
132.217 245 15.6525
132.335 271 16.4621
132.452 235 15.3297
132.57 243 15.5885
132.687 269 16.4012
132.804 253 15.906
132.922 227 15.0665
133.039 233 15.2643
133.157 222 14.8997
133.274 244 15.6205
133.392 249 15.7797
133.509 245 15.6525
133.627 235 15.3297
133.744 246 15.6844
133.862 231 15.1987
133.979 228 15.0997
134.097 205 14.3178
134.214 189 13.7477
134.332 185 13.6015
134.449 197 14.0357
134.567 184 13.5647
134.684 210 14.4914
134.802 232 15.2315
134.919 248 15.748
135.037 268 16.3707
135.154 288 16.9706
135.272 261 16.1555
135.389 262 16.1864
135.507 283 16.8226
135.624 253 15.906
135.742 247 15.7162
135.859 257 16.0312
135.977 276 16.6132
136.094 273 16.5227
136.211 254 15.9374
136.329 281 16.7631
136.446 255 15.9687
136.564 306 17.4929
136.681 305 17.4642
136.798 301 17.3494
136.915 268 16.3707
137.033 298 17.2627
137.15 266 16.3095
137.267 273 16.5227
137.384 245 15.6525
137.502 255 15.9687
137.619 215 14.6629
137.736 223 14.9332
137.853 186 13.6382
137.97 198 14.0712
138.087 239 15.4596
138.204 220 14.8324
138.321 233 15.2643
138.438 265 16.2788
138.555 249 15.7797
138.672 295 17.1756
138.788 283 16.8226
138.905 262 16.1864
139.022 302 17.3781
139.139 292 17.088
139.255 305 17.4642
139.372 296 17.2047
139.488 296 17.2047
139.605 319 17.8606
139.721 292 17.088
139.838 285 16.8819
139.954 288 16.9706
140.071 300 17.3205
140.187 298 17.2627
140.303 290 17.0294
140.419 291 17.0587
140.535 281 16.7631
140.652 258 16.0624
140.768 0 1
140.884 0 1
141 0 1
141.115 0 1
141.231 0 1
141.347 0 1
141.463 0 1
141.578 0 1
141.694 0 1
144.104 0 1
144.219 0 1
144.335 0 1
144.45 0 1
144.566 0 1
144.682 0 1
144.798 0 1
144.914 0 1
145.03 0 1
145.146 318 17.8326
145.262 281 16.7631
145.378 281 16.7631
145.494 285 16.8819
145.61 258 16.0624
145.726 270 16.4317
145.842 281 16.7631
145.959 259 16.0935
146.075 263 16.2173
146.192 255 15.9687
146.308 228 15.0997
146.425 231 15.1987
146.541 245 15.6525
146.658 233 15.2643
146.774 224 14.9666
146.891 242 15.5563
147.008 260 16.1245
147.125 288 16.9706
147.241 277 16.6433
147.358 309 17.5784
147.475 264 16.2481
147.592 277 16.6433
147.709 300 17.3205
147.826 322 17.9444
147.943 292 17.088
148.06 286 16.9115
148.177 279 16.7033
148.294 299 17.2916
148.411 288 16.9706
148.528 283 16.8226
148.645 282 16.7929
148.762 285 16.8819
148.88 294 17.1464
148.997 276 16.6132
149.114 314 17.72
149.231 282 16.7929
149.349 272 16.4924
149.466 287 16.9411
149.583 259 16.0935
149.701 257 16.0312
149.818 236 15.3623
149.935 235 15.3297
150.053 248 15.748
150.17 222 14.8997
150.287 237 15.3948
150.405 238 15.4272
150.522 252 15.8745
150.64 240 15.4919
150.757 231 15.1987
150.875 282 16.7929
150.992 288 16.9706
151.11 285 16.8819
151.227 260 16.1245
151.344 279 16.7033
151.462 282 16.7929
151.579 304 17.4356
151.697 305 17.4642
151.814 292 17.088
151.932 324 18
152.049 263 16.2173
152.167 289 17
152.284 271 16.4621
152.402 289 17
152.519 287 16.9411
152.636 302 17.3781
152.754 279 16.7033
152.871 291 17.0587
152.989 263 16.2173
153.106 281 16.7631
153.223 251 15.843
153.341 281 16.7631
153.458 245 15.6525
153.575 245 15.6525
153.693 252 15.8745
153.81 236 15.3623
153.927 232 15.2315
154.044 276 16.6132
154.162 270 16.4317
154.279 243 15.5885
154.396 281 16.7631
154.513 288 16.9706
154.63 281 16.7631
154.747 311 17.6352
154.864 316 17.7764
154.981 312 17.6635
155.098 316 17.7764
155.215 308 17.5499
155.332 299 17.2916
155.449 309 17.5784
155.566 293 17.1172
155.683 316 17.7764
155.8 330 18.1659
155.917 321 17.9165
156.033 290 17.0294
156.15 0 1
156.267 0 1
156.383 0 1
156.5 0 1
156.617 0 1
156.733 0 1
156.85 0 1
156.966 0 1
157.082 0 1
157.199 0 1
157.315 0 1
157.431 0 1
157.547 0 1
157.664 0 1
157.78 0 1
157.896 0 1
158.012 0 1
158.128 0 1
158.244 0 1
158.359 0 1
158.475 0 1
158.591 0 1
158.706 0 1
