
6.15755 0 1
6.2731 0 1
6.3887 0 1
6.50437 0 1
6.62009 0 1
6.73587 0 1
6.8517 0 1
6.96759 0 1
7.08353 0 1
7.19952 0 1
7.31557 0 1
7.43166 0 1
7.54781 0 1
7.664 0 1
7.78024 0 1
7.89653 0 1
8.01286 0 1
8.12924 0 1
8.24567 0 1
8.36213 0 1
8.47864 0 1
8.59519 0 1
8.71178 0 1
8.82841 0 1
8.94508 0 1
9.06179 0 1
9.17853 0 1
9.29531 0 1
9.41212 0 1
9.52897 0 1
9.64584 0 1
9.76276 0 1
9.8797 0 1
9.99667 0 1
10.1137 0 1
10.2307 0 1
10.3478 0 1
10.4648 0 1
10.5819 0 1
10.6991 0 1
10.8162 0 1
10.9334 0 1
11.0506 0 1
11.1678 0 1
11.285 0 1
11.4023 0 1
11.5196 0 1
11.6369 0 1
11.7542 0 1
11.8715 0 1
11.9888 0 1
12.1062 0 1
12.2235 0 1
12.3409 0 1
12.4582 0 1
12.5756 0 1
12.693 0 1
12.8104 0 1
12.9278 0 1
13.0452 0 1
13.1626 0 1
13.28 0 1
13.3974 0 1
13.5149 0 1
13.6323 0 1
13.7497 0 1
13.8671 0 1
13.9845 0 1
14.1019 0 1
14.2193 0 1
14.3367 0 1
14.4541 0 1
14.5714 0 1
14.6888 0 1
14.8062 0 1
14.9235 0 1
15.0408 7067 84.0655
15.1581 7231 85.0353
15.2755 7566 86.9828
15.3927 7498 86.591
15.51 7520 86.7179
15.6273 7438 86.2438
15.7445 7177 84.7172
15.8617 6888 82.994
15.9789 6714 81.939
16.0961 6523 80.7651
16.2132 6760 82.2192
16.3304 6829 82.6378
16.4475 6901 83.0723
16.5646 6682 81.7435
16.6816 6746 82.134
16.7986 6601 81.2465
16.9156 6359 79.7433
17.0326 6407 80.0437
17.1496 6120 78.2304
17.2665 6138 78.3454
17.3833 5954 77.1622
17.5002 5909 76.87
17.617 6001 77.4661
17.7338 6157 78.4666
17.8505 6328 79.5487
17.9672 6738 82.0853
18.0839 6753 82.1766
18.2005 6941 83.3127
18.3171 7201 84.8587
18.4337 7260 85.2056
18.5502 7432 86.209
18.6666 7478 86.4754
18.7831 7345 85.703
18.8994 7418 86.1278
19.0158 7161 84.6227
19.1321 6952 83.3787
19.2483 6580 81.1172
19.3645 6315 79.467
19.4806 6174 78.5748
19.5967 5841 76.4264
19.7128 6101 78.1089
19.8288 5878 76.6681
19.9447 5597 74.8131
20.0606 0 1
20.1764 0 1
20.2922 0 1
20.4079 0 1
20.5236 0 1
20.6392 0 1
20.7548 0 1
20.8702 0 1
23.3078 0 1
23.4233 0 1
23.539 0 1
23.6547 0 1
23.7704 0 1
23.8862 0 1
24.0021 0 1
24.118 0 1
24.234 0 1
24.35 0 1
24.4661 5811 76.2299
24.5822 5728 75.6836
24.6984 5701 75.505
24.8146 5704 75.5248
24.9309 6033 77.6724
25.0472 6269 79.177
25.1636 6351 79.6932
25.28 6253 79.0759
25.3965 6344 79.6492
25.513 6256 79.0949
25.6296 6439 80.2434
25.7462 6412 80.075
25.8628 6297 79.3536
25.9795 6100 78.1025
26.0962 6193 78.6956
26.213 5876 76.6551
26.3298 5918 76.9285
26.4466 5850 76.4853
26.5635 6041 77.7239
26.6804 6150 78.4219
26.7973 6292 79.3221
26.9143 6344 79.6492
27.0313 6384 79.8999
27.1483 6573 81.074
27.2653 6471 80.4425
27.3824 6686 81.768
27.4996 6659 81.6027
27.6167 6544 80.895
27.7339 6379 79.8686
27.8511 6341 79.6304
27.9683 5993 77.4145
28.0855 6059 77.8396
28.2028 5920 76.9415
28.3201 5670 75.2994
28.4374 5925 76.974
28.5547 5841 76.4264
28.6721 6156 78.4602
28.7894 6141 78.3645
28.9068 6164 78.5111
29.0242 5967 77.2464
29.1416 5970 77.2658
29.259 5804 76.184
29.3764 5720 75.6307
29.4939 5718 75.6175
29.6113 5468 73.9459
29.7288 5472 73.973
29.8463 5310 72.8697
29.9638 5462 73.9053
30.0812 5733 75.7166
30.1987 5860 76.5506
30.3162 5908 76.8635
30.4337 6015 77.5564
30.5512 6054 77.8075
30.6687 6277 79.2275
30.7862 6191 78.6829
30.9037 6328 79.5487
31.0212 6387 79.9187
31.1387 6391 79.9437
31.2562 6296 79.3473
31.3737 6110 78.1665
31.4912 5984 77.3563
31.6087 5888 76.7333
31.7262 5733 75.7166
31.8436 5764 75.921
31.9611 5731 75.7034
32.0785 5825 76.3217
32.1959 6022 77.6015
32.3134 5967 77.2464
32.4308 6019 77.5822
32.5482 5742 75.776
32.6655 5865 76.5833
32.7829 5812 76.2365
32.9002 5628 75.02
33.0176 5531 74.3707
33.1349 5390 73.4166
33.2522 5364 73.2393
33.3694 5349 73.1369
33.4867 5177 71.9514
33.6039 5379 73.3417
33.7211 5382 73.3621
33.8383 5514 74.2563
33.9554 5771 75.9671
34.0725 5756 75.8683
34.1896 6077 77.9551
34.3067 5898 76.7984
34.4237 6089 78.032
34.5407 6117 78.2113
34.6577 6246 79.0316
34.7746 6168 78.5366
34.8915 6208 78.7909
35.0084 6019 77.5822
35.1252 5936 77.0454
35.242 5836 76.3937
35.3587 5758 75.8815
35.4755 5431 73.6953
35.5921 5495 74.1283
35.7088 5513 74.2496
35.8254 5703 75.5182
35.9419 5623 74.9867
36.0584 5794 76.1183
36.1749 5796 76.1315
36.2913 5769 75.9539
36.4077 5684 75.3923
36.524 5368 73.2666
36.6403 5602 74.8465
36.7565 5242 72.4017
36.8727 5217 72.2288
36.9889 5152 71.7774
37.1049 5113 71.5052
37.221 0 1
37.3369 0 1
37.4529 0 1
37.5687 0 1
37.6845 0 1
37.8003 0 1
37.916 0 1
38.0316 0 1
38.1472 0 1
40.5851 0 1
40.7008 0 1
40.8164 0 1
40.9322 0 1
41.048 0 1
41.1639 0 1
41.2798 0 1
41.3958 0 1
41.5118 0 1
41.6279 0 1
41.744 4263 65.2917
41.8602 4567 67.5796
41.9765 4669 68.3301
42.0928 4395 66.2948
42.2091 4481 66.9403
42.3255 4198 64.792
42.4419 4213 64.9076
42.5584 4313 65.6734
42.675 4584 67.7052
42.7915 4579 67.6683
42.9081 4749 68.913
43.0248 4676 68.3813
43.1415 4801 69.2892
43.2582 4853 69.6635
43.375 4892 69.9428
43.4918 4795 69.2459
43.6087 4825 69.4622
43.7256 4847 69.6204
43.8425 4684 68.4398
43.9595 4509 67.1491
44.0765 4542 67.3944
44.1935 4356 66
44.3106 4229 65.0308
44.4277 4133 64.2884
44.5448 3952 62.8649
44.6619 3854 62.0806
44.7791 3822 61.8223
44.8963 3981 63.0952
45.0136 3999 63.2376
45.1308 3821 61.8142
45.2481 3705 60.8687
45.3654 3809 61.7171
45.4827 3648 60.3987
45.6001 3584 59.8665
45.7174 3557 59.6406
45.8348 3437 58.6259
45.9522 3359 57.9569
46.0697 3301 57.4543
46.1871 3453 58.7622
46.3046 3454 58.7707
46.422 3528 59.397
46.5395 3594 59.95
46.657 3600 60
46.7745 3637 60.3075
46.892 3609 60.075
47.0096 3722 61.0082
47.1271 3709 60.9016
47.2446 3708 60.8933
47.3622 3619 60.1581
47.4797 3516 59.2959
47.5973 3537 59.4727
47.7149 3452 58.7537
47.8324 3263 57.1227
47.95 3173 56.3294
48.0675 3106 55.7315
48.1851 3083 55.5248
48.3027 3031 55.0545
48.4202 3113 55.7943
48.5378 3337 57.7668
48.6554 3225 56.7891
48.7729 3240 56.921
48.8904 3104 55.7136
49.008 3215 56.701
49.1255 3129 55.9375
49.243 3079 55.4887
49.3605 3086 55.5518
49.478 3075 55.4527
49.5955 3100 55.6776
49.713 3089 55.5788
49.8304 3148 56.107
49.9479 3389 58.2151
50.0653 3507 59.2199
50.1827 3483 59.0169
50.3001 3694 60.7783
50.4175 3785 61.5224
50.5348 3568 59.7327
50.6521 3774 61.4329
50.7694 3826 61.8547
50.8867 4068 63.7809
51.004 4103 64.0547
51.1212 4088 63.9375
51.2384 4003 63.2693
51.3556 3962 62.9444
51.4727 3958 62.9126
51.5899 3911 62.538
51.707 3890 62.3699
51.824 4066 63.7652
51.9411 4241 65.123
52.0581 4346 65.9242
52.175 4541 67.3869
52.2919 4569 67.5944
52.4088 4457 66.7608
52.5257 4619 67.9632
52.6425 4561 67.5352
52.7593 4552 67.4685
52.876 4588 67.7348
52.9927 4536 67.3498
53.1094 4501 67.0895
53.226 4527 67.283
53.3426 4490 67.0075
53.4591 4767 69.0435
53.5756 4871 69.7925
53.692 5058 71.1196
53.8084 5201 72.118
53.9248 5391 73.4234
54.0411 5411 73.5595
54.1573 5491 74.1013
54.2735 0 1
54.3896 0 1
54.5057 0 1
54.6217 0 1
54.7377 0 1
54.8537 0 1
54.9695 0 1
55.0853 0 1
55.2011 0 1
55.3168 0 1
55.4324 0 1
57.824 0 1
57.9396 0 1
58.0553 0 1
58.1711 0 1
58.2869 0 1
58.4028 0 1
58.5187 0 1
58.6347 0 1
58.7508 0 1
58.8669 0 1
58.983 6346 79.6618
59.0992 6619 81.3572
59.2155 6725 82.0061
59.3318 6816 82.5591
59.4482 6961 83.4326
59.5646 6907 83.1084
59.681 7034 83.8689
59.7975 6929 83.2406
59.9141 6823 82.6015
60.0306 6740 82.0975
60.1473 6568 81.0432
60.2639 6370 79.8123
60.3807 6090 78.0385
60.4974 6101 78.1089
60.6142 5998 77.4468
60.731 6247 79.038
60.8479 6664 81.6333
60.9648 6534 80.8332
61.0818 6449 80.3057
61.1987 6146 78.3964
61.3158 6308 79.4229
61.4328 6200 78.7401
61.5499 6086 78.0128
61.667 6135 78.3262
61.7841 5585 74.7329
61.9013 5816 76.2627
62.0185 5773 75.9803
62.1357 5826 76.3282
62.253 6074 77.9359
62.3702 6171 78.5557
62.4875 6150 78.4219
62.6049 6266 79.1581
62.7222 6267 79.1644
62.8396 6339 79.6178
62.9569 6237 78.9747
63.0743 6379 79.8686
63.1918 6387 79.9187
63.3092 6347 79.6681
63.4267 6223 78.886
63.5441 6166 78.5239
63.6616 5845 76.4526
63.7791 5774 75.9868
63.8966 5566 74.6056
64.0142 5352 73.1574
64.1317 5494 74.1215
64.2492 5727 75.6769
64.3668 5861 76.5572
64.4843 5827 76.3348
64.6019 5869 76.6094
64.7195 5748 75.8156
64.837 5699 75.4917
64.9546 5790 76.092
65.0722 5868 76.6029
65.1898 5617 74.9466
65.3074 5701 75.505
65.4249 5439 73.7496
65.5425 5365 73.2462
65.6601 5384 73.3757
65.7777 5568 74.619
65.8952 5607 74.8799
66.0128 5756 75.8683
66.1304 5888 76.7333
66.2479 6012 77.5371
66.3655 5997 77.4403
66.483 5939 77.0649
66.6005 6067 77.8909
66.718 6146 78.3964
66.8355 6017 77.5693
66.953 6215 78.8353
67.0705 6018 77.5758
67.1879 5999 77.4532
67.3054 5943 77.0909
67.4228 5797 76.138
67.5402 5649 75.1598
67.6576 5465 73.9256
67.7749 5553 74.5185
67.8923 5746 75.8024
68.0096 5920 76.9415
68.1269 6281 79.2528
68.2442 6185 78.6448
68.3614 6112 78.1793
68.4787 6030 77.6531
68.5958 6276 79.2212
68.713 6226 78.905
68.8302 6185 78.6448
68.9473 5831 76.361
69.0643 5929 77
69.1814 5747 75.809
69.2984 5776 76
69.4154 5913 76.896
69.5323 6003 77.479
69.6492 6274 79.2086
69.7661 6410 80.0625
69.8829 6431 80.1935
69.9997 6641 81.4923
70.1165 6607 81.2835
70.2332 6810 82.5227
70.3499 6885 82.9759
70.4665 6705 81.8841
70.5831 6778 82.3286
70.6996 6737 82.0792
70.8161 6706 81.8902
70.9326 6527 80.7899
71.049 6477 80.4798
71.1653 6189 78.6702
71.2817 5943 77.0909
71.3979 5685 75.3989
71.5141 5773 75.9803
71.6303 5757 75.8749
71.7464 5704 75.5248
71.8624 0 1
71.9784 0 1
72.0944 0 1
72.2102 0 1
72.3261 0 1
72.4418 0 1
72.5575 0 1
72.6732 0 1
75.1054 0 1
75.2209 0 1
75.3365 0 1
75.4521 0 1
75.5678 0 1
75.6835 0 1
75.7993 0 1
75.9151 0 1
76.031 0 1
76.147 6321 79.5047
76.263 6788 82.3893
76.3791 6843 82.7224
76.4952 6696 81.8291
76.6113 6353 79.7057
76.7276 6312 79.4481
76.8438 6601 81.2465
76.9601 6910 83.1264
77.0765 7137 84.4808
77.1929 7093 84.22
77.3093 6787 82.3833
77.4258 7070 84.0833
77.5423 7012 83.7377
77.6589 6855 82.7949
77.7755 6738 82.0853
77.8921 6573 81.074
78.0088 6355 79.7183
78.1256 6257 79.1012
78.2423 6183 78.6321
78.3591 6104 78.1281
78.4759 6343 79.643
78.5928 6553 80.9506
78.7097 6605 81.2712
78.8266 6641 81.4923
78.9436 7045 83.9345
79.0606 6966 83.4626
79.1776 7007 83.7078
79.2946 7087 84.1843
79.4117 7166 84.6522
79.5288 7124 84.4038
79.6459 6953 83.3847
79.7631 6902 83.0783
79.8802 6859 82.8191
79.9974 6788 82.3893
80.1147 6635 81.4555
80.2319 6297 79.3536
80.3491 6109 78.1601
80.4664 6317 79.4796
80.5837 6497 80.604
80.701 6759 82.2131
80.8183 6732 82.0488
80.9357 6664 81.6333
81.053 6534 80.8332
81.1704 6597 81.2219
81.2877 6644 81.5107
81.4051 6687 81.7741
81.5225 6524 80.7713
81.6399 6008 77.5113
81.7573 6341 79.6304
81.8747 5915 76.909
81.9922 5882 76.6942
82.1096 5856 76.5245
82.227 6174 78.5748
82.3444 6228 78.9177
82.4619 6518 80.7341
82.5793 6511 80.6908
82.6967 6408 80.05
82.8142 6755 82.1888
82.9316 6590 81.1788
83.049 6762 82.2314
83.1664 6865 82.8553
83.2838 6714 81.939
83.4012 6805 82.4924
83.5186 6717 81.9573
83.636 6713 81.9329
83.7534 6493 80.5792
83.8708 5988 77.3822
83.9881 6028 77.6402
84.1055 6029 77.6466
84.2228 6181 78.6193
84.3401 6491 80.5667
84.4575 6792 82.4136
84.5747 6749 82.1523
84.692 6565 81.0247
84.8093 6742 82.1097
84.9265 6795 82.4318
85.0437 6694 81.8169
85.1609 6407 80.0437
85.2781 6275 79.2149
85.3952 6198 78.7274
85.5123 6014 77.55
85.6294 5948 77.1233
85.7465 6163 78.5048
85.8636 6530 80.8084
85.9806 6774 82.3043
86.0976 6731 82.0427
86.2145 6848 82.7526
86.3315 6907 83.1084
86.4484 7162 84.6286
86.5652 7135 84.4689
86.682 7313 85.5161
86.7988 7450 86.3134
86.9156 7139 84.4926
87.0323 7334 85.6388
87.149 7198 84.841
87.2657 7044 83.9285
87.3823 6858 82.813
87.4988 6548 80.9197
87.6154 6457 80.3555
87.7318 6566 81.0309
87.8483 6651 81.5537
87.9647 7072 84.0952
88.081 7197 84.8351
88.1973 7000 83.666
88.3136 6891 83.012
88.4298 7149 84.5518
88.546 7138 84.4867
88.6621 6861 82.8312
88.7781 6706 81.8902
88.8942 0 1
89.0101 0 1
89.126 0 1
89.2419 0 1
89.3577 0 1
89.4734 0 1
89.5891 0 1
89.7047 0 1
89.8203 0 1
89.9358 0 1
92.3269 0 1
92.4424 0 1
92.558 0 1
92.6736 0 1
92.7893 0 1
92.905 0 1
93.0208 0 1
93.1366 0 1
93.2525 0 1
93.3685 0 1
93.4845 0 1
93.6005 6548 80.9197
93.7167 6709 81.9085
93.8328 6741 82.1036
93.949 6786 82.3772
94.0653 6438 80.2371
94.1816 6335 79.5927
94.2979 6005 77.4919
94.4143 6036 77.6917
94.5307 5777 76.0066
94.6472 5992 77.408
94.7637 6337 79.6053
94.8803 6569 81.0494
94.9969 6618 81.3511
95.1135 6738 82.0853
95.2302 6871 82.8915
95.3469 6992 83.6182
95.4637 6932 83.2586
95.5805 7036 83.8809
95.6973 7120 84.3801
95.8142 7143 84.5163
95.9311 7043 83.9226
96.048 7113 84.3386
96.1649 6992 83.6182
96.2819 6925 83.2166
96.3989 6790 82.4015
96.516 6393 79.9562
96.633 6299 79.3662
96.7501 6220 78.867
96.8673 6361 79.7559
96.9844 6541 80.8764
97.1016 6657 81.5904
97.2188 6742 82.1097
97.336 6769 82.2739
97.4532 6764 82.2435
97.5704 6855 82.7949
97.6877 6806 82.4985
97.805 6634 81.4494
97.9223 6224 78.8923
98.0396 6079 77.9679
98.1569 5806 76.1971
98.2743 5985 77.3628
98.3916 6065 77.8781
98.509 6361 79.7559
98.6264 6401 80.0062
98.7438 6602 81.2527
98.8612 6735 82.067
98.9786 6578 81.1049
99.096 6764 82.2435
99.2134 6781 82.3468
99.3308 6759 82.2131
99.4482 6822 82.5954
99.5656 6816 82.5591
99.6831 6674 81.6946
99.8005 6722 81.9878
99.9179 6496 80.5978
100.035 6315 79.467
100.153 6140 78.3582
100.27 5987 77.3757
100.388 5859 76.5441
100.505 6194 78.702
100.622 6430 80.1873
100.74 6554 80.9568
100.857 6463 80.3928
100.975 6588 81.1665
101.092 6596 81.2158
101.209 6876 82.9216
101.327 6705 81.8841
101.444 6624 81.388
101.561 6464 80.399
101.679 6134 78.3199
101.796 6150 78.4219
101.913 5929 77
102.03 6019 77.5822
102.148 6409 80.0562
102.265 5873 76.6355
102.382 7201 84.8587
102.499 6921 83.1925
102.616 7083 84.1606
102.733 7126 84.4156
102.851 7082 84.1546
102.968 7274 85.2877
103.085 7211 84.9176
103.202 7142 84.5104
103.319 6995 83.6361
103.436 7225 85
103.552 7072 84.0952
103.669 6625 81.3941
103.786 6599 81.2342
103.903 6458 80.3617
104.02 6506 80.6598
104.137 6767 82.2618
104.253 6925 83.2166
104.37 6876 82.9216
104.487 7131 84.4452
104.603 7293 85.3991
104.72 7287 85.3639
104.836 7227 85.0118
104.953 6968 83.4745
105.069 6776 82.3165
105.186 6474 80.4612
105.302 6427 80.1686
105.418 6202 78.7528
105.535 6543 80.8888
105.651 6826 82.6196
105.767 6864 82.8493
105.883 7059 84.0179
105.999 7097 84.2437
106.115 0 1
106.231 0 1
106.347 0 1
106.463 0 1
106.579 0 1
106.694 0 1
106.81 0 1
106.926 0 1
107.041 0 1
107.157 0 1
109.576 0 1
109.692 0 1
109.807 0 1
109.923 0 1
110.039 0 1
110.155 0 1
110.27 0 1
110.386 0 1
110.502 0 1
110.618 5778 76.0132
110.735 6090 78.0385
110.851 6266 79.1581
110.967 6457 80.3555
111.083 6322 79.511
111.199 6461 80.3803
111.316 6696 81.8291
111.432 6571 81.0617
111.549 6664 81.6333
111.665 6643 81.5046
111.782 6605 81.2712
111.898 6540 80.8703
112.015 6504 80.6474
112.132 6059 77.8396
112.248 5790 76.092
112.365 5603 74.8532
112.482 5677 75.3459
112.599 5444 73.7835
112.716 5765 75.9276
112.832 5848 76.4722
112.949 5936 77.0454
113.066 5933 77.026
113.183 6173 78.5684
113.3 6163 78.5048
113.417 6019 77.5822
113.534 5798 76.1446
113.652 5473 73.9797
113.769 5461 73.8986
113.886 5130 71.624
114.003 5013 70.8025
114.12 5005 70.746
114.238 5414 73.5799
114.355 5587 74.7462
114.472 5581 74.7061
114.589 5486 74.0675
114.707 5645 75.1332
114.824 5583 74.7195
114.942 5604 74.8599
115.059 5672 75.3127
115.176 5540 74.4312
115.294 5422 73.6342
115.411 5365 73.2462
115.529 5282 72.6774
115.646 5045 71.0282
115.764 4950 70.3562
115.881 4731 68.7823
115.999 4496 67.0522
116.116 4444 66.6633
116.234 4578 67.6609
116.351 4616 67.9412
116.469 4769 69.0579
116.586 4699 68.5493
116.704 4729 68.7677
116.821 4817 69.4046
116.939 4837 69.5485
117.056 4819 69.419
117.174 4724 68.7314
117.291 4497 67.0597
117.409 4196 64.7765
117.526 4139 64.3351
117.644 4196 64.7765
117.761 4356 66
117.879 4495 67.0448
117.996 4622 67.9853
118.114 4700 68.5565
118.231 4958 70.4131
118.349 4815 69.3902
118.466 4809 69.347
118.584 5035 70.9577
118.701 4991 70.647
118.819 4935 70.2496
118.936 4871 69.7925
119.053 4854 69.6707
119.171 4771 69.0724
119.288 4647 68.1689
119.405 4534 67.335
119.523 4386 66.2269
119.64 4383 66.2042
119.757 4416 66.453
119.875 4590 67.7495
119.992 4689 68.4763
120.109 4910 70.0714
120.226 4914 70.0999
120.343 4860 69.7137
120.46 4983 70.5904
120.578 5140 71.6938
120.695 5214 72.208
120.812 5287 72.7118
120.929 5013 70.8025
121.046 4827 69.4766
121.163 4830 69.4982
121.279 4728 68.7605
121.396 4777 69.1158
121.513 5103 71.4353
121.63 5457 73.8715
121.747 5410 73.5527
121.863 5451 73.8309
121.98 5679 75.3591
122.097 5816 76.2627
122.213 5830 76.3544
122.33 5804 76.184
122.446 5876 76.6551
122.563 5716 75.6042
122.679 5830 76.3544
122.795 5555 74.5319
122.912 5716 75.6042
123.028 5544 74.458
123.144 5364 73.2393
123.26 5221 72.2565
123.377 0 1
123.493 0 1
123.609 0 1
123.725 0 1
123.84 0 1
123.956 0 1
124.072 0 1
124.188 0 1
124.303 0 1
124.419 0 1
126.852 0 1
126.968 0 1
127.083 0 1
127.199 0 1
127.315 0 1
127.431 0 1
127.547 0 1
127.663 0 1
127.779 0 1
127.895 0 1
128.011 0 1
128.127 0 1
128.243 0 1
128.359 6701 81.8596
128.476 6545 80.9012
128.592 6249 79.0506
128.708 5879 76.6746
128.825 5948 77.1233
128.941 6219 78.8606
129.058 6357 79.7308
129.174 6373 79.8311
129.291 6784 82.365
129.408 6687 81.7741
129.524 6653 81.5659
129.641 6792 82.4136
129.758 6756 82.1949
129.875 6531 80.8146
129.992 6308 79.4229
130.108 6258 79.1075
130.225 5889 76.7398
130.342 5795 76.1249
130.459 5965 77.2334
130.576 6051 77.7882
130.693 6408 80.05
130.81 6376 79.8499
130.928 6747 82.1401
131.045 6832 82.6559
131.162 6546 80.9074
131.279 6689 81.7863
131.396 6744 82.1219
131.513 6742 82.1097
131.631 6680 81.7313
131.748 6459 80.3679
131.865 6382 79.8874
131.983 6389 79.9312
132.1 6031 77.6595
132.217 5732 75.71
132.335 5739 75.7562
132.452 5821 76.2955
132.57 5786 76.0658
132.687 5958 77.1881
132.804 6553 80.9506
132.922 6359 79.7433
133.039 6364 79.7747
133.157 6482 80.5109
133.274 6620 81.3634
133.392 6478 80.486
133.509 6282 79.2591
133.627 6037 77.6981
133.744 5693 75.452
133.862 5658 75.2197
133.979 5483 74.0473
134.097 5818 76.2758
134.214 6045 77.7496
134.332 6069 77.9038
134.449 6429 80.181
134.567 6476 80.4736
134.684 6362 79.7621
134.802 6260 79.1202
134.919 6319 79.4921
135.037 6334 79.5864
135.154 6135 78.3262
135.272 6020 77.5887
135.389 5850 76.4853
135.507 5706 75.5381
135.624 5640 75.0999
135.742 5375 73.3144
135.859 5171 71.9097
135.977 5020 70.852
136.094 5065 71.1688
136.211 5145 71.7287
136.329 5277 72.643
136.446 5354 73.171
136.564 5291 72.7393
136.681 5442 73.7699
136.798 5532 74.3774
136.915 5344 73.1027
137.033 5374 73.3076
137.15 5128 71.6101
137.267 4913 70.0928
137.384 4880 69.857
137.502 4727 68.7532
137.619 4644 68.1469
137.736 5079 71.2671
137.853 5116 71.5262
137.97 5404 73.5119
138.087 5538 74.4177
138.204 5658 75.2197
138.321 5768 75.9474
138.438 5963 77.2205
138.555 5999 77.4532
138.672 5891 76.7529
138.788 5924 76.9675
138.905 6053 77.801
139.022 5886 76.7203
139.139 5932 77.0195
139.255 5791 76.0986
139.372 5705 75.5315
139.488 5443 73.7767
139.605 5553 74.5185
139.721 5619 74.96
139.838 5834 76.3806
139.954 6087 78.0192
140.071 6030 77.6531
140.187 6464 80.399
140.303 6317 79.4796
140.419 6564 81.0185
140.535 6568 81.0432
140.652 6458 80.3617
140.768 0 1
140.884 0 1
141 0 1
141.115 0 1
141.231 0 1
141.347 0 1
141.463 0 1
141.578 0 1
141.694 0 1
144.104 0 1
144.219 0 1
144.335 0 1
144.45 0 1
144.566 0 1
144.682 0 1
144.798 0 1
144.914 0 1
145.03 0 1
145.146 8743 93.504
145.262 9554 97.7446
145.378 10068 100.339
145.494 10692 103.402
145.61 11227 105.958
145.726 11747 108.384
145.842 11918 109.17
145.959 11813 108.688
146.075 11627 107.829
146.192 11420 106.864
146.308 11472 107.107
146.425 11745 108.374
146.541 13034 114.167
146.658 14016 118.389
146.774 15302 123.701
146.891 16245 127.456
147.008 17370 131.795
147.125 18143 134.696
147.241 18677 136.664
147.358 19495 139.624
147.475 19720 140.428
147.592 19620 140.071
147.709 19674 140.264
147.826 19824 140.798
147.943 19865 140.943
148.06 19288 138.881
148.177 18771 137.007
148.294 18726 136.843
148.411 18799 137.109
148.528 19001 137.844
148.645 19556 139.843
148.762 20385 142.776
148.88 20886 144.52
148.997 21958 148.182
149.114 20207 142.151
149.231 20991 144.883
149.349 20572 143.429
149.466 20770 144.118
149.583 19656 140.2
149.701 18513 136.062
149.818 17547 132.465
149.935 16898 129.992
150.053 16869 129.881
150.17 17915 133.847
150.287 18527 136.114
150.405 19190 138.528
150.522 19244 138.723
150.64 20220 142.197
150.757 20357 142.678
150.875 20708 143.903
150.992 20570 143.422
151.11 20791 144.191
151.227 20189 142.088
151.344 20113 141.82
151.462 19946 141.23
151.579 19483 139.582
151.697 19270 138.816
151.814 18886 137.426
151.932 18379 135.569
152.049 19015 137.895
152.167 19400 139.284
152.284 20178 142.049
152.402 20638 143.659
152.519 21819 147.713
152.636 22247 149.154
152.754 22605 150.35
152.871 22817 151.053
152.989 22677 150.589
153.106 22138 148.788
153.223 20811 144.26
153.341 20121 141.849
153.458 19327 139.022
153.575 18487 135.967
153.693 19197 138.553
153.81 20186 142.077
153.927 20958 144.769
154.044 21667 147.197
154.162 22345 149.482
154.279 23061 151.858
154.396 24100 155.242
154.513 24047 155.071
154.63 24468 156.423
154.747 24633 156.949
154.864 24342 156.019
154.981 24269 155.785
155.098 23759 154.14
155.215 23759 154.14
155.332 23423 153.046
155.449 23144 152.132
155.566 22610 150.366
155.683 23012 151.697
155.8 23685 153.899
155.917 24912 157.835
156.033 25819 160.683
156.15 0 1
156.267 0 1
156.383 0 1
156.5 0 1
156.617 0 1
156.733 0 1
156.85 0 1
156.966 0 1
157.082 0 1
157.199 0 1
157.315 0 1
157.431 0 1
157.547 0 1
157.664 0 1
157.78 0 1
157.896 0 1
158.012 0 1
158.128 0 1
158.244 0 1
158.359 0 1
158.475 0 1
158.591 0 1
158.706 0 1
