
6.15755 0 1
6.2731 0 1
6.3887 0 1
6.50437 0 1
6.62009 0 1
6.73587 0 1
6.8517 0 1
6.96759 0 1
7.08353 0 1
7.19952 0 1
7.31557 0 1
7.43166 0 1
7.54781 0 1
7.664 0 1
7.78024 0 1
7.89653 0 1
8.01286 0 1
8.12924 0 1
8.24567 0 1
8.36213 0 1
8.47864 0 1
8.59519 0 1
8.71178 0 1
8.82841 0 1
8.94508 0 1
9.06179 0 1
9.17853 0 1
9.29531 0 1
9.41212 0 1
9.52897 0 1
9.64584 0 1
9.76276 0 1
9.8797 0 1
9.99667 0 1
10.1137 0 1
10.2307 0 1
10.3478 0 1
10.4648 0 1
10.5819 0 1
10.6991 0 1
10.8162 0 1
10.9334 0 1
11.0506 0 1
11.1678 0 1
11.285 0 1
11.4023 0 1
11.5196 0 1
11.6369 0 1
11.7542 0 1
11.8715 0 1
11.9888 0 1
12.1062 0 1
12.2235 0 1
12.3409 0 1
12.4582 0 1
12.5756 0 1
12.693 0 1
12.8104 0 1
12.9278 0 1
13.0452 0 1
13.1626 0 1
13.28 0 1
13.3974 0 1
13.5149 0 1
13.6323 0 1
13.7497 0 1
13.8671 0 1
13.9845 0 1
14.1019 0 1
14.2193 0 1
14.3367 0 1
14.4541 0 1
14.5714 0 1
14.6888 0 1
14.8062 0 1
14.9235 0 1
15.0408 0 0
15.1581 0 0
15.2755 0 0
15.3927 0 0
15.51 0 0
15.6273 0 0
15.7445 0 0
15.8617 0 0
15.9789 0 0
16.0961 0 0
16.2132 0 0
16.3304 0 0
16.4475 0 0
16.5646 0 0
16.6816 0 0
16.7986 0 0
16.9156 0 0
17.0326 0 0
17.1496 0 0
17.2665 0 0
17.3833 0 0
17.5002 0 0
17.617 0 0
17.7338 0 0
17.8505 0 0
17.9672 0 0
18.0839 0 0
18.2005 0 0
18.3171 0 0
18.4337 0 0
18.5502 0 0
18.6666 0 0
18.7831 0 0
18.8994 0 0
19.0158 0 0
19.1321 0 0
19.2483 0 0
19.3645 0 0
19.4806 0 0
19.5967 0 0
19.7128 0 0
19.8288 0 0
19.9447 0 0
20.0606 0 1
20.1764 0 1
20.2922 0 1
20.4079 0 1
20.5236 0 1
20.6392 0 1
20.7548 0 1
20.8702 0 1
23.3078 0 1
23.4233 0 1
23.539 0 1
23.6547 0 1
23.7704 0 1
23.8862 0 1
24.0021 0 1
24.118 0 1
24.234 0 1
24.35 0 1
24.4661 2624 51.225
24.5822 2652 51.4976
24.6984 2809 53
24.8146 2789 52.811
24.9309 2792 52.8394
25.0472 2917 54.0093
25.1636 2914 53.9815
25.28 2857 53.4509
25.3965 3012 54.8817
25.513 2852 53.4041
25.6296 2906 53.9073
25.7462 2826 53.1601
25.8628 2881 53.6749
25.9795 2815 53.0566
26.0962 2811 53.0189
26.213 2883 53.6936
26.3298 2790 52.8205
26.4466 2724 52.192
26.5635 2766 52.5928
26.6804 2592 50.9117
26.7973 2582 50.8134
26.9143 2544 50.4381
27.0313 2466 49.6588
27.1483 2468 49.679
27.2653 2439 49.3862
27.3824 2441 49.4065
27.4996 2314 48.1041
27.6167 2322 48.1871
27.7339 2240 47.3286
27.8511 2166 46.5403
27.9683 2142 46.2817
28.0855 2224 47.1593
28.2028 2207 46.9787
28.3201 2268 47.6235
28.4374 2255 47.4868
28.5547 2312 48.0833
28.6721 2299 47.9479
28.7894 2385 48.8365
28.9068 2379 48.775
29.0242 2293 47.8853
29.1416 2304 48
29.259 2334 48.3115
29.3764 2332 48.2908
29.4939 2342 48.3942
29.6113 2273 47.676
29.7288 2290 47.8539
29.8463 2277 47.7179
29.9638 2290 47.8539
30.0812 2235 47.2758
30.1987 2269 47.634
30.3162 2028 45.0333
30.4337 2130 46.1519
30.5512 1970 44.3847
30.6687 1896 43.5431
30.7862 1978 44.4747
30.9037 1908 43.6807
31.0212 1902 43.6119
31.1387 1934 43.9773
31.2562 1836 42.8486
31.3737 1874 43.2897
31.4912 1819 42.6497
31.6087 1893 43.5086
31.7262 1864 43.1741
31.8436 1985 44.5533
31.9611 1856 43.0813
32.0785 1930 43.9318
32.1959 1987 44.5758
32.3134 1962 44.2945
32.4308 2035 45.111
32.5482 2035 45.111
32.6655 2052 45.299
32.7829 1983 44.5309
32.9002 1924 43.8634
33.0176 1871 43.2551
33.1349 1884 43.4051
33.2522 1959 44.2606
33.3694 1934 43.9773
33.4867 1937 44.0114
33.6039 1964 44.317
33.7211 1908 43.6807
33.8383 1903 43.6234
33.9554 1861 43.1393
34.0725 1811 42.5558
34.1896 1680 40.9878
34.3067 1737 41.6773
34.4237 1619 40.2368
34.5407 1733 41.6293
34.6577 1727 41.5572
34.7746 1539 39.2301
34.8915 1601 40.0125
35.0084 1534 39.1663
35.1252 1603 40.0375
35.242 1530 39.1152
35.3587 1571 39.6358
35.4755 1685 41.0488
35.5921 1720 41.4729
35.7088 1664 40.7922
35.8254 1703 41.2674
35.9419 1688 41.0853
36.0584 1724 41.5211
36.1749 1702 41.2553
36.2913 1763 41.9881
36.4077 1748 41.8091
36.524 1690 41.1096
36.6403 1684 41.0366
36.7565 1788 42.2847
36.8727 1716 41.4246
36.9889 1694 41.1582
37.1049 1616 40.1995
37.221 0 1
37.3369 0 1
37.4529 0 1
37.5687 0 1
37.6845 0 1
37.8003 0 1
37.916 0 1
38.0316 0 1
38.1472 0 1
40.5851 0 1
40.7008 0 1
40.8164 0 1
40.9322 0 1
41.048 0 1
41.1639 0 1
41.2798 0 1
41.3958 0 1
41.5118 0 1
41.6279 0 1
41.744 1168 34.176
41.8602 1254 35.4119
41.9765 1254 35.4119
42.0928 1339 36.5923
42.2091 1296 36
42.3255 1265 35.5668
42.4419 1227 35.0286
42.5584 1252 35.3836
42.675 1220 34.9285
42.7915 1242 35.242
42.9081 1295 35.9861
43.0248 1165 34.1321
43.1415 1106 33.2566
43.2582 1125 33.541
43.375 1169 34.1906
43.4918 1089 33
43.6087 1106 33.2566
43.7256 1054 32.4654
43.8425 1010 31.7805
43.9595 1012 31.8119
44.0765 1039 32.2335
44.1935 1052 32.4345
44.3106 1082 32.8938
44.4277 1144 33.8231
44.5448 1050 32.4037
44.6619 1096 33.1059
44.7791 1148 33.8821
44.8963 1083 32.909
45.0136 1082 32.8938
45.1308 1025 32.0156
45.2481 1061 32.573
45.3654 913 30.2159
45.4827 1002 31.6544
45.6001 958 30.9516
45.7174 958 30.9516
45.8348 976 31.241
45.9522 1026 32.0312
46.0697 983 31.3528
46.1871 902 30.0333
46.3046 945 30.7409
46.422 933 30.545
46.5395 936 30.5941
46.657 884 29.7321
46.7745 862 29.3598
46.892 779 27.9106
47.0096 821 28.6531
47.1271 810 28.4605
47.2446 854 29.2233
47.3622 789 28.0891
47.4797 824 28.7054
47.5973 779 27.9106
47.7149 745 27.2947
47.8324 771 27.7669
47.95 717 26.7769
48.0675 838 28.9482
48.1851 825 28.7228
48.3027 838 28.9482
48.4202 790 28.1069
48.5378 767 27.6948
48.6554 793 28.1603
48.7729 767 27.6948
48.8904 742 27.2397
49.008 774 27.8209
49.1255 734 27.0924
49.243 772 27.7849
49.3605 782 27.9643
49.478 750 27.3861
49.5955 830 28.8097
49.713 814 28.5307
49.8304 794 28.178
49.9479 813 28.5132
50.0653 820 28.6356
50.1827 860 29.3258
50.3001 808 28.4253
50.4175 746 27.313
50.5348 812 28.4956
50.6521 789 28.0891
50.7694 892 29.8664
50.8867 813 28.5132
51.004 862 29.3598
51.1212 895 29.9166
51.2384 872 29.5296
51.3556 993 31.5119
51.4727 969 31.1288
51.5899 1008 31.749
51.707 978 31.273
51.824 1004 31.686
51.9411 1049 32.3883
52.0581 1063 32.6037
52.175 1045 32.3265
52.2919 1015 31.8591
52.4088 1060 32.5576
52.5257 1091 33.0303
52.6425 1072 32.7414
52.7593 1136 33.7046
52.876 1072 32.7414
52.9927 1147 33.8674
53.1094 1217 34.8855
53.226 1135 33.6898
53.3426 1191 34.5109
53.4591 1165 34.1321
53.5756 1154 33.9706
53.692 1130 33.6155
53.8084 1158 34.0294
53.9248 1100 33.1662
54.0411 1114 33.3766
54.1573 1100 33.1662
54.2735 0 1
54.3896 0 1
54.5057 0 1
54.6217 0 1
54.7377 0 1
54.8537 0 1
54.9695 0 1
55.0853 0 1
55.2011 0 1
55.3168 0 1
55.4324 0 1
57.824 0 1
57.9396 0 1
58.0553 0 1
58.1711 0 1
58.2869 0 1
58.4028 0 1
58.5187 0 1
58.6347 0 1
58.7508 0 1
58.8669 0 1
58.983 1439 37.9342
59.0992 1338 36.5787
59.2155 1301 36.0694
59.3318 1273 35.6791
59.4482 1292 35.9444
59.5646 1307 36.1525
59.681 1338 36.5787
59.7975 1287 35.8748
59.9141 1246 35.2987
60.0306 1404 37.47
60.1473 1289 35.9026
60.2639 1337 36.565
60.3807 1263 35.5387
60.4974 1350 36.7423
60.6142 1357 36.8375
60.731 1369 37
60.8479 1299 36.0416
60.9648 1272 35.6651
61.0818 1305 36.1248
61.1987 1276 35.7211
61.3158 1310 36.1939
61.4328 1320 36.3318
61.5499 1332 36.4966
61.667 1285 35.8469
61.7841 1285 35.8469
61.9013 1306 36.1386
62.0185 1314 36.2491
62.1357 1344 36.6606
62.253 1260 35.4965
62.3702 1246 35.2987
62.4875 1310 36.1939
62.6049 1227 35.0286
62.7222 1195 34.5688
62.8396 1179 34.3366
62.9569 1227 35.0286
63.0743 1124 33.5261
63.1918 1151 33.9264
63.3092 1193 34.5398
63.4267 1212 34.8138
63.5441 1243 35.2562
63.6616 1235 35.1426
63.7791 1246 35.2987
63.8966 1253 35.3977
64.0142 1229 35.0571
64.1317 1171 34.2199
64.2492 1159 34.0441
64.3668 1218 34.8999
64.4843 1134 33.6749
64.6019 1102 33.1964
64.7195 1162 34.0881
64.837 1120 33.4664
64.9546 1152 33.9411
65.0722 1185 34.4238
65.1898 1160 34.0588
65.3074 1226 35.0143
65.4249 1138 33.7343
65.5425 1199 34.6266
65.6601 1176 34.2929
65.7777 1249 35.3412
65.8952 1223 34.9714
66.0128 1250 35.3553
66.1304 1188 34.4674
66.2479 1075 32.7872
66.3655 1084 32.9242
66.483 1045 32.3265
66.6005 1017 31.8904
66.718 982 31.3369
66.8355 1137 33.7194
66.953 1139 33.7491
67.0705 1165 34.1321
67.1879 1116 33.4066
67.3054 1079 32.8481
67.4228 1127 33.5708
67.5402 1126 33.5559
67.6576 1150 33.9116
67.7749 1111 33.3317
67.8923 1158 34.0294
68.0096 1151 33.9264
68.1269 1171 34.2199
68.2442 1149 33.8969
68.3614 1155 33.9853
68.4787 1136 33.7046
68.5958 1088 32.9848
68.713 1145 33.8378
68.8302 1227 35.0286
68.9473 1230 35.0714
69.0643 1172 34.2345
69.1814 1155 33.9853
69.2984 1135 33.6898
69.4154 1251 35.3695
69.5323 1139 33.7491
69.6492 1224 34.9857
69.7661 1210 34.7851
69.8829 1208 34.7563
69.9997 1157 34.0147
70.1165 1093 33.0606
70.2332 1131 33.6303
70.3499 1104 33.2265
70.4665 1119 33.4515
70.5831 1180 34.3511
70.6996 1223 34.9714
70.8161 1189 34.4819
70.9326 1229 35.0571
71.049 1246 35.2987
71.1653 1141 33.7787
71.2817 1149 33.8969
71.3979 1104 33.2265
71.5141 1093 33.0606
71.6303 1076 32.8024
71.7464 1011 31.7962
71.8624 0 1
71.9784 0 1
72.0944 0 1
72.2102 0 1
72.3261 0 1
72.4418 0 1
72.5575 0 1
72.6732 0 1
75.1054 0 1
75.2209 0 1
75.3365 0 1
75.4521 0 1
75.5678 0 1
75.6835 0 1
75.7993 0 1
75.9151 0 1
76.031 0 1
76.147 980 31.305
76.263 1094 33.0757
76.3791 1128 33.5857
76.4952 1120 33.4664
76.6113 1138 33.7343
76.7276 1095 33.0908
76.8438 1105 33.2415
76.9601 1136 33.7046
77.0765 1080 32.8634
77.1929 1100 33.1662
77.3093 1105 33.2415
77.4258 1120 33.4664
77.5423 1128 33.5857
77.6589 1076 32.8024
77.7755 1164 34.1174
77.8921 1113 33.3617
78.0088 1093 33.0606
78.1256 1117 33.4215
78.2423 1081 32.8786
78.3591 1150 33.9116
78.4759 1080 32.8634
78.5928 1134 33.6749
78.7097 1081 32.8786
78.8266 1117 33.4215
78.9436 1076 32.8024
79.0606 1036 32.187
79.1776 894 29.8998
79.2946 825 28.7228
79.4117 962 31.0161
79.5288 1041 32.2645
79.6459 1040 32.249
79.7631 1000 31.6228
79.8802 1038 32.218
79.9974 1028 32.0624
80.1147 1032 32.1248
80.2319 1055 32.4808
80.3491 1045 32.3265
80.4664 1036 32.187
80.5837 1036 32.187
80.701 1016 31.8748
80.8183 997 31.5753
80.9357 988 31.4325
81.053 1042 32.28
81.1704 1052 32.4345
81.2877 971 31.1609
81.4051 1008 31.749
81.5225 954 30.8869
81.6399 977 31.257
81.7573 993 31.5119
81.8747 863 29.3769
81.9922 887 29.7825
82.1096 918 30.2985
82.227 924 30.3974
82.3444 937 30.6105
82.4619 902 30.0333
82.5793 1018 31.9061
82.6967 1029 32.078
82.8142 832 28.8444
82.9316 807 28.4077
83.049 759 27.55
83.1664 869 29.4788
83.2838 908 30.133
83.4012 867 29.4449
83.5186 934 30.5614
83.636 860 29.3258
83.7534 828 28.775
83.8708 860 29.3258
83.9881 862 29.3598
84.1055 808 28.4253
84.2228 894 29.8998
84.3401 880 29.6648
84.4575 868 29.4618
84.5747 867 29.4449
84.692 892 29.8664
84.8093 878 29.6311
84.9265 839 28.9655
85.0437 856 29.2575
85.1609 867 29.4449
85.2781 832 28.8444
85.3952 829 28.7924
85.5123 857 29.2746
85.6294 871 29.5127
85.7465 837 28.931
85.8636 918 30.2985
85.9806 872 29.5296
86.0976 927 30.4467
86.2145 888 29.7993
86.3315 891 29.8496
86.4484 852 29.189
86.5652 786 28.0357
86.682 890 29.8329
86.7988 934 30.5614
86.9156 959 30.9677
87.0323 898 29.9666
87.149 858 29.2916
87.2657 904 30.0666
87.3823 939 30.6431
87.4988 877 29.6142
87.6154 913 30.2159
87.7318 869 29.4788
87.8483 930 30.4959
87.9647 885 29.7489
88.081 907 30.1164
88.1973 999 31.607
88.3136 962 31.0161
88.4298 941 30.6757
88.546 993 31.5119
88.6621 950 30.8221
88.7781 993 31.5119
88.8942 0 1
89.0101 0 1
89.126 0 1
89.2419 0 1
89.3577 0 1
89.4734 0 1
89.5891 0 1
89.7047 0 1
89.8203 0 1
89.9358 0 1
92.3269 0 1
92.4424 0 1
92.558 0 1
92.6736 0 1
92.7893 0 1
92.905 0 1
93.0208 0 1
93.1366 0 1
93.2525 0 1
93.3685 0 1
93.4845 0 1
93.6005 1004 31.686
93.7167 965 31.0644
93.8328 1028 32.0624
93.949 983 31.3528
94.0653 904 30.0666
94.1816 998 31.5911
94.2979 962 31.0161
94.4143 913 30.2159
94.5307 991 31.4802
94.6472 990 31.4643
94.7637 908 30.133
94.8803 951 30.8383
94.9969 981 31.3209
95.1135 996 31.5595
95.2302 1016 31.8748
95.3469 1031 32.1092
95.4637 951 30.8383
95.5805 932 30.5287
95.6973 815 28.5482
95.8142 855 29.2404
95.9311 984 31.3688
96.048 972 31.1769
96.1649 982 31.3369
96.2819 982 31.3369
96.3989 905 30.0832
96.516 983 31.3528
96.633 890 29.8329
96.7501 948 30.7896
96.8673 919 30.315
96.9844 905 30.0832
97.1016 906 30.0998
97.2188 977 31.257
97.336 955 30.9031
97.4532 911 30.1828
97.5704 916 30.2655
97.6877 903 30.05
97.805 897 29.95
97.9223 889 29.8161
98.0396 860 29.3258
98.1569 894 29.8998
98.2743 904 30.0666
98.3916 874 29.5635
98.509 810 28.4605
98.6264 897 29.95
98.7438 912 30.1993
98.8612 881 29.6816
98.9786 913 30.2159
99.096 912 30.1993
99.2134 854 29.2233
99.3308 795 28.1957
99.4482 816 28.5657
99.5656 904 30.0666
99.6831 928 30.4631
99.8005 834 28.8791
99.9179 899 29.9833
100.035 881 29.6816
100.153 844 29.0517
100.27 851 29.1719
100.388 818 28.6007
100.505 846 29.0861
100.622 832 28.8444
100.74 849 29.1376
100.857 800 28.2843
100.975 892 29.8664
101.092 905 30.0832
101.209 846 29.0861
101.327 827 28.7576
101.444 806 28.3901
101.561 853 29.2062
101.679 843 29.0345
101.796 831 28.8271
101.913 797 28.2312
102.03 849 29.1376
102.148 872 29.5296
102.265 807 28.4077
102.382 764 27.6405
102.499 853 29.2062
102.616 841 29
102.733 760 27.5681
102.851 724 26.9072
102.968 762 27.6043
103.085 736 27.1293
103.202 806 28.3901
103.319 818 28.6007
103.436 764 27.6405
103.552 710 26.6458
103.669 723 26.8887
103.786 728 26.9815
103.903 688 26.2298
104.02 667 25.8263
104.137 680 26.0768
104.253 699 26.4386
104.37 666 25.807
104.487 675 25.9808
104.603 633 25.1595
104.72 683 26.1343
104.836 622 24.9399
104.953 634 25.1794
105.069 644 25.3772
105.186 664 25.7682
105.302 618 24.8596
105.418 627 25.04
105.535 609 24.6779
105.651 602 24.5357
105.767 639 25.2784
105.883 608 24.6577
105.999 566 23.7908
106.115 0 1
106.231 0 1
106.347 0 1
106.463 0 1
106.579 0 1
106.694 0 1
106.81 0 1
106.926 0 1
107.041 0 1
107.157 0 1
109.576 0 1
109.692 0 1
109.807 0 1
109.923 0 1
110.039 0 1
110.155 0 1
110.27 0 1
110.386 0 1
110.502 0 1
110.618 359 18.9473
110.735 359 18.9473
110.851 416 20.3961
110.967 412 20.2978
111.083 375 19.3649
111.199 439 20.9523
111.316 401 20.025
111.432 388 19.6977
111.549 378 19.4422
111.665 321 17.9165
111.782 337 18.3576
111.898 365 19.105
112.015 322 17.9444
112.132 332 18.2209
112.248 332 18.2209
112.365 334 18.2757
112.482 330 18.1659
112.599 342 18.4932
112.716 313 17.6918
112.832 314 17.72
112.949 332 18.2209
113.066 312 17.6635
113.183 304 17.4356
113.3 327 18.0831
113.417 315 17.7482
113.534 335 18.303
113.652 330 18.1659
113.769 311 17.6352
113.886 341 18.4662
114.003 316 17.7764
114.12 326 18.0555
114.238 380 19.4936
114.355 328 18.1108
114.472 338 18.3848
114.589 299 17.2916
114.707 300 17.3205
114.824 351 18.735
114.942 375 19.3649
115.059 405 20.1246
115.176 394 19.8494
115.294 400 20
115.411 369 19.2094
115.529 352 18.7617
115.646 397 19.9249
115.764 328 18.1108
115.881 409 20.2237
115.999 361 19
116.116 339 18.412
116.234 432 20.7846
116.351 402 20.0499
116.469 392 19.799
116.586 398 19.9499
116.704 371 19.2614
116.821 427 20.664
116.939 385 19.6214
117.056 446 21.1187
117.174 372 19.2873
117.291 390 19.7484
117.409 444 21.0713
117.526 450 21.2132
117.644 461 21.4709
117.761 477 21.8403
117.879 499 22.3383
117.996 470 21.6795
118.114 454 21.3073
118.231 439 20.9523
118.349 405 20.1246
118.466 467 21.6102
118.584 523 22.8692
118.701 522 22.8473
118.819 535 23.1301
118.936 508 22.5389
119.053 516 22.7156
119.171 547 23.388
119.288 547 23.388
119.405 560 23.6643
119.523 540 23.2379
119.64 518 22.7596
119.757 503 22.4277
119.875 562 23.7065
119.992 504 22.4499
120.109 527 22.9565
120.226 512 22.6274
120.343 508 22.5389
120.46 567 23.8118
120.578 504 22.4499
120.695 568 23.8328
120.812 571 23.8956
120.929 559 23.6432
121.046 607 24.6374
121.163 607 24.6374
121.279 603 24.5561
121.396 614 24.779
121.513 587 24.2281
121.63 620 24.8998
121.747 555 23.5584
121.863 515 22.6936
121.98 488 22.0907
122.097 495 22.2486
122.213 559 23.6432
122.33 587 24.2281
122.446 628 25.0599
122.563 605 24.5967
122.679 669 25.865
122.795 633 25.1595
122.912 656 25.6125
123.028 655 25.593
123.144 610 24.6982
123.26 631 25.1197
123.377 0 1
123.493 0 1
123.609 0 1
123.725 0 1
123.84 0 1
123.956 0 1
124.072 0 1
124.188 0 1
124.303 0 1
124.419 0 1
126.852 0 1
126.968 0 1
127.083 0 1
127.199 0 1
127.315 0 1
127.431 0 1
127.547 0 1
127.663 0 1
127.779 0 1
127.895 0 1
128.011 0 1
128.127 0 1
128.243 0 1
128.359 862 29.3598
128.476 913 30.2159
128.592 843 29.0345
128.708 876 29.5973
128.825 851 29.1719
128.941 862 29.3598
129.058 883 29.7153
129.174 875 29.5804
129.291 861 29.3428
129.408 840 28.9828
129.524 867 29.4449
129.641 865 29.4109
129.758 842 29.0172
129.875 893 29.8831
129.992 947 30.7734
130.108 958 30.9516
130.225 902 30.0333
130.342 858 29.2916
130.459 851 29.1719
130.576 892 29.8664
130.693 782 27.9643
130.81 750 27.3861
130.928 717 26.7769
131.045 725 26.9258
131.162 774 27.8209
131.279 873 29.5466
131.396 954 30.8869
131.513 930 30.4959
131.631 992 31.496
131.748 932 30.5287
131.865 1003 31.6702
131.983 945 30.7409
132.1 929 30.4795
132.217 958 30.9516
132.335 947 30.7734
132.452 968 31.1127
132.57 910 30.1662
132.687 857 29.2746
132.804 928 30.4631
132.922 951 30.8383
133.039 889 29.8161
133.157 929 30.4795
133.274 928 30.4631
133.392 895 29.9166
133.509 989 31.4484
133.627 1013 31.8277
133.744 920 30.3315
133.862 954 30.8869
133.979 926 30.4302
134.097 883 29.7153
134.214 914 30.2324
134.332 845 29.0689
134.449 837 28.931
134.567 782 27.9643
134.684 830 28.8097
134.802 885 29.7489
134.919 930 30.4959
135.037 915 30.249
135.154 979 31.289
135.272 1024 32
135.389 983 31.3528
135.507 987 31.4166
135.624 1001 31.6386
135.742 954 30.8869
135.859 1025 32.0156
135.977 1011 31.7962
136.094 1049 32.3883
136.211 1016 31.8748
136.329 1006 31.7175
136.446 967 31.0966
136.564 995 31.5436
136.681 993 31.5119
136.798 1015 31.8591
136.915 983 31.3528
137.033 1034 32.1559
137.15 1005 31.7017
137.267 1086 32.9545
137.384 980 31.305
137.502 1040 32.249
137.619 999 31.607
137.736 986 31.4006
137.853 934 30.5614
137.97 893 29.8831
138.087 904 30.0666
138.204 857 29.2746
138.321 890 29.8329
138.438 912 30.1993
138.555 987 31.4166
138.672 1003 31.6702
138.788 1064 32.619
138.905 1061 32.573
139.022 1032 32.1248
139.139 1065 32.6343
139.255 1078 32.8329
139.372 1093 33.0606
139.488 1022 31.9687
139.605 1094 33.0757
139.721 986 31.4006
139.838 1055 32.4808
139.954 1078 32.8329
140.071 1039 32.2335
140.187 1024 32
140.303 1055 32.4808
140.419 1064 32.619
140.535 1060 32.5576
140.652 1052 32.4345
140.768 0 1
140.884 0 1
141 0 1
141.115 0 1
141.231 0 1
141.347 0 1
141.463 0 1
141.578 0 1
141.694 0 1
144.104 0 1
144.219 0 1
144.335 0 1
144.45 0 1
144.566 0 1
144.682 0 1
144.798 0 1
144.914 0 1
145.03 0 1
145.146 966 31.0805
145.262 938 30.6268
145.378 969 31.1288
145.494 904 30.0666
145.61 954 30.8869
145.726 979 31.289
145.842 924 30.3974
145.959 985 31.3847
146.075 880 29.6648
146.192 924 30.3974
146.308 954 30.8869
146.425 854 29.2233
146.541 805 28.3725
146.658 848 29.1204
146.774 817 28.5832
146.891 843 29.0345
147.008 875 29.5804
147.125 931 30.5123
147.241 923 30.3809
147.358 901 30.0167
147.475 916 30.2655
147.592 933 30.545
147.709 1018 31.9061
147.826 981 31.3209
147.943 980 31.305
148.06 987 31.4166
148.177 920 30.3315
148.294 946 30.7571
148.411 960 30.9839
148.528 910 30.1662
148.645 983 31.3528
148.762 966 31.0805
148.88 920 30.3315
148.997 865 29.4109
149.114 1014 31.8434
149.231 979 31.289
149.349 956 30.9192
149.466 885 29.7489
149.583 929 30.4795
149.701 906 30.0998
149.818 891 29.8496
149.935 812 28.4956
150.053 836 28.9137
150.17 846 29.0861
150.287 882 29.6985
150.405 791 28.1247
150.522 829 28.7924
150.64 825 28.7228
150.757 813 28.5132
150.875 836 28.9137
150.992 891 29.8496
151.11 803 28.3373
151.227 941 30.6757
151.344 904 30.0666
151.462 921 30.348
151.579 970 31.1448
151.697 965 31.0644
151.814 947 30.7734
151.932 956 30.9192
152.049 906 30.0998
152.167 900 30
152.284 899 29.9833
152.402 952 30.8545
152.519 976 31.241
152.636 995 31.5436
152.754 965 31.0644
152.871 950 30.8221
152.989 943 30.7083
153.106 990 31.4643
153.223 922 30.3645
153.341 845 29.0689
153.458 856 29.2575
153.575 879 29.6479
153.693 838 28.9482
153.81 836 28.9137
153.927 846 29.0861
154.044 834 28.8791
154.162 860 29.3258
154.279 865 29.4109
154.396 942 30.692
154.513 958 30.9516
154.63 899 29.9833
154.747 924 30.3974
154.864 959 30.9677
154.981 960 30.9839
155.098 972 31.1769
155.215 1024 32
155.332 1024 32
155.449 984 31.3688
155.566 930 30.4959
155.683 1010 31.7805
155.8 1036 32.187
155.917 1027 32.0468
156.033 930 30.4959
156.15 0 1
156.267 0 1
156.383 0 1
156.5 0 1
156.617 0 1
156.733 0 1
156.85 0 1
156.966 0 1
157.082 0 1
157.199 0 1
157.315 0 1
157.431 0 1
157.547 0 1
157.664 0 1
157.78 0 1
157.896 0 1
158.012 0 1
158.128 0 1
158.244 0 1
158.359 0 1
158.475 0 1
158.591 0 1
158.706 0 1
