
6.15755 0 1
6.2731 0 1
6.3887 0 1
6.50437 0 1
6.62009 0 1
6.73587 0 1
6.8517 0 1
6.96759 0 1
7.08353 0 1
7.19952 0 1
7.31557 0 1
7.43166 0 1
7.54781 0 1
7.664 0 1
7.78024 0 1
7.89653 0 1
8.01286 0 1
8.12924 0 1
8.24567 0 1
8.36213 0 1
8.47864 0 1
8.59519 0 1
8.71178 0 1
8.82841 0 1
8.94508 0 1
9.06179 0 1
9.17853 0 1
9.29531 0 1
9.41212 0 1
9.52897 0 1
9.64584 0 1
9.76276 0 1
9.8797 0 1
9.99667 0 1
10.1137 0 1
10.2307 0 1
10.3478 0 1
10.4648 0 1
10.5819 0 1
10.6991 0 1
10.8162 0 1
10.9334 0 1
11.0506 0 1
11.1678 0 1
11.285 0 1
11.4023 0 1
11.5196 0 1
11.6369 0 1
11.7542 0 1
11.8715 0 1
11.9888 0 1
12.1062 0 1
12.2235 0 1
12.3409 0 1
12.4582 0 1
12.5756 0 1
12.693 0 1
12.8104 0 1
12.9278 0 1
13.0452 0 1
13.1626 0 1
13.28 0 1
13.3974 0 1
13.5149 0 1
13.6323 0 1
13.7497 0 1
13.8671 0 1
13.9845 0 1
14.1019 0 1
14.2193 0 1
14.3367 0 1
14.4541 0 1
14.5714 0 1
14.6888 0 1
14.8062 0 1
14.9235 0 1
15.0408 0 0
15.1581 0 0
15.2755 0 0
15.3927 0 0
15.51 0 0
15.6273 0 0
15.7445 0 0
15.8617 0 0
15.9789 0 0
16.0961 0 0
16.2132 0 0
16.3304 0 0
16.4475 0 0
16.5646 0 0
16.6816 0 0
16.7986 0 0
16.9156 0 0
17.0326 0 0
17.1496 0 0
17.2665 0 0
17.3833 0 0
17.5002 0 0
17.617 0 0
17.7338 0 0
17.8505 0 0
17.9672 0 0
18.0839 0 0
18.2005 0 0
18.3171 0 0
18.4337 0 0
18.5502 0 0
18.6666 0 0
18.7831 0 0
18.8994 0 0
19.0158 0 0
19.1321 0 0
19.2483 0 0
19.3645 0 0
19.4806 0 0
19.5967 0 0
19.7128 0 0
19.8288 0 0
19.9447 0 0
20.0606 0 1
20.1764 0 1
20.2922 0 1
20.4079 0 1
20.5236 0 1
20.6392 0 1
20.7548 0 1
20.8702 0 1
23.3078 0 1
23.4233 0 1
23.539 0 1
23.6547 0 1
23.7704 0 1
23.8862 0 1
24.0021 0 1
24.118 0 1
24.234 0 1
24.35 0 1
24.4661 30317 174.118
24.5822 30455 174.514
24.6984 29994 173.188
24.8146 29954 173.072
24.9309 29974 173.13
25.0472 29632 172.139
25.1636 29637 172.154
25.28 29857 172.792
25.3965 30521 174.703
25.513 30351 174.215
25.6296 31070 176.267
25.7462 31729 178.126
25.8628 31363 177.096
25.9795 31006 176.085
26.0962 31527 177.558
26.213 31489 177.451
26.3298 31331 177.006
26.4466 31001 176.071
26.5635 29692 172.314
26.6804 28490 168.79
26.7973 28807 169.726
26.9143 29803 172.635
27.0313 31399 177.198
27.1483 32037 178.989
27.2653 33289 182.453
27.3824 33091 181.909
27.4996 32956 181.538
27.6167 33168 182.121
27.7339 32874 181.312
27.8511 32081 179.112
27.9683 31780 178.269
28.0855 31238 176.743
28.2028 30893 175.764
28.3201 29776 172.557
28.4374 29178 170.816
28.5547 28690 169.381
28.6721 28009 167.359
28.7894 28178 167.863
28.9068 28185 167.884
29.0242 28316 168.274
29.1416 28375 168.449
29.259 28282 168.173
29.3764 28847 169.844
29.4939 28905 170.015
29.6113 28762 169.594
29.7288 28976 170.223
29.8463 29171 170.795
29.9638 28728 169.493
30.0812 27638 166.247
30.1987 26739 163.521
30.3162 26903 164.021
30.4337 27753 166.592
30.5512 29627 172.125
30.6687 30502 174.648
30.7862 31487 177.446
30.9037 31212 176.669
31.0212 31783 178.278
31.1387 31421 177.26
31.2562 31403 177.209
31.3737 31259 176.802
31.4912 30830 175.585
31.6087 30406 174.373
31.7262 29467 171.66
31.8436 29170 170.792
31.9611 28572 169.033
32.0785 27901 167.036
32.1959 27256 165.094
32.3134 27289 165.194
32.4308 27280 165.167
32.5482 27006 164.335
32.6655 27512 165.867
32.7829 27809 166.76
32.9002 27608 166.157
33.0176 27835 166.838
33.1349 27715 166.478
33.2522 28573 169.035
33.3694 28043 167.46
33.4867 29038 170.405
33.6039 28291 168.199
33.7211 27494 165.813
33.8383 26538 162.905
33.9554 26667 163.3
34.0725 27671 166.346
34.1896 29045 170.426
34.3067 29907 172.936
34.4237 30417 174.405
34.5407 30882 175.733
34.6577 31197 176.627
34.7746 31160 176.522
34.8915 30556 174.803
35.0084 30591 174.903
35.1252 30482 174.591
35.242 30251 173.928
35.3587 30062 173.384
35.4755 28985 170.25
35.5921 28260 168.107
35.7088 27478 165.765
35.8254 26549 162.939
35.9419 26129 161.645
36.0584 25636 160.112
36.1749 25796 160.611
36.2913 25521 159.753
36.4077 25793 160.602
36.524 26117 161.608
36.6403 26645 163.233
36.7565 26835 163.814
36.8727 27161 164.806
36.9889 27519 165.889
37.1049 27485 165.786
37.221 0 1
37.3369 0 1
37.4529 0 1
37.5687 0 1
37.6845 0 1
37.8003 0 1
37.916 0 1
38.0316 0 1
38.1472 0 1
40.5851 0 1
40.7008 0 1
40.8164 0 1
40.9322 0 1
41.048 0 1
41.1639 0 1
41.2798 0 1
41.3958 0 1
41.5118 0 1
41.6279 0 1
41.744 19641 140.146
41.8602 20911 144.606
41.9765 21444 146.438
42.0928 22222 149.07
42.2091 23004 151.671
42.3255 22922 151.4
42.4419 22027 148.415
42.5584 21354 146.13
42.675 20336 142.604
42.7915 20507 143.203
42.9081 21596 146.956
43.0248 22553 150.177
43.1415 22989 151.621
43.2582 23220 152.381
43.375 23366 152.859
43.4918 23354 152.82
43.6087 23264 152.525
43.7256 22998 151.651
43.8425 22231 149.101
43.9595 21899 147.983
44.0765 21684 147.255
44.1935 21295 145.928
44.3106 20747 144.038
44.4277 19023 137.924
44.5448 18243 135.067
44.6619 17235 131.282
44.7791 16928 130.108
44.8963 16184 127.216
45.0136 16231 127.401
45.1308 15762 125.547
45.2481 15877 126.004
45.3654 16032 126.618
45.4827 16430 128.18
45.6001 16913 130.05
45.7174 16885 129.942
45.8348 17442 132.068
45.9522 16834 129.746
46.0697 15877 126.004
46.1871 15117 122.951
46.3046 14949 122.266
46.422 15244 123.467
46.5395 16139 127.039
46.657 16577 128.752
46.7745 16515 128.511
46.892 16931 130.119
47.0096 16953 130.204
47.1271 17164 131.011
47.2446 16906 130.023
47.3622 16420 128.141
47.4797 16232 127.405
47.5973 15889 126.052
47.7149 15410 124.137
47.8324 14812 121.705
47.95 14021 118.41
48.0675 13043 114.206
48.1851 12300 110.905
48.3027 11740 108.351
48.4202 11584 107.629
48.5378 11488 107.182
48.6554 11450 107.005
48.7729 11519 107.327
48.8904 12149 110.223
49.008 12383 111.279
49.1255 12723 112.796
49.243 13050 114.237
49.3605 12982 113.939
49.478 12462 111.633
49.5955 12142 110.191
49.713 11699 108.162
49.8304 11872 108.959
49.9479 12329 111.036
50.0653 13354 115.56
50.1827 14302 119.591
50.3001 14715 121.305
50.4175 15429 124.214
50.5348 15759 125.535
50.6521 16387 128.012
50.7694 16532 128.577
50.8867 16630 128.957
51.004 16854 129.823
51.1212 17093 130.74
51.2384 17323 131.617
51.3556 17628 132.77
51.4727 17111 130.809
51.5899 16401 128.066
51.707 15648 125.092
51.824 15520 124.579
51.9411 15758 125.531
52.0581 16095 126.866
52.175 16263 127.526
52.2919 17134 130.897
52.4088 17450 132.098
52.5257 18364 135.514
52.6425 19262 138.788
52.7593 20187 142.081
52.876 20635 143.649
52.9927 21193 145.578
53.1094 20579 143.454
53.226 20297 142.468
53.3426 20498 143.171
53.4591 20654 143.715
53.5756 21883 147.929
53.692 23059 151.852
53.8084 24290 155.852
53.9248 25456 159.549
54.0411 25861 160.814
54.1573 26575 163.018
54.2735 0 1
54.3896 0 1
54.5057 0 1
54.6217 0 1
54.7377 0 1
54.8537 0 1
54.9695 0 1
55.0853 0 1
55.2011 0 1
55.3168 0 1
55.4324 0 1
57.824 0 1
57.9396 0 1
58.0553 0 1
58.1711 0 1
58.2869 0 1
58.4028 0 1
58.5187 0 1
58.6347 0 1
58.7508 0 1
58.8669 0 1
58.983 27491 165.804
59.0992 28976 170.223
59.2155 29799 172.624
59.3318 30551 174.788
59.4482 30852 175.647
59.5646 30498 174.637
59.681 30702 175.22
59.7975 29914 172.957
59.9141 28985 170.25
60.0306 27350 165.378
60.1473 25743 160.446
60.2639 24075 155.161
60.3807 22478 149.927
60.4974 21420 146.356
60.6142 20874 144.478
60.731 21186 145.554
60.8479 21241 145.743
60.9648 22314 149.379
61.0818 23379 152.902
61.1987 23941 154.729
61.3158 25087 158.389
61.4328 24694 157.143
61.5499 24397 156.195
61.667 24312 155.923
61.7841 23632 153.727
61.9013 23623 153.698
62.0185 23466 153.186
62.1357 24248 155.718
62.253 25457 159.552
62.3702 26370 162.388
62.4875 27185 164.879
62.6049 28082 167.577
62.7222 28678 169.346
62.8396 29226 170.956
62.9569 29292 171.149
63.0743 29316 171.219
63.1918 29249 171.023
63.3092 28439 168.639
63.4267 27733 166.532
63.5441 26426 162.561
63.6616 25049 158.269
63.7791 23359 152.837
63.8966 22293 149.308
64.0142 21186 145.554
64.1317 20750 144.049
64.2492 20987 144.869
64.3668 21436 146.41
64.4843 22736 150.785
64.6019 23920 154.661
64.7195 24646 156.99
64.837 25244 158.884
64.9546 25493 159.665
65.0722 25415 159.421
65.1898 24902 157.804
65.3074 24436 156.32
65.4249 23822 154.344
65.5425 23295 152.627
65.6601 23853 154.444
65.7777 24697 157.153
65.8952 25878 160.866
66.0128 26821 163.771
66.1304 27710 166.463
66.2479 28546 168.956
66.3655 29091 170.561
66.483 29026 170.37
66.6005 29702 172.343
66.718 29325 171.245
66.8355 28684 169.364
66.953 27913 167.072
67.0705 26535 162.896
67.1879 25195 158.729
67.3054 23503 153.307
67.4228 21848 147.811
67.5402 20175 142.039
67.6576 19154 138.398
67.7749 18840 137.259
67.8923 19333 139.043
68.0096 19895 141.05
68.1269 21081 145.193
68.2442 22423 149.743
68.3614 23736 154.065
68.4787 24615 156.892
68.5958 24195 155.547
68.713 24701 157.166
68.8302 23808 154.298
68.9473 22832 151.103
69.0643 22924 151.407
69.1814 22342 149.472
69.2984 22771 150.901
69.4154 23795 154.256
69.5323 25041 158.243
69.6492 26143 161.688
69.7661 26896 164
69.8829 28347 168.366
69.9997 29263 171.064
70.1165 29698 172.331
70.2332 29823 172.693
70.3499 29840 172.743
70.4665 29145 170.719
70.5831 28452 168.677
70.6996 26512 162.825
70.8161 24196 155.551
70.9326 23311 152.679
71.049 21503 146.639
71.1653 20102 141.782
71.2817 18755 136.949
71.3979 17838 133.559
71.5141 18068 134.417
71.6303 18217 134.97
71.7464 18075 134.443
71.8624 0 1
71.9784 0 1
72.0944 0 1
72.2102 0 1
72.3261 0 1
72.4418 0 1
72.5575 0 1
72.6732 0 1
75.1054 0 1
75.2209 0 1
75.3365 0 1
75.4521 0 1
75.5678 0 1
75.6835 0 1
75.7993 0 1
75.9151 0 1
76.031 0 1
76.147 23104 152
76.263 23865 154.483
76.3791 22628 150.426
76.4952 20906 144.589
76.6113 19216 138.622
76.7276 18753 136.942
76.8438 18946 137.644
76.9601 19756 140.556
77.0765 21554 146.813
77.1929 23035 151.773
77.3093 25163 158.628
77.4258 26184 161.815
77.5423 26834 163.811
77.6589 26039 161.366
77.7755 25805 160.639
77.8921 24470 156.429
78.0088 23772 154.182
78.1256 23427 153.059
78.2423 22963 151.535
78.3591 23278 152.571
78.4759 24021 154.987
78.5928 25524 159.762
78.7097 26873 163.93
78.8266 26995 164.302
78.9436 29713 172.375
79.0606 28868 169.906
79.1776 29088 170.552
79.2946 29093 170.567
79.4117 28867 169.903
79.5288 28679 169.349
79.6459 27973 167.251
79.7631 25657 160.178
79.8802 23333 152.751
79.9974 21454 146.472
80.1147 19542 139.793
80.2319 17883 133.727
80.3491 17035 130.518
80.4664 17063 130.625
80.5837 17772 133.312
80.701 19237 138.698
80.8183 20427 142.923
80.9357 21502 146.636
81.053 22683 150.609
81.1704 22969 151.555
81.2877 22211 149.034
81.4051 22299 149.328
81.5225 21041 145.055
81.6399 20900 144.568
81.7573 20376 142.745
81.8747 19513 139.689
81.9922 19608 140.029
82.1096 21043 145.062
82.227 22355 149.516
82.3444 23222 152.388
82.4619 24552 156.691
82.5793 24961 157.991
82.6967 24709 157.191
82.8142 24852 157.645
82.9316 25142 158.562
83.049 24724 157.239
83.1664 24084 155.19
83.2838 22467 149.89
83.4012 20654 143.715
83.5186 19363 139.151
83.636 17650 132.853
83.7534 16580 128.763
83.8708 14876 121.967
83.9881 14143 118.924
84.1055 14398 119.992
84.2228 15327 123.802
84.3401 16347 127.855
84.4575 17993 134.138
84.5747 19935 141.191
84.692 21013 144.959
84.8093 20941 144.71
84.9265 20732 143.986
85.0437 19842 140.862
85.1609 19394 139.262
85.2781 18984 137.782
85.3952 18692 136.719
85.5123 18949 137.655
85.6294 19643 140.153
85.7465 20848 144.388
85.8636 22332 149.439
85.9806 23921 154.664
86.0976 25425 159.452
86.2145 25984 161.196
86.3315 27397 165.52
86.4484 26610 163.126
86.5652 27835 166.838
86.682 27005 164.332
86.7988 26111 161.589
86.9156 24826 157.563
87.0323 23235 152.43
87.149 21494 146.608
87.2657 20107 141.799
87.3823 18234 135.033
87.4988 17168 131.027
87.6154 17540 132.439
87.7318 18313 135.326
87.8483 19789 140.673
87.9647 21696 147.296
88.081 23871 154.502
88.1973 25939 161.056
88.3136 26285 162.126
88.4298 25989 161.211
88.546 24901 157.801
88.6621 24655 157.019
88.7781 23712 153.987
88.8942 0 1
89.0101 0 1
89.126 0 1
89.2419 0 1
89.3577 0 1
89.4734 0 1
89.5891 0 1
89.7047 0 1
89.8203 0 1
89.9358 0 1
92.3269 0 1
92.4424 0 1
92.558 0 1
92.6736 0 1
92.7893 0 1
92.905 0 1
93.0208 0 1
93.1366 0 1
93.2525 0 1
93.3685 0 1
93.4845 0 1
93.6005 23943 154.735
93.7167 25312 159.097
93.8328 25393 159.352
93.949 25432 159.474
94.0653 24426 156.288
94.1816 23904 154.609
94.2979 23724 154.026
94.4143 23276 152.565
94.5307 23067 151.878
94.6472 23614 153.668
94.7637 24397 156.195
94.8803 25735 160.421
94.9969 27250 165.076
95.1135 28571 169.03
95.2302 29534 171.855
95.3469 29827 172.705
95.4637 30083 173.445
95.5805 30246 173.914
95.6973 30923 175.849
95.8142 30366 174.258
95.9311 29075 170.514
96.048 27940 167.153
96.1649 26096 161.543
96.2819 24371 156.112
96.3989 22689 150.629
96.516 20844 144.375
96.633 19068 138.087
96.7501 18172 134.804
96.8673 19021 137.917
96.9844 19876 140.982
97.1016 21765 147.53
97.2188 24131 155.342
97.336 25866 160.829
97.4532 26602 163.101
97.5704 26373 162.398
97.6877 25214 158.789
97.805 24313 155.926
97.9223 23776 154.195
98.0396 23356 152.827
98.1569 23139 152.115
98.2743 23124 152.066
98.3916 23662 153.825
98.509 24988 158.076
98.6264 26425 162.558
98.7438 27578 166.066
98.8612 29331 171.263
98.9786 30074 173.419
99.096 30341 174.187
99.2134 30427 174.433
99.3308 30575 174.857
99.4482 30424 174.425
99.5656 29061 170.473
99.6831 27606 166.151
99.8005 25885 160.888
99.9179 24594 156.825
100.035 22727 150.755
100.153 20873 144.475
100.27 18809 137.146
100.388 19173 138.467
100.505 20314 142.527
100.622 21607 146.993
100.74 23550 153.46
100.857 25292 159.035
100.975 25932 161.034
101.092 26155 161.725
101.209 26166 161.759
101.327 24879 157.731
101.444 24771 157.388
101.561 23982 154.861
101.679 23965 154.806
101.796 23948 154.751
101.913 24317 155.939
102.03 25267 158.956
102.148 27078 164.554
102.265 28395 168.508
102.382 31237 176.74
102.499 31081 176.298
102.616 32018 178.936
102.733 31868 178.516
102.851 32270 179.639
102.968 32127 179.24
103.085 31213 176.672
103.202 29839 172.74
103.319 27903 167.042
103.436 26898 164.006
103.552 24556 156.704
103.669 22179 148.926
103.786 20222 142.204
103.903 20569 143.419
104.02 21347 146.106
104.137 23224 152.394
104.253 25197 158.736
104.37 26954 164.177
104.487 27889 167
104.603 28141 167.753
104.72 27188 164.888
104.836 26904 164.024
104.953 26543 162.92
105.069 25971 161.155
105.186 26103 161.564
105.302 26349 162.324
105.418 26972 164.232
105.535 28522 168.885
105.651 30800 175.499
105.767 32916 181.428
105.883 33586 183.265
105.999 34730 186.36
106.115 0 1
106.231 0 1
106.347 0 1
106.463 0 1
106.579 0 1
106.694 0 1
106.81 0 1
106.926 0 1
107.041 0 1
107.157 0 1
109.576 0 1
109.692 0 1
109.807 0 1
109.923 0 1
110.039 0 1
110.155 0 1
110.27 0 1
110.386 0 1
110.502 0 1
110.618 27573 166.051
110.735 29536 171.86
110.851 31453 177.35
110.967 32445 180.125
111.083 32740 180.942
111.199 33170 182.126
111.316 34080 184.608
111.432 33901 184.122
111.549 32831 181.193
111.665 31587 177.727
111.782 29992 173.182
111.898 28728 169.493
112.015 27123 164.691
112.132 25157 158.61
112.248 22219 149.06
112.365 21042 145.059
112.482 20424 142.913
112.599 22699 150.662
112.716 23607 153.646
112.832 25593 159.978
112.949 26191 161.836
113.066 26507 162.81
113.183 25824 160.698
113.3 25314 159.104
113.417 24755 157.337
113.534 24831 157.579
113.652 24653 157.013
113.769 24722 157.232
113.886 25318 159.116
114.003 25934 161.04
114.12 27250 165.076
114.238 28839 169.82
114.355 30620 174.986
114.472 30976 176
114.589 32257 179.602
114.707 32276 179.655
114.824 32643 180.674
114.942 32808 181.13
115.059 32759 180.994
115.176 31510 177.511
115.294 30956 175.943
115.411 29252 171.032
115.529 28168 167.833
115.646 26519 162.847
115.764 24165 155.451
115.881 22188 148.956
115.999 21915 148.037
116.116 22347 149.489
116.234 24189 155.528
116.351 25651 160.159
116.469 26536 162.899
116.586 26977 164.247
116.704 26833 163.808
116.821 26150 161.71
116.939 25820 160.686
117.056 25980 161.183
117.174 25825 160.702
117.291 26328 162.259
117.409 26793 163.686
117.526 27262 165.112
117.644 28797 169.697
117.761 30070 173.407
117.879 31542 177.601
117.996 32485 180.236
118.114 33195 182.195
118.231 33876 184.054
118.349 33992 184.369
118.466 34218 184.981
118.584 34616 186.054
118.701 33823 183.91
118.819 32753 180.978
118.936 31695 178.031
119.053 30252 173.931
119.171 29051 170.444
119.288 27624 166.205
119.405 24929 157.889
119.523 23498 153.291
119.64 22943 151.469
119.757 23597 153.613
119.875 25003 158.123
119.992 25851 160.782
120.109 26424 162.555
120.226 26553 162.951
120.343 26421 162.545
120.46 26137 161.669
120.578 25760 160.499
120.695 25825 160.702
120.812 26169 161.768
120.929 26671 163.313
121.046 27318 165.282
121.163 27605 166.148
121.279 29085 170.543
121.396 30101 173.496
121.513 31284 176.873
121.63 32546 180.405
121.747 32779 181.05
121.863 33633 183.393
121.98 33564 183.205
122.097 34038 184.494
122.213 33689 183.546
122.33 33316 182.527
122.446 32719 180.884
122.563 31478 177.42
122.679 30351 174.215
122.795 29491 171.729
122.912 28477 168.751
123.028 26835 163.814
123.144 24468 156.423
123.26 22991 151.628
123.377 0 1
123.493 0 1
123.609 0 1
123.725 0 1
123.84 0 1
123.956 0 1
124.072 0 1
124.188 0 1
124.303 0 1
124.419 0 1
126.852 0 1
126.968 0 1
127.083 0 1
127.199 0 1
127.315 0 1
127.431 0 1
127.547 0 1
127.663 0 1
127.779 0 1
127.895 0 1
128.011 0 1
128.127 0 1
128.243 0 1
128.359 28387 168.484
128.476 26215 161.91
128.592 25575 159.922
128.708 26246 162.006
128.825 27937 167.144
128.941 28987 170.256
129.058 29441 171.584
129.174 29262 171.061
129.291 29118 170.64
129.408 28632 169.21
129.524 28034 167.434
129.641 28463 168.71
129.758 28734 169.511
129.875 29108 170.611
129.992 29760 172.511
130.108 30644 175.054
130.225 31429 177.282
130.342 33302 182.488
130.459 33380 182.702
130.576 35320 187.936
130.693 35156 187.499
130.81 35304 187.894
130.928 35475 188.348
131.045 35437 188.247
131.162 35590 188.653
131.279 35613 188.714
131.396 35628 188.754
131.513 34420 185.526
131.631 33439 182.863
131.748 32079 179.106
131.865 30215 173.825
131.983 28119 167.687
132.1 26895 163.997
132.217 27153 164.782
132.335 28599 169.112
132.452 29896 172.905
132.57 30272 173.989
132.687 29704 172.348
132.804 30778 175.437
132.922 29406 171.482
133.039 29170 170.792
133.157 28957 170.168
133.274 29149 170.731
133.392 29272 171.091
133.509 29822 172.69
133.627 30553 174.794
133.744 31456 177.358
133.862 32734 180.925
133.979 33515 183.071
134.097 33756 183.728
134.214 33680 183.521
134.332 34686 186.242
134.449 34753 186.422
134.567 34829 186.625
134.684 35289 187.854
134.802 35189 187.587
134.919 34887 186.781
135.037 34646 186.134
135.154 32905 181.397
135.272 32721 180.889
135.389 30764 175.397
135.507 29139 170.701
135.624 27038 164.432
135.742 26832 163.805
135.859 28257 168.098
135.977 29515 171.799
136.094 30450 174.499
136.211 30197 173.773
136.329 30196 173.77
136.446 29837 172.734
136.564 29264 171.067
136.681 29354 171.33
136.798 29423 171.531
136.915 29287 171.134
137.033 29728 172.418
137.15 29967 173.11
137.267 30514 174.683
137.384 31418 177.251
137.502 32088 179.131
137.619 33057 181.816
137.736 33463 182.929
137.853 32824 181.174
137.97 34776 186.483
138.087 33401 182.759
138.204 34350 185.338
138.321 34207 184.951
138.438 34683 186.234
138.555 35033 187.171
138.672 34509 185.766
138.788 33968 184.304
138.905 32644 180.677
139.022 31372 177.121
139.139 29631 172.137
139.255 27846 166.871
139.372 27652 166.289
139.488 28540 168.938
139.605 30228 173.862
139.721 30992 176.045
139.838 30980 176.011
139.954 30695 175.2
140.071 29458 171.633
140.187 29446 171.598
140.303 29332 171.266
140.419 28970 170.206
140.535 28752 169.564
140.652 28323 168.294
140.768 0 1
140.884 0 1
141 0 1
141.115 0 1
141.231 0 1
141.347 0 1
141.463 0 1
141.578 0 1
141.694 0 1
144.104 0 1
144.219 0 1
144.335 0 1
144.45 0 1
144.566 0 1
144.682 0 1
144.798 0 1
144.914 0 1
145.03 0 1
145.146 22370 149.566
145.262 23589 153.587
145.378 23684 153.896
145.494 23544 153.441
145.61 23446 153.121
145.726 23725 154.029
145.842 23825 154.353
145.959 24181 155.502
146.075 24082 155.184
146.192 24938 157.918
146.308 25334 159.167
146.425 26314 162.216
146.541 26209 161.892
146.658 26577 163.025
146.774 26745 163.539
146.891 26923 164.082
147.008 27198 164.918
147.125 27371 165.442
147.241 27827 166.814
147.358 27983 167.281
147.475 27849 166.88
147.592 27888 166.997
147.709 26951 164.168
147.826 26598 163.089
147.943 25573 159.916
148.06 24132 155.345
148.177 23147 152.141
148.294 23319 152.706
148.411 23629 153.717
148.528 25254 158.915
148.645 25522 159.756
148.762 25782 160.568
148.88 25585 159.953
148.997 25148 158.581
149.114 25560 159.875
149.231 25073 158.345
149.349 24680 157.099
149.466 25230 158.84
149.583 24786 157.436
149.701 24981 158.054
149.818 25024 158.19
149.935 25177 158.673
150.053 25920 160.997
150.17 26390 162.45
150.287 26754 163.567
150.405 27000 164.317
150.522 27383 165.478
150.64 27880 166.973
150.757 27641 166.256
150.875 28302 168.232
150.992 28616 169.163
151.11 29149 170.731
151.227 28728 169.493
151.344 28430 168.612
151.462 27677 166.364
151.579 27506 165.849
151.697 26296 162.16
151.814 24508 156.55
151.932 23622 153.695
152.049 24418 156.263
152.167 25554 159.856
152.284 26622 163.162
152.402 27136 164.73
152.519 26858 163.884
152.636 26827 163.789
152.754 26917 164.064
152.871 26575 163.018
152.989 26160 161.741
153.106 26257 162.04
153.223 26146 161.697
153.341 26263 162.059
153.458 26540 162.911
153.575 27005 164.332
153.693 27627 166.214
153.81 27965 167.227
153.927 28659 169.29
154.044 28826 169.782
154.162 29181 170.824
154.279 29924 172.986
154.396 30197 173.773
154.513 30425 174.428
154.63 31149 176.491
154.747 31552 177.629
154.864 31198 176.63
154.981 31234 176.731
155.098 30332 174.161
155.215 29736 172.441
155.332 28581 169.059
155.449 27273 165.145
155.566 27511 165.864
155.683 28032 167.428
155.8 29226 170.956
155.917 29309 171.199
156.033 29158 170.757
156.15 0 1
156.267 0 1
156.383 0 1
156.5 0 1
156.617 0 1
156.733 0 1
156.85 0 1
156.966 0 1
157.082 0 1
157.199 0 1
157.315 0 1
157.431 0 1
157.547 0 1
157.664 0 1
157.78 0 1
157.896 0 1
158.012 0 1
158.128 0 1
158.244 0 1
158.359 0 1
158.475 0 1
158.591 0 1
158.706 0 1
