
6.15755 0 1
6.2731 0 1
6.3887 0 1
6.50437 0 1
6.62009 0 1
6.73587 0 1
6.8517 0 1
6.96759 0 1
7.08353 0 1
7.19952 0 1
7.31557 0 1
7.43166 0 1
7.54781 0 1
7.664 0 1
7.78024 0 1
7.89653 0 1
8.01286 0 1
8.12924 0 1
8.24567 0 1
8.36213 0 1
8.47864 0 1
8.59519 0 1
8.71178 0 1
8.82841 0 1
8.94508 0 1
9.06179 0 1
9.17853 0 1
9.29531 0 1
9.41212 0 1
9.52897 0 1
9.64584 0 1
9.76276 0 1
9.8797 0 1
9.99667 0 1
10.1137 0 1
10.2307 0 1
10.3478 0 1
10.4648 0 1
10.5819 0 1
10.6991 0 1
10.8162 0 1
10.9334 0 1
11.0506 0 1
11.1678 0 1
11.285 0 1
11.4023 0 1
11.5196 0 1
11.6369 0 1
11.7542 0 1
11.8715 0 1
11.9888 0 1
12.1062 0 1
12.2235 0 1
12.3409 0 1
12.4582 0 1
12.5756 0 1
12.693 0 1
12.8104 0 1
12.9278 0 1
13.0452 0 1
13.1626 0 1
13.28 0 1
13.3974 0 1
13.5149 0 1
13.6323 0 1
13.7497 0 1
13.8671 0 1
13.9845 0 1
14.1019 0 1
14.2193 0 1
14.3367 0 1
14.4541 0 1
14.5714 0 1
14.6888 0 1
14.8062 0 1
14.9235 0 1
15.0408 3791 61.5711
15.1581 4083 63.8984
15.2755 4345 65.9166
15.3927 4256 65.238
15.51 4277 65.3988
15.6273 4213 64.9076
15.7445 4160 64.4981
15.8617 4106 64.0781
15.9789 4063 63.7417
16.0961 4036 63.5295
16.2132 3840 61.9677
16.3304 3646 60.3821
16.4475 3700 60.8276
16.5646 3868 62.1932
16.6816 3930 62.6897
16.7986 3875 62.2495
16.9156 3795 61.6036
17.0326 3808 61.709
17.1496 3758 61.3025
17.2665 3773 61.4248
17.3833 3814 61.7576
17.5002 3858 62.1128
17.617 3894 62.4019
17.7338 4008 63.3088
17.8505 4087 63.9296
17.9672 3866 62.1772
18.0839 3798 61.6279
18.2005 3660 60.4979
18.3171 3555 59.6238
18.4337 3527 59.3886
18.5502 3655 60.4566
18.6666 3983 63.111
18.7831 3850 62.0484
18.8994 3746 61.2046
19.0158 3782 61.498
19.1321 3557 59.6406
19.2483 3570 59.7495
19.3645 3427 58.5406
19.4806 3201 56.5774
19.5967 2965 54.4518
19.7128 2585 50.8429
19.8288 2331 48.2804
19.9447 2126 46.1086
20.0606 0 1
20.1764 0 1
20.2922 0 1
20.4079 0 1
20.5236 0 1
20.6392 0 1
20.7548 0 1
20.8702 0 1
23.3078 0 1
23.4233 0 1
23.539 0 1
23.6547 0 1
23.7704 0 1
23.8862 0 1
24.0021 0 1
24.118 0 1
24.234 0 1
24.35 0 1
24.4661 1545 39.3065
24.5822 1756 41.9047
24.6984 1926 43.8862
24.8146 2308 48.0416
24.9309 2658 51.5558
25.0472 3060 55.3173
25.1636 3246 56.9737
25.28 3490 59.0762
25.3965 3787 61.5386
25.513 3740 61.1555
25.6296 3930 62.6897
25.7462 4096 64
25.8628 4135 64.304
25.9795 4134 64.2962
26.0962 3988 63.1506
26.213 3884 62.3217
26.3298 3764 61.3514
26.4466 3746 61.2046
26.5635 3588 59.8999
26.6804 3406 58.3609
26.7973 3250 57.0088
26.9143 2993 54.7083
27.0313 2944 54.2586
27.1483 3138 56.0179
27.2653 3431 58.5747
27.3824 3459 58.8133
27.4996 3532 59.4306
27.6167 3580 59.8331
27.7339 3485 59.0339
27.8511 3560 59.6657
27.9683 3537 59.4727
28.0855 3498 59.1439
28.2028 3434 58.6003
28.3201 3296 57.4108
28.4374 3161 56.2228
28.5547 3256 57.0614
28.6721 3385 58.1808
28.7894 3496 59.127
28.9068 3468 58.8897
29.0242 3564 59.6992
29.1416 3500 59.1608
29.259 3458 58.8048
29.3764 3436 58.6174
29.4939 3486 59.0424
29.6113 3511 59.2537
29.7288 3376 58.1034
29.8463 3361 57.9741
29.9638 3319 57.6108
30.0812 3078 55.4797
30.1987 3054 55.263
30.3162 2860 53.479
30.4337 2828 53.1789
30.5512 2979 54.5802
30.6687 3161 56.2228
30.7862 3370 58.0517
30.9037 3448 58.7197
31.0212 3575 59.7913
31.1387 3532 59.4306
31.2562 3434 58.6003
31.3737 3615 60.1249
31.4912 3474 58.9406
31.6087 3449 58.7282
31.7262 3303 57.4717
31.8436 3057 55.2901
31.9611 2991 54.69
32.0785 3081 55.5068
32.1959 3186 56.4447
32.3134 3230 56.8331
32.4308 3288 57.3411
32.5482 3059 55.3082
32.6655 3052 55.2449
32.7829 3125 55.9017
32.9002 2948 54.2955
33.0176 2953 54.3415
33.1349 2959 54.3967
33.2522 3022 54.9727
33.3694 3020 54.9545
33.4867 3122 55.8749
33.6039 3039 55.1271
33.7211 3096 55.6417
33.8383 2941 54.231
33.9554 2715 52.1057
34.0725 2701 51.9711
34.1896 2883 53.6936
34.3067 3005 54.8179
34.4237 3087 55.5608
34.5407 3141 56.0446
34.6577 3162 56.2317
34.7746 3231 56.8419
34.8915 3136 56
35.0084 3097 55.6507
35.1252 3211 56.6657
35.242 3072 55.4256
35.3587 2864 53.5164
35.4755 2661 51.5849
35.5921 2752 52.4595
35.7088 2760 52.5357
35.8254 2810 53.0094
35.9419 2812 53.0283
36.0584 2934 54.1664
36.1749 2881 53.6749
36.2913 2770 52.6308
36.4077 2702 51.9808
36.524 2533 50.3289
36.6403 2538 50.3786
36.7565 2379 48.775
36.8727 2266 47.6025
36.9889 2174 46.6262
37.1049 1993 44.643
37.221 0 1
37.3369 0 1
37.4529 0 1
37.5687 0 1
37.6845 0 1
37.8003 0 1
37.916 0 1
38.0316 0 1
38.1472 0 1
40.5851 0 1
40.7008 0 1
40.8164 0 1
40.9322 0 1
41.048 0 1
41.1639 0 1
41.2798 0 1
41.3958 0 1
41.5118 0 1
41.6279 0 1
41.744 1368 36.9865
41.8602 1575 39.6863
41.9765 1681 41
42.0928 1938 44.0227
42.2091 2051 45.288
42.3255 2080 45.607
42.4419 2232 47.244
42.5584 2133 46.1844
42.675 2187 46.7654
42.7915 2174 46.6262
42.9081 2130 46.1519
43.0248 2161 46.4866
43.1415 2232 47.244
43.2582 2277 47.7179
43.375 2287 47.8226
43.4918 2396 48.949
43.6087 2265 47.592
43.7256 2185 46.744
43.8425 2206 46.9681
43.9595 2309 48.0521
44.0765 2188 46.7761
44.1935 2030 45.0555
44.3106 2073 45.5302
44.4277 2015 44.8888
44.5448 2152 46.3897
44.6619 2186 46.7547
44.7791 2300 47.9583
44.8963 2330 48.2701
45.0136 2335 48.3218
45.1308 2386 48.8467
45.2481 2314 48.1041
45.3654 2369 48.6724
45.4827 2409 49.0816
45.6001 2427 49.2646
45.7174 2430 49.295
45.8348 2525 50.2494
45.9522 2404 49.0306
46.0697 2310 48.0625
46.1871 2134 46.1952
46.3046 2098 45.8039
46.422 1931 43.9431
46.5395 2026 45.0111
46.657 2091 45.7275
46.7745 2121 46.0543
46.892 2270 47.6445
47.0096 2351 48.4871
47.1271 2257 47.5079
47.2446 2306 48.0208
47.3622 2302 47.9792
47.4797 2224 47.1593
47.5973 2148 46.3465
47.7149 2141 46.2709
47.8324 2073 45.5302
47.95 2084 45.6508
48.0675 2118 46.0217
48.1851 2242 47.3498
48.3027 2243 47.3603
48.4202 2263 47.571
48.5378 2292 47.8748
48.6554 2296 47.9166
48.7729 2282 47.7703
48.8904 2285 47.8017
49.008 2371 48.6929
49.1255 2372 48.7032
49.243 2279 47.7389
49.3605 2312 48.0833
49.478 2186 46.7547
49.5955 2020 44.9444
49.713 1916 43.7721
49.8304 1961 44.2832
49.9479 1874 43.2897
50.0653 1918 43.795
50.1827 1924 43.8634
50.3001 2015 44.8888
50.4175 2241 47.3392
50.5348 2188 46.7761
50.6521 2258 47.5184
50.7694 2097 45.793
50.8867 2154 46.4112
51.004 2045 45.2217
51.1212 2013 44.8665
51.2384 1926 43.8862
51.3556 1973 44.4185
51.4727 1997 44.6878
51.5899 2129 46.1411
51.707 2092 45.7384
51.824 2229 47.2123
51.9411 2064 45.4313
52.0581 2182 46.7119
52.175 2141 46.2709
52.2919 2165 46.5296
52.4088 2192 46.8188
52.5257 2172 46.6047
52.6425 2064 45.4313
52.7593 2183 46.7226
52.876 2221 47.1275
52.9927 2085 45.6618
53.1094 1992 44.6318
53.226 1989 44.5982
53.3426 1847 42.9767
53.4591 1820 42.6615
53.5756 1714 41.4005
53.692 1683 41.0244
53.8084 1673 40.9023
53.9248 1667 40.8289
54.0411 1519 38.9744
54.1573 1419 37.6696
54.2735 0 1
54.3896 0 1
54.5057 0 1
54.6217 0 1
54.7377 0 1
54.8537 0 1
54.9695 0 1
55.0853 0 1
55.2011 0 1
55.3168 0 1
55.4324 0 1
57.824 0 1
57.9396 0 1
58.0553 0 1
58.1711 0 1
58.2869 0 1
58.4028 0 1
58.5187 0 1
58.6347 0 1
58.7508 0 1
58.8669 0 1
58.983 2115 45.9891
59.0992 2724 52.192
59.2155 3270 57.1839
59.3318 3515 59.2874
59.4482 3790 61.563
59.5646 3978 63.0714
59.681 3896 62.4179
59.7975 3971 63.0159
59.9141 4166 64.5446
60.0306 4156 64.467
60.1473 4226 65.0077
60.2639 4477 66.9104
60.3807 4501 67.0895
60.4974 4520 67.2309
60.6142 4513 67.1789
60.731 4432 66.5733
60.8479 4417 66.4605
60.9648 4294 65.5286
61.0818 4180 64.6529
61.1987 4160 64.4981
61.3158 3991 63.1744
61.4328 4013 63.3482
61.5499 3871 62.2174
61.667 3748 61.2209
61.7841 3514 59.279
61.9013 3343 57.8187
62.0185 3107 55.7405
62.1357 3073 55.4346
62.253 3000 54.7723
62.3702 3003 54.7996
62.4875 3111 55.7763
62.6049 3115 55.8122
62.7222 3227 56.8067
62.8396 3212 56.6745
62.9569 3012 54.8817
63.0743 2903 53.8795
63.1918 2745 52.3927
63.3092 2702 51.9808
63.4267 2626 51.2445
63.5441 2624 51.225
63.6616 2630 51.2835
63.7791 2631 51.2933
63.8966 2585 50.8429
64.0142 2608 51.0686
64.1317 2595 50.9411
64.2492 2566 50.6557
64.3668 2505 50.05
64.4843 2509 50.0899
64.6019 2506 50.06
64.7195 2440 49.3964
64.837 2429 49.2849
64.9546 2472 49.7192
65.0722 2460 49.5984
65.1898 2374 48.7237
65.3074 2392 48.9081
65.4249 2249 47.4236
65.5425 2302 47.9792
65.6601 2213 47.0425
65.7777 2280 47.7493
65.8952 2231 47.2335
66.0128 2216 47.0744
66.1304 2361 48.5901
66.2479 2504 50.04
66.3655 2496 49.96
66.483 2581 50.8035
66.6005 2599 50.9804
66.718 2357 48.5489
66.8355 2301 47.9687
66.953 2282 47.7703
67.0705 2318 48.1456
67.1879 2366 48.6415
67.3054 2466 49.6588
67.4228 2426 49.2544
67.5402 2443 49.4267
67.6576 2501 50.01
67.7749 2585 50.8429
67.8923 2345 48.4252
68.0096 2483 49.8297
68.1269 2375 48.734
68.2442 2423 49.224
68.3614 2322 48.1871
68.4787 2325 48.2183
68.5958 2402 49.0102
68.713 2398 48.9694
68.8302 2412 49.1121
68.9473 2376 48.7442
69.0643 2367 48.6518
69.1814 2362 48.6004
69.2984 2293 47.8853
69.4154 2312 48.0833
69.5323 2308 48.0416
69.6492 2321 48.1768
69.7661 2272 47.6655
69.8829 2498 49.98
69.9997 2416 49.1528
70.1165 2502 50.02
70.2332 2452 49.5177
70.3499 2246 47.392
70.4665 2042 45.1885
70.5831 1890 43.4741
70.6996 1759 41.9404
70.8161 1725 41.5331
70.9326 1700 41.2311
71.049 1591 39.8873
71.1653 1482 38.4968
71.2817 1382 37.1753
71.3979 1278 35.7491
71.5141 1162 34.0881
71.6303 1107 33.2716
71.7464 954 30.8869
71.8624 0 1
71.9784 0 1
72.0944 0 1
72.2102 0 1
72.3261 0 1
72.4418 0 1
72.5575 0 1
72.6732 0 1
75.1054 0 1
75.2209 0 1
75.3365 0 1
75.4521 0 1
75.5678 0 1
75.6835 0 1
75.7993 0 1
75.9151 0 1
76.031 0 1
76.147 1473 38.3797
76.263 1567 39.5854
76.3791 1847 42.9767
76.4952 2001 44.7325
76.6113 2112 45.9565
76.7276 2053 45.31
76.8438 2110 45.9347
76.9601 2116 46
77.0765 2116 46
77.1929 2129 46.1411
77.3093 2070 45.4973
77.4258 2118 46.0217
77.5423 2110 45.9347
77.6589 2150 46.3681
77.7755 2133 46.1844
77.8921 2138 46.2385
78.0088 2053 45.31
78.1256 2070 45.4973
78.2423 1972 44.4072
78.3591 1913 43.7379
78.4759 1879 43.3474
78.5928 1896 43.5431
78.7097 1992 44.6318
78.8266 2066 45.4533
78.9436 2239 47.3181
79.0606 2132 46.1736
79.1776 2193 46.8295
79.2946 2191 46.8081
79.4117 2171 46.594
79.5288 2127 46.1194
79.6459 2055 45.3321
79.7631 2108 45.913
79.8802 2126 46.1086
79.9974 2309 48.0521
80.1147 2356 48.5386
80.2319 2306 48.0208
80.3491 2408 49.0714
80.4664 2291 47.8644
80.5837 2297 47.927
80.701 2208 46.9894
80.8183 2265 47.592
80.9357 2121 46.0543
81.053 2212 47.0319
81.1704 2332 48.2908
81.2877 2242 47.3498
81.4051 2203 46.9361
81.5225 2267 47.613
81.6399 2216 47.0744
81.7573 2194 46.8402
81.8747 2138 46.2385
81.9922 2096 45.7821
82.1096 1963 44.3058
82.227 2052 45.299
82.3444 2129 46.1411
82.4619 2206 46.9681
82.5793 2226 47.1805
82.6967 2209 47
82.8142 2317 48.1352
82.9316 2333 48.3011
83.049 2332 48.2908
83.1664 2310 48.0625
83.2838 2154 46.4112
83.4012 2143 46.2925
83.5186 2166 46.5403
83.636 2277 47.7179
83.7534 2408 49.0714
83.8708 2445 49.4469
83.9881 2457 49.5681
84.1055 2346 48.4355
84.2228 2305 48.0104
84.3401 2318 48.1456
84.4575 2273 47.676
84.5747 2235 47.2758
84.692 2300 47.9583
84.8093 2292 47.8748
84.9265 2306 48.0208
85.0437 2383 48.816
85.1609 2237 47.2969
85.2781 2450 49.4975
85.3952 2243 47.3603
85.5123 2207 46.9787
85.6294 2122 46.0652
85.7465 2119 46.0326
85.8636 2110 45.9347
85.9806 2238 47.3075
86.0976 2289 47.8435
86.2145 2349 48.4665
86.3315 2335 48.3218
86.4484 2297 47.927
86.5652 2405 49.0408
86.682 2412 49.1121
86.7988 2413 49.1223
86.9156 2256 47.4974
87.0323 2153 46.4004
87.149 2267 47.613
87.2657 2304 48
87.3823 2288 47.833
87.4988 2379 48.775
87.6154 2230 47.2229
87.7318 2219 47.1063
87.8483 2066 45.4533
87.9647 1928 43.909
88.081 1799 42.4146
88.1973 1736 41.6653
88.3136 1632 40.398
88.4298 1397 37.3765
88.546 1331 36.4829
88.6621 1322 36.3593
88.7781 1253 35.3977
88.8942 0 1
89.0101 0 1
89.126 0 1
89.2419 0 1
89.3577 0 1
89.4734 0 1
89.5891 0 1
89.7047 0 1
89.8203 0 1
89.9358 0 1
92.3269 0 1
92.4424 0 1
92.558 0 1
92.6736 0 1
92.7893 0 1
92.905 0 1
93.0208 0 1
93.1366 0 1
93.2525 0 1
93.3685 0 1
93.4845 0 1
93.6005 1854 43.0581
93.7167 2029 45.0444
93.8328 2179 46.6798
93.949 2235 47.2758
94.0653 2271 47.655
94.1816 2317 48.1352
94.2979 2343 48.4045
94.4143 2305 48.0104
94.5307 2327 48.239
94.6472 2238 47.3075
94.7637 2214 47.0532
94.8803 2151 46.3789
94.9969 2242 47.3498
95.1135 2219 47.1063
95.2302 2285 47.8017
95.3469 2359 48.5695
95.4637 2358 48.5592
95.5805 2434 49.3356
95.6973 2405 49.0408
95.8142 2370 48.6826
95.9311 2444 49.4368
96.048 2338 48.3529
96.1649 2333 48.3011
96.2819 2374 48.7237
96.3989 2330 48.2701
96.516 2375 48.734
96.633 2534 50.3389
96.7501 2519 50.1896
96.8673 2397 48.9592
96.9844 2424 49.2341
97.1016 2493 49.93
97.2188 2406 49.051
97.336 2387 48.8569
97.4532 2322 48.1871
97.5704 2429 49.2849
97.6877 2347 48.4458
97.805 2498 49.98
97.9223 2414 49.1325
98.0396 2452 49.5177
98.1569 2357 48.5489
98.2743 2397 48.9592
98.3916 2339 48.3632
98.509 2304 48
98.6264 2215 47.0638
98.7438 2254 47.4763
98.8612 2388 48.8672
98.9786 2455 49.548
99.096 2500 50
99.2134 2581 50.8035
99.3308 2553 50.5272
99.4482 2489 49.8899
99.5656 2551 50.5074
99.6831 2499 49.99
99.8005 2475 49.7494
99.9179 2505 50.05
100.035 2577 50.7642
100.153 2578 50.774
100.27 2566 50.6557
100.388 2575 50.7445
100.505 2584 50.8331
100.622 2462 49.6185
100.74 2472 49.7192
100.857 2406 49.051
100.975 2425 49.2443
101.092 2547 50.4678
101.209 2602 51.0098
101.327 2507 50.07
101.444 2602 51.0098
101.561 2536 50.3587
101.679 2563 50.6261
101.796 2583 50.8232
101.913 2488 49.8799
102.03 2328 48.2494
102.148 2323 48.1975
102.265 2399 48.9796
102.382 2396 48.949
102.499 2489 49.8899
102.616 2593 50.9215
102.733 2647 51.449
102.851 2648 51.4587
102.968 2730 52.2494
103.085 2574 50.7346
103.202 2676 51.7301
103.319 2633 51.3128
103.436 2668 51.6527
103.552 2589 50.8822
103.669 2621 51.1957
103.786 2701 51.9711
103.903 2702 51.9808
104.02 2712 52.0769
104.137 2640 51.3809
104.253 2549 50.4876
104.37 2602 51.0098
104.487 2547 50.4678
104.603 2556 50.5569
104.72 2542 50.4183
104.836 2535 50.3488
104.953 2472 49.7192
105.069 2345 48.4252
105.186 2233 47.2546
105.302 2076 45.5631
105.418 1905 43.6463
105.535 1764 42
105.651 1627 40.3361
105.767 1466 38.2884
105.883 1309 36.1801
105.999 1298 36.0278
106.115 0 1
106.231 0 1
106.347 0 1
106.463 0 1
106.579 0 1
106.694 0 1
106.81 0 1
106.926 0 1
107.041 0 1
107.157 0 1
109.576 0 1
109.692 0 1
109.807 0 1
109.923 0 1
110.039 0 1
110.155 0 1
110.27 0 1
110.386 0 1
110.502 0 1
110.618 1336 36.5513
110.735 1480 38.4708
110.851 1639 40.4846
110.967 1817 42.6263
111.083 1863 43.1625
111.199 2118 46.0217
111.316 2258 47.5184
111.432 2382 48.8057
111.549 2357 48.5489
111.665 2446 49.4571
111.782 2503 50.03
111.898 2327 48.239
112.015 2361 48.5901
112.132 2332 48.2908
112.248 2276 47.7074
112.365 2329 48.2597
112.482 2379 48.775
112.599 2412 49.1121
112.716 2442 49.4166
112.832 2286 47.8121
112.949 2298 47.9375
113.066 2228 47.2017
113.183 2209 47
113.3 2284 47.7912
113.417 2193 46.8295
113.534 2274 47.6865
113.652 2230 47.2229
113.769 2230 47.2229
113.886 2214 47.0532
114.003 2232 47.244
114.12 2127 46.1194
114.238 2114 45.9783
114.355 2097 45.793
114.472 2096 45.7821
114.589 2063 45.4203
114.707 2165 46.5296
114.824 2240 47.3286
114.942 2261 47.55
115.059 2325 48.2183
115.176 2286 47.8121
115.294 2312 48.0833
115.411 2169 46.5725
115.529 2277 47.7179
115.646 2152 46.3897
115.764 2140 46.2601
115.881 2117 46.0109
115.999 2116 46
116.116 2225 47.1699
116.234 2236 47.2864
116.351 2190 46.7974
116.469 2051 45.288
116.586 2028 45.0333
116.704 2051 45.288
116.821 2004 44.7661
116.939 2031 45.0666
117.056 2020 44.9444
117.174 2085 45.6618
117.291 2144 46.3033
117.409 2048 45.2548
117.526 2070 45.4973
117.644 1962 44.2945
117.761 1885 43.4166
117.879 1870 43.2435
117.996 1824 42.7083
118.114 1923 43.852
118.231 1938 44.0227
118.349 1997 44.6878
118.466 2052 45.299
118.584 2043 45.1996
118.701 2132 46.1736
118.819 2092 45.7384
118.936 2181 46.7012
119.053 2084 45.6508
119.171 1951 44.1701
119.288 2063 45.4203
119.405 1942 44.0681
119.523 1977 44.4635
119.64 1984 44.5421
119.757 2042 45.1885
119.875 2044 45.2106
119.992 2066 45.4533
120.109 1811 42.5558
120.226 1968 44.3621
120.343 1869 43.2319
120.46 1833 42.8135
120.578 1944 44.0908
120.695 1957 44.238
120.812 1971 44.3959
120.929 1920 43.8178
121.046 2006 44.7884
121.163 1893 43.5086
121.279 1850 43.0116
121.396 1737 41.6773
121.513 1692 41.1339
121.63 1695 41.1704
121.747 1631 40.3856
121.863 1616 40.1995
121.98 1589 39.8623
122.097 1640 40.4969
122.213 1589 39.8623
122.33 1544 39.2938
122.446 1476 38.4187
122.563 1429 37.8021
122.679 1428 37.7889
122.795 1321 36.3456
122.912 1245 35.2846
123.028 1083 32.909
123.144 1081 32.8786
123.26 1022 31.9687
123.377 0 1
123.493 0 1
123.609 0 1
123.725 0 1
123.84 0 1
123.956 0 1
124.072 0 1
124.188 0 1
124.303 0 1
124.419 0 1
126.852 0 1
126.968 0 1
127.083 0 1
127.199 0 1
127.315 0 1
127.431 0 1
127.547 0 1
127.663 0 1
127.779 0 1
127.895 0 1
128.011 0 1
128.127 0 1
128.243 0 1
128.359 1952 44.1814
128.476 2023 44.9778
128.592 1977 44.4635
128.708 2104 45.8694
128.825 2211 47.0213
128.941 2197 46.8722
129.058 2127 46.1194
129.174 2241 47.3392
129.291 2265 47.592
129.408 2490 49.8999
129.524 2420 49.1935
129.641 2726 52.2111
129.758 3118 55.8391
129.875 3572 59.7662
129.992 4168 64.56
130.108 4918 70.1285
130.225 5478 74.0135
130.342 6096 78.0769
130.459 6353 79.7057
130.576 7295 85.4108
130.693 9298 96.4261
130.81 13340 115.499
130.928 18672 136.646
131.045 24464 156.41
131.162 31453 177.35
131.279 39340 198.343
131.396 46951 216.682
131.513 56211 237.089
131.631 66023 256.949
131.748 76608 276.782
131.865 90086 300.143
131.983 106655 326.581
132.1 124483 352.821
132.217 145688 381.691
132.335 168238 410.168
132.452 192550 438.805
132.57 214808 463.474
132.687 228887 478.421
132.804 247670 497.665
132.922 253874 503.859
133.039 259606 509.515
133.157 261464 511.336
133.274 261581 511.45
133.392 256535 506.493
133.509 243794 493.755
133.627 223271 472.516
133.744 197908 444.869
133.862 173046 415.988
133.979 157953 397.433
134.097 162047 402.551
134.214 182466 427.16
134.332 204752 452.495
134.449 213460 462.017
134.567 213996 462.597
134.684 207888 455.947
134.802 202652 450.169
134.919 203221 450.8
135.037 204400 452.106
135.154 203147 450.718
135.272 198807 445.878
135.389 193064 439.39
135.507 185903 431.165
135.624 177371 421.154
135.742 169743 411.999
135.859 164567 405.669
135.977 157695 397.108
136.094 150655 388.143
136.211 141488 376.149
136.329 133761 365.734
136.446 123700 351.71
136.564 114982 339.09
136.681 108021 328.665
136.798 98763 314.266
136.915 87814 296.334
137.033 72956 270.104
137.15 60207 245.371
137.267 49610 222.733
137.384 39776 199.439
137.502 34463 185.642
137.619 35233 187.705
137.736 40631 201.571
137.853 43131 207.68
137.97 45143 212.469
138.087 43141 207.704
138.204 41620 204.01
138.321 40523 201.303
138.438 39252 198.121
138.555 39991 199.977
138.672 38180 195.397
138.788 34996 187.072
138.905 30421 174.416
139.022 27604 166.145
139.139 26491 162.761
139.255 25081 158.37
139.372 23475 153.216
139.488 21997 148.314
139.605 20638 143.659
139.721 18957 137.684
139.838 17993 134.138
139.954 16918 130.069
140.071 15533 124.631
140.187 14610 120.872
140.303 13099 114.451
140.419 12168 110.309
140.535 11319 106.391
140.652 10141 100.703
140.768 0 1
140.884 0 1
141 0 1
141.115 0 1
141.231 0 1
141.347 0 1
141.463 0 1
141.578 0 1
141.694 0 1
144.104 0 1
144.219 0 1
144.335 0 1
144.45 0 1
144.566 0 1
144.682 0 1
144.798 0 1
144.914 0 1
145.03 0 1
145.146 11318 106.386
145.262 12670 112.561
145.378 14128 118.861
145.494 15883 126.028
145.61 17904 133.806
145.726 19455 139.481
145.842 20769 144.115
145.959 22175 148.913
146.075 23489 153.261
146.192 24723 157.235
146.308 25696 160.3
146.425 26796 163.695
146.541 27306 165.245
146.658 25246 158.89
146.774 18800 137.113
146.891 12826 113.252
147.008 15163 123.138
147.125 23017 151.714
147.241 28411 168.556
147.358 29848 172.766
147.475 30271 173.986
147.592 30381 174.301
147.709 30562 174.82
147.826 30000 173.205
147.943 29319 171.228
148.06 28763 169.597
148.177 27565 166.027
148.294 27161 164.806
148.411 26519 162.847
148.528 25484 159.637
148.645 24681 157.102
148.762 24064 155.126
148.88 23095 151.97
148.997 22770 150.897
149.114 20767 144.108
149.231 19777 140.631
149.349 19014 137.891
149.466 17359 131.754
149.583 16953 130.204
149.701 16139 127.039
149.818 15022 122.564
149.935 14730 121.367
150.053 14018 118.398
150.17 13206 114.917
150.287 12061 109.823
150.405 9617 98.0663
150.522 7412 86.093
150.64 7637 87.3899
150.757 9740 98.6914
150.875 10984 104.805
150.992 11049 105.114
151.11 10925 104.523
151.227 10887 104.341
151.344 10565 102.786
151.462 10599 102.951
151.579 10453 102.24
151.697 10497 102.455
151.814 10602 102.966
151.932 10425 102.103
152.049 10519 102.562
152.167 10384 101.902
152.284 10461 102.279
152.402 10434 102.147
152.519 10345 101.71
152.636 10081 100.404
152.754 10211 101.049
152.871 10113 100.563
152.989 9908 99.5389
153.106 10346 101.715
153.223 10013 100.065
153.341 9975 99.8749
153.458 10038 100.19
153.575 9852 99.2572
153.693 9835 99.1716
153.81 9418 97.0464
153.927 8817 93.8989
154.044 7567 86.9885
154.162 6541 80.8764
154.279 7071 84.0892
154.396 8510 92.2497
154.513 8986 94.7945
154.63 8765 93.6216
154.747 8860 94.1276
154.864 8626 92.8763
154.981 8445 91.8967
155.098 8508 92.2388
155.215 8555 92.4932
155.332 8341 91.3291
155.449 8396 91.6297
155.566 8480 92.0869
155.683 8258 90.8735
155.8 8463 91.9946
155.917 8484 92.1086
156.033 8162 90.3438
156.15 0 1
156.267 0 1
156.383 0 1
156.5 0 1
156.617 0 1
156.733 0 1
156.85 0 1
156.966 0 1
157.082 0 1
157.199 0 1
157.315 0 1
157.431 0 1
157.547 0 1
157.664 0 1
157.78 0 1
157.896 0 1
158.012 0 1
158.128 0 1
158.244 0 1
158.359 0 1
158.475 0 1
158.591 0 1
158.706 0 1
