
6.15755 0 1
6.2731 0 1
6.3887 0 1
6.50437 0 1
6.62009 0 1
6.73587 0 1
6.8517 0 1
6.96759 0 1
7.08353 0 1
7.19952 0 1
7.31557 0 1
7.43166 0 1
7.54781 0 1
7.664 0 1
7.78024 0 1
7.89653 0 1
8.01286 0 1
8.12924 0 1
8.24567 0 1
8.36213 0 1
8.47864 0 1
8.59519 0 1
8.71178 0 1
8.82841 0 1
8.94508 0 1
9.06179 0 1
9.17853 0 1
9.29531 0 1
9.41212 0 1
9.52897 0 1
9.64584 0 1
9.76276 0 1
9.8797 0 1
9.99667 0 1
10.1137 0 1
10.2307 0 1
10.3478 0 1
10.4648 0 1
10.5819 0 1
10.6991 0 1
10.8162 0 1
10.9334 0 1
11.0506 0 1
11.1678 0 1
11.285 0 1
11.4023 0 1
11.5196 0 1
11.6369 0 1
11.7542 0 1
11.8715 0 1
11.9888 0 1
12.1062 0 1
12.2235 0 1
12.3409 0 1
12.4582 0 1
12.5756 0 1
12.693 0 1
12.8104 0 1
12.9278 0 1
13.0452 0 1
13.1626 0 1
13.28 0 1
13.3974 0 1
13.5149 0 1
13.6323 0 1
13.7497 0 1
13.8671 0 1
13.9845 0 1
14.1019 0 1
14.2193 0 1
14.3367 0 1
14.4541 0 1
14.5714 0 1
14.6888 0 1
14.8062 0 1
14.9235 0 1
15.0408 1788 42.2847
15.1581 1883 43.3935
15.2755 1898 43.566
15.3927 2001 44.7325
15.51 1981 44.5084
15.6273 2000 44.7214
15.7445 1972 44.4072
15.8617 1942 44.0681
15.9789 1903 43.6234
16.0961 1990 44.6094
16.2132 2001 44.7325
16.3304 1966 44.3396
16.4475 2054 45.3211
16.5646 2179 46.6798
16.6816 2183 46.7226
16.7986 2317 48.1352
16.9156 2346 48.4355
17.0326 2313 48.0937
17.1496 2370 48.6826
17.2665 2344 48.4149
17.3833 2234 47.2652
17.5002 2190 46.7974
17.617 2088 45.6946
17.7338 2140 46.2601
17.8505 2019 44.9333
17.9672 1976 44.4522
18.0839 2117 46.0109
18.2005 2014 44.8776
18.3171 2005 44.7772
18.4337 2131 46.1628
18.5502 2246 47.392
18.6666 2236 47.2864
18.7831 2320 48.1664
18.8994 2302 47.9792
19.0158 2243 47.3603
19.1321 2174 46.6262
19.2483 2151 46.3789
19.3645 1938 44.0227
19.4806 1851 43.0232
19.5967 1744 41.7612
19.7128 1572 39.6485
19.8288 1519 38.9744
19.9447 1445 38.0132
20.0606 0 1
20.1764 0 1
20.2922 0 1
20.4079 0 1
20.5236 0 1
20.6392 0 1
20.7548 0 1
20.8702 0 1
23.3078 0 1
23.4233 0 1
23.539 0 1
23.6547 0 1
23.7704 0 1
23.8862 0 1
24.0021 0 1
24.118 0 1
24.234 0 1
24.35 0 1
24.4661 947 30.7734
24.5822 1098 33.1361
24.6984 1284 35.8329
24.8146 1312 36.2215
24.9309 1498 38.704
25.0472 1712 41.3763
25.1636 1726 41.5452
25.28 2009 44.8219
25.3965 2085 45.6618
25.513 2255 47.4868
25.6296 2296 47.9166
25.7462 2416 49.1528
25.8628 2602 51.0098
25.9795 2450 49.4975
26.0962 2522 50.2195
26.213 2452 49.5177
26.3298 2220 47.1169
26.4466 2202 46.9255
26.5635 2156 46.4327
26.6804 2187 46.7654
26.7973 2175 46.6369
26.9143 2200 46.9042
27.0313 2200 46.9042
27.1483 2276 47.7074
27.2653 2354 48.518
27.3824 2314 48.1041
27.4996 2324 48.2079
27.6167 2240 47.3286
27.7339 2265 47.592
27.8511 2198 46.8828
27.9683 2241 47.3392
28.0855 2128 46.1303
28.2028 2074 45.5412
28.3201 1974 44.4297
28.4374 1909 43.6921
28.5547 1975 44.441
28.6721 2095 45.7712
28.7894 2151 46.3789
28.9068 2309 48.0521
29.0242 2386 48.8467
29.1416 2322 48.1871
29.259 2384 48.8262
29.3764 2438 49.3761
29.4939 2335 48.3218
29.6113 2390 48.8876
29.7288 2272 47.6655
29.8463 2162 46.4973
29.9638 2081 45.618
30.0812 2012 44.8553
30.1987 1979 44.486
30.3162 2041 45.1774
30.4337 2055 45.3321
30.5512 2175 46.6369
30.6687 2305 48.0104
30.7862 2184 46.7333
30.9037 2242 47.3498
31.0212 2242 47.3498
31.1387 2285 47.8017
31.2562 2287 47.8226
31.3737 2194 46.8402
31.4912 2134 46.1952
31.6087 2018 44.9222
31.7262 2040 45.1664
31.8436 1966 44.3396
31.9611 1937 44.0114
32.0785 1921 43.8292
32.1959 1993 44.643
32.3134 2042 45.1885
32.4308 2148 46.3465
32.5482 2255 47.4868
32.6655 2296 47.9166
32.7829 2310 48.0625
32.9002 2266 47.6025
33.0176 2307 48.0312
33.1349 2307 48.0312
33.2522 2262 47.5605
33.3694 2133 46.1844
33.4867 2070 45.4973
33.6039 1951 44.1701
33.7211 1918 43.795
33.8383 1858 43.1045
33.9554 1859 43.1161
34.0725 2004 44.7661
34.1896 2002 44.7437
34.3067 2094 45.7602
34.4237 2200 46.9042
34.5407 2190 46.7974
34.6577 2126 46.1086
34.7746 2234 47.2652
34.8915 2102 45.8476
35.0084 2089 45.7056
35.1252 2084 45.6508
35.242 2016 44.8999
35.3587 1928 43.909
35.4755 1979 44.486
35.5921 1781 42.2019
35.7088 1805 42.4853
35.8254 1766 42.0238
35.9419 1962 44.2945
36.0584 2033 45.0888
36.1749 1974 44.4297
36.2913 1979 44.486
36.4077 1999 44.7102
36.524 1927 43.8976
36.6403 1976 44.4522
36.7565 1830 42.7785
36.8727 1816 42.6146
36.9889 1648 40.5956
37.1049 1516 38.9358
37.221 0 1
37.3369 0 1
37.4529 0 1
37.5687 0 1
37.6845 0 1
37.8003 0 1
37.916 0 1
38.0316 0 1
38.1472 0 1
40.5851 0 1
40.7008 0 1
40.8164 0 1
40.9322 0 1
41.048 0 1
41.1639 0 1
41.2798 0 1
41.3958 0 1
41.5118 0 1
41.6279 0 1
41.744 1068 32.6803
41.8602 1185 34.4238
41.9765 1284 35.8329
42.0928 1260 35.4965
42.2091 1234 35.1283
42.3255 1268 35.609
42.4419 1213 34.8281
42.5584 1280 35.7771
42.675 1448 38.0526
42.7915 1579 39.7366
42.9081 1550 39.37
43.0248 1720 41.4729
43.1415 1671 40.8779
43.2582 1723 41.509
43.375 1679 40.9756
43.4918 1805 42.4853
43.6087 1744 41.7612
43.7256 1805 42.4853
43.8425 1757 41.9166
43.9595 1691 41.1218
44.0765 1632 40.398
44.1935 1632 40.398
44.3106 1506 38.8072
44.4277 1552 39.3954
44.5448 1458 38.1838
44.6619 1586 39.8246
44.7791 1563 39.5348
44.8963 1649 40.6079
45.0136 1809 42.5323
45.1308 1713 41.3884
45.2481 1787 42.2729
45.3654 1829 42.7668
45.4827 1822 42.6849
45.6001 1761 41.9643
45.7174 1771 42.0833
45.8348 1636 40.4475
45.9522 1516 38.9358
46.0697 1427 37.7757
46.1871 1459 38.1969
46.3046 1546 39.3192
46.422 1657 40.7063
46.5395 1727 41.5572
46.657 1689 41.0974
46.7745 1668 40.8412
46.892 1746 41.7852
47.0096 1890 43.4741
47.1271 1771 42.0833
47.2446 1811 42.5558
47.3622 1750 41.833
47.4797 1806 42.4971
47.5973 1826 42.7317
47.7149 1620 40.2492
47.8324 1600 40
47.95 1570 39.6232
48.0675 1464 38.2623
48.1851 1483 38.5097
48.3027 1506 38.8072
48.4202 1697 41.1947
48.5378 1781 42.2019
48.6554 1850 43.0116
48.7729 1858 43.1045
48.8904 1912 43.7264
49.008 1834 42.8252
49.1255 1885 43.4166
49.243 1782 42.2137
49.3605 1635 40.4351
49.478 1535 39.1791
49.5955 1493 38.6394
49.713 1384 37.2022
49.8304 1464 38.2623
49.9479 1612 40.1497
50.0653 1570 39.6232
50.1827 1701 41.2432
50.3001 1708 41.328
50.4175 1765 42.0119
50.5348 1781 42.2019
50.6521 1756 41.9047
50.7694 1806 42.4971
50.8867 1863 43.1625
51.004 1899 43.5775
51.1212 1786 42.2611
51.2384 1728 41.5692
51.3556 1714 41.4005
51.4727 1626 40.3237
51.5899 1554 39.4208
51.707 1677 40.9512
51.824 1726 41.5452
51.9411 1801 42.4382
52.0581 1922 43.8406
52.175 2089 45.7056
52.2919 2072 45.5192
52.4088 2207 46.9787
52.5257 2150 46.3681
52.6425 2198 46.8828
52.7593 2354 48.518
52.876 2231 47.2335
52.9927 2075 45.5522
53.1094 1982 44.5197
53.226 1843 42.9302
53.3426 1857 43.0929
53.4591 1862 43.1509
53.5756 1774 42.1189
53.692 1815 42.6028
53.8084 1818 42.638
53.9248 1812 42.5676
54.0411 1756 41.9047
54.1573 1684 41.0366
54.2735 0 1
54.3896 0 1
54.5057 0 1
54.6217 0 1
54.7377 0 1
54.8537 0 1
54.9695 0 1
55.0853 0 1
55.2011 0 1
55.3168 0 1
55.4324 0 1
57.824 0 1
57.9396 0 1
58.0553 0 1
58.1711 0 1
58.2869 0 1
58.4028 0 1
58.5187 0 1
58.6347 0 1
58.7508 0 1
58.8669 0 1
58.983 1483 38.5097
59.0992 1742 41.7373
59.2155 1837 42.8602
59.3318 2017 44.911
59.4482 2086 45.6727
59.5646 2085 45.6618
59.681 2077 45.5741
59.7975 2235 47.2758
59.9141 2285 47.8017
60.0306 2058 45.3652
60.1473 2049 45.2659
60.2639 1919 43.8064
60.3807 1989 44.5982
60.4974 1979 44.486
60.6142 2106 45.8912
60.731 2213 47.0425
60.8479 2352 48.4974
60.9648 2364 48.621
61.0818 2224 47.1593
61.1987 2334 48.3115
61.3158 2328 48.2494
61.4328 2240 47.3286
61.5499 2089 45.7056
61.667 1896 43.5431
61.7841 1875 43.3013
61.9013 1806 42.4971
62.0185 1800 42.4264
62.1357 1917 43.7836
62.253 1964 44.317
62.3702 2051 45.288
62.4875 2039 45.1553
62.6049 2092 45.7384
62.7222 2182 46.7119
62.8396 2238 47.3075
62.9569 2215 47.0638
63.0743 2188 46.7761
63.1918 2269 47.634
63.3092 2167 46.551
63.4267 2202 46.9255
63.5441 2126 46.1086
63.6616 1935 43.9886
63.7791 1884 43.4051
63.8966 1835 42.8369
64.0142 1848 42.9884
64.1317 1923 43.852
64.2492 2080 45.607
64.3668 2201 46.9148
64.4843 2215 47.0638
64.6019 2202 46.9255
64.7195 2230 47.2229
64.837 2274 47.6865
64.9546 2188 46.7761
65.0722 2187 46.7654
65.1898 2034 45.0999
65.3074 1772 42.0951
65.4249 1683 41.0244
65.5425 1638 40.4722
65.6601 1678 40.9634
65.7777 1880 43.359
65.8952 1958 44.2493
66.0128 2004 44.7661
66.1304 2133 46.1844
66.2479 2147 46.3357
66.3655 2116 46
66.483 2218 47.0956
66.6005 2186 46.7547
66.718 2159 46.465
66.8355 2229 47.2123
66.953 2172 46.6047
67.0705 2148 46.3465
67.1879 1996 44.6766
67.3054 1953 44.1928
67.4228 1814 42.5911
67.5402 1696 41.1825
67.6576 1794 42.3556
67.7749 1831 42.7902
67.8923 2008 44.8107
68.0096 2214 47.0532
68.1269 2250 47.4342
68.2442 2160 46.4758
68.3614 2218 47.0956
68.4787 2164 46.5188
68.5958 2169 46.5725
68.713 2055 45.3321
68.8302 1864 43.1741
68.9473 1772 42.0951
69.0643 1646 40.5709
69.1814 1528 39.0896
69.2984 1605 40.0625
69.4154 1679 40.9756
69.5323 1830 42.7785
69.6492 1954 44.2041
69.7661 2045 45.2217
69.8829 1985 44.5533
69.9997 1983 44.5309
70.1165 1981 44.5084
70.2332 1848 42.9884
70.3499 1891 43.4856
70.4665 1745 41.7732
70.5831 1682 41.0122
70.6996 1679 40.9756
70.8161 1495 38.6652
70.9326 1372 37.0405
71.049 1219 34.9142
71.1653 1021 31.9531
71.2817 917 30.282
71.3979 834 28.8791
71.5141 818 28.6007
71.6303 796 28.2135
71.7464 736 27.1293
71.8624 0 1
71.9784 0 1
72.0944 0 1
72.2102 0 1
72.3261 0 1
72.4418 0 1
72.5575 0 1
72.6732 0 1
75.1054 0 1
75.2209 0 1
75.3365 0 1
75.4521 0 1
75.5678 0 1
75.6835 0 1
75.7993 0 1
75.9151 0 1
76.031 0 1
76.147 1236 35.1568
76.263 1341 36.6197
76.3791 1387 37.2424
76.4952 1323 36.3731
76.6113 1397 37.3765
76.7276 1535 39.1791
76.8438 1633 40.4104
76.9601 1721 41.4849
77.0765 1873 43.2782
77.1929 1788 42.2847
77.3093 1828 42.7551
77.4258 1801 42.4382
77.5423 1941 44.0568
77.6589 1757 41.9166
77.7755 1639 40.4846
77.8921 1500 38.7298
78.0088 1387 37.2424
78.1256 1300 36.0555
78.2423 1376 37.0945
78.3591 1400 37.4166
78.4759 1537 39.2046
78.5928 1614 40.1746
78.7097 1716 41.4246
78.8266 1752 41.8569
78.9436 1823 42.6966
79.0606 1804 42.4735
79.1776 1802 42.45
79.2946 1911 43.715
79.4117 1917 43.7836
79.5288 1782 42.2137
79.6459 1811 42.5558
79.7631 1848 42.9884
79.8802 1711 41.3642
79.9974 1652 40.6448
80.1147 1525 39.0512
80.2319 1495 38.6652
80.3491 1602 40.025
80.4664 1671 40.8779
80.5837 1773 42.107
80.701 1968 44.3621
80.8183 1970 44.3847
80.9357 1929 43.9204
81.053 1887 43.4396
81.1704 1946 44.1135
81.2877 2022 44.9667
81.4051 1929 43.9204
81.5225 1608 40.0999
81.6399 1530 39.1152
81.7573 1421 37.6962
81.8747 1340 36.606
81.9922 1217 34.8855
82.1096 1487 38.5616
82.227 1614 40.1746
82.3444 1685 41.0488
82.4619 1791 42.3202
82.5793 1820 42.6615
82.6967 1940 44.0454
82.8142 1960 44.2719
82.9316 1965 44.3283
83.049 1940 44.0454
83.1664 1950 44.1588
83.2838 1853 43.0465
83.4012 1874 43.2897
83.5186 1841 42.9069
83.636 1755 41.8927
83.7534 1676 40.939
83.8708 1488 38.5746
83.9881 1549 39.3573
84.1055 1586 39.8246
84.2228 1758 41.9285
84.3401 1844 42.9418
84.4575 1858 43.1045
84.5747 1965 44.3283
84.692 1957 44.238
84.8093 2057 45.3542
84.9265 1946 44.1135
85.0437 1859 43.1161
85.1609 1738 41.6893
85.2781 1498 38.704
85.3952 1428 37.7889
85.5123 1359 36.8646
85.6294 1317 36.2905
85.7465 1587 39.8372
85.8636 1683 41.0244
85.9806 1795 42.3674
86.0976 1794 42.3556
86.2145 1915 43.7607
86.3315 1943 44.0795
86.4484 1991 44.6206
86.5652 1995 44.6654
86.682 1941 44.0568
86.7988 1916 43.7721
86.9156 1924 43.8634
87.0323 1921 43.8292
87.149 1813 42.5793
87.2657 1720 41.4729
87.3823 1533 39.1535
87.4988 1425 37.7492
87.6154 1405 37.4833
87.7318 1358 36.8511
87.8483 1407 37.51
87.9647 1512 38.8844
88.081 1536 39.1918
88.1973 1524 39.0384
88.3136 1474 38.3927
88.4298 1379 37.1349
88.546 1300 36.0555
88.6621 1197 34.5977
88.7781 877 29.6142
88.8942 0 1
89.0101 0 1
89.126 0 1
89.2419 0 1
89.3577 0 1
89.4734 0 1
89.5891 0 1
89.7047 0 1
89.8203 0 1
89.9358 0 1
92.3269 0 1
92.4424 0 1
92.558 0 1
92.6736 0 1
92.7893 0 1
92.905 0 1
93.0208 0 1
93.1366 0 1
93.2525 0 1
93.3685 0 1
93.4845 0 1
93.6005 1511 38.8716
93.7167 1595 39.9375
93.8328 1633 40.4104
93.949 1673 40.9023
94.0653 1752 41.8569
94.1816 1657 40.7063
94.2979 1562 39.5221
94.4143 1536 39.1918
94.5307 1459 38.1969
94.6472 1402 37.4433
94.7637 1515 38.923
94.8803 1549 39.3573
94.9969 1610 40.1248
95.1135 1855 43.0697
95.2302 1868 43.2204
95.3469 1895 43.5316
95.4637 1927 43.8976
95.5805 1914 43.7493
95.6973 2007 44.7996
95.8142 1968 44.3621
95.9311 1988 44.587
96.048 1900 43.589
96.1649 1936 44
96.2819 1823 42.6966
96.3989 1812 42.5676
96.516 1705 41.2916
96.633 1654 40.6694
96.7501 1549 39.3573
96.8673 1635 40.4351
96.9844 1705 41.2916
97.1016 1848 42.9884
97.2188 1876 43.3128
97.336 2082 45.6289
97.4532 2009 44.8219
97.5704 2047 45.2438
97.6877 1990 44.6094
97.805 2037 45.1331
97.9223 1844 42.9418
98.0396 1600 40
98.1569 1546 39.3192
98.2743 1423 37.7227
98.3916 1457 38.1707
98.509 1474 38.3927
98.6264 1696 41.1825
98.7438 1846 42.9651
98.8612 1927 43.8976
98.9786 2019 44.9333
99.096 1993 44.643
99.2134 2071 45.5082
99.3308 2069 45.4863
99.4482 2116 46
99.5656 2156 46.4327
99.6831 2091 45.7275
99.8005 2111 45.9456
99.9179 2017 44.911
100.035 2000 44.7214
100.153 1889 43.4626
100.27 1738 41.6893
100.388 1701 41.2432
100.505 1830 42.7785
100.622 1911 43.715
100.74 1980 44.4972
100.857 2148 46.3465
100.975 2072 45.5192
101.092 2123 46.076
101.209 2091 45.7275
101.327 2119 46.0326
101.444 2025 45
101.561 1953 44.1928
101.679 1688 41.0853
101.796 1566 39.5727
101.913 1523 39.0256
102.03 1552 39.3954
102.148 1697 41.1947
102.265 1835 42.8369
102.382 1958 44.2493
102.499 2030 45.0555
102.616 2127 46.1194
102.733 2099 45.8148
102.851 2158 46.4543
102.968 2143 46.2925
103.085 2150 46.3681
103.202 2180 46.6905
103.319 2233 47.2546
103.436 2083 45.6399
103.552 2094 45.7602
103.669 1998 44.699
103.786 1821 42.6732
103.903 1824 42.7083
104.02 1867 43.2088
104.137 1965 44.3283
104.253 2110 45.9347
104.37 2223 47.1487
104.487 2254 47.4763
104.603 2309 48.0521
104.72 2222 47.1381
104.836 2155 46.422
104.953 1963 44.3058
105.069 1761 41.9643
105.186 1599 39.9875
105.302 1439 37.9342
105.418 1382 37.1753
105.535 1375 37.081
105.651 1432 37.8418
105.767 1422 37.7094
105.883 1440 37.9473
105.999 1359 36.8646
106.115 0 1
106.231 0 1
106.347 0 1
106.463 0 1
106.579 0 1
106.694 0 1
106.81 0 1
106.926 0 1
107.041 0 1
107.157 0 1
109.576 0 1
109.692 0 1
109.807 0 1
109.923 0 1
110.039 0 1
110.155 0 1
110.27 0 1
110.386 0 1
110.502 0 1
110.618 955 30.9031
110.735 1202 34.6699
110.851 1396 37.3631
110.967 1603 40.0375
111.083 1728 41.5692
111.199 1742 41.7373
111.316 1958 44.2493
111.432 2052 45.299
111.549 1991 44.6206
111.665 1975 44.441
111.782 2088 45.6946
111.898 2028 45.0333
112.015 1969 44.3734
112.132 1935 43.9886
112.248 1742 41.7373
112.365 1727 41.5572
112.482 1675 40.9268
112.599 1879 43.3474
112.716 1883 43.3935
112.832 1974 44.4297
112.949 1991 44.6206
113.066 2056 45.3431
113.183 2130 46.1519
113.3 2082 45.6289
113.417 2102 45.8476
113.534 1916 43.7721
113.652 1688 41.0853
113.769 1714 41.4005
113.886 1532 39.1408
114.003 1380 37.1484
114.12 1495 38.6652
114.238 1668 40.8412
114.355 1860 43.1277
114.472 1827 42.7434
114.589 2068 45.4753
114.707 2006 44.7884
114.824 2067 45.4643
114.942 2071 45.5082
115.059 2171 46.594
115.176 2083 45.6399
115.294 2018 44.9222
115.411 2055 45.3321
115.529 1957 44.238
115.646 1905 43.6463
115.764 1826 42.7317
115.881 1774 42.1189
115.999 1679 40.9756
116.116 1825 42.72
116.234 1887 43.4396
116.351 1980 44.4972
116.469 2144 46.3033
116.586 2050 45.2769
116.704 2064 45.4313
116.821 1984 44.5421
116.939 2129 46.1411
117.056 2038 45.1442
117.174 1859 43.1161
117.291 1749 41.821
117.409 1600 40
117.526 1457 38.1707
117.644 1448 38.0526
117.761 1504 38.7814
117.879 1768 42.0476
117.996 1790 42.3084
118.114 1937 44.0114
118.231 1971 44.3959
118.349 1966 44.3396
118.466 1931 43.9431
118.584 2044 45.2106
118.701 1989 44.5982
118.819 1972 44.4072
118.936 2006 44.7884
119.053 1925 43.8748
119.171 1879 43.3474
119.288 1833 42.8135
119.405 1769 42.0595
119.523 1606 40.0749
119.64 1675 40.9268
119.757 1721 41.4849
119.875 1760 41.9524
119.992 1780 42.19
120.109 1975 44.441
120.226 1950 44.1588
120.343 1986 44.5646
120.46 1955 44.2154
120.578 1895 43.5316
120.695 1944 44.0908
120.812 1844 42.9418
120.929 1648 40.5956
121.046 1569 39.6106
121.163 1369 37
121.279 1381 37.1618
121.396 1362 36.9053
121.513 1486 38.5487
121.63 1485 38.5357
121.747 1596 39.95
121.863 1569 39.6106
121.98 1682 41.0122
122.097 1594 39.9249
122.213 1557 39.4588
122.33 1534 39.1663
122.446 1476 38.4187
122.563 1443 37.9868
122.679 1324 36.3868
122.795 1283 35.819
122.912 1184 34.4093
123.028 1002 31.6544
123.144 902 30.0333
123.26 874 29.5635
123.377 0 1
123.493 0 1
123.609 0 1
123.725 0 1
123.84 0 1
123.956 0 1
124.072 0 1
124.188 0 1
124.303 0 1
124.419 0 1
126.852 0 1
126.968 0 1
127.083 0 1
127.199 0 1
127.315 0 1
127.431 0 1
127.547 0 1
127.663 0 1
127.779 0 1
127.895 0 1
128.011 0 1
128.127 0 1
128.243 0 1
128.359 1891 43.4856
128.476 1830 42.7785
128.592 1865 43.1856
128.708 1808 42.5206
128.825 1902 43.6119
128.941 2014 44.8776
129.058 2031 45.0666
129.174 2122 46.0652
129.291 2191 46.8081
129.408 2252 47.4552
129.524 2062 45.4093
129.641 2195 46.8508
129.758 2083 45.6399
129.875 1976 44.4522
129.992 1731 41.6053
130.108 1634 40.4228
130.225 1498 38.704
130.342 1480 38.4708
130.459 1665 40.8044
130.576 1779 42.1782
130.693 1848 42.9884
130.81 1934 43.9773
130.928 1984 44.5421
131.045 1988 44.587
131.162 2057 45.3542
131.279 2165 46.5296
131.396 2104 45.8694
131.513 2111 45.9456
131.631 2101 45.8367
131.748 2018 44.9222
131.865 1932 43.9545
131.983 2020 44.9444
132.1 1838 42.8719
132.217 1897 43.5546
132.335 1912 43.7264
132.452 1967 44.3509
132.57 1955 44.2154
132.687 2081 45.618
132.804 2153 46.4004
132.922 2178 46.669
133.039 2239 47.3181
133.157 2215 47.0638
133.274 2136 46.2169
133.392 2095 45.7712
133.509 1911 43.715
133.627 1743 41.7493
133.744 1709 41.3401
133.862 1557 39.4588
133.979 1555 39.4335
134.097 1734 41.6413
134.214 1971 44.3959
134.332 1966 44.3396
134.449 2102 45.8476
134.567 2041 45.1774
134.684 2154 46.4112
134.802 2097 45.793
134.919 2087 45.6837
135.037 2180 46.6905
135.154 2092 45.7384
135.272 2042 45.1885
135.389 2009 44.8219
135.507 2035 45.111
135.624 1990 44.6094
135.742 1847 42.9767
135.859 1870 43.2435
135.977 1881 43.3705
136.094 1992 44.6318
136.211 2046 45.2327
136.329 2117 46.0109
136.446 2185 46.744
136.564 2143 46.2925
136.681 2200 46.9042
136.798 2168 46.5618
136.915 2163 46.5081
137.033 2030 45.0555
137.15 1896 43.5431
137.267 1725 41.5331
137.384 1643 40.5339
137.502 1618 40.2244
137.619 1591 39.8873
137.736 1788 42.2847
137.853 1744 41.7612
137.97 1926 43.8862
138.087 1957 44.238
138.204 1953 44.1928
138.321 2040 45.1664
138.438 2097 45.793
138.555 2223 47.1487
138.672 2160 46.4758
138.788 2022 44.9667
138.905 1886 43.4281
139.022 1886 43.4281
139.139 1747 41.7971
139.255 1677 40.9512
139.372 1612 40.1497
139.488 1555 39.4335
139.605 1424 37.7359
139.721 1441 37.9605
139.838 1429 37.8021
139.954 1450 38.0789
140.071 1374 37.0675
140.187 1322 36.3593
140.303 1111 33.3317
140.419 1056 32.4962
140.535 1090 33.0151
140.652 988 31.4325
140.768 0 1
140.884 0 1
141 0 1
141.115 0 1
141.231 0 1
141.347 0 1
141.463 0 1
141.578 0 1
141.694 0 1
144.104 0 1
144.219 0 1
144.335 0 1
144.45 0 1
144.566 0 1
144.682 0 1
144.798 0 1
144.914 0 1
145.03 0 1
145.146 1497 38.6911
145.262 1698 41.2068
145.378 1632 40.398
145.494 1703 41.2674
145.61 1709 41.3401
145.726 1673 40.9023
145.842 1572 39.6485
145.959 1433 37.855
146.075 1385 37.2156
146.192 1259 35.4824
146.308 1260 35.4965
146.425 1357 36.8375
146.541 1457 38.1707
146.658 1441 37.9605
146.774 1479 38.4578
146.891 1518 38.9615
147.008 1595 39.9375
147.125 1611 40.1373
147.241 1588 39.8497
147.358 1654 40.6694
147.475 1628 40.3485
147.592 1623 40.2865
147.709 1587 39.8372
147.826 1503 38.7685
147.943 1452 38.1051
148.06 1478 38.4448
148.177 1468 38.3145
148.294 1410 37.55
148.411 1513 38.8973
148.528 1572 39.6485
148.645 1542 39.2683
148.762 1694 41.1582
148.88 1682 41.0122
148.997 1721 41.4849
149.114 1641 40.5093
149.231 1684 41.0366
149.349 1635 40.4351
149.466 1523 39.0256
149.583 1512 38.8844
149.701 1468 38.3145
149.818 1314 36.2491
149.935 1225 35
150.053 1293 35.9583
150.17 1329 36.4555
150.287 1381 37.1618
150.405 1467 38.3014
150.522 1504 38.7814
150.64 1585 39.8121
150.757 1594 39.9249
150.875 1548 39.3446
150.992 1603 40.0375
151.11 1556 39.4462
151.227 1527 39.0768
151.344 1553 39.4081
151.462 1451 38.092
151.579 1466 38.2884
151.697 1391 37.2961
151.814 1408 37.5233
151.932 1394 37.3363
152.049 1374 37.0675
152.167 1495 38.6652
152.284 1662 40.7676
152.402 1527 39.0768
152.519 1593 39.9124
152.636 1644 40.5463
152.754 1640 40.4969
152.871 1615 40.1871
152.989 1553 39.4081
153.106 1490 38.6005
153.223 1510 38.8587
153.341 1325 36.4005
153.458 1301 36.0694
153.575 1235 35.1426
153.693 1306 36.1386
153.81 1325 36.4005
153.927 1315 36.2629
154.044 1364 36.9324
154.162 1419 37.6696
154.279 1378 37.1214
154.396 1470 38.3406
154.513 1465 38.2753
154.63 1427 37.7757
154.747 1457 38.1707
154.864 1442 37.9737
154.981 1501 38.7427
155.098 1379 37.1349
155.215 1379 37.1349
155.332 1324 36.3868
155.449 1232 35.0999
155.566 1332 36.4966
155.683 1338 36.5787
155.8 1409 37.5366
155.917 1351 36.756
156.033 1360 36.8782
156.15 0 1
156.267 0 1
156.383 0 1
156.5 0 1
156.617 0 1
156.733 0 1
156.85 0 1
156.966 0 1
157.082 0 1
157.199 0 1
157.315 0 1
157.431 0 1
157.547 0 1
157.664 0 1
157.78 0 1
157.896 0 1
158.012 0 1
158.128 0 1
158.244 0 1
158.359 0 1
158.475 0 1
158.591 0 1
158.706 0 1
