
6.15755 0 1
6.2731 0 1
6.3887 0 1
6.50437 0 1
6.62009 0 1
6.73587 0 1
6.8517 0 1
6.96759 0 1
7.08353 0 1
7.19952 0 1
7.31557 0 1
7.43166 0 1
7.54781 0 1
7.664 0 1
7.78024 0 1
7.89653 0 1
8.01286 0 1
8.12924 0 1
8.24567 0 1
8.36213 0 1
8.47864 0 1
8.59519 0 1
8.71178 0 1
8.82841 0 1
8.94508 0 1
9.06179 0 1
9.17853 0 1
9.29531 0 1
9.41212 0 1
9.52897 0 1
9.64584 0 1
9.76276 0 1
9.8797 0 1
9.99667 0 1
10.1137 0 1
10.2307 0 1
10.3478 0 1
10.4648 0 1
10.5819 0 1
10.6991 0 1
10.8162 0 1
10.9334 0 1
11.0506 0 1
11.1678 0 1
11.285 0 1
11.4023 0 1
11.5196 0 1
11.6369 0 1
11.7542 0 1
11.8715 0 1
11.9888 0 1
12.1062 0 1
12.2235 0 1
12.3409 0 1
12.4582 0 1
12.5756 0 1
12.693 0 1
12.8104 0 1
12.9278 0 1
13.0452 0 1
13.1626 0 1
13.28 0 1
13.3974 0 1
13.5149 0 1
13.6323 0 1
13.7497 0 1
13.8671 0 1
13.9845 0 1
14.1019 0 1
14.2193 0 1
14.3367 0 1
14.4541 0 1
14.5714 0 1
14.6888 0 1
14.8062 0 1
14.9235 0 1
15.0408 0 0
15.1581 0 0
15.2755 0 0
15.3927 0 0
15.51 0 0
15.6273 0 0
15.7445 0 0
15.8617 0 0
15.9789 0 0
16.0961 0 0
16.2132 0 0
16.3304 0 0
16.4475 0 0
16.5646 0 0
16.6816 0 0
16.7986 0 0
16.9156 0 0
17.0326 0 0
17.1496 0 0
17.2665 0 0
17.3833 0 0
17.5002 0 0
17.617 0 0
17.7338 0 0
17.8505 0 0
17.9672 0 0
18.0839 0 0
18.2005 0 0
18.3171 0 0
18.4337 0 0
18.5502 0 0
18.6666 0 0
18.7831 0 0
18.8994 0 0
19.0158 0 0
19.1321 0 0
19.2483 0 0
19.3645 0 0
19.4806 0 0
19.5967 0 0
19.7128 0 0
19.8288 0 0
19.9447 0 0
20.0606 0 1
20.1764 0 1
20.2922 0 1
20.4079 0 1
20.5236 0 1
20.6392 0 1
20.7548 0 1
20.8702 0 1
23.3078 0 1
23.4233 0 1
23.539 0 1
23.6547 0 1
23.7704 0 1
23.8862 0 1
24.0021 0 1
24.118 0 1
24.234 0 1
24.35 0 1
24.4661 4222 64.9769
24.5822 4371 66.1135
24.6984 4520 67.2309
24.8146 4529 67.2978
24.9309 4670 68.3374
25.0472 4697 68.5347
25.1636 4740 68.8477
25.28 4803 69.3037
25.3965 4925 70.1783
25.513 4786 69.1809
25.6296 4895 69.9643
25.7462 4795 69.2459
25.8628 4612 67.9117
25.9795 4487 66.9851
26.0962 4318 65.7115
26.213 4208 64.8691
26.3298 4140 64.3428
26.4466 4156 64.467
26.5635 4157 64.4748
26.6804 4036 63.5295
26.7973 3952 62.8649
26.9143 3868 62.1932
27.0313 3668 60.564
27.1483 3603 60.025
27.2653 3483 59.0169
27.3824 3683 60.6877
27.4996 3875 62.2495
27.6167 3784 61.5142
27.7339 3968 62.9921
27.8511 4085 63.914
27.9683 4178 64.6375
28.0855 4424 66.5132
28.2028 4301 65.582
28.3201 4327 65.7799
28.4374 4319 65.7191
28.5547 4194 64.7611
28.6721 4160 64.4981
28.7894 4170 64.5755
28.9068 3891 62.3779
29.0242 3836 61.9355
29.1416 3784 61.5142
29.259 3690 60.7454
29.3764 3570 59.7495
29.4939 3776 61.4492
29.6113 3609 60.075
29.7288 3544 59.5315
29.8463 3536 59.4643
29.9638 3513 59.2706
30.0812 3674 60.6135
30.1987 3778 61.4654
30.3162 3777 61.4573
30.4337 3724 61.0246
30.5512 3552 59.5987
30.6687 3611 60.0916
30.7862 3852 62.0645
30.9037 4068 63.7809
31.0212 4116 64.1561
31.1387 4236 65.0846
31.2562 4295 65.5362
31.3737 4394 66.2873
31.4912 4448 66.6933
31.6087 4425 66.5207
31.7262 4489 67
31.8436 4282 65.437
31.9611 4099 64.0234
32.0785 3935 62.7296
32.1959 3869 62.2013
32.3134 3752 61.2536
32.4308 3528 59.397
32.5482 3445 58.6941
32.6655 3205 56.6127
32.7829 3195 56.5243
32.9002 3123 55.8838
33.0176 3019 54.9454
33.1349 3215 56.701
33.2522 3164 56.2494
33.3694 3186 56.4447
33.4867 3205 56.6127
33.6039 3271 57.1927
33.7211 3402 58.3267
33.8383 3479 58.983
33.9554 3659 60.4897
34.0725 3688 60.7289
34.1896 3579 59.8247
34.3067 3547 59.5567
34.4237 3622 60.1831
34.5407 3613 60.1082
34.6577 3780 61.4817
34.7746 3618 60.1498
34.8915 3448 58.7197
35.0084 3397 58.2838
35.1252 3536 59.4643
35.242 3452 58.7537
35.3587 3484 59.0254
35.4755 3535 59.4559
35.5921 3397 58.2838
35.7088 3247 56.9825
35.8254 3226 56.7979
35.9419 3059 55.3082
36.0584 3126 55.9106
36.1749 3060 55.3173
36.2913 2931 54.1387
36.4077 2929 54.1202
36.524 2855 53.4322
36.6403 2888 53.7401
36.7565 2887 53.7308
36.8727 2803 52.9434
36.9889 2987 54.6535
37.1049 2971 54.5069
37.221 0 1
37.3369 0 1
37.4529 0 1
37.5687 0 1
37.6845 0 1
37.8003 0 1
37.916 0 1
38.0316 0 1
38.1472 0 1
40.5851 0 1
40.7008 0 1
40.8164 0 1
40.9322 0 1
41.048 0 1
41.1639 0 1
41.2798 0 1
41.3958 0 1
41.5118 0 1
41.6279 0 1
41.744 2431 49.3052
41.8602 2599 50.9804
41.9765 2581 50.8035
42.0928 2560 50.5964
42.2091 2666 51.6333
42.3255 2696 51.923
42.4419 2690 51.8652
42.5584 2438 49.3761
42.675 2428 49.2747
42.7915 2413 49.1223
42.9081 2251 47.4447
43.0248 2138 46.2385
43.1415 2009 44.8219
43.2582 1970 44.3847
43.375 2102 45.8476
43.4918 2126 46.1086
43.6087 2021 44.9555
43.7256 2023 44.9778
43.8425 2011 44.8442
43.9595 2098 45.8039
44.0765 2150 46.3681
44.1935 2039 45.1553
44.3106 2147 46.3357
44.4277 2044 45.2106
44.5448 2008 44.8107
44.6619 1935 43.9886
44.7791 2051 45.288
44.8963 2023 44.9778
45.0136 2088 45.6946
45.1308 2112 45.9565
45.2481 2081 45.618
45.3654 2032 45.0777
45.4827 2000 44.7214
45.6001 2029 45.0444
45.7174 1956 44.2267
45.8348 1931 43.9431
45.9522 1853 43.0465
46.0697 1782 42.2137
46.1871 1684 41.0366
46.3046 1680 40.9878
46.422 1665 40.8044
46.5395 1601 40.0125
46.657 1540 39.2428
46.7745 1381 37.1618
46.892 1348 36.7151
47.0096 1528 39.0896
47.1271 1462 38.2361
47.2446 1461 38.223
47.3622 1512 38.8844
47.4797 1419 37.6696
47.5973 1435 37.8814
47.7149 1459 38.1969
47.8324 1387 37.2424
47.95 1414 37.6032
48.0675 1480 38.4708
48.1851 1403 37.4566
48.3027 1528 39.0896
48.4202 1462 38.2361
48.5378 1512 38.8844
48.6554 1501 38.7427
48.7729 1557 39.4588
48.8904 1501 38.7427
49.008 1593 39.9124
49.1255 1526 39.064
49.243 1443 37.9868
49.3605 1548 39.3446
49.478 1488 38.5746
49.5955 1488 38.5746
49.713 1487 38.5616
49.8304 1486 38.5487
49.9479 1416 37.6298
50.0653 1379 37.1349
50.1827 1344 36.6606
50.3001 1311 36.2077
50.4175 1299 36.0416
50.5348 1307 36.1525
50.6521 1451 38.092
50.7694 1493 38.6394
50.8867 1598 39.975
51.004 1676 40.939
51.1212 1591 39.8873
51.2384 1708 41.328
51.3556 1761 41.9643
51.4727 1780 42.19
51.5899 1759 41.9404
51.707 1842 42.9185
51.824 1897 43.5546
51.9411 1771 42.0833
52.0581 1942 44.0681
52.175 1889 43.4626
52.2919 1950 44.1588
52.4088 1973 44.4185
52.5257 2065 45.4423
52.6425 2055 45.3321
52.7593 2061 45.3982
52.876 1920 43.8178
52.9927 2000 44.7214
53.1094 2007 44.7996
53.226 2030 45.0555
53.3426 2014 44.8776
53.4591 2033 45.0888
53.5756 1972 44.4072
53.692 1930 43.9318
53.8084 1893 43.5086
53.9248 1711 41.3642
54.0411 1771 42.0833
54.1573 1802 42.45
54.2735 0 1
54.3896 0 1
54.5057 0 1
54.6217 0 1
54.7377 0 1
54.8537 0 1
54.9695 0 1
55.0853 0 1
55.2011 0 1
55.3168 0 1
55.4324 0 1
57.824 0 1
57.9396 0 1
58.0553 0 1
58.1711 0 1
58.2869 0 1
58.4028 0 1
58.5187 0 1
58.6347 0 1
58.7508 0 1
58.8669 0 1
58.983 2130 46.1519
59.0992 2043 45.1996
59.2155 2129 46.1411
59.3318 2104 45.8694
59.4482 2286 47.8121
59.5646 2401 49
59.681 2415 49.1426
59.7975 2441 49.4065
59.9141 2552 50.5173
60.0306 2593 50.9215
60.1473 2669 51.6624
60.2639 2659 51.5655
60.3807 2760 52.5357
60.4974 2681 51.7784
60.6142 2870 53.5724
60.731 2878 53.647
60.8479 2882 53.6843
60.9648 2889 53.7494
61.0818 3091 55.5968
61.1987 3063 55.3444
61.3158 3013 54.8908
61.4328 2951 54.3231
61.5499 2882 53.6843
61.667 2886 53.7215
61.7841 2885 53.7122
61.9013 2899 53.8424
62.0185 2756 52.4976
62.1357 2729 52.2398
62.253 2787 52.792
62.3702 2558 50.5767
62.4875 2420 49.1935
62.6049 2558 50.5767
62.7222 2619 51.1762
62.8396 2559 50.5866
62.9569 2698 51.9423
63.0743 2754 52.4786
63.1918 2793 52.8488
63.3092 2919 54.0278
63.4267 2884 53.7029
63.5441 2905 53.8981
63.6616 2954 54.3507
63.7791 2977 54.5619
63.8966 2978 54.5711
64.0142 2938 54.2033
64.1317 2958 54.3875
64.2492 3077 55.4707
64.3668 3063 55.3444
64.4843 3093 55.6147
64.6019 3115 55.8122
64.7195 3134 55.9821
64.837 3233 56.8595
64.9546 3074 55.4437
65.0722 2930 54.1295
65.1898 2980 54.5894
65.3074 2966 54.461
65.4249 2757 52.5071
65.5425 2931 54.1387
65.6601 2738 52.3259
65.7777 2723 52.1824
65.8952 2557 50.5668
66.0128 2401 49
66.1304 2207 46.9787
66.2479 2357 48.5489
66.3655 2373 48.7134
66.483 2443 49.4267
66.6005 2461 49.6085
66.718 2423 49.224
66.8355 2545 50.448
66.953 2501 50.01
67.0705 2511 50.1099
67.1879 2483 49.8297
67.3054 2591 50.9019
67.4228 2506 50.06
67.5402 2512 50.1199
67.6576 2664 51.614
67.7749 2709 52.0481
67.8923 2695 51.9134
68.0096 2747 52.4118
68.1269 2650 51.4782
68.2442 2722 52.1728
68.3614 2710 52.0577
68.4787 2619 51.1762
68.5958 2628 51.264
68.713 2566 50.6557
68.8302 2500 50
68.9473 2501 50.01
69.0643 2394 48.9285
69.1814 2412 49.1121
69.2984 2409 49.0816
69.4154 2256 47.4974
69.5323 2212 47.0319
69.6492 2025 45
69.7661 1978 44.4747
69.8829 1981 44.5084
69.9997 1982 44.5197
70.1165 2009 44.8219
70.2332 2088 45.6946
70.3499 1981 44.5084
70.4665 1990 44.6094
70.5831 2088 45.6946
70.6996 2105 45.8803
70.8161 2047 45.2438
70.9326 2155 46.422
71.049 2124 46.0869
71.1653 2196 46.8615
71.2817 2139 46.2493
71.3979 2160 46.4758
71.5141 2189 46.7868
71.6303 2146 46.3249
71.7464 1998 44.699
71.8624 0 1
71.9784 0 1
72.0944 0 1
72.2102 0 1
72.3261 0 1
72.4418 0 1
72.5575 0 1
72.6732 0 1
75.1054 0 1
75.2209 0 1
75.3365 0 1
75.4521 0 1
75.5678 0 1
75.6835 0 1
75.7993 0 1
75.9151 0 1
76.031 0 1
76.147 1795 42.3674
76.263 1976 44.4522
76.3791 2128 46.1303
76.4952 2102 45.8476
76.6113 2162 46.4973
76.7276 2194 46.8402
76.8438 2269 47.634
76.9601 2309 48.0521
77.0765 2374 48.7237
77.1929 2430 49.295
77.3093 2447 49.4672
77.4258 2471 49.7092
77.5423 2417 49.163
77.6589 2399 48.9796
77.7755 2397 48.9592
77.8921 2249 47.4236
78.0088 2315 48.1144
78.1256 2269 47.634
78.2423 2282 47.7703
78.3591 2226 47.1805
78.4759 2167 46.551
78.5928 2044 45.2106
78.7097 1975 44.441
78.8266 1839 42.8836
78.9436 1776 42.1426
79.0606 1879 43.3474
79.1776 1876 43.3128
79.2946 1965 44.3283
79.4117 2135 46.2061
79.5288 1990 44.6094
79.6459 2113 45.9674
79.7631 2185 46.744
79.8802 2108 45.913
79.9974 2265 47.592
80.1147 2270 47.6445
80.2319 2287 47.8226
80.3491 2325 48.2183
80.4664 2305 48.0104
80.5837 2516 50.1597
80.701 2443 49.4267
80.8183 2501 50.01
80.9357 2436 49.3559
81.053 2449 49.4874
81.1704 2624 51.225
81.2877 2472 49.7192
81.4051 2461 49.6085
81.5225 2457 49.5681
81.6399 2304 48
81.7573 2294 47.8957
81.8747 2273 47.676
81.9922 2254 47.4763
82.1096 2162 46.4973
82.227 2164 46.5188
82.3444 1946 44.1135
82.4619 1944 44.0908
82.5793 1995 44.6654
82.6967 1982 44.5197
82.8142 1892 43.4971
82.9316 1907 43.6692
83.049 1983 44.5309
83.1664 2038 45.1442
83.2838 2041 45.1774
83.4012 2180 46.6905
83.5186 2155 46.422
83.636 2324 48.2079
83.7534 2281 47.7598
83.8708 2235 47.2758
83.9881 2345 48.4252
84.1055 2368 48.6621
84.2228 2309 48.0521
84.3401 2407 49.0612
84.4575 2372 48.7032
84.5747 2477 49.7695
84.692 2532 50.319
84.8093 2522 50.2195
84.9265 2494 49.94
85.0437 2523 50.2295
85.1609 2398 48.9694
85.2781 2342 48.3942
85.3952 2252 47.4552
85.5123 2335 48.3218
85.6294 2239 47.3181
85.7465 2256 47.4974
85.8636 2132 46.1736
85.9806 2070 45.4973
86.0976 1883 43.3935
86.2145 1917 43.7836
86.3315 1967 44.3509
86.4484 2091 45.7275
86.5652 2081 45.618
86.682 2162 46.4973
86.7988 2102 45.8476
86.9156 2285 47.8017
87.0323 2282 47.7703
87.149 2412 49.1121
87.2657 2409 49.0816
87.3823 2419 49.1833
87.4988 2497 49.97
87.6154 2624 51.225
87.7318 2527 50.2693
87.8483 2754 52.4786
87.9647 2678 51.7494
88.081 2763 52.5642
88.1973 2806 52.9717
88.3136 2731 52.259
88.4298 2689 51.8556
88.546 2708 52.0384
88.6621 2644 51.4198
88.7781 2549 50.4876
88.8942 0 1
89.0101 0 1
89.126 0 1
89.2419 0 1
89.3577 0 1
89.4734 0 1
89.5891 0 1
89.7047 0 1
89.8203 0 1
89.9358 0 1
92.3269 0 1
92.4424 0 1
92.558 0 1
92.6736 0 1
92.7893 0 1
92.905 0 1
93.0208 0 1
93.1366 0 1
93.2525 0 1
93.3685 0 1
93.4845 0 1
93.6005 2676 51.7301
93.7167 2813 53.0377
93.8328 2692 51.8845
93.949 2797 52.8867
94.0653 2736 52.3068
94.1816 2701 51.9711
94.2979 2529 50.2892
94.4143 2558 50.5767
94.5307 2555 50.547
94.6472 2459 49.5883
94.7637 2520 50.1996
94.8803 2454 49.5379
94.9969 2435 49.3457
95.1135 2333 48.3011
95.2302 2288 47.833
95.3469 2225 47.1699
95.4637 2187 46.7654
95.5805 2154 46.4112
95.6973 2183 46.7226
95.8142 2315 48.1144
95.9311 2289 47.8435
96.048 2399 48.9796
96.1649 2575 50.7445
96.2819 2590 50.892
96.3989 2621 51.1957
96.516 2699 51.9519
96.633 2807 52.9811
96.7501 2803 52.9434
96.8673 2906 53.9073
96.9844 2988 54.6626
97.1016 2984 54.626
97.2188 3099 55.6687
97.336 3116 55.8211
97.4532 3065 55.3624
97.5704 3102 55.6956
97.6877 3111 55.7763
97.805 2973 54.5252
97.9223 3035 55.0908
98.0396 2843 53.3198
98.1569 2770 52.6308
98.2743 2813 53.0377
98.3916 2730 52.2494
98.509 2707 52.0288
98.6264 2591 50.9019
98.7438 2585 50.8429
98.8612 2356 48.5386
98.9786 2319 48.156
99.096 2322 48.1871
99.2134 2356 48.5386
99.3308 2322 48.1871
99.4482 2486 49.8598
99.5656 2555 50.547
99.6831 2570 50.6952
99.8005 2528 50.2792
99.9179 2635 51.3323
100.035 2733 52.2781
100.153 2832 53.2165
100.27 2903 53.8795
100.388 2889 53.7494
100.505 2957 54.3783
100.622 3171 56.3116
100.74 3172 56.3205
100.857 3393 58.2495
100.975 3326 57.6715
101.092 3291 57.3672
101.209 3342 57.81
101.327 3396 58.2752
101.444 3366 58.0172
101.561 3243 56.9473
101.679 3247 56.9825
101.796 3154 56.1605
101.913 3136 56
102.03 3020 54.9545
102.148 3051 55.2359
102.265 2960 54.4059
102.382 2610 51.0882
102.499 2716 52.1153
102.616 2619 51.1762
102.733 2627 51.2543
102.851 2709 52.0481
102.968 2620 51.1859
103.085 2726 52.2111
103.202 2712 52.0769
103.319 2781 52.7352
103.436 2886 53.7215
103.552 2993 54.7083
103.669 3120 55.857
103.786 3199 56.5597
103.903 3207 56.6304
104.02 3278 57.2538
104.137 3417 58.4551
104.253 3544 59.5315
104.37 3539 59.4895
104.487 3608 60.0666
104.603 3762 61.3351
104.72 3669 60.5723
104.836 3559 59.6574
104.953 3577 59.808
105.069 3531 59.4222
105.186 3352 57.8965
105.302 3425 58.5235
105.418 3507 59.2199
105.535 3417 58.4551
105.651 3349 57.8705
105.767 3317 57.5934
105.883 3242 56.9386
105.999 3204 56.6039
106.115 0 1
106.231 0 1
106.347 0 1
106.463 0 1
106.579 0 1
106.694 0 1
106.81 0 1
106.926 0 1
107.041 0 1
107.157 0 1
109.576 0 1
109.692 0 1
109.807 0 1
109.923 0 1
110.039 0 1
110.155 0 1
110.27 0 1
110.386 0 1
110.502 0 1
110.618 4574 67.6314
110.735 4546 67.424
110.851 4427 66.5357
110.967 4119 64.1794
111.083 3954 62.8808
111.199 4042 63.5767
111.316 4139 64.3351
111.432 4189 64.7225
111.549 4134 64.2962
111.665 4188 64.7148
111.782 4246 65.1613
111.898 4490 67.0075
112.015 4413 66.4304
112.132 4458 66.7683
112.248 4643 68.1396
112.365 4620 67.9706
112.482 4653 68.2129
112.599 4669 68.3301
112.716 4667 68.3154
112.832 4765 69.029
112.949 4895 69.9643
113.066 4717 68.6804
113.183 4658 68.2495
113.3 4806 69.3253
113.417 4618 67.9559
113.534 4631 68.0515
113.652 4458 66.7683
113.769 4395 66.2948
113.886 4366 66.0757
114.003 4382 66.1967
114.12 4326 65.7723
114.238 4250 65.192
114.355 4124 64.2184
114.472 3918 62.5939
114.589 3658 60.4814
114.707 3685 60.7042
114.824 3631 60.2578
114.942 3854 62.0806
115.059 3877 62.2656
115.176 3933 62.7136
115.294 3952 62.8649
115.411 4021 63.4114
115.529 4061 63.726
115.646 4302 65.5896
115.764 4217 64.9384
115.881 4270 65.3452
115.999 4333 65.8255
116.116 4478 66.9179
116.234 4393 66.2797
116.351 4460 66.7832
116.469 4542 67.3944
116.586 4634 68.0735
116.704 4576 67.6461
116.821 4611 67.9043
116.939 4701 68.5638
117.056 4712 68.644
117.174 4603 67.8454
117.291 4514 67.1863
117.409 4459 66.7757
117.526 4449 66.7008
117.644 4386 66.2269
117.761 4349 65.9469
117.879 4350 65.9545
117.996 4114 64.1405
118.114 4055 63.6789
118.231 3782 61.498
118.349 3794 61.5955
118.466 3776 61.4492
118.584 3909 62.522
118.701 4034 63.5138
118.819 3888 62.3538
118.936 3896 62.4179
119.053 4049 63.6318
119.171 4065 63.7574
119.288 4264 65.2993
119.405 4300 65.5744
119.523 4313 65.6734
119.64 4414 66.4379
119.757 4342 65.8939
119.875 4507 67.1342
119.992 4333 65.8255
120.109 4464 66.8132
120.226 4525 67.2681
120.343 4455 66.7458
120.46 4491 67.0149
120.578 4410 66.4078
120.695 4520 67.2309
120.812 4300 65.5744
120.929 4381 66.1891
121.046 4423 66.5056
121.163 4157 64.4748
121.279 4239 65.1076
121.396 4294 65.5286
121.513 4177 64.6297
121.63 4098 64.0156
121.747 3874 62.2415
121.863 3792 61.5792
121.98 3670 60.5805
122.097 3449 58.7282
122.213 3718 60.9754
122.33 3657 60.4731
122.446 3766 61.3677
122.563 3648 60.3987
122.679 3827 61.8628
122.795 3818 61.79
122.912 3888 62.3538
123.028 3980 63.0872
123.144 3981 63.0952
123.26 4009 63.3167
123.377 0 1
123.493 0 1
123.609 0 1
123.725 0 1
123.84 0 1
123.956 0 1
124.072 0 1
124.188 0 1
124.303 0 1
124.419 0 1
126.852 0 1
126.968 0 1
127.083 0 1
127.199 0 1
127.315 0 1
127.431 0 1
127.547 0 1
127.663 0 1
127.779 0 1
127.895 0 1
128.011 0 1
128.127 0 1
128.243 0 1
128.359 4290 65.4981
128.476 4302 65.5896
128.592 4239 65.1076
128.708 4315 65.6887
128.825 4154 64.4515
128.941 4168 64.56
129.058 4269 65.3376
129.174 4253 65.215
129.291 4177 64.6297
129.408 4139 64.3351
129.524 4081 63.8827
129.641 4046 63.6082
129.758 3972 63.0238
129.875 3857 62.1048
129.992 3851 62.0564
130.108 3700 60.8276
130.225 3514 59.279
130.342 3461 58.8303
130.459 3338 57.7754
130.576 3413 58.4209
130.693 3170 56.3028
130.81 2999 54.7631
130.928 2832 53.2165
131.045 2933 54.1572
131.162 2946 54.2771
131.279 3066 55.3715
131.396 3134 55.9821
131.513 3007 54.8361
131.631 3127 55.9196
131.748 3169 56.2939
131.865 3249 57
131.983 3278 57.2538
132.1 3324 57.6541
132.217 3452 58.7537
132.335 3469 58.8982
132.452 3493 59.1016
132.57 3487 59.0508
132.687 3508 59.2284
132.804 3659 60.4897
132.922 3699 60.8194
133.039 3762 61.3351
133.157 3591 59.925
133.274 3691 60.7536
133.392 3473 58.9322
133.509 3562 59.6825
133.627 3618 60.1498
133.744 3650 60.4152
133.862 3611 60.0916
133.979 3532 59.4306
134.097 3495 59.1185
134.214 3397 58.2838
134.332 3389 58.2151
134.449 3334 57.7408
134.567 3223 56.7715
134.684 3206 56.6216
134.802 3410 58.3952
134.919 3611 60.0916
135.037 3536 59.4643
135.154 3551 59.5903
135.272 3627 60.2246
135.389 3788 61.5467
135.507 3770 61.4003
135.624 4019 63.3956
135.742 4087 63.9296
135.859 3922 62.6259
135.977 3844 62
136.094 4040 63.561
136.211 4026 63.4508
136.329 4018 63.3877
136.446 4078 63.8592
136.564 4157 64.4748
136.681 4092 63.9687
136.798 3980 63.0872
136.915 3962 62.9444
137.033 3839 61.9597
137.15 3890 62.3699
137.267 3816 61.7738
137.384 3841 61.9758
137.502 3911 62.538
137.619 3825 61.8466
137.736 3893 62.3939
137.853 3697 60.803
137.97 3723 61.0164
138.087 3674 60.6135
138.204 3612 60.0999
138.321 3761 61.327
138.438 3882 62.3057
138.555 4069 63.7887
138.672 4142 64.3584
138.788 4293 65.521
138.905 4506 67.1267
139.022 4699 68.5493
139.139 4826 69.4694
139.255 4971 70.5053
139.372 5140 71.6938
139.488 5206 72.1526
139.605 5459 73.885
139.721 5371 73.2871
139.838 5524 74.3236
139.954 5752 75.8419
140.071 5857 76.531
140.187 6092 78.0513
140.303 6329 79.555
140.419 6455 80.343
140.535 6801 82.4682
140.652 7081 84.1487
140.768 0 1
140.884 0 1
141 0 1
141.115 0 1
141.231 0 1
141.347 0 1
141.463 0 1
141.578 0 1
141.694 0 1
144.104 0 1
144.219 0 1
144.335 0 1
144.45 0 1
144.566 0 1
144.682 0 1
144.798 0 1
144.914 0 1
145.03 0 1
145.146 6722 81.9878
145.262 7002 83.678
145.378 6936 83.2827
145.494 6989 83.6002
145.61 7102 84.2734
145.726 7051 83.9702
145.842 7140 84.4985
145.959 7337 85.6563
146.075 7484 86.5101
146.192 7567 86.9885
146.308 7844 88.5664
146.425 7884 88.7919
146.541 7897 88.8651
146.658 7507 86.6429
146.774 7396 86
146.891 7287 85.3639
147.008 7249 85.1411
147.125 7518 86.7064
147.241 7472 86.4407
147.358 7312 85.5102
147.475 7112 84.3327
147.592 7401 86.0291
147.709 7466 86.406
147.826 7409 86.0755
147.943 7311 85.5044
148.06 7040 83.9047
148.177 7108 84.309
148.294 6898 83.0542
148.411 7016 83.7616
148.528 6918 83.1745
148.645 6929 83.2406
148.762 6880 82.9458
148.88 6841 82.7103
148.997 6574 81.0802
149.114 7127 84.4216
149.231 6864 82.8493
149.349 7087 84.1843
149.466 7023 83.8033
149.583 6961 83.4326
149.701 7230 85.0294
149.818 7246 85.1234
149.935 7250 85.1469
150.053 7516 86.6949
150.17 7214 84.9353
150.287 7079 84.1368
150.405 6843 82.7224
150.522 6552 80.9444
150.64 6598 81.2281
150.757 6686 81.768
150.875 6584 81.1419
150.992 6460 80.3741
151.11 6389 79.9312
151.227 6662 81.6211
151.344 6887 82.988
151.462 6781 82.3468
151.579 6929 83.2406
151.697 7027 83.8272
151.814 6948 83.3547
151.932 6937 83.2887
152.049 7011 83.7317
152.167 7145 84.5281
152.284 7154 84.5813
152.402 7228 85.0176
152.519 7123 84.3979
152.636 7196 84.8292
152.754 7294 85.4049
152.871 7251 85.1528
152.989 7381 85.9127
153.106 7462 86.3829
153.223 7510 86.6603
153.341 7545 86.862
153.458 7659 87.5157
153.575 7497 86.5852
153.693 7709 87.8009
153.81 7509 86.6545
153.927 7155 84.5872
154.044 6797 82.4439
154.162 6815 82.553
154.279 6821 82.5893
154.396 6878 82.9337
154.513 6986 83.5823
154.63 7094 84.2259
154.747 7044 83.9285
154.864 7340 85.6738
154.981 7570 87.0057
155.098 7688 87.6812
155.215 7851 88.6059
155.332 7865 88.6848
155.449 7863 88.6736
155.566 8099 89.9944
155.683 8094 89.9667
155.8 8461 91.9837
155.917 8658 93.0484
156.033 9175 95.7862
156.15 0 1
156.267 0 1
156.383 0 1
156.5 0 1
156.617 0 1
156.733 0 1
156.85 0 1
156.966 0 1
157.082 0 1
157.199 0 1
157.315 0 1
157.431 0 1
157.547 0 1
157.664 0 1
157.78 0 1
157.896 0 1
158.012 0 1
158.128 0 1
158.244 0 1
158.359 0 1
158.475 0 1
158.591 0 1
158.706 0 1
