
6.15755 0 1
6.2731 0 1
6.3887 0 1
6.50437 0 1
6.62009 0 1
6.73587 0 1
6.8517 0 1
6.96759 0 1
7.08353 0 1
7.19952 0 1
7.31557 0 1
7.43166 0 1
7.54781 0 1
7.664 0 1
7.78024 0 1
7.89653 0 1
8.01286 0 1
8.12924 0 1
8.24567 0 1
8.36213 0 1
8.47864 0 1
8.59519 0 1
8.71178 0 1
8.82841 0 1
8.94508 0 1
9.06179 0 1
9.17853 0 1
9.29531 0 1
9.41212 0 1
9.52897 0 1
9.64584 0 1
9.76276 0 1
9.8797 0 1
9.99667 0 1
10.1137 0 1
10.2307 0 1
10.3478 0 1
10.4648 0 1
10.5819 0 1
10.6991 0 1
10.8162 0 1
10.9334 0 1
11.0506 0 1
11.1678 0 1
11.285 0 1
11.4023 0 1
11.5196 0 1
11.6369 0 1
11.7542 0 1
11.8715 0 1
11.9888 0 1
12.1062 0 1
12.2235 0 1
12.3409 0 1
12.4582 0 1
12.5756 0 1
12.693 0 1
12.8104 0 1
12.9278 0 1
13.0452 0 1
13.1626 0 1
13.28 0 1
13.3974 0 1
13.5149 0 1
13.6323 0 1
13.7497 0 1
13.8671 0 1
13.9845 0 1
14.1019 0 1
14.2193 0 1
14.3367 0 1
14.4541 0 1
14.5714 0 1
14.6888 0 1
14.8062 0 1
14.9235 0 1
15.0408 0 0
15.1581 0 0
15.2755 0 0
15.3927 0 0
15.51 0 0
15.6273 0 0
15.7445 0 0
15.8617 0 0
15.9789 0 0
16.0961 0 0
16.2132 0 0
16.3304 0 0
16.4475 0 0
16.5646 0 0
16.6816 0 0
16.7986 0 0
16.9156 0 0
17.0326 0 0
17.1496 0 0
17.2665 0 0
17.3833 0 0
17.5002 0 0
17.617 0 0
17.7338 0 0
17.8505 0 0
17.9672 0 0
18.0839 0 0
18.2005 0 0
18.3171 0 0
18.4337 0 0
18.5502 0 0
18.6666 0 0
18.7831 0 0
18.8994 0 0
19.0158 0 0
19.1321 0 0
19.2483 0 0
19.3645 0 0
19.4806 0 0
19.5967 0 0
19.7128 0 0
19.8288 0 0
19.9447 0 0
20.0606 0 1
20.1764 0 1
20.2922 0 1
20.4079 0 1
20.5236 0 1
20.6392 0 1
20.7548 0 1
20.8702 0 1
23.3078 0 1
23.4233 0 1
23.539 0 1
23.6547 0 1
23.7704 0 1
23.8862 0 1
24.0021 0 1
24.118 0 1
24.234 0 1
24.35 0 1
24.4661 936 30.5941
24.5822 1011 31.7962
24.6984 973 31.1929
24.8146 1005 31.7017
24.9309 1002 31.6544
25.0472 1014 31.8434
25.1636 980 31.305
25.28 978 31.273
25.3965 1021 31.9531
25.513 1036 32.187
25.6296 1038 32.218
25.7462 1016 31.8748
25.8628 1067 32.665
25.9795 1059 32.5423
26.0962 1115 33.3916
26.213 1060 32.5576
26.3298 983 31.3528
26.4466 1131 33.6303
26.5635 1060 32.5576
26.6804 1010 31.7805
26.7973 924 30.3974
26.9143 934 30.5614
27.0313 819 28.6182
27.1483 869 29.4788
27.2653 960 30.9839
27.3824 962 31.0161
27.4996 884 29.7321
27.6167 895 29.9166
27.7339 955 30.9031
27.8511 929 30.4795
27.9683 894 29.8998
28.0855 944 30.7246
28.2028 886 29.7658
28.3201 884 29.7321
28.4374 948 30.7896
28.5547 959 30.9677
28.6721 915 30.249
28.7894 978 31.273
28.9068 1071 32.7261
29.0242 954 30.8869
29.1416 993 31.5119
29.259 962 31.0161
29.3764 1042 32.28
29.4939 1024 32
29.6113 946 30.7571
29.7288 996 31.5595
29.8463 968 31.1127
29.9638 1020 31.9374
30.0812 984 31.3688
30.1987 989 31.4484
30.3162 939 30.6431
30.4337 877 29.6142
30.5512 819 28.6182
30.6687 775 27.8388
30.7862 847 29.1033
30.9037 866 29.4279
31.0212 913 30.2159
31.1387 917 30.282
31.2562 852 29.189
31.3737 841 29
31.4912 825 28.7228
31.6087 892 29.8664
31.7262 869 29.4788
31.8436 846 29.0861
31.9611 858 29.2916
32.0785 885 29.7489
32.1959 922 30.3645
32.3134 972 31.1769
32.4308 1025 32.0156
32.5482 951 30.8383
32.6655 981 31.3209
32.7829 929 30.4795
32.9002 1018 31.9061
33.0176 961 31
33.1349 926 30.4302
33.2522 920 30.3315
33.3694 928 30.4631
33.4867 994 31.5278
33.6039 982 31.3369
33.7211 949 30.8058
33.8383 927 30.4467
33.9554 926 30.4302
34.0725 918 30.2985
34.1896 808 28.4253
34.3067 733 27.074
34.4237 791 28.1247
34.5407 816 28.5657
34.6577 825 28.7228
34.7746 860 29.3258
34.8915 849 29.1376
35.0084 861 29.3428
35.1252 853 29.2062
35.242 857 29.2746
35.3587 824 28.7054
35.4755 792 28.1425
35.5921 868 29.4618
35.7088 864 29.3939
35.8254 922 30.3645
35.9419 907 30.1164
36.0584 899 29.9833
36.1749 909 30.1496
36.2913 872 29.5296
36.4077 885 29.7489
36.524 947 30.7734
36.6403 957 30.9354
36.7565 907 30.1164
36.8727 879 29.6479
36.9889 860 29.3258
37.1049 871 29.5127
37.221 0 1
37.3369 0 1
37.4529 0 1
37.5687 0 1
37.6845 0 1
37.8003 0 1
37.916 0 1
38.0316 0 1
38.1472 0 1
40.5851 0 1
40.7008 0 1
40.8164 0 1
40.9322 0 1
41.048 0 1
41.1639 0 1
41.2798 0 1
41.3958 0 1
41.5118 0 1
41.6279 0 1
41.744 687 26.2107
41.8602 768 27.7128
41.9765 811 28.4781
42.0928 775 27.8388
42.2091 802 28.3196
42.3255 797 28.2312
42.4419 753 27.4408
42.5584 726 26.9444
42.675 777 27.8747
42.7915 773 27.8029
42.9081 727 26.9629
43.0248 677 26.0192
43.1415 655 25.593
43.2582 648 25.4558
43.375 677 26.0192
43.4918 772 27.7849
43.6087 703 26.5141
43.7256 714 26.7208
43.8425 689 26.2488
43.9595 687 26.2107
44.0765 694 26.3439
44.1935 669 25.865
44.3106 717 26.7769
44.4277 672 25.923
44.5448 699 26.4386
44.6619 731 27.037
44.7791 734 27.0924
44.8963 711 26.6646
45.0136 653 25.5539
45.1308 703 26.5141
45.2481 669 25.865
45.3654 659 25.671
45.4827 704 26.533
45.6001 623 24.96
45.7174 620 24.8998
45.8348 651 25.5147
45.9522 615 24.7992
46.0697 634 25.1794
46.1871 612 24.7386
46.3046 605 24.5967
46.422 653 25.5539
46.5395 582 24.1247
46.657 530 23.0217
46.7745 500 22.3607
46.892 542 23.2809
47.0096 495 22.2486
47.1271 580 24.0832
47.2446 513 22.6495
47.3622 530 23.0217
47.4797 535 23.1301
47.5973 491 22.1585
47.7149 522 22.8473
47.8324 483 21.9773
47.95 555 23.5584
48.0675 509 22.561
48.1851 522 22.8473
48.3027 502 22.4054
48.4202 495 22.2486
48.5378 486 22.0454
48.6554 506 22.4944
48.7729 500 22.3607
48.8904 489 22.1133
49.008 505 22.4722
49.1255 541 23.2594
49.243 518 22.7596
49.3605 511 22.6053
49.478 518 22.7596
49.5955 549 23.4307
49.713 509 22.561
49.8304 514 22.6716
49.9479 531 23.0434
50.0653 522 22.8473
50.1827 496 22.2711
50.3001 441 21
50.4175 419 20.4695
50.5348 497 22.2935
50.6521 539 23.2164
50.7694 564 23.7487
50.8867 508 22.5389
51.004 543 23.3024
51.1212 548 23.4094
51.2384 535 23.1301
51.3556 569 23.8537
51.4727 593 24.3516
51.5899 628 25.0599
51.707 643 25.3574
51.824 647 25.4362
51.9411 680 26.0768
52.0581 658 25.6515
52.175 685 26.1725
52.2919 648 25.4558
52.4088 659 25.671
52.5257 668 25.8457
52.6425 660 25.6905
52.7593 686 26.1916
52.876 635 25.1992
52.9927 655 25.593
53.1094 660 25.6905
53.226 723 26.8887
53.3426 737 27.1477
53.4591 742 27.2397
53.5756 750 27.3861
53.692 734 27.0924
53.8084 683 26.1343
53.9248 603 24.5561
54.0411 594 24.3721
54.1573 613 24.7588
54.2735 0 1
54.3896 0 1
54.5057 0 1
54.6217 0 1
54.7377 0 1
54.8537 0 1
54.9695 0 1
55.0853 0 1
55.2011 0 1
55.3168 0 1
55.4324 0 1
57.824 0 1
57.9396 0 1
58.0553 0 1
58.1711 0 1
58.2869 0 1
58.4028 0 1
58.5187 0 1
58.6347 0 1
58.7508 0 1
58.8669 0 1
58.983 692 26.3059
59.0992 722 26.8701
59.2155 652 25.5343
59.3318 722 26.8701
59.4482 702 26.4953
59.5646 738 27.1662
59.681 746 27.313
59.7975 730 27.0185
59.9141 703 26.5141
60.0306 766 27.6767
60.1473 777 27.8747
60.2639 784 28
60.3807 769 27.7308
60.4974 744 27.2764
60.6142 730 27.0185
60.731 768 27.7128
60.8479 801 28.3019
60.9648 756 27.4955
61.0818 751 27.4044
61.1987 785 28.0179
61.3158 736 27.1293
61.4328 739 27.1846
61.5499 711 26.6646
61.667 787 28.0535
61.7841 730 27.0185
61.9013 706 26.5707
62.0185 710 26.6458
62.1357 717 26.7769
62.253 755 27.4773
62.3702 695 26.3629
62.4875 661 25.7099
62.6049 654 25.5734
62.7222 607 24.6374
62.8396 628 25.0599
62.9569 624 24.98
63.0743 586 24.2074
63.1918 605 24.5967
63.3092 636 25.219
63.4267 638 25.2587
63.5441 640 25.2982
63.6616 640 25.2982
63.7791 677 26.0192
63.8966 642 25.3377
64.0142 645 25.3969
64.1317 704 26.533
64.2492 621 24.9199
64.3668 666 25.807
64.4843 665 25.7876
64.6019 657 25.632
64.7195 673 25.9422
64.837 618 24.8596
64.9546 635 25.1992
65.0722 643 25.3574
65.1898 642 25.3377
65.3074 623 24.96
65.4249 634 25.1794
65.5425 599 24.4745
65.6601 607 24.6374
65.7777 601 24.5153
65.8952 602 24.5357
66.0128 541 23.2594
66.1304 562 23.7065
66.2479 536 23.1517
66.3655 440 20.9762
66.483 529 23
66.6005 548 23.4094
66.718 526 22.9347
66.8355 519 22.7816
66.953 621 24.9199
67.0705 570 23.8747
67.1879 576 24
67.3054 552 23.4947
67.4228 567 23.8118
67.5402 591 24.3105
67.6576 541 23.2594
67.7749 563 23.7276
67.8923 582 24.1247
68.0096 605 24.5967
68.1269 575 23.9792
68.2442 574 23.9583
68.3614 615 24.7992
68.4787 557 23.6008
68.5958 590 24.2899
68.713 586 24.2074
68.8302 605 24.5967
68.9473 608 24.6577
69.0643 563 23.7276
69.1814 568 23.8328
69.2984 565 23.7697
69.4154 565 23.7697
69.5323 564 23.7487
69.6492 567 23.8118
69.7661 537 23.1733
69.8829 537 23.1733
69.9997 478 21.8632
70.1165 482 21.9545
70.2332 458 21.4009
70.3499 493 22.2036
70.4665 496 22.2711
70.5831 515 22.6936
70.6996 570 23.8747
70.8161 547 23.388
70.9326 545 23.3452
71.049 522 22.8473
71.1653 493 22.2036
71.2817 499 22.3383
71.3979 484 22
71.5141 493 22.2036
71.6303 439 20.9523
71.7464 455 21.3307
71.8624 0 1
71.9784 0 1
72.0944 0 1
72.2102 0 1
72.3261 0 1
72.4418 0 1
72.5575 0 1
72.6732 0 1
75.1054 0 1
75.2209 0 1
75.3365 0 1
75.4521 0 1
75.5678 0 1
75.6835 0 1
75.7993 0 1
75.9151 0 1
76.031 0 1
76.147 391 19.7737
76.263 444 21.0713
76.3791 364 19.0788
76.4952 421 20.5183
76.6113 411 20.2731
76.7276 405 20.1246
76.8438 384 19.5959
76.9601 401 20.025
77.0765 446 21.1187
77.1929 417 20.4206
77.3093 384 19.5959
77.4258 416 20.3961
77.5423 351 18.735
77.6589 390 19.7484
77.7755 356 18.868
77.8921 325 18.0278
78.0088 371 19.2614
78.1256 351 18.735
78.2423 335 18.303
78.3591 346 18.6011
78.4759 359 18.9473
78.5928 341 18.4662
78.7097 346 18.6011
78.8266 330 18.1659
78.9436 289 17
79.0606 266 16.3095
79.1776 246 15.6844
79.2946 256 16
79.4117 263 16.2173
79.5288 286 16.9115
79.6459 312 17.6635
79.7631 247 15.7162
79.8802 282 16.7929
79.9974 280 16.7332
80.1147 277 16.6433
80.2319 269 16.4012
80.3491 233 15.2643
80.4664 230 15.1658
80.5837 221 14.8661
80.701 228 15.0997
80.8183 219 14.7986
80.9357 262 16.1864
81.053 238 15.4272
81.1704 218 14.7648
81.2877 225 15
81.4051 212 14.5602
81.5225 190 13.784
81.6399 176 13.2665
81.7573 208 14.4222
81.8747 202 14.2127
81.9922 167 12.9228
82.1096 152 12.3288
82.227 157 12.53
82.3444 137 11.7047
82.4619 166 12.8841
82.5793 159 12.6095
82.6967 140 11.8322
82.8142 102 10.0995
82.9316 103 10.1489
83.049 130 11.4018
83.1664 127 11.2694
83.2838 125 11.1803
83.4012 100 10
83.5186 91 9.53939
83.636 104 10.198
83.7534 93 9.64365
83.8708 83 9.11043
83.9881 86 9.27362
84.1055 92 9.59166
84.2228 77 8.77496
84.3401 84 9.16515
84.4575 75 8.66025
84.5747 74 8.60233
84.692 83 9.11043
84.8093 64 8
84.9265 64 8
85.0437 51 7.14143
85.1609 74 8.60233
85.2781 62 7.87401
85.3952 48 6.9282
85.5123 48 6.9282
85.6294 75 8.66025
85.7465 44 6.63325
85.8636 73 8.544
85.9806 72 8.48528
86.0976 55 7.4162
86.2145 48 6.9282
86.3315 74 8.60233
86.4484 64 8
86.5652 99 9.94987
86.682 75 8.66025
86.7988 87 9.32738
86.9156 94 9.69536
87.0323 82 9.05539
87.149 99 9.94987
87.2657 114 10.6771
87.3823 108 10.3923
87.4988 109 10.4403
87.6154 102 10.0995
87.7318 135 11.619
87.8483 136 11.6619
87.9647 143 11.9583
88.081 149 12.2066
88.1973 168 12.9615
88.3136 163 12.7671
88.4298 161 12.6886
88.546 159 12.6095
88.6621 186 13.6382
88.7781 204 14.2829
88.8942 0 1
89.0101 0 1
89.126 0 1
89.2419 0 1
89.3577 0 1
89.4734 0 1
89.5891 0 1
89.7047 0 1
89.8203 0 1
89.9358 0 1
92.3269 0 1
92.4424 0 1
92.558 0 1
92.6736 0 1
92.7893 0 1
92.905 0 1
93.0208 0 1
93.1366 0 1
93.2525 0 1
93.3685 0 1
93.4845 0 1
93.6005 295 17.1756
93.7167 307 17.5214
93.8328 293 17.1172
93.949 305 17.4642
94.0653 262 16.1864
94.1816 247 15.7162
94.2979 271 16.4621
94.4143 254 15.9374
94.5307 259 16.0935
94.6472 252 15.8745
94.7637 231 15.1987
94.8803 235 15.3297
94.9969 204 14.2829
95.1135 228 15.0997
95.2302 178 13.3417
95.3469 203 14.2478
95.4637 160 12.6491
95.5805 138 11.7473
95.6973 214 14.6287
95.8142 229 15.1327
95.9311 245 15.6525
96.048 275 16.5831
96.1649 252 15.8745
96.2819 269 16.4012
96.3989 270 16.4317
96.516 292 17.088
96.633 283 16.8226
96.7501 265 16.2788
96.8673 298 17.2627
96.9844 323 17.9722
97.1016 356 18.868
97.2188 317 17.8045
97.336 358 18.9209
97.4532 368 19.1833
97.5704 361 19
97.6877 324 18
97.805 376 19.3907
97.9223 381 19.5192
98.0396 389 19.7231
98.1569 399 19.975
98.2743 402 20.0499
98.3916 404 20.0998
98.509 397 19.9249
98.6264 433 20.8087
98.7438 457 21.3776
98.8612 378 19.4422
98.9786 394 19.8494
99.096 264 16.2481
99.2134 315 17.7482
99.3308 394 19.8494
99.4482 471 21.7025
99.5656 503 22.4277
99.6831 517 22.7376
99.8005 497 22.2935
99.9179 516 22.7156
100.035 489 22.1133
100.153 504 22.4499
100.27 529 23
100.388 529 23
100.505 534 23.1084
100.622 579 24.0624
100.74 561 23.6854
100.857 558 23.622
100.975 604 24.5764
101.092 561 23.6854
101.209 583 24.1454
101.327 618 24.8596
101.444 526 22.9347
101.561 624 24.98
101.679 605 24.5967
101.796 618 24.8596
101.913 546 23.3666
102.03 581 24.1039
102.148 587 24.2281
102.265 591 24.3105
102.382 524 22.891
102.499 571 23.8956
102.616 455 21.3307
102.733 391 19.7737
102.851 503 22.4277
102.968 595 24.3926
103.085 627 25.04
103.202 613 24.7588
103.319 636 25.219
103.436 599 24.4745
103.552 568 23.8328
103.669 605 24.5967
103.786 634 25.1794
103.903 644 25.3772
104.02 591 24.3105
104.137 624 24.98
104.253 622 24.9399
104.37 594 24.3721
104.487 613 24.7588
104.603 607 24.6374
104.72 621 24.9199
104.836 673 25.9422
104.953 624 24.98
105.069 615 24.7992
105.186 611 24.7184
105.302 659 25.671
105.418 598 24.454
105.535 679 26.0576
105.651 665 25.7876
105.767 596 24.4131
105.883 586 24.2074
105.999 468 21.6333
106.115 0 1
106.231 0 1
106.347 0 1
106.463 0 1
106.579 0 1
106.694 0 1
106.81 0 1
106.926 0 1
107.041 0 1
107.157 0 1
109.576 0 1
109.692 0 1
109.807 0 1
109.923 0 1
110.039 0 1
110.155 0 1
110.27 0 1
110.386 0 1
110.502 0 1
110.618 457 21.3776
110.735 513 22.6495
110.851 480 21.9089
110.967 488 22.0907
111.083 419 20.4695
111.199 366 19.1311
111.316 368 19.1833
111.432 407 20.1742
111.549 450 21.2132
111.665 505 22.4722
111.782 459 21.4243
111.898 440 20.9762
112.015 494 22.2261
112.132 437 20.9045
112.248 438 20.9284
112.365 422 20.5426
112.482 450 21.2132
112.599 394 19.8494
112.716 385 19.6214
112.832 366 19.1311
112.949 415 20.3715
113.066 388 19.6977
113.183 385 19.6214
113.3 408 20.199
113.417 399 19.975
113.534 359 18.9473
113.652 355 18.8414
113.769 378 19.4422
113.886 360 18.9737
114.003 359 18.9473
114.12 328 18.1108
114.238 357 18.8944
114.355 343 18.5203
114.472 317 17.8045
114.589 321 17.9165
114.707 342 18.4932
114.824 305 17.4642
114.942 271 16.4621
115.059 292 17.088
115.176 339 18.412
115.294 372 19.2873
115.411 342 18.4932
115.529 339 18.412
115.646 287 16.9411
115.764 331 18.1934
115.881 354 18.8149
115.999 337 18.3576
116.116 362 19.0263
116.234 349 18.6815
116.351 318 17.8326
116.469 327 18.0831
116.586 370 19.2354
116.704 333 18.2483
116.821 322 17.9444
116.939 301 17.3494
117.056 316 17.7764
117.174 294 17.1464
117.291 314 17.72
117.409 324 18
117.526 334 18.2757
117.644 305 17.4642
117.761 332 18.2209
117.879 300 17.3205
117.996 268 16.3707
118.114 318 17.8326
118.231 286 16.9115
118.349 317 17.8045
118.466 326 18.0555
118.584 342 18.4932
118.701 325 18.0278
118.819 334 18.2757
118.936 333 18.2483
119.053 351 18.735
119.171 340 18.4391
119.288 402 20.0499
119.405 364 19.0788
119.523 334 18.2757
119.64 357 18.8944
119.757 333 18.2483
119.875 334 18.2757
119.992 340 18.4391
120.109 321 17.9165
120.226 336 18.3303
120.343 340 18.4391
120.46 341 18.4662
120.578 361 19
120.695 357 18.8944
120.812 345 18.5742
120.929 357 18.8944
121.046 364 19.0788
121.163 358 18.9209
121.279 301 17.3494
121.396 361 19
121.513 331 18.1934
121.63 309 17.5784
121.747 289 17
121.863 286 16.9115
121.98 316 17.7764
122.097 348 18.6548
122.213 368 19.1833
122.33 360 18.9737
122.446 352 18.7617
122.563 350 18.7083
122.679 369 19.2094
122.795 393 19.8242
122.912 375 19.3649
123.028 382 19.5448
123.144 413 20.3224
123.26 381 19.5192
123.377 0 1
123.493 0 1
123.609 0 1
123.725 0 1
123.84 0 1
123.956 0 1
124.072 0 1
124.188 0 1
124.303 0 1
124.419 0 1
126.852 0 1
126.968 0 1
127.083 0 1
127.199 0 1
127.315 0 1
127.431 0 1
127.547 0 1
127.663 0 1
127.779 0 1
127.895 0 1
128.011 0 1
128.127 0 1
128.243 0 1
128.359 472 21.7256
128.476 498 22.3159
128.592 454 21.3073
128.708 502 22.4054
128.825 518 22.7596
128.941 455 21.3307
129.058 509 22.561
129.174 496 22.2711
129.291 517 22.7376
129.408 511 22.6053
129.524 496 22.2711
129.641 487 22.0681
129.758 520 22.8035
129.875 489 22.1133
129.992 480 21.9089
130.108 491 22.1585
130.225 469 21.6564
130.342 487 22.0681
130.459 405 20.1246
130.576 358 18.9209
130.693 363 19.0526
130.81 297 17.2337
130.928 349 18.6815
131.045 451 21.2368
131.162 501 22.383
131.279 547 23.388
131.396 498 22.3159
131.513 490 22.1359
131.631 545 23.3452
131.748 534 23.1084
131.865 562 23.7065
131.983 538 23.1948
132.1 556 23.5797
132.217 574 23.9583
132.335 578 24.0416
132.452 553 23.516
132.57 549 23.4307
132.687 487 22.0681
132.804 591 24.3105
132.922 522 22.8473
133.039 584 24.1661
133.157 540 23.2379
133.274 537 23.1733
133.392 514 22.6716
133.509 556 23.5797
133.627 570 23.8747
133.744 504 22.4499
133.862 525 22.9129
133.979 483 21.9773
134.097 448 21.166
134.214 389 19.7231
134.332 385 19.6214
134.449 405 20.1246
134.567 434 20.8327
134.684 499 22.3383
134.802 527 22.9565
134.919 582 24.1247
135.037 566 23.7908
135.154 593 24.3516
135.272 623 24.96
135.389 557 23.6008
135.507 593 24.3516
135.624 618 24.8596
135.742 581 24.1039
135.859 580 24.0832
135.977 595 24.3926
136.094 609 24.6779
136.211 629 25.0799
136.329 567 23.8118
136.446 583 24.1454
136.564 611 24.7184
136.681 628 25.0599
136.798 623 24.96
136.915 601 24.5153
137.033 604 24.5764
137.15 617 24.8395
137.267 598 24.454
137.384 552 23.4947
137.502 564 23.7487
137.619 479 21.8861
137.736 536 23.1517
137.853 463 21.5174
137.97 453 21.2838
138.087 467 21.6102
138.204 508 22.5389
138.321 477 21.8403
138.438 613 24.7588
138.555 575 23.9792
138.672 619 24.8797
138.788 605 24.5967
138.905 655 25.593
139.022 657 25.632
139.139 681 26.096
139.255 636 25.219
139.372 675 25.9808
139.488 705 26.5518
139.605 644 25.3772
139.721 633 25.1595
139.838 617 24.8395
139.954 657 25.632
140.071 679 26.0576
140.187 658 25.6515
140.303 647 25.4362
140.419 631 25.1197
140.535 657 25.632
140.652 661 25.7099
140.768 0 1
140.884 0 1
141 0 1
141.115 0 1
141.231 0 1
141.347 0 1
141.463 0 1
141.578 0 1
141.694 0 1
144.104 0 1
144.219 0 1
144.335 0 1
144.45 0 1
144.566 0 1
144.682 0 1
144.798 0 1
144.914 0 1
145.03 0 1
145.146 642 25.3377
145.262 586 24.2074
145.378 593 24.3516
145.494 605 24.5967
145.61 588 24.2487
145.726 614 24.779
145.842 628 25.0599
145.959 602 24.5357
146.075 594 24.3721
146.192 543 23.3024
146.308 485 22.0227
146.425 492 22.1811
146.541 472 21.7256
146.658 453 21.2838
146.774 514 22.6716
146.891 491 22.1585
147.008 541 23.2594
147.125 598 24.454
147.241 615 24.7992
147.358 641 25.318
147.475 619 24.8797
147.592 655 25.593
147.709 668 25.8457
147.826 634 25.1794
147.943 609 24.6779
148.06 652 25.5343
148.177 612 24.7386
148.294 629 25.0799
148.411 667 25.8263
148.528 614 24.779
148.645 634 25.1794
148.762 599 24.4745
148.88 591 24.3105
148.997 556 23.5797
149.114 556 23.5797
149.231 652 25.5343
149.349 623 24.96
149.466 574 23.9583
149.583 567 23.8118
149.701 560 23.6643
149.818 568 23.8328
149.935 524 22.891
150.053 480 21.9089
150.17 510 22.5832
150.287 500 22.3607
150.405 517 22.7376
150.522 528 22.9783
150.64 526 22.9347
150.757 578 24.0416
150.875 609 24.6779
150.992 597 24.4336
151.11 600 24.4949
151.227 634 25.1794
151.344 616 24.8193
151.462 615 24.7992
151.579 643 25.3574
151.697 637 25.2389
151.814 610 24.6982
151.932 637 25.2389
152.049 640 25.2982
152.167 634 25.1794
152.284 652 25.5343
152.402 669 25.865
152.519 664 25.7682
152.636 629 25.0799
152.754 657 25.632
152.871 682 26.1151
152.989 647 25.4362
153.106 649 25.4755
153.223 563 23.7276
153.341 587 24.2281
153.458 580 24.0832
153.575 513 22.6495
153.693 553 23.516
153.81 546 23.3666
153.927 544 23.3238
154.044 525 22.9129
154.162 570 23.8747
154.279 619 24.8797
154.396 598 24.454
154.513 606 24.6171
154.63 622 24.9399
154.747 624 24.98
154.864 661 25.7099
154.981 727 26.9629
155.098 657 25.632
155.215 676 26
155.332 666 25.807
155.449 673 25.9422
155.566 685 26.1725
155.683 639 25.2784
155.8 639 25.2784
155.917 646 25.4165
156.033 687 26.2107
156.15 0 1
156.267 0 1
156.383 0 1
156.5 0 1
156.617 0 1
156.733 0 1
156.85 0 1
156.966 0 1
157.082 0 1
157.199 0 1
157.315 0 1
157.431 0 1
157.547 0 1
157.664 0 1
157.78 0 1
157.896 0 1
158.012 0 1
158.128 0 1
158.244 0 1
158.359 0 1
158.475 0 1
158.591 0 1
158.706 0 1
