
6.15755 0 1
6.2731 0 1
6.3887 0 1
6.50437 0 1
6.62009 0 1
6.73587 0 1
6.8517 0 1
6.96759 0 1
7.08353 0 1
7.19952 0 1
7.31557 0 1
7.43166 0 1
7.54781 0 1
7.664 0 1
7.78024 0 1
7.89653 0 1
8.01286 0 1
8.12924 0 1
8.24567 0 1
8.36213 0 1
8.47864 0 1
8.59519 0 1
8.71178 0 1
8.82841 0 1
8.94508 0 1
9.06179 0 1
9.17853 0 1
9.29531 0 1
9.41212 0 1
9.52897 0 1
9.64584 0 1
9.76276 0 1
9.8797 0 1
9.99667 0 1
10.1137 0 1
10.2307 0 1
10.3478 0 1
10.4648 0 1
10.5819 0 1
10.6991 0 1
10.8162 0 1
10.9334 0 1
11.0506 0 1
11.1678 0 1
11.285 0 1
11.4023 0 1
11.5196 0 1
11.6369 0 1
11.7542 0 1
11.8715 0 1
11.9888 0 1
12.1062 0 1
12.2235 0 1
12.3409 0 1
12.4582 0 1
12.5756 0 1
12.693 0 1
12.8104 0 1
12.9278 0 1
13.0452 0 1
13.1626 0 1
13.28 0 1
13.3974 0 1
13.5149 0 1
13.6323 0 1
13.7497 0 1
13.8671 0 1
13.9845 0 1
14.1019 0 1
14.2193 0 1
14.3367 0 1
14.4541 0 1
14.5714 0 1
14.6888 0 1
14.8062 0 1
14.9235 0 1
15.0408 993 31.5119
15.1581 1036 32.187
15.2755 1072 32.7414
15.3927 1041 32.2645
15.51 951 30.8383
15.6273 1020 31.9374
15.7445 1063 32.6037
15.8617 1008 31.749
15.9789 982 31.3369
16.0961 978 31.273
16.2132 952 30.8545
16.3304 901 30.0167
16.4475 916 30.2655
16.5646 950 30.8221
16.6816 971 31.1609
16.7986 961 31
16.9156 957 30.9354
17.0326 901 30.0167
17.1496 960 30.9839
17.2665 979 31.289
17.3833 944 30.7246
17.5002 974 31.209
17.617 973 31.1929
17.7338 920 30.3315
17.8505 985 31.3847
17.9672 975 31.225
18.0839 977 31.257
18.2005 903 30.05
18.3171 937 30.6105
18.4337 924 30.3974
18.5502 906 30.0998
18.6666 883 29.7153
18.7831 956 30.9192
18.8994 875 29.5804
19.0158 854 29.2233
19.1321 860 29.3258
19.2483 858 29.2916
19.3645 836 28.9137
19.4806 816 28.5657
19.5967 765 27.6586
19.7128 684 26.1534
19.8288 624 24.98
19.9447 577 24.0208
20.0606 0 1
20.1764 0 1
20.2922 0 1
20.4079 0 1
20.5236 0 1
20.6392 0 1
20.7548 0 1
20.8702 0 1
23.3078 0 1
23.4233 0 1
23.539 0 1
23.6547 0 1
23.7704 0 1
23.8862 0 1
24.0021 0 1
24.118 0 1
24.234 0 1
24.35 0 1
24.4661 384 19.5959
24.5822 437 20.9045
24.6984 499 22.3383
24.8146 529 23
24.9309 614 24.779
25.0472 696 26.3818
25.1636 744 27.2764
25.28 849 29.1376
25.3965 895 29.9166
25.513 921 30.348
25.6296 934 30.5614
25.7462 948 30.7896
25.8628 1028 32.0624
25.9795 1010 31.7805
26.0962 916 30.2655
26.213 1028 32.0624
26.3298 926 30.4302
26.4466 910 30.1662
26.5635 824 28.7054
26.6804 861 29.3428
26.7973 880 29.6648
26.9143 791 28.1247
27.0313 810 28.4605
27.1483 769 27.7308
27.2653 858 29.2916
27.3824 891 29.8496
27.4996 857 29.2746
27.6167 813 28.5132
27.7339 847 29.1033
27.8511 890 29.8329
27.9683 882 29.6985
28.0855 910 30.1662
28.2028 943 30.7083
28.3201 887 29.7825
28.4374 877 29.6142
28.5547 867 29.4449
28.6721 769 27.7308
28.7894 868 29.4618
28.9068 830 28.8097
29.0242 832 28.8444
29.1416 893 29.8831
29.259 835 28.8964
29.3764 912 30.1993
29.4939 847 29.1033
29.6113 838 28.9482
29.7288 833 28.8617
29.8463 841 29
29.9638 799 28.2666
30.0812 855 29.2404
30.1987 834 28.8791
30.3162 890 29.8329
30.4337 792 28.1425
30.5512 742 27.2397
30.6687 740 27.2029
30.7862 840 28.9828
30.9037 877 29.6142
31.0212 876 29.5973
31.1387 855 29.2404
31.2562 900 30
31.3737 867 29.4449
31.4912 859 29.3087
31.6087 866 29.4279
31.7262 868 29.4618
31.8436 813 28.5132
31.9611 776 27.8568
32.0785 743 27.258
32.1959 714 26.7208
32.3134 769 27.7308
32.4308 794 28.178
32.5482 762 27.6043
32.6655 735 27.1109
32.7829 765 27.6586
32.9002 776 27.8568
33.0176 762 27.6043
33.1349 791 28.1247
33.2522 781 27.9464
33.3694 765 27.6586
33.4867 738 27.1662
33.6039 770 27.7489
33.7211 811 28.4781
33.8383 750 27.3861
33.9554 768 27.7128
34.0725 730 27.0185
34.1896 650 25.4951
34.3067 699 26.4386
34.4237 724 26.9072
34.5407 798 28.2489
34.6577 839 28.9655
34.7746 812 28.4956
34.8915 810 28.4605
35.0084 789 28.0891
35.1252 781 27.9464
35.242 779 27.9106
35.3587 783 27.9821
35.4755 771 27.7669
35.5921 740 27.2029
35.7088 678 26.0384
35.8254 687 26.2107
35.9419 666 25.807
36.0584 674 25.9615
36.1749 698 26.4197
36.2913 713 26.7021
36.4077 709 26.6271
36.524 672 25.923
36.6403 682 26.1151
36.7565 579 24.0624
36.8727 591 24.3105
36.9889 511 22.6053
37.1049 542 23.2809
37.221 0 1
37.3369 0 1
37.4529 0 1
37.5687 0 1
37.6845 0 1
37.8003 0 1
37.916 0 1
38.0316 0 1
38.1472 0 1
40.5851 0 1
40.7008 0 1
40.8164 0 1
40.9322 0 1
41.048 0 1
41.1639 0 1
41.2798 0 1
41.3958 0 1
41.5118 0 1
41.6279 0 1
41.744 301 17.3494
41.8602 394 19.8494
41.9765 421 20.5183
42.0928 556 23.5797
42.2091 542 23.2809
42.3255 622 24.9399
42.4419 588 24.2487
42.5584 607 24.6374
42.675 636 25.219
42.7915 541 23.2594
42.9081 568 23.8328
43.0248 532 23.0651
43.1415 582 24.1247
43.2582 600 24.4949
43.375 600 24.4949
43.4918 637 25.2389
43.6087 634 25.1794
43.7256 714 26.7208
43.8425 636 25.219
43.9595 667 25.8263
44.0765 631 25.1197
44.1935 595 24.3926
44.3106 601 24.5153
44.4277 636 25.219
44.5448 554 23.5372
44.6619 556 23.5797
44.7791 542 23.2809
44.8963 557 23.6008
45.0136 626 25.02
45.1308 646 25.4165
45.2481 628 25.0599
45.3654 646 25.4165
45.4827 662 25.7294
45.6001 651 25.5147
45.7174 622 24.9399
45.8348 631 25.1197
45.9522 684 26.1534
46.0697 679 26.0576
46.1871 633 25.1595
46.3046 637 25.2389
46.422 580 24.0832
46.5395 516 22.7156
46.657 557 23.6008
46.7745 568 23.8328
46.892 597 24.4336
47.0096 594 24.3721
47.1271 628 25.0599
47.2446 636 25.219
47.3622 625 25
47.4797 628 25.0599
47.5973 625 25
47.7149 674 25.9615
47.8324 589 24.2693
47.95 594 24.3721
48.0675 568 23.8328
48.1851 556 23.5797
48.3027 555 23.5584
48.4202 575 23.9792
48.5378 590 24.2899
48.6554 617 24.8395
48.7729 602 24.5357
48.8904 634 25.1794
49.008 643 25.3574
49.1255 632 25.1396
49.243 686 26.1916
49.3605 669 25.865
49.478 599 24.4745
49.5955 611 24.7184
49.713 583 24.1454
49.8304 596 24.4131
49.9479 577 24.0208
50.0653 496 22.2711
50.1827 481 21.9317
50.3001 508 22.5389
50.4175 590 24.2899
50.5348 563 23.7276
50.6521 633 25.1595
50.7694 647 25.4362
50.8867 588 24.2487
51.004 586 24.2074
51.1212 595 24.3926
51.2384 615 24.7992
51.3556 636 25.219
51.4727 508 22.5389
51.5899 548 23.4094
51.707 605 24.5967
51.824 581 24.1039
51.9411 637 25.2389
52.0581 643 25.3574
52.175 691 26.2869
52.2919 701 26.4764
52.4088 696 26.3818
52.5257 810 28.4605
52.6425 871 29.5127
52.7593 900 30
52.876 928 30.4631
52.9927 972 31.1769
53.1094 1047 32.3574
53.226 1035 32.1714
53.3426 986 31.4006
53.4591 930 30.4959
53.5756 905 30.0832
53.692 854 29.2233
53.8084 840 28.9828
53.9248 832 28.8444
54.0411 820 28.6356
54.1573 802 28.3196
54.2735 0 1
54.3896 0 1
54.5057 0 1
54.6217 0 1
54.7377 0 1
54.8537 0 1
54.9695 0 1
55.0853 0 1
55.2011 0 1
55.3168 0 1
55.4324 0 1
57.824 0 1
57.9396 0 1
58.0553 0 1
58.1711 0 1
58.2869 0 1
58.4028 0 1
58.5187 0 1
58.6347 0 1
58.7508 0 1
58.8669 0 1
58.983 742 27.2397
59.0992 918 30.2985
59.2155 1007 31.7333
59.3318 1126 33.5559
59.4482 1208 34.7563
59.5646 1385 37.2156
59.681 1449 38.0657
59.7975 1404 37.47
59.9141 1421 37.6962
60.0306 1513 38.8973
60.1473 1371 37.027
60.2639 1390 37.2827
60.3807 1329 36.4555
60.4974 1391 37.2961
60.6142 1342 36.6333
60.731 1400 37.4166
60.8479 1415 37.6165
60.9648 1406 37.4967
61.0818 1315 36.2629
61.1987 1324 36.3868
61.3158 1365 36.9459
61.4328 1321 36.3456
61.5499 1238 35.1852
61.667 1168 34.176
61.7841 1198 34.6121
61.9013 1174 34.2637
62.0185 1081 32.8786
62.1357 1083 32.909
62.253 995 31.5436
62.3702 958 30.9516
62.4875 1019 31.9218
62.6049 978 31.273
62.7222 1009 31.7648
62.8396 1034 32.1559
62.9569 987 31.4166
63.0743 979 31.289
63.1918 954 30.8869
63.3092 960 30.9839
63.4267 904 30.0666
63.5441 855 29.2404
63.6616 814 28.5307
63.7791 730 27.0185
63.8966 697 26.4008
64.0142 657 25.632
64.1317 685 26.1725
64.2492 651 25.5147
64.3668 653 25.5539
64.4843 650 25.4951
64.6019 667 25.8263
64.7195 670 25.8844
64.837 691 26.2869
64.9546 667 25.8263
65.0722 628 25.0599
65.1898 684 26.1534
65.3074 676 26
65.4249 636 25.219
65.5425 642 25.3377
65.6601 606 24.6171
65.7777 574 23.9583
65.8952 552 23.4947
66.0128 566 23.7908
66.1304 606 24.6171
66.2479 583 24.1454
66.3655 633 25.1595
66.483 665 25.7876
66.6005 678 26.0384
66.718 604 24.5764
66.8355 676 26
66.953 658 25.6515
67.0705 616 24.8193
67.1879 582 24.1247
67.3054 577 24.0208
67.4228 589 24.2693
67.5402 613 24.7588
67.6576 567 23.8118
67.7749 623 24.96
67.8923 607 24.6374
68.0096 646 25.4165
68.1269 568 23.8328
68.2442 643 25.3574
68.3614 573 23.9374
68.4787 587 24.2281
68.5958 615 24.7992
68.713 583 24.1454
68.8302 647 25.4362
68.9473 620 24.8998
69.0643 673 25.9422
69.1814 576 24
69.2984 557 23.6008
69.4154 533 23.0868
69.5323 499 22.3383
69.6492 558 23.622
69.7661 593 24.3516
69.8829 619 24.8797
69.9997 598 24.454
70.1165 622 24.9399
70.2332 638 25.2587
70.3499 553 23.516
70.4665 514 22.6716
70.5831 534 23.1084
70.6996 496 22.2711
70.8161 415 20.3715
70.9326 365 19.105
71.049 353 18.7883
71.1653 306 17.4929
71.2817 318 17.8326
71.3979 276 16.6132
71.5141 308 17.5499
71.6303 289 17
71.7464 222 14.8997
71.8624 0 1
71.9784 0 1
72.0944 0 1
72.2102 0 1
72.3261 0 1
72.4418 0 1
72.5575 0 1
72.6732 0 1
75.1054 0 1
75.2209 0 1
75.3365 0 1
75.4521 0 1
75.5678 0 1
75.6835 0 1
75.7993 0 1
75.9151 0 1
76.031 0 1
76.147 354 18.8149
76.263 398 19.9499
76.3791 429 20.7123
76.4952 419 20.4695
76.6113 457 21.3776
76.7276 497 22.2935
76.8438 461 21.4709
76.9601 519 22.7816
77.0765 491 22.1585
77.1929 476 21.8174
77.3093 514 22.6716
77.4258 490 22.1359
77.5423 553 23.516
77.6589 513 22.6495
77.7755 534 23.1084
77.8921 563 23.7276
78.0088 528 22.9783
78.1256 512 22.6274
78.2423 489 22.1133
78.3591 465 21.5639
78.4759 469 21.6564
78.5928 435 20.8567
78.7097 460 21.4476
78.8266 482 21.9545
78.9436 513 22.6495
79.0606 549 23.4307
79.1776 505 22.4722
79.2946 512 22.6274
79.4117 499 22.3383
79.5288 529 23
79.6459 510 22.5832
79.7631 535 23.1301
79.8802 460 21.4476
79.9974 481 21.9317
80.1147 498 22.3159
80.2319 469 21.6564
80.3491 503 22.4277
80.4664 541 23.2594
80.5837 527 22.9565
80.701 507 22.5167
80.8183 516 22.7156
80.9357 525 22.9129
81.053 519 22.7816
81.1704 515 22.6936
81.2877 541 23.2594
81.4051 558 23.622
81.5225 560 23.6643
81.6399 516 22.7156
81.7573 529 23
81.8747 497 22.2935
81.9922 482 21.9545
82.1096 512 22.6274
82.227 445 21.095
82.3444 467 21.6102
82.4619 518 22.7596
82.5793 516 22.7156
82.6967 521 22.8254
82.8142 534 23.1084
82.9316 564 23.7487
83.049 549 23.4307
83.1664 577 24.0208
83.2838 501 22.383
83.4012 513 22.6495
83.5186 468 21.6333
83.636 519 22.7816
83.7534 491 22.1585
83.8708 560 23.6643
83.9881 578 24.0416
84.1055 510 22.5832
84.2228 551 23.4734
84.3401 565 23.7697
84.4575 512 22.6274
84.5747 502 22.4054
84.692 523 22.8692
84.8093 524 22.891
84.9265 530 23.0217
85.0437 504 22.4499
85.1609 579 24.0624
85.2781 533 23.0868
85.3952 523 22.8692
85.5123 497 22.2935
85.6294 511 22.6053
85.7465 492 22.1811
85.8636 441 21
85.9806 433 20.8087
86.0976 570 23.8747
86.2145 543 23.3024
86.3315 589 24.2693
86.4484 554 23.5372
86.5652 550 23.4521
86.682 531 23.0434
86.7988 554 23.5372
86.9156 524 22.891
87.0323 557 23.6008
87.149 548 23.4094
87.2657 489 22.1133
87.3823 507 22.5167
87.4988 515 22.6936
87.6154 481 21.9317
87.7318 507 22.5167
87.8483 466 21.587
87.9647 467 21.6102
88.081 453 21.2838
88.1973 415 20.3715
88.3136 442 21.0238
88.4298 364 19.0788
88.546 324 18
88.6621 328 18.1108
88.7781 282 16.7929
88.8942 0 1
89.0101 0 1
89.126 0 1
89.2419 0 1
89.3577 0 1
89.4734 0 1
89.5891 0 1
89.7047 0 1
89.8203 0 1
89.9358 0 1
92.3269 0 1
92.4424 0 1
92.558 0 1
92.6736 0 1
92.7893 0 1
92.905 0 1
93.0208 0 1
93.1366 0 1
93.2525 0 1
93.3685 0 1
93.4845 0 1
93.6005 460 21.4476
93.7167 396 19.8997
93.8328 455 21.3307
93.949 490 22.1359
94.0653 511 22.6053
94.1816 522 22.8473
94.2979 574 23.9583
94.4143 589 24.2693
94.5307 526 22.9347
94.6472 541 23.2594
94.7637 505 22.4722
94.8803 469 21.6564
94.9969 535 23.1301
95.1135 506 22.4944
95.2302 564 23.7487
95.3469 560 23.6643
95.4637 591 24.3105
95.5805 608 24.6577
95.6973 557 23.6008
95.8142 599 24.4745
95.9311 525 22.9129
96.048 532 23.0651
96.1649 504 22.4499
96.2819 518 22.7596
96.3989 538 23.1948
96.516 514 22.6716
96.633 571 23.8956
96.7501 564 23.7487
96.8673 512 22.6274
96.9844 541 23.2594
97.1016 570 23.8747
97.2188 577 24.0208
97.336 562 23.7065
97.4532 548 23.4094
97.5704 561 23.6854
97.6877 540 23.2379
97.805 559 23.6432
97.9223 562 23.7065
98.0396 559 23.6432
98.1569 534 23.1084
98.2743 531 23.0434
98.3916 514 22.6716
98.509 498 22.3159
98.6264 550 23.4521
98.7438 562 23.7065
98.8612 592 24.3311
98.9786 580 24.0832
99.096 619 24.8797
99.2134 634 25.1794
99.3308 607 24.6374
99.4482 645 25.3969
99.5656 566 23.7908
99.6831 569 23.8537
99.8005 649 25.4755
99.9179 639 25.2784
100.035 625 25
100.153 581 24.1039
100.27 605 24.5967
100.388 637 25.2389
100.505 608 24.6577
100.622 587 24.2281
100.74 571 23.8956
100.857 604 24.5764
100.975 556 23.5797
101.092 585 24.1868
101.209 558 23.622
101.327 584 24.1661
101.444 612 24.7386
101.561 617 24.8395
101.679 557 23.6008
101.796 573 23.9374
101.913 561 23.6854
102.03 556 23.5797
102.148 556 23.5797
102.265 586 24.2074
102.382 574 23.9583
102.499 621 24.9199
102.616 662 25.7294
102.733 620 24.8998
102.851 617 24.8395
102.968 632 25.1396
103.085 602 24.5357
103.202 588 24.2487
103.319 594 24.3721
103.436 607 24.6374
103.552 622 24.9399
103.669 623 24.96
103.786 677 26.0192
103.903 655 25.593
104.02 594 24.3721
104.137 628 25.0599
104.253 612 24.7386
104.37 610 24.6982
104.487 547 23.388
104.603 593 24.3516
104.72 584 24.1661
104.836 571 23.8956
104.953 560 23.6643
105.069 577 24.0208
105.186 507 22.5167
105.302 517 22.7376
105.418 447 21.1424
105.535 413 20.3224
105.651 411 20.2731
105.767 345 18.5742
105.883 345 18.5742
105.999 300 17.3205
106.115 0 1
106.231 0 1
106.347 0 1
106.463 0 1
106.579 0 1
106.694 0 1
106.81 0 1
106.926 0 1
107.041 0 1
107.157 0 1
109.576 0 1
109.692 0 1
109.807 0 1
109.923 0 1
110.039 0 1
110.155 0 1
110.27 0 1
110.386 0 1
110.502 0 1
110.618 289 17
110.735 379 19.4679
110.851 400 20
110.967 394 19.8494
111.083 502 22.4054
111.199 540 23.2379
111.316 558 23.622
111.432 565 23.7697
111.549 624 24.98
111.665 545 23.3452
111.782 570 23.8747
111.898 526 22.9347
112.015 565 23.7697
112.132 541 23.2594
112.248 578 24.0416
112.365 591 24.3105
112.482 585 24.1868
112.599 584 24.1661
112.716 601 24.5153
112.832 585 24.1868
112.949 559 23.6432
113.066 578 24.0416
113.183 525 22.9129
113.3 555 23.5584
113.417 546 23.3666
113.534 571 23.8956
113.652 557 23.6008
113.769 568 23.8328
113.886 545 23.3452
114.003 537 23.1733
114.12 506 22.4944
114.238 488 22.0907
114.355 488 22.0907
114.472 530 23.0217
114.589 532 23.0651
114.707 541 23.2594
114.824 556 23.5797
114.942 521 22.8254
115.059 542 23.2809
115.176 566 23.7908
115.294 564 23.7487
115.411 552 23.4947
115.529 531 23.0434
115.646 505 22.4722
115.764 550 23.4521
115.881 562 23.7065
115.999 529 23
116.116 531 23.0434
116.234 543 23.3024
116.351 519 22.7816
116.469 538 23.1948
116.586 493 22.2036
116.704 490 22.1359
116.821 509 22.561
116.939 546 23.3666
117.056 494 22.2261
117.174 526 22.9347
117.291 496 22.2711
117.409 536 23.1517
117.526 486 22.0454
117.644 512 22.6274
117.761 521 22.8254
117.879 476 21.8174
117.996 485 22.0227
118.114 487 22.0681
118.231 536 23.1517
118.349 523 22.8692
118.466 556 23.5797
118.584 582 24.1247
118.701 551 23.4734
118.819 545 23.3452
118.936 509 22.561
119.053 506 22.4944
119.171 468 21.6333
119.288 531 23.0434
119.405 483 21.9773
119.523 525 22.9129
119.64 534 23.1084
119.757 538 23.1948
119.875 564 23.7487
119.992 484 22
120.109 462 21.4942
120.226 508 22.5389
120.343 465 21.5639
120.46 543 23.3024
120.578 498 22.3159
120.695 438 20.9284
120.812 506 22.4944
120.929 545 23.3452
121.046 523 22.8692
121.163 473 21.7486
121.279 473 21.7486
121.396 448 21.166
121.513 431 20.7605
121.63 460 21.4476
121.747 436 20.8806
121.863 411 20.2731
121.98 378 19.4422
122.097 419 20.4695
122.213 439 20.9523
122.33 423 20.567
122.446 373 19.3132
122.563 370 19.2354
122.679 322 17.9444
122.795 264 16.2481
122.912 278 16.6733
123.028 297 17.2337
123.144 289 17
123.26 285 16.8819
123.377 0 1
123.493 0 1
123.609 0 1
123.725 0 1
123.84 0 1
123.956 0 1
124.072 0 1
124.188 0 1
124.303 0 1
124.419 0 1
126.852 0 1
126.968 0 1
127.083 0 1
127.199 0 1
127.315 0 1
127.431 0 1
127.547 0 1
127.663 0 1
127.779 0 1
127.895 0 1
128.011 0 1
128.127 0 1
128.243 0 1
128.359 495 22.2486
128.476 529 23
128.592 562 23.7065
128.708 591 24.3105
128.825 586 24.2074
128.941 595 24.3926
129.058 629 25.0799
129.174 593 24.3516
129.291 593 24.3516
129.408 546 23.3666
129.524 580 24.0832
129.641 515 22.6936
129.758 577 24.0208
129.875 598 24.454
129.992 567 23.8118
130.108 576 24
130.225 634 25.1794
130.342 625 25
130.459 555 23.5584
130.576 624 24.98
130.693 583 24.1454
130.81 655 25.593
130.928 615 24.7992
131.045 614 24.779
131.162 712 26.6833
131.279 710 26.6458
131.396 763 27.6225
131.513 822 28.6705
131.631 773 27.8029
131.748 720 26.8328
131.865 749 27.3679
131.983 800 28.2843
132.1 825 28.7228
132.217 890 29.8329
132.335 901 30.0167
132.452 967 31.0966
132.57 978 31.273
132.687 956 30.9192
132.804 1015 31.8591
132.922 973 31.1929
133.039 1024 32
133.157 1084 32.9242
133.274 1106 33.2566
133.392 1007 31.7333
133.509 1102 33.1964
133.627 1061 32.573
133.744 1020 31.9374
133.862 1035 32.1714
133.979 1054 32.4654
134.097 976 31.241
134.214 959 30.9677
134.332 948 30.7896
134.449 1008 31.749
134.567 946 30.7571
134.684 1020 31.9374
134.802 1064 32.619
134.919 1161 34.0735
135.037 1173 34.2491
135.154 1126 33.5559
135.272 1096 33.1059
135.389 1084 32.9242
135.507 1044 32.311
135.624 1063 32.6037
135.742 1121 33.4813
135.859 1133 33.6601
135.977 1143 33.8083
136.094 1175 34.2783
136.211 1120 33.4664
136.329 1143 33.8083
136.446 1158 34.0294
136.564 1136 33.7046
136.681 1128 33.5857
136.798 1155 33.9853
136.915 1098 33.1361
137.033 1115 33.3916
137.15 1087 32.9697
137.267 1142 33.7935
137.384 1105 33.2415
137.502 1076 32.8024
137.619 936 30.5941
137.736 973 31.1929
137.853 957 30.9354
137.97 977 31.257
138.087 987 31.4166
138.204 1033 32.1403
138.321 1039 32.2335
138.438 1072 32.7414
138.555 1147 33.8674
138.672 1140 33.7639
138.788 1070 32.7109
138.905 1115 33.3916
139.022 1084 32.9242
139.139 1025 32.0156
139.255 990 31.4643
139.372 930 30.4959
139.488 918 30.2985
139.605 907 30.1164
139.721 862 29.3598
139.838 789 28.0891
139.954 786 28.0357
140.071 696 26.3818
140.187 709 26.6271
140.303 647 25.4362
140.419 655 25.593
140.535 583 24.1454
140.652 599 24.4745
140.768 0 1
140.884 0 1
141 0 1
141.115 0 1
141.231 0 1
141.347 0 1
141.463 0 1
141.578 0 1
141.694 0 1
144.104 0 1
144.219 0 1
144.335 0 1
144.45 0 1
144.566 0 1
144.682 0 1
144.798 0 1
144.914 0 1
145.03 0 1
145.146 1765 42.0119
145.262 1915 43.7607
145.378 1908 43.6807
145.494 2036 45.1221
145.61 2053 45.31
145.726 2065 45.4423
145.842 2149 46.3573
145.959 2296 47.9166
146.075 2258 47.5184
146.192 2448 49.4773
146.308 2543 50.4282
146.425 2539 50.3885
146.541 2599 50.9804
146.658 2466 49.6588
146.774 2258 47.5184
146.891 2034 45.0999
147.008 2198 46.8828
147.125 2798 52.8961
147.241 3035 55.0908
147.358 3338 57.7754
147.475 3363 57.9914
147.592 3442 58.6686
147.709 3594 59.95
147.826 3596 59.9667
147.943 3458 58.8048
148.06 3527 59.3886
148.177 3519 59.3212
148.294 3495 59.1185
148.411 3629 60.2412
148.528 3692 60.7618
148.645 3597 59.975
148.762 3687 60.7207
148.88 3685 60.7042
148.997 3730 61.0737
149.114 3700 60.8276
149.231 3619 60.1581
149.349 3597 59.975
149.466 3675 60.6218
149.583 3542 59.5147
149.701 3650 60.4152
149.818 3551 59.5903
149.935 3491 59.0847
150.053 3521 59.338
150.17 3318 57.6021
150.287 3198 56.5509
150.405 2890 53.7587
150.522 2574 50.7346
150.64 2356 48.5386
150.757 2838 53.2729
150.875 3362 57.9828
150.992 3699 60.8194
151.11 3583 59.8582
151.227 3675 60.6218
151.344 3844 62
151.462 3948 62.8331
151.579 4033 63.5059
151.697 3907 62.506
151.814 4097 64.0078
151.932 4253 65.215
152.049 4410 66.4078
152.167 4392 66.2722
152.284 4564 67.5574
152.402 4543 67.4018
152.519 4629 68.0368
152.636 4718 68.6877
152.754 4708 68.6149
152.871 4897 69.9786
152.989 4773 69.0869
153.106 4739 68.8404
153.223 4657 68.2422
153.341 4550 67.4537
153.458 4540 67.3795
153.575 4387 66.2344
153.693 4523 67.2533
153.81 4378 66.1665
153.927 3569 59.7411
154.044 2641 51.3907
154.162 2575 50.7445
154.279 3272 57.2014
154.396 3740 61.1555
154.513 3824 61.8385
154.63 3937 62.7455
154.747 3791 61.5711
154.864 3744 61.1882
154.981 3543 59.5231
155.098 3334 57.7408
155.215 3277 57.2451
155.332 3136 56
155.449 2956 54.3691
155.566 2978 54.5711
155.683 2911 53.9537
155.8 2773 52.6593
155.917 2769 52.6213
156.033 2585 50.8429
156.15 0 1
156.267 0 1
156.383 0 1
156.5 0 1
156.617 0 1
156.733 0 1
156.85 0 1
156.966 0 1
157.082 0 1
157.199 0 1
157.315 0 1
157.431 0 1
157.547 0 1
157.664 0 1
157.78 0 1
157.896 0 1
158.012 0 1
158.128 0 1
158.244 0 1
158.359 0 1
158.475 0 1
158.591 0 1
158.706 0 1
