
6.15755 0 1
6.2731 0 1
6.3887 0 1
6.50437 0 1
6.62009 0 1
6.73587 0 1
6.8517 0 1
6.96759 0 1
7.08353 0 1
7.19952 0 1
7.31557 0 1
7.43166 0 1
7.54781 0 1
7.664 0 1
7.78024 0 1
7.89653 0 1
8.01286 0 1
8.12924 0 1
8.24567 0 1
8.36213 0 1
8.47864 0 1
8.59519 0 1
8.71178 0 1
8.82841 0 1
8.94508 0 1
9.06179 0 1
9.17853 0 1
9.29531 0 1
9.41212 0 1
9.52897 0 1
9.64584 0 1
9.76276 0 1
9.8797 0 1
9.99667 0 1
10.1137 0 1
10.2307 0 1
10.3478 0 1
10.4648 0 1
10.5819 0 1
10.6991 0 1
10.8162 0 1
10.9334 0 1
11.0506 0 1
11.1678 0 1
11.285 0 1
11.4023 0 1
11.5196 0 1
11.6369 0 1
11.7542 0 1
11.8715 0 1
11.9888 0 1
12.1062 0 1
12.2235 0 1
12.3409 0 1
12.4582 0 1
12.5756 0 1
12.693 0 1
12.8104 0 1
12.9278 0 1
13.0452 0 1
13.1626 0 1
13.28 0 1
13.3974 0 1
13.5149 0 1
13.6323 0 1
13.7497 0 1
13.8671 0 1
13.9845 0 1
14.1019 0 1
14.2193 0 1
14.3367 0 1
14.4541 0 1
14.5714 0 1
14.6888 0 1
14.8062 0 1
14.9235 0 1
15.0408 1432 37.8418
15.1581 1473 38.3797
15.2755 1462 38.2361
15.3927 1472 38.3667
15.51 1587 39.8372
15.6273 1490 38.6005
15.7445 1528 39.0896
15.8617 1531 39.128
15.9789 1493 38.6394
16.0961 1473 38.3797
16.2132 1548 39.3446
16.3304 1556 39.4462
16.4475 1602 40.025
16.5646 1619 40.2368
16.6816 1717 41.4367
16.7986 1788 42.2847
16.9156 1834 42.8252
17.0326 1762 41.9762
17.1496 1851 43.0232
17.2665 1838 42.8719
17.3833 1859 43.1161
17.5002 1761 41.9643
17.617 1641 40.5093
17.7338 1575 39.6863
17.8505 1541 39.2556
17.9672 1489 38.5876
18.0839 1534 39.1663
18.2005 1579 39.7366
18.3171 1614 40.1746
18.4337 1638 40.4722
18.5502 1756 41.9047
18.6666 1808 42.5206
18.7831 1806 42.4971
18.8994 1768 42.0476
19.0158 1726 41.5452
19.1321 1680 40.9878
19.2483 1655 40.6817
19.3645 1541 39.2556
19.4806 1494 38.6523
19.5967 1327 36.428
19.7128 1309 36.1801
19.8288 1146 33.8526
19.9447 1076 32.8024
20.0606 0 1
20.1764 0 1
20.2922 0 1
20.4079 0 1
20.5236 0 1
20.6392 0 1
20.7548 0 1
20.8702 0 1
23.3078 0 1
23.4233 0 1
23.539 0 1
23.6547 0 1
23.7704 0 1
23.8862 0 1
24.0021 0 1
24.118 0 1
24.234 0 1
24.35 0 1
24.4661 724 26.9072
24.5822 892 29.8664
24.6984 1024 32
24.8146 1101 33.1813
24.9309 1170 34.2053
25.0472 1245 35.2846
25.1636 1375 37.081
25.28 1525 39.0512
25.3965 1601 40.0125
25.513 1729 41.5812
25.6296 1826 42.7317
25.7462 1966 44.3396
25.8628 1935 43.9886
25.9795 1914 43.7493
26.0962 2002 44.7437
26.213 1872 43.2666
26.3298 1802 42.45
26.4466 1676 40.939
26.5635 1680 40.9878
26.6804 1689 41.0974
26.7973 1646 40.5709
26.9143 1729 41.5812
27.0313 1761 41.9643
27.1483 1859 43.1161
27.2653 1786 42.2611
27.3824 1900 43.589
27.4996 1911 43.715
27.6167 1827 42.7434
27.7339 1766 42.0238
27.8511 1769 42.0595
27.9683 1747 41.7971
28.0855 1680 40.9878
28.2028 1548 39.3446
28.3201 1627 40.3361
28.4374 1530 39.1152
28.5547 1535 39.1791
28.6721 1639 40.4846
28.7894 1691 41.1218
28.9068 1771 42.0833
29.0242 1856 43.0813
29.1416 1883 43.3935
29.259 1954 44.2041
29.3764 1847 42.9767
29.4939 1898 43.566
29.6113 1898 43.566
29.7288 1803 42.4617
29.8463 1685 41.0488
29.9638 1558 39.4715
30.0812 1555 39.4335
30.1987 1597 39.9625
30.3162 1571 39.6358
30.4337 1639 40.4846
30.5512 1680 40.9878
30.6687 1732 41.6173
30.7862 1756 41.9047
30.9037 1712 41.3763
31.0212 1776 42.1426
31.1387 1764 42
31.2562 1726 41.5452
31.3737 1713 41.3884
31.4912 1667 40.8289
31.6087 1567 39.5854
31.7262 1544 39.2938
31.8436 1511 38.8716
31.9611 1472 38.3667
32.0785 1459 38.1969
32.1959 1525 39.0512
32.3134 1613 40.1622
32.4308 1668 40.8412
32.5482 1748 41.8091
32.6655 1836 42.8486
32.7829 1749 41.821
32.9002 1798 42.4028
33.0176 1801 42.4382
33.1349 1813 42.5793
33.2522 1830 42.7785
33.3694 1678 40.9634
33.4867 1623 40.2865
33.6039 1552 39.3954
33.7211 1418 37.6563
33.8383 1469 38.3275
33.9554 1475 38.4057
34.0725 1534 39.1663
34.1896 1663 40.7799
34.3067 1620 40.2492
34.4237 1630 40.3733
34.5407 1675 40.9268
34.6577 1717 41.4367
34.7746 1752 41.8569
34.8915 1656 40.694
35.0084 1653 40.6571
35.1252 1552 39.3954
35.242 1575 39.6863
35.3587 1571 39.6358
35.4755 1540 39.2428
35.5921 1435 37.8814
35.7088 1431 37.8286
35.8254 1402 37.4433
35.9419 1491 38.6135
36.0584 1490 38.6005
36.1749 1592 39.8999
36.2913 1531 39.128
36.4077 1534 39.1663
36.524 1575 39.6863
36.6403 1518 38.9615
36.7565 1467 38.3014
36.8727 1355 36.8103
36.9889 1313 36.2353
37.1049 1138 33.7343
37.221 0 1
37.3369 0 1
37.4529 0 1
37.5687 0 1
37.6845 0 1
37.8003 0 1
37.916 0 1
38.0316 0 1
38.1472 0 1
40.5851 0 1
40.7008 0 1
40.8164 0 1
40.9322 0 1
41.048 0 1
41.1639 0 1
41.2798 0 1
41.3958 0 1
41.5118 0 1
41.6279 0 1
41.744 829 28.7924
41.8602 877 29.6142
41.9765 972 31.1769
42.0928 1056 32.4962
42.2091 1047 32.3574
42.3255 1011 31.7962
42.4419 988 31.4325
42.5584 979 31.289
42.675 1160 34.0588
42.7915 1158 34.0294
42.9081 1368 36.9865
43.0248 1338 36.5787
43.1415 1358 36.8511
43.2582 1384 37.2022
43.375 1468 38.3145
43.4918 1415 37.6165
43.6087 1452 38.1051
43.7256 1439 37.9342
43.8425 1380 37.1484
43.9595 1319 36.318
44.0765 1341 36.6197
44.1935 1259 35.4824
44.3106 1246 35.2987
44.4277 1177 34.3074
44.5448 1122 33.4963
44.6619 1248 35.327
44.7791 1239 35.1994
44.8963 1355 36.8103
45.0136 1375 37.081
45.1308 1529 39.1024
45.2481 1445 38.0132
45.3654 1477 38.4318
45.4827 1478 38.4448
45.6001 1417 37.6431
45.7174 1343 36.647
45.8348 1309 36.1801
45.9522 1298 36.0278
46.0697 1181 34.3657
46.1871 1117 33.4215
46.3046 1152 33.9411
46.422 1251 35.3695
46.5395 1341 36.6197
46.657 1370 37.0135
46.7745 1402 37.4433
46.892 1492 38.6264
47.0096 1422 37.7094
47.1271 1504 38.7814
47.2446 1424 37.7359
47.3622 1456 38.1576
47.4797 1407 37.51
47.5973 1409 37.5366
47.7149 1341 36.6197
47.8324 1295 35.9861
47.95 1233 35.1141
48.0675 1213 34.8281
48.1851 1169 34.1906
48.3027 1229 35.0571
48.4202 1265 35.5668
48.5378 1433 37.855
48.6554 1442 37.9737
48.7729 1419 37.6696
48.8904 1467 38.3014
49.008 1439 37.9342
49.1255 1449 38.0657
49.243 1427 37.7757
49.3605 1340 36.606
49.478 1215 34.8569
49.5955 1175 34.2783
49.713 1139 33.7491
49.8304 1133 33.6601
49.9479 1208 34.7563
50.0653 1310 36.1939
50.1827 1361 36.8917
50.3001 1440 37.9473
50.4175 1434 37.8682
50.5348 1493 38.6394
50.6521 1508 38.833
50.7694 1546 39.3192
50.8867 1568 39.598
51.004 1501 38.7427
51.1212 1454 38.1314
51.2384 1468 38.3145
51.3556 1477 38.4318
51.4727 1402 37.4433
51.5899 1283 35.819
51.707 1319 36.318
51.824 1464 38.2623
51.9411 1481 38.4838
52.0581 1636 40.4475
52.175 1815 42.6028
52.2919 1812 42.5676
52.4088 1922 43.8406
52.5257 1963 44.3058
52.6425 2043 45.1996
52.7593 2028 45.0333
52.876 1937 44.0114
52.9927 1866 43.1972
53.1094 1727 41.5572
53.226 1753 41.8688
53.3426 1670 40.8656
53.4591 1645 40.5586
53.5756 1662 40.7676
53.692 1681 41
53.8084 1661 40.7554
53.9248 1677 40.9512
54.0411 1593 39.9124
54.1573 1581 39.7618
54.2735 0 1
54.3896 0 1
54.5057 0 1
54.6217 0 1
54.7377 0 1
54.8537 0 1
54.9695 0 1
55.0853 0 1
55.2011 0 1
55.3168 0 1
55.4324 0 1
57.824 0 1
57.9396 0 1
58.0553 0 1
58.1711 0 1
58.2869 0 1
58.4028 0 1
58.5187 0 1
58.6347 0 1
58.7508 0 1
58.8669 0 1
58.983 1106 33.2566
59.0992 1393 37.3229
59.2155 1454 38.1314
59.3318 1544 39.2938
59.4482 1601 40.0125
59.5646 1701 41.2432
59.681 1696 41.1825
59.7975 1688 41.0853
59.9141 1683 41.0244
60.0306 1695 41.1704
60.1473 1623 40.2865
60.2639 1580 39.7492
60.3807 1526 39.064
60.4974 1603 40.0375
60.6142 1592 39.8999
60.731 1715 41.4126
60.8479 1841 42.9069
60.9648 1787 42.2729
61.0818 1829 42.7668
61.1987 1860 43.1277
61.3158 1772 42.0951
61.4328 1784 42.2374
61.5499 1686 41.0609
61.667 1555 39.4335
61.7841 1491 38.6135
61.9013 1452 38.1051
62.0185 1370 37.0135
62.1357 1474 38.3927
62.253 1615 40.1871
62.3702 1652 40.6448
62.4875 1627 40.3361
62.6049 1712 41.3763
62.7222 1691 41.1218
62.8396 1803 42.4617
62.9569 1822 42.6849
63.0743 1878 43.3359
63.1918 1768 42.0476
63.3092 1711 41.3642
63.4267 1685 41.0488
63.5441 1642 40.5216
63.6616 1648 40.5956
63.7791 1525 39.0512
63.8966 1408 37.5233
64.0142 1489 38.5876
64.1317 1560 39.4968
64.2492 1608 40.0999
64.3668 1731 41.6053
64.4843 1895 43.5316
64.6019 1787 42.2729
64.7195 1807 42.5088
64.837 1746 41.7852
64.9546 1810 42.5441
65.0722 1693 41.1461
65.1898 1533 39.1535
65.3074 1472 38.3667
65.4249 1400 37.4166
65.5425 1344 36.6606
65.6601 1365 36.9459
65.7777 1533 39.1535
65.8952 1508 38.833
66.0128 1706 41.3038
66.1304 1645 40.5586
66.2479 1707 41.3159
66.3655 1731 41.6053
66.483 1787 42.2729
66.6005 1751 41.845
66.718 1753 41.8688
66.8355 1759 41.9404
66.953 1708 41.328
67.0705 1632 40.398
67.1879 1619 40.2368
67.3054 1603 40.0375
67.4228 1406 37.4967
67.5402 1381 37.1618
67.6576 1316 36.2767
67.7749 1465 38.2753
67.8923 1595 39.9375
68.0096 1650 40.6202
68.1269 1733 41.6293
68.2442 1758 41.9285
68.3614 1701 41.2432
68.4787 1731 41.6053
68.5958 1685 41.0488
68.713 1629 40.3609
68.8302 1570 39.6232
68.9473 1440 37.9473
69.0643 1346 36.6879
69.1814 1317 36.2905
69.2984 1314 36.2491
69.4154 1374 37.0675
69.5323 1527 39.0768
69.6492 1555 39.4335
69.7661 1640 40.4969
69.8829 1607 40.0874
69.9997 1716 41.4246
70.1165 1537 39.2046
70.2332 1538 39.2173
70.3499 1464 38.2623
70.4665 1395 37.3497
70.5831 1287 35.8748
70.6996 1266 35.5809
70.8161 1170 34.2053
70.9326 1073 32.7567
71.049 964 31.0483
71.1653 808 28.4253
71.2817 692 26.3059
71.3979 644 25.3772
71.5141 600 24.4949
71.6303 619 24.8797
71.7464 525 22.9129
71.8624 0 1
71.9784 0 1
72.0944 0 1
72.2102 0 1
72.3261 0 1
72.4418 0 1
72.5575 0 1
72.6732 0 1
75.1054 0 1
75.2209 0 1
75.3365 0 1
75.4521 0 1
75.5678 0 1
75.6835 0 1
75.7993 0 1
75.9151 0 1
76.031 0 1
76.147 1048 32.3728
76.263 1127 33.5708
76.3791 1092 33.0454
76.4952 1071 32.7261
76.6113 1102 33.1964
76.7276 1187 34.4529
76.8438 1250 35.3553
76.9601 1355 36.8103
77.0765 1465 38.2753
77.1929 1506 38.8072
77.3093 1510 38.8587
77.4258 1504 38.7814
77.5423 1545 39.3065
77.6589 1439 37.9342
77.7755 1404 37.47
77.8921 1203 34.6843
78.0088 1180 34.3511
78.1256 1079 32.8481
78.2423 1127 33.5708
78.3591 1160 34.0588
78.4759 1240 35.2136
78.5928 1398 37.3898
78.7097 1408 37.5233
78.8266 1460 38.2099
78.9436 1494 38.6523
79.0606 1439 37.9342
79.1776 1548 39.3446
79.2946 1472 38.3667
79.4117 1496 38.6782
79.5288 1558 39.4715
79.6459 1552 39.3954
79.7631 1426 37.7624
79.8802 1409 37.5366
79.9974 1409 37.5366
80.1147 1241 35.2278
80.2319 1186 34.4384
80.3491 1218 34.8999
80.4664 1321 36.3456
80.5837 1336 36.5513
80.701 1499 38.7169
80.8183 1557 39.4588
80.9357 1618 40.2244
81.053 1556 39.4462
81.1704 1606 40.0749
81.2877 1563 39.5348
81.4051 1479 38.4578
81.5225 1394 37.3363
81.6399 1308 36.1663
81.7573 1172 34.2345
81.8747 1090 33.0151
81.9922 1113 33.3617
82.1096 1184 34.4093
82.227 1316 36.2767
82.3444 1432 37.8418
82.4619 1503 38.7685
82.5793 1565 39.5601
82.6967 1447 38.0395
82.8142 1510 38.8587
82.9316 1588 39.8497
83.049 1519 38.9744
83.1664 1566 39.5727
83.2838 1543 39.281
83.4012 1526 39.064
83.5186 1537 39.2046
83.636 1507 38.8201
83.7534 1392 37.3095
83.8708 1204 34.6987
83.9881 1219 34.9142
84.1055 1337 36.565
84.2228 1320 36.3318
84.3401 1501 38.7427
84.4575 1592 39.8999
84.5747 1567 39.5854
84.692 1606 40.0749
84.8093 1595 39.9375
84.9265 1560 39.4968
85.0437 1501 38.7427
85.1609 1376 37.0945
85.2781 1245 35.2846
85.3952 1140 33.7639
85.5123 1112 33.3467
85.6294 1116 33.4066
85.7465 1250 35.3553
85.8636 1360 36.8782
85.9806 1437 37.9078
86.0976 1479 38.4578
86.2145 1597 39.9625
86.3315 1529 39.1024
86.4484 1663 40.7799
86.5652 1653 40.6571
86.682 1682 41.0122
86.7988 1592 39.8999
86.9156 1623 40.2865
87.0323 1541 39.2556
87.149 1575 39.6863
87.2657 1399 37.4032
87.3823 1251 35.3695
87.4988 1086 32.9545
87.6154 1089 33
87.7318 1053 32.45
87.8483 1101 33.1813
87.9647 1227 35.0286
88.081 1310 36.1939
88.1973 1258 35.4683
88.3136 1218 34.8999
88.4298 1154 33.9706
88.546 1051 32.4191
88.6621 948 30.7896
88.7781 682 26.1151
88.8942 0 1
89.0101 0 1
89.126 0 1
89.2419 0 1
89.3577 0 1
89.4734 0 1
89.5891 0 1
89.7047 0 1
89.8203 0 1
89.9358 0 1
92.3269 0 1
92.4424 0 1
92.558 0 1
92.6736 0 1
92.7893 0 1
92.905 0 1
93.0208 0 1
93.1366 0 1
93.2525 0 1
93.3685 0 1
93.4845 0 1
93.6005 1226 35.0143
93.7167 1309 36.1801
93.8328 1269 35.623
93.949 1306 36.1386
94.0653 1434 37.8682
94.1816 1359 36.8646
94.2979 1293 35.9583
94.4143 1323 36.3731
94.5307 1222 34.9571
94.6472 1149 33.8969
94.7637 1166 34.1467
94.8803 1278 35.7491
94.9969 1426 37.7624
95.1135 1481 38.4838
95.2302 1500 38.7298
95.3469 1575 39.6863
95.4637 1668 40.8412
95.5805 1681 41
95.6973 1721 41.4849
95.8142 1549 39.3573
95.9311 1627 40.3361
96.048 1618 40.2244
96.1649 1557 39.4588
96.2819 1603 40.0375
96.3989 1555 39.4335
96.516 1426 37.7624
96.633 1322 36.3593
96.7501 1266 35.5809
96.8673 1268 35.609
96.9844 1365 36.9459
97.1016 1339 36.5923
97.2188 1571 39.6358
97.336 1695 41.1704
97.4532 1651 40.6325
97.5704 1616 40.1995
97.6877 1634 40.4228
97.805 1663 40.7799
97.9223 1540 39.2428
98.0396 1429 37.8021
98.1569 1186 34.4384
98.2743 1220 34.9285
98.3916 1193 34.5398
98.509 1226 35.0143
98.6264 1408 37.5233
98.7438 1486 38.5487
98.8612 1582 39.7744
98.9786 1618 40.2244
99.096 1713 41.3884
99.2134 1762 41.9762
99.3308 1716 41.4246
99.4482 1751 41.845
99.5656 1737 41.6773
99.6831 1708 41.328
99.8005 1679 40.9756
99.9179 1674 40.9145
100.035 1591 39.8873
100.153 1626 40.3237
100.27 1482 38.4968
100.388 1401 37.4299
100.505 1465 38.2753
100.622 1478 38.4448
100.74 1600 40
100.857 1771 42.0833
100.975 1701 41.2432
101.092 1679 40.9756
101.209 1782 42.2137
101.327 1801 42.4382
101.444 1677 40.9512
101.561 1643 40.5339
101.679 1434 37.8682
101.796 1328 36.4417
101.913 1253 35.3977
102.03 1254 35.4119
102.148 1383 37.1887
102.265 1473 38.3797
102.382 1683 41.0244
102.499 1735 41.6533
102.616 1765 42.0119
102.733 1818 42.638
102.851 1781 42.2019
102.968 1875 43.3013
103.085 1783 42.2256
103.202 1773 42.107
103.319 1800 42.4264
103.436 1799 42.4146
103.552 1697 41.1947
103.669 1549 39.3573
103.786 1536 39.1918
103.903 1467 38.3014
104.02 1576 39.6989
104.137 1550 39.37
104.253 1566 39.5727
104.37 1798 42.4028
104.487 1839 42.8836
104.603 1914 43.7493
104.72 1847 42.9767
104.836 1760 41.9524
104.953 1656 40.694
105.069 1450 38.0789
105.186 1329 36.4555
105.302 1276 35.7211
105.418 1143 33.8083
105.535 1137 33.7194
105.651 1187 34.4529
105.767 1141 33.7787
105.883 1227 35.0286
105.999 1120 33.4664
106.115 0 1
106.231 0 1
106.347 0 1
106.463 0 1
106.579 0 1
106.694 0 1
106.81 0 1
106.926 0 1
107.041 0 1
107.157 0 1
109.576 0 1
109.692 0 1
109.807 0 1
109.923 0 1
110.039 0 1
110.155 0 1
110.27 0 1
110.386 0 1
110.502 0 1
110.618 766 27.6767
110.735 953 30.8707
110.851 1136 33.7046
110.967 1274 35.6931
111.083 1334 36.524
111.199 1450 38.0789
111.316 1571 39.6358
111.432 1623 40.2865
111.549 1758 41.9285
111.665 1710 41.3521
111.782 1675 40.9268
111.898 1690 41.1096
112.015 1675 40.9268
112.132 1640 40.4969
112.248 1501 38.7427
112.365 1401 37.4299
112.482 1388 37.2559
112.599 1470 38.3406
112.716 1600 40
112.832 1724 41.5211
112.949 1712 41.3763
113.066 1722 41.497
113.183 1710 41.3521
113.3 1715 41.4126
113.417 1756 41.9047
113.534 1581 39.7618
113.652 1524 39.0384
113.769 1392 37.3095
113.886 1265 35.5668
114.003 1201 34.6554
114.12 1294 35.9722
114.238 1442 37.9737
114.355 1500 38.7298
114.472 1532 39.1408
114.589 1742 41.7373
114.707 1645 40.5586
114.824 1795 42.3674
114.942 1742 41.7373
115.059 1708 41.328
115.176 1728 41.5692
115.294 1686 41.0609
115.411 1681 41
115.529 1670 40.8656
115.646 1605 40.0625
115.764 1556 39.4462
115.881 1423 37.7227
115.999 1373 37.054
116.116 1439 37.9342
116.234 1565 39.5601
116.351 1623 40.2865
116.469 1732 41.6173
116.586 1759 41.9404
116.704 1746 41.7852
116.821 1725 41.5331
116.939 1780 42.19
117.056 1698 41.2068
117.174 1606 40.0749
117.291 1471 38.3536
117.409 1324 36.3868
117.526 1306 36.1386
117.644 1251 35.3695
117.761 1438 37.921
117.879 1447 38.0395
117.996 1515 38.923
118.114 1616 40.1995
118.231 1579 39.7366
118.349 1658 40.7185
118.466 1709 41.3401
118.584 1693 41.1461
118.701 1678 40.9634
118.819 1744 41.7612
118.936 1709 41.3401
119.053 1638 40.4722
119.171 1611 40.1373
119.288 1573 39.6611
119.405 1504 38.7814
119.523 1490 38.6005
119.64 1347 36.7015
119.757 1385 37.2156
119.875 1478 38.4448
119.992 1599 39.9875
120.109 1552 39.3954
120.226 1629 40.3609
120.343 1687 41.0731
120.46 1612 40.1497
120.578 1661 40.7554
120.695 1566 39.5727
120.812 1483 38.5097
120.929 1372 37.0405
121.046 1356 36.8239
121.163 1119 33.4515
121.279 1198 34.6121
121.396 1161 34.0735
121.513 1216 34.8712
121.63 1318 36.3043
121.747 1299 36.0416
121.863 1390 37.2827
121.98 1291 35.9305
122.097 1390 37.2827
122.213 1281 35.7911
122.33 1290 35.9166
122.446 1221 34.9428
122.563 1202 34.6699
122.679 1073 32.7567
122.795 1055 32.4808
122.912 971 31.1609
123.028 802 28.3196
123.144 768 27.7128
123.26 703 26.5141
123.377 0 1
123.493 0 1
123.609 0 1
123.725 0 1
123.84 0 1
123.956 0 1
124.072 0 1
124.188 0 1
124.303 0 1
124.419 0 1
126.852 0 1
126.968 0 1
127.083 0 1
127.199 0 1
127.315 0 1
127.431 0 1
127.547 0 1
127.663 0 1
127.779 0 1
127.895 0 1
128.011 0 1
128.127 0 1
128.243 0 1
128.359 1523 39.0256
128.476 1525 39.0512
128.592 1459 38.1969
128.708 1518 38.9615
128.825 1579 39.7366
128.941 1576 39.6989
129.058 1718 41.4488
129.174 1690 41.1096
129.291 1723 41.509
129.408 1666 40.8167
129.524 1733 41.6293
129.641 1755 41.8927
129.758 1774 42.1189
129.875 1587 39.8372
129.992 1518 38.9615
130.108 1399 37.4032
130.225 1288 35.8887
130.342 1351 36.756
130.459 1416 37.6298
130.576 1475 38.4057
130.693 1591 39.8873
130.81 1619 40.2368
130.928 1617 40.2119
131.045 1627 40.3361
131.162 1737 41.6773
131.279 1681 41
131.396 1747 41.7971
131.513 1771 42.0833
131.631 1662 40.7676
131.748 1650 40.6202
131.865 1700 41.2311
131.983 1642 40.5216
132.1 1581 39.7618
132.217 1503 38.7685
132.335 1546 39.3192
132.452 1571 39.6358
132.57 1603 40.0375
132.687 1805 42.4853
132.804 1739 41.7013
132.922 1767 42.0357
133.039 1822 42.6849
133.157 1773 42.107
133.274 1783 42.2256
133.392 1701 41.2432
133.509 1623 40.2865
133.627 1537 39.2046
133.744 1382 37.1753
133.862 1253 35.3977
133.979 1349 36.7287
134.097 1455 38.1445
134.214 1533 39.1535
134.332 1513 38.8973
134.449 1695 41.1704
134.567 1659 40.7308
134.684 1722 41.497
134.802 1760 41.9524
134.919 1830 42.7785
135.037 1757 41.9166
135.154 1761 41.9643
135.272 1727 41.5572
135.389 1681 41
135.507 1578 39.724
135.624 1635 40.4351
135.742 1588 39.8497
135.859 1533 39.1535
135.977 1579 39.7366
136.094 1672 40.8901
136.211 1599 39.9875
136.329 1742 41.7373
136.446 1884 43.4051
136.564 1808 42.5206
136.681 1746 41.7852
136.798 1781 42.2019
136.915 1796 42.3792
137.033 1742 41.7373
137.15 1562 39.5221
137.267 1475 38.4057
137.384 1372 37.0405
137.502 1323 36.3731
137.619 1355 36.8103
137.736 1482 38.4968
137.853 1524 39.0384
137.97 1519 38.9744
138.087 1632 40.398
138.204 1602 40.025
138.321 1787 42.2729
138.438 1793 42.3438
138.555 1769 42.0595
138.672 1730 41.5933
138.788 1779 42.1782
138.905 1653 40.6571
139.022 1493 38.6394
139.139 1464 38.2623
139.255 1376 37.0945
139.372 1207 34.7419
139.488 1157 34.0147
139.605 1067 32.665
139.721 1103 33.2114
139.838 1133 33.6601
139.954 1199 34.6266
140.071 1122 33.4963
140.187 1039 32.2335
140.303 948 30.7896
140.419 924 30.3974
140.535 878 29.6311
140.652 818 28.6007
140.768 0 1
140.884 0 1
141 0 1
141.115 0 1
141.231 0 1
141.347 0 1
141.463 0 1
141.578 0 1
141.694 0 1
144.104 0 1
144.219 0 1
144.335 0 1
144.45 0 1
144.566 0 1
144.682 0 1
144.798 0 1
144.914 0 1
145.03 0 1
145.146 1238 35.1852
145.262 1327 36.428
145.378 1406 37.4967
145.494 1429 37.8021
145.61 1374 37.0675
145.726 1385 37.2156
145.842 1356 36.8239
145.959 1218 34.8999
146.075 1186 34.4384
146.192 1102 33.1964
146.308 1063 32.6037
146.425 1033 32.1403
146.541 1154 33.9706
146.658 1233 35.1141
146.774 1259 35.4824
146.891 1323 36.3731
147.008 1372 37.0405
147.125 1327 36.428
147.241 1366 36.9594
147.358 1431 37.8286
147.475 1380 37.1484
147.592 1289 35.9026
147.709 1312 36.2215
147.826 1306 36.1386
147.943 1247 35.3129
148.06 1244 35.2704
148.177 1209 34.7707
148.294 1213 34.8281
148.411 1202 34.6699
148.528 1230 35.0714
148.645 1317 36.2905
148.762 1433 37.855
148.88 1382 37.1753
148.997 1439 37.9342
149.114 1365 36.9459
149.231 1400 37.4166
149.349 1423 37.7227
149.466 1317 36.2905
149.583 1303 36.0971
149.701 1221 34.9428
149.818 1107 33.2716
149.935 1058 32.5269
150.053 1122 33.4963
150.17 1187 34.4529
150.287 1193 34.5398
150.405 1200 34.641
150.522 1266 35.5809
150.64 1296 36
150.757 1263 35.5387
150.875 1373 37.054
150.992 1370 37.0135
151.11 1362 36.9053
151.227 1353 36.7831
151.344 1237 35.171
151.462 1239 35.1994
151.579 1227 35.0286
151.697 1186 34.4384
151.814 1157 34.0147
151.932 1129 33.6006
152.049 1150 33.9116
152.167 1182 34.3802
152.284 1239 35.1994
152.402 1383 37.1887
152.519 1311 36.2077
152.636 1302 36.0832
152.754 1323 36.3731
152.871 1308 36.1663
152.989 1254 35.4119
153.106 1320 36.3318
153.223 1136 33.7046
153.341 1154 33.9706
153.458 1045 32.3265
153.575 1021 31.9531
153.693 1063 32.6037
153.81 1103 33.2114
153.927 1148 33.8821
154.044 1178 34.322
154.162 1134 33.6749
154.279 1214 34.8425
154.396 1210 34.7851
154.513 1193 34.5398
154.63 1235 35.1426
154.747 1209 34.7707
154.864 1227 35.0286
154.981 1193 34.5398
155.098 1220 34.9285
155.215 1127 33.5708
155.332 1099 33.1512
155.449 1072 32.7414
155.566 1049 32.3883
155.683 1114 33.3766
155.8 1158 34.0294
155.917 1159 34.0441
156.033 1137 33.7194
156.15 0 1
156.267 0 1
156.383 0 1
156.5 0 1
156.617 0 1
156.733 0 1
156.85 0 1
156.966 0 1
157.082 0 1
157.199 0 1
157.315 0 1
157.431 0 1
157.547 0 1
157.664 0 1
157.78 0 1
157.896 0 1
158.012 0 1
158.128 0 1
158.244 0 1
158.359 0 1
158.475 0 1
158.591 0 1
158.706 0 1
