
6.15755 0 1
6.2731 0 1
6.3887 0 1
6.50437 0 1
6.62009 0 1
6.73587 0 1
6.8517 0 1
6.96759 0 1
7.08353 0 1
7.19952 0 1
7.31557 0 1
7.43166 0 1
7.54781 0 1
7.664 0 1
7.78024 0 1
7.89653 0 1
8.01286 0 1
8.12924 0 1
8.24567 0 1
8.36213 0 1
8.47864 0 1
8.59519 0 1
8.71178 0 1
8.82841 0 1
8.94508 0 1
9.06179 0 1
9.17853 0 1
9.29531 0 1
9.41212 0 1
9.52897 0 1
9.64584 0 1
9.76276 0 1
9.8797 0 1
9.99667 0 1
10.1137 0 1
10.2307 0 1
10.3478 0 1
10.4648 0 1
10.5819 0 1
10.6991 0 1
10.8162 0 1
10.9334 0 1
11.0506 0 1
11.1678 0 1
11.285 0 1
11.4023 0 1
11.5196 0 1
11.6369 0 1
11.7542 0 1
11.8715 0 1
11.9888 0 1
12.1062 0 1
12.2235 0 1
12.3409 0 1
12.4582 0 1
12.5756 0 1
12.693 0 1
12.8104 0 1
12.9278 0 1
13.0452 0 1
13.1626 0 1
13.28 0 1
13.3974 0 1
13.5149 0 1
13.6323 0 1
13.7497 0 1
13.8671 0 1
13.9845 0 1
14.1019 0 1
14.2193 0 1
14.3367 0 1
14.4541 0 1
14.5714 0 1
14.6888 0 1
14.8062 0 1
14.9235 0 1
15.0408 1112 33.3467
15.1581 1174 34.2637
15.2755 1218 34.8999
15.3927 1239 35.1994
15.51 1216 34.8712
15.6273 1285 35.8469
15.7445 1180 34.3511
15.8617 1205 34.7131
15.9789 1137 33.7194
16.0961 1236 35.1568
16.2132 1164 34.1174
16.3304 1232 35.0999
16.4475 1269 35.623
16.5646 1273 35.6791
16.6816 1335 36.5377
16.7986 1441 37.9605
16.9156 1415 37.6165
17.0326 1482 38.4968
17.1496 1471 38.3536
17.2665 1482 38.4968
17.3833 1408 37.5233
17.5002 1418 37.6563
17.617 1317 36.2905
17.7338 1256 35.4401
17.8505 1191 34.5109
17.9672 1197 34.5977
18.0839 1249 35.3412
18.2005 1343 36.647
18.3171 1387 37.2424
18.4337 1368 36.9865
18.5502 1359 36.8646
18.6666 1393 37.3229
18.7831 1431 37.8286
18.8994 1404 37.47
19.0158 1439 37.9342
19.1321 1314 36.2491
19.2483 1288 35.8887
19.3645 1278 35.7491
19.4806 1153 33.9559
19.5967 1038 32.218
19.7128 1007 31.7333
19.8288 917 30.282
19.9447 843 29.0345
20.0606 0 1
20.1764 0 1
20.2922 0 1
20.4079 0 1
20.5236 0 1
20.6392 0 1
20.7548 0 1
20.8702 0 1
23.3078 0 1
23.4233 0 1
23.539 0 1
23.6547 0 1
23.7704 0 1
23.8862 0 1
24.0021 0 1
24.118 0 1
24.234 0 1
24.35 0 1
24.4661 609 24.6779
24.5822 687 26.2107
24.6984 757 27.5136
24.8146 877 29.6142
24.9309 945 30.7409
25.0472 982 31.3369
25.1636 1107 33.2716
25.28 1240 35.2136
25.3965 1259 35.4824
25.513 1409 37.5366
25.6296 1405 37.4833
25.7462 1506 38.8072
25.8628 1532 39.1408
25.9795 1556 39.4462
26.0962 1526 39.064
26.213 1421 37.6962
26.3298 1417 37.6431
26.4466 1358 36.8511
26.5635 1313 36.2353
26.6804 1277 35.7351
26.7973 1364 36.9324
26.9143 1370 37.0135
27.0313 1368 36.9865
27.1483 1446 38.0263
27.2653 1480 38.4708
27.3824 1464 38.2623
27.4996 1424 37.7359
27.6167 1454 38.1314
27.7339 1369 37
27.8511 1404 37.47
27.9683 1381 37.1618
28.0855 1345 36.6742
28.2028 1308 36.1663
28.3201 1230 35.0714
28.4374 1232 35.0999
28.5547 1125 33.541
28.6721 1295 35.9861
28.7894 1300 36.0555
28.9068 1435 37.8814
29.0242 1400 37.4166
29.1416 1572 39.6485
29.259 1469 38.3275
29.3764 1487 38.5616
29.4939 1493 38.6394
29.6113 1447 38.0395
29.7288 1335 36.5377
29.8463 1373 37.054
29.9638 1255 35.426
30.0812 1175 34.2783
30.1987 1274 35.6931
30.3162 1266 35.5809
30.4337 1288 35.8887
30.5512 1400 37.4166
30.6687 1357 36.8375
30.7862 1418 37.6563
30.9037 1425 37.7492
31.0212 1408 37.5233
31.1387 1394 37.3363
31.2562 1309 36.1801
31.3737 1296 36
31.4912 1339 36.5923
31.6087 1252 35.3836
31.7262 1192 34.5254
31.8436 1238 35.1852
31.9611 1177 34.3074
32.0785 1183 34.3948
32.1959 1233 35.1141
32.3134 1310 36.1939
32.4308 1267 35.5949
32.5482 1419 37.6696
32.6655 1372 37.0405
32.7829 1420 37.6829
32.9002 1464 38.2623
33.0176 1349 36.7287
33.1349 1430 37.8153
33.2522 1376 37.0945
33.3694 1294 35.9722
33.4867 1304 36.1109
33.6039 1182 34.3802
33.7211 1090 33.0151
33.8383 1164 34.1174
33.9554 1124 33.5261
34.0725 1227 35.0286
34.1896 1207 34.7419
34.3067 1287 35.8748
34.4237 1337 36.565
34.5407 1348 36.7151
34.6577 1338 36.5787
34.7746 1401 37.4299
34.8915 1379 37.1349
35.0084 1420 37.6829
35.1252 1296 36
35.242 1230 35.0714
35.3587 1289 35.9026
35.4755 1261 35.5106
35.5921 1124 33.5261
35.7088 1122 33.4963
35.8254 1094 33.0757
35.9419 1116 33.4066
36.0584 1215 34.8569
36.1749 1210 34.7851
36.2913 1187 34.4529
36.4077 1249 35.3412
36.524 1272 35.6651
36.6403 1164 34.1174
36.7565 1104 33.2265
36.8727 1133 33.6601
36.9889 1013 31.8277
37.1049 949 30.8058
37.221 0 1
37.3369 0 1
37.4529 0 1
37.5687 0 1
37.6845 0 1
37.8003 0 1
37.916 0 1
38.0316 0 1
38.1472 0 1
40.5851 0 1
40.7008 0 1
40.8164 0 1
40.9322 0 1
41.048 0 1
41.1639 0 1
41.2798 0 1
41.3958 0 1
41.5118 0 1
41.6279 0 1
41.744 617 24.8395
41.8602 712 26.6833
41.9765 810 28.4605
42.0928 807 28.4077
42.2091 839 28.9655
42.3255 805 28.3725
42.4419 794 28.178
42.5584 774 27.8209
42.675 838 28.9482
42.7915 920 30.3315
42.9081 942 30.692
43.0248 1020 31.9374
43.1415 1095 33.0908
43.2582 1114 33.3766
43.375 1113 33.3617
43.4918 1150 33.9116
43.6087 1116 33.4066
43.7256 1095 33.0908
43.8425 1076 32.8024
43.9595 1024 32
44.0765 1039 32.2335
44.1935 1035 32.1714
44.3106 964 31.0483
44.4277 1016 31.8748
44.5448 895 29.9166
44.6619 885 29.7489
44.7791 936 30.5941
44.8963 1075 32.7872
45.0136 1102 33.1964
45.1308 1100 33.1662
45.2481 1197 34.5977
45.3654 1115 33.3916
45.4827 1169 34.1906
45.6001 1157 34.0147
45.7174 1057 32.5115
45.8348 1000 31.6228
45.9522 933 30.545
46.0697 936 30.5941
46.1871 879 29.6479
46.3046 955 30.9031
46.422 1005 31.7017
46.5395 1068 32.6803
46.657 1011 31.7962
46.7745 1047 32.3574
46.892 1092 33.0454
47.0096 1130 33.6155
47.1271 1130 33.6155
47.2446 1078 32.8329
47.3622 1158 34.0294
47.4797 1083 32.909
47.5973 1029 32.078
47.7149 1029 32.078
47.8324 1020 31.9374
47.95 970 31.1448
48.0675 978 31.273
48.1851 921 30.348
48.3027 926 30.4302
48.4202 977 31.257
48.5378 1108 33.2866
48.6554 1101 33.1813
48.7729 1190 34.4964
48.8904 1148 33.8821
49.008 1219 34.9142
49.1255 1151 33.9264
49.243 1096 33.1059
49.3605 1031 32.1092
49.478 977 31.257
49.5955 952 30.8545
49.713 903 30.05
49.8304 835 28.8964
49.9479 1000 31.6228
50.0653 951 30.8383
50.1827 1062 32.5883
50.3001 1089 33
50.4175 1089 33
50.5348 1150 33.9116
50.6521 1133 33.6601
50.7694 1130 33.6155
50.8867 1226 35.0143
51.004 1082 32.8938
51.1212 1169 34.1906
51.2384 1180 34.3511
51.3556 1150 33.9116
51.4727 1035 32.1714
51.5899 1041 32.2645
51.707 1012 31.8119
51.824 1114 33.3766
51.9411 1195 34.5688
52.0581 1333 36.5103
52.175 1431 37.8286
52.2919 1493 38.6394
52.4088 1509 38.8458
52.5257 1579 39.7366
52.6425 1614 40.1746
52.7593 1618 40.2244
52.876 1560 39.4968
52.9927 1558 39.4715
53.1094 1452 38.1051
53.226 1389 37.2693
53.3426 1343 36.647
53.4591 1412 37.5766
53.5756 1342 36.6333
53.692 1425 37.7492
53.8084 1390 37.2827
53.9248 1346 36.6879
54.0411 1387 37.2424
54.1573 1261 35.5106
54.2735 0 1
54.3896 0 1
54.5057 0 1
54.6217 0 1
54.7377 0 1
54.8537 0 1
54.9695 0 1
55.0853 0 1
55.2011 0 1
55.3168 0 1
55.4324 0 1
57.824 0 1
57.9396 0 1
58.0553 0 1
58.1711 0 1
58.2869 0 1
58.4028 0 1
58.5187 0 1
58.6347 0 1
58.7508 0 1
58.8669 0 1
58.983 881 29.6816
59.0992 978 31.273
59.2155 1127 33.5708
59.3318 1216 34.8712
59.4482 1302 36.0832
59.5646 1251 35.3695
59.681 1301 36.0694
59.7975 1303 36.0971
59.9141 1324 36.3868
60.0306 1258 35.4683
60.1473 1269 35.623
60.2639 1181 34.3657
60.3807 1184 34.4093
60.4974 1260 35.4965
60.6142 1251 35.3695
60.731 1302 36.0832
60.8479 1468 38.3145
60.9648 1471 38.3536
61.0818 1448 38.0526
61.1987 1376 37.0945
61.3158 1372 37.0405
61.4328 1448 38.0526
61.5499 1296 36
61.667 1233 35.1141
61.7841 1171 34.2199
61.9013 1113 33.3617
62.0185 1136 33.7046
62.1357 1158 34.0294
62.253 1221 34.9428
62.3702 1370 37.0135
62.4875 1318 36.3043
62.6049 1389 37.2693
62.7222 1378 37.1214
62.8396 1403 37.4566
62.9569 1449 38.0657
63.0743 1457 38.1707
63.1918 1412 37.5766
63.3092 1438 37.921
63.4267 1327 36.428
63.5441 1308 36.1663
63.6616 1176 34.2929
63.7791 1194 34.5543
63.8966 1170 34.2053
64.0142 1172 34.2345
64.1317 1181 34.3657
64.2492 1277 35.7351
64.3668 1329 36.4555
64.4843 1404 37.47
64.6019 1373 37.054
64.7195 1444 38
64.837 1516 38.9358
64.9546 1359 36.8646
65.0722 1306 36.1386
65.1898 1279 35.7631
65.3074 1155 33.9853
65.4249 1066 32.6497
65.5425 1078 32.8329
65.6601 1071 32.7261
65.7777 1162 34.0881
65.8952 1212 34.8138
66.0128 1329 36.4555
66.1304 1328 36.4417
66.2479 1347 36.7015
66.3655 1338 36.5787
66.483 1483 38.5097
66.6005 1349 36.7287
66.718 1377 37.108
66.8355 1366 36.9594
66.953 1361 36.8917
67.0705 1320 36.3318
67.1879 1317 36.2905
67.3054 1191 34.5109
67.4228 1140 33.7639
67.5402 1137 33.7194
67.6576 1103 33.2114
67.7749 1206 34.7275
67.8923 1247 35.3129
68.0096 1225 35
68.1269 1336 36.5513
68.2442 1423 37.7227
68.3614 1413 37.5899
68.4787 1342 36.6333
68.5958 1429 37.8021
68.713 1322 36.3593
68.8302 1226 35.0143
68.9473 1098 33.1361
69.0643 1056 32.4962
69.1814 996 31.5595
69.2984 1012 31.8119
69.4154 1068 32.6803
69.5323 1200 34.641
69.6492 1191 34.5109
69.7661 1234 35.1283
69.8829 1321 36.3456
69.9997 1331 36.4829
70.1165 1262 35.5246
70.2332 1172 34.2345
70.3499 1237 35.171
70.4665 1130 33.6155
70.5831 1080 32.8634
70.6996 966 31.0805
70.8161 925 30.4138
70.9326 882 29.6985
71.049 766 27.6767
71.1653 636 25.219
71.2817 543 23.3024
71.3979 502 22.4054
71.5141 469 21.6564
71.6303 481 21.9317
71.7464 451 21.2368
71.8624 0 1
71.9784 0 1
72.0944 0 1
72.2102 0 1
72.3261 0 1
72.4418 0 1
72.5575 0 1
72.6732 0 1
75.1054 0 1
75.2209 0 1
75.3365 0 1
75.4521 0 1
75.5678 0 1
75.6835 0 1
75.7993 0 1
75.9151 0 1
76.031 0 1
76.147 833 28.8617
76.263 860 29.3258
76.3791 857 29.2746
76.4952 883 29.7153
76.6113 863 29.3769
76.7276 931 30.5123
76.8438 927 30.4467
76.9601 1104 33.2265
77.0765 1150 33.9116
77.1929 1180 34.3511
77.3093 1155 33.9853
77.4258 1234 35.1283
77.5423 1146 33.8526
77.6589 1114 33.3766
77.7755 1088 32.9848
77.8921 1029 32.078
78.0088 900 30
78.1256 875 29.5804
78.2423 779 27.9106
78.3591 875 29.5804
78.4759 1006 31.7175
78.5928 1014 31.8434
78.7097 1133 33.6601
78.8266 1053 32.45
78.9436 1145 33.8378
79.0606 1135 33.6898
79.1776 1150 33.9116
79.2946 1173 34.2491
79.4117 1173 34.2491
79.5288 1176 34.2929
79.6459 1155 33.9853
79.7631 1132 33.6452
79.8802 1163 34.1028
79.9974 998 31.5911
80.1147 985 31.3847
80.2319 937 30.6105
80.3491 935 30.5778
80.4664 991 31.4802
80.5837 1060 32.5576
80.701 1157 34.0147
80.8183 1197 34.5977
80.9357 1199 34.6266
81.053 1240 35.2136
81.1704 1225 35
81.2877 1255 35.426
81.4051 1236 35.1568
81.5225 1132 33.6452
81.6399 1007 31.7333
81.7573 923 30.3809
81.8747 851 29.1719
81.9922 893 29.8831
82.1096 928 30.4631
82.227 1062 32.5883
82.3444 1048 32.3728
82.4619 1122 33.4963
82.5793 1255 35.426
82.6967 1183 34.3948
82.8142 1195 34.5688
82.9316 1302 36.0832
83.049 1209 34.7707
83.1664 1251 35.3695
83.2838 1231 35.0856
83.4012 1197 34.5977
83.5186 1166 34.1467
83.636 1093 33.0606
83.7534 1024 32
83.8708 1000 31.6228
83.9881 980 31.305
84.1055 1030 32.0936
84.2228 1125 33.541
84.3401 1134 33.6749
84.4575 1236 35.1568
84.5747 1280 35.7771
84.692 1275 35.7071
84.8093 1260 35.4965
84.9265 1249 35.3412
85.0437 1161 34.0735
85.1609 1090 33.0151
85.2781 998 31.5911
85.3952 872 29.5296
85.5123 820 28.6356
85.6294 893 29.8831
85.7465 970 31.1448
85.8636 1055 32.4808
85.9806 1125 33.541
86.0976 1191 34.5109
86.2145 1215 34.8569
86.3315 1245 35.2846
86.4484 1253 35.3977
86.5652 1259 35.4824
86.682 1250 35.3553
86.7988 1303 36.0971
86.9156 1236 35.1568
87.0323 1190 34.4964
87.149 1221 34.9428
87.2657 1112 33.3467
87.3823 995 31.5436
87.4988 853 29.2062
87.6154 784 28
87.7318 893 29.8831
87.8483 878 29.6311
87.9647 967 31.0966
88.081 985 31.3847
88.1973 943 30.7083
88.3136 942 30.692
88.4298 886 29.7658
88.546 796 28.2135
88.6621 763 27.6225
88.7781 590 24.2899
88.8942 0 1
89.0101 0 1
89.126 0 1
89.2419 0 1
89.3577 0 1
89.4734 0 1
89.5891 0 1
89.7047 0 1
89.8203 0 1
89.9358 0 1
92.3269 0 1
92.4424 0 1
92.558 0 1
92.6736 0 1
92.7893 0 1
92.905 0 1
93.0208 0 1
93.1366 0 1
93.2525 0 1
93.3685 0 1
93.4845 0 1
93.6005 947 30.7734
93.7167 1007 31.7333
93.8328 993 31.5119
93.949 1037 32.2025
94.0653 1086 32.9545
94.1816 1101 33.1813
94.2979 1107 33.2716
94.4143 1006 31.7175
94.5307 975 31.225
94.6472 881 29.6816
94.7637 894 29.8998
94.8803 999 31.607
94.9969 1020 31.9374
95.1135 1145 33.8378
95.2302 1205 34.7131
95.3469 1229 35.0571
95.4637 1234 35.1283
95.5805 1271 35.6511
95.6973 1247 35.3129
95.8142 1224 34.9857
95.9311 1268 35.609
96.048 1301 36.0694
96.1649 1238 35.1852
96.2819 1177 34.3074
96.3989 1145 33.8378
96.516 1095 33.0908
96.633 1072 32.7414
96.7501 970 31.1448
96.8673 977 31.257
96.9844 1054 32.4654
97.1016 1110 33.3167
97.2188 1180 34.3511
97.336 1302 36.0832
97.4532 1306 36.1386
97.5704 1365 36.9459
97.6877 1362 36.9053
97.805 1239 35.1994
97.9223 1199 34.6266
98.0396 1085 32.9393
98.1569 1020 31.9374
98.2743 922 30.3645
98.3916 933 30.545
98.509 966 31.0805
98.6264 1059 32.5423
98.7438 1189 34.4819
98.8612 1156 34
98.9786 1279 35.7631
99.096 1322 36.3593
99.2134 1291 35.9305
99.3308 1348 36.7151
99.4482 1319 36.318
99.5656 1349 36.7287
99.6831 1299 36.0416
99.8005 1367 36.973
99.9179 1272 35.6651
100.035 1218 34.8999
100.153 1159 34.0441
100.27 1120 33.4664
100.388 1033 32.1403
100.505 1096 33.1059
100.622 1175 34.2783
100.74 1251 35.3695
100.857 1325 36.4005
100.975 1324 36.3868
101.092 1350 36.7423
101.209 1328 36.4417
101.327 1366 36.9594
101.444 1391 37.2961
101.561 1197 34.5977
101.679 1128 33.5857
101.796 1033 32.1403
101.913 1028 32.0624
102.03 991 31.4802
102.148 1089 33
102.265 1192 34.5254
102.382 1250 35.3553
102.499 1385 37.2156
102.616 1372 37.0405
102.733 1341 36.6197
102.851 1459 38.1969
102.968 1436 37.8946
103.085 1423 37.7227
103.202 1417 37.6431
103.319 1394 37.3363
103.436 1471 38.3536
103.552 1315 36.2629
103.669 1204 34.6987
103.786 1158 34.0294
103.903 1097 33.121
104.02 1162 34.0881
104.137 1236 35.1568
104.253 1248 35.327
104.37 1370 37.0135
104.487 1516 38.9358
104.603 1419 37.6696
104.72 1465 38.2753
104.836 1370 37.0135
104.953 1391 37.2961
105.069 1151 33.9264
105.186 1056 32.4962
105.302 1019 31.9218
105.418 900 30
105.535 914 30.2324
105.651 938 30.6268
105.767 941 30.6757
105.883 901 30.0167
105.999 838 28.9482
106.115 0 1
106.231 0 1
106.347 0 1
106.463 0 1
106.579 0 1
106.694 0 1
106.81 0 1
106.926 0 1
107.041 0 1
107.157 0 1
109.576 0 1
109.692 0 1
109.807 0 1
109.923 0 1
110.039 0 1
110.155 0 1
110.27 0 1
110.386 0 1
110.502 0 1
110.618 549 23.4307
110.735 786 28.0357
110.851 856 29.2575
110.967 1013 31.8277
111.083 1072 32.7414
111.199 1158 34.0294
111.316 1210 34.7851
111.432 1278 35.7491
111.549 1309 36.1801
111.665 1244 35.2704
111.782 1327 36.428
111.898 1299 36.0416
112.015 1294 35.9722
112.132 1193 34.5398
112.248 1128 33.5857
112.365 1096 33.1059
112.482 1110 33.3167
112.599 1144 33.8231
112.716 1163 34.1028
112.832 1363 36.9188
112.949 1340 36.606
113.066 1401 37.4299
113.183 1380 37.1484
113.3 1323 36.3731
113.417 1313 36.2353
113.534 1197 34.5977
113.652 1222 34.9571
113.769 1062 32.5883
113.886 984 31.3688
114.003 936 30.5941
114.12 1015 31.8591
114.238 1147 33.8674
114.355 1172 34.2345
114.472 1197 34.5977
114.589 1373 37.054
114.707 1314 36.2491
114.824 1372 37.0405
114.942 1416 37.6298
115.059 1455 38.1445
115.176 1429 37.8021
115.294 1348 36.7151
115.411 1339 36.5923
115.529 1294 35.9722
115.646 1279 35.7631
115.764 1235 35.1426
115.881 1182 34.3802
115.999 1072 32.7414
116.116 1149 33.8969
116.234 1212 34.8138
116.351 1359 36.8646
116.469 1306 36.1386
116.586 1381 37.1618
116.704 1378 37.1214
116.821 1443 37.9868
116.939 1404 37.47
117.056 1336 36.5513
117.174 1222 34.9571
117.291 1202 34.6699
117.409 1082 32.8938
117.526 956 30.9192
117.644 922 30.3645
117.761 1076 32.8024
117.879 1140 33.7639
117.996 1170 34.2053
118.114 1268 35.609
118.231 1302 36.0832
118.349 1315 36.2629
118.466 1326 36.4143
118.584 1341 36.6197
118.701 1310 36.1939
118.819 1395 37.3497
118.936 1300 36.0555
119.053 1196 34.5832
119.171 1230 35.0714
119.288 1193 34.5398
119.405 1112 33.3467
119.523 1133 33.6601
119.64 1065 32.6343
119.757 1066 32.6497
119.875 1147 33.8674
119.992 1160 34.0588
120.109 1231 35.0856
120.226 1301 36.0694
120.343 1361 36.8917
120.46 1308 36.1663
120.578 1265 35.5668
120.695 1231 35.0856
120.812 1166 34.1467
120.929 1069 32.6956
121.046 1069 32.6956
121.163 942 30.692
121.279 916 30.2655
121.396 925 30.4138
121.513 992 31.496
121.63 1020 31.9374
121.747 989 31.4484
121.863 962 31.0161
121.98 1076 32.8024
122.097 1054 32.4654
122.213 1026 32.0312
122.33 1021 31.9531
122.446 935 30.5778
122.563 931 30.5123
122.679 891 29.8496
122.795 825 28.7228
122.912 788 28.0713
123.028 667 25.8263
123.144 546 23.3666
123.26 468 21.6333
123.377 0 1
123.493 0 1
123.609 0 1
123.725 0 1
123.84 0 1
123.956 0 1
124.072 0 1
124.188 0 1
124.303 0 1
124.419 0 1
126.852 0 1
126.968 0 1
127.083 0 1
127.199 0 1
127.315 0 1
127.431 0 1
127.547 0 1
127.663 0 1
127.779 0 1
127.895 0 1
128.011 0 1
128.127 0 1
128.243 0 1
128.359 1157 34.0147
128.476 1218 34.8999
128.592 1189 34.4819
128.708 1132 33.6452
128.825 1097 33.121
128.941 1257 35.4542
129.058 1279 35.7631
129.174 1325 36.4005
129.291 1390 37.2827
129.408 1369 37
129.524 1294 35.9722
129.641 1379 37.1349
129.758 1299 36.0416
129.875 1306 36.1386
129.992 1116 33.4066
130.108 1127 33.5708
130.225 982 31.3369
130.342 990 31.4643
130.459 1088 32.9848
130.576 1136 33.7046
130.693 1200 34.641
130.81 1278 35.7491
130.928 1242 35.242
131.045 1311 36.2077
131.162 1368 36.9865
131.279 1332 36.4966
131.396 1325 36.4005
131.513 1379 37.1349
131.631 1293 35.9583
131.748 1330 36.4692
131.865 1272 35.6651
131.983 1303 36.0971
132.1 1165 34.1321
132.217 1173 34.2491
132.335 1137 33.7194
132.452 1182 34.3802
132.57 1256 35.4401
132.687 1350 36.7423
132.804 1320 36.3318
132.922 1357 36.8375
133.039 1422 37.7094
133.157 1431 37.8286
133.274 1427 37.7757
133.392 1362 36.9053
133.509 1295 35.9861
133.627 1171 34.2199
133.744 1091 33.0303
133.862 1045 32.3265
133.979 1111 33.3317
134.097 1097 33.121
134.214 1164 34.1174
134.332 1323 36.3731
134.449 1307 36.1525
134.567 1337 36.565
134.684 1437 37.9078
134.802 1408 37.5233
134.919 1377 37.108
135.037 1313 36.2353
135.154 1427 37.7757
135.272 1235 35.1426
135.389 1285 35.8469
135.507 1270 35.6371
135.624 1261 35.5106
135.742 1186 34.4384
135.859 1170 34.2053
135.977 1238 35.1852
136.094 1228 35.0428
136.211 1323 36.3731
136.329 1411 37.5633
136.446 1406 37.4967
136.564 1438 37.921
136.681 1410 37.55
136.798 1358 36.8511
136.915 1348 36.7151
137.033 1359 36.8646
137.15 1256 35.4401
137.267 1109 33.3017
137.384 1094 33.0757
137.502 1061 32.573
137.619 1071 32.7261
137.736 1145 33.8378
137.853 1206 34.7275
137.97 1259 35.4824
138.087 1268 35.609
138.204 1289 35.9026
138.321 1277 35.7351
138.438 1285 35.8469
138.555 1394 37.3363
138.672 1380 37.1484
138.788 1373 37.054
138.905 1297 36.0139
139.022 1186 34.4384
139.139 1052 32.4345
139.255 1065 32.6343
139.372 973 31.1929
139.488 889 29.8161
139.605 923 30.3809
139.721 835 28.8964
139.838 914 30.2324
139.954 938 30.6268
140.071 903 30.05
140.187 838 28.9482
140.303 764 27.6405
140.419 784 28
140.535 698 26.4197
140.652 642 25.3377
140.768 0 1
140.884 0 1
141 0 1
141.115 0 1
141.231 0 1
141.347 0 1
141.463 0 1
141.578 0 1
141.694 0 1
144.104 0 1
144.219 0 1
144.335 0 1
144.45 0 1
144.566 0 1
144.682 0 1
144.798 0 1
144.914 0 1
145.03 0 1
145.146 970 31.1448
145.262 1057 32.5115
145.378 1148 33.8821
145.494 1106 33.2566
145.61 1109 33.3017
145.726 986 31.4006
145.842 1025 32.0156
145.959 1005 31.7017
146.075 910 30.1662
146.192 915 30.249
146.308 838 28.9482
146.425 854 29.2233
146.541 899 29.9833
146.658 929 30.4795
146.774 964 31.0483
146.891 975 31.225
147.008 1031 32.1092
147.125 1035 32.1714
147.241 1086 32.9545
147.358 1067 32.665
147.475 1036 32.187
147.592 1027 32.0468
147.709 1003 31.6702
147.826 1009 31.7648
147.943 950 30.8221
148.06 963 31.0322
148.177 903 30.05
148.294 953 30.8707
148.411 939 30.6431
148.528 952 30.8545
148.645 1041 32.2645
148.762 1043 32.2955
148.88 1043 32.2955
148.997 1079 32.8481
149.114 1033 32.1403
149.231 1010 31.7805
149.349 1084 32.9242
149.466 1019 31.9218
149.583 967 31.0966
149.701 962 31.0161
149.818 900 30
149.935 790 28.1069
150.053 796 28.2135
150.17 905 30.0832
150.287 884 29.7321
150.405 912 30.1993
150.522 930 30.4959
150.64 945 30.7409
150.757 969 31.1288
150.875 1023 31.9844
150.992 1045 32.3265
151.11 1075 32.7872
151.227 997 31.5753
151.344 1008 31.749
151.462 1008 31.749
151.579 917 30.282
151.697 940 30.6594
151.814 922 30.3645
151.932 912 30.1993
152.049 875 29.5804
152.167 961 31
152.284 923 30.3809
152.402 977 31.257
152.519 987 31.4166
152.636 1041 32.2645
152.754 1003 31.6702
152.871 1013 31.8277
152.989 1010 31.7805
153.106 1018 31.9061
153.223 887 29.7825
153.341 870 29.4958
153.458 816 28.5657
153.575 815 28.5482
153.693 857 29.2746
153.81 816 28.5657
153.927 857 29.2746
154.044 960 30.9839
154.162 923 30.3809
154.279 887 29.7825
154.396 915 30.249
154.513 920 30.3315
154.63 970 31.1448
154.747 976 31.241
154.864 1004 31.686
154.981 888 29.7993
155.098 892 29.8664
155.215 867 29.4449
155.332 851 29.1719
155.449 769 27.7308
155.566 833 28.8617
155.683 860 29.3258
155.8 898 29.9666
155.917 858 29.2916
156.033 880 29.6648
156.15 0 1
156.267 0 1
156.383 0 1
156.5 0 1
156.617 0 1
156.733 0 1
156.85 0 1
156.966 0 1
157.082 0 1
157.199 0 1
157.315 0 1
157.431 0 1
157.547 0 1
157.664 0 1
157.78 0 1
157.896 0 1
158.012 0 1
158.128 0 1
158.244 0 1
158.359 0 1
158.475 0 1
158.591 0 1
158.706 0 1
