
6.15755 0 1
6.2731 0 1
6.3887 0 1
6.50437 0 1
6.62009 0 1
6.73587 0 1
6.8517 0 1
6.96759 0 1
7.08353 0 1
7.19952 0 1
7.31557 0 1
7.43166 0 1
7.54781 0 1
7.664 0 1
7.78024 0 1
7.89653 0 1
8.01286 0 1
8.12924 0 1
8.24567 0 1
8.36213 0 1
8.47864 0 1
8.59519 0 1
8.71178 0 1
8.82841 0 1
8.94508 0 1
9.06179 0 1
9.17853 0 1
9.29531 0 1
9.41212 0 1
9.52897 0 1
9.64584 0 1
9.76276 0 1
9.8797 0 1
9.99667 0 1
10.1137 0 1
10.2307 0 1
10.3478 0 1
10.4648 0 1
10.5819 0 1
10.6991 0 1
10.8162 0 1
10.9334 0 1
11.0506 0 1
11.1678 0 1
11.285 0 1
11.4023 0 1
11.5196 0 1
11.6369 0 1
11.7542 0 1
11.8715 0 1
11.9888 0 1
12.1062 0 1
12.2235 0 1
12.3409 0 1
12.4582 0 1
12.5756 0 1
12.693 0 1
12.8104 0 1
12.9278 0 1
13.0452 0 1
13.1626 0 1
13.28 0 1
13.3974 0 1
13.5149 0 1
13.6323 0 1
13.7497 0 1
13.8671 0 1
13.9845 0 1
14.1019 0 1
14.2193 0 1
14.3367 0 1
14.4541 0 1
14.5714 0 1
14.6888 0 1
14.8062 0 1
14.9235 0 1
15.0408 0 0
15.1581 0 0
15.2755 0 0
15.3927 0 0
15.51 0 0
15.6273 0 0
15.7445 0 0
15.8617 0 0
15.9789 0 0
16.0961 0 0
16.2132 0 0
16.3304 0 0
16.4475 0 0
16.5646 0 0
16.6816 0 0
16.7986 0 0
16.9156 0 0
17.0326 0 0
17.1496 0 0
17.2665 0 0
17.3833 0 0
17.5002 0 0
17.617 0 0
17.7338 0 0
17.8505 0 0
17.9672 0 0
18.0839 0 0
18.2005 0 0
18.3171 0 0
18.4337 0 0
18.5502 0 0
18.6666 0 0
18.7831 0 0
18.8994 0 0
19.0158 0 0
19.1321 0 0
19.2483 0 0
19.3645 0 0
19.4806 0 0
19.5967 0 0
19.7128 0 0
19.8288 0 0
19.9447 0 0
20.0606 0 1
20.1764 0 1
20.2922 0 1
20.4079 0 1
20.5236 0 1
20.6392 0 1
20.7548 0 1
20.8702 0 1
23.3078 0 1
23.4233 0 1
23.539 0 1
23.6547 0 1
23.7704 0 1
23.8862 0 1
24.0021 0 1
24.118 0 1
24.234 0 1
24.35 0 1
24.4661 1363 36.9188
24.5822 1461 38.223
24.6984 1443 37.9868
24.8146 1389 37.2693
24.9309 1391 37.2961
25.0472 1440 37.9473
25.1636 1370 37.0135
25.28 1389 37.2693
25.3965 1410 37.55
25.513 1370 37.0135
25.6296 1463 38.2492
25.7462 1449 38.0657
25.8628 1493 38.6394
25.9795 1449 38.0657
26.0962 1486 38.5487
26.213 1447 38.0395
26.3298 1388 37.2559
26.4466 1418 37.6563
26.5635 1287 35.8748
26.6804 1256 35.4401
26.7973 1232 35.0999
26.9143 1265 35.5668
27.0313 1275 35.7071
27.1483 1343 36.647
27.2653 1444 38
27.3824 1410 37.55
27.4996 1461 38.223
27.6167 1431 37.8286
27.7339 1455 38.1445
27.8511 1354 36.7967
27.9683 1384 37.2022
28.0855 1388 37.2559
28.2028 1448 38.0526
28.3201 1357 36.8375
28.4374 1291 35.9305
28.5547 1378 37.1214
28.6721 1366 36.9594
28.7894 1303 36.0971
28.9068 1376 37.0945
29.0242 1345 36.6742
29.1416 1353 36.7831
29.259 1289 35.9026
29.3764 1315 36.2629
29.4939 1299 36.0416
29.6113 1336 36.5513
29.7288 1345 36.6742
29.8463 1287 35.8748
29.9638 1243 35.2562
30.0812 1281 35.7911
30.1987 1261 35.5106
30.3162 1180 34.3511
30.4337 1154 33.9706
30.5512 1176 34.2929
30.6687 1257 35.4542
30.7862 1337 36.565
30.9037 1311 36.2077
31.0212 1343 36.647
31.1387 1316 36.2767
31.2562 1331 36.4829
31.3737 1397 37.3765
31.4912 1387 37.2424
31.6087 1309 36.1801
31.7262 1332 36.4966
31.8436 1380 37.1484
31.9611 1347 36.7015
32.0785 1236 35.1568
32.1959 1198 34.6121
32.3134 1280 35.7771
32.4308 1207 34.7419
32.5482 1302 36.0832
32.6655 1251 35.3695
32.7829 1349 36.7287
32.9002 1307 36.1525
33.0176 1291 35.9305
33.1349 1234 35.1283
33.2522 1331 36.4829
33.3694 1216 34.8712
33.4867 1262 35.5246
33.6039 1246 35.2987
33.7211 1185 34.4238
33.8383 1141 33.7787
33.9554 1052 32.4345
34.0725 1158 34.0294
34.1896 1122 33.4963
34.3067 1229 35.0571
34.4237 1264 35.5528
34.5407 1259 35.4824
34.6577 1302 36.0832
34.7746 1316 36.2767
34.8915 1324 36.3868
35.0084 1369 37
35.1252 1277 35.7351
35.242 1284 35.8329
35.3587 1299 36.0416
35.4755 1334 36.524
35.5921 1285 35.8469
35.7088 1290 35.9166
35.8254 1207 34.7419
35.9419 1162 34.0881
36.0584 1182 34.3802
36.1749 1142 33.7935
36.2913 1212 34.8138
36.4077 1201 34.6554
36.524 1209 34.7707
36.6403 1204 34.6987
36.7565 1306 36.1386
36.8727 1222 34.9571
36.9889 1253 35.3977
37.1049 1235 35.1426
37.221 0 1
37.3369 0 1
37.4529 0 1
37.5687 0 1
37.6845 0 1
37.8003 0 1
37.916 0 1
38.0316 0 1
38.1472 0 1
40.5851 0 1
40.7008 0 1
40.8164 0 1
40.9322 0 1
41.048 0 1
41.1639 0 1
41.2798 0 1
41.3958 0 1
41.5118 0 1
41.6279 0 1
41.744 912 30.1993
41.8602 929 30.4795
41.9765 960 30.9839
42.0928 1005 31.7017
42.2091 992 31.496
42.3255 1005 31.7017
42.4419 921 30.348
42.5584 893 29.8831
42.675 824 28.7054
42.7915 762 27.6043
42.9081 783 27.9821
43.0248 842 29.0172
43.1415 941 30.6757
43.2582 941 30.6757
43.375 948 30.7896
43.4918 965 31.0644
43.6087 963 31.0322
43.7256 967 31.0966
43.8425 916 30.2655
43.9595 936 30.5941
44.0765 928 30.4631
44.1935 929 30.4795
44.3106 842 29.0172
44.4277 828 28.775
44.5448 770 27.7489
44.6619 826 28.7402
44.7791 757 27.5136
44.8963 761 27.5862
45.0136 720 26.8328
45.1308 741 27.2213
45.2481 687 26.2107
45.3654 680 26.0768
45.4827 742 27.2397
45.6001 753 27.4408
45.7174 677 26.0192
45.8348 741 27.2213
45.9522 710 26.6458
46.0697 594 24.3721
46.1871 572 23.9165
46.3046 527 22.9565
46.422 580 24.0832
46.5395 577 24.0208
46.657 632 25.1396
46.7745 656 25.6125
46.892 701 26.4764
47.0096 644 25.3772
47.1271 708 26.6083
47.2446 712 26.6833
47.3622 673 25.9422
47.4797 624 24.98
47.5973 640 25.2982
47.7149 630 25.0998
47.8324 598 24.454
47.95 607 24.6374
48.0675 564 23.7487
48.1851 498 22.3159
48.3027 553 23.516
48.4202 506 22.4944
48.5378 507 22.5167
48.6554 512 22.6274
48.7729 511 22.6053
48.8904 510 22.5832
49.008 553 23.516
49.1255 559 23.6432
49.243 546 23.3666
49.3605 553 23.516
49.478 507 22.5167
49.5955 478 21.8632
49.713 472 21.7256
49.8304 412 20.2978
49.9479 455 21.3307
50.0653 483 21.9773
50.1827 578 24.0416
50.3001 580 24.0832
50.4175 617 24.8395
50.5348 673 25.9422
50.6521 676 26
50.7694 662 25.7294
50.8867 646 25.4165
51.004 715 26.7395
51.1212 716 26.7582
51.2384 679 26.0576
51.3556 730 27.0185
51.4727 727 26.9629
51.5899 722 26.8701
51.707 714 26.7208
51.824 741 27.2213
51.9411 707 26.5895
52.0581 711 26.6646
52.175 787 28.0535
52.2919 768 27.7128
52.4088 829 28.7924
52.5257 831 28.8271
52.6425 841 29
52.7593 829 28.7924
52.876 848 29.1204
52.9927 885 29.7489
53.1094 860 29.3258
53.226 779 27.9106
53.3426 721 26.8514
53.4591 673 25.9422
53.5756 728 26.9815
53.692 912 30.1993
53.8084 947 30.7734
53.9248 1017 31.8904
54.0411 1017 31.8904
54.1573 1019 31.9218
54.2735 0 1
54.3896 0 1
54.5057 0 1
54.6217 0 1
54.7377 0 1
54.8537 0 1
54.9695 0 1
55.0853 0 1
55.2011 0 1
55.3168 0 1
55.4324 0 1
57.824 0 1
57.9396 0 1
58.0553 0 1
58.1711 0 1
58.2869 0 1
58.4028 0 1
58.5187 0 1
58.6347 0 1
58.7508 0 1
58.8669 0 1
58.983 1092 33.0454
59.0992 1169 34.1906
59.2155 1198 34.6121
59.3318 1181 34.3657
59.4482 1267 35.5949
59.5646 1273 35.6791
59.681 1244 35.2704
59.7975 1256 35.4401
59.9141 1208 34.7563
60.0306 1221 34.9428
60.1473 1081 32.8786
60.2639 1114 33.3766
60.3807 1049 32.3883
60.4974 1012 31.8119
60.6142 1011 31.7962
60.731 1046 32.3419
60.8479 999 31.607
60.9648 1013 31.8277
61.0818 1072 32.7414
61.1987 1030 32.0936
61.3158 1007 31.7333
61.4328 1033 32.1403
61.5499 1007 31.7333
61.667 923 30.3809
61.7841 887 29.7825
61.9013 776 27.8568
62.0185 839 28.9655
62.1357 860 29.3258
62.253 935 30.5778
62.3702 1046 32.3419
62.4875 1097 33.121
62.6049 1115 33.3916
62.7222 1142 33.7935
62.8396 1206 34.7275
62.9569 1211 34.7994
63.0743 1233 35.1141
63.1918 1244 35.2704
63.3092 1236 35.1568
63.4267 1167 34.1614
63.5441 1142 33.7935
63.6616 1083 32.909
63.7791 1137 33.7194
63.8966 1051 32.4191
64.0142 1096 33.1059
64.1317 1059 32.5423
64.2492 1112 33.3467
64.3668 1077 32.8177
64.4843 1060 32.5576
64.6019 1107 33.2716
64.7195 1137 33.7194
64.837 1111 33.3317
64.9546 1105 33.2415
65.0722 1146 33.8526
65.1898 1054 32.4654
65.3074 976 31.241
65.4249 815 28.5482
65.5425 820 28.6356
65.6601 826 28.7402
65.7777 932 30.5287
65.8952 992 31.496
66.0128 1174 34.2637
66.1304 1214 34.8425
66.2479 1224 34.9857
66.3655 1295 35.9861
66.483 1274 35.6931
66.6005 1251 35.3695
66.718 1314 36.2491
66.8355 1288 35.8887
66.953 1262 35.5246
67.0705 1206 34.7275
67.1879 1186 34.4384
67.3054 1099 33.1512
67.4228 1107 33.2716
67.5402 1005 31.7017
67.6576 1042 32.28
67.7749 1003 31.6702
67.8923 1017 31.8904
68.0096 1009 31.7648
68.1269 1044 32.311
68.2442 1060 32.5576
68.3614 1055 32.4808
68.4787 1075 32.7872
68.5958 1014 31.8434
68.713 1001 31.6386
68.8302 970 31.1448
68.9473 817 28.5832
69.0643 745 27.2947
69.1814 699 26.4386
69.2984 725 26.9258
69.4154 918 30.2985
69.5323 1039 32.2335
69.6492 1087 32.9697
69.7661 1133 33.6601
69.8829 1127 33.5708
69.9997 1189 34.4819
70.1165 1215 34.8569
70.2332 1202 34.6699
70.3499 1252 35.3836
70.4665 1213 34.8281
70.5831 1188 34.4674
70.6996 1169 34.1906
70.8161 1032 32.1248
70.9326 1094 33.0757
71.049 990 31.4643
71.1653 1007 31.7333
71.2817 936 30.5941
71.3979 864 29.3939
71.5141 906 30.0998
71.6303 937 30.6105
71.7464 784 28
71.8624 0 1
71.9784 0 1
72.0944 0 1
72.2102 0 1
72.3261 0 1
72.4418 0 1
72.5575 0 1
72.6732 0 1
75.1054 0 1
75.2209 0 1
75.3365 0 1
75.4521 0 1
75.5678 0 1
75.6835 0 1
75.7993 0 1
75.9151 0 1
76.031 0 1
76.147 1001 31.6386
76.263 1041 32.2645
76.3791 1040 32.249
76.4952 1013 31.8277
76.6113 995 31.5436
76.7276 942 30.692
76.8438 924 30.3974
76.9601 985 31.3847
77.0765 998 31.5911
77.1929 1016 31.8748
77.3093 1032 32.1248
77.4258 1032 32.1248
77.5423 1034 32.1559
77.6589 1040 32.249
77.7755 957 30.9354
77.8921 835 28.8964
78.0088 711 26.6646
78.1256 689 26.2488
78.2423 612 24.7386
78.3591 698 26.4197
78.4759 770 27.7489
78.5928 968 31.1127
78.7097 990 31.4643
78.8266 1125 33.541
78.9436 1186 34.4384
79.0606 1178 34.322
79.1776 1155 33.9853
79.2946 1144 33.8231
79.4117 1136 33.7046
79.5288 1152 33.9411
79.6459 1075 32.7872
79.7631 1026 32.0312
79.8802 944 30.7246
79.9974 870 29.4958
80.1147 880 29.6648
80.2319 906 30.0998
80.3491 851 29.1719
80.4664 831 28.8271
80.5837 834 28.8791
80.701 801 28.3019
80.8183 900 30
80.9357 926 30.4302
81.053 859 29.3087
81.1704 940 30.6594
81.2877 930 30.4959
81.4051 873 29.5466
81.5225 773 27.8029
81.6399 704 26.533
81.7573 627 25.04
81.8747 569 23.8537
81.9922 598 24.454
82.1096 687 26.2107
82.227 829 28.7924
82.3444 935 30.5778
82.4619 1000 31.6228
82.5793 956 30.9192
82.6967 1007 31.7333
82.8142 1051 32.4191
82.9316 953 30.8707
83.049 898 29.9666
83.1664 968 31.1127
83.2838 924 30.3974
83.4012 894 29.8998
83.5186 827 28.7576
83.636 748 27.3496
83.7534 747 27.3313
83.8708 706 26.5707
83.9881 745 27.2947
84.1055 725 26.9258
84.2228 738 27.1662
84.3401 781 27.9464
84.4575 779 27.9106
84.5747 798 28.2489
84.692 786 28.0357
84.8093 790 28.1069
84.9265 825 28.7228
85.0437 732 27.0555
85.1609 654 25.5734
85.2781 579 24.0624
85.3952 538 23.1948
85.5123 576 24
85.6294 683 26.1343
85.7465 792 28.1425
85.8636 890 29.8329
85.9806 893 29.8831
86.0976 994 31.5278
86.2145 1060 32.5576
86.3315 1076 32.8024
86.4484 1031 32.1092
86.5652 1142 33.7935
86.682 1041 32.2645
86.7988 1104 33.2265
86.9156 1032 32.1248
87.0323 989 31.4484
87.149 883 29.7153
87.2657 884 29.7321
87.3823 893 29.8831
87.4988 881 29.6816
87.6154 818 28.6007
87.7318 904 30.0666
87.8483 970 31.1448
87.9647 999 31.607
88.081 1038 32.218
88.1973 1069 32.6956
88.3136 1103 33.2114
88.4298 1024 32
88.546 955 30.9031
88.6621 822 28.6705
88.7781 790 28.1069
88.8942 0 1
89.0101 0 1
89.126 0 1
89.2419 0 1
89.3577 0 1
89.4734 0 1
89.5891 0 1
89.7047 0 1
89.8203 0 1
89.9358 0 1
92.3269 0 1
92.4424 0 1
92.558 0 1
92.6736 0 1
92.7893 0 1
92.905 0 1
93.0208 0 1
93.1366 0 1
93.2525 0 1
93.3685 0 1
93.4845 0 1
93.6005 1030 32.0936
93.7167 1095 33.0908
93.8328 936 30.5941
93.949 1001 31.6386
94.0653 971 31.1609
94.1816 813 28.5132
94.2979 782 27.9643
94.4143 712 26.6833
94.5307 718 26.7955
94.6472 760 27.5681
94.7637 815 28.5482
94.8803 1013 31.8277
94.9969 1030 32.0936
95.1135 1106 33.2566
95.2302 1107 33.2716
95.3469 1177 34.3074
95.4637 1159 34.0441
95.5805 1238 35.1852
95.6973 1256 35.4401
95.8142 1212 34.8138
95.9311 1204 34.6987
96.048 1142 33.7935
96.1649 1124 33.5261
96.2819 1042 32.28
96.3989 985 31.3847
96.516 973 31.1929
96.633 906 30.0998
96.7501 955 30.9031
96.8673 914 30.2324
96.9844 962 31.0161
97.1016 986 31.4006
97.2188 1063 32.6037
97.336 1144 33.8231
97.4532 1142 33.7935
97.5704 1074 32.7719
97.6877 1018 31.9061
97.805 858 29.2916
97.9223 827 28.7576
98.0396 695 26.3629
98.1569 741 27.2213
98.2743 752 27.4226
98.3916 796 28.2135
98.509 904 30.0666
98.6264 1004 31.686
98.7438 1143 33.8083
98.8612 1112 33.3467
98.9786 1187 34.4529
99.096 1263 35.5387
99.2134 1221 34.9428
99.3308 1234 35.1283
99.4482 1187 34.4529
99.5656 1215 34.8569
99.6831 1215 34.8569
99.8005 1121 33.4813
99.9179 1129 33.6006
100.035 1034 32.1559
100.153 992 31.496
100.27 956 30.9192
100.388 930 30.4959
100.505 949 30.8058
100.622 994 31.5278
100.74 1103 33.2114
100.857 1047 32.3574
100.975 1086 32.9545
101.092 1084 32.9242
101.209 1069 32.6956
101.327 981 31.3209
101.444 862 29.3598
101.561 821 28.6531
101.679 801 28.3019
101.796 793 28.1603
101.913 849 29.1376
102.03 984 31.3688
102.148 1075 32.7872
102.265 1096 33.1059
102.382 1250 35.3553
102.499 1249 35.3412
102.616 1308 36.1663
102.733 1308 36.1663
102.851 1278 35.7491
102.968 1254 35.4119
103.085 1259 35.4824
103.202 1185 34.4238
103.319 1218 34.8999
103.436 1141 33.7787
103.552 1071 32.7261
103.669 1034 32.1559
103.786 1033 32.1403
103.903 981 31.3209
104.02 1093 33.0606
104.137 1120 33.4664
104.253 1197 34.5977
104.37 1181 34.3657
104.487 1221 34.9428
104.603 1209 34.7707
104.72 1166 34.1467
104.836 1122 33.4963
104.953 933 30.545
105.069 898 29.9666
105.186 888 29.7993
105.302 900 30
105.418 962 31.0161
105.535 1119 33.4515
105.651 1248 35.327
105.767 1318 36.3043
105.883 1442 37.9737
105.999 1378 37.1214
106.115 0 1
106.231 0 1
106.347 0 1
106.463 0 1
106.579 0 1
106.694 0 1
106.81 0 1
106.926 0 1
107.041 0 1
107.157 0 1
109.576 0 1
109.692 0 1
109.807 0 1
109.923 0 1
110.039 0 1
110.155 0 1
110.27 0 1
110.386 0 1
110.502 0 1
110.618 1019 31.9218
110.735 1169 34.1906
110.851 1198 34.6121
110.967 1292 35.9444
111.083 1343 36.647
111.199 1328 36.4417
111.316 1353 36.7831
111.432 1351 36.756
111.549 1305 36.1248
111.665 1370 37.0135
111.782 1344 36.6606
111.898 1164 34.1174
112.015 1174 34.2637
112.132 1097 33.121
112.248 1006 31.7175
112.365 973 31.1929
112.482 1031 32.1092
112.599 1120 33.4664
112.716 1037 32.2025
112.832 1105 33.2415
112.949 1126 33.5559
113.066 1128 33.5857
113.183 1083 32.909
113.3 1047 32.3574
113.417 993 31.5119
113.534 958 30.9516
113.652 879 29.6479
113.769 820 28.6356
113.886 851 29.1719
114.003 833 28.8617
114.12 1002 31.6544
114.238 1106 33.2566
114.355 1232 35.0999
114.472 1235 35.1426
114.589 1273 35.6791
114.707 1285 35.8469
114.824 1311 36.2077
114.942 1275 35.7071
115.059 1337 36.565
115.176 1252 35.3836
115.294 1289 35.9026
115.411 1262 35.5246
115.529 1176 34.2929
115.646 1067 32.665
115.764 1116 33.4066
115.881 1051 32.4191
115.999 1032 32.1248
116.116 1102 33.1964
116.234 1173 34.2491
116.351 1111 33.3317
116.469 1229 35.0571
116.586 1221 34.9428
116.704 1220 34.9285
116.821 1168 34.176
116.939 1093 33.0606
117.056 1011 31.7962
117.174 968 31.1127
117.291 886 29.7658
117.409 872 29.5296
117.526 954 30.8869
117.644 954 30.8869
117.761 1096 33.1059
117.879 1250 35.3553
117.996 1247 35.3129
118.114 1370 37.0135
118.231 1380 37.1484
118.349 1357 36.8375
118.466 1361 36.8917
118.584 1420 37.6829
118.701 1434 37.8682
118.819 1367 36.973
118.936 1276 35.7211
119.053 1338 36.5787
119.171 1237 35.171
119.288 1174 34.2637
119.405 1167 34.1614
119.523 1082 32.8938
119.64 1092 33.0454
119.757 1056 32.4962
119.875 1120 33.4664
119.992 1145 33.8378
120.109 1167 34.1614
120.226 1127 33.5708
120.343 1186 34.4384
120.46 1134 33.6749
120.578 1145 33.8378
120.695 1048 32.3728
120.812 1008 31.749
120.929 980 31.305
121.046 966 31.0805
121.163 888 29.7993
121.279 955 30.9031
121.396 1086 32.9545
121.513 1197 34.5977
121.63 1285 35.8469
121.747 1303 36.0971
121.863 1332 36.4966
121.98 1348 36.7151
122.097 1328 36.4417
122.213 1393 37.3229
122.33 1348 36.7151
122.446 1376 37.0945
122.563 1245 35.2846
122.679 1295 35.9861
122.795 1238 35.1852
122.912 1216 34.8712
123.028 1194 34.5543
123.144 1078 32.8329
123.26 1075 32.7872
123.377 0 1
123.493 0 1
123.609 0 1
123.725 0 1
123.84 0 1
123.956 0 1
124.072 0 1
124.188 0 1
124.303 0 1
124.419 0 1
126.852 0 1
126.968 0 1
127.083 0 1
127.199 0 1
127.315 0 1
127.431 0 1
127.547 0 1
127.663 0 1
127.779 0 1
127.895 0 1
128.011 0 1
128.127 0 1
128.243 0 1
128.359 1262 35.5246
128.476 1162 34.0881
128.592 1183 34.3948
128.708 1171 34.2199
128.825 1314 36.2491
128.941 1263 35.5387
129.058 1342 36.6333
129.174 1247 35.3129
129.291 1356 36.8239
129.408 1286 35.8608
129.524 1212 34.8138
129.641 1211 34.7994
129.758 1158 34.0294
129.875 1108 33.2866
129.992 1074 32.7719
130.108 1075 32.7872
130.225 1047 32.3574
130.342 1117 33.4215
130.459 1155 33.9853
130.576 1256 35.4401
130.693 1267 35.5949
130.81 1417 37.6431
130.928 1395 37.3497
131.045 1388 37.2559
131.162 1340 36.606
131.279 1369 37
131.396 1417 37.6431
131.513 1367 36.973
131.631 1350 36.7423
131.748 1332 36.4966
131.865 1197 34.5977
131.983 1156 34
132.1 1220 34.9285
132.217 1222 34.9571
132.335 1290 35.9166
132.452 1286 35.8608
132.57 1308 36.1663
132.687 1217 34.8855
132.804 1291 35.9305
132.922 1240 35.2136
133.039 1272 35.6651
133.157 1177 34.3074
133.274 1217 34.8855
133.392 1114 33.3766
133.509 1053 32.45
133.627 1025 32.0156
133.744 1030 32.0936
133.862 1133 33.6601
133.979 1166 34.1467
134.097 1258 35.4683
134.214 1330 36.4692
134.332 1417 37.6431
134.449 1403 37.4566
134.567 1403 37.4566
134.684 1384 37.2022
134.802 1459 38.1969
134.919 1414 37.6032
135.037 1456 38.1576
135.154 1300 36.0555
135.272 1316 36.2767
135.389 1239 35.1994
135.507 1249 35.3412
135.624 1180 34.3511
135.742 1247 35.3129
135.859 1263 35.5387
135.977 1301 36.0694
136.094 1303 36.0971
136.211 1318 36.3043
136.329 1267 35.5949
136.446 1323 36.3731
136.564 1297 36.0139
136.681 1251 35.3695
136.798 1264 35.5528
136.915 1185 34.4238
137.033 1130 33.6155
137.15 1128 33.5857
137.267 1114 33.3766
137.384 1133 33.6601
137.502 1140 33.7639
137.619 1174 34.2637
137.736 1284 35.8329
137.853 1278 35.7491
137.97 1321 36.3456
138.087 1340 36.606
138.204 1379 37.1349
138.321 1358 36.8511
138.438 1376 37.0945
138.555 1410 37.55
138.672 1369 37
138.788 1371 37.027
138.905 1415 37.6165
139.022 1326 36.4143
139.139 1293 35.9583
139.255 1245 35.2846
139.372 1270 35.6371
139.488 1261 35.5106
139.605 1263 35.5387
139.721 1387 37.2424
139.838 1353 36.7831
139.954 1336 36.5513
140.071 1273 35.6791
140.187 1313 36.2353
140.303 1268 35.609
140.419 1205 34.7131
140.535 1233 35.1141
140.652 1131 33.6303
140.768 0 1
140.884 0 1
141 0 1
141.115 0 1
141.231 0 1
141.347 0 1
141.463 0 1
141.578 0 1
141.694 0 1
144.104 0 1
144.219 0 1
144.335 0 1
144.45 0 1
144.566 0 1
144.682 0 1
144.798 0 1
144.914 0 1
145.03 0 1
145.146 925 30.4138
145.262 1004 31.686
145.378 973 31.1929
145.494 954 30.8869
145.61 946 30.7571
145.726 970 31.1448
145.842 927 30.4467
145.959 906 30.0998
146.075 866 29.4279
146.192 852 29.189
146.308 863 29.3769
146.425 853 29.2062
146.541 918 30.2985
146.658 926 30.4302
146.774 956 30.9192
146.891 1047 32.3574
147.008 1044 32.311
147.125 1070 32.7109
147.241 1036 32.187
147.358 1086 32.9545
147.475 1053 32.45
147.592 1030 32.0936
147.709 1034 32.1559
147.826 1064 32.619
147.943 938 30.6268
148.06 934 30.5614
148.177 936 30.5941
148.294 886 29.7658
148.411 985 31.3847
148.528 1018 31.9061
148.645 1003 31.6702
148.762 1028 32.0624
148.88 1058 32.5269
148.997 997 31.5753
149.114 1031 32.1092
149.231 986 31.4006
149.349 975 31.225
149.466 1008 31.749
149.583 1028 32.0624
149.701 943 30.7083
149.818 987 31.4166
149.935 841 29
150.053 926 30.4302
150.17 905 30.0832
150.287 945 30.7409
150.405 927 30.4467
150.522 929 30.4795
150.64 1079 32.8481
150.757 1056 32.4962
150.875 1024 32
150.992 1121 33.4813
151.11 1099 33.1512
151.227 1077 32.8177
151.344 1121 33.4813
151.462 1055 32.4808
151.579 1093 33.0606
151.697 1067 32.665
151.814 979 31.289
151.932 968 31.1127
152.049 961 31
152.167 1076 32.8024
152.284 1003 31.6702
152.402 1142 33.7935
152.519 1095 33.0908
152.636 1118 33.4365
152.754 1064 32.619
152.871 1077 32.8177
152.989 1056 32.4962
153.106 1054 32.4654
153.223 1093 33.0606
153.341 1014 31.8434
153.458 961 31
153.575 962 31.0161
153.693 1001 31.6386
153.81 1004 31.686
153.927 986 31.4006
154.044 1057 32.5115
154.162 1067 32.665
154.279 1163 34.1028
154.396 1161 34.0735
154.513 1189 34.4819
154.63 1196 34.5832
154.747 1267 35.5949
154.864 1198 34.6121
154.981 1294 35.9722
155.098 1206 34.7275
155.215 1219 34.9142
155.332 1165 34.1321
155.449 1117 33.4215
155.566 1085 32.9393
155.683 1161 34.0735
155.8 1207 34.7419
155.917 1183 34.3948
156.033 1218 34.8999
156.15 0 1
156.267 0 1
156.383 0 1
156.5 0 1
156.617 0 1
156.733 0 1
156.85 0 1
156.966 0 1
157.082 0 1
157.199 0 1
157.315 0 1
157.431 0 1
157.547 0 1
157.664 0 1
157.78 0 1
157.896 0 1
158.012 0 1
158.128 0 1
158.244 0 1
158.359 0 1
158.475 0 1
158.591 0 1
158.706 0 1
