
6.15755 0 1
6.2731 0 1
6.3887 0 1
6.50437 0 1
6.62009 0 1
6.73587 0 1
6.8517 0 1
6.96759 0 1
7.08353 0 1
7.19952 0 1
7.31557 0 1
7.43166 0 1
7.54781 0 1
7.664 0 1
7.78024 0 1
7.89653 0 1
8.01286 0 1
8.12924 0 1
8.24567 0 1
8.36213 0 1
8.47864 0 1
8.59519 0 1
8.71178 0 1
8.82841 0 1
8.94508 0 1
9.06179 0 1
9.17853 0 1
9.29531 0 1
9.41212 0 1
9.52897 0 1
9.64584 0 1
9.76276 0 1
9.8797 0 1
9.99667 0 1
10.1137 0 1
10.2307 0 1
10.3478 0 1
10.4648 0 1
10.5819 0 1
10.6991 0 1
10.8162 0 1
10.9334 0 1
11.0506 0 1
11.1678 0 1
11.285 0 1
11.4023 0 1
11.5196 0 1
11.6369 0 1
11.7542 0 1
11.8715 0 1
11.9888 0 1
12.1062 0 1
12.2235 0 1
12.3409 0 1
12.4582 0 1
12.5756 0 1
12.693 0 1
12.8104 0 1
12.9278 0 1
13.0452 0 1
13.1626 0 1
13.28 0 1
13.3974 0 1
13.5149 0 1
13.6323 0 1
13.7497 0 1
13.8671 0 1
13.9845 0 1
14.1019 0 1
14.2193 0 1
14.3367 0 1
14.4541 0 1
14.5714 0 1
14.6888 0 1
14.8062 0 1
14.9235 0 1
15.0408 0 0
15.1581 0 0
15.2755 0 0
15.3927 0 0
15.51 0 0
15.6273 0 0
15.7445 0 0
15.8617 0 0
15.9789 0 0
16.0961 0 0
16.2132 0 0
16.3304 0 0
16.4475 0 0
16.5646 0 0
16.6816 0 0
16.7986 0 0
16.9156 0 0
17.0326 0 0
17.1496 0 0
17.2665 0 0
17.3833 0 0
17.5002 0 0
17.617 0 0
17.7338 0 0
17.8505 0 0
17.9672 0 0
18.0839 0 0
18.2005 0 0
18.3171 0 0
18.4337 0 0
18.5502 0 0
18.6666 0 0
18.7831 0 0
18.8994 0 0
19.0158 0 0
19.1321 0 0
19.2483 0 0
19.3645 0 0
19.4806 0 0
19.5967 0 0
19.7128 0 0
19.8288 0 0
19.9447 0 0
20.0606 0 1
20.1764 0 1
20.2922 0 1
20.4079 0 1
20.5236 0 1
20.6392 0 1
20.7548 0 1
20.8702 0 1
23.3078 0 1
23.4233 0 1
23.539 0 1
23.6547 0 1
23.7704 0 1
23.8862 0 1
24.0021 0 1
24.118 0 1
24.234 0 1
24.35 0 1
24.4661 12723 112.796
24.5822 12692 112.659
24.6984 12726 112.81
24.8146 12770 113.004
24.9309 13011 114.066
25.0472 13145 114.652
25.1636 13169 114.756
25.28 13562 116.456
25.3965 13855 117.707
25.513 13913 117.953
25.6296 14117 118.815
25.7462 14424 120.1
25.8628 14321 119.67
25.9795 14400 120
26.0962 14353 119.804
26.213 14084 118.676
26.3298 13842 117.652
26.4466 14020 118.406
26.5635 13736 117.201
26.6804 13577 116.52
26.7973 13113 114.512
26.9143 12761 112.965
27.0313 12539 111.978
27.1483 12398 111.346
27.2653 12384 111.283
27.3824 12275 110.793
27.4996 12025 109.659
27.6167 11951 109.321
27.7339 11397 106.757
27.8511 11152 105.603
27.9683 10897 104.389
28.0855 10500 102.47
28.2028 10590 102.908
28.3201 10320 101.587
28.4374 10508 102.509
28.5547 10520 102.567
28.6721 10953 104.657
28.7894 11159 105.636
28.9068 11514 107.303
29.0242 11769 108.485
29.1416 11868 108.94
29.259 12065 109.841
29.3764 12011 109.595
29.4939 12116 110.073
29.6113 12121 110.095
29.7288 11872 108.959
29.8463 11964 109.38
29.9638 12040 109.727
30.0812 11903 109.101
30.1987 11999 109.54
30.3162 11549 107.466
30.4337 11334 106.461
30.5512 10947 104.628
30.6687 10858 104.202
30.7862 11028 105.014
30.9037 11020 104.976
31.0212 11135 105.523
31.1387 11328 106.433
31.2562 10561 102.767
31.3737 10373 101.848
31.4912 10016 100.08
31.6087 10210 101.045
31.7262 10088 100.439
31.8436 9935 99.6745
31.9611 9993 99.965
32.0785 10263 101.306
32.1959 10474 102.343
32.3134 10750 103.682
32.4308 11126 105.48
32.5482 11450 107.005
32.6655 11461 107.056
32.7829 11501 107.243
32.9002 11966 109.389
33.0176 11565 107.541
33.1349 11543 107.438
33.2522 11729 108.301
33.3694 11792 108.591
33.4867 11532 107.387
33.6039 11209 105.873
33.7211 11581 107.615
33.8383 11514 107.303
33.9554 11273 106.174
34.0725 11046 105.1
34.1896 10730 103.586
34.3067 10520 102.567
34.4237 10452 102.235
34.5407 10621 103.058
34.6577 10678 103.334
34.7746 10496 102.45
34.8915 10564 102.781
35.0084 10048 100.24
35.1252 9954 99.7697
35.242 9719 98.585
35.3587 9767 98.8281
35.4755 9518 97.5602
35.5921 9795 98.9697
35.7088 9887 99.4334
35.8254 10107 100.534
35.9419 10335 101.661
36.0584 10542 102.674
36.1749 10959 104.685
36.2913 11064 105.186
36.4077 10921 104.504
36.524 11214 105.896
36.6403 11117 105.437
36.7565 11180 105.736
36.8727 11167 105.674
36.9889 11091 105.314
37.1049 10944 104.614
37.221 0 1
37.3369 0 1
37.4529 0 1
37.5687 0 1
37.6845 0 1
37.8003 0 1
37.916 0 1
38.0316 0 1
38.1472 0 1
40.5851 0 1
40.7008 0 1
40.8164 0 1
40.9322 0 1
41.048 0 1
41.1639 0 1
41.2798 0 1
41.3958 0 1
41.5118 0 1
41.6279 0 1
41.744 8880 94.2338
41.8602 9414 97.0258
41.9765 9354 96.7161
42.0928 9437 97.1442
42.2091 9365 96.7729
42.3255 9352 96.7057
42.4419 9192 95.8749
42.5584 9451 97.2163
42.675 9277 96.3172
42.7915 9260 96.2289
42.9081 8786 93.7337
43.0248 8699 93.2684
43.1415 8348 91.3674
43.2582 8524 92.3255
43.375 8612 92.8009
43.4918 8826 93.9468
43.6087 8450 91.9239
43.7256 8406 91.6842
43.8425 7974 89.2973
43.9595 7830 88.4873
44.0765 7685 87.6641
44.1935 7531 86.7813
44.3106 7437 86.238
44.4277 7792 88.2723
44.5448 7854 88.6228
44.6619 8032 89.6214
44.7791 8132 90.1776
44.8963 8068 89.822
45.0136 8205 90.5815
45.1308 8154 90.2995
45.2481 7998 89.4315
45.3654 8002 89.4539
45.4827 7983 89.3476
45.6001 7856 88.6341
45.7174 8034 89.6326
45.8348 7706 87.7838
45.9522 7740 87.9773
46.0697 7627 87.3327
46.1871 7640 87.4071
46.3046 7596 87.155
46.422 7159 84.6109
46.5395 6865 82.8553
46.657 6846 82.7406
46.7745 6638 81.4739
46.892 6479 80.4922
47.0096 6682 81.7435
47.1271 6541 80.8764
47.2446 6538 80.8579
47.3622 6225 78.8987
47.4797 5887 76.7268
47.5973 5829 76.3479
47.7149 5793 76.1118
47.8324 5667 75.2795
47.95 5697 75.4785
48.0675 5727 75.6769
48.1851 5999 77.4532
48.3027 6100 78.1025
48.4202 6115 78.1985
48.5378 6255 79.0886
48.6554 6265 79.1518
48.7729 6226 78.905
48.8904 6333 79.5801
49.008 6241 79
49.1255 6284 79.2717
49.243 6311 79.4418
49.3605 6281 79.2528
49.478 6433 80.206
49.5955 6485 80.5295
49.713 6504 80.6474
49.8304 6527 80.7899
49.9479 6638 81.4739
50.0653 6463 80.3928
50.1827 6098 78.0897
50.3001 6078 77.9615
50.4175 6389 79.9312
50.5348 6493 80.5792
50.6521 6915 83.1565
50.7694 7019 83.7795
50.8867 6938 83.2947
51.004 6926 83.2226
51.1212 7031 83.8511
51.2384 7165 84.6463
51.3556 7240 85.0882
51.4727 7517 86.7006
51.5899 7815 88.4025
51.707 8127 90.1499
51.824 8352 91.3893
51.9411 8647 92.9892
52.0581 8714 93.3488
52.175 8889 94.2815
52.2919 8793 93.771
52.4088 8976 94.7418
52.5257 9009 94.9158
52.6425 9176 95.7914
52.7593 9285 96.3587
52.876 9154 95.6765
52.9927 9377 96.8349
53.1094 9430 97.1082
53.226 9620 98.0816
53.3426 9632 98.1428
53.4591 9459 97.2574
53.5756 9666 98.3158
53.692 9602 97.9898
53.8084 8993 94.8314
53.9248 8738 93.4773
54.0411 8882 94.2444
54.1573 9024 94.9947
54.2735 0 1
54.3896 0 1
54.5057 0 1
54.6217 0 1
54.7377 0 1
54.8537 0 1
54.9695 0 1
55.0853 0 1
55.2011 0 1
55.3168 0 1
55.4324 0 1
57.824 0 1
57.9396 0 1
58.0553 0 1
58.1711 0 1
58.2869 0 1
58.4028 0 1
58.5187 0 1
58.6347 0 1
58.7508 0 1
58.8669 0 1
58.983 10541 102.669
59.0992 10480 102.372
59.2155 10391 101.936
59.3318 10614 103.024
59.4482 10718 103.528
59.5646 10622 103.063
59.681 10665 103.271
59.7975 10515 102.543
59.9141 10424 102.098
60.0306 10623 103.068
60.1473 11017 104.962
60.2639 11086 105.29
60.3807 11221 105.929
60.4974 11394 106.743
60.6142 11365 106.607
60.731 11261 106.118
60.8479 11289 106.25
60.9648 11163 105.655
61.0818 11334 106.461
61.1987 11144 105.565
61.3158 11367 106.616
61.4328 10946 104.623
61.5499 11019 104.971
61.667 11121 105.456
61.7841 11016 104.957
61.9013 11151 105.598
62.0185 10855 104.187
62.1357 10665 103.271
62.253 10470 102.323
62.3702 10238 101.183
62.4875 9873 99.363
62.6049 9609 98.0255
62.7222 9737 98.6762
62.8396 9778 98.8838
62.9569 9898 99.4887
63.0743 9642 98.1937
63.1918 9635 98.158
63.3092 9804 99.0152
63.4267 9790 98.9444
63.5441 10024 100.12
63.6616 10183 100.911
63.7791 10372 101.843
63.8966 10488 102.411
64.0142 10671 103.301
64.1317 10439 102.171
64.2492 10464 102.294
64.3668 10357 101.769
64.4843 10371 101.838
64.6019 10282 101.4
64.7195 10107 100.534
64.837 10167 100.832
64.9546 10222 101.104
65.0722 10148 100.737
65.1898 10010 100.05
65.3074 10354 101.755
65.4249 10098 100.489
65.5425 10235 101.168
65.6601 10113 100.563
65.7777 10104 100.519
65.8952 9647 98.2191
66.0128 9152 95.6661
66.1304 8897 94.3239
66.2479 8807 93.8456
66.3655 9123 95.5144
66.483 9011 94.9263
66.6005 9175 95.7862
66.718 9289 96.3795
66.8355 9005 94.8947
66.953 8984 94.784
67.0705 9390 96.902
67.1879 9937 99.6845
67.3054 9871 99.3529
67.4228 10006 100.03
67.5402 10094 100.469
67.6576 10015 100.075
67.7749 9990 99.95
67.8923 10021 100.105
68.0096 9847 99.2321
68.1269 10182 100.906
68.2442 10156 100.777
68.3614 10141 100.703
68.4787 10157 100.782
68.5958 10159 100.792
68.713 10223 101.109
68.8302 10086 100.429
68.9473 10205 101.02
69.0643 9905 99.5239
69.1814 10187 100.931
69.2984 10209 101.04
69.4154 10431 102.132
69.5323 9955 99.7747
69.6492 9773 98.8585
69.7661 9479 97.3602
69.8829 9080 95.289
69.9997 9276 96.312
70.1165 9418 97.0464
70.2332 9720 98.5901
70.3499 9615 98.0561
70.4665 9463 97.278
70.5831 9739 98.6864
70.6996 9560 97.7753
70.8161 10012 100.06
70.9326 10226 101.124
71.049 10403 101.995
71.1653 10177 100.881
71.2817 10099 100.494
71.3979 9873 99.363
71.5141 9840 99.1968
71.6303 9624 98.102
71.7464 9130 95.551
71.8624 0 1
71.9784 0 1
72.0944 0 1
72.2102 0 1
72.3261 0 1
72.4418 0 1
72.5575 0 1
72.6732 0 1
75.1054 0 1
75.2209 0 1
75.3365 0 1
75.4521 0 1
75.5678 0 1
75.6835 0 1
75.7993 0 1
75.9151 0 1
76.031 0 1
76.147 8905 94.3663
76.263 9742 98.7016
76.3791 9822 99.106
76.4952 10040 100.2
76.6113 10016 100.08
76.7276 10058 100.29
76.8438 10042 100.21
76.9601 9885 99.4233
77.0765 10124 100.618
77.1929 9877 99.3831
77.3093 9907 99.5339
77.4258 9893 99.4636
77.5423 10112 100.558
77.6589 9887 99.4334
77.7755 9851 99.2522
77.8921 9869 99.3428
78.0088 9761 98.7978
78.1256 9615 98.0561
78.2423 9770 98.8433
78.3591 9796 98.9747
78.4759 9782 98.904
78.5928 9418 97.0464
78.7097 9313 96.5039
78.8266 8696 93.2523
78.9436 7341 85.6796
79.0606 7434 86.2206
79.1776 7651 87.47
79.2946 8357 91.4166
79.4117 8794 93.7763
79.5288 9171 95.7653
79.6459 9383 96.8659
79.7631 9577 97.8621
79.8802 9644 98.2039
79.9974 9447 97.1957
80.1147 9243 96.1405
80.2319 9435 97.1339
80.3491 9333 96.6075
80.4664 9158 95.6974
80.5837 9308 96.478
80.701 9093 95.3572
80.8183 9083 95.3048
80.9357 9127 95.5353
81.053 9268 96.2705
81.1704 8932 94.5093
81.2877 9095 95.3677
81.4051 8992 94.8262
81.5225 9123 95.5144
81.6399 8887 94.2709
81.7573 9046 95.1105
81.8747 8744 93.5094
81.9922 8781 93.707
82.1096 8906 94.3716
82.227 8762 93.6056
82.3444 8545 92.4392
82.4619 8210 90.6091
82.5793 7116 84.3564
82.6967 6959 83.4206
82.8142 7023 83.8033
82.9316 7273 85.2819
83.049 7731 87.9261
83.1664 7924 89.0169
83.2838 8107 90.0389
83.4012 8276 90.9725
83.5186 8280 90.9945
83.636 8243 90.791
83.7534 8248 90.8185
83.8708 8198 90.5428
83.9881 8182 90.4544
84.1055 7892 88.8369
84.2228 7998 89.4315
84.3401 7944 89.1291
84.4575 8069 89.8276
84.5747 8106 90.0333
84.692 7955 89.1908
84.8093 8048 89.7106
84.9265 8084 89.9111
85.0437 8132 90.1776
85.1609 7996 89.4204
85.2781 7954 89.1852
85.3952 8094 89.9667
85.5123 8181 90.4489
85.6294 8150 90.2774
85.7465 8290 91.0494
85.8636 8066 89.8109
85.9806 7824 88.4534
86.0976 7335 85.6446
86.2145 6706 81.8902
86.3315 5880 76.6812
86.4484 6778 82.3286
86.5652 7516 86.6949
86.682 7944 89.1291
86.7988 8109 90.05
86.9156 8367 91.4713
87.0323 8321 91.2195
87.149 8300 91.1043
87.2657 8175 90.4157
87.3823 8078 89.8777
87.4988 8114 90.0777
87.6154 8002 89.4539
87.7318 7958 89.2076
87.8483 8216 90.6422
87.9647 8177 90.4268
88.081 8283 91.011
88.1973 8383 91.5587
88.3136 8109 90.05
88.4298 8086 89.9222
88.546 8144 90.2441
88.6621 7875 88.7412
88.7781 7757 88.0738
88.8942 0 1
89.0101 0 1
89.126 0 1
89.2419 0 1
89.3577 0 1
89.4734 0 1
89.5891 0 1
89.7047 0 1
89.8203 0 1
89.9358 0 1
92.3269 0 1
92.4424 0 1
92.558 0 1
92.6736 0 1
92.7893 0 1
92.905 0 1
93.0208 0 1
93.1366 0 1
93.2525 0 1
93.3685 0 1
93.4845 0 1
93.6005 6189 78.6702
93.7167 6133 78.3135
93.8328 6132 78.3071
93.949 6234 78.9557
94.0653 6092 78.0513
94.1816 5884 76.7072
94.2979 5852 76.4984
94.4143 5719 75.6241
94.5307 5733 75.7166
94.6472 5625 75
94.7637 5473 73.9797
94.8803 5621 74.9733
94.9969 5404 73.5119
95.1135 5405 73.5187
95.2302 5140 71.6938
95.3469 4601 67.8307
95.4637 3923 62.6339
95.5805 3760 61.3188
95.6973 4483 66.9552
95.8142 5127 71.6031
95.9311 5107 71.4633
96.048 5078 71.2601
96.1649 5130 71.624
96.2819 4953 70.3776
96.3989 4744 68.8767
96.516 4858 69.6994
96.633 4507 67.1342
96.7501 4603 67.8454
96.8673 4474 66.888
96.9844 4289 65.4905
97.1016 4277 65.3988
97.2188 4121 64.195
97.336 4068 63.7809
97.4532 4019 63.3956
97.5704 3941 62.7774
97.6877 3901 62.458
97.805 3541 59.5063
97.9223 3619 60.1581
98.0396 3502 59.1777
98.1569 3329 57.6975
98.2743 3265 57.1402
98.3916 3269 57.1752
98.509 3224 56.7803
98.6264 3099 55.6687
98.7438 2947 54.2863
98.8612 2766 52.5928
98.9786 2602 51.0098
99.096 2056 45.3431
99.2134 1889 43.4626
99.3308 2398 48.9694
99.4482 2536 50.3587
99.5656 2503 50.03
99.6831 2489 49.8899
99.8005 2315 48.1144
99.9179 2305 48.0104
100.035 2262 47.5605
100.153 2239 47.3181
100.27 2189 46.7868
100.388 2184 46.7333
100.505 2108 45.913
100.622 2124 46.0869
100.74 2239 47.3181
100.857 2305 48.0104
100.975 2280 47.7493
101.092 2320 48.1664
101.209 2569 50.6853
101.327 2550 50.4975
101.444 2642 51.4004
101.561 2762 52.5547
101.679 2886 53.7215
101.796 2822 53.1225
101.913 2906 53.9073
102.03 3121 55.8659
102.148 3197 56.542
102.265 3472 58.9237
102.382 3215 56.701
102.499 3382 58.155
102.616 2741 52.3546
102.733 2463 49.6286
102.851 3255 57.0526
102.968 3992 63.1823
103.085 4052 63.6553
103.202 4291 65.5057
103.319 4303 65.5973
103.436 4306 65.6201
103.552 4479 66.9253
103.669 4530 67.3053
103.786 4636 68.0882
103.903 4749 68.913
104.02 4818 69.4118
104.137 4856 69.685
104.253 4938 70.2709
104.37 5044 71.0211
104.487 5314 72.8972
104.603 5263 72.5465
104.72 5275 72.6292
104.836 5511 74.2361
104.953 5553 74.5185
105.069 5721 75.6373
105.186 5754 75.8551
105.302 5647 75.1465
105.418 5842 76.433
105.535 5963 77.2205
105.651 5923 76.961
105.767 5917 76.922
105.883 5583 74.7195
105.999 4624 68
106.115 0 1
106.231 0 1
106.347 0 1
106.463 0 1
106.579 0 1
106.694 0 1
106.81 0 1
106.926 0 1
107.041 0 1
107.157 0 1
109.576 0 1
109.692 0 1
109.807 0 1
109.923 0 1
110.039 0 1
110.155 0 1
110.27 0 1
110.386 0 1
110.502 0 1
110.618 5878 76.6681
110.735 5955 77.1686
110.851 5816 76.2627
110.967 5355 73.1779
111.083 4478 66.9179
111.199 4220 64.9615
111.316 5192 72.0555
111.432 5936 77.0454
111.549 6157 78.4666
111.665 6232 78.943
111.782 6126 78.2688
111.898 6146 78.3964
112.015 6129 78.2879
112.132 6002 77.4726
112.248 6036 77.6917
112.365 5963 77.2205
112.482 5829 76.3479
112.599 5788 76.0789
112.716 5759 75.8881
112.832 5747 75.809
112.949 5697 75.4785
113.066 5441 73.7631
113.183 5628 75.02
113.3 5622 74.98
113.417 5340 73.0753
113.534 5295 72.7668
113.652 5288 72.7186
113.769 5313 72.8903
113.886 5259 72.519
114.003 5085 71.3092
114.12 5059 71.1266
114.238 4941 70.2922
114.355 4784 69.1665
114.472 4377 66.1589
114.589 3782 61.498
114.707 3306 57.4978
114.824 3343 57.8187
114.942 3919 62.6019
115.059 4385 66.2193
115.176 4508 67.1416
115.294 4563 67.55
115.411 4574 67.6314
115.529 4343 65.9014
115.646 4486 66.9776
115.764 4309 65.643
115.881 4290 65.4981
115.999 4175 64.6142
116.116 4041 63.5689
116.234 4072 63.8122
116.351 4137 64.3195
116.469 3751 61.2454
116.586 3884 62.3217
116.704 3893 62.3939
116.821 3819 61.7981
116.939 3758 61.3025
117.056 3720 60.9918
117.174 3615 60.1249
117.291 3638 60.3158
117.409 3607 60.0583
117.526 3550 59.5819
117.644 3486 59.0424
117.761 3524 59.3633
117.879 3427 58.5406
117.996 3351 57.8878
118.114 3311 57.5413
118.231 3186 56.4447
118.349 2661 51.5849
118.466 2662 51.5946
118.584 2905 53.8981
118.701 3092 55.6058
118.819 3257 57.0701
118.936 3203 56.5951
119.053 3295 57.4021
119.171 3089 55.5788
119.288 3140 56.0357
119.405 3039 55.1271
119.523 2997 54.7449
119.64 3066 55.3715
119.757 3051 55.2359
119.875 2991 54.69
119.992 2914 53.9815
120.109 2911 53.9537
120.226 2890 53.7587
120.343 2876 53.6284
120.46 2886 53.7215
120.578 2886 53.7215
120.695 2892 53.7773
120.812 2823 53.1319
120.929 2950 54.3139
121.046 2900 53.8516
121.163 2864 53.5164
121.279 2910 53.9444
121.396 2726 52.2111
121.513 2439 49.3862
121.63 2271 47.655
121.747 2352 48.4974
121.863 2556 50.5569
121.98 2789 52.811
122.097 2730 52.2494
122.213 2737 52.3163
122.33 2732 52.2685
122.446 2821 53.1131
122.563 3081 55.5068
122.679 3000 54.7723
122.795 2902 53.8702
122.912 3054 55.263
123.028 3131 55.9553
123.144 2962 54.4243
123.26 2894 53.7959
123.377 0 1
123.493 0 1
123.609 0 1
123.725 0 1
123.84 0 1
123.956 0 1
124.072 0 1
124.188 0 1
124.303 0 1
124.419 0 1
126.852 0 1
126.968 0 1
127.083 0 1
127.199 0 1
127.315 0 1
127.431 0 1
127.547 0 1
127.663 0 1
127.779 0 1
127.895 0 1
128.011 0 1
128.127 0 1
128.243 0 1
128.359 4253 65.215
128.476 4234 65.0692
128.592 4378 66.1665
128.708 4357 66.0076
128.825 4398 66.3174
128.941 4459 66.7757
129.058 4402 66.3476
129.174 4310 65.6506
129.291 4679 68.4032
129.408 4656 68.2349
129.524 4591 67.7569
129.641 4594 67.7791
129.758 4750 68.9202
129.875 4717 68.6804
129.992 4791 69.217
130.108 4544 67.4092
130.225 4186 64.6993
130.342 3855 62.0886
130.459 3103 55.7046
130.576 2690 51.8652
130.693 2666 51.6333
130.81 3507 59.2199
130.928 4418 66.468
131.045 4922 70.157
131.162 5218 72.2357
131.279 5129 71.617
131.396 5210 72.1803
131.513 5209 72.1734
131.631 5146 71.7356
131.748 5457 73.8715
131.865 5418 73.6071
131.983 5380 73.3485
132.1 5362 73.2257
132.217 5585 74.7329
132.335 5397 73.4643
132.452 5468 73.9459
132.57 5520 74.2967
132.687 5339 73.0685
132.804 5715 75.5976
132.922 5514 74.2563
133.039 5571 74.6391
133.157 5689 75.4255
133.274 5708 75.5513
133.392 5772 75.9737
133.509 5647 75.1465
133.627 5634 75.06
133.744 5235 72.3533
133.862 4760 68.9928
133.979 4349 65.9469
134.097 3683 60.6877
134.214 3390 58.2237
134.332 3386 58.1893
134.449 4231 65.0461
134.567 5309 72.8629
134.684 6099 78.0961
134.802 6120 78.2304
134.919 6206 78.7782
135.037 6099 78.0961
135.154 6324 79.5236
135.272 6386 79.9125
135.389 6305 79.404
135.507 6288 79.2969
135.624 6433 80.206
135.742 6379 79.8686
135.859 6450 80.3119
135.977 6483 80.5171
136.094 6518 80.7341
136.211 6494 80.5854
136.329 6562 81.0062
136.446 6632 81.4371
136.564 6556 80.9691
136.681 6645 81.5169
136.798 6625 81.3941
136.915 6430 80.1873
137.033 6533 80.827
137.15 6524 80.7713
137.267 6105 78.1345
137.384 5857 76.531
137.502 5479 74.0203
137.619 4933 70.2353
137.736 4590 67.7495
137.853 4220 64.9615
137.97 4154 64.4515
138.087 4821 69.4334
138.204 5668 75.2861
138.321 6489 80.5543
138.438 6881 82.9518
138.555 7151 84.5636
138.672 7231 85.0353
138.788 7148 84.5458
138.905 7425 86.1684
139.022 7302 85.4517
139.139 7447 86.296
139.255 7497 86.5852
139.372 7576 87.0402
139.488 7436 86.2322
139.605 7446 86.2902
139.721 7544 86.8562
139.838 7545 86.862
139.954 7508 86.6487
140.071 7368 85.8371
140.187 7510 86.6603
140.303 7477 86.4696
140.419 7523 86.7352
140.535 7554 86.9138
140.652 7165 84.6463
140.768 0 1
140.884 0 1
141 0 1
141.115 0 1
141.231 0 1
141.347 0 1
141.463 0 1
141.578 0 1
141.694 0 1
144.104 0 1
144.219 0 1
144.335 0 1
144.45 0 1
144.566 0 1
144.682 0 1
144.798 0 1
144.914 0 1
145.03 0 1
145.146 7248 85.1352
145.262 7466 86.406
145.378 7327 85.5979
145.494 7249 85.1411
145.61 7219 84.9647
145.726 6949 83.3607
145.842 6784 82.365
145.959 6467 80.4177
146.075 6084 78
146.192 5729 75.6902
146.308 5505 74.1957
146.425 5263 72.5465
146.541 5277 72.643
146.658 5446 73.797
146.774 5852 76.4984
146.891 6190 78.6766
147.008 7140 84.4985
147.125 7333 85.6329
147.241 7465 86.4002
147.358 7599 87.1722
147.475 7563 86.9655
147.592 7585 87.0919
147.709 7500 86.6025
147.826 7462 86.3829
147.943 7618 87.2812
148.06 7391 85.9709
148.177 7464 86.3944
148.294 7420 86.1394
148.411 7455 86.3423
148.528 7435 86.2264
148.645 7415 86.1104
148.762 7424 86.1626
148.88 7492 86.5563
148.997 7197 84.8351
149.114 7552 86.9022
149.231 7181 84.7408
149.349 7137 84.4808
149.466 6812 82.5348
149.583 6337 79.6053
149.701 6128 78.2815
149.818 5869 76.6094
149.935 5675 75.3326
150.053 5516 74.2698
150.17 5478 74.0135
150.287 5606 74.8732
150.405 6077 77.9551
150.522 6384 79.8999
150.64 6709 81.9085
150.757 7169 84.6699
150.875 7476 86.4639
150.992 7855 88.6284
151.11 7529 86.7698
151.227 7648 87.4528
151.344 7683 87.6527
151.462 7650 87.4643
151.579 7575 87.0345
151.697 7736 87.9545
151.814 7662 87.5329
151.932 7690 87.6926
152.049 7766 88.1249
152.167 7824 88.4534
152.284 7780 88.2043
152.402 7730 87.9204
152.519 7647 87.4471
152.636 7527 86.7583
152.754 7493 86.5621
152.871 7312 85.5102
152.989 7182 84.7467
153.106 7067 84.0655
153.223 6660 81.6088
153.341 6332 79.5739
153.458 6107 78.1473
153.575 5958 77.1881
153.693 5946 77.1103
153.81 5988 77.3822
153.927 6226 78.905
154.044 6462 80.3866
154.162 6808 82.5106
154.279 7313 85.5161
154.396 7692 87.704
154.513 7959 89.2132
154.63 7985 89.3588
154.747 8162 90.3438
154.864 7993 89.4036
154.981 8166 90.3659
155.098 8192 90.5097
155.215 8146 90.2552
155.332 8024 89.5768
155.449 8069 89.8276
155.566 8173 90.4046
155.683 8036 89.6437
155.8 8201 90.5594
155.917 8196 90.5318
156.033 8223 90.6808
156.15 0 1
156.267 0 1
156.383 0 1
156.5 0 1
156.617 0 1
156.733 0 1
156.85 0 1
156.966 0 1
157.082 0 1
157.199 0 1
157.315 0 1
157.431 0 1
157.547 0 1
157.664 0 1
157.78 0 1
157.896 0 1
158.012 0 1
158.128 0 1
158.244 0 1
158.359 0 1
158.475 0 1
158.591 0 1
158.706 0 1
