
6.15755 0 1
6.2731 0 1
6.3887 0 1
6.50437 0 1
6.62009 0 1
6.73587 0 1
6.8517 0 1
6.96759 0 1
7.08353 0 1
7.19952 0 1
7.31557 0 1
7.43166 0 1
7.54781 0 1
7.664 0 1
7.78024 0 1
7.89653 0 1
8.01286 0 1
8.12924 0 1
8.24567 0 1
8.36213 0 1
8.47864 0 1
8.59519 0 1
8.71178 0 1
8.82841 0 1
8.94508 0 1
9.06179 0 1
9.17853 0 1
9.29531 0 1
9.41212 0 1
9.52897 0 1
9.64584 0 1
9.76276 0 1
9.8797 0 1
9.99667 0 1
10.1137 0 1
10.2307 0 1
10.3478 0 1
10.4648 0 1
10.5819 0 1
10.6991 0 1
10.8162 0 1
10.9334 0 1
11.0506 0 1
11.1678 0 1
11.285 0 1
11.4023 0 1
11.5196 0 1
11.6369 0 1
11.7542 0 1
11.8715 0 1
11.9888 0 1
12.1062 0 1
12.2235 0 1
12.3409 0 1
12.4582 0 1
12.5756 0 1
12.693 0 1
12.8104 0 1
12.9278 0 1
13.0452 0 1
13.1626 0 1
13.28 0 1
13.3974 0 1
13.5149 0 1
13.6323 0 1
13.7497 0 1
13.8671 0 1
13.9845 0 1
14.1019 0 1
14.2193 0 1
14.3367 0 1
14.4541 0 1
14.5714 0 1
14.6888 0 1
14.8062 0 1
14.9235 0 1
15.0408 0 0
15.1581 0 0
15.2755 0 0
15.3927 0 0
15.51 0 0
15.6273 0 0
15.7445 0 0
15.8617 0 0
15.9789 0 0
16.0961 0 0
16.2132 0 0
16.3304 0 0
16.4475 0 0
16.5646 0 0
16.6816 0 0
16.7986 0 0
16.9156 0 0
17.0326 0 0
17.1496 0 0
17.2665 0 0
17.3833 0 0
17.5002 0 0
17.617 0 0
17.7338 0 0
17.8505 0 0
17.9672 0 0
18.0839 0 0
18.2005 0 0
18.3171 0 0
18.4337 0 0
18.5502 0 0
18.6666 0 0
18.7831 0 0
18.8994 0 0
19.0158 0 0
19.1321 0 0
19.2483 0 0
19.3645 0 0
19.4806 0 0
19.5967 0 0
19.7128 0 0
19.8288 0 0
19.9447 0 0
20.0606 0 1
20.1764 0 1
20.2922 0 1
20.4079 0 1
20.5236 0 1
20.6392 0 1
20.7548 0 1
20.8702 0 1
23.3078 0 1
23.4233 0 1
23.539 0 1
23.6547 0 1
23.7704 0 1
23.8862 0 1
24.0021 0 1
24.118 0 1
24.234 0 1
24.35 0 1
24.4661 1429 37.8021
24.5822 1404 37.47
24.6984 1485 38.5357
24.8146 1450 38.0789
24.9309 1509 38.8458
25.0472 1504 38.7814
25.1636 1547 39.3319
25.28 1611 40.1373
25.3965 1593 39.9124
25.513 1587 39.8372
25.6296 1592 39.8999
25.7462 1630 40.3733
25.8628 1535 39.1791
25.9795 1601 40.0125
26.0962 1668 40.8412
26.213 1581 39.7618
26.3298 1576 39.6989
26.4466 1584 39.7995
26.5635 1588 39.8497
26.6804 1576 39.6989
26.7973 1476 38.4187
26.9143 1418 37.6563
27.0313 1445 38.0132
27.1483 1358 36.8511
27.2653 1377 37.108
27.3824 1409 37.5366
27.4996 1461 38.223
27.6167 1399 37.4032
27.7339 1416 37.6298
27.8511 1444 38
27.9683 1391 37.2961
28.0855 1368 36.9865
28.2028 1376 37.0945
28.3201 1365 36.9459
28.4374 1472 38.3667
28.5547 1439 37.9342
28.6721 1455 38.1445
28.7894 1417 37.6431
28.9068 1522 39.0128
29.0242 1548 39.3446
29.1416 1595 39.9375
29.259 1480 38.4708
29.3764 1444 38
29.4939 1504 38.7814
29.6113 1546 39.3192
29.7288 1464 38.2623
29.8463 1455 38.1445
29.9638 1476 38.4187
30.0812 1505 38.7943
30.1987 1491 38.6135
30.3162 1410 37.55
30.4337 1278 35.7491
30.5512 1267 35.5949
30.6687 1302 36.0832
30.7862 1261 35.5106
30.9037 1325 36.4005
31.0212 1407 37.51
31.1387 1365 36.9459
31.2562 1400 37.4166
31.3737 1406 37.4967
31.4912 1304 36.1109
31.6087 1321 36.3456
31.7262 1364 36.9324
31.8436 1334 36.524
31.9611 1354 36.7967
32.0785 1465 38.2753
32.1959 1435 37.8814
32.3134 1466 38.2884
32.4308 1432 37.8418
32.5482 1496 38.6782
32.6655 1479 38.4578
32.7829 1446 38.0263
32.9002 1383 37.1887
33.0176 1438 37.921
33.1349 1394 37.3363
33.2522 1366 36.9594
33.3694 1420 37.6829
33.4867 1474 38.3927
33.6039 1501 38.7427
33.7211 1467 38.3014
33.8383 1455 38.1445
33.9554 1490 38.6005
34.0725 1348 36.7151
34.1896 1266 35.5809
34.3067 1254 35.4119
34.4237 1240 35.2136
34.5407 1272 35.6651
34.6577 1340 36.606
34.7746 1351 36.756
34.8915 1227 35.0286
35.0084 1213 34.8281
35.1252 1318 36.3043
35.242 1253 35.3977
35.3587 1280 35.7771
35.4755 1292 35.9444
35.5921 1368 36.9865
35.7088 1385 37.2156
35.8254 1386 37.229
35.9419 1429 37.8021
36.0584 1441 37.9605
36.1749 1371 37.027
36.2913 1408 37.5233
36.4077 1411 37.5633
36.524 1426 37.7624
36.6403 1372 37.0405
36.7565 1397 37.3765
36.8727 1399 37.4032
36.9889 1393 37.3229
37.1049 1432 37.8418
37.221 0 1
37.3369 0 1
37.4529 0 1
37.5687 0 1
37.6845 0 1
37.8003 0 1
37.916 0 1
38.0316 0 1
38.1472 0 1
40.5851 0 1
40.7008 0 1
40.8164 0 1
40.9322 0 1
41.048 0 1
41.1639 0 1
41.2798 0 1
41.3958 0 1
41.5118 0 1
41.6279 0 1
41.744 1197 34.5977
41.8602 1153 33.9559
41.9765 1083 32.909
42.0928 1182 34.3802
42.2091 1154 33.9706
42.3255 1222 34.9571
42.4419 1276 35.7211
42.5584 1260 35.4965
42.675 1232 35.0999
42.7915 1169 34.1906
42.9081 1127 33.5708
43.0248 1061 32.573
43.1415 1019 31.9218
43.2582 1068 32.6803
43.375 1024 32
43.4918 1115 33.3916
43.6087 1101 33.1813
43.7256 1046 32.3419
43.8425 1050 32.4037
43.9595 1015 31.8591
44.0765 1049 32.3883
44.1935 1045 32.3265
44.3106 1034 32.1559
44.4277 1061 32.573
44.5448 1064 32.619
44.6619 1062 32.5883
44.7791 1119 33.4515
44.8963 1078 32.8329
45.0136 1053 32.45
45.1308 1067 32.665
45.2481 1027 32.0468
45.3654 1047 32.3574
45.4827 1036 32.187
45.6001 970 31.1448
45.7174 1032 32.1248
45.8348 971 31.1609
45.9522 1002 31.6544
46.0697 940 30.6594
46.1871 929 30.4795
46.3046 958 30.9516
46.422 932 30.5287
46.5395 864 29.3939
46.657 857 29.2746
46.7745 768 27.7128
46.892 824 28.7054
47.0096 842 29.0172
47.1271 865 29.4109
47.2446 837 28.931
47.3622 806 28.3901
47.4797 737 27.1477
47.5973 788 28.0713
47.7149 802 28.3196
47.8324 777 27.8747
47.95 790 28.1069
48.0675 799 28.2666
48.1851 828 28.775
48.3027 784 28
48.4202 793 28.1603
48.5378 816 28.5657
48.6554 813 28.5132
48.7729 763 27.6225
48.8904 851 29.1719
49.008 812 28.4956
49.1255 798 28.2489
49.243 815 28.5482
49.3605 812 28.4956
49.478 769 27.7308
49.5955 840 28.9828
49.713 855 29.2404
49.8304 887 29.7825
49.9479 814 28.5307
50.0653 823 28.688
50.1827 714 26.7208
50.3001 744 27.2764
50.4175 717 26.7769
50.5348 745 27.2947
50.6521 846 29.0861
50.7694 911 30.1828
50.8867 850 29.1548
51.004 815 28.5482
51.1212 875 29.5804
51.2384 871 29.5127
51.3556 958 30.9516
51.4727 967 31.0966
51.5899 932 30.5287
51.707 1047 32.3574
51.824 1014 31.8434
51.9411 1007 31.7333
52.0581 1024 32
52.175 1028 32.0624
52.2919 1089 33
52.4088 1082 32.8938
52.5257 1084 32.9242
52.6425 1074 32.7719
52.7593 1078 32.8329
52.876 1079 32.8481
52.9927 1090 33.0151
53.1094 1138 33.7343
53.226 1165 34.1321
53.3426 1094 33.0757
53.4591 1149 33.8969
53.5756 1159 34.0441
53.692 1164 34.1174
53.8084 1032 32.1248
53.9248 991 31.4802
54.0411 942 30.692
54.1573 924 30.3974
54.2735 0 1
54.3896 0 1
54.5057 0 1
54.6217 0 1
54.7377 0 1
54.8537 0 1
54.9695 0 1
55.0853 0 1
55.2011 0 1
55.3168 0 1
55.4324 0 1
57.824 0 1
57.9396 0 1
58.0553 0 1
58.1711 0 1
58.2869 0 1
58.4028 0 1
58.5187 0 1
58.6347 0 1
58.7508 0 1
58.8669 0 1
58.983 1103 33.2114
59.0992 1106 33.2566
59.2155 1020 31.9374
59.3318 1037 32.2025
59.4482 1072 32.7414
59.5646 1121 33.4813
59.681 1097 33.121
59.7975 1137 33.7194
59.9141 1168 34.176
60.0306 1157 34.0147
60.1473 1243 35.2562
60.2639 1209 34.7707
60.3807 1199 34.6266
60.4974 1195 34.5688
60.6142 1182 34.3802
60.731 1128 33.5857
60.8479 1222 34.9571
60.9648 1233 35.1141
61.0818 1138 33.7343
61.1987 1091 33.0303
61.3158 1152 33.9411
61.4328 1125 33.541
61.5499 1152 33.9411
61.667 1152 33.9411
61.7841 1144 33.8231
61.9013 1148 33.8821
62.0185 1167 34.1614
62.1357 1097 33.121
62.253 1067 32.665
62.3702 1085 32.9393
62.4875 1043 32.2955
62.6049 981 31.3209
62.7222 912 30.1993
62.8396 911 30.1828
62.9569 978 31.273
63.0743 994 31.5278
63.1918 1084 32.9242
63.3092 1018 31.9061
63.4267 992 31.496
63.5441 1044 32.311
63.6616 1033 32.1403
63.7791 1028 32.0624
63.8966 988 31.4325
64.0142 989 31.4484
64.1317 966 31.0805
64.2492 1026 32.0312
64.3668 955 30.9031
64.4843 982 31.3369
64.6019 959 30.9677
64.7195 1021 31.9531
64.837 994 31.5278
64.9546 1033 32.1403
65.0722 988 31.4325
65.1898 959 30.9677
65.3074 993 31.5119
65.4249 970 31.1448
65.5425 972 31.1769
65.6601 997 31.5753
65.7777 954 30.8869
65.8952 971 31.1609
66.0128 944 30.7246
66.1304 954 30.8869
66.2479 829 28.7924
66.3655 819 28.6182
66.483 813 28.5132
66.6005 796 28.2135
66.718 851 29.1719
66.8355 861 29.3428
66.953 905 30.0832
67.0705 963 31.0322
67.1879 934 30.5614
67.3054 941 30.6757
67.4228 963 31.0322
67.5402 903 30.05
67.6576 904 30.0666
67.7749 858 29.2916
67.8923 916 30.2655
68.0096 940 30.6594
68.1269 931 30.5123
68.2442 900 30
68.3614 893 29.8831
68.4787 906 30.0998
68.5958 879 29.6479
68.713 872 29.5296
68.8302 930 30.4959
68.9473 953 30.8707
69.0643 845 29.0689
69.1814 865 29.4109
69.2984 849 29.1376
69.4154 901 30.0167
69.5323 937 30.6105
69.6492 865 29.4109
69.7661 829 28.7924
69.8829 861 29.3428
69.9997 785 28.0179
70.1165 784 28
70.2332 750 27.3861
70.3499 792 28.1425
70.4665 783 27.9821
70.5831 792 28.1425
70.6996 817 28.5832
70.8161 874 29.5635
70.9326 874 29.5635
71.049 828 28.775
71.1653 823 28.688
71.2817 802 28.3196
71.3979 765 27.6586
71.5141 813 28.5132
71.6303 734 27.0924
71.7464 724 26.9072
71.8624 0 1
71.9784 0 1
72.0944 0 1
72.2102 0 1
72.3261 0 1
72.4418 0 1
72.5575 0 1
72.6732 0 1
75.1054 0 1
75.2209 0 1
75.3365 0 1
75.4521 0 1
75.5678 0 1
75.6835 0 1
75.7993 0 1
75.9151 0 1
76.031 0 1
76.147 617 24.8395
76.263 654 25.5734
76.3791 679 26.0576
76.4952 615 24.7992
76.6113 580 24.0832
76.7276 625 25
76.8438 627 25.04
76.9601 644 25.3772
77.0765 585 24.1868
77.1929 593 24.3516
77.3093 616 24.8193
77.4258 592 24.3311
77.5423 618 24.8596
77.6589 614 24.779
77.7755 611 24.7184
77.8921 570 23.8747
78.0088 551 23.4734
78.1256 589 24.2693
78.2423 593 24.3516
78.3591 541 23.2594
78.4759 538 23.1948
78.5928 522 22.8473
78.7097 527 22.9565
78.8266 557 23.6008
78.9436 506 22.4944
79.0606 421 20.5183
79.1776 367 19.1572
79.2946 396 19.8997
79.4117 424 20.5913
79.5288 496 22.2711
79.6459 466 21.587
79.7631 482 21.9545
79.8802 490 22.1359
79.9974 454 21.3073
80.1147 403 20.0749
80.2319 430 20.7364
80.3491 427 20.664
80.4664 384 19.5959
80.5837 406 20.1494
80.701 393 19.8242
80.8183 375 19.3649
80.9357 370 19.2354
81.053 387 19.6723
81.1704 380 19.4936
81.2877 362 19.0263
81.4051 339 18.412
81.5225 323 17.9722
81.6399 304 17.4356
81.7573 292 17.088
81.8747 297 17.2337
81.9922 292 17.088
82.1096 275 16.5831
82.227 286 16.9115
82.3444 295 17.1756
82.4619 281 16.7631
82.5793 264 16.2481
82.6967 252 15.8745
82.8142 213 14.5945
82.9316 176 13.2665
83.049 212 14.5602
83.1664 209 14.4568
83.2838 200 14.1421
83.4012 188 13.7113
83.5186 179 13.3791
83.636 174 13.1909
83.7534 161 12.6886
83.8708 157 12.53
83.9881 154 12.4097
84.1055 142 11.9164
84.2228 144 12
84.3401 127 11.2694
84.4575 157 12.53
84.5747 143 11.9583
84.692 128 11.3137
84.8093 139 11.7898
84.9265 149 12.2066
85.0437 133 11.5326
85.1609 110 10.4881
85.2781 131 11.4455
85.3952 120 10.9545
85.5123 137 11.7047
85.6294 99 9.94987
85.7465 107 10.3441
85.8636 119 10.9087
85.9806 105 10.247
86.0976 112 10.583
86.2145 99 9.94987
86.3315 117 10.8167
86.4484 159 12.6095
86.5652 139 11.7898
86.682 172 13.1149
86.7988 170 13.0384
86.9156 150 12.2474
87.0323 157 12.53
87.149 180 13.4164
87.2657 179 13.3791
87.3823 179 13.3791
87.4988 175 13.2288
87.6154 188 13.7113
87.7318 208 14.4222
87.8483 220 14.8324
87.9647 211 14.5258
88.081 273 16.5227
88.1973 258 16.0624
88.3136 278 16.6733
88.4298 241 15.5242
88.546 258 16.0624
88.6621 285 16.8819
88.7781 292 17.088
88.8942 0 1
89.0101 0 1
89.126 0 1
89.2419 0 1
89.3577 0 1
89.4734 0 1
89.5891 0 1
89.7047 0 1
89.8203 0 1
89.9358 0 1
92.3269 0 1
92.4424 0 1
92.558 0 1
92.6736 0 1
92.7893 0 1
92.905 0 1
93.0208 0 1
93.1366 0 1
93.2525 0 1
93.3685 0 1
93.4845 0 1
93.6005 484 22
93.7167 463 21.5174
93.8328 464 21.5407
93.949 437 20.9045
94.0653 432 20.7846
94.1816 427 20.664
94.2979 401 20.025
94.4143 408 20.199
94.5307 420 20.4939
94.6472 359 18.9473
94.7637 361 19
94.8803 366 19.1311
94.9969 359 18.9473
95.1135 355 18.8414
95.2302 368 19.1833
95.3469 334 18.2757
95.4637 244 15.6205
95.5805 262 16.1864
95.6973 352 18.7617
95.8142 399 19.975
95.9311 427 20.664
96.048 393 19.8242
96.1649 423 20.567
96.2819 424 20.5913
96.3989 437 20.9045
96.516 445 21.095
96.633 441 21
96.7501 441 21
96.8673 476 21.8174
96.9844 446 21.1187
97.1016 506 22.4944
97.2188 493 22.2036
97.336 550 23.4521
97.4532 554 23.5372
97.5704 580 24.0832
97.6877 565 23.7697
97.805 585 24.1868
97.9223 600 24.4949
98.0396 579 24.0624
98.1569 617 24.8395
98.2743 626 25.02
98.3916 638 25.2587
98.509 680 26.0768
98.6264 653 25.5539
98.7438 641 25.318
98.8612 622 24.9399
98.9786 578 24.0416
99.096 449 21.1896
99.2134 491 22.1585
99.3308 577 24.0208
99.4482 737 27.1477
99.5656 693 26.3249
99.6831 777 27.8747
99.8005 695 26.3629
99.9179 761 27.5862
100.035 825 28.7228
100.153 850 29.1548
100.27 763 27.6225
100.388 826 28.7402
100.505 819 28.6182
100.622 775 27.8388
100.74 869 29.4788
100.857 891 29.8496
100.975 866 29.4279
101.092 821 28.6531
101.209 852 29.189
101.327 912 30.1993
101.444 930 30.4959
101.561 887 29.7825
101.679 911 30.1828
101.796 894 29.8998
101.913 889 29.8161
102.03 956 30.9192
102.148 887 29.7825
102.265 981 31.3209
102.382 835 28.8964
102.499 825 28.7228
102.616 678 26.0384
102.733 593 24.3516
102.851 702 26.4953
102.968 912 30.1993
103.085 900 30
103.202 919 30.315
103.319 941 30.6757
103.436 944 30.7246
103.552 917 30.282
103.669 990 31.4643
103.786 979 31.289
103.903 1004 31.686
104.02 977 31.257
104.137 954 30.8869
104.253 989 31.4484
104.37 971 31.1609
104.487 965 31.0644
104.603 1013 31.8277
104.72 943 30.7083
104.836 1026 32.0312
104.953 952 30.8545
105.069 981 31.3209
105.186 1023 31.9844
105.302 956 30.9192
105.418 1041 32.2645
105.535 1023 31.9844
105.651 1024 32
105.767 1001 31.6386
105.883 949 30.8058
105.999 825 28.7228
106.115 0 1
106.231 0 1
106.347 0 1
106.463 0 1
106.579 0 1
106.694 0 1
106.81 0 1
106.926 0 1
107.041 0 1
107.157 0 1
109.576 0 1
109.692 0 1
109.807 0 1
109.923 0 1
110.039 0 1
110.155 0 1
110.27 0 1
110.386 0 1
110.502 0 1
110.618 768 27.7128
110.735 820 28.6356
110.851 767 27.6948
110.967 761 27.5862
111.083 681 26.096
111.199 632 25.1396
111.316 612 24.7386
111.432 683 26.1343
111.549 721 26.8514
111.665 744 27.2764
111.782 752 27.4226
111.898 677 26.0192
112.015 694 26.3439
112.132 702 26.4953
112.248 662 25.7294
112.365 708 26.6083
112.482 665 25.7876
112.599 687 26.2107
112.716 710 26.6458
112.832 618 24.8596
112.949 641 25.318
113.066 664 25.7682
113.183 608 24.6577
113.3 602 24.5357
113.417 598 24.454
113.534 624 24.98
113.652 612 24.7386
113.769 588 24.2487
113.886 577 24.0208
114.003 626 25.02
114.12 574 23.9583
114.238 572 23.9165
114.355 567 23.8118
114.472 567 23.8118
114.589 572 23.9165
114.707 519 22.7816
114.824 517 22.7376
114.942 516 22.7156
115.059 536 23.1517
115.176 516 22.7156
115.294 527 22.9565
115.411 581 24.1039
115.529 583 24.1454
115.646 567 23.8118
115.764 526 22.9347
115.881 559 23.6432
115.999 527 22.9565
116.116 543 23.3024
116.234 571 23.8956
116.351 531 23.0434
116.469 568 23.8328
116.586 557 23.6008
116.704 571 23.8956
116.821 536 23.1517
116.939 551 23.4734
117.056 592 24.3311
117.174 501 22.383
117.291 532 23.0651
117.409 517 22.7376
117.526 541 23.2594
117.644 577 24.0208
117.761 517 22.7376
117.879 475 21.7945
117.996 455 21.3307
118.114 439 20.9523
118.231 486 22.0454
118.349 531 23.0434
118.466 504 22.4499
118.584 556 23.5797
118.701 558 23.622
118.819 522 22.8473
118.936 537 23.1733
119.053 601 24.5153
119.171 580 24.0832
119.288 571 23.8956
119.405 534 23.1084
119.523 515 22.6936
119.64 567 23.8118
119.757 613 24.7588
119.875 602 24.5357
119.992 580 24.0832
120.109 587 24.2281
120.226 572 23.9165
120.343 587 24.2281
120.46 567 23.8118
120.578 602 24.5357
120.695 535 23.1301
120.812 561 23.6854
120.929 570 23.8747
121.046 519 22.7816
121.163 583 24.1454
121.279 566 23.7908
121.396 531 23.0434
121.513 539 23.2164
121.63 462 21.4942
121.747 431 20.7605
121.863 395 19.8746
121.98 498 22.3159
122.097 588 24.2487
122.213 613 24.7588
122.33 634 25.1794
122.446 585 24.1868
122.563 632 25.1396
122.679 628 25.0599
122.795 671 25.9037
122.912 630 25.0998
123.028 620 24.8998
123.144 639 25.2784
123.26 623 24.96
123.377 0 1
123.493 0 1
123.609 0 1
123.725 0 1
123.84 0 1
123.956 0 1
124.072 0 1
124.188 0 1
124.303 0 1
124.419 0 1
126.852 0 1
126.968 0 1
127.083 0 1
127.199 0 1
127.315 0 1
127.431 0 1
127.547 0 1
127.663 0 1
127.779 0 1
127.895 0 1
128.011 0 1
128.127 0 1
128.243 0 1
128.359 767 27.6948
128.476 786 28.0357
128.592 773 27.8029
128.708 787 28.0535
128.825 808 28.4253
128.941 773 27.8029
129.058 844 29.0517
129.174 805 28.3725
129.291 813 28.5132
129.408 801 28.3019
129.524 781 27.9464
129.641 819 28.6182
129.758 813 28.5132
129.875 813 28.5132
129.992 877 29.6142
130.108 804 28.3549
130.225 816 28.5657
130.342 719 26.8142
130.459 713 26.7021
130.576 643 25.3574
130.693 504 22.4499
130.81 530 23.0217
130.928 573 23.9374
131.045 696 26.3818
131.162 815 28.5482
131.279 832 28.8444
131.396 852 29.189
131.513 824 28.7054
131.631 903 30.05
131.748 816 28.5657
131.865 829 28.7924
131.983 911 30.1828
132.1 815 28.5482
132.217 839 28.9655
132.335 841 29
132.452 833 28.8617
132.57 800 28.2843
132.687 849 29.1376
132.804 913 30.2159
132.922 913 30.2159
133.039 892 29.8664
133.157 859 29.3087
133.274 843 29.0345
133.392 872 29.5296
133.509 867 29.4449
133.627 812 28.4956
133.744 868 29.4618
133.862 785 28.0179
133.979 713 26.7021
134.097 712 26.6833
134.214 668 25.8457
134.332 656 25.6125
134.449 606 24.6171
134.567 719 26.8142
134.684 741 27.2213
134.802 802 28.3196
134.919 919 30.315
135.037 915 30.249
135.154 942 30.692
135.272 926 30.4302
135.389 939 30.6431
135.507 946 30.7571
135.624 994 31.5278
135.742 945 30.7409
135.859 937 30.6105
135.977 961 31
136.094 975 31.225
136.211 856 29.2575
136.329 968 31.1127
136.446 936 30.5941
136.564 986 31.4006
136.681 987 31.4166
136.798 941 30.6757
136.915 941 30.6757
137.033 981 31.3209
137.15 958 30.9516
137.267 1006 31.7175
137.384 926 30.4302
137.502 884 29.7321
137.619 833 28.8617
137.736 769 27.7308
137.853 703 26.5141
137.97 701 26.4764
138.087 726 26.9444
138.204 800 28.2843
138.321 787 28.0535
138.438 915 30.249
138.555 994 31.5278
138.672 991 31.4802
138.788 1086 32.9545
138.905 1008 31.749
139.022 1051 32.4191
139.139 1124 33.5261
139.255 1041 32.2645
139.372 983 31.3528
139.488 1128 33.5857
139.605 1034 32.1559
139.721 1018 31.9061
139.838 1074 32.7719
139.954 1056 32.4962
140.071 1082 32.8938
140.187 1007 31.7333
140.303 1032 32.1248
140.419 1094 33.0757
140.535 1062 32.5883
140.652 995 31.5436
140.768 0 1
140.884 0 1
141 0 1
141.115 0 1
141.231 0 1
141.347 0 1
141.463 0 1
141.578 0 1
141.694 0 1
144.104 0 1
144.219 0 1
144.335 0 1
144.45 0 1
144.566 0 1
144.682 0 1
144.798 0 1
144.914 0 1
145.03 0 1
145.146 976 31.241
145.262 1022 31.9687
145.378 1036 32.187
145.494 1032 32.1248
145.61 972 31.1769
145.726 1039 32.2335
145.842 1034 32.1559
145.959 1010 31.7805
146.075 967 31.0966
146.192 899 29.9833
146.308 815 28.5482
146.425 824 28.7054
146.541 798 28.2489
146.658 845 29.0689
146.774 813 28.5132
146.891 854 29.2233
147.008 906 30.0998
147.125 926 30.4302
147.241 928 30.4631
147.358 978 31.273
147.475 967 31.0966
147.592 1031 32.1092
147.709 1006 31.7175
147.826 971 31.1609
147.943 1000 31.6228
148.06 1046 32.3419
148.177 1016 31.8748
148.294 1012 31.8119
148.411 1023 31.9844
148.528 1043 32.2955
148.645 978 31.273
148.762 1031 32.1092
148.88 963 31.0322
148.997 964 31.0483
149.114 1044 32.311
149.231 989 31.4484
149.349 997 31.5753
149.466 950 30.8221
149.583 954 30.8869
149.701 897 29.95
149.818 897 29.95
149.935 810 28.4605
150.053 791 28.1247
150.17 784 28
150.287 853 29.2062
150.405 822 28.6705
150.522 835 28.8964
150.64 921 30.348
150.757 919 30.315
150.875 881 29.6816
150.992 976 31.241
151.11 969 31.1288
151.227 1026 32.0312
151.344 1014 31.8434
151.462 987 31.4166
151.579 1041 32.2645
151.697 999 31.607
151.814 1029 32.078
151.932 1051 32.4191
152.049 1044 32.311
152.167 994 31.5278
152.284 1040 32.249
152.402 1018 31.9061
152.519 1006 31.7175
152.636 989 31.4484
152.754 1053 32.45
152.871 967 31.0966
152.989 993 31.5119
153.106 1014 31.8434
153.223 952 30.8545
153.341 920 30.3315
153.458 879 29.6479
153.575 876 29.5973
153.693 880 29.6648
153.81 810 28.4605
153.927 879 29.6479
154.044 884 29.7321
154.162 934 30.5614
154.279 979 31.289
154.396 987 31.4166
154.513 1048 32.3728
154.63 995 31.5436
154.747 1107 33.2716
154.864 1126 33.5559
154.981 1099 33.1512
155.098 1093 33.0606
155.215 1110 33.3167
155.332 1058 32.5269
155.449 1048 32.3728
155.566 1005 31.7017
155.683 1100 33.1662
155.8 1103 33.2114
155.917 1066 32.6497
156.033 1098 33.1361
156.15 0 1
156.267 0 1
156.383 0 1
156.5 0 1
156.617 0 1
156.733 0 1
156.85 0 1
156.966 0 1
157.082 0 1
157.199 0 1
157.315 0 1
157.431 0 1
157.547 0 1
157.664 0 1
157.78 0 1
157.896 0 1
158.012 0 1
158.128 0 1
158.244 0 1
158.359 0 1
158.475 0 1
158.591 0 1
158.706 0 1
