
6.15755 0 1
6.2731 0 1
6.3887 0 1
6.50437 0 1
6.62009 0 1
6.73587 0 1
6.8517 0 1
6.96759 0 1
7.08353 0 1
7.19952 0 1
7.31557 0 1
7.43166 0 1
7.54781 0 1
7.664 0 1
7.78024 0 1
7.89653 0 1
8.01286 0 1
8.12924 0 1
8.24567 0 1
8.36213 0 1
8.47864 0 1
8.59519 0 1
8.71178 0 1
8.82841 0 1
8.94508 0 1
9.06179 0 1
9.17853 0 1
9.29531 0 1
9.41212 0 1
9.52897 0 1
9.64584 0 1
9.76276 0 1
9.8797 0 1
9.99667 0 1
10.1137 0 1
10.2307 0 1
10.3478 0 1
10.4648 0 1
10.5819 0 1
10.6991 0 1
10.8162 0 1
10.9334 0 1
11.0506 0 1
11.1678 0 1
11.285 0 1
11.4023 0 1
11.5196 0 1
11.6369 0 1
11.7542 0 1
11.8715 0 1
11.9888 0 1
12.1062 0 1
12.2235 0 1
12.3409 0 1
12.4582 0 1
12.5756 0 1
12.693 0 1
12.8104 0 1
12.9278 0 1
13.0452 0 1
13.1626 0 1
13.28 0 1
13.3974 0 1
13.5149 0 1
13.6323 0 1
13.7497 0 1
13.8671 0 1
13.9845 0 1
14.1019 0 1
14.2193 0 1
14.3367 0 1
14.4541 0 1
14.5714 0 1
14.6888 0 1
14.8062 0 1
14.9235 0 1
15.0408 0 0
15.1581 0 0
15.2755 0 0
15.3927 0 0
15.51 0 0
15.6273 0 0
15.7445 0 0
15.8617 0 0
15.9789 0 0
16.0961 0 0
16.2132 0 0
16.3304 0 0
16.4475 0 0
16.5646 0 0
16.6816 0 0
16.7986 0 0
16.9156 0 0
17.0326 0 0
17.1496 0 0
17.2665 0 0
17.3833 0 0
17.5002 0 0
17.617 0 0
17.7338 0 0
17.8505 0 0
17.9672 0 0
18.0839 0 0
18.2005 0 0
18.3171 0 0
18.4337 0 0
18.5502 0 0
18.6666 0 0
18.7831 0 0
18.8994 0 0
19.0158 0 0
19.1321 0 0
19.2483 0 0
19.3645 0 0
19.4806 0 0
19.5967 0 0
19.7128 0 0
19.8288 0 0
19.9447 0 0
20.0606 0 1
20.1764 0 1
20.2922 0 1
20.4079 0 1
20.5236 0 1
20.6392 0 1
20.7548 0 1
20.8702 0 1
23.3078 0 1
23.4233 0 1
23.539 0 1
23.6547 0 1
23.7704 0 1
23.8862 0 1
24.0021 0 1
24.118 0 1
24.234 0 1
24.35 0 1
24.4661 1740 41.7133
24.5822 1702 41.2553
24.6984 1726 41.5452
24.8146 1806 42.4971
24.9309 1802 42.45
25.0472 1642 40.5216
25.1636 1583 39.7869
25.28 1579 39.7366
25.3965 1580 39.7492
25.513 1567 39.5854
25.6296 1716 41.4246
25.7462 1936 44
25.8628 1918 43.795
25.9795 1888 43.4511
26.0962 2106 45.8912
26.213 2005 44.7772
26.3298 1940 44.0454
26.4466 1931 43.9431
26.5635 1855 43.0697
26.6804 1921 43.8292
26.7973 1858 43.1045
26.9143 1806 42.4971
27.0313 1771 42.0833
27.1483 1878 43.3359
27.2653 1934 43.9773
27.3824 1950 44.1588
27.4996 1899 43.5775
27.6167 1959 44.2606
27.7339 1783 42.2256
27.8511 1966 44.3396
27.9683 1930 43.9318
28.0855 1866 43.1972
28.2028 1833 42.8135
28.3201 1809 42.5323
28.4374 1803 42.4617
28.5547 1678 40.9634
28.6721 1571 39.6358
28.7894 1631 40.3856
28.9068 1563 39.5348
29.0242 1574 39.6737
29.1416 1597 39.9625
29.259 1761 41.9643
29.3764 1903 43.6234
29.4939 1926 43.8862
29.6113 1853 43.0465
29.7288 1904 43.6348
29.8463 1934 43.9773
29.9638 1842 42.9185
30.0812 1766 42.0238
30.1987 1761 41.9643
30.3162 1790 42.3084
30.4337 1755 41.8927
30.5512 1783 42.2256
30.6687 1874 43.2897
30.7862 1968 44.3621
30.9037 1885 43.4166
31.0212 1936 44
31.1387 1916 43.7721
31.2562 1961 44.2832
31.3737 1911 43.715
31.4912 1925 43.8748
31.6087 1888 43.4511
31.7262 1911 43.715
31.8436 1865 43.1856
31.9611 1817 42.6263
32.0785 1775 42.1307
32.1959 1598 39.975
32.3134 1543 39.281
32.4308 1548 39.3446
32.5482 1584 39.7995
32.6655 1596 39.95
32.7829 1877 43.3244
32.9002 1845 42.9535
33.0176 1875 43.3013
33.1349 1875 43.3013
33.2522 1929 43.9204
33.3694 1869 43.2319
33.4867 1916 43.7721
33.6039 1889 43.4626
33.7211 1804 42.4735
33.8383 1771 42.0833
33.9554 1715 41.4126
34.0725 1684 41.0366
34.1896 1699 41.2189
34.3067 1770 42.0714
34.4237 1914 43.7493
34.5407 1846 42.9651
34.6577 1949 44.1475
34.7746 1896 43.5431
34.8915 1873 43.2782
35.0084 1901 43.6005
35.1252 1860 43.1277
35.242 1886 43.4281
35.3587 1931 43.9431
35.4755 1824 42.7083
35.5921 1844 42.9418
35.7088 1784 42.2374
35.8254 1578 39.724
35.9419 1523 39.0256
36.0584 1514 38.9102
36.1749 1580 39.7492
36.2913 1499 38.7169
36.4077 1641 40.5093
36.524 1722 41.497
36.6403 1832 42.8019
36.7565 1830 42.7785
36.8727 1855 43.0697
36.9889 1827 42.7434
37.1049 1714 41.4005
37.221 0 1
37.3369 0 1
37.4529 0 1
37.5687 0 1
37.6845 0 1
37.8003 0 1
37.916 0 1
38.0316 0 1
38.1472 0 1
40.5851 0 1
40.7008 0 1
40.8164 0 1
40.9322 0 1
41.048 0 1
41.1639 0 1
41.2798 0 1
41.3958 0 1
41.5118 0 1
41.6279 0 1
41.744 1390 37.2827
41.8602 1465 38.2753
41.9765 1455 38.1445
42.0928 1500 38.7298
42.2091 1590 39.8748
42.3255 1504 38.7814
42.4419 1491 38.6135
42.5584 1430 37.8153
42.675 1399 37.4032
42.7915 1314 36.2491
42.9081 1382 37.1753
43.0248 1432 37.8418
43.1415 1434 37.8682
43.2582 1501 38.7427
43.375 1609 40.1123
43.4918 1610 40.1248
43.6087 1519 38.9744
43.7256 1588 39.8497
43.8425 1544 39.2938
43.9595 1472 38.3667
44.0765 1481 38.4838
44.1935 1467 38.3014
44.3106 1430 37.8153
44.4277 1393 37.3229
44.5448 1314 36.2491
44.6619 1206 34.7275
44.7791 1217 34.8855
44.8963 1142 33.7935
45.0136 1183 34.3948
45.1308 1106 33.2566
45.2481 1207 34.7419
45.3654 1273 35.6791
45.4827 1194 34.5543
45.6001 1226 35.0143
45.7174 1251 35.3695
45.8348 1224 34.9857
45.9522 1117 33.4215
46.0697 1152 33.9411
46.1871 1027 32.0468
46.3046 1070 32.7109
46.422 970 31.1448
46.5395 1038 32.218
46.657 1117 33.4215
46.7745 1130 33.6155
46.892 1159 34.0441
47.0096 1176 34.2929
47.1271 1164 34.1174
47.2446 1219 34.9142
47.3622 1212 34.8138
47.4797 1129 33.6006
47.5973 1117 33.4215
47.7149 1135 33.6898
47.8324 1120 33.4664
47.95 1105 33.2415
48.0675 1024 32
48.1851 956 30.9192
48.3027 876 29.5973
48.4202 904 30.0666
48.5378 897 29.95
48.6554 1043 32.2955
48.7729 994 31.5278
48.8904 1014 31.8434
49.008 1000 31.6228
49.1255 1071 32.7261
49.243 1106 33.2566
49.3605 936 30.5941
49.478 986 31.4006
49.5955 876 29.5973
49.713 861 29.3428
49.8304 822 28.6705
49.9479 883 29.7153
50.0653 956 30.9192
50.1827 962 31.0161
50.3001 1014 31.8434
50.4175 1051 32.4191
50.5348 1162 34.0881
50.6521 1120 33.4664
50.7694 1167 34.1614
50.8867 1180 34.3511
51.004 1197 34.5977
51.1212 1236 35.1568
51.2384 1226 35.0143
51.3556 1227 35.0286
51.4727 1219 34.9142
51.5899 1155 33.9853
51.707 1142 33.7935
51.824 1097 33.121
51.9411 1093 33.0606
52.0581 1139 33.7491
52.175 1247 35.3129
52.2919 1333 36.5103
52.4088 1374 37.0675
52.5257 1331 36.4829
52.6425 1391 37.2961
52.7593 1358 36.8511
52.876 1367 36.973
52.9927 1342 36.6333
53.1094 1296 36
53.226 1234 35.1283
53.3426 1209 34.7707
53.4591 1152 33.9411
53.5756 1214 34.8425
53.692 1355 36.8103
53.8084 1401 37.4299
53.9248 1489 38.5876
54.0411 1563 39.5348
54.1573 1541 39.2556
54.2735 0 1
54.3896 0 1
54.5057 0 1
54.6217 0 1
54.7377 0 1
54.8537 0 1
54.9695 0 1
55.0853 0 1
55.2011 0 1
55.3168 0 1
55.4324 0 1
57.824 0 1
57.9396 0 1
58.0553 0 1
58.1711 0 1
58.2869 0 1
58.4028 0 1
58.5187 0 1
58.6347 0 1
58.7508 0 1
58.8669 0 1
58.983 1524 39.0384
59.0992 1773 42.107
59.2155 1831 42.7902
59.3318 1844 42.9418
59.4482 1886 43.4281
59.5646 1873 43.2782
59.681 1913 43.7379
59.7975 1898 43.566
59.9141 1839 42.8836
60.0306 1755 41.8927
60.1473 1697 41.1947
60.2639 1552 39.3954
60.3807 1482 38.4968
60.4974 1521 39
60.6142 1539 39.2301
60.731 1546 39.3192
60.8479 1548 39.3446
60.9648 1639 40.4846
61.0818 1659 40.7308
61.1987 1674 40.9145
61.3158 1637 40.4599
61.4328 1564 39.5474
61.5499 1689 41.0974
61.667 1504 38.7814
61.7841 1394 37.3363
61.9013 1395 37.3497
62.0185 1398 37.3898
62.1357 1448 38.0526
62.253 1548 39.3446
62.3702 1666 40.8167
62.4875 1798 42.4028
62.6049 1774 42.1189
62.7222 1963 44.3058
62.8396 1965 44.3283
62.9569 1990 44.6094
63.0743 2031 45.0666
63.1918 1968 44.3621
63.3092 1990 44.6094
63.4267 1902 43.6119
63.5441 1852 43.0349
63.6616 1830 42.7785
63.7791 1661 40.7554
63.8966 1619 40.2368
64.0142 1680 40.9878
64.1317 1748 41.8091
64.2492 1747 41.7971
64.3668 1740 41.7133
64.4843 1756 41.9047
64.6019 1809 42.5323
64.7195 1824 42.7083
64.837 1884 43.4051
64.9546 1818 42.638
65.0722 1641 40.5093
65.1898 1516 38.9358
65.3074 1480 38.4708
65.4249 1357 36.8375
65.5425 1392 37.3095
65.6601 1353 36.7831
65.7777 1437 37.9078
65.8952 1602 40.025
66.0128 1774 42.1189
66.1304 1725 41.5331
66.2479 1752 41.8569
66.3655 1852 43.0349
66.483 1824 42.7083
66.6005 1887 43.4396
66.718 1914 43.7493
66.8355 1791 42.3202
66.953 1815 42.6028
67.0705 1679 40.9756
67.1879 1729 41.5812
67.3054 1554 39.4208
67.4228 1411 37.5633
67.5402 1476 38.4187
67.6576 1434 37.8682
67.7749 1457 38.1707
67.8923 1531 39.128
68.0096 1535 39.1791
68.1269 1548 39.3446
68.2442 1507 38.8201
68.3614 1608 40.0999
68.4787 1611 40.1373
68.5958 1520 38.9872
68.713 1483 38.5097
68.8302 1341 36.6197
68.9473 1228 35.0428
69.0643 1129 33.6006
69.1814 1057 32.5115
69.2984 1197 34.5977
69.4154 1301 36.0694
69.5323 1458 38.1838
69.6492 1545 39.3065
69.7661 1624 40.2989
69.8829 1692 41.1339
69.9997 1685 41.0488
70.1165 1766 42.0238
70.2332 1816 42.6146
70.3499 1790 42.3084
70.4665 1711 41.3642
70.5831 1772 42.0951
70.6996 1598 39.975
70.8161 1568 39.598
70.9326 1498 38.704
71.049 1373 37.054
71.1653 1287 35.8748
71.2817 1296 36
71.3979 1407 37.51
71.5141 1430 37.8153
71.6303 1378 37.1214
71.7464 1292 35.9444
71.8624 0 1
71.9784 0 1
72.0944 0 1
72.2102 0 1
72.3261 0 1
72.4418 0 1
72.5575 0 1
72.6732 0 1
75.1054 0 1
75.2209 0 1
75.3365 0 1
75.4521 0 1
75.5678 0 1
75.6835 0 1
75.7993 0 1
75.9151 0 1
76.031 0 1
76.147 1385 37.2156
76.263 1453 38.1182
76.3791 1401 37.4299
76.4952 1386 37.229
76.6113 1409 37.5366
76.7276 1455 38.1445
76.8438 1506 38.8072
76.9601 1498 38.704
77.0765 1505 38.7943
77.1929 1527 39.0768
77.3093 1556 39.4462
77.4258 1614 40.1746
77.5423 1616 40.1995
77.6589 1538 39.2173
77.7755 1303 36.0971
77.8921 1209 34.7707
78.0088 1061 32.573
78.1256 1016 31.8748
78.2423 1040 32.249
78.3591 1145 33.8378
78.4759 1276 35.7211
78.5928 1335 36.5377
78.7097 1585 39.8121
78.8266 1565 39.5601
78.9436 1618 40.2244
79.0606 1754 41.8808
79.1776 1628 40.3485
79.2946 1680 40.9878
79.4117 1799 42.4146
79.5288 1614 40.1746
79.6459 1620 40.2492
79.7631 1526 39.064
79.8802 1389 37.2693
79.9974 1363 36.9188
80.1147 1346 36.6879
80.2319 1302 36.0832
80.3491 1411 37.5633
80.4664 1367 36.973
80.5837 1388 37.2559
80.701 1410 37.55
80.8183 1387 37.2424
80.9357 1374 37.0675
81.053 1403 37.4566
81.1704 1478 38.4448
81.2877 1377 37.108
81.4051 1318 36.3043
81.5225 1054 32.4654
81.6399 946 30.7571
81.7573 946 30.7571
81.8747 925 30.4138
81.9922 961 31
82.1096 1178 34.322
82.227 1305 36.1248
82.3444 1373 37.054
82.4619 1443 37.9868
82.5793 1528 39.0896
82.6967 1472 38.3667
82.8142 1478 38.4448
82.9316 1541 39.2556
83.049 1507 38.8201
83.1664 1507 38.8201
83.2838 1432 37.8418
83.4012 1372 37.0405
83.5186 1265 35.5668
83.636 1152 33.9411
83.7534 1208 34.7563
83.8708 1220 34.9285
83.9881 1255 35.426
84.1055 1232 35.0999
84.2228 1299 36.0416
84.3401 1269 35.623
84.4575 1342 36.6333
84.5747 1359 36.8646
84.692 1367 36.973
84.8093 1277 35.7351
84.9265 1250 35.3553
85.0437 1067 32.665
85.1609 926 30.4302
85.2781 870 29.4958
85.3952 796 28.2135
85.5123 855 29.2404
85.6294 1055 32.4808
85.7465 1192 34.5254
85.8636 1316 36.2767
85.9806 1456 38.1576
86.0976 1536 39.1918
86.2145 1593 39.9124
86.3315 1693 41.1461
86.4484 1599 39.9875
86.5652 1618 40.2244
86.682 1641 40.5093
86.7988 1615 40.1871
86.9156 1473 38.3797
87.0323 1435 37.8814
87.149 1415 37.6165
87.2657 1394 37.3363
87.3823 1449 38.0657
87.4988 1454 38.1314
87.6154 1466 38.2884
87.7318 1455 38.1445
87.8483 1387 37.2424
87.9647 1490 38.6005
88.081 1514 38.9102
88.1973 1548 39.3446
88.3136 1537 39.2046
88.4298 1492 38.6264
88.546 1240 35.2136
88.6621 1130 33.6155
88.7781 1053 32.45
88.8942 0 1
89.0101 0 1
89.126 0 1
89.2419 0 1
89.3577 0 1
89.4734 0 1
89.5891 0 1
89.7047 0 1
89.8203 0 1
89.9358 0 1
92.3269 0 1
92.4424 0 1
92.558 0 1
92.6736 0 1
92.7893 0 1
92.905 0 1
93.0208 0 1
93.1366 0 1
93.2525 0 1
93.3685 0 1
93.4845 0 1
93.6005 1475 38.4057
93.7167 1623 40.2865
93.8328 1506 38.8072
93.949 1348 36.7151
94.0653 1198 34.6121
94.1816 1124 33.5261
94.2979 1016 31.8748
94.4143 1017 31.8904
94.5307 1048 32.3728
94.6472 1115 33.3916
94.7637 1252 35.3836
94.8803 1489 38.5876
94.9969 1635 40.4351
95.1135 1656 40.694
95.2302 1685 41.0488
95.3469 1689 41.0974
95.4637 1762 41.9762
95.5805 1789 42.2966
95.6973 1850 43.0116
95.8142 1810 42.5441
95.9311 1782 42.2137
96.048 1663 40.7799
96.1649 1635 40.4351
96.2819 1641 40.5093
96.3989 1591 39.8873
96.516 1596 39.95
96.633 1679 40.9756
96.7501 1632 40.398
96.8673 1588 39.8497
96.9844 1666 40.8167
97.1016 1643 40.5339
97.2188 1629 40.3609
97.336 1652 40.6448
97.4532 1642 40.5216
97.5704 1567 39.5854
97.6877 1473 38.3797
97.805 1214 34.8425
97.9223 1074 32.7719
98.0396 986 31.4006
98.1569 1043 32.2955
98.2743 1005 31.7017
98.3916 1310 36.1939
98.509 1454 38.1314
98.6264 1595 39.9375
98.7438 1706 41.3038
98.8612 1791 42.3202
98.9786 1835 42.8369
99.096 1853 43.0465
99.2134 1835 42.8369
99.3308 1919 43.8064
99.4482 1835 42.8369
99.5656 1821 42.6732
99.6831 1779 42.1782
99.8005 1702 41.2553
99.9179 1726 41.5452
100.035 1684 41.0366
100.153 1707 41.3159
100.27 1603 40.0375
100.388 1545 39.3065
100.505 1618 40.2244
100.622 1664 40.7922
100.74 1643 40.5339
100.857 1725 41.5331
100.975 1798 42.4028
101.092 1695 41.1704
101.209 1590 39.8748
101.327 1346 36.6879
101.444 1217 34.8855
101.561 1088 32.9848
101.679 961 31
101.796 1014 31.8434
101.913 1191 34.5109
102.03 1465 38.2753
102.148 1685 41.0488
102.265 1801 42.4382
102.382 1949 44.1475
102.499 1916 43.7721
102.616 1880 43.359
102.733 1920 43.8178
102.851 1918 43.795
102.968 1915 43.7607
103.085 2023 44.9778
103.202 1905 43.6463
103.319 1852 43.0349
103.436 1755 41.8927
103.552 1765 42.0119
103.669 1792 42.332
103.786 1771 42.0833
103.903 1750 41.833
104.02 1746 41.7852
104.137 1806 42.4971
104.253 1773 42.107
104.37 1845 42.9535
104.487 1852 43.0349
104.603 1725 41.5331
104.72 1553 39.4081
104.836 1367 36.973
104.953 1191 34.5109
105.069 1114 33.3766
105.186 1061 32.573
105.302 1200 34.641
105.418 1359 36.8646
105.535 1676 40.939
105.651 1810 42.5441
105.767 1908 43.6807
105.883 1955 44.2154
105.999 2046 45.2327
106.115 0 1
106.231 0 1
106.347 0 1
106.463 0 1
106.579 0 1
106.694 0 1
106.81 0 1
106.926 0 1
107.041 0 1
107.157 0 1
109.576 0 1
109.692 0 1
109.807 0 1
109.923 0 1
110.039 0 1
110.155 0 1
110.27 0 1
110.386 0 1
110.502 0 1
110.618 1585 39.8121
110.735 1747 41.7971
110.851 1880 43.359
110.967 1922 43.8406
111.083 2052 45.299
111.199 1868 43.2204
111.316 2007 44.7996
111.432 1948 44.1362
111.549 1929 43.9204
111.665 1950 44.1588
111.782 1877 43.3244
111.898 1812 42.5676
112.015 1763 41.9881
112.132 1827 42.7434
112.248 1759 41.9404
112.365 1798 42.4028
112.482 1679 40.9756
112.599 1753 41.8688
112.716 1809 42.5323
112.832 1658 40.7185
112.949 1765 42.0119
113.066 1728 41.5692
113.183 1744 41.7612
113.3 1562 39.5221
113.417 1320 36.3318
113.534 1168 34.176
113.652 1078 32.8329
113.769 1042 32.28
113.886 1093 33.0606
114.003 1209 34.7707
114.12 1461 38.223
114.238 1659 40.7308
114.355 1762 41.9762
114.472 1799 42.4146
114.589 1915 43.7607
114.707 1808 42.5206
114.824 1796 42.3792
114.942 1868 43.2204
115.059 1949 44.1475
115.176 1882 43.382
115.294 1792 42.332
115.411 1830 42.7785
115.529 1745 41.7732
115.646 1706 41.3038
115.764 1718 41.4488
115.881 1685 41.0488
115.999 1691 41.1218
116.116 1658 40.7185
116.234 1662 40.7676
116.351 1729 41.5812
116.469 1714 41.4005
116.586 1761 41.9643
116.704 1601 40.0125
116.821 1569 39.6106
116.939 1368 36.9865
117.056 1212 34.8138
117.174 1118 33.4365
117.291 1058 32.5269
117.409 1051 32.4191
117.526 1228 35.0428
117.644 1384 37.2022
117.761 1609 40.1123
117.879 1670 40.8656
117.996 1722 41.497
118.114 1766 42.0238
118.231 1777 42.1545
118.349 1853 43.0465
118.466 1867 43.2088
118.584 1823 42.6966
118.701 1842 42.9185
118.819 1814 42.5911
118.936 1797 42.391
119.053 1766 42.0238
119.171 1698 41.2068
119.288 1716 41.4246
119.405 1689 41.0974
119.523 1638 40.4722
119.64 1579 39.7366
119.757 1648 40.5956
119.875 1715 41.4126
119.992 1590 39.8748
120.109 1674 40.9145
120.226 1645 40.5586
120.343 1514 38.9102
120.46 1523 39.0256
120.578 1459 38.1969
120.695 1241 35.2278
120.812 1212 34.8138
120.929 1114 33.3766
121.046 1091 33.0303
121.163 1109 33.3017
121.279 1228 35.0428
121.396 1444 38
121.513 1595 39.9375
121.63 1651 40.6325
121.747 1680 40.9878
121.863 1710 41.3521
121.98 1702 41.2553
122.097 1723 41.509
122.213 1730 41.5933
122.33 1737 41.6773
122.446 1727 41.5572
122.563 1728 41.5692
122.679 1733 41.6293
122.795 1693 41.1461
122.912 1662 40.7676
123.028 1616 40.1995
123.144 1626 40.3237
123.26 1499 38.7169
123.377 0 1
123.493 0 1
123.609 0 1
123.725 0 1
123.84 0 1
123.956 0 1
124.072 0 1
124.188 0 1
124.303 0 1
124.419 0 1
126.852 0 1
126.968 0 1
127.083 0 1
127.199 0 1
127.315 0 1
127.431 0 1
127.547 0 1
127.663 0 1
127.779 0 1
127.895 0 1
128.011 0 1
128.127 0 1
128.243 0 1
128.359 1904 43.6348
128.476 1728 41.5692
128.592 1819 42.6497
128.708 1797 42.391
128.825 1802 42.45
128.941 1808 42.5206
129.058 1852 43.0349
129.174 1876 43.3128
129.291 1771 42.0833
129.408 1728 41.5692
129.524 1516 38.9358
129.641 1376 37.0945
129.758 1327 36.428
129.875 1274 35.6931
129.992 1223 34.9714
130.108 1217 34.8855
130.225 1408 37.5233
130.342 1613 40.1622
130.459 1679 40.9756
130.576 1811 42.5558
130.693 1853 43.0465
130.81 1868 43.2204
130.928 1845 42.9535
131.045 1998 44.699
131.162 2033 45.0888
131.279 2029 45.0444
131.396 2015 44.8888
131.513 1985 44.5533
131.631 1995 44.6654
131.748 1966 44.3396
131.865 1937 44.0114
131.983 1942 44.0681
132.1 1936 44
132.217 1881 43.3705
132.335 1906 43.6578
132.452 1955 44.2154
132.57 1902 43.6119
132.687 1834 42.8252
132.804 1865 43.1856
132.922 1859 43.1161
133.039 1657 40.7063
133.157 1501 38.7427
133.274 1405 37.4833
133.392 1347 36.7015
133.509 1274 35.6931
133.627 1226 35.0143
133.744 1287 35.8748
133.862 1539 39.2301
133.979 1668 40.8412
134.097 1705 41.2916
134.214 1763 41.9881
134.332 1764 42
134.449 1914 43.7493
134.567 1949 44.1475
134.684 2049 45.2659
134.802 2098 45.8039
134.919 2066 45.4533
135.037 1920 43.8178
135.154 2044 45.2106
135.272 2067 45.4643
135.389 1988 44.587
135.507 1922 43.8406
135.624 1947 44.1248
135.742 1940 44.0454
135.859 1942 44.0681
135.977 1894 43.5201
136.094 1923 43.852
136.211 1853 43.0465
136.329 1836 42.8486
136.446 1807 42.5088
136.564 1803 42.4617
136.681 1580 39.7492
136.798 1435 37.8814
136.915 1408 37.5233
137.033 1359 36.8646
137.15 1320 36.3318
137.267 1265 35.5668
137.384 1335 36.5377
137.502 1488 38.5746
137.619 1562 39.5221
137.736 1560 39.4968
137.853 1693 41.1461
137.97 1820 42.6615
138.087 1868 43.2204
138.204 1963 44.3058
138.321 1945 44.1022
138.438 2074 45.5412
138.555 2059 45.3762
138.672 2046 45.2327
138.788 2059 45.3762
138.905 2011 44.8442
139.022 1977 44.4635
139.139 2014 44.8776
139.255 1983 44.5309
139.372 1930 43.9318
139.488 2015 44.8888
139.605 1965 44.3283
139.721 1928 43.909
139.838 1935 43.9886
139.954 1922 43.8406
140.071 1936 44
140.187 1794 42.3556
140.303 1705 41.2916
140.419 1583 39.7869
140.535 1404 37.47
140.652 1398 37.3898
140.768 0 1
140.884 0 1
141 0 1
141.115 0 1
141.231 0 1
141.347 0 1
141.463 0 1
141.578 0 1
141.694 0 1
144.104 0 1
144.219 0 1
144.335 0 1
144.45 0 1
144.566 0 1
144.682 0 1
144.798 0 1
144.914 0 1
145.03 0 1
145.146 1334 36.524
145.262 1480 38.4708
145.378 1390 37.2827
145.494 1224 34.9857
145.61 1204 34.6987
145.726 1206 34.7275
145.842 1082 32.8938
145.959 1028 32.0624
146.075 1045 32.3265
146.192 1059 32.5423
146.308 1085 32.9393
146.425 1208 34.7563
146.541 1256 35.4401
146.658 1381 37.1618
146.774 1442 37.9737
146.891 1504 38.7814
147.008 1514 38.9102
147.125 1493 38.6394
147.241 1631 40.3856
147.358 1630 40.3733
147.475 1695 41.1704
147.592 1675 40.9268
147.709 1585 39.8121
147.826 1550 39.37
147.943 1556 39.4462
148.06 1492 38.6264
148.177 1581 39.7618
148.294 1566 39.5727
148.411 1562 39.5221
148.528 1487 38.5616
148.645 1558 39.4715
148.762 1561 39.5095
148.88 1594 39.9249
148.997 1506 38.8072
149.114 1470 38.3406
149.231 1428 37.7889
149.349 1338 36.5787
149.466 1343 36.647
149.583 1132 33.6452
149.701 1157 34.0147
149.818 1019 31.9218
149.935 1088 32.9848
150.053 1089 33
150.17 1138 33.7343
150.287 1269 35.623
150.405 1308 36.1663
150.522 1411 37.5633
150.64 1479 38.4578
150.757 1594 39.9249
150.875 1624 40.2989
150.992 1605 40.0625
151.11 1563 39.5348
151.227 1646 40.5709
151.344 1650 40.6202
151.462 1557 39.4588
151.579 1669 40.8534
151.697 1523 39.0256
151.814 1528 39.0896
151.932 1556 39.4462
152.049 1516 38.9358
152.167 1574 39.6737
152.284 1513 38.8973
152.402 1512 38.8844
152.519 1539 39.2301
152.636 1508 38.833
152.754 1523 39.0256
152.871 1471 38.3536
152.989 1315 36.2629
153.106 1232 35.0999
153.223 1189 34.4819
153.341 1082 32.8938
153.458 1087 32.9697
153.575 1154 33.9706
153.693 1150 33.9116
153.81 1164 34.1174
153.927 1326 36.4143
154.044 1419 37.6696
154.162 1507 38.8201
154.279 1593 39.9124
154.396 1672 40.8901
154.513 1573 39.6611
154.63 1709 41.3401
154.747 1615 40.1871
154.864 1733 41.6293
154.981 1805 42.4853
155.098 1728 41.5692
155.215 1680 40.9878
155.332 1634 40.4228
155.449 1635 40.4351
155.566 1672 40.8901
155.683 1679 40.9756
155.8 1646 40.5709
155.917 1620 40.2492
156.033 1595 39.9375
156.15 0 1
156.267 0 1
156.383 0 1
156.5 0 1
156.617 0 1
156.733 0 1
156.85 0 1
156.966 0 1
157.082 0 1
157.199 0 1
157.315 0 1
157.431 0 1
157.547 0 1
157.664 0 1
157.78 0 1
157.896 0 1
158.012 0 1
158.128 0 1
158.244 0 1
158.359 0 1
158.475 0 1
158.591 0 1
158.706 0 1
