
6.15755 0 1
6.2731 0 1
6.3887 0 1
6.50437 0 1
6.62009 0 1
6.73587 0 1
6.8517 0 1
6.96759 0 1
7.08353 0 1
7.19952 0 1
7.31557 0 1
7.43166 0 1
7.54781 0 1
7.664 0 1
7.78024 0 1
7.89653 0 1
8.01286 0 1
8.12924 0 1
8.24567 0 1
8.36213 0 1
8.47864 0 1
8.59519 0 1
8.71178 0 1
8.82841 0 1
8.94508 0 1
9.06179 0 1
9.17853 0 1
9.29531 0 1
9.41212 0 1
9.52897 0 1
9.64584 0 1
9.76276 0 1
9.8797 0 1
9.99667 0 1
10.1137 0 1
10.2307 0 1
10.3478 0 1
10.4648 0 1
10.5819 0 1
10.6991 0 1
10.8162 0 1
10.9334 0 1
11.0506 0 1
11.1678 0 1
11.285 0 1
11.4023 0 1
11.5196 0 1
11.6369 0 1
11.7542 0 1
11.8715 0 1
11.9888 0 1
12.1062 0 1
12.2235 0 1
12.3409 0 1
12.4582 0 1
12.5756 0 1
12.693 0 1
12.8104 0 1
12.9278 0 1
13.0452 0 1
13.1626 0 1
13.28 0 1
13.3974 0 1
13.5149 0 1
13.6323 0 1
13.7497 0 1
13.8671 0 1
13.9845 0 1
14.1019 0 1
14.2193 0 1
14.3367 0 1
14.4541 0 1
14.5714 0 1
14.6888 0 1
14.8062 0 1
14.9235 0 1
15.0408 0 0
15.1581 0 0
15.2755 0 0
15.3927 0 0
15.51 0 0
15.6273 0 0
15.7445 0 0
15.8617 0 0
15.9789 0 0
16.0961 0 0
16.2132 0 0
16.3304 0 0
16.4475 0 0
16.5646 0 0
16.6816 0 0
16.7986 0 0
16.9156 0 0
17.0326 0 0
17.1496 0 0
17.2665 0 0
17.3833 0 0
17.5002 0 0
17.617 0 0
17.7338 0 0
17.8505 0 0
17.9672 0 0
18.0839 0 0
18.2005 0 0
18.3171 0 0
18.4337 0 0
18.5502 0 0
18.6666 0 0
18.7831 0 0
18.8994 0 0
19.0158 0 0
19.1321 0 0
19.2483 0 0
19.3645 0 0
19.4806 0 0
19.5967 0 0
19.7128 0 0
19.8288 0 0
19.9447 0 0
20.0606 0 1
20.1764 0 1
20.2922 0 1
20.4079 0 1
20.5236 0 1
20.6392 0 1
20.7548 0 1
20.8702 0 1
23.3078 0 1
23.4233 0 1
23.539 0 1
23.6547 0 1
23.7704 0 1
23.8862 0 1
24.0021 0 1
24.118 0 1
24.234 0 1
24.35 0 1
24.4661 30892 175.761
24.5822 30969 175.98
24.6984 30945 175.912
24.8146 30712 175.248
24.9309 31446 177.33
25.0472 31293 176.898
25.1636 31756 178.202
25.28 31487 177.446
25.3965 32468 180.189
25.513 32082 179.114
25.6296 32607 180.574
25.7462 32827 181.182
25.8628 32571 180.474
25.9795 33138 182.038
26.0962 32822 181.168
26.213 32851 181.248
26.3298 32350 179.861
26.4466 31841 178.44
26.5635 29653 172.2
26.6804 27479 165.768
26.7973 26435 162.588
26.9143 27193 164.903
27.0313 28686 169.369
27.1483 30382 174.304
27.2653 31677 177.98
27.3824 32358 179.883
27.4996 32300 179.722
27.6167 32502 180.283
27.7339 31857 178.485
27.8511 31448 177.336
27.9683 31262 176.811
28.0855 30959 175.952
28.2028 31604 177.775
28.3201 31018 176.119
28.4374 31054 176.221
28.5547 31241 176.751
28.6721 31366 177.104
28.7894 31629 177.845
28.9068 31746 178.174
29.0242 31883 178.558
29.1416 31452 177.347
29.259 31718 178.095
29.3764 32036 178.986
29.4939 31407 177.22
29.6113 31805 178.34
29.7288 32089 179.134
29.8463 31443 177.322
29.9638 30212 173.816
30.0812 28573 169.035
30.1987 26292 162.148
30.3162 25543 159.822
30.4337 25798 160.618
30.5512 27681 166.376
30.6687 29406 171.482
30.7862 30336 174.172
30.9037 31256 176.794
31.0212 32241 179.558
31.1387 32296 179.711
31.2562 31879 178.547
31.3737 31810 178.354
31.4912 31604 177.775
31.6087 31481 177.429
31.7262 31269 176.83
31.8436 31010 176.097
31.9611 31372 177.121
32.0785 31617 177.812
32.1959 31663 177.941
32.3134 31811 178.356
32.4308 32179 179.385
32.5482 31829 178.407
32.6655 31999 178.883
32.7829 32121 179.223
32.9002 32303 179.73
33.0176 32306 179.739
33.1349 32532 180.366
33.2522 31977 178.821
33.3694 32725 180.901
33.4867 32183 179.396
33.6039 31158 176.516
33.7211 29472 171.674
33.8383 27459 165.708
33.9554 25759 160.496
34.0725 26060 161.431
34.1896 27306 165.245
34.3067 29517 171.805
34.4237 30789 175.468
34.5407 31796 178.314
34.6577 32639 180.663
34.7746 32424 180.067
34.8915 33465 182.934
35.0084 32672 180.754
35.1252 32311 179.753
35.242 31735 178.143
35.3587 32068 179.075
35.4755 31778 178.264
35.5921 31711 178.076
35.7088 31660 177.933
35.8254 31713 178.081
35.9419 32287 179.686
36.0584 32393 179.981
36.1749 32630 180.638
36.2913 32531 180.364
36.4077 32433 180.092
36.524 32682 180.782
36.6403 32692 180.809
36.7565 32968 181.571
36.8727 32753 180.978
36.9889 33072 181.857
37.1049 32284 179.677
37.221 0 1
37.3369 0 1
37.4529 0 1
37.5687 0 1
37.6845 0 1
37.8003 0 1
37.916 0 1
38.0316 0 1
38.1472 0 1
40.5851 0 1
40.7008 0 1
40.8164 0 1
40.9322 0 1
41.048 0 1
41.1639 0 1
41.2798 0 1
41.3958 0 1
41.5118 0 1
41.6279 0 1
41.744 27871 166.946
41.8602 28514 168.861
41.9765 28547 168.959
42.0928 29078 170.523
42.2091 28733 169.508
42.3255 28778 169.641
42.4419 27332 165.324
42.5584 25415 159.421
42.675 23426 153.056
42.7915 22406 149.686
42.9081 23444 153.114
43.0248 25347 159.207
43.1415 26965 164.21
43.2582 28083 167.58
43.375 28676 169.34
43.4918 29387 171.426
43.6087 28988 170.259
43.7256 28677 169.343
43.8425 28304 168.238
43.9595 27704 166.445
44.0765 27313 165.266
44.1935 26478 162.721
44.3106 26139 161.676
44.4277 25885 160.888
44.5448 25444 159.512
44.6619 25458 159.556
44.7791 25543 159.822
44.8963 25874 160.854
45.0136 25982 161.189
45.1308 25633 160.103
45.2481 25726 160.393
45.3654 25435 159.484
45.4827 25630 160.094
45.6001 25679 160.247
45.7174 25463 159.571
45.8348 24869 157.699
45.9522 24650 157.003
46.0697 23123 152.062
46.1871 21001 144.917
46.3046 19336 139.054
46.422 19136 138.333
46.5395 20317 142.538
46.657 22129 148.758
46.7745 22608 150.36
46.892 23616 153.675
47.0096 23793 154.25
47.1271 24277 155.811
47.2446 23987 154.877
47.3622 23696 153.935
47.4797 23015 151.707
47.5973 22758 150.858
47.7149 22232 149.104
47.8324 21344 146.096
47.95 20782 144.16
48.0675 20583 143.468
48.1851 20197 142.116
48.3027 20520 143.248
48.4202 20886 144.52
48.5378 21582 146.908
48.6554 21790 147.614
48.7729 22103 148.671
48.8904 22190 148.963
49.008 22395 149.65
49.1255 22637 150.456
49.243 22758 150.858
49.3605 22745 150.814
49.478 22443 149.81
49.5955 21247 145.764
49.713 19463 139.51
49.8304 18183 134.844
49.9479 18040 134.313
50.0653 19707 140.382
50.1827 22845 151.146
50.3001 24514 156.569
50.4175 26099 161.552
50.5348 26821 163.771
50.6521 27967 167.233
50.7694 28686 169.369
50.8867 29396 171.453
51.004 29666 172.238
51.1212 30053 173.358
51.2384 29899 172.913
51.3556 29629 172.131
51.4727 29859 172.798
51.5899 29435 171.566
51.707 30247 173.917
51.824 31040 176.182
51.9411 31921 178.664
52.0581 32990 181.631
52.175 34164 184.835
52.2919 33905 184.133
52.4088 34829 186.625
52.5257 35215 187.657
52.6425 36332 190.61
52.7593 36062 189.9
52.876 36348 190.652
52.9927 36830 191.911
53.1094 35267 187.795
53.226 33434 182.85
53.3426 30933 175.878
53.4591 28805 169.72
53.5756 28761 169.591
53.692 32023 178.95
53.8084 35267 187.795
53.9248 38101 195.195
54.0411 39653 199.131
54.1573 41169 202.901
54.2735 0 1
54.3896 0 1
54.5057 0 1
54.6217 0 1
54.7377 0 1
54.8537 0 1
54.9695 0 1
55.0853 0 1
55.2011 0 1
55.3168 0 1
55.4324 0 1
57.824 0 1
57.9396 0 1
58.0553 0 1
58.1711 0 1
58.2869 0 1
58.4028 0 1
58.5187 0 1
58.6347 0 1
58.7508 0 1
58.8669 0 1
58.983 48458 220.132
59.0992 52333 228.764
59.2155 54387 233.21
59.3318 55908 236.449
59.4482 56425 237.539
59.5646 56516 237.731
59.681 56213 237.093
59.7975 55382 235.334
59.9141 54121 232.639
60.0306 53125 230.489
60.1473 51473 226.877
60.2639 51339 226.581
60.3807 50392 224.482
60.4974 51311 226.519
60.6142 51825 227.651
60.731 53013 230.246
60.8479 55031 234.587
60.9648 55674 235.953
61.0818 56654 238.021
61.1987 56258 237.188
61.3158 57028 238.805
61.4328 56213 237.093
61.5499 55376 235.321
61.667 53535 231.376
61.7841 50256 224.179
61.9013 46426 215.467
62.0185 44031 209.836
62.1357 43942 209.623
62.253 47025 216.852
62.3702 51429 226.78
62.4875 56188 237.04
62.6049 57506 239.804
62.7222 59523 243.973
62.8396 60420 245.805
62.9569 61395 247.78
63.0743 60888 246.755
63.1918 60258 245.475
63.3092 59117 243.14
63.4267 58194 241.234
63.5441 56429 237.548
63.6616 55029 234.583
63.7791 53611 231.54
63.8966 53278 230.82
64.0142 54620 233.709
64.1317 55315 235.191
64.2492 56740 238.202
64.3668 58224 241.296
64.4843 59543 244.014
64.6019 60642 246.256
64.7195 60943 246.866
64.837 61394 247.778
64.9546 61090 247.164
65.0722 61113 247.21
65.1898 58726 242.334
65.3074 56764 238.252
65.4249 51194 226.261
65.5425 47209 217.276
65.6601 45538 213.396
65.7777 47551 218.062
65.8952 52596 229.338
66.0128 57822 240.462
66.1304 61504 248
66.2479 64358 253.689
66.3655 65065 255.078
66.483 66329 257.544
66.6005 66219 257.331
66.718 66652 258.17
66.8355 65785 256.486
66.953 64194 253.365
67.0705 62921 250.841
67.1879 61612 248.218
67.3054 59772 244.483
67.4228 57480 239.75
67.5402 56661 238.036
67.6576 58551 241.973
67.7749 59179 243.267
67.8923 63004 251.006
68.0096 64595 254.155
68.1269 66490 257.857
68.2442 68120 260.998
68.3614 68651 262.013
68.4787 69339 263.323
68.5958 70423 265.373
68.713 69814 264.223
68.8302 68304 261.35
68.9473 65105 255.157
69.0643 60172 245.3
69.1814 55550 235.69
69.2984 52274 228.635
69.4154 53909 232.183
69.5323 59369 243.658
69.6492 66140 257.177
69.7661 71149 266.738
69.8829 74147 272.299
69.9997 76280 276.188
70.1165 76647 276.852
70.2332 78093 279.451
70.3499 77576 278.525
70.4665 77020 277.525
70.5831 75451 274.683
70.6996 73754 271.577
70.8161 70761 266.009
70.9326 68647 262.006
71.049 65755 256.427
71.1653 63342 251.678
71.2817 63066 251.129
71.3979 63875 252.735
71.5141 65107 255.161
71.6303 66658 258.182
71.7464 64020 253.022
71.8624 0 1
71.9784 0 1
72.0944 0 1
72.2102 0 1
72.3261 0 1
72.4418 0 1
72.5575 0 1
72.6732 0 1
75.1054 0 1
75.2209 0 1
75.3365 0 1
75.4521 0 1
75.5678 0 1
75.6835 0 1
75.7993 0 1
75.9151 0 1
76.031 0 1
76.147 67991 260.751
76.263 70847 266.171
76.3791 69393 263.426
76.4952 66479 257.835
76.6113 66968 258.782
76.7276 69461 263.555
76.8438 71147 266.734
76.9601 74929 273.732
77.0765 77985 279.258
77.1929 80542 283.799
77.3093 81737 285.897
77.4258 81355 285.228
77.5423 81696 285.825
77.6589 82018 286.388
77.7755 80160 283.125
77.8921 76344 276.304
78.0088 70600 265.707
78.1256 63976 252.935
78.2423 59543 244.014
78.3591 57019 238.787
78.4759 58816 242.52
78.5928 65042 255.033
78.7097 72168 268.641
78.8266 81073 284.733
78.9436 77587 278.544
79.0606 82295 286.871
79.1776 82731 287.63
79.2946 83162 288.378
79.4117 82206 286.716
79.5288 82008 286.37
79.6459 80243 283.272
79.7631 77861 279.036
79.8802 74900 273.679
79.9974 71177 266.79
80.1147 67965 260.701
80.2319 65767 256.451
80.3491 66267 257.424
80.4664 69674 263.958
80.5837 72881 269.965
80.701 76164 275.978
80.8183 78237 279.709
80.9357 78768 280.656
81.053 80103 283.025
81.1704 79868 282.609
81.2877 79935 282.728
81.4051 78374 279.954
81.5225 77984 279.256
81.6399 71590 267.563
81.7573 66793 258.443
81.8747 60816 246.609
81.9922 57347 239.472
82.1096 58060 240.956
82.227 62341 249.682
82.3444 68025 260.816
82.4619 73183 270.524
82.5793 75063 273.976
82.6967 80142 283.094
82.8142 78874 280.845
82.9316 78735 280.598
83.049 78611 280.377
83.1664 77054 277.586
83.2838 75671 275.084
83.4012 73448 271.013
83.5186 70764 266.015
83.636 67117 259.069
83.7534 63649 252.288
83.8708 60699 246.372
83.9881 60313 245.587
84.1055 63522 252.036
84.2228 65366 255.668
84.3401 70032 264.636
84.4575 73760 271.588
84.5747 75715 275.164
84.692 76953 277.404
84.8093 77094 277.658
84.9265 76974 277.442
85.0437 76093 275.85
85.1609 73484 271.079
85.2781 67627 260.052
85.3952 62124 249.247
85.5123 59232 243.376
85.6294 58240 241.33
85.7465 61049 247.081
85.8636 66346 257.577
85.9806 71581 267.546
86.0976 76416 276.434
86.2145 80627 283.949
86.3315 80537 283.79
86.4484 86637 294.342
86.5652 85297 292.057
86.682 84857 291.302
86.7988 83803 289.487
86.9156 82967 288.04
87.0323 80669 284.023
87.149 78639 280.426
87.2657 74263 272.512
87.3823 71058 266.567
87.4988 69233 263.122
87.6154 70443 265.411
87.7318 74565 273.066
87.8483 79201 281.427
87.9647 83427 288.837
88.081 87195 295.288
88.1973 88178 296.948
88.3136 88890 298.144
88.4298 89020 298.362
88.546 88122 296.853
88.6621 86168 293.544
88.7781 80986 284.58
88.8942 0 1
89.0101 0 1
89.126 0 1
89.2419 0 1
89.3577 0 1
89.4734 0 1
89.5891 0 1
89.7047 0 1
89.8203 0 1
89.9358 0 1
92.3269 0 1
92.4424 0 1
92.558 0 1
92.6736 0 1
92.7893 0 1
92.905 0 1
93.0208 0 1
93.1366 0 1
93.2525 0 1
93.3685 0 1
93.4845 0 1
93.6005 86214 293.622
93.7167 87429 295.684
93.8328 87569 295.921
93.949 86866 294.73
94.0653 86812 294.639
94.1816 84579 290.825
94.2979 80285 283.346
94.4143 75083 274.013
94.5307 71302 267.024
94.6472 69403 263.444
94.7637 68817 262.33
94.8803 72882 269.967
94.9969 77528 278.439
95.1135 81573 285.61
95.2302 84971 291.498
95.3469 87410 295.652
95.4637 90187 300.312
95.5805 92381 303.942
95.6973 93615 305.966
95.8142 93909 306.446
95.9311 92374 303.931
96.048 90364 300.606
96.1649 88216 297.012
96.2819 86635 294.338
96.3989 82404 287.061
96.516 78118 279.496
96.633 73104 270.378
96.7501 71939 268.214
96.8673 74335 272.644
96.9844 78589 280.337
97.1016 84489 290.67
97.2188 89075 298.454
97.336 93320 305.483
97.4532 93334 305.506
97.5704 93616 305.967
97.6877 93056 305.051
97.805 91558 302.586
97.9223 88436 297.382
98.0396 83185 288.418
98.1569 77753 278.842
98.2743 73509 271.125
98.3916 72762 269.744
98.509 74409 272.78
98.6264 78729 280.587
98.7438 82996 288.09
98.8612 86313 293.791
98.9786 90488 300.812
99.096 93334 305.506
99.2134 96376 310.445
99.3308 97731 312.62
99.4482 97763 312.671
99.5656 97113 311.63
99.6831 95723 309.391
99.8005 92267 303.755
99.9179 89881 299.802
100.035 86581 294.246
100.153 80744 284.155
100.27 75944 275.579
100.388 75802 275.322
100.505 80840 284.324
100.622 86972 294.91
100.74 93243 305.357
100.857 96603 310.81
100.975 97647 312.485
101.092 97873 312.847
101.209 97996 313.043
101.327 97632 312.461
101.444 96694 310.957
101.561 93687 306.083
101.679 87635 296.032
101.796 81380 285.272
101.913 78006 279.296
102.03 77697 278.742
102.148 81852 286.098
102.265 92263 303.748
102.382 87924 296.52
102.499 95547 309.107
102.616 97979 313.016
102.733 102236 319.744
102.851 104470 323.218
102.968 104597 323.415
103.085 104158 322.735
103.202 102022 319.409
103.319 100340 316.765
103.436 97579 312.376
103.552 94297 307.078
103.669 86377 293.9
103.786 80024 282.885
103.903 79524 282
104.02 85399 292.231
104.137 92797 304.626
104.253 101869 319.169
104.37 101281 318.247
104.487 105622 324.995
104.603 106816 326.827
104.72 105677 325.08
104.836 105948 325.497
104.953 104531 323.313
105.069 100098 316.383
105.186 94424 307.285
105.302 87832 296.365
105.418 84667 290.976
105.535 86279 293.733
105.651 91714 302.843
105.767 97558 312.343
105.883 101018 317.833
105.999 103108 321.104
106.115 0 1
106.231 0 1
106.347 0 1
106.463 0 1
106.579 0 1
106.694 0 1
106.81 0 1
106.926 0 1
107.041 0 1
107.157 0 1
109.576 0 1
109.692 0 1
109.807 0 1
109.923 0 1
110.039 0 1
110.155 0 1
110.27 0 1
110.386 0 1
110.502 0 1
110.618 82666 287.517
110.735 89567 299.277
110.851 94792 307.883
110.967 96667 310.913
111.083 98804 314.331
111.199 101437 318.492
111.316 103939 322.396
111.432 104514 323.286
111.549 104092 322.633
111.665 102347 319.917
111.782 99518 315.465
111.898 96269 310.272
112.015 91321 302.194
112.132 84433 290.574
112.248 77146 277.752
112.365 74690 273.295
112.482 78070 279.41
112.599 82999 288.095
112.716 90936 301.556
112.832 95630 309.241
112.949 95706 309.364
113.066 95683 309.327
113.183 95050 308.302
113.3 94575 307.53
113.417 93072 305.077
113.534 91195 301.985
113.652 88069 296.764
113.769 82771 287.699
113.886 77762 278.858
114.003 75022 273.901
114.12 75418 274.623
114.238 78955 280.989
114.355 83086 288.246
114.472 85070 291.668
114.589 86010 293.275
114.707 87977 296.609
114.824 89853 299.755
114.942 91333 302.214
115.059 93040 305.025
115.176 92854 304.72
115.294 91136 301.887
115.411 88959 298.26
115.529 85911 293.106
115.646 80723 284.118
115.764 74719 273.348
115.881 68632 261.977
115.999 69103 262.874
116.116 74518 272.98
116.234 81982 286.325
116.351 87909 296.495
116.469 90044 300.073
116.586 90813 301.352
116.704 92012 303.335
116.821 91670 302.771
116.939 91612 302.675
117.056 90042 300.07
117.174 88542 297.56
117.291 85438 292.298
117.409 82263 286.815
117.526 78250 279.732
117.644 76472 276.536
117.761 77477 278.347
117.879 80844 284.331
117.996 84289 290.326
118.114 87527 295.85
118.231 89024 298.369
118.349 89233 298.719
118.466 91663 302.759
118.584 92642 304.371
118.701 94112 306.777
118.819 94302 307.086
118.936 92658 304.398
119.053 90079 300.132
119.171 86239 293.665
119.288 80873 284.382
119.405 73666 271.415
119.523 68328 261.396
119.64 69850 264.292
119.757 74434 272.826
119.875 81172 284.907
119.992 86632 294.333
120.109 89024 298.369
120.226 90782 301.301
120.343 90791 301.315
120.46 90609 301.013
120.578 90391 300.651
120.695 89489 299.147
120.812 88401 297.323
120.929 86612 294.299
121.046 83648 289.22
121.163 81063 284.716
121.279 77624 278.611
121.396 76429 276.458
121.513 77022 277.528
121.63 81089 284.761
121.747 83787 289.46
121.863 86173 293.552
121.98 87185 295.271
122.097 87266 295.408
122.213 89027 298.374
122.33 90398 300.663
122.446 90710 301.181
122.563 90659 301.096
122.679 89338 298.895
122.795 87058 295.056
122.912 84415 290.543
123.028 78273 279.773
123.144 71749 267.86
123.26 66368 257.62
123.377 0 1
123.493 0 1
123.609 0 1
123.725 0 1
123.84 0 1
123.956 0 1
124.072 0 1
124.188 0 1
124.303 0 1
124.419 0 1
126.852 0 1
126.968 0 1
127.083 0 1
127.199 0 1
127.315 0 1
127.431 0 1
127.547 0 1
127.663 0 1
127.779 0 1
127.895 0 1
128.011 0 1
128.127 0 1
128.243 0 1
128.359 78406 280.011
128.476 73078 270.329
128.592 74606 273.141
128.708 81823 286.047
128.825 90403 300.671
128.941 96460 310.58
129.058 99066 314.748
129.174 100681 317.303
129.291 100075 316.346
129.408 100876 317.61
129.524 100096 316.38
129.641 99292 315.106
129.758 98357 313.619
129.875 96316 310.348
129.992 94231 306.971
130.108 90957 301.591
130.225 87240 295.364
130.342 86736 294.51
130.459 84543 290.763
130.576 90821 301.365
130.693 93096 305.116
130.81 95460 308.966
130.928 95537 309.091
131.045 95671 309.307
131.162 97714 312.592
131.279 99054 314.728
131.396 99541 315.501
131.513 98250 313.449
131.631 95947 309.753
131.748 91878 303.114
131.865 82745 287.654
131.983 74584 273.101
132.1 73475 271.063
132.217 78405 280.009
132.335 86017 293.287
132.452 91971 303.267
132.57 95926 309.719
132.687 94077 306.72
132.804 100268 316.651
132.922 96649 310.884
133.039 97600 312.41
133.157 97295 311.921
133.274 96749 311.045
133.392 94963 308.161
133.509 93453 305.701
133.627 91311 302.177
133.744 88808 298.007
133.862 86060 293.36
133.979 85260 291.993
134.097 85946 293.165
134.214 89186 298.64
134.332 90958 301.592
134.449 93077 305.085
134.567 94053 306.681
134.684 94567 307.517
134.802 95393 308.858
134.919 96532 310.696
135.037 96630 310.854
135.154 95329 308.754
135.272 92493 304.127
135.389 85481 292.371
135.507 77062 277.6
135.624 71760 267.881
135.742 72664 269.563
135.859 79356 281.702
135.977 86079 293.392
136.094 92202 303.648
136.211 94856 307.987
136.329 96150 310.081
136.446 96202 310.164
136.564 96521 310.678
136.681 97387 312.069
136.798 95277 308.67
136.915 95758 309.448
137.033 94451 307.329
137.15 93222 305.323
137.267 91325 302.2
137.384 88319 297.185
137.502 86684 294.421
137.619 84605 290.869
137.736 85656 292.67
137.853 84969 291.494
137.97 87193 295.285
138.087 92906 304.805
138.204 92492 304.125
138.321 92551 304.222
138.438 94119 306.788
138.555 94400 307.246
138.672 95327 308.751
138.788 94200 306.92
138.905 91998 303.312
139.022 86094 293.418
139.139 78330 279.875
139.255 72390 269.054
139.372 73052 270.281
139.488 78091 279.448
139.605 85628 292.623
139.721 90747 301.242
139.838 94531 307.459
139.954 95443 308.939
140.071 94580 307.539
140.187 95703 309.359
140.303 94694 307.724
140.419 94002 306.597
140.535 93002 304.962
140.652 91775 302.944
140.768 0 1
140.884 0 1
141 0 1
141.115 0 1
141.231 0 1
141.347 0 1
141.463 0 1
141.578 0 1
141.694 0 1
144.104 0 1
144.219 0 1
144.335 0 1
144.45 0 1
144.566 0 1
144.682 0 1
144.798 0 1
144.914 0 1
145.03 0 1
145.146 82338 286.946
145.262 83803 289.487
145.378 83130 288.323
145.494 83152 288.361
145.61 82128 286.58
145.726 82120 286.566
145.842 80661 284.009
145.959 79413 281.803
146.075 78551 280.27
146.192 76372 276.355
146.308 74959 273.786
146.425 74948 273.766
146.541 75647 275.04
146.658 77199 277.847
146.774 78998 281.066
146.891 80551 283.815
147.008 80171 283.145
147.125 79991 282.827
147.241 79952 282.758
147.358 78874 280.845
147.475 76988 277.467
147.592 72584 269.414
147.709 66680 258.225
147.826 61312 247.613
147.943 61691 248.377
148.06 64689 254.34
148.177 70902 266.274
148.294 75927 275.549
148.411 78388 279.979
148.528 78846 280.795
148.645 78464 280.114
148.762 78504 280.186
148.88 78012 279.306
148.997 75125 274.089
149.114 79838 282.556
149.231 77597 278.562
149.349 77276 277.986
149.466 75013 273.885
149.583 74598 273.126
149.701 73377 270.882
149.818 72194 268.689
149.935 71152 266.743
150.053 71125 266.693
150.17 70776 266.038
150.287 72152 268.611
150.405 73842 271.739
150.522 75856 275.42
150.64 76127 275.911
150.757 76564 276.702
150.875 75729 275.189
150.992 74377 272.721
151.11 71104 266.653
151.227 68767 262.235
151.344 64042 253.065
151.462 59054 243.01
151.579 59057 243.016
151.697 62593 250.186
151.814 68524 261.771
151.932 73020 270.222
152.049 76436 276.471
152.167 77241 277.923
152.284 77077 277.627
152.402 77190 277.831
152.519 77163 277.782
152.636 77141 277.743
152.754 76560 276.695
152.871 76611 276.787
152.989 75716 275.165
153.106 75518 274.805
153.223 74326 272.628
153.341 73234 270.618
153.458 72313 268.911
153.575 71419 267.243
153.693 71318 267.054
153.81 71562 267.511
153.927 72694 269.618
154.044 74329 272.633
154.162 75800 275.318
154.279 77252 277.942
154.396 77181 277.815
154.513 77036 277.554
154.63 75775 275.273
154.747 73489 271.089
154.864 71045 266.543
154.981 67889 260.555
155.098 63667 252.323
155.215 62524 250.048
155.332 65213 255.368
155.449 70820 266.12
155.566 75244 274.306
155.683 76858 277.233
155.8 77185 277.822
155.917 77358 278.133
156.033 77592 278.553
156.15 0 1
156.267 0 1
156.383 0 1
156.5 0 1
156.617 0 1
156.733 0 1
156.85 0 1
156.966 0 1
157.082 0 1
157.199 0 1
157.315 0 1
157.431 0 1
157.547 0 1
157.664 0 1
157.78 0 1
157.896 0 1
158.012 0 1
158.128 0 1
158.244 0 1
158.359 0 1
158.475 0 1
158.591 0 1
158.706 0 1
