
6.15755 0 1
6.2731 0 1
6.3887 0 1
6.50437 0 1
6.62009 0 1
6.73587 0 1
6.8517 0 1
6.96759 0 1
7.08353 0 1
7.19952 0 1
7.31557 0 1
7.43166 0 1
7.54781 0 1
7.664 0 1
7.78024 0 1
7.89653 0 1
8.01286 0 1
8.12924 0 1
8.24567 0 1
8.36213 0 1
8.47864 0 1
8.59519 0 1
8.71178 0 1
8.82841 0 1
8.94508 0 1
9.06179 0 1
9.17853 0 1
9.29531 0 1
9.41212 0 1
9.52897 0 1
9.64584 0 1
9.76276 0 1
9.8797 0 1
9.99667 0 1
10.1137 0 1
10.2307 0 1
10.3478 0 1
10.4648 0 1
10.5819 0 1
10.6991 0 1
10.8162 0 1
10.9334 0 1
11.0506 0 1
11.1678 0 1
11.285 0 1
11.4023 0 1
11.5196 0 1
11.6369 0 1
11.7542 0 1
11.8715 0 1
11.9888 0 1
12.1062 0 1
12.2235 0 1
12.3409 0 1
12.4582 0 1
12.5756 0 1
12.693 0 1
12.8104 0 1
12.9278 0 1
13.0452 0 1
13.1626 0 1
13.28 0 1
13.3974 0 1
13.5149 0 1
13.6323 0 1
13.7497 0 1
13.8671 0 1
13.9845 0 1
14.1019 0 1
14.2193 0 1
14.3367 0 1
14.4541 0 1
14.5714 0 1
14.6888 0 1
14.8062 0 1
14.9235 0 1
15.0408 0 0
15.1581 0 0
15.2755 0 0
15.3927 0 0
15.51 0 0
15.6273 0 0
15.7445 0 0
15.8617 0 0
15.9789 0 0
16.0961 0 0
16.2132 0 0
16.3304 0 0
16.4475 0 0
16.5646 0 0
16.6816 0 0
16.7986 0 0
16.9156 0 0
17.0326 0 0
17.1496 0 0
17.2665 0 0
17.3833 0 0
17.5002 0 0
17.617 0 0
17.7338 0 0
17.8505 0 0
17.9672 0 0
18.0839 0 0
18.2005 0 0
18.3171 0 0
18.4337 0 0
18.5502 0 0
18.6666 0 0
18.7831 0 0
18.8994 0 0
19.0158 0 0
19.1321 0 0
19.2483 0 0
19.3645 0 0
19.4806 0 0
19.5967 0 0
19.7128 0 0
19.8288 0 0
19.9447 0 0
20.0606 0 1
20.1764 0 1
20.2922 0 1
20.4079 0 1
20.5236 0 1
20.6392 0 1
20.7548 0 1
20.8702 0 1
23.3078 0 1
23.4233 0 1
23.539 0 1
23.6547 0 1
23.7704 0 1
23.8862 0 1
24.0021 0 1
24.118 0 1
24.234 0 1
24.35 0 1
24.4661 1210 34.7851
24.5822 1238 35.1852
24.6984 1227 35.0286
24.8146 1189 34.4819
24.9309 1279 35.7631
25.0472 1235 35.1426
25.1636 1282 35.805
25.28 1181 34.3657
25.3965 1316 36.2767
25.513 1396 37.3631
25.6296 1325 36.4005
25.7462 1416 37.6298
25.8628 1458 38.1838
25.9795 1453 38.1182
26.0962 1448 38.0526
26.213 1495 38.6652
26.3298 1524 39.0384
26.4466 1434 37.8682
26.5635 1415 37.6165
26.6804 1376 37.0945
26.7973 1305 36.1248
26.9143 1252 35.3836
27.0313 1239 35.1994
27.1483 1416 37.6298
27.2653 1475 38.4057
27.3824 1556 39.4462
27.4996 1482 38.4968
27.6167 1412 37.5766
27.7339 1411 37.5633
27.8511 1467 38.3014
27.9683 1429 37.8021
28.0855 1473 38.3797
28.2028 1471 38.3536
28.3201 1397 37.3765
28.4374 1521 39
28.5547 1319 36.318
28.6721 1374 37.0675
28.7894 1390 37.2827
28.9068 1462 38.2361
29.0242 1420 37.6829
29.1416 1477 38.4318
29.259 1466 38.2884
29.3764 1540 39.2428
29.4939 1544 39.2938
29.6113 1571 39.6358
29.7288 1619 40.2368
29.8463 1501 38.7427
29.9638 1490 38.6005
30.0812 1518 38.9615
30.1987 1520 38.9872
30.3162 1364 36.9324
30.4337 1216 34.8712
30.5512 1323 36.3731
30.6687 1327 36.428
30.7862 1344 36.6606
30.9037 1410 37.55
31.0212 1493 38.6394
31.1387 1506 38.8072
31.2562 1410 37.55
31.3737 1399 37.4032
31.4912 1372 37.0405
31.6087 1402 37.4433
31.7262 1396 37.3631
31.8436 1395 37.3497
31.9611 1325 36.4005
32.0785 1304 36.1109
32.1959 1269 35.623
32.3134 1226 35.0143
32.4308 1317 36.2905
32.5482 1305 36.1248
32.6655 1321 36.3456
32.7829 1411 37.5633
32.9002 1370 37.0135
33.0176 1332 36.4966
33.1349 1372 37.0405
33.2522 1362 36.9053
33.3694 1326 36.4143
33.4867 1323 36.3731
33.6039 1386 37.229
33.7211 1363 36.9188
33.8383 1312 36.2215
33.9554 1272 35.6651
34.0725 1188 34.4674
34.1896 1188 34.4674
34.3067 1205 34.7131
34.4237 1229 35.0571
34.5407 1296 36
34.6577 1309 36.1801
34.7746 1328 36.4417
34.8915 1328 36.4417
35.0084 1219 34.9142
35.1252 1248 35.327
35.242 1230 35.0714
35.3587 1291 35.9305
35.4755 1292 35.9444
35.5921 1178 34.322
35.7088 1236 35.1568
35.8254 1185 34.4238
35.9419 1163 34.1028
36.0584 1198 34.6121
36.1749 1190 34.4964
36.2913 1176 34.2929
36.4077 1191 34.5109
36.524 1204 34.6987
36.6403 1296 36
36.7565 1234 35.1283
36.8727 1318 36.3043
36.9889 1222 34.9571
37.1049 1238 35.1852
37.221 0 1
37.3369 0 1
37.4529 0 1
37.5687 0 1
37.6845 0 1
37.8003 0 1
37.916 0 1
38.0316 0 1
38.1472 0 1
40.5851 0 1
40.7008 0 1
40.8164 0 1
40.9322 0 1
41.048 0 1
41.1639 0 1
41.2798 0 1
41.3958 0 1
41.5118 0 1
41.6279 0 1
41.744 1015 31.8591
41.8602 1047 32.3574
41.9765 1101 33.1813
42.0928 1130 33.6155
42.2091 1084 32.9242
42.3255 1097 33.121
42.4419 1128 33.5857
42.5584 1065 32.6343
42.675 1040 32.249
42.7915 1048 32.3728
42.9081 942 30.692
43.0248 928 30.4631
43.1415 1008 31.749
43.2582 1039 32.2335
43.375 996 31.5595
43.4918 1025 32.0156
43.6087 1035 32.1714
43.7256 957 30.9354
43.8425 858 29.2916
43.9595 922 30.3645
44.0765 852 29.189
44.1935 934 30.5614
44.3106 950 30.8221
44.4277 884 29.7321
44.5448 891 29.8496
44.6619 777 27.8747
44.7791 834 28.8791
44.8963 829 28.7924
45.0136 832 28.8444
45.1308 851 29.1719
45.2481 843 29.0345
45.3654 877 29.6142
45.4827 852 29.189
45.6001 881 29.6816
45.7174 848 29.1204
45.8348 838 28.9482
45.9522 826 28.7402
46.0697 858 29.2916
46.1871 808 28.4253
46.3046 821 28.6531
46.422 758 27.5318
46.5395 691 26.2869
46.657 728 26.9815
46.7745 730 27.0185
46.892 746 27.313
47.0096 782 27.9643
47.1271 770 27.7489
47.2446 732 27.0555
47.3622 729 27
47.4797 762 27.6043
47.5973 649 25.4755
47.7149 658 25.6515
47.8324 714 26.7208
47.95 668 25.8457
48.0675 670 25.8844
48.1851 643 25.3574
48.3027 638 25.2587
48.4202 606 24.6171
48.5378 629 25.0799
48.6554 643 25.3574
48.7729 662 25.7294
48.8904 675 25.9808
49.008 744 27.2764
49.1255 676 26
49.243 686 26.1916
49.3605 706 26.5707
49.478 681 26.096
49.5955 691 26.2869
49.713 653 25.5539
49.8304 646 25.4165
49.9479 615 24.7992
50.0653 548 23.4094
50.1827 625 25
50.3001 656 25.6125
50.4175 712 26.6833
50.5348 702 26.4953
50.6521 703 26.5141
50.7694 714 26.7208
50.8867 758 27.5318
51.004 748 27.3496
51.1212 725 26.9258
51.2384 783 27.9821
51.3556 809 28.4429
51.4727 786 28.0357
51.5899 758 27.5318
51.707 810 28.4605
51.824 765 27.6586
51.9411 826 28.7402
52.0581 880 29.6648
52.175 904 30.0666
52.2919 927 30.4467
52.4088 909 30.1496
52.5257 932 30.5287
52.6425 901 30.0167
52.7593 925 30.4138
52.876 966 31.0805
52.9927 1032 32.1248
53.1094 1045 32.3265
53.226 1056 32.4962
53.3426 988 31.4325
53.4591 1004 31.686
53.5756 883 29.7153
53.692 851 29.1719
53.8084 857 29.2746
53.9248 1004 31.686
54.0411 986 31.4006
54.1573 1022 31.9687
54.2735 0 1
54.3896 0 1
54.5057 0 1
54.6217 0 1
54.7377 0 1
54.8537 0 1
54.9695 0 1
55.0853 0 1
55.2011 0 1
55.3168 0 1
55.4324 0 1
57.824 0 1
57.9396 0 1
58.0553 0 1
58.1711 0 1
58.2869 0 1
58.4028 0 1
58.5187 0 1
58.6347 0 1
58.7508 0 1
58.8669 0 1
58.983 1097 33.121
59.0992 1084 32.9242
59.2155 1093 33.0606
59.3318 1246 35.2987
59.4482 1240 35.2136
59.5646 1190 34.4964
59.681 1144 33.8231
59.7975 1127 33.5708
59.9141 1082 32.8938
60.0306 1107 33.2716
60.1473 1112 33.3467
60.2639 1098 33.1361
60.3807 1115 33.3916
60.4974 1125 33.541
60.6142 1092 33.0454
60.731 1079 32.8481
60.8479 1084 32.9242
60.9648 1167 34.1614
61.0818 1148 33.8821
61.1987 1163 34.1028
61.3158 1092 33.0454
61.4328 1142 33.7935
61.5499 1161 34.0735
61.667 1166 34.1467
61.7841 1086 32.9545
61.9013 1122 33.4963
62.0185 1064 32.619
62.1357 992 31.496
62.253 1026 32.0312
62.3702 971 31.1609
62.4875 1051 32.4191
62.6049 1067 32.665
62.7222 1059 32.5423
62.8396 1180 34.3511
62.9569 1056 32.4962
63.0743 1077 32.8177
63.1918 1119 33.4515
63.3092 1001 31.6386
63.4267 1016 31.8748
63.5441 986 31.4006
63.6616 956 30.9192
63.7791 922 30.3645
63.8966 897 29.95
64.0142 988 31.4325
64.1317 958 30.9516
64.2492 986 31.4006
64.3668 1021 31.9531
64.4843 997 31.5753
64.6019 977 31.257
64.7195 991 31.4802
64.837 1044 32.311
64.9546 1000 31.6228
65.0722 1044 32.311
65.1898 1069 32.6956
65.3074 1068 32.6803
65.4249 1012 31.8119
65.5425 940 30.6594
65.6601 929 30.4795
65.7777 903 30.05
65.8952 859 29.3087
66.0128 949 30.8058
66.1304 992 31.496
66.2479 967 31.0966
66.3655 992 31.496
66.483 1082 32.8938
66.6005 1060 32.5576
66.718 1061 32.573
66.8355 1024 32
66.953 992 31.496
67.0705 961 31
67.1879 1001 31.6386
67.3054 954 30.8869
67.4228 916 30.2655
67.5402 923 30.3809
67.6576 900 30
67.7749 962 31.0161
67.8923 917 30.282
68.0096 1009 31.7648
68.1269 1030 32.0936
68.2442 1031 32.1092
68.3614 1047 32.3574
68.4787 1048 32.3728
68.5958 1083 32.909
68.713 1056 32.4962
68.8302 1027 32.0468
68.9473 1020 31.9374
69.0643 1071 32.7261
69.1814 1002 31.6544
69.2984 985 31.3847
69.4154 943 30.7083
69.5323 947 30.7734
69.6492 956 30.9192
69.7661 1007 31.7333
69.8829 1077 32.8177
69.9997 1125 33.541
70.1165 1127 33.5708
70.2332 1143 33.8083
70.3499 1198 34.6121
70.4665 1146 33.8526
70.5831 1096 33.1059
70.6996 987 31.4166
70.8161 981 31.3209
70.9326 911 30.1828
71.049 970 31.1448
71.1653 1039 32.2335
71.2817 1033 32.1403
71.3979 983 31.3528
71.5141 980 31.305
71.6303 1007 31.7333
71.7464 903 30.05
71.8624 0 1
71.9784 0 1
72.0944 0 1
72.2102 0 1
72.3261 0 1
72.4418 0 1
72.5575 0 1
72.6732 0 1
75.1054 0 1
75.2209 0 1
75.3365 0 1
75.4521 0 1
75.5678 0 1
75.6835 0 1
75.7993 0 1
75.9151 0 1
76.031 0 1
76.147 841 29
76.263 957 30.9354
76.3791 999 31.607
76.4952 1034 32.1559
76.6113 975 31.225
76.7276 1002 31.6544
76.8438 1114 33.3766
76.9601 1062 32.5883
77.0765 1090 33.0151
77.1929 1144 33.8231
77.3093 1088 32.9848
77.4258 1080 32.8634
77.5423 1191 34.5109
77.6589 1125 33.541
77.7755 1151 33.9264
77.8921 1059 32.5423
78.0088 1097 33.121
78.1256 1035 32.1714
78.2423 958 30.9516
78.3591 908 30.133
78.4759 942 30.692
78.5928 906 30.0998
78.7097 985 31.3847
78.8266 1065 32.6343
78.9436 1120 33.4664
79.0606 1150 33.9116
79.1776 1144 33.8231
79.2946 1115 33.3916
79.4117 1197 34.5977
79.5288 1154 33.9706
79.6459 1084 32.9242
79.7631 1008 31.749
79.8802 887 29.7825
79.9974 891 29.8496
80.1147 864 29.3939
80.2319 936 30.5941
80.3491 933 30.545
80.4664 988 31.4325
80.5837 978 31.273
80.701 945 30.7409
80.8183 997 31.5753
80.9357 997 31.5753
81.053 1029 32.078
81.1704 988 31.4325
81.2877 1006 31.7175
81.4051 1034 32.1559
81.5225 1025 32.0156
81.6399 1002 31.6544
81.7573 966 31.0805
81.8747 924 30.3974
81.9922 830 28.8097
82.1096 861 29.3428
82.227 869 29.4788
82.3444 966 31.0805
82.4619 978 31.273
82.5793 979 31.289
82.6967 1046 32.3419
82.8142 1073 32.7567
82.9316 1081 32.8786
83.049 1002 31.6544
83.1664 1065 32.6343
83.2838 976 31.241
83.4012 850 29.1548
83.5186 744 27.2764
83.636 794 28.178
83.7534 738 27.1662
83.8708 838 28.9482
83.9881 847 29.1033
84.1055 892 29.8664
84.2228 942 30.692
84.3401 970 31.1448
84.4575 938 30.6268
84.5747 1015 31.8591
84.692 1011 31.7962
84.8093 1038 32.218
84.9265 995 31.5436
85.0437 948 30.7896
85.1609 942 30.692
85.2781 951 30.8383
85.3952 888 29.7993
85.5123 875 29.5804
85.6294 870 29.4958
85.7465 878 29.6311
85.8636 882 29.6985
85.9806 981 31.3209
86.0976 1016 31.8748
86.2145 1051 32.4191
86.3315 1095 33.0908
86.4484 1097 33.121
86.5652 1134 33.6749
86.682 1146 33.8526
86.7988 1150 33.9116
86.9156 991 31.4802
87.0323 959 30.9677
87.149 932 30.5287
87.2657 957 30.9354
87.3823 963 31.0322
87.4988 1048 32.3728
87.6154 1000 31.6228
87.7318 1051 32.4191
87.8483 1152 33.9411
87.9647 1101 33.1813
88.081 1148 33.8821
88.1973 1221 34.9428
88.3136 1162 34.0881
88.4298 1145 33.8378
88.546 1161 34.0735
88.6621 1166 34.1467
88.7781 1110 33.3167
88.8942 0 1
89.0101 0 1
89.126 0 1
89.2419 0 1
89.3577 0 1
89.4734 0 1
89.5891 0 1
89.7047 0 1
89.8203 0 1
89.9358 0 1
92.3269 0 1
92.4424 0 1
92.558 0 1
92.6736 0 1
92.7893 0 1
92.905 0 1
93.0208 0 1
93.1366 0 1
93.2525 0 1
93.3685 0 1
93.4845 0 1
93.6005 1108 33.2866
93.7167 1127 33.5708
93.8328 1209 34.7707
93.949 1185 34.4238
94.0653 1193 34.5398
94.1816 1145 33.8378
94.2979 1106 33.2566
94.4143 1024 32
94.5307 996 31.5595
94.6472 980 31.305
94.7637 966 31.0805
94.8803 1126 33.5559
94.9969 1090 33.0151
95.1135 1183 34.3948
95.2302 1204 34.6987
95.3469 1189 34.4819
95.4637 1321 36.3456
95.5805 1224 34.9857
95.6973 1270 35.6371
95.8142 1308 36.1663
95.9311 1210 34.7851
96.048 1212 34.8138
96.1649 1117 33.4215
96.2819 987 31.4166
96.3989 942 30.692
96.516 978 31.273
96.633 981 31.3209
96.7501 1127 33.5708
96.8673 1180 34.3511
96.9844 1210 34.7851
97.1016 1221 34.9428
97.2188 1165 34.1321
97.336 1166 34.1467
97.4532 1282 35.805
97.5704 1249 35.3412
97.6877 1206 34.7275
97.805 1213 34.8281
97.9223 1089 33
98.0396 1090 33.0151
98.1569 1014 31.8434
98.2743 1020 31.9374
98.3916 1046 32.3419
98.509 1043 32.2955
98.6264 1150 33.9116
98.7438 1147 33.8674
98.8612 1169 34.1906
98.9786 1210 34.7851
99.096 1246 35.2987
99.2134 1210 34.7851
99.3308 1216 34.8712
99.4482 1322 36.3593
99.5656 1250 35.3553
99.6831 1187 34.4529
99.8005 1111 33.3317
99.9179 1076 32.8024
100.035 998 31.5911
100.153 953 30.8707
100.27 1099 33.1512
100.388 1137 33.7194
100.505 1181 34.3657
100.622 1171 34.2199
100.74 1265 35.5668
100.857 1183 34.3948
100.975 1266 35.5809
101.092 1170 34.2053
101.209 1238 35.1852
101.327 1187 34.4529
101.444 1174 34.2637
101.561 1088 32.9848
101.679 1057 32.5115
101.796 1023 31.9844
101.913 1008 31.749
102.03 1062 32.5883
102.148 1069 32.6956
102.265 1164 34.1174
102.382 1321 36.3456
102.499 1314 36.2491
102.616 1350 36.7423
102.733 1353 36.7831
102.851 1359 36.8646
102.968 1348 36.7151
103.085 1282 35.805
103.202 1310 36.1939
103.319 1267 35.5949
103.436 1074 32.7719
103.552 986 31.4006
103.669 992 31.496
103.786 1093 33.0606
103.903 1221 34.9428
104.02 1184 34.4093
104.137 1288 35.8887
104.253 1307 36.1525
104.37 1309 36.1801
104.487 1286 35.8608
104.603 1328 36.4417
104.72 1289 35.9026
104.836 1231 35.0856
104.953 1260 35.4965
105.069 1161 34.0735
105.186 1113 33.3617
105.302 1097 33.121
105.418 1137 33.7194
105.535 1175 34.2783
105.651 1279 35.7631
105.767 1307 36.1525
105.883 1345 36.6742
105.999 1358 36.8511
106.115 0 1
106.231 0 1
106.347 0 1
106.463 0 1
106.579 0 1
106.694 0 1
106.81 0 1
106.926 0 1
107.041 0 1
107.157 0 1
109.576 0 1
109.692 0 1
109.807 0 1
109.923 0 1
110.039 0 1
110.155 0 1
110.27 0 1
110.386 0 1
110.502 0 1
110.618 1121 33.4813
110.735 1245 35.2846
110.851 1284 35.8329
110.967 1309 36.1801
111.083 1369 37
111.199 1328 36.4417
111.316 1355 36.8103
111.432 1377 37.108
111.549 1376 37.0945
111.665 1306 36.1386
111.782 1290 35.9166
111.898 1248 35.327
112.015 1039 32.2335
112.132 947 30.7734
112.248 964 31.0483
112.365 1144 33.8231
112.482 1145 33.8378
112.599 1259 35.4824
112.716 1236 35.1568
112.832 1264 35.5528
112.949 1245 35.2846
113.066 1254 35.4119
113.183 1225 35
113.3 1265 35.5668
113.417 1184 34.4093
113.534 1165 34.1321
113.652 1101 33.1813
113.769 1032 32.1248
113.886 975 31.225
114.003 1053 32.45
114.12 1127 33.5708
114.238 1207 34.7419
114.355 1235 35.1426
114.472 1245 35.2846
114.589 1246 35.2987
114.707 1238 35.1852
114.824 1206 34.7275
114.942 1248 35.327
115.059 1321 36.3456
115.176 1275 35.7071
115.294 1231 35.0856
115.411 1238 35.1852
115.529 1135 33.6898
115.646 963 31.0322
115.764 968 31.1127
115.881 1007 31.7333
115.999 1184 34.4093
116.116 1208 34.7563
116.234 1182 34.3802
116.351 1199 34.6266
116.469 1273 35.6791
116.586 1260 35.4965
116.704 1194 34.5543
116.821 1263 35.5387
116.939 1126 33.5559
117.056 1107 33.2716
117.174 1071 32.7261
117.291 1013 31.8277
117.409 991 31.4802
117.526 991 31.4802
117.644 1098 33.1361
117.761 1179 34.3366
117.879 1210 34.7851
117.996 1304 36.1109
118.114 1329 36.4555
118.231 1264 35.5528
118.349 1239 35.1994
118.466 1291 35.9305
118.584 1345 36.6742
118.701 1365 36.9459
118.819 1289 35.9026
118.936 1277 35.7351
119.053 1205 34.7131
119.171 1104 33.2265
119.288 997 31.5753
119.405 979 31.289
119.523 1023 31.9844
119.64 1103 33.2114
119.757 1178 34.322
119.875 1220 34.9285
119.992 1212 34.8138
120.109 1227 35.0286
120.226 1194 34.5543
120.343 1142 33.7935
120.46 1174 34.2637
120.578 1124 33.5261
120.695 1057 32.5115
120.812 1034 32.1559
120.929 1036 32.187
121.046 973 31.1929
121.163 1005 31.7017
121.279 997 31.5753
121.396 1093 33.0606
121.513 1187 34.4529
121.63 1187 34.4529
121.747 1248 35.327
121.863 1191 34.5109
121.98 1239 35.1994
122.097 1271 35.6511
122.213 1209 34.7707
122.33 1194 34.5543
122.446 1269 35.623
122.563 1180 34.3511
122.679 1144 33.8231
122.795 1108 33.2866
122.912 1044 32.311
123.028 907 30.1164
123.144 895 29.9166
123.26 941 30.6757
123.377 0 1
123.493 0 1
123.609 0 1
123.725 0 1
123.84 0 1
123.956 0 1
124.072 0 1
124.188 0 1
124.303 0 1
124.419 0 1
126.852 0 1
126.968 0 1
127.083 0 1
127.199 0 1
127.315 0 1
127.431 0 1
127.547 0 1
127.663 0 1
127.779 0 1
127.895 0 1
128.011 0 1
128.127 0 1
128.243 0 1
128.359 964 31.0483
128.476 979 31.289
128.592 1057 32.5115
128.708 1266 35.5809
128.825 1269 35.623
128.941 1288 35.8887
129.058 1297 36.0139
129.174 1290 35.9166
129.291 1280 35.7771
129.408 1317 36.2905
129.524 1360 36.8782
129.641 1196 34.5832
129.758 1114 33.3766
129.875 1111 33.3317
129.992 1070 32.7109
130.108 1075 32.7872
130.225 1091 33.0303
130.342 1240 35.2136
130.459 1237 35.171
130.576 1237 35.171
130.693 1355 36.8103
130.81 1287 35.8748
130.928 1358 36.8511
131.045 1308 36.1663
131.162 1345 36.6742
131.279 1349 36.7287
131.396 1372 37.0405
131.513 1299 36.0416
131.631 1270 35.6371
131.748 1200 34.641
131.865 1070 32.7109
131.983 996 31.5595
132.1 1118 33.4365
132.217 1256 35.4401
132.335 1252 35.3836
132.452 1233 35.1141
132.57 1377 37.108
132.687 1284 35.8329
132.804 1280 35.7771
132.922 1228 35.0428
133.039 1336 36.5513
133.157 1236 35.1568
133.274 1188 34.4674
133.392 1142 33.7935
133.509 1166 34.1467
133.627 1053 32.45
133.744 1105 33.2415
133.862 1179 34.3366
133.979 1213 34.8281
134.097 1300 36.0555
134.214 1302 36.0832
134.332 1379 37.1349
134.449 1349 36.7287
134.567 1318 36.3043
134.684 1322 36.3593
134.802 1331 36.4829
134.919 1377 37.108
135.037 1314 36.2491
135.154 1269 35.623
135.272 1259 35.4824
135.389 1163 34.1028
135.507 1019 31.9218
135.624 1076 32.8024
135.742 1213 34.8281
135.859 1254 35.4119
135.977 1264 35.5528
136.094 1225 35
136.211 1270 35.6371
136.329 1329 36.4555
136.446 1326 36.4143
136.564 1348 36.7151
136.681 1184 34.4093
136.798 1295 35.9861
136.915 1191 34.5109
137.033 1116 33.4066
137.15 1094 33.0757
137.267 1082 32.8938
137.384 1038 32.218
137.502 1171 34.2199
137.619 1289 35.9026
137.736 1258 35.4683
137.853 1286 35.8608
137.97 1314 36.2491
138.087 1374 37.0675
138.204 1314 36.2491
138.321 1380 37.1484
138.438 1369 37
138.555 1314 36.2491
138.672 1339 36.5923
138.788 1311 36.2077
138.905 1280 35.7771
139.022 1131 33.6303
139.139 1056 32.4962
139.255 1090 33.0151
139.372 1186 34.4384
139.488 1277 35.7351
139.605 1293 35.9583
139.721 1333 36.5103
139.838 1354 36.7967
139.954 1317 36.2905
140.071 1302 36.0832
140.187 1342 36.6333
140.303 1299 36.0416
140.419 1249 35.3412
140.535 1243 35.2562
140.652 1126 33.5559
140.768 0 1
140.884 0 1
141 0 1
141.115 0 1
141.231 0 1
141.347 0 1
141.463 0 1
141.578 0 1
141.694 0 1
144.104 0 1
144.219 0 1
144.335 0 1
144.45 0 1
144.566 0 1
144.682 0 1
144.798 0 1
144.914 0 1
145.03 0 1
145.146 937 30.6105
145.262 982 31.3369
145.378 993 31.5119
145.494 996 31.5595
145.61 988 31.4325
145.726 981 31.3209
145.842 867 29.4449
145.959 927 30.4467
146.075 883 29.7153
146.192 891 29.8496
146.308 913 30.2159
146.425 950 30.8221
146.541 1001 31.6386
146.658 1058 32.5269
146.774 1041 32.2645
146.891 1083 32.909
147.008 1056 32.4962
147.125 1119 33.4515
147.241 1097 33.121
147.358 1094 33.0757
147.475 1046 32.3419
147.592 1022 31.9687
147.709 997 31.5753
147.826 946 30.7571
147.943 896 29.9333
148.06 882 29.6985
148.177 882 29.6985
148.294 947 30.7734
148.411 1011 31.7962
148.528 1080 32.8634
148.645 1100 33.1662
148.762 1071 32.7261
148.88 1065 32.6343
148.997 996 31.5595
149.114 1061 32.573
149.231 1072 32.7414
149.349 1004 31.686
149.466 1038 32.218
149.583 996 31.5595
149.701 925 30.4138
149.818 942 30.692
149.935 867 29.4449
150.053 944 30.7246
150.17 923 30.3809
150.287 1027 32.0468
150.405 1002 31.6544
150.522 1028 32.0624
150.64 1086 32.9545
150.757 1100 33.1662
150.875 1113 33.3617
150.992 1098 33.1361
151.11 1068 32.6803
151.227 1088 32.9848
151.344 1112 33.3467
151.462 1065 32.6343
151.579 1014 31.8434
151.697 919 30.315
151.814 850 29.1548
151.932 953 30.8707
152.049 973 31.1929
152.167 1076 32.8024
152.284 1062 32.5883
152.402 1133 33.6601
152.519 1100 33.1662
152.636 1160 34.0588
152.754 1107 33.2716
152.871 1089 33
152.989 1036 32.187
153.106 1044 32.311
153.223 1025 32.0156
153.341 942 30.692
153.458 910 30.1662
153.575 949 30.8058
153.693 999 31.607
153.81 1031 32.1092
153.927 1066 32.6497
154.044 1095 33.0908
154.162 1070 32.7109
154.279 1120 33.4664
154.396 1179 34.3366
154.513 1210 34.7851
154.63 1206 34.7275
154.747 1166 34.1467
154.864 1212 34.8138
154.981 1161 34.0735
155.098 1125 33.541
155.215 1065 32.6343
155.332 951 30.8383
155.449 1022 31.9687
155.566 1047 32.3574
155.683 1110 33.3167
155.8 1232 35.0999
155.917 1223 34.9714
156.033 1167 34.1614
156.15 0 1
156.267 0 1
156.383 0 1
156.5 0 1
156.617 0 1
156.733 0 1
156.85 0 1
156.966 0 1
157.082 0 1
157.199 0 1
157.315 0 1
157.431 0 1
157.547 0 1
157.664 0 1
157.78 0 1
157.896 0 1
158.012 0 1
158.128 0 1
158.244 0 1
158.359 0 1
158.475 0 1
158.591 0 1
158.706 0 1
