
6.15755 0 1
6.2731 0 1
6.3887 0 1
6.50437 0 1
6.62009 0 1
6.73587 0 1
6.8517 0 1
6.96759 0 1
7.08353 0 1
7.19952 0 1
7.31557 0 1
7.43166 0 1
7.54781 0 1
7.664 0 1
7.78024 0 1
7.89653 0 1
8.01286 0 1
8.12924 0 1
8.24567 0 1
8.36213 0 1
8.47864 0 1
8.59519 0 1
8.71178 0 1
8.82841 0 1
8.94508 0 1
9.06179 0 1
9.17853 0 1
9.29531 0 1
9.41212 0 1
9.52897 0 1
9.64584 0 1
9.76276 0 1
9.8797 0 1
9.99667 0 1
10.1137 0 1
10.2307 0 1
10.3478 0 1
10.4648 0 1
10.5819 0 1
10.6991 0 1
10.8162 0 1
10.9334 0 1
11.0506 0 1
11.1678 0 1
11.285 0 1
11.4023 0 1
11.5196 0 1
11.6369 0 1
11.7542 0 1
11.8715 0 1
11.9888 0 1
12.1062 0 1
12.2235 0 1
12.3409 0 1
12.4582 0 1
12.5756 0 1
12.693 0 1
12.8104 0 1
12.9278 0 1
13.0452 0 1
13.1626 0 1
13.28 0 1
13.3974 0 1
13.5149 0 1
13.6323 0 1
13.7497 0 1
13.8671 0 1
13.9845 0 1
14.1019 0 1
14.2193 0 1
14.3367 0 1
14.4541 0 1
14.5714 0 1
14.6888 0 1
14.8062 0 1
14.9235 0 1
15.0408 0 0
15.1581 0 0
15.2755 0 0
15.3927 0 0
15.51 0 0
15.6273 0 0
15.7445 0 0
15.8617 0 0
15.9789 0 0
16.0961 0 0
16.2132 0 0
16.3304 0 0
16.4475 0 0
16.5646 0 0
16.6816 0 0
16.7986 0 0
16.9156 0 0
17.0326 0 0
17.1496 0 0
17.2665 0 0
17.3833 0 0
17.5002 0 0
17.617 0 0
17.7338 0 0
17.8505 0 0
17.9672 0 0
18.0839 0 0
18.2005 0 0
18.3171 0 0
18.4337 0 0
18.5502 0 0
18.6666 0 0
18.7831 0 0
18.8994 0 0
19.0158 0 0
19.1321 0 0
19.2483 0 0
19.3645 0 0
19.4806 0 0
19.5967 0 0
19.7128 0 0
19.8288 0 0
19.9447 0 0
20.0606 0 1
20.1764 0 1
20.2922 0 1
20.4079 0 1
20.5236 0 1
20.6392 0 1
20.7548 0 1
20.8702 0 1
23.3078 0 1
23.4233 0 1
23.539 0 1
23.6547 0 1
23.7704 0 1
23.8862 0 1
24.0021 0 1
24.118 0 1
24.234 0 1
24.35 0 1
24.4661 1105 33.2415
24.5822 1039 32.2335
24.6984 1046 32.3419
24.8146 1125 33.541
24.9309 1060 32.5576
25.0472 1092 33.0454
25.1636 1102 33.1964
25.28 1129 33.6006
25.3965 1111 33.3317
25.513 1157 34.0147
25.6296 1194 34.5543
25.7462 1185 34.4238
25.8628 1166 34.1467
25.9795 1159 34.0441
26.0962 1160 34.0588
26.213 1180 34.3511
26.3298 1152 33.9411
26.4466 1172 34.2345
26.5635 1093 33.0606
26.6804 1138 33.7343
26.7973 1016 31.8748
26.9143 1009 31.7648
27.0313 971 31.1609
27.1483 1025 32.0156
27.2653 1071 32.7261
27.3824 1046 32.3419
27.4996 1035 32.1714
27.6167 1094 33.0757
27.7339 1005 31.7017
27.8511 1053 32.45
27.9683 1018 31.9061
28.0855 1000 31.6228
28.2028 1011 31.7962
28.3201 1012 31.8119
28.4374 1077 32.8177
28.5547 1078 32.8329
28.6721 1065 32.6343
28.7894 1080 32.8634
28.9068 1102 33.1964
29.0242 1140 33.7639
29.1416 1085 32.9393
29.259 1077 32.8177
29.3764 1105 33.2415
29.4939 1029 32.078
29.6113 1087 32.9697
29.7288 1076 32.8024
29.8463 1098 33.1361
29.9638 1078 32.8329
30.0812 1093 33.0606
30.1987 1006 31.7175
30.3162 1040 32.249
30.4337 889 29.8161
30.5512 914 30.2324
30.6687 952 30.8545
30.7862 915 30.249
30.9037 949 30.8058
31.0212 973 31.1929
31.1387 959 30.9677
31.2562 981 31.3209
31.3737 1017 31.8904
31.4912 995 31.5436
31.6087 996 31.5595
31.7262 964 31.0483
31.8436 953 30.8707
31.9611 977 31.257
32.0785 1010 31.7805
32.1959 1079 32.8481
32.3134 1068 32.6803
32.4308 1080 32.8634
32.5482 1104 33.2265
32.6655 1060 32.5576
32.7829 1087 32.9697
32.9002 1076 32.8024
33.0176 1077 32.8177
33.1349 1025 32.0156
33.2522 1019 31.9218
33.3694 1100 33.1662
33.4867 1059 32.5423
33.6039 1083 32.909
33.7211 1031 32.1092
33.8383 1094 33.0757
33.9554 1075 32.7872
34.0725 964 31.0483
34.1896 907 30.1164
34.3067 883 29.7153
34.4237 901 30.0167
34.5407 891 29.8496
34.6577 946 30.7571
34.7746 936 30.5941
34.8915 910 30.1662
35.0084 937 30.6105
35.1252 892 29.8664
35.242 835 28.8964
35.3587 953 30.8707
35.4755 944 30.7246
35.5921 944 30.7246
35.7088 997 31.5753
35.8254 1022 31.9687
35.9419 1010 31.7805
36.0584 1084 32.9242
36.1749 1022 31.9687
36.2913 985 31.3847
36.4077 1100 33.1662
36.524 975 31.225
36.6403 1035 32.1714
36.7565 1044 32.311
36.8727 1001 31.6386
36.9889 993 31.5119
37.1049 1029 32.078
37.221 0 1
37.3369 0 1
37.4529 0 1
37.5687 0 1
37.6845 0 1
37.8003 0 1
37.916 0 1
38.0316 0 1
38.1472 0 1
40.5851 0 1
40.7008 0 1
40.8164 0 1
40.9322 0 1
41.048 0 1
41.1639 0 1
41.2798 0 1
41.3958 0 1
41.5118 0 1
41.6279 0 1
41.744 797 28.2312
41.8602 833 28.8617
41.9765 920 30.3315
42.0928 813 28.5132
42.2091 851 29.1719
42.3255 826 28.7402
42.4419 880 29.6648
42.5584 839 28.9655
42.675 880 29.6648
42.7915 847 29.1033
42.9081 834 28.8791
43.0248 728 26.9815
43.1415 747 27.3313
43.2582 723 26.8887
43.375 772 27.7849
43.4918 795 28.1957
43.6087 793 28.1603
43.7256 742 27.2397
43.8425 718 26.7955
43.9595 774 27.8209
44.0765 727 26.9629
44.1935 738 27.1662
44.3106 741 27.2213
44.4277 810 28.4605
44.5448 791 28.1247
44.6619 761 27.5862
44.7791 780 27.9285
44.8963 802 28.3196
45.0136 804 28.3549
45.1308 770 27.7489
45.2481 742 27.2397
45.3654 770 27.7489
45.4827 711 26.6646
45.6001 681 26.096
45.7174 714 26.7208
45.8348 692 26.3059
45.9522 718 26.7955
46.0697 685 26.1725
46.1871 723 26.8887
46.3046 622 24.9399
46.422 658 25.6515
46.5395 639 25.2784
46.657 616 24.8193
46.7745 568 23.8328
46.892 543 23.3024
47.0096 600 24.4949
47.1271 578 24.0416
47.2446 612 24.7386
47.3622 585 24.1868
47.4797 519 22.7816
47.5973 584 24.1661
47.7149 549 23.4307
47.8324 565 23.7697
47.95 578 24.0416
48.0675 562 23.7065
48.1851 532 23.0651
48.3027 549 23.4307
48.4202 593 24.3516
48.5378 566 23.7908
48.6554 601 24.5153
48.7729 579 24.0624
48.8904 607 24.6374
49.008 585 24.1868
49.1255 567 23.8118
49.243 574 23.9583
49.3605 596 24.4131
49.478 620 24.8998
49.5955 584 24.1661
49.713 587 24.2281
49.8304 644 25.3772
49.9479 571 23.8956
50.0653 588 24.2487
50.1827 561 23.6854
50.3001 520 22.8035
50.4175 537 23.1733
50.5348 527 22.9565
50.6521 572 23.9165
50.7694 593 24.3516
50.8867 619 24.8797
51.004 577 24.0208
51.1212 579 24.0624
51.2384 652 25.5343
51.3556 633 25.1595
51.4727 714 26.7208
51.5899 723 26.8887
51.707 729 27
51.824 692 26.3059
51.9411 699 26.4386
52.0581 716 26.7582
52.175 756 27.4955
52.2919 723 26.8887
52.4088 746 27.313
52.5257 755 27.4773
52.6425 744 27.2764
52.7593 721 26.8514
52.876 794 28.178
52.9927 740 27.2029
53.1094 751 27.4044
53.226 810 28.4605
53.3426 767 27.6948
53.4591 783 27.9821
53.5756 787 28.0535
53.692 816 28.5657
53.8084 746 27.313
53.9248 650 25.4951
54.0411 682 26.1151
54.1573 695 26.3629
54.2735 0 1
54.3896 0 1
54.5057 0 1
54.6217 0 1
54.7377 0 1
54.8537 0 1
54.9695 0 1
55.0853 0 1
55.2011 0 1
55.3168 0 1
55.4324 0 1
57.824 0 1
57.9396 0 1
58.0553 0 1
58.1711 0 1
58.2869 0 1
58.4028 0 1
58.5187 0 1
58.6347 0 1
58.7508 0 1
58.8669 0 1
58.983 779 27.9106
59.0992 739 27.1846
59.2155 763 27.6225
59.3318 745 27.2947
59.4482 781 27.9464
59.5646 798 28.2489
59.681 761 27.5862
59.7975 815 28.5482
59.9141 848 29.1204
60.0306 859 29.3087
60.1473 835 28.8964
60.2639 887 29.7825
60.3807 830 28.8097
60.4974 840 28.9828
60.6142 846 29.0861
60.731 872 29.5296
60.8479 842 29.0172
60.9648 834 28.8791
61.0818 804 28.3549
61.1987 781 27.9464
61.3158 837 28.931
61.4328 828 28.775
61.5499 814 28.5307
61.667 852 29.189
61.7841 795 28.1957
61.9013 786 28.0357
62.0185 765 27.6586
62.1357 769 27.7308
62.253 789 28.0891
62.3702 769 27.7308
62.4875 793 28.1603
62.6049 671 25.9037
62.7222 653 25.5539
62.8396 656 25.6125
62.9569 695 26.3629
63.0743 733 27.074
63.1918 723 26.8887
63.3092 689 26.2488
63.4267 672 25.923
63.5441 749 27.3679
63.6616 757 27.5136
63.7791 749 27.3679
63.8966 792 28.1425
64.0142 754 27.4591
64.1317 714 26.7208
64.2492 707 26.5895
64.3668 732 27.0555
64.4843 757 27.5136
64.6019 710 26.6458
64.7195 716 26.7582
64.837 698 26.4197
64.9546 691 26.2869
65.0722 668 25.8457
65.1898 712 26.6833
65.3074 696 26.3818
65.4249 702 26.4953
65.5425 685 26.1725
65.6601 708 26.6083
65.7777 668 25.8457
65.8952 670 25.8844
66.0128 678 26.0384
66.1304 616 24.8193
66.2479 529 23
66.3655 598 24.454
66.483 551 23.4734
66.6005 637 25.2389
66.718 619 24.8797
66.8355 583 24.1454
66.953 629 25.0799
67.0705 691 26.2869
67.1879 719 26.8142
67.3054 605 24.5967
67.4228 702 26.4953
67.5402 660 25.6905
67.6576 645 25.3969
67.7749 617 24.8395
67.8923 643 25.3574
68.0096 642 25.3377
68.1269 624 24.98
68.2442 641 25.318
68.3614 663 25.7488
68.4787 613 24.7588
68.5958 668 25.8457
68.713 649 25.4755
68.8302 648 25.4558
68.9473 610 24.6982
69.0643 671 25.9037
69.1814 663 25.7488
69.2984 646 25.4165
69.4154 628 25.0599
69.5323 639 25.2784
69.6492 602 24.5357
69.7661 623 24.96
69.8829 583 24.1454
69.9997 521 22.8254
70.1165 511 22.6053
70.2332 532 23.0651
70.3499 525 22.9129
70.4665 569 23.8537
70.5831 609 24.6779
70.6996 576 24
70.8161 604 24.5764
70.9326 558 23.622
71.049 556 23.5797
71.1653 561 23.6854
71.2817 547 23.388
71.3979 572 23.9165
71.5141 534 23.1084
71.6303 511 22.6053
71.7464 508 22.5389
71.8624 0 1
71.9784 0 1
72.0944 0 1
72.2102 0 1
72.3261 0 1
72.4418 0 1
72.5575 0 1
72.6732 0 1
75.1054 0 1
75.2209 0 1
75.3365 0 1
75.4521 0 1
75.5678 0 1
75.6835 0 1
75.7993 0 1
75.9151 0 1
76.031 0 1
76.147 409 20.2237
76.263 413 20.3224
76.3791 459 21.4243
76.4952 480 21.9089
76.6113 418 20.445
76.7276 478 21.8632
76.8438 445 21.095
76.9601 522 22.8473
77.0765 400 20
77.1929 438 20.9284
77.3093 404 20.0998
77.4258 427 20.664
77.5423 438 20.9284
77.6589 407 20.1742
77.7755 405 20.1246
77.8921 388 19.6977
78.0088 393 19.8242
78.1256 397 19.9249
78.2423 401 20.025
78.3591 358 18.9209
78.4759 352 18.7617
78.5928 384 19.5959
78.7097 384 19.5959
78.8266 380 19.4936
78.9436 357 18.8944
79.0606 301 17.3494
79.1776 227 15.0665
79.2946 254 15.9374
79.4117 311 17.6352
79.5288 318 17.8326
79.6459 340 18.4391
79.7631 298 17.2627
79.8802 281 16.7631
79.9974 302 17.3781
80.1147 303 17.4069
80.2319 331 18.1934
80.3491 267 16.3401
80.4664 291 17.0587
80.5837 263 16.2173
80.701 245 15.6525
80.8183 268 16.3707
80.9357 265 16.2788
81.053 233 15.2643
81.1704 253 15.906
81.2877 268 16.3707
81.4051 224 14.9666
81.5225 242 15.5563
81.6399 223 14.9332
81.7573 224 14.9666
81.8747 226 15.0333
81.9922 205 14.3178
82.1096 210 14.4914
82.227 203 14.2478
82.3444 148 12.1655
82.4619 187 13.6748
82.5793 159 12.6095
82.6967 180 13.4164
82.8142 156 12.49
82.9316 108 10.3923
83.049 145 12.0416
83.1664 136 11.6619
83.2838 128 11.3137
83.4012 123 11.0905
83.5186 123 11.0905
83.636 100 10
83.7534 116 10.7703
83.8708 106 10.2956
83.9881 119 10.9087
84.1055 135 11.619
84.2228 89 9.43398
84.3401 104 10.198
84.4575 101 10.0499
84.5747 95 9.74679
84.692 86 9.27362
84.8093 84 9.16515
84.9265 73 8.544
85.0437 59 7.68115
85.1609 87 9.32738
85.2781 58 7.61577
85.3952 82 9.05539
85.5123 71 8.42615
85.6294 78 8.83176
85.7465 77 8.77496
85.8636 82 9.05539
85.9806 67 8.18535
86.0976 68 8.24621
86.2145 49 7
86.3315 74 8.60233
86.4484 81 9
86.5652 93 9.64365
86.682 98 9.89949
86.7988 93 9.64365
86.9156 109 10.4403
87.0323 113 10.6301
87.149 121 11
87.2657 122 11.0454
87.3823 138 11.7473
87.4988 115 10.7238
87.6154 143 11.9583
87.7318 142 11.9164
87.8483 161 12.6886
87.9647 134 11.5758
88.081 145 12.0416
88.1973 163 12.7671
88.3136 177 13.3041
88.4298 167 12.9228
88.546 212 14.5602
88.6621 227 15.0665
88.7781 206 14.3527
88.8942 0 1
89.0101 0 1
89.126 0 1
89.2419 0 1
89.3577 0 1
89.4734 0 1
89.5891 0 1
89.7047 0 1
89.8203 0 1
89.9358 0 1
92.3269 0 1
92.4424 0 1
92.558 0 1
92.6736 0 1
92.7893 0 1
92.905 0 1
93.0208 0 1
93.1366 0 1
93.2525 0 1
93.3685 0 1
93.4845 0 1
93.6005 347 18.6279
93.7167 330 18.1659
93.8328 323 17.9722
93.949 307 17.5214
94.0653 282 16.7929
94.1816 320 17.8885
94.2979 287 16.9411
94.4143 248 15.748
94.5307 244 15.6205
94.6472 287 16.9411
94.7637 272 16.4924
94.8803 270 16.4317
94.9969 250 15.8114
95.1135 244 15.6205
95.2302 248 15.748
95.3469 192 13.8564
95.4637 214 14.6287
95.5805 172 13.1149
95.6973 247 15.7162
95.8142 231 15.1987
95.9311 288 16.9706
96.048 271 16.4621
96.1649 301 17.3494
96.2819 330 18.1659
96.3989 313 17.6918
96.516 326 18.0555
96.633 282 16.7929
96.7501 316 17.7764
96.8673 316 17.7764
96.9844 382 19.5448
97.1016 396 19.8997
97.2188 360 18.9737
97.336 368 19.1833
97.4532 384 19.5959
97.5704 427 20.664
97.6877 409 20.2237
97.805 385 19.6214
97.9223 403 20.0749
98.0396 412 20.2978
98.1569 432 20.7846
98.2743 473 21.7486
98.3916 433 20.8087
98.509 452 21.2603
98.6264 481 21.9317
98.7438 509 22.561
98.8612 459 21.4243
98.9786 415 20.3715
99.096 340 18.4391
99.2134 317 17.8045
99.3308 446 21.1187
99.4482 531 23.0434
99.5656 549 23.4307
99.6831 541 23.2594
99.8005 553 23.516
99.9179 585 24.1868
100.035 567 23.8118
100.153 561 23.6854
100.27 570 23.8747
100.388 591 24.3105
100.505 623 24.96
100.622 612 24.7386
100.74 610 24.6982
100.857 647 25.4362
100.975 618 24.8596
101.092 611 24.7184
101.209 648 25.4558
101.327 643 25.3574
101.444 639 25.2784
101.561 681 26.096
101.679 678 26.0384
101.796 672 25.923
101.913 660 25.6905
102.03 647 25.4362
102.148 628 25.0599
102.265 688 26.2298
102.382 644 25.3772
102.499 612 24.7386
102.616 503 22.4277
102.733 462 21.4942
102.851 546 23.3666
102.968 653 25.5539
103.085 665 25.7876
103.202 704 26.533
103.319 681 26.096
103.436 625 25
103.552 703 26.5141
103.669 668 25.8457
103.786 669 25.865
103.903 684 26.1534
104.02 737 27.1477
104.137 701 26.4764
104.253 726 26.9444
104.37 652 25.5343
104.487 708 26.6083
104.603 684 26.1534
104.72 682 26.1151
104.836 701 26.4764
104.953 703 26.5141
105.069 733 27.074
105.186 676 26
105.302 681 26.096
105.418 711 26.6646
105.535 645 25.3969
105.651 703 26.5141
105.767 688 26.2298
105.883 634 25.1794
105.999 534 23.1084
106.115 0 1
106.231 0 1
106.347 0 1
106.463 0 1
106.579 0 1
106.694 0 1
106.81 0 1
106.926 0 1
107.041 0 1
107.157 0 1
109.576 0 1
109.692 0 1
109.807 0 1
109.923 0 1
110.039 0 1
110.155 0 1
110.27 0 1
110.386 0 1
110.502 0 1
110.618 523 22.8692
110.735 540 23.2379
110.851 526 22.9347
110.967 542 23.2809
111.083 466 21.587
111.199 433 20.8087
111.316 426 20.6398
111.432 423 20.567
111.549 513 22.6495
111.665 535 23.1301
111.782 531 23.0434
111.898 466 21.587
112.015 468 21.6333
112.132 496 22.2711
112.248 524 22.891
112.365 483 21.9773
112.482 490 22.1359
112.599 450 21.2132
112.716 488 22.0907
112.832 441 21
112.949 440 20.9762
113.066 433 20.8087
113.183 465 21.5639
113.3 452 21.2603
113.417 445 21.095
113.534 394 19.8494
113.652 397 19.9249
113.769 425 20.6155
113.886 386 19.6469
114.003 404 20.0998
114.12 386 19.6469
114.238 367 19.1572
114.355 325 18.0278
114.472 337 18.3576
114.589 362 19.0263
114.707 311 17.6352
114.824 325 18.0278
114.942 311 17.6352
115.059 356 18.868
115.176 344 18.5472
115.294 371 19.2614
115.411 365 19.105
115.529 394 19.8494
115.646 401 20.025
115.764 380 19.4936
115.881 342 18.4932
115.999 357 18.8944
116.116 370 19.2354
116.234 358 18.9209
116.351 379 19.4679
116.469 370 19.2354
116.586 337 18.3576
116.704 397 19.9249
116.821 360 18.9737
116.939 409 20.2237
117.056 371 19.2614
117.174 386 19.6469
117.291 353 18.7883
117.409 373 19.3132
117.526 402 20.0499
117.644 340 18.4391
117.761 372 19.2873
117.879 348 18.6548
117.996 304 17.4356
118.114 265 16.2788
118.231 309 17.5784
118.349 351 18.735
118.466 343 18.5203
118.584 365 19.105
118.701 334 18.2757
118.819 362 19.0263
118.936 368 19.1833
119.053 405 20.1246
119.171 368 19.1833
119.288 354 18.8149
119.405 403 20.0749
119.523 391 19.7737
119.64 405 20.1246
119.757 378 19.4422
119.875 412 20.2978
119.992 350 18.7083
120.109 427 20.664
120.226 382 19.5448
120.343 391 19.7737
120.46 403 20.0749
120.578 417 20.4206
120.695 427 20.664
120.812 365 19.105
120.929 391 19.7737
121.046 375 19.3649
121.163 403 20.0749
121.279 422 20.5426
121.396 403 20.0749
121.513 352 18.7617
121.63 321 17.9165
121.747 277 16.6433
121.863 301 17.3494
121.98 346 18.6011
122.097 352 18.7617
122.213 400 20
122.33 402 20.0499
122.446 361 19
122.563 413 20.3224
122.679 409 20.2237
122.795 447 21.1424
122.912 439 20.9523
123.028 434 20.8327
123.144 437 20.9045
123.26 468 21.6333
123.377 0 1
123.493 0 1
123.609 0 1
123.725 0 1
123.84 0 1
123.956 0 1
124.072 0 1
124.188 0 1
124.303 0 1
124.419 0 1
126.852 0 1
126.968 0 1
127.083 0 1
127.199 0 1
127.315 0 1
127.431 0 1
127.547 0 1
127.663 0 1
127.779 0 1
127.895 0 1
128.011 0 1
128.127 0 1
128.243 0 1
128.359 534 23.1084
128.476 520 22.8035
128.592 553 23.516
128.708 564 23.7487
128.825 544 23.3238
128.941 518 22.7596
129.058 568 23.8328
129.174 577 24.0208
129.291 581 24.1039
129.408 505 22.4722
129.524 557 23.6008
129.641 548 23.4094
129.758 566 23.7908
129.875 560 23.6643
129.992 539 23.2164
130.108 560 23.6643
130.225 565 23.7697
130.342 514 22.6716
130.459 463 21.5174
130.576 415 20.3715
130.693 360 18.9737
130.81 355 18.8414
130.928 386 19.6469
131.045 486 22.0454
131.162 555 23.5584
131.279 572 23.9165
131.396 551 23.4734
131.513 611 24.7184
131.631 582 24.1247
131.748 592 24.3311
131.865 579 24.0624
131.983 578 24.0416
132.1 601 24.5153
132.217 603 24.5561
132.335 596 24.4131
132.452 567 23.8118
132.57 584 24.1661
132.687 604 24.5764
132.804 616 24.8193
132.922 558 23.622
133.039 589 24.2693
133.157 617 24.8395
133.274 625 25
133.392 593 24.3516
133.509 625 25
133.627 613 24.7588
133.744 595 24.3926
133.862 560 23.6643
133.979 533 23.0868
134.097 499 22.3383
134.214 485 22.0227
134.332 419 20.4695
134.449 440 20.9762
134.567 475 21.7945
134.684 572 23.9165
134.802 644 25.3772
134.919 613 24.7588
135.037 594 24.3721
135.154 677 26.0192
135.272 656 25.6125
135.389 630 25.0998
135.507 647 25.4362
135.624 618 24.8596
135.742 666 25.807
135.859 650 25.4951
135.977 691 26.2869
136.094 651 25.5147
136.211 698 26.4197
136.329 690 26.2679
136.446 668 25.8457
136.564 693 26.3249
136.681 728 26.9815
136.798 620 24.8998
136.915 659 25.671
137.033 682 26.1151
137.15 663 25.7488
137.267 627 25.04
137.384 614 24.779
137.502 610 24.6982
137.619 568 23.8328
137.736 520 22.8035
137.853 520 22.8035
137.97 469 21.6564
138.087 562 23.7065
138.204 496 22.2711
138.321 581 24.1039
138.438 608 24.6577
138.555 657 25.632
138.672 719 26.8142
138.788 723 26.8887
138.905 712 26.6833
139.022 735 27.1109
139.139 773 27.8029
139.255 755 27.4773
139.372 711 26.6646
139.488 739 27.1846
139.605 681 26.096
139.721 759 27.55
139.838 702 26.4953
139.954 773 27.8029
140.071 730 27.0185
140.187 772 27.7849
140.303 727 26.9629
140.419 764 27.6405
140.535 708 26.6083
140.652 693 26.3249
140.768 0 1
140.884 0 1
141 0 1
141.115 0 1
141.231 0 1
141.347 0 1
141.463 0 1
141.578 0 1
141.694 0 1
144.104 0 1
144.219 0 1
144.335 0 1
144.45 0 1
144.566 0 1
144.682 0 1
144.798 0 1
144.914 0 1
145.03 0 1
145.146 679 26.0576
145.262 691 26.2869
145.378 697 26.4008
145.494 693 26.3249
145.61 685 26.1725
145.726 680 26.0768
145.842 663 25.7488
145.959 628 25.0599
146.075 626 25.02
146.192 601 24.5153
146.308 570 23.8747
146.425 556 23.5797
146.541 553 23.516
146.658 535 23.1301
146.774 574 23.9583
146.891 577 24.0208
147.008 597 24.4336
147.125 631 25.1197
147.241 681 26.096
147.358 675 25.9808
147.475 674 25.9615
147.592 655 25.593
147.709 716 26.7582
147.826 737 27.1477
147.943 740 27.2029
148.06 699 26.4386
148.177 657 25.632
148.294 699 26.4386
148.411 703 26.5141
148.528 748 27.3496
148.645 693 26.3249
148.762 682 26.1151
148.88 720 26.8328
148.997 694 26.3439
149.114 721 26.8514
149.231 707 26.5895
149.349 733 27.074
149.466 674 25.9615
149.583 580 24.0832
149.701 624 24.98
149.818 597 24.4336
149.935 560 23.6643
150.053 599 24.4745
150.17 594 24.3721
150.287 603 24.5561
150.405 553 23.516
150.522 560 23.6643
150.64 657 25.632
150.757 628 25.0599
150.875 660 25.6905
150.992 654 25.5734
151.11 694 26.3439
151.227 696 26.3818
151.344 696 26.3818
151.462 689 26.2488
151.579 714 26.7208
151.697 728 26.9815
151.814 738 27.1662
151.932 738 27.1662
152.049 698 26.4197
152.167 675 25.9808
152.284 749 27.3679
152.402 678 26.0384
152.519 718 26.7955
152.636 742 27.2397
152.754 736 27.1293
152.871 671 25.9037
152.989 720 26.8328
153.106 662 25.7294
153.223 658 25.6515
153.341 652 25.5343
153.458 607 24.6374
153.575 581 24.1039
153.693 542 23.2809
153.81 565 23.7697
153.927 578 24.0416
154.044 583 24.1454
154.162 629 25.0799
154.279 635 25.1992
154.396 730 27.0185
154.513 736 27.1293
154.63 748 27.3496
154.747 753 27.4408
154.864 730 27.0185
154.981 777 27.8747
155.098 740 27.2029
155.215 698 26.4197
155.332 749 27.3679
155.449 736 27.1293
155.566 790 28.1069
155.683 718 26.7955
155.8 745 27.2947
155.917 702 26.4953
156.033 760 27.5681
156.15 0 1
156.267 0 1
156.383 0 1
156.5 0 1
156.617 0 1
156.733 0 1
156.85 0 1
156.966 0 1
157.082 0 1
157.199 0 1
157.315 0 1
157.431 0 1
157.547 0 1
157.664 0 1
157.78 0 1
157.896 0 1
158.012 0 1
158.128 0 1
158.244 0 1
158.359 0 1
158.475 0 1
158.591 0 1
158.706 0 1
