
6.15755 0 1
6.2731 0 1
6.3887 0 1
6.50437 0 1
6.62009 0 1
6.73587 0 1
6.8517 0 1
6.96759 0 1
7.08353 0 1
7.19952 0 1
7.31557 0 1
7.43166 0 1
7.54781 0 1
7.664 0 1
7.78024 0 1
7.89653 0 1
8.01286 0 1
8.12924 0 1
8.24567 0 1
8.36213 0 1
8.47864 0 1
8.59519 0 1
8.71178 0 1
8.82841 0 1
8.94508 0 1
9.06179 0 1
9.17853 0 1
9.29531 0 1
9.41212 0 1
9.52897 0 1
9.64584 0 1
9.76276 0 1
9.8797 0 1
9.99667 0 1
10.1137 0 1
10.2307 0 1
10.3478 0 1
10.4648 0 1
10.5819 0 1
10.6991 0 1
10.8162 0 1
10.9334 0 1
11.0506 0 1
11.1678 0 1
11.285 0 1
11.4023 0 1
11.5196 0 1
11.6369 0 1
11.7542 0 1
11.8715 0 1
11.9888 0 1
12.1062 0 1
12.2235 0 1
12.3409 0 1
12.4582 0 1
12.5756 0 1
12.693 0 1
12.8104 0 1
12.9278 0 1
13.0452 0 1
13.1626 0 1
13.28 0 1
13.3974 0 1
13.5149 0 1
13.6323 0 1
13.7497 0 1
13.8671 0 1
13.9845 0 1
14.1019 0 1
14.2193 0 1
14.3367 0 1
14.4541 0 1
14.5714 0 1
14.6888 0 1
14.8062 0 1
14.9235 0 1
15.0408 0 0
15.1581 0 0
15.2755 0 0
15.3927 0 0
15.51 0 0
15.6273 0 0
15.7445 0 0
15.8617 0 0
15.9789 0 0
16.0961 0 0
16.2132 0 0
16.3304 0 0
16.4475 0 0
16.5646 0 0
16.6816 0 0
16.7986 0 0
16.9156 0 0
17.0326 0 0
17.1496 0 0
17.2665 0 0
17.3833 0 0
17.5002 0 0
17.617 0 0
17.7338 0 0
17.8505 0 0
17.9672 0 0
18.0839 0 0
18.2005 0 0
18.3171 0 0
18.4337 0 0
18.5502 0 0
18.6666 0 0
18.7831 0 0
18.8994 0 0
19.0158 0 0
19.1321 0 0
19.2483 0 0
19.3645 0 0
19.4806 0 0
19.5967 0 0
19.7128 0 0
19.8288 0 0
19.9447 0 0
20.0606 0 1
20.1764 0 1
20.2922 0 1
20.4079 0 1
20.5236 0 1
20.6392 0 1
20.7548 0 1
20.8702 0 1
23.3078 0 1
23.4233 0 1
23.539 0 1
23.6547 0 1
23.7704 0 1
23.8862 0 1
24.0021 0 1
24.118 0 1
24.234 0 1
24.35 0 1
24.4661 10961 104.695
24.5822 13308 115.36
24.6984 15891 126.06
24.8146 18154 134.737
24.9309 19858 140.918
25.0472 21440 146.424
25.1636 22612 150.373
25.28 23690 153.916
25.3965 24350 156.045
25.513 25322 159.129
25.6296 26718 163.456
25.7462 27757 166.604
25.8628 28355 168.389
25.9795 29064 170.482
26.0962 29322 171.237
26.213 29717 172.386
26.3298 30206 173.799
26.4466 29376 171.394
26.5635 29084 170.54
26.6804 29084 170.54
26.7973 28828 169.788
26.9143 26636 163.205
27.0313 24843 157.617
27.1483 25596 159.987
27.2653 27002 164.323
27.3824 27606 166.151
27.4996 28371 168.437
27.6167 27669 166.34
27.7339 27159 164.8
27.8511 26937 164.125
27.9683 26729 163.49
28.0855 26282 162.117
28.2028 26009 161.273
28.3201 25595 159.984
28.4374 25572 159.912
28.5547 25733 160.415
28.6721 25642 160.131
28.7894 25476 159.612
28.9068 25631 160.097
29.0242 26090 161.524
29.1416 26573 163.012
29.259 27266 165.124
29.3764 27672 166.349
29.4939 28151 167.783
29.6113 28516 168.867
29.7288 28904 170.012
29.8463 29126 170.663
29.9638 29415 171.508
30.0812 28790 169.676
30.1987 28646 169.251
30.3162 27410 165.56
30.4337 24688 157.124
30.5512 23690 153.916
30.6687 23999 154.916
30.7862 26091 161.527
30.9037 26928 164.098
31.0212 27725 166.508
31.1387 27804 166.745
31.2562 27478 165.765
31.3737 26895 163.997
31.4912 26470 162.696
31.6087 26508 162.813
31.7262 26222 161.932
31.8436 26108 161.58
31.9611 25555 159.859
32.0785 25766 160.518
32.1959 25568 159.9
32.3134 25448 159.524
32.4308 25487 159.646
32.5482 25781 160.565
32.6655 25793 160.602
32.7829 26826 163.786
32.9002 27342 165.354
33.0176 27482 165.777
33.1349 28114 167.672
33.2522 28729 169.496
33.3694 28850 169.853
33.4867 28698 169.405
33.6039 28630 169.204
33.7211 28308 168.25
33.8383 27830 166.823
33.9554 26058 161.425
34.0725 23582 153.564
34.1896 22608 150.36
34.3067 23251 152.483
34.4237 25082 158.373
34.5407 25746 160.456
34.6577 26924 164.085
34.7746 26962 164.201
34.8915 26669 163.306
35.0084 26701 163.404
35.1252 25925 161.012
35.242 25482 159.631
35.3587 25433 159.477
35.4755 25387 159.333
35.5921 25151 158.591
35.7088 24527 156.611
35.8254 24426 156.288
35.9419 23968 154.816
36.0584 23809 154.302
36.1749 23423 153.046
36.2913 22375 149.583
36.4077 21569 146.864
36.524 21270 145.842
36.6403 20552 143.36
36.7565 20204 142.141
36.8727 19580 139.929
36.9889 18790 137.077
37.1049 17317 131.594
37.221 0 1
37.3369 0 1
37.4529 0 1
37.5687 0 1
37.6845 0 1
37.8003 0 1
37.916 0 1
38.0316 0 1
38.1472 0 1
40.5851 0 1
40.7008 0 1
40.8164 0 1
40.9322 0 1
41.048 0 1
41.1639 0 1
41.2798 0 1
41.3958 0 1
41.5118 0 1
41.6279 0 1
41.744 15355 123.915
41.8602 17155 130.977
41.9765 18644 136.543
42.0928 19661 140.218
42.2091 20411 142.867
42.3255 21238 145.733
42.4419 21820 147.716
42.5584 21830 147.75
42.675 20327 142.573
42.7915 18622 136.462
42.9081 17880 133.716
43.0248 18998 137.833
43.1415 20752 144.056
43.2582 22382 149.606
43.375 22895 151.311
43.4918 23729 154.042
43.6087 23552 153.467
43.7256 23469 153.196
43.8425 23231 152.417
43.9595 22937 151.45
44.0765 22481 149.937
44.1935 22181 148.933
44.3106 21721 147.38
44.4277 21403 146.298
44.5448 21069 145.152
44.6619 20749 144.045
44.7791 20723 143.955
44.8963 20812 144.264
45.0136 21118 145.32
45.1308 21661 147.177
45.2481 22222 149.07
45.3654 23217 152.371
45.4827 23710 153.981
45.6001 23866 154.486
45.7174 24447 156.355
45.8348 24019 154.981
45.9522 24097 155.232
46.0697 24150 155.403
46.1871 22150 148.829
46.3046 19602 140.007
46.422 18129 134.644
46.5395 18289 135.237
46.657 20098 141.767
46.7745 22151 148.832
46.892 22934 151.44
47.0096 23702 153.955
47.1271 24014 154.965
47.2446 24162 155.441
47.3622 23914 154.642
47.4797 23676 153.87
47.5973 22958 151.519
47.7149 22656 150.519
47.8324 22554 150.18
47.95 22211 149.034
48.0675 21478 146.554
48.1851 21246 145.76
48.3027 20668 143.764
48.4202 20689 143.837
48.5378 21380 146.219
48.6554 21638 147.099
48.7729 22266 149.218
48.8904 22934 151.44
49.008 24014 154.965
49.1255 24205 155.58
49.243 24425 156.285
49.3605 24285 155.836
49.478 23910 154.629
49.5955 22262 149.205
49.713 19800 140.712
49.8304 17681 132.97
49.9479 16507 128.48
50.0653 17358 131.75
50.1827 19881 141
50.3001 21033 145.028
50.4175 22528 150.093
50.5348 22898 151.321
50.6521 23294 152.624
50.7694 23515 153.346
50.8867 23062 151.862
51.004 23157 152.174
51.1212 22669 150.562
51.2384 22470 149.9
51.3556 21966 148.209
51.4727 21568 146.86
51.5899 21398 146.281
51.707 20754 144.062
51.824 20759 144.08
51.9411 20523 143.259
52.0581 21318 146.007
52.175 22164 148.876
52.2919 22981 151.595
52.4088 23778 154.201
52.5257 24108 155.268
52.6425 24532 156.627
52.7593 24047 155.071
52.876 24480 156.461
52.9927 23913 154.638
53.1094 22425 149.75
53.226 19788 140.67
53.3426 17612 132.71
53.4591 15992 126.459
53.5756 15293 123.665
53.692 15190 123.248
53.8084 15612 124.948
53.9248 15347 123.883
54.0411 15027 122.585
54.1573 14139 118.908
54.2735 0 1
54.3896 0 1
54.5057 0 1
54.6217 0 1
54.7377 0 1
54.8537 0 1
54.9695 0 1
55.0853 0 1
55.2011 0 1
55.3168 0 1
55.4324 0 1
57.824 0 1
57.9396 0 1
58.0553 0 1
58.1711 0 1
58.2869 0 1
58.4028 0 1
58.5187 0 1
58.6347 0 1
58.7508 0 1
58.8669 0 1
58.983 17708 133.071
59.0992 20587 143.482
59.2155 22485 149.95
59.3318 24216 155.615
59.4482 25202 158.751
59.5646 26341 162.299
59.681 26675 163.325
59.7975 27121 164.685
59.9141 26914 164.055
60.0306 26885 163.966
60.1473 26078 161.487
60.2639 25622 160.069
60.3807 25397 159.364
60.4974 24830 157.575
60.6142 25443 159.509
60.731 26342 162.302
60.8479 27951 167.186
60.9648 28052 167.487
61.0818 28964 170.188
61.1987 29023 170.361
61.3158 29086 170.546
61.4328 28679 169.349
61.5499 27831 166.826
61.667 25474 159.606
61.7841 23746 154.097
61.9013 21620 147.037
62.0185 21145 145.413
62.1357 22077 148.583
62.253 23964 154.803
62.3702 25610 160.031
62.4875 27082 164.566
62.6049 27822 166.799
62.7222 28497 168.811
62.8396 28421 168.585
62.9569 28588 169.08
63.0743 28551 168.97
63.1918 28227 168.009
63.3092 27742 166.559
63.4267 27402 165.535
63.5441 26400 162.481
63.6616 25630 160.094
63.7791 24895 157.781
63.8966 24562 156.723
64.0142 24554 156.697
64.1317 25357 159.239
64.2492 26234 161.969
64.3668 27521 165.895
64.4843 28140 167.75
64.6019 28702 169.417
64.7195 28807 169.726
64.837 29025 170.367
64.9546 28404 168.535
65.0722 27366 165.427
65.1898 24731 157.261
65.3074 23199 152.312
65.4249 20616 143.583
65.5425 19908 141.096
65.6601 20532 143.29
65.7777 22421 149.736
65.8952 24374 156.122
66.0128 25678 160.244
66.1304 26843 163.838
66.2479 27779 166.67
66.3655 27662 166.319
66.483 27902 167.039
66.6005 28036 167.44
66.718 27978 167.266
66.8355 27801 166.736
66.953 26803 163.716
67.0705 26204 161.876
67.1879 25610 160.031
67.3054 24776 157.404
67.4228 24070 155.145
67.5402 23352 152.814
67.6576 23789 154.237
67.7749 24498 156.518
67.8923 25601 160.003
68.0096 27095 164.606
68.1269 27592 166.108
68.2442 27933 167.132
68.3614 27798 166.727
68.4787 27879 166.97
68.5958 27503 165.84
68.713 25802 160.63
68.8302 23496 153.284
68.9473 21422 146.363
69.0643 19786 140.663
69.1814 19197 138.553
69.2984 20250 142.302
69.4154 21905 148.003
69.5323 23633 153.73
69.6492 24820 157.544
69.7661 24700 157.162
69.8829 24130 155.338
69.9997 23758 154.136
70.1165 23256 152.499
70.2332 22399 149.663
70.3499 21591 146.939
70.4665 20722 143.951
70.5831 19475 139.553
70.6996 18203 134.918
70.8161 16975 130.288
70.9326 15042 122.646
71.049 13321 115.417
71.1653 11676 108.056
71.2817 11024 104.995
71.3979 10528 102.606
71.5141 10126 100.628
71.6303 10183 100.911
71.7464 10333 101.651
71.8624 0 1
71.9784 0 1
72.0944 0 1
72.2102 0 1
72.3261 0 1
72.4418 0 1
72.5575 0 1
72.6732 0 1
75.1054 0 1
75.2209 0 1
75.3365 0 1
75.4521 0 1
75.5678 0 1
75.6835 0 1
75.7993 0 1
75.9151 0 1
76.031 0 1
76.147 17867 133.667
76.263 19884 141.011
76.3791 20329 142.58
76.4952 20993 144.89
76.6113 21671 147.211
76.7276 22614 150.38
76.8438 24434 156.314
76.9601 25455 159.546
77.0765 25944 161.071
77.1929 26107 161.577
77.3093 26684 163.352
77.4258 26403 162.49
77.5423 25099 158.427
77.6589 23391 152.941
77.7755 21198 145.595
77.8921 19395 139.266
78.0088 18355 135.481
78.1256 17570 132.552
78.2423 18241 135.059
78.3591 20032 141.534
78.4759 21839 147.78
78.5928 23205 152.332
78.7097 23749 154.107
78.8266 24628 156.933
78.9436 25556 159.862
79.0606 25806 160.642
79.1776 25898 160.929
79.2946 26146 161.697
79.4117 25953 161.099
79.5288 25882 160.879
79.6459 25604 160.012
79.7631 24652 157.01
79.8802 23970 154.822
79.9974 22506 150.02
80.1147 21952 148.162
80.2319 22678 150.592
80.3491 23954 154.771
80.4664 25720 160.375
80.5837 26486 162.745
80.701 26925 164.088
80.8183 27535 165.937
80.9357 27164 164.815
81.053 27217 164.976
81.1704 26477 162.718
81.2877 24659 157.032
81.4051 22262 149.205
81.5225 20603 143.537
81.6399 19114 138.253
81.7573 18091 134.503
81.8747 18735 136.876
81.9922 20663 143.746
82.1096 22759 150.861
82.227 23805 154.289
82.3444 24454 156.378
82.4619 25621 160.066
82.5793 26681 163.343
82.6967 26582 163.04
82.8142 26998 164.311
82.9316 26986 164.274
83.049 27262 165.112
83.1664 26517 162.84
83.2838 25824 160.698
83.4012 25425 159.452
83.5186 24483 156.47
83.636 23247 152.47
83.7534 22297 149.322
83.8708 23198 152.309
83.9881 24372 156.115
84.1055 26319 162.231
84.2228 27206 164.942
84.3401 27746 166.571
84.4575 27862 166.919
84.5747 27745 166.568
84.692 26258 162.043
84.8093 24636 156.959
84.9265 22246 149.151
85.0437 20730 143.979
85.1609 19486 139.592
85.2781 18852 137.303
85.3952 19458 139.492
85.5123 20985 144.862
85.6294 22871 151.232
85.7465 24232 155.666
85.8636 25099 158.427
85.9806 25593 159.978
86.0976 26396 162.468
86.2145 26954 164.177
86.3315 26680 163.34
86.4484 28518 168.873
86.5652 27371 165.442
86.682 27122 164.688
86.7988 26717 163.453
86.9156 25287 159.019
87.0323 23302 152.65
87.149 21317 146.003
87.2657 19755 140.552
87.3823 19875 140.979
87.4988 20570 143.422
87.6154 21608 146.997
87.7318 21910 148.02
87.8483 21881 147.922
87.9647 21112 145.3
88.081 19960 141.28
88.1973 18295 135.259
88.3136 15777 125.607
88.4298 13048 114.228
88.546 10888 104.346
88.6621 9671 98.3412
88.7781 8685 93.1933
88.8942 0 1
89.0101 0 1
89.126 0 1
89.2419 0 1
89.3577 0 1
89.4734 0 1
89.5891 0 1
89.7047 0 1
89.8203 0 1
89.9358 0 1
92.3269 0 1
92.4424 0 1
92.558 0 1
92.6736 0 1
92.7893 0 1
92.905 0 1
93.0208 0 1
93.1366 0 1
93.2525 0 1
93.3685 0 1
93.4845 0 1
93.6005 23154 152.164
93.7167 22567 150.223
93.8328 22401 149.67
93.949 20987 144.869
94.0653 20544 143.332
94.1816 19980 141.351
94.2979 20614 143.576
94.4143 22063 148.536
94.5307 23529 153.392
94.6472 24509 156.554
94.7637 25852 160.786
94.8803 25767 160.521
94.9969 26751 163.557
95.1135 27206 164.942
95.2302 27757 166.604
95.3469 28126 167.708
95.4637 28270 168.137
95.5805 28245 168.062
95.6973 27846 166.871
95.8142 27335 165.333
95.9311 26362 162.364
96.048 24887 157.756
96.1649 24553 156.694
96.2819 24943 157.934
96.3989 26781 163.649
96.516 28457 168.692
96.633 28807 169.726
96.7501 29069 170.496
96.8673 28642 169.239
96.9844 27962 167.218
97.1016 26356 162.345
97.2188 24870 157.702
97.336 23112 152.026
97.4532 21960 148.189
97.5704 20693 143.851
97.6877 20419 142.895
97.805 21069 145.152
97.9223 22285 149.282
98.0396 23844 154.415
98.1569 24808 157.506
98.2743 25683 160.259
98.3916 26492 162.764
98.509 26928 164.098
98.6264 27594 166.114
98.7438 28321 168.288
98.8612 28580 169.056
98.9786 28974 170.218
99.096 28531 168.911
99.2134 28422 168.588
99.3308 27913 167.072
99.4482 27049 164.466
99.5656 25703 160.322
99.6831 25195 158.729
99.8005 26326 162.253
99.9179 28076 167.559
100.035 29023 170.361
100.153 28870 169.912
100.27 29292 171.149
100.388 28805 169.72
100.505 28374 168.446
100.622 26875 163.936
100.74 25274 158.978
100.857 23375 152.889
100.975 22054 148.506
101.092 21247 145.764
101.209 20680 143.805
101.327 20619 143.593
101.444 21481 146.564
101.561 23064 151.868
101.679 23954 154.771
101.796 25010 158.146
101.913 25862 160.817
102.03 26603 163.104
102.148 27157 164.794
102.265 26568 162.997
102.382 28980 170.235
102.499 27991 167.305
102.616 28489 168.787
102.733 28678 169.346
102.851 27381 165.472
102.968 26904 164.024
103.085 25869 160.838
103.202 24457 156.387
103.319 24772 157.391
103.436 26217 161.917
103.552 27681 166.376
103.669 28413 168.562
103.786 28548 168.962
103.903 28219 167.985
104.02 27899 167.03
104.137 26623 163.166
104.253 25288 159.022
104.37 22403 149.676
104.487 21330 146.048
104.603 20232 142.239
104.72 19222 138.643
104.836 18356 135.484
104.953 17808 133.447
105.069 17754 133.244
105.186 17744 133.207
105.302 17690 133.004
105.418 17105 130.786
105.535 15327 123.802
105.651 14166 119.021
105.767 12776 113.031
105.883 11800 108.628
105.999 10577 102.845
106.115 0 1
106.231 0 1
106.347 0 1
106.463 0 1
106.579 0 1
106.694 0 1
106.81 0 1
106.926 0 1
107.041 0 1
107.157 0 1
109.576 0 1
109.692 0 1
109.807 0 1
109.923 0 1
110.039 0 1
110.155 0 1
110.27 0 1
110.386 0 1
110.502 0 1
110.618 18706 136.77
110.735 20929 144.669
110.851 22796 150.983
110.967 23978 154.848
111.083 24971 158.022
111.199 26423 162.552
111.316 27413 165.569
111.432 27930 167.123
111.549 27578 166.066
111.665 26845 163.844
111.782 25829 160.714
111.898 24333 155.99
112.015 24739 157.286
112.132 26619 163.153
112.248 28030 167.422
112.365 28178 167.863
112.482 27470 165.741
112.599 28500 168.819
112.716 27684 166.385
112.832 26224 161.938
112.949 24935 157.908
113.066 23730 154.045
113.183 22645 150.483
113.3 21482 146.567
113.417 20742 144.021
113.534 20295 142.461
113.652 20718 143.937
113.769 21833 147.76
113.886 22797 150.987
114.003 23073 151.898
114.12 24260 155.756
114.238 24709 157.191
114.355 25052 158.278
114.472 24920 157.861
114.589 26506 162.807
114.707 26510 162.819
114.824 26511 162.822
114.942 26791 163.68
115.059 27002 164.323
115.176 26831 163.802
115.294 25803 160.633
115.411 24338 156.006
115.529 24522 156.595
115.646 26150 161.71
115.764 27039 164.435
115.881 27566 166.03
115.999 27642 166.259
116.116 27094 164.603
116.234 27105 164.636
116.351 26288 162.136
116.469 24644 156.984
116.586 23466 153.186
116.704 22585 150.283
116.821 21706 147.33
116.939 20821 144.295
117.056 20033 141.538
117.174 20260 142.338
117.291 20913 144.613
117.409 22118 148.721
117.526 22163 148.872
117.644 23184 152.263
117.761 23344 152.787
117.879 23906 154.616
117.996 24485 156.477
118.114 24946 157.943
118.231 25109 158.458
118.349 25692 160.287
118.466 26172 161.778
118.584 25966 161.14
118.701 26120 161.617
118.819 25571 159.909
118.936 24153 155.412
119.053 23374 152.886
119.171 24220 155.628
119.288 25669 160.215
119.405 26411 162.515
119.523 26683 163.349
119.64 26450 162.635
119.757 26541 162.914
119.875 26099 161.552
119.992 25236 158.858
120.109 23793 154.25
120.226 23118 152.046
120.343 21926 148.074
120.46 21134 145.375
120.578 20337 142.608
120.695 19575 139.911
120.812 19409 139.316
120.929 19674 140.264
121.046 20304 142.492
121.163 20640 143.666
121.279 20264 142.352
121.396 20570 143.422
121.513 20467 143.063
121.63 20407 142.853
121.747 20334 142.597
121.863 20071 141.672
121.98 20188 142.084
122.097 19687 140.31
122.213 19201 138.568
122.33 18497 136.004
122.446 17207 131.175
122.563 15421 124.181
122.679 13900 117.898
122.795 13203 114.904
122.912 13092 114.42
123.028 13140 114.63
123.144 12525 111.915
123.26 12105 110.023
123.377 0 1
123.493 0 1
123.609 0 1
123.725 0 1
123.84 0 1
123.956 0 1
124.072 0 1
124.188 0 1
124.303 0 1
124.419 0 1
126.852 0 1
126.968 0 1
127.083 0 1
127.199 0 1
127.315 0 1
127.431 0 1
127.547 0 1
127.663 0 1
127.779 0 1
127.895 0 1
128.011 0 1
128.127 0 1
128.243 0 1
128.359 26806 163.725
128.476 27312 165.263
128.592 27728 166.517
128.708 27268 165.13
128.825 27280 165.167
128.941 26791 163.68
129.058 25768 160.524
129.174 25229 158.836
129.291 24145 155.387
129.408 23380 152.905
129.524 22790 150.964
129.641 22339 149.462
129.758 22073 148.57
129.875 22076 148.58
129.992 23075 151.905
130.108 23129 152.082
130.225 23794 154.253
130.342 24073 155.155
130.459 24128 155.332
130.576 25474 159.606
130.693 25361 159.251
130.81 25400 159.374
130.928 25826 160.705
131.045 26550 162.942
131.162 26683 163.349
131.279 27195 164.909
131.396 26727 163.484
131.513 26477 162.718
131.631 27046 164.457
131.748 27764 166.625
131.865 27864 166.925
131.983 27904 167.045
132.1 27873 166.952
132.217 28059 167.508
132.335 27803 166.742
132.452 26828 163.793
132.57 26521 162.853
132.687 24657 157.025
132.804 25781 160.565
132.922 24138 155.364
133.039 23346 152.794
133.157 22474 149.913
133.274 22625 150.416
133.392 22736 150.785
133.509 22669 150.562
133.627 22906 151.347
133.744 23425 153.052
133.862 23756 154.13
133.979 24345 156.029
134.097 24492 156.499
134.214 25082 158.373
134.332 25185 158.698
134.449 25590 159.969
134.567 26193 161.843
134.684 26196 161.852
134.802 26631 163.19
134.919 26513 162.828
135.037 26343 162.305
135.154 26211 161.898
135.272 26443 162.613
135.389 27141 164.745
135.507 27674 166.355
135.624 27600 166.132
135.742 27730 166.523
135.859 27659 166.31
135.977 26961 164.198
136.094 26403 162.49
136.211 25711 160.346
136.329 25188 158.707
136.446 24299 155.881
136.564 23653 153.795
136.681 22950 151.493
136.798 22382 149.606
136.915 22277 149.255
137.033 22268 149.225
137.15 22322 149.405
137.267 22217 149.054
137.384 22817 151.053
137.502 23294 152.624
137.619 23344 152.787
137.736 23532 153.401
137.853 23699 153.945
137.97 24602 156.85
138.087 23841 154.405
138.204 24534 156.633
138.321 24891 157.769
138.438 24673 157.076
138.555 24660 157.035
138.672 24210 155.596
138.788 23783 154.217
138.905 23467 153.189
139.022 23464 153.18
139.139 23073 151.898
139.255 22626 150.419
139.372 21326 146.034
139.488 20206 142.148
139.605 18713 136.795
139.721 17038 130.53
139.838 16001 126.495
139.954 14559 120.661
140.071 13641 116.795
140.187 12910 113.622
140.303 12174 110.336
140.419 11280 106.207
140.535 10646 103.179
140.652 10401 101.985
140.768 0 1
140.884 0 1
141 0 1
141.115 0 1
141.231 0 1
141.347 0 1
141.463 0 1
141.578 0 1
141.694 0 1
144.104 0 1
144.219 0 1
144.335 0 1
144.45 0 1
144.566 0 1
144.682 0 1
144.798 0 1
144.914 0 1
145.03 0 1
145.146 19872 140.968
145.262 19921 141.142
145.378 19315 138.978
145.494 18888 137.434
145.61 18554 136.213
145.726 18654 136.58
145.842 18451 135.834
145.959 18649 136.561
146.075 18603 136.393
146.192 19150 138.384
146.308 18953 137.67
146.425 19404 139.298
146.541 19530 139.75
146.658 20024 141.506
146.774 20247 142.292
146.891 20652 143.708
147.008 20752 144.056
147.125 21448 146.451
147.241 21312 145.986
147.358 21669 147.204
147.475 21133 145.372
147.592 21627 147.061
147.709 22587 150.29
147.826 22647 150.489
147.943 22591 150.303
148.06 22794 150.977
148.177 22554 150.18
148.294 22365 149.549
148.411 22003 148.334
148.528 21817 147.706
148.645 21041 145.055
148.762 20712 143.917
148.88 20252 142.31
148.997 19065 138.076
149.114 19638 140.136
149.231 18549 136.195
149.349 18719 136.817
149.466 17968 134.045
149.583 18571 136.275
149.701 18361 135.503
149.818 18434 135.772
149.935 18408 135.676
150.053 18770 137.004
150.17 19125 138.293
150.287 19214 138.615
150.405 19533 139.761
150.522 19982 141.358
150.64 20151 141.954
150.757 20566 143.409
150.875 20767 144.108
150.992 20962 144.783
151.11 19871 140.965
151.227 20693 143.851
151.344 21395 146.27
151.462 21531 146.734
151.579 21940 148.122
151.697 21653 147.15
151.814 21937 148.111
151.932 21490 146.595
152.049 21059 145.117
152.167 20895 144.551
152.284 20255 142.32
152.402 19984 141.365
152.519 19682 140.293
152.636 19194 138.542
152.754 18311 135.318
152.871 18097 134.525
152.989 17826 133.514
153.106 17778 133.334
153.223 17349 131.716
153.341 17702 133.049
153.458 17715 133.098
153.575 17374 131.81
153.693 17712 133.086
153.81 17877 133.705
153.927 18017 134.227
154.044 18556 136.22
154.162 18823 137.197
154.279 19331 139.036
154.396 19487 139.596
154.513 19697 140.346
154.63 20340 142.618
154.747 20096 141.76
154.864 20182 142.063
154.981 20903 144.579
155.098 20866 144.451
155.215 20658 143.729
155.332 20716 143.931
155.449 20420 142.899
155.566 20207 142.151
155.683 19555 139.839
155.8 19025 137.931
155.917 18774 137.018
156.033 17819 133.488
156.15 0 1
156.267 0 1
156.383 0 1
156.5 0 1
156.617 0 1
156.733 0 1
156.85 0 1
156.966 0 1
157.082 0 1
157.199 0 1
157.315 0 1
157.431 0 1
157.547 0 1
157.664 0 1
157.78 0 1
157.896 0 1
158.012 0 1
158.128 0 1
158.244 0 1
158.359 0 1
158.475 0 1
158.591 0 1
158.706 0 1
