
6.15755 0 1
6.2731 0 1
6.3887 0 1
6.50437 0 1
6.62009 0 1
6.73587 0 1
6.8517 0 1
6.96759 0 1
7.08353 0 1
7.19952 0 1
7.31557 0 1
7.43166 0 1
7.54781 0 1
7.664 0 1
7.78024 0 1
7.89653 0 1
8.01286 0 1
8.12924 0 1
8.24567 0 1
8.36213 0 1
8.47864 0 1
8.59519 0 1
8.71178 0 1
8.82841 0 1
8.94508 0 1
9.06179 0 1
9.17853 0 1
9.29531 0 1
9.41212 0 1
9.52897 0 1
9.64584 0 1
9.76276 0 1
9.8797 0 1
9.99667 0 1
10.1137 0 1
10.2307 0 1
10.3478 0 1
10.4648 0 1
10.5819 0 1
10.6991 0 1
10.8162 0 1
10.9334 0 1
11.0506 0 1
11.1678 0 1
11.285 0 1
11.4023 0 1
11.5196 0 1
11.6369 0 1
11.7542 0 1
11.8715 0 1
11.9888 0 1
12.1062 0 1
12.2235 0 1
12.3409 0 1
12.4582 0 1
12.5756 0 1
12.693 0 1
12.8104 0 1
12.9278 0 1
13.0452 0 1
13.1626 0 1
13.28 0 1
13.3974 0 1
13.5149 0 1
13.6323 0 1
13.7497 0 1
13.8671 0 1
13.9845 0 1
14.1019 0 1
14.2193 0 1
14.3367 0 1
14.4541 0 1
14.5714 0 1
14.6888 0 1
14.8062 0 1
14.9235 0 1
15.0408 3474 58.9406
15.1581 3682 60.6795
15.2755 3788 61.5467
15.3927 3696 60.7947
15.51 3832 61.9032
15.6273 3623 60.1914
15.7445 3838 61.9516
15.8617 3768 61.384
15.9789 3843 61.9919
16.0961 3923 62.6339
16.2132 3788 61.5467
16.3304 3799 61.636
16.4475 3839 61.9597
16.5646 4001 63.2535
16.6816 3903 62.474
16.7986 4025 63.4429
16.9156 4107 64.0859
17.0326 3987 63.1427
17.1496 4041 63.5689
17.2665 4108 64.0937
17.3833 3994 63.1981
17.5002 4015 63.364
17.617 3999 63.2376
17.7338 4033 63.5059
17.8505 3927 62.6658
17.9672 3706 60.8769
18.0839 3536 59.4643
18.2005 3482 59.0085
18.3171 3584 59.8665
18.4337 3886 62.3378
18.5502 4112 64.1249
18.6666 4541 67.3869
18.7831 4682 68.4251
18.8994 4491 67.0149
19.0158 4556 67.4981
19.1321 4428 66.5432
19.2483 4500 67.082
19.3645 4528 67.2904
19.4806 4550 67.4537
19.5967 4507 67.1342
19.7128 4602 67.838
19.8288 4292 65.5134
19.9447 3827 61.8628
20.0606 0 1
20.1764 0 1
20.2922 0 1
20.4079 0 1
20.5236 0 1
20.6392 0 1
20.7548 0 1
20.8702 0 1
23.3078 0 1
23.4233 0 1
23.539 0 1
23.6547 0 1
23.7704 0 1
23.8862 0 1
24.0021 0 1
24.118 0 1
24.234 0 1
24.35 0 1
24.4661 4832 69.5126
24.5822 4951 70.3633
24.6984 4928 70.1997
24.8146 4949 70.3491
24.9309 4951 70.3633
25.0472 4788 69.1954
25.1636 4701 68.5638
25.28 4673 68.3593
25.3965 4741 68.8549
25.513 4878 69.8427
25.6296 4934 70.2424
25.7462 5097 71.3933
25.8628 5255 72.4914
25.9795 5302 72.8148
26.0962 5110 71.4843
26.213 5267 72.5741
26.3298 5266 72.5672
26.4466 5028 70.9084
26.5635 4992 70.6541
26.6804 4846 69.6132
26.7973 4625 68.0074
26.9143 4391 66.2646
27.0313 4315 65.6887
27.1483 4352 65.9697
27.2653 4704 68.5857
27.3824 4814 69.383
27.4996 4998 70.6965
27.6167 4915 70.1071
27.7339 5054 71.0915
27.8511 4985 70.6045
27.9683 5055 71.0985
28.0855 5043 71.0141
28.2028 5033 70.9436
28.3201 5019 70.8449
28.4374 4893 69.95
28.5547 4977 70.5479
28.6721 4946 70.3278
28.7894 4841 69.5773
28.9068 4805 69.3181
29.0242 4862 69.728
29.1416 4943 70.3065
29.259 5098 71.4003
29.3764 5121 71.5612
29.4939 5271 72.6017
29.6113 5138 71.6798
29.7288 5204 72.1388
29.8463 5324 72.9657
29.9638 5272 72.6085
30.0812 5234 72.3464
30.1987 4908 70.0571
30.3162 4714 68.6586
30.4337 4508 67.1416
30.5512 4271 65.3529
30.6687 4286 65.4675
30.7862 4650 68.1909
30.9037 4512 67.1714
31.0212 4816 69.3974
31.1387 4984 70.5975
31.2562 5082 71.2881
31.3737 5238 72.374
31.4912 4907 70.05
31.6087 5114 71.5122
31.7262 5120 71.5542
31.8436 5094 71.3723
31.9611 4995 70.6753
32.0785 5061 71.1407
32.1959 4913 70.0928
32.3134 4828 69.4838
32.4308 4914 70.0999
32.5482 4885 69.8928
32.6655 4898 69.9857
32.7829 5090 71.3442
32.9002 5140 71.6938
33.0176 5336 73.0479
33.1349 5228 72.3049
33.2522 5323 72.9589
33.3694 5115 71.5192
33.4867 5151 71.7705
33.6039 5191 72.0486
33.7211 5144 71.7217
33.8383 5046 71.0352
33.9554 4889 69.9214
34.0725 4557 67.5056
34.1896 4527 67.283
34.3067 4327 65.7799
34.4237 4425 66.5207
34.5407 4437 66.6108
34.6577 4605 67.8602
34.7746 4747 68.8985
34.8915 4837 69.5485
35.0084 4842 69.5845
35.1252 4880 69.857
35.242 4878 69.8427
35.3587 4959 70.4202
35.4755 4910 70.0714
35.5921 5096 71.3863
35.7088 4918 70.1285
35.8254 4867 69.7639
35.9419 4743 68.8694
36.0584 4740 68.8477
36.1749 4704 68.5857
36.2913 4665 68.3008
36.4077 4789 69.2026
36.524 4771 69.0724
36.6403 4894 69.9571
36.7565 5085 71.3092
36.8727 5011 70.7884
36.9889 5121 71.5612
37.1049 4828 69.4838
37.221 0 1
37.3369 0 1
37.4529 0 1
37.5687 0 1
37.6845 0 1
37.8003 0 1
37.916 0 1
38.0316 0 1
38.1472 0 1
40.5851 0 1
40.7008 0 1
40.8164 0 1
40.9322 0 1
41.048 0 1
41.1639 0 1
41.2798 0 1
41.3958 0 1
41.5118 0 1
41.6279 0 1
41.744 4049 63.6318
41.8602 4041 63.5689
41.9765 4313 65.6734
42.0928 4370 66.106
42.2091 4272 65.3605
42.3255 4475 66.8954
42.4419 4261 65.2763
42.5584 4256 65.238
42.675 4170 64.5755
42.7915 4092 63.9687
42.9081 3951 62.857
43.0248 3814 61.7576
43.1415 3733 61.0983
43.2582 3808 61.709
43.375 3782 61.498
43.4918 3908 62.514
43.6087 3906 62.498
43.7256 3806 61.6928
43.8425 3735 61.1146
43.9595 3757 61.2944
44.0765 3829 61.8789
44.1935 3833 61.9112
44.3106 3823 61.8304
44.4277 3746 61.2046
44.5448 3503 59.1861
44.6619 3450 58.7367
44.7791 3381 58.1464
44.8963 3387 58.1979
45.0136 3408 58.3781
45.1308 3402 58.3267
45.2481 3520 59.3296
45.3654 3495 59.1185
45.4827 3401 58.3181
45.6001 3491 59.0847
45.7174 3568 59.7327
45.8348 3352 57.8965
45.9522 3456 58.7878
46.0697 3311 57.5413
46.1871 3258 57.0789
46.3046 3116 55.8211
46.422 3145 56.0803
46.5395 3038 55.1181
46.657 2972 54.5161
46.7745 2896 53.8145
46.892 2941 54.231
47.0096 2900 53.8516
47.1271 3013 54.8908
47.2446 2947 54.2863
47.3622 2766 52.5928
47.4797 2785 52.7731
47.5973 2805 52.9623
47.7149 2819 53.0943
47.8324 2869 53.563
47.95 2902 53.8702
48.0675 2761 52.5452
48.1851 2685 51.817
48.3027 2597 50.9608
48.4202 2727 52.2207
48.5378 2630 51.2835
48.6554 2737 52.3163
48.7729 2721 52.1632
48.8904 2936 54.1849
49.008 2772 52.6498
49.1255 2916 54
49.243 2833 53.2259
49.3605 2843 53.3198
49.478 2872 53.591
49.5955 2883 53.6936
49.713 2785 52.7731
49.8304 2864 53.5164
49.9479 2736 52.3068
50.0653 2770 52.6308
50.1827 2674 51.7107
50.3001 2648 51.4587
50.4175 2692 51.8845
50.5348 2782 52.7447
50.6521 2794 52.8583
50.7694 2905 53.8981
50.8867 2876 53.6284
51.004 2881 53.6749
51.1212 3045 55.1815
51.2384 3237 56.8946
51.3556 3242 56.9386
51.4727 3113 55.7943
51.5899 3253 57.0351
51.707 3306 57.4978
51.824 3292 57.376
51.9411 3370 58.0517
52.0581 3449 58.7282
52.175 3604 60.0333
52.2919 3690 60.7454
52.4088 3869 62.2013
52.5257 3743 61.1801
52.6425 3842 61.9839
52.7593 3941 62.7774
52.876 3952 62.8649
52.9927 4029 63.4744
53.1094 4064 63.7495
53.226 4056 63.6867
53.3426 3858 62.1128
53.4591 3970 63.0079
53.5756 4013 63.3482
53.692 3846 62.0161
53.8084 3897 62.426
53.9248 3810 61.7252
54.0411 3858 62.1128
54.1573 3809 61.7171
54.2735 0 1
54.3896 0 1
54.5057 0 1
54.6217 0 1
54.7377 0 1
54.8537 0 1
54.9695 0 1
55.0853 0 1
55.2011 0 1
55.3168 0 1
55.4324 0 1
57.824 0 1
57.9396 0 1
58.0553 0 1
58.1711 0 1
58.2869 0 1
58.4028 0 1
58.5187 0 1
58.6347 0 1
58.7508 0 1
58.8669 0 1
58.983 4407 66.3852
59.0992 4477 66.9104
59.2155 4578 67.6609
59.3318 4477 66.9104
59.4482 4558 67.513
59.5646 4388 66.242
59.681 4572 67.6166
59.7975 4499 67.0746
59.9141 4416 66.453
60.0306 4475 66.8954
60.1473 4505 67.1193
60.2639 4547 67.4314
60.3807 4385 66.2193
60.4974 4485 66.9701
60.6142 4571 67.6092
60.731 4592 67.7643
60.8479 4505 67.1193
60.9648 4792 69.2243
61.0818 4721 68.7095
61.1987 4628 68.0294
61.3158 4697 68.5347
61.4328 4547 67.4314
61.5499 4680 68.4105
61.667 4667 68.3154
61.7841 4485 66.9701
61.9013 4625 68.0074
62.0185 4580 67.6757
62.1357 4424 66.5132
62.253 4427 66.5357
62.3702 4461 66.7907
62.4875 4301 65.582
62.6049 4302 65.5896
62.7222 4243 65.1383
62.8396 4273 65.3682
62.9569 4360 66.0303
63.0743 4292 65.5134
63.1918 3964 62.9603
63.3092 3976 63.0555
63.4267 3927 62.6658
63.5441 4005 63.2851
63.6616 4033 63.5059
63.7791 4073 63.8201
63.8966 3998 63.2297
64.0142 4071 63.8044
64.1317 4136 64.3117
64.2492 4227 65.0154
64.3668 4210 64.8845
64.4843 4264 65.2993
64.6019 4308 65.6354
64.7195 4394 66.2873
64.837 4229 65.0308
64.9546 4362 66.0454
65.0722 4269 65.3376
65.1898 4191 64.7379
65.3074 4357 66.0076
65.4249 4205 64.846
65.5425 4199 64.7997
65.6601 4317 65.7039
65.7777 4030 63.4823
65.8952 4113 64.1327
66.0128 4110 64.1093
66.1304 3919 62.6019
66.2479 3961 62.9365
66.3655 3984 63.1189
66.483 4112 64.1249
66.6005 4060 63.7181
66.718 3989 63.1585
66.8355 3843 61.9919
66.953 3777 61.4573
67.0705 3750 61.2372
67.1879 3750 61.2372
67.3054 3874 62.2415
67.4228 3886 62.3378
67.5402 3955 62.8888
67.6576 3934 62.7216
67.7749 3942 62.7853
67.8923 4131 64.2729
68.0096 4133 64.2884
68.1269 4209 64.8768
68.2442 4187 64.707
68.3614 4230 65.0385
68.4787 4247 65.169
68.5958 4262 65.284
68.713 4274 65.3758
68.8302 4407 66.3852
68.9473 4287 65.4752
69.0643 4269 65.3376
69.1814 4295 65.5362
69.2984 4251 65.1997
69.4154 4350 65.9545
69.5323 4262 65.284
69.6492 4314 65.681
69.7661 4299 65.5668
69.8829 4291 65.5057
69.9997 4237 65.0922
70.1165 4457 66.7608
70.2332 4316 65.6963
70.3499 4194 64.7611
70.4665 4084 63.9062
70.5831 3836 61.9355
70.6996 3799 61.636
70.8161 3876 62.2575
70.9326 3967 62.9841
71.049 3955 62.8888
71.1653 3905 62.49
71.2817 3857 62.1048
71.3979 3904 62.482
71.5141 3976 63.0555
71.6303 4005 63.2851
71.7464 3791 61.5711
71.8624 0 1
71.9784 0 1
72.0944 0 1
72.2102 0 1
72.3261 0 1
72.4418 0 1
72.5575 0 1
72.6732 0 1
75.1054 0 1
75.2209 0 1
75.3365 0 1
75.4521 0 1
75.5678 0 1
75.6835 0 1
75.7993 0 1
75.9151 0 1
76.031 0 1
76.147 3246 56.9737
76.263 3653 60.4401
76.3791 3805 61.6847
76.4952 3858 62.1128
76.6113 3843 61.9919
76.7276 3865 62.1691
76.8438 3980 63.0872
76.9601 4196 64.7765
77.0765 4201 64.8151
77.1929 4270 65.3452
77.3093 4397 66.3099
77.4258 4420 66.4831
77.5423 4219 64.9538
77.6589 4259 65.261
77.7755 4253 65.215
77.8921 4288 65.4828
78.0088 4275 65.3835
78.1256 4253 65.215
78.2423 4224 64.9923
78.3591 4230 65.0385
78.4759 4256 65.238
78.5928 4262 65.284
78.7097 4156 64.467
78.8266 4124 64.2184
78.9436 4384 66.2118
79.0606 4139 64.3351
79.1776 4177 64.6297
79.2946 4185 64.6916
79.4117 4014 63.3561
79.5288 3929 62.6817
79.6459 3685 60.7042
79.7631 3495 59.1185
79.8802 3438 58.6345
79.9974 3520 59.3296
80.1147 3673 60.6053
80.2319 3640 60.3324
80.3491 3849 62.0403
80.4664 3817 61.7819
80.5837 4143 64.3661
80.701 4090 63.9531
80.8183 4159 64.4903
80.9357 4067 63.773
81.053 4091 63.9609
81.1704 4023 63.4271
81.2877 4058 63.7024
81.4051 4083 63.8984
81.5225 3930 62.6897
81.6399 3869 62.2013
81.7573 3935 62.7296
81.8747 3911 62.538
81.9922 3959 62.9206
82.1096 3902 62.466
82.227 3866 62.1772
82.3444 3955 62.8888
82.4619 3903 62.474
82.5793 4025 63.4429
82.6967 3889 62.3618
82.8142 3853 62.0725
82.9316 3806 61.6928
83.049 3709 60.9016
83.1664 3495 59.1185
83.2838 3244 56.9561
83.4012 2953 54.3415
83.5186 2827 53.1695
83.636 3005 54.8179
83.7534 3071 55.4166
83.8708 3190 56.4801
83.9881 3388 58.2065
84.1055 3485 59.0339
84.2228 3637 60.3075
84.3401 3758 61.3025
84.4575 3732 61.0901
84.5747 3798 61.6279
84.692 3834 61.9193
84.8093 3811 61.7333
84.9265 3842 61.9839
85.0437 3712 60.9262
85.1609 3778 61.4654
85.2781 3746 61.2046
85.3952 3755 61.2781
85.5123 3833 61.9112
85.6294 3841 61.9758
85.7465 3967 62.9841
85.8636 3822 61.8223
85.9806 4039 63.5531
86.0976 4048 63.6239
86.2145 3921 62.6179
86.3315 4209 64.8768
86.4484 4021 63.4114
86.5652 4159 64.4903
86.682 3823 61.8304
86.7988 3890 62.3699
86.9156 3651 60.4235
87.0323 3319 57.6108
87.149 3260 57.0964
87.2657 3437 58.6259
87.3823 3518 59.3127
87.4988 3700 60.8276
87.6154 3969 63
87.7318 3975 63.0476
87.8483 4242 65.1306
87.9647 4265 65.307
88.081 4215 64.923
88.1973 4422 66.4981
88.3136 4295 65.5362
88.4298 4251 65.1997
88.546 4163 64.5213
88.6621 4242 65.1306
88.7781 4219 64.9538
88.8942 0 1
89.0101 0 1
89.126 0 1
89.2419 0 1
89.3577 0 1
89.4734 0 1
89.5891 0 1
89.7047 0 1
89.8203 0 1
89.9358 0 1
92.3269 0 1
92.4424 0 1
92.558 0 1
92.6736 0 1
92.7893 0 1
92.905 0 1
93.0208 0 1
93.1366 0 1
93.2525 0 1
93.3685 0 1
93.4845 0 1
93.6005 4197 64.7843
93.7167 4269 65.3376
93.8328 4294 65.5286
93.949 4350 65.9545
94.0653 4271 65.3529
94.1816 4047 63.616
94.2979 4220 64.9615
94.4143 3997 63.2218
94.5307 4165 64.5368
94.6472 4149 64.4127
94.7637 4291 65.5057
94.8803 4399 66.325
94.9969 4334 65.8331
95.1135 4387 66.2344
95.2302 4523 67.2533
95.3469 4319 65.7191
95.4637 4570 67.6018
95.5805 4401 66.34
95.6973 4330 65.8027
95.8142 4172 64.591
95.9311 4046 63.6082
96.048 3757 61.2944
96.1649 3451 58.7452
96.2819 3247 56.9825
96.3989 3243 56.9473
96.516 3441 58.66
96.633 3707 60.8851
96.7501 3913 62.554
96.8673 4249 65.1844
96.9844 4381 66.1891
97.1016 4447 66.6858
97.2188 4446 66.6783
97.336 4515 67.1937
97.4532 4610 67.897
97.5704 4479 66.9253
97.6877 4278 65.4064
97.805 4307 65.6277
97.9223 4340 65.8787
98.0396 4333 65.8255
98.1569 4426 66.5282
98.2743 4358 66.0151
98.3916 4335 65.8407
98.509 4391 66.2646
98.6264 4622 67.9853
98.7438 4533 67.3276
98.8612 4521 67.2384
98.9786 4560 67.5278
99.096 4633 68.0661
99.2134 4621 67.9779
99.3308 4477 66.9104
99.4482 4411 66.4154
99.5656 4226 65.0077
99.6831 3962 62.9444
99.8005 3540 59.4979
99.9179 3459 58.8133
100.035 3310 57.5326
100.153 3559 59.6574
100.27 3935 62.7296
100.388 4432 66.5733
100.505 4349 65.9469
100.622 4357 66.0076
100.74 4812 69.3686
100.857 4520 67.2309
100.975 4658 68.2495
101.092 4558 67.513
101.209 4461 66.7907
101.327 4458 66.7683
101.444 4505 67.1193
101.561 4448 66.6933
101.679 4463 66.8057
101.796 4555 67.4907
101.913 4599 67.8159
102.03 4628 68.0294
102.148 4643 68.1396
102.265 4531 67.3127
102.382 4753 68.942
102.499 4745 68.884
102.616 4817 69.4046
102.733 4803 69.3037
102.851 4825 69.4622
102.968 4739 68.8404
103.085 4504 67.1118
103.202 4293 65.521
103.319 3886 62.3378
103.436 3588 59.8999
103.552 3357 57.9396
103.669 3660 60.4979
103.786 3865 62.1691
103.903 4351 65.9621
104.02 4674 68.3667
104.137 4780 69.1375
104.253 4906 70.0428
104.37 4807 69.3325
104.487 4695 68.5201
104.603 4862 69.728
104.72 4771 69.0724
104.836 4548 67.4389
104.953 4794 69.2387
105.069 4631 68.0515
105.186 4663 68.2862
105.302 4895 69.9643
105.418 4907 70.05
105.535 4896 69.9714
105.651 4937 70.2638
105.767 5073 71.225
105.883 5045 71.0282
105.999 4983 70.5904
106.115 0 1
106.231 0 1
106.347 0 1
106.463 0 1
106.579 0 1
106.694 0 1
106.81 0 1
106.926 0 1
107.041 0 1
107.157 0 1
109.576 0 1
109.692 0 1
109.807 0 1
109.923 0 1
110.039 0 1
110.155 0 1
110.27 0 1
110.386 0 1
110.502 0 1
110.618 4618 67.9559
110.735 4682 68.4251
110.851 4857 69.6922
110.967 4821 69.4334
111.083 4826 69.4694
111.199 4851 69.6491
111.316 4888 69.9142
111.432 4762 69.0072
111.549 4880 69.857
111.665 4649 68.1836
111.782 4304 65.6049
111.898 3747 61.2127
112.015 3294 57.3934
112.132 2861 53.4883
112.248 3247 56.9825
112.365 3707 60.8851
112.482 4307 65.6277
112.599 4548 67.4389
112.716 4656 68.2349
112.832 4626 68.0147
112.949 4506 67.1267
113.066 4518 67.2161
113.183 4516 67.2012
113.3 4456 66.7533
113.417 4417 66.4605
113.534 4423 66.5056
113.652 4306 65.6201
113.769 4341 65.8863
113.886 4464 66.8132
114.003 4430 66.5582
114.12 4378 66.1665
114.238 4588 67.7348
114.355 4493 67.0298
114.472 4531 67.3127
114.589 4638 68.1029
114.707 4600 67.8233
114.824 4603 67.8454
114.942 4561 67.5352
115.059 4682 68.4251
115.176 4449 66.7008
115.294 4296 65.5439
115.411 3927 62.6658
115.529 3321 57.6281
115.646 2894 53.7959
115.764 2715 52.1057
115.881 3221 56.7539
115.999 3839 61.9597
116.116 4088 63.9375
116.234 4300 65.5744
116.351 4298 65.5591
116.469 4252 65.2074
116.586 4456 66.7533
116.704 4351 65.9621
116.821 4294 65.5286
116.939 4168 64.56
117.056 4105 64.0703
117.174 3988 63.1506
117.291 4121 64.195
117.409 4199 64.7997
117.526 4071 63.8044
117.644 4147 64.3972
117.761 4278 65.4064
117.879 4354 65.9848
117.996 4213 64.9076
118.114 4160 64.4981
118.231 4310 65.6506
118.349 4346 65.9242
118.466 4308 65.6354
118.584 4322 65.7419
118.701 4364 66.0606
118.819 4160 64.4981
118.936 4023 63.4271
119.053 3737 61.131
119.171 3171 56.3116
119.288 2502 50.02
119.405 2542 50.4183
119.523 3000 54.7723
119.64 3440 58.6515
119.757 3982 63.1031
119.875 3937 62.7455
119.992 3858 62.1128
120.109 3964 62.9603
120.226 4034 63.5138
120.343 4000 63.2456
120.46 3985 63.1269
120.578 3856 62.0967
120.695 3849 62.0403
120.812 3760 61.3188
120.929 3822 61.8223
121.046 3848 62.0322
121.163 3968 62.9921
121.279 3872 62.2254
121.396 3840 61.9677
121.513 4077 63.8514
121.63 4090 63.9531
121.747 4055 63.6789
121.863 3949 62.8411
121.98 4115 64.1483
122.097 4083 63.8984
122.213 4081 63.8827
122.33 3888 62.3538
122.446 3878 62.2736
122.563 3902 62.466
122.679 3701 60.8358
122.795 3224 56.7803
122.912 2829 53.1883
123.028 2391 48.8979
123.144 2237 47.2969
123.26 2695 51.9134
123.377 0 1
123.493 0 1
123.609 0 1
123.725 0 1
123.84 0 1
123.956 0 1
124.072 0 1
124.188 0 1
124.303 0 1
124.419 0 1
126.852 0 1
126.968 0 1
127.083 0 1
127.199 0 1
127.315 0 1
127.431 0 1
127.547 0 1
127.663 0 1
127.779 0 1
127.895 0 1
128.011 0 1
128.127 0 1
128.243 0 1
128.359 2285 47.8017
128.476 2557 50.5668
128.592 3273 57.2101
128.708 3763 61.3433
128.825 4102 64.0469
128.941 4086 63.9218
129.058 4089 63.9453
129.174 3969 63
129.291 3956 62.8967
129.408 3880 62.2896
129.524 3977 63.0635
129.641 3909 62.522
129.758 3784 61.5142
129.875 3886 62.3378
129.992 3862 62.145
130.108 3944 62.8013
130.225 3956 62.8967
130.342 3994 63.1981
130.459 3895 62.4099
130.576 4035 63.5216
130.693 3914 62.562
130.81 4018 63.3877
130.928 3989 63.1585
131.045 4103 64.0547
131.162 3967 62.9841
131.279 4048 63.6239
131.396 3898 62.434
131.513 3816 61.7738
131.631 3552 59.5987
131.748 2915 53.9907
131.865 2259 47.5289
131.983 2311 48.0729
132.1 2861 53.4883
132.217 3535 59.4559
132.335 3782 61.498
132.452 3830 61.887
132.57 3764 61.3514
132.687 3738 61.1392
132.804 3854 62.0806
132.922 3781 61.4898
133.039 3582 59.8498
133.157 3539 59.4895
133.274 3578 59.8164
133.392 3662 60.5145
133.509 3624 60.1997
133.627 3586 59.8832
133.744 3702 60.8441
133.862 3621 60.1747
133.979 3712 60.9262
134.097 3628 60.2329
134.214 3749 61.2291
134.332 3701 60.8358
134.449 3677 60.6383
134.567 3695 60.7865
134.684 3618 60.1498
134.802 3704 60.8605
134.919 3805 61.6847
135.037 3673 60.6053
135.154 3567 59.7244
135.272 2979 54.5802
135.389 2241 47.3392
135.507 1873 43.2782
135.624 2076 45.5631
135.742 2921 54.0463
135.859 3416 58.4466
135.977 3581 59.8415
136.094 3663 60.5227
136.211 3647 60.3904
136.329 3622 60.1831
136.446 3583 59.8582
136.564 3429 58.5577
136.681 3409 58.3866
136.798 3359 57.9569
136.915 3448 58.7197
137.033 3405 58.3524
137.15 3357 57.9396
137.267 3476 58.9576
137.384 3589 59.9083
137.502 3480 58.9915
137.619 3571 59.7578
137.736 3664 60.531
137.853 3526 59.3801
137.97 3610 60.0833
138.087 3526 59.3801
138.204 3487 59.0508
138.321 3598 59.9833
138.438 3592 59.9333
138.555 3537 59.4727
138.672 3628 60.2329
138.788 3446 58.7026
138.905 2989 54.6717
139.022 2383 48.816
139.139 1970 44.3847
139.255 2114 45.9783
139.372 2760 52.5357
139.488 3191 56.4889
139.605 3487 59.0508
139.721 3522 59.3464
139.838 3481 59
139.954 3589 59.9083
140.071 3475 58.9491
140.187 3496 59.127
140.303 3489 59.0678
140.419 3412 58.4123
140.535 3339 57.7841
140.652 3241 56.9298
140.768 0 1
140.884 0 1
141 0 1
141.115 0 1
141.231 0 1
141.347 0 1
141.463 0 1
141.578 0 1
141.694 0 1
144.104 0 1
144.219 0 1
144.335 0 1
144.45 0 1
144.566 0 1
144.682 0 1
144.798 0 1
144.914 0 1
145.03 0 1
145.146 2285 47.8017
145.262 2582 50.8134
145.378 2458 49.5782
145.494 2379 48.775
145.61 2460 49.5984
145.726 2442 49.4166
145.842 2409 49.0816
145.959 2488 49.8799
146.075 2414 49.1325
146.192 2413 49.1223
146.308 2487 49.8698
146.425 2543 50.4282
146.541 2440 49.3964
146.658 2459 49.5883
146.774 2682 51.788
146.891 2540 50.3984
147.008 2573 50.7247
147.125 2523 50.2295
147.241 2655 51.5267
147.358 2695 51.9134
147.475 2717 52.1249
147.592 2583 50.8232
147.709 2620 51.1859
147.826 2214 47.0532
147.943 1748 41.8091
148.06 1349 36.7287
148.177 1481 38.4838
148.294 1982 44.5197
148.411 2387 48.8569
148.528 2597 50.9608
148.645 2510 50.0999
148.762 2518 50.1797
148.88 2592 50.9117
148.997 2477 49.7695
149.114 2536 50.3587
149.231 2498 49.98
149.349 2406 49.051
149.466 2478 49.7795
149.583 2376 48.7442
149.701 2430 49.295
149.818 2462 49.6185
149.935 2412 49.1121
150.053 2455 49.548
150.17 2492 49.9199
150.287 2485 49.8498
150.405 2526 50.2593
150.522 2522 50.2195
150.64 2580 50.7937
150.757 2600 50.9902
150.875 2561 50.6063
150.992 2587 50.8626
151.11 2694 51.9038
151.227 2649 51.4684
151.344 2646 51.4393
151.462 2517 50.1697
151.579 2221 47.1275
151.697 1628 40.3485
151.814 1480 38.4708
151.932 1588 39.8497
152.049 2105 45.8803
152.167 2536 50.3587
152.284 2602 51.0098
152.402 2649 51.4684
152.519 2688 51.8459
152.636 2777 52.6972
152.754 2629 51.2738
152.871 2595 50.9411
152.989 2621 51.1957
153.106 2534 50.3389
153.223 2521 50.2096
153.341 2544 50.4381
153.458 2566 50.6557
153.575 2665 51.6236
153.693 2624 51.225
153.81 2748 52.4214
153.927 2716 52.1153
154.044 2829 53.1883
154.162 2885 53.7122
154.279 2915 53.9907
154.396 2924 54.074
154.513 3002 54.7905
154.63 3004 54.8088
154.747 3029 55.0364
154.864 3111 55.7763
154.981 2970 54.4977
155.098 2806 52.9717
155.215 2355 48.5283
155.332 1928 43.909
155.449 2123 46.076
155.566 2620 51.1859
155.683 3041 55.1453
155.8 3163 56.2406
155.917 3112 55.7853
156.033 3154 56.1605
156.15 0 1
156.267 0 1
156.383 0 1
156.5 0 1
156.617 0 1
156.733 0 1
156.85 0 1
156.966 0 1
157.082 0 1
157.199 0 1
157.315 0 1
157.431 0 1
157.547 0 1
157.664 0 1
157.78 0 1
157.896 0 1
158.012 0 1
158.128 0 1
158.244 0 1
158.359 0 1
158.475 0 1
158.591 0 1
158.706 0 1
