
6.15755 0 1
6.2731 0 1
6.3887 0 1
6.50437 0 1
6.62009 0 1
6.73587 0 1
6.8517 0 1
6.96759 0 1
7.08353 0 1
7.19952 0 1
7.31557 0 1
7.43166 0 1
7.54781 0 1
7.664 0 1
7.78024 0 1
7.89653 0 1
8.01286 0 1
8.12924 0 1
8.24567 0 1
8.36213 0 1
8.47864 0 1
8.59519 0 1
8.71178 0 1
8.82841 0 1
8.94508 0 1
9.06179 0 1
9.17853 0 1
9.29531 0 1
9.41212 0 1
9.52897 0 1
9.64584 0 1
9.76276 0 1
9.8797 0 1
9.99667 0 1
10.1137 0 1
10.2307 0 1
10.3478 0 1
10.4648 0 1
10.5819 0 1
10.6991 0 1
10.8162 0 1
10.9334 0 1
11.0506 0 1
11.1678 0 1
11.285 0 1
11.4023 0 1
11.5196 0 1
11.6369 0 1
11.7542 0 1
11.8715 0 1
11.9888 0 1
12.1062 0 1
12.2235 0 1
12.3409 0 1
12.4582 0 1
12.5756 0 1
12.693 0 1
12.8104 0 1
12.9278 0 1
13.0452 0 1
13.1626 0 1
13.28 0 1
13.3974 0 1
13.5149 0 1
13.6323 0 1
13.7497 0 1
13.8671 0 1
13.9845 0 1
14.1019 0 1
14.2193 0 1
14.3367 0 1
14.4541 0 1
14.5714 0 1
14.6888 0 1
14.8062 0 1
14.9235 0 1
15.0408 0 0
15.1581 0 0
15.2755 0 0
15.3927 0 0
15.51 0 0
15.6273 0 0
15.7445 0 0
15.8617 0 0
15.9789 0 0
16.0961 0 0
16.2132 0 0
16.3304 0 0
16.4475 0 0
16.5646 0 0
16.6816 0 0
16.7986 0 0
16.9156 0 0
17.0326 0 0
17.1496 0 0
17.2665 0 0
17.3833 0 0
17.5002 0 0
17.617 0 0
17.7338 0 0
17.8505 0 0
17.9672 0 0
18.0839 0 0
18.2005 0 0
18.3171 0 0
18.4337 0 0
18.5502 0 0
18.6666 0 0
18.7831 0 0
18.8994 0 0
19.0158 0 0
19.1321 0 0
19.2483 0 0
19.3645 0 0
19.4806 0 0
19.5967 0 0
19.7128 0 0
19.8288 0 0
19.9447 0 0
20.0606 0 1
20.1764 0 1
20.2922 0 1
20.4079 0 1
20.5236 0 1
20.6392 0 1
20.7548 0 1
20.8702 0 1
23.3078 0 1
23.4233 0 1
23.539 0 1
23.6547 0 1
23.7704 0 1
23.8862 0 1
24.0021 0 1
24.118 0 1
24.234 0 1
24.35 0 1
24.4661 1261 35.5106
24.5822 1454 38.1314
24.6984 1538 39.2173
24.8146 1795 42.3674
24.9309 2059 45.3762
25.0472 2300 47.9583
25.1636 2544 50.4381
25.28 2561 50.6063
25.3965 2710 52.0577
25.513 2724 52.192
25.6296 2723 52.1824
25.7462 2734 52.2877
25.8628 2692 51.8845
25.9795 2776 52.6878
26.0962 2796 52.8772
26.213 2845 53.3385
26.3298 2753 52.469
26.4466 2790 52.8205
26.5635 2753 52.469
26.6804 2802 52.9339
26.7973 2605 51.0392
26.9143 2743 52.3737
27.0313 2545 50.448
27.1483 2563 50.6261
27.2653 2473 49.7293
27.3824 2476 49.7594
27.4996 2342 48.3942
27.6167 2228 47.2017
27.7339 2223 47.1487
27.8511 2374 48.7237
27.9683 2475 49.7494
28.0855 2587 50.8626
28.2028 2500 50
28.3201 2533 50.3289
28.4374 2593 50.9215
28.5547 2568 50.6754
28.6721 2539 50.3885
28.7894 2625 51.2348
28.9068 2571 50.705
29.0242 2544 50.4381
29.1416 2669 51.6624
29.259 2627 51.2543
29.3764 2584 50.8331
29.4939 2519 50.1896
29.6113 2486 49.8598
29.7288 2266 47.6025
29.8463 2393 48.9183
29.9638 2336 48.3322
30.0812 2420 49.1935
30.1987 2491 49.9099
30.3162 2370 48.6826
30.4337 2447 49.4672
30.5512 2481 49.8096
30.6687 2467 49.6689
30.7862 2548 50.4777
30.9037 2322 48.1871
31.0212 2289 47.8435
31.1387 2288 47.833
31.2562 2309 48.0521
31.3737 2447 49.4672
31.4912 2575 50.7445
31.6087 2614 51.1273
31.7262 2723 52.1824
31.8436 2578 50.774
31.9611 2498 49.98
32.0785 2536 50.3587
32.1959 2553 50.5272
32.3134 2473 49.7293
32.4308 2451 49.5076
32.5482 2339 48.3632
32.6655 2363 48.6107
32.7829 2384 48.8262
32.9002 2280 47.7493
33.0176 2247 47.4025
33.1349 2285 47.8017
33.2522 2152 46.3897
33.3694 2213 47.0425
33.4867 2183 46.7226
33.6039 2248 47.4131
33.7211 2335 48.3218
33.8383 2300 47.9583
33.9554 2317 48.1352
34.0725 2381 48.7955
34.1896 2449 49.4874
34.3067 2530 50.2991
34.4237 2496 49.96
34.5407 2348 48.4562
34.6577 2263 47.571
34.7746 2269 47.634
34.8915 2296 47.9166
35.0084 2393 48.9183
35.1252 2541 50.4083
35.242 2516 50.1597
35.3587 2545 50.448
35.4755 2483 49.8297
35.5921 2391 48.8979
35.7088 2386 48.8467
35.8254 2275 47.697
35.9419 2162 46.4973
36.0584 2231 47.2335
36.1749 2150 46.3681
36.2913 2039 45.1553
36.4077 2057 45.3542
36.524 1860 43.1277
36.6403 1692 41.1339
36.7565 1594 39.9249
36.8727 1422 37.7094
36.9889 1517 38.9487
37.1049 1423 37.7227
37.221 0 1
37.3369 0 1
37.4529 0 1
37.5687 0 1
37.6845 0 1
37.8003 0 1
37.916 0 1
38.0316 0 1
38.1472 0 1
40.5851 0 1
40.7008 0 1
40.8164 0 1
40.9322 0 1
41.048 0 1
41.1639 0 1
41.2798 0 1
41.3958 0 1
41.5118 0 1
41.6279 0 1
41.744 2116 46
41.8602 2775 52.6783
41.9765 3332 57.7235
42.0928 3465 58.8643
42.2091 3433 58.5918
42.3255 3571 59.7578
42.4419 3541 59.5063
42.5584 3556 59.6322
42.675 3609 60.075
42.7915 3742 61.1719
42.9081 3790 61.563
43.0248 3916 62.578
43.1415 3795 61.6036
43.2582 3628 60.2329
43.375 3344 57.8273
43.4918 3419 58.4722
43.6087 3487 59.0508
43.7256 3608 60.0666
43.8425 3665 60.5392
43.9595 3833 61.9112
44.0765 3793 61.5873
44.1935 3691 60.7536
44.3106 3556 59.6322
44.4277 3608 60.0666
44.5448 3454 58.7707
44.6619 3310 57.5326
44.7791 3063 55.3444
44.8963 2943 54.2494
45.0136 2832 53.2165
45.1308 2804 52.9528
45.2481 2625 51.2348
45.3654 2441 49.4065
45.4827 2420 49.1935
45.6001 2286 47.8121
45.7174 2217 47.085
45.8348 2117 46.0109
45.9522 2083 45.6399
46.0697 2087 45.6837
46.1871 2134 46.1952
46.3046 2109 45.9239
46.422 2158 46.4543
46.5395 2150 46.3681
46.657 2084 45.6508
46.7745 2057 45.3542
46.892 1898 43.566
47.0096 1857 43.0929
47.1271 2065 45.4423
47.2446 2019 44.9333
47.3622 2018 44.9222
47.4797 2082 45.6289
47.5973 2094 45.7602
47.7149 2045 45.2217
47.8324 2013 44.8665
47.95 1988 44.587
48.0675 1950 44.1588
48.1851 2093 45.7493
48.3027 1999 44.7102
48.4202 1910 43.7035
48.5378 1927 43.8976
48.6554 1823 42.6966
48.7729 1838 42.8719
48.8904 1727 41.5572
49.008 1843 42.9302
49.1255 1888 43.4511
49.243 1759 41.9404
49.3605 1782 42.2137
49.478 1929 43.9204
49.5955 1862 43.1509
49.713 2008 44.8107
49.8304 2026 45.0111
49.9479 2030 45.0555
50.0653 2088 45.6946
50.1827 1991 44.6206
50.3001 1854 43.0581
50.4175 1636 40.4475
50.5348 1573 39.6611
50.6521 1720 41.4729
50.7694 1874 43.2897
50.8867 1957 44.238
51.004 2013 44.8665
51.1212 2002 44.7437
51.2384 1998 44.699
51.3556 2033 45.0888
51.4727 1977 44.4635
51.5899 2020 44.9444
51.707 1979 44.486
51.824 1901 43.6005
51.9411 1860 43.1277
52.0581 1849 43
52.175 1840 42.8952
52.2919 1840 42.8952
52.4088 1803 42.4617
52.5257 1838 42.8719
52.6425 1789 42.2966
52.7593 1709 41.3401
52.876 1765 42.0119
52.9927 1819 42.6497
53.1094 1763 41.9881
53.226 1791 42.3202
53.3426 1780 42.19
53.4591 1716 41.4246
53.5756 1566 39.5727
53.692 1425 37.7492
53.8084 1224 34.9857
53.9248 1152 33.9411
54.0411 1059 32.5423
54.1573 1034 32.1559
54.2735 0 1
54.3896 0 1
54.5057 0 1
54.6217 0 1
54.7377 0 1
54.8537 0 1
54.9695 0 1
55.0853 0 1
55.2011 0 1
55.3168 0 1
55.4324 0 1
57.824 0 1
57.9396 0 1
58.0553 0 1
58.1711 0 1
58.2869 0 1
58.4028 0 1
58.5187 0 1
58.6347 0 1
58.7508 0 1
58.8669 0 1
58.983 1586 39.8246
59.0992 1583 39.7869
59.2155 1660 40.7431
59.3318 1738 41.6893
59.4482 1959 44.2606
59.5646 2117 46.0109
59.681 2188 46.7761
59.7975 2323 48.1975
59.9141 2308 48.0416
60.0306 2218 47.0956
60.1473 2291 47.8644
60.2639 2180 46.6905
60.3807 2265 47.592
60.4974 2289 47.8435
60.6142 2288 47.833
60.731 2319 48.156
60.8479 2406 49.051
60.9648 2269 47.634
61.0818 2379 48.775
61.1987 2292 47.8748
61.3158 2234 47.2652
61.4328 2240 47.3286
61.5499 2178 46.669
61.667 2254 47.4763
61.7841 2121 46.0543
61.9013 2208 46.9894
62.0185 2314 48.1041
62.1357 2294 47.8957
62.253 2295 47.9062
62.3702 2229 47.2123
62.4875 2066 45.4533
62.6049 2070 45.4973
62.7222 2072 45.5192
62.8396 2126 46.1086
62.9569 2206 46.9681
63.0743 2335 48.3218
63.1918 2331 48.2804
63.3092 2429 49.2849
63.4267 2467 49.6689
63.5441 2393 48.9183
63.6616 2331 48.2804
63.7791 2386 48.8467
63.8966 2329 48.2597
64.0142 2331 48.2804
64.1317 2375 48.734
64.2492 2374 48.7237
64.3668 2407 49.0612
64.4843 2384 48.8262
64.6019 2343 48.4045
64.7195 2255 47.4868
64.837 2210 47.0106
64.9546 2230 47.2229
65.0722 2177 46.6583
65.1898 2232 47.244
65.3074 2310 48.0625
65.4249 2249 47.4236
65.5425 2281 47.7598
65.6601 2327 48.239
65.7777 2278 47.7284
65.8952 2252 47.4552
66.0128 2143 46.2925
66.1304 1929 43.9204
66.2479 1813 42.5793
66.3655 1937 44.0114
66.483 2153 46.4004
66.6005 2262 47.5605
66.718 2434 49.3356
66.8355 2404 49.0306
66.953 2348 48.4562
67.0705 2365 48.6313
67.1879 2346 48.4355
67.3054 2240 47.3286
67.4228 2356 48.5386
67.5402 2298 47.9375
67.6576 2279 47.7389
67.7749 2365 48.6313
67.8923 2274 47.6865
68.0096 2317 48.1352
68.1269 2303 47.9896
68.2442 2308 48.0416
68.3614 2299 47.9479
68.4787 2162 46.4973
68.5958 2239 47.3181
68.713 2121 46.0543
68.8302 2096 45.7821
68.9473 2090 45.7165
69.0643 2101 45.8367
69.1814 2138 46.2385
69.2984 2229 47.2123
69.4154 2245 47.3814
69.5323 2129 46.1411
69.6492 2037 45.1331
69.7661 1883 43.3935
69.8829 1730 41.5933
69.9997 1763 41.9881
70.1165 1875 43.3013
70.2332 2001 44.7325
70.3499 1891 43.4856
70.4665 1675 40.9268
70.5831 1622 40.2741
70.6996 1512 38.8844
70.8161 1458 38.1838
70.9326 1431 37.8286
71.049 1339 36.5923
71.1653 1381 37.1618
71.2817 1285 35.8469
71.3979 1153 33.9559
71.5141 1131 33.6303
71.6303 1156 34
71.7464 1059 32.5423
71.8624 0 1
71.9784 0 1
72.0944 0 1
72.2102 0 1
72.3261 0 1
72.4418 0 1
72.5575 0 1
72.6732 0 1
75.1054 0 1
75.2209 0 1
75.3365 0 1
75.4521 0 1
75.5678 0 1
75.6835 0 1
75.7993 0 1
75.9151 0 1
76.031 0 1
76.147 1720 41.4729
76.263 2009 44.8219
76.3791 2100 45.8258
76.4952 2066 45.4533
76.6113 2010 44.833
76.7276 2029 45.0444
76.8438 2190 46.7974
76.9601 2104 45.8694
77.0765 2131 46.1628
77.1929 2117 46.0109
77.3093 2127 46.1194
77.4258 2163 46.5081
77.5423 2045 45.2217
77.6589 2068 45.4753
77.7755 1993 44.643
77.8921 2024 44.9889
78.0088 1982 44.5197
78.1256 2056 45.3431
78.2423 2156 46.4327
78.3591 2184 46.7333
78.4759 2236 47.2864
78.5928 2064 45.4313
78.7097 1922 43.8406
78.8266 1621 40.2616
78.9436 1395 37.3497
79.0606 1564 39.5474
79.1776 1825 42.72
79.2946 2079 45.5961
79.4117 2139 46.2493
79.5288 2219 47.1063
79.6459 2192 46.8188
79.7631 2224 47.1593
79.8802 2198 46.8828
79.9974 2237 47.2969
80.1147 2204 46.9468
80.2319 2219 47.1063
80.3491 2140 46.2601
80.4664 2307 48.0312
80.5837 2302 47.9792
80.701 2306 48.0208
80.8183 2270 47.6445
80.9357 2267 47.613
81.053 2345 48.4252
81.1704 2409 49.0816
81.2877 2251 47.4447
81.4051 2140 46.2601
81.5225 2202 46.9255
81.6399 2138 46.2385
81.7573 2301 47.9687
81.8747 2302 47.9792
81.9922 2453 49.5278
82.1096 2615 51.1371
82.227 2647 51.449
82.3444 2347 48.4458
82.4619 2162 46.4973
82.5793 1979 44.486
82.6967 2116 46
82.8142 2696 51.923
82.9316 3095 55.6327
83.049 3435 58.6089
83.1664 3624 60.1997
83.2838 3668 60.564
83.4012 3808 61.709
83.5186 3908 62.514
83.636 3996 63.2139
83.7534 4125 64.2262
83.8708 4182 64.6684
83.9881 4143 64.3661
84.1055 4291 65.5057
84.2228 4232 65.0538
84.3401 4295 65.5362
84.4575 4252 65.2074
84.5747 4323 65.7495
84.692 4187 64.707
84.8093 4110 64.1093
84.9265 4018 63.3877
85.0437 4004 63.2772
85.1609 4028 63.4665
85.2781 4024 63.435
85.3952 4087 63.9296
85.5123 4159 64.4903
85.6294 4153 64.4438
85.7465 4016 63.3719
85.8636 3767 61.3759
85.9806 3069 55.3986
86.0976 2691 51.8748
86.2145 2621 51.1957
86.3315 2947 54.2863
86.4484 3672 60.597
86.5652 4026 63.4508
86.682 3980 63.0872
86.7988 4004 63.2772
86.9156 4038 63.5453
87.0323 3951 62.857
87.149 3990 63.1664
87.2657 3974 63.0397
87.3823 4027 63.4586
87.4988 3756 61.2862
87.6154 3437 58.6259
87.7318 3234 56.8683
87.8483 2997 54.7449
87.9647 2921 54.0463
88.081 2986 54.6443
88.1973 2820 53.1037
88.3136 2750 52.4404
88.4298 2566 50.6557
88.546 2473 49.7293
88.6621 2375 48.734
88.7781 2276 47.7074
88.8942 0 1
89.0101 0 1
89.126 0 1
89.2419 0 1
89.3577 0 1
89.4734 0 1
89.5891 0 1
89.7047 0 1
89.8203 0 1
89.9358 0 1
92.3269 0 1
92.4424 0 1
92.558 0 1
92.6736 0 1
92.7893 0 1
92.905 0 1
93.0208 0 1
93.1366 0 1
93.2525 0 1
93.3685 0 1
93.4845 0 1
93.6005 4371 66.1135
93.7167 4279 65.4141
93.8328 4270 65.3452
93.949 4152 64.436
94.0653 4213 64.9076
94.1816 4238 65.0999
94.2979 4305 65.6125
94.4143 4203 64.8305
94.5307 4264 65.2993
94.6472 4271 65.3529
94.7637 3992 63.1823
94.8803 3720 60.9918
94.9969 3313 57.5587
95.1135 2969 54.4885
95.2302 3163 56.2406
95.3469 3669 60.5723
95.4637 3963 62.9524
95.5805 4343 65.9014
95.6973 4458 66.7683
95.8142 4390 66.2571
95.9311 4365 66.0681
96.048 4431 66.5658
96.1649 4321 65.7343
96.2819 4237 65.0922
96.3989 4423 66.5056
96.516 4402 66.3476
96.633 4321 65.7343
96.7501 4449 66.7008
96.8673 4464 66.8132
96.9844 4505 67.1193
97.1016 4419 66.4756
97.2188 4636 68.0882
97.336 4572 67.6166
97.4532 4374 66.1362
97.5704 4285 65.4599
97.6877 4232 65.0538
97.805 4288 65.4828
97.9223 4453 66.7308
98.0396 4364 66.0606
98.1569 4378 66.1665
98.2743 4192 64.7457
98.3916 3920 62.6099
98.509 3359 57.9569
98.6264 3129 55.9375
98.7438 3100 55.6776
98.8612 3593 59.9416
98.9786 3975 63.0476
99.096 4161 64.5058
99.2134 4219 64.9538
99.3308 4145 64.3817
99.4482 4195 64.7688
99.5656 4045 63.6003
99.6831 4002 63.2614
99.8005 3825 61.8466
99.9179 3786 61.5305
100.035 3728 61.0574
100.153 3695 60.7865
100.27 3620 60.1664
100.388 3658 60.4814
100.505 3556 59.6322
100.622 3509 59.2368
100.74 3417 58.4551
100.857 3354 57.9137
100.975 3137 56.0089
101.092 3132 55.9643
101.209 3059 55.3082
101.327 2869 53.563
101.444 2939 54.2125
101.561 2964 54.4426
101.679 2966 54.461
101.796 2859 53.4696
101.913 2818 53.0848
102.03 2614 51.1273
102.148 2349 48.4665
102.265 2070 45.4973
102.382 2411 49.1019
102.499 2450 49.4975
102.616 2706 52.0192
102.733 2858 53.4603
102.851 2881 53.6749
102.968 2750 52.4404
103.085 2755 52.4881
103.202 2709 52.0481
103.319 2834 53.2353
103.436 2562 50.6162
103.552 2674 51.7107
103.669 2720 52.1536
103.786 2708 52.0384
103.903 2703 51.9904
104.02 2775 52.6783
104.137 2668 51.6527
104.253 2791 52.8299
104.37 2736 52.3068
104.487 2621 51.1957
104.603 2601 51
104.72 2500 50
104.836 2441 49.4065
104.953 2167 46.551
105.069 1878 43.3359
105.186 1669 40.8534
105.302 1557 39.4588
105.418 1513 38.8973
105.535 1331 36.4829
105.651 1215 34.8569
105.767 999 31.607
105.883 862 29.3598
105.999 840 28.9828
106.115 0 1
106.231 0 1
106.347 0 1
106.463 0 1
106.579 0 1
106.694 0 1
106.81 0 1
106.926 0 1
107.041 0 1
107.157 0 1
109.576 0 1
109.692 0 1
109.807 0 1
109.923 0 1
110.039 0 1
110.155 0 1
110.27 0 1
110.386 0 1
110.502 0 1
110.618 2749 52.4309
110.735 2805 52.9623
110.851 2625 51.2348
110.967 2502 50.02
111.083 2344 48.4149
111.199 2508 50.0799
111.316 2812 53.0283
111.432 2995 54.7266
111.549 2999 54.7631
111.665 2962 54.4243
111.782 3105 55.7225
111.898 2992 54.6992
112.015 2879 53.6563
112.132 2926 54.0925
112.248 3045 55.1815
112.365 2900 53.8516
112.482 2912 53.963
112.599 3017 54.9272
112.716 3009 54.8544
112.832 3254 57.0438
112.949 3153 56.1516
113.066 3312 57.55
113.183 3324 57.6541
113.3 3258 57.0789
113.417 3307 57.5065
113.534 3217 56.7186
113.652 3289 57.3498
113.769 3325 57.6628
113.886 3226 56.7979
114.003 3116 55.8211
114.12 3260 57.0964
114.238 3114 55.8032
114.355 2921 54.0463
114.472 2594 50.9313
114.589 2500 50
114.707 2524 50.2394
114.824 2870 53.5724
114.942 2957 54.3783
115.059 3076 55.4617
115.176 3089 55.5788
115.294 2963 54.4334
115.411 3156 56.1783
115.529 3015 54.909
115.646 3009 54.8544
115.764 2930 54.1295
115.881 2962 54.4243
115.999 2930 54.1295
116.116 2965 54.4518
116.234 3153 56.1516
116.351 3247 56.9825
116.469 3188 56.4624
116.586 3383 58.1636
116.704 3348 57.8619
116.821 3350 57.8792
116.939 3341 57.8014
117.056 3397 58.2838
117.174 3288 57.3411
117.291 3236 56.8859
117.409 3232 56.8507
117.526 3324 57.6541
117.644 3346 57.8446
117.761 3268 57.1664
117.879 3228 56.8155
117.996 2871 53.5817
118.114 2674 51.7107
118.231 2639 51.3712
118.349 2680 51.7687
118.466 2962 54.4243
118.584 3106 55.7315
118.701 3150 56.1249
118.819 3094 55.6237
118.936 2993 54.7083
119.053 3087 55.5608
119.171 2952 54.3323
119.288 2976 54.5527
119.405 2961 54.4151
119.523 2872 53.591
119.64 2997 54.7449
119.757 2868 53.5537
119.875 2963 54.4334
119.992 3043 55.1634
120.109 3028 55.0273
120.226 3172 56.3205
120.343 3214 56.6922
120.46 3231 56.8419
120.578 3166 56.2672
120.695 3127 55.9196
120.812 3035 55.0908
120.929 3138 56.0179
121.046 3037 55.109
121.163 3077 55.4707
121.279 2887 53.7308
121.396 2900 53.8516
121.513 2877 53.6377
121.63 2668 51.6527
121.747 2415 49.1426
121.863 2221 47.1275
121.98 2108 45.913
122.097 2248 47.4131
122.213 2196 46.8615
122.33 2235 47.2758
122.446 1951 44.1701
122.563 2102 45.8476
122.679 1979 44.486
122.795 1954 44.2041
122.912 1781 42.2019
123.028 1840 42.8952
123.144 1768 42.0476
123.26 1833 42.8135
123.377 0 1
123.493 0 1
123.609 0 1
123.725 0 1
123.84 0 1
123.956 0 1
124.072 0 1
124.188 0 1
124.303 0 1
124.419 0 1
126.852 0 1
126.968 0 1
127.083 0 1
127.199 0 1
127.315 0 1
127.431 0 1
127.547 0 1
127.663 0 1
127.779 0 1
127.895 0 1
128.011 0 1
128.127 0 1
128.243 0 1
128.359 3400 58.3095
128.476 3579 59.8247
128.592 3496 59.127
128.708 3543 59.5231
128.825 3556 59.6322
128.941 3505 59.203
129.058 3577 59.808
129.174 3625 60.208
129.291 3671 60.5888
129.408 3612 60.0999
129.524 3961 62.9365
129.641 4015 63.364
129.758 4088 63.9375
129.875 4014 63.3561
129.992 4211 64.8922
130.108 4170 64.5755
130.225 4147 64.3972
130.342 4203 64.8305
130.459 4116 64.1561
130.576 4025 63.4429
130.693 3820 61.8061
130.81 3714 60.9426
130.928 3651 60.4235
131.045 3793 61.5873
131.162 3801 61.6523
131.279 3940 62.7694
131.396 4064 63.7495
131.513 4019 63.3956
131.631 4091 63.9609
131.748 4061 63.726
131.865 3995 63.206
131.983 4029 63.4744
132.1 3924 62.6418
132.217 3776 61.4492
132.335 3861 62.1369
132.452 3824 61.8385
132.57 3867 62.1852
132.687 3721 61
132.804 4004 63.2772
132.922 3955 62.8888
133.039 3915 62.57
133.157 3918 62.5939
133.274 4092 63.9687
133.392 4216 64.9307
133.509 4198 64.792
133.627 4299 65.5668
133.744 4509 67.1491
133.862 4403 66.3551
133.979 4522 67.2458
134.097 4374 66.1362
134.214 4308 65.6354
134.332 4022 63.4192
134.449 4075 63.8357
134.567 4231 65.0461
134.684 4230 65.0385
134.802 4313 65.6734
134.919 4394 66.2873
135.037 4412 66.4229
135.154 4403 66.3551
135.272 4332 65.8179
135.389 4230 65.0385
135.507 4198 64.792
135.624 4206 64.8537
135.742 4207 64.8614
135.859 4052 63.6553
135.977 3987 63.1427
136.094 4073 63.8201
136.211 4024 63.435
136.329 4020 63.4035
136.446 4120 64.1872
136.564 4072 63.8122
136.681 4104 64.0625
136.798 4297 65.5515
136.915 4219 64.9538
137.033 4285 65.4599
137.15 4193 64.7534
137.267 4212 64.8999
137.384 4394 66.2873
137.502 4336 65.8483
137.619 4258 65.2534
137.736 4100 64.0312
137.853 4034 63.5138
137.97 4076 63.8436
138.087 3822 61.8223
138.204 3978 63.0714
138.321 4055 63.6789
138.438 4111 64.1171
138.555 4213 64.9076
138.672 4092 63.9687
138.788 4118 64.1716
138.905 3849 62.0403
139.022 3918 62.5939
139.139 3726 61.041
139.255 3489 59.0678
139.372 3467 58.8812
139.488 3275 57.2276
139.605 3273 57.2101
139.721 3027 55.0182
139.838 3051 55.2359
139.954 2905 53.8981
140.071 2827 53.1695
140.187 2757 52.5071
140.303 2835 53.2447
140.419 2994 54.7175
140.535 2950 54.3139
140.652 2941 54.231
140.768 0 1
140.884 0 1
141 0 1
141.115 0 1
141.231 0 1
141.347 0 1
141.463 0 1
141.578 0 1
141.694 0 1
144.104 0 1
144.219 0 1
144.335 0 1
144.45 0 1
144.566 0 1
144.682 0 1
144.798 0 1
144.914 0 1
145.03 0 1
145.146 8448 91.913
145.262 8511 92.2551
145.378 8668 93.1021
145.494 8632 92.9086
145.61 8750 93.5414
145.726 9052 95.142
145.842 9053 95.1473
145.959 9053 95.1473
146.075 8922 94.4563
146.192 9002 94.8789
146.308 8973 94.7259
146.425 8712 93.3381
146.541 7995 89.4148
146.658 7140 84.4985
146.774 6004 77.4855
146.891 5910 76.8765
147.008 6425 80.1561
147.125 7661 87.5271
147.241 8433 91.8314
147.358 8662 93.0699
147.475 8798 93.7977
147.592 8798 93.7977
147.709 8916 94.4246
147.826 8821 93.9202
147.943 8728 93.4238
148.06 9055 95.1578
148.177 9001 94.8736
148.294 8949 94.5992
148.411 9006 94.8999
148.528 8878 94.2231
148.645 8894 94.308
148.762 8953 94.6203
148.88 8959 94.652
148.997 8752 93.5521
149.114 9392 96.9123
149.231 8967 94.6942
149.349 9371 96.8039
149.466 9011 94.9263
149.583 9281 96.3379
149.701 8942 94.5621
149.818 9135 95.5772
149.935 9201 95.9218
150.053 8964 94.6784
150.17 8781 93.707
150.287 7765 88.1192
150.405 6623 81.3818
150.522 6123 78.2496
150.64 6544 80.895
150.757 7536 86.8101
150.875 8557 92.5041
150.992 8810 93.8616
151.11 8697 93.2577
151.227 8698 93.2631
151.344 8694 93.2416
151.462 8632 92.9086
151.579 8875 94.2072
151.697 8923 94.4616
151.814 8893 94.3027
151.932 8787 93.739
152.049 8838 94.0106
152.167 8906 94.3716
152.284 8939 94.5463
152.402 8954 94.6256
152.519 9240 96.1249
152.636 8953 94.6203
152.754 9060 95.184
152.871 9154 95.6765
152.989 9210 95.9687
153.106 9373 96.8143
153.223 9347 96.6799
153.341 9309 96.4832
153.458 9412 97.0155
153.575 9459 97.2574
153.693 9384 96.871
153.81 9135 95.5772
153.927 8075 89.861
154.044 6813 82.5409
154.162 6402 80.0125
154.279 6908 83.1144
154.396 8091 89.95
154.513 8811 93.8669
154.63 9187 95.8488
154.747 9176 95.7914
154.864 9027 95.0105
154.981 9110 95.4463
155.098 9076 95.268
155.215 8882 94.2444
155.332 8736 93.4666
155.449 8545 92.4392
155.566 8308 91.1482
155.683 8334 91.2907
155.8 7927 89.0337
155.917 7888 88.8144
156.033 7560 86.9483
156.15 0 1
156.267 0 1
156.383 0 1
156.5 0 1
156.617 0 1
156.733 0 1
156.85 0 1
156.966 0 1
157.082 0 1
157.199 0 1
157.315 0 1
157.431 0 1
157.547 0 1
157.664 0 1
157.78 0 1
157.896 0 1
158.012 0 1
158.128 0 1
158.244 0 1
158.359 0 1
158.475 0 1
158.591 0 1
158.706 0 1
