
6.15755 0 1
6.2731 0 1
6.3887 0 1
6.50437 0 1
6.62009 0 1
6.73587 0 1
6.8517 0 1
6.96759 0 1
7.08353 0 1
7.19952 0 1
7.31557 0 1
7.43166 0 1
7.54781 0 1
7.664 0 1
7.78024 0 1
7.89653 0 1
8.01286 0 1
8.12924 0 1
8.24567 0 1
8.36213 0 1
8.47864 0 1
8.59519 0 1
8.71178 0 1
8.82841 0 1
8.94508 0 1
9.06179 0 1
9.17853 0 1
9.29531 0 1
9.41212 0 1
9.52897 0 1
9.64584 0 1
9.76276 0 1
9.8797 0 1
9.99667 0 1
10.1137 0 1
10.2307 0 1
10.3478 0 1
10.4648 0 1
10.5819 0 1
10.6991 0 1
10.8162 0 1
10.9334 0 1
11.0506 0 1
11.1678 0 1
11.285 0 1
11.4023 0 1
11.5196 0 1
11.6369 0 1
11.7542 0 1
11.8715 0 1
11.9888 0 1
12.1062 0 1
12.2235 0 1
12.3409 0 1
12.4582 0 1
12.5756 0 1
12.693 0 1
12.8104 0 1
12.9278 0 1
13.0452 0 1
13.1626 0 1
13.28 0 1
13.3974 0 1
13.5149 0 1
13.6323 0 1
13.7497 0 1
13.8671 0 1
13.9845 0 1
14.1019 0 1
14.2193 0 1
14.3367 0 1
14.4541 0 1
14.5714 0 1
14.6888 0 1
14.8062 0 1
14.9235 0 1
15.0408 0 0
15.1581 0 0
15.2755 0 0
15.3927 0 0
15.51 0 0
15.6273 0 0
15.7445 0 0
15.8617 0 0
15.9789 0 0
16.0961 0 0
16.2132 0 0
16.3304 0 0
16.4475 0 0
16.5646 0 0
16.6816 0 0
16.7986 0 0
16.9156 0 0
17.0326 0 0
17.1496 0 0
17.2665 0 0
17.3833 0 0
17.5002 0 0
17.617 0 0
17.7338 0 0
17.8505 0 0
17.9672 0 0
18.0839 0 0
18.2005 0 0
18.3171 0 0
18.4337 0 0
18.5502 0 0
18.6666 0 0
18.7831 0 0
18.8994 0 0
19.0158 0 0
19.1321 0 0
19.2483 0 0
19.3645 0 0
19.4806 0 0
19.5967 0 0
19.7128 0 0
19.8288 0 0
19.9447 0 0
20.0606 0 1
20.1764 0 1
20.2922 0 1
20.4079 0 1
20.5236 0 1
20.6392 0 1
20.7548 0 1
20.8702 0 1
23.3078 0 1
23.4233 0 1
23.539 0 1
23.6547 0 1
23.7704 0 1
23.8862 0 1
24.0021 0 1
24.118 0 1
24.234 0 1
24.35 0 1
24.4661 531 23.0434
24.5822 536 23.1517
24.6984 577 24.0208
24.8146 571 23.8956
24.9309 569 23.8537
25.0472 564 23.7487
25.1636 544 23.3238
25.28 623 24.96
25.3965 667 25.8263
25.513 611 24.7184
25.6296 640 25.2982
25.7462 637 25.2389
25.8628 601 24.5153
25.9795 609 24.6779
26.0962 618 24.8596
26.213 590 24.2899
26.3298 569 23.8537
26.4466 631 25.1197
26.5635 601 24.5153
26.6804 602 24.5357
26.7973 551 23.4734
26.9143 519 22.7816
27.0313 490 22.1359
27.1483 509 22.561
27.2653 515 22.6936
27.3824 575 23.9792
27.4996 544 23.3238
27.6167 555 23.5584
27.7339 519 22.7816
27.8511 512 22.6274
27.9683 514 22.6716
28.0855 472 21.7256
28.2028 524 22.891
28.3201 519 22.7816
28.4374 473 21.7486
28.5547 493 22.2036
28.6721 558 23.622
28.7894 516 22.7156
28.9068 536 23.1517
29.0242 589 24.2693
29.1416 554 23.5372
29.259 592 24.3311
29.3764 553 23.516
29.4939 558 23.622
29.6113 636 25.219
29.7288 547 23.388
29.8463 594 24.3721
29.9638 547 23.388
30.0812 537 23.1733
30.1987 584 24.1661
30.3162 524 22.891
30.4337 494 22.2261
30.5512 503 22.4277
30.6687 502 22.4054
30.7862 528 22.9783
30.9037 516 22.7156
31.0212 530 23.0217
31.1387 504 22.4499
31.2562 525 22.9129
31.3737 504 22.4499
31.4912 513 22.6495
31.6087 506 22.4944
31.7262 481 21.9317
31.8436 508 22.5389
31.9611 515 22.6936
32.0785 554 23.5372
32.1959 499 22.3383
32.3134 560 23.6643
32.4308 515 22.6936
32.5482 553 23.516
32.6655 543 23.3024
32.7829 556 23.5797
32.9002 572 23.9165
33.0176 530 23.0217
33.1349 547 23.388
33.2522 566 23.7908
33.3694 553 23.516
33.4867 551 23.4734
33.6039 548 23.4094
33.7211 555 23.5584
33.8383 513 22.6495
33.9554 534 23.1084
34.0725 537 23.1733
34.1896 515 22.6936
34.3067 464 21.5407
34.4237 502 22.4054
34.5407 468 21.6333
34.6577 504 22.4499
34.7746 489 22.1133
34.8915 528 22.9783
35.0084 511 22.6053
35.1252 468 21.6333
35.242 467 21.6102
35.3587 497 22.2935
35.4755 451 21.2368
35.5921 496 22.2711
35.7088 489 22.1133
35.8254 525 22.9129
35.9419 543 23.3024
36.0584 529 23
36.1749 534 23.1084
36.2913 566 23.7908
36.4077 561 23.6854
36.524 560 23.6643
36.6403 592 24.3311
36.7565 525 22.9129
36.8727 526 22.9347
36.9889 592 24.3311
37.1049 527 22.9565
37.221 0 1
37.3369 0 1
37.4529 0 1
37.5687 0 1
37.6845 0 1
37.8003 0 1
37.916 0 1
38.0316 0 1
38.1472 0 1
40.5851 0 1
40.7008 0 1
40.8164 0 1
40.9322 0 1
41.048 0 1
41.1639 0 1
41.2798 0 1
41.3958 0 1
41.5118 0 1
41.6279 0 1
41.744 473 21.7486
41.8602 454 21.3073
41.9765 456 21.3542
42.0928 494 22.2261
42.2091 438 20.9284
42.3255 448 21.166
42.4419 446 21.1187
42.5584 428 20.6882
42.675 454 21.3073
42.7915 411 20.2731
42.9081 454 21.3073
43.0248 425 20.6155
43.1415 393 19.8242
43.2582 403 20.0749
43.375 395 19.8746
43.4918 429 20.7123
43.6087 428 20.6882
43.7256 406 20.1494
43.8425 396 19.8997
43.9595 406 20.1494
44.0765 382 19.5448
44.1935 384 19.5959
44.3106 395 19.8746
44.4277 394 19.8494
44.5448 402 20.0499
44.6619 397 19.9249
44.7791 441 21
44.8963 406 20.1494
45.0136 369 19.2094
45.1308 381 19.5192
45.2481 400 20
45.3654 408 20.199
45.4827 396 19.8997
45.6001 366 19.1311
45.7174 383 19.5704
45.8348 376 19.3907
45.9522 384 19.5959
46.0697 394 19.8494
46.1871 378 19.4422
46.3046 349 18.6815
46.422 377 19.4165
46.5395 323 17.9722
46.657 321 17.9165
46.7745 278 16.6733
46.892 299 17.2916
47.0096 319 17.8606
47.1271 324 18
47.2446 299 17.2916
47.3622 299 17.2916
47.4797 292 17.088
47.5973 325 18.0278
47.7149 314 17.72
47.8324 289 17
47.95 299 17.2916
48.0675 294 17.1464
48.1851 309 17.5784
48.3027 280 16.7332
48.4202 308 17.5499
48.5378 305 17.4642
48.6554 292 17.088
48.7729 300 17.3205
48.8904 286 16.9115
49.008 313 17.6918
49.1255 292 17.088
49.243 289 17
49.3605 302 17.3781
49.478 320 17.8885
49.5955 321 17.9165
49.713 293 17.1172
49.8304 315 17.7482
49.9479 345 18.5742
50.0653 285 16.8819
50.1827 308 17.5499
50.3001 298 17.2627
50.4175 259 16.0935
50.5348 263 16.2173
50.6521 295 17.1756
50.7694 300 17.3205
50.8867 327 18.0831
51.004 324 18
51.1212 329 18.1384
51.2384 330 18.1659
51.3556 346 18.6011
51.4727 346 18.6011
51.5899 363 19.0526
51.707 389 19.7231
51.824 389 19.7231
51.9411 366 19.1311
52.0581 371 19.2614
52.175 395 19.8746
52.2919 411 20.2731
52.4088 401 20.025
52.5257 363 19.0526
52.6425 423 20.567
52.7593 378 19.4422
52.876 407 20.1742
52.9927 412 20.2978
53.1094 385 19.6214
53.226 414 20.347
53.3426 426 20.6398
53.4591 419 20.4695
53.5756 439 20.9523
53.692 398 19.9499
53.8084 409 20.2237
53.9248 373 19.3132
54.0411 370 19.2354
54.1573 370 19.2354
54.2735 0 1
54.3896 0 1
54.5057 0 1
54.6217 0 1
54.7377 0 1
54.8537 0 1
54.9695 0 1
55.0853 0 1
55.2011 0 1
55.3168 0 1
55.4324 0 1
57.824 0 1
57.9396 0 1
58.0553 0 1
58.1711 0 1
58.2869 0 1
58.4028 0 1
58.5187 0 1
58.6347 0 1
58.7508 0 1
58.8669 0 1
58.983 442 21.0238
59.0992 392 19.799
59.2155 408 20.199
59.3318 369 19.2094
59.4482 441 21
59.5646 425 20.6155
59.681 453 21.2838
59.7975 413 20.3224
59.9141 421 20.5183
60.0306 432 20.7846
60.1473 482 21.9545
60.2639 443 21.0476
60.3807 462 21.4942
60.4974 446 21.1187
60.6142 457 21.3776
60.731 448 21.166
60.8479 425 20.6155
60.9648 456 21.3542
61.0818 402 20.0499
61.1987 402 20.0499
61.3158 457 21.3776
61.4328 406 20.1494
61.5499 432 20.7846
61.667 413 20.3224
61.7841 401 20.025
61.9013 438 20.9284
62.0185 408 20.199
62.1357 385 19.6214
62.253 406 20.1494
62.3702 464 21.5407
62.4875 392 19.799
62.6049 373 19.3132
62.7222 352 18.7617
62.8396 358 18.9209
62.9569 362 19.0263
63.0743 374 19.3391
63.1918 343 18.5203
63.3092 394 19.8494
63.4267 386 19.6469
63.5441 389 19.7231
63.6616 358 18.9209
63.7791 391 19.7737
63.8966 397 19.9249
64.0142 391 19.7737
64.1317 407 20.1742
64.2492 371 19.2614
64.3668 395 19.8746
64.4843 386 19.6469
64.6019 392 19.799
64.7195 387 19.6723
64.837 371 19.2614
64.9546 368 19.1833
65.0722 386 19.6469
65.1898 316 17.7764
65.3074 342 18.4932
65.4249 375 19.3649
65.5425 382 19.5448
65.6601 343 18.5203
65.7777 385 19.6214
65.8952 357 18.8944
66.0128 366 19.1311
66.1304 343 18.5203
66.2479 328 18.1108
66.3655 303 17.4069
66.483 307 17.5214
66.6005 314 17.72
66.718 348 18.6548
66.8355 332 18.2209
66.953 378 19.4422
67.0705 307 17.5214
67.1879 375 19.3649
67.3054 312 17.6635
67.4228 346 18.6011
67.5402 337 18.3576
67.6576 335 18.303
67.7749 345 18.5742
67.8923 330 18.1659
68.0096 342 18.4932
68.1269 355 18.8414
68.2442 337 18.3576
68.3614 336 18.3303
68.4787 346 18.6011
68.5958 342 18.4932
68.713 336 18.3303
68.8302 345 18.5742
68.9473 317 17.8045
69.0643 344 18.5472
69.1814 330 18.1659
69.2984 316 17.7764
69.4154 327 18.0831
69.5323 320 17.8885
69.6492 296 17.2047
69.7661 285 16.8819
69.8829 312 17.6635
69.9997 300 17.3205
70.1165 305 17.4642
70.2332 301 17.3494
70.3499 310 17.6068
70.4665 290 17.0294
70.5831 307 17.5214
70.6996 287 16.9411
70.8161 325 18.0278
70.9326 290 17.0294
71.049 291 17.0587
71.1653 287 16.9411
71.2817 298 17.2627
71.3979 307 17.5214
71.5141 299 17.2916
71.6303 273 16.5227
71.7464 225 15
71.8624 0 1
71.9784 0 1
72.0944 0 1
72.2102 0 1
72.3261 0 1
72.4418 0 1
72.5575 0 1
72.6732 0 1
75.1054 0 1
75.2209 0 1
75.3365 0 1
75.4521 0 1
75.5678 0 1
75.6835 0 1
75.7993 0 1
75.9151 0 1
76.031 0 1
76.147 233 15.2643
76.263 233 15.2643
76.3791 230 15.1658
76.4952 225 15
76.6113 255 15.9687
76.7276 247 15.7162
76.8438 237 15.3948
76.9601 218 14.7648
77.0765 226 15.0333
77.1929 227 15.0665
77.3093 226 15.0333
77.4258 202 14.2127
77.5423 234 15.2971
77.6589 223 14.9332
77.7755 211 14.5258
77.8921 209 14.4568
78.0088 224 14.9666
78.1256 222 14.8997
78.2423 202 14.2127
78.3591 215 14.6629
78.4759 211 14.5258
78.5928 195 13.9642
78.7097 185 13.6015
78.8266 197 14.0357
78.9436 180 13.4164
79.0606 177 13.3041
79.1776 137 11.7047
79.2946 136 11.6619
79.4117 158 12.5698
79.5288 185 13.6015
79.6459 181 13.4536
79.7631 151 12.2882
79.8802 154 12.4097
79.9974 138 11.7473
80.1147 144 12
80.2319 144 12
80.3491 163 12.7671
80.4664 131 11.4455
80.5837 152 12.3288
80.701 159 12.6095
80.8183 148 12.1655
80.9357 122 11.0454
81.053 158 12.5698
81.1704 124 11.1355
81.2877 150 12.2474
81.4051 132 11.4891
81.5225 123 11.0905
81.6399 122 11.0454
81.7573 122 11.0454
81.8747 107 10.3441
81.9922 95 9.74679
82.1096 113 10.6301
82.227 116 10.7703
82.3444 108 10.3923
82.4619 105 10.247
82.5793 105 10.247
82.6967 82 9.05539
82.8142 70 8.3666
82.9316 62 7.87401
83.049 77 8.77496
83.1664 87 9.32738
83.2838 86 9.27362
83.4012 70 8.3666
83.5186 54 7.34847
83.636 60 7.74597
83.7534 66 8.12404
83.8708 57 7.54983
83.9881 58 7.61577
84.1055 51 7.14143
84.2228 44 6.63325
84.3401 51 7.14143
84.4575 57 7.54983
84.5747 41 6.40312
84.692 42 6.48074
84.8093 47 6.85565
84.9265 37 6.08276
85.0437 45 6.7082
85.1609 51 7.14143
85.2781 46 6.78233
85.3952 31 5.56776
85.5123 38 6.16441
85.6294 33 5.74456
85.7465 37 6.08276
85.8636 31 5.56776
85.9806 37 6.08276
86.0976 38 6.16441
86.2145 27 5.19615
86.3315 36 6
86.4484 55 7.4162
86.5652 55 7.4162
86.682 40 6.32456
86.7988 48 6.9282
86.9156 46 6.78233
87.0323 56 7.48331
87.149 49 7
87.2657 55 7.4162
87.3823 66 8.12404
87.4988 68 8.24621
87.6154 78 8.83176
87.7318 66 8.12404
87.8483 88 9.38083
87.9647 75 8.66025
88.081 85 9.21954
88.1973 108 10.3923
88.3136 91 9.53939
88.4298 97 9.84886
88.546 73 8.544
88.6621 100 10
88.7781 96 9.79796
88.8942 0 1
89.0101 0 1
89.126 0 1
89.2419 0 1
89.3577 0 1
89.4734 0 1
89.5891 0 1
89.7047 0 1
89.8203 0 1
89.9358 0 1
92.3269 0 1
92.4424 0 1
92.558 0 1
92.6736 0 1
92.7893 0 1
92.905 0 1
93.0208 0 1
93.1366 0 1
93.2525 0 1
93.3685 0 1
93.4845 0 1
93.6005 175 13.2288
93.7167 178 13.3417
93.8328 167 12.9228
93.949 163 12.7671
94.0653 160 12.6491
94.1816 161 12.6886
94.2979 133 11.5326
94.4143 155 12.4499
94.5307 127 11.2694
94.6472 156 12.49
94.7637 134 11.5758
94.8803 118 10.8628
94.9969 128 11.3137
95.1135 143 11.9583
95.2302 146 12.083
95.3469 118 10.8628
95.4637 106 10.2956
95.5805 100 10
95.6973 117 10.8167
95.8142 157 12.53
95.9311 156 12.49
96.048 151 12.2882
96.1649 146 12.083
96.2819 138 11.7473
96.3989 145 12.0416
96.516 174 13.1909
96.633 188 13.7113
96.7501 170 13.0384
96.8673 166 12.8841
96.9844 157 12.53
97.1016 184 13.5647
97.2188 193 13.8924
97.336 203 14.2478
97.4532 182 13.4907
97.5704 195 13.9642
97.6877 203 14.2478
97.805 238 15.4272
97.9223 199 14.1067
98.0396 218 14.7648
98.1569 250 15.8114
98.2743 231 15.1987
98.3916 250 15.8114
98.509 263 16.2173
98.6264 246 15.6844
98.7438 241 15.5242
98.8612 264 16.2481
98.9786 209 14.4568
99.096 194 13.9284
99.2134 160 12.6491
99.3308 248 15.748
99.4482 260 16.1245
99.5656 293 17.1172
99.6831 278 16.6733
99.8005 286 16.9115
99.9179 304 17.4356
100.035 312 17.6635
100.153 302 17.3781
100.27 314 17.72
100.388 315 17.7482
100.505 307 17.5214
100.622 335 18.303
100.74 323 17.9722
100.857 349 18.6815
100.975 339 18.412
101.092 328 18.1108
101.209 332 18.2209
101.327 368 19.1833
101.444 330 18.1659
101.561 366 19.1311
101.679 325 18.0278
101.796 371 19.2614
101.913 348 18.6548
102.03 355 18.8414
102.148 339 18.412
102.265 316 17.7764
102.382 317 17.8045
102.499 304 17.4356
102.616 270 16.4317
102.733 241 15.5242
102.851 319 17.8606
102.968 318 17.8326
103.085 346 18.6011
103.202 347 18.6279
103.319 356 18.868
103.436 360 18.9737
103.552 368 19.1833
103.669 372 19.2873
103.786 350 18.7083
103.903 350 18.7083
104.02 366 19.1311
104.137 361 19
104.253 368 19.1833
104.37 383 19.5704
104.487 367 19.1572
104.603 356 18.868
104.72 391 19.7737
104.836 389 19.7231
104.953 402 20.0499
105.069 379 19.4679
105.186 363 19.0526
105.302 401 20.025
105.418 384 19.5959
105.535 390 19.7484
105.651 410 20.2485
105.767 391 19.7737
105.883 336 18.3303
105.999 306 17.4929
106.115 0 1
106.231 0 1
106.347 0 1
106.463 0 1
106.579 0 1
106.694 0 1
106.81 0 1
106.926 0 1
107.041 0 1
107.157 0 1
109.576 0 1
109.692 0 1
109.807 0 1
109.923 0 1
110.039 0 1
110.155 0 1
110.27 0 1
110.386 0 1
110.502 0 1
110.618 290 17.0294
110.735 275 16.5831
110.851 287 16.9411
110.967 265 16.2788
111.083 235 15.3297
111.199 229 15.1327
111.316 229 15.1327
111.432 213 14.5945
111.549 236 15.3623
111.665 290 17.0294
111.782 267 16.3401
111.898 235 15.3297
112.015 270 16.4317
112.132 252 15.8745
112.248 245 15.6525
112.365 253 15.906
112.482 262 16.1864
112.599 259 16.0935
112.716 248 15.748
112.832 243 15.5885
112.949 229 15.1327
113.066 218 14.7648
113.183 234 15.2971
113.3 236 15.3623
113.417 251 15.843
113.534 228 15.0997
113.652 223 14.9332
113.769 225 15
113.886 223 14.9332
114.003 217 14.7309
114.12 213 14.5945
114.238 206 14.3527
114.355 195 13.9642
114.472 195 13.9642
114.589 212 14.5602
114.707 212 14.5602
114.824 174 13.1909
114.942 186 13.6382
115.059 184 13.5647
115.176 200 14.1421
115.294 220 14.8324
115.411 189 13.7477
115.529 221 14.8661
115.646 221 14.8661
115.764 219 14.7986
115.881 219 14.7986
115.999 223 14.9332
116.116 201 14.1774
116.234 205 14.3178
116.351 211 14.5258
116.469 221 14.8661
116.586 232 15.2315
116.704 212 14.5602
116.821 204 14.2829
116.939 220 14.8324
117.056 198 14.0712
117.174 210 14.4914
117.291 217 14.7309
117.409 189 13.7477
117.526 209 14.4568
117.644 207 14.3875
117.761 188 13.7113
117.879 204 14.2829
117.996 171 13.0767
118.114 156 12.49
118.231 168 12.9615
118.349 180 13.4164
118.466 187 13.6748
118.584 199 14.1067
118.701 181 13.4536
118.819 199 14.1067
118.936 209 14.4568
119.053 203 14.2478
119.171 221 14.8661
119.288 212 14.5602
119.405 210 14.4914
119.523 196 14
119.64 193 13.8924
119.757 193 13.8924
119.875 192 13.8564
119.992 228 15.0997
120.109 212 14.5602
120.226 193 13.8924
120.343 206 14.3527
120.46 223 14.9332
120.578 211 14.5258
120.695 211 14.5258
120.812 200 14.1421
120.929 205 14.3178
121.046 188 13.7113
121.163 223 14.9332
121.279 189 13.7477
121.396 209 14.4568
121.513 223 14.9332
121.63 175 13.2288
121.747 159 12.6095
121.863 137 11.7047
121.98 158 12.5698
122.097 185 13.6015
122.213 202 14.2127
122.33 210 14.4914
122.446 227 15.0665
122.563 212 14.5602
122.679 222 14.8997
122.795 240 15.4919
122.912 222 14.8997
123.028 217 14.7309
123.144 220 14.8324
123.26 212 14.5602
123.377 0 1
123.493 0 1
123.609 0 1
123.725 0 1
123.84 0 1
123.956 0 1
124.072 0 1
124.188 0 1
124.303 0 1
124.419 0 1
126.852 0 1
126.968 0 1
127.083 0 1
127.199 0 1
127.315 0 1
127.431 0 1
127.547 0 1
127.663 0 1
127.779 0 1
127.895 0 1
128.011 0 1
128.127 0 1
128.243 0 1
128.359 260 16.1245
128.476 281 16.7631
128.592 310 17.6068
128.708 302 17.3781
128.825 293 17.1172
128.941 296 17.2047
129.058 305 17.4642
129.174 311 17.6352
129.291 309 17.5784
129.408 300 17.3205
129.524 310 17.6068
129.641 330 18.1659
129.758 283 16.8226
129.875 315 17.7482
129.992 291 17.0587
130.108 315 17.7482
130.225 276 16.6132
130.342 237 15.3948
130.459 263 16.2173
130.576 242 15.5563
130.693 206 14.3527
130.81 184 13.5647
130.928 240 15.4919
131.045 253 15.906
131.162 270 16.4317
131.279 306 17.4929
131.396 304 17.4356
131.513 316 17.7764
131.631 297 17.2337
131.748 300 17.3205
131.865 319 17.8606
131.983 324 18
132.1 273 16.5227
132.217 304 17.4356
132.335 294 17.1464
132.452 330 18.1659
132.57 310 17.6068
132.687 296 17.2047
132.804 333 18.2483
132.922 329 18.1384
133.039 328 18.1108
133.157 303 17.4069
133.274 303 17.4069
133.392 321 17.9165
133.509 327 18.0831
133.627 284 16.8523
133.744 340 18.4391
133.862 293 17.1172
133.979 264 16.2481
134.097 253 15.906
134.214 242 15.5563
134.332 224 14.9666
134.449 218 14.7648
134.567 244 15.6205
134.684 260 16.1245
134.802 298 17.2627
134.919 344 18.5472
135.037 328 18.1108
135.154 320 17.8885
135.272 309 17.5784
135.389 354 18.8149
135.507 371 19.2614
135.624 354 18.8149
135.742 353 18.7883
135.859 348 18.6548
135.977 385 19.6214
136.094 331 18.1934
136.211 336 18.3303
136.329 328 18.1108
136.446 333 18.2483
136.564 338 18.3848
136.681 338 18.3848
136.798 381 19.5192
136.915 381 19.5192
137.033 324 18
137.15 372 19.2873
137.267 355 18.8414
137.384 318 17.8326
137.502 321 17.9165
137.619 279 16.7033
137.736 261 16.1555
137.853 308 17.5499
137.97 268 16.3707
138.087 297 17.2337
138.204 261 16.1555
138.321 316 17.7764
138.438 323 17.9722
138.555 361 19
138.672 345 18.5742
138.788 376 19.3907
138.905 369 19.2094
139.022 402 20.0499
139.139 398 19.9499
139.255 367 19.1572
139.372 373 19.3132
139.488 388 19.6977
139.605 402 20.0499
139.721 404 20.0998
139.838 419 20.4695
139.954 366 19.1311
140.071 387 19.6723
140.187 394 19.8494
140.303 386 19.6469
140.419 370 19.2354
140.535 366 19.1311
140.652 368 19.1833
140.768 0 1
140.884 0 1
141 0 1
141.115 0 1
141.231 0 1
141.347 0 1
141.463 0 1
141.578 0 1
141.694 0 1
144.104 0 1
144.219 0 1
144.335 0 1
144.45 0 1
144.566 0 1
144.682 0 1
144.798 0 1
144.914 0 1
145.03 0 1
145.146 377 19.4165
145.262 360 18.9737
145.378 402 20.0499
145.494 390 19.7484
145.61 378 19.4422
145.726 381 19.5192
145.842 370 19.2354
145.959 359 18.9473
146.075 351 18.735
146.192 334 18.2757
146.308 296 17.2047
146.425 283 16.8226
146.541 290 17.0294
146.658 284 16.8523
146.774 287 16.9411
146.891 314 17.72
147.008 312 17.6635
147.125 330 18.1659
147.241 328 18.1108
147.358 367 19.1572
147.475 356 18.868
147.592 374 19.3391
147.709 370 19.2354
147.826 356 18.868
147.943 365 19.105
148.06 387 19.6723
148.177 358 18.9209
148.294 372 19.2873
148.411 366 19.1311
148.528 345 18.5742
148.645 368 19.1833
148.762 358 18.9209
148.88 356 18.868
148.997 339 18.412
149.114 385 19.6214
149.231 394 19.8494
149.349 397 19.9249
149.466 353 18.7883
149.583 345 18.5742
149.701 304 17.4356
149.818 326 18.0555
149.935 305 17.4642
150.053 300 17.3205
150.17 314 17.72
150.287 314 17.72
150.405 300 17.3205
150.522 321 17.9165
150.64 349 18.6815
150.757 306 17.4929
150.875 344 18.5472
150.992 400 20
151.11 354 18.8149
151.227 371 19.2614
151.344 361 19
151.462 342 18.4932
151.579 377 19.4165
151.697 371 19.2614
151.814 349 18.6815
151.932 382 19.5448
152.049 382 19.5448
152.167 373 19.3132
152.284 365 19.105
152.402 392 19.799
152.519 410 20.2485
152.636 384 19.5959
152.754 383 19.5704
152.871 402 20.0499
152.989 379 19.4679
153.106 364 19.0788
153.223 363 19.0526
153.341 349 18.6815
153.458 325 18.0278
153.575 304 17.4356
153.693 323 17.9722
153.81 324 18
153.927 321 17.9165
154.044 331 18.1934
154.162 368 19.1833
154.279 359 18.9473
154.396 400 20
154.513 378 19.4422
154.63 404 20.0998
154.747 381 19.5192
154.864 390 19.7484
154.981 416 20.3961
155.098 402 20.0499
155.215 396 19.8997
155.332 415 20.3715
155.449 423 20.567
155.566 423 20.567
155.683 372 19.2873
155.8 370 19.2354
155.917 418 20.445
156.033 408 20.199
156.15 0 1
156.267 0 1
156.383 0 1
156.5 0 1
156.617 0 1
156.733 0 1
156.85 0 1
156.966 0 1
157.082 0 1
157.199 0 1
157.315 0 1
157.431 0 1
157.547 0 1
157.664 0 1
157.78 0 1
157.896 0 1
158.012 0 1
158.128 0 1
158.244 0 1
158.359 0 1
158.475 0 1
158.591 0 1
158.706 0 1
