
6.15755 0 1
6.2731 0 1
6.3887 0 1
6.50437 0 1
6.62009 0 1
6.73587 0 1
6.8517 0 1
6.96759 0 1
7.08353 0 1
7.19952 0 1
7.31557 0 1
7.43166 0 1
7.54781 0 1
7.664 0 1
7.78024 0 1
7.89653 0 1
8.01286 0 1
8.12924 0 1
8.24567 0 1
8.36213 0 1
8.47864 0 1
8.59519 0 1
8.71178 0 1
8.82841 0 1
8.94508 0 1
9.06179 0 1
9.17853 0 1
9.29531 0 1
9.41212 0 1
9.52897 0 1
9.64584 0 1
9.76276 0 1
9.8797 0 1
9.99667 0 1
10.1137 0 1
10.2307 0 1
10.3478 0 1
10.4648 0 1
10.5819 0 1
10.6991 0 1
10.8162 0 1
10.9334 0 1
11.0506 0 1
11.1678 0 1
11.285 0 1
11.4023 0 1
11.5196 0 1
11.6369 0 1
11.7542 0 1
11.8715 0 1
11.9888 0 1
12.1062 0 1
12.2235 0 1
12.3409 0 1
12.4582 0 1
12.5756 0 1
12.693 0 1
12.8104 0 1
12.9278 0 1
13.0452 0 1
13.1626 0 1
13.28 0 1
13.3974 0 1
13.5149 0 1
13.6323 0 1
13.7497 0 1
13.8671 0 1
13.9845 0 1
14.1019 0 1
14.2193 0 1
14.3367 0 1
14.4541 0 1
14.5714 0 1
14.6888 0 1
14.8062 0 1
14.9235 0 1
15.0408 0 0
15.1581 0 0
15.2755 0 0
15.3927 0 0
15.51 0 0
15.6273 0 0
15.7445 0 0
15.8617 0 0
15.9789 0 0
16.0961 0 0
16.2132 0 0
16.3304 0 0
16.4475 0 0
16.5646 0 0
16.6816 0 0
16.7986 0 0
16.9156 0 0
17.0326 0 0
17.1496 0 0
17.2665 0 0
17.3833 0 0
17.5002 0 0
17.617 0 0
17.7338 0 0
17.8505 0 0
17.9672 0 0
18.0839 0 0
18.2005 0 0
18.3171 0 0
18.4337 0 0
18.5502 0 0
18.6666 0 0
18.7831 0 0
18.8994 0 0
19.0158 0 0
19.1321 0 0
19.2483 0 0
19.3645 0 0
19.4806 0 0
19.5967 0 0
19.7128 0 0
19.8288 0 0
19.9447 0 0
20.0606 0 1
20.1764 0 1
20.2922 0 1
20.4079 0 1
20.5236 0 1
20.6392 0 1
20.7548 0 1
20.8702 0 1
23.3078 0 1
23.4233 0 1
23.539 0 1
23.6547 0 1
23.7704 0 1
23.8862 0 1
24.0021 0 1
24.118 0 1
24.234 0 1
24.35 0 1
24.4661 1323 36.3731
24.5822 1479 38.4578
24.6984 1587 39.8372
24.8146 1746 41.7852
24.9309 2027 45.0222
25.0472 2322 48.1871
25.1636 2708 52.0384
25.28 2679 51.7591
25.3965 2778 52.7067
25.513 2720 52.1536
25.6296 2814 53.0471
25.7462 2809 53
25.8628 2737 52.3163
25.9795 2779 52.7162
26.0962 2764 52.5738
26.213 2888 53.7401
26.3298 2896 53.8145
26.4466 2924 54.074
26.5635 2786 52.7826
26.6804 2751 52.45
26.7973 2693 51.8941
26.9143 2780 52.7257
27.0313 2623 51.2152
27.1483 2650 51.4782
27.2653 2614 51.1273
27.3824 2471 49.7092
27.4996 2476 49.7594
27.6167 2242 47.3498
27.7339 2307 48.0312
27.8511 2345 48.4252
27.9683 2554 50.5371
28.0855 2563 50.6261
28.2028 2666 51.6333
28.3201 2587 50.8626
28.4374 2572 50.7149
28.5547 2601 51
28.6721 2704 52
28.7894 2662 51.5946
28.9068 2638 51.3615
29.0242 2704 52
29.1416 2648 51.4587
29.259 2662 51.5946
29.3764 2709 52.0481
29.4939 2621 51.1957
29.6113 2486 49.8598
29.7288 2434 49.3356
29.8463 2371 48.6929
29.9638 2465 49.6488
30.0812 2484 49.8397
30.1987 2477 49.7695
30.3162 2540 50.3984
30.4337 2599 50.9804
30.5512 2527 50.2693
30.6687 2559 50.5866
30.7862 2605 51.0392
30.9037 2448 49.4773
31.0212 2375 48.734
31.1387 2409 49.0816
31.2562 2374 48.7237
31.3737 2505 50.05
31.4912 2654 51.517
31.6087 2705 52.0096
31.7262 2764 52.5738
31.8436 2676 51.7301
31.9611 2615 51.1371
32.0785 2580 50.7937
32.1959 2602 51.0098
32.3134 2461 49.6085
32.4308 2567 50.6656
32.5482 2531 50.309
32.6655 2416 49.1528
32.7829 2452 49.5177
32.9002 2327 48.239
33.0176 2345 48.4252
33.1349 2246 47.392
33.2522 2272 47.6655
33.3694 2293 47.8853
33.4867 2318 48.1456
33.6039 2264 47.5815
33.7211 2303 47.9896
33.8383 2470 49.6991
33.9554 2446 49.4571
34.0725 2465 49.6488
34.1896 2555 50.547
34.3067 2381 48.7955
34.4237 2465 49.6488
34.5407 2436 49.3559
34.6577 2338 48.3529
34.7746 2240 47.3286
34.8915 2321 48.1768
35.0084 2424 49.2341
35.1252 2602 51.0098
35.242 2580 50.7937
35.3587 2641 51.3907
35.4755 2690 51.8652
35.5921 2503 50.03
35.7088 2422 49.2138
35.8254 2390 48.8876
35.9419 2351 48.4871
36.0584 2261 47.55
36.1749 2188 46.7761
36.2913 2203 46.9361
36.4077 2048 45.2548
36.524 1939 44.0341
36.6403 1742 41.7373
36.7565 1598 39.975
36.8727 1489 38.5876
36.9889 1503 38.7685
37.1049 1404 37.47
37.221 0 1
37.3369 0 1
37.4529 0 1
37.5687 0 1
37.6845 0 1
37.8003 0 1
37.916 0 1
38.0316 0 1
38.1472 0 1
40.5851 0 1
40.7008 0 1
40.8164 0 1
40.9322 0 1
41.048 0 1
41.1639 0 1
41.2798 0 1
41.3958 0 1
41.5118 0 1
41.6279 0 1
41.744 1902 43.6119
41.8602 2448 49.4773
41.9765 2892 53.7773
42.0928 3233 56.8595
42.2091 3129 55.9375
42.3255 3213 56.6833
42.4419 3158 56.1961
42.5584 3287 57.3324
42.675 3462 58.8388
42.7915 3427 58.5406
42.9081 3495 59.1185
43.0248 3662 60.5145
43.1415 3502 59.1777
43.2582 3359 57.9569
43.375 3146 56.0892
43.4918 3270 57.1839
43.6087 3196 56.5332
43.7256 3256 57.0614
43.8425 3427 58.5406
43.9595 3363 57.9914
44.0765 3467 58.8812
44.1935 3452 58.7537
44.3106 3386 58.1893
44.4277 3267 57.1577
44.5448 3249 57
44.6619 3095 55.6327
44.7791 3009 54.8544
44.8963 2851 53.3948
45.0136 2751 52.45
45.1308 2540 50.3984
45.2481 2485 49.8498
45.3654 2455 49.548
45.4827 2388 48.8672
45.6001 2239 47.3181
45.7174 2171 46.594
45.8348 2153 46.4004
45.9522 2063 45.4203
46.0697 2139 46.2493
46.1871 2168 46.5618
46.3046 2219 47.1063
46.422 2225 47.1699
46.5395 2239 47.3181
46.657 2210 47.0106
46.7745 2164 46.5188
46.892 2085 45.6618
47.0096 1989 44.5982
47.1271 2120 46.0435
47.2446 2071 45.5082
47.3622 2145 46.3141
47.4797 2129 46.1411
47.5973 2302 47.9792
47.7149 2208 46.9894
47.8324 2122 46.0652
47.95 2152 46.3897
48.0675 2117 46.0109
48.1851 2128 46.1303
48.3027 2084 45.6508
48.4202 2084 45.6508
48.5378 2064 45.4313
48.6554 1956 44.2267
48.7729 1944 44.0908
48.8904 1910 43.7035
49.008 1861 43.1393
49.1255 1910 43.7035
49.243 1801 42.4382
49.3605 1908 43.6807
49.478 1941 44.0568
49.5955 2035 45.111
49.713 2111 45.9456
49.8304 2168 46.5618
49.9479 2147 46.3357
50.0653 2050 45.2769
50.1827 2196 46.8615
50.3001 1970 44.3847
50.4175 1761 41.9643
50.5348 1651 40.6325
50.6521 1815 42.6028
50.7694 1927 43.8976
50.8867 2016 44.8999
51.004 2070 45.4973
51.1212 2169 46.5725
51.2384 2294 47.8957
51.3556 2112 45.9565
51.4727 2046 45.2327
51.5899 2209 47
51.707 2077 45.5741
51.824 2072 45.5192
51.9411 2088 45.6946
52.0581 1958 44.2493
52.175 2046 45.2327
52.2919 1938 44.0227
52.4088 2002 44.7437
52.5257 1928 43.909
52.6425 1896 43.5431
52.7593 1833 42.8135
52.876 1871 43.2551
52.9927 1886 43.4281
53.1094 1894 43.5201
53.226 1954 44.2041
53.3426 1942 44.0681
53.4591 1888 43.4511
53.5756 1680 40.9878
53.692 1530 39.1152
53.8084 1349 36.7287
53.9248 1183 34.3948
54.0411 1094 33.0757
54.1573 991 31.4802
54.2735 0 1
54.3896 0 1
54.5057 0 1
54.6217 0 1
54.7377 0 1
54.8537 0 1
54.9695 0 1
55.0853 0 1
55.2011 0 1
55.3168 0 1
55.4324 0 1
57.824 0 1
57.9396 0 1
58.0553 0 1
58.1711 0 1
58.2869 0 1
58.4028 0 1
58.5187 0 1
58.6347 0 1
58.7508 0 1
58.8669 0 1
58.983 1739 41.7013
59.0992 1632 40.398
59.2155 1739 41.7013
59.3318 1830 42.7785
59.4482 2129 46.1411
59.5646 2191 46.8081
59.681 2376 48.7442
59.7975 2492 49.9199
59.9141 2490 49.8999
60.0306 2502 50.02
60.1473 2524 50.2394
60.2639 2434 49.3356
60.3807 2380 48.7852
60.4974 2531 50.309
60.6142 2469 49.689
60.731 2483 49.8297
60.8479 2501 50.01
60.9648 2540 50.3984
61.0818 2554 50.5371
61.1987 2518 50.1797
61.3158 2416 49.1528
61.4328 2367 48.6518
61.5499 2304 48
61.667 2350 48.4768
61.7841 2429 49.2849
61.9013 2430 49.295
62.0185 2505 50.05
62.1357 2487 49.8698
62.253 2404 49.0306
62.3702 2397 48.9592
62.4875 2189 46.7868
62.6049 2105 45.8803
62.7222 2147 46.3357
62.8396 2362 48.6004
62.9569 2532 50.319
63.0743 2585 50.8429
63.1918 2644 51.4198
63.3092 2556 50.5569
63.4267 2656 51.5364
63.5441 2518 50.1797
63.6616 2581 50.8035
63.7791 2556 50.5569
63.8966 2403 49.0204
64.0142 2410 49.0918
64.1317 2518 50.1797
64.2492 2550 50.4975
64.3668 2623 51.2152
64.4843 2555 50.547
64.6019 2444 49.4368
64.7195 2363 48.6107
64.837 2410 49.0918
64.9546 2410 49.0918
65.0722 2312 48.0833
65.1898 2379 48.775
65.3074 2437 49.366
65.4249 2413 49.1223
65.5425 2395 48.9387
65.6601 2355 48.5283
65.7777 2345 48.4252
65.8952 2360 48.5798
66.0128 2291 47.8644
66.1304 2012 44.8553
66.2479 1951 44.1701
66.3655 2116 46
66.483 2190 46.7974
66.6005 2515 50.1498
66.718 2429 49.2849
66.8355 2466 49.6588
66.953 2586 50.8527
67.0705 2549 50.4876
67.1879 2477 49.7695
67.3054 2482 49.8197
67.4228 2500 50
67.5402 2540 50.3984
67.6576 2504 50.04
67.7749 2439 49.3862
67.8923 2527 50.2693
68.0096 2453 49.5278
68.1269 2629 51.2738
68.2442 2418 49.1732
68.3614 2383 48.816
68.4787 2219 47.1063
68.5958 2255 47.4868
68.713 2227 47.1911
68.8302 2246 47.392
68.9473 2167 46.551
69.0643 2238 47.3075
69.1814 2317 48.1352
69.2984 2325 48.2183
69.4154 2310 48.0625
69.5323 2421 49.2037
69.6492 2209 47
69.7661 1959 44.2606
69.8829 1844 42.9418
69.9997 1853 43.0465
70.1165 2035 45.111
70.2332 2128 46.1303
70.3499 2044 45.2106
70.4665 1781 42.2019
70.5831 1712 41.3763
70.6996 1677 40.9512
70.8161 1525 39.0512
70.9326 1518 38.9615
71.049 1494 38.6523
71.1653 1360 36.8782
71.2817 1346 36.6879
71.3979 1264 35.5528
71.5141 1208 34.7563
71.6303 1219 34.9142
71.7464 1146 33.8526
71.8624 0 1
71.9784 0 1
72.0944 0 1
72.2102 0 1
72.3261 0 1
72.4418 0 1
72.5575 0 1
72.6732 0 1
75.1054 0 1
75.2209 0 1
75.3365 0 1
75.4521 0 1
75.5678 0 1
75.6835 0 1
75.7993 0 1
75.9151 0 1
76.031 0 1
76.147 1879 43.3474
76.263 2120 46.0435
76.3791 2203 46.9361
76.4952 2130 46.1519
76.6113 2099 45.8148
76.7276 2118 46.0217
76.8438 2320 48.1664
76.9601 2248 47.4131
77.0765 2333 48.3011
77.1929 2334 48.3115
77.3093 2235 47.2758
77.4258 2244 47.3709
77.5423 2266 47.6025
77.6589 2280 47.7493
77.7755 2205 46.9574
77.8921 2143 46.2925
78.0088 2280 47.7493
78.1256 2256 47.4974
78.2423 2290 47.8539
78.3591 2246 47.392
78.4759 2261 47.55
78.5928 2207 46.9787
78.7097 1986 44.5646
78.8266 1729 41.5812
78.9436 1513 38.8973
79.0606 1693 41.1461
79.1776 1843 42.9302
79.2946 2153 46.4004
79.4117 2317 48.1352
79.5288 2370 48.6826
79.6459 2382 48.8057
79.7631 2357 48.5489
79.8802 2360 48.5798
79.9974 2392 48.9081
80.1147 2338 48.3529
80.2319 2347 48.4458
80.3491 2372 48.7032
80.4664 2328 48.2494
80.5837 2359 48.5695
80.701 2476 49.7594
80.8183 2392 48.9081
80.9357 2454 49.5379
81.053 2404 49.0306
81.1704 2402 49.0102
81.2877 2336 48.3322
81.4051 2343 48.4045
81.5225 2453 49.5278
81.6399 2313 48.0937
81.7573 2348 48.4562
81.8747 2515 50.1498
81.9922 2560 50.5964
82.1096 2729 52.2398
82.227 2715 52.1057
82.3444 2557 50.5668
82.4619 2322 48.1871
82.5793 2150 46.3681
82.6967 2203 46.9361
82.8142 2719 52.144
82.9316 3134 55.9821
83.049 3532 59.4306
83.1664 3702 60.8441
83.2838 3909 62.522
83.4012 3920 62.6099
83.5186 3954 62.8808
83.636 3981 63.0952
83.7534 4165 64.5368
83.8708 4191 64.7379
83.9881 4175 64.6142
84.1055 4159 64.4903
84.2228 4251 65.1997
84.3401 4335 65.8407
84.4575 4367 66.0833
84.5747 4479 66.9253
84.692 4390 66.2571
84.8093 4318 65.7115
84.9265 4358 66.0151
85.0437 4174 64.6065
85.1609 4137 64.3195
85.2781 4235 65.0769
85.3952 4302 65.5896
85.5123 4303 65.5973
85.6294 4246 65.1613
85.7465 4052 63.6553
85.8636 3896 62.4179
85.9806 3266 57.1489
86.0976 2712 52.0769
86.2145 2824 53.1413
86.3315 3032 55.0636
86.4484 3850 62.0484
86.5652 4227 65.0154
86.682 4115 64.1483
86.7988 4132 64.2806
86.9156 4212 64.8999
87.0323 4114 64.1405
87.149 4187 64.707
87.2657 4181 64.6607
87.3823 4141 64.3506
87.4988 4000 63.2456
87.6154 3665 60.5392
87.7318 3272 57.2014
87.8483 3025 55
87.9647 3023 54.9818
88.081 3017 54.9272
88.1973 2877 53.6377
88.3136 2747 52.4118
88.4298 2575 50.7445
88.546 2441 49.4065
88.6621 2309 48.0521
88.7781 2383 48.816
88.8942 0 1
89.0101 0 1
89.126 0 1
89.2419 0 1
89.3577 0 1
89.4734 0 1
89.5891 0 1
89.7047 0 1
89.8203 0 1
89.9358 0 1
92.3269 0 1
92.4424 0 1
92.558 0 1
92.6736 0 1
92.7893 0 1
92.905 0 1
93.0208 0 1
93.1366 0 1
93.2525 0 1
93.3685 0 1
93.4845 0 1
93.6005 4306 65.6201
93.7167 4303 65.5973
93.8328 4214 64.9153
93.949 4300 65.5744
94.0653 4373 66.1287
94.1816 4308 65.6354
94.2979 4230 65.0385
94.4143 4406 66.3777
94.5307 4405 66.3702
94.6472 4331 65.8103
94.7637 4094 63.9844
94.8803 3653 60.4401
94.9969 3388 58.2065
95.1135 2943 54.2494
95.2302 3254 57.0438
95.3469 3666 60.5475
95.4637 4118 64.1716
95.5805 4452 66.7233
95.6973 4299 65.5668
95.8142 4409 66.4003
95.9311 4470 66.8581
96.048 4457 66.7608
96.1649 4454 66.7383
96.2819 4474 66.888
96.3989 4450 66.7083
96.516 4586 67.72
96.633 4483 66.9552
96.7501 4597 67.8012
96.8673 4628 68.0294
96.9844 4742 68.8622
97.1016 4713 68.6513
97.2188 4614 67.9264
97.336 4482 66.9477
97.4532 4532 67.3201
97.5704 4341 65.8863
97.6877 4307 65.6277
97.805 4421 66.4906
97.9223 4486 66.9776
98.0396 4507 67.1342
98.1569 4633 68.0661
98.2743 4222 64.9769
98.3916 3974 63.0397
98.509 3303 57.4717
98.6264 3131 55.9553
98.7438 3209 56.648
98.8612 3691 60.7536
98.9786 4041 63.5689
99.096 4352 65.9697
99.2134 4350 65.9545
99.3308 4268 65.3299
99.4482 4154 64.4515
99.5656 4178 64.6375
99.6831 3988 63.1506
99.8005 4047 63.616
99.9179 3906 62.498
100.035 3846 62.0161
100.153 3720 60.9918
100.27 3762 61.3351
100.388 3711 60.918
100.505 3635 60.291
100.622 3574 59.7829
100.74 3640 60.3324
100.857 3287 57.3324
100.975 3272 57.2014
101.092 3235 56.8771
101.209 3116 55.8211
101.327 3084 55.5338
101.444 3035 55.0908
101.561 3078 55.4797
101.679 3055 55.2721
101.796 3048 55.2087
101.913 2902 53.8702
102.03 2697 51.9326
102.148 2436 49.3559
102.265 2125 46.0977
102.382 2450 49.4975
102.499 2714 52.0961
102.616 2885 53.7122
102.733 2910 53.9444
102.851 2905 53.8981
102.968 2719 52.144
103.085 2888 53.7401
103.202 2860 53.479
103.319 2870 53.5724
103.436 2813 53.0377
103.552 2771 52.6403
103.669 2778 52.7067
103.786 2790 52.8205
103.903 2818 53.0848
104.02 2796 52.8772
104.137 2867 53.5444
104.253 2909 53.9351
104.37 2786 52.7826
104.487 2732 52.2685
104.603 2716 52.1153
104.72 2644 51.4198
104.836 2380 48.7852
104.953 2292 47.8748
105.069 2012 44.8553
105.186 1856 43.0813
105.302 1736 41.6653
105.418 1578 39.724
105.535 1438 37.921
105.651 1286 35.8608
105.767 971 31.1609
105.883 871 29.5127
105.999 893 29.8831
106.115 0 1
106.231 0 1
106.347 0 1
106.463 0 1
106.579 0 1
106.694 0 1
106.81 0 1
106.926 0 1
107.041 0 1
107.157 0 1
109.576 0 1
109.692 0 1
109.807 0 1
109.923 0 1
110.039 0 1
110.155 0 1
110.27 0 1
110.386 0 1
110.502 0 1
110.618 2805 52.9623
110.735 2931 54.1387
110.851 2708 52.0384
110.967 2418 49.1732
111.083 2538 50.3786
111.199 2639 51.3712
111.316 2900 53.8516
111.432 2940 54.2218
111.549 3160 56.2139
111.665 3102 55.6956
111.782 3150 56.1249
111.898 3071 55.4166
112.015 3104 55.7136
112.132 3011 54.8726
112.248 3035 55.0908
112.365 3096 55.6417
112.482 3115 55.8122
112.599 3248 56.9912
112.716 3304 57.4804
112.832 3279 57.2626
112.949 3276 57.2364
113.066 3344 57.8273
113.183 3424 58.515
113.3 3297 57.4195
113.417 3389 58.2151
113.534 3402 58.3267
113.652 3340 57.7927
113.769 3440 58.6515
113.886 3395 58.2666
114.003 3322 57.6368
114.12 3399 58.3009
114.238 3222 56.7627
114.355 2949 54.3047
114.472 2676 51.7301
114.589 2606 51.049
114.707 2584 50.8331
114.824 3027 55.0182
114.942 3135 55.9911
115.059 3130 55.9464
115.176 3173 56.3294
115.294 3199 56.5597
115.411 3204 56.6039
115.529 3114 55.8032
115.646 3198 56.5509
115.764 3111 55.7763
115.881 3085 55.5428
115.999 3102 55.6956
116.116 3195 56.5243
116.234 3188 56.4624
116.351 3268 57.1664
116.469 3338 57.7754
116.586 3424 58.515
116.704 3542 59.5147
116.821 3423 58.5064
116.939 3382 58.155
117.056 3454 58.7707
117.174 3537 59.4727
117.291 3446 58.7026
117.409 3431 58.5747
117.526 3447 58.7112
117.644 3353 57.9051
117.761 3453 58.7622
117.879 3234 56.8683
117.996 2823 53.1319
118.114 2729 52.2398
118.231 2695 51.9134
118.349 2821 53.1131
118.466 3059 55.3082
118.584 3177 56.3649
118.701 3214 56.6922
118.819 3231 56.8419
118.936 3162 56.2317
119.053 3043 55.1634
119.171 3117 55.8301
119.288 3031 55.0545
119.405 3007 54.8361
119.523 3070 55.4076
119.64 2896 53.8145
119.757 3064 55.3534
119.875 3019 54.9454
119.992 3224 56.7803
120.109 3270 57.1839
120.226 3252 57.0263
120.343 3259 57.0877
120.46 3344 57.8273
120.578 3234 56.8683
120.695 3213 56.6833
120.812 3136 56
120.929 3134 55.9821
121.046 3160 56.2139
121.163 3221 56.7539
121.279 3136 56
121.396 3082 55.5158
121.513 2985 54.6352
121.63 2764 52.5738
121.747 2460 49.5984
121.863 2316 48.1248
121.98 2208 46.9894
122.097 2182 46.7119
122.213 2158 46.4543
122.33 2251 47.4447
122.446 2216 47.0744
122.563 2062 45.4093
122.679 2042 45.1885
122.795 1997 44.6878
122.912 1941 44.0568
123.028 1859 43.1161
123.144 1811 42.5558
123.26 1862 43.1509
123.377 0 1
123.493 0 1
123.609 0 1
123.725 0 1
123.84 0 1
123.956 0 1
124.072 0 1
124.188 0 1
124.303 0 1
124.419 0 1
126.852 0 1
126.968 0 1
127.083 0 1
127.199 0 1
127.315 0 1
127.431 0 1
127.547 0 1
127.663 0 1
127.779 0 1
127.895 0 1
128.011 0 1
128.127 0 1
128.243 0 1
128.359 3601 60.0083
128.476 3603 60.025
128.592 3513 59.2706
128.708 3620 60.1664
128.825 3821 61.8142
128.941 3660 60.4979
129.058 3725 61.0328
129.174 3737 61.131
129.291 3808 61.709
129.408 3865 62.1691
129.524 3957 62.9047
129.641 4192 64.7457
129.758 4128 64.2495
129.875 4191 64.7379
129.992 4397 66.3099
130.108 4327 65.7799
130.225 4345 65.9166
130.342 4307 65.6277
130.459 4107 64.0859
130.576 4212 64.8999
130.693 3896 62.4179
130.81 3767 61.3759
130.928 3683 60.6877
131.045 3866 62.1772
131.162 4000 63.2456
131.279 4075 63.8357
131.396 4094 63.9844
131.513 4238 65.0999
131.631 4156 64.467
131.748 4114 64.1405
131.865 4014 63.3561
131.983 3972 63.0238
132.1 4103 64.0547
132.217 3964 62.9603
132.335 3953 62.8729
132.452 3962 62.9444
132.57 4075 63.8357
132.687 3809 61.7171
132.804 4193 64.7534
132.922 4112 64.1249
133.039 4089 63.9453
133.157 4193 64.7534
133.274 4241 65.123
133.392 4300 65.5744
133.509 4377 66.1589
133.627 4503 67.1044
133.744 4465 66.8207
133.862 4618 67.9559
133.979 4593 67.7717
134.097 4482 66.9477
134.214 4333 65.8255
134.332 4211 64.8922
134.449 4119 64.1794
134.567 4156 64.467
134.684 4410 66.4078
134.802 4371 66.1135
134.919 4406 66.3777
135.037 4422 66.4981
135.154 4389 66.2495
135.272 4337 65.8559
135.389 4376 66.1513
135.507 4301 65.582
135.624 4324 65.7571
135.742 4229 65.0308
135.859 4052 63.6553
135.977 4179 64.6452
136.094 4251 65.1997
136.211 4271 65.3529
136.329 4170 64.5755
136.446 4236 65.0846
136.564 4188 64.7148
136.681 4141 64.3506
136.798 4212 64.8999
136.915 4313 65.6734
137.033 4278 65.4064
137.15 4326 65.7723
137.267 4348 65.9394
137.384 4450 66.7083
137.502 4346 65.9242
137.619 4278 65.4064
137.736 4403 66.3551
137.853 4181 64.6607
137.97 4086 63.9218
138.087 3873 62.2334
138.204 3967 62.9841
138.321 4166 64.5446
138.438 4246 65.1613
138.555 4399 66.325
138.672 4229 65.0308
138.788 4133 64.2884
138.905 4151 64.4283
139.022 3948 62.8331
139.139 3815 61.7657
139.255 3730 61.0737
139.372 3510 59.2453
139.488 3339 57.7841
139.605 3217 56.7186
139.721 3218 56.7274
139.838 3064 55.3534
139.954 3022 54.9727
140.071 2980 54.5894
140.187 3058 55.2992
140.303 2873 53.6004
140.419 2938 54.2033
140.535 3022 54.9727
140.652 3157 56.1872
140.768 0 1
140.884 0 1
141 0 1
141.115 0 1
141.231 0 1
141.347 0 1
141.463 0 1
141.578 0 1
141.694 0 1
144.104 0 1
144.219 0 1
144.335 0 1
144.45 0 1
144.566 0 1
144.682 0 1
144.798 0 1
144.914 0 1
145.03 0 1
145.146 8412 91.717
145.262 8604 92.7577
145.378 8789 93.7497
145.494 8789 93.7497
145.61 8807 93.8456
145.726 8971 94.7154
145.842 8997 94.8525
145.959 8955 94.6309
146.075 8950 94.6044
146.192 9028 95.0158
146.308 8993 94.8314
146.425 8722 93.3916
146.541 8037 89.6493
146.658 6818 82.5712
146.774 5930 77.0065
146.891 5714 75.591
147.008 6372 79.8248
147.125 7677 87.6185
147.241 8512 92.2605
147.358 8958 94.6467
147.475 8836 94
147.592 8820 93.9149
147.709 8793 93.771
147.826 8816 93.8936
147.943 8816 93.8936
148.06 8903 94.3557
148.177 8864 94.1488
148.294 8951 94.6097
148.411 8882 94.2444
148.528 8945 94.578
148.645 8901 94.3451
148.762 8870 94.1807
148.88 8955 94.6309
148.997 8773 93.6643
149.114 9345 96.6695
149.231 9027 95.0105
149.349 9272 96.2912
149.466 9002 94.8789
149.583 9198 95.9062
149.701 8993 94.8314
149.818 9163 95.7236
149.935 9341 96.6488
150.053 9017 94.9579
150.17 8723 93.397
150.287 7800 88.3176
150.405 6623 81.3818
150.522 6011 77.5306
150.64 6424 80.1499
150.757 7559 86.9425
150.875 8409 91.7006
150.992 8837 94.0053
151.11 8681 93.1719
151.227 8931 94.504
151.344 8839 94.016
151.462 8791 93.7603
151.579 8778 93.691
151.697 8905 94.3663
151.814 8960 94.6573
151.932 8832 93.9787
152.049 9018 94.9632
152.167 9076 95.268
152.284 8860 94.1276
152.402 9173 95.7758
152.519 9122 95.5092
152.636 9170 95.7601
152.754 9207 95.9531
152.871 9162 95.7183
152.989 9124 95.5196
153.106 9297 96.421
153.223 9353 96.7109
153.341 9339 96.6385
153.458 9455 97.2368
153.575 9458 97.2522
153.693 9026 95.0053
153.81 9025 95
153.927 7981 89.3364
154.044 6679 81.7251
154.162 6386 79.9125
154.279 6863 82.8432
154.396 8050 89.7218
154.513 8920 94.4458
154.63 9200 95.9166
154.747 9098 95.3834
154.864 8888 94.2762
154.981 9026 95.0053
155.098 8763 93.6109
155.215 8721 93.3863
155.332 8460 91.9783
155.449 8379 91.5369
155.566 8205 90.5815
155.683 7975 89.3029
155.8 7922 89.0056
155.917 7893 88.8426
156.033 7717 87.8465
156.15 0 1
156.267 0 1
156.383 0 1
156.5 0 1
156.617 0 1
156.733 0 1
156.85 0 1
156.966 0 1
157.082 0 1
157.199 0 1
157.315 0 1
157.431 0 1
157.547 0 1
157.664 0 1
157.78 0 1
157.896 0 1
158.012 0 1
158.128 0 1
158.244 0 1
158.359 0 1
158.475 0 1
158.591 0 1
158.706 0 1
