
6.15755 0 1
6.2731 0 1
6.3887 0 1
6.50437 0 1
6.62009 0 1
6.73587 0 1
6.8517 0 1
6.96759 0 1
7.08353 0 1
7.19952 0 1
7.31557 0 1
7.43166 0 1
7.54781 0 1
7.664 0 1
7.78024 0 1
7.89653 0 1
8.01286 0 1
8.12924 0 1
8.24567 0 1
8.36213 0 1
8.47864 0 1
8.59519 0 1
8.71178 0 1
8.82841 0 1
8.94508 0 1
9.06179 0 1
9.17853 0 1
9.29531 0 1
9.41212 0 1
9.52897 0 1
9.64584 0 1
9.76276 0 1
9.8797 0 1
9.99667 0 1
10.1137 0 1
10.2307 0 1
10.3478 0 1
10.4648 0 1
10.5819 0 1
10.6991 0 1
10.8162 0 1
10.9334 0 1
11.0506 0 1
11.1678 0 1
11.285 0 1
11.4023 0 1
11.5196 0 1
11.6369 0 1
11.7542 0 1
11.8715 0 1
11.9888 0 1
12.1062 0 1
12.2235 0 1
12.3409 0 1
12.4582 0 1
12.5756 0 1
12.693 0 1
12.8104 0 1
12.9278 0 1
13.0452 0 1
13.1626 0 1
13.28 0 1
13.3974 0 1
13.5149 0 1
13.6323 0 1
13.7497 0 1
13.8671 0 1
13.9845 0 1
14.1019 0 1
14.2193 0 1
14.3367 0 1
14.4541 0 1
14.5714 0 1
14.6888 0 1
14.8062 0 1
14.9235 0 1
15.0408 1580 39.7492
15.1581 1573 39.6611
15.2755 1624 40.2989
15.3927 1679 40.9756
15.51 1602 40.025
15.6273 1639 40.4846
15.7445 1719 41.4608
15.8617 1714 41.4005
15.9789 1599 39.9875
16.0961 1502 38.7556
16.2132 1559 39.4842
16.3304 1556 39.4462
16.4475 1520 38.9872
16.5646 1480 38.4708
16.6816 1457 38.1707
16.7986 1586 39.8246
16.9156 1459 38.1969
17.0326 1560 39.4968
17.1496 1536 39.1918
17.2665 1541 39.2556
17.3833 1571 39.6358
17.5002 1581 39.7618
17.617 1600 40
17.7338 1616 40.1995
17.8505 1662 40.7676
17.9672 1595 39.9375
18.0839 1651 40.6325
18.2005 1678 40.9634
18.3171 1619 40.2368
18.4337 1616 40.1995
18.5502 1748 41.8091
18.6666 1638 40.4722
18.7831 1519 38.9744
18.8994 1531 39.128
19.0158 1473 38.3797
19.1321 1418 37.6563
19.2483 1499 38.7169
19.3645 1452 38.1051
19.4806 1446 38.0263
19.5967 1450 38.0789
19.7128 1510 38.8587
19.8288 1524 39.0384
19.9447 1377 37.108
20.0606 0 1
20.1764 0 1
20.2922 0 1
20.4079 0 1
20.5236 0 1
20.6392 0 1
20.7548 0 1
20.8702 0 1
23.3078 0 1
23.4233 0 1
23.539 0 1
23.6547 0 1
23.7704 0 1
23.8862 0 1
24.0021 0 1
24.118 0 1
24.234 0 1
24.35 0 1
24.4661 1522 39.0128
24.5822 1590 39.8748
24.6984 1627 40.3361
24.8146 1732 41.6173
24.9309 1776 42.1426
25.0472 1948 44.1362
25.1636 1889 43.4626
25.28 1972 44.4072
25.3965 2145 46.3141
25.513 2091 45.7275
25.6296 2171 46.594
25.7462 2143 46.2925
25.8628 2190 46.7974
25.9795 2116 46
26.0962 2089 45.7056
26.213 2024 44.9889
26.3298 1913 43.7379
26.4466 1938 44.0227
26.5635 1862 43.1509
26.6804 1900 43.589
26.7973 1925 43.8748
26.9143 1804 42.4735
27.0313 1709 41.3401
27.1483 1737 41.6773
27.2653 1727 41.5572
27.3824 1703 41.2674
27.4996 1676 40.939
27.6167 1750 41.833
27.7339 1749 41.821
27.8511 1832 42.8019
27.9683 1910 43.7035
28.0855 2011 44.8442
28.2028 2094 45.7602
28.3201 2043 45.1996
28.4374 2173 46.6154
28.5547 2137 46.2277
28.6721 2252 47.4552
28.7894 2173 46.6154
28.9068 2055 45.3321
29.0242 2084 45.6508
29.1416 2116 46
29.259 2027 45.0222
29.3764 1963 44.3058
29.4939 1947 44.1248
29.6113 1856 43.0813
29.7288 1803 42.4617
29.8463 1711 41.3642
29.9638 1723 41.509
30.0812 1638 40.4722
30.1987 1700 41.2311
30.3162 1755 41.8927
30.4337 1713 41.3884
30.5512 1701 41.2432
30.6687 1743 41.7493
30.7862 1828 42.7551
30.9037 1847 42.9767
31.0212 2065 45.4423
31.1387 2269 47.634
31.2562 2369 48.6724
31.3737 2497 49.97
31.4912 2576 50.7543
31.6087 2507 50.07
31.7262 2600 50.9902
31.8436 2449 49.4874
31.9611 2452 49.5177
32.0785 2262 47.5605
32.1959 2224 47.1593
32.3134 2033 45.0888
32.4308 1893 43.5086
32.5482 1811 42.5558
32.6655 1658 40.7185
32.7829 1640 40.4969
32.9002 1467 38.3014
33.0176 1513 38.8973
33.1349 1455 38.1445
33.2522 1392 37.3095
33.3694 1399 37.4032
33.4867 1322 36.3593
33.6039 1355 36.8103
33.7211 1416 37.6298
33.8383 1399 37.4032
33.9554 1633 40.4104
34.0725 1628 40.3485
34.1896 1655 40.6817
34.3067 1944 44.0908
34.4237 1929 43.9204
34.5407 2007 44.7996
34.6577 2098 45.8039
34.7746 2099 45.8148
34.8915 1993 44.643
35.0084 2014 44.8776
35.1252 1896 43.5431
35.242 1832 42.8019
35.3587 1771 42.0833
35.4755 1684 41.0366
35.5921 1621 40.2616
35.7088 1575 39.6863
35.8254 1475 38.4057
35.9419 1465 38.2753
36.0584 1379 37.1349
36.1749 1390 37.2827
36.2913 1358 36.8511
36.4077 1298 36.0278
36.524 1301 36.0694
36.6403 1290 35.9166
36.7565 1271 35.6511
36.8727 1281 35.7911
36.9889 1319 36.318
37.1049 1316 36.2767
37.221 0 1
37.3369 0 1
37.4529 0 1
37.5687 0 1
37.6845 0 1
37.8003 0 1
37.916 0 1
38.0316 0 1
38.1472 0 1
40.5851 0 1
40.7008 0 1
40.8164 0 1
40.9322 0 1
41.048 0 1
41.1639 0 1
41.2798 0 1
41.3958 0 1
41.5118 0 1
41.6279 0 1
41.744 1090 33.0151
41.8602 1148 33.8821
41.9765 1136 33.7046
42.0928 1138 33.7343
42.2091 1244 35.2704
42.3255 1284 35.8329
42.4419 1277 35.7351
42.5584 1275 35.7071
42.675 1211 34.7994
42.7915 1214 34.8425
42.9081 1159 34.0441
43.0248 1053 32.45
43.1415 1023 31.9844
43.2582 1047 32.3574
43.375 1026 32.0312
43.4918 1001 31.6386
43.6087 1012 31.8119
43.7256 969 31.1288
43.8425 1031 32.1092
43.9595 940 30.6594
44.0765 1014 31.8434
44.1935 1032 32.1248
44.3106 1030 32.0936
44.4277 981 31.3209
44.5448 960 30.9839
44.6619 932 30.5287
44.7791 974 31.209
44.8963 930 30.4959
45.0136 895 29.9166
45.1308 943 30.7083
45.2481 938 30.6268
45.3654 987 31.4166
45.4827 922 30.3645
45.6001 963 31.0322
45.7174 992 31.496
45.8348 996 31.5595
45.9522 937 30.6105
46.0697 916 30.2655
46.1871 900 30
46.3046 909 30.1496
46.422 903 30.05
46.5395 824 28.7054
46.657 805 28.3725
46.7745 807 28.4077
46.892 813 28.5132
47.0096 795 28.1957
47.1271 861 29.3428
47.2446 791 28.1247
47.3622 822 28.6705
47.4797 816 28.5657
47.5973 853 29.2062
47.7149 816 28.5657
47.8324 857 29.2746
47.95 819 28.6182
48.0675 763 27.6225
48.1851 739 27.1846
48.3027 812 28.4956
48.4202 785 28.0179
48.5378 746 27.313
48.6554 764 27.6405
48.7729 733 27.074
48.8904 758 27.5318
49.008 765 27.6586
49.1255 727 26.9629
49.243 722 26.8701
49.3605 691 26.2869
49.478 736 27.1293
49.5955 700 26.4575
49.713 722 26.8701
49.8304 744 27.2764
49.9479 693 26.3249
50.0653 743 27.258
50.1827 692 26.3059
50.3001 668 25.8457
50.4175 666 25.807
50.5348 672 25.923
50.6521 720 26.8328
50.7694 752 27.4226
50.8867 708 26.6083
51.004 777 27.8747
51.1212 782 27.9643
51.2384 848 29.1204
51.3556 761 27.5862
51.4727 789 28.0891
51.5899 759 27.55
51.707 810 28.4605
51.824 842 29.0172
51.9411 834 28.8791
52.0581 824 28.7054
52.175 804 28.3549
52.2919 777 27.8747
52.4088 805 28.3725
52.5257 794 28.178
52.6425 858 29.2916
52.7593 856 29.2575
52.876 822 28.6705
52.9927 866 29.4279
53.1094 880 29.6648
53.226 864 29.3939
53.3426 909 30.1496
53.4591 871 29.5127
53.5756 1004 31.686
53.692 989 31.4484
53.8084 904 30.0666
53.9248 889 29.8161
54.0411 879 29.6479
54.1573 865 29.4109
54.2735 0 1
54.3896 0 1
54.5057 0 1
54.6217 0 1
54.7377 0 1
54.8537 0 1
54.9695 0 1
55.0853 0 1
55.2011 0 1
55.3168 0 1
55.4324 0 1
57.824 0 1
57.9396 0 1
58.0553 0 1
58.1711 0 1
58.2869 0 1
58.4028 0 1
58.5187 0 1
58.6347 0 1
58.7508 0 1
58.8669 0 1
58.983 993 31.5119
59.0992 941 30.6757
59.2155 1018 31.9061
59.3318 1002 31.6544
59.4482 991 31.4802
59.5646 1007 31.7333
59.681 1013 31.8277
59.7975 991 31.4802
59.9141 1053 32.45
60.0306 1090 33.0151
60.1473 1020 31.9374
60.2639 1028 32.0624
60.3807 1006 31.7175
60.4974 983 31.3528
60.6142 1064 32.619
60.731 946 30.7571
60.8479 907 30.1164
60.9648 923 30.3809
61.0818 886 29.7658
61.1987 929 30.4795
61.3158 904 30.0666
61.4328 924 30.3974
61.5499 990 31.4643
61.667 944 30.7246
61.7841 976 31.241
61.9013 965 31.0644
62.0185 926 30.4302
62.1357 954 30.8869
62.253 995 31.5436
62.3702 935 30.5778
62.4875 905 30.0832
62.6049 909 30.1496
62.7222 909 30.1496
62.8396 872 29.5296
62.9569 938 30.6268
63.0743 894 29.8998
63.1918 943 30.7083
63.3092 902 30.0333
63.4267 962 31.0161
63.5441 957 30.9354
63.6616 928 30.4631
63.7791 972 31.1769
63.8966 994 31.5278
64.0142 940 30.6594
64.1317 990 31.4643
64.2492 887 29.7825
64.3668 936 30.5941
64.4843 864 29.3939
64.6019 773 27.8029
64.7195 841 29
64.837 812 28.4956
64.9546 787 28.0535
65.0722 852 29.189
65.1898 896 29.9333
65.3074 906 30.0998
65.4249 873 29.5466
65.5425 893 29.8831
65.6601 881 29.6816
65.7777 907 30.1164
65.8952 858 29.2916
66.0128 914 30.2324
66.1304 818 28.6007
66.2479 812 28.4956
66.3655 836 28.9137
66.483 850 29.1548
66.6005 859 29.3087
66.718 919 30.315
66.8355 901 30.0167
66.953 862 29.3598
67.0705 929 30.4795
67.1879 899 29.9833
67.3054 859 29.3087
67.4228 918 30.2985
67.5402 906 30.0998
67.6576 874 29.5635
67.7749 927 30.4467
67.8923 836 28.9137
68.0096 864 29.3939
68.1269 810 28.4605
68.2442 844 29.0517
68.3614 833 28.8617
68.4787 832 28.8444
68.5958 811 28.4781
68.713 819 28.6182
68.8302 860 29.3258
68.9473 910 30.1662
69.0643 941 30.6757
69.1814 958 30.9516
69.2984 924 30.3974
69.4154 975 31.225
69.5323 900 30
69.6492 881 29.6816
69.7661 844 29.0517
69.8829 862 29.3598
69.9997 861 29.3428
70.1165 938 30.6268
70.2332 865 29.4109
70.3499 963 31.0322
70.4665 943 30.7083
70.5831 942 30.692
70.6996 983 31.3528
70.8161 954 30.8869
70.9326 937 30.6105
71.049 979 31.289
71.1653 965 31.0644
71.2817 1035 32.1714
71.3979 934 30.5614
71.5141 941 30.6757
71.6303 837 28.931
71.7464 792 28.1425
71.8624 0 1
71.9784 0 1
72.0944 0 1
72.2102 0 1
72.3261 0 1
72.4418 0 1
72.5575 0 1
72.6732 0 1
75.1054 0 1
75.2209 0 1
75.3365 0 1
75.4521 0 1
75.5678 0 1
75.6835 0 1
75.7993 0 1
75.9151 0 1
76.031 0 1
76.147 946 30.7571
76.263 1013 31.8277
76.3791 996 31.5595
76.4952 963 31.0322
76.6113 1017 31.8904
76.7276 985 31.3847
76.8438 1022 31.9687
76.9601 972 31.1769
77.0765 929 30.4795
77.1929 925 30.4138
77.3093 893 29.8831
77.4258 931 30.5123
77.5423 925 30.4138
77.6589 954 30.8869
77.7755 889 29.8161
77.8921 959 30.9677
78.0088 1021 31.9531
78.1256 1011 31.7962
78.2423 1045 32.3265
78.3591 1070 32.7109
78.4759 1056 32.4962
78.5928 986 31.4006
78.7097 994 31.5278
78.8266 954 30.8869
78.9436 1008 31.749
79.0606 900 30
79.1776 892 29.8664
79.2946 1003 31.6702
79.4117 1032 32.1248
79.5288 1009 31.7648
79.6459 1038 32.218
79.7631 1063 32.6037
79.8802 1039 32.2335
79.9974 1027 32.0468
80.1147 1081 32.8786
80.2319 1012 31.8119
80.3491 964 31.0483
80.4664 958 30.9516
80.5837 997 31.5753
80.701 944 30.7246
80.8183 864 29.3939
80.9357 868 29.4618
81.053 799 28.2666
81.1704 824 28.7054
81.2877 841 29
81.4051 849 29.1376
81.5225 909 30.1496
81.6399 956 30.9192
81.7573 1008 31.749
81.8747 1006 31.7175
81.9922 1019 31.9218
82.1096 1034 32.1559
82.227 1021 31.9531
82.3444 983 31.3528
82.4619 896 29.9333
82.5793 937 30.6105
82.6967 956 30.9192
82.8142 992 31.496
82.9316 949 30.8058
83.049 960 30.9839
83.1664 964 31.0483
83.2838 977 31.257
83.4012 1003 31.6702
83.5186 975 31.225
83.636 1022 31.9687
83.7534 924 30.3974
83.8708 1006 31.7175
83.9881 989 31.4484
84.1055 943 30.7083
84.2228 995 31.5436
84.3401 868 29.4618
84.4575 874 29.5635
84.5747 846 29.0861
84.692 845 29.0689
84.8093 828 28.775
84.9265 817 28.5832
85.0437 879 29.6479
85.1609 989 31.4484
85.2781 1089 33
85.3952 1201 34.6554
85.5123 1323 36.3731
85.6294 1464 38.2623
85.7465 1522 39.0128
85.8636 1835 42.8369
85.9806 2121 46.0543
86.0976 2340 48.3735
86.2145 2503 50.03
86.3315 3080 55.4977
86.4484 3268 57.1664
86.5652 3742 61.1719
86.682 4410 66.4078
86.7988 4850 69.6419
86.9156 5331 73.0137
87.0323 5793 76.1118
87.149 6289 79.3032
87.2657 6709 81.9085
87.3823 7144 84.5222
87.4988 7483 86.5043
87.6154 7747 88.017
87.7318 7677 87.6185
87.8483 6415 80.0937
87.9647 4749 68.913
88.081 3261 57.1052
88.1973 2403 49.0204
88.3136 2044 45.2106
88.4298 2114 45.9783
88.546 2512 50.1199
88.6621 3841 61.9758
88.7781 6178 78.6003
88.8942 0 1
89.0101 0 1
89.126 0 1
89.2419 0 1
89.3577 0 1
89.4734 0 1
89.5891 0 1
89.7047 0 1
89.8203 0 1
89.9358 0 1
92.3269 0 1
92.4424 0 1
92.558 0 1
92.6736 0 1
92.7893 0 1
92.905 0 1
93.0208 0 1
93.1366 0 1
93.2525 0 1
93.3685 0 1
93.4845 0 1
93.6005 2573 50.7247
93.7167 2131 46.1628
93.8328 2116 46
93.949 2335 48.3218
94.0653 2925 54.0833
94.1816 4146 64.3894
94.2979 5866 76.5898
94.4143 7474 86.4523
94.5307 8218 90.6532
94.6472 8473 92.0489
94.7637 8461 91.9837
94.8803 8481 92.0923
94.9969 8193 90.5152
95.1135 8011 89.5042
95.2302 8067 89.8165
95.3469 7887 88.8088
95.4637 7714 87.8294
95.5805 8045 89.6939
95.6973 8019 89.5489
95.8142 8210 90.6091
95.9311 8246 90.8075
96.048 8182 90.4544
96.1649 8257 90.868
96.2819 8453 91.9402
96.3989 8483 92.1032
96.516 8433 91.8314
96.633 8365 91.4604
96.7501 8576 92.6067
96.8673 8508 92.2388
96.9844 7429 86.1916
97.1016 5883 76.7007
97.2188 4317 65.7039
97.336 3073 55.4346
97.4532 2395 48.9387
97.5704 2296 47.9166
97.6877 2521 50.2096
97.805 3083 55.5248
97.9223 4169 64.5678
98.0396 5916 76.9155
98.1569 7343 85.6913
98.2743 8122 90.1221
98.3916 8235 90.7469
98.509 8140 90.2219
98.6264 8125 90.1388
98.7438 7798 88.3063
98.8612 7704 87.7724
98.9786 7690 87.6926
99.096 7362 85.8021
99.2134 7500 86.6025
99.3308 7528 86.764
99.4482 7492 86.5563
99.5656 7502 86.6141
99.6831 7700 87.7496
99.8005 7541 86.8389
99.9179 7700 87.7496
100.035 7735 87.9488
100.153 7878 88.7581
100.27 7956 89.1964
100.388 8180 90.4434
100.505 8138 90.2109
100.622 7580 87.0632
100.74 6209 78.7972
100.857 4962 70.4415
100.975 4438 66.6183
101.092 4620 67.9706
101.209 5142 71.7077
101.327 5867 76.5963
101.444 6849 82.7587
101.561 8523 92.3201
101.679 9983 99.915
101.796 10642 103.16
101.913 10921 104.504
102.03 10948 104.633
102.148 10853 104.178
102.265 10140 100.698
102.382 10192 100.955
102.499 9610 98.0306
102.616 9456 97.242
102.733 9072 95.247
102.851 9482 97.3756
102.968 9590 97.9285
103.085 9398 96.9433
103.202 9412 97.0155
103.319 9302 96.4469
103.436 9495 97.4423
103.552 9789 98.9394
103.669 9952 99.7597
103.786 10083 100.414
103.903 10412 102.039
104.02 10451 102.23
104.137 10354 101.755
104.253 10517 102.552
104.37 10401 101.985
104.487 10381 101.887
104.603 10545 102.689
104.72 10844 104.135
104.836 11458 107.042
104.953 12010 109.59
105.069 12420 111.445
105.186 13052 114.245
105.302 13668 116.91
105.418 14209 119.202
105.535 14449 120.204
105.651 14703 121.256
105.767 14927 122.176
105.883 14928 122.18
105.999 14858 121.893
106.115 0 1
106.231 0 1
106.347 0 1
106.463 0 1
106.579 0 1
106.694 0 1
106.81 0 1
106.926 0 1
107.041 0 1
107.157 0 1
109.576 0 1
109.692 0 1
109.807 0 1
109.923 0 1
110.039 0 1
110.155 0 1
110.27 0 1
110.386 0 1
110.502 0 1
110.618 17081 130.694
110.735 17661 132.895
110.851 17620 132.74
110.967 17362 131.765
111.083 17022 130.468
111.199 16989 130.342
111.316 17251 131.343
111.432 17540 132.439
111.549 17688 132.996
111.665 17552 132.484
111.782 17631 132.782
111.898 17662 132.898
112.015 17769 133.3
112.132 17675 132.947
112.248 17230 131.263
112.365 16570 128.725
112.482 15442 124.266
112.599 15764 125.555
112.716 14580 120.748
112.832 14015 118.385
112.949 13510 116.233
113.066 12734 112.845
113.183 12826 113.252
113.3 13579 116.529
113.417 14579 120.744
113.534 15434 124.234
113.652 16337 127.816
113.769 17143 130.931
113.886 17648 132.846
114.003 17805 133.435
114.12 18097 134.525
114.238 18509 136.048
114.355 17961 134.019
114.472 17891 133.757
114.589 17783 133.353
114.707 17142 130.927
114.824 17098 130.759
114.942 17164 131.011
115.059 17755 133.248
115.176 17852 133.611
115.294 18029 134.272
115.411 17933 133.914
115.529 18261 135.133
115.646 18403 135.658
115.764 18608 136.411
115.881 17714 133.094
115.999 17091 130.733
116.116 16123 126.976
116.234 15827 125.805
116.351 15406 124.121
116.469 14604 120.847
116.586 14300 119.583
116.704 13919 117.979
116.821 14145 118.933
116.939 14987 122.421
117.056 15853 125.909
117.174 16703 129.24
117.291 17596 132.65
117.409 18039 134.309
117.526 18294 135.255
117.644 18907 137.503
117.761 18880 137.405
117.879 19248 138.737
117.996 19062 138.065
118.114 18879 137.401
118.231 18661 136.605
118.349 18223 134.993
118.466 18245 135.074
118.584 18584 136.323
118.701 18455 135.849
118.819 18813 137.16
118.936 18481 135.945
119.053 18116 134.596
119.171 18128 134.64
119.288 18288 135.233
119.405 18168 134.789
119.523 17153 130.969
119.64 15931 126.218
119.757 15082 122.809
119.875 14292 119.549
119.992 13226 115.004
120.109 12743 112.885
120.226 11738 108.342
120.343 11297 106.287
120.46 11081 105.266
120.578 10943 104.609
120.695 11150 105.594
120.812 11501 107.243
120.929 11444 106.977
121.046 11648 107.926
121.163 11510 107.285
121.279 11934 109.243
121.396 12024 109.654
121.513 12122 110.1
121.63 12456 111.606
121.747 12093 109.968
121.863 11991 109.503
121.98 11830 108.766
122.097 11765 108.467
122.213 11315 106.372
122.33 11267 106.146
122.446 11337 106.475
122.563 11186 105.764
122.679 10998 104.871
122.795 11116 105.432
122.912 11088 105.3
123.028 11038 105.062
123.144 10569 102.806
123.26 10186 100.926
123.377 0 1
123.493 0 1
123.609 0 1
123.725 0 1
123.84 0 1
123.956 0 1
124.072 0 1
124.188 0 1
124.303 0 1
124.419 0 1
126.852 0 1
126.968 0 1
127.083 0 1
127.199 0 1
127.315 0 1
127.431 0 1
127.547 0 1
127.663 0 1
127.779 0 1
127.895 0 1
128.011 0 1
128.127 0 1
128.243 0 1
128.359 13077 114.355
128.476 12889 113.53
128.592 12383 111.279
128.708 12185 110.386
128.825 11945 109.293
128.941 11824 108.738
129.058 11587 107.643
129.174 11133 105.513
129.291 10771 103.783
129.408 10668 103.286
129.524 10452 102.235
129.641 10170 100.846
129.758 9871 99.3529
129.875 9875 99.373
129.992 9797 98.9798
130.108 9627 98.1173
130.225 9572 97.8366
130.342 9619 98.0765
130.459 9241 96.1301
130.576 9596 97.9592
130.693 9036 95.0579
130.81 8646 92.9839
130.928 8475 92.0598
131.045 8252 90.8405
131.162 8283 91.011
131.279 8617 92.8278
131.396 8391 91.6024
131.513 8858 94.1169
131.631 9056 95.163
131.748 9003 94.8841
131.865 9087 95.3258
131.983 9367 96.7833
132.1 9336 96.623
132.217 9323 96.5557
132.335 9416 97.0361
132.452 9154 95.6765
132.57 9307 96.4728
132.687 9250 96.1769
132.804 9552 97.7343
132.922 8992 94.8262
133.039 9232 96.0833
133.157 9077 95.2733
133.274 9177 95.7967
133.392 8932 94.5093
133.509 9216 96
133.627 9089 95.3362
133.744 9113 95.462
133.862 8967 94.6942
133.979 8973 94.7259
134.097 8929 94.4934
134.214 8571 92.5797
134.332 8716 93.3595
134.449 8291 91.0549
134.567 7804 88.3403
134.684 7913 88.955
134.802 7881 88.775
134.919 8113 90.0722
135.037 8038 89.6549
135.154 8172 90.3991
135.272 8373 91.5041
135.389 8461 91.9837
135.507 8682 93.1773
135.624 8790 93.755
135.742 8727 93.4184
135.859 8736 93.4666
135.977 8856 94.1063
136.094 8930 94.4987
136.211 8863 94.1435
136.329 8916 94.4246
136.446 8749 93.5361
136.564 8881 94.2391
136.681 8688 93.2094
136.798 8831 93.9734
136.915 8757 93.5788
137.033 8674 93.1343
137.15 8794 93.7763
137.267 8587 92.6661
137.384 8614 92.8116
137.502 8727 93.4184
137.619 8464 92
137.736 8700 93.2738
137.853 8318 91.2031
137.97 8318 91.2031
138.087 7830 88.4873
138.204 7605 87.2067
138.321 7587 87.1034
138.438 7718 87.8521
138.555 7793 88.278
138.672 7882 88.7806
138.788 8125 90.1388
138.905 8129 90.161
139.022 8531 92.3634
139.139 8651 93.0108
139.255 8624 92.8655
139.372 8929 94.4934
139.488 9033 95.0421
139.605 8707 93.3113
139.721 8719 93.3756
139.838 8641 92.957
139.954 8706 93.3059
140.071 8560 92.5203
140.187 8710 93.3274
140.303 8508 92.2388
140.419 8680 93.1665
140.535 8433 91.8314
140.652 8439 91.864
140.768 0 1
140.884 0 1
141 0 1
141.115 0 1
141.231 0 1
141.347 0 1
141.463 0 1
141.578 0 1
141.694 0 1
144.104 0 1
144.219 0 1
144.335 0 1
144.45 0 1
144.566 0 1
144.682 0 1
144.798 0 1
144.914 0 1
145.03 0 1
145.146 5745 75.7958
145.262 6447 80.2932
145.378 6690 81.7924
145.494 6823 82.6015
145.61 7028 83.8332
145.726 6970 83.4865
145.842 6908 83.1144
145.959 7071 84.0892
146.075 7143 84.5163
146.192 7131 84.4452
146.308 7065 84.0536
146.425 7197 84.8351
146.541 7362 85.8021
146.658 7237 85.0706
146.774 7095 84.2318
146.891 7047 83.9464
147.008 6856 82.801
147.125 6626 81.4002
147.241 6457 80.3555
147.358 6607 81.2835
147.475 6731 82.0427
147.592 6656 81.5843
147.709 6914 83.1505
147.826 6834 82.668
147.943 6971 83.4925
148.06 7114 84.3445
148.177 7142 84.5104
148.294 7272 85.276
148.411 7160 84.6168
148.528 7226 85.0059
148.645 7245 85.1176
148.762 7226 85.0059
148.88 7205 84.8823
148.997 7120 84.3801
149.114 7386 85.9418
149.231 7288 85.3698
149.349 7166 84.6522
149.466 7444 86.2786
149.583 7406 86.0581
149.701 7502 86.6141
149.818 7448 86.3018
149.935 7426 86.1742
150.053 7522 86.7295
150.17 7623 87.3098
150.287 7594 87.1436
150.405 7539 86.8274
150.522 7395 85.9942
150.64 7292 85.3932
150.757 7108 84.309
150.875 6761 82.2253
150.992 6510 80.6846
151.11 6779 82.3347
151.227 6610 81.3019
151.344 6584 81.1419
151.462 6742 82.1097
151.579 6922 83.1986
151.697 6990 83.6062
151.814 7107 84.303
151.932 7361 85.7963
152.049 7312 85.5102
152.167 7363 85.8079
152.284 7431 86.2032
152.402 7401 86.0291
152.519 7610 87.2353
152.636 7616 87.2697
152.754 7710 87.8066
152.871 7481 86.4928
152.989 7766 88.1249
153.106 7658 87.51
153.223 7844 88.5664
153.341 7807 88.3572
153.458 7899 88.8763
153.575 7922 89.0056
153.693 8129 90.161
153.81 7755 88.0625
153.927 7784 88.227
154.044 7658 87.51
154.162 7492 86.5563
154.279 7337 85.6563
154.396 6831 82.6499
154.513 6862 82.8372
154.63 6890 83.006
154.747 7131 84.4452
154.864 7247 85.1293
154.981 7166 84.6522
155.098 7531 86.7813
155.215 7545 86.862
155.332 7645 87.4357
155.449 7840 88.5438
155.566 7878 88.7581
155.683 7957 89.202
155.8 8110 90.0555
155.917 8073 89.8499
156.033 8275 90.967
156.15 0 1
156.267 0 1
156.383 0 1
156.5 0 1
156.617 0 1
156.733 0 1
156.85 0 1
156.966 0 1
157.082 0 1
157.199 0 1
157.315 0 1
157.431 0 1
157.547 0 1
157.664 0 1
157.78 0 1
157.896 0 1
158.012 0 1
158.128 0 1
158.244 0 1
158.359 0 1
158.475 0 1
158.591 0 1
158.706 0 1
