
6.15755 0 1
6.2731 0 1
6.3887 0 1
6.50437 0 1
6.62009 0 1
6.73587 0 1
6.8517 0 1
6.96759 0 1
7.08353 0 1
7.19952 0 1
7.31557 0 1
7.43166 0 1
7.54781 0 1
7.664 0 1
7.78024 0 1
7.89653 0 1
8.01286 0 1
8.12924 0 1
8.24567 0 1
8.36213 0 1
8.47864 0 1
8.59519 0 1
8.71178 0 1
8.82841 0 1
8.94508 0 1
9.06179 0 1
9.17853 0 1
9.29531 0 1
9.41212 0 1
9.52897 0 1
9.64584 0 1
9.76276 0 1
9.8797 0 1
9.99667 0 1
10.1137 0 1
10.2307 0 1
10.3478 0 1
10.4648 0 1
10.5819 0 1
10.6991 0 1
10.8162 0 1
10.9334 0 1
11.0506 0 1
11.1678 0 1
11.285 0 1
11.4023 0 1
11.5196 0 1
11.6369 0 1
11.7542 0 1
11.8715 0 1
11.9888 0 1
12.1062 0 1
12.2235 0 1
12.3409 0 1
12.4582 0 1
12.5756 0 1
12.693 0 1
12.8104 0 1
12.9278 0 1
13.0452 0 1
13.1626 0 1
13.28 0 1
13.3974 0 1
13.5149 0 1
13.6323 0 1
13.7497 0 1
13.8671 0 1
13.9845 0 1
14.1019 0 1
14.2193 0 1
14.3367 0 1
14.4541 0 1
14.5714 0 1
14.6888 0 1
14.8062 0 1
14.9235 0 1
15.0408 0 0
15.1581 0 0
15.2755 0 0
15.3927 0 0
15.51 0 0
15.6273 0 0
15.7445 0 0
15.8617 0 0
15.9789 0 0
16.0961 0 0
16.2132 0 0
16.3304 0 0
16.4475 0 0
16.5646 0 0
16.6816 0 0
16.7986 0 0
16.9156 0 0
17.0326 0 0
17.1496 0 0
17.2665 0 0
17.3833 0 0
17.5002 0 0
17.617 0 0
17.7338 0 0
17.8505 0 0
17.9672 0 0
18.0839 0 0
18.2005 0 0
18.3171 0 0
18.4337 0 0
18.5502 0 0
18.6666 0 0
18.7831 0 0
18.8994 0 0
19.0158 0 0
19.1321 0 0
19.2483 0 0
19.3645 0 0
19.4806 0 0
19.5967 0 0
19.7128 0 0
19.8288 0 0
19.9447 0 0
20.0606 0 1
20.1764 0 1
20.2922 0 1
20.4079 0 1
20.5236 0 1
20.6392 0 1
20.7548 0 1
20.8702 0 1
23.3078 0 1
23.4233 0 1
23.539 0 1
23.6547 0 1
23.7704 0 1
23.8862 0 1
24.0021 0 1
24.118 0 1
24.234 0 1
24.35 0 1
24.4661 1526 39.064
24.5822 1535 39.1791
24.6984 1528 39.0896
24.8146 1519 38.9744
24.9309 1510 38.8587
25.0472 1520 38.9872
25.1636 1546 39.3192
25.28 1557 39.4588
25.3965 1592 39.8999
25.513 1602 40.025
25.6296 1582 39.7744
25.7462 1621 40.2616
25.8628 1619 40.2368
25.9795 1562 39.5221
26.0962 1616 40.1995
26.213 1572 39.6485
26.3298 1594 39.9249
26.4466 1557 39.4588
26.5635 1467 38.3014
26.6804 1324 36.3868
26.7973 1274 35.6931
26.9143 1269 35.623
27.0313 1359 36.8646
27.1483 1474 38.3927
27.2653 1515 38.923
27.3824 1542 39.2683
27.4996 1495 38.6652
27.6167 1592 39.8999
27.7339 1606 40.0749
27.8511 1489 38.5876
27.9683 1519 38.9744
28.0855 1510 38.8587
28.2028 1481 38.4838
28.3201 1493 38.6394
28.4374 1467 38.3014
28.5547 1477 38.4318
28.6721 1496 38.6782
28.7894 1535 39.1791
28.9068 1497 38.6911
29.0242 1580 39.7492
29.1416 1561 39.5095
29.259 1584 39.7995
29.3764 1593 39.9124
29.4939 1555 39.4335
29.6113 1565 39.5601
29.7288 1479 38.4578
29.8463 1504 38.7814
29.9638 1416 37.6298
30.0812 1355 36.8103
30.1987 1209 34.7707
30.3162 1217 34.8855
30.4337 1261 35.5106
30.5512 1320 36.3318
30.6687 1372 37.0405
30.7862 1501 38.7427
30.9037 1577 39.7115
31.0212 1501 38.7427
31.1387 1615 40.1871
31.2562 1464 38.2623
31.3737 1562 39.5221
31.4912 1540 39.2428
31.6087 1534 39.1663
31.7262 1507 38.8201
31.8436 1496 38.6782
31.9611 1418 37.6563
32.0785 1527 39.0768
32.1959 1572 39.6485
32.3134 1536 39.1918
32.4308 1458 38.1838
32.5482 1534 39.1663
32.6655 1557 39.4588
32.7829 1528 39.0896
32.9002 1570 39.6232
33.0176 1521 39
33.1349 1581 39.7618
33.2522 1461 38.223
33.3694 1592 39.8999
33.4867 1507 38.8201
33.6039 1413 37.5899
33.7211 1400 37.4166
33.8383 1232 35.0999
33.9554 1172 34.2345
34.0725 1230 35.0714
34.1896 1365 36.9459
34.3067 1343 36.647
34.4237 1442 37.9737
34.5407 1518 38.9615
34.6577 1530 39.1152
34.7746 1538 39.2173
34.8915 1530 39.1152
35.0084 1581 39.7618
35.1252 1482 38.4968
35.242 1585 39.8121
35.3587 1512 38.8844
35.4755 1585 39.8121
35.5921 1531 39.128
35.7088 1501 38.7427
35.8254 1483 38.5097
35.9419 1601 40.0125
36.0584 1539 39.2301
36.1749 1477 38.4318
36.2913 1555 39.4335
36.4077 1634 40.4228
36.524 1551 39.3827
36.6403 1545 39.3065
36.7565 1534 39.1663
36.8727 1566 39.5727
36.9889 1559 39.4842
37.1049 1581 39.7618
37.221 0 1
37.3369 0 1
37.4529 0 1
37.5687 0 1
37.6845 0 1
37.8003 0 1
37.916 0 1
38.0316 0 1
38.1472 0 1
40.5851 0 1
40.7008 0 1
40.8164 0 1
40.9322 0 1
41.048 0 1
41.1639 0 1
41.2798 0 1
41.3958 0 1
41.5118 0 1
41.6279 0 1
41.744 1267 35.5949
41.8602 1321 36.3456
41.9765 1385 37.2156
42.0928 1345 36.6742
42.2091 1359 36.8646
42.3255 1316 36.2767
42.4419 1224 34.9857
42.5584 1125 33.541
42.675 1066 32.6497
42.7915 1007 31.7333
42.9081 1041 32.2645
43.0248 1115 33.3916
43.1415 1254 35.4119
43.2582 1229 35.0571
43.375 1320 36.3318
43.4918 1325 36.4005
43.6087 1309 36.1801
43.7256 1274 35.6931
43.8425 1274 35.6931
43.9595 1335 36.5377
44.0765 1236 35.1568
44.1935 1204 34.6987
44.3106 1256 35.4401
44.4277 1199 34.6266
44.5448 1181 34.3657
44.6619 1224 34.9857
44.7791 1198 34.6121
44.8963 1175 34.2783
45.0136 1246 35.2987
45.1308 1259 35.4824
45.2481 1220 34.9285
45.3654 1195 34.5688
45.4827 1276 35.7211
45.6001 1210 34.7851
45.7174 1214 34.8425
45.8348 1163 34.1028
45.9522 1217 34.8855
46.0697 1080 32.8634
46.1871 968 31.1127
46.3046 935 30.5778
46.422 867 29.4449
46.5395 892 29.8664
46.657 1072 32.7414
46.7745 1117 33.4215
46.892 1093 33.0606
47.0096 1124 33.5261
47.1271 1186 34.4384
47.2446 1076 32.8024
47.3622 1141 33.7787
47.4797 1162 34.0881
47.5973 1142 33.7935
47.7149 1096 33.1059
47.8324 1037 32.2025
47.95 981 31.3209
48.0675 943 30.7083
48.1851 1015 31.8591
48.3027 995 31.5436
48.4202 996 31.5595
48.5378 1076 32.8024
48.6554 1031 32.1092
48.7729 1037 32.2025
48.8904 1081 32.8786
49.008 1066 32.6497
49.1255 1118 33.4365
49.243 1165 34.1321
49.3605 1084 32.9242
49.478 1068 32.6803
49.5955 1029 32.078
49.713 927 30.4467
49.8304 861 29.3428
49.9479 850 29.1548
50.0653 969 31.1288
50.1827 1075 32.7872
50.3001 1161 34.0735
50.4175 1237 35.171
50.5348 1290 35.9166
50.6521 1340 36.606
50.7694 1403 37.4566
50.8867 1448 38.0526
51.004 1385 37.2156
51.1212 1464 38.2623
51.2384 1461 38.223
51.3556 1434 37.8682
51.4727 1434 37.8682
51.5899 1451 38.092
51.707 1447 38.0395
51.824 1402 37.4433
51.9411 1564 39.5474
52.0581 1645 40.5586
52.175 1600 40
52.2919 1712 41.3763
52.4088 1734 41.6413
52.5257 1759 41.9404
52.6425 1815 42.6028
52.7593 1799 42.4146
52.876 1760 41.9524
52.9927 1835 42.8369
53.1094 1682 41.0122
53.226 1700 41.2311
53.3426 1490 38.6005
53.4591 1384 37.2022
53.5756 1368 36.9865
53.692 1572 39.6485
53.8084 1735 41.6533
53.9248 1854 43.0581
54.0411 1990 44.6094
54.1573 2064 45.4313
54.2735 0 1
54.3896 0 1
54.5057 0 1
54.6217 0 1
54.7377 0 1
54.8537 0 1
54.9695 0 1
55.0853 0 1
55.2011 0 1
55.3168 0 1
55.4324 0 1
57.824 0 1
57.9396 0 1
58.0553 0 1
58.1711 0 1
58.2869 0 1
58.4028 0 1
58.5187 0 1
58.6347 0 1
58.7508 0 1
58.8669 0 1
58.983 2488 49.8799
59.0992 2744 52.3832
59.2155 2816 53.066
59.3318 2860 53.479
59.4482 2842 53.3104
59.5646 2841 53.301
59.681 2902 53.8702
59.7975 2899 53.8424
59.9141 2789 52.811
60.0306 2854 53.4228
60.1473 2777 52.6972
60.2639 2651 51.4879
60.3807 2804 52.9528
60.4974 2751 52.45
60.6142 2786 52.7826
60.731 2931 54.1387
60.8479 2953 54.3415
60.9648 2970 54.4977
61.0818 3059 55.3082
61.1987 2920 54.037
61.3158 3102 55.6956
61.4328 2992 54.6992
61.5499 2952 54.3323
61.667 2889 53.7494
61.7841 2626 51.2445
61.9013 2471 49.7092
62.0185 2249 47.4236
62.1357 2290 47.8539
62.253 2579 50.7839
62.3702 2739 52.3355
62.4875 2993 54.7083
62.6049 3132 55.9643
62.7222 3238 56.9034
62.8396 3161 56.2228
62.9569 3205 56.6127
63.0743 3160 56.2139
63.1918 3345 57.836
63.3092 3092 55.6058
63.4267 3085 55.5428
63.5441 3045 55.1815
63.6616 2974 54.5344
63.7791 2853 53.4135
63.8966 2960 54.4059
64.0142 3024 54.9909
64.1317 2999 54.7631
64.2492 3190 56.4801
64.3668 3229 56.8243
64.4843 3263 57.1227
64.6019 3322 57.6368
64.7195 3368 58.0345
64.837 3390 58.2237
64.9546 3310 57.5326
65.0722 3502 59.1777
65.1898 3278 57.2538
65.3074 3144 56.0714
65.4249 2747 52.4118
65.5425 2594 50.9313
65.6601 2409 49.0816
65.7777 2587 50.8626
65.8952 2894 53.7959
66.0128 3160 56.2139
66.1304 3357 57.9396
66.2479 3468 58.8897
66.3655 3578 59.8164
66.483 3663 60.5227
66.6005 3588 59.8999
66.718 3772 61.4166
66.8355 3576 59.7997
66.953 3622 60.1831
67.0705 3349 57.8705
67.1879 3367 58.0259
67.3054 3249 57
67.4228 3196 56.5332
67.5402 3139 56.0268
67.6576 3288 57.3411
67.7749 3458 58.8048
67.8923 3635 60.291
68.0096 3743 61.1801
68.1269 3826 61.8547
68.2442 3895 62.4099
68.3614 3893 62.3939
68.4787 3940 62.7694
68.5958 3959 62.9206
68.713 3942 62.7853
68.8302 3903 62.474
68.9473 3713 60.9344
69.0643 3329 57.6975
69.1814 3004 54.8088
69.2984 2816 53.066
69.4154 3057 55.2901
69.5323 3335 57.7495
69.6492 3685 60.7042
69.7661 4047 63.616
69.8829 4175 64.6142
69.9997 4278 65.4064
70.1165 4424 66.5132
70.2332 4426 66.5282
70.3499 4307 65.6277
70.4665 4386 66.2269
70.5831 4251 65.1997
70.6996 4196 64.7765
70.8161 3958 62.9126
70.9326 3824 61.8385
71.049 3739 61.1474
71.1653 3678 60.6465
71.2817 3786 61.5305
71.3979 3623 60.1914
71.5141 3880 62.2896
71.6303 3914 62.562
71.7464 3746 61.2046
71.8624 0 1
71.9784 0 1
72.0944 0 1
72.2102 0 1
72.3261 0 1
72.4418 0 1
72.5575 0 1
72.6732 0 1
75.1054 0 1
75.2209 0 1
75.3365 0 1
75.4521 0 1
75.5678 0 1
75.6835 0 1
75.7993 0 1
75.9151 0 1
76.031 0 1
76.147 3871 62.2174
76.263 4040 63.561
76.3791 4116 64.1561
76.4952 3892 62.3859
76.6113 3798 61.6279
76.7276 4018 63.3877
76.8438 4182 64.6684
76.9601 4544 67.4092
77.0765 4641 68.1249
77.1929 4576 67.6461
77.3093 4739 68.8404
77.4258 4611 67.9043
77.5423 4710 68.6294
77.6589 4707 68.6076
77.7755 4564 67.5574
77.8921 4444 66.6633
78.0088 4088 63.9375
78.1256 3701 60.8358
78.2423 3489 59.0678
78.3591 3296 57.4108
78.4759 3315 57.576
78.5928 3666 60.5475
78.7097 4111 64.1171
78.8266 4657 68.2422
78.9436 4399 66.325
79.0606 4776 69.1086
79.1776 4484 66.9627
79.2946 4600 67.8233
79.4117 4649 68.1836
79.5288 4592 67.7643
79.6459 4535 67.3424
79.7631 4514 67.1863
79.8802 4276 65.3911
79.9974 3926 62.6578
80.1147 3905 62.49
80.2319 3653 60.4401
80.3491 3859 62.1208
80.4664 3961 62.9365
80.5837 4367 66.0833
80.701 4376 66.1513
80.8183 4596 67.7938
80.9357 4634 68.0735
81.053 4670 68.3374
81.1704 4544 67.4092
81.2877 4622 67.9853
81.4051 4516 67.2012
81.5225 4407 66.3852
81.6399 4166 64.5446
81.7573 3723 61.0164
81.8747 3422 58.4979
81.9922 3272 57.2014
82.1096 3330 57.7062
82.227 3491 59.0847
82.3444 3866 62.1772
82.4619 4184 64.6838
82.5793 4284 65.4523
82.6967 4502 67.0969
82.8142 4301 65.582
82.9316 4346 65.9242
83.049 4400 66.3325
83.1664 4376 66.1513
83.2838 4296 65.5439
83.4012 4137 64.3195
83.5186 4048 63.6239
83.636 3781 61.4898
83.7534 3618 60.1498
83.8708 3481 59
83.9881 3596 59.9667
84.1055 3602 60.0167
84.2228 3794 61.5955
84.3401 4175 64.6142
84.4575 4267 65.3223
84.5747 4194 64.7611
84.692 4379 66.174
84.8093 4445 66.6708
84.9265 4366 66.0757
85.0437 4321 65.7343
85.1609 4198 64.792
85.2781 3842 61.9839
85.3952 3540 59.4979
85.5123 3378 58.1206
85.6294 3399 58.3009
85.7465 3449 58.7282
85.8636 3746 61.2046
85.9806 4029 63.4744
86.0976 4428 66.5432
86.2145 4679 68.4032
86.3315 4574 67.6314
86.4484 4885 69.8928
86.5652 4986 70.6116
86.682 4890 69.9285
86.7988 4695 68.5201
86.9156 4761 69
87.0323 4602 67.838
87.149 4565 67.5648
87.2657 4229 65.0308
87.3823 4098 64.0156
87.4988 4112 64.1249
87.6154 4165 64.5368
87.7318 4431 66.5658
87.8483 4728 68.7605
87.9647 4921 70.1498
88.081 5074 71.232
88.1973 5092 71.3583
88.3136 5168 71.8888
88.4298 5139 71.6868
88.546 5188 72.0278
88.6621 5067 71.1829
88.7781 4736 68.8186
88.8942 0 1
89.0101 0 1
89.126 0 1
89.2419 0 1
89.3577 0 1
89.4734 0 1
89.5891 0 1
89.7047 0 1
89.8203 0 1
89.9358 0 1
92.3269 0 1
92.4424 0 1
92.558 0 1
92.6736 0 1
92.7893 0 1
92.905 0 1
93.0208 0 1
93.1366 0 1
93.2525 0 1
93.3685 0 1
93.4845 0 1
93.6005 4924 70.1712
93.7167 5015 70.8167
93.8328 5057 71.1126
93.949 5080 71.2741
94.0653 4969 70.4911
94.1816 4956 70.3989
94.2979 4712 68.644
94.4143 4316 65.6963
94.5307 4115 64.1483
94.6472 3952 62.8649
94.7637 3948 62.8331
94.8803 4204 64.8383
94.9969 4397 66.3099
95.1135 4726 68.7459
95.2302 4866 69.7567
95.3469 4961 70.4344
95.4637 5165 71.8679
95.5805 5270 72.5948
95.6973 5302 72.8148
95.8142 5353 73.1642
95.9311 5226 72.2911
96.048 5241 72.3948
96.1649 5186 72.0139
96.2819 4943 70.3065
96.3989 4748 68.9057
96.516 4431 66.5658
96.633 4187 64.707
96.7501 4257 65.2457
96.8673 4297 65.5515
96.9844 4666 68.3081
97.1016 5066 71.1758
97.2188 5168 71.8888
97.336 5515 74.263
97.4532 5364 73.2393
97.5704 5487 74.0743
97.6877 5299 72.7942
97.805 5278 72.6498
97.9223 5149 71.7565
98.0396 4799 69.2748
98.1569 4386 66.2269
98.2743 4241 65.123
98.3916 4203 64.8305
98.509 4270 65.3452
98.6264 4381 66.1891
98.7438 4761 69
98.8612 4899 69.9929
98.9786 5250 72.4569
99.096 5222 72.2634
99.2134 5450 73.8241
99.3308 5634 75.06
99.4482 5616 74.94
99.5656 5673 75.3193
99.6831 5398 73.4711
99.8005 5289 72.7255
99.9179 5105 71.4493
100.035 4982 70.5833
100.153 4645 68.1542
100.27 4389 66.2495
100.388 4460 66.7832
100.505 4829 69.491
100.622 5194 72.0694
100.74 5397 73.4643
100.857 5524 74.3236
100.975 5590 74.7663
101.092 5514 74.2563
101.209 5621 74.9733
101.327 5800 76.1577
101.444 5592 74.7797
101.561 5346 73.1163
101.679 4998 70.6965
101.796 4844 69.5989
101.913 4415 66.4455
102.03 4321 65.7343
102.148 4727 68.7532
102.265 5380 73.3485
102.382 5064 71.1618
102.499 5295 72.7668
102.616 5524 74.3236
102.733 5895 76.7789
102.851 5883 76.7007
102.968 5876 76.6551
103.085 5964 77.2269
103.202 5810 76.2234
103.319 5824 76.3151
103.436 5489 74.0878
103.552 5310 72.8697
103.669 4977 70.5479
103.786 4601 67.8307
103.903 4695 68.5201
104.02 5000 70.7107
104.137 5567 74.6123
104.253 6064 77.8717
104.37 6012 77.5371
104.487 6107 78.1473
104.603 6306 79.4103
104.72 6139 78.3518
104.836 6119 78.224
104.953 5946 77.1103
105.069 5726 75.6703
105.186 5560 74.5654
105.302 5021 70.859
105.418 4910 70.0714
105.535 5044 71.0211
105.651 5356 73.1847
105.767 5580 74.6994
105.883 5800 76.1577
105.999 6009 77.5177
106.115 0 1
106.231 0 1
106.347 0 1
106.463 0 1
106.579 0 1
106.694 0 1
106.81 0 1
106.926 0 1
107.041 0 1
107.157 0 1
109.576 0 1
109.692 0 1
109.807 0 1
109.923 0 1
110.039 0 1
110.155 0 1
110.27 0 1
110.386 0 1
110.502 0 1
110.618 4709 68.6222
110.735 5082 71.2881
110.851 5483 74.0473
110.967 5695 75.4652
111.083 5734 75.7232
111.199 5617 74.9466
111.316 5958 77.1881
111.432 5947 77.1168
111.549 5980 77.3305
111.665 5894 76.7724
111.782 5620 74.9667
111.898 5510 74.2294
112.015 5220 72.2496
112.132 4776 69.1086
112.248 4383 66.2042
112.365 4285 65.4599
112.482 4461 66.7907
112.599 4971 70.5053
112.716 5359 73.2052
112.832 5483 74.0473
112.949 5625 75
113.066 5598 74.8198
113.183 5416 73.5935
113.3 5476 74
113.417 5444 73.7835
113.534 5294 72.7599
113.652 5088 71.3302
113.769 4739 68.8404
113.886 4613 67.9191
114.003 4225 65
114.12 4373 66.1287
114.238 4380 66.1816
114.355 4705 68.593
114.472 4785 69.1737
114.589 4841 69.5773
114.707 5086 71.3162
114.824 5127 71.6031
114.942 5094 71.3723
115.059 5228 72.3049
115.176 5442 73.7699
115.294 5173 71.9236
115.411 5100 71.4143
115.529 4889 69.9214
115.646 4593 67.7717
115.764 4154 64.4515
115.881 3907 62.506
115.999 4030 63.4823
116.116 4227 65.0154
116.234 4871 69.7925
116.351 5163 71.854
116.469 5167 71.8818
116.586 5323 72.9589
116.704 5423 73.641
116.821 5215 72.215
116.939 5241 72.3948
117.056 5144 71.7217
117.174 5037 70.9718
117.291 4891 69.9357
117.409 4640 68.1175
117.526 4456 66.7533
117.644 4405 66.3702
117.761 4335 65.8407
117.879 4763 69.0145
117.996 4665 68.3008
118.114 4943 70.3065
118.231 5016 70.8237
118.349 5098 71.4003
118.466 5213 72.2011
118.584 5182 71.9861
118.701 5423 73.641
118.819 5239 72.3809
118.936 5178 71.9583
119.053 5188 72.0278
119.171 4876 69.8284
119.288 4600 67.8233
119.405 4118 64.1716
119.523 3860 62.1289
119.64 4039 63.5531
119.757 4181 64.6607
119.875 4866 69.7567
119.992 4909 70.0643
120.109 5296 72.7736
120.226 5274 72.6223
120.343 5235 72.3533
120.46 5281 72.6705
120.578 5169 71.8958
120.695 5223 72.2703
120.812 5102 71.4283
120.929 5193 72.0625
121.046 4916 70.1142
121.163 4560 67.5278
121.279 4452 66.7233
121.396 4499 67.0746
121.513 4404 66.3626
121.63 4591 67.7569
121.747 4726 68.7459
121.863 4823 69.4478
121.98 5067 71.1829
122.097 5011 70.7884
122.213 5228 72.3049
122.33 5195 72.0763
122.446 5194 72.0694
122.563 5139 71.6868
122.679 5104 71.4423
122.795 5034 70.9507
122.912 5003 70.7319
123.028 4477 66.9104
123.144 4038 63.5453
123.26 3926 62.6578
123.377 0 1
123.493 0 1
123.609 0 1
123.725 0 1
123.84 0 1
123.956 0 1
124.072 0 1
124.188 0 1
124.303 0 1
124.419 0 1
126.852 0 1
126.968 0 1
127.083 0 1
127.199 0 1
127.315 0 1
127.431 0 1
127.547 0 1
127.663 0 1
127.779 0 1
127.895 0 1
128.011 0 1
128.127 0 1
128.243 0 1
128.359 4612 67.9117
128.476 4158 64.4826
128.592 4301 65.582
128.708 4743 68.8694
128.825 5285 72.698
128.941 5672 75.3127
129.058 5742 75.776
129.174 5805 76.1906
129.291 5741 75.7694
129.408 5849 76.4788
129.524 5769 75.9539
129.641 5811 76.2299
129.758 5831 76.361
129.875 5516 74.2698
129.992 5391 73.4234
130.108 5180 71.9722
130.225 5045 71.0282
130.342 4967 70.4769
130.459 4657 68.2422
130.576 5327 72.9863
130.693 5221 72.2565
130.81 5395 73.4507
130.928 5375 73.3144
131.045 5394 73.4439
131.162 5538 74.4177
131.279 5541 74.4379
131.396 5666 75.2728
131.513 5673 75.3193
131.631 5425 73.6546
131.748 5206 72.1526
131.865 4686 68.4544
131.983 4229 65.0308
132.1 4178 64.6375
132.217 4446 66.6783
132.335 5082 71.2881
132.452 5345 73.1095
132.57 5392 73.4302
132.687 5456 73.8647
132.804 5687 75.4122
132.922 5643 75.1199
133.039 5633 75.0533
133.157 5519 74.29
133.274 5563 74.5855
133.392 5452 73.8377
133.509 5233 72.3395
133.627 5188 72.0278
133.744 5055 71.0985
133.862 4818 69.4118
133.979 4781 69.1448
134.097 4929 70.2068
134.214 5132 71.638
134.332 5185 72.0069
134.449 5262 72.5396
134.567 5366 73.253
134.684 5309 72.8629
134.802 5435 73.7225
134.919 5407 73.5323
135.037 5429 73.6817
135.154 5299 72.7942
135.272 5312 72.8835
135.389 4789 69.2026
135.507 4457 66.7608
135.624 3963 62.9524
135.742 4169 64.5678
135.859 4594 67.7791
135.977 4866 69.7567
136.094 5267 72.5741
136.211 5433 73.7089
136.329 5579 74.6927
136.446 5383 73.3689
136.564 5667 75.2795
136.681 5375 73.3144
136.798 5495 74.1283
136.915 5516 74.2698
137.033 5420 73.6206
137.15 5405 73.5187
137.267 5158 71.8192
137.384 4931 70.2211
137.502 4922 70.157
137.619 4897 69.9786
137.736 4781 69.1448
137.853 4759 68.9855
137.97 4897 69.9786
138.087 5366 73.253
138.204 5239 72.3809
138.321 5059 71.1266
138.438 5393 73.437
138.555 5349 73.1369
138.672 5552 74.5117
138.788 5312 72.8835
138.905 5229 72.3118
139.022 4978 70.5549
139.139 4330 65.8027
139.255 4085 63.914
139.372 4136 64.3117
139.488 4520 67.2309
139.605 4884 69.8856
139.721 5198 72.0972
139.838 5449 73.8173
139.954 5362 73.2257
140.071 5406 73.5255
140.187 5512 74.2428
140.303 5259 72.519
140.419 5411 73.5595
140.535 5410 73.5527
140.652 5231 72.3257
140.768 0 1
140.884 0 1
141 0 1
141.115 0 1
141.231 0 1
141.347 0 1
141.463 0 1
141.578 0 1
141.694 0 1
144.104 0 1
144.219 0 1
144.335 0 1
144.45 0 1
144.566 0 1
144.682 0 1
144.798 0 1
144.914 0 1
145.03 0 1
145.146 4714 68.6586
145.262 4634 68.0735
145.378 4741 68.8549
145.494 4660 68.2642
145.61 4646 68.1616
145.726 4546 67.424
145.842 4521 67.2384
145.959 4335 65.8407
146.075 4350 65.9545
146.192 4207 64.8614
146.308 4075 63.8357
146.425 4141 64.3506
146.541 3979 63.0793
146.658 4136 64.3117
146.774 4405 66.3702
146.891 4536 67.3498
147.008 4363 66.053
147.125 4432 66.5733
147.241 4433 66.5808
147.358 4228 65.0231
147.475 4126 64.2339
147.592 3991 63.1744
147.709 3586 59.8832
147.826 3430 58.5662
147.943 3374 58.0861
148.06 3539 59.4895
148.177 3947 62.8252
148.294 4245 65.1537
148.411 4301 65.582
148.528 4356 66
148.645 4327 65.7799
148.762 4289 65.4905
148.88 4372 66.1211
148.997 4189 64.7225
149.114 4444 66.6633
149.231 4191 64.7379
149.349 4343 65.9014
149.466 4089 63.9453
149.583 4109 64.1015
149.701 3921 62.6179
149.818 3929 62.6817
149.935 4003 63.2693
150.053 3914 62.562
150.17 3821 61.8142
150.287 3964 62.9603
150.405 3889 62.3618
150.522 4148 64.405
150.64 4173 64.5988
150.757 4135 64.304
150.875 4178 64.6375
150.992 4045 63.6003
151.11 3880 62.2896
151.227 3712 60.9262
151.344 3486 59.0424
151.462 3082 55.5158
151.579 3196 56.5332
151.697 3342 57.81
151.814 3688 60.7289
151.932 3946 62.8172
152.049 4207 64.8614
152.167 4211 64.8922
152.284 4292 65.5134
152.402 4122 64.2028
152.519 4224 64.9923
152.636 4146 64.3894
152.754 4171 64.5833
152.871 4169 64.5678
152.989 4196 64.7765
153.106 4089 63.9453
153.223 4069 63.7887
153.341 4021 63.4114
153.458 3896 62.4179
153.575 3684 60.696
153.693 3822 61.8223
153.81 3897 62.426
153.927 3920 62.6099
154.044 3986 63.1348
154.162 4126 64.2339
154.279 4071 63.8044
154.396 4216 64.9307
154.513 4194 64.7611
154.63 4145 64.3817
154.747 4018 63.3877
154.864 3801 61.6523
154.981 3565 59.7076
155.098 3373 58.0775
155.215 3397 58.2838
155.332 3575 59.7913
155.449 3832 61.9032
155.566 4032 63.498
155.683 4265 65.307
155.8 4213 64.9076
155.917 4278 65.4064
156.033 4212 64.8999
156.15 0 1
156.267 0 1
156.383 0 1
156.5 0 1
156.617 0 1
156.733 0 1
156.85 0 1
156.966 0 1
157.082 0 1
157.199 0 1
157.315 0 1
157.431 0 1
157.547 0 1
157.664 0 1
157.78 0 1
157.896 0 1
158.012 0 1
158.128 0 1
158.244 0 1
158.359 0 1
158.475 0 1
158.591 0 1
158.706 0 1
