
6.15755 0 1
6.2731 0 1
6.3887 0 1
6.50437 0 1
6.62009 0 1
6.73587 0 1
6.8517 0 1
6.96759 0 1
7.08353 0 1
7.19952 0 1
7.31557 0 1
7.43166 0 1
7.54781 0 1
7.664 0 1
7.78024 0 1
7.89653 0 1
8.01286 0 1
8.12924 0 1
8.24567 0 1
8.36213 0 1
8.47864 0 1
8.59519 0 1
8.71178 0 1
8.82841 0 1
8.94508 0 1
9.06179 0 1
9.17853 0 1
9.29531 0 1
9.41212 0 1
9.52897 0 1
9.64584 0 1
9.76276 0 1
9.8797 0 1
9.99667 0 1
10.1137 0 1
10.2307 0 1
10.3478 0 1
10.4648 0 1
10.5819 0 1
10.6991 0 1
10.8162 0 1
10.9334 0 1
11.0506 0 1
11.1678 0 1
11.285 0 1
11.4023 0 1
11.5196 0 1
11.6369 0 1
11.7542 0 1
11.8715 0 1
11.9888 0 1
12.1062 0 1
12.2235 0 1
12.3409 0 1
12.4582 0 1
12.5756 0 1
12.693 0 1
12.8104 0 1
12.9278 0 1
13.0452 0 1
13.1626 0 1
13.28 0 1
13.3974 0 1
13.5149 0 1
13.6323 0 1
13.7497 0 1
13.8671 0 1
13.9845 0 1
14.1019 0 1
14.2193 0 1
14.3367 0 1
14.4541 0 1
14.5714 0 1
14.6888 0 1
14.8062 0 1
14.9235 0 1
15.0408 0 0
15.1581 0 0
15.2755 0 0
15.3927 0 0
15.51 0 0
15.6273 0 0
15.7445 0 0
15.8617 0 0
15.9789 0 0
16.0961 0 0
16.2132 0 0
16.3304 0 0
16.4475 0 0
16.5646 0 0
16.6816 0 0
16.7986 0 0
16.9156 0 0
17.0326 0 0
17.1496 0 0
17.2665 0 0
17.3833 0 0
17.5002 0 0
17.617 0 0
17.7338 0 0
17.8505 0 0
17.9672 0 0
18.0839 0 0
18.2005 0 0
18.3171 0 0
18.4337 0 0
18.5502 0 0
18.6666 0 0
18.7831 0 0
18.8994 0 0
19.0158 0 0
19.1321 0 0
19.2483 0 0
19.3645 0 0
19.4806 0 0
19.5967 0 0
19.7128 0 0
19.8288 0 0
19.9447 0 0
20.0606 0 1
20.1764 0 1
20.2922 0 1
20.4079 0 1
20.5236 0 1
20.6392 0 1
20.7548 0 1
20.8702 0 1
23.3078 0 1
23.4233 0 1
23.539 0 1
23.6547 0 1
23.7704 0 1
23.8862 0 1
24.0021 0 1
24.118 0 1
24.234 0 1
24.35 0 1
24.4661 19207 138.589
24.5822 19340 139.068
24.6984 18837 137.248
24.8146 17959 134.011
24.9309 17465 132.155
25.0472 17704 133.056
25.1636 18104 134.551
25.28 18774 137.018
25.3965 19519 139.71
25.513 20083 141.715
25.6296 21038 145.045
25.7462 21587 146.925
25.8628 21513 146.673
25.9795 21554 146.813
26.0962 21597 146.959
26.213 21511 146.666
26.3298 20702 143.882
26.4466 20456 143.024
26.5635 19413 139.331
26.6804 18706 136.77
26.7973 18629 136.488
26.9143 19192 138.535
27.0313 19645 140.161
27.1483 20298 142.471
27.2653 20616 143.583
27.3824 20910 144.603
27.4996 20989 144.876
27.6167 20581 143.461
27.7339 20117 141.834
27.8511 19641 140.146
27.9683 19422 139.363
28.0855 19077 138.12
28.2028 18957 137.684
28.3201 17764 133.282
28.4374 17282 131.461
28.5547 16732 129.352
28.6721 16975 130.288
28.7894 17701 133.045
28.9068 18091 134.503
29.0242 19072 138.101
29.1416 19584 139.943
29.259 19902 141.074
29.3764 20278 142.401
29.4939 19935 141.191
29.6113 20064 141.647
29.7288 19976 141.336
29.8463 19655 140.196
29.9638 19307 138.95
30.0812 18099 134.533
30.1987 17521 132.367
30.3162 17770 133.304
30.4337 17859 133.638
30.5512 18645 136.547
30.6687 19181 138.495
30.7862 19818 140.776
30.9037 19992 141.393
31.0212 20161 141.989
31.1387 20025 141.51
31.2562 19986 141.372
31.3737 19243 138.719
31.4912 19290 138.888
31.6087 19026 137.935
31.7262 18549 136.195
31.8436 17877 133.705
31.9611 17031 130.503
32.0785 16322 127.758
32.1959 16633 128.969
32.3134 17251 131.343
32.4308 18013 134.213
32.5482 18912 137.521
32.6655 19834 140.833
32.7829 19877 140.986
32.9002 20094 141.753
33.0176 19828 140.812
33.1349 19964 141.294
33.2522 20043 141.573
33.3694 20415 142.881
33.4867 20024 141.506
33.6039 18914 137.528
33.7211 18300 135.277
33.8383 17781 133.345
33.9554 17672 132.936
34.0725 18213 134.956
34.1896 18604 136.396
34.3067 19360 139.14
34.4237 19492 139.614
34.5407 19955 141.262
34.6577 20126 141.866
34.7746 20054 141.612
34.8915 20071 141.672
35.0084 19281 138.856
35.1252 19331 139.036
35.242 18804 137.128
35.3587 18814 137.164
35.4755 17957 134.004
35.5921 17585 132.608
35.7088 16801 129.619
35.8254 15981 126.416
35.9419 16495 128.433
36.0584 17038 130.53
36.1749 17922 133.873
36.2913 18704 136.763
36.4077 19630 140.107
36.524 19573 139.904
36.6403 19982 141.358
36.7565 19962 141.287
36.8727 20104 141.789
36.9889 19908 141.096
37.1049 19378 139.205
37.221 0 1
37.3369 0 1
37.4529 0 1
37.5687 0 1
37.6845 0 1
37.8003 0 1
37.916 0 1
38.0316 0 1
38.1472 0 1
40.5851 0 1
40.7008 0 1
40.8164 0 1
40.9322 0 1
41.048 0 1
41.1639 0 1
41.2798 0 1
41.3958 0 1
41.5118 0 1
41.6279 0 1
41.744 16361 127.91
41.8602 16589 128.798
41.9765 16634 128.973
42.0928 16856 129.831
42.2091 16876 129.908
42.3255 16601 128.845
42.4419 15810 125.738
42.5584 14980 122.393
42.675 14626 120.938
42.7915 14585 120.768
42.9081 15387 124.044
43.0248 15613 124.952
43.1415 16100 126.886
43.2582 16294 127.648
43.375 16503 128.464
43.4918 16476 128.359
43.6087 16405 128.082
43.7256 16205 127.299
43.8425 15677 125.208
43.9595 15580 124.82
44.0765 15256 123.515
44.1935 14618 120.905
44.3106 14055 118.554
44.4277 13347 115.529
44.5448 12241 110.639
44.6619 12125 110.114
44.7791 12355 111.153
44.8963 12953 113.811
45.0136 13687 116.991
45.1308 14202 119.172
45.2481 14472 120.3
45.3654 14577 120.735
45.4827 14505 120.437
45.6001 14435 120.146
45.7174 14421 120.087
45.8348 14182 119.088
45.9522 13693 117.017
46.0697 12706 112.721
46.1871 12110 110.045
46.3046 11705 108.19
46.422 11755 108.42
46.5395 12613 112.308
46.657 12959 113.838
46.7745 13147 114.66
46.892 13118 114.534
47.0096 13063 114.293
47.1271 13094 114.429
47.2446 13069 114.32
47.3622 12860 113.402
47.4797 12505 111.826
47.5973 12174 110.336
47.7149 11740 108.351
47.8324 11262 106.123
47.95 10667 103.281
48.0675 10197 100.98
48.1851 9569 97.8213
48.3027 9607 98.0153
48.4202 9957 99.7848
48.5378 10554 102.733
48.6554 11361 106.588
48.7729 11730 108.305
48.8904 12001 109.549
49.008 11966 109.389
49.1255 12179 110.359
49.243 12168 110.309
49.3605 12095 109.977
49.478 11573 107.578
49.5955 10991 104.838
49.713 10443 102.191
49.8304 10427 102.113
49.9479 10742 103.644
50.0653 11685 108.097
50.1827 12530 111.937
50.3001 12745 112.894
50.4175 13238 115.057
50.5348 13645 116.812
50.6521 14345 119.771
50.7694 14105 118.764
50.8867 14358 119.825
51.004 14430 120.125
51.1212 14304 119.599
51.2384 14633 120.967
51.3556 14432 120.133
51.4727 13812 117.524
51.5899 12867 113.433
51.707 12643 112.441
51.824 12956 113.824
51.9411 13639 116.786
52.0581 14953 122.282
52.175 16318 127.742
52.2919 16606 128.864
52.4088 17167 131.023
52.5257 17869 133.675
52.6425 17856 133.626
52.7593 18008 134.194
52.876 18053 134.361
52.9927 17988 134.119
53.1094 17507 132.314
53.226 16614 128.895
53.3426 16432 128.187
53.4591 16285 127.613
53.5756 16780 129.538
53.692 18080 134.462
53.8084 18771 137.007
53.9248 19423 139.366
54.0411 19495 139.624
54.1573 19826 140.805
54.2735 0 1
54.3896 0 1
54.5057 0 1
54.6217 0 1
54.7377 0 1
54.8537 0 1
54.9695 0 1
55.0853 0 1
55.2011 0 1
55.3168 0 1
55.4324 0 1
57.824 0 1
57.9396 0 1
58.0553 0 1
58.1711 0 1
58.2869 0 1
58.4028 0 1
58.5187 0 1
58.6347 0 1
58.7508 0 1
58.8669 0 1
58.983 24124 155.319
59.0992 24557 156.707
59.2155 25393 159.352
59.3318 25475 159.609
59.4482 25413 159.415
59.5646 25743 160.446
59.681 25443 159.509
59.7975 24850 157.639
59.9141 23986 154.874
60.0306 23125 152.069
60.1473 21515 146.68
60.2639 20256 142.324
60.3807 19224 138.651
60.4974 19381 139.216
60.6142 20087 141.729
60.731 21638 147.099
60.8479 23342 152.781
60.9648 23633 153.73
61.0818 24535 156.637
61.1987 24541 156.656
61.3158 24781 157.42
61.4328 24679 157.096
61.5499 24320 155.949
61.667 23720 154.013
61.7841 22688 150.625
61.9013 22106 148.681
62.0185 21788 147.608
62.1357 22209 149.027
62.253 23385 152.922
62.3702 24227 155.65
62.4875 24176 155.486
62.6049 25151 158.591
62.7222 25312 159.097
62.8396 25625 160.078
62.9569 25671 160.222
63.0743 25297 159.05
63.1918 25477 159.615
63.3092 24401 156.208
63.4267 24012 154.958
63.5441 22704 150.678
63.6616 21086 145.21
63.7791 19317 138.986
63.8966 18547 136.187
64.0142 18573 136.283
64.1317 19578 139.921
64.2492 21178 145.527
64.3668 23015 151.707
64.4843 23911 154.632
64.6019 24519 156.585
64.7195 24511 156.56
64.837 25077 158.357
64.9546 24621 156.911
65.0722 24674 157.08
65.1898 23705 153.964
65.3074 23454 153.147
65.4249 22114 148.708
65.5425 21848 147.811
65.6601 21694 147.289
65.7777 22633 150.443
65.8952 23683 153.893
66.0128 24450 156.365
66.1304 25346 159.204
66.2479 25626 160.081
66.3655 26044 161.382
66.483 26193 161.843
66.6005 26535 162.896
66.718 26562 162.979
66.8355 26188 161.827
66.953 25549 159.841
67.0705 24789 157.445
67.1879 23240 152.447
67.3054 21823 147.726
67.4228 19970 141.315
67.5402 18389 135.606
67.6576 19481 139.574
67.7749 20565 143.405
67.8923 22820 151.063
68.0096 24670 157.067
68.1269 26048 161.394
68.2442 26630 163.187
68.3614 27199 164.921
68.4787 27306 165.245
68.5958 27131 164.715
68.713 27392 165.505
68.8302 26978 164.25
68.9473 25976 161.171
69.0643 25297 159.05
69.1814 24544 156.665
69.2984 24551 156.688
69.4154 25666 160.206
69.5323 27092 164.596
69.6492 28193 167.908
69.7661 29107 170.608
69.8829 29742 172.459
69.9997 30366 174.258
70.1165 30523 174.708
70.2332 31021 176.128
70.3499 30936 175.886
70.4665 30934 175.881
70.5831 29957 173.081
70.6996 29408 171.488
70.8161 27597 166.123
70.9326 25716 160.362
71.049 23371 152.876
71.1653 20855 144.413
71.2817 20524 143.262
71.3979 21228 145.698
71.5141 22998 151.651
71.6303 24972 158.025
71.7464 25016 158.164
71.8624 0 1
71.9784 0 1
72.0944 0 1
72.2102 0 1
72.3261 0 1
72.4418 0 1
72.5575 0 1
72.6732 0 1
75.1054 0 1
75.2209 0 1
75.3365 0 1
75.4521 0 1
75.5678 0 1
75.6835 0 1
75.7993 0 1
75.9151 0 1
76.031 0 1
76.147 28342 168.351
76.263 29194 170.863
76.3791 27160 164.803
76.4952 24199 155.56
76.6113 23602 153.629
76.7276 24957 157.978
76.8438 27216 164.973
76.9601 30655 175.086
77.0765 33365 182.661
77.1929 35145 187.47
77.3093 35976 189.673
77.4258 35688 188.913
77.5423 36017 189.781
77.6589 36226 190.331
77.7755 36007 189.755
77.8921 34952 186.955
78.0088 33489 183
78.1256 31922 178.667
78.2423 31339 177.028
78.3591 31239 176.746
78.4759 32085 179.123
78.5928 34173 184.859
78.7097 35515 188.454
78.8266 37931 194.759
78.9436 35720 188.997
79.0606 37649 194.034
79.1776 37902 194.684
79.2946 38179 195.394
79.4117 37984 194.895
79.5288 38597 196.461
79.6459 36978 192.297
79.7631 36296 190.515
79.8802 33915 184.16
79.9974 31432 177.291
80.1147 27689 166.4
80.2319 26047 161.391
80.3491 26545 162.926
80.4664 29570 171.959
80.5837 33001 181.662
80.701 36501 191.052
80.8183 37994 194.92
80.9357 38636 196.56
81.053 39095 197.725
81.1704 39162 197.894
81.2877 39615 199.035
81.4051 39299 198.24
81.5225 39387 198.462
81.6399 36555 191.194
81.7573 35917 189.518
81.8747 34217 184.978
81.9922 33690 183.548
82.1096 34352 185.343
82.227 35832 189.293
82.3444 37438 193.489
82.4619 39167 197.907
82.5793 39215 198.028
82.6967 41313 203.256
82.8142 40434 201.082
82.9316 40714 201.777
83.049 40663 201.651
83.1664 40080 200.2
83.2838 39568 198.917
83.4012 38344 195.816
83.5186 36049 189.866
83.636 33616 183.347
83.7534 29641 172.166
83.8708 27106 164.639
83.9881 27596 166.12
84.1055 30451 174.502
84.2228 33457 182.913
84.3401 37692 194.144
84.4575 40420 201.047
84.5747 42082 205.139
84.692 42937 207.212
84.8093 43162 207.755
84.9265 43449 208.444
85.0437 43317 208.127
85.1609 42876 207.065
85.2781 41139 202.828
85.3952 39953 199.882
85.5123 38328 195.775
85.6294 38337 195.798
85.7465 40165 200.412
85.8636 42640 206.495
85.9806 44956 212.028
86.0976 47021 216.843
86.2145 48232 219.618
86.3315 48049 219.201
86.4484 51821 227.642
86.5652 50769 225.32
86.682 51772 227.535
86.7988 50500 224.722
86.9156 50373 224.439
87.0323 48475 220.17
87.149 46407 215.423
87.2657 42507 206.172
87.3823 38461 196.115
87.4988 36761 191.732
87.6154 39054 197.621
87.7318 44008 209.781
87.8483 49566 222.634
87.9647 53686 231.702
88.081 56193 237.051
88.1973 57775 240.364
88.3136 58156 241.156
88.4298 59134 243.175
88.546 58378 241.615
88.6621 58359 241.576
88.7781 56226 237.12
88.8942 0 1
89.0101 0 1
89.126 0 1
89.2419 0 1
89.3577 0 1
89.4734 0 1
89.5891 0 1
89.7047 0 1
89.8203 0 1
89.9358 0 1
92.3269 0 1
92.4424 0 1
92.558 0 1
92.6736 0 1
92.7893 0 1
92.905 0 1
93.0208 0 1
93.1366 0 1
93.2525 0 1
93.3685 0 1
93.4845 0 1
93.6005 65882 256.675
93.7167 67029 258.9
93.8328 66942 258.732
93.949 66828 258.511
94.0653 66896 258.643
94.1816 66088 257.076
94.2979 64697 254.356
94.4143 62454 249.908
94.5307 61035 247.053
94.6472 60222 245.402
94.7637 59790 244.52
94.8803 61995 248.988
94.9969 64016 253.014
95.1135 66912 258.674
95.2302 69066 262.804
95.3469 70098 264.76
95.4637 71525 267.442
95.5805 72713 269.653
95.6973 73731 271.535
95.8142 73902 271.849
95.9311 73229 270.609
96.048 71529 267.449
96.1649 69527 263.68
96.2819 65933 256.774
96.3989 61702 248.399
96.516 56623 237.956
96.633 52092 228.237
96.7501 51756 227.499
96.8673 55388 235.347
96.9844 61589 248.171
97.1016 68722 262.149
97.2188 73406 270.935
97.336 77664 278.683
97.4532 78421 280.037
97.5704 78799 280.712
97.6877 78606 280.368
97.805 77702 278.751
97.9223 75990 275.663
98.0396 73288 270.718
98.1569 72112 268.537
98.2743 69661 263.934
98.3916 68807 262.311
98.509 69846 264.284
98.6264 72128 268.567
98.7438 75106 274.055
98.8612 77355 278.128
98.9786 80200 283.196
99.096 81291 285.116
99.2134 82368 286.998
99.3308 82864 287.861
99.4482 83542 289.036
99.5656 83347 288.699
99.6831 82214 286.73
99.8005 79214 281.45
99.9179 75621 274.993
100.035 71781 267.92
100.153 64404 253.779
100.27 60220 245.398
100.388 60727 246.428
100.505 67562 259.927
100.622 75951 275.592
100.74 83107 288.283
100.857 86723 294.488
100.975 87923 296.518
101.092 88113 296.838
101.209 88516 297.516
101.327 88133 296.872
101.444 88032 296.702
101.561 85957 293.184
101.679 83243 288.519
101.796 80504 283.732
101.913 78612 280.378
102.03 78109 279.48
102.148 79710 282.33
102.265 87404 295.642
102.382 82075 286.487
102.499 89011 298.347
102.616 92028 303.361
102.733 93585 305.917
102.851 94536 307.467
102.968 94883 308.031
103.085 94536 307.467
103.202 92780 304.598
103.319 90038 300.063
103.436 86834 294.676
103.552 81664 285.769
103.669 74410 272.782
103.786 68316 261.373
103.903 68507 261.738
104.02 75606 274.965
104.137 84889 291.357
104.253 95830 309.564
104.37 96250 310.242
104.487 99998 316.225
104.603 100927 317.69
104.72 99786 315.889
104.836 101228 318.163
104.953 99021 314.676
105.069 96698 310.963
105.186 93713 306.126
105.302 90974 301.619
105.418 89015 298.354
105.535 89556 299.259
105.651 92175 303.603
105.767 95299 308.705
105.883 97504 312.256
105.999 100690 317.317
106.115 0 1
106.231 0 1
106.347 0 1
106.463 0 1
106.579 0 1
106.694 0 1
106.81 0 1
106.926 0 1
107.041 0 1
107.157 0 1
109.576 0 1
109.692 0 1
109.807 0 1
109.923 0 1
110.039 0 1
110.155 0 1
110.27 0 1
110.386 0 1
110.502 0 1
110.618 82758 287.677
110.735 87109 295.142
110.851 89560 299.266
110.967 92188 303.625
111.083 92951 304.879
111.199 94559 307.504
111.316 95763 309.456
111.432 95645 309.265
111.549 94611 307.589
111.665 93371 305.567
111.782 90144 300.24
111.898 85236 291.952
112.015 79492 281.943
112.132 73035 270.25
112.248 66254 257.399
112.365 64571 254.108
112.482 68409 261.551
112.599 73261 270.668
112.716 82215 286.732
112.832 87025 295
112.949 87268 295.412
113.066 88127 296.862
113.183 87736 296.203
113.3 86305 293.777
113.417 85471 292.354
113.534 83238 288.51
113.652 80695 284.069
113.769 77402 278.212
113.886 74647 273.216
114.003 72576 269.399
114.12 72445 269.156
114.238 73937 271.914
114.355 76316 276.254
114.472 76331 276.281
114.589 77398 278.205
114.707 79158 281.35
114.824 79284 281.574
114.942 80233 283.254
115.059 80467 283.667
115.176 79638 282.202
115.294 78269 279.766
115.411 76107 275.875
115.529 72031 268.386
115.646 67883 260.544
115.764 61993 248.984
115.881 57119 238.996
115.999 58300 241.454
116.116 63120 251.237
116.234 69922 264.428
116.351 76249 276.132
116.469 78689 280.516
116.586 79073 281.199
116.704 79933 282.724
116.821 79146 281.329
116.939 79956 282.765
117.056 79091 281.231
117.174 76161 275.973
117.291 74891 273.662
117.409 72871 269.946
117.526 70644 265.789
117.644 69883 264.354
117.761 70633 265.769
117.879 72585 269.416
117.996 73279 270.701
118.114 74245 272.479
118.231 76349 276.313
118.349 76285 276.197
118.466 77449 278.297
118.584 78217 279.673
118.701 78606 280.368
118.819 77877 279.065
118.936 75167 274.166
119.053 73516 271.138
119.171 70530 265.575
119.288 65838 256.589
119.405 59414 243.75
119.523 55043 234.612
119.64 56657 238.027
119.757 60370 245.703
119.875 66798 258.453
119.992 71934 268.205
120.109 74253 272.494
120.226 75709 275.153
120.343 76250 276.134
120.46 75832 275.376
120.578 75379 274.552
120.695 74805 273.505
120.812 74399 272.762
120.929 71760 267.881
121.046 69868 264.326
121.163 67920 260.615
121.279 67199 259.228
121.396 66053 257.008
121.513 67202 259.233
121.63 69557 263.737
121.747 69186 263.032
121.863 70469 265.46
121.98 71494 267.384
122.097 71747 267.856
122.213 72510 269.277
122.33 72140 268.589
122.446 72318 268.92
122.563 71603 267.587
122.679 69784 264.167
122.795 67812 260.407
122.912 65526 255.98
123.028 61249 247.485
123.144 55997 236.637
123.26 51804 227.605
123.377 0 1
123.493 0 1
123.609 0 1
123.725 0 1
123.84 0 1
123.956 0 1
124.072 0 1
124.188 0 1
124.303 0 1
124.419 0 1
126.852 0 1
126.968 0 1
127.083 0 1
127.199 0 1
127.315 0 1
127.431 0 1
127.547 0 1
127.663 0 1
127.779 0 1
127.895 0 1
128.011 0 1
128.127 0 1
128.243 0 1
128.359 61733 248.461
128.476 56149 236.958
128.592 56181 237.025
128.708 61221 247.429
128.825 67880 260.538
128.941 73806 271.673
129.058 76906 277.319
129.174 77888 279.084
129.291 77689 278.727
129.408 77372 278.158
129.524 77104 277.676
129.641 76525 276.632
129.758 75389 274.571
129.875 72968 270.126
129.992 71251 266.929
130.108 69764 264.129
130.225 68997 262.673
130.342 69209 263.076
130.459 68519 261.761
130.576 72740 269.704
130.693 71173 266.783
130.81 71513 267.419
130.928 71793 267.942
131.045 71943 268.222
131.162 72571 269.39
131.279 73391 270.908
131.396 72808 269.83
131.513 72048 268.418
131.631 69379 263.399
131.748 67236 259.299
131.865 61900 248.797
131.983 55608 235.813
132.1 53379 231.039
132.217 56185 237.034
132.335 61469 247.929
132.452 67379 259.575
132.57 71030 266.515
132.687 69552 263.727
132.804 74539 273.018
132.922 71670 267.713
133.039 71859 268.065
133.157 71218 266.867
133.274 70522 265.56
133.392 69200 263.059
133.509 67063 258.965
133.627 65820 256.554
133.744 64830 254.617
133.862 63194 251.384
133.979 65091 255.129
134.097 65104 255.155
134.214 67362 259.542
134.332 65509 255.947
134.449 66785 258.428
134.567 67170 259.172
134.684 68158 261.071
134.802 68290 261.324
134.919 68509 261.742
135.037 68336 261.412
135.154 66826 258.507
135.272 64787 254.533
135.389 60230 245.418
135.507 55316 235.194
135.624 50881 225.568
135.742 51204 226.283
135.859 55438 235.453
135.977 60744 246.463
136.094 65836 256.585
136.211 67954 260.68
136.329 68735 262.174
136.446 68530 261.782
136.564 69039 262.753
136.681 70012 264.598
136.798 67922 260.618
136.915 68286 261.316
137.033 66084 257.068
137.15 64457 253.884
137.267 63481 251.954
137.384 62705 250.41
137.502 61420 247.831
137.619 61918 248.833
137.736 63333 251.66
137.853 62303 249.606
137.97 61926 248.849
138.087 65865 256.642
138.204 64657 254.277
138.321 64729 254.419
138.438 65802 256.519
138.555 66051 257.004
138.672 65949 256.805
138.788 64539 254.045
138.905 62847 250.693
139.022 60149 245.253
139.139 55499 235.582
139.255 51563 227.075
139.372 50535 224.8
139.488 53685 231.7
139.605 58515 241.899
139.721 63197 251.39
139.838 65993 256.891
139.954 66436 257.752
140.071 66140 257.177
140.187 66833 258.521
140.303 66348 257.581
140.419 65663 256.248
140.535 64913 254.78
140.652 63269 251.533
140.768 0 1
140.884 0 1
141 0 1
141.115 0 1
141.231 0 1
141.347 0 1
141.463 0 1
141.578 0 1
141.694 0 1
144.104 0 1
144.219 0 1
144.335 0 1
144.45 0 1
144.566 0 1
144.682 0 1
144.798 0 1
144.914 0 1
145.03 0 1
145.146 55390 235.351
145.262 56545 237.792
145.378 55923 236.48
145.494 56029 236.704
145.61 54351 233.133
145.726 54015 232.411
145.842 51889 227.792
145.959 50972 225.77
146.075 50376 224.446
146.192 50597 224.938
146.308 51287 226.466
146.425 50955 225.732
146.541 51708 227.394
146.658 51297 226.488
146.774 50952 225.725
146.891 51157 226.179
147.008 51860 227.728
147.125 52358 228.819
147.241 52234 228.548
147.358 51311 226.519
147.475 50511 224.747
147.592 47823 218.685
147.709 44099 209.998
147.826 40566 201.41
147.943 39827 199.567
148.06 41353 203.354
148.177 45420 213.12
148.294 48977 221.307
148.411 51386 226.685
148.528 51840 227.684
148.645 51636 227.236
148.762 51519 226.978
148.88 50993 225.816
148.997 49557 222.614
149.114 52470 229.063
149.231 50257 224.181
149.349 49145 221.687
149.466 46983 216.756
149.583 46503 215.646
149.701 45409 213.094
149.818 46069 214.637
149.935 46188 214.914
150.053 46405 215.418
150.17 46694 216.088
150.287 46717 216.141
150.405 46687 216.072
150.522 47860 218.769
150.64 48153 219.438
150.757 48452 220.118
150.875 48060 219.226
150.992 47998 219.084
151.11 45571 213.474
151.227 44115 210.036
151.344 41149 202.852
151.462 38254 195.586
151.579 37314 193.168
151.697 39162 197.894
151.814 42946 207.234
151.932 46271 215.107
152.049 48521 220.275
152.167 49211 221.836
152.284 49130 221.653
152.402 49218 221.851
152.519 49301 222.038
152.636 49052 221.477
152.754 49029 221.425
152.871 47816 218.669
152.989 46831 216.405
153.106 45856 214.14
153.223 45386 213.04
153.341 44399 210.711
153.458 44816 211.698
153.575 45064 212.283
153.693 45370 213.002
153.81 45910 214.266
153.927 45263 212.751
154.044 46041 214.572
154.162 47780 218.586
154.279 48221 219.593
154.396 48461 220.139
154.513 49006 221.373
154.63 48429 220.066
154.747 46899 216.562
154.864 45334 212.918
154.981 43336 208.173
155.098 40681 201.695
155.215 39399 198.492
155.332 41591 203.939
155.449 44743 211.525
155.566 47511 217.97
155.683 48979 221.312
155.8 49661 222.847
155.917 49320 222.081
156.033 49742 223.029
156.15 0 1
156.267 0 1
156.383 0 1
156.5 0 1
156.617 0 1
156.733 0 1
156.85 0 1
156.966 0 1
157.082 0 1
157.199 0 1
157.315 0 1
157.431 0 1
157.547 0 1
157.664 0 1
157.78 0 1
157.896 0 1
158.012 0 1
158.128 0 1
158.244 0 1
158.359 0 1
158.475 0 1
158.591 0 1
158.706 0 1
