
6.15755 0 1
6.2731 0 1
6.3887 0 1
6.50437 0 1
6.62009 0 1
6.73587 0 1
6.8517 0 1
6.96759 0 1
7.08353 0 1
7.19952 0 1
7.31557 0 1
7.43166 0 1
7.54781 0 1
7.664 0 1
7.78024 0 1
7.89653 0 1
8.01286 0 1
8.12924 0 1
8.24567 0 1
8.36213 0 1
8.47864 0 1
8.59519 0 1
8.71178 0 1
8.82841 0 1
8.94508 0 1
9.06179 0 1
9.17853 0 1
9.29531 0 1
9.41212 0 1
9.52897 0 1
9.64584 0 1
9.76276 0 1
9.8797 0 1
9.99667 0 1
10.1137 0 1
10.2307 0 1
10.3478 0 1
10.4648 0 1
10.5819 0 1
10.6991 0 1
10.8162 0 1
10.9334 0 1
11.0506 0 1
11.1678 0 1
11.285 0 1
11.4023 0 1
11.5196 0 1
11.6369 0 1
11.7542 0 1
11.8715 0 1
11.9888 0 1
12.1062 0 1
12.2235 0 1
12.3409 0 1
12.4582 0 1
12.5756 0 1
12.693 0 1
12.8104 0 1
12.9278 0 1
13.0452 0 1
13.1626 0 1
13.28 0 1
13.3974 0 1
13.5149 0 1
13.6323 0 1
13.7497 0 1
13.8671 0 1
13.9845 0 1
14.1019 0 1
14.2193 0 1
14.3367 0 1
14.4541 0 1
14.5714 0 1
14.6888 0 1
14.8062 0 1
14.9235 0 1
15.0408 0 0
15.1581 0 0
15.2755 0 0
15.3927 0 0
15.51 0 0
15.6273 0 0
15.7445 0 0
15.8617 0 0
15.9789 0 0
16.0961 0 0
16.2132 0 0
16.3304 0 0
16.4475 0 0
16.5646 0 0
16.6816 0 0
16.7986 0 0
16.9156 0 0
17.0326 0 0
17.1496 0 0
17.2665 0 0
17.3833 0 0
17.5002 0 0
17.617 0 0
17.7338 0 0
17.8505 0 0
17.9672 0 0
18.0839 0 0
18.2005 0 0
18.3171 0 0
18.4337 0 0
18.5502 0 0
18.6666 0 0
18.7831 0 0
18.8994 0 0
19.0158 0 0
19.1321 0 0
19.2483 0 0
19.3645 0 0
19.4806 0 0
19.5967 0 0
19.7128 0 0
19.8288 0 0
19.9447 0 0
20.0606 0 1
20.1764 0 1
20.2922 0 1
20.4079 0 1
20.5236 0 1
20.6392 0 1
20.7548 0 1
20.8702 0 1
23.3078 0 1
23.4233 0 1
23.539 0 1
23.6547 0 1
23.7704 0 1
23.8862 0 1
24.0021 0 1
24.118 0 1
24.234 0 1
24.35 0 1
24.4661 2042 45.1885
24.5822 2107 45.9021
24.6984 2098 45.8039
24.8146 2072 45.5192
24.9309 1982 44.5197
25.0472 2096 45.7821
25.1636 2094 45.7602
25.28 2082 45.6289
25.3965 2181 46.7012
25.513 2144 46.3033
25.6296 2234 47.2652
25.7462 2199 46.8935
25.8628 2240 47.3286
25.9795 2151 46.3789
26.0962 2292 47.8748
26.213 2238 47.3075
26.3298 2190 46.7974
26.4466 2081 45.618
26.5635 2041 45.1774
26.6804 1823 42.6966
26.7973 1828 42.7551
26.9143 1843 42.9302
27.0313 1937 44.0114
27.1483 2003 44.7549
27.2653 2111 45.9456
27.3824 2212 47.0319
27.4996 2208 46.9894
27.6167 2181 46.7012
27.7339 2126 46.1086
27.8511 2156 46.4327
27.9683 2116 46
28.0855 2115 45.9891
28.2028 2159 46.465
28.3201 2145 46.3141
28.4374 2095 45.7712
28.5547 2073 45.5302
28.6721 2070 45.4973
28.7894 2121 46.0543
28.9068 2066 45.4533
29.0242 2115 45.9891
29.1416 2045 45.2217
29.259 2117 46.0109
29.3764 2117 46.0109
29.4939 2065 45.4423
29.6113 2077 45.5741
29.7288 2055 45.3321
29.8463 2141 46.2709
29.9638 2014 44.8776
30.0812 1845 42.9535
30.1987 1790 42.3084
30.3162 1777 42.1545
30.4337 1710 41.3521
30.5512 1806 42.4971
30.6687 2010 44.833
30.7862 2069 45.4863
30.9037 2123 46.076
31.0212 2250 47.4342
31.1387 2149 46.3573
31.2562 2059 45.3762
31.3737 2054 45.3211
31.4912 2084 45.6508
31.6087 2155 46.422
31.7262 2098 45.8039
31.8436 2006 44.7884
31.9611 2139 46.2493
32.0785 2057 45.3542
32.1959 2096 45.7821
32.3134 2097 45.793
32.4308 2200 46.9042
32.5482 2180 46.6905
32.6655 2056 45.3431
32.7829 2118 46.0217
32.9002 2210 47.0106
33.0176 2202 46.9255
33.1349 2250 47.4342
33.2522 2162 46.4973
33.3694 2133 46.1844
33.4867 2107 45.9021
33.6039 2160 46.4758
33.7211 2021 44.9555
33.8383 1757 41.9166
33.9554 1711 41.3642
34.0725 1715 41.4126
34.1896 1829 42.7668
34.3067 2035 45.111
34.4237 2050 45.2769
34.5407 2085 45.6618
34.6577 2175 46.6369
34.7746 2186 46.7547
34.8915 2262 47.5605
35.0084 2093 45.7493
35.1252 2211 47.0213
35.242 2208 46.9894
35.3587 2080 45.607
35.4755 2095 45.7712
35.5921 2143 46.2925
35.7088 2093 45.7493
35.8254 2097 45.793
35.9419 2143 46.2925
36.0584 2102 45.8476
36.1749 2191 46.8081
36.2913 2103 45.8585
36.4077 2151 46.3789
36.524 2147 46.3357
36.6403 2131 46.1628
36.7565 2252 47.4552
36.8727 2100 45.8258
36.9889 2177 46.6583
37.1049 2094 45.7602
37.221 0 1
37.3369 0 1
37.4529 0 1
37.5687 0 1
37.6845 0 1
37.8003 0 1
37.916 0 1
38.0316 0 1
38.1472 0 1
40.5851 0 1
40.7008 0 1
40.8164 0 1
40.9322 0 1
41.048 0 1
41.1639 0 1
41.2798 0 1
41.3958 0 1
41.5118 0 1
41.6279 0 1
41.744 1820 42.6615
41.8602 1904 43.6348
41.9765 1926 43.8862
42.0928 1961 44.2832
42.2091 2021 44.9555
42.3255 1962 44.2945
42.4419 1880 43.359
42.5584 1682 41.0122
42.675 1527 39.0768
42.7915 1515 38.923
42.9081 1546 39.3192
43.0248 1718 41.4488
43.1415 1736 41.6653
43.2582 1820 42.6615
43.375 1947 44.1248
43.4918 2008 44.8107
43.6087 1931 43.9431
43.7256 1948 44.1362
43.8425 1927 43.8976
43.9595 1824 42.7083
44.0765 1727 41.5572
44.1935 1756 41.9047
44.3106 1724 41.5211
44.4277 1699 41.2189
44.5448 1712 41.3763
44.6619 1649 40.6079
44.7791 1733 41.6293
44.8963 1749 41.821
45.0136 1752 41.8569
45.1308 1663 40.7799
45.2481 1736 41.6653
45.3654 1725 41.5331
45.4827 1671 40.8779
45.6001 1675 40.9268
45.7174 1719 41.4608
45.8348 1687 41.0731
45.9522 1615 40.1871
46.0697 1537 39.2046
46.1871 1402 37.4433
46.3046 1280 35.7771
46.422 1346 36.6879
46.5395 1308 36.1663
46.657 1488 38.5746
46.7745 1505 38.7943
46.892 1673 40.9023
47.0096 1640 40.4969
47.1271 1655 40.6817
47.2446 1557 39.4588
47.3622 1585 39.8121
47.4797 1531 39.128
47.5973 1535 39.1791
47.7149 1493 38.6394
47.8324 1421 37.6962
47.95 1465 38.2753
48.0675 1358 36.8511
48.1851 1350 36.7423
48.3027 1399 37.4032
48.4202 1408 37.5233
48.5378 1380 37.1484
48.6554 1447 38.0395
48.7729 1402 37.4433
48.8904 1544 39.2938
49.008 1494 38.6523
49.1255 1564 39.5474
49.243 1504 38.7814
49.3605 1451 38.092
49.478 1488 38.5746
49.5955 1361 36.8917
49.713 1300 36.0555
49.8304 1189 34.4819
49.9479 1228 35.0428
50.0653 1401 37.4299
50.1827 1501 38.7427
50.3001 1619 40.2368
50.4175 1705 41.2916
50.5348 1776 42.1426
50.6521 1867 43.2088
50.7694 1981 44.5084
50.8867 1981 44.5084
51.004 1993 44.643
51.1212 1964 44.317
51.2384 1961 44.2832
51.3556 1954 44.2041
51.4727 2113 45.9674
51.5899 1923 43.852
51.707 1949 44.1475
51.824 2024 44.9889
51.9411 2137 46.2277
52.0581 2205 46.9574
52.175 2301 47.9687
52.2919 2232 47.244
52.4088 2316 48.1248
52.5257 2484 49.8397
52.6425 2494 49.94
52.7593 2425 49.2443
52.876 2520 50.1996
52.9927 2480 49.7996
53.1094 2412 49.1121
53.226 2201 46.9148
53.3426 2123 46.076
53.4591 1835 42.8369
53.5756 1922 43.8406
53.692 2147 46.3357
53.8084 2359 48.5695
53.9248 2600 50.9902
54.0411 2570 50.6952
54.1573 2808 52.9906
54.2735 0 1
54.3896 0 1
54.5057 0 1
54.6217 0 1
54.7377 0 1
54.8537 0 1
54.9695 0 1
55.0853 0 1
55.2011 0 1
55.3168 0 1
55.4324 0 1
57.824 0 1
57.9396 0 1
58.0553 0 1
58.1711 0 1
58.2869 0 1
58.4028 0 1
58.5187 0 1
58.6347 0 1
58.7508 0 1
58.8669 0 1
58.983 3234 56.8683
59.0992 3448 58.7197
59.2155 3607 60.0583
59.3318 3757 61.2944
59.4482 3749 61.2291
59.5646 3715 60.9508
59.681 3713 60.9344
59.7975 3659 60.4897
59.9141 3597 59.975
60.0306 3494 59.1101
60.1473 3486 59.0424
60.2639 3500 59.1608
60.3807 3394 58.258
60.4974 3414 58.4294
60.6142 3435 58.6089
60.731 3634 60.2827
60.8479 3754 61.2699
60.9648 3693 60.7701
61.0818 3753 61.2617
61.1987 3779 61.4736
61.3158 3844 62
61.4328 3878 62.2736
61.5499 3646 60.3821
61.667 3642 60.349
61.7841 3370 58.0517
61.9013 3124 55.8928
62.0185 2986 54.6443
62.1357 3027 55.0182
62.253 3148 56.107
62.3702 3573 59.7746
62.4875 3756 61.2862
62.6049 3893 62.3939
62.7222 4107 64.0859
62.8396 4047 63.616
62.9569 4182 64.6684
63.0743 4080 63.8749
63.1918 4011 63.3325
63.3092 3975 63.0476
63.4267 3795 61.6036
63.5441 3711 60.918
63.6616 3662 60.5145
63.7791 3637 60.3075
63.8966 3610 60.0833
64.0142 3626 60.2163
64.1317 3720 60.9918
64.2492 3803 61.6685
64.3668 3927 62.6658
64.4843 4069 63.7887
64.6019 4085 63.914
64.7195 4102 64.0469
64.837 4183 64.6761
64.9546 4076 63.8436
65.0722 4073 63.8201
65.1898 3923 62.6339
65.3074 3708 60.8933
65.4249 3319 57.6108
65.5425 3227 56.8067
65.6601 3121 55.8659
65.7777 3099 55.6687
65.8952 3522 59.3464
66.0128 3923 62.6339
66.1304 4139 64.3351
66.2479 4288 65.4828
66.3655 4245 65.1537
66.483 4428 66.5432
66.6005 4496 67.0522
66.718 4372 66.1211
66.8355 4408 66.3928
66.953 4428 66.5432
67.0705 4376 66.1513
67.1879 4065 63.7574
67.3054 3974 63.0397
67.4228 3875 62.2495
67.5402 3865 62.1691
67.6576 3986 63.1348
67.7749 3964 62.9603
67.8923 4236 65.0846
68.0096 4400 66.3325
68.1269 4547 67.4314
68.2442 4655 68.2276
68.3614 4572 67.6166
68.4787 4860 69.7137
68.5958 4660 68.2642
68.713 4705 68.593
68.8302 4571 67.6092
68.9473 4342 65.8939
69.0643 3976 63.0555
69.1814 3729 61.0655
69.2984 3510 59.2453
69.4154 3730 61.0737
69.5323 4068 63.7809
69.6492 4472 66.873
69.7661 4888 69.9142
69.8829 4878 69.8427
69.9997 5065 71.1688
70.1165 5155 71.7983
70.2332 5205 72.1457
70.3499 5174 71.9305
70.4665 5147 71.7426
70.5831 5071 71.211
70.6996 4863 69.7352
70.8161 4876 69.8284
70.9326 4653 68.2129
71.049 4397 66.3099
71.1653 4250 65.192
71.2817 4372 66.1211
71.3979 4315 65.6887
71.5141 4361 66.0379
71.6303 4455 66.7458
71.7464 4400 66.3325
71.8624 0 1
71.9784 0 1
72.0944 0 1
72.2102 0 1
72.3261 0 1
72.4418 0 1
72.5575 0 1
72.6732 0 1
75.1054 0 1
75.2209 0 1
75.3365 0 1
75.4521 0 1
75.5678 0 1
75.6835 0 1
75.7993 0 1
75.9151 0 1
76.031 0 1
76.147 4546 67.424
76.263 4672 68.352
76.3791 4504 67.1118
76.4952 4568 67.587
76.6113 4461 66.7907
76.7276 4786 69.1809
76.8438 4858 69.6994
76.9601 5129 71.617
77.0765 5215 72.215
77.1929 5510 74.2294
77.3093 5495 74.1283
77.4258 5604 74.8599
77.5423 5467 73.9392
77.6589 5429 73.6817
77.7755 5507 74.2092
77.8921 5199 72.1041
78.0088 4751 68.9275
78.1256 4204 64.8383
78.2423 3904 62.482
78.3591 3904 62.482
78.4759 3973 63.0317
78.5928 4307 65.6277
78.7097 5005 70.746
78.8266 5436 73.7292
78.9436 5314 72.8972
79.0606 5574 74.6592
79.1776 5344 73.1027
79.2946 5616 74.94
79.4117 5576 74.6726
79.5288 5515 74.263
79.6459 5422 73.6342
79.7631 5251 72.4638
79.8802 5003 70.7319
79.9974 4649 68.1836
80.1147 4549 67.4463
80.2319 4504 67.1118
80.3491 4358 66.0151
80.4664 4742 68.8622
80.5837 4970 70.4982
80.701 5087 71.3232
80.8183 5334 73.0342
80.9357 5274 72.6223
81.053 5371 73.2871
81.1704 5368 73.2666
81.2877 5374 73.3076
81.4051 5348 73.13
81.5225 5323 72.9589
81.6399 4883 69.8785
81.7573 4391 66.2646
81.8747 4030 63.4823
81.9922 3820 61.8061
82.1096 3870 62.2093
82.227 4204 64.8383
82.3444 4690 68.4836
82.4619 4875 69.8212
82.5793 5041 71
82.6967 5335 73.0411
82.8142 5328 72.9932
82.9316 5288 72.7186
83.049 5346 73.1163
83.1664 5012 70.7955
83.2838 5093 71.3653
83.4012 4906 70.0428
83.5186 4677 68.3886
83.636 4589 67.7422
83.7534 4261 65.2763
83.8708 4050 63.6396
83.9881 4131 64.2729
84.1055 4227 65.0154
84.2228 4453 66.7308
84.3401 4725 68.7386
84.4575 4974 70.5266
84.5747 5076 71.2461
84.692 5080 71.2741
84.8093 5051 71.0704
84.9265 5231 72.3257
85.0437 5113 71.5052
85.1609 4915 70.1071
85.2781 4499 67.0746
85.3952 4179 64.6452
85.5123 3934 62.7216
85.6294 3923 62.6339
85.7465 4097 64.0078
85.8636 4523 67.2533
85.9806 4931 70.2211
86.0976 5174 71.9305
86.2145 5367 73.2598
86.3315 5386 73.3894
86.4484 5886 76.7203
86.5652 5740 75.7628
86.682 5676 75.3392
86.7988 5571 74.6391
86.9156 5535 74.3976
87.0323 5405 73.5187
87.149 5343 73.0958
87.2657 5149 71.7565
87.3823 4740 68.8477
87.4988 4665 68.3008
87.6154 4661 68.2715
87.7318 5135 71.6589
87.8483 5383 73.3689
87.9647 5754 75.8551
88.081 5773 75.9803
88.1973 6031 77.6595
88.3136 6048 77.7689
88.4298 6050 77.7817
88.546 5935 77.039
88.6621 5784 76.0526
88.7781 5445 73.7902
88.8942 0 1
89.0101 0 1
89.126 0 1
89.2419 0 1
89.3577 0 1
89.4734 0 1
89.5891 0 1
89.7047 0 1
89.8203 0 1
89.9358 0 1
92.3269 0 1
92.4424 0 1
92.558 0 1
92.6736 0 1
92.7893 0 1
92.905 0 1
93.0208 0 1
93.1366 0 1
93.2525 0 1
93.3685 0 1
93.4845 0 1
93.6005 5828 76.3413
93.7167 5817 76.2693
93.8328 5862 76.5637
93.949 5947 77.1168
94.0653 5761 75.9013
94.1816 5741 75.7694
94.2979 5344 73.1027
94.4143 5050 71.0634
94.5307 4832 69.5126
94.6472 4671 68.3447
94.7637 4604 67.8528
94.8803 4833 69.5198
94.9969 5187 72.0208
95.1135 5592 74.7797
95.2302 5642 75.1132
95.3469 5900 76.8115
95.4637 6014 77.55
95.5805 6257 79.1012
95.6973 6420 80.1249
95.8142 6249 79.0506
95.9311 6230 78.9303
96.048 6062 77.8588
96.1649 5993 77.4145
96.2819 5795 76.1249
96.3989 5660 75.233
96.516 5204 72.1388
96.633 4896 69.9714
96.7501 4944 70.3136
96.8673 4965 70.4628
96.9844 5161 71.8401
97.1016 5699 75.4917
97.2188 6040 77.7174
97.336 6290 79.3095
97.4532 6276 79.2212
97.5704 6279 79.2401
97.6877 6217 78.848
97.805 6000 77.4597
97.9223 6047 77.7625
98.0396 5676 75.3392
98.1569 5316 72.9109
98.2743 4864 69.7424
98.3916 4915 70.1071
98.509 4894 69.9571
98.6264 5409 73.5459
98.7438 5443 73.7767
98.8612 5742 75.776
98.9786 6018 77.5758
99.096 6262 79.1328
99.2134 6497 80.604
99.3308 6505 80.6536
99.4482 6549 80.9259
99.5656 6439 80.2434
99.6831 6390 79.9375
99.8005 6296 79.3473
99.9179 6062 77.8588
100.035 5788 76.0789
100.153 5437 73.736
100.27 5212 72.1942
100.388 5025 70.8872
100.505 5470 73.9594
100.622 5839 76.4133
100.74 6303 79.3914
100.857 6322 79.511
100.975 6470 80.4363
101.092 6534 80.8332
101.209 6852 82.7768
101.327 6622 81.3757
101.444 6402 80.0125
101.561 6281 79.2528
101.679 5800 76.1577
101.796 5482 74.0405
101.913 5219 72.2426
102.03 5278 72.6498
102.148 5446 73.797
102.265 6220 78.867
102.382 5830 76.3544
102.499 6249 79.0506
102.616 6476 80.4736
102.733 6773 82.2982
102.851 6883 82.9638
102.968 7079 84.1368
103.085 6911 83.1324
103.202 6924 83.2106
103.319 6682 81.7435
103.436 6448 80.2994
103.552 6305 79.404
103.669 5814 76.2496
103.786 5312 72.8835
103.903 5312 72.8835
104.02 5664 75.2596
104.137 6279 79.2401
104.253 7046 83.9405
104.37 6671 81.6762
104.487 7181 84.7408
104.603 7168 84.664
104.72 7248 85.1352
104.836 7016 83.7616
104.953 7033 83.863
105.069 6767 82.2618
105.186 6400 80
105.302 5924 76.9675
105.418 5697 75.4785
105.535 5878 76.6681
105.651 6211 78.8099
105.767 6562 81.0062
105.883 6784 82.365
105.999 7089 84.1962
106.115 0 1
106.231 0 1
106.347 0 1
106.463 0 1
106.579 0 1
106.694 0 1
106.81 0 1
106.926 0 1
107.041 0 1
107.157 0 1
109.576 0 1
109.692 0 1
109.807 0 1
109.923 0 1
110.039 0 1
110.155 0 1
110.27 0 1
110.386 0 1
110.502 0 1
110.618 5567 74.6123
110.735 5932 77.0195
110.851 6374 79.8373
110.967 6518 80.7341
111.083 6573 81.074
111.199 6716 81.9512
111.316 6803 82.4803
111.432 6891 83.012
111.549 6914 83.1505
111.665 6879 82.9397
111.782 6639 81.4801
111.898 6355 79.7183
112.015 6028 77.6402
112.132 5622 74.98
112.248 5133 71.645
112.365 4950 70.3562
112.482 5254 72.4845
112.599 5692 75.4453
112.716 6112 78.1793
112.832 6601 81.2465
112.949 6497 80.604
113.066 6375 79.8436
113.183 6378 79.8624
113.3 6249 79.0506
113.417 6251 79.0633
113.534 6165 78.5175
113.652 5869 76.6094
113.769 5439 73.7496
113.886 5168 71.8888
114.003 5071 71.211
114.12 5028 70.9084
114.238 5275 72.6292
114.355 5599 74.8265
114.472 5724 75.6571
114.589 5748 75.8156
114.707 5894 76.7724
114.824 5967 77.2464
114.942 6162 78.4984
115.059 6194 78.702
115.176 6129 78.2879
115.294 6105 78.1345
115.411 5907 76.857
115.529 5632 75.0467
115.646 5311 72.8766
115.764 4918 70.1285
115.881 4655 68.2276
115.999 4647 68.1689
116.116 5053 71.0845
116.234 5565 74.5989
116.351 5789 76.0855
116.469 6046 77.756
116.586 6048 77.7689
116.704 6149 78.4156
116.821 6102 78.1153
116.939 6050 77.7817
117.056 6172 78.5621
117.174 5947 77.1168
117.291 5624 74.9933
117.409 5540 74.4312
117.526 5190 72.0417
117.644 5153 71.7844
117.761 5196 72.0833
117.879 5423 73.641
117.996 5527 74.3438
118.114 5871 76.6225
118.231 6052 77.7946
118.349 5887 76.7268
118.466 6381 79.8812
118.584 6176 78.5875
118.701 6413 80.0812
118.819 6226 78.905
118.936 6221 78.8733
119.053 6031 77.6595
119.171 5763 75.9144
119.288 5381 73.3553
119.405 5076 71.2461
119.523 4663 68.2862
119.64 4604 67.8528
119.757 5059 71.1266
119.875 5451 73.8309
119.992 5869 76.6094
120.109 5993 77.4145
120.226 6038 77.7046
120.343 6077 77.9551
120.46 6216 78.8416
120.578 6093 78.0577
120.695 5948 77.1233
120.812 5810 76.2234
120.929 5785 76.0592
121.046 5722 75.6439
121.163 5612 74.9133
121.279 5333 73.0274
121.396 5044 71.0211
121.513 5106 71.4563
121.63 5436 73.7292
121.747 5753 75.8485
121.863 5937 77.0519
121.98 5837 76.4003
122.097 5867 76.5963
122.213 5882 76.6942
122.33 6078 77.9615
122.446 6077 77.9551
122.563 6087 78.0192
122.679 6057 77.8267
122.795 5826 76.3282
122.912 5699 75.4917
123.028 5206 72.1526
123.144 4693 68.5055
123.26 4537 67.3573
123.377 0 1
123.493 0 1
123.609 0 1
123.725 0 1
123.84 0 1
123.956 0 1
124.072 0 1
124.188 0 1
124.303 0 1
124.419 0 1
126.852 0 1
126.968 0 1
127.083 0 1
127.199 0 1
127.315 0 1
127.431 0 1
127.547 0 1
127.663 0 1
127.779 0 1
127.895 0 1
128.011 0 1
128.127 0 1
128.243 0 1
128.359 5341 73.0821
128.476 4873 69.8069
128.592 5020 70.852
128.708 5500 74.162
128.825 6092 78.0513
128.941 6503 80.6412
129.058 6699 81.8474
129.174 6741 82.1036
129.291 6768 82.2679
129.408 6805 82.4924
129.524 6746 82.134
129.641 6660 81.6088
129.758 6733 82.0549
129.875 6408 80.05
129.992 6356 79.7245
130.108 6088 78.0256
130.225 5842 76.433
130.342 5894 76.7724
130.459 5740 75.7628
130.576 6144 78.3837
130.693 6123 78.2496
130.81 6506 80.6598
130.928 6455 80.343
131.045 6432 80.1998
131.162 6658 81.5966
131.279 6619 81.3572
131.396 6724 82
131.513 6674 81.6946
131.631 6463 80.3928
131.748 6060 77.846
131.865 5449 73.8173
131.983 5110 71.4843
132.1 4878 69.8427
132.217 5197 72.0902
132.335 5742 75.776
132.452 6193 78.6956
132.57 6446 80.287
132.687 6229 78.924
132.804 6766 82.2557
132.922 6596 81.2158
133.039 6426 80.1623
133.157 6460 80.3741
133.274 6557 80.9753
133.392 6556 80.9691
133.509 6133 78.3135
133.627 6057 77.8267
133.744 5951 77.1427
133.862 5781 76.0329
133.979 5701 75.505
134.097 5721 75.6373
134.214 6004 77.4855
134.332 5950 77.1362
134.449 6297 79.3536
134.567 6270 79.1833
134.684 6376 79.8499
134.802 6444 80.2745
134.919 6571 81.0617
135.037 6464 80.399
135.154 6406 80.0375
135.272 6204 78.7655
135.389 5917 76.922
135.507 5096 71.3863
135.624 4920 70.1427
135.742 4900 70
135.859 5325 72.9726
135.977 5829 76.3479
136.094 6284 79.2717
136.211 6441 80.2558
136.329 6577 81.0987
136.446 6480 80.4984
136.564 6429 80.181
136.681 6541 80.8764
136.798 6444 80.2745
136.915 6506 80.6598
137.033 6411 80.0687
137.15 6253 79.0759
137.267 5945 77.1038
137.384 5993 77.4145
137.502 5776 76
137.619 5823 76.3086
137.736 5756 75.8683
137.853 5704 75.5248
137.97 5814 76.2496
138.087 6318 79.4858
138.204 6051 77.7882
138.321 6173 78.5684
138.438 6381 79.8812
138.555 6354 79.712
138.672 6445 80.2808
138.788 6202 78.7528
138.905 6244 79.019
139.022 5723 75.6505
139.139 5409 73.5459
139.255 4845 69.606
139.372 4845 69.606
139.488 5324 72.9657
139.605 5730 75.6968
139.721 6169 78.543
139.838 6197 78.721
139.954 6457 80.3555
140.071 6257 79.1012
140.187 6458 80.3617
140.303 6431 80.1935
140.419 6443 80.2683
140.535 6114 78.1921
140.652 6293 79.3284
140.768 0 1
140.884 0 1
141 0 1
141.115 0 1
141.231 0 1
141.347 0 1
141.463 0 1
141.578 0 1
141.694 0 1
144.104 0 1
144.219 0 1
144.335 0 1
144.45 0 1
144.566 0 1
144.682 0 1
144.798 0 1
144.914 0 1
145.03 0 1
145.146 5677 75.3459
145.262 5576 74.6726
145.378 5385 73.3826
145.494 5556 74.5386
145.61 5628 75.02
145.726 5526 74.3371
145.842 5348 73.13
145.959 5295 72.7668
146.075 5171 71.9097
146.192 5182 71.9861
146.308 4977 70.5479
146.425 5038 70.9789
146.541 5048 71.0493
146.658 5205 72.1457
146.774 5411 73.5595
146.891 5501 74.1687
147.008 5549 74.4916
147.125 5545 74.4648
147.241 5368 73.2666
147.358 5382 73.3621
147.475 5312 72.8835
147.592 4970 70.4982
147.709 4553 67.4759
147.826 4043 63.5846
147.943 4092 63.9687
148.06 4424 66.5132
148.177 4791 69.217
148.294 5066 71.1758
148.411 5303 72.8217
148.528 5393 73.437
148.645 5344 73.1027
148.762 5328 72.9932
148.88 5328 72.9932
148.997 5003 70.7319
149.114 5547 74.4782
149.231 5260 72.5259
149.349 5199 72.1041
149.466 5023 70.8731
149.583 4930 70.214
149.701 4912 70.0857
149.818 4941 70.2922
149.935 4793 69.2315
150.053 4760 68.9928
150.17 4694 68.5128
150.287 4859 69.7065
150.405 5024 70.8802
150.522 5071 71.211
150.64 5167 71.8818
150.757 5167 71.8818
150.875 5098 71.4003
150.992 5052 71.0774
151.11 4761 69
151.227 4647 68.1689
151.344 4285 65.4599
151.462 3954 62.8808
151.579 3862 62.145
151.697 4240 65.1153
151.814 4612 67.9117
151.932 4949 70.3491
152.049 5189 72.0347
152.167 5264 72.5534
152.284 5150 71.7635
152.402 5103 71.4353
152.519 5207 72.1595
152.636 5084 71.3022
152.754 5073 71.225
152.871 5095 71.3793
152.989 5049 71.0563
153.106 5033 70.9436
153.223 4938 70.2709
153.341 4841 69.5773
153.458 4669 68.3301
153.575 4754 68.9493
153.693 4778 69.1231
153.81 4842 69.5845
153.927 4899 69.9929
154.044 4922 70.157
154.162 5011 70.7884
154.279 5313 72.8903
154.396 5114 71.5122
154.513 5154 71.7914
154.63 4971 70.5053
154.747 4973 70.5195
154.864 4694 68.5128
154.981 4547 67.4314
155.098 4224 64.9923
155.215 4218 64.9461
155.332 4389 66.2495
155.449 4759 68.9855
155.566 4987 70.6187
155.683 5209 72.1734
155.8 5213 72.2011
155.917 5148 71.7496
156.033 5255 72.4914
156.15 0 1
156.267 0 1
156.383 0 1
156.5 0 1
156.617 0 1
156.733 0 1
156.85 0 1
156.966 0 1
157.082 0 1
157.199 0 1
157.315 0 1
157.431 0 1
157.547 0 1
157.664 0 1
157.78 0 1
157.896 0 1
158.012 0 1
158.128 0 1
158.244 0 1
158.359 0 1
158.475 0 1
158.591 0 1
158.706 0 1
