
6.15755 0 1
6.2731 0 1
6.3887 0 1
6.50437 0 1
6.62009 0 1
6.73587 0 1
6.8517 0 1
6.96759 0 1
7.08353 0 1
7.19952 0 1
7.31557 0 1
7.43166 0 1
7.54781 0 1
7.664 0 1
7.78024 0 1
7.89653 0 1
8.01286 0 1
8.12924 0 1
8.24567 0 1
8.36213 0 1
8.47864 0 1
8.59519 0 1
8.71178 0 1
8.82841 0 1
8.94508 0 1
9.06179 0 1
9.17853 0 1
9.29531 0 1
9.41212 0 1
9.52897 0 1
9.64584 0 1
9.76276 0 1
9.8797 0 1
9.99667 0 1
10.1137 0 1
10.2307 0 1
10.3478 0 1
10.4648 0 1
10.5819 0 1
10.6991 0 1
10.8162 0 1
10.9334 0 1
11.0506 0 1
11.1678 0 1
11.285 0 1
11.4023 0 1
11.5196 0 1
11.6369 0 1
11.7542 0 1
11.8715 0 1
11.9888 0 1
12.1062 0 1
12.2235 0 1
12.3409 0 1
12.4582 0 1
12.5756 0 1
12.693 0 1
12.8104 0 1
12.9278 0 1
13.0452 0 1
13.1626 0 1
13.28 0 1
13.3974 0 1
13.5149 0 1
13.6323 0 1
13.7497 0 1
13.8671 0 1
13.9845 0 1
14.1019 0 1
14.2193 0 1
14.3367 0 1
14.4541 0 1
14.5714 0 1
14.6888 0 1
14.8062 0 1
14.9235 0 1
15.0408 10887 104.341
15.1581 11562 107.527
15.2755 12402 111.364
15.3927 12711 112.743
15.51 12731 112.832
15.6273 12318 110.986
15.7445 11922 109.188
15.8617 11308 106.339
15.9789 10628 103.092
16.0961 10589 102.903
16.2132 10298 101.479
16.3304 10193 100.96
16.4475 9685 98.4124
16.5646 9373 96.8143
16.6816 9150 95.6556
16.7986 9117 95.483
16.9156 9117 95.483
17.0326 8936 94.5304
17.1496 9122 95.5092
17.2665 9037 95.0631
17.3833 9072 95.247
17.5002 9062 95.1945
17.617 9234 96.0937
17.7338 9361 96.7523
17.8505 9644 98.2039
17.9672 10104 100.519
18.0839 10575 102.835
18.2005 10852 104.173
18.3171 11154 105.612
18.4337 11559 107.513
18.5502 11421 106.869
18.6666 11173 105.702
18.7831 11018 104.967
18.8994 10487 102.406
19.0158 9734 98.661
19.1321 9372 96.8091
19.2483 9141 95.6086
19.3645 8659 93.0537
19.4806 8546 92.4446
19.5967 8417 91.7442
19.7128 8375 91.515
19.8288 8502 92.2063
19.9447 7801 88.3233
20.0606 0 1
20.1764 0 1
20.2922 0 1
20.4079 0 1
20.5236 0 1
20.6392 0 1
20.7548 0 1
20.8702 0 1
23.3078 0 1
23.4233 0 1
23.539 0 1
23.6547 0 1
23.7704 0 1
23.8862 0 1
24.0021 0 1
24.118 0 1
24.234 0 1
24.35 0 1
24.4661 8006 89.4763
24.5822 8211 90.6146
24.6984 8192 90.5097
24.8146 8391 91.6024
24.9309 8741 93.4933
25.0472 8755 93.5682
25.1636 9136 95.5824
25.28 9259 96.2237
25.3965 9434 97.1288
25.513 9158 95.6974
25.6296 9127 95.5353
25.7462 8952 94.615
25.8628 8848 94.0638
25.9795 8584 92.6499
26.0962 8596 92.7146
26.213 8708 93.3167
26.3298 8750 93.5414
26.4466 8803 93.8243
26.5635 8859 94.1223
26.6804 8949 94.5992
26.7973 9073 95.2523
26.9143 8982 94.7734
27.0313 9067 95.2208
27.1483 9133 95.5667
27.2653 9114 95.4673
27.3824 9190 95.8645
27.4996 8987 94.7998
27.6167 8901 94.3451
27.7339 8658 93.0484
27.8511 8502 92.2063
27.9683 8420 91.7606
28.0855 8210 90.6091
28.2028 8303 91.1208
28.3201 8131 90.1721
28.4374 8186 90.4765
28.5547 8265 90.912
28.6721 8315 91.1866
28.7894 8199 90.5483
28.9068 8251 90.835
29.0242 8121 90.1166
29.1416 7913 88.955
29.259 7711 87.8123
29.3764 7740 87.9773
29.4939 7687 87.6755
29.6113 7857 88.6397
29.7288 8232 90.7304
29.8463 8274 90.9615
29.9638 8416 91.7388
30.0812 8412 91.717
30.1987 8547 92.45
30.3162 8223 90.6808
30.4337 8373 91.5041
30.5512 8408 91.6951
30.6687 8273 90.956
30.7862 8605 92.7631
30.9037 8353 91.3947
31.0212 8495 92.1683
31.1387 8560 92.5203
31.2562 8276 90.9725
31.3737 8090 89.9444
31.4912 7979 89.3252
31.6087 7857 88.6397
31.7262 7977 89.3141
31.8436 8051 89.7274
31.9611 8173 90.4046
32.0785 7937 89.0898
32.1959 7879 88.7637
32.3134 8002 89.4539
32.4308 7765 88.1192
32.5482 7704 87.7724
32.6655 7591 87.1263
32.7829 7525 86.7468
32.9002 7490 86.5448
33.0176 7401 86.0291
33.1349 7679 87.6299
33.2522 7638 87.3957
33.3694 7696 87.7268
33.4867 7948 89.1516
33.6039 8186 90.4765
33.7211 8218 90.6532
33.8383 8253 90.846
33.9554 8219 90.6587
34.0725 8341 91.3291
34.1896 8251 90.835
34.3067 8254 90.8515
34.4237 8119 90.1055
34.5407 8195 90.5262
34.6577 8306 91.1373
34.7746 8154 90.2995
34.8915 8054 89.7441
35.0084 7965 89.2468
35.1252 7834 88.5099
35.242 7661 87.5271
35.3587 7624 87.3155
35.4755 7721 87.8692
35.5921 7793 88.278
35.7088 7734 87.9432
35.8254 7814 88.3968
35.9419 7511 86.666
36.0584 7594 87.1436
36.1749 7491 86.5506
36.2913 7280 85.3229
36.4077 7254 85.1704
36.524 7184 84.7585
36.6403 7349 85.7263
36.7565 7503 86.6199
36.8727 7478 86.4754
36.9889 7526 86.7525
37.1049 7543 86.8504
37.221 0 1
37.3369 0 1
37.4529 0 1
37.5687 0 1
37.6845 0 1
37.8003 0 1
37.916 0 1
38.0316 0 1
38.1472 0 1
40.5851 0 1
40.7008 0 1
40.8164 0 1
40.9322 0 1
41.048 0 1
41.1639 0 1
41.2798 0 1
41.3958 0 1
41.5118 0 1
41.6279 0 1
41.744 5111 71.4913
41.8602 5588 74.7529
41.9765 5881 76.6877
42.0928 5930 77.0065
42.2091 5983 77.3499
42.3255 5991 77.4016
42.4419 6043 77.7367
42.5584 6331 79.5676
42.675 6215 78.8353
42.7915 6195 78.7083
42.9081 6135 78.3262
43.0248 6250 79.0569
43.1415 6121 78.2368
43.2582 6034 77.6788
43.375 6059 77.8396
43.4918 5976 77.3046
43.6087 5959 77.1946
43.7256 5884 76.7072
43.8425 5721 75.6373
43.9595 5506 74.2024
44.0765 5246 72.4293
44.1935 5207 72.1595
44.3106 5149 71.7565
44.4277 5142 71.7077
44.5448 5060 71.1337
44.6619 4996 70.6824
44.7791 4800 69.282
44.8963 4799 69.2748
45.0136 4710 68.6294
45.1308 4590 67.7495
45.2481 4603 67.8454
45.3654 4508 67.1416
45.4827 4522 67.2458
45.6001 4486 66.9776
45.7174 4477 66.9104
45.8348 4566 67.5722
45.9522 4423 66.5056
46.0697 4601 67.8307
46.1871 4600 67.8233
46.3046 4616 67.9412
46.422 4662 68.2788
46.5395 4570 67.6018
46.657 4385 66.2193
46.7745 4474 66.888
46.892 4472 66.873
47.0096 4336 65.8483
47.1271 4393 66.2797
47.2446 4273 65.3682
47.3622 4105 64.0703
47.4797 4102 64.0469
47.5973 4073 63.8201
47.7149 3723 61.0164
47.8324 3706 60.8769
47.95 3673 60.6053
48.0675 3738 61.1392
48.1851 3848 62.0322
48.3027 3783 61.5061
48.4202 3723 61.0164
48.5378 3609 60.075
48.6554 3517 59.3043
48.7729 3534 59.4475
48.8904 3581 59.8415
49.008 3767 61.3759
49.1255 3682 60.6795
49.243 3745 61.1964
49.3605 3763 61.3433
49.478 3835 61.9274
49.5955 3917 62.5859
49.713 3962 62.9444
49.8304 4108 64.0937
49.9479 4097 64.0078
50.0653 4145 64.3817
50.1827 4258 65.2534
50.3001 4161 64.5058
50.4175 4193 64.7534
50.5348 4018 63.3877
50.6521 4082 63.8905
50.7694 4101 64.0391
50.8867 4092 63.9687
51.004 4145 64.3817
51.1212 4149 64.4127
51.2384 4099 64.0234
51.3556 4201 64.8151
51.4727 4369 66.0984
51.5899 4516 67.2012
51.707 4581 67.6831
51.824 4646 68.1616
51.9411 4695 68.5201
52.0581 4696 68.5274
52.175 4815 69.3902
52.2919 4943 70.3065
52.4088 4945 70.3207
52.5257 4986 70.6116
52.6425 5169 71.8958
52.7593 5259 72.519
52.876 5343 73.0958
52.9927 5656 75.2064
53.1094 5650 75.1665
53.226 5782 76.0395
53.3426 5931 77.013
53.4591 5826 76.3282
53.5756 6056 77.8203
53.692 5963 77.2205
53.8084 6115 78.1985
53.9248 6229 78.924
54.0411 6085 78.0064
54.1573 5937 77.0519
54.2735 0 1
54.3896 0 1
54.5057 0 1
54.6217 0 1
54.7377 0 1
54.8537 0 1
54.9695 0 1
55.0853 0 1
55.2011 0 1
55.3168 0 1
55.4324 0 1
57.824 0 1
57.9396 0 1
58.0553 0 1
58.1711 0 1
58.2869 0 1
58.4028 0 1
58.5187 0 1
58.6347 0 1
58.7508 0 1
58.8669 0 1
58.983 7057 84.006
59.0992 7180 84.7349
59.2155 7189 84.788
59.3318 6982 83.5584
59.4482 6893 83.0241
59.5646 6556 80.9691
59.681 6471 80.4425
59.7975 6386 79.9125
59.9141 6264 79.1454
60.0306 6342 79.6367
60.1473 6583 81.1357
60.2639 6837 82.6862
60.3807 6805 82.4924
60.4974 7151 84.5636
60.6142 7082 84.1546
60.731 7082 84.1546
60.8479 7026 83.8212
60.9648 6908 83.1144
61.0818 6792 82.4136
61.1987 6781 82.3468
61.3158 6732 82.0488
61.4328 6887 82.988
61.5499 6806 82.4985
61.667 7044 83.9285
61.7841 7265 85.235
61.9013 7305 85.4693
62.0185 7393 85.9826
62.1357 7257 85.188
62.253 7096 84.2378
62.3702 7013 83.7437
62.4875 6757 82.201
62.6049 6712 81.9268
62.7222 6562 81.0062
62.8396 6320 79.4984
62.9569 6186 78.6511
63.0743 5816 76.2627
63.1918 5774 75.9868
63.3092 5705 75.5315
63.4267 5875 76.6485
63.5441 5989 77.3886
63.6616 6218 78.8543
63.7791 6256 79.0949
63.8966 6447 80.2932
64.0142 6585 81.148
64.1317 6569 81.0494
64.2492 6446 80.287
64.3668 6750 82.1584
64.4843 6365 79.781
64.6019 6301 79.3788
64.7195 6144 78.3837
64.837 6138 78.3454
64.9546 6020 77.5887
65.0722 6447 80.2932
65.1898 6359 79.7433
65.3074 6852 82.7768
65.4249 6667 81.6517
65.5425 6925 83.2166
65.6601 6992 83.6182
65.7777 6768 82.2679
65.8952 6354 79.712
66.0128 6424 80.1499
66.1304 6126 78.2688
66.2479 6152 78.4347
66.3655 5912 76.8895
66.483 5717 75.6108
66.6005 5663 75.2529
66.718 5421 73.6274
66.8355 5320 72.9383
66.953 5200 72.111
67.0705 5242 72.4017
67.1879 5606 74.8732
67.3054 6043 77.7367
67.4228 6278 79.2338
67.5402 6251 79.0633
67.6576 6327 79.5424
67.7749 6441 80.2558
67.8923 6458 80.3617
68.0096 6290 79.3095
68.1269 6238 78.981
68.2442 6141 78.3645
68.3614 6066 77.8845
68.4787 5872 76.629
68.5958 6094 78.0641
68.713 6295 79.341
68.8302 6451 80.3181
68.9473 6573 81.074
69.0643 6877 82.9277
69.1814 7078 84.1309
69.2984 7022 83.7974
69.4154 6841 82.7103
69.5323 6631 81.431
69.6492 6415 80.0937
69.7661 6181 78.6193
69.8829 6051 77.7882
69.9997 5848 76.4722
70.1165 5950 77.1362
70.2332 5753 75.8485
70.3499 5696 75.4718
70.4665 5512 74.2428
70.5831 5225 72.2842
70.6996 5242 72.4017
70.8161 5729 75.6902
70.9326 6093 78.0577
71.049 6403 80.0187
71.1653 6440 80.2496
71.2817 6461 80.3803
71.3979 6602 81.2527
71.5141 6345 79.6555
71.6303 6200 78.7401
71.7464 5799 76.1512
71.8624 0 1
71.9784 0 1
72.0944 0 1
72.2102 0 1
72.3261 0 1
72.4418 0 1
72.5575 0 1
72.6732 0 1
75.1054 0 1
75.2209 0 1
75.3365 0 1
75.4521 0 1
75.5678 0 1
75.6835 0 1
75.7993 0 1
75.9151 0 1
76.031 0 1
76.147 5075 71.239
76.263 5689 75.4255
76.3791 6251 79.0633
76.4952 6352 79.6994
76.6113 6601 81.2465
76.7276 6633 81.4432
76.8438 6684 81.7557
76.9601 6571 81.0617
77.0765 6399 79.9937
77.1929 6357 79.7308
77.3093 5914 76.9025
77.4258 6000 77.4597
77.5423 5993 77.4145
77.6589 6414 80.0875
77.7755 6479 80.4922
77.8921 6650 81.5475
78.0088 6782 82.3529
78.1256 7039 83.8987
78.2423 7193 84.8116
78.3591 6859 82.8191
78.4759 6454 80.3368
78.5928 5890 76.7463
78.7097 5834 76.3806
78.8266 5560 74.5654
78.9436 5649 75.1598
79.0606 5511 74.2361
79.1776 5461 73.8986
79.2946 5232 72.3326
79.4117 4597 67.8012
79.5288 4644 68.1469
79.6459 5302 72.8148
79.7631 5409 73.5459
79.8802 5575 74.6659
79.9974 5850 76.4853
80.1147 6188 78.6638
80.2319 6344 79.6492
80.3491 6337 79.6053
80.4664 6366 79.7872
80.5837 6308 79.4229
80.701 5933 77.026
80.8183 5824 76.3151
80.9357 5561 74.5721
81.053 5469 73.9527
81.1704 5567 74.6123
81.2877 5679 75.3591
81.4051 5888 76.7333
81.5225 6256 79.0949
81.6399 6187 78.6575
81.7573 6653 81.5659
81.8747 6448 80.2994
81.9922 6119 78.224
82.1096 5641 75.1066
82.227 5310 72.8697
82.3444 5087 71.3232
82.4619 5007 70.7602
82.5793 5214 72.208
82.6967 4893 69.95
82.8142 4952 70.3704
82.9316 4810 69.3542
83.049 4304 65.6049
83.1664 4229 65.0308
83.2838 4908 70.0571
83.4012 5046 71.0352
83.5186 5142 71.7077
83.636 5526 74.3371
83.7534 5771 75.9671
83.8708 5953 77.1557
83.9881 5866 76.5898
84.1055 5753 75.8485
84.2228 5875 76.6485
84.3401 5671 75.306
84.4575 5511 74.2361
84.5747 5355 73.1779
84.692 5383 73.3689
84.8093 5357 73.1915
84.9265 5792 76.1052
85.0437 5925 76.974
85.1609 6053 77.801
85.2781 6292 79.3221
85.3952 6582 81.1295
85.5123 6494 80.5854
85.6294 6241 79
85.7465 5785 76.0592
85.8636 5574 74.6592
85.9806 5595 74.7997
86.0976 5460 73.8918
86.2145 5504 74.1889
86.3315 5432 73.7021
86.4484 5660 75.233
86.5652 5277 72.643
86.682 4908 70.0571
86.7988 5354 73.171
86.9156 5883 76.7007
87.0323 5926 76.9805
87.149 6022 77.6015
87.2657 6373 79.8311
87.3823 6859 82.8191
87.4988 6801 82.4682
87.6154 6880 82.9458
87.7318 6910 83.1264
87.8483 6700 81.8535
87.9647 6702 81.8657
88.081 6197 78.721
88.1973 6217 78.848
88.3136 6389 79.9312
88.4298 6417 80.1062
88.546 6856 82.801
88.6621 6947 83.3487
88.7781 7298 85.4283
88.8942 0 1
89.0101 0 1
89.126 0 1
89.2419 0 1
89.3577 0 1
89.4734 0 1
89.5891 0 1
89.7047 0 1
89.8203 0 1
89.9358 0 1
92.3269 0 1
92.4424 0 1
92.558 0 1
92.6736 0 1
92.7893 0 1
92.905 0 1
93.0208 0 1
93.1366 0 1
93.2525 0 1
93.3685 0 1
93.4845 0 1
93.6005 5723 75.6505
93.7167 6084 78
93.8328 6161 78.492
93.949 6572 81.0679
94.0653 6522 80.7589
94.1816 6720 81.9756
94.2979 6754 82.1827
94.4143 6655 81.5782
94.5307 6203 78.7591
94.6472 5810 76.2234
94.7637 5644 75.1266
94.8803 5468 73.9459
94.9969 5378 73.3348
95.1135 5453 73.8444
95.2302 5341 73.0821
95.3469 5315 72.904
95.4637 5101 71.4213
95.5805 5136 71.6659
95.6973 5038 70.9789
95.8142 4983 70.5904
95.9311 5322 72.952
96.048 5564 74.5922
96.1649 5906 76.8505
96.2819 6350 79.6869
96.3989 6530 80.8084
96.516 6476 80.4736
96.633 6610 81.3019
96.7501 6329 79.555
96.8673 6272 79.196
96.9844 6197 78.721
97.1016 6089 78.032
97.2188 5887 76.7268
97.336 5697 75.4785
97.4532 5810 76.2234
97.5704 6035 77.6853
97.6877 6266 79.1581
97.805 6423 80.1436
97.9223 6288 79.2969
98.0396 6741 82.1036
98.1569 6580 81.1172
98.2743 6082 77.9872
98.3916 5830 76.3544
98.509 5403 73.5051
98.6264 5317 72.9178
98.7438 5191 72.0486
98.8612 5124 71.5821
98.9786 5048 71.0493
99.096 4936 70.2567
99.2134 4786 69.1809
99.3308 4996 70.6824
99.4482 5161 71.8401
99.5656 5262 72.5396
99.6831 5418 73.6071
99.8005 5304 72.8286
99.9179 5615 74.9333
100.035 6024 77.6144
100.153 6177 78.5939
100.27 6100 78.1025
100.388 5955 77.1686
100.505 6008 77.5113
100.622 6048 77.7689
100.74 5598 74.8198
100.857 5690 75.4321
100.975 5598 74.8198
101.092 5748 75.8156
101.209 6139 78.3518
101.327 6448 80.2994
101.444 6600 81.2404
101.561 6848 82.7526
101.679 7003 83.6839
101.796 6931 83.2526
101.913 6356 79.7245
102.03 6049 77.7753
102.148 5699 75.4917
102.265 5224 72.2772
102.382 6104 78.1281
102.499 5469 73.9527
102.616 5356 73.1847
102.733 5407 73.5323
102.851 5754 75.8551
102.968 6020 77.5887
103.085 6151 78.4283
103.202 6460 80.3741
103.319 6566 81.0309
103.436 6940 83.3067
103.552 7237 85.0706
103.669 7313 85.5161
103.786 7471 86.4349
103.903 7268 85.2526
104.02 7255 85.1763
104.137 7252 85.1587
104.253 7142 84.5104
104.37 6815 82.553
104.487 6911 83.1324
104.603 7287 85.3639
104.72 7599 87.1722
104.836 7862 88.6679
104.953 7954 89.1852
105.069 8190 90.4986
105.186 8120 90.111
105.302 8147 90.2607
105.418 7460 86.3713
105.535 7085 84.1724
105.651 6821 82.5893
105.767 6786 82.3772
105.883 6390 79.9375
105.999 6280 79.2465
106.115 0 1
106.231 0 1
106.347 0 1
106.463 0 1
106.579 0 1
106.694 0 1
106.81 0 1
106.926 0 1
107.041 0 1
107.157 0 1
109.576 0 1
109.692 0 1
109.807 0 1
109.923 0 1
110.039 0 1
110.155 0 1
110.27 0 1
110.386 0 1
110.502 0 1
110.618 6492 80.5729
110.735 6391 79.9437
110.851 6094 78.0641
110.967 5932 77.0195
111.083 5733 75.7166
111.199 5663 75.2529
111.316 5798 76.1446
111.432 6080 77.9744
111.549 6234 78.9557
111.665 6261 79.1265
111.782 6490 80.5605
111.898 6466 80.4114
112.015 6588 81.1665
112.132 6715 81.9451
112.248 6789 82.3954
112.365 6755 82.1888
112.482 6845 82.7345
112.599 6341 79.6304
112.716 6346 79.6618
112.832 6192 78.6893
112.949 5933 77.026
113.066 5922 76.9545
113.183 5879 76.6746
113.3 6034 77.6788
113.417 6380 79.8749
113.534 6360 79.7496
113.652 6556 80.9691
113.769 6483 80.5171
113.886 6357 79.7308
114.003 6075 77.9423
114.12 6000 77.4597
114.238 5618 74.9533
114.355 5283 72.6842
114.472 5079 71.2671
114.589 4668 68.3228
114.707 4725 68.7386
114.824 4771 69.0724
114.942 4893 69.95
115.059 4857 69.6922
115.176 4881 69.8642
115.294 4913 70.0928
115.411 4927 70.1926
115.529 5137 71.6729
115.646 5035 70.9577
115.764 5181 71.9792
115.881 5249 72.45
115.999 5186 72.0139
116.116 5028 70.9084
116.234 5017 70.8308
116.351 4684 68.4398
116.469 4672 68.352
116.586 4643 68.1396
116.704 4554 67.4833
116.821 4776 69.1086
116.939 4828 69.4838
117.056 4932 70.2282
117.174 4976 70.5408
117.291 5049 71.0563
117.409 4987 70.6187
117.526 5010 70.7814
117.644 4896 69.9714
117.761 4801 69.2892
117.879 4627 68.0221
117.996 4305 65.6125
118.114 4196 64.7765
118.231 4151 64.4283
118.349 4236 65.0846
118.466 4087 63.9296
118.584 4283 65.4446
118.701 4293 65.521
118.819 4499 67.0746
118.936 4492 67.0224
119.053 4564 67.5574
119.171 4626 68.0147
119.288 4729 68.7677
119.405 4750 68.9202
119.523 4916 70.1142
119.64 4925 70.1783
119.757 4964 70.4557
119.875 4890 69.9285
119.992 5021 70.859
120.109 4976 70.5408
120.226 4825 69.4622
120.343 4946 70.3278
120.46 4943 70.3065
120.578 5098 71.4003
120.695 5296 72.7736
120.812 5390 73.4166
120.929 5440 73.7564
121.046 5546 74.4715
121.163 5567 74.6123
121.279 5566 74.6056
121.396 5448 73.8106
121.513 5553 74.5185
121.63 5345 73.1095
121.747 4977 70.5479
121.863 5027 70.9013
121.98 4953 70.3776
122.097 5071 71.211
122.213 5088 71.3302
122.33 5325 72.9726
122.446 5227 72.298
122.563 5211 72.1873
122.679 5267 72.5741
122.795 5451 73.8309
122.912 5534 74.3909
123.028 5627 75.0133
123.144 5560 74.5654
123.26 5604 74.8599
123.377 0 1
123.493 0 1
123.609 0 1
123.725 0 1
123.84 0 1
123.956 0 1
124.072 0 1
124.188 0 1
124.303 0 1
124.419 0 1
126.852 0 1
126.968 0 1
127.083 0 1
127.199 0 1
127.315 0 1
127.431 0 1
127.547 0 1
127.663 0 1
127.779 0 1
127.895 0 1
128.011 0 1
128.127 0 1
128.243 0 1
128.359 6645 81.5169
128.476 6787 82.3833
128.592 6638 81.4739
128.708 6676 81.7068
128.825 6719 81.9695
128.941 6743 82.1158
129.058 6863 82.8432
129.174 6768 82.2679
129.291 6704 81.878
129.408 6594 81.2034
129.524 6665 81.6395
129.641 6447 80.2932
129.758 6530 80.8084
129.875 6641 81.4923
129.992 6668 81.6578
130.108 6737 82.0792
130.225 6764 82.2435
130.342 6633 81.4432
130.459 6622 81.3757
130.576 6381 79.8812
130.693 6140 78.3582
130.81 6099 78.0961
130.928 5875 76.6485
131.045 5908 76.8635
131.162 6069 77.9038
131.279 6034 77.6788
131.396 6036 77.6917
131.513 5874 76.642
131.631 5720 75.6307
131.748 5810 76.2234
131.865 5691 75.4387
131.983 5715 75.5976
132.1 5537 74.411
132.217 5601 74.8398
132.335 5616 74.94
132.452 5540 74.4312
132.57 5569 74.6257
132.687 5458 73.8783
132.804 5697 75.4785
132.922 5416 73.5935
133.039 5405 73.5187
133.157 5462 73.9053
133.274 5241 72.3948
133.392 5426 73.6614
133.509 5377 73.328
133.627 5391 73.4234
133.744 5440 73.7564
133.862 5450 73.8241
133.979 5243 72.4086
134.097 5108 71.4703
134.214 5119 71.5472
134.332 5042 71.007
134.449 5003 70.7319
134.567 5045 71.0282
134.684 5022 70.8661
134.802 4922 70.157
134.919 4906 70.0428
135.037 4814 69.383
135.154 4655 68.2276
135.272 4657 68.2422
135.389 4620 67.9706
135.507 4635 68.0808
135.624 4586 67.72
135.742 4459 66.7757
135.859 4427 66.5357
135.977 4218 64.9461
136.094 4219 64.9538
136.211 4142 64.3584
136.329 4367 66.0833
136.446 4213 64.9076
136.564 4264 65.2993
136.681 4168 64.56
136.798 4252 65.2074
136.915 4246 65.1613
137.033 4315 65.6887
137.15 4273 65.3682
137.267 4306 65.6201
137.384 4353 65.9773
137.502 4416 66.453
137.619 4372 66.1211
137.736 4304 65.6049
137.853 4204 64.8383
137.97 4285 65.4599
138.087 4364 66.0606
138.204 4482 66.9477
138.321 4562 67.5426
138.438 4695 68.5201
138.555 4726 68.7459
138.672 4603 67.8454
138.788 4729 68.7677
138.905 4539 67.3721
139.022 4641 68.1249
139.139 4709 68.6222
139.255 4728 68.7605
139.372 4656 68.2349
139.488 4704 68.5857
139.605 4769 69.0579
139.721 4627 68.0221
139.838 4601 67.8307
139.954 4650 68.1909
140.071 4711 68.6367
140.187 4812 69.3686
140.303 4864 69.7424
140.419 4965 70.4628
140.535 4963 70.4486
140.652 5099 71.4073
140.768 0 1
140.884 0 1
141 0 1
141.115 0 1
141.231 0 1
141.347 0 1
141.463 0 1
141.578 0 1
141.694 0 1
144.104 0 1
144.219 0 1
144.335 0 1
144.45 0 1
144.566 0 1
144.682 0 1
144.798 0 1
144.914 0 1
145.03 0 1
145.146 4044 63.5925
145.262 4302 65.5896
145.378 4249 65.1844
145.494 4324 65.7571
145.61 4144 64.3739
145.726 4206 64.8537
145.842 4264 65.2993
145.959 4152 64.436
146.075 4106 64.0781
146.192 4250 65.192
146.308 3983 63.111
146.425 4081 63.8827
146.541 4093 63.9766
146.658 4021 63.4114
146.774 4067 63.773
146.891 3952 62.8649
147.008 4086 63.9218
147.125 4133 64.2884
147.241 4115 64.1483
147.358 4053 63.6632
147.475 4007 63.3009
147.592 3842 61.9839
147.709 3919 62.6019
147.826 3707 60.8851
147.943 3629 60.2412
148.06 3532 59.4306
148.177 3594 59.95
148.294 3528 59.397
148.411 3478 58.9746
148.528 3379 58.1292
148.645 3497 59.1354
148.762 3240 56.921
148.88 3261 57.1052
148.997 3359 57.9569
149.114 3158 56.1961
149.231 3259 57.0877
149.349 3284 57.3062
149.466 3385 58.1808
149.583 3325 57.6628
149.701 3192 56.4978
149.818 3340 57.7927
149.935 3272 57.2014
150.053 3207 56.6304
150.17 3200 56.5685
150.287 3176 56.356
150.405 3249 57
150.522 3436 58.6174
150.64 3476 58.9576
150.757 3470 58.9067
150.875 3559 59.6574
150.992 3522 59.3464
151.11 3539 59.4895
151.227 3629 60.2412
151.344 3561 59.6741
151.462 3522 59.3464
151.579 3386 58.1893
151.697 3403 58.3352
151.814 3568 59.7327
151.932 3621 60.1747
152.049 3412 58.4123
152.167 3610 60.0833
152.284 3504 59.1946
152.402 3575 59.7913
152.519 3408 58.3781
152.636 3607 60.0583
152.754 3532 59.4306
152.871 3589 59.9083
152.989 3597 59.975
153.106 3667 60.5558
153.223 3677 60.6383
153.341 3676 60.63
153.458 3730 61.0737
153.575 3677 60.6383
153.693 3794 61.5955
153.81 3740 61.1555
153.927 3805 61.6847
154.044 3935 62.7296
154.162 4065 63.7574
154.279 4233 65.0615
154.396 4274 65.3758
154.513 4508 67.1416
154.63 4642 68.1322
154.747 4635 68.0808
154.864 4812 69.3686
154.981 4592 67.7643
155.098 4627 68.0221
155.215 4672 68.352
155.332 4759 68.9855
155.449 4871 69.7925
155.566 4759 68.9855
155.683 4889 69.9214
155.8 4853 69.6635
155.917 4868 69.7711
156.033 4840 69.5701
156.15 0 1
156.267 0 1
156.383 0 1
156.5 0 1
156.617 0 1
156.733 0 1
156.85 0 1
156.966 0 1
157.082 0 1
157.199 0 1
157.315 0 1
157.431 0 1
157.547 0 1
157.664 0 1
157.78 0 1
157.896 0 1
158.012 0 1
158.128 0 1
158.244 0 1
158.359 0 1
158.475 0 1
158.591 0 1
158.706 0 1
