
6.15755 0 1
6.2731 0 1
6.3887 0 1
6.50437 0 1
6.62009 0 1
6.73587 0 1
6.8517 0 1
6.96759 0 1
7.08353 0 1
7.19952 0 1
7.31557 0 1
7.43166 0 1
7.54781 0 1
7.664 0 1
7.78024 0 1
7.89653 0 1
8.01286 0 1
8.12924 0 1
8.24567 0 1
8.36213 0 1
8.47864 0 1
8.59519 0 1
8.71178 0 1
8.82841 0 1
8.94508 0 1
9.06179 0 1
9.17853 0 1
9.29531 0 1
9.41212 0 1
9.52897 0 1
9.64584 0 1
9.76276 0 1
9.8797 0 1
9.99667 0 1
10.1137 0 1
10.2307 0 1
10.3478 0 1
10.4648 0 1
10.5819 0 1
10.6991 0 1
10.8162 0 1
10.9334 0 1
11.0506 0 1
11.1678 0 1
11.285 0 1
11.4023 0 1
11.5196 0 1
11.6369 0 1
11.7542 0 1
11.8715 0 1
11.9888 0 1
12.1062 0 1
12.2235 0 1
12.3409 0 1
12.4582 0 1
12.5756 0 1
12.693 0 1
12.8104 0 1
12.9278 0 1
13.0452 0 1
13.1626 0 1
13.28 0 1
13.3974 0 1
13.5149 0 1
13.6323 0 1
13.7497 0 1
13.8671 0 1
13.9845 0 1
14.1019 0 1
14.2193 0 1
14.3367 0 1
14.4541 0 1
14.5714 0 1
14.6888 0 1
14.8062 0 1
14.9235 0 1
15.0408 0 0
15.1581 0 0
15.2755 0 0
15.3927 0 0
15.51 0 0
15.6273 0 0
15.7445 0 0
15.8617 0 0
15.9789 0 0
16.0961 0 0
16.2132 0 0
16.3304 0 0
16.4475 0 0
16.5646 0 0
16.6816 0 0
16.7986 0 0
16.9156 0 0
17.0326 0 0
17.1496 0 0
17.2665 0 0
17.3833 0 0
17.5002 0 0
17.617 0 0
17.7338 0 0
17.8505 0 0
17.9672 0 0
18.0839 0 0
18.2005 0 0
18.3171 0 0
18.4337 0 0
18.5502 0 0
18.6666 0 0
18.7831 0 0
18.8994 0 0
19.0158 0 0
19.1321 0 0
19.2483 0 0
19.3645 0 0
19.4806 0 0
19.5967 0 0
19.7128 0 0
19.8288 0 0
19.9447 0 0
20.0606 0 1
20.1764 0 1
20.2922 0 1
20.4079 0 1
20.5236 0 1
20.6392 0 1
20.7548 0 1
20.8702 0 1
23.3078 0 1
23.4233 0 1
23.539 0 1
23.6547 0 1
23.7704 0 1
23.8862 0 1
24.0021 0 1
24.118 0 1
24.234 0 1
24.35 0 1
24.4661 1677 40.9512
24.5822 1619 40.2368
24.6984 1586 39.8246
24.8146 1584 39.7995
24.9309 1500 38.7298
25.0472 1444 38
25.1636 1472 38.3667
25.28 1558 39.4715
25.3965 1682 41.0122
25.513 1728 41.5692
25.6296 1870 43.2435
25.7462 1850 43.0116
25.8628 1927 43.8976
25.9795 1973 44.4185
26.0962 1907 43.6692
26.213 1884 43.4051
26.3298 1961 44.2832
26.4466 1907 43.6692
26.5635 1841 42.9069
26.6804 1753 41.8688
26.7973 1704 41.2795
26.9143 1780 42.19
27.0313 1843 42.9302
27.1483 1892 43.4971
27.2653 1801 42.4382
27.3824 1995 44.6654
27.4996 1891 43.4856
27.6167 1849 43
27.7339 1863 43.1625
27.8511 1773 42.107
27.9683 1741 41.7253
28.0855 1785 42.2493
28.2028 1641 40.5093
28.3201 1519 38.9744
28.4374 1558 39.4715
28.5547 1470 38.3406
28.6721 1445 38.0132
28.7894 1435 37.8814
28.9068 1605 40.0625
29.0242 1624 40.2989
29.1416 1723 41.509
29.259 1737 41.6773
29.3764 1883 43.3935
29.4939 1901 43.6005
29.6113 1870 43.2435
29.7288 1882 43.382
29.8463 1805 42.4853
29.9638 1784 42.2374
30.0812 1691 41.1218
30.1987 1672 40.8901
30.3162 1654 40.6694
30.4337 1731 41.6053
30.5512 1775 42.1307
30.6687 1690 41.1096
30.7862 1891 43.4856
30.9037 1831 42.7902
31.0212 1912 43.7264
31.1387 1827 42.7434
31.2562 1828 42.7551
31.3737 1836 42.8486
31.4912 1742 41.7373
31.6087 1757 41.9166
31.7262 1760 41.9524
31.8436 1618 40.2244
31.9611 1488 38.5746
32.0785 1407 37.51
32.1959 1450 38.0789
32.3134 1550 39.37
32.4308 1611 40.1373
32.5482 1709 41.3401
32.6655 1803 42.4617
32.7829 1868 43.2204
32.9002 1925 43.8748
33.0176 1918 43.795
33.1349 1869 43.2319
33.2522 1886 43.4281
33.3694 1870 43.2435
33.4867 1878 43.3359
33.6039 1850 43.0116
33.7211 1771 42.0833
33.8383 1670 40.8656
33.9554 1680 40.9878
34.0725 1755 41.8927
34.1896 1752 41.8569
34.3067 1867 43.2088
34.4237 1764 42
34.5407 1902 43.6119
34.6577 1915 43.7607
34.7746 1889 43.4626
34.8915 1911 43.715
35.0084 1914 43.7493
35.1252 1955 44.2154
35.242 1835 42.8369
35.3587 1838 42.8719
35.4755 1806 42.4971
35.5921 1532 39.1408
35.7088 1503 38.7685
35.8254 1350 36.7423
35.9419 1418 37.6563
36.0584 1478 38.4448
36.1749 1562 39.5221
36.2913 1729 41.5812
36.4077 1749 41.821
36.524 1886 43.4281
36.6403 1839 42.8836
36.7565 1895 43.5316
36.8727 1861 43.1393
36.9889 2051 45.288
37.1049 1818 42.638
37.221 0 1
37.3369 0 1
37.4529 0 1
37.5687 0 1
37.6845 0 1
37.8003 0 1
37.916 0 1
38.0316 0 1
38.1472 0 1
40.5851 0 1
40.7008 0 1
40.8164 0 1
40.9322 0 1
41.048 0 1
41.1639 0 1
41.2798 0 1
41.3958 0 1
41.5118 0 1
41.6279 0 1
41.744 1588 39.8497
41.8602 1591 39.8873
41.9765 1685 41.0488
42.0928 1685 41.0488
42.2091 1681 41
42.3255 1693 41.1461
42.4419 1627 40.3361
42.5584 1566 39.5727
42.675 1620 40.2492
42.7915 1549 39.3573
42.9081 1548 39.3446
43.0248 1661 40.7554
43.1415 1703 41.2674
43.2582 1626 40.3237
43.375 1675 40.9268
43.4918 1705 41.2916
43.6087 1704 41.2795
43.7256 1713 41.3884
43.8425 1654 40.6694
43.9595 1592 39.8999
44.0765 1542 39.2683
44.1935 1531 39.128
44.3106 1434 37.8682
44.4277 1330 36.4692
44.5448 1093 33.0606
44.6619 1073 32.7567
44.7791 1097 33.121
44.8963 1234 35.1283
45.0136 1320 36.3318
45.1308 1393 37.3229
45.2481 1545 39.3065
45.3654 1522 39.0128
45.4827 1490 38.6005
45.6001 1522 39.0128
45.7174 1475 38.4057
45.8348 1435 37.8814
45.9522 1401 37.4299
46.0697 1465 38.2753
46.1871 1416 37.6298
46.3046 1293 35.9583
46.422 1386 37.229
46.5395 1317 36.2905
46.657 1398 37.3898
46.7745 1370 37.0135
46.892 1414 37.6032
47.0096 1441 37.9605
47.1271 1327 36.428
47.2446 1398 37.3898
47.3622 1293 35.9583
47.4797 1303 36.0971
47.5973 1319 36.318
47.7149 1263 35.5387
47.8324 1191 34.5109
47.95 1118 33.4365
48.0675 922 30.3645
48.1851 918 30.2985
48.3027 894 29.8998
48.4202 996 31.5595
48.5378 1171 34.2199
48.6554 1230 35.0714
48.7729 1308 36.1663
48.8904 1253 35.3977
49.008 1326 36.4143
49.1255 1304 36.1109
49.243 1399 37.4032
49.3605 1322 36.3593
49.478 1321 36.3456
49.5955 1332 36.4966
49.713 1232 35.0999
49.8304 1251 35.3695
49.9479 1312 36.2215
50.0653 1312 36.2215
50.1827 1420 37.6829
50.3001 1484 38.5227
50.4175 1519 38.9744
50.5348 1518 38.9615
50.6521 1609 40.1123
50.7694 1586 39.8246
50.8867 1602 40.025
51.004 1687 41.0731
51.1212 1678 40.9634
51.2384 1670 40.8656
51.3556 1633 40.4104
51.4727 1405 37.4833
51.5899 1362 36.9053
51.707 1231 35.0856
51.824 1321 36.3456
51.9411 1398 37.3898
52.0581 1643 40.5339
52.175 1863 43.1625
52.2919 1867 43.2088
52.4088 1945 44.1022
52.5257 1992 44.6318
52.6425 2121 46.0543
52.7593 1970 44.3847
52.876 2089 45.7056
52.9927 2082 45.6289
53.1094 2037 45.1331
53.226 2165 46.5296
53.3426 2229 47.2123
53.4591 2151 46.3789
53.5756 2128 46.1303
53.692 2124 46.0869
53.8084 2146 46.3249
53.9248 2241 47.3392
54.0411 2319 48.156
54.1573 2386 48.8467
54.2735 0 1
54.3896 0 1
54.5057 0 1
54.6217 0 1
54.7377 0 1
54.8537 0 1
54.9695 0 1
55.0853 0 1
55.2011 0 1
55.3168 0 1
55.4324 0 1
57.824 0 1
57.9396 0 1
58.0553 0 1
58.1711 0 1
58.2869 0 1
58.4028 0 1
58.5187 0 1
58.6347 0 1
58.7508 0 1
58.8669 0 1
58.983 3065 55.3624
59.0992 3173 56.3294
59.2155 3255 57.0526
59.3318 3265 57.1402
59.4482 3225 56.7891
59.5646 3261 57.1052
59.681 3289 57.3498
59.7975 3131 55.9553
59.9141 3129 55.9375
60.0306 2952 54.3323
60.1473 2669 51.6624
60.2639 2469 49.689
60.3807 2311 48.0729
60.4974 2286 47.8121
60.6142 2507 50.07
60.731 2740 52.345
60.8479 2940 54.2218
60.9648 3019 54.9454
61.0818 3237 56.8946
61.1987 3328 57.6888
61.3158 3422 58.4979
61.4328 3296 57.4108
61.5499 3383 58.1636
61.667 3311 57.5413
61.7841 3247 56.9825
61.9013 3347 57.8533
62.0185 3354 57.9137
62.1357 3402 58.3267
62.253 3314 57.5674
62.3702 3295 57.4021
62.4875 3398 58.2924
62.6049 3467 58.8812
62.7222 3437 58.6259
62.8396 3533 59.439
62.9569 3507 59.2199
63.0743 3448 58.7197
63.1918 3486 59.0424
63.3092 3314 57.5674
63.4267 3278 57.2538
63.5441 3230 56.8331
63.6616 2785 52.7731
63.7791 2559 50.5866
63.8966 2399 48.9796
64.0142 2363 48.6107
64.1317 2733 52.2781
64.2492 2873 53.6004
64.3668 3282 57.2887
64.4843 3288 57.3411
64.6019 3540 59.4979
64.7195 3626 60.2163
64.837 3665 60.5392
64.9546 3560 59.6657
65.0722 3548 59.5651
65.1898 3534 59.4475
65.3074 3662 60.5145
65.4249 3531 59.4222
65.5425 3511 59.2537
65.6601 3459 58.8133
65.7777 3521 59.338
65.8952 3606 60.05
66.0128 3566 59.716
66.1304 3633 60.2744
66.2479 3625 60.208
66.3655 3833 61.9112
66.483 3942 62.7853
66.6005 3769 61.3922
66.718 3796 61.6117
66.8355 3731 61.0819
66.953 3744 61.1882
67.0705 3520 59.3296
67.1879 3264 57.1314
67.3054 3035 55.0908
67.4228 2765 52.5833
67.5402 2493 49.93
67.6576 2519 50.1896
67.7749 2752 52.4595
67.8923 3236 56.8859
68.0096 3535 59.4559
68.1269 3750 61.2372
68.2442 3865 62.1691
68.3614 4011 63.3325
68.4787 3995 63.206
68.5958 4007 63.3009
68.713 4047 63.616
68.8302 4025 63.4429
68.9473 4088 63.9375
69.0643 4083 63.8984
69.1814 4076 63.8436
69.2984 4109 64.1015
69.4154 4067 63.773
69.5323 4196 64.7765
69.6492 4140 64.3428
69.7661 4245 65.1537
69.8829 4235 65.0769
69.9997 4363 66.053
70.1165 4492 67.0224
70.2332 4510 67.1565
70.3499 4482 66.9477
70.4665 4356 66
70.5831 4035 63.5216
70.6996 4115 64.1483
70.8161 3998 63.2297
70.9326 3605 60.0417
71.049 3313 57.5587
71.1653 2828 53.1789
71.2817 2784 52.7636
71.3979 2890 53.7587
71.5141 3172 56.3205
71.6303 3448 58.7197
71.7464 3477 58.9661
71.8624 0 1
71.9784 0 1
72.0944 0 1
72.2102 0 1
72.3261 0 1
72.4418 0 1
72.5575 0 1
72.6732 0 1
75.1054 0 1
75.2209 0 1
75.3365 0 1
75.4521 0 1
75.5678 0 1
75.6835 0 1
75.7993 0 1
75.9151 0 1
76.031 0 1
76.147 3625 60.208
76.263 3743 61.1801
76.3791 3414 58.4294
76.4952 3026 55.0091
76.6113 3035 55.0908
76.7276 3191 56.4889
76.8438 3406 58.3609
76.9601 4013 63.3482
77.0765 4362 66.0454
77.1929 4561 67.5352
77.3093 4718 68.6877
77.4258 4788 69.1954
77.5423 4711 68.6367
77.6589 4721 68.7095
77.7755 4672 68.352
77.8921 4623 67.9926
78.0088 4823 69.4478
78.1256 4556 67.4981
78.2423 4472 66.873
78.3591 4532 67.3201
78.4759 4590 67.7495
78.5928 4476 66.9029
78.7097 4483 66.9552
78.8266 4694 68.5128
78.9436 4312 65.6658
79.0606 4742 68.8622
79.1776 4725 68.7386
79.2946 4567 67.5796
79.4117 4741 68.8549
79.5288 4554 67.4833
79.6459 4340 65.8787
79.7631 4123 64.2106
79.8802 4022 63.4192
79.9974 3726 61.041
80.1147 3196 56.5332
80.2319 3065 55.3624
80.3491 3101 55.6866
80.4664 3465 58.8643
80.5837 3864 62.1611
80.701 4235 65.0769
80.8183 4557 67.5056
80.9357 4517 67.2086
81.053 4523 67.2533
81.1704 4595 67.7864
81.2877 4585 67.7126
81.4051 4490 67.0075
81.5225 4711 68.6367
81.6399 4386 66.2269
81.7573 4524 67.2607
81.8747 4391 66.2646
81.9922 4405 66.3702
82.1096 4473 66.8805
82.227 4374 66.1362
82.3444 4381 66.1891
82.4619 4322 65.7419
82.5793 4307 65.6277
82.6967 4518 67.2161
82.8142 4576 67.6461
82.9316 4406 66.3777
83.049 4568 67.587
83.1664 4349 65.9469
83.2838 4229 65.0308
83.4012 3846 62.0161
83.5186 3575 59.7913
83.636 3445 58.6941
83.7534 3078 55.4797
83.8708 2838 53.2729
83.9881 2757 52.5071
84.1055 3003 54.7996
84.2228 3335 57.7495
84.3401 4005 63.2851
84.4575 4236 65.0846
84.5747 4355 65.9924
84.692 4348 65.9394
84.8093 4400 66.3325
84.9265 4392 66.2722
85.0437 4405 66.3702
85.1609 4514 67.1863
85.2781 4368 66.0908
85.3952 4414 66.4379
85.5123 4354 65.9848
85.6294 4425 66.5207
85.7465 4375 66.1438
85.8636 4337 65.8559
85.9806 4594 67.7791
86.0976 4535 67.3424
86.2145 4572 67.6166
86.3315 4507 67.1342
86.4484 4772 69.0797
86.5652 4871 69.7925
86.682 4821 69.4334
86.7988 4884 69.8856
86.9156 4490 67.0075
87.0323 4346 65.9242
87.149 3841 61.9758
87.2657 3744 61.1882
87.3823 3388 58.2065
87.4988 3271 57.1927
87.6154 3471 58.9152
87.7318 3945 62.8092
87.8483 4409 66.4003
87.9647 4722 68.7168
88.081 4944 70.3136
88.1973 5081 71.2811
88.3136 5095 71.3793
88.4298 5156 71.8053
88.546 5034 70.9507
88.6621 5065 71.1688
88.7781 5015 70.8167
88.8942 0 1
89.0101 0 1
89.126 0 1
89.2419 0 1
89.3577 0 1
89.4734 0 1
89.5891 0 1
89.7047 0 1
89.8203 0 1
89.9358 0 1
92.3269 0 1
92.4424 0 1
92.558 0 1
92.6736 0 1
92.7893 0 1
92.905 0 1
93.0208 0 1
93.1366 0 1
93.2525 0 1
93.3685 0 1
93.4845 0 1
93.6005 5025 70.8872
93.7167 5036 70.9648
93.8328 5110 71.4843
93.949 5131 71.631
94.0653 5153 71.7844
94.1816 5080 71.2741
94.2979 5149 71.7565
94.4143 4856 69.685
94.5307 5059 71.1266
94.6472 4991 70.647
94.7637 5046 71.0352
94.8803 5010 70.7814
94.9969 4966 70.4699
95.1135 5036 70.9648
95.2302 5056 71.1056
95.3469 5196 72.0833
95.4637 5245 72.4224
95.5805 5308 72.856
95.6973 5353 73.1642
95.8142 5225 72.2842
95.9311 5257 72.5052
96.048 4837 69.5485
96.1649 4647 68.1689
96.2819 4364 66.0606
96.3989 4040 63.561
96.516 3701 60.8358
96.633 3440 58.6515
96.7501 3559 59.6574
96.8673 3797 61.6198
96.9844 4382 66.1967
97.1016 4761 69
97.2188 5037 70.9718
97.336 5305 72.8354
97.4532 5499 74.1552
97.5704 5212 72.1942
97.6877 5429 73.6817
97.805 5236 72.3602
97.9223 5376 73.3212
98.0396 5228 72.3049
98.1569 5327 72.9863
98.2743 5240 72.3878
98.3916 5265 72.5603
98.509 5395 73.4507
98.6264 5236 72.3602
98.7438 5315 72.904
98.8612 5227 72.298
98.9786 5549 74.4916
99.096 5399 73.4779
99.2134 5462 73.9053
99.3308 5528 74.3505
99.4482 5474 73.9865
99.5656 5313 72.8903
99.6831 5313 72.8903
99.8005 5254 72.4845
99.9179 4760 68.9928
100.035 4234 65.0692
100.153 3890 62.3699
100.27 3769 61.3922
100.388 3982 63.1031
100.505 4384 66.2118
100.622 4901 70.0071
100.74 5345 73.1095
100.857 5583 74.7195
100.975 5676 75.3392
101.092 5676 75.3392
101.209 5649 75.1598
101.327 5689 75.4255
101.444 5621 74.9733
101.561 5610 74.8999
101.679 5562 74.5788
101.796 5690 75.4321
101.913 5580 74.6994
102.03 5711 75.5712
102.148 5662 75.2463
102.265 5918 76.9285
102.382 5551 74.505
102.499 5792 76.1052
102.616 5754 75.8551
102.733 5845 76.4526
102.851 5889 76.7398
102.968 5881 76.6877
103.085 5890 76.7463
103.202 5839 76.4133
103.319 5492 74.108
103.436 5222 72.2634
103.552 4606 67.8675
103.669 4178 64.6375
103.786 3907 62.506
103.903 4200 64.8074
104.02 4681 68.4178
104.137 5413 73.5731
104.253 5908 76.8635
104.37 5853 76.5049
104.487 6111 78.1729
104.603 6137 78.339
104.72 6171 78.5557
104.836 6021 77.5951
104.953 6165 78.5175
105.069 6093 78.0577
105.186 6172 78.5621
105.302 6294 79.3347
105.418 6143 78.3773
105.535 6030 77.6531
105.651 6237 78.9747
105.767 6147 78.4028
105.883 6407 80.0437
105.999 6192 78.6893
106.115 0 1
106.231 0 1
106.347 0 1
106.463 0 1
106.579 0 1
106.694 0 1
106.81 0 1
106.926 0 1
107.041 0 1
107.157 0 1
109.576 0 1
109.692 0 1
109.807 0 1
109.923 0 1
110.039 0 1
110.155 0 1
110.27 0 1
110.386 0 1
110.502 0 1
110.618 5698 75.4851
110.735 5734 75.7232
110.851 5987 77.3757
110.967 5934 77.0325
111.083 5881 76.6877
111.199 6068 77.8974
111.316 6013 77.5435
111.432 5933 77.026
111.549 5891 76.7529
111.665 5797 76.138
111.782 5470 73.9594
111.898 5020 70.852
112.015 4722 68.7168
112.132 4138 64.3273
112.248 3817 61.7819
112.365 4011 63.3325
112.482 4451 66.7158
112.599 4932 70.2282
112.716 5284 72.6911
112.832 5451 73.8309
112.949 5619 74.96
113.066 5604 74.8599
113.183 5477 74.0068
113.3 5447 73.8038
113.417 5440 73.7564
113.534 5235 72.3533
113.652 5471 73.9662
113.769 5217 72.2288
113.886 5316 72.9109
114.003 5234 72.3464
114.12 5217 72.2288
114.238 5096 71.3863
114.355 5190 72.0417
114.472 5152 71.7774
114.589 5212 72.1942
114.707 5156 71.8053
114.824 5277 72.643
114.942 5305 72.8354
115.059 5225 72.2842
115.176 5179 71.9653
115.294 5029 70.9154
115.411 4731 68.7823
115.529 4484 66.9627
115.646 4027 63.4586
115.764 3841 61.9758
115.881 3612 60.0999
115.999 4005 63.2851
116.116 4309 65.643
116.234 4792 69.2243
116.351 5014 70.8096
116.469 5140 71.6938
116.586 5198 72.0972
116.704 5164 71.861
116.821 5212 72.1942
116.939 5126 71.5961
117.056 5232 72.3326
117.174 5255 72.4914
117.291 5182 71.9861
117.409 5204 72.1388
117.526 5131 71.631
117.644 5270 72.5948
117.761 5245 72.4224
117.879 5231 72.3257
117.996 5256 72.4983
118.114 5295 72.7668
118.231 5265 72.5603
118.349 5249 72.45
118.466 5273 72.6154
118.584 5281 72.6705
118.701 5294 72.7599
118.819 5276 72.6361
118.936 5042 71.007
119.053 4931 70.2211
119.171 4531 67.3127
119.288 4130 64.2651
119.405 3708 60.8933
119.523 3582 59.8498
119.64 4033 63.5059
119.757 4343 65.9014
119.875 4737 68.8259
119.992 5005 70.746
120.109 5075 71.239
120.226 5241 72.3948
120.343 5129 71.617
120.46 5253 72.4776
120.578 5147 71.7426
120.695 5290 72.7324
120.812 5146 71.7356
120.929 5134 71.6519
121.046 5145 71.7287
121.163 5174 71.9305
121.279 5233 72.3395
121.396 5160 71.8331
121.513 5049 71.0563
121.63 5029 70.9154
121.747 5126 71.5961
121.863 5165 71.8679
121.98 5206 72.1526
122.097 5241 72.3948
122.213 5136 71.6659
122.33 5178 71.9583
122.446 5166 71.8749
122.563 5087 71.3232
122.679 4893 69.95
122.795 4887 69.9071
122.912 4442 66.6483
123.028 4009 63.3167
123.144 3615 60.1249
123.26 3585 59.8749
123.377 0 1
123.493 0 1
123.609 0 1
123.725 0 1
123.84 0 1
123.956 0 1
124.072 0 1
124.188 0 1
124.303 0 1
124.419 0 1
126.852 0 1
126.968 0 1
127.083 0 1
127.199 0 1
127.315 0 1
127.431 0 1
127.547 0 1
127.663 0 1
127.779 0 1
127.895 0 1
128.011 0 1
128.127 0 1
128.243 0 1
128.359 4179 64.6452
128.476 3995 63.206
128.592 4323 65.7495
128.708 4799 69.2748
128.825 5258 72.5121
128.941 5702 75.5116
129.058 5730 75.6968
129.174 5722 75.6439
129.291 5728 75.6836
129.408 5736 75.7364
129.524 5855 76.518
129.641 5699 75.4917
129.758 5609 74.8933
129.875 5786 76.0658
129.992 5568 74.619
130.108 5640 75.0999
130.225 5565 74.5989
130.342 5621 74.9733
130.459 5434 73.7157
130.576 5653 75.1864
130.693 5476 74
130.81 5583 74.7195
130.928 5572 74.6458
131.045 5665 75.2662
131.162 5663 75.2529
131.279 5776 76
131.396 5608 74.8866
131.513 5300 72.8011
131.631 5153 71.7844
131.748 4794 69.2387
131.865 4443 66.6558
131.983 4087 63.9296
132.1 4104 64.0625
132.217 4514 67.1863
132.335 5068 71.1899
132.452 5406 73.5255
132.57 5449 73.8173
132.687 5370 73.2803
132.804 5817 76.2693
132.922 5650 75.1665
133.039 5582 74.7128
133.157 5516 74.2698
133.274 5538 74.4177
133.392 5429 73.6817
133.509 5500 74.162
133.627 5510 74.2294
133.744 5427 73.6682
133.862 5323 72.9589
133.979 5441 73.7631
134.097 5522 74.3102
134.214 5545 74.4648
134.332 5312 72.8835
134.449 5445 73.7902
134.567 5368 73.2666
134.684 5425 73.6546
134.802 5478 74.0135
134.919 5518 74.2832
135.037 5359 73.2052
135.154 5250 72.4569
135.272 4974 70.5266
135.389 4667 68.3154
135.507 4089 63.9453
135.624 4044 63.5925
135.742 4208 64.8691
135.859 4636 68.0882
135.977 4831 69.5054
136.094 5385 73.3826
136.211 5440 73.7564
136.329 5601 74.8398
136.446 5463 73.9121
136.564 5565 74.5989
136.681 5593 74.7864
136.798 5443 73.7767
136.915 5456 73.8647
137.033 5466 73.9324
137.15 5405 73.5187
137.267 5279 72.6567
137.384 5240 72.3878
137.502 5256 72.4983
137.619 5151 71.7705
137.736 5188 72.0278
137.853 5082 71.2881
137.97 5157 71.8123
138.087 5473 73.9797
138.204 5380 73.3485
138.321 5328 72.9932
138.438 5349 73.1369
138.555 5319 72.9315
138.672 5348 73.13
138.788 5186 72.0139
138.905 5080 71.2741
139.022 4730 68.775
139.139 4370 66.106
139.255 4132 64.2806
139.372 4181 64.6607
139.488 4627 68.0221
139.605 5024 70.8802
139.721 5311 72.8766
139.838 5298 72.7874
139.954 5420 73.6206
140.071 5416 73.5935
140.187 5533 74.3841
140.303 5572 74.6458
140.419 5378 73.3348
140.535 5228 72.3049
140.652 5197 72.0902
140.768 0 1
140.884 0 1
141 0 1
141.115 0 1
141.231 0 1
141.347 0 1
141.463 0 1
141.578 0 1
141.694 0 1
144.104 0 1
144.219 0 1
144.335 0 1
144.45 0 1
144.566 0 1
144.682 0 1
144.798 0 1
144.914 0 1
145.03 0 1
145.146 4756 68.9638
145.262 4734 68.8041
145.378 4751 68.9275
145.494 4769 69.0579
145.61 4500 67.082
145.726 4822 69.4406
145.842 4705 68.593
145.959 4474 66.888
146.075 4475 66.8954
146.192 4488 66.9925
146.308 4463 66.8057
146.425 4405 66.3702
146.541 4457 66.7608
146.658 4560 67.5278
146.774 4457 66.7608
146.891 4582 67.6905
147.008 4605 67.8602
147.125 4552 67.4685
147.241 4616 67.9412
147.358 4269 65.3376
147.475 4122 64.2028
147.592 4000 63.2456
147.709 3710 60.9098
147.826 3505 59.203
147.943 3446 58.7026
148.06 3767 61.3759
148.177 4114 64.1405
148.294 4306 65.6201
148.411 4402 66.3476
148.528 4505 67.1193
148.645 4483 66.9552
148.762 4460 66.7832
148.88 4507 67.1342
148.997 4314 65.681
149.114 4428 66.5432
149.231 4337 65.8559
149.349 4482 66.9477
149.466 4219 64.9538
149.583 4239 65.1076
149.701 4205 64.846
149.818 4254 65.2227
149.935 4199 64.7997
150.053 4175 64.6142
150.17 4191 64.7379
150.287 4176 64.622
150.405 4253 65.215
150.522 4220 64.9615
150.64 4233 65.0615
150.757 4380 66.1816
150.875 4278 65.4064
150.992 4162 64.5136
151.11 3966 62.9762
151.227 4003 63.2693
151.344 3588 59.8999
151.462 3354 57.9137
151.579 3401 58.3181
151.697 3696 60.7947
151.814 4051 63.6475
151.932 4248 65.1767
152.049 4408 66.3928
152.167 4440 66.6333
152.284 4441 66.6408
152.402 4440 66.6333
152.519 4477 66.9104
152.636 4380 66.1816
152.754 4359 66.0227
152.871 4426 66.5282
152.989 4290 65.4981
153.106 4250 65.192
153.223 4023 63.4271
153.341 4051 63.6475
153.458 4176 64.622
153.575 4160 64.4981
153.693 4173 64.5988
153.81 4155 64.4593
153.927 4152 64.436
154.044 4269 65.3376
154.162 4207 64.8614
154.279 4375 66.1438
154.396 4448 66.6933
154.513 4345 65.9166
154.63 4360 66.0303
154.747 4195 64.7688
154.864 4212 64.8999
154.981 3932 62.7057
155.098 3479 58.983
155.215 3579 59.8247
155.332 3910 62.53
155.449 4086 63.9218
155.566 4210 64.8845
155.683 4496 67.0522
155.8 4361 66.0379
155.917 4538 67.3647
156.033 4500 67.082
156.15 0 1
156.267 0 1
156.383 0 1
156.5 0 1
156.617 0 1
156.733 0 1
156.85 0 1
156.966 0 1
157.082 0 1
157.199 0 1
157.315 0 1
157.431 0 1
157.547 0 1
157.664 0 1
157.78 0 1
157.896 0 1
158.012 0 1
158.128 0 1
158.244 0 1
158.359 0 1
158.475 0 1
158.591 0 1
158.706 0 1
