
6.15755 0 1
6.2731 0 1
6.3887 0 1
6.50437 0 1
6.62009 0 1
6.73587 0 1
6.8517 0 1
6.96759 0 1
7.08353 0 1
7.19952 0 1
7.31557 0 1
7.43166 0 1
7.54781 0 1
7.664 0 1
7.78024 0 1
7.89653 0 1
8.01286 0 1
8.12924 0 1
8.24567 0 1
8.36213 0 1
8.47864 0 1
8.59519 0 1
8.71178 0 1
8.82841 0 1
8.94508 0 1
9.06179 0 1
9.17853 0 1
9.29531 0 1
9.41212 0 1
9.52897 0 1
9.64584 0 1
9.76276 0 1
9.8797 0 1
9.99667 0 1
10.1137 0 1
10.2307 0 1
10.3478 0 1
10.4648 0 1
10.5819 0 1
10.6991 0 1
10.8162 0 1
10.9334 0 1
11.0506 0 1
11.1678 0 1
11.285 0 1
11.4023 0 1
11.5196 0 1
11.6369 0 1
11.7542 0 1
11.8715 0 1
11.9888 0 1
12.1062 0 1
12.2235 0 1
12.3409 0 1
12.4582 0 1
12.5756 0 1
12.693 0 1
12.8104 0 1
12.9278 0 1
13.0452 0 1
13.1626 0 1
13.28 0 1
13.3974 0 1
13.5149 0 1
13.6323 0 1
13.7497 0 1
13.8671 0 1
13.9845 0 1
14.1019 0 1
14.2193 0 1
14.3367 0 1
14.4541 0 1
14.5714 0 1
14.6888 0 1
14.8062 0 1
14.9235 0 1
15.0408 1228 35.0428
15.1581 1312 36.2215
15.2755 1252 35.3836
15.3927 1273 35.6791
15.51 1264 35.5528
15.6273 1272 35.6651
15.7445 1232 35.0999
15.8617 1212 34.8138
15.9789 1226 35.0143
16.0961 1264 35.5528
16.2132 1195 34.5688
16.3304 1191 34.5109
16.4475 1218 34.8999
16.5646 1184 34.4093
16.6816 1263 35.5387
16.7986 1279 35.7631
16.9156 1244 35.2704
17.0326 1322 36.3593
17.1496 1314 36.2491
17.2665 1286 35.8608
17.3833 1278 35.7491
17.5002 1347 36.7015
17.617 1348 36.7151
17.7338 1378 37.1214
17.8505 1414 37.6032
17.9672 1460 38.2099
18.0839 1494 38.6523
18.2005 1573 39.6611
18.3171 1591 39.8873
18.4337 1634 40.4228
18.5502 1596 39.95
18.6666 1666 40.8167
18.7831 1671 40.8779
18.8994 1589 39.8623
19.0158 1501 38.7427
19.1321 1400 37.4166
19.2483 1433 37.855
19.3645 1271 35.6511
19.4806 1349 36.7287
19.5967 1266 35.5809
19.7128 1261 35.5106
19.8288 1217 34.8855
19.9447 1056 32.4962
20.0606 0 1
20.1764 0 1
20.2922 0 1
20.4079 0 1
20.5236 0 1
20.6392 0 1
20.7548 0 1
20.8702 0 1
23.3078 0 1
23.4233 0 1
23.539 0 1
23.6547 0 1
23.7704 0 1
23.8862 0 1
24.0021 0 1
24.118 0 1
24.234 0 1
24.35 0 1
24.4661 1215 34.8569
24.5822 1163 34.1028
24.6984 1220 34.9285
24.8146 1279 35.7631
24.9309 1245 35.2846
25.0472 1271 35.6511
25.1636 1236 35.1568
25.28 1303 36.0971
25.3965 1265 35.5668
25.513 1323 36.3731
25.6296 1371 37.027
25.7462 1366 36.9594
25.8628 1386 37.229
25.9795 1406 37.4967
26.0962 1432 37.8418
26.213 1456 38.1576
26.3298 1386 37.229
26.4466 1493 38.6394
26.5635 1458 38.1838
26.6804 1574 39.6737
26.7973 1567 39.5854
26.9143 1525 39.0512
27.0313 1589 39.8623
27.1483 1531 39.128
27.2653 1520 38.9872
27.3824 1487 38.5616
27.4996 1507 38.8201
27.6167 1485 38.5357
27.7339 1377 37.108
27.8511 1352 36.7696
27.9683 1289 35.9026
28.0855 1212 34.8138
28.2028 1339 36.5923
28.3201 1173 34.2491
28.4374 1138 33.7343
28.5547 1206 34.7275
28.6721 1274 35.6931
28.7894 1258 35.4683
28.9068 1247 35.3129
29.0242 1218 34.8999
29.1416 1370 37.0135
29.259 1208 34.7563
29.3764 1318 36.3043
29.4939 1264 35.5528
29.6113 1321 36.3456
29.7288 1287 35.8748
29.8463 1375 37.081
29.9638 1357 36.8375
30.0812 1390 37.2827
30.1987 1367 36.973
30.3162 1436 37.8946
30.4337 1485 38.5357
30.5512 1482 38.4968
30.6687 1478 38.4448
30.7862 1504 38.7814
30.9037 1408 37.5233
31.0212 1433 37.855
31.1387 1372 37.0405
31.2562 1327 36.428
31.3737 1283 35.819
31.4912 1231 35.0856
31.6087 1198 34.6121
31.7262 1157 34.0147
31.8436 1106 33.2566
31.9611 1161 34.0735
32.0785 1162 34.0881
32.1959 1185 34.4238
32.3134 1212 34.8138
32.4308 1185 34.4238
32.5482 1247 35.3129
32.6655 1306 36.1386
32.7829 1255 35.426
32.9002 1233 35.1141
33.0176 1244 35.2704
33.1349 1224 34.9857
33.2522 1311 36.2077
33.3694 1258 35.4683
33.4867 1354 36.7967
33.6039 1325 36.4005
33.7211 1326 36.4143
33.8383 1441 37.9605
33.9554 1399 37.4032
34.0725 1399 37.4032
34.1896 1335 36.5377
34.3067 1372 37.0405
34.4237 1387 37.2424
34.5407 1384 37.2022
34.6577 1322 36.3593
34.7746 1296 36
34.8915 1259 35.4824
35.0084 1152 33.9411
35.1252 1179 34.3366
35.242 1120 33.4664
35.3587 1085 32.9393
35.4755 1184 34.4093
35.5921 1124 33.5261
35.7088 1175 34.2783
35.8254 1157 34.0147
35.9419 1177 34.3074
36.0584 1242 35.242
36.1749 1276 35.7211
36.2913 1215 34.8569
36.4077 1165 34.1321
36.524 1211 34.7994
36.6403 1234 35.1283
36.7565 1219 34.9142
36.8727 1198 34.6121
36.9889 1221 34.9428
37.1049 1152 33.9411
37.221 0 1
37.3369 0 1
37.4529 0 1
37.5687 0 1
37.6845 0 1
37.8003 0 1
37.916 0 1
38.0316 0 1
38.1472 0 1
40.5851 0 1
40.7008 0 1
40.8164 0 1
40.9322 0 1
41.048 0 1
41.1639 0 1
41.2798 0 1
41.3958 0 1
41.5118 0 1
41.6279 0 1
41.744 983 31.3528
41.8602 1001 31.6386
41.9765 1128 33.5857
42.0928 1063 32.6037
42.2091 1066 32.6497
42.3255 1124 33.5261
42.4419 1103 33.2114
42.5584 1103 33.2114
42.675 1127 33.5708
42.7915 1154 33.9706
42.9081 1173 34.2491
43.0248 1156 34
43.1415 1177 34.3074
43.2582 1139 33.7491
43.375 1171 34.2199
43.4918 1152 33.9411
43.6087 1192 34.5254
43.7256 1191 34.5109
43.8425 1175 34.2783
43.9595 1086 32.9545
44.0765 1097 33.121
44.1935 976 31.241
44.3106 1096 33.1059
44.4277 1029 32.078
44.5448 1031 32.1092
44.6619 1006 31.7175
44.7791 983 31.3528
44.8963 996 31.5595
45.0136 985 31.3847
45.1308 927 30.4467
45.2481 946 30.7571
45.3654 984 31.3688
45.4827 930 30.4959
45.6001 898 29.9666
45.7174 916 30.2655
45.8348 873 29.5466
45.9522 867 29.4449
46.0697 834 28.8791
46.1871 781 27.9464
46.3046 797 28.2312
46.422 824 28.7054
46.5395 765 27.6586
46.657 790 28.1069
46.7745 807 28.4077
46.892 730 27.0185
47.0096 786 28.0357
47.1271 806 28.3901
47.2446 801 28.3019
47.3622 760 27.5681
47.4797 738 27.1662
47.5973 664 25.7682
47.7149 714 26.7208
47.8324 709 26.6271
47.95 693 26.3249
48.0675 702 26.4953
48.1851 657 25.632
48.3027 633 25.1595
48.4202 651 25.5147
48.5378 635 25.1992
48.6554 616 24.8193
48.7729 685 26.1725
48.8904 645 25.3969
49.008 654 25.5734
49.1255 676 26
49.243 648 25.4558
49.3605 684 26.1534
49.478 656 25.6125
49.5955 625 25
49.713 678 26.0384
49.8304 669 25.865
49.9479 650 25.4951
50.0653 647 25.4362
50.1827 689 26.2488
50.3001 748 27.3496
50.4175 732 27.0555
50.5348 775 27.8388
50.6521 776 27.8568
50.7694 814 28.5307
50.8867 827 28.7576
51.004 793 28.1603
51.1212 820 28.6356
51.2384 846 29.0861
51.3556 858 29.2916
51.4727 901 30.0167
51.5899 870 29.4958
51.707 848 29.1204
51.824 857 29.2746
51.9411 839 28.9655
52.0581 849 29.1376
52.175 864 29.3939
52.2919 936 30.5941
52.4088 858 29.2916
52.5257 812 28.4956
52.6425 803 28.3373
52.7593 832 28.8444
52.876 813 28.5132
52.9927 874 29.5635
53.1094 891 29.8496
53.226 953 30.8707
53.3426 856 29.2575
53.4591 945 30.7409
53.5756 980 31.305
53.692 967 31.0966
53.8084 967 31.0966
53.9248 1095 33.0908
54.0411 1085 32.9393
54.1573 1005 31.7017
54.2735 0 1
54.3896 0 1
54.5057 0 1
54.6217 0 1
54.7377 0 1
54.8537 0 1
54.9695 0 1
55.0853 0 1
55.2011 0 1
55.3168 0 1
55.4324 0 1
57.824 0 1
57.9396 0 1
58.0553 0 1
58.1711 0 1
58.2869 0 1
58.4028 0 1
58.5187 0 1
58.6347 0 1
58.7508 0 1
58.8669 0 1
58.983 1143 33.8083
59.0992 1213 34.8281
59.2155 1190 34.4964
59.3318 1288 35.8887
59.4482 1336 36.5513
59.5646 1325 36.4005
59.681 1361 36.8917
59.7975 1337 36.565
59.9141 1422 37.7094
60.0306 1420 37.6829
60.1473 1307 36.1525
60.2639 1286 35.8608
60.3807 1216 34.8712
60.4974 1196 34.5832
60.6142 1198 34.6121
60.731 1108 33.2866
60.8479 1069 32.6956
60.9648 1099 33.1512
61.0818 980 31.305
61.1987 960 30.9839
61.3158 1054 32.4654
61.4328 1116 33.4066
61.5499 1027 32.0468
61.667 1094 33.0757
61.7841 1115 33.3916
61.9013 1063 32.6037
62.0185 1096 33.1059
62.1357 1179 34.3366
62.253 1144 33.8231
62.3702 1181 34.3657
62.4875 1158 34.0294
62.6049 1114 33.3766
62.7222 1162 34.0881
62.8396 1241 35.2278
62.9569 1242 35.242
63.0743 1357 36.8375
63.1918 1311 36.2077
63.3092 1320 36.3318
63.4267 1267 35.5949
63.5441 1342 36.6333
63.6616 1245 35.2846
63.7791 1220 34.9285
63.8966 1162 34.0881
64.0142 1167 34.1614
64.1317 1100 33.1662
64.2492 985 31.3847
64.3668 941 30.6757
64.4843 984 31.3688
64.6019 938 30.6268
64.7195 933 30.545
64.837 950 30.8221
64.9546 950 30.8221
65.0722 1014 31.8434
65.1898 1021 31.9531
65.3074 1009 31.7648
65.4249 1013 31.8277
65.5425 1049 32.3883
65.6601 1031 32.1092
65.7777 1041 32.2645
65.8952 1057 32.5115
66.0128 1080 32.8634
66.1304 1070 32.7109
66.2479 1142 33.7935
66.3655 1199 34.6266
66.483 1213 34.8281
66.6005 1242 35.242
66.718 1255 35.426
66.8355 1253 35.3977
66.953 1251 35.3695
67.0705 1224 34.9857
67.1879 1232 35.0999
67.3054 1181 34.3657
67.4228 1131 33.6303
67.5402 1078 32.8329
67.6576 1000 31.6228
67.7749 926 30.4302
67.8923 863 29.3769
68.0096 894 29.8998
68.1269 942 30.692
68.2442 925 30.4138
68.3614 877 29.6142
68.4787 926 30.4302
68.5958 973 31.1929
68.713 999 31.607
68.8302 1018 31.9061
68.9473 1005 31.7017
69.0643 1003 31.6702
69.1814 1027 32.0468
69.2984 1041 32.2645
69.4154 1145 33.8378
69.5323 1102 33.1964
69.6492 1156 34
69.7661 1249 35.3412
69.8829 1241 35.2278
69.9997 1311 36.2077
70.1165 1396 37.3631
70.2332 1292 35.9444
70.3499 1349 36.7287
70.4665 1418 37.6563
70.5831 1352 36.7696
70.6996 1393 37.3229
70.8161 1304 36.1109
70.9326 1210 34.7851
71.049 1081 32.8786
71.1653 1009 31.7648
71.2817 938 30.6268
71.3979 962 31.0161
71.5141 895 29.9166
71.6303 942 30.692
71.7464 844 29.0517
71.8624 0 1
71.9784 0 1
72.0944 0 1
72.2102 0 1
72.3261 0 1
72.4418 0 1
72.5575 0 1
72.6732 0 1
75.1054 0 1
75.2209 0 1
75.3365 0 1
75.4521 0 1
75.5678 0 1
75.6835 0 1
75.7993 0 1
75.9151 0 1
76.031 0 1
76.147 1134 33.6749
76.263 1142 33.7935
76.3791 1003 31.6702
76.4952 992 31.496
76.6113 975 31.225
76.7276 977 31.257
76.8438 1015 31.8591
76.9601 991 31.4802
77.0765 958 30.9516
77.1929 991 31.4802
77.3093 987 31.4166
77.4258 1000 31.6228
77.5423 1012 31.8119
77.6589 1054 32.4654
77.7755 1037 32.2025
77.8921 978 31.273
78.0088 1053 32.45
78.1256 1005 31.7017
78.2423 1054 32.4654
78.3591 1160 34.0588
78.4759 1187 34.4529
78.5928 1187 34.4529
78.7097 1237 35.171
78.8266 1238 35.1852
78.9436 1379 37.1349
79.0606 1336 36.5513
79.1776 1294 35.9722
79.2946 1316 36.2767
79.4117 1321 36.3456
79.5288 1353 36.7831
79.6459 1294 35.9722
79.7631 1211 34.7994
79.8802 1161 34.0735
79.9974 1101 33.1813
80.1147 1036 32.187
80.2319 968 31.1127
80.3491 1003 31.6702
80.4664 966 31.0805
80.5837 1012 31.8119
80.701 974 31.209
80.8183 971 31.1609
80.9357 1005 31.7017
81.053 974 31.209
81.1704 1068 32.6803
81.2877 1037 32.2025
81.4051 1093 33.0606
81.5225 1011 31.7962
81.6399 1052 32.4345
81.7573 1085 32.9393
81.8747 1036 32.187
81.9922 1110 33.3167
82.1096 1094 33.0757
82.227 1224 34.9857
82.3444 1275 35.7071
82.4619 1345 36.6742
82.5793 1319 36.318
82.6967 1346 36.6879
82.8142 1372 37.0405
82.9316 1377 37.108
83.049 1417 37.6431
83.1664 1418 37.6563
83.2838 1248 35.327
83.4012 1195 34.5688
83.5186 1121 33.4813
83.636 1051 32.4191
83.7534 1013 31.8277
83.8708 1107 33.2716
83.9881 1120 33.4664
84.1055 975 31.225
84.2228 1053 32.45
84.3401 1003 31.6702
84.4575 1009 31.7648
84.5747 1005 31.7017
84.692 1075 32.7872
84.8093 1119 33.4515
84.9265 1173 34.2491
85.0437 1142 33.7935
85.1609 1088 32.9848
85.2781 1057 32.5115
85.3952 1171 34.2199
85.5123 1141 33.7787
85.6294 1122 33.4963
85.7465 1228 35.0428
85.8636 1242 35.242
85.9806 1321 36.3456
86.0976 1367 36.973
86.2145 1458 38.1838
86.3315 1445 38.0132
86.4484 1376 37.0945
86.5652 1488 38.5746
86.682 1499 38.7169
86.7988 1390 37.2827
86.9156 1293 35.9583
87.0323 1350 36.7423
87.149 1214 34.8425
87.2657 1136 33.7046
87.3823 1154 33.9706
87.4988 1114 33.3766
87.6154 1098 33.1361
87.7318 1085 32.9393
87.8483 1043 32.2955
87.9647 1092 33.0454
88.081 1101 33.1813
88.1973 1116 33.4066
88.3136 1186 34.4384
88.4298 1209 34.7707
88.546 1130 33.6155
88.6621 1098 33.1361
88.7781 1058 32.5269
88.8942 0 1
89.0101 0 1
89.126 0 1
89.2419 0 1
89.3577 0 1
89.4734 0 1
89.5891 0 1
89.7047 0 1
89.8203 0 1
89.9358 0 1
92.3269 0 1
92.4424 0 1
92.558 0 1
92.6736 0 1
92.7893 0 1
92.905 0 1
93.0208 0 1
93.1366 0 1
93.2525 0 1
93.3685 0 1
93.4845 0 1
93.6005 1070 32.7109
93.7167 1099 33.1512
93.8328 1098 33.1361
93.949 1019 31.9218
94.0653 1105 33.2415
94.1816 1070 32.7109
94.2979 1123 33.5112
94.4143 1086 32.9545
94.5307 1189 34.4819
94.6472 1246 35.2987
94.7637 1307 36.1525
94.8803 1326 36.4143
94.9969 1409 37.5366
95.1135 1439 37.9342
95.2302 1393 37.3229
95.3469 1383 37.1887
95.4637 1320 36.3318
95.5805 1374 37.0675
95.6973 1388 37.2559
95.8142 1424 37.7359
95.9311 1298 36.0278
96.048 1251 35.3695
96.1649 1224 34.9857
96.2819 1176 34.2929
96.3989 1168 34.176
96.516 1129 33.6006
96.633 1128 33.5857
96.7501 1158 34.0294
96.8673 1094 33.0757
96.9844 1140 33.7639
97.1016 1051 32.4191
97.2188 1075 32.7872
97.336 1190 34.4964
97.4532 1091 33.0303
97.5704 1089 33
97.6877 1091 33.0303
97.805 1018 31.9061
97.9223 1023 31.9844
98.0396 1021 31.9531
98.1569 1156 34
98.2743 1127 33.5708
98.3916 1181 34.3657
98.509 1218 34.8999
98.6264 1334 36.524
98.7438 1341 36.6197
98.8612 1394 37.3363
98.9786 1379 37.1349
99.096 1370 37.0135
99.2134 1352 36.7696
99.3308 1323 36.3731
99.4482 1292 35.9444
99.5656 1350 36.7423
99.6831 1267 35.5949
99.8005 1171 34.2199
99.9179 1114 33.3766
100.035 1123 33.5112
100.153 1074 32.7719
100.27 998 31.5911
100.388 1047 32.3574
100.505 1046 32.3419
100.622 1085 32.9393
100.74 1025 32.0156
100.857 1097 33.121
100.975 1180 34.3511
101.092 1067 32.665
101.209 1039 32.2335
101.327 1022 31.9687
101.444 1046 32.3419
101.561 1051 32.4191
101.679 1115 33.3916
101.796 1144 33.8231
101.913 1219 34.9142
102.03 1219 34.9142
102.148 1352 36.7696
102.265 1298 36.0278
102.382 1549 39.3573
102.499 1400 37.4166
102.616 1429 37.8021
102.733 1361 36.8917
102.851 1448 38.0526
102.968 1517 38.9487
103.085 1391 37.2961
103.202 1342 36.6333
103.319 1250 35.3553
103.436 1208 34.7563
103.552 1246 35.2987
103.669 1198 34.6121
103.786 1172 34.2345
103.903 1187 34.4529
104.02 1196 34.5832
104.137 1171 34.2199
104.253 1159 34.0441
104.37 1166 34.1467
104.487 1185 34.4238
104.603 1183 34.3948
104.72 1114 33.3766
104.836 1120 33.4664
104.953 1153 33.9559
105.069 1149 33.8969
105.186 1274 35.6931
105.302 1245 35.2846
105.418 1309 36.1801
105.535 1390 37.2827
105.651 1454 38.1314
105.767 1407 37.51
105.883 1416 37.6298
105.999 1366 36.9594
106.115 0 1
106.231 0 1
106.347 0 1
106.463 0 1
106.579 0 1
106.694 0 1
106.81 0 1
106.926 0 1
107.041 0 1
107.157 0 1
109.576 0 1
109.692 0 1
109.807 0 1
109.923 0 1
110.039 0 1
110.155 0 1
110.27 0 1
110.386 0 1
110.502 0 1
110.618 1237 35.171
110.735 1326 36.4143
110.851 1288 35.8887
110.967 1221 34.9428
111.083 1238 35.1852
111.199 1337 36.565
111.316 1258 35.4683
111.432 1361 36.8917
111.549 1268 35.609
111.665 1273 35.6791
111.782 1202 34.6699
111.898 1182 34.3802
112.015 1129 33.6006
112.132 1104 33.2265
112.248 1092 33.0454
112.365 1024 32
112.482 1078 32.8329
112.599 984 31.3688
112.716 965 31.0644
112.832 1026 32.0312
112.949 960 30.9839
113.066 928 30.4631
113.183 905 30.0832
113.3 932 30.5287
113.417 950 30.8221
113.534 841 29
113.652 938 30.6268
113.769 914 30.2324
113.886 972 31.1769
114.003 964 31.0483
114.12 1059 32.5423
114.238 1060 32.5576
114.355 1082 32.8938
114.472 1055 32.4808
114.589 1005 31.7017
114.707 954 30.8869
114.824 1033 32.1403
114.942 1106 33.2566
115.059 1007 31.7333
115.176 1045 32.3265
115.294 1044 32.311
115.411 938 30.6268
115.529 883 29.7153
115.646 866 29.4279
115.764 869 29.4788
115.881 884 29.7321
115.999 870 29.4958
116.116 811 28.4781
116.234 754 27.4591
116.351 725 26.9258
116.469 725 26.9258
116.586 774 27.8209
116.704 771 27.7669
116.821 737 27.1477
116.939 698 26.4197
117.056 707 26.5895
117.174 833 28.8617
117.291 760 27.5681
117.409 772 27.7849
117.526 840 28.9828
117.644 878 29.6311
117.761 866 29.4279
117.879 871 29.5127
117.996 848 29.1204
118.114 793 28.1603
118.231 810 28.4605
118.349 828 28.775
118.466 848 29.1204
118.584 881 29.6816
118.701 879 29.6479
118.819 899 29.9833
118.936 898 29.9666
119.053 899 29.9833
119.171 864 29.3939
119.288 870 29.4958
119.405 855 29.2404
119.523 852 29.189
119.64 873 29.5466
119.757 810 28.4605
119.875 807 28.4077
119.992 736 27.1293
120.109 781 27.9464
120.226 813 28.5132
120.343 766 27.6767
120.46 741 27.2213
120.578 800 28.2843
120.695 850 29.1548
120.812 863 29.3769
120.929 946 30.7571
121.046 957 30.9354
121.163 844 29.0517
121.279 904 30.0666
121.396 948 30.7896
121.513 907 30.1164
121.63 932 30.5287
121.747 901 30.0167
121.863 881 29.6816
121.98 892 29.8664
122.097 912 30.1993
122.213 1026 32.0312
122.33 1048 32.3728
122.446 1019 31.9218
122.563 1098 33.1361
122.679 1052 32.4345
122.795 1053 32.45
122.912 1081 32.8786
123.028 988 31.4325
123.144 1027 32.0468
123.26 972 31.1769
123.377 0 1
123.493 0 1
123.609 0 1
123.725 0 1
123.84 0 1
123.956 0 1
124.072 0 1
124.188 0 1
124.303 0 1
124.419 0 1
126.852 0 1
126.968 0 1
127.083 0 1
127.199 0 1
127.315 0 1
127.431 0 1
127.547 0 1
127.663 0 1
127.779 0 1
127.895 0 1
128.011 0 1
128.127 0 1
128.243 0 1
128.359 1258 35.4683
128.476 1181 34.3657
128.592 1196 34.5832
128.708 1175 34.2783
128.825 1122 33.4963
128.941 1109 33.3017
129.058 1013 31.8277
129.174 1042 32.28
129.291 1064 32.619
129.408 1074 32.7719
129.524 1105 33.2415
129.641 1043 32.2955
129.758 1045 32.3265
129.875 1045 32.3265
129.992 998 31.5911
130.108 1016 31.8748
130.225 1027 32.0468
130.342 1053 32.45
130.459 1068 32.6803
130.576 1028 32.0624
130.693 925 30.4138
130.81 843 29.0345
130.928 756 27.4955
131.045 906 30.0998
131.162 1022 31.9687
131.279 1047 32.3574
131.396 1107 33.2716
131.513 1037 32.2025
131.631 1152 33.9411
131.748 1116 33.4066
131.865 1066 32.6497
131.983 1029 32.078
132.1 1023 31.9844
132.217 1073 32.7567
132.335 970 31.1448
132.452 983 31.3528
132.57 899 29.9833
132.687 952 30.8545
132.804 983 31.3528
132.922 962 31.0161
133.039 915 30.249
133.157 903 30.05
133.274 894 29.8998
133.392 912 30.1993
133.509 862 29.3598
133.627 878 29.6311
133.744 884 29.7321
133.862 897 29.95
133.979 870 29.4958
134.097 840 28.9828
134.214 808 28.4253
134.332 603 24.5561
134.449 590 24.2899
134.567 701 26.4764
134.684 821 28.6531
134.802 845 29.0689
134.919 850 29.1548
135.037 827 28.7576
135.154 819 28.6182
135.272 797 28.2312
135.389 861 29.3428
135.507 770 27.7489
135.624 815 28.5482
135.742 784 28
135.859 789 28.0891
135.977 756 27.4955
136.094 716 26.7582
136.211 764 27.6405
136.329 757 27.5136
136.446 741 27.2213
136.564 667 25.8263
136.681 688 26.2298
136.798 729 27
136.915 723 26.8887
137.033 683 26.1343
137.15 633 25.1595
137.267 670 25.8844
137.384 682 26.1151
137.502 682 26.1151
137.619 640 25.2982
137.736 662 25.7294
137.853 518 22.7596
137.97 474 21.7715
138.087 548 23.4094
138.204 621 24.9199
138.321 687 26.2107
138.438 734 27.0924
138.555 745 27.2947
138.672 773 27.8029
138.788 740 27.2029
138.905 784 28
139.022 763 27.6225
139.139 789 28.0891
139.255 822 28.6705
139.372 827 28.7576
139.488 800 28.2843
139.605 836 28.9137
139.721 797 28.2312
139.838 849 29.1376
139.954 812 28.4956
140.071 753 27.4408
140.187 788 28.0713
140.303 759 27.55
140.419 797 28.2312
140.535 821 28.6531
140.652 787 28.0535
140.768 0 1
140.884 0 1
141 0 1
141.115 0 1
141.231 0 1
141.347 0 1
141.463 0 1
141.578 0 1
141.694 0 1
144.104 0 1
144.219 0 1
144.335 0 1
144.45 0 1
144.566 0 1
144.682 0 1
144.798 0 1
144.914 0 1
145.03 0 1
145.146 714 26.7208
145.262 702 26.4953
145.378 688 26.2298
145.494 712 26.6833
145.61 692 26.3059
145.726 614 24.779
145.842 642 25.3377
145.959 635 25.1992
146.075 637 25.2389
146.192 641 25.318
146.308 637 25.2389
146.425 600 24.4949
146.541 536 23.1517
146.658 458 21.4009
146.774 472 21.7256
146.891 506 22.4944
147.008 557 23.6008
147.125 613 24.7588
147.241 571 23.8956
147.358 614 24.779
147.475 586 24.2074
147.592 557 23.6008
147.709 604 24.5764
147.826 551 23.4734
147.943 552 23.4947
148.06 537 23.1733
148.177 528 22.9783
148.294 556 23.5797
148.411 515 22.6936
148.528 525 22.9129
148.645 545 23.3452
148.762 535 23.1301
148.88 508 22.5389
148.997 519 22.7816
149.114 457 21.3776
149.231 502 22.4054
149.349 473 21.7486
149.466 540 23.2379
149.583 494 22.2261
149.701 487 22.0681
149.818 447 21.1424
149.935 427 20.664
150.053 412 20.2978
150.17 410 20.2485
150.287 369 19.2094
150.405 380 19.4936
150.522 457 21.3776
150.64 442 21.0238
150.757 465 21.5639
150.875 496 22.2711
150.992 474 21.7715
151.11 491 22.1585
151.227 458 21.4009
151.344 482 21.9545
151.462 481 21.9317
151.579 460 21.4476
151.697 462 21.4942
151.814 484 22
151.932 476 21.8174
152.049 471 21.7025
152.167 432 20.7846
152.284 471 21.7025
152.402 461 21.4709
152.519 442 21.0238
152.636 409 20.2237
152.754 430 20.7364
152.871 472 21.7256
152.989 435 20.8567
153.106 442 21.0238
153.223 486 22.0454
153.341 477 21.8403
153.458 463 21.5174
153.575 441 21
153.693 450 21.2132
153.81 437 20.9045
153.927 444 21.0713
154.044 438 20.9284
154.162 434 20.8327
154.279 538 23.1948
154.396 477 21.8403
154.513 503 22.4277
154.63 567 23.8118
154.747 579 24.0624
154.864 555 23.5584
154.981 491 22.1585
155.098 543 23.3024
155.215 543 23.3024
155.332 538 23.1948
155.449 576 24
155.566 500 22.3607
155.683 562 23.7065
155.8 524 22.891
155.917 524 22.891
156.033 489 22.1133
156.15 0 1
156.267 0 1
156.383 0 1
156.5 0 1
156.617 0 1
156.733 0 1
156.85 0 1
156.966 0 1
157.082 0 1
157.199 0 1
157.315 0 1
157.431 0 1
157.547 0 1
157.664 0 1
157.78 0 1
157.896 0 1
158.012 0 1
158.128 0 1
158.244 0 1
158.359 0 1
158.475 0 1
158.591 0 1
158.706 0 1
