
6.15755 0 1
6.2731 0 1
6.3887 0 1
6.50437 0 1
6.62009 0 1
6.73587 0 1
6.8517 0 1
6.96759 0 1
7.08353 0 1
7.19952 0 1
7.31557 0 1
7.43166 0 1
7.54781 0 1
7.664 0 1
7.78024 0 1
7.89653 0 1
8.01286 0 1
8.12924 0 1
8.24567 0 1
8.36213 0 1
8.47864 0 1
8.59519 0 1
8.71178 0 1
8.82841 0 1
8.94508 0 1
9.06179 0 1
9.17853 0 1
9.29531 0 1
9.41212 0 1
9.52897 0 1
9.64584 0 1
9.76276 0 1
9.8797 0 1
9.99667 0 1
10.1137 0 1
10.2307 0 1
10.3478 0 1
10.4648 0 1
10.5819 0 1
10.6991 0 1
10.8162 0 1
10.9334 0 1
11.0506 0 1
11.1678 0 1
11.285 0 1
11.4023 0 1
11.5196 0 1
11.6369 0 1
11.7542 0 1
11.8715 0 1
11.9888 0 1
12.1062 0 1
12.2235 0 1
12.3409 0 1
12.4582 0 1
12.5756 0 1
12.693 0 1
12.8104 0 1
12.9278 0 1
13.0452 0 1
13.1626 0 1
13.28 0 1
13.3974 0 1
13.5149 0 1
13.6323 0 1
13.7497 0 1
13.8671 0 1
13.9845 0 1
14.1019 0 1
14.2193 0 1
14.3367 0 1
14.4541 0 1
14.5714 0 1
14.6888 0 1
14.8062 0 1
14.9235 0 1
15.0408 0 0
15.1581 0 0
15.2755 0 0
15.3927 0 0
15.51 0 0
15.6273 0 0
15.7445 0 0
15.8617 0 0
15.9789 0 0
16.0961 0 0
16.2132 0 0
16.3304 0 0
16.4475 0 0
16.5646 0 0
16.6816 0 0
16.7986 0 0
16.9156 0 0
17.0326 0 0
17.1496 0 0
17.2665 0 0
17.3833 0 0
17.5002 0 0
17.617 0 0
17.7338 0 0
17.8505 0 0
17.9672 0 0
18.0839 0 0
18.2005 0 0
18.3171 0 0
18.4337 0 0
18.5502 0 0
18.6666 0 0
18.7831 0 0
18.8994 0 0
19.0158 0 0
19.1321 0 0
19.2483 0 0
19.3645 0 0
19.4806 0 0
19.5967 0 0
19.7128 0 0
19.8288 0 0
19.9447 0 0
20.0606 0 1
20.1764 0 1
20.2922 0 1
20.4079 0 1
20.5236 0 1
20.6392 0 1
20.7548 0 1
20.8702 0 1
23.3078 0 1
23.4233 0 1
23.539 0 1
23.6547 0 1
23.7704 0 1
23.8862 0 1
24.0021 0 1
24.118 0 1
24.234 0 1
24.35 0 1
24.4661 231432 481.074
24.5822 237910 487.76
24.6984 244254 494.221
24.8146 249886 499.886
24.9309 258208 508.142
25.0472 264741 514.53
25.1636 272031 521.566
25.28 278909 528.118
25.3965 281132 530.219
25.513 282571 531.574
25.6296 285730 534.537
25.7462 285758 534.563
25.8628 283313 532.272
25.9795 280885 529.986
26.0962 276106 525.458
26.213 274310 523.746
26.3298 265315 515.087
26.4466 261942 511.803
26.5635 256074 506.038
26.6804 248780 498.779
26.7973 238139 487.995
26.9143 227595 477.069
27.0313 215649 464.38
27.1483 211786 460.202
27.2653 209070 457.242
27.3824 206641 454.578
27.4996 200612 447.897
27.6167 191972 438.146
27.7339 181653 426.208
27.8511 170209 412.564
27.9683 162789 403.471
28.0855 157851 397.305
28.2028 154818 393.469
28.3201 156475 395.569
28.4374 155466 394.292
28.5547 156839 396.029
28.6721 158532 398.161
28.7894 160665 400.83
28.9068 161197 401.493
29.0242 161867 402.327
29.1416 161074 401.34
29.259 160197 400.246
29.3764 158957 398.694
29.4939 157354 396.679
29.6113 156313 395.364
29.7288 155280 394.056
29.8463 152371 390.347
29.9638 151641 389.411
30.0812 150354 387.755
30.1987 149040 386.057
30.3162 146063 382.182
30.4337 141626 376.332
30.5512 138432 372.065
30.6687 135983 368.759
30.7862 133739 365.703
30.9037 137008 370.146
31.0212 136714 369.749
31.1387 134611 366.894
31.2562 130308 360.982
31.3737 125100 353.695
31.4912 120639 347.331
31.6087 118598 344.381
31.7262 117995 343.504
31.8436 119271 345.356
31.9611 120832 347.609
32.0785 124720 353.157
32.1959 128782 358.862
32.3134 132532 364.049
32.4308 134708 367.026
32.5482 137417 370.698
32.6655 138737 372.474
32.7829 137827 371.251
32.9002 138722 372.454
33.0176 138665 372.377
33.1349 138398 372.019
33.2522 136333 369.233
33.3694 139684 373.743
33.4867 138086 371.599
33.6039 137485 370.79
33.7211 137050 370.203
33.8383 136847 369.928
33.9554 135488 368.087
34.0725 132759 364.361
34.1896 129038 359.219
34.3067 127569 357.168
34.4237 126006 354.973
34.5407 125030 353.596
34.6577 126166 355.199
34.7746 124559 352.929
34.8915 121223 348.171
35.0084 116606 341.476
35.1252 112180 334.933
35.242 109525 330.946
35.3587 108760 329.788
35.4755 110013 331.682
35.5921 112954 336.086
35.7088 116144 340.799
35.8254 119542 345.748
35.9419 123898 351.991
36.0584 126886 356.211
36.1749 128902 359.029
36.2913 130483 361.224
36.4077 130676 361.491
36.524 132091 363.443
36.6403 131352 362.425
36.7565 130877 361.769
36.8727 131757 362.983
36.9889 131598 362.764
37.1049 129964 360.505
37.221 0 1
37.3369 0 1
37.4529 0 1
37.5687 0 1
37.6845 0 1
37.8003 0 1
37.916 0 1
38.0316 0 1
38.1472 0 1
40.5851 0 1
40.7008 0 1
40.8164 0 1
40.9322 0 1
41.048 0 1
41.1639 0 1
41.2798 0 1
41.3958 0 1
41.5118 0 1
41.6279 0 1
41.744 105535 324.862
41.8602 110197 331.959
41.9765 110808 332.878
42.0928 110970 333.122
42.2091 110365 332.212
42.3255 110907 333.027
42.4419 110319 332.143
42.5584 109689 331.193
42.675 108997 330.147
42.7915 108932 330.048
42.9081 106192 325.871
43.0248 103150 321.17
43.1415 101227 318.162
43.2582 99357 315.209
43.375 100011 316.245
43.4918 100425 316.899
43.6087 98240 313.433
43.7256 94145 306.831
43.8425 88625 297.7
43.9595 84901 291.378
44.0765 83344 288.694
44.1935 82858 287.851
44.3106 83672 289.261
44.4277 85452 292.322
44.5448 87594 295.963
44.6619 89408 299.012
44.7791 91376 302.285
44.8963 91793 302.974
45.0136 90602 301.002
45.1308 89732 299.553
45.2481 88514 297.513
45.3654 87276 295.425
45.4827 86886 294.764
45.6001 85744 292.821
45.7174 85610 292.592
45.8348 84640 290.93
45.9522 84319 290.377
46.0697 83479 288.927
46.1871 81761 285.939
46.3046 80967 284.547
46.422 80260 283.302
46.5395 78303 279.827
46.657 76534 276.648
46.7745 73930 271.901
46.892 72289 268.866
47.0096 72131 268.572
47.1271 72280 268.849
47.2446 71190 266.815
47.3622 67124 259.083
47.4797 63566 252.123
47.5973 60001 244.951
47.7149 59397 243.715
47.8324 59272 243.458
47.95 59886 244.716
48.0675 63471 251.935
48.1851 63955 252.893
48.3027 65608 256.141
48.4202 66373 257.63
48.5378 65808 256.531
48.6554 65680 256.281
48.7729 65167 255.278
48.8904 65073 255.094
49.008 65555 256.037
49.1255 65728 256.375
49.243 65518 255.965
49.3605 66152 257.2
49.478 66172 257.239
49.5955 66425 257.73
49.713 67026 258.894
49.8304 67279 259.382
49.9479 68366 261.469
50.0653 68376 261.488
50.1827 68014 260.795
50.3001 66938 258.724
50.4175 65879 256.669
50.5348 67027 258.896
50.6521 68107 260.973
50.7694 68888 262.465
50.8867 67756 260.3
51.004 66568 258.008
51.1212 66939 258.726
51.2384 68970 262.621
51.3556 71634 267.645
51.4727 75976 275.637
51.5899 81236 285.019
51.707 85575 292.532
51.824 89164 298.603
51.9411 90104 300.173
52.0581 92544 304.21
52.175 93870 306.382
52.2919 94412 307.265
52.4088 96342 310.39
52.5257 97836 312.787
52.6425 99363 315.219
52.7593 100325 316.741
52.876 102476 320.119
52.9927 103279 321.371
53.1094 104858 323.818
53.226 105550 324.885
53.3426 106665 326.596
53.4591 108225 328.976
53.5756 108517 329.419
53.692 108992 330.139
53.8084 107682 328.149
53.9248 105346 324.57
54.0411 104146 322.717
54.1573 103459 321.65
54.2735 0 1
54.3896 0 1
54.5057 0 1
54.6217 0 1
54.7377 0 1
54.8537 0 1
54.9695 0 1
55.0853 0 1
55.2011 0 1
55.3168 0 1
55.4324 0 1
57.824 0 1
57.9396 0 1
58.0553 0 1
58.1711 0 1
58.2869 0 1
58.4028 0 1
58.5187 0 1
58.6347 0 1
58.7508 0 1
58.8669 0 1
58.983 124059 352.22
59.0992 123817 351.876
59.2155 121339 348.337
59.3318 119164 345.201
59.4482 115991 340.575
59.5646 112227 335.003
59.681 109317 330.631
59.7975 108107 328.796
59.9141 108824 329.885
60.0306 111559 334.004
60.1473 116594 341.459
60.2639 119989 346.394
60.3807 121105 348.001
60.4974 121156 348.075
60.6142 121246 348.204
60.731 122189 349.555
60.8479 119778 346.09
60.9648 119588 345.815
61.0818 119654 345.91
61.1987 118365 344.042
61.3158 119140 345.167
61.4328 118197 343.798
61.5499 117383 342.612
61.667 116997 342.048
61.7841 116929 341.949
61.9013 116868 341.86
62.0185 115705 340.154
62.1357 115401 339.707
62.253 115374 339.667
62.3702 114261 338.025
62.4875 113248 336.523
62.6049 110272 332.072
62.7222 109439 330.816
62.8396 105748 325.189
62.9569 103016 320.961
63.0743 99485 315.412
63.1918 95653 309.278
63.3092 93960 306.529
63.4267 96277 310.285
63.5441 100489 317
63.6616 104515 323.288
63.7791 106806 326.812
63.8966 108027 328.675
64.0142 108421 329.273
64.1317 107729 328.221
64.2492 107039 327.168
64.3668 106210 325.899
64.4843 105606 324.971
64.6019 105179 324.313
64.7195 105327 324.541
64.837 104790 323.713
64.9546 104843 323.795
65.0722 103677 321.989
65.1898 103275 321.364
65.3074 104770 323.682
65.4249 102688 320.45
65.5425 102785 320.601
65.6601 103384 321.534
65.7777 102821 320.657
65.8952 102713 320.489
66.0128 102785 320.601
66.1304 100850 317.569
66.2479 98827 314.368
66.3655 97056 311.538
66.483 94123 306.795
66.6005 92169 303.593
66.718 87010 294.975
66.8355 85081 291.686
66.953 86175 293.556
67.0705 90158 300.263
67.1879 95130 308.432
67.3054 98372 313.643
67.4228 99600 315.595
67.5402 99969 316.179
67.6576 99890 316.054
67.7749 100731 317.381
67.8923 99967 316.176
68.0096 99739 315.815
68.1269 99881 316.04
68.2442 100540 317.08
68.3614 100614 317.197
68.4787 101192 318.107
68.5958 100402 316.863
68.713 100957 317.737
68.8302 100782 317.462
68.9473 101918 319.246
69.0643 100745 317.404
69.1814 101874 319.177
69.2984 102988 320.917
69.4154 102277 319.808
69.5323 103013 320.956
69.6492 103702 322.028
69.7661 103718 322.053
69.8829 103678 321.991
69.9997 101597 318.743
70.1165 98820 314.356
70.2332 95306 308.717
70.3499 89701 299.501
70.4665 85738 292.811
70.5831 86234 293.656
70.6996 91977 303.277
70.8161 97513 312.271
70.9326 100654 317.26
71.049 102051 319.454
71.1653 101928 319.262
71.2817 101826 319.102
71.3979 99957 316.16
71.5141 98998 314.639
71.6303 96863 311.228
71.7464 89242 298.734
71.8624 0 1
71.9784 0 1
72.0944 0 1
72.2102 0 1
72.3261 0 1
72.4418 0 1
72.5575 0 1
72.6732 0 1
75.1054 0 1
75.2209 0 1
75.3365 0 1
75.4521 0 1
75.5678 0 1
75.6835 0 1
75.7993 0 1
75.9151 0 1
76.031 0 1
76.147 87986 296.624
76.263 96699 310.965
76.3791 98106 313.219
76.4952 97655 312.498
76.6113 97702 312.573
76.7276 96841 311.193
76.8438 97403 312.095
76.9601 96553 310.73
77.0765 96860 311.223
77.1929 96650 310.886
77.3093 97599 312.408
77.4258 97395 312.082
77.5423 96441 310.55
77.6589 96332 310.374
77.7755 95514 309.053
77.8921 95156 308.474
78.0088 95455 308.958
78.1256 93660 306.039
78.2423 93749 306.185
78.3591 92954 304.884
78.4759 92951 304.879
78.5928 92194 303.635
78.7097 92256 303.737
78.8266 92613 304.324
78.9436 93510 305.794
79.0606 90459 300.764
79.1776 83571 289.086
79.2946 77325 278.074
79.4117 73635 271.358
79.5288 75108 274.058
79.6459 82324 286.922
79.7631 85839 292.983
79.8802 86746 294.527
79.9974 86039 293.324
80.1147 85147 291.8
80.2319 84846 291.283
80.3491 84549 290.773
80.4664 83690 289.292
80.5837 83219 288.477
80.701 81867 286.124
80.8183 81620 285.692
80.9357 82730 287.628
81.053 81804 286.014
81.1704 81480 285.447
81.2877 81282 285.1
81.4051 79992 282.829
81.5225 80360 283.478
81.6399 77870 279.052
81.7573 78648 280.443
81.8747 76981 277.455
81.9922 76585 276.74
82.1096 76843 277.206
82.227 76503 276.592
82.3444 75617 274.985
82.4619 76169 275.987
82.5793 77099 277.667
82.6967 74038 272.099
82.8142 71466 267.331
82.9316 62462 249.924
83.049 52631 229.414
83.1664 55544 235.678
83.2838 64794 254.547
83.4012 68084 260.929
83.5186 68346 261.431
83.636 67689 260.171
83.7534 67080 258.998
83.8708 65947 256.801
83.9881 65760 256.437
84.1055 64851 254.659
84.2228 64891 254.737
84.3401 64364 253.701
84.4575 64262 253.5
84.5747 63943 252.87
84.692 64595 254.155
84.8093 64618 254.201
84.9265 63410 251.813
85.0437 63207 251.41
85.1609 63030 251.058
85.2781 62630 250.26
85.3952 62593 250.186
85.5123 62342 249.684
85.6294 62460 249.92
85.7465 62746 250.492
85.8636 62584 250.168
85.9806 62383 249.766
86.0976 63121 251.239
86.2145 63246 251.488
86.3315 62819 250.637
86.4484 61036 247.055
86.5652 53731 231.799
86.682 51977 227.985
86.7988 58167 241.178
86.9156 59292 243.499
87.0323 59042 242.986
87.149 56956 238.655
87.2657 57432 239.65
87.3823 56389 237.464
87.4988 55102 234.738
87.6154 54219 232.85
87.7318 53108 230.452
87.8483 51736 227.455
87.9647 50998 225.827
88.081 50689 225.142
88.1973 49864 223.302
88.3136 48376 219.945
88.4298 47146 217.131
88.546 45415 213.108
88.6621 43427 208.391
88.7781 41900 204.695
88.8942 0 1
89.0101 0 1
89.126 0 1
89.2419 0 1
89.3577 0 1
89.4734 0 1
89.5891 0 1
89.7047 0 1
89.8203 0 1
89.9358 0 1
92.3269 0 1
92.4424 0 1
92.558 0 1
92.6736 0 1
92.7893 0 1
92.905 0 1
93.0208 0 1
93.1366 0 1
93.2525 0 1
93.3685 0 1
93.4845 0 1
93.6005 34443 185.588
93.7167 36460 190.945
93.8328 37554 193.789
93.949 38553 196.349
94.0653 39285 198.204
94.1816 40044 200.11
94.2979 40571 201.422
94.4143 41534 203.799
94.5307 42471 206.085
94.6472 42919 207.169
94.7637 43516 208.605
94.8803 44243 210.34
94.9969 44537 211.038
95.1135 45382 213.031
95.2302 46167 214.865
95.3469 46086 214.677
95.4637 45032 212.207
95.5805 43094 207.591
95.6973 38739 196.822
95.8142 36159 190.155
95.9311 41262 203.13
96.048 45678 213.724
96.1649 46839 216.423
96.2819 47152 217.145
96.3989 47344 217.587
96.516 47693 218.387
96.633 47691 218.383
96.7501 48336 219.854
96.8673 48468 220.154
96.9844 48815 220.941
97.1016 49855 223.282
97.2188 51078 226.004
97.336 51941 227.906
97.4532 53051 230.328
97.5704 53730 231.797
97.6877 53849 232.054
97.805 54213 232.837
97.9223 54622 233.713
98.0396 55154 234.849
98.1569 56153 236.966
98.2743 56850 238.432
98.3916 57019 238.787
98.509 58824 242.537
98.6264 59463 243.85
98.7438 61106 247.196
98.8612 62137 249.273
98.9786 62679 250.358
99.096 62387 249.774
99.2134 59450 243.824
99.3308 57918 240.662
99.4482 61359 247.707
99.5656 65431 255.795
99.6831 67389 259.594
99.8005 67615 260.029
99.9179 68773 262.246
100.035 69111 262.89
100.153 69628 263.871
100.27 70304 265.149
100.388 71080 266.608
100.505 71464 267.328
100.622 72738 269.7
100.74 73762 271.592
100.857 74804 273.503
100.975 76050 275.772
101.092 76879 277.271
101.209 77631 278.623
101.327 78238 279.711
101.444 78709 280.551
101.561 78487 280.155
101.679 79865 282.604
101.796 79384 281.752
101.913 80216 283.224
102.03 79780 282.454
102.148 80738 284.144
102.265 87557 295.9
102.382 77183 277.818
102.499 82458 287.155
102.616 81438 285.373
102.733 77206 277.86
102.851 72755 269.731
102.968 73949 271.936
103.085 77618 278.6
103.202 79486 281.933
103.319 80044 282.92
103.436 79718 282.344
103.552 79352 281.695
103.669 78091 279.448
103.786 77811 278.946
103.903 77620 278.604
104.02 77498 278.385
104.137 76166 275.982
104.253 78007 279.297
104.37 74238 272.467
104.487 77129 277.721
104.603 75438 274.66
104.72 74902 273.682
104.836 74434 272.826
104.953 73611 271.313
105.069 72977 270.143
105.186 72986 270.159
105.302 72494 269.247
105.418 71003 266.464
105.535 71365 267.142
105.651 70753 265.994
105.767 70210 264.972
105.883 70214 264.979
105.999 70057 264.683
106.115 0 1
106.231 0 1
106.347 0 1
106.463 0 1
106.579 0 1
106.694 0 1
106.81 0 1
106.926 0 1
107.041 0 1
107.157 0 1
109.576 0 1
109.692 0 1
109.807 0 1
109.923 0 1
110.039 0 1
110.155 0 1
110.27 0 1
110.386 0 1
110.502 0 1
110.618 40775 201.928
110.735 41129 202.803
110.851 41317 203.266
110.967 41335 203.31
111.083 40182 200.454
111.199 39924 199.81
111.316 39595 198.985
111.432 38171 195.374
111.549 33603 183.311
111.665 30423 174.422
111.782 32303 179.73
111.898 34357 185.356
112.015 34504 185.753
112.132 33732 183.663
112.248 33555 183.18
112.365 32834 181.202
112.482 32438 180.106
112.599 31905 178.62
112.716 31399 177.198
112.832 31454 177.353
112.949 31306 176.935
113.066 31150 176.494
113.183 31078 176.29
113.3 30846 175.63
113.417 30471 174.559
113.534 30602 174.934
113.652 30621 174.989
113.769 31001 176.071
113.886 31316 176.963
114.003 30643 175.051
114.12 31341 177.034
114.238 31952 178.751
114.355 31489 177.451
114.472 30736 175.317
114.589 25396 159.361
114.707 27847 166.874
114.824 31473 177.406
114.942 32962 181.554
115.059 33460 182.921
115.176 31223 176.7
115.294 28599 169.112
115.411 29849 172.769
115.529 31395 177.186
115.646 32149 179.301
115.764 32646 180.682
115.881 31836 178.426
115.999 31944 178.729
116.116 32079 179.106
116.234 32150 179.304
116.351 32072 179.087
116.469 32665 180.735
116.586 32571 180.474
116.704 33209 182.233
116.821 33200 182.209
116.939 33699 183.573
117.056 33511 183.06
117.174 34300 185.203
117.291 34739 186.384
117.409 35024 187.147
117.526 35538 188.515
117.644 36373 190.717
117.761 36949 192.221
117.879 36781 191.784
117.996 34322 185.262
118.114 30039 173.318
118.231 27175 164.848
118.349 28832 169.8
118.466 35068 187.265
118.584 38958 197.378
118.701 40329 200.821
118.819 40027 200.067
118.936 38460 196.112
119.053 37185 192.834
119.171 38608 196.489
119.288 39647 199.116
119.405 40043 200.107
119.523 39772 199.429
119.64 40008 200.02
119.757 39577 198.94
119.875 40226 200.564
119.992 40100 200.25
120.109 40769 201.913
120.226 40989 202.457
120.343 41205 202.99
120.46 41610 203.985
120.578 41638 204.054
120.695 42335 205.755
120.812 43552 208.691
120.929 43987 209.731
121.046 44660 211.329
121.163 45369 213
121.279 45920 214.29
121.396 46622 215.921
121.513 46094 214.695
121.63 43269 208.012
121.747 39930 199.825
121.863 34793 186.529
121.98 32283 179.675
122.097 35008 187.104
122.213 42101 205.185
122.33 48107 219.333
122.446 49927 223.444
122.563 49876 223.329
122.679 50317 224.315
122.795 49656 222.836
122.912 49559 222.619
123.028 49973 223.546
123.144 50071 223.766
123.26 49954 223.504
123.377 0 1
123.493 0 1
123.609 0 1
123.725 0 1
123.84 0 1
123.956 0 1
124.072 0 1
124.188 0 1
124.303 0 1
124.419 0 1
126.852 0 1
126.968 0 1
127.083 0 1
127.199 0 1
127.315 0 1
127.431 0 1
127.547 0 1
127.663 0 1
127.779 0 1
127.895 0 1
128.011 0 1
128.127 0 1
128.243 0 1
128.359 68410 261.553
128.476 69375 263.391
128.592 69832 264.257
128.708 70508 265.533
128.825 70315 265.17
128.941 70974 266.409
129.058 70707 265.908
129.174 71171 266.779
129.291 72203 268.706
129.408 73070 270.315
129.524 72811 269.835
129.641 73456 271.028
129.758 74403 272.769
129.875 74467 272.886
129.992 75583 274.924
130.108 76515 276.613
130.225 75701 275.138
130.342 73750 271.57
130.459 69796 264.189
130.576 67287 259.397
130.693 61929 248.855
130.81 58760 242.405
130.928 58268 241.388
131.045 60150 245.255
131.162 67507 259.821
131.279 75668 275.078
131.396 80402 283.552
131.513 81993 286.344
131.631 82195 286.697
131.748 83415 288.817
131.865 82770 287.698
131.983 82559 287.331
132.1 83223 288.484
132.217 83446 288.87
132.335 82666 287.517
132.452 82908 287.937
132.57 84076 289.959
132.687 80658 284.004
132.804 86064 293.367
132.922 84327 290.391
133.039 84945 291.453
133.157 84896 291.369
133.274 85770 292.865
133.392 86847 294.698
133.509 87227 295.342
133.627 87334 295.523
133.744 86334 293.826
133.862 84238 290.238
133.979 80757 284.178
134.097 76408 276.42
134.214 73037 270.254
134.332 69451 263.536
134.449 69552 263.727
134.567 69965 264.509
134.684 74834 273.558
134.802 81096 284.774
134.919 87372 295.588
135.037 90849 301.412
135.154 91473 302.445
135.272 92235 303.702
135.389 93773 306.224
135.507 93297 305.446
135.624 93195 305.279
135.742 92768 304.578
135.859 93690 306.088
135.977 92391 303.959
136.094 92737 304.528
136.211 93332 305.503
136.329 93378 305.578
136.446 93945 306.504
136.564 93484 305.752
136.681 93232 305.339
136.798 94681 307.703
136.915 94869 308.008
137.033 95522 309.066
137.15 96286 310.3
137.267 95270 308.658
137.384 93401 305.616
137.502 90732 301.218
137.619 86848 294.7
137.736 82703 287.581
137.853 78880 280.856
137.97 78998 281.066
138.087 75513 274.796
138.204 79546 282.039
138.321 83522 289.002
138.438 89144 298.57
138.555 95391 308.854
138.672 98821 314.358
138.788 101242 318.185
138.905 101830 319.108
139.022 102643 320.379
139.139 103044 321.005
139.255 103132 321.142
139.372 103750 322.102
139.488 103422 321.593
139.605 103558 321.804
139.721 103380 321.528
139.838 103706 322.034
139.954 103352 321.484
140.071 102100 319.531
140.187 103727 322.067
140.303 102465 320.102
140.419 101569 318.699
140.535 102556 320.244
140.652 102157 319.62
140.768 0 1
140.884 0 1
141 0 1
141.115 0 1
141.231 0 1
141.347 0 1
141.463 0 1
141.578 0 1
141.694 0 1
144.104 0 1
144.219 0 1
144.335 0 1
144.45 0 1
144.566 0 1
144.682 0 1
144.798 0 1
144.914 0 1
145.03 0 1
145.146 93971 306.547
145.262 95611 309.21
145.378 96060 309.935
145.494 96020 309.871
145.61 96674 310.924
145.726 96073 309.956
145.842 95594 309.183
145.959 93622 305.977
146.075 90188 300.313
146.192 87506 295.814
146.308 84226 290.217
146.425 81172 284.907
146.541 79058 281.173
146.658 79049 281.157
146.774 79023 281.11
146.891 81560 285.587
147.008 85364 292.171
147.125 90379 300.631
147.241 91906 303.16
147.358 93021 304.993
147.475 96224 310.2
147.592 97500 312.25
147.709 98120 313.241
147.826 99005 314.651
147.943 98920 314.516
148.06 97101 311.61
148.177 98578 313.971
148.294 98181 313.338
148.411 97489 312.232
148.528 97395 312.082
148.645 96770 311.079
148.762 97142 311.676
148.88 97035 311.504
148.997 94822 307.932
149.114 99157 314.892
149.231 97320 311.962
149.349 97968 312.998
149.466 93919 306.462
149.583 93757 306.198
149.701 90014 300.023
149.818 88012 296.668
149.935 84670 290.981
150.053 82301 286.882
150.17 80950 284.517
150.287 81045 284.684
150.405 81384 285.279
150.522 83617 289.166
150.64 87730 296.193
150.757 91031 301.713
150.875 93034 305.015
150.992 92831 304.682
151.11 93781 306.237
151.227 96294 310.313
151.344 97733 312.623
151.462 97702 312.573
151.579 99712 315.772
151.697 98415 313.712
151.814 99169 314.911
151.932 99398 315.274
152.049 98565 313.951
152.167 98283 313.501
152.284 99070 314.754
152.402 98716 314.191
152.519 98430 313.736
152.636 99003 314.647
152.754 98463 313.788
152.871 98405 313.696
152.989 97599 312.408
153.106 95431 308.919
153.223 92995 304.951
153.341 90463 300.771
153.458 87583 295.944
153.575 85464 292.342
153.693 83519 288.997
153.81 83050 288.184
153.927 82814 287.774
154.044 84267 290.288
154.162 86402 293.942
154.279 90628 301.045
154.396 94506 307.418
154.513 98329 313.575
154.63 97676 312.532
154.747 97234 311.824
154.864 98668 314.115
154.981 99699 315.751
155.098 101486 318.569
155.215 101552 318.672
155.332 102022 319.409
155.449 101112 317.981
155.566 101317 318.303
155.683 101057 317.895
155.8 101122 317.997
155.917 101440 318.496
156.033 101720 318.936
156.15 0 1
156.267 0 1
156.383 0 1
156.5 0 1
156.617 0 1
156.733 0 1
156.85 0 1
156.966 0 1
157.082 0 1
157.199 0 1
157.315 0 1
157.431 0 1
157.547 0 1
157.664 0 1
157.78 0 1
157.896 0 1
158.012 0 1
158.128 0 1
158.244 0 1
158.359 0 1
158.475 0 1
158.591 0 1
158.706 0 1
