
6.15755 0 1
6.2731 0 1
6.3887 0 1
6.50437 0 1
6.62009 0 1
6.73587 0 1
6.8517 0 1
6.96759 0 1
7.08353 0 1
7.19952 0 1
7.31557 0 1
7.43166 0 1
7.54781 0 1
7.664 0 1
7.78024 0 1
7.89653 0 1
8.01286 0 1
8.12924 0 1
8.24567 0 1
8.36213 0 1
8.47864 0 1
8.59519 0 1
8.71178 0 1
8.82841 0 1
8.94508 0 1
9.06179 0 1
9.17853 0 1
9.29531 0 1
9.41212 0 1
9.52897 0 1
9.64584 0 1
9.76276 0 1
9.8797 0 1
9.99667 0 1
10.1137 0 1
10.2307 0 1
10.3478 0 1
10.4648 0 1
10.5819 0 1
10.6991 0 1
10.8162 0 1
10.9334 0 1
11.0506 0 1
11.1678 0 1
11.285 0 1
11.4023 0 1
11.5196 0 1
11.6369 0 1
11.7542 0 1
11.8715 0 1
11.9888 0 1
12.1062 0 1
12.2235 0 1
12.3409 0 1
12.4582 0 1
12.5756 0 1
12.693 0 1
12.8104 0 1
12.9278 0 1
13.0452 0 1
13.1626 0 1
13.28 0 1
13.3974 0 1
13.5149 0 1
13.6323 0 1
13.7497 0 1
13.8671 0 1
13.9845 0 1
14.1019 0 1
14.2193 0 1
14.3367 0 1
14.4541 0 1
14.5714 0 1
14.6888 0 1
14.8062 0 1
14.9235 0 1
15.0408 734 27.0924
15.1581 694 26.3439
15.2755 741 27.2213
15.3927 762 27.6043
15.51 763 27.6225
15.6273 671 25.9037
15.7445 673 25.9422
15.8617 641 25.318
15.9789 710 26.6458
16.0961 631 25.1197
16.2132 637 25.2389
16.3304 668 25.8457
16.4475 615 24.7992
16.5646 615 24.7992
16.6816 622 24.9399
16.7986 551 23.4734
16.9156 632 25.1396
17.0326 592 24.3311
17.1496 560 23.6643
17.2665 617 24.8395
17.3833 623 24.96
17.5002 638 25.2587
17.617 558 23.622
17.7338 601 24.5153
17.8505 594 24.3721
17.9672 591 24.3105
18.0839 578 24.0416
18.2005 561 23.6854
18.3171 565 23.7697
18.4337 563 23.7276
18.5502 594 24.3721
18.6666 615 24.7992
18.7831 558 23.622
18.8994 624 24.98
19.0158 566 23.7908
19.1321 541 23.2594
19.2483 532 23.0651
19.3645 495 22.2486
19.4806 488 22.0907
19.5967 476 21.8174
19.7128 443 21.0476
19.8288 412 20.2978
19.9447 433 20.8087
20.0606 0 1
20.1764 0 1
20.2922 0 1
20.4079 0 1
20.5236 0 1
20.6392 0 1
20.7548 0 1
20.8702 0 1
23.3078 0 1
23.4233 0 1
23.539 0 1
23.6547 0 1
23.7704 0 1
23.8862 0 1
24.0021 0 1
24.118 0 1
24.234 0 1
24.35 0 1
24.4661 275 16.5831
24.5822 294 17.1464
24.6984 318 17.8326
24.8146 402 20.0499
24.9309 437 20.9045
25.0472 526 22.9347
25.1636 518 22.7596
25.28 546 23.3666
25.3965 635 25.1992
25.513 639 25.2784
25.6296 669 25.865
25.7462 637 25.2389
25.8628 646 25.4165
25.9795 677 26.0192
26.0962 629 25.0799
26.213 664 25.7682
26.3298 582 24.1247
26.4466 582 24.1247
26.5635 533 23.0868
26.6804 515 22.6936
26.7973 524 22.891
26.9143 526 22.9347
27.0313 525 22.9129
27.1483 537 23.1733
27.2653 591 24.3105
27.3824 605 24.5967
27.4996 567 23.8118
27.6167 555 23.5584
27.7339 511 22.6053
27.8511 489 22.1133
27.9683 497 22.2935
28.0855 544 23.3238
28.2028 535 23.1301
28.3201 571 23.8956
28.4374 573 23.9374
28.5547 554 23.5372
28.6721 626 25.02
28.7894 589 24.2693
28.9068 608 24.6577
29.0242 568 23.8328
29.1416 519 22.7816
29.259 564 23.7487
29.3764 531 23.0434
29.4939 574 23.9583
29.6113 537 23.1733
29.7288 544 23.3238
29.8463 510 22.5832
29.9638 487 22.0681
30.0812 473 21.7486
30.1987 493 22.2036
30.3162 482 21.9545
30.4337 526 22.9347
30.5512 521 22.8254
30.6687 491 22.1585
30.7862 541 23.2594
30.9037 606 24.6171
31.0212 600 24.4949
31.1387 594 24.3721
31.2562 534 23.1084
31.3737 533 23.0868
31.4912 509 22.561
31.6087 541 23.2594
31.7262 501 22.383
31.8436 601 24.5153
31.9611 565 23.7697
32.0785 583 24.1454
32.1959 560 23.6643
32.3134 519 22.7816
32.4308 521 22.8254
32.5482 566 23.7908
32.6655 486 22.0454
32.7829 515 22.6936
32.9002 476 21.8174
33.0176 482 21.9545
33.1349 486 22.0454
33.2522 468 21.6333
33.3694 493 22.2036
33.4867 515 22.6936
33.6039 524 22.891
33.7211 483 21.9773
33.8383 490 22.1359
33.9554 481 21.9317
34.0725 482 21.9545
34.1896 440 20.9762
34.3067 500 22.3607
34.4237 554 23.5372
34.5407 528 22.9783
34.6577 589 24.2693
34.7746 538 23.1948
34.8915 533 23.0868
35.0084 437 20.9045
35.1252 445 21.095
35.242 434 20.8327
35.3587 462 21.4942
35.4755 476 21.8174
35.5921 475 21.7945
35.7088 514 22.6716
35.8254 536 23.1517
35.9419 554 23.5372
36.0584 475 21.7945
36.1749 499 22.3383
36.2913 464 21.5407
36.4077 447 21.1424
36.524 422 20.5426
36.6403 410 20.2485
36.7565 416 20.3961
36.8727 363 19.0526
36.9889 379 19.4679
37.1049 323 17.9722
37.221 0 1
37.3369 0 1
37.4529 0 1
37.5687 0 1
37.6845 0 1
37.8003 0 1
37.916 0 1
38.0316 0 1
38.1472 0 1
40.5851 0 1
40.7008 0 1
40.8164 0 1
40.9322 0 1
41.048 0 1
41.1639 0 1
41.2798 0 1
41.3958 0 1
41.5118 0 1
41.6279 0 1
41.744 243 15.5885
41.8602 278 16.6733
41.9765 279 16.7033
42.0928 305 17.4642
42.2091 349 18.6815
42.3255 342 18.4932
42.4419 391 19.7737
42.5584 427 20.664
42.675 406 20.1494
42.7915 423 20.567
42.9081 385 19.6214
43.0248 400 20
43.1415 394 19.8494
43.2582 402 20.0499
43.375 416 20.3961
43.4918 390 19.7484
43.6087 392 19.799
43.7256 397 19.9249
43.8425 389 19.7231
43.9595 356 18.868
44.0765 340 18.4391
44.1935 381 19.5192
44.3106 362 19.0263
44.4277 405 20.1246
44.5448 412 20.2978
44.6619 416 20.3961
44.7791 442 21.0238
44.8963 415 20.3715
45.0136 443 21.0476
45.1308 449 21.1896
45.2481 396 19.8997
45.3654 391 19.7737
45.4827 406 20.1494
45.6001 436 20.8806
45.7174 446 21.1187
45.8348 433 20.8087
45.9522 415 20.3715
46.0697 414 20.347
46.1871 424 20.5913
46.3046 343 18.5203
46.422 387 19.6723
46.5395 388 19.6977
46.657 346 18.6011
46.7745 397 19.9249
46.892 391 19.7737
47.0096 400 20
47.1271 427 20.664
47.2446 406 20.1494
47.3622 408 20.199
47.4797 379 19.4679
47.5973 372 19.2873
47.7149 358 18.9209
47.8324 398 19.9499
47.95 396 19.8997
48.0675 420 20.4939
48.1851 411 20.2731
48.3027 411 20.2731
48.4202 402 20.0499
48.5378 390 19.7484
48.6554 388 19.6977
48.7729 380 19.4936
48.8904 406 20.1494
49.008 408 20.199
49.1255 423 20.567
49.243 380 19.4936
49.3605 363 19.0526
49.478 417 20.4206
49.5955 371 19.2614
49.713 375 19.3649
49.8304 366 19.1311
49.9479 337 18.3576
50.0653 375 19.3649
50.1827 408 20.199
50.3001 378 19.4422
50.4175 366 19.1311
50.5348 384 19.5959
50.6521 411 20.2731
50.7694 429 20.7123
50.8867 358 18.9209
51.004 397 19.9249
51.1212 376 19.3907
51.2384 386 19.6469
51.3556 397 19.9249
51.4727 386 19.6469
51.5899 409 20.2237
51.707 396 19.8997
51.824 423 20.567
51.9411 424 20.5913
52.0581 426 20.6398
52.175 422 20.5426
52.2919 433 20.8087
52.4088 387 19.6723
52.5257 389 19.7231
52.6425 403 20.0749
52.7593 381 19.5192
52.876 380 19.4936
52.9927 377 19.4165
53.1094 366 19.1311
53.226 369 19.2094
53.3426 405 20.1246
53.4591 392 19.799
53.5756 366 19.1311
53.692 342 18.4932
53.8084 322 17.9444
53.9248 308 17.5499
54.0411 285 16.8819
54.1573 279 16.7033
54.2735 0 1
54.3896 0 1
54.5057 0 1
54.6217 0 1
54.7377 0 1
54.8537 0 1
54.9695 0 1
55.0853 0 1
55.2011 0 1
55.3168 0 1
55.4324 0 1
57.824 0 1
57.9396 0 1
58.0553 0 1
58.1711 0 1
58.2869 0 1
58.4028 0 1
58.5187 0 1
58.6347 0 1
58.7508 0 1
58.8669 0 1
58.983 683 26.1343
59.0992 967 31.0966
59.2155 1145 33.8378
59.3318 1466 38.2884
59.4482 1793 42.3438
59.5646 1906 43.6578
59.681 2078 45.5851
59.7975 2165 46.5296
59.9141 2233 47.2546
60.0306 2265 47.592
60.1473 2254 47.4763
60.2639 2292 47.8748
60.3807 2310 48.0625
60.4974 2294 47.8957
60.6142 2296 47.9166
60.731 2274 47.6865
60.8479 2262 47.5605
60.9648 2232 47.244
61.0818 2039 45.1553
61.1987 1894 43.5201
61.3158 1830 42.7785
61.4328 1706 41.3038
61.5499 1734 41.6413
61.667 1525 39.0512
61.7841 1375 37.081
61.9013 1240 35.2136
62.0185 1245 35.2846
62.1357 1165 34.1321
62.253 1083 32.909
62.3702 924 30.3974
62.4875 956 30.9192
62.6049 944 30.7246
62.7222 969 31.1288
62.8396 1064 32.619
62.9569 1007 31.7333
63.0743 982 31.3369
63.1918 926 30.4302
63.3092 873 29.5466
63.4267 779 27.9106
63.5441 658 25.6515
63.6616 633 25.1595
63.7791 620 24.8998
63.8966 576 24
64.0142 557 23.6008
64.1317 538 23.1948
64.2492 485 22.0227
64.3668 487 22.0681
64.4843 445 21.095
64.6019 460 21.4476
64.7195 487 22.0681
64.837 486 22.0454
64.9546 473 21.7486
65.0722 445 21.095
65.1898 490 22.1359
65.3074 474 21.7715
65.4249 435 20.8567
65.5425 439 20.9523
65.6601 479 21.8861
65.7777 482 21.9545
65.8952 420 20.4939
66.0128 434 20.8327
66.1304 433 20.8087
66.2479 432 20.7846
66.3655 487 22.0681
66.483 438 20.9284
66.6005 464 21.5407
66.718 486 22.0454
66.8355 433 20.8087
66.953 455 21.3307
67.0705 426 20.6398
67.1879 489 22.1133
67.3054 433 20.8087
67.4228 452 21.2603
67.5402 471 21.7025
67.6576 471 21.7025
67.7749 480 21.9089
67.8923 480 21.9089
68.0096 450 21.2132
68.1269 475 21.7945
68.2442 481 21.9317
68.3614 508 22.5389
68.4787 469 21.6564
68.5958 483 21.9773
68.713 458 21.4009
68.8302 472 21.7256
68.9473 441 21
69.0643 464 21.5407
69.1814 473 21.7486
69.2984 461 21.4709
69.4154 472 21.7256
69.5323 414 20.347
69.6492 422 20.5426
69.7661 446 21.1187
69.8829 433 20.8087
69.9997 419 20.4695
70.1165 453 21.2838
70.2332 414 20.347
70.3499 443 21.0476
70.4665 420 20.4939
70.5831 380 19.4936
70.6996 378 19.4422
70.8161 323 17.9722
70.9326 277 16.6433
71.049 287 16.9411
71.1653 257 16.0312
71.2817 255 15.9687
71.3979 247 15.7162
71.5141 199 14.1067
71.6303 178 13.3417
71.7464 178 13.3417
71.8624 0 1
71.9784 0 1
72.0944 0 1
72.2102 0 1
72.3261 0 1
72.4418 0 1
72.5575 0 1
72.6732 0 1
75.1054 0 1
75.2209 0 1
75.3365 0 1
75.4521 0 1
75.5678 0 1
75.6835 0 1
75.7993 0 1
75.9151 0 1
76.031 0 1
76.147 267 16.3401
76.263 362 19.0263
76.3791 356 18.868
76.4952 339 18.412
76.6113 343 18.5203
76.7276 357 18.8944
76.8438 389 19.7231
76.9601 372 19.2873
77.0765 350 18.7083
77.1929 388 19.6977
77.3093 371 19.2614
77.4258 378 19.4422
77.5423 336 18.3303
77.6589 385 19.6214
77.7755 412 20.2978
77.8921 372 19.2873
78.0088 410 20.2485
78.1256 398 19.9499
78.2423 363 19.0526
78.3591 337 18.3576
78.4759 351 18.735
78.5928 358 18.9209
78.7097 319 17.8606
78.8266 331 18.1934
78.9436 396 19.8997
79.0606 383 19.5704
79.1776 363 19.0526
79.2946 396 19.8997
79.4117 394 19.8494
79.5288 410 20.2485
79.6459 434 20.8327
79.7631 396 19.8997
79.8802 402 20.0499
79.9974 393 19.8242
80.1147 410 20.2485
80.2319 379 19.4679
80.3491 374 19.3391
80.4664 413 20.3224
80.5837 375 19.3649
80.701 386 19.6469
80.8183 378 19.4422
80.9357 414 20.347
81.053 391 19.7737
81.1704 398 19.9499
81.2877 409 20.2237
81.4051 396 19.8997
81.5225 423 20.567
81.6399 445 21.095
81.7573 424 20.5913
81.8747 413 20.3224
81.9922 377 19.4165
82.1096 407 20.1742
82.227 360 18.9737
82.3444 360 18.9737
82.4619 379 19.4679
82.5793 399 19.975
82.6967 393 19.8242
82.8142 415 20.3715
82.9316 425 20.6155
83.049 445 21.095
83.1664 408 20.199
83.2838 436 20.8806
83.4012 433 20.8087
83.5186 405 20.1246
83.636 439 20.9523
83.7534 408 20.199
83.8708 396 19.8997
83.9881 434 20.8327
84.1055 466 21.587
84.2228 445 21.095
84.3401 430 20.7364
84.4575 423 20.567
84.5747 420 20.4939
84.692 422 20.5426
84.8093 446 21.1187
84.9265 385 19.6214
85.0437 428 20.6882
85.1609 426 20.6398
85.2781 397 19.9249
85.3952 402 20.0499
85.5123 403 20.0749
85.6294 401 20.025
85.7465 369 19.2094
85.8636 380 19.4936
85.9806 357 18.8944
86.0976 394 19.8494
86.2145 423 20.567
86.3315 423 20.567
86.4484 416 20.3961
86.5652 416 20.3961
86.682 462 21.4942
86.7988 455 21.3307
86.9156 445 21.095
87.0323 427 20.664
87.149 390 19.7484
87.2657 413 20.3224
87.3823 434 20.8327
87.4988 421 20.5183
87.6154 375 19.3649
87.7318 417 20.4206
87.8483 356 18.868
87.9647 345 18.5742
88.081 354 18.8149
88.1973 323 17.9722
88.3136 291 17.0587
88.4298 237 15.3948
88.546 261 16.1555
88.6621 264 16.2481
88.7781 231 15.1987
88.8942 0 1
89.0101 0 1
89.126 0 1
89.2419 0 1
89.3577 0 1
89.4734 0 1
89.5891 0 1
89.7047 0 1
89.8203 0 1
89.9358 0 1
92.3269 0 1
92.4424 0 1
92.558 0 1
92.6736 0 1
92.7893 0 1
92.905 0 1
93.0208 0 1
93.1366 0 1
93.2525 0 1
93.3685 0 1
93.4845 0 1
93.6005 338 18.3848
93.7167 345 18.5742
93.8328 361 19
93.949 412 20.2978
94.0653 387 19.6723
94.1816 376 19.3907
94.2979 440 20.9762
94.4143 397 19.9249
94.5307 437 20.9045
94.6472 418 20.445
94.7637 417 20.4206
94.8803 389 19.7231
94.9969 401 20.025
95.1135 433 20.8087
95.2302 416 20.3961
95.3469 429 20.7123
95.4637 430 20.7364
95.5805 415 20.3715
95.6973 425 20.6155
95.8142 420 20.4939
95.9311 432 20.7846
96.048 429 20.7123
96.1649 455 21.3307
96.2819 462 21.4942
96.3989 462 21.4942
96.516 429 20.7123
96.633 437 20.9045
96.7501 414 20.347
96.8673 479 21.8861
96.9844 451 21.2368
97.1016 411 20.2731
97.2188 418 20.445
97.336 409 20.2237
97.4532 409 20.2237
97.5704 474 21.7715
97.6877 425 20.6155
97.805 405 20.1246
97.9223 432 20.7846
98.0396 420 20.4939
98.1569 432 20.7846
98.2743 396 19.8997
98.3916 456 21.3542
98.509 471 21.7025
98.6264 432 20.7846
98.7438 459 21.4243
98.8612 442 21.0238
98.9786 421 20.5183
99.096 455 21.3307
99.2134 482 21.9545
99.3308 517 22.7376
99.4482 493 22.2036
99.5656 496 22.2711
99.6831 459 21.4243
99.8005 400 20
99.9179 501 22.383
100.035 472 21.7256
100.153 469 21.6564
100.27 486 22.0454
100.388 451 21.2368
100.505 510 22.5832
100.622 473 21.7486
100.74 446 21.1187
100.857 449 21.1896
100.975 444 21.0713
101.092 502 22.4054
101.209 473 21.7486
101.327 466 21.587
101.444 486 22.0454
101.561 456 21.3542
101.679 485 22.0227
101.796 432 20.7846
101.913 494 22.2261
102.03 462 21.4942
102.148 455 21.3307
102.265 439 20.9523
102.382 433 20.8087
102.499 468 21.6333
102.616 479 21.8861
102.733 495 22.2486
102.851 534 23.1084
102.968 496 22.2711
103.085 506 22.4944
103.202 530 23.0217
103.319 489 22.1133
103.436 501 22.383
103.552 533 23.0868
103.669 463 21.5174
103.786 498 22.3159
103.903 484 22
104.02 463 21.5174
104.137 490 22.1359
104.253 518 22.7596
104.37 467 21.6102
104.487 478 21.8632
104.603 507 22.5167
104.72 427 20.664
104.836 427 20.664
104.953 442 21.0238
105.069 459 21.4243
105.186 421 20.5183
105.302 417 20.4206
105.418 376 19.3907
105.535 337 18.3576
105.651 353 18.7883
105.767 312 17.6635
105.883 281 16.7631
105.999 279 16.7033
106.115 0 1
106.231 0 1
106.347 0 1
106.463 0 1
106.579 0 1
106.694 0 1
106.81 0 1
106.926 0 1
107.041 0 1
107.157 0 1
109.576 0 1
109.692 0 1
109.807 0 1
109.923 0 1
110.039 0 1
110.155 0 1
110.27 0 1
110.386 0 1
110.502 0 1
110.618 271 16.4621
110.735 268 16.3707
110.851 367 19.1572
110.967 353 18.7883
111.083 361 19
111.199 405 20.1246
111.316 397 19.9249
111.432 454 21.3073
111.549 465 21.5639
111.665 437 20.9045
111.782 469 21.6564
111.898 466 21.587
112.015 509 22.561
112.132 441 21
112.248 447 21.1424
112.365 416 20.3961
112.482 443 21.0476
112.599 445 21.095
112.716 444 21.0713
112.832 466 21.587
112.949 434 20.8327
113.066 450 21.2132
113.183 445 21.095
113.3 429 20.7123
113.417 432 20.7846
113.534 445 21.095
113.652 423 20.567
113.769 429 20.7123
113.886 404 20.0998
114.003 377 19.4165
114.12 424 20.5913
114.238 408 20.199
114.355 423 20.567
114.472 396 19.8997
114.589 426 20.6398
114.707 387 19.6723
114.824 420 20.4939
114.942 455 21.3307
115.059 438 20.9284
115.176 446 21.1187
115.294 449 21.1896
115.411 431 20.7605
115.529 438 20.9284
115.646 444 21.0713
115.764 410 20.2485
115.881 403 20.0749
115.999 414 20.347
116.116 417 20.4206
116.234 400 20
116.351 436 20.8806
116.469 454 21.3073
116.586 365 19.105
116.704 374 19.3391
116.821 436 20.8806
116.939 353 18.7883
117.056 383 19.5704
117.174 407 20.1742
117.291 423 20.567
117.409 376 19.3907
117.526 369 19.2094
117.644 401 20.025
117.761 394 19.8494
117.879 400 20
117.996 444 21.0713
118.114 399 19.975
118.231 318 17.8326
118.349 373 19.3132
118.466 374 19.3391
118.584 410 20.2485
118.701 400 20
118.819 401 20.025
118.936 379 19.4679
119.053 345 18.5742
119.171 371 19.2614
119.288 373 19.3132
119.405 388 19.6977
119.523 398 19.9499
119.64 397 19.9249
119.757 425 20.6155
119.875 389 19.7231
119.992 369 19.2094
120.109 400 20
120.226 374 19.3391
120.343 380 19.4936
120.46 376 19.3907
120.578 389 19.7231
120.695 401 20.025
120.812 349 18.6815
120.929 365 19.105
121.046 331 18.1934
121.163 337 18.3576
121.279 334 18.2757
121.396 375 19.3649
121.513 374 19.3391
121.63 372 19.2873
121.747 348 18.6548
121.863 331 18.1934
121.98 299 17.2916
122.097 336 18.3303
122.213 339 18.412
122.33 315 17.7482
122.446 343 18.5203
122.563 294 17.1464
122.679 254 15.9374
122.795 246 15.6844
122.912 217 14.7309
123.028 215 14.6629
123.144 208 14.4222
123.26 213 14.5945
123.377 0 1
123.493 0 1
123.609 0 1
123.725 0 1
123.84 0 1
123.956 0 1
124.072 0 1
124.188 0 1
124.303 0 1
124.419 0 1
126.852 0 1
126.968 0 1
127.083 0 1
127.199 0 1
127.315 0 1
127.431 0 1
127.547 0 1
127.663 0 1
127.779 0 1
127.895 0 1
128.011 0 1
128.127 0 1
128.243 0 1
128.359 376 19.3907
128.476 447 21.1424
128.592 408 20.199
128.708 424 20.5913
128.825 425 20.6155
128.941 488 22.0907
129.058 469 21.6564
129.174 448 21.166
129.291 419 20.4695
129.408 430 20.7364
129.524 417 20.4206
129.641 399 19.975
129.758 402 20.0499
129.875 408 20.199
129.992 440 20.9762
130.108 426 20.6398
130.225 424 20.5913
130.342 434 20.8327
130.459 478 21.8632
130.576 488 22.0907
130.693 529 23
130.81 522 22.8473
130.928 494 22.2261
131.045 501 22.383
131.162 561 23.6854
131.279 646 25.4165
131.396 644 25.3772
131.513 652 25.5343
131.631 641 25.318
131.748 634 25.1794
131.865 699 26.4386
131.983 703 26.5141
132.1 783 27.9821
132.217 815 28.5482
132.335 824 28.7054
132.452 804 28.3549
132.57 922 30.3645
132.687 901 30.0167
132.804 958 30.9516
132.922 957 30.9354
133.039 949 30.8058
133.157 1006 31.7175
133.274 1032 32.1248
133.392 1002 31.6544
133.509 986 31.4006
133.627 966 31.0805
133.744 984 31.3688
133.862 999 31.607
133.979 978 31.273
134.097 1003 31.6702
134.214 995 31.5436
134.332 989 31.4484
134.449 925 30.4138
134.567 928 30.4631
134.684 946 30.7571
134.802 992 31.496
134.919 1017 31.8904
135.037 977 31.257
135.154 957 30.9354
135.272 872 29.5296
135.389 956 30.9192
135.507 1004 31.686
135.624 1038 32.218
135.742 1133 33.6601
135.859 1130 33.6155
135.977 1124 33.5261
136.094 1167 34.1614
136.211 1087 32.9697
136.329 1094 33.0757
136.446 1149 33.8969
136.564 1087 32.9697
136.681 1069 32.6956
136.798 1023 31.9844
136.915 978 31.273
137.033 1023 31.9844
137.15 1023 31.9844
137.267 985 31.3847
137.384 979 31.289
137.502 1021 31.9531
137.619 1012 31.8119
137.736 995 31.5436
137.853 944 30.7246
137.97 974 31.209
138.087 942 30.692
138.204 941 30.6757
138.321 960 30.9839
138.438 924 30.3974
138.555 979 31.289
138.672 945 30.7409
138.788 927 30.4467
138.905 767 27.6948
139.022 806 28.3901
139.139 873 29.5466
139.255 890 29.8329
139.372 901 30.0167
139.488 835 28.8964
139.605 858 29.2916
139.721 718 26.7955
139.838 629 25.0799
139.954 629 25.0799
140.071 601 24.5153
140.187 566 23.7908
140.303 493 22.2036
140.419 484 22
140.535 504 22.4499
140.652 473 21.7486
140.768 0 1
140.884 0 1
141 0 1
141.115 0 1
141.231 0 1
141.347 0 1
141.463 0 1
141.578 0 1
141.694 0 1
144.104 0 1
144.219 0 1
144.335 0 1
144.45 0 1
144.566 0 1
144.682 0 1
144.798 0 1
144.914 0 1
145.03 0 1
145.146 942 30.692
145.262 885 29.7489
145.378 916 30.2655
145.494 980 31.305
145.61 915 30.249
145.726 1048 32.3728
145.842 958 30.9516
145.959 1033 32.1403
146.075 945 30.7409
146.192 919 30.315
146.308 948 30.7896
146.425 832 28.8444
146.541 891 29.8496
146.658 1021 31.9531
146.774 1054 32.4654
146.891 1005 31.7017
147.008 1077 32.8177
147.125 1077 32.8177
147.241 1064 32.619
147.358 1076 32.8024
147.475 1090 33.0151
147.592 1031 32.1092
147.709 955 30.9031
147.826 911 30.1828
147.943 947 30.7734
148.06 1049 32.3883
148.177 1048 32.3728
148.294 1092 33.0454
148.411 1011 31.7962
148.528 1041 32.2645
148.645 1003 31.6702
148.762 971 31.1609
148.88 993 31.5119
148.997 998 31.5911
149.114 999 31.607
149.231 1002 31.6544
149.349 1057 32.5115
149.466 990 31.4643
149.583 965 31.0644
149.701 918 30.2985
149.818 901 30.0167
149.935 948 30.7896
150.053 919 30.315
150.17 908 30.133
150.287 967 31.0966
150.405 916 30.2655
150.522 950 30.8221
150.64 904 30.0666
150.757 896 29.9333
150.875 916 30.2655
150.992 912 30.1993
151.11 859 29.3087
151.227 831 28.8271
151.344 786 28.0357
151.462 821 28.6531
151.579 798 28.2489
151.697 811 28.4781
151.814 869 29.4788
151.932 887 29.7825
152.049 922 30.3645
152.167 893 29.8831
152.284 886 29.7658
152.402 873 29.5466
152.519 876 29.5973
152.636 913 30.2159
152.754 851 29.1719
152.871 879 29.6479
152.989 765 27.6586
153.106 812 28.4956
153.223 771 27.7669
153.341 751 27.4044
153.458 767 27.6948
153.575 701 26.4764
153.693 740 27.2029
153.81 723 26.8887
153.927 736 27.1293
154.044 736 27.1293
154.162 728 26.9815
154.279 759 27.55
154.396 712 26.6833
154.513 735 27.1109
154.63 665 25.7876
154.747 744 27.2764
154.864 734 27.0924
154.981 684 26.1534
155.098 642 25.3377
155.215 658 25.6515
155.332 701 26.4764
155.449 751 27.4044
155.566 730 27.0185
155.683 716 26.7582
155.8 741 27.2213
155.917 708 26.6083
156.033 660 25.6905
156.15 0 1
156.267 0 1
156.383 0 1
156.5 0 1
156.617 0 1
156.733 0 1
156.85 0 1
156.966 0 1
157.082 0 1
157.199 0 1
157.315 0 1
157.431 0 1
157.547 0 1
157.664 0 1
157.78 0 1
157.896 0 1
158.012 0 1
158.128 0 1
158.244 0 1
158.359 0 1
158.475 0 1
158.591 0 1
158.706 0 1
