
6.15755 0 1
6.2731 0 1
6.3887 0 1
6.50437 0 1
6.62009 0 1
6.73587 0 1
6.8517 0 1
6.96759 0 1
7.08353 0 1
7.19952 0 1
7.31557 0 1
7.43166 0 1
7.54781 0 1
7.664 0 1
7.78024 0 1
7.89653 0 1
8.01286 0 1
8.12924 0 1
8.24567 0 1
8.36213 0 1
8.47864 0 1
8.59519 0 1
8.71178 0 1
8.82841 0 1
8.94508 0 1
9.06179 0 1
9.17853 0 1
9.29531 0 1
9.41212 0 1
9.52897 0 1
9.64584 0 1
9.76276 0 1
9.8797 0 1
9.99667 0 1
10.1137 0 1
10.2307 0 1
10.3478 0 1
10.4648 0 1
10.5819 0 1
10.6991 0 1
10.8162 0 1
10.9334 0 1
11.0506 0 1
11.1678 0 1
11.285 0 1
11.4023 0 1
11.5196 0 1
11.6369 0 1
11.7542 0 1
11.8715 0 1
11.9888 0 1
12.1062 0 1
12.2235 0 1
12.3409 0 1
12.4582 0 1
12.5756 0 1
12.693 0 1
12.8104 0 1
12.9278 0 1
13.0452 0 1
13.1626 0 1
13.28 0 1
13.3974 0 1
13.5149 0 1
13.6323 0 1
13.7497 0 1
13.8671 0 1
13.9845 0 1
14.1019 0 1
14.2193 0 1
14.3367 0 1
14.4541 0 1
14.5714 0 1
14.6888 0 1
14.8062 0 1
14.9235 0 1
15.0408 1137 33.7194
15.1581 1211 34.7994
15.2755 1286 35.8608
15.3927 1232 35.0999
15.51 1221 34.9428
15.6273 1251 35.3695
15.7445 1216 34.8712
15.8617 1234 35.1283
15.9789 1153 33.9559
16.0961 1106 33.2566
16.2132 1106 33.2566
16.3304 1067 32.665
16.4475 1096 33.1059
16.5646 1150 33.9116
16.6816 1220 34.9285
16.7986 1187 34.4529
16.9156 1084 32.9242
17.0326 1004 31.686
17.1496 1106 33.2566
17.2665 1091 33.0303
17.3833 1082 32.8938
17.5002 1127 33.5708
17.617 1172 34.2345
17.7338 1109 33.3017
17.8505 1102 33.1964
17.9672 1079 32.8481
18.0839 1017 31.8904
18.2005 1014 31.8434
18.3171 1064 32.619
18.4337 1106 33.2566
18.5502 1070 32.7109
18.6666 1157 34.0147
18.7831 1042 32.28
18.8994 1068 32.6803
19.0158 1108 33.2866
19.1321 1026 32.0312
19.2483 1014 31.8434
19.3645 947 30.7734
19.4806 883 29.7153
19.5967 855 29.2404
19.7128 774 27.8209
19.8288 723 26.8887
19.9447 637 25.2389
20.0606 0 1
20.1764 0 1
20.2922 0 1
20.4079 0 1
20.5236 0 1
20.6392 0 1
20.7548 0 1
20.8702 0 1
23.3078 0 1
23.4233 0 1
23.539 0 1
23.6547 0 1
23.7704 0 1
23.8862 0 1
24.0021 0 1
24.118 0 1
24.234 0 1
24.35 0 1
24.4661 454 21.3073
24.5822 507 22.5167
24.6984 595 24.3926
24.8146 726 26.9444
24.9309 815 28.5482
25.0472 975 31.225
25.1636 983 31.3528
25.28 1104 33.2265
25.3965 1107 33.2716
25.513 1156 34
25.6296 1207 34.7419
25.7462 1232 35.0999
25.8628 1186 34.4384
25.9795 1188 34.4674
26.0962 1208 34.7563
26.213 1160 34.0588
26.3298 1136 33.7046
26.4466 1047 32.3574
26.5635 1012 31.8119
26.6804 943 30.7083
26.7973 960 30.9839
26.9143 932 30.5287
27.0313 1005 31.7017
27.1483 963 31.0322
27.2653 1034 32.1559
27.3824 1072 32.7414
27.4996 1070 32.7109
27.6167 1042 32.28
27.7339 1074 32.7719
27.8511 1104 33.2265
27.9683 1062 32.5883
28.0855 966 31.0805
28.2028 989 31.4484
28.3201 939 30.6431
28.4374 993 31.5119
28.5547 1081 32.8786
28.6721 1065 32.6343
28.7894 1018 31.9061
28.9068 1058 32.5269
29.0242 1102 33.1964
29.1416 1015 31.8591
29.259 982 31.3369
29.3764 1032 32.1248
29.4939 1051 32.4191
29.6113 1008 31.749
29.7288 961 31
29.8463 972 31.1769
29.9638 971 31.1609
30.0812 926 30.4302
30.1987 887 29.7825
30.3162 885 29.7489
30.4337 910 30.1662
30.5512 913 30.2159
30.6687 1024 32
30.7862 1037 32.2025
30.9037 1000 31.6228
31.0212 1040 32.249
31.1387 1028 32.0624
31.2562 1010 31.7805
31.3737 1073 32.7567
31.4912 995 31.5436
31.6087 978 31.273
31.7262 947 30.7734
31.8436 1014 31.8434
31.9611 957 30.9354
32.0785 922 30.3645
32.1959 989 31.4484
32.3134 982 31.3369
32.4308 958 30.9516
32.5482 888 29.7993
32.6655 916 30.2655
32.7829 881 29.6816
32.9002 911 30.1828
33.0176 858 29.2916
33.1349 934 30.5614
33.2522 918 30.2985
33.3694 920 30.3315
33.4867 940 30.6594
33.6039 930 30.4959
33.7211 871 29.5127
33.8383 862 29.3598
33.9554 900 30
34.0725 872 29.5296
34.1896 918 30.2985
34.3067 925 30.4138
34.4237 945 30.7409
34.5407 992 31.496
34.6577 986 31.4006
34.7746 937 30.6105
34.8915 920 30.3315
35.0084 936 30.5941
35.1252 925 30.4138
35.242 901 30.0167
35.3587 779 27.9106
35.4755 844 29.0517
35.5921 875 29.5804
35.7088 888 29.7993
35.8254 899 29.9833
35.9419 890 29.8329
36.0584 870 29.4958
36.1749 896 29.9333
36.2913 832 28.8444
36.4077 806 28.3901
36.524 795 28.1957
36.6403 758 27.5318
36.7565 677 26.0192
36.8727 688 26.2298
36.9889 687 26.2107
37.1049 540 23.2379
37.221 0 1
37.3369 0 1
37.4529 0 1
37.5687 0 1
37.6845 0 1
37.8003 0 1
37.916 0 1
38.0316 0 1
38.1472 0 1
40.5851 0 1
40.7008 0 1
40.8164 0 1
40.9322 0 1
41.048 0 1
41.1639 0 1
41.2798 0 1
41.3958 0 1
41.5118 0 1
41.6279 0 1
41.744 450 21.2132
41.8602 457 21.3776
41.9765 523 22.8692
42.0928 543 23.3024
42.2091 560 23.6643
42.3255 580 24.0832
42.4419 660 25.6905
42.5584 638 25.2587
42.675 684 26.1534
42.7915 694 26.3439
42.9081 655 25.593
43.0248 630 25.0998
43.1415 691 26.2869
43.2582 668 25.8457
43.375 705 26.5518
43.4918 682 26.1151
43.6087 725 26.9258
43.7256 722 26.8701
43.8425 634 25.1794
43.9595 627 25.04
44.0765 619 24.8797
44.1935 603 24.5561
44.3106 672 25.923
44.4277 662 25.7294
44.5448 680 26.0768
44.6619 664 25.7682
44.7791 719 26.8142
44.8963 736 27.1293
45.0136 731 27.037
45.1308 737 27.1477
45.2481 740 27.2029
45.3654 757 27.5136
45.4827 725 26.9258
45.6001 711 26.6646
45.7174 712 26.6833
45.8348 713 26.7021
45.9522 760 27.5681
46.0697 676 26
46.1871 644 25.3772
46.3046 635 25.1992
46.422 665 25.7876
46.5395 644 25.3772
46.657 636 25.219
46.7745 701 26.4764
46.892 715 26.7395
47.0096 698 26.4197
47.1271 728 26.9815
47.2446 711 26.6646
47.3622 651 25.5147
47.4797 603 24.5561
47.5973 601 24.5153
47.7149 668 25.8457
47.8324 663 25.7488
47.95 686 26.1916
48.0675 646 25.4165
48.1851 672 25.923
48.3027 692 26.3059
48.4202 689 26.2488
48.5378 704 26.533
48.6554 696 26.3818
48.7729 724 26.9072
48.8904 732 27.0555
49.008 691 26.2869
49.1255 731 27.037
49.243 693 26.3249
49.3605 700 26.4575
49.478 669 25.865
49.5955 570 23.8747
49.713 586 24.2074
49.8304 612 24.7386
49.9479 589 24.2693
50.0653 574 23.9583
50.1827 604 24.5764
50.3001 636 25.219
50.4175 658 25.6515
50.5348 695 26.3629
50.6521 684 26.1534
50.7694 672 25.923
50.8867 629 25.0799
51.004 600 24.4949
51.1212 569 23.8537
51.2384 631 25.1197
51.3556 640 25.2982
51.4727 649 25.4755
51.5899 664 25.7682
51.707 677 26.0192
51.824 679 26.0576
51.9411 633 25.1595
52.0581 652 25.5343
52.175 623 24.96
52.2919 712 26.6833
52.4088 643 25.3574
52.5257 682 26.1151
52.6425 668 25.8457
52.7593 660 25.6905
52.876 674 25.9615
52.9927 585 24.1868
53.1094 647 25.4362
53.226 607 24.6374
53.3426 597 24.4336
53.4591 532 23.0651
53.5756 511 22.6053
53.692 511 22.6053
53.8084 529 23
53.9248 524 22.891
54.0411 474 21.7715
54.1573 507 22.5167
54.2735 0 1
54.3896 0 1
54.5057 0 1
54.6217 0 1
54.7377 0 1
54.8537 0 1
54.9695 0 1
55.0853 0 1
55.2011 0 1
55.3168 0 1
55.4324 0 1
57.824 0 1
57.9396 0 1
58.0553 0 1
58.1711 0 1
58.2869 0 1
58.4028 0 1
58.5187 0 1
58.6347 0 1
58.7508 0 1
58.8669 0 1
58.983 2306 48.0208
59.0992 3232 56.8507
59.2155 4137 64.3195
59.3318 4801 69.2892
59.4482 5097 71.3933
59.5646 5278 72.6498
59.681 5296 72.7736
59.7975 5232 72.3326
59.9141 5259 72.519
60.0306 5114 71.5122
60.1473 5075 71.239
60.2639 4960 70.4273
60.3807 4881 69.8642
60.4974 4801 69.2892
60.6142 4616 67.9412
60.731 4557 67.5056
60.8479 4266 65.3146
60.9648 3941 62.7774
61.0818 3534 59.4475
61.1987 2913 53.9722
61.3158 2363 48.6107
61.4328 2047 45.2438
61.5499 1724 41.5211
61.667 1595 39.9375
61.7841 1352 36.7696
61.9013 1196 34.5832
62.0185 1134 33.6749
62.1357 1069 32.6956
62.253 1067 32.665
62.3702 1059 32.5423
62.4875 1095 33.0908
62.6049 1127 33.5708
62.7222 1045 32.3265
62.8396 993 31.5119
62.9569 981 31.3209
63.0743 1009 31.7648
63.1918 926 30.4302
63.3092 845 29.0689
63.4267 823 28.688
63.5441 837 28.931
63.6616 837 28.931
63.7791 893 29.8831
63.8966 881 29.6816
64.0142 828 28.775
64.1317 812 28.4956
64.2492 797 28.2312
64.3668 799 28.2666
64.4843 808 28.4253
64.6019 775 27.8388
64.7195 742 27.2397
64.837 799 28.2666
64.9546 793 28.1603
65.0722 829 28.7924
65.1898 752 27.4226
65.3074 734 27.0924
65.4249 714 26.7208
65.5425 706 26.5707
65.6601 665 25.7876
65.7777 712 26.6833
65.8952 666 25.807
66.0128 740 27.2029
66.1304 718 26.7955
66.2479 744 27.2764
66.3655 764 27.6405
66.483 770 27.7489
66.6005 789 28.0891
66.718 763 27.6225
66.8355 721 26.8514
66.953 703 26.5141
67.0705 690 26.2679
67.1879 753 27.4408
67.3054 753 27.4408
67.4228 788 28.0713
67.5402 857 29.2746
67.6576 863 29.3769
67.7749 809 28.4429
67.8923 876 29.5973
68.0096 778 27.8927
68.1269 799 28.2666
68.2442 787 28.0535
68.3614 824 28.7054
68.4787 818 28.6007
68.5958 783 27.9821
68.713 901 30.0167
68.8302 865 29.4109
68.9473 863 29.3769
69.0643 904 30.0666
69.1814 816 28.5657
69.2984 779 27.9106
69.4154 805 28.3725
69.5323 760 27.5681
69.6492 782 27.9643
69.7661 736 27.1293
69.8829 750 27.3861
69.9997 756 27.4955
70.1165 801 28.3019
70.2332 686 26.1916
70.3499 719 26.8142
70.4665 651 25.5147
70.5831 573 23.9374
70.6996 555 23.5584
70.8161 520 22.8035
70.9326 530 23.0217
71.049 462 21.4942
71.1653 468 21.6333
71.2817 412 20.2978
71.3979 419 20.4695
71.5141 365 19.105
71.6303 334 18.2757
71.7464 256 16
71.8624 0 1
71.9784 0 1
72.0944 0 1
72.2102 0 1
72.3261 0 1
72.4418 0 1
72.5575 0 1
72.6732 0 1
75.1054 0 1
75.2209 0 1
75.3365 0 1
75.4521 0 1
75.5678 0 1
75.6835 0 1
75.7993 0 1
75.9151 0 1
76.031 0 1
76.147 455 21.3307
76.263 534 23.1084
76.3791 641 25.318
76.4952 559 23.6432
76.6113 670 25.8844
76.7276 695 26.3629
76.8438 662 25.7294
76.9601 658 25.6515
77.0765 631 25.1197
77.1929 709 26.6271
77.3093 621 24.9199
77.4258 667 25.8263
77.5423 652 25.5343
77.6589 622 24.9399
77.7755 624 24.98
77.8921 712 26.6833
78.0088 669 25.865
78.1256 615 24.7992
78.2423 623 24.96
78.3591 645 25.3969
78.4759 626 25.02
78.5928 560 23.6643
78.7097 600 24.4949
78.8266 575 23.9792
78.9436 654 25.5734
79.0606 656 25.6125
79.1776 711 26.6646
79.2946 645 25.3969
79.4117 714 26.7208
79.5288 637 25.2389
79.6459 659 25.671
79.7631 649 25.4755
79.8802 562 23.7065
79.9974 737 27.1477
80.1147 685 26.1725
80.2319 714 26.7208
80.3491 710 26.6458
80.4664 709 26.6271
80.5837 655 25.593
80.701 667 25.8263
80.8183 680 26.0768
80.9357 682 26.1151
81.053 689 26.2488
81.1704 704 26.533
81.2877 678 26.0384
81.4051 709 26.6271
81.5225 663 25.7488
81.6399 643 25.3574
81.7573 696 26.3818
81.8747 632 25.1396
81.9922 670 25.8844
82.1096 593 24.3516
82.227 630 25.0998
82.3444 591 24.3105
82.4619 622 24.9399
82.5793 623 24.96
82.6967 661 25.7099
82.8142 697 26.4008
82.9316 734 27.0924
83.049 709 26.6271
83.1664 683 26.1343
83.2838 704 26.533
83.4012 661 25.7099
83.5186 615 24.7992
83.636 659 25.671
83.7534 670 25.8844
83.8708 653 25.5539
83.9881 707 26.5895
84.1055 721 26.8514
84.2228 693 26.3249
84.3401 704 26.533
84.4575 679 26.0576
84.5747 594 24.3721
84.692 670 25.8844
84.8093 669 25.865
84.9265 649 25.4755
85.0437 662 25.7294
85.1609 644 25.3772
85.2781 669 25.865
85.3952 639 25.2784
85.5123 671 25.9037
85.6294 615 24.7992
85.7465 608 24.6577
85.8636 611 24.7184
85.9806 579 24.0624
86.0976 652 25.5343
86.2145 667 25.8263
86.3315 691 26.2869
86.4484 632 25.1396
86.5652 691 26.2869
86.682 694 26.3439
86.7988 750 27.3861
86.9156 680 26.0768
87.0323 638 25.2587
87.149 657 25.632
87.2657 718 26.7955
87.3823 636 25.219
87.4988 653 25.5539
87.6154 652 25.5343
87.7318 633 25.1595
87.8483 617 24.8395
87.9647 544 23.3238
88.081 506 22.4944
88.1973 461 21.4709
88.3136 480 21.9089
88.4298 433 20.8087
88.546 416 20.3961
88.6621 370 19.2354
88.7781 350 18.7083
88.8942 0 1
89.0101 0 1
89.126 0 1
89.2419 0 1
89.3577 0 1
89.4734 0 1
89.5891 0 1
89.7047 0 1
89.8203 0 1
89.9358 0 1
92.3269 0 1
92.4424 0 1
92.558 0 1
92.6736 0 1
92.7893 0 1
92.905 0 1
93.0208 0 1
93.1366 0 1
93.2525 0 1
93.3685 0 1
93.4845 0 1
93.6005 535 23.1301
93.7167 623 24.96
93.8328 638 25.2587
93.949 681 26.096
94.0653 634 25.1794
94.1816 701 26.4764
94.2979 665 25.7876
94.4143 690 26.2679
94.5307 706 26.5707
94.6472 686 26.1916
94.7637 666 25.807
94.8803 644 25.3772
94.9969 620 24.8998
95.1135 661 25.7099
95.2302 601 24.5153
95.3469 660 25.6905
95.4637 699 26.4386
95.5805 693 26.3249
95.6973 683 26.1343
95.8142 721 26.8514
95.9311 715 26.7395
96.048 714 26.7208
96.1649 747 27.3313
96.2819 729 27
96.3989 742 27.2397
96.516 712 26.6833
96.633 725 26.9258
96.7501 752 27.4226
96.8673 747 27.3313
96.9844 704 26.533
97.1016 711 26.6646
97.2188 687 26.2107
97.336 703 26.5141
97.4532 733 27.074
97.5704 711 26.6646
97.6877 718 26.7955
97.805 728 26.9815
97.9223 733 27.074
98.0396 726 26.9444
98.1569 684 26.1534
98.2743 667 25.8263
98.3916 686 26.1916
98.509 672 25.923
98.6264 682 26.1151
98.7438 656 25.6125
98.8612 675 25.9808
98.9786 715 26.7395
99.096 724 26.9072
99.2134 731 27.037
99.3308 813 28.5132
99.4482 800 28.2843
99.5656 804 28.3549
99.6831 784 28
99.8005 760 27.5681
99.9179 735 27.1109
100.035 759 27.55
100.153 744 27.2764
100.27 782 27.9643
100.388 749 27.3679
100.505 778 27.8927
100.622 764 27.6405
100.74 765 27.6586
100.857 728 26.9815
100.975 735 27.1109
101.092 709 26.6271
101.209 658 25.6515
101.327 728 26.9815
101.444 774 27.8209
101.561 740 27.2029
101.679 753 27.4408
101.796 726 26.9444
101.913 768 27.7128
102.03 759 27.55
102.148 696 26.3818
102.265 677 26.0192
102.382 744 27.2764
102.499 729 27
102.616 771 27.7669
102.733 784 28
102.851 794 28.178
102.968 751 27.4044
103.085 800 28.2843
103.202 757 27.5136
103.319 805 28.3725
103.436 804 28.3549
103.552 798 28.2489
103.669 793 28.1603
103.786 777 27.8747
103.903 788 28.0713
104.02 777 27.8747
104.137 758 27.5318
104.253 750 27.3861
104.37 796 28.2135
104.487 832 28.8444
104.603 788 28.0713
104.72 778 27.8927
104.836 753 27.4408
104.953 746 27.313
105.069 690 26.2679
105.186 684 26.1534
105.302 634 25.1794
105.418 584 24.1661
105.535 511 22.6053
105.651 484 22
105.767 429 20.7123
105.883 432 20.7846
105.999 401 20.025
106.115 0 1
106.231 0 1
106.347 0 1
106.463 0 1
106.579 0 1
106.694 0 1
106.81 0 1
106.926 0 1
107.041 0 1
107.157 0 1
109.576 0 1
109.692 0 1
109.807 0 1
109.923 0 1
110.039 0 1
110.155 0 1
110.27 0 1
110.386 0 1
110.502 0 1
110.618 385 19.6214
110.735 446 21.1187
110.851 524 22.891
110.967 598 24.454
111.083 601 24.5153
111.199 648 25.4558
111.316 698 26.4197
111.432 708 26.6083
111.549 721 26.8514
111.665 731 27.037
111.782 758 27.5318
111.898 723 26.8887
112.015 710 26.6458
112.132 701 26.4764
112.248 667 25.8263
112.365 732 27.0555
112.482 676 26
112.599 748 27.3496
112.716 721 26.8514
112.832 725 26.9258
112.949 682 26.1151
113.066 645 25.3969
113.183 710 26.6458
113.3 704 26.533
113.417 696 26.3818
113.534 701 26.4764
113.652 685 26.1725
113.769 757 27.5136
113.886 700 26.4575
114.003 699 26.4386
114.12 655 25.593
114.238 631 25.1197
114.355 638 25.2587
114.472 604 24.5764
114.589 664 25.7682
114.707 662 25.7294
114.824 639 25.2784
114.942 702 26.4953
115.059 706 26.5707
115.176 664 25.7682
115.294 701 26.4764
115.411 667 25.8263
115.529 723 26.8887
115.646 692 26.3059
115.764 655 25.593
115.881 633 25.1595
115.999 678 26.0384
116.116 643 25.3574
116.234 709 26.6271
116.351 675 25.9808
116.469 698 26.4197
116.586 613 24.7588
116.704 607 24.6374
116.821 617 24.8395
116.939 640 25.2982
117.056 658 25.6515
117.174 628 25.0599
117.291 696 26.3818
117.409 639 25.2784
117.526 599 24.4745
117.644 623 24.96
117.761 572 23.9165
117.879 545 23.3452
117.996 573 23.9374
118.114 630 25.0998
118.231 614 24.779
118.349 681 26.096
118.466 622 24.9399
118.584 656 25.6125
118.701 613 24.7588
118.819 678 26.0384
118.936 675 25.9808
119.053 644 25.3772
119.171 631 25.1197
119.288 618 24.8596
119.405 614 24.779
119.523 613 24.7588
119.64 601 24.5153
119.757 612 24.7386
119.875 642 25.3377
119.992 646 25.4165
120.109 628 25.0599
120.226 613 24.7588
120.343 601 24.5153
120.46 638 25.2587
120.578 584 24.1661
120.695 576 24
120.812 605 24.5967
120.929 604 24.5764
121.046 607 24.6374
121.163 610 24.6982
121.279 580 24.0832
121.396 581 24.1039
121.513 564 23.7487
121.63 540 23.2379
121.747 501 22.383
121.863 534 23.1084
121.98 501 22.383
122.097 533 23.0868
122.213 508 22.5389
122.33 444 21.0713
122.446 466 21.587
122.563 439 20.9523
122.679 449 21.1896
122.795 374 19.3391
122.912 366 19.1311
123.028 354 18.8149
123.144 302 17.3781
123.26 345 18.5742
123.377 0 1
123.493 0 1
123.609 0 1
123.725 0 1
123.84 0 1
123.956 0 1
124.072 0 1
124.188 0 1
124.303 0 1
124.419 0 1
126.852 0 1
126.968 0 1
127.083 0 1
127.199 0 1
127.315 0 1
127.431 0 1
127.547 0 1
127.663 0 1
127.779 0 1
127.895 0 1
128.011 0 1
128.127 0 1
128.243 0 1
128.359 702 26.4953
128.476 639 25.2784
128.592 682 26.1151
128.708 675 25.9808
128.825 710 26.6458
128.941 700 26.4575
129.058 677 26.0192
129.174 670 25.8844
129.291 731 27.037
129.408 706 26.5707
129.524 680 26.0768
129.641 664 25.7682
129.758 703 26.5141
129.875 713 26.7021
129.992 728 26.9815
130.108 704 26.533
130.225 689 26.2488
130.342 675 25.9808
130.459 732 27.0555
130.576 768 27.7128
130.693 745 27.2947
130.81 664 25.7682
130.928 676 26
131.045 750 27.3861
131.162 811 28.4781
131.279 924 30.3974
131.396 941 30.6757
131.513 910 30.1662
131.631 914 30.2324
131.748 960 30.9839
131.865 983 31.3528
131.983 970 31.1448
132.1 998 31.5911
132.217 1030 32.0936
132.335 1076 32.8024
132.452 1124 33.5261
132.57 1086 32.9545
132.687 1153 33.9559
132.804 1189 34.4819
132.922 1143 33.8083
133.039 1147 33.8674
133.157 1195 34.5688
133.274 1158 34.0294
133.392 1184 34.4093
133.509 1153 33.9559
133.627 1138 33.7343
133.744 1104 33.2265
133.862 1197 34.5977
133.979 1129 33.6006
134.097 1129 33.6006
134.214 1047 32.3574
134.332 995 31.5436
134.449 970 31.1448
134.567 990 31.4643
134.684 1078 32.8329
134.802 1150 33.9116
134.919 1150 33.9116
135.037 1134 33.6749
135.154 1090 33.0151
135.272 1145 33.8378
135.389 1177 34.3074
135.507 1175 34.2783
135.624 1060 32.5576
135.742 1127 33.5708
135.859 1166 34.1467
135.977 1179 34.3366
136.094 1210 34.7851
136.211 1215 34.8569
136.329 1155 33.9853
136.446 1183 34.3948
136.564 1216 34.8712
136.681 1162 34.0881
136.798 1160 34.0588
136.915 1151 33.9264
137.033 1153 33.9559
137.15 1153 33.9559
137.267 1179 34.3366
137.384 1158 34.0294
137.502 1154 33.9706
137.619 1178 34.322
137.736 1103 33.2114
137.853 1035 32.1714
137.97 1038 32.218
138.087 957 30.9354
138.204 1005 31.7017
138.321 1102 33.1964
138.438 1159 34.0441
138.555 1173 34.2491
138.672 1135 33.6898
138.788 1108 33.2866
138.905 1141 33.7787
139.022 1088 32.9848
139.139 1071 32.7261
139.255 1032 32.1248
139.372 1028 32.0624
139.488 989 31.4484
139.605 859 29.3087
139.721 863 29.3769
139.838 879 29.6479
139.954 784 28
140.071 761 27.5862
140.187 704 26.533
140.303 627 25.04
140.419 693 26.3249
140.535 668 25.8457
140.652 576 24
140.768 0 1
140.884 0 1
141 0 1
141.115 0 1
141.231 0 1
141.347 0 1
141.463 0 1
141.578 0 1
141.694 0 1
144.104 0 1
144.219 0 1
144.335 0 1
144.45 0 1
144.566 0 1
144.682 0 1
144.798 0 1
144.914 0 1
145.03 0 1
145.146 1933 43.9659
145.262 2138 46.2385
145.378 2219 47.1063
145.494 2211 47.0213
145.61 2277 47.7179
145.726 2398 48.9694
145.842 2492 49.9199
145.959 2540 50.3984
146.075 2481 49.8096
146.192 2585 50.8429
146.308 2685 51.817
146.425 2773 52.6593
146.541 2845 53.3385
146.658 2881 53.6749
146.774 2789 52.811
146.891 2635 51.3323
147.008 2547 50.4678
147.125 2798 52.8961
147.241 3050 55.2268
147.358 3178 56.3738
147.475 3236 56.8859
147.592 3249 57
147.709 3442 58.6686
147.826 3747 61.2127
147.943 3793 61.5873
148.06 3613 60.1082
148.177 3841 61.9758
148.294 3861 62.1369
148.411 4032 63.498
148.528 3976 63.0555
148.645 4080 63.8749
148.762 4176 64.622
148.88 4153 64.4438
148.997 4367 66.0833
149.114 4283 65.4446
149.231 4330 65.8027
149.349 4380 66.1816
149.466 4396 66.3023
149.583 4401 66.34
149.701 3916 62.578
149.818 3683 60.6877
149.935 3520 59.3296
150.053 3678 60.6465
150.17 4029 63.4744
150.287 4582 67.6905
150.405 4705 68.593
150.522 4459 66.7757
150.64 4250 65.192
150.757 4017 63.3798
150.875 4281 65.4294
150.992 4528 67.2904
151.11 4313 65.6734
151.227 4294 65.5286
151.344 4494 67.0373
151.462 4653 68.2129
151.579 4787 69.1881
151.697 4816 69.3974
151.814 5048 71.0493
151.932 5001 70.7177
152.049 5057 71.1126
152.167 5234 72.3464
152.284 5456 73.8647
152.402 5467 73.9392
152.519 5538 74.4177
152.636 5385 73.3826
152.754 5477 74.0068
152.871 5504 74.1889
152.989 5540 74.4312
153.106 5625 75
153.223 5106 71.4563
153.341 4753 68.942
153.458 4227 65.0154
153.575 4376 66.1513
153.693 5326 72.9794
153.81 7324 85.5804
153.927 8557 92.5041
154.044 9288 96.3743
154.162 9506 97.4987
154.279 9848 99.2371
154.396 9926 99.6293
154.513 10384 101.902
154.63 10845 104.139
154.747 11001 104.886
154.864 11370 106.63
154.981 11488 107.182
155.098 11828 108.757
155.215 12000 109.545
155.332 12414 111.418
155.449 12449 111.575
155.566 12622 112.348
155.683 12674 112.579
155.8 12379 111.261
155.917 11783 108.55
156.033 11385 106.701
156.15 0 1
156.267 0 1
156.383 0 1
156.5 0 1
156.617 0 1
156.733 0 1
156.85 0 1
156.966 0 1
157.082 0 1
157.199 0 1
157.315 0 1
157.431 0 1
157.547 0 1
157.664 0 1
157.78 0 1
157.896 0 1
158.012 0 1
158.128 0 1
158.244 0 1
158.359 0 1
158.475 0 1
158.591 0 1
158.706 0 1
