
6.15755 0 1
6.2731 0 1
6.3887 0 1
6.50437 0 1
6.62009 0 1
6.73587 0 1
6.8517 0 1
6.96759 0 1
7.08353 0 1
7.19952 0 1
7.31557 0 1
7.43166 0 1
7.54781 0 1
7.664 0 1
7.78024 0 1
7.89653 0 1
8.01286 0 1
8.12924 0 1
8.24567 0 1
8.36213 0 1
8.47864 0 1
8.59519 0 1
8.71178 0 1
8.82841 0 1
8.94508 0 1
9.06179 0 1
9.17853 0 1
9.29531 0 1
9.41212 0 1
9.52897 0 1
9.64584 0 1
9.76276 0 1
9.8797 0 1
9.99667 0 1
10.1137 0 1
10.2307 0 1
10.3478 0 1
10.4648 0 1
10.5819 0 1
10.6991 0 1
10.8162 0 1
10.9334 0 1
11.0506 0 1
11.1678 0 1
11.285 0 1
11.4023 0 1
11.5196 0 1
11.6369 0 1
11.7542 0 1
11.8715 0 1
11.9888 0 1
12.1062 0 1
12.2235 0 1
12.3409 0 1
12.4582 0 1
12.5756 0 1
12.693 0 1
12.8104 0 1
12.9278 0 1
13.0452 0 1
13.1626 0 1
13.28 0 1
13.3974 0 1
13.5149 0 1
13.6323 0 1
13.7497 0 1
13.8671 0 1
13.9845 0 1
14.1019 0 1
14.2193 0 1
14.3367 0 1
14.4541 0 1
14.5714 0 1
14.6888 0 1
14.8062 0 1
14.9235 0 1
15.0408 0 0
15.1581 0 0
15.2755 0 0
15.3927 0 0
15.51 0 0
15.6273 0 0
15.7445 0 0
15.8617 0 0
15.9789 0 0
16.0961 0 0
16.2132 0 0
16.3304 0 0
16.4475 0 0
16.5646 0 0
16.6816 0 0
16.7986 0 0
16.9156 0 0
17.0326 0 0
17.1496 0 0
17.2665 0 0
17.3833 0 0
17.5002 0 0
17.617 0 0
17.7338 0 0
17.8505 0 0
17.9672 0 0
18.0839 0 0
18.2005 0 0
18.3171 0 0
18.4337 0 0
18.5502 0 0
18.6666 0 0
18.7831 0 0
18.8994 0 0
19.0158 0 0
19.1321 0 0
19.2483 0 0
19.3645 0 0
19.4806 0 0
19.5967 0 0
19.7128 0 0
19.8288 0 0
19.9447 0 0
20.0606 0 1
20.1764 0 1
20.2922 0 1
20.4079 0 1
20.5236 0 1
20.6392 0 1
20.7548 0 1
20.8702 0 1
23.3078 0 1
23.4233 0 1
23.539 0 1
23.6547 0 1
23.7704 0 1
23.8862 0 1
24.0021 0 1
24.118 0 1
24.234 0 1
24.35 0 1
24.4661 1340 36.606
24.5822 1430 37.8153
24.6984 1542 39.2683
24.8146 1671 40.8779
24.9309 1944 44.0908
25.0472 2163 46.5081
25.1636 2555 50.547
25.28 2667 51.643
25.3965 2683 51.7977
25.513 2622 51.2055
25.6296 2662 51.5946
25.7462 2773 52.6593
25.8628 2695 51.9134
25.9795 2686 51.8266
26.0962 2619 51.1762
26.213 2801 52.9245
26.3298 2875 53.619
26.4466 2785 52.7731
26.5635 2784 52.7636
26.6804 2768 52.6118
26.7973 2683 51.7977
26.9143 2635 51.3323
27.0313 2632 51.303
27.1483 2648 51.4587
27.2653 2569 50.6853
27.3824 2433 49.3254
27.4996 2337 48.3425
27.6167 2236 47.2864
27.7339 2262 47.5605
27.8511 2270 47.6445
27.9683 2398 48.9694
28.0855 2572 50.7149
28.2028 2533 50.3289
28.3201 2441 49.4065
28.4374 2544 50.4381
28.5547 2418 49.1732
28.6721 2487 49.8698
28.7894 2540 50.3984
28.9068 2472 49.7192
29.0242 2599 50.9804
29.1416 2697 51.9326
29.259 2563 50.6261
29.3764 2561 50.6063
29.4939 2443 49.4267
29.6113 2418 49.1732
29.7288 2365 48.6313
29.8463 2476 49.7594
29.9638 2293 47.8853
30.0812 2351 48.4871
30.1987 2509 50.0899
30.3162 2500 50
30.4337 2474 49.7393
30.5512 2526 50.2593
30.6687 2493 49.93
30.7862 2496 49.96
30.9037 2358 48.5592
31.0212 2262 47.5605
31.1387 2329 48.2597
31.2562 2328 48.2494
31.3737 2468 49.679
31.4912 2606 51.049
31.6087 2638 51.3615
31.7262 2513 50.1298
31.8436 2483 49.8297
31.9611 2539 50.3885
32.0785 2490 49.8999
32.1959 2438 49.3761
32.3134 2495 49.95
32.4308 2443 49.4267
32.5482 2356 48.5386
32.6655 2276 47.7074
32.7829 2286 47.8121
32.9002 2196 46.8615
33.0176 2208 46.9894
33.1349 2158 46.4543
33.2522 2175 46.6369
33.3694 2144 46.3033
33.4867 2228 47.2017
33.6039 2232 47.244
33.7211 2236 47.2864
33.8383 2256 47.4974
33.9554 2293 47.8853
34.0725 2308 48.0416
34.1896 2339 48.3632
34.3067 2379 48.775
34.4237 2449 49.4874
34.5407 2308 48.0416
34.6577 2202 46.9255
34.7746 2348 48.4562
34.8915 2278 47.7284
35.0084 2342 48.3942
35.1252 2473 49.7293
35.242 2477 49.7695
35.3587 2471 49.7092
35.4755 2424 49.2341
35.5921 2317 48.1352
35.7088 2357 48.5489
35.8254 2264 47.5815
35.9419 2179 46.6798
36.0584 2185 46.744
36.1749 2048 45.2548
36.2913 2069 45.4863
36.4077 2044 45.2106
36.524 1950 44.1588
36.6403 1787 42.2729
36.7565 1582 39.7744
36.8727 1518 38.9615
36.9889 1418 37.6563
37.1049 1442 37.9737
37.221 0 1
37.3369 0 1
37.4529 0 1
37.5687 0 1
37.6845 0 1
37.8003 0 1
37.916 0 1
38.0316 0 1
38.1472 0 1
40.5851 0 1
40.7008 0 1
40.8164 0 1
40.9322 0 1
41.048 0 1
41.1639 0 1
41.2798 0 1
41.3958 0 1
41.5118 0 1
41.6279 0 1
41.744 1957 44.238
41.8602 2618 51.1664
41.9765 3234 56.8683
42.0928 3386 58.1893
42.2091 3508 59.2284
42.3255 3501 59.1692
42.4419 3470 58.9067
42.5584 3715 60.9508
42.675 3688 60.7289
42.7915 3736 61.1228
42.9081 3752 61.2536
43.0248 3710 60.9098
43.1415 3978 63.0714
43.2582 3628 60.2329
43.375 3360 57.9655
43.4918 3432 58.5833
43.6087 3497 59.1354
43.7256 3453 58.7622
43.8425 3573 59.7746
43.9595 3738 61.1392
44.0765 3652 60.4318
44.1935 3598 59.9833
44.3106 3607 60.0583
44.4277 3517 59.3043
44.5448 3318 57.6021
44.6619 3284 57.3062
44.7791 3152 56.1427
44.8963 2935 54.1756
45.0136 2873 53.6004
45.1308 2609 51.0784
45.2481 2447 49.4672
45.3654 2474 49.7393
45.4827 2436 49.3559
45.6001 2145 46.3141
45.7174 2236 47.2864
45.8348 2088 45.6946
45.9522 1969 44.3734
46.0697 2074 45.5412
46.1871 2025 45
46.3046 2097 45.793
46.422 2094 45.7602
46.5395 2158 46.4543
46.657 2078 45.5851
46.7745 2076 45.5631
46.892 1919 43.8064
47.0096 1861 43.1393
47.1271 1974 44.4297
47.2446 2072 45.5192
47.3622 2024 44.9889
47.4797 1996 44.6766
47.5973 2042 45.1885
47.7149 2047 45.2438
47.8324 2034 45.0999
47.95 2138 46.2385
48.0675 1933 43.9659
48.1851 1955 44.2154
48.3027 1945 44.1022
48.4202 1983 44.5309
48.5378 1923 43.852
48.6554 1722 41.497
48.7729 1799 42.4146
48.8904 1772 42.0951
49.008 1782 42.2137
49.1255 1671 40.8779
49.243 1743 41.7493
49.3605 1839 42.8836
49.478 1786 42.2611
49.5955 1870 43.2435
49.713 1920 43.8178
49.8304 1929 43.9204
49.9479 2011 44.8442
50.0653 1955 44.2154
50.1827 1871 43.2551
50.3001 1790 42.3084
50.4175 1645 40.5586
50.5348 1520 38.9872
50.6521 1618 40.2244
50.7694 1790 42.3084
50.8867 1963 44.3058
51.004 1992 44.6318
51.1212 1989 44.5982
51.2384 1996 44.6766
51.3556 1993 44.643
51.4727 1954 44.2041
51.5899 1977 44.4635
51.707 2005 44.7772
51.824 1999 44.7102
51.9411 1959 44.2606
52.0581 1799 42.4146
52.175 1831 42.7902
52.2919 1881 43.3705
52.4088 1736 41.6653
52.5257 1694 41.1582
52.6425 1804 42.4735
52.7593 1759 41.9404
52.876 1700 41.2311
52.9927 1776 42.1426
53.1094 1708 41.328
53.226 1700 41.2311
53.3426 1762 41.9762
53.4591 1698 41.2068
53.5756 1504 38.7814
53.692 1352 36.7696
53.8084 1257 35.4542
53.9248 1180 34.3511
54.0411 974 31.209
54.1573 994 31.5278
54.2735 0 1
54.3896 0 1
54.5057 0 1
54.6217 0 1
54.7377 0 1
54.8537 0 1
54.9695 0 1
55.0853 0 1
55.2011 0 1
55.3168 0 1
55.4324 0 1
57.824 0 1
57.9396 0 1
58.0553 0 1
58.1711 0 1
58.2869 0 1
58.4028 0 1
58.5187 0 1
58.6347 0 1
58.7508 0 1
58.8669 0 1
58.983 1589 39.8623
59.0992 1614 40.1746
59.2155 1687 41.0731
59.3318 1699 41.2189
59.4482 2007 44.7996
59.5646 2150 46.3681
59.681 2226 47.1805
59.7975 2271 47.655
59.9141 2232 47.244
60.0306 2241 47.3392
60.1473 2287 47.8226
60.2639 2210 47.0106
60.3807 2228 47.2017
60.4974 2244 47.3709
60.6142 2221 47.1275
60.731 2327 48.239
60.8479 2345 48.4252
60.9648 2329 48.2597
61.0818 2337 48.3425
61.1987 2227 47.1911
61.3158 2219 47.1063
61.4328 2272 47.6655
61.5499 2257 47.5079
61.667 2093 45.7493
61.7841 2182 46.7119
61.9013 2240 47.3286
62.0185 2251 47.4447
62.1357 2252 47.4552
62.253 2335 48.3218
62.3702 2217 47.085
62.4875 2114 45.9783
62.6049 1934 43.9773
62.7222 2024 44.9889
62.8396 2079 45.5961
62.9569 2216 47.0744
63.0743 2421 49.2037
63.1918 2455 49.548
63.3092 2352 48.4974
63.4267 2317 48.1352
63.5441 2420 49.1935
63.6616 2359 48.5695
63.7791 2370 48.6826
63.8966 2338 48.3529
64.0142 2334 48.3115
64.1317 2256 47.4974
64.2492 2261 47.55
64.3668 2273 47.676
64.4843 2298 47.9375
64.6019 2282 47.7703
64.7195 2218 47.0956
64.837 2285 47.8017
64.9546 2133 46.1844
65.0722 2129 46.1411
65.1898 2161 46.4866
65.3074 2127 46.1194
65.4249 2159 46.465
65.5425 2325 48.2183
65.6601 2237 47.2969
65.7777 2307 48.0312
65.8952 2145 46.3141
66.0128 2162 46.4973
66.1304 1923 43.852
66.2479 1851 43.0232
66.3655 1929 43.9204
66.483 2083 45.6399
66.6005 2264 47.5815
66.718 2257 47.5079
66.8355 2224 47.1593
66.953 2312 48.0833
67.0705 2320 48.1664
67.1879 2261 47.55
67.3054 2267 47.613
67.4228 2278 47.7284
67.5402 2300 47.9583
67.6576 2199 46.8935
67.7749 2280 47.7493
67.8923 2305 48.0104
68.0096 2245 47.3814
68.1269 2258 47.5184
68.2442 2254 47.4763
68.3614 2202 46.9255
68.4787 2128 46.1303
68.5958 2169 46.5725
68.713 2146 46.3249
68.8302 2042 45.1885
68.9473 2009 44.8219
69.0643 2132 46.1736
69.1814 2165 46.5296
69.2984 2203 46.9361
69.4154 2164 46.5188
69.5323 2127 46.1194
69.6492 2040 45.1664
69.7661 1825 42.72
69.8829 1655 40.6817
69.9997 1801 42.4382
70.1165 1938 44.0227
70.2332 1895 43.5316
70.3499 1882 43.382
70.4665 1812 42.5676
70.5831 1672 40.8901
70.6996 1490 38.6005
70.8161 1487 38.5616
70.9326 1392 37.3095
71.049 1396 37.3631
71.1653 1267 35.5949
71.2817 1221 34.9428
71.3979 1246 35.2987
71.5141 1123 33.5112
71.6303 1124 33.5261
71.7464 1087 32.9697
71.8624 0 1
71.9784 0 1
72.0944 0 1
72.2102 0 1
72.3261 0 1
72.4418 0 1
72.5575 0 1
72.6732 0 1
75.1054 0 1
75.2209 0 1
75.3365 0 1
75.4521 0 1
75.5678 0 1
75.6835 0 1
75.7993 0 1
75.9151 0 1
76.031 0 1
76.147 1737 41.6773
76.263 1847 42.9767
76.3791 2047 45.2438
76.4952 1849 43
76.6113 2000 44.7214
76.7276 2026 45.0111
76.8438 2105 45.8803
76.9601 2120 46.0435
77.0765 2170 46.5833
77.1929 2121 46.0543
77.3093 2136 46.2169
77.4258 2141 46.2709
77.5423 2042 45.1885
77.6589 2042 45.1885
77.7755 1980 44.4972
77.8921 2011 44.8442
78.0088 2033 45.0888
78.1256 2069 45.4863
78.2423 2071 45.5082
78.3591 2169 46.5725
78.4759 2172 46.6047
78.5928 2055 45.3321
78.7097 1809 42.5323
78.8266 1577 39.7115
78.9436 1408 37.5233
79.0606 1534 39.1663
79.1776 1781 42.2019
79.2946 2041 45.1774
79.4117 2163 46.5081
79.5288 2228 47.2017
79.6459 2126 46.1086
79.7631 2277 47.7179
79.8802 2230 47.2229
79.9974 2245 47.3814
80.1147 2142 46.2817
80.2319 2245 47.3814
80.3491 2165 46.5296
80.4664 2156 46.4327
80.5837 2292 47.8748
80.701 2347 48.4458
80.8183 2293 47.8853
80.9357 2259 47.5289
81.053 2316 48.1248
81.1704 2232 47.244
81.2877 2253 47.4658
81.4051 2244 47.3709
81.5225 2274 47.6865
81.6399 2225 47.1699
81.7573 2263 47.571
81.8747 2329 48.2597
81.9922 2320 48.1664
82.1096 2605 51.0392
82.227 2530 50.2991
82.3444 2354 48.518
82.4619 2199 46.8935
82.5793 1929 43.9204
82.6967 2123 46.076
82.8142 2517 50.1697
82.9316 3091 55.5968
83.049 3363 57.9914
83.1664 3554 59.6154
83.2838 3673 60.6053
83.4012 3724 61.0246
83.5186 3787 61.5386
83.636 3828 61.8708
83.7534 3980 63.0872
83.8708 3986 63.1348
83.9881 4003 63.2693
84.1055 4086 63.9218
84.2228 4147 64.3972
84.3401 4226 65.0077
84.4575 4146 64.3894
84.5747 4237 65.0922
84.692 4201 64.8151
84.8093 4100 64.0312
84.9265 4090 63.9531
85.0437 4079 63.867
85.1609 4042 63.5767
85.2781 4106 64.0781
85.3952 4035 63.5216
85.5123 3998 63.2297
85.6294 4011 63.3325
85.7465 3886 62.3378
85.8636 3693 60.7701
85.9806 3052 55.2449
86.0976 2602 51.0098
86.2145 2618 51.1664
86.3315 2916 54
86.4484 3689 60.7371
86.5652 3902 62.466
86.682 3977 63.0635
86.7988 3941 62.7774
86.9156 3959 62.9206
87.0323 3926 62.6578
87.149 3978 63.0714
87.2657 3918 62.5939
87.3823 3877 62.2656
87.4988 3687 60.7207
87.6154 3463 58.8473
87.7318 3142 56.0535
87.8483 3008 54.8452
87.9647 2958 54.3875
88.081 2862 53.4977
88.1973 2850 53.3854
88.3136 2760 52.5357
88.4298 2595 50.9411
88.546 2369 48.6724
88.6621 2416 49.1528
88.7781 2239 47.3181
88.8942 0 1
89.0101 0 1
89.126 0 1
89.2419 0 1
89.3577 0 1
89.4734 0 1
89.5891 0 1
89.7047 0 1
89.8203 0 1
89.9358 0 1
92.3269 0 1
92.4424 0 1
92.558 0 1
92.6736 0 1
92.7893 0 1
92.905 0 1
93.0208 0 1
93.1366 0 1
93.2525 0 1
93.3685 0 1
93.4845 0 1
93.6005 4277 65.3988
93.7167 4208 64.8691
93.8328 4324 65.7571
93.949 4179 64.6452
94.0653 4240 65.1153
94.1816 4317 65.7039
94.2979 4091 63.9609
94.4143 4305 65.6125
94.5307 4232 65.0538
94.6472 4121 64.195
94.7637 4095 63.9922
94.8803 3699 60.8194
94.9969 3215 56.701
95.1135 2929 54.1202
95.2302 3076 55.4617
95.3469 3615 60.1249
95.4637 3948 62.8331
95.5805 4215 64.923
95.6973 4362 66.0454
95.8142 4345 65.9166
95.9311 4440 66.6333
96.048 4298 65.5591
96.1649 4296 65.5439
96.2819 4360 66.0303
96.3989 4304 65.6049
96.516 4368 66.0908
96.633 4319 65.7191
96.7501 4391 66.2646
96.8673 4536 67.3498
96.9844 4462 66.7982
97.1016 4525 67.2681
97.2188 4349 65.9469
97.336 4432 66.5733
97.4532 4333 65.8255
97.5704 4285 65.4599
97.6877 4233 65.0615
97.805 4214 64.9153
97.9223 4297 65.5515
98.0396 4421 66.4906
98.1569 4301 65.582
98.2743 4198 64.792
98.3916 3864 62.1611
98.509 3351 57.8878
98.6264 2976 54.5527
98.7438 3179 56.3826
98.8612 3558 59.649
98.9786 4023 63.4271
99.096 4216 64.9307
99.2134 4115 64.1483
99.3308 4048 63.6239
99.4482 4097 64.0078
99.5656 3952 62.8649
99.6831 3809 61.7171
99.8005 3776 61.4492
99.9179 3739 61.1474
100.035 3646 60.3821
100.153 3505 59.203
100.27 3582 59.8498
100.388 3536 59.4643
100.505 3488 59.0593
100.622 3372 58.0689
100.74 3357 57.9396
100.857 3150 56.1249
100.975 3098 55.6597
101.092 3062 55.3353
101.209 3019 54.9454
101.327 2970 54.4977
101.444 2914 53.9815
101.561 2898 53.8331
101.679 2954 54.3507
101.796 2742 52.3641
101.913 2806 52.9717
102.03 2584 50.8331
102.148 2292 47.8748
102.265 2004 44.7661
102.382 2416 49.1528
102.499 2502 50.02
102.616 2650 51.4782
102.733 2749 52.4309
102.851 2751 52.45
102.968 2729 52.2398
103.085 2759 52.5262
103.202 2636 51.342
103.319 2687 51.8363
103.436 2607 51.0588
103.552 2671 51.6817
103.669 2605 51.0392
103.786 2598 50.9706
103.903 2643 51.4101
104.02 2667 51.643
104.137 2681 51.7784
104.253 2838 53.2729
104.37 2624 51.225
104.487 2602 51.0098
104.603 2556 50.5569
104.72 2442 49.4166
104.836 2407 49.0612
104.953 2112 45.9565
105.069 1898 43.566
105.186 1686 41.0609
105.302 1602 40.025
105.418 1526 39.064
105.535 1375 37.081
105.651 1133 33.6601
105.767 980 31.305
105.883 831 28.8271
105.999 796 28.2135
106.115 0 1
106.231 0 1
106.347 0 1
106.463 0 1
106.579 0 1
106.694 0 1
106.81 0 1
106.926 0 1
107.041 0 1
107.157 0 1
109.576 0 1
109.692 0 1
109.807 0 1
109.923 0 1
110.039 0 1
110.155 0 1
110.27 0 1
110.386 0 1
110.502 0 1
110.618 2651 51.4879
110.735 2759 52.5262
110.851 2546 50.4579
110.967 2315 48.1144
111.083 2450 49.4975
111.199 2418 49.1732
111.316 2645 51.4296
111.432 2983 54.6168
111.549 3004 54.8088
111.665 2882 53.6843
111.782 2984 54.626
111.898 2895 53.8052
112.015 2834 53.2353
112.132 2887 53.7308
112.248 2958 54.3875
112.365 2931 54.1387
112.482 2888 53.7401
112.599 3141 56.0446
112.716 3166 56.2672
112.832 3095 55.6327
112.949 3170 56.3028
113.066 3211 56.6657
113.183 3171 56.3116
113.3 3253 57.0351
113.417 3218 56.7274
113.534 3274 57.2189
113.652 3279 57.2626
113.769 3203 56.5951
113.886 3288 57.3411
114.003 3091 55.5968
114.12 3263 57.1227
114.238 3167 56.2761
114.355 2898 53.8331
114.472 2599 50.9804
114.589 2574 50.7346
114.707 2510 50.0999
114.824 2757 52.5071
114.942 2977 54.5619
115.059 3035 55.0908
115.176 3129 55.9375
115.294 2986 54.6443
115.411 3094 55.6237
115.529 2928 54.111
115.646 3026 55.0091
115.764 2855 53.4322
115.881 3034 55.0818
115.999 2925 54.0833
116.116 2989 54.6717
116.234 3118 55.8391
116.351 3202 56.5862
116.469 3223 56.7715
116.586 3316 57.5847
116.704 3282 57.2887
116.821 3379 58.1292
116.939 3334 57.7408
117.056 3321 57.6281
117.174 3285 57.3149
117.291 3311 57.5413
117.409 3281 57.28
117.526 3304 57.4804
117.644 3293 57.3847
117.761 3149 56.116
117.879 3080 55.4977
117.996 2865 53.5257
118.114 2633 51.3128
118.231 2531 50.309
118.349 2630 51.2835
118.466 2830 53.1977
118.584 2976 54.5527
118.701 2983 54.6168
118.819 3131 55.9553
118.936 3018 54.9363
119.053 2950 54.3139
119.171 3016 54.9181
119.288 3010 54.8635
119.405 2905 53.8981
119.523 2867 53.5444
119.64 2828 53.1789
119.757 3059 55.3082
119.875 2922 54.0555
119.992 2948 54.2955
120.109 3074 55.4437
120.226 3088 55.5698
120.343 3161 56.2228
120.46 3043 55.1634
120.578 3094 55.6237
120.695 3108 55.7494
120.812 3075 55.4527
120.929 3067 55.3805
121.046 2958 54.3875
121.163 3010 54.8635
121.279 2913 53.9722
121.396 2864 53.5164
121.513 2813 53.0377
121.63 2700 51.9615
121.747 2490 49.8999
121.863 2106 45.8912
121.98 2113 45.9674
122.097 2024 44.9889
122.213 2234 47.2652
122.33 2124 46.0869
122.446 2141 46.2709
122.563 1980 44.4972
122.679 2039 45.1553
122.795 1843 42.9302
122.912 1922 43.8406
123.028 1827 42.7434
123.144 1741 41.7253
123.26 1764 42
123.377 0 1
123.493 0 1
123.609 0 1
123.725 0 1
123.84 0 1
123.956 0 1
124.072 0 1
124.188 0 1
124.303 0 1
124.419 0 1
126.852 0 1
126.968 0 1
127.083 0 1
127.199 0 1
127.315 0 1
127.431 0 1
127.547 0 1
127.663 0 1
127.779 0 1
127.895 0 1
128.011 0 1
128.127 0 1
128.243 0 1
128.359 3433 58.5918
128.476 3425 58.5235
128.592 3466 58.8727
128.708 3454 58.7707
128.825 3401 58.3181
128.941 3547 59.5567
129.058 3594 59.95
129.174 3554 59.6154
129.291 3644 60.3656
129.408 3820 61.8061
129.524 3850 62.0484
129.641 3951 62.857
129.758 4058 63.7024
129.875 4010 63.3246
129.992 4135 64.304
130.108 4215 64.923
130.225 4191 64.7379
130.342 4057 63.6946
130.459 4025 63.4429
130.576 3990 63.1664
130.693 3815 61.7657
130.81 3600 60
130.928 3579 59.8247
131.045 3721 61
131.162 3894 62.4019
131.279 4050 63.6396
131.396 4030 63.4823
131.513 3955 62.8888
131.631 4054 63.671
131.748 3996 63.2139
131.865 3874 62.2415
131.983 3959 62.9206
132.1 3865 62.1691
132.217 3760 61.3188
132.335 3831 61.8951
132.452 3696 60.7947
132.57 3872 62.2254
132.687 3717 60.9672
132.804 4018 63.3877
132.922 3875 62.2495
133.039 3956 62.8967
133.157 3876 62.2575
133.274 4096 64
133.392 4215 64.923
133.509 4200 64.8074
133.627 4445 66.6708
133.744 4477 66.9104
133.862 4455 66.7458
133.979 4395 66.2948
134.097 4308 65.6354
134.214 4270 65.3452
134.332 4072 63.8122
134.449 4043 63.5846
134.567 4146 64.3894
134.684 4192 64.7457
134.802 4252 65.2074
134.919 4360 66.0303
135.037 4266 65.3146
135.154 4312 65.6658
135.272 4217 64.9384
135.389 4231 65.0461
135.507 4143 64.3661
135.624 4033 63.5059
135.742 4161 64.5058
135.859 4126 64.2339
135.977 4000 63.2456
136.094 4037 63.5374
136.211 4084 63.9062
136.329 4080 63.8749
136.446 4128 64.2495
136.564 4220 64.9615
136.681 4051 63.6475
136.798 4112 64.1249
136.915 4262 65.284
137.033 4136 64.3117
137.15 4236 65.0846
137.267 4248 65.1767
137.384 4207 64.8614
137.502 4286 65.4675
137.619 4228 65.0231
137.736 4083 63.8984
137.853 4041 63.5689
137.97 4019 63.3956
138.087 3741 61.1637
138.204 4007 63.3009
138.321 4052 63.6553
138.438 4133 64.2884
138.555 4115 64.1483
138.672 4042 63.5767
138.788 4118 64.1716
138.905 3976 63.0555
139.022 3865 62.1691
139.139 3650 60.4152
139.255 3551 59.5903
139.372 3427 58.5406
139.488 3214 56.6922
139.605 3143 56.0625
139.721 2973 54.5252
139.838 2897 53.8238
139.954 2931 54.1387
140.071 2878 53.647
140.187 2895 53.8052
140.303 2806 52.9717
140.419 2918 54.0185
140.535 2943 54.2494
140.652 2908 53.9259
140.768 0 1
140.884 0 1
141 0 1
141.115 0 1
141.231 0 1
141.347 0 1
141.463 0 1
141.578 0 1
141.694 0 1
144.104 0 1
144.219 0 1
144.335 0 1
144.45 0 1
144.566 0 1
144.682 0 1
144.798 0 1
144.914 0 1
145.03 0 1
145.146 8046 89.6995
145.262 8635 92.9247
145.378 8587 92.6661
145.494 8608 92.7793
145.61 8684 93.188
145.726 8930 94.4987
145.842 8886 94.2656
145.959 8876 94.2125
146.075 8994 94.8367
146.192 9048 95.121
146.308 8731 93.4398
146.425 8696 93.2523
146.541 8107 90.0389
146.658 6999 83.66
146.774 5995 77.4274
146.891 5724 75.6571
147.008 6292 79.3221
147.125 7654 87.4871
147.241 8313 91.1757
147.358 8742 93.4987
147.475 8641 92.957
147.592 8665 93.086
147.709 8965 94.6837
147.826 8735 93.4612
147.943 8740 93.488
148.06 8831 93.9734
148.177 8797 93.7923
148.294 8880 94.2338
148.411 8559 92.5149
148.528 8798 93.7977
148.645 8986 94.7945
148.762 8823 93.9308
148.88 8833 93.984
148.997 8746 93.5201
149.114 9260 96.2289
149.231 9072 95.247
149.349 9058 95.1735
149.466 8911 94.3981
149.583 9222 96.0312
149.701 8975 94.7365
149.818 9130 95.551
149.935 9020 94.9737
150.053 9016 94.9526
150.17 8563 92.5365
150.287 7546 86.8677
150.405 6449 80.3057
150.522 6030 77.6531
150.64 6378 79.8624
150.757 7510 86.6603
150.875 8453 91.9402
150.992 8825 93.9415
151.11 8485 92.1141
151.227 8664 93.0806
151.344 8552 92.477
151.462 8567 92.5581
151.579 8814 93.8829
151.697 8879 94.2284
151.814 8597 92.72
151.932 8727 93.4184
152.049 8889 94.2815
152.167 8766 93.6269
152.284 8914 94.414
152.402 9000 94.8683
152.519 8862 94.1382
152.636 9226 96.0521
152.754 9081 95.2943
152.871 9023 94.9895
152.989 9185 95.8384
153.106 9468 97.3036
153.223 9246 96.1561
153.341 9242 96.1353
153.458 9244 96.1457
153.575 9265 96.2549
153.693 9445 97.1854
153.81 8769 93.6429
153.927 7915 88.9663
154.044 6867 82.8674
154.162 6377 79.8561
154.279 6668 81.6578
154.396 8009 89.493
154.513 8825 93.9415
154.63 9149 95.6504
154.747 9131 95.5563
154.864 8873 94.1966
154.981 9007 94.9052
155.098 8889 94.2815
155.215 8848 94.0638
155.332 8395 91.6242
155.449 8293 91.0659
155.566 8198 90.5428
155.683 8068 89.822
155.8 8047 89.7051
155.917 7786 88.2383
156.033 7787 88.244
156.15 0 1
156.267 0 1
156.383 0 1
156.5 0 1
156.617 0 1
156.733 0 1
156.85 0 1
156.966 0 1
157.082 0 1
157.199 0 1
157.315 0 1
157.431 0 1
157.547 0 1
157.664 0 1
157.78 0 1
157.896 0 1
158.012 0 1
158.128 0 1
158.244 0 1
158.359 0 1
158.475 0 1
158.591 0 1
158.706 0 1
