
6.15755 0 1
6.2731 0 1
6.3887 0 1
6.50437 0 1
6.62009 0 1
6.73587 0 1
6.8517 0 1
6.96759 0 1
7.08353 0 1
7.19952 0 1
7.31557 0 1
7.43166 0 1
7.54781 0 1
7.664 0 1
7.78024 0 1
7.89653 0 1
8.01286 0 1
8.12924 0 1
8.24567 0 1
8.36213 0 1
8.47864 0 1
8.59519 0 1
8.71178 0 1
8.82841 0 1
8.94508 0 1
9.06179 0 1
9.17853 0 1
9.29531 0 1
9.41212 0 1
9.52897 0 1
9.64584 0 1
9.76276 0 1
9.8797 0 1
9.99667 0 1
10.1137 0 1
10.2307 0 1
10.3478 0 1
10.4648 0 1
10.5819 0 1
10.6991 0 1
10.8162 0 1
10.9334 0 1
11.0506 0 1
11.1678 0 1
11.285 0 1
11.4023 0 1
11.5196 0 1
11.6369 0 1
11.7542 0 1
11.8715 0 1
11.9888 0 1
12.1062 0 1
12.2235 0 1
12.3409 0 1
12.4582 0 1
12.5756 0 1
12.693 0 1
12.8104 0 1
12.9278 0 1
13.0452 0 1
13.1626 0 1
13.28 0 1
13.3974 0 1
13.5149 0 1
13.6323 0 1
13.7497 0 1
13.8671 0 1
13.9845 0 1
14.1019 0 1
14.2193 0 1
14.3367 0 1
14.4541 0 1
14.5714 0 1
14.6888 0 1
14.8062 0 1
14.9235 0 1
15.0408 0 0
15.1581 0 0
15.2755 0 0
15.3927 0 0
15.51 0 0
15.6273 0 0
15.7445 0 0
15.8617 0 0
15.9789 0 0
16.0961 0 0
16.2132 0 0
16.3304 0 0
16.4475 0 0
16.5646 0 0
16.6816 0 0
16.7986 0 0
16.9156 0 0
17.0326 0 0
17.1496 0 0
17.2665 0 0
17.3833 0 0
17.5002 0 0
17.617 0 0
17.7338 0 0
17.8505 0 0
17.9672 0 0
18.0839 0 0
18.2005 0 0
18.3171 0 0
18.4337 0 0
18.5502 0 0
18.6666 0 0
18.7831 0 0
18.8994 0 0
19.0158 0 0
19.1321 0 0
19.2483 0 0
19.3645 0 0
19.4806 0 0
19.5967 0 0
19.7128 0 0
19.8288 0 0
19.9447 0 0
20.0606 0 1
20.1764 0 1
20.2922 0 1
20.4079 0 1
20.5236 0 1
20.6392 0 1
20.7548 0 1
20.8702 0 1
23.3078 0 1
23.4233 0 1
23.539 0 1
23.6547 0 1
23.7704 0 1
23.8862 0 1
24.0021 0 1
24.118 0 1
24.234 0 1
24.35 0 1
24.4661 92057 303.409
24.5822 92372 303.928
24.6984 93637 306.002
24.8146 94548 307.487
24.9309 96623 310.842
25.0472 98540 313.911
25.1636 100209 316.558
25.28 100985 317.781
25.3965 102864 320.724
25.513 102552 320.237
25.6296 102941 320.844
25.7462 104342 323.02
25.8628 103085 321.069
25.9795 102525 320.195
26.0962 102395 319.992
26.213 102007 319.385
26.3298 99955 316.157
26.4466 100766 317.437
26.5635 98781 314.294
26.6804 96226 310.203
26.7973 93279 305.416
26.9143 91482 302.46
27.0313 89044 298.402
27.1483 90287 300.478
27.2653 90973 301.617
27.3824 91194 301.983
27.4996 90521 300.867
27.6167 88251 297.071
27.7339 84194 290.162
27.8511 80818 284.285
27.9683 78620 280.393
28.0855 78577 280.316
28.2028 79941 282.738
28.3201 78855 280.811
28.4374 82311 286.899
28.5547 84317 290.374
28.6721 86264 293.707
28.7894 88060 296.749
28.9068 89100 298.496
29.0242 88906 298.171
29.1416 88514 297.513
29.259 88351 297.239
29.3764 88742 297.896
29.4939 87864 296.419
29.6113 87588 295.953
29.7288 87297 295.461
29.8463 86441 294.009
29.9638 86939 294.854
30.0812 83962 289.762
30.1987 82958 288.024
30.3162 80451 283.639
30.4337 78609 280.373
30.5512 76839 277.198
30.6687 76263 276.158
30.7862 77801 278.928
30.9037 76876 277.265
31.0212 77888 279.084
31.1387 77193 277.836
31.2562 74823 273.538
31.3737 72932 270.059
31.4912 71052 266.556
31.6087 69928 264.439
31.7262 70637 265.776
31.8436 71929 268.196
31.9611 74588 273.108
32.0785 75787 275.294
32.1959 77644 278.647
32.3134 79013 281.093
32.4308 79353 281.697
32.5482 79964 282.779
32.6655 80206 283.207
32.7829 79268 281.546
32.9002 80225 283.24
33.0176 78587 280.334
33.1349 79404 281.787
33.2522 78863 280.826
33.3694 78983 281.039
33.4867 78371 279.948
33.6039 78119 279.498
33.7211 77411 278.228
33.8383 77075 277.624
33.9554 74544 273.027
34.0725 71801 267.957
34.1896 70105 264.773
34.3067 69562 263.746
34.4237 69589 263.797
34.5407 69945 264.471
34.6577 70867 266.209
34.7746 69977 264.532
34.8915 68403 261.54
35.0084 65391 255.717
35.1252 64248 253.472
35.242 62734 250.468
35.3587 64051 253.083
35.4755 65459 255.85
35.5921 67215 259.259
35.7088 69811 264.218
35.8254 71510 267.414
35.9419 72351 268.981
36.0584 73817 271.693
36.1749 73308 270.755
36.2913 73653 271.391
36.4077 72911 270.02
36.524 72740 269.704
36.6403 72495 269.249
36.7565 73009 270.202
36.8727 72450 269.165
36.9889 72004 268.336
37.1049 71591 267.565
37.221 0 1
37.3369 0 1
37.4529 0 1
37.5687 0 1
37.6845 0 1
37.8003 0 1
37.916 0 1
38.0316 0 1
38.1472 0 1
40.5851 0 1
40.7008 0 1
40.8164 0 1
40.9322 0 1
41.048 0 1
41.1639 0 1
41.2798 0 1
41.3958 0 1
41.5118 0 1
41.6279 0 1
41.744 54128 232.654
41.8602 55440 235.457
41.9765 55858 236.343
42.0928 55951 236.54
42.2091 56142 236.943
42.3255 55999 236.641
42.4419 56037 236.721
42.5584 55850 236.326
42.675 55184 234.913
42.7915 54504 233.461
42.9081 52544 229.225
43.0248 50765 225.311
43.1415 49773 223.099
43.2582 49711 222.96
43.375 50359 224.408
43.4918 51207 226.29
43.6087 49920 223.428
43.7256 47809 218.653
43.8425 45416 213.11
43.9595 43925 209.583
44.0765 43704 209.055
44.1935 43794 209.27
44.3106 44629 211.256
44.4277 46354 215.3
44.5448 47017 216.834
44.6619 47372 217.651
44.7791 47258 217.389
44.8963 47411 217.741
45.0136 46790 216.31
45.1308 46343 215.274
45.2481 45721 213.825
45.3654 45432 213.148
45.4827 45048 212.245
45.6001 45125 212.426
45.7174 44638 211.277
45.8348 44360 210.618
45.9522 43947 209.635
46.0697 43505 208.579
46.1871 43335 208.171
46.3046 42856 207.017
46.422 41681 204.159
46.5395 40226 200.564
46.657 39239 198.088
46.7745 37993 194.918
46.892 37937 194.774
47.0096 37923 194.738
47.1271 38593 196.451
47.2446 37581 193.858
47.3622 35739 189.048
47.4797 34047 184.518
47.5973 33446 182.882
47.7149 33298 182.477
47.8324 34172 184.857
47.95 35091 187.326
48.0675 35393 188.13
48.1851 36404 190.798
48.3027 36109 190.024
48.4202 36197 190.255
48.5378 35857 189.359
48.6554 35704 188.955
48.7729 35804 189.219
48.8904 36242 190.373
49.008 35837 189.307
49.1255 36368 190.704
49.243 36439 190.89
49.3605 36641 191.418
49.478 37057 192.502
49.5955 37045 192.471
49.713 37449 193.517
49.8304 37666 194.077
49.9479 37647 194.028
50.0653 36740 191.677
50.1827 36433 190.874
50.3001 35656 188.828
50.4175 35694 188.929
50.5348 35649 188.809
50.6521 38020 194.987
50.7694 38475 196.15
50.8867 38062 195.095
51.004 37566 193.82
51.1212 38446 196.077
51.2384 39260 198.141
51.3556 41902 204.7
51.4727 44121 210.05
51.5899 45663 213.689
51.707 47029 216.862
51.824 47421 217.764
51.9411 48255 219.67
52.0581 48591 220.434
52.175 49278 221.986
52.2919 49423 222.313
52.4088 49958 223.513
52.5257 50882 225.57
52.6425 51080 226.009
52.7593 51552 227.051
52.876 52230 228.539
52.9927 52807 229.798
53.1094 53323 230.918
53.226 54003 232.385
53.3426 54798 234.09
53.4591 55326 235.215
53.5756 55035 234.595
53.692 54845 234.19
53.8084 53166 230.578
53.9248 51528 226.998
54.0411 50877 225.559
54.1573 51444 226.813
54.2735 0 1
54.3896 0 1
54.5057 0 1
54.6217 0 1
54.7377 0 1
54.8537 0 1
54.9695 0 1
55.0853 0 1
55.2011 0 1
55.3168 0 1
55.4324 0 1
57.824 0 1
57.9396 0 1
58.0553 0 1
58.1711 0 1
58.2869 0 1
58.4028 0 1
58.5187 0 1
58.6347 0 1
58.7508 0 1
58.8669 0 1
58.983 61926 248.849
59.0992 60714 246.402
59.2155 59901 244.747
59.3318 59024 242.949
59.4482 58947 242.79
59.5646 58621 242.118
59.681 57788 240.391
59.7975 58067 240.971
59.9141 58917 242.728
60.0306 60974 246.929
60.1473 62591 250.182
60.2639 63283 251.561
60.3807 62936 250.87
60.4974 63453 251.899
60.6142 62177 249.353
60.731 62239 249.477
60.8479 62152 249.303
60.9648 61867 248.731
61.0818 62060 249.118
61.1987 61401 247.792
61.3158 61170 247.326
61.4328 60604 246.179
61.5499 60166 245.288
61.667 60756 246.487
61.7841 60511 245.99
61.9013 60907 246.793
62.0185 60228 245.414
62.1357 59546 244.02
62.253 59590 244.111
62.3702 58666 242.211
62.4875 57294 239.362
62.6049 55678 235.962
62.7222 55048 234.623
62.8396 54714 233.91
62.9569 54514 233.482
63.0743 52649 229.454
63.1918 52375 228.856
63.3092 52321 228.738
63.4267 54358 233.148
63.5441 55917 236.468
63.6616 57006 238.759
63.7791 57222 239.211
63.8966 57159 239.079
64.0142 56946 238.634
64.1317 56315 237.308
64.2492 55796 236.212
64.3668 55549 235.688
64.4843 54904 234.316
64.6019 55442 235.461
64.7195 55281 235.119
64.837 55405 235.383
64.9546 55123 234.783
65.0722 54585 233.634
65.1898 54906 234.32
65.3074 55786 236.191
65.4249 54639 233.75
65.5425 54712 233.906
65.6601 54942 234.397
65.7777 54884 234.273
65.8952 54878 234.261
66.0128 53502 231.305
66.1304 52158 228.381
66.2479 50601 224.947
66.3655 49468 222.414
66.483 49352 222.153
66.6005 49163 221.727
66.718 47550 218.06
66.8355 48075 219.26
66.953 50039 223.694
67.0705 51842 227.688
67.1879 53062 230.352
67.3054 54000 232.379
67.4228 53759 231.86
67.5402 53632 231.586
67.6576 53453 231.199
67.7749 52931 230.067
67.8923 53868 232.095
68.0096 53246 230.751
68.1269 52819 229.824
68.2442 53304 230.877
68.3614 53779 231.903
68.4787 53370 231.019
68.5958 53797 231.942
68.713 53717 231.769
68.8302 53906 232.177
68.9473 54657 233.788
69.0643 54064 232.517
69.1814 54401 233.24
69.2984 54774 234.038
69.4154 55621 235.841
69.5323 55268 235.091
69.6492 55292 235.143
69.7661 55181 234.906
69.8829 53402 231.089
69.9997 51810 227.618
70.1165 51098 226.049
70.2332 50273 224.216
70.3499 49127 221.646
70.4665 48792 220.889
70.5831 50947 225.714
70.6996 53177 230.601
70.8161 54727 233.938
70.9326 55309 235.179
71.049 54849 234.199
71.1653 54820 234.137
71.2817 53322 230.916
71.3979 53100 230.434
71.5141 51831 227.664
71.6303 51310 226.517
71.7464 47299 217.483
71.8624 0 1
71.9784 0 1
72.0944 0 1
72.2102 0 1
72.3261 0 1
72.4418 0 1
72.5575 0 1
72.6732 0 1
75.1054 0 1
75.2209 0 1
75.3365 0 1
75.4521 0 1
75.5678 0 1
75.6835 0 1
75.7993 0 1
75.9151 0 1
76.031 0 1
76.147 48223 219.597
76.263 51131 226.122
76.3791 52478 229.081
76.4952 51429 226.78
76.6113 52200 228.473
76.7276 52592 229.329
76.8438 51656 227.28
76.9601 51819 227.638
77.0765 51697 227.37
77.1929 52147 228.357
77.3093 52348 228.797
77.4258 51806 227.609
77.5423 51800 227.596
77.6589 51275 226.44
77.7755 51392 226.698
77.8921 51393 226.7
78.0088 50904 225.619
78.1256 50355 224.399
78.2423 50423 224.551
78.3591 50336 224.357
78.4759 49831 223.229
78.5928 49764 223.078
78.7097 50175 223.998
78.8266 51947 227.919
78.9436 46669 216.03
79.0606 45488 213.279
79.1776 41019 202.531
79.2946 39844 199.61
79.4117 42105 205.195
79.5288 45213 212.633
79.6459 47621 218.222
79.7631 47869 218.79
79.8802 47729 218.47
79.9974 46864 216.481
80.1147 46765 216.252
80.2319 46418 215.448
80.3491 46027 214.539
80.4664 45794 213.995
80.5837 44963 212.045
80.701 44643 211.289
80.8183 45116 212.405
80.9357 44999 212.13
81.053 45386 213.04
81.1704 44822 211.712
81.2877 44083 209.96
81.4051 43913 209.554
81.5225 44528 211.017
81.6399 42930 207.196
81.7573 43088 207.576
81.8747 42366 205.83
81.9922 42182 205.383
82.1096 42438 206.005
82.227 42039 205.034
82.3444 41925 204.756
82.4619 42502 206.16
82.5793 41217 203.02
82.6967 41172 202.909
82.8142 36300 190.526
82.9316 32861 181.276
83.049 33389 182.727
83.1664 36518 191.097
83.2838 39065 197.649
83.4012 39175 197.927
83.5186 38850 197.104
83.636 38467 196.13
83.7534 38379 195.906
83.8708 37788 194.391
83.9881 37303 193.14
84.1055 37460 193.546
84.2228 36913 192.128
84.3401 37246 192.992
84.4575 36859 191.987
84.5747 37490 193.623
84.692 37798 194.417
84.8093 37480 193.598
84.9265 37163 192.777
85.0437 36712 191.604
85.1609 36906 192.109
85.2781 36548 191.175
85.3952 36379 190.733
85.5123 36599 191.309
85.6294 36127 190.071
85.7465 36538 191.149
85.8636 36987 192.32
85.9806 37249 193
86.0976 37204 192.883
86.2145 37198 192.868
86.3315 34960 186.976
86.4484 33079 181.876
86.5652 31683 177.997
86.682 34324 185.267
86.7988 35847 189.333
86.9156 36386 190.751
87.0323 35797 189.201
87.149 35708 188.966
87.2657 35699 188.942
87.3823 35560 188.574
87.4988 34989 187.053
87.6154 34840 186.655
87.7318 35142 187.462
87.8483 34655 186.159
87.9647 35195 187.603
88.081 35749 189.074
88.1973 36118 190.047
88.3136 36304 190.536
88.4298 35612 188.711
88.546 35141 187.459
88.6621 34957 186.968
88.7781 34150 184.797
88.8942 0 1
89.0101 0 1
89.126 0 1
89.2419 0 1
89.3577 0 1
89.4734 0 1
89.5891 0 1
89.7047 0 1
89.8203 0 1
89.9358 0 1
92.3269 0 1
92.4424 0 1
92.558 0 1
92.6736 0 1
92.7893 0 1
92.905 0 1
93.0208 0 1
93.1366 0 1
93.2525 0 1
93.3685 0 1
93.4845 0 1
93.6005 33393 182.738
93.7167 34878 186.757
93.8328 34776 186.483
93.949 35164 187.521
94.0653 35414 188.186
94.1816 34931 186.898
94.2979 35197 187.609
94.4143 35710 188.971
94.5307 35527 188.486
94.6472 35633 188.767
94.7637 35692 188.923
94.8803 36816 191.875
94.9969 36791 191.81
95.1135 37642 194.015
95.2302 37380 193.339
95.3469 37894 194.664
95.4637 36865 192.003
95.5805 35026 187.152
95.6973 32017 178.933
95.8142 32693 180.812
95.9311 36731 191.653
96.048 39230 198.066
96.1649 39618 199.043
96.2819 39500 198.746
96.3989 39220 198.04
96.516 39585 198.96
96.633 39476 198.686
96.7501 39098 197.732
96.8673 38968 197.403
96.9844 38640 196.571
97.1016 39148 197.859
97.2188 38661 196.624
97.336 39240 198.091
97.4532 39159 197.886
97.5704 39249 198.114
97.6877 38616 196.51
97.805 38127 195.261
97.9223 37839 194.522
98.0396 37319 193.181
98.1569 37493 193.631
98.2743 37290 193.106
98.3916 37161 192.772
98.509 37213 192.907
98.6264 36836 191.927
98.7438 37058 192.505
98.8612 37481 193.6
98.9786 37689 194.137
99.096 36556 191.196
99.2134 34663 186.18
99.3308 32526 180.35
99.4482 34291 185.178
99.5656 36560 191.207
99.6831 37496 193.639
99.8005 37101 192.616
99.9179 37078 192.556
100.035 37077 192.554
100.153 36172 190.189
100.27 36738 191.672
100.388 36677 191.512
100.505 37023 192.414
100.622 36898 192.089
100.74 36912 192.125
100.857 37590 193.881
100.975 37745 194.281
101.092 38016 194.977
101.209 38467 196.13
101.327 38566 196.382
101.444 38268 195.622
101.561 38280 195.653
101.679 38433 196.043
101.796 38537 196.308
101.913 38302 195.709
102.03 38648 196.591
102.148 38599 196.466
102.265 40743 201.849
102.382 37937 194.774
102.499 39512 198.776
102.616 38496 196.204
102.733 35564 188.584
102.851 34006 184.407
102.968 35474 188.345
103.085 36742 191.682
103.202 37332 193.215
103.319 38325 195.768
103.436 37310 193.158
103.552 37404 193.401
103.669 36638 191.411
103.786 36183 190.218
103.903 35794 189.193
104.02 35909 189.497
104.137 34837 186.647
104.253 35986 189.7
104.37 34070 184.581
104.487 35161 187.513
104.603 35058 187.238
104.72 34116 184.705
104.836 33807 183.867
104.953 33609 183.328
105.069 33254 182.357
105.186 32667 180.74
105.302 32635 180.652
105.418 31691 178.02
105.535 31756 178.202
105.651 31473 177.406
105.767 31701 178.048
105.883 31362 177.093
105.999 31483 177.434
106.115 0 1
106.231 0 1
106.347 0 1
106.463 0 1
106.579 0 1
106.694 0 1
106.81 0 1
106.926 0 1
107.041 0 1
107.157 0 1
109.576 0 1
109.692 0 1
109.807 0 1
109.923 0 1
110.039 0 1
110.155 0 1
110.27 0 1
110.386 0 1
110.502 0 1
110.618 19264 138.795
110.735 19676 140.271
110.851 19566 139.879
110.967 19608 140.029
111.083 19408 139.313
111.199 20013 141.467
111.316 20386 142.78
111.432 19668 140.243
111.549 18478 135.934
111.665 17602 132.673
111.782 17552 132.484
111.898 18063 134.399
112.015 18570 136.272
112.132 18419 135.717
112.248 18004 134.179
112.365 17956 134
112.482 17602 132.673
112.599 17236 131.286
112.716 17472 132.182
112.832 17403 131.92
112.949 17459 132.133
113.066 17439 132.057
113.183 17638 132.808
113.3 17438 132.053
113.417 17260 131.377
113.534 17598 132.657
113.652 17604 132.68
113.769 17719 133.113
113.886 17790 133.379
114.003 17986 134.112
114.12 18257 135.118
114.238 18446 135.816
114.355 18306 135.3
114.472 16874 129.9
114.589 15298 123.685
114.707 14963 122.323
114.824 17139 130.916
114.942 19178 138.485
115.059 19524 139.728
115.176 19475 139.553
115.294 18738 136.887
115.411 18616 136.44
115.529 19267 138.806
115.646 19876 140.982
115.764 19934 141.188
115.881 20020 141.492
115.999 19703 140.367
116.116 19874 140.975
116.234 20193 142.102
116.351 20199 142.123
116.469 20322 142.555
116.586 20403 142.839
116.704 20709 143.906
116.821 21081 145.193
116.939 21371 146.188
117.056 21289 145.908
117.174 21736 147.431
117.291 22087 148.617
117.409 22516 150.053
117.526 22754 150.844
117.644 23533 153.405
117.761 23598 153.616
117.879 23471 153.202
117.996 22367 149.556
118.114 20809 144.253
118.231 19184 138.506
118.349 18271 135.17
118.466 21241 145.743
118.584 24080 155.177
118.701 25550 159.844
118.819 26053 161.409
118.936 25564 159.887
119.053 25615 160.047
119.171 25655 160.172
119.288 26363 162.367
119.405 26449 162.631
119.523 26389 162.447
119.64 26380 162.419
119.757 26512 162.825
119.875 26635 163.202
119.992 26596 163.083
120.109 26883 163.96
120.226 26971 164.228
120.343 26706 163.42
120.46 27152 164.779
120.578 27297 165.218
120.695 27556 166
120.812 27837 166.844
120.929 28352 168.381
121.046 28921 170.062
121.163 29254 171.038
121.279 29250 171.026
121.396 29805 172.641
121.513 29071 170.502
121.63 28746 169.546
121.747 26457 162.656
121.863 24674 157.08
121.98 23001 151.661
122.097 22799 150.993
122.213 25617 160.053
122.33 29013 170.332
122.446 30957 175.946
122.563 31614 177.803
122.679 31722 178.107
122.795 31442 177.319
122.912 31609 177.789
123.028 31745 178.171
123.144 32028 178.964
123.26 32063 179.061
123.377 0 1
123.493 0 1
123.609 0 1
123.725 0 1
123.84 0 1
123.956 0 1
124.072 0 1
124.188 0 1
124.303 0 1
124.419 0 1
126.852 0 1
126.968 0 1
127.083 0 1
127.199 0 1
127.315 0 1
127.431 0 1
127.547 0 1
127.663 0 1
127.779 0 1
127.895 0 1
128.011 0 1
128.127 0 1
128.243 0 1
128.359 41399 203.467
128.476 41520 203.765
128.592 41872 204.626
128.708 42174 205.363
128.825 42011 204.966
128.941 42032 205.017
129.058 42125 205.244
129.174 42029 205.01
129.291 41630 204.034
129.408 42399 205.91
129.524 41711 204.233
129.641 42157 205.322
129.758 42422 205.966
129.875 42693 206.623
129.992 43422 208.379
130.108 43380 208.279
130.225 43056 207.499
130.342 42928 207.191
130.459 40262 200.654
130.576 39679 199.196
130.693 36662 191.473
130.81 34372 185.397
130.928 34177 184.87
131.045 34694 186.263
131.162 37880 194.628
131.279 41224 203.037
131.396 44076 209.943
131.513 45057 212.266
131.631 44916 211.934
131.748 44915 211.932
131.865 45039 212.224
131.983 44772 211.594
132.1 44910 211.92
132.217 45145 212.474
132.335 45152 212.49
132.452 44857 211.795
132.57 44960 212.038
132.687 43298 208.082
132.804 45649 213.656
132.922 44231 210.312
133.039 44108 210.019
133.157 44594 211.173
133.274 44654 211.315
133.392 45742 213.874
133.509 44892 211.877
133.627 45285 212.803
133.744 45882 214.201
133.862 44692 211.405
133.979 44124 210.057
134.097 41400 203.47
134.214 40212 200.529
134.332 37065 192.523
134.449 36916 192.135
134.567 37959 194.831
134.684 39873 199.682
134.802 42416 205.951
134.919 44208 210.257
135.037 46318 215.216
135.154 47336 217.568
135.272 47572 218.11
135.389 47704 218.412
135.507 47621 218.222
135.624 48021 219.137
135.742 47627 218.236
135.859 47890 218.838
135.977 48077 219.265
136.094 47889 218.836
136.211 47823 218.685
136.329 47811 218.657
136.446 47086 216.993
136.564 47960 218.998
136.681 48584 220.418
136.798 47455 217.842
136.915 48004 219.098
137.033 48406 220.014
137.15 48445 220.102
137.267 48634 220.531
137.384 47971 219.023
137.502 46943 216.663
137.619 45059 212.271
137.736 43552 208.691
137.853 40787 201.958
137.97 39032 197.565
138.087 40118 200.295
138.204 40117 200.292
138.321 42328 205.738
138.438 45150 212.485
138.555 46997 216.788
138.672 48008 219.107
138.788 49072 221.522
138.905 50706 225.18
139.022 50606 224.958
139.139 50723 225.218
139.255 51044 225.929
139.372 51020 225.876
139.488 50617 224.982
139.605 50985 225.799
139.721 50692 225.149
139.838 50684 225.131
139.954 50593 224.929
140.071 49490 222.463
140.187 50478 224.673
140.303 49849 223.269
140.419 49724 222.989
140.535 49775 223.103
140.652 49681 222.892
140.768 0 1
140.884 0 1
141 0 1
141.115 0 1
141.231 0 1
141.347 0 1
141.463 0 1
141.578 0 1
141.694 0 1
144.104 0 1
144.219 0 1
144.335 0 1
144.45 0 1
144.566 0 1
144.682 0 1
144.798 0 1
144.914 0 1
145.03 0 1
145.146 46159 214.846
145.262 46739 216.192
145.378 46931 216.636
145.494 46769 216.261
145.61 47106 217.039
145.726 46835 216.414
145.842 46196 214.933
145.959 45871 214.175
146.075 44821 211.71
146.192 43644 208.911
146.308 41534 203.799
146.425 40234 200.584
146.541 39100 197.737
146.658 38106 195.208
146.774 37905 194.692
146.891 39521 198.799
147.008 41917 204.736
147.125 43011 207.391
147.241 43817 209.325
147.358 43430 208.399
147.475 43925 209.583
147.592 45084 212.33
147.709 45832 214.084
147.826 46040 214.569
147.943 46729 216.169
148.06 45714 213.808
148.177 45907 214.259
148.294 45656 213.673
148.411 45316 212.876
148.528 45622 213.593
148.645 44849 211.776
148.762 44868 211.821
148.88 45149 212.483
148.997 42689 206.613
149.114 46213 214.972
149.231 44642 211.287
149.349 44493 210.934
149.466 43780 209.237
149.583 43282 208.043
149.701 42225 205.487
149.818 40567 201.413
149.935 39570 198.922
150.053 38432 196.041
150.17 37139 192.715
150.287 37053 192.492
150.405 37822 194.479
150.522 38766 196.891
150.64 40544 201.355
150.757 42517 206.197
150.875 42342 205.772
150.992 42491 206.133
151.11 40769 201.913
151.227 43063 207.516
151.344 43421 208.377
151.462 44843 211.762
151.579 45390 213.049
151.697 45299 212.836
151.814 45507 213.324
151.932 45125 212.426
152.049 45237 212.69
152.167 45084 212.33
152.284 45355 212.967
152.402 44802 211.665
152.519 44593 211.171
152.636 44868 211.821
152.754 45035 212.215
152.871 44501 210.953
152.989 44265 210.392
153.106 44266 210.395
153.223 43541 208.665
153.341 41837 204.541
153.458 40958 202.381
153.575 39356 198.383
153.693 38762 196.881
153.81 38283 195.66
153.927 38355 195.844
154.044 39148 197.859
154.162 41327 203.29
154.279 43274 208.024
154.396 44549 211.066
154.513 45022 212.184
154.63 44738 211.514
154.747 43847 209.397
154.864 44030 209.833
154.981 45450 213.19
155.098 46661 216.012
155.215 46695 216.09
155.332 47379 217.667
155.449 46867 216.488
155.566 46899 216.562
155.683 46708 216.12
155.8 47149 217.138
155.917 46528 215.704
156.033 46786 216.301
156.15 0 1
156.267 0 1
156.383 0 1
156.5 0 1
156.617 0 1
156.733 0 1
156.85 0 1
156.966 0 1
157.082 0 1
157.199 0 1
157.315 0 1
157.431 0 1
157.547 0 1
157.664 0 1
157.78 0 1
157.896 0 1
158.012 0 1
158.128 0 1
158.244 0 1
158.359 0 1
158.475 0 1
158.591 0 1
158.706 0 1
