
6.15755 0 1
6.2731 0 1
6.3887 0 1
6.50437 0 1
6.62009 0 1
6.73587 0 1
6.8517 0 1
6.96759 0 1
7.08353 0 1
7.19952 0 1
7.31557 0 1
7.43166 0 1
7.54781 0 1
7.664 0 1
7.78024 0 1
7.89653 0 1
8.01286 0 1
8.12924 0 1
8.24567 0 1
8.36213 0 1
8.47864 0 1
8.59519 0 1
8.71178 0 1
8.82841 0 1
8.94508 0 1
9.06179 0 1
9.17853 0 1
9.29531 0 1
9.41212 0 1
9.52897 0 1
9.64584 0 1
9.76276 0 1
9.8797 0 1
9.99667 0 1
10.1137 0 1
10.2307 0 1
10.3478 0 1
10.4648 0 1
10.5819 0 1
10.6991 0 1
10.8162 0 1
10.9334 0 1
11.0506 0 1
11.1678 0 1
11.285 0 1
11.4023 0 1
11.5196 0 1
11.6369 0 1
11.7542 0 1
11.8715 0 1
11.9888 0 1
12.1062 0 1
12.2235 0 1
12.3409 0 1
12.4582 0 1
12.5756 0 1
12.693 0 1
12.8104 0 1
12.9278 0 1
13.0452 0 1
13.1626 0 1
13.28 0 1
13.3974 0 1
13.5149 0 1
13.6323 0 1
13.7497 0 1
13.8671 0 1
13.9845 0 1
14.1019 0 1
14.2193 0 1
14.3367 0 1
14.4541 0 1
14.5714 0 1
14.6888 0 1
14.8062 0 1
14.9235 0 1
15.0408 533 23.0868
15.1581 524 22.891
15.2755 535 23.1301
15.3927 547 23.388
15.51 550 23.4521
15.6273 542 23.2809
15.7445 500 22.3607
15.8617 563 23.7276
15.9789 526 22.9347
16.0961 509 22.561
16.2132 516 22.7156
16.3304 538 23.1948
16.4475 553 23.516
16.5646 603 24.5561
16.6816 578 24.0416
16.7986 564 23.7487
16.9156 585 24.1868
17.0326 562 23.7065
17.1496 560 23.6643
17.2665 539 23.2164
17.3833 556 23.5797
17.5002 576 24
17.617 568 23.8328
17.7338 558 23.622
17.8505 507 22.5167
17.9672 542 23.2809
18.0839 495 22.2486
18.2005 515 22.6936
18.3171 517 22.7376
18.4337 517 22.7376
18.5502 551 23.4734
18.6666 603 24.5561
18.7831 560 23.6643
18.8994 584 24.1661
19.0158 556 23.5797
19.1321 531 23.0434
19.2483 533 23.0868
19.3645 512 22.6274
19.4806 483 21.9773
19.5967 485 22.0227
19.7128 467 21.6102
19.8288 419 20.4695
19.9447 432 20.7846
20.0606 0 1
20.1764 0 1
20.2922 0 1
20.4079 0 1
20.5236 0 1
20.6392 0 1
20.7548 0 1
20.8702 0 1
23.3078 0 1
23.4233 0 1
23.539 0 1
23.6547 0 1
23.7704 0 1
23.8862 0 1
24.0021 0 1
24.118 0 1
24.234 0 1
24.35 0 1
24.4661 208 14.4222
24.5822 210 14.4914
24.6984 265 16.2788
24.8146 306 17.4929
24.9309 358 18.9209
25.0472 433 20.8087
25.1636 484 22
25.28 523 22.8692
25.3965 547 23.388
25.513 589 24.2693
25.6296 572 23.9165
25.7462 610 24.6982
25.8628 579 24.0624
25.9795 641 25.318
26.0962 691 26.2869
26.213 634 25.1794
26.3298 648 25.4558
26.4466 592 24.3311
26.5635 569 23.8537
26.6804 563 23.7276
26.7973 572 23.9165
26.9143 571 23.8956
27.0313 575 23.9792
27.1483 566 23.7908
27.2653 568 23.8328
27.3824 586 24.2074
27.4996 584 24.1661
27.6167 563 23.7276
27.7339 597 24.4336
27.8511 557 23.6008
27.9683 540 23.2379
28.0855 558 23.622
28.2028 524 22.891
28.3201 595 24.3926
28.4374 572 23.9165
28.5547 589 24.2693
28.6721 552 23.4947
28.7894 617 24.8395
28.9068 614 24.779
29.0242 615 24.7992
29.1416 571 23.8956
29.259 560 23.6643
29.3764 586 24.2074
29.4939 599 24.4745
29.6113 591 24.3105
29.7288 604 24.5764
29.8463 584 24.1661
29.9638 565 23.7697
30.0812 588 24.2487
30.1987 574 23.9583
30.3162 535 23.1301
30.4337 555 23.5584
30.5512 576 24
30.6687 516 22.7156
30.7862 538 23.1948
30.9037 513 22.6495
31.0212 601 24.5153
31.1387 559 23.6432
31.2562 626 25.02
31.3737 538 23.1948
31.4912 511 22.6053
31.6087 490 22.1359
31.7262 530 23.0217
31.8436 507 22.5167
31.9611 538 23.1948
32.0785 558 23.622
32.1959 598 24.454
32.3134 591 24.3105
32.4308 585 24.1868
32.5482 574 23.9583
32.6655 581 24.1039
32.7829 558 23.622
32.9002 550 23.4521
33.0176 600 24.4949
33.1349 561 23.6854
33.2522 578 24.0416
33.3694 536 23.1517
33.4867 518 22.7596
33.6039 556 23.5797
33.7211 552 23.4947
33.8383 560 23.6643
33.9554 508 22.5389
34.0725 519 22.7816
34.1896 552 23.4947
34.3067 521 22.8254
34.4237 508 22.5389
34.5407 509 22.561
34.6577 553 23.516
34.7746 575 23.9792
34.8915 562 23.7065
35.0084 495 22.2486
35.1252 563 23.7276
35.242 484 22
35.3587 507 22.5167
35.4755 499 22.3383
35.5921 537 23.1733
35.7088 542 23.2809
35.8254 536 23.1517
35.9419 564 23.7487
36.0584 598 24.454
36.1749 606 24.6171
36.2913 591 24.3105
36.4077 583 24.1454
36.524 540 23.2379
36.6403 481 21.9317
36.7565 446 21.1187
36.8727 440 20.9762
36.9889 398 19.9499
37.1049 370 19.2354
37.221 0 1
37.3369 0 1
37.4529 0 1
37.5687 0 1
37.6845 0 1
37.8003 0 1
37.916 0 1
38.0316 0 1
38.1472 0 1
40.5851 0 1
40.7008 0 1
40.8164 0 1
40.9322 0 1
41.048 0 1
41.1639 0 1
41.2798 0 1
41.3958 0 1
41.5118 0 1
41.6279 0 1
41.744 228 15.0997
41.8602 234 15.2971
41.9765 345 18.5742
42.0928 305 17.4642
42.2091 377 19.4165
42.3255 413 20.3224
42.4419 423 20.567
42.5584 443 21.0476
42.675 474 21.7715
42.7915 424 20.5913
42.9081 434 20.8327
43.0248 443 21.0476
43.1415 405 20.1246
43.2582 440 20.9762
43.375 489 22.1133
43.4918 478 21.8632
43.6087 497 22.2935
43.7256 421 20.5183
43.8425 456 21.3542
43.9595 459 21.4243
44.0765 443 21.0476
44.1935 434 20.8327
44.3106 488 22.0907
44.4277 485 22.0227
44.5448 456 21.3542
44.6619 448 21.166
44.7791 480 21.9089
44.8963 517 22.7376
45.0136 526 22.9347
45.1308 486 22.0454
45.2481 490 22.1359
45.3654 502 22.4054
45.4827 467 21.6102
45.6001 520 22.8035
45.7174 464 21.5407
45.8348 504 22.4499
45.9522 492 22.1811
46.0697 473 21.7486
46.1871 512 22.6274
46.3046 497 22.2935
46.422 452 21.2603
46.5395 458 21.4009
46.657 452 21.2603
46.7745 446 21.1187
46.892 456 21.3542
47.0096 473 21.7486
47.1271 460 21.4476
47.2446 461 21.4709
47.3622 467 21.6102
47.4797 456 21.3542
47.5973 460 21.4476
47.7149 444 21.0713
47.8324 497 22.2935
47.95 470 21.6795
48.0675 516 22.7156
48.1851 486 22.0454
48.3027 473 21.7486
48.4202 505 22.4722
48.5378 510 22.5832
48.6554 482 21.9545
48.7729 488 22.0907
48.8904 468 21.6333
49.008 472 21.7256
49.1255 510 22.5832
49.243 516 22.7156
49.3605 513 22.6495
49.478 506 22.4944
49.5955 458 21.4009
49.713 472 21.7256
49.8304 502 22.4054
49.9479 466 21.587
50.0653 463 21.5174
50.1827 436 20.8806
50.3001 435 20.8567
50.4175 471 21.7025
50.5348 505 22.4722
50.6521 445 21.095
50.7694 483 21.9773
50.8867 451 21.2368
51.004 522 22.8473
51.1212 449 21.1896
51.2384 458 21.4009
51.3556 486 22.0454
51.4727 455 21.3307
51.5899 486 22.0454
51.707 492 22.1811
51.824 496 22.2711
51.9411 508 22.5389
52.0581 495 22.2486
52.175 503 22.4277
52.2919 504 22.4499
52.4088 459 21.4243
52.5257 527 22.9565
52.6425 525 22.9129
52.7593 517 22.7376
52.876 496 22.2711
52.9927 466 21.587
53.1094 499 22.3383
53.226 467 21.6102
53.3426 453 21.2838
53.4591 500 22.3607
53.5756 473 21.7486
53.692 461 21.4709
53.8084 382 19.5448
53.9248 376 19.3907
54.0411 304 17.4356
54.1573 278 16.6733
54.2735 0 1
54.3896 0 1
54.5057 0 1
54.6217 0 1
54.7377 0 1
54.8537 0 1
54.9695 0 1
55.0853 0 1
55.2011 0 1
55.3168 0 1
55.4324 0 1
57.824 0 1
57.9396 0 1
58.0553 0 1
58.1711 0 1
58.2869 0 1
58.4028 0 1
58.5187 0 1
58.6347 0 1
58.7508 0 1
58.8669 0 1
58.983 291 17.0587
59.0992 364 19.0788
59.2155 386 19.6469
59.3318 465 21.5639
59.4482 496 22.2711
59.5646 549 23.4307
59.681 593 24.3516
59.7975 559 23.6432
59.9141 576 24
60.0306 592 24.3311
60.1473 609 24.6779
60.2639 622 24.9399
60.3807 607 24.6374
60.4974 618 24.8596
60.6142 655 25.593
60.731 602 24.5357
60.8479 640 25.2982
60.9648 633 25.1595
61.0818 635 25.1992
61.1987 590 24.2899
61.3158 622 24.9399
61.4328 641 25.318
61.5499 619 24.8797
61.667 633 25.1595
61.7841 622 24.9399
61.9013 677 26.0192
62.0185 601 24.5153
62.1357 650 25.4951
62.253 609 24.6779
62.3702 624 24.98
62.4875 591 24.3105
62.6049 558 23.622
62.7222 614 24.779
62.8396 602 24.5357
62.9569 631 25.1197
63.0743 621 24.9199
63.1918 548 23.4094
63.3092 596 24.4131
63.4267 614 24.779
63.5441 622 24.9399
63.6616 589 24.2693
63.7791 632 25.1396
63.8966 622 24.9399
64.0142 636 25.219
64.1317 592 24.3311
64.2492 626 25.02
64.3668 592 24.3311
64.4843 635 25.1992
64.6019 623 24.96
64.7195 622 24.9399
64.837 631 25.1197
64.9546 601 24.5153
65.0722 581 24.1039
65.1898 662 25.7294
65.3074 616 24.8193
65.4249 625 25
65.5425 606 24.6171
65.6601 607 24.6374
65.7777 598 24.454
65.8952 617 24.8395
66.0128 539 23.2164
66.1304 578 24.0416
66.2479 549 23.4307
66.3655 560 23.6643
66.483 595 24.3926
66.6005 610 24.6982
66.718 626 25.02
66.8355 551 23.4734
66.953 639 25.2784
67.0705 559 23.6432
67.1879 564 23.7487
67.3054 608 24.6577
67.4228 630 25.0998
67.5402 623 24.96
67.6576 639 25.2784
67.7749 611 24.7184
67.8923 587 24.2281
68.0096 613 24.7588
68.1269 614 24.779
68.2442 563 23.7276
68.3614 600 24.4949
68.4787 586 24.2074
68.5958 590 24.2899
68.713 627 25.04
68.8302 577 24.0208
68.9473 573 23.9374
69.0643 603 24.5561
69.1814 597 24.4336
69.2984 558 23.622
69.4154 634 25.1794
69.5323 594 24.3721
69.6492 546 23.3666
69.7661 628 25.0599
69.8829 575 23.9792
69.9997 604 24.5764
70.1165 558 23.622
70.2332 573 23.9374
70.3499 506 22.4944
70.4665 516 22.7156
70.5831 502 22.4054
70.6996 472 21.7256
70.8161 381 19.5192
70.9326 396 19.8997
71.049 338 18.3848
71.1653 283 16.8226
71.2817 261 16.1555
71.3979 298 17.2627
71.5141 237 15.3948
71.6303 228 15.0997
71.7464 217 14.7309
71.8624 0 1
71.9784 0 1
72.0944 0 1
72.2102 0 1
72.3261 0 1
72.4418 0 1
72.5575 0 1
72.6732 0 1
75.1054 0 1
75.2209 0 1
75.3365 0 1
75.4521 0 1
75.5678 0 1
75.6835 0 1
75.7993 0 1
75.9151 0 1
76.031 0 1
76.147 317 17.8045
76.263 396 19.8997
76.3791 459 21.4243
76.4952 446 21.1187
76.6113 527 22.9565
76.7276 493 22.2036
76.8438 489 22.1133
76.9601 475 21.7945
77.0765 560 23.6643
77.1929 495 22.2486
77.3093 525 22.9129
77.4258 502 22.4054
77.5423 492 22.1811
77.6589 522 22.8473
77.7755 535 23.1301
77.8921 543 23.3024
78.0088 491 22.1585
78.1256 536 23.1517
78.2423 549 23.4307
78.3591 527 22.9565
78.4759 542 23.2809
78.5928 534 23.1084
78.7097 497 22.2935
78.8266 554 23.5372
78.9436 515 22.6936
79.0606 482 21.9545
79.1776 508 22.5389
79.2946 458 21.4009
79.4117 550 23.4521
79.5288 555 23.5584
79.6459 518 22.7596
79.7631 556 23.5797
79.8802 530 23.0217
79.9974 576 24
80.1147 551 23.4734
80.2319 568 23.8328
80.3491 559 23.6432
80.4664 523 22.8692
80.5837 554 23.5372
80.701 551 23.4734
80.8183 608 24.6577
80.9357 543 23.3024
81.053 530 23.0217
81.1704 596 24.4131
81.2877 597 24.4336
81.4051 548 23.4094
81.5225 510 22.5832
81.6399 560 23.6643
81.7573 511 22.6053
81.8747 543 23.3024
81.9922 505 22.4722
82.1096 552 23.4947
82.227 551 23.4734
82.3444 553 23.516
82.4619 556 23.5797
82.5793 572 23.9165
82.6967 476 21.8174
82.8142 481 21.9317
82.9316 553 23.516
83.049 455 21.3307
83.1664 540 23.2379
83.2838 527 22.9565
83.4012 574 23.9583
83.5186 555 23.5584
83.636 486 22.0454
83.7534 511 22.6053
83.8708 472 21.7256
83.9881 469 21.6564
84.1055 507 22.5167
84.2228 473 21.7486
84.3401 501 22.383
84.4575 468 21.6333
84.5747 514 22.6716
84.692 503 22.4277
84.8093 502 22.4054
84.9265 482 21.9545
85.0437 466 21.587
85.1609 430 20.7364
85.2781 442 21.0238
85.3952 472 21.7256
85.5123 444 21.0713
85.6294 418 20.445
85.7465 397 19.9249
85.8636 416 20.3961
85.9806 414 20.347
86.0976 412 20.2978
86.2145 370 19.2354
86.3315 362 19.0263
86.4484 396 19.8997
86.5652 386 19.6469
86.682 402 20.0499
86.7988 353 18.7883
86.9156 391 19.7737
87.0323 367 19.1572
87.149 378 19.4422
87.2657 366 19.1311
87.3823 386 19.6469
87.4988 339 18.412
87.6154 330 18.1659
87.7318 356 18.868
87.8483 284 16.8523
87.9647 271 16.4621
88.081 256 16
88.1973 212 14.5602
88.3136 176 13.2665
88.4298 151 12.2882
88.546 148 12.1655
88.6621 148 12.1655
88.7781 107 10.3441
88.8942 0 1
89.0101 0 1
89.126 0 1
89.2419 0 1
89.3577 0 1
89.4734 0 1
89.5891 0 1
89.7047 0 1
89.8203 0 1
89.9358 0 1
92.3269 0 1
92.4424 0 1
92.558 0 1
92.6736 0 1
92.7893 0 1
92.905 0 1
93.0208 0 1
93.1366 0 1
93.2525 0 1
93.3685 0 1
93.4845 0 1
93.6005 210 14.4914
93.7167 248 15.748
93.8328 313 17.6918
93.949 379 19.4679
94.0653 356 18.868
94.1816 360 18.9737
94.2979 358 18.9209
94.4143 358 18.9209
94.5307 383 19.5704
94.6472 367 19.1572
94.7637 403 20.0749
94.8803 387 19.6723
94.9969 390 19.7484
95.1135 400 20
95.2302 412 20.2978
95.3469 408 20.199
95.4637 391 19.7737
95.5805 399 19.975
95.6973 381 19.5192
95.8142 436 20.8806
95.9311 422 20.5426
96.048 381 19.5192
96.1649 412 20.2978
96.2819 437 20.9045
96.3989 404 20.0998
96.516 440 20.9762
96.633 467 21.6102
96.7501 429 20.7123
96.8673 435 20.8567
96.9844 424 20.5913
97.1016 479 21.8861
97.2188 449 21.1896
97.336 423 20.567
97.4532 483 21.9773
97.5704 435 20.8567
97.6877 473 21.7486
97.805 477 21.8403
97.9223 484 22
98.0396 504 22.4499
98.1569 448 21.166
98.2743 461 21.4709
98.3916 474 21.7715
98.509 487 22.0681
98.6264 513 22.6495
98.7438 519 22.7816
98.8612 566 23.7908
98.9786 457 21.3776
99.096 460 21.4476
99.2134 477 21.8403
99.3308 490 22.1359
99.4482 469 21.6564
99.5656 496 22.2711
99.6831 444 21.0713
99.8005 509 22.561
99.9179 554 23.5372
100.035 521 22.8254
100.153 549 23.4307
100.27 533 23.0868
100.388 541 23.2594
100.505 511 22.6053
100.622 501 22.383
100.74 506 22.4944
100.857 534 23.1084
100.975 488 22.0907
101.092 526 22.9347
101.209 543 23.3024
101.327 549 23.4307
101.444 548 23.4094
101.561 537 23.1733
101.679 551 23.4734
101.796 520 22.8035
101.913 524 22.891
102.03 514 22.6716
102.148 556 23.5797
102.265 562 23.7065
102.382 570 23.8747
102.499 572 23.9165
102.616 530 23.0217
102.733 532 23.0651
102.851 535 23.1301
102.968 554 23.5372
103.085 551 23.4734
103.202 564 23.7487
103.319 551 23.4734
103.436 559 23.6432
103.552 537 23.1733
103.669 584 24.1661
103.786 600 24.4949
103.903 583 24.1454
104.02 604 24.5764
104.137 591 24.3105
104.253 553 23.516
104.37 609 24.6779
104.487 612 24.7386
104.603 562 23.7065
104.72 595 24.3926
104.836 610 24.6982
104.953 545 23.3452
105.069 577 24.0208
105.186 532 23.0651
105.302 563 23.7276
105.418 513 22.6495
105.535 445 21.095
105.651 341 18.4662
105.767 282 16.7929
105.883 292 17.088
105.999 262 16.1864
106.115 0 1
106.231 0 1
106.347 0 1
106.463 0 1
106.579 0 1
106.694 0 1
106.81 0 1
106.926 0 1
107.041 0 1
107.157 0 1
109.576 0 1
109.692 0 1
109.807 0 1
109.923 0 1
110.039 0 1
110.155 0 1
110.27 0 1
110.386 0 1
110.502 0 1
110.618 313 17.6918
110.735 376 19.3907
110.851 403 20.0749
110.967 459 21.4243
111.083 497 22.2935
111.199 469 21.6564
111.316 458 21.4009
111.432 500 22.3607
111.549 506 22.4944
111.665 479 21.8861
111.782 511 22.6053
111.898 510 22.5832
112.015 545 23.3452
112.132 539 23.2164
112.248 508 22.5389
112.365 529 23
112.482 512 22.6274
112.599 461 21.4709
112.716 515 22.6936
112.832 495 22.2486
112.949 506 22.4944
113.066 509 22.561
113.183 532 23.0651
113.3 523 22.8692
113.417 560 23.6643
113.534 477 21.8403
113.652 515 22.6936
113.769 519 22.7816
113.886 518 22.7596
114.003 550 23.4521
114.12 525 22.9129
114.238 508 22.5389
114.355 493 22.2036
114.472 482 21.9545
114.589 544 23.3238
114.707 476 21.8174
114.824 497 22.2935
114.942 558 23.622
115.059 513 22.6495
115.176 518 22.7596
115.294 486 22.0454
115.411 565 23.7697
115.529 510 22.5832
115.646 511 22.6053
115.764 532 23.0651
115.881 544 23.3238
115.999 522 22.8473
116.116 513 22.6495
116.234 521 22.8254
116.351 482 21.9545
116.469 507 22.5167
116.586 495 22.2486
116.704 511 22.6053
116.821 515 22.6936
116.939 523 22.8692
117.056 531 23.0434
117.174 536 23.1517
117.291 485 22.0227
117.409 504 22.4499
117.526 502 22.4054
117.644 497 22.2935
117.761 509 22.561
117.879 488 22.0907
117.996 497 22.2935
118.114 515 22.6936
118.231 488 22.0907
118.349 498 22.3159
118.466 478 21.8632
118.584 516 22.7156
118.701 489 22.1133
118.819 494 22.2261
118.936 490 22.1359
119.053 447 21.1424
119.171 486 22.0454
119.288 494 22.2261
119.405 510 22.5832
119.523 483 21.9773
119.64 479 21.8861
119.757 455 21.3307
119.875 481 21.9317
119.992 491 22.1585
120.109 495 22.2486
120.226 520 22.8035
120.343 472 21.7256
120.46 474 21.7715
120.578 471 21.7025
120.695 485 22.0227
120.812 544 23.3238
120.929 482 21.9545
121.046 470 21.6795
121.163 456 21.3542
121.279 484 22
121.396 506 22.4944
121.513 516 22.7156
121.63 426 20.6398
121.747 423 20.567
121.863 436 20.8806
121.98 421 20.5183
122.097 411 20.2731
122.213 403 20.0749
122.33 391 19.7737
122.446 351 18.735
122.563 338 18.3848
122.679 282 16.7929
122.795 278 16.6733
122.912 234 15.2971
123.028 259 16.0935
123.144 225 15
123.26 231 15.1987
123.377 0 1
123.493 0 1
123.609 0 1
123.725 0 1
123.84 0 1
123.956 0 1
124.072 0 1
124.188 0 1
124.303 0 1
124.419 0 1
126.852 0 1
126.968 0 1
127.083 0 1
127.199 0 1
127.315 0 1
127.431 0 1
127.547 0 1
127.663 0 1
127.779 0 1
127.895 0 1
128.011 0 1
128.127 0 1
128.243 0 1
128.359 512 22.6274
128.476 545 23.3452
128.592 551 23.4734
128.708 517 22.7376
128.825 557 23.6008
128.941 556 23.5797
129.058 513 22.6495
129.174 576 24
129.291 548 23.4094
129.408 538 23.1948
129.524 542 23.2809
129.641 525 22.9129
129.758 540 23.2379
129.875 561 23.6854
129.992 548 23.4094
130.108 506 22.4944
130.225 549 23.4307
130.342 556 23.5797
130.459 501 22.383
130.576 589 24.2693
130.693 511 22.6053
130.81 482 21.9545
130.928 481 21.9317
131.045 502 22.4054
131.162 497 22.2935
131.279 532 23.0651
131.396 526 22.9347
131.513 551 23.4734
131.631 524 22.891
131.748 492 22.1811
131.865 469 21.6564
131.983 498 22.3159
132.1 534 23.1084
132.217 569 23.8537
132.335 551 23.4734
132.452 561 23.6854
132.57 574 23.9583
132.687 548 23.4094
132.804 564 23.7487
132.922 525 22.9129
133.039 595 24.3926
133.157 549 23.4307
133.274 534 23.1084
133.392 530 23.0217
133.509 531 23.0434
133.627 590 24.2899
133.744 549 23.4307
133.862 536 23.1517
133.979 564 23.7487
134.097 537 23.1733
134.214 512 22.6274
134.332 491 22.1585
134.449 506 22.4944
134.567 503 22.4277
134.684 514 22.6716
134.802 532 23.0651
134.919 521 22.8254
135.037 564 23.7487
135.154 532 23.0651
135.272 491 22.1585
135.389 528 22.9783
135.507 539 23.2164
135.624 535 23.1301
135.742 516 22.7156
135.859 561 23.6854
135.977 544 23.3238
136.094 530 23.0217
136.211 581 24.1039
136.329 537 23.1733
136.446 542 23.2809
136.564 531 23.0434
136.681 565 23.7697
136.798 585 24.1868
136.915 561 23.6854
137.033 549 23.4307
137.15 591 24.3105
137.267 515 22.6936
137.384 565 23.7697
137.502 556 23.5797
137.619 559 23.6432
137.736 517 22.7376
137.853 457 21.3776
137.97 488 22.0907
138.087 470 21.6795
138.204 490 22.1359
138.321 523 22.8692
138.438 496 22.2711
138.555 524 22.891
138.672 492 22.1811
138.788 513 22.6495
138.905 477 21.8403
139.022 423 20.567
139.139 488 22.0907
139.255 463 21.5174
139.372 433 20.8087
139.488 420 20.4939
139.605 417 20.4206
139.721 401 20.025
139.838 342 18.4932
139.954 322 17.9444
140.071 297 17.2337
140.187 300 17.3205
140.303 259 16.0935
140.419 260 16.1245
140.535 242 15.5563
140.652 231 15.1987
140.768 0 1
140.884 0 1
141 0 1
141.115 0 1
141.231 0 1
141.347 0 1
141.463 0 1
141.578 0 1
141.694 0 1
144.104 0 1
144.219 0 1
144.335 0 1
144.45 0 1
144.566 0 1
144.682 0 1
144.798 0 1
144.914 0 1
145.03 0 1
145.146 390 19.7484
145.262 439 20.9523
145.378 429 20.7123
145.494 409 20.2237
145.61 396 19.8997
145.726 428 20.6882
145.842 442 21.0238
145.959 401 20.025
146.075 393 19.8242
146.192 427 20.664
146.308 412 20.2978
146.425 340 18.4391
146.541 371 19.2614
146.658 381 19.5192
146.774 402 20.0499
146.891 389 19.7231
147.008 402 20.0499
147.125 403 20.0749
147.241 412 20.2978
147.358 406 20.1494
147.475 424 20.5913
147.592 405 20.1246
147.709 387 19.6723
147.826 376 19.3907
147.943 376 19.3907
148.06 396 19.8997
148.177 378 19.4422
148.294 451 21.2368
148.411 375 19.3649
148.528 402 20.0499
148.645 404 20.0998
148.762 488 22.0907
148.88 417 20.4206
148.997 425 20.6155
149.114 388 19.6977
149.231 389 19.7231
149.349 428 20.6882
149.466 433 20.8087
149.583 452 21.2603
149.701 368 19.1833
149.818 403 20.0749
149.935 391 19.7737
150.053 413 20.3224
150.17 378 19.4422
150.287 341 18.4662
150.405 411 20.2731
150.522 350 18.7083
150.64 379 19.4679
150.757 378 19.4422
150.875 396 19.8997
150.992 434 20.8327
151.11 401 20.025
151.227 379 19.4679
151.344 373 19.3132
151.462 362 19.0263
151.579 378 19.4422
151.697 372 19.2873
151.814 379 19.4679
151.932 390 19.7484
152.049 376 19.3907
152.167 393 19.8242
152.284 415 20.3715
152.402 419 20.4695
152.519 421 20.5183
152.636 431 20.7605
152.754 410 20.2485
152.871 400 20
152.989 370 19.2354
153.106 386 19.6469
153.223 440 20.9762
153.341 407 20.1742
153.458 392 19.799
153.575 402 20.0499
153.693 357 18.8944
153.81 388 19.6977
153.927 397 19.9249
154.044 335 18.303
154.162 380 19.4936
154.279 395 19.8746
154.396 393 19.8242
154.513 374 19.3391
154.63 380 19.4936
154.747 365 19.105
154.864 397 19.9249
154.981 362 19.0263
155.098 378 19.4422
155.215 324 18
155.332 380 19.4936
155.449 359 18.9473
155.566 366 19.1311
155.683 353 18.7883
155.8 405 20.1246
155.917 359 18.9473
156.033 356 18.868
156.15 0 1
156.267 0 1
156.383 0 1
156.5 0 1
156.617 0 1
156.733 0 1
156.85 0 1
156.966 0 1
157.082 0 1
157.199 0 1
157.315 0 1
157.431 0 1
157.547 0 1
157.664 0 1
157.78 0 1
157.896 0 1
158.012 0 1
158.128 0 1
158.244 0 1
158.359 0 1
158.475 0 1
158.591 0 1
158.706 0 1
