
6.15755 0 1
6.2731 0 1
6.3887 0 1
6.50437 0 1
6.62009 0 1
6.73587 0 1
6.8517 0 1
6.96759 0 1
7.08353 0 1
7.19952 0 1
7.31557 0 1
7.43166 0 1
7.54781 0 1
7.664 0 1
7.78024 0 1
7.89653 0 1
8.01286 0 1
8.12924 0 1
8.24567 0 1
8.36213 0 1
8.47864 0 1
8.59519 0 1
8.71178 0 1
8.82841 0 1
8.94508 0 1
9.06179 0 1
9.17853 0 1
9.29531 0 1
9.41212 0 1
9.52897 0 1
9.64584 0 1
9.76276 0 1
9.8797 0 1
9.99667 0 1
10.1137 0 1
10.2307 0 1
10.3478 0 1
10.4648 0 1
10.5819 0 1
10.6991 0 1
10.8162 0 1
10.9334 0 1
11.0506 0 1
11.1678 0 1
11.285 0 1
11.4023 0 1
11.5196 0 1
11.6369 0 1
11.7542 0 1
11.8715 0 1
11.9888 0 1
12.1062 0 1
12.2235 0 1
12.3409 0 1
12.4582 0 1
12.5756 0 1
12.693 0 1
12.8104 0 1
12.9278 0 1
13.0452 0 1
13.1626 0 1
13.28 0 1
13.3974 0 1
13.5149 0 1
13.6323 0 1
13.7497 0 1
13.8671 0 1
13.9845 0 1
14.1019 0 1
14.2193 0 1
14.3367 0 1
14.4541 0 1
14.5714 0 1
14.6888 0 1
14.8062 0 1
14.9235 0 1
15.0408 0 0
15.1581 0 0
15.2755 0 0
15.3927 0 0
15.51 0 0
15.6273 0 0
15.7445 0 0
15.8617 0 0
15.9789 0 0
16.0961 0 0
16.2132 0 0
16.3304 0 0
16.4475 0 0
16.5646 0 0
16.6816 0 0
16.7986 0 0
16.9156 0 0
17.0326 0 0
17.1496 0 0
17.2665 0 0
17.3833 0 0
17.5002 0 0
17.617 0 0
17.7338 0 0
17.8505 0 0
17.9672 0 0
18.0839 0 0
18.2005 0 0
18.3171 0 0
18.4337 0 0
18.5502 0 0
18.6666 0 0
18.7831 0 0
18.8994 0 0
19.0158 0 0
19.1321 0 0
19.2483 0 0
19.3645 0 0
19.4806 0 0
19.5967 0 0
19.7128 0 0
19.8288 0 0
19.9447 0 0
20.0606 0 1
20.1764 0 1
20.2922 0 1
20.4079 0 1
20.5236 0 1
20.6392 0 1
20.7548 0 1
20.8702 0 1
23.3078 0 1
23.4233 0 1
23.539 0 1
23.6547 0 1
23.7704 0 1
23.8862 0 1
24.0021 0 1
24.118 0 1
24.234 0 1
24.35 0 1
24.4661 1563 39.5348
24.5822 1502 38.7556
24.6984 1468 38.3145
24.8146 1351 36.756
24.9309 1291 35.9305
25.0472 1378 37.1214
25.1636 1313 36.2353
25.28 1448 38.0526
25.3965 1480 38.4708
25.513 1608 40.0999
25.6296 1612 40.1497
25.7462 1749 41.821
25.8628 1734 41.6413
25.9795 1729 41.5812
26.0962 1713 41.3884
26.213 1734 41.6413
26.3298 1636 40.4475
26.4466 1681 41
26.5635 1555 39.4335
26.6804 1585 39.8121
26.7973 1542 39.2683
26.9143 1597 39.9625
27.0313 1639 40.4846
27.1483 1647 40.5832
27.2653 1667 40.8289
27.3824 1679 40.9756
27.4996 1691 41.1218
27.6167 1701 41.2432
27.7339 1675 40.9268
27.8511 1607 40.0874
27.9683 1595 39.9375
28.0855 1588 39.8497
28.2028 1565 39.5601
28.3201 1398 37.3898
28.4374 1334 36.524
28.5547 1284 35.8329
28.6721 1272 35.6651
28.7894 1278 35.7491
28.9068 1399 37.4032
29.0242 1556 39.4462
29.1416 1549 39.3573
29.259 1631 40.3856
29.3764 1585 39.8121
29.4939 1671 40.8779
29.6113 1640 40.4969
29.7288 1691 41.1218
29.8463 1705 41.2916
29.9638 1703 41.2674
30.0812 1512 38.8844
30.1987 1486 38.5487
30.3162 1538 39.2173
30.4337 1514 38.9102
30.5512 1500 38.7298
30.6687 1582 39.7744
30.7862 1669 40.8534
30.9037 1637 40.4599
31.0212 1566 39.5727
31.1387 1677 40.9512
31.2562 1660 40.7431
31.3737 1743 41.7493
31.4912 1609 40.1123
31.6087 1601 40.0125
31.7262 1512 38.8844
31.8436 1450 38.0789
31.9611 1305 36.1248
32.0785 1272 35.6651
32.1959 1291 35.9305
32.3134 1429 37.8021
32.4308 1399 37.4032
32.5482 1571 39.6358
32.6655 1635 40.4351
32.7829 1588 39.8497
32.9002 1664 40.7922
33.0176 1656 40.694
33.1349 1739 41.7013
33.2522 1667 40.8289
33.3694 1670 40.8656
33.4867 1682 41.0122
33.6039 1602 40.025
33.7211 1659 40.7308
33.8383 1649 40.6079
33.9554 1493 38.6394
34.0725 1569 39.6106
34.1896 1595 39.9375
34.3067 1670 40.8656
34.4237 1641 40.5093
34.5407 1788 42.2847
34.6577 1696 41.1825
34.7746 1696 41.1825
34.8915 1715 41.4126
35.0084 1638 40.4722
35.1252 1707 41.3159
35.242 1681 41
35.3587 1603 40.0375
35.4755 1502 38.7556
35.5921 1387 37.2424
35.7088 1293 35.9583
35.8254 1276 35.7211
35.9419 1334 36.524
36.0584 1315 36.2629
36.1749 1403 37.4566
36.2913 1460 38.2099
36.4077 1644 40.5463
36.524 1692 41.1339
36.6403 1683 41.0244
36.7565 1769 42.0595
36.8727 1661 40.7554
36.9889 1653 40.6571
37.1049 1653 40.6571
37.221 0 1
37.3369 0 1
37.4529 0 1
37.5687 0 1
37.6845 0 1
37.8003 0 1
37.916 0 1
38.0316 0 1
38.1472 0 1
40.5851 0 1
40.7008 0 1
40.8164 0 1
40.9322 0 1
41.048 0 1
41.1639 0 1
41.2798 0 1
41.3958 0 1
41.5118 0 1
41.6279 0 1
41.744 1409 37.5366
41.8602 1538 39.2173
41.9765 1471 38.3536
42.0928 1503 38.7685
42.2091 1478 38.4448
42.3255 1572 39.6485
42.4419 1431 37.8286
42.5584 1464 38.2623
42.675 1474 38.3927
42.7915 1427 37.7757
42.9081 1459 38.1969
43.0248 1411 37.5633
43.1415 1461 38.223
43.2582 1532 39.1408
43.375 1517 38.9487
43.4918 1536 39.1918
43.6087 1485 38.5357
43.7256 1411 37.5633
43.8425 1466 38.2884
43.9595 1417 37.6431
44.0765 1412 37.5766
44.1935 1404 37.47
44.3106 1250 35.3553
44.4277 1109 33.3017
44.5448 980 31.305
44.6619 970 31.1448
44.7791 1002 31.6544
44.8963 1124 33.5261
45.0136 1237 35.171
45.1308 1262 35.5246
45.2481 1278 35.7491
45.3654 1361 36.8917
45.4827 1376 37.0945
45.6001 1334 36.524
45.7174 1280 35.7771
45.8348 1326 36.4143
45.9522 1316 36.2767
46.0697 1262 35.5246
46.1871 1241 35.2278
46.3046 1205 34.7131
46.422 1227 35.0286
46.5395 1184 34.4093
46.657 1288 35.8887
46.7745 1229 35.0571
46.892 1295 35.9861
47.0096 1258 35.4683
47.1271 1214 34.8425
47.2446 1271 35.6511
47.3622 1207 34.7419
47.4797 1173 34.2491
47.5973 1146 33.8526
47.7149 1094 33.0757
47.8324 1068 32.6803
47.95 1017 31.8904
48.0675 889 29.8161
48.1851 825 28.7228
48.3027 829 28.7924
48.4202 863 29.3769
48.5378 974 31.209
48.6554 1095 33.0908
48.7729 1084 32.9242
48.8904 1107 33.2716
49.008 1120 33.4664
49.1255 1146 33.8526
49.243 1195 34.5688
49.3605 1232 35.0999
49.478 1182 34.3802
49.5955 1180 34.3511
49.713 1229 35.0571
49.8304 1171 34.2199
49.9479 1158 34.0294
50.0653 1165 34.1321
50.1827 1272 35.6651
50.3001 1330 36.4692
50.4175 1265 35.5668
50.5348 1351 36.756
50.6521 1395 37.3497
50.7694 1455 38.1445
50.8867 1403 37.4566
51.004 1477 38.4318
51.1212 1503 38.7685
51.2384 1528 39.0896
51.3556 1411 37.5633
51.4727 1278 35.7491
51.5899 1217 34.8855
51.707 1148 33.8821
51.824 1169 34.1906
51.9411 1357 36.8375
52.0581 1485 38.5357
52.175 1678 40.9634
52.2919 1724 41.5211
52.4088 1795 42.3674
52.5257 1878 43.3359
52.6425 1877 43.3244
52.7593 1865 43.1856
52.876 1772 42.0951
52.9927 1979 44.486
53.1094 1881 43.3705
53.226 1899 43.5775
53.3426 2016 44.8999
53.4591 1911 43.715
53.5756 1951 44.1701
53.692 1952 44.1814
53.8084 2103 45.8585
53.9248 1985 44.5533
54.0411 2128 46.1303
54.1573 2230 47.2229
54.2735 0 1
54.3896 0 1
54.5057 0 1
54.6217 0 1
54.7377 0 1
54.8537 0 1
54.9695 0 1
55.0853 0 1
55.2011 0 1
55.3168 0 1
55.4324 0 1
57.824 0 1
57.9396 0 1
58.0553 0 1
58.1711 0 1
58.2869 0 1
58.4028 0 1
58.5187 0 1
58.6347 0 1
58.7508 0 1
58.8669 0 1
58.983 2880 53.6656
59.0992 2890 53.7587
59.2155 2964 54.4426
59.3318 2962 54.4243
59.4482 3085 55.5428
59.5646 2978 54.5711
59.681 3010 54.8635
59.7975 2993 54.7083
59.9141 2809 53
60.0306 2682 51.788
60.1473 2446 49.4571
60.2639 2245 47.3814
60.3807 2077 45.5741
60.4974 2160 46.4758
60.6142 2342 48.3942
60.731 2551 50.5074
60.8479 2765 52.5833
60.9648 2824 53.1413
61.0818 3162 56.2317
61.1987 3036 55.0999
61.3158 3144 56.0714
61.4328 3073 55.4346
61.5499 3125 55.9017
61.667 3086 55.5518
61.7841 3179 56.3826
61.9013 3086 55.5518
62.0185 3093 55.6147
62.1357 3080 55.4977
62.253 3053 55.254
62.3702 3039 55.1271
62.4875 3131 55.9553
62.6049 3196 56.5332
62.7222 3285 57.3149
62.8396 3215 56.701
62.9569 3381 58.1464
63.0743 3194 56.5155
63.1918 3264 57.1314
63.3092 3124 55.8928
63.4267 3164 56.2494
63.5441 2966 54.461
63.6616 2675 51.7204
63.7791 2346 48.4355
63.8966 2189 46.7868
64.0142 2228 47.2017
64.1317 2427 49.2646
64.2492 2810 53.0094
64.3668 3147 56.0981
64.4843 3294 57.3934
64.6019 3362 57.9828
64.7195 3276 57.2364
64.837 3450 58.7367
64.9546 3532 59.4306
65.0722 3447 58.7112
65.1898 3513 59.2706
65.3074 3497 59.1354
65.4249 3446 58.7026
65.5425 3462 58.8388
65.6601 3365 58.0086
65.7777 3405 58.3524
65.8952 3530 59.4138
66.0128 3385 58.1808
66.1304 3370 58.0517
66.2479 3484 59.0254
66.3655 3479 58.983
66.483 3586 59.8832
66.6005 3747 61.2127
66.718 3690 60.7454
66.8355 3453 58.7622
66.953 3440 58.6515
67.0705 3449 58.7282
67.1879 3191 56.4889
67.3054 2880 53.6656
67.4228 2617 51.1566
67.5402 2423 49.224
67.6576 2451 49.5076
67.7749 2738 52.3259
67.8923 3125 55.9017
68.0096 3484 59.0254
68.1269 3620 60.1664
68.2442 3691 60.7536
68.3614 3962 62.9444
68.4787 3832 61.9032
68.5958 4003 63.2693
68.713 3858 62.1128
68.8302 4007 63.3009
68.9473 4016 63.3719
69.0643 3975 63.0476
69.1814 3866 62.1772
69.2984 3838 61.9516
69.4154 3940 62.7694
69.5323 3958 62.9126
69.6492 4058 63.7024
69.7661 4030 63.4823
69.8829 4050 63.6396
69.9997 4248 65.1767
70.1165 4306 65.6201
70.2332 4374 66.1362
70.3499 4151 64.4283
70.4665 4127 64.2417
70.5831 3962 62.9444
70.6996 3846 62.0161
70.8161 3713 60.9344
70.9326 3488 59.0593
71.049 3131 55.9553
71.1653 2893 53.7866
71.2817 2728 52.2303
71.3979 2863 53.507
71.5141 2988 54.6626
71.6303 3461 58.8303
71.7464 3512 59.2621
71.8624 0 1
71.9784 0 1
72.0944 0 1
72.2102 0 1
72.3261 0 1
72.4418 0 1
72.5575 0 1
72.6732 0 1
75.1054 0 1
75.2209 0 1
75.3365 0 1
75.4521 0 1
75.5678 0 1
75.6835 0 1
75.7993 0 1
75.9151 0 1
76.031 0 1
76.147 3578 59.8164
76.263 3685 60.7042
76.3791 3451 58.7452
76.4952 2967 54.4702
76.6113 2896 53.8145
76.7276 3086 55.5518
76.8438 3394 58.258
76.9601 3844 62
77.0765 4440 66.6333
77.1929 4460 66.7832
77.3093 4432 66.5733
77.4258 4510 67.1565
77.5423 4551 67.4611
77.6589 4606 67.8675
77.7755 4738 68.8331
77.8921 4718 68.6877
78.0088 4642 68.1322
78.1256 4635 68.0808
78.2423 4499 67.0746
78.3591 4351 65.9621
78.4759 4314 65.681
78.5928 4472 66.873
78.7097 4457 66.7608
78.8266 4656 68.2349
78.9436 4267 65.3223
79.0606 4443 66.6558
79.1776 4551 67.4611
79.2946 4598 67.8086
79.4117 4435 66.5958
79.5288 4586 67.72
79.6459 4229 65.0308
79.7631 4125 64.2262
79.8802 3866 62.1772
79.9974 3511 59.2537
80.1147 3229 56.8243
80.2319 2922 54.0555
80.3491 2964 54.4426
80.4664 3312 57.55
80.5837 3892 62.3859
80.701 4219 64.9538
80.8183 4378 66.1665
80.9357 4384 66.2118
81.053 4382 66.1967
81.1704 4398 66.3174
81.2877 4547 67.4314
81.4051 4507 67.1342
81.5225 4511 67.164
81.6399 4473 66.8805
81.7573 4465 66.8207
81.8747 4402 66.3476
81.9922 4318 65.7115
82.1096 4299 65.5668
82.227 4162 64.5136
82.3444 4295 65.5362
82.4619 4381 66.1891
82.5793 4246 65.1613
82.6967 4286 65.4675
82.8142 4136 64.3117
82.9316 4360 66.0303
83.049 4212 64.8999
83.1664 4114 64.1405
83.2838 3974 63.0397
83.4012 3858 62.1128
83.5186 3615 60.1249
83.636 3224 56.7803
83.7534 3023 54.9818
83.8708 2630 51.2835
83.9881 2624 51.225
84.1055 2998 54.754
84.2228 3255 57.0526
84.3401 3767 61.3759
84.4575 4153 64.4438
84.5747 4214 64.9153
84.692 4231 65.0461
84.8093 4313 65.6734
84.9265 4172 64.591
85.0437 4322 65.7419
85.1609 4437 66.6108
85.2781 4326 65.7723
85.3952 4348 65.9394
85.5123 4430 66.5582
85.6294 4240 65.1153
85.7465 4368 66.0908
85.8636 4269 65.3376
85.9806 4373 66.1287
86.0976 4347 65.9318
86.2145 4530 67.3053
86.3315 4426 66.5282
86.4484 4684 68.4398
86.5652 4747 68.8985
86.682 4642 68.1322
86.7988 4429 66.5507
86.9156 4445 66.6708
87.0323 4031 63.4902
87.149 3886 62.3378
87.2657 3746 61.2046
87.3823 3245 56.9649
87.4988 3126 55.9106
87.6154 3353 57.9051
87.7318 3881 62.2977
87.8483 4241 65.123
87.9647 4639 68.1102
88.081 4780 69.1375
88.1973 5096 71.3863
88.3136 4901 70.0071
88.4298 5043 71.0141
88.546 5090 71.3442
88.6621 5020 70.852
88.7781 4980 70.5691
88.8942 0 1
89.0101 0 1
89.126 0 1
89.2419 0 1
89.3577 0 1
89.4734 0 1
89.5891 0 1
89.7047 0 1
89.8203 0 1
89.9358 0 1
92.3269 0 1
92.4424 0 1
92.558 0 1
92.6736 0 1
92.7893 0 1
92.905 0 1
93.0208 0 1
93.1366 0 1
93.2525 0 1
93.3685 0 1
93.4845 0 1
93.6005 4972 70.5124
93.7167 4971 70.5053
93.8328 5064 71.1618
93.949 4897 69.9786
94.0653 4926 70.1855
94.1816 4894 69.9571
94.2979 4968 70.484
94.4143 4917 70.1213
94.5307 4933 70.2353
94.6472 4900 70
94.7637 4968 70.484
94.8803 4989 70.6329
94.9969 4917 70.1213
95.1135 5050 71.0634
95.2302 5008 70.7672
95.3469 5139 71.6868
95.4637 5178 71.9583
95.5805 5068 71.1899
95.6973 5128 71.6101
95.8142 5183 71.9931
95.9311 5161 71.8401
96.048 4653 68.2129
96.1649 4576 67.6461
96.2819 4378 66.1665
96.3989 4018 63.3877
96.516 3644 60.3656
96.633 3485 59.0339
96.7501 3403 58.3352
96.8673 3805 61.6847
96.9844 4303 65.5973
97.1016 4787 69.1881
97.2188 5028 70.9084
97.336 5328 72.9932
97.4532 5437 73.736
97.5704 5311 72.8766
97.6877 5260 72.5259
97.805 5277 72.643
97.9223 5257 72.5052
98.0396 5239 72.3809
98.1569 5216 72.2219
98.2743 5220 72.2496
98.3916 5253 72.4776
98.509 5230 72.3187
98.6264 5146 71.7356
98.7438 5179 71.9653
98.8612 5187 72.0208
98.9786 5385 73.3826
99.096 5367 73.2598
99.2134 5355 73.1779
99.3308 5410 73.5527
99.4482 5469 73.9527
99.5656 5315 72.904
99.6831 5212 72.1942
99.8005 4960 70.4273
99.9179 4475 66.8954
100.035 4181 64.6607
100.153 3734 61.1065
100.27 3689 60.7371
100.388 3979 63.0793
100.505 4342 65.8939
100.622 4817 69.4046
100.74 5221 72.2565
100.857 5520 74.2967
100.975 5380 73.3485
101.092 5698 75.4851
101.209 5526 74.3371
101.327 5587 74.7462
101.444 5512 74.2428
101.561 5512 74.2428
101.679 5569 74.6257
101.796 5554 74.5252
101.913 5434 73.7157
102.03 5572 74.6458
102.148 5535 74.3976
102.265 5811 76.2299
102.382 5281 72.6705
102.499 5566 74.6056
102.616 5484 74.054
102.733 5713 75.5844
102.851 5823 76.3086
102.968 5770 75.9605
103.085 5714 75.591
103.202 5514 74.2563
103.319 5336 73.0479
103.436 4945 70.3207
103.552 4464 66.8132
103.669 4017 63.3798
103.786 3948 62.8331
103.903 4228 65.0231
104.02 4724 68.7314
104.137 5284 72.6911
104.253 5664 75.2596
104.37 5870 76.6159
104.487 6019 77.5822
104.603 6019 77.5822
104.72 5988 77.3822
104.836 5971 77.2722
104.953 6067 77.8909
105.069 6059 77.8396
105.186 6141 78.3645
105.302 5959 77.1946
105.418 5920 76.9415
105.535 6099 78.0961
105.651 5950 77.1362
105.767 6085 78.0064
105.883 6034 77.6788
105.999 6148 78.4092
106.115 0 1
106.231 0 1
106.347 0 1
106.463 0 1
106.579 0 1
106.694 0 1
106.81 0 1
106.926 0 1
107.041 0 1
107.157 0 1
109.576 0 1
109.692 0 1
109.807 0 1
109.923 0 1
110.039 0 1
110.155 0 1
110.27 0 1
110.386 0 1
110.502 0 1
110.618 5598 74.8198
110.735 5775 75.9934
110.851 5868 76.6029
110.967 5768 75.9474
111.083 5837 76.4003
111.199 5822 76.302
111.316 5655 75.1997
111.432 6002 77.4726
111.549 5748 75.8156
111.665 5677 75.3459
111.782 5390 73.4166
111.898 5073 71.225
112.015 4564 67.5574
112.132 4013 63.3482
112.248 3628 60.2329
112.365 4004 63.2772
112.482 4437 66.6108
112.599 4761 69
112.716 5129 71.617
112.832 5395 73.4507
112.949 5384 73.3757
113.066 5473 73.9797
113.183 5406 73.5255
113.3 5345 73.1095
113.417 5297 72.7805
113.534 5246 72.4293
113.652 5184 72
113.769 5278 72.6498
113.886 5151 71.7705
114.003 5270 72.5948
114.12 5204 72.1388
114.238 5127 71.6031
114.355 5073 71.225
114.472 5176 71.9444
114.589 5166 71.8749
114.707 5062 71.1477
114.824 4955 70.3918
114.942 5057 71.1126
115.059 5089 71.3372
115.176 4986 70.6116
115.294 5021 70.859
115.411 4740 68.8477
115.529 4329 65.7951
115.646 3882 62.3057
115.764 3496 59.127
115.881 3487 59.0508
115.999 3785 61.5224
116.116 4220 64.9615
116.234 4658 68.2495
116.351 5052 71.0774
116.469 5095 71.3793
116.586 5132 71.638
116.704 5101 71.4213
116.821 5146 71.7356
116.939 5211 72.1873
117.056 5193 72.0625
117.174 5129 71.617
117.291 5003 70.7319
117.409 5201 72.118
117.526 5140 71.6938
117.644 5198 72.0972
117.761 5070 71.2039
117.879 5133 71.645
117.996 5093 71.3653
118.114 5236 72.3602
118.231 5157 71.8123
118.349 5130 71.624
118.466 5374 73.3076
118.584 5080 71.2741
118.701 5256 72.4983
118.819 5156 71.8053
118.936 4904 70.0286
119.053 4715 68.6659
119.171 4380 66.1816
119.288 3901 62.458
119.405 3628 60.2329
119.523 3625 60.208
119.64 3833 61.9112
119.757 4344 65.909
119.875 4640 68.1175
119.992 4845 69.606
120.109 4908 70.0571
120.226 5102 71.4283
120.343 5131 71.631
120.46 5150 71.7635
120.578 5177 71.9514
120.695 5043 71.0141
120.812 5066 71.1758
120.929 5083 71.2952
121.046 5076 71.2461
121.163 5093 71.3653
121.279 5055 71.0985
121.396 5062 71.1477
121.513 5050 71.0634
121.63 5008 70.7672
121.747 4876 69.8284
121.863 5088 71.3302
121.98 5032 70.9366
122.097 4996 70.6824
122.213 4973 70.5195
122.33 4989 70.6329
122.446 5026 70.8943
122.563 5023 70.8731
122.679 4765 69.029
122.795 4682 68.4251
122.912 4343 65.9014
123.028 3730 61.0737
123.144 3588 59.8999
123.26 3494 59.1101
123.377 0 1
123.493 0 1
123.609 0 1
123.725 0 1
123.84 0 1
123.956 0 1
124.072 0 1
124.188 0 1
124.303 0 1
124.419 0 1
126.852 0 1
126.968 0 1
127.083 0 1
127.199 0 1
127.315 0 1
127.431 0 1
127.547 0 1
127.663 0 1
127.779 0 1
127.895 0 1
128.011 0 1
128.127 0 1
128.243 0 1
128.359 4082 63.8905
128.476 3948 62.8331
128.592 4117 64.1639
128.708 4643 68.1396
128.825 5256 72.4983
128.941 5630 75.0333
129.058 5482 74.0405
129.174 5699 75.4917
129.291 5632 75.0467
129.408 5659 75.2263
129.524 5716 75.6042
129.641 5687 75.4122
129.758 5658 75.2197
129.875 5743 75.7826
129.992 5581 74.7061
130.108 5476 74
130.225 5515 74.263
130.342 5505 74.1957
130.459 5377 73.328
130.576 5533 74.3841
130.693 5397 73.4643
130.81 5471 73.9662
130.928 5397 73.4643
131.045 5401 73.4915
131.162 5407 73.5323
131.279 5454 73.8512
131.396 5283 72.6842
131.513 5113 71.5052
131.631 4985 70.6045
131.748 4749 68.913
131.865 4397 66.3099
131.983 3886 62.3378
132.1 3988 63.1506
132.217 4439 66.6258
132.335 4936 70.2567
132.452 5178 71.9583
132.57 5345 73.1095
132.687 5233 72.3395
132.804 5512 74.2428
132.922 5379 73.3417
133.039 5423 73.641
133.157 5388 73.403
133.274 5420 73.6206
133.392 5407 73.5323
133.509 5267 72.5741
133.627 5364 73.2393
133.744 5212 72.1942
133.862 5263 72.5465
133.979 5131 71.631
134.097 5095 71.3793
134.214 5239 72.3809
134.332 5043 71.0141
134.449 5331 73.0137
134.567 5160 71.8331
134.684 5266 72.5672
134.802 5104 71.4423
134.919 5260 72.5259
135.037 5131 71.631
135.154 5036 70.9648
135.272 4885 69.8928
135.389 4438 66.6183
135.507 4092 63.9687
135.624 3945 62.8092
135.742 4142 64.3584
135.859 4612 67.9117
135.977 4808 69.3397
136.094 5151 71.7705
136.211 5219 72.2426
136.329 5318 72.9246
136.446 5445 73.7902
136.564 5144 71.7217
136.681 5626 75.0067
136.798 5316 72.9109
136.915 5353 73.1642
137.033 5340 73.0753
137.15 5213 72.2011
137.267 5212 72.1942
137.384 5183 71.9931
137.502 5214 72.208
137.619 4997 70.6895
137.736 5057 71.1126
137.853 4930 70.214
137.97 4906 70.0428
138.087 5343 73.0958
138.204 5304 72.8286
138.321 5301 72.808
138.438 5264 72.5534
138.555 5146 71.7356
138.672 5277 72.643
138.788 5018 70.8378
138.905 4846 69.6132
139.022 4610 67.897
139.139 4362 66.0454
139.255 4023 63.4271
139.372 4052 63.6553
139.488 4427 66.5357
139.605 4829 69.491
139.721 5022 70.8661
139.838 5211 72.1873
139.954 5327 72.9863
140.071 5248 72.4431
140.187 5323 72.9589
140.303 5277 72.643
140.419 5178 71.9583
140.535 5190 72.0417
140.652 5013 70.8025
140.768 0 1
140.884 0 1
141 0 1
141.115 0 1
141.231 0 1
141.347 0 1
141.463 0 1
141.578 0 1
141.694 0 1
144.104 0 1
144.219 0 1
144.335 0 1
144.45 0 1
144.566 0 1
144.682 0 1
144.798 0 1
144.914 0 1
145.03 0 1
145.146 4583 67.6979
145.262 4661 68.2715
145.378 4599 67.8159
145.494 4624 68
145.61 4434 66.5883
145.726 4449 66.7008
145.842 4376 66.1513
145.959 4385 66.2193
146.075 4435 66.5958
146.192 4383 66.2042
146.308 4389 66.2495
146.425 4289 65.4905
146.541 4270 65.3452
146.658 4513 67.1789
146.774 4371 66.1135
146.891 4260 65.2687
147.008 4396 66.3023
147.125 4389 66.2495
147.241 4252 65.2074
147.358 4207 64.8614
147.475 4117 64.1639
147.592 3895 62.4099
147.709 3577 59.808
147.826 3243 56.9473
147.943 3402 58.3267
148.06 3566 59.716
148.177 3986 63.1348
148.294 4194 64.7611
148.411 4242 65.1306
148.528 4288 65.4828
148.645 4297 65.5515
148.762 4280 65.4217
148.88 4298 65.5591
148.997 4170 64.5755
149.114 4384 66.2118
149.231 4209 64.8768
149.349 4230 65.0385
149.466 3937 62.7455
149.583 4084 63.9062
149.701 4014 63.3561
149.818 3999 63.2376
149.935 3918 62.5939
150.053 3874 62.2415
150.17 3985 63.1269
150.287 3945 62.8092
150.405 3990 63.1664
150.522 4090 63.9531
150.64 4142 64.3584
150.757 4132 64.2806
150.875 4084 63.9062
150.992 4088 63.9375
151.11 3759 61.3107
151.227 3630 60.2495
151.344 3294 57.3934
151.462 3158 56.1961
151.579 3253 57.0351
151.697 3502 59.1777
151.814 3838 61.9516
151.932 4027 63.4586
152.049 4097 64.0078
152.167 4278 65.4064
152.284 4217 64.9384
152.402 4146 64.3894
152.519 4193 64.7534
152.636 4158 64.4826
152.754 4304 65.6049
152.871 4035 63.5216
152.989 4078 63.8592
153.106 4051 63.6475
153.223 3889 62.3618
153.341 3803 61.6685
153.458 3815 61.7657
153.575 3895 62.4099
153.693 3945 62.8092
153.81 3952 62.8649
153.927 4067 63.773
154.044 4051 63.6475
154.162 4124 64.2184
154.279 4127 64.2417
154.396 4149 64.4127
154.513 4164 64.5291
154.63 4177 64.6297
154.747 4027 63.4586
154.864 3776 61.4492
154.981 3646 60.3821
155.098 3334 57.7408
155.215 3424 58.515
155.332 3678 60.6465
155.449 3901 62.458
155.566 4152 64.436
155.683 4156 64.467
155.8 4329 65.7951
155.917 4341 65.8863
156.033 4203 64.8305
156.15 0 1
156.267 0 1
156.383 0 1
156.5 0 1
156.617 0 1
156.733 0 1
156.85 0 1
156.966 0 1
157.082 0 1
157.199 0 1
157.315 0 1
157.431 0 1
157.547 0 1
157.664 0 1
157.78 0 1
157.896 0 1
158.012 0 1
158.128 0 1
158.244 0 1
158.359 0 1
158.475 0 1
158.591 0 1
158.706 0 1
