
6.15755 0 1
6.2731 0 1
6.3887 0 1
6.50437 0 1
6.62009 0 1
6.73587 0 1
6.8517 0 1
6.96759 0 1
7.08353 0 1
7.19952 0 1
7.31557 0 1
7.43166 0 1
7.54781 0 1
7.664 0 1
7.78024 0 1
7.89653 0 1
8.01286 0 1
8.12924 0 1
8.24567 0 1
8.36213 0 1
8.47864 0 1
8.59519 0 1
8.71178 0 1
8.82841 0 1
8.94508 0 1
9.06179 0 1
9.17853 0 1
9.29531 0 1
9.41212 0 1
9.52897 0 1
9.64584 0 1
9.76276 0 1
9.8797 0 1
9.99667 0 1
10.1137 0 1
10.2307 0 1
10.3478 0 1
10.4648 0 1
10.5819 0 1
10.6991 0 1
10.8162 0 1
10.9334 0 1
11.0506 0 1
11.1678 0 1
11.285 0 1
11.4023 0 1
11.5196 0 1
11.6369 0 1
11.7542 0 1
11.8715 0 1
11.9888 0 1
12.1062 0 1
12.2235 0 1
12.3409 0 1
12.4582 0 1
12.5756 0 1
12.693 0 1
12.8104 0 1
12.9278 0 1
13.0452 0 1
13.1626 0 1
13.28 0 1
13.3974 0 1
13.5149 0 1
13.6323 0 1
13.7497 0 1
13.8671 0 1
13.9845 0 1
14.1019 0 1
14.2193 0 1
14.3367 0 1
14.4541 0 1
14.5714 0 1
14.6888 0 1
14.8062 0 1
14.9235 0 1
15.0408 1154 33.9706
15.1581 1182 34.3802
15.2755 1191 34.5109
15.3927 1222 34.9571
15.51 1197 34.5977
15.6273 1234 35.1283
15.7445 1190 34.4964
15.8617 1175 34.2783
15.9789 1172 34.2345
16.0961 1140 33.7639
16.2132 1132 33.6452
16.3304 1104 33.2265
16.4475 1086 32.9545
16.5646 1119 33.4515
16.6816 1137 33.7194
16.7986 1130 33.6155
16.9156 1157 34.0147
17.0326 1165 34.1321
17.1496 1169 34.1906
17.2665 1159 34.0441
17.3833 1181 34.3657
17.5002 1206 34.7275
17.617 1245 35.2846
17.7338 1212 34.8138
17.8505 1269 35.623
17.9672 1302 36.0832
18.0839 1384 37.2022
18.2005 1419 37.6696
18.3171 1522 39.0128
18.4337 1532 39.1408
18.5502 1523 39.0256
18.6666 1448 38.0526
18.7831 1456 38.1576
18.8994 1434 37.8682
19.0158 1417 37.6431
19.1321 1329 36.4555
19.2483 1280 35.7771
19.3645 1309 36.1801
19.4806 1320 36.3318
19.5967 1206 34.7275
19.7128 1228 35.0428
19.8288 1128 33.5857
19.9447 1055 32.4808
20.0606 0 1
20.1764 0 1
20.2922 0 1
20.4079 0 1
20.5236 0 1
20.6392 0 1
20.7548 0 1
20.8702 0 1
23.3078 0 1
23.4233 0 1
23.539 0 1
23.6547 0 1
23.7704 0 1
23.8862 0 1
24.0021 0 1
24.118 0 1
24.234 0 1
24.35 0 1
24.4661 1111 33.3317
24.5822 1188 34.4674
24.6984 1187 34.4529
24.8146 1235 35.1426
24.9309 1176 34.2929
25.0472 1166 34.1467
25.1636 1103 33.2114
25.28 1130 33.6155
25.3965 1256 35.4401
25.513 1178 34.322
25.6296 1229 35.0571
25.7462 1274 35.6931
25.8628 1296 36
25.9795 1327 36.428
26.0962 1368 36.9865
26.213 1313 36.2353
26.3298 1292 35.9444
26.4466 1414 37.6032
26.5635 1439 37.9342
26.6804 1484 38.5227
26.7973 1426 37.7624
26.9143 1416 37.6298
27.0313 1422 37.7094
27.1483 1397 37.3765
27.2653 1478 38.4448
27.3824 1421 37.6962
27.4996 1377 37.108
27.6167 1337 36.565
27.7339 1324 36.3868
27.8511 1215 34.8569
27.9683 1233 35.1141
28.0855 1186 34.4384
28.2028 1206 34.7275
28.3201 1112 33.3467
28.4374 1163 34.1028
28.5547 1192 34.5254
28.6721 1129 33.6006
28.7894 1151 33.9264
28.9068 1136 33.7046
29.0242 1175 34.2783
29.1416 1191 34.5109
29.259 1244 35.2704
29.3764 1169 34.1906
29.4939 1153 33.9559
29.6113 1194 34.5543
29.7288 1251 35.3695
29.8463 1333 36.5103
29.9638 1318 36.3043
30.0812 1276 35.7211
30.1987 1407 37.51
30.3162 1419 37.6696
30.4337 1335 36.5377
30.5512 1435 37.8814
30.6687 1370 37.0135
30.7862 1380 37.1484
30.9037 1344 36.6606
31.0212 1319 36.318
31.1387 1242 35.242
31.2562 1253 35.3977
31.3737 1199 34.6266
31.4912 1205 34.7131
31.6087 1160 34.0588
31.7262 1127 33.5708
31.8436 1107 33.2716
31.9611 1140 33.7639
32.0785 1165 34.1321
32.1959 1122 33.4963
32.3134 1190 34.4964
32.4308 1209 34.7707
32.5482 1155 33.9853
32.6655 1183 34.3948
32.7829 1130 33.6155
32.9002 1099 33.1512
33.0176 1193 34.5398
33.1349 1133 33.6601
33.2522 1133 33.6601
33.3694 1210 34.7851
33.4867 1167 34.1614
33.6039 1298 36.0278
33.7211 1278 35.7491
33.8383 1348 36.7151
33.9554 1373 37.054
34.0725 1340 36.606
34.1896 1304 36.1109
34.3067 1312 36.2215
34.4237 1278 35.7491
34.5407 1279 35.7631
34.6577 1225 35
34.7746 1235 35.1426
34.8915 1194 34.5543
35.0084 1192 34.5254
35.1252 1134 33.6749
35.242 1088 32.9848
35.3587 1005 31.7017
35.4755 1021 31.9531
35.5921 1035 32.1714
35.7088 1102 33.1964
35.8254 1140 33.7639
35.9419 1173 34.2491
36.0584 1179 34.3366
36.1749 1155 33.9853
36.2913 1172 34.2345
36.4077 1131 33.6303
36.524 1146 33.8526
36.6403 1155 33.9853
36.7565 1115 33.3916
36.8727 1127 33.5708
36.9889 1232 35.0999
37.1049 1146 33.8526
37.221 0 1
37.3369 0 1
37.4529 0 1
37.5687 0 1
37.6845 0 1
37.8003 0 1
37.916 0 1
38.0316 0 1
38.1472 0 1
40.5851 0 1
40.7008 0 1
40.8164 0 1
40.9322 0 1
41.048 0 1
41.1639 0 1
41.2798 0 1
41.3958 0 1
41.5118 0 1
41.6279 0 1
41.744 909 30.1496
41.8602 932 30.5287
41.9765 968 31.1127
42.0928 984 31.3688
42.2091 970 31.1448
42.3255 978 31.273
42.4419 1021 31.9531
42.5584 1021 31.9531
42.675 1105 33.2415
42.7915 1125 33.541
42.9081 1137 33.7194
43.0248 1160 34.0588
43.1415 1071 32.7261
43.2582 1084 32.9242
43.375 1050 32.4037
43.4918 1148 33.8821
43.6087 1117 33.4215
43.7256 1134 33.6749
43.8425 1072 32.7414
43.9595 1071 32.7261
44.0765 1001 31.6386
44.1935 1032 32.1248
44.3106 1000 31.6228
44.4277 991 31.4802
44.5448 1017 31.8904
44.6619 922 30.3645
44.7791 963 31.0322
44.8963 939 30.6431
45.0136 987 31.4166
45.1308 943 30.7083
45.2481 967 31.0966
45.3654 929 30.4795
45.4827 914 30.2324
45.6001 890 29.8329
45.7174 880 29.6648
45.8348 801 28.3019
45.9522 835 28.8964
46.0697 843 29.0345
46.1871 722 26.8701
46.3046 767 27.6948
46.422 756 27.4955
46.5395 829 28.7924
46.657 782 27.9643
46.7745 773 27.8029
46.892 819 28.6182
47.0096 810 28.4605
47.1271 783 27.9821
47.2446 701 26.4764
47.3622 751 27.4044
47.4797 722 26.8701
47.5973 771 27.7669
47.7149 706 26.5707
47.8324 717 26.7769
47.95 718 26.7955
48.0675 729 27
48.1851 735 27.1109
48.3027 679 26.0576
48.4202 602 24.5357
48.5378 654 25.5734
48.6554 639 25.2784
48.7729 675 25.9808
48.8904 675 25.9808
49.008 655 25.593
49.1255 587 24.2281
49.243 617 24.8395
49.3605 581 24.1039
49.478 602 24.5357
49.5955 641 25.318
49.713 652 25.5343
49.8304 650 25.4951
49.9479 657 25.632
50.0653 690 26.2679
50.1827 690 26.2679
50.3001 729 27
50.4175 708 26.6083
50.5348 744 27.2764
50.6521 731 27.037
50.7694 759 27.55
50.8867 699 26.4386
51.004 805 28.3725
51.1212 818 28.6007
51.2384 865 29.4109
51.3556 823 28.688
51.4727 901 30.0167
51.5899 870 29.4958
51.707 880 29.6648
51.824 869 29.4788
51.9411 878 29.6311
52.0581 800 28.2843
52.175 830 28.8097
52.2919 842 29.0172
52.4088 840 28.9828
52.5257 881 29.6816
52.6425 821 28.6531
52.7593 851 29.1719
52.876 831 28.8271
52.9927 867 29.4449
53.1094 915 30.249
53.226 892 29.8664
53.3426 880 29.6648
53.4591 963 31.0322
53.5756 963 31.0322
53.692 949 30.8058
53.8084 1034 32.1559
53.9248 1033 32.1403
54.0411 989 31.4484
54.1573 1009 31.7648
54.2735 0 1
54.3896 0 1
54.5057 0 1
54.6217 0 1
54.7377 0 1
54.8537 0 1
54.9695 0 1
55.0853 0 1
55.2011 0 1
55.3168 0 1
55.4324 0 1
57.824 0 1
57.9396 0 1
58.0553 0 1
58.1711 0 1
58.2869 0 1
58.4028 0 1
58.5187 0 1
58.6347 0 1
58.7508 0 1
58.8669 0 1
58.983 1198 34.6121
59.0992 1257 35.4542
59.2155 1246 35.2987
59.3318 1293 35.9583
59.4482 1288 35.8887
59.5646 1371 37.027
59.681 1404 37.47
59.7975 1352 36.7696
59.9141 1370 37.0135
60.0306 1331 36.4829
60.1473 1281 35.7911
60.2639 1288 35.8887
60.3807 1231 35.0856
60.4974 1223 34.9714
60.6142 1148 33.8821
60.731 1142 33.7935
60.8479 1098 33.1361
60.9648 969 31.1288
61.0818 1011 31.7962
61.1987 946 30.7571
61.3158 1031 32.1092
61.4328 1082 32.8938
61.5499 1050 32.4037
61.667 1135 33.6898
61.7841 1065 32.6343
61.9013 1130 33.6155
62.0185 1100 33.1662
62.1357 1082 32.8938
62.253 1077 32.8177
62.3702 1145 33.8378
62.4875 1143 33.8083
62.6049 1152 33.9411
62.7222 1150 33.9116
62.8396 1213 34.8281
62.9569 1215 34.8569
63.0743 1263 35.5387
63.1918 1370 37.0135
63.3092 1321 36.3456
63.4267 1303 36.0971
63.5441 1387 37.2424
63.6616 1249 35.3412
63.7791 1185 34.4238
63.8966 1111 33.3317
64.0142 1101 33.1813
64.1317 1008 31.749
64.2492 1032 32.1248
64.3668 956 30.9192
64.4843 933 30.545
64.6019 953 30.8707
64.7195 935 30.5778
64.837 903 30.05
64.9546 938 30.6268
65.0722 1034 32.1559
65.1898 943 30.7083
65.3074 1021 31.9531
65.4249 962 31.0161
65.5425 1033 32.1403
65.6601 1062 32.5883
65.7777 1067 32.665
65.8952 1043 32.2955
66.0128 1127 33.5708
66.1304 1102 33.1964
66.2479 1112 33.3467
66.3655 1151 33.9264
66.483 1186 34.4384
66.6005 1252 35.3836
66.718 1278 35.7491
66.8355 1283 35.819
66.953 1239 35.1994
67.0705 1200 34.641
67.1879 1262 35.5246
67.3054 1199 34.6266
67.4228 1141 33.7787
67.5402 1026 32.0312
67.6576 971 31.1609
67.7749 934 30.5614
67.8923 901 30.0167
68.0096 959 30.9677
68.1269 884 29.7321
68.2442 926 30.4302
68.3614 921 30.348
68.4787 964 31.0483
68.5958 1023 31.9844
68.713 1024 32
68.8302 1038 32.218
68.9473 1027 32.0468
69.0643 1022 31.9687
69.1814 1045 32.3265
69.2984 1069 32.6956
69.4154 1092 33.0454
69.5323 1115 33.3916
69.6492 1166 34.1467
69.7661 1206 34.7275
69.8829 1172 34.2345
69.9997 1232 35.0999
70.1165 1270 35.6371
70.2332 1307 36.1525
70.3499 1344 36.6606
70.4665 1425 37.7492
70.5831 1372 37.0405
70.6996 1315 36.2629
70.8161 1359 36.8646
70.9326 1201 34.6554
71.049 1122 33.4963
71.1653 1051 32.4191
71.2817 1043 32.2955
71.3979 954 30.8869
71.5141 904 30.0666
71.6303 896 29.9333
71.7464 902 30.0333
71.8624 0 1
71.9784 0 1
72.0944 0 1
72.2102 0 1
72.3261 0 1
72.4418 0 1
72.5575 0 1
72.6732 0 1
75.1054 0 1
75.2209 0 1
75.3365 0 1
75.4521 0 1
75.5678 0 1
75.6835 0 1
75.7993 0 1
75.9151 0 1
76.031 0 1
76.147 1151 33.9264
76.263 1162 34.0881
76.3791 1082 32.8938
76.4952 1046 32.3419
76.6113 975 31.225
76.7276 958 30.9516
76.8438 1037 32.2025
76.9601 1029 32.078
77.0765 1007 31.7333
77.1929 995 31.5436
77.3093 1007 31.7333
77.4258 1009 31.7648
77.5423 1075 32.7872
77.6589 1141 33.7787
77.7755 1074 32.7719
77.8921 1032 32.1248
78.0088 1085 32.9393
78.1256 1061 32.573
78.2423 1116 33.4066
78.3591 1129 33.6006
78.4759 1139 33.7491
78.5928 1196 34.5832
78.7097 1189 34.4819
78.8266 1254 35.4119
78.9436 1234 35.1283
79.0606 1288 35.8887
79.1776 1304 36.1109
79.2946 1279 35.7631
79.4117 1355 36.8103
79.5288 1429 37.8021
79.6459 1356 36.8239
79.7631 1290 35.9166
79.8802 1256 35.4401
79.9974 1117 33.4215
80.1147 1012 31.8119
80.2319 978 31.273
80.3491 959 30.9677
80.4664 971 31.1609
80.5837 1032 32.1248
80.701 971 31.1609
80.8183 1000 31.6228
80.9357 997 31.5753
81.053 991 31.4802
81.1704 1060 32.5576
81.2877 1117 33.4215
81.4051 1123 33.5112
81.5225 1073 32.7567
81.6399 1021 31.9531
81.7573 1087 32.9697
81.8747 1093 33.0606
81.9922 1094 33.0757
82.1096 1183 34.3948
82.227 1176 34.2929
82.3444 1249 35.3412
82.4619 1250 35.3553
82.5793 1314 36.2491
82.6967 1321 36.3456
82.8142 1364 36.9324
82.9316 1333 36.5103
83.049 1361 36.8917
83.1664 1416 37.6298
83.2838 1265 35.5668
83.4012 1306 36.1386
83.5186 1105 33.2415
83.636 1063 32.6037
83.7534 1068 32.6803
83.8708 1029 32.078
83.9881 1004 31.686
84.1055 1017 31.8904
84.2228 1064 32.619
84.3401 1059 32.5423
84.4575 1084 32.9242
84.5747 1052 32.4345
84.692 1135 33.6898
84.8093 1160 34.0588
84.9265 1135 33.6898
85.0437 1095 33.0908
85.1609 1056 32.4962
85.2781 1091 33.0303
85.3952 1053 32.45
85.5123 1148 33.8821
85.6294 1177 34.3074
85.7465 1283 35.819
85.8636 1355 36.8103
85.9806 1398 37.3898
86.0976 1423 37.7227
86.2145 1475 38.4057
86.3315 1401 37.4299
86.4484 1486 38.5487
86.5652 1518 38.9615
86.682 1474 38.3927
86.7988 1566 39.5727
86.9156 1335 36.5377
87.0323 1331 36.4829
87.149 1228 35.0428
87.2657 1183 34.3948
87.3823 1199 34.6266
87.4988 1172 34.2345
87.6154 1161 34.0735
87.7318 1154 33.9706
87.8483 1160 34.0588
87.9647 1123 33.5112
88.081 1131 33.6303
88.1973 1225 35
88.3136 1270 35.6371
88.4298 1248 35.327
88.546 1212 34.8138
88.6621 1121 33.4813
88.7781 1061 32.573
88.8942 0 1
89.0101 0 1
89.126 0 1
89.2419 0 1
89.3577 0 1
89.4734 0 1
89.5891 0 1
89.7047 0 1
89.8203 0 1
89.9358 0 1
92.3269 0 1
92.4424 0 1
92.558 0 1
92.6736 0 1
92.7893 0 1
92.905 0 1
93.0208 0 1
93.1366 0 1
93.2525 0 1
93.3685 0 1
93.4845 0 1
93.6005 1117 33.4215
93.7167 1165 34.1321
93.8328 1131 33.6303
93.949 1076 32.8024
94.0653 1100 33.1662
94.1816 1112 33.3467
94.2979 1088 32.9848
94.4143 1103 33.2114
94.5307 1168 34.176
94.6472 1217 34.8855
94.7637 1325 36.4005
94.8803 1256 35.4401
94.9969 1434 37.8682
95.1135 1358 36.8511
95.2302 1335 36.5377
95.3469 1434 37.8682
95.4637 1442 37.9737
95.5805 1447 38.0395
95.6973 1451 38.092
95.8142 1428 37.7889
95.9311 1365 36.9459
96.048 1261 35.5106
96.1649 1185 34.4238
96.2819 1296 36
96.3989 1178 34.322
96.516 1149 33.8969
96.633 1077 32.8177
96.7501 1117 33.4215
96.8673 1107 33.2716
96.9844 1110 33.3167
97.1016 1125 33.541
97.2188 1117 33.4215
97.336 1237 35.171
97.4532 1178 34.322
97.5704 1100 33.1662
97.6877 1052 32.4345
97.805 1118 33.4365
97.9223 1050 32.4037
98.0396 1097 33.121
98.1569 1116 33.4066
98.2743 1150 33.9116
98.3916 1131 33.6303
98.509 1307 36.1525
98.6264 1310 36.1939
98.7438 1328 36.4417
98.8612 1352 36.7696
98.9786 1368 36.9865
99.096 1331 36.4829
99.2134 1357 36.8375
99.3308 1386 37.229
99.4482 1438 37.921
99.5656 1292 35.9444
99.6831 1312 36.2215
99.8005 1236 35.1568
99.9179 1215 34.8569
100.035 1136 33.7046
100.153 1141 33.7787
100.27 1067 32.665
100.388 1103 33.2114
100.505 1034 32.1559
100.622 1061 32.573
100.74 1112 33.3467
100.857 1086 32.9545
100.975 1142 33.7935
101.092 1116 33.4066
101.209 1097 33.121
101.327 1038 32.218
101.444 1057 32.5115
101.561 1021 31.9531
101.679 1082 32.8938
101.796 1155 33.9853
101.913 1179 34.3366
102.03 1220 34.9285
102.148 1365 36.9459
102.265 1262 35.5246
102.382 1530 39.1152
102.499 1393 37.3229
102.616 1430 37.8153
102.733 1369 37
102.851 1459 38.1969
102.968 1495 38.6652
103.085 1412 37.5766
103.202 1343 36.647
103.319 1265 35.5668
103.436 1258 35.4683
103.552 1265 35.5668
103.669 1269 35.623
103.786 1220 34.9285
103.903 1167 34.1614
104.02 1207 34.7419
104.137 1145 33.8378
104.253 1234 35.1283
104.37 1097 33.121
104.487 1163 34.1028
104.603 1151 33.9264
104.72 1139 33.7491
104.836 1083 32.909
104.953 1125 33.541
105.069 1142 33.7935
105.186 1145 33.8378
105.302 1216 34.8712
105.418 1232 35.0999
105.535 1317 36.2905
105.651 1531 39.128
105.767 1411 37.5633
105.883 1380 37.1484
105.999 1383 37.1887
106.115 0 1
106.231 0 1
106.347 0 1
106.463 0 1
106.579 0 1
106.694 0 1
106.81 0 1
106.926 0 1
107.041 0 1
107.157 0 1
109.576 0 1
109.692 0 1
109.807 0 1
109.923 0 1
110.039 0 1
110.155 0 1
110.27 0 1
110.386 0 1
110.502 0 1
110.618 1255 35.426
110.735 1257 35.4542
110.851 1236 35.1568
110.967 1193 34.5398
111.083 1200 34.641
111.199 1248 35.327
111.316 1264 35.5528
111.432 1372 37.0405
111.549 1371 37.027
111.665 1282 35.805
111.782 1253 35.3977
111.898 1224 34.9857
112.015 1216 34.8712
112.132 1102 33.1964
112.248 1101 33.1813
112.365 1092 33.0454
112.482 1046 32.3419
112.599 976 31.241
112.716 990 31.4643
112.832 968 31.1127
112.949 961 31
113.066 951 30.8383
113.183 873 29.5466
113.3 916 30.2655
113.417 889 29.8161
113.534 918 30.2985
113.652 902 30.0333
113.769 940 30.6594
113.886 1016 31.8748
114.003 969 31.1288
114.12 1039 32.2335
114.238 1041 32.2645
114.355 1111 33.3317
114.472 1026 32.0312
114.589 982 31.3369
114.707 1007 31.7333
114.824 1009 31.7648
114.942 1035 32.1714
115.059 1119 33.4515
115.176 1042 32.28
115.294 1004 31.686
115.411 936 30.5941
115.529 993 31.5119
115.646 881 29.6816
115.764 888 29.7993
115.881 874 29.5635
115.999 879 29.6479
116.116 843 29.0345
116.234 719 26.8142
116.351 754 27.4591
116.469 799 28.2666
116.586 734 27.0924
116.704 735 27.1109
116.821 767 27.6948
116.939 724 26.9072
117.056 761 27.5862
117.174 757 27.5136
117.291 795 28.1957
117.409 820 28.6356
117.526 754 27.4591
117.644 815 28.5482
117.761 860 29.3258
117.879 862 29.3598
117.996 818 28.6007
118.114 790 28.1069
118.231 829 28.7924
118.349 774 27.8209
118.466 904 30.0666
118.584 896 29.9333
118.701 976 31.241
118.819 899 29.9833
118.936 961 31
119.053 935 30.5778
119.171 869 29.4788
119.288 826 28.7402
119.405 869 29.4788
119.523 859 29.3087
119.64 837 28.931
119.757 789 28.0891
119.875 785 28.0179
119.992 702 26.4953
120.109 849 29.1376
120.226 769 27.7308
120.343 756 27.4955
120.46 732 27.0555
120.578 801 28.3019
120.695 826 28.7402
120.812 861 29.3428
120.929 835 28.8964
121.046 889 29.8161
121.163 867 29.4449
121.279 928 30.4631
121.396 973 31.1929
121.513 911 30.1828
121.63 936 30.5941
121.747 909 30.1496
121.863 802 28.3196
121.98 851 29.1719
122.097 945 30.7409
122.213 1042 32.28
122.33 1084 32.9242
122.446 1061 32.573
122.563 1073 32.7567
122.679 1056 32.4962
122.795 1101 33.1813
122.912 939 30.6431
123.028 997 31.5753
123.144 1077 32.8177
123.26 979 31.289
123.377 0 1
123.493 0 1
123.609 0 1
123.725 0 1
123.84 0 1
123.956 0 1
124.072 0 1
124.188 0 1
124.303 0 1
124.419 0 1
126.852 0 1
126.968 0 1
127.083 0 1
127.199 0 1
127.315 0 1
127.431 0 1
127.547 0 1
127.663 0 1
127.779 0 1
127.895 0 1
128.011 0 1
128.127 0 1
128.243 0 1
128.359 1147 33.8674
128.476 1160 34.0588
128.592 1135 33.6898
128.708 1065 32.6343
128.825 1142 33.7935
128.941 1103 33.2114
129.058 1030 32.0936
129.174 996 31.5595
129.291 1020 31.9374
129.408 1008 31.749
129.524 966 31.0805
129.641 1019 31.9218
129.758 1025 32.0156
129.875 1042 32.28
129.992 999 31.607
130.108 989 31.4484
130.225 1077 32.8177
130.342 1061 32.573
130.459 1027 32.0468
130.576 1037 32.2025
130.693 867 29.4449
130.81 757 27.5136
130.928 750 27.3861
131.045 913 30.2159
131.162 1020 31.9374
131.279 1029 32.078
131.396 1068 32.6803
131.513 1063 32.6037
131.631 1070 32.7109
131.748 1069 32.6956
131.865 1050 32.4037
131.983 1004 31.686
132.1 1030 32.0936
132.217 1013 31.8277
132.335 1040 32.249
132.452 936 30.5941
132.57 946 30.7571
132.687 873 29.5466
132.804 923 30.3809
132.922 926 30.4302
133.039 899 29.9833
133.157 826 28.7402
133.274 868 29.4618
133.392 918 30.2985
133.509 838 28.9482
133.627 866 29.4279
133.744 871 29.5127
133.862 860 29.3258
133.979 912 30.1993
134.097 913 30.2159
134.214 736 27.1293
134.332 581 24.1039
134.449 618 24.8596
134.567 738 27.1662
134.684 837 28.931
134.802 869 29.4788
134.919 829 28.7924
135.037 846 29.0861
135.154 830 28.8097
135.272 868 29.4618
135.389 837 28.931
135.507 812 28.4956
135.624 755 27.4773
135.742 842 29.0172
135.859 763 27.6225
135.977 771 27.7669
136.094 752 27.4226
136.211 779 27.9106
136.329 721 26.8514
136.446 739 27.1846
136.564 675 25.9808
136.681 731 27.037
136.798 691 26.2869
136.915 636 25.219
137.033 718 26.7955
137.15 695 26.3629
137.267 710 26.6458
137.384 726 26.9444
137.502 681 26.096
137.619 625 25
137.736 682 26.1151
137.853 545 23.3452
137.97 496 22.2711
138.087 596 24.4131
138.204 617 24.8395
138.321 764 27.6405
138.438 696 26.3818
138.555 710 26.6458
138.672 778 27.8927
138.788 765 27.6586
138.905 770 27.7489
139.022 751 27.4044
139.139 781 27.9464
139.255 764 27.6405
139.372 798 28.2489
139.488 769 27.7308
139.605 762 27.6043
139.721 786 28.0357
139.838 769 27.7308
139.954 737 27.1477
140.071 742 27.2397
140.187 802 28.3196
140.303 727 26.9629
140.419 796 28.2135
140.535 715 26.7395
140.652 752 27.4226
140.768 0 1
140.884 0 1
141 0 1
141.115 0 1
141.231 0 1
141.347 0 1
141.463 0 1
141.578 0 1
141.694 0 1
144.104 0 1
144.219 0 1
144.335 0 1
144.45 0 1
144.566 0 1
144.682 0 1
144.798 0 1
144.914 0 1
145.03 0 1
145.146 678 26.0384
145.262 601 24.5153
145.378 636 25.219
145.494 622 24.9399
145.61 564 23.7487
145.726 583 24.1454
145.842 591 24.3105
145.959 575 23.9792
146.075 594 24.3721
146.192 640 25.2982
146.308 606 24.6171
146.425 583 24.1454
146.541 518 22.7596
146.658 445 21.095
146.774 474 21.7715
146.891 505 22.4722
147.008 513 22.6495
147.125 533 23.0868
147.241 567 23.8118
147.358 549 23.4307
147.475 540 23.2379
147.592 515 22.6936
147.709 516 22.7156
147.826 508 22.5389
147.943 521 22.8254
148.06 482 21.9545
148.177 534 23.1084
148.294 511 22.6053
148.411 510 22.5832
148.528 493 22.2036
148.645 445 21.095
148.762 419 20.4695
148.88 419 20.4695
148.997 476 21.8174
149.114 396 19.8997
149.231 445 21.095
149.349 446 21.1187
149.466 419 20.4695
149.583 402 20.0499
149.701 416 20.3961
149.818 447 21.1424
149.935 446 21.1187
150.053 459 21.4243
150.17 423 20.567
150.287 418 20.445
150.405 423 20.567
150.522 409 20.2237
150.64 453 21.2838
150.757 444 21.0713
150.875 453 21.2838
150.992 457 21.3776
151.11 495 22.2486
151.227 484 22
151.344 440 20.9762
151.462 502 22.4054
151.579 410 20.2485
151.697 481 21.9317
151.814 472 21.7256
151.932 511 22.6053
152.049 436 20.8806
152.167 475 21.7945
152.284 469 21.6564
152.402 443 21.0476
152.519 434 20.8327
152.636 420 20.4939
152.754 464 21.5407
152.871 455 21.3307
152.989 498 22.3159
153.106 491 22.1585
153.223 469 21.6564
153.341 468 21.6333
153.458 448 21.166
153.575 459 21.4243
153.693 444 21.0713
153.81 496 22.2711
153.927 494 22.2261
154.044 510 22.5832
154.162 540 23.2379
154.279 604 24.5764
154.396 572 23.9165
154.513 540 23.2379
154.63 584 24.1661
154.747 551 23.4734
154.864 579 24.0624
154.981 602 24.5357
155.098 561 23.6854
155.215 587 24.2281
155.332 611 24.7184
155.449 589 24.2693
155.566 641 25.318
155.683 599 24.4745
155.8 551 23.4734
155.917 576 24
156.033 535 23.1301
156.15 0 1
156.267 0 1
156.383 0 1
156.5 0 1
156.617 0 1
156.733 0 1
156.85 0 1
156.966 0 1
157.082 0 1
157.199 0 1
157.315 0 1
157.431 0 1
157.547 0 1
157.664 0 1
157.78 0 1
157.896 0 1
158.012 0 1
158.128 0 1
158.244 0 1
158.359 0 1
158.475 0 1
158.591 0 1
158.706 0 1
