
6.15755 0 1
6.2731 0 1
6.3887 0 1
6.50437 0 1
6.62009 0 1
6.73587 0 1
6.8517 0 1
6.96759 0 1
7.08353 0 1
7.19952 0 1
7.31557 0 1
7.43166 0 1
7.54781 0 1
7.664 0 1
7.78024 0 1
7.89653 0 1
8.01286 0 1
8.12924 0 1
8.24567 0 1
8.36213 0 1
8.47864 0 1
8.59519 0 1
8.71178 0 1
8.82841 0 1
8.94508 0 1
9.06179 0 1
9.17853 0 1
9.29531 0 1
9.41212 0 1
9.52897 0 1
9.64584 0 1
9.76276 0 1
9.8797 0 1
9.99667 0 1
10.1137 0 1
10.2307 0 1
10.3478 0 1
10.4648 0 1
10.5819 0 1
10.6991 0 1
10.8162 0 1
10.9334 0 1
11.0506 0 1
11.1678 0 1
11.285 0 1
11.4023 0 1
11.5196 0 1
11.6369 0 1
11.7542 0 1
11.8715 0 1
11.9888 0 1
12.1062 0 1
12.2235 0 1
12.3409 0 1
12.4582 0 1
12.5756 0 1
12.693 0 1
12.8104 0 1
12.9278 0 1
13.0452 0 1
13.1626 0 1
13.28 0 1
13.3974 0 1
13.5149 0 1
13.6323 0 1
13.7497 0 1
13.8671 0 1
13.9845 0 1
14.1019 0 1
14.2193 0 1
14.3367 0 1
14.4541 0 1
14.5714 0 1
14.6888 0 1
14.8062 0 1
14.9235 0 1
15.0408 0 0
15.1581 0 0
15.2755 0 0
15.3927 0 0
15.51 0 0
15.6273 0 0
15.7445 0 0
15.8617 0 0
15.9789 0 0
16.0961 0 0
16.2132 0 0
16.3304 0 0
16.4475 0 0
16.5646 0 0
16.6816 0 0
16.7986 0 0
16.9156 0 0
17.0326 0 0
17.1496 0 0
17.2665 0 0
17.3833 0 0
17.5002 0 0
17.617 0 0
17.7338 0 0
17.8505 0 0
17.9672 0 0
18.0839 0 0
18.2005 0 0
18.3171 0 0
18.4337 0 0
18.5502 0 0
18.6666 0 0
18.7831 0 0
18.8994 0 0
19.0158 0 0
19.1321 0 0
19.2483 0 0
19.3645 0 0
19.4806 0 0
19.5967 0 0
19.7128 0 0
19.8288 0 0
19.9447 0 0
20.0606 0 1
20.1764 0 1
20.2922 0 1
20.4079 0 1
20.5236 0 1
20.6392 0 1
20.7548 0 1
20.8702 0 1
23.3078 0 1
23.4233 0 1
23.539 0 1
23.6547 0 1
23.7704 0 1
23.8862 0 1
24.0021 0 1
24.118 0 1
24.234 0 1
24.35 0 1
24.4661 985 31.3847
24.5822 988 31.4325
24.6984 1003 31.6702
24.8146 1005 31.7017
24.9309 1020 31.9374
25.0472 1059 32.5423
25.1636 1027 32.0468
25.28 1073 32.7567
25.3965 1038 32.218
25.513 1041 32.2645
25.6296 1074 32.7719
25.7462 1062 32.5883
25.8628 1146 33.8526
25.9795 1090 33.0151
26.0962 1109 33.3017
26.213 1135 33.6898
26.3298 1040 32.249
26.4466 1102 33.1964
26.5635 1073 32.7567
26.6804 1066 32.6497
26.7973 1006 31.7175
26.9143 1014 31.8434
27.0313 960 30.9839
27.1483 955 30.9031
27.2653 962 31.0161
27.3824 982 31.3369
27.4996 1006 31.7175
27.6167 1022 31.9687
27.7339 940 30.6594
27.8511 934 30.5614
27.9683 912 30.1993
28.0855 931 30.5123
28.2028 983 31.3528
28.3201 936 30.5941
28.4374 1024 32
28.5547 998 31.5911
28.6721 1042 32.28
28.7894 1001 31.6386
28.9068 1009 31.7648
29.0242 1013 31.8277
29.1416 1026 32.0312
29.259 1045 32.3265
29.3764 1056 32.4962
29.4939 1051 32.4191
29.6113 1023 31.9844
29.7288 1016 31.8748
29.8463 1039 32.2335
29.9638 1040 32.249
30.0812 1020 31.9374
30.1987 1013 31.8277
30.3162 946 30.7571
30.4337 947 30.7734
30.5512 869 29.4788
30.6687 911 30.1828
30.7862 896 29.9333
30.9037 928 30.4631
31.0212 942 30.692
31.1387 1006 31.7175
31.2562 947 30.7734
31.3737 929 30.4795
31.4912 889 29.8161
31.6087 919 30.315
31.7262 871 29.5127
31.8436 914 30.2324
31.9611 971 31.1609
32.0785 1000 31.6228
32.1959 982 31.3369
32.3134 1027 32.0468
32.4308 1034 32.1559
32.5482 1013 31.8277
32.6655 1033 32.1403
32.7829 1004 31.686
32.9002 998 31.5911
33.0176 985 31.3847
33.1349 1024 32
33.2522 985 31.3847
33.3694 990 31.4643
33.4867 1016 31.8748
33.6039 1000 31.6228
33.7211 975 31.225
33.8383 937 30.6105
33.9554 977 31.257
34.0725 925 30.4138
34.1896 923 30.3809
34.3067 812 28.4956
34.4237 878 29.6311
34.5407 858 29.2916
34.6577 872 29.5296
34.7746 909 30.1496
34.8915 925 30.4138
35.0084 903 30.05
35.1252 801 28.3019
35.242 894 29.8998
35.3587 868 29.4618
35.4755 896 29.9333
35.5921 930 30.4959
35.7088 943 30.7083
35.8254 1016 31.8748
35.9419 1014 31.8434
36.0584 1001 31.6386
36.1749 1013 31.8277
36.2913 1049 32.3883
36.4077 1009 31.7648
36.524 1024 32
36.6403 977 31.257
36.7565 936 30.5941
36.8727 1009 31.7648
36.9889 954 30.8869
37.1049 999 31.607
37.221 0 1
37.3369 0 1
37.4529 0 1
37.5687 0 1
37.6845 0 1
37.8003 0 1
37.916 0 1
38.0316 0 1
38.1472 0 1
40.5851 0 1
40.7008 0 1
40.8164 0 1
40.9322 0 1
41.048 0 1
41.1639 0 1
41.2798 0 1
41.3958 0 1
41.5118 0 1
41.6279 0 1
41.744 817 28.5832
41.8602 771 27.7669
41.9765 848 29.1204
42.0928 813 28.5132
42.2091 833 28.8617
42.3255 830 28.8097
42.4419 836 28.9137
42.5584 777 27.8747
42.675 836 28.9137
42.7915 809 28.4429
42.9081 795 28.1957
43.0248 705 26.5518
43.1415 689 26.2488
43.2582 696 26.3818
43.375 729 27
43.4918 772 27.7849
43.6087 752 27.4226
43.7256 716 26.7582
43.8425 688 26.2298
43.9595 675 25.9808
44.0765 686 26.1916
44.1935 710 26.6458
44.3106 742 27.2397
44.4277 764 27.6405
44.5448 743 27.258
44.6619 772 27.7849
44.7791 740 27.2029
44.8963 700 26.4575
45.0136 731 27.037
45.1308 761 27.5862
45.2481 742 27.2397
45.3654 704 26.533
45.4827 706 26.5707
45.6001 641 25.318
45.7174 650 25.4951
45.8348 671 25.9037
45.9522 684 26.1534
46.0697 724 26.9072
46.1871 688 26.2298
46.3046 669 25.865
46.422 666 25.807
46.5395 632 25.1396
46.657 595 24.3926
46.7745 565 23.7697
46.892 574 23.9583
47.0096 577 24.0208
47.1271 567 23.8118
47.2446 634 25.1794
47.3622 567 23.8118
47.4797 579 24.0624
47.5973 575 23.9792
47.7149 529 23
47.8324 545 23.3452
47.95 599 24.4745
48.0675 604 24.5764
48.1851 597 24.4336
48.3027 587 24.2281
48.4202 562 23.7065
48.5378 586 24.2074
48.6554 558 23.622
48.7729 578 24.0416
48.8904 579 24.0624
49.008 525 22.9129
49.1255 587 24.2281
49.243 569 23.8537
49.3605 596 24.4131
49.478 553 23.516
49.5955 572 23.9165
49.713 588 24.2487
49.8304 596 24.4131
49.9479 602 24.5357
50.0653 582 24.1247
50.1827 533 23.0868
50.3001 475 21.7945
50.4175 493 22.2036
50.5348 547 23.388
50.6521 568 23.8328
50.7694 640 25.2982
50.8867 593 24.3516
51.004 559 23.6432
51.1212 616 24.8193
51.2384 636 25.219
51.3556 632 25.1396
51.4727 733 27.074
51.5899 717 26.7769
51.707 690 26.2679
51.824 721 26.8514
51.9411 747 27.3313
52.0581 761 27.5862
52.175 757 27.5136
52.2919 759 27.55
52.4088 746 27.313
52.5257 749 27.3679
52.6425 714 26.7208
52.7593 731 27.037
52.876 745 27.2947
52.9927 770 27.7489
53.1094 780 27.9285
53.226 770 27.7489
53.3426 768 27.7128
53.4591 693 26.3249
53.5756 802 28.3196
53.692 753 27.4408
53.8084 779 27.9106
53.9248 722 26.8701
54.0411 677 26.0192
54.1573 658 25.6515
54.2735 0 1
54.3896 0 1
54.5057 0 1
54.6217 0 1
54.7377 0 1
54.8537 0 1
54.9695 0 1
55.0853 0 1
55.2011 0 1
55.3168 0 1
55.4324 0 1
57.824 0 1
57.9396 0 1
58.0553 0 1
58.1711 0 1
58.2869 0 1
58.4028 0 1
58.5187 0 1
58.6347 0 1
58.7508 0 1
58.8669 0 1
58.983 752 27.4226
59.0992 781 27.9464
59.2155 765 27.6586
59.3318 775 27.8388
59.4482 746 27.313
59.5646 750 27.3861
59.681 785 28.0179
59.7975 762 27.6043
59.9141 842 29.0172
60.0306 824 28.7054
60.1473 862 29.3598
60.2639 820 28.6356
60.3807 763 27.6225
60.4974 850 29.1548
60.6142 827 28.7576
60.731 835 28.8964
60.8479 847 29.1033
60.9648 839 28.9655
61.0818 792 28.1425
61.1987 798 28.2489
61.3158 864 29.3939
61.4328 820 28.6356
61.5499 817 28.5832
61.667 771 27.7669
61.7841 770 27.7489
61.9013 852 29.189
62.0185 789 28.0891
62.1357 787 28.0535
62.253 787 28.0535
62.3702 752 27.4226
62.4875 757 27.5136
62.6049 667 25.8263
62.7222 656 25.6125
62.8396 652 25.5343
62.9569 686 26.1916
63.0743 702 26.4953
63.1918 704 26.533
63.3092 733 27.074
63.4267 722 26.8701
63.5441 759 27.55
63.6616 748 27.3496
63.7791 748 27.3496
63.8966 720 26.8328
64.0142 772 27.7849
64.1317 760 27.5681
64.2492 715 26.7395
64.3668 743 27.258
64.4843 699 26.4386
64.6019 715 26.7395
64.7195 718 26.7955
64.837 763 27.6225
64.9546 680 26.0768
65.0722 726 26.9444
65.1898 666 25.807
65.3074 697 26.4008
65.4249 659 25.671
65.5425 686 26.1916
65.6601 684 26.1534
65.7777 709 26.6271
65.8952 630 25.0998
66.0128 666 25.807
66.1304 634 25.1794
66.2479 569 23.8537
66.3655 530 23.0217
66.483 543 23.3024
66.6005 568 23.8328
66.718 612 24.7386
66.8355 638 25.2587
66.953 589 24.2693
67.0705 656 25.6125
67.1879 665 25.7876
67.3054 704 26.533
67.4228 642 25.3377
67.5402 597 24.4336
67.6576 642 25.3377
67.7749 637 25.2389
67.8923 626 25.02
68.0096 644 25.3772
68.1269 608 24.6577
68.2442 615 24.7992
68.3614 654 25.5734
68.4787 652 25.5343
68.5958 656 25.6125
68.713 636 25.219
68.8302 612 24.7386
68.9473 667 25.8263
69.0643 641 25.318
69.1814 637 25.2389
69.2984 634 25.1794
69.4154 666 25.807
69.5323 597 24.4336
69.6492 629 25.0799
69.7661 610 24.6982
69.8829 575 23.9792
69.9997 552 23.4947
70.1165 549 23.4307
70.2332 557 23.6008
70.3499 576 24
70.4665 543 23.3024
70.5831 548 23.4094
70.6996 586 24.2074
70.8161 575 23.9792
70.9326 552 23.4947
71.049 557 23.6008
71.1653 597 24.4336
71.2817 590 24.2899
71.3979 555 23.5584
71.5141 565 23.7697
71.6303 534 23.1084
71.7464 505 22.4722
71.8624 0 1
71.9784 0 1
72.0944 0 1
72.2102 0 1
72.3261 0 1
72.4418 0 1
72.5575 0 1
72.6732 0 1
75.1054 0 1
75.2209 0 1
75.3365 0 1
75.4521 0 1
75.5678 0 1
75.6835 0 1
75.7993 0 1
75.9151 0 1
76.031 0 1
76.147 452 21.2603
76.263 462 21.4942
76.3791 459 21.4243
76.4952 441 21
76.6113 481 21.9317
76.7276 470 21.6795
76.8438 427 20.664
76.9601 455 21.3307
77.0765 464 21.5407
77.1929 406 20.1494
77.3093 468 21.6333
77.4258 404 20.0998
77.5423 445 21.095
77.6589 433 20.8087
77.7755 390 19.7484
77.8921 420 20.4939
78.0088 408 20.199
78.1256 408 20.199
78.2423 393 19.8242
78.3591 391 19.7737
78.4759 389 19.7231
78.5928 429 20.7123
78.7097 391 19.7737
78.8266 401 20.025
78.9436 345 18.5742
79.0606 350 18.7083
79.1776 263 16.2173
79.2946 289 17
79.4117 324 18
79.5288 324 18
79.6459 328 18.1108
79.7631 313 17.6918
79.8802 320 17.8885
79.9974 268 16.3707
80.1147 334 18.2757
80.2319 306 17.4929
80.3491 300 17.3205
80.4664 284 16.8523
80.5837 304 17.4356
80.701 299 17.2916
80.8183 262 16.1864
80.9357 291 17.0587
81.053 266 16.3095
81.1704 220 14.8324
81.2877 215 14.6629
81.4051 265 16.2788
81.5225 203 14.2478
81.6399 210 14.4914
81.7573 221 14.8661
81.8747 207 14.3875
81.9922 207 14.3875
82.1096 198 14.0712
82.227 204 14.2829
82.3444 217 14.7309
82.4619 202 14.2127
82.5793 179 13.3791
82.6967 181 13.4536
82.8142 184 13.5647
82.9316 126 11.225
83.049 125 11.1803
83.1664 152 12.3288
83.2838 137 11.7047
83.4012 138 11.7473
83.5186 140 11.8322
83.636 135 11.619
83.7534 126 11.225
83.8708 112 10.583
83.9881 108 10.3923
84.1055 116 10.7703
84.2228 96 9.79796
84.3401 93 9.64365
84.4575 111 10.5357
84.5747 114 10.6771
84.692 101 10.0499
84.8093 106 10.2956
84.9265 98 9.89949
85.0437 98 9.89949
85.1609 95 9.74679
85.2781 84 9.16515
85.3952 72 8.48528
85.5123 70 8.3666
85.6294 85 9.21954
85.7465 71 8.42615
85.8636 93 9.64365
85.9806 97 9.84886
86.0976 72 8.48528
86.2145 79 8.88819
86.3315 95 9.74679
86.4484 97 9.84886
86.5652 96 9.79796
86.682 105 10.247
86.7988 128 11.3137
86.9156 83 9.11043
87.0323 97 9.84886
87.149 117 10.8167
87.2657 121 11
87.3823 110 10.4881
87.4988 122 11.0454
87.6154 152 12.3288
87.7318 131 11.4455
87.8483 145 12.0416
87.9647 153 12.3693
88.081 161 12.6886
88.1973 192 13.8564
88.3136 205 14.3178
88.4298 202 14.2127
88.546 194 13.9284
88.6621 180 13.4164
88.7781 227 15.0665
88.8942 0 1
89.0101 0 1
89.126 0 1
89.2419 0 1
89.3577 0 1
89.4734 0 1
89.5891 0 1
89.7047 0 1
89.8203 0 1
89.9358 0 1
92.3269 0 1
92.4424 0 1
92.558 0 1
92.6736 0 1
92.7893 0 1
92.905 0 1
93.0208 0 1
93.1366 0 1
93.2525 0 1
93.3685 0 1
93.4845 0 1
93.6005 308 17.5499
93.7167 326 18.0555
93.8328 315 17.7482
93.949 301 17.3494
94.0653 318 17.8326
94.1816 277 16.6433
94.2979 258 16.0624
94.4143 300 17.3205
94.5307 260 16.1245
94.6472 269 16.4012
94.7637 267 16.3401
94.8803 273 16.5227
94.9969 271 16.4621
95.1135 249 15.7797
95.2302 234 15.2971
95.3469 218 14.7648
95.4637 165 12.8452
95.5805 206 14.3527
95.6973 237 15.3948
95.8142 283 16.8226
95.9311 254 15.9374
96.048 314 17.72
96.1649 315 17.7482
96.2819 323 17.9722
96.3989 316 17.7764
96.516 323 17.9722
96.633 330 18.1659
96.7501 358 18.9209
96.8673 326 18.0555
96.9844 314 17.72
97.1016 330 18.1659
97.2188 357 18.8944
97.336 350 18.7083
97.4532 371 19.2614
97.5704 371 19.2614
97.6877 425 20.6155
97.805 420 20.4939
97.9223 415 20.3715
98.0396 400 20
98.1569 429 20.7123
98.2743 414 20.347
98.3916 440 20.9762
98.509 428 20.6882
98.6264 427 20.664
98.7438 456 21.3542
98.8612 442 21.0238
98.9786 395 19.8746
99.096 333 18.2483
99.2134 338 18.3848
99.3308 436 20.8806
99.4482 471 21.7025
99.5656 546 23.3666
99.6831 533 23.0868
99.8005 557 23.6008
99.9179 556 23.5797
100.035 561 23.6854
100.153 500 22.3607
100.27 567 23.8118
100.388 569 23.8537
100.505 570 23.8747
100.622 595 24.3926
100.74 577 24.0208
100.857 600 24.4949
100.975 587 24.2281
101.092 586 24.2074
101.209 615 24.7992
101.327 628 25.0599
101.444 561 23.6854
101.561 602 24.5357
101.679 614 24.779
101.796 632 25.1396
101.913 606 24.6171
102.03 656 25.6125
102.148 590 24.2899
102.265 630 25.0998
102.382 587 24.2281
102.499 585 24.1868
102.616 522 22.8473
102.733 385 19.6214
102.851 516 22.7156
102.968 654 25.5734
103.085 611 24.7184
103.202 623 24.96
103.319 666 25.807
103.436 699 26.4386
103.552 680 26.0768
103.669 701 26.4764
103.786 657 25.632
103.903 682 26.1151
104.02 685 26.1725
104.137 666 25.807
104.253 696 26.3818
104.37 624 24.98
104.487 688 26.2298
104.603 658 25.6515
104.72 690 26.2679
104.836 655 25.593
104.953 695 26.3629
105.069 692 26.3059
105.186 654 25.5734
105.302 694 26.3439
105.418 673 25.9422
105.535 700 26.4575
105.651 720 26.8328
105.767 681 26.096
105.883 625 25
105.999 559 23.6432
106.115 0 1
106.231 0 1
106.347 0 1
106.463 0 1
106.579 0 1
106.694 0 1
106.81 0 1
106.926 0 1
107.041 0 1
107.157 0 1
109.576 0 1
109.692 0 1
109.807 0 1
109.923 0 1
110.039 0 1
110.155 0 1
110.27 0 1
110.386 0 1
110.502 0 1
110.618 526 22.9347
110.735 548 23.4094
110.851 532 23.0651
110.967 559 23.6432
111.083 523 22.8692
111.199 428 20.6882
111.316 407 20.1742
111.432 484 22
111.549 503 22.4277
111.665 549 23.4307
111.782 503 22.4277
111.898 535 23.1301
112.015 497 22.2935
112.132 495 22.2486
112.248 498 22.3159
112.365 480 21.9089
112.482 483 21.9773
112.599 449 21.1896
112.716 457 21.3776
112.832 463 21.5174
112.949 448 21.166
113.066 429 20.7123
113.183 446 21.1187
113.3 427 20.664
113.417 409 20.2237
113.534 446 21.1187
113.652 427 20.664
113.769 398 19.9499
113.886 372 19.2873
114.003 369 19.2094
114.12 418 20.445
114.238 406 20.1494
114.355 398 19.9499
114.472 336 18.3303
114.589 360 18.9737
114.707 363 19.0526
114.824 346 18.6011
114.942 333 18.2483
115.059 368 19.1833
115.176 410 20.2485
115.294 387 19.6723
115.411 396 19.8997
115.529 355 18.8414
115.646 414 20.347
115.764 378 19.4422
115.881 366 19.1311
115.999 369 19.2094
116.116 405 20.1246
116.234 352 18.7617
116.351 377 19.4165
116.469 354 18.8149
116.586 365 19.105
116.704 370 19.2354
116.821 392 19.799
116.939 419 20.4695
117.056 397 19.9249
117.174 384 19.5959
117.291 385 19.6214
117.409 406 20.1494
117.526 363 19.0526
117.644 405 20.1246
117.761 345 18.5742
117.879 335 18.303
117.996 315 17.7482
118.114 343 18.5203
118.231 342 18.4932
118.349 363 19.0526
118.466 364 19.0788
118.584 375 19.3649
118.701 368 19.1833
118.819 382 19.5448
118.936 371 19.2614
119.053 403 20.0749
119.171 395 19.8746
119.288 413 20.3224
119.405 396 19.8997
119.523 403 20.0749
119.64 413 20.3224
119.757 430 20.7364
119.875 402 20.0499
119.992 394 19.8494
120.109 370 19.2354
120.226 398 19.9499
120.343 393 19.8242
120.46 398 19.9499
120.578 369 19.2094
120.695 398 19.9499
120.812 427 20.664
120.929 398 19.9499
121.046 447 21.1424
121.163 458 21.4009
121.279 421 20.5183
121.396 403 20.0749
121.513 414 20.347
121.63 335 18.303
121.747 291 17.0587
121.863 258 16.0624
121.98 353 18.7883
122.097 405 20.1246
122.213 401 20.025
122.33 440 20.9762
122.446 394 19.8494
122.563 440 20.9762
122.679 422 20.5426
122.795 390 19.7484
122.912 406 20.1494
123.028 464 21.5407
123.144 461 21.4709
123.26 444 21.0713
123.377 0 1
123.493 0 1
123.609 0 1
123.725 0 1
123.84 0 1
123.956 0 1
124.072 0 1
124.188 0 1
124.303 0 1
124.419 0 1
126.852 0 1
126.968 0 1
127.083 0 1
127.199 0 1
127.315 0 1
127.431 0 1
127.547 0 1
127.663 0 1
127.779 0 1
127.895 0 1
128.011 0 1
128.127 0 1
128.243 0 1
128.359 545 23.3452
128.476 589 24.2693
128.592 526 22.9347
128.708 542 23.2809
128.825 584 24.1661
128.941 531 23.0434
129.058 513 22.6495
129.174 572 23.9165
129.291 561 23.6854
129.408 534 23.1084
129.524 551 23.4734
129.641 553 23.516
129.758 552 23.4947
129.875 578 24.0416
129.992 594 24.3721
130.108 540 23.2379
130.225 541 23.2594
130.342 517 22.7376
130.459 422 20.5426
130.576 441 21
130.693 403 20.0749
130.81 365 19.105
130.928 415 20.3715
131.045 481 21.9317
131.162 524 22.891
131.279 569 23.8537
131.396 560 23.6643
131.513 572 23.9165
131.631 561 23.6854
131.748 580 24.0832
131.865 586 24.2074
131.983 587 24.2281
132.1 606 24.6171
132.217 590 24.2899
132.335 546 23.3666
132.452 635 25.1992
132.57 624 24.98
132.687 585 24.1868
132.804 624 24.98
132.922 611 24.7184
133.039 573 23.9374
133.157 584 24.1661
133.274 629 25.0799
133.392 599 24.4745
133.509 616 24.8193
133.627 610 24.6982
133.744 594 24.3721
133.862 572 23.9165
133.979 526 22.9347
134.097 507 22.5167
134.214 493 22.2036
134.332 435 20.8567
134.449 428 20.6882
134.567 485 22.0227
134.684 528 22.9783
134.802 564 23.7487
134.919 605 24.5967
135.037 694 26.3439
135.154 652 25.5343
135.272 639 25.2784
135.389 632 25.1396
135.507 631 25.1197
135.624 658 25.6515
135.742 655 25.593
135.859 660 25.6905
135.977 686 26.1916
136.094 677 26.0192
136.211 701 26.4764
136.329 673 25.9422
136.446 670 25.8844
136.564 679 26.0576
136.681 693 26.3249
136.798 654 25.5734
136.915 697 26.4008
137.033 667 25.8263
137.15 674 25.9615
137.267 673 25.9422
137.384 613 24.7588
137.502 599 24.4745
137.619 587 24.2281
137.736 534 23.1084
137.853 501 22.383
137.97 541 23.2594
138.087 524 22.891
138.204 579 24.0624
138.321 557 23.6008
138.438 647 25.4362
138.555 655 25.593
138.672 720 26.8328
138.788 725 26.9258
138.905 679 26.0576
139.022 645 25.3969
139.139 739 27.1846
139.255 685 26.1725
139.372 722 26.8701
139.488 728 26.9815
139.605 726 26.9444
139.721 714 26.7208
139.838 757 27.5136
139.954 743 27.258
140.071 691 26.2869
140.187 695 26.3629
140.303 684 26.1534
140.419 725 26.9258
140.535 687 26.2107
140.652 731 27.037
140.768 0 1
140.884 0 1
141 0 1
141.115 0 1
141.231 0 1
141.347 0 1
141.463 0 1
141.578 0 1
141.694 0 1
144.104 0 1
144.219 0 1
144.335 0 1
144.45 0 1
144.566 0 1
144.682 0 1
144.798 0 1
144.914 0 1
145.03 0 1
145.146 662 25.7294
145.262 699 26.4386
145.378 686 26.1916
145.494 691 26.2869
145.61 650 25.4951
145.726 684 26.1534
145.842 699 26.4386
145.959 663 25.7488
146.075 617 24.8395
146.192 606 24.6171
146.308 595 24.3926
146.425 599 24.4745
146.541 550 23.4521
146.658 561 23.6854
146.774 536 23.1517
146.891 543 23.3024
147.008 595 24.3926
147.125 668 25.8457
147.241 661 25.7099
147.358 710 26.6458
147.475 698 26.4197
147.592 692 26.3059
147.709 670 25.8844
147.826 673 25.9422
147.943 716 26.7582
148.06 729 27
148.177 715 26.7395
148.294 673 25.9422
148.411 681 26.096
148.528 681 26.096
148.645 687 26.2107
148.762 676 26
148.88 719 26.8142
148.997 648 25.4558
149.114 691 26.2869
149.231 665 25.7876
149.349 672 25.923
149.466 641 25.318
149.583 652 25.5343
149.701 631 25.1197
149.818 642 25.3377
149.935 617 24.8395
150.053 538 23.1948
150.17 542 23.2809
150.287 605 24.5967
150.405 553 23.516
150.522 609 24.6779
150.64 657 25.632
150.757 631 25.1197
150.875 639 25.2784
150.992 641 25.318
151.11 652 25.5343
151.227 662 25.7294
151.344 659 25.671
151.462 721 26.8514
151.579 659 25.671
151.697 684 26.1534
151.814 731 27.037
151.932 697 26.4008
152.049 722 26.8701
152.167 652 25.5343
152.284 750 27.3861
152.402 764 27.6405
152.519 704 26.533
152.636 729 27
152.754 674 25.9615
152.871 723 26.8887
152.989 666 25.807
153.106 714 26.7208
153.223 677 26.0192
153.341 640 25.2982
153.458 659 25.671
153.575 627 25.04
153.693 600 24.4949
153.81 583 24.1454
153.927 621 24.9199
154.044 633 25.1595
154.162 628 25.0599
154.279 707 26.5895
154.396 708 26.6083
154.513 688 26.2298
154.63 706 26.5707
154.747 699 26.4386
154.864 699 26.4386
154.981 738 27.1662
155.098 730 27.0185
155.215 748 27.3496
155.332 815 28.5482
155.449 776 27.8568
155.566 745 27.2947
155.683 741 27.2213
155.8 794 28.178
155.917 772 27.7849
156.033 816 28.5657
156.15 0 1
156.267 0 1
156.383 0 1
156.5 0 1
156.617 0 1
156.733 0 1
156.85 0 1
156.966 0 1
157.082 0 1
157.199 0 1
157.315 0 1
157.431 0 1
157.547 0 1
157.664 0 1
157.78 0 1
157.896 0 1
158.012 0 1
158.128 0 1
158.244 0 1
158.359 0 1
158.475 0 1
158.591 0 1
158.706 0 1
