
6.15755 0 1
6.2731 0 1
6.3887 0 1
6.50437 0 1
6.62009 0 1
6.73587 0 1
6.8517 0 1
6.96759 0 1
7.08353 0 1
7.19952 0 1
7.31557 0 1
7.43166 0 1
7.54781 0 1
7.664 0 1
7.78024 0 1
7.89653 0 1
8.01286 0 1
8.12924 0 1
8.24567 0 1
8.36213 0 1
8.47864 0 1
8.59519 0 1
8.71178 0 1
8.82841 0 1
8.94508 0 1
9.06179 0 1
9.17853 0 1
9.29531 0 1
9.41212 0 1
9.52897 0 1
9.64584 0 1
9.76276 0 1
9.8797 0 1
9.99667 0 1
10.1137 0 1
10.2307 0 1
10.3478 0 1
10.4648 0 1
10.5819 0 1
10.6991 0 1
10.8162 0 1
10.9334 0 1
11.0506 0 1
11.1678 0 1
11.285 0 1
11.4023 0 1
11.5196 0 1
11.6369 0 1
11.7542 0 1
11.8715 0 1
11.9888 0 1
12.1062 0 1
12.2235 0 1
12.3409 0 1
12.4582 0 1
12.5756 0 1
12.693 0 1
12.8104 0 1
12.9278 0 1
13.0452 0 1
13.1626 0 1
13.28 0 1
13.3974 0 1
13.5149 0 1
13.6323 0 1
13.7497 0 1
13.8671 0 1
13.9845 0 1
14.1019 0 1
14.2193 0 1
14.3367 0 1
14.4541 0 1
14.5714 0 1
14.6888 0 1
14.8062 0 1
14.9235 0 1
15.0408 22891 151.298
15.1581 23991 154.89
15.2755 24351 156.048
15.3927 24334 155.994
15.51 24131 155.342
15.6273 24020 154.984
15.7445 23815 154.321
15.8617 23318 152.702
15.9789 22919 151.39
16.0961 22700 150.665
16.2132 22234 149.111
16.3304 22085 148.61
16.4475 22314 149.379
16.5646 22800 150.997
16.6816 22807 151.02
16.7986 23077 151.911
16.9156 22720 150.732
17.0326 23244 152.46
17.1496 23332 152.748
17.2665 23641 153.756
17.3833 23906 154.616
17.5002 24395 156.189
17.617 24649 157
17.7338 24985 158.066
17.8505 26032 161.344
17.9672 27590 166.102
18.0839 28199 167.926
18.2005 29449 171.607
18.3171 29658 172.215
18.4337 30113 173.531
18.5502 30509 174.668
18.6666 30070 173.407
18.7831 29426 171.54
18.8994 28796 169.694
19.0158 28075 167.556
19.1321 27117 164.672
19.2483 26295 162.157
19.3645 25510 159.719
19.4806 25048 158.266
19.5967 24302 155.891
19.7128 23919 154.658
19.8288 23027 151.746
19.9447 20284 142.422
20.0606 0 1
20.1764 0 1
20.2922 0 1
20.4079 0 1
20.5236 0 1
20.6392 0 1
20.7548 0 1
20.8702 0 1
23.3078 0 1
23.4233 0 1
23.539 0 1
23.6547 0 1
23.7704 0 1
23.8862 0 1
24.0021 0 1
24.118 0 1
24.234 0 1
24.35 0 1
24.4661 24023 154.994
24.5822 24169 155.464
24.6984 23891 154.567
24.8146 24045 155.065
24.9309 23408 152.997
25.0472 23380 152.905
25.1636 23320 152.709
25.28 23555 153.476
25.3965 23949 154.755
25.513 24799 157.477
25.6296 25280 158.997
25.7462 25834 160.73
25.8628 26065 161.447
25.9795 26229 161.954
26.0962 26573 163.012
26.213 26190 161.833
26.3298 26915 164.058
26.4466 26983 164.265
26.5635 27810 166.763
26.6804 28420 168.582
26.7973 28459 168.698
26.9143 28304 168.238
27.0313 28755 169.573
27.1483 28512 168.855
27.2653 27990 167.302
27.3824 28222 167.994
27.4996 27784 166.685
27.6167 26302 162.179
27.7339 25360 159.248
27.8511 24964 158
27.9683 23918 154.654
28.0855 23570 153.525
28.2028 23466 153.186
28.3201 23235 152.43
28.4374 23089 151.951
28.5547 22838 151.122
28.6721 23297 152.634
28.7894 23086 151.941
28.9068 23000 151.658
29.0242 23399 152.967
29.1416 22743 150.808
29.259 23478 153.225
29.3764 23598 153.616
29.4939 23939 154.722
29.6113 24375 156.125
29.7288 24696 157.15
29.8463 25393 159.352
29.9638 25820 160.686
30.0812 26336 162.284
30.1987 26763 163.594
30.3162 27435 165.635
30.4337 27478 165.765
30.5512 27214 164.967
30.6687 26894 163.994
30.7862 26946 164.152
30.9037 26285 162.126
31.0212 25991 161.217
31.1387 25108 158.455
31.2562 24185 155.515
31.3737 23903 154.606
31.4912 23016 151.71
31.6087 22436 149.787
31.7262 22108 148.688
31.8436 22109 148.691
31.9611 21828 147.743
32.0785 22322 149.405
32.1959 22380 149.599
32.3134 22888 151.288
32.4308 22991 151.628
32.5482 22800 150.997
32.6655 23033 151.766
32.7829 22859 151.192
32.9002 22826 151.083
33.0176 22525 150.083
33.1349 22854 151.175
33.2522 23347 152.797
33.3694 23399 152.967
33.4867 24465 156.413
33.6039 24566 156.735
33.7211 25158 158.613
33.8383 25715 160.359
33.9554 25892 160.91
34.0725 25950 161.09
34.1896 25278 158.991
34.3067 25304 159.072
34.4237 24783 157.426
34.5407 24765 157.369
34.6577 24001 154.923
34.7746 22991 151.628
34.8915 22555 150.183
35.0084 22263 149.208
35.1252 21524 146.711
35.242 21399 146.284
35.3587 20865 144.447
35.4755 20993 144.89
35.5921 21093 145.234
35.7088 21531 146.734
35.8254 21852 147.824
35.9419 22463 149.877
36.0584 22785 150.947
36.1749 22752 150.838
36.2913 22245 149.148
36.4077 22253 149.174
36.524 21678 147.235
36.6403 21518 146.69
36.7565 21468 146.52
36.8727 21873 147.895
36.9889 21632 147.078
37.1049 21780 147.58
37.221 0 1
37.3369 0 1
37.4529 0 1
37.5687 0 1
37.6845 0 1
37.8003 0 1
37.916 0 1
38.0316 0 1
38.1472 0 1
40.5851 0 1
40.7008 0 1
40.8164 0 1
40.9322 0 1
41.048 0 1
41.1639 0 1
41.2798 0 1
41.3958 0 1
41.5118 0 1
41.6279 0 1
41.744 17009 130.419
41.8602 18375 135.554
41.9765 18108 134.566
42.0928 18596 136.367
42.2091 18516 136.074
42.3255 18975 137.75
42.4419 19192 138.535
42.5584 19609 140.032
42.675 19827 140.808
42.7915 20215 142.179
42.9081 20227 142.222
43.0248 20367 142.713
43.1415 20696 143.861
43.2582 20509 143.21
43.375 20698 143.868
43.4918 20514 143.227
43.6087 20553 143.363
43.7256 20254 142.317
43.8425 20145 141.933
43.9595 19698 140.35
44.0765 19264 138.795
44.1935 19423 139.366
44.3106 19064 138.072
44.4277 18978 137.761
44.5448 19034 137.964
44.6619 18447 135.82
44.7791 18384 135.588
44.8963 18222 134.989
45.0136 17563 132.525
45.1308 17733 133.165
45.2481 17724 133.132
45.3654 17015 130.442
45.4827 16728 129.337
45.6001 16226 127.381
45.7174 16346 127.851
45.8348 15810 125.738
45.9522 15667 125.168
46.0697 15351 123.899
46.1871 15485 124.439
46.3046 15171 123.171
46.422 15002 122.483
46.5395 14994 122.45
46.657 14837 121.807
46.7745 14684 121.178
46.892 14865 121.922
47.0096 14386 119.942
47.1271 14434 120.142
47.2446 14095 118.722
47.3622 14161 119
47.4797 13480 116.103
47.5973 13606 116.645
47.7149 13585 116.555
47.8324 13414 115.819
47.95 13093 114.425
48.0675 12771 113.009
48.1851 12650 112.472
48.3027 12455 111.602
48.4202 11958 109.353
48.5378 12091 109.959
48.6554 11673 108.042
48.7729 11684 108.093
48.8904 11609 107.745
49.008 11680 108.074
49.1255 11374 106.649
49.243 11592 107.666
49.3605 11101 105.361
49.478 11409 106.813
49.5955 11444 106.977
49.713 11530 107.378
49.8304 11776 108.517
49.9479 11852 108.867
50.0653 12149 110.223
50.1827 12431 111.494
50.3001 12918 113.657
50.4175 13059 114.276
50.5348 12873 113.459
50.6521 13199 114.887
50.7694 13467 116.047
50.8867 13954 118.127
51.004 14543 120.594
51.1212 14752 121.458
51.2384 15372 123.984
51.3556 15449 124.294
51.4727 15561 124.744
51.5899 15794 125.674
51.707 15590 124.86
51.824 15437 124.246
51.9411 15403 124.109
52.0581 15186 123.231
52.175 15303 123.705
52.2919 15686 125.244
52.4088 15386 124.04
52.5257 14875 121.963
52.6425 15054 122.695
52.7593 14913 122.119
52.876 14936 122.213
52.9927 15340 123.855
53.1094 15746 125.483
53.226 15748 125.491
53.3426 16265 127.534
53.4591 16706 129.252
53.5756 16836 129.754
53.692 17706 133.064
53.8084 17970 134.052
53.9248 18258 135.122
54.0411 18579 136.305
54.1573 18881 137.408
54.2735 0 1
54.3896 0 1
54.5057 0 1
54.6217 0 1
54.7377 0 1
54.8537 0 1
54.9695 0 1
55.0853 0 1
55.2011 0 1
55.3168 0 1
55.4324 0 1
57.824 0 1
57.9396 0 1
58.0553 0 1
58.1711 0 1
58.2869 0 1
58.4028 0 1
58.5187 0 1
58.6347 0 1
58.7508 0 1
58.8669 0 1
58.983 20297 142.468
59.0992 21754 147.492
59.2155 22079 148.59
59.3318 22382 149.606
59.4482 23195 152.299
59.5646 23892 154.57
59.681 24742 157.296
59.7975 24811 157.515
59.9141 25061 158.307
60.0306 24797 157.471
60.1473 24256 155.743
60.2639 23161 152.187
60.3807 22619 150.396
60.4974 21626 147.058
60.6142 20882 144.506
60.731 20445 142.986
60.8479 19325 139.014
60.9648 18428 135.75
61.0818 18189 134.867
61.1987 17737 133.18
61.3158 18225 135
61.4328 19008 137.87
61.5499 19056 138.043
61.667 19263 138.791
61.7841 19244 138.723
61.9013 19329 139.029
62.0185 19488 139.599
62.1357 19893 141.043
62.253 20062 141.64
62.3702 20151 141.954
62.4875 20758 144.076
62.6049 20678 143.798
62.7222 20630 143.631
62.8396 21610 147.003
62.9569 22232 149.104
63.0743 23323 152.719
63.1918 23439 153.098
63.3092 23447 153.124
63.4267 23380 152.905
63.5441 23168 152.21
63.6616 22596 150.32
63.7791 21778 147.574
63.8966 21463 146.503
64.0142 20360 142.688
64.1317 19116 138.261
64.2492 18051 134.354
64.3668 17100 130.767
64.4843 16656 129.058
64.6019 16589 128.798
64.7195 16273 127.566
64.837 16672 129.12
64.9546 17320 131.605
65.0722 17755 133.248
65.1898 17755 133.248
65.3074 17969 134.048
65.4249 17673 132.94
65.5425 18239 135.052
65.6601 18357 135.488
65.7777 18893 137.452
65.8952 18917 137.539
66.0128 19211 138.604
66.1304 19386 139.234
66.2479 19933 141.184
66.3655 20673 143.781
66.483 21652 147.146
66.6005 22131 148.765
66.718 22796 150.983
66.8355 22852 151.169
66.953 22731 150.768
67.0705 22549 150.163
67.1879 22527 150.09
67.3054 21638 147.099
67.4228 21025 145
67.5402 19177 138.481
67.6576 17774 133.319
67.7749 16792 129.584
67.8923 16789 129.572
68.0096 16235 127.417
68.1269 15944 126.27
68.2442 16053 126.7
68.3614 15858 125.929
68.4787 16424 128.156
68.5958 17562 132.522
68.713 17854 133.619
68.8302 18339 135.422
68.9473 18068 134.417
69.0643 18366 135.521
69.1814 18606 136.404
69.2984 18989 137.801
69.4154 19645 140.161
69.5323 19600 140
69.6492 20001 141.425
69.7661 20375 142.741
69.8829 21385 146.236
69.9997 22645 150.483
70.1165 23146 152.138
70.2332 23439 153.098
70.3499 23910 154.629
70.4665 24534 156.633
70.5831 24076 155.164
70.6996 24054 155.094
70.8161 23536 153.414
70.9326 22544 150.147
71.049 20535 143.3
71.1653 19014 137.891
71.2817 17631 132.782
71.3979 16897 129.988
71.5141 16387 128.012
71.6303 16269 127.55
71.7464 15035 122.617
71.8624 0 1
71.9784 0 1
72.0944 0 1
72.2102 0 1
72.3261 0 1
72.4418 0 1
72.5575 0 1
72.6732 0 1
75.1054 0 1
75.2209 0 1
75.3365 0 1
75.4521 0 1
75.5678 0 1
75.6835 0 1
75.7993 0 1
75.9151 0 1
76.031 0 1
76.147 20727 143.969
76.263 20430 142.934
76.3791 19704 140.371
76.4952 18683 136.686
76.6113 17903 133.802
76.7276 17754 133.244
76.8438 17355 131.738
76.9601 17358 131.75
77.0765 17049 130.572
77.1929 17040 130.537
77.3093 16884 129.938
77.4258 17191 131.114
77.5423 18198 134.9
77.6589 18786 137.062
77.7755 18787 137.066
77.8921 18307 135.303
78.0088 18550 136.198
78.1256 18621 136.459
78.2423 18912 137.521
78.3591 19563 139.868
78.4759 19908 141.096
78.5928 20738 144.007
78.7097 21450 146.458
78.8266 21679 147.238
78.9436 23182 152.256
79.0606 22987 151.615
79.1776 23237 152.437
79.2946 23745 154.094
79.4117 24319 155.946
79.5288 24034 155.029
79.6459 23266 152.532
79.7631 22565 150.217
79.8802 21521 146.7
79.9974 20114 141.824
80.1147 18887 137.43
80.2319 17879 133.712
80.3491 17806 133.439
80.4664 17581 132.593
80.5837 17156 130.981
80.701 17130 130.882
80.8183 17086 130.713
80.9357 16815 129.673
81.053 17023 130.472
81.1704 18140 134.685
81.2877 18657 136.591
81.4051 18709 136.781
81.5225 18427 135.746
81.6399 17768 133.297
81.7573 18516 136.074
81.8747 18850 137.295
81.9922 19144 138.362
82.1096 20015 141.474
82.227 21309 145.976
82.3444 21938 148.115
82.4619 22911 151.364
82.5793 23759 154.14
82.6967 23359 152.837
82.8142 23628 153.714
82.9316 24226 155.647
83.049 24390 156.173
83.1664 24064 155.126
83.2838 23085 151.937
83.4012 22048 148.486
83.5186 20539 143.314
83.636 19421 139.359
83.7534 18615 136.437
83.8708 18403 135.658
83.9881 17919 133.862
84.1055 17854 133.619
84.2228 17840 133.566
84.3401 17793 133.39
84.4575 17776 133.327
84.5747 18159 134.755
84.692 18325 135.37
84.8093 19672 140.257
84.9265 19625 140.089
85.0437 19808 140.741
85.1609 19063 138.069
85.2781 19006 137.862
85.3952 19307 138.95
85.5123 19983 141.361
85.6294 20929 144.669
85.7465 21832 147.757
85.8636 23145 152.135
85.9806 23781 154.211
86.0976 24510 156.557
86.2145 24547 156.675
86.3315 25438 159.493
86.4484 25827 160.708
86.5652 26341 162.299
86.682 26511 162.822
86.7988 26024 161.32
86.9156 25134 158.537
87.0323 23708 153.974
87.149 21934 148.101
87.2657 21305 145.962
87.3823 20363 142.699
87.4988 20241 142.271
87.6154 19746 140.52
87.7318 19814 140.762
87.8483 19253 138.755
87.9647 19151 138.387
88.081 18932 137.594
88.1973 19870 140.961
88.3136 20620 143.597
88.4298 20967 144.8
88.546 20783 144.163
88.6621 19741 140.503
88.7781 19303 138.935
88.8942 0 1
89.0101 0 1
89.126 0 1
89.2419 0 1
89.3577 0 1
89.4734 0 1
89.5891 0 1
89.7047 0 1
89.8203 0 1
89.9358 0 1
92.3269 0 1
92.4424 0 1
92.558 0 1
92.6736 0 1
92.7893 0 1
92.905 0 1
93.0208 0 1
93.1366 0 1
93.2525 0 1
93.3685 0 1
93.4845 0 1
93.6005 19262 138.788
93.7167 19265 138.798
93.8328 18991 137.808
93.949 18969 137.728
94.0653 18710 136.785
94.1816 19254 138.759
94.2979 19692 140.328
94.4143 20186 142.077
94.5307 21039 145.048
94.6472 22026 148.412
94.7637 22925 151.41
94.8803 23484 153.245
94.9969 24468 156.423
95.1135 24718 157.22
95.2302 24274 155.801
95.3469 24585 156.796
95.4637 24698 157.156
95.5805 24536 156.64
95.6973 24992 158.089
95.8142 24756 157.34
95.9311 23482 153.238
96.048 22274 149.245
96.1649 21415 146.339
96.2819 20957 144.765
96.3989 20345 142.636
96.516 19827 140.808
96.633 19386 139.234
96.7501 19030 137.949
96.8673 18874 137.383
96.9844 18739 136.89
97.1016 18918 137.543
97.2188 19052 138.029
97.336 19249 138.741
97.4532 19787 140.666
97.5704 19088 138.159
97.6877 18533 136.136
97.805 18366 135.521
97.9223 18766 136.989
98.0396 19025 137.931
98.1569 19506 139.664
98.2743 20064 141.647
98.3916 20953 144.752
98.509 21961 148.192
98.6264 22511 150.037
98.7438 23179 152.247
98.8612 23277 152.568
98.9786 23495 153.281
99.096 23590 153.59
99.2134 24101 155.245
99.3308 24436 156.32
99.4482 24327 155.971
99.5656 23202 152.322
99.6831 22230 149.097
99.8005 20935 144.689
99.9179 20249 142.299
100.035 19209 138.597
100.153 18718 136.814
100.27 18496 136
100.388 18344 135.44
100.505 18003 134.175
100.622 17865 133.66
100.74 17800 133.417
100.857 18326 135.374
100.975 18397 135.636
101.092 18439 135.79
101.209 18300 135.277
101.327 18108 134.566
101.444 18155 134.74
101.561 18532 136.132
101.679 19135 138.329
101.796 19948 141.237
101.913 20664 143.75
102.03 22045 148.476
102.148 23176 152.237
102.265 22599 150.33
102.382 25934 161.04
102.499 24040 155.048
102.616 24221 155.631
102.733 25084 158.379
102.851 25857 160.801
102.968 25684 160.262
103.085 25018 158.171
103.202 23899 154.593
103.319 22851 151.165
103.436 21939 148.118
103.552 21278 145.87
103.669 20866 144.451
103.786 20083 141.715
103.903 19926 141.159
104.02 19836 140.84
104.137 19578 139.921
104.253 19903 141.078
104.37 19854 140.904
104.487 20376 142.745
104.603 19976 141.336
104.72 19572 139.9
104.836 19464 139.513
104.953 19634 140.121
105.069 20290 142.443
105.186 20945 144.724
105.302 21857 147.841
105.418 23285 152.594
105.535 24562 156.723
105.651 25411 159.408
105.767 25301 159.063
105.883 23967 154.813
105.999 24330 155.981
106.115 0 1
106.231 0 1
106.347 0 1
106.463 0 1
106.579 0 1
106.694 0 1
106.81 0 1
106.926 0 1
107.041 0 1
107.157 0 1
109.576 0 1
109.692 0 1
109.807 0 1
109.923 0 1
110.039 0 1
110.155 0 1
110.27 0 1
110.386 0 1
110.502 0 1
110.618 20620 143.597
110.735 21936 148.108
110.851 22020 148.391
110.967 21352 146.123
111.083 21083 145.2
111.199 21804 147.662
111.316 22712 150.705
111.432 23006 151.677
111.549 22947 151.483
111.665 22223 149.074
111.782 21267 145.832
111.898 20419 142.895
112.015 19606 140.021
112.132 19107 138.228
112.248 18864 137.346
112.365 17810 133.454
112.482 17553 132.488
112.599 16426 128.164
112.716 16506 128.476
112.832 16113 126.937
112.949 16007 126.519
113.066 15739 125.455
113.183 15067 122.748
113.3 14956 122.295
113.417 15123 122.976
113.534 15417 124.165
113.652 15909 126.131
113.769 16351 127.871
113.886 16949 130.188
114.003 17340 131.681
114.12 17910 133.828
114.238 18576 136.294
114.355 18567 136.261
114.472 17632 132.786
114.589 16410 128.102
114.707 16993 130.357
114.824 18049 134.347
114.942 18662 136.609
115.059 18487 135.967
115.176 18008 134.194
115.294 17014 130.438
115.411 16785 129.557
115.529 15679 125.216
115.646 15431 124.222
115.764 14834 121.795
115.881 14419 120.079
115.999 14087 118.689
116.116 13310 115.369
116.234 12982 113.939
116.351 12406 111.382
116.469 12355 111.153
116.586 12118 110.082
116.704 12050 109.772
116.821 11768 108.48
116.939 11821 108.724
117.056 12115 110.068
117.174 12588 112.196
117.291 13209 114.93
117.409 13516 116.258
117.526 13673 116.932
117.644 14153 118.966
117.761 14509 120.453
117.879 14721 121.33
117.996 14379 119.912
118.114 13918 117.975
118.231 13779 117.384
118.349 14415 120.062
118.466 15301 123.697
118.584 15863 125.948
118.701 15832 125.825
118.819 15729 125.415
118.936 15492 124.467
119.053 15247 123.479
119.171 14785 121.594
119.288 14527 120.528
119.405 14429 120.121
119.523 14026 118.431
119.64 13744 117.235
119.757 13454 115.991
119.875 12967 113.873
119.992 12779 113.044
120.109 12451 111.584
120.226 12484 111.732
120.343 12759 112.956
120.46 12574 112.134
120.578 12756 112.942
120.695 13583 116.546
120.812 14269 119.453
120.929 14225 119.269
121.046 14730 121.367
121.163 15275 123.592
121.279 15711 125.344
121.396 16286 127.617
121.513 16149 127.079
121.63 16305 127.691
121.747 14890 122.025
121.863 14035 118.469
121.98 14953 122.282
122.097 16249 127.472
122.213 17581 132.593
122.33 17951 133.981
122.446 18249 135.089
122.563 18092 134.507
122.679 17962 134.022
122.795 17755 133.248
122.912 17335 131.662
123.028 17258 131.37
123.144 16862 129.854
123.26 16371 127.949
123.377 0 1
123.493 0 1
123.609 0 1
123.725 0 1
123.84 0 1
123.956 0 1
124.072 0 1
124.188 0 1
124.303 0 1
124.419 0 1
126.852 0 1
126.968 0 1
127.083 0 1
127.199 0 1
127.315 0 1
127.431 0 1
127.547 0 1
127.663 0 1
127.779 0 1
127.895 0 1
128.011 0 1
128.127 0 1
128.243 0 1
128.359 20046 141.584
128.476 19577 139.918
128.592 19306 138.946
128.708 18927 137.575
128.825 18389 135.606
128.941 18130 134.648
129.058 17430 132.023
129.174 17286 131.476
129.291 16984 130.323
129.408 16931 130.119
129.524 16845 129.788
129.641 16689 129.186
129.758 17003 130.396
129.875 17122 130.851
129.992 17145 130.939
130.108 17545 132.458
130.225 17574 132.567
130.342 17898 133.783
130.459 18205 134.926
130.576 17412 131.955
130.693 15415 124.157
130.81 13350 115.542
130.928 13801 117.478
131.045 16321 127.754
131.162 17671 132.932
131.279 18005 134.183
131.396 17897 133.78
131.513 17770 133.304
131.631 17722 133.124
131.748 17794 133.394
131.865 17617 132.729
131.983 17509 132.322
132.1 16751 129.426
132.217 16631 128.961
132.335 16434 128.195
132.452 15853 125.909
132.57 15779 125.614
132.687 14884 122
132.804 15761 125.543
132.922 14977 122.381
133.039 14614 120.888
133.157 14791 121.618
133.274 14775 121.552
133.392 14758 121.483
133.509 14768 121.524
133.627 14942 122.237
133.744 14631 120.959
133.862 15139 123.041
133.979 14866 121.926
134.097 14337 119.737
134.214 12957 113.829
134.332 10654 103.218
134.449 10571 102.815
134.567 12689 112.645
134.684 13761 117.307
134.802 14208 119.197
134.919 14314 119.641
135.037 14449 120.204
135.154 14180 119.08
135.272 14379 119.912
135.389 14143 118.924
135.507 13956 118.136
135.624 13965 118.174
135.742 13669 116.914
135.859 13371 115.633
135.977 13068 114.315
136.094 12652 112.481
136.211 12272 110.779
136.329 12302 110.914
136.446 12216 110.526
136.564 11910 109.133
136.681 11558 107.508
136.798 11808 108.665
136.915 11439 106.953
137.033 11665 108.005
137.15 11527 107.364
137.267 11475 107.121
137.384 11710 108.213
137.502 11967 109.394
137.619 11560 107.517
137.736 11202 105.84
137.853 9400 96.9536
137.97 8551 92.4716
138.087 9476 97.3447
138.204 10999 104.876
138.321 11981 109.458
138.438 12534 111.955
138.555 12535 111.96
138.672 12525 111.915
138.788 12816 113.208
138.905 12878 113.481
139.022 13065 114.302
139.139 13125 114.564
139.255 12831 113.274
139.372 13115 114.521
139.488 12785 113.071
139.605 12973 113.899
139.721 13268 115.187
139.838 13348 115.534
139.954 13108 114.49
140.071 12860 113.402
140.187 13057 114.267
140.303 13040 114.193
140.419 12981 113.934
140.535 12665 112.539
140.652 12487 111.745
140.768 0 1
140.884 0 1
141 0 1
141.115 0 1
141.231 0 1
141.347 0 1
141.463 0 1
141.578 0 1
141.694 0 1
144.104 0 1
144.219 0 1
144.335 0 1
144.45 0 1
144.566 0 1
144.682 0 1
144.798 0 1
144.914 0 1
145.03 0 1
145.146 10647 103.184
145.262 10859 104.207
145.378 10629 103.097
145.494 10328 101.627
145.61 10057 100.285
145.726 10024 100.12
145.842 9888 99.4384
145.959 9818 99.0858
146.075 9856 99.2774
146.192 9931 99.6544
146.308 9468 97.3036
146.425 9268 96.2705
146.541 8731 93.4398
146.658 8220 90.6642
146.774 8223 90.6808
146.891 8691 93.2255
147.008 8741 93.4933
147.125 8987 94.7998
147.241 8937 94.5357
147.358 9078 95.2785
147.475 8968 94.6995
147.592 8785 93.7283
147.709 8621 92.8493
147.826 8566 92.5527
147.943 8590 92.6823
148.06 8197 90.5373
148.177 8243 90.791
148.294 8330 91.2688
148.411 8027 89.5935
148.528 8149 90.2718
148.645 7848 88.5889
148.762 7761 88.0965
148.88 7384 85.9302
148.997 7548 86.8792
149.114 6983 83.5643
149.231 7112 84.3327
149.349 7203 84.8705
149.466 7371 85.8545
149.583 7273 85.2819
149.701 7166 84.6522
149.818 7174 84.6995
149.935 7000 83.666
150.053 7002 83.678
150.17 7009 83.7198
150.287 6901 83.0723
150.405 7112 84.3327
150.522 7131 84.4452
150.64 7473 86.4465
150.757 7457 86.3539
150.875 7629 87.3441
150.992 7514 86.6833
151.11 7646 87.4414
151.227 7740 87.9773
151.344 7704 87.7724
151.462 7538 86.8217
151.579 7357 85.773
151.697 7609 87.2296
151.814 7672 87.59
151.932 7764 88.1136
152.049 7759 88.0852
152.167 7817 88.4138
152.284 7648 87.4528
152.402 7570 87.0057
152.519 7369 85.8429
152.636 7399 86.0174
152.754 7385 85.936
152.871 7414 86.1046
152.989 7747 88.017
153.106 7715 87.8351
153.223 7780 88.2043
153.341 7654 87.4871
153.458 7457 86.3539
153.575 7526 86.7525
153.693 7444 86.2786
153.81 7961 89.2244
153.927 8359 91.4276
154.044 8670 93.1128
154.162 8943 94.5674
154.279 9144 95.6243
154.396 9408 96.9948
154.513 9784 98.9141
154.63 9838 99.1867
154.747 10127 100.633
154.864 10021 100.105
154.981 10003 100.015
155.098 10006 100.03
155.215 9941 99.7046
155.332 10013 100.065
155.449 9862 99.3076
155.566 9852 99.2572
155.683 9665 98.3107
155.8 9471 97.3191
155.917 9408 96.9948
156.033 8883 94.2497
156.15 0 1
156.267 0 1
156.383 0 1
156.5 0 1
156.617 0 1
156.733 0 1
156.85 0 1
156.966 0 1
157.082 0 1
157.199 0 1
157.315 0 1
157.431 0 1
157.547 0 1
157.664 0 1
157.78 0 1
157.896 0 1
158.012 0 1
158.128 0 1
158.244 0 1
158.359 0 1
158.475 0 1
158.591 0 1
158.706 0 1
