
6.15755 0 1
6.2731 0 1
6.3887 0 1
6.50437 0 1
6.62009 0 1
6.73587 0 1
6.8517 0 1
6.96759 0 1
7.08353 0 1
7.19952 0 1
7.31557 0 1
7.43166 0 1
7.54781 0 1
7.664 0 1
7.78024 0 1
7.89653 0 1
8.01286 0 1
8.12924 0 1
8.24567 0 1
8.36213 0 1
8.47864 0 1
8.59519 0 1
8.71178 0 1
8.82841 0 1
8.94508 0 1
9.06179 0 1
9.17853 0 1
9.29531 0 1
9.41212 0 1
9.52897 0 1
9.64584 0 1
9.76276 0 1
9.8797 0 1
9.99667 0 1
10.1137 0 1
10.2307 0 1
10.3478 0 1
10.4648 0 1
10.5819 0 1
10.6991 0 1
10.8162 0 1
10.9334 0 1
11.0506 0 1
11.1678 0 1
11.285 0 1
11.4023 0 1
11.5196 0 1
11.6369 0 1
11.7542 0 1
11.8715 0 1
11.9888 0 1
12.1062 0 1
12.2235 0 1
12.3409 0 1
12.4582 0 1
12.5756 0 1
12.693 0 1
12.8104 0 1
12.9278 0 1
13.0452 0 1
13.1626 0 1
13.28 0 1
13.3974 0 1
13.5149 0 1
13.6323 0 1
13.7497 0 1
13.8671 0 1
13.9845 0 1
14.1019 0 1
14.2193 0 1
14.3367 0 1
14.4541 0 1
14.5714 0 1
14.6888 0 1
14.8062 0 1
14.9235 0 1
15.0408 953 30.8707
15.1581 1051 32.4191
15.2755 1124 33.5261
15.3927 1077 32.8177
15.51 1133 33.6601
15.6273 1046 32.3419
15.7445 1129 33.6006
15.8617 1063 32.6037
15.9789 1104 33.2265
16.0961 1137 33.7194
16.2132 1077 32.8177
16.3304 1081 32.8786
16.4475 1074 32.7719
16.5646 1196 34.5832
16.6816 1249 35.3412
16.7986 1236 35.1568
16.9156 1258 35.4683
17.0326 1346 36.6879
17.1496 1329 36.4555
17.2665 1348 36.7151
17.3833 1302 36.0832
17.5002 1286 35.8608
17.617 1132 33.6452
17.7338 1172 34.2345
17.8505 1145 33.8378
17.9672 1080 32.8634
18.0839 1154 33.9706
18.2005 1148 33.8821
18.3171 1224 34.9857
18.4337 1264 35.5528
18.5502 1179 34.3366
18.6666 1295 35.9861
18.7831 1259 35.4824
18.8994 1288 35.8887
19.0158 1256 35.4401
19.1321 1180 34.3511
19.2483 1225 35
19.3645 1128 33.5857
19.4806 1087 32.9697
19.5967 1010 31.7805
19.7128 912 30.1993
19.8288 800 28.2843
19.9447 748 27.3496
20.0606 0 1
20.1764 0 1
20.2922 0 1
20.4079 0 1
20.5236 0 1
20.6392 0 1
20.7548 0 1
20.8702 0 1
23.3078 0 1
23.4233 0 1
23.539 0 1
23.6547 0 1
23.7704 0 1
23.8862 0 1
24.0021 0 1
24.118 0 1
24.234 0 1
24.35 0 1
24.4661 513 22.6495
24.5822 661 25.7099
24.6984 736 27.1293
24.8146 775 27.8388
24.9309 853 29.2062
25.0472 905 30.0832
25.1636 967 31.0966
25.28 1103 33.2114
25.3965 1186 34.4384
25.513 1174 34.2637
25.6296 1325 36.4005
25.7462 1349 36.7287
25.8628 1317 36.2905
25.9795 1376 37.0945
26.0962 1329 36.4555
26.213 1320 36.3318
26.3298 1215 34.8569
26.4466 1211 34.7994
26.5635 1175 34.2783
26.6804 1204 34.6987
26.7973 1199 34.6266
26.9143 1218 34.8999
27.0313 1261 35.5106
27.1483 1315 36.2629
27.2653 1258 35.4683
27.3824 1279 35.7631
27.4996 1318 36.3043
27.6167 1323 36.3731
27.7339 1274 35.6931
27.8511 1235 35.1426
27.9683 1193 34.5398
28.0855 1195 34.5688
28.2028 1151 33.9264
28.3201 1157 34.0147
28.4374 1077 32.8177
28.5547 1150 33.9116
28.6721 1123 33.5112
28.7894 1160 34.0588
28.9068 1330 36.4692
29.0242 1307 36.1525
29.1416 1355 36.8103
29.259 1368 36.9865
29.3764 1335 36.5377
29.4939 1316 36.2767
29.6113 1337 36.565
29.7288 1290 35.9166
29.8463 1172 34.2345
29.9638 1103 33.2114
30.0812 1144 33.8231
30.1987 1147 33.8674
30.3162 1138 33.7343
30.4337 1229 35.0571
30.5512 1139 33.7491
30.6687 1242 35.242
30.7862 1260 35.4965
30.9037 1264 35.5528
31.0212 1274 35.6931
31.1387 1296 36
31.2562 1284 35.8329
31.3737 1201 34.6554
31.4912 1221 34.9428
31.6087 1153 33.9559
31.7262 1081 32.8786
31.8436 1106 33.2566
31.9611 1015 31.8591
32.0785 1085 32.9393
32.1959 1077 32.8177
32.3134 1156 34
32.4308 1213 34.8281
32.5482 1239 35.1994
32.6655 1225 35
32.7829 1287 35.8748
32.9002 1352 36.7696
33.0176 1313 36.2353
33.1349 1296 36
33.2522 1328 36.4417
33.3694 1186 34.4384
33.4867 1161 34.0735
33.6039 1100 33.1662
33.7211 1055 32.4808
33.8383 1045 32.3265
33.9554 1097 33.121
34.0725 1146 33.8526
34.1896 1159 34.0441
34.3067 1199 34.6266
34.4237 1162 34.0881
34.5407 1204 34.6987
34.6577 1273 35.6791
34.7746 1262 35.5246
34.8915 1236 35.1568
35.0084 1150 33.9116
35.1252 1099 33.1512
35.242 1143 33.8083
35.3587 1075 32.7872
35.4755 1066 32.6497
35.5921 1065 32.6343
35.7088 998 31.5911
35.8254 1030 32.0936
35.9419 1041 32.2645
36.0584 1107 33.2716
36.1749 1117 33.4215
36.2913 1113 33.3617
36.4077 1111 33.3317
36.524 1165 34.1321
36.6403 1080 32.8634
36.7565 1007 31.7333
36.8727 977 31.257
36.9889 893 29.8831
37.1049 808 28.4253
37.221 0 1
37.3369 0 1
37.4529 0 1
37.5687 0 1
37.6845 0 1
37.8003 0 1
37.916 0 1
38.0316 0 1
38.1472 0 1
40.5851 0 1
40.7008 0 1
40.8164 0 1
40.9322 0 1
41.048 0 1
41.1639 0 1
41.2798 0 1
41.3958 0 1
41.5118 0 1
41.6279 0 1
41.744 568 23.8328
41.8602 615 24.7992
41.9765 755 27.4773
42.0928 780 27.9285
42.2091 727 26.9629
42.3255 716 26.7582
42.4419 650 25.4951
42.5584 729 27
42.675 805 28.3725
42.7915 814 28.5307
42.9081 880 29.6648
43.0248 985 31.3847
43.1415 1020 31.9374
43.2582 1034 32.1559
43.375 1053 32.45
43.4918 1004 31.686
43.6087 1014 31.8434
43.7256 986 31.4006
43.8425 1030 32.0936
43.9595 990 31.4643
44.0765 942 30.692
44.1935 1030 32.0936
44.3106 839 28.9655
44.4277 849 29.1376
44.5448 809 28.4429
44.6619 848 29.1204
44.7791 891 29.8496
44.8963 982 31.3369
45.0136 1007 31.7333
45.1308 1023 31.9844
45.2481 1042 32.28
45.3654 1012 31.8119
45.4827 1065 32.6343
45.6001 1079 32.8481
45.7174 978 31.273
45.8348 957 30.9354
45.9522 878 29.6311
46.0697 837 28.931
46.1871 777 27.8747
46.3046 807 28.4077
46.422 951 30.8383
46.5395 938 30.6268
46.657 971 31.1609
46.7745 986 31.4006
46.892 1055 32.4808
47.0096 1018 31.9061
47.1271 1110 33.3167
47.2446 1027 32.0468
47.3622 974 31.209
47.4797 1045 32.3265
47.5973 1006 31.7175
47.7149 1014 31.8434
47.8324 977 31.257
47.95 938 30.6268
48.0675 930 30.4959
48.1851 825 28.7228
48.3027 825 28.7228
48.4202 947 30.7734
48.5378 1020 31.9374
48.6554 1032 32.1248
48.7729 1053 32.45
48.8904 1104 33.2265
49.008 1035 32.1714
49.1255 1078 32.8329
49.243 1052 32.4345
49.3605 921 30.348
49.478 935 30.5778
49.5955 880 29.6648
49.713 845 29.0689
49.8304 806 28.3901
49.9479 902 30.0333
50.0653 970 31.1448
50.1827 997 31.5753
50.3001 986 31.4006
50.4175 1074 32.7719
50.5348 1160 34.0588
50.6521 1161 34.0735
50.7694 1154 33.9706
50.8867 1134 33.6749
51.004 1158 34.0294
51.1212 1091 33.0303
51.2384 1095 33.0908
51.3556 1097 33.121
51.4727 1013 31.8277
51.5899 989 31.4484
51.707 959 30.9677
51.824 1069 32.6956
51.9411 1218 34.8999
52.0581 1240 35.2136
52.175 1422 37.7094
52.2919 1479 38.4578
52.4088 1438 37.921
52.5257 1449 38.0657
52.6425 1537 39.2046
52.7593 1559 39.4842
52.876 1483 38.5097
52.9927 1372 37.0405
53.1094 1397 37.3765
53.226 1266 35.5809
53.3426 1220 34.9285
53.4591 1271 35.6511
53.5756 1290 35.9166
53.692 1242 35.242
53.8084 1283 35.819
53.9248 1198 34.6121
54.0411 1185 34.4238
54.1573 1087 32.9697
54.2735 0 1
54.3896 0 1
54.5057 0 1
54.6217 0 1
54.7377 0 1
54.8537 0 1
54.9695 0 1
55.0853 0 1
55.2011 0 1
55.3168 0 1
55.4324 0 1
57.824 0 1
57.9396 0 1
58.0553 0 1
58.1711 0 1
58.2869 0 1
58.4028 0 1
58.5187 0 1
58.6347 0 1
58.7508 0 1
58.8669 0 1
58.983 762 27.6043
59.0992 911 30.1828
59.2155 982 31.3369
59.3318 1026 32.0312
59.4482 1065 32.6343
59.5646 1097 33.121
59.681 1203 34.6843
59.7975 1208 34.7563
59.9141 1209 34.7707
60.0306 1182 34.3802
60.1473 1177 34.3074
60.2639 1107 33.2716
60.3807 1063 32.6037
60.4974 1058 32.5269
60.6142 1115 33.3916
60.731 1217 34.8855
60.8479 1255 35.426
60.9648 1269 35.623
61.0818 1351 36.756
61.1987 1259 35.4824
61.3158 1298 36.0278
61.4328 1329 36.4555
61.5499 1192 34.5254
61.667 1135 33.6898
61.7841 1067 32.665
61.9013 1007 31.7333
62.0185 978 31.273
62.1357 1106 33.2566
62.253 1158 34.0294
62.3702 1147 33.8674
62.4875 1243 35.2562
62.6049 1299 36.0416
62.7222 1282 35.805
62.8396 1265 35.5668
62.9569 1286 35.8608
63.0743 1293 35.9583
63.1918 1344 36.6606
63.3092 1252 35.3836
63.4267 1233 35.1141
63.5441 1136 33.7046
63.6616 1208 34.7563
63.7791 1062 32.5883
63.8966 1045 32.3265
64.0142 993 31.5119
64.1317 1083 32.909
64.2492 1169 34.1906
64.3668 1235 35.1426
64.4843 1196 34.5832
64.6019 1357 36.8375
64.7195 1228 35.0428
64.837 1322 36.3593
64.9546 1274 35.6931
65.0722 1313 36.2353
65.1898 1183 34.3948
65.3074 1055 32.4808
65.4249 1042 32.28
65.5425 1005 31.7017
65.6601 966 31.0805
65.7777 988 31.4325
65.8952 1099 33.1512
66.0128 1202 34.6699
66.1304 1274 35.6931
66.2479 1197 34.5977
66.3655 1258 35.4683
66.483 1240 35.2136
66.6005 1261 35.5106
66.718 1233 35.1141
66.8355 1292 35.9444
66.953 1215 34.8569
67.0705 1242 35.242
67.1879 1157 34.0147
67.3054 1151 33.9264
67.4228 1074 32.7719
67.5402 1013 31.8277
67.6576 988 31.4325
67.7749 1057 32.5115
67.8923 1113 33.3617
68.0096 1178 34.322
68.1269 1217 34.8855
68.2442 1281 35.7911
68.3614 1238 35.1852
68.4787 1289 35.9026
68.5958 1233 35.1141
68.713 1176 34.2929
68.8302 1091 33.0303
68.9473 992 31.496
69.0643 1026 32.0312
69.1814 918 30.2985
69.2984 953 30.8707
69.4154 982 31.3369
69.5323 1087 32.9697
69.6492 1082 32.8938
69.7661 1158 34.0294
69.8829 1179 34.3366
69.9997 1184 34.4093
70.1165 1139 33.7491
70.2332 1075 32.7872
70.3499 1055 32.4808
70.4665 1045 32.3265
70.5831 985 31.3847
70.6996 968 31.1127
70.8161 858 29.2916
70.9326 782 27.9643
71.049 704 26.533
71.1653 529 23
71.2817 478 21.8632
71.3979 441 21
71.5141 436 20.8806
71.6303 416 20.3961
71.7464 397 19.9249
71.8624 0 1
71.9784 0 1
72.0944 0 1
72.2102 0 1
72.3261 0 1
72.4418 0 1
72.5575 0 1
72.6732 0 1
75.1054 0 1
75.2209 0 1
75.3365 0 1
75.4521 0 1
75.5678 0 1
75.6835 0 1
75.7993 0 1
75.9151 0 1
76.031 0 1
76.147 766 27.6767
76.263 739 27.1846
76.3791 729 27
76.4952 739 27.1846
76.6113 820 28.6356
76.7276 851 29.1719
76.8438 914 30.2324
76.9601 1024 32
77.0765 1114 33.3766
77.1929 1092 33.0454
77.3093 1065 32.6343
77.4258 1140 33.7639
77.5423 1058 32.5269
77.6589 1076 32.8024
77.7755 991 31.4802
77.8921 800 28.2843
78.0088 856 29.2575
78.1256 793 28.1603
78.2423 790 28.1069
78.3591 831 28.8271
78.4759 929 30.4795
78.5928 944 30.7246
78.7097 1058 32.5269
78.8266 1048 32.3728
78.9436 1076 32.8024
79.0606 1160 34.0588
79.1776 1096 33.1059
79.2946 1121 33.4813
79.4117 1105 33.2415
79.5288 1093 33.0606
79.6459 1066 32.6497
79.7631 1018 31.9061
79.8802 957 30.9354
79.9974 997 31.5753
80.1147 868 29.4618
80.2319 839 28.9655
80.3491 870 29.4958
80.4664 930 30.4959
80.5837 1018 31.9061
80.701 1107 33.2716
80.8183 1082 32.8938
80.9357 1150 33.9116
81.053 1117 33.4215
81.1704 1098 33.1361
81.2877 1125 33.541
81.4051 1084 32.9242
81.5225 981 31.3209
81.6399 957 30.9354
81.7573 895 29.9166
81.8747 845 29.0689
81.9922 805 28.3725
82.1096 855 29.2404
82.227 965 31.0644
82.3444 1029 32.078
82.4619 1096 33.1059
82.5793 1123 33.5112
82.6967 1122 33.4963
82.8142 1141 33.7787
82.9316 1110 33.3167
83.049 1086 32.9545
83.1664 1156 34
83.2838 1121 33.4813
83.4012 1110 33.3167
83.5186 1088 32.9848
83.636 1064 32.619
83.7534 973 31.1929
83.8708 864 29.3939
83.9881 898 29.9666
84.1055 878 29.6311
84.2228 985 31.3847
84.3401 1066 32.6497
84.4575 1138 33.7343
84.5747 1166 34.1467
84.692 1137 33.7194
84.8093 1166 34.1467
84.9265 1171 34.2199
85.0437 1101 33.1813
85.1609 984 31.3688
85.2781 952 30.8545
85.3952 863 29.3769
85.5123 796 28.2135
85.6294 807 28.4077
85.7465 919 30.315
85.8636 1037 32.2025
85.9806 1053 32.45
86.0976 1109 33.3017
86.2145 1111 33.3317
86.3315 1143 33.8083
86.4484 1247 35.3129
86.5652 1164 34.1174
86.682 1158 34.0294
86.7988 1226 35.0143
86.9156 1148 33.8821
87.0323 1162 34.0881
87.149 1077 32.8177
87.2657 1019 31.9218
87.3823 874 29.5635
87.4988 827 28.7576
87.6154 788 28.0713
87.7318 809 28.4429
87.8483 815 28.5482
87.9647 886 29.7658
88.081 882 29.6985
88.1973 869 29.4788
88.3136 884 29.7321
88.4298 802 28.3196
88.546 795 28.1957
88.6621 649 25.4755
88.7781 537 23.1733
88.8942 0 1
89.0101 0 1
89.126 0 1
89.2419 0 1
89.3577 0 1
89.4734 0 1
89.5891 0 1
89.7047 0 1
89.8203 0 1
89.9358 0 1
92.3269 0 1
92.4424 0 1
92.558 0 1
92.6736 0 1
92.7893 0 1
92.905 0 1
93.0208 0 1
93.1366 0 1
93.2525 0 1
93.3685 0 1
93.4845 0 1
93.6005 838 28.9482
93.7167 914 30.2324
93.8328 991 31.4802
93.949 931 30.5123
94.0653 1031 32.1092
94.1816 989 31.4484
94.2979 955 30.9031
94.4143 944 30.7246
94.5307 878 29.6311
94.6472 805 28.3725
94.7637 892 29.8664
94.8803 941 30.6757
94.9969 994 31.5278
95.1135 1096 33.1059
95.2302 1065 32.6343
95.3469 1163 34.1028
95.4637 1133 33.6601
95.5805 1181 34.3657
95.6973 1227 35.0286
95.8142 1179 34.3366
95.9311 1183 34.3948
96.048 1214 34.8425
96.1649 1170 34.2053
96.2819 1096 33.1059
96.3989 1115 33.3916
96.516 1029 32.078
96.633 968 31.1127
96.7501 925 30.4138
96.8673 917 30.282
96.9844 1010 31.7805
97.1016 1082 32.8938
97.2188 1081 32.8786
97.336 1194 34.5543
97.4532 1177 34.3074
97.5704 1188 34.4674
97.6877 1246 35.2987
97.805 1134 33.6749
97.9223 1111 33.3317
98.0396 983 31.3528
98.1569 960 30.9839
98.2743 833 28.8617
98.3916 842 29.0172
98.509 873 29.5466
98.6264 1011 31.7962
98.7438 1121 33.4813
98.8612 1136 33.7046
98.9786 1135 33.6898
99.096 1216 34.8712
99.2134 1196 34.5832
99.3308 1206 34.7275
99.4482 1216 34.8712
99.5656 1246 35.2987
99.6831 1215 34.8569
99.8005 1216 34.8712
99.9179 1231 35.0856
100.035 1154 33.9706
100.153 1147 33.8674
100.27 1074 32.7719
100.388 974 31.209
100.505 1035 32.1714
100.622 1079 32.8481
100.74 1160 34.0588
100.857 1196 34.5832
100.975 1199 34.6266
101.092 1346 36.6879
101.209 1284 35.8329
101.327 1259 35.4824
101.444 1258 35.4683
101.561 1155 33.9853
101.679 1018 31.9061
101.796 929 30.4795
101.913 944 30.7246
102.03 964 31.0483
102.148 1093 33.0606
102.265 1090 33.0151
102.382 1159 34.0441
102.499 1247 35.3129
102.616 1251 35.3695
102.733 1297 36.0139
102.851 1318 36.3043
102.968 1334 36.524
103.085 1304 36.1109
103.202 1295 35.9861
103.319 1324 36.3868
103.436 1266 35.5809
103.552 1220 34.9285
103.669 1257 35.4542
103.786 1108 33.2866
103.903 1079 32.8481
104.02 1122 33.4963
104.137 1175 34.2783
104.253 1165 34.1321
104.37 1328 36.4417
104.487 1374 37.0675
104.603 1377 37.108
104.72 1387 37.2424
104.836 1287 35.8748
104.953 1222 34.9571
105.069 1107 33.2716
105.186 940 30.6594
105.302 918 30.2985
105.418 797 28.2312
105.535 810 28.4605
105.651 851 29.1719
105.767 853 29.2062
105.883 880 29.6648
105.999 824 28.7054
106.115 0 1
106.231 0 1
106.347 0 1
106.463 0 1
106.579 0 1
106.694 0 1
106.81 0 1
106.926 0 1
107.041 0 1
107.157 0 1
109.576 0 1
109.692 0 1
109.807 0 1
109.923 0 1
110.039 0 1
110.155 0 1
110.27 0 1
110.386 0 1
110.502 0 1
110.618 538 23.1948
110.735 683 26.1343
110.851 867 29.4449
110.967 940 30.6594
111.083 1010 31.7805
111.199 1134 33.6749
111.316 1129 33.6006
111.432 1163 34.1028
111.549 1238 35.1852
111.665 1257 35.4542
111.782 1199 34.6266
111.898 1183 34.3948
112.015 1260 35.4965
112.132 1186 34.4384
112.248 1062 32.5883
112.365 1016 31.8748
112.482 1020 31.9374
112.599 1138 33.7343
112.716 1143 33.8083
112.832 1217 34.8855
112.949 1213 34.8281
113.066 1276 35.7211
113.183 1276 35.7211
113.3 1278 35.7491
113.417 1230 35.0714
113.534 1232 35.0999
113.652 1098 33.1361
113.769 1005 31.7017
113.886 978 31.273
114.003 888 29.7993
114.12 954 30.8869
114.238 989 31.4484
114.355 1111 33.3317
114.472 1148 33.8821
114.589 1351 36.756
114.707 1230 35.0714
114.824 1335 36.5377
114.942 1310 36.1939
115.059 1305 36.1248
115.176 1302 36.0832
115.294 1264 35.5528
115.411 1318 36.3043
115.529 1243 35.2562
115.646 1220 34.9285
115.764 1134 33.6749
115.881 1107 33.2716
115.999 1037 32.2025
116.116 1031 32.1092
116.234 1184 34.4093
116.351 1143 33.8083
116.469 1272 35.6651
116.586 1338 36.5787
116.704 1301 36.0694
116.821 1301 36.0694
116.939 1313 36.2353
117.056 1229 35.0571
117.174 1121 33.4813
117.291 1040 32.249
117.409 980 31.305
117.526 951 30.8383
117.644 929 30.4795
117.761 980 31.305
117.879 1108 33.2866
117.996 1110 33.3167
118.114 1160 34.0588
118.231 1185 34.4238
118.349 1217 34.8855
118.466 1232 35.0999
118.584 1198 34.6121
118.701 1261 35.5106
118.819 1147 33.8674
118.936 1212 34.8138
119.053 1185 34.4238
119.171 1136 33.7046
119.288 1123 33.5112
119.405 1092 33.0454
119.523 969 31.1288
119.64 935 30.5778
119.757 991 31.4802
119.875 1073 32.7567
119.992 1059 32.5423
120.109 1161 34.0735
120.226 1222 34.9571
120.343 1169 34.1906
120.46 1128 33.5857
120.578 1154 33.9706
120.695 1128 33.5857
120.812 1080 32.8634
120.929 1061 32.573
121.046 894 29.8998
121.163 902 30.0333
121.279 811 28.4781
121.396 824 28.7054
121.513 872 29.5296
121.63 916 30.2655
121.747 919 30.315
121.863 937 30.6105
121.98 910 30.1662
122.097 921 30.348
122.213 944 30.7246
122.33 871 29.5127
122.446 878 29.6311
122.563 818 28.6007
122.679 744 27.2764
122.795 704 26.533
122.912 659 25.671
123.028 565 23.7697
123.144 529 23
123.26 496 22.2711
123.377 0 1
123.493 0 1
123.609 0 1
123.725 0 1
123.84 0 1
123.956 0 1
124.072 0 1
124.188 0 1
124.303 0 1
124.419 0 1
126.852 0 1
126.968 0 1
127.083 0 1
127.199 0 1
127.315 0 1
127.431 0 1
127.547 0 1
127.663 0 1
127.779 0 1
127.895 0 1
128.011 0 1
128.127 0 1
128.243 0 1
128.359 1024 32
128.476 1029 32.078
128.592 1063 32.6037
128.708 1026 32.0312
128.825 1053 32.45
128.941 1138 33.7343
129.058 1133 33.6601
129.174 1230 35.0714
129.291 1293 35.9583
129.408 1226 35.0143
129.524 1288 35.8887
129.641 1290 35.9166
129.758 1343 36.647
129.875 1182 34.3802
129.992 1097 33.121
130.108 1008 31.749
130.225 980 31.305
130.342 945 30.7409
130.459 1007 31.7333
130.576 1133 33.6601
130.693 1206 34.7275
130.81 1160 34.0588
130.928 1257 35.4542
131.045 1182 34.3802
131.162 1285 35.8469
131.279 1218 34.8999
131.396 1302 36.0832
131.513 1268 35.609
131.631 1201 34.6554
131.748 1254 35.4119
131.865 1256 35.4401
131.983 1207 34.7419
132.1 1127 33.5708
132.217 1081 32.8786
132.335 1111 33.3317
132.452 1121 33.4813
132.57 1160 34.0588
132.687 1299 36.0416
132.804 1356 36.8239
132.922 1221 34.9428
133.039 1345 36.6742
133.157 1209 34.7707
133.274 1280 35.7771
133.392 1236 35.1568
133.509 1153 33.9559
133.627 1123 33.5112
133.744 1026 32.0312
133.862 928 30.4631
133.979 1012 31.8119
134.097 1032 32.1248
134.214 1159 34.0441
134.332 1170 34.2053
134.449 1216 34.8712
134.567 1288 35.8887
134.684 1215 34.8569
134.802 1225 35
134.919 1296 36
135.037 1265 35.5668
135.154 1330 36.4692
135.272 1237 35.171
135.389 1233 35.1141
135.507 1160 34.0588
135.624 1139 33.7491
135.742 1144 33.8231
135.859 1044 32.311
135.977 1128 33.5857
136.094 1108 33.2866
136.211 1185 34.4238
136.329 1209 34.7707
136.446 1240 35.2136
136.564 1249 35.3412
136.681 1307 36.1525
136.798 1330 36.4692
136.915 1303 36.0971
137.033 1241 35.2278
137.15 1169 34.1906
137.267 1062 32.5883
137.384 1020 31.9374
137.502 1032 32.1248
137.619 991 31.4802
137.736 1036 32.187
137.853 1080 32.8634
137.97 1074 32.7719
138.087 1138 33.7343
138.204 1171 34.2199
138.321 1255 35.426
138.438 1271 35.6511
138.555 1273 35.6791
138.672 1274 35.6931
138.788 1208 34.7563
138.905 1114 33.3766
139.022 1122 33.4963
139.139 1000 31.6228
139.255 1003 31.6702
139.372 892 29.8664
139.488 864 29.3939
139.605 856 29.2575
139.721 822 28.6705
139.838 840 28.9828
139.954 823 28.688
140.071 820 28.6356
140.187 778 27.8927
140.303 668 25.8457
140.419 693 26.3249
140.535 615 24.7992
140.652 561 23.6854
140.768 0 1
140.884 0 1
141 0 1
141.115 0 1
141.231 0 1
141.347 0 1
141.463 0 1
141.578 0 1
141.694 0 1
144.104 0 1
144.219 0 1
144.335 0 1
144.45 0 1
144.566 0 1
144.682 0 1
144.798 0 1
144.914 0 1
145.03 0 1
145.146 902 30.0333
145.262 1003 31.6702
145.378 1020 31.9374
145.494 1088 32.9848
145.61 1023 31.9844
145.726 1034 32.1559
145.842 982 31.3369
145.959 905 30.0832
146.075 841 29
146.192 835 28.8964
146.308 832 28.8444
146.425 826 28.7402
146.541 860 29.3258
146.658 945 30.7409
146.774 917 30.282
146.891 952 30.8545
147.008 1012 31.8119
147.125 986 31.4006
147.241 1002 31.6544
147.358 1034 32.1559
147.475 965 31.0644
147.592 1044 32.311
147.709 999 31.607
147.826 920 30.3315
147.943 962 31.0161
148.06 916 30.2655
148.177 853 29.2062
148.294 847 29.1033
148.411 869 29.4788
148.528 952 30.8545
148.645 978 31.273
148.762 1050 32.4037
148.88 1075 32.7872
148.997 1031 32.1092
149.114 1041 32.2645
149.231 988 31.4325
149.349 981 31.3209
149.466 917 30.282
149.583 943 30.7083
149.701 867 29.4449
149.818 835 28.8964
149.935 784 28
150.053 793 28.1603
150.17 785 28.0179
150.287 892 29.8664
150.405 835 28.8964
150.522 927 30.4467
150.64 966 31.0805
150.757 955 30.9031
150.875 992 31.496
150.992 969 31.1288
151.11 943 30.7083
151.227 953 30.8707
151.344 949 30.8058
151.462 912 30.1993
151.579 895 29.9166
151.697 902 30.0333
151.814 853 29.2062
151.932 846 29.0861
152.049 819 28.6182
152.167 830 28.8097
152.284 899 29.9833
152.402 957 30.9354
152.519 926 30.4302
152.636 964 31.0483
152.754 940 30.6594
152.871 937 30.6105
152.989 964 31.0483
153.106 929 30.4795
153.223 886 29.7658
153.341 805 28.3725
153.458 774 27.8209
153.575 779 27.9106
153.693 778 27.8927
153.81 755 27.4773
153.927 771 27.7669
154.044 850 29.1548
154.162 857 29.2746
154.279 872 29.5296
154.396 878 29.6311
154.513 857 29.2746
154.63 921 30.348
154.747 872 29.5296
154.864 882 29.6985
154.981 820 28.6356
155.098 838 28.9482
155.215 845 29.0689
155.332 827 28.7576
155.449 748 27.3496
155.566 782 27.9643
155.683 794 28.178
155.8 794 28.178
155.917 842 29.0172
156.033 824 28.7054
156.15 0 1
156.267 0 1
156.383 0 1
156.5 0 1
156.617 0 1
156.733 0 1
156.85 0 1
156.966 0 1
157.082 0 1
157.199 0 1
157.315 0 1
157.431 0 1
157.547 0 1
157.664 0 1
157.78 0 1
157.896 0 1
158.012 0 1
158.128 0 1
158.244 0 1
158.359 0 1
158.475 0 1
158.591 0 1
158.706 0 1
