
6.15755 0 1
6.2731 0 1
6.3887 0 1
6.50437 0 1
6.62009 0 1
6.73587 0 1
6.8517 0 1
6.96759 0 1
7.08353 0 1
7.19952 0 1
7.31557 0 1
7.43166 0 1
7.54781 0 1
7.664 0 1
7.78024 0 1
7.89653 0 1
8.01286 0 1
8.12924 0 1
8.24567 0 1
8.36213 0 1
8.47864 0 1
8.59519 0 1
8.71178 0 1
8.82841 0 1
8.94508 0 1
9.06179 0 1
9.17853 0 1
9.29531 0 1
9.41212 0 1
9.52897 0 1
9.64584 0 1
9.76276 0 1
9.8797 0 1
9.99667 0 1
10.1137 0 1
10.2307 0 1
10.3478 0 1
10.4648 0 1
10.5819 0 1
10.6991 0 1
10.8162 0 1
10.9334 0 1
11.0506 0 1
11.1678 0 1
11.285 0 1
11.4023 0 1
11.5196 0 1
11.6369 0 1
11.7542 0 1
11.8715 0 1
11.9888 0 1
12.1062 0 1
12.2235 0 1
12.3409 0 1
12.4582 0 1
12.5756 0 1
12.693 0 1
12.8104 0 1
12.9278 0 1
13.0452 0 1
13.1626 0 1
13.28 0 1
13.3974 0 1
13.5149 0 1
13.6323 0 1
13.7497 0 1
13.8671 0 1
13.9845 0 1
14.1019 0 1
14.2193 0 1
14.3367 0 1
14.4541 0 1
14.5714 0 1
14.6888 0 1
14.8062 0 1
14.9235 0 1
15.0408 0 0
15.1581 0 0
15.2755 0 0
15.3927 0 0
15.51 0 0
15.6273 0 0
15.7445 0 0
15.8617 0 0
15.9789 0 0
16.0961 0 0
16.2132 0 0
16.3304 0 0
16.4475 0 0
16.5646 0 0
16.6816 0 0
16.7986 0 0
16.9156 0 0
17.0326 0 0
17.1496 0 0
17.2665 0 0
17.3833 0 0
17.5002 0 0
17.617 0 0
17.7338 0 0
17.8505 0 0
17.9672 0 0
18.0839 0 0
18.2005 0 0
18.3171 0 0
18.4337 0 0
18.5502 0 0
18.6666 0 0
18.7831 0 0
18.8994 0 0
19.0158 0 0
19.1321 0 0
19.2483 0 0
19.3645 0 0
19.4806 0 0
19.5967 0 0
19.7128 0 0
19.8288 0 0
19.9447 0 0
20.0606 0 1
20.1764 0 1
20.2922 0 1
20.4079 0 1
20.5236 0 1
20.6392 0 1
20.7548 0 1
20.8702 0 1
23.3078 0 1
23.4233 0 1
23.539 0 1
23.6547 0 1
23.7704 0 1
23.8862 0 1
24.0021 0 1
24.118 0 1
24.234 0 1
24.35 0 1
24.4661 1281 35.7911
24.5822 1394 37.3363
24.6984 1415 37.6165
24.8146 1727 41.5572
24.9309 1867 43.2088
25.0472 2155 46.422
25.1636 2405 49.0408
25.28 2532 50.319
25.3965 2549 50.4876
25.513 2648 51.4587
25.6296 2642 51.4004
25.7462 2472 49.7192
25.8628 2592 50.9117
25.9795 2501 50.01
26.0962 2663 51.6043
26.213 2725 52.2015
26.3298 2721 52.1632
26.4466 2694 51.9038
26.5635 2678 51.7494
26.6804 2603 51.0196
26.7973 2632 51.303
26.9143 2535 50.3488
27.0313 2513 50.1298
27.1483 2550 50.4975
27.2653 2473 49.7293
27.3824 2365 48.6313
27.4996 2302 47.9792
27.6167 2110 45.9347
27.7339 2167 46.551
27.8511 2288 47.833
27.9683 2489 49.8899
28.0855 2407 49.0612
28.2028 2453 49.5278
28.3201 2463 49.6286
28.4374 2421 49.2037
28.5547 2445 49.4469
28.6721 2444 49.4368
28.7894 2552 50.5173
28.9068 2439 49.3862
29.0242 2490 49.8999
29.1416 2607 51.0588
29.259 2518 50.1797
29.3764 2507 50.07
29.4939 2442 49.4166
29.6113 2394 48.9285
29.7288 2385 48.8365
29.8463 2264 47.5815
29.9638 2299 47.9479
30.0812 2242 47.3498
30.1987 2289 47.8435
30.3162 2367 48.6518
30.4337 2452 49.5177
30.5512 2351 48.4871
30.6687 2383 48.816
30.7862 2364 48.621
30.9037 2273 47.676
31.0212 2171 46.594
31.1387 2099 45.8148
31.2562 2290 47.8539
31.3737 2298 47.9375
31.4912 2438 49.3761
31.6087 2512 50.1199
31.7262 2531 50.309
31.8436 2430 49.295
31.9611 2399 48.9796
32.0785 2424 49.2341
32.1959 2382 48.8057
32.3134 2346 48.4355
32.4308 2451 49.5076
32.5482 2282 47.7703
32.6655 2288 47.833
32.7829 2161 46.4866
32.9002 2147 46.3357
33.0176 2144 46.3033
33.1349 2217 47.085
33.2522 2075 45.5522
33.3694 2085 45.6618
33.4867 2166 46.5403
33.6039 2079 45.5961
33.7211 2121 46.0543
33.8383 2309 48.0521
33.9554 2280 47.7493
34.0725 2239 47.3181
34.1896 2273 47.676
34.3067 2280 47.7493
34.4237 2286 47.8121
34.5407 2266 47.6025
34.6577 2192 46.8188
34.7746 2148 46.3465
34.8915 2182 46.7119
35.0084 2326 48.2286
35.1252 2402 49.0102
35.242 2428 49.2747
35.3587 2415 49.1426
35.4755 2406 49.051
35.5921 2318 48.1456
35.7088 2298 47.9375
35.8254 2268 47.6235
35.9419 2147 46.3357
36.0584 2029 45.0444
36.1749 1973 44.4185
36.2913 1975 44.441
36.4077 1905 43.6463
36.524 1802 42.45
36.6403 1658 40.7185
36.7565 1579 39.7366
36.8727 1495 38.6652
36.9889 1404 37.47
37.1049 1432 37.8418
37.221 0 1
37.3369 0 1
37.4529 0 1
37.5687 0 1
37.6845 0 1
37.8003 0 1
37.916 0 1
38.0316 0 1
38.1472 0 1
40.5851 0 1
40.7008 0 1
40.8164 0 1
40.9322 0 1
41.048 0 1
41.1639 0 1
41.2798 0 1
41.3958 0 1
41.5118 0 1
41.6279 0 1
41.744 2205 46.9574
41.8602 2999 54.7631
41.9765 3615 60.1249
42.0928 3938 62.7535
42.2091 4050 63.6396
42.3255 3970 63.0079
42.4419 4161 64.5058
42.5584 4109 64.1015
42.675 4227 65.0154
42.7915 4224 64.9923
42.9081 4292 65.5134
43.0248 4244 65.146
43.1415 4316 65.6963
43.2582 3977 63.0635
43.375 3701 60.8358
43.4918 3746 61.2046
43.6087 3957 62.9047
43.7256 3907 62.506
43.8425 3977 63.0635
43.9595 3980 63.0872
44.0765 3962 62.9444
44.1935 3815 61.7657
44.3106 3662 60.5145
44.4277 3547 59.5567
44.5448 3359 57.9569
44.6619 3223 56.7715
44.7791 2940 54.2218
44.8963 2789 52.811
45.0136 2599 50.9804
45.1308 2508 50.0799
45.2481 2322 48.1871
45.3654 2192 46.8188
45.4827 2111 45.9456
45.6001 1987 44.5758
45.7174 1972 44.4072
45.8348 1890 43.4741
45.9522 1850 43.0116
46.0697 1862 43.1509
46.1871 1918 43.795
46.3046 1886 43.4281
46.422 1924 43.8634
46.5395 1955 44.2154
46.657 1927 43.8976
46.7745 1974 44.4297
46.892 1831 42.7902
47.0096 1724 41.5211
47.1271 1834 42.8252
47.2446 1851 43.0232
47.3622 1870 43.2435
47.4797 1922 43.8406
47.5973 1943 44.0795
47.7149 1831 42.7902
47.8324 2001 44.7325
47.95 1899 43.5775
48.0675 1815 42.6028
48.1851 1854 43.0581
48.3027 1801 42.4382
48.4202 1811 42.5558
48.5378 1760 41.9524
48.6554 1679 40.9756
48.7729 1676 40.939
48.8904 1728 41.5692
49.008 1702 41.2553
49.1255 1709 41.3401
49.243 1681 41
49.3605 1623 40.2865
49.478 1744 41.7612
49.5955 1744 41.7612
49.713 1768 42.0476
49.8304 1853 43.0465
49.9479 1802 42.45
50.0653 1882 43.382
50.1827 1804 42.4735
50.3001 1765 42.0119
50.4175 1619 40.2368
50.5348 1417 37.6431
50.6521 1561 39.5095
50.7694 1712 41.3763
50.8867 1871 43.2551
51.004 1830 42.7785
51.1212 1944 44.0908
51.2384 1879 43.3474
51.3556 1852 43.0349
51.4727 1906 43.6578
51.5899 1822 42.6849
51.707 1753 41.8688
51.824 1916 43.7721
51.9411 1782 42.2137
52.0581 1722 41.497
52.175 1814 42.5911
52.2919 1707 41.3159
52.4088 1629 40.3609
52.5257 1665 40.8044
52.6425 1655 40.6817
52.7593 1710 41.3521
52.876 1656 40.694
52.9927 1565 39.5601
53.1094 1561 39.5095
53.226 1639 40.4846
53.3426 1712 41.3763
53.4591 1656 40.694
53.5756 1434 37.8682
53.692 1267 35.5949
53.8084 1194 34.5543
53.9248 1127 33.5708
54.0411 971 31.1609
54.1573 943 30.7083
54.2735 0 1
54.3896 0 1
54.5057 0 1
54.6217 0 1
54.7377 0 1
54.8537 0 1
54.9695 0 1
55.0853 0 1
55.2011 0 1
55.3168 0 1
55.4324 0 1
57.824 0 1
57.9396 0 1
58.0553 0 1
58.1711 0 1
58.2869 0 1
58.4028 0 1
58.5187 0 1
58.6347 0 1
58.7508 0 1
58.8669 0 1
58.983 1443 37.9868
59.0992 1491 38.6135
59.2155 1530 39.1152
59.3318 1626 40.3237
59.4482 1739 41.7013
59.5646 1902 43.6119
59.681 2021 44.9555
59.7975 2108 45.913
59.9141 2167 46.551
60.0306 2123 46.076
60.1473 2129 46.1411
60.2639 2117 46.0109
60.3807 2177 46.6583
60.4974 2084 45.6508
60.6142 2066 45.4533
60.731 2159 46.465
60.8479 2174 46.6262
60.9648 2153 46.4004
61.0818 2159 46.465
61.1987 2143 46.2925
61.3158 2037 45.1331
61.4328 1983 44.5309
61.5499 2065 45.4423
61.667 2048 45.2548
61.7841 2025 45
61.9013 2022 44.9667
62.0185 2038 45.1442
62.1357 2141 46.2709
62.253 2046 45.2327
62.3702 2117 46.0109
62.4875 2027 45.0222
62.6049 1911 43.715
62.7222 2002 44.7437
62.8396 1932 43.9545
62.9569 2115 45.9891
63.0743 2149 46.3573
63.1918 2275 47.697
63.3092 2266 47.6025
63.4267 2212 47.0319
63.5441 2173 46.6154
63.6616 2166 46.5403
63.7791 2169 46.5725
63.8966 2178 46.669
64.0142 2114 45.9783
64.1317 2126 46.1086
64.2492 2096 45.7821
64.3668 2148 46.3465
64.4843 2104 45.8694
64.6019 2109 45.9239
64.7195 1936 44
64.837 2000 44.7214
64.9546 1940 44.0454
65.0722 2044 45.2106
65.1898 1974 44.4297
65.3074 2024 44.9889
65.4249 2026 45.0111
65.5425 2101 45.8367
65.6601 2079 45.5961
65.7777 2081 45.618
65.8952 2158 46.4543
66.0128 1933 43.9659
66.1304 1854 43.0581
66.2479 1734 41.6413
66.3655 1790 42.3084
66.483 1975 44.441
66.6005 2090 45.7165
66.718 2089 45.7056
66.8355 2165 46.5296
66.953 2104 45.8694
67.0705 2160 46.4758
67.1879 2201 46.9148
67.3054 2058 45.3652
67.4228 2092 45.7384
67.5402 2081 45.618
67.6576 2046 45.2327
67.7749 2125 46.0977
67.8923 2055 45.3321
68.0096 2153 46.4004
68.1269 2160 46.4758
68.2442 2053 45.31
68.3614 2031 45.0666
68.4787 1958 44.2493
68.5958 1927 43.8976
68.713 1922 43.8406
68.8302 1889 43.4626
68.9473 1905 43.6463
69.0643 2032 45.0777
69.1814 1960 44.2719
69.2984 1999 44.7102
69.4154 1931 43.9431
69.5323 1999 44.7102
69.6492 1875 43.3013
69.7661 1661 40.7554
69.8829 1574 39.6737
69.9997 1633 40.4104
70.1165 1787 42.2729
70.2332 1796 42.3792
70.3499 1757 41.9166
70.4665 1645 40.5586
70.5831 1405 37.4833
70.6996 1498 38.704
70.8161 1339 36.5923
70.9326 1348 36.7151
71.049 1228 35.0428
71.1653 1210 34.7851
71.2817 1139 33.7491
71.3979 1154 33.9706
71.5141 1110 33.3167
71.6303 1084 32.9242
71.7464 1001 31.6386
71.8624 0 1
71.9784 0 1
72.0944 0 1
72.2102 0 1
72.3261 0 1
72.4418 0 1
72.5575 0 1
72.6732 0 1
75.1054 0 1
75.2209 0 1
75.3365 0 1
75.4521 0 1
75.5678 0 1
75.6835 0 1
75.7993 0 1
75.9151 0 1
76.031 0 1
76.147 1621 40.2616
76.263 1788 42.2847
76.3791 1867 43.2088
76.4952 1877 43.3244
76.6113 1887 43.4396
76.7276 1916 43.7721
76.8438 1973 44.4185
76.9601 1929 43.9204
77.0765 1983 44.5309
77.1929 1964 44.317
77.3093 1874 43.2897
77.4258 2035 45.111
77.5423 1910 43.7035
77.6589 1877 43.3244
77.7755 1852 43.0349
77.8921 1825 42.72
78.0088 1840 42.8952
78.1256 1900 43.589
78.2423 2033 45.0888
78.3591 2001 44.7325
78.4759 1908 43.6807
78.5928 1918 43.795
78.7097 1718 41.4488
78.8266 1496 38.6782
78.9436 1399 37.4032
79.0606 1437 37.9078
79.1776 1685 41.0488
79.2946 1867 43.2088
79.4117 2021 44.9555
79.5288 2049 45.2659
79.6459 2015 44.8888
79.7631 2081 45.618
79.8802 2002 44.7437
79.9974 2023 44.9778
80.1147 2015 44.8888
80.2319 2035 45.111
80.3491 2025 45
80.4664 1927 43.8976
80.5837 2083 45.6399
80.701 2104 45.8694
80.8183 2135 46.2061
80.9357 2166 46.5403
81.053 2161 46.4866
81.1704 2048 45.2548
81.2877 2004 44.7661
81.4051 1993 44.643
81.5225 2077 45.5741
81.6399 1990 44.6094
81.7573 2132 46.1736
81.8747 2112 45.9565
81.9922 2280 47.7493
82.1096 2400 48.9898
82.227 2363 48.6107
82.3444 2243 47.3603
82.4619 2114 45.9783
82.5793 1967 44.3509
82.6967 2025 45
82.8142 2511 50.1099
82.9316 2993 54.7083
83.049 3349 57.8705
83.1664 3468 58.8897
83.2838 3587 59.8916
83.4012 3676 60.63
83.5186 3910 62.53
83.636 3754 61.2699
83.7534 3894 62.4019
83.8708 3937 62.7455
83.9881 4165 64.5368
84.1055 4105 64.0703
84.2228 4092 63.9687
84.3401 4081 63.8827
84.4575 4171 64.5833
84.5747 4133 64.2884
84.692 4103 64.0547
84.8093 4099 64.0234
84.9265 4148 64.405
85.0437 4010 63.3246
85.1609 3942 62.7853
85.2781 3966 62.9762
85.3952 4042 63.5767
85.5123 3947 62.8252
85.6294 4025 63.4429
85.7465 4066 63.7652
85.8636 3606 60.05
85.9806 3124 55.8928
86.0976 2720 52.1536
86.2145 2584 50.8331
86.3315 2910 53.9444
86.4484 3661 60.5062
86.5652 3869 62.2013
86.682 3996 63.2139
86.7988 3942 62.7853
86.9156 3991 63.1744
87.0323 4058 63.7024
87.149 3969 63
87.2657 3944 62.8013
87.3823 3950 62.849
87.4988 3843 61.9919
87.6154 3486 59.0424
87.7318 3151 56.1338
87.8483 2988 54.6626
87.9647 2825 53.1507
88.081 2810 53.0094
88.1973 2795 52.8678
88.3136 2558 50.5767
88.4298 2478 49.7795
88.546 2310 48.0625
88.6621 2272 47.6655
88.7781 2185 46.744
88.8942 0 1
89.0101 0 1
89.126 0 1
89.2419 0 1
89.3577 0 1
89.4734 0 1
89.5891 0 1
89.7047 0 1
89.8203 0 1
89.9358 0 1
92.3269 0 1
92.4424 0 1
92.558 0 1
92.6736 0 1
92.7893 0 1
92.905 0 1
93.0208 0 1
93.1366 0 1
93.2525 0 1
93.3685 0 1
93.4845 0 1
93.6005 4246 65.1613
93.7167 4295 65.5362
93.8328 4099 64.0234
93.949 4095 63.9922
94.0653 4133 64.2884
94.1816 4306 65.6201
94.2979 4206 64.8537
94.4143 4234 65.0692
94.5307 4245 65.1537
94.6472 4033 63.5059
94.7637 3976 63.0555
94.8803 3703 60.8523
94.9969 3333 57.7321
95.1135 2891 53.768
95.2302 3108 55.7494
95.3469 3508 59.2284
95.4637 3982 63.1031
95.5805 4270 65.3452
95.6973 4192 64.7457
95.8142 4384 66.2118
95.9311 4150 64.4205
96.048 4290 65.4981
96.1649 4304 65.6049
96.2819 4234 65.0692
96.3989 4377 66.1589
96.516 4312 65.6658
96.633 4344 65.909
96.7501 4281 65.4294
96.8673 4447 66.6858
96.9844 4327 65.7799
97.1016 4286 65.4675
97.2188 4446 66.6783
97.336 4259 65.261
97.4532 4344 65.909
97.5704 4261 65.2763
97.6877 4214 64.9153
97.805 4216 64.9307
97.9223 4157 64.4748
98.0396 4158 64.4826
98.1569 4139 64.3351
98.2743 3922 62.6259
98.3916 3503 59.1861
98.509 3142 56.0535
98.6264 2707 52.0288
98.7438 2710 52.0577
98.8612 2971 54.5069
98.9786 3237 56.8946
99.096 3414 58.4294
99.2134 3258 57.0789
99.3308 3097 55.6507
99.4482 3139 56.0268
99.5656 2970 54.4977
99.6831 2859 53.4696
99.8005 2814 53.0471
99.9179 2783 52.7541
100.035 2651 51.4879
100.153 2650 51.4782
100.27 2709 52.0481
100.388 2772 52.6498
100.505 2819 53.0943
100.622 2861 53.4883
100.74 2778 52.7067
100.857 2696 51.923
100.975 2781 52.7352
101.092 2669 51.6624
101.209 2678 51.7494
101.327 2695 51.9134
101.444 2787 52.792
101.561 2695 51.9134
101.679 2591 50.9019
101.796 2701 51.9711
101.913 2637 51.3517
102.03 2405 49.0408
102.148 2156 46.4327
102.265 2010 44.833
102.382 2283 47.7807
102.499 2398 48.9694
102.616 2545 50.448
102.733 2479 49.7896
102.851 2610 51.0882
102.968 2469 49.689
103.085 2514 50.1398
103.202 2501 50.01
103.319 2572 50.7149
103.436 2479 49.7896
103.552 2492 49.9199
103.669 2422 49.2138
103.786 2431 49.3052
103.903 2503 50.03
104.02 2529 50.2892
104.137 2461 49.6085
104.253 2602 51.0098
104.37 2431 49.3052
104.487 2403 49.0204
104.603 2347 48.4458
104.72 2402 49.0102
104.836 2268 47.6235
104.953 2015 44.8888
105.069 1797 42.391
105.186 1597 39.9625
105.302 1411 37.5633
105.418 1392 37.3095
105.535 1314 36.2491
105.651 1045 32.3265
105.767 936 30.5941
105.883 775 27.8388
105.999 775 27.8388
106.115 0 1
106.231 0 1
106.347 0 1
106.463 0 1
106.579 0 1
106.694 0 1
106.81 0 1
106.926 0 1
107.041 0 1
107.157 0 1
109.576 0 1
109.692 0 1
109.807 0 1
109.923 0 1
110.039 0 1
110.155 0 1
110.27 0 1
110.386 0 1
110.502 0 1
110.618 2505 50.05
110.735 2640 51.3809
110.851 2568 50.6754
110.967 2230 47.2229
111.083 2232 47.244
111.199 2324 48.2079
111.316 2652 51.4976
111.432 2702 51.9808
111.549 2814 53.0471
111.665 2810 53.0094
111.782 2716 52.1153
111.898 2816 53.066
112.015 2650 51.4782
112.132 2693 51.8941
112.248 2734 52.2877
112.365 2662 51.5946
112.482 2717 52.1249
112.599 2862 53.4977
112.716 2912 53.963
112.832 3019 54.9454
112.949 3043 55.1634
113.066 3105 55.7225
113.183 3026 55.0091
113.3 3110 55.7674
113.417 2937 54.1941
113.534 3084 55.5338
113.652 3010 54.8635
113.769 2941 54.231
113.886 3055 55.2721
114.003 2990 54.6809
114.12 3011 54.8726
114.238 2926 54.0925
114.355 2766 52.5928
114.472 2496 49.96
114.589 2394 48.9285
114.707 2498 49.98
114.824 2738 52.3259
114.942 2741 52.3546
115.059 3013 54.8908
115.176 2896 53.8145
115.294 2949 54.3047
115.411 2720 52.1536
115.529 2737 52.3163
115.646 2848 53.3667
115.764 2728 52.2303
115.881 2881 53.6749
115.999 2692 51.8845
116.116 3013 54.8908
116.234 2978 54.5711
116.351 2945 54.2679
116.469 2975 54.5436
116.586 3190 56.4801
116.704 3167 56.2761
116.821 3165 56.2583
116.939 3236 56.8859
117.056 3346 57.8446
117.174 3116 55.8211
117.291 3086 55.5518
117.409 3116 55.8211
117.526 3086 55.5518
117.644 3133 55.9732
117.761 3068 55.3895
117.879 2984 54.626
117.996 2648 51.4587
118.114 2485 49.8498
118.231 2491 49.9099
118.349 2494 49.94
118.466 2784 52.7636
118.584 2830 53.1977
118.701 2862 53.4977
118.819 2932 54.1479
118.936 2880 53.6656
119.053 2837 53.2635
119.171 2838 53.2729
119.288 2738 52.3259
119.405 2785 52.7731
119.523 2760 52.5357
119.64 2774 52.6688
119.757 2842 53.3104
119.875 2791 52.8299
119.992 2923 54.0648
120.109 2831 53.2071
120.226 2944 54.2586
120.343 2942 54.2402
120.46 2911 53.9537
120.578 2924 54.074
120.695 3037 55.109
120.812 2820 53.1037
120.929 2885 53.7122
121.046 2912 53.963
121.163 2820 53.1037
121.279 2792 52.8394
121.396 2848 53.3667
121.513 2744 52.3832
121.63 2577 50.7642
121.747 2257 47.5079
121.863 2125 46.0977
121.98 1919 43.8064
122.097 2019 44.9333
122.213 1944 44.0908
122.33 1989 44.5982
122.446 2002 44.7437
122.563 1883 43.3935
122.679 1928 43.909
122.795 1816 42.6146
122.912 1845 42.9535
123.028 1716 41.4246
123.144 1651 40.6325
123.26 1678 40.9634
123.377 0 1
123.493 0 1
123.609 0 1
123.725 0 1
123.84 0 1
123.956 0 1
124.072 0 1
124.188 0 1
124.303 0 1
124.419 0 1
126.852 0 1
126.968 0 1
127.083 0 1
127.199 0 1
127.315 0 1
127.431 0 1
127.547 0 1
127.663 0 1
127.779 0 1
127.895 0 1
128.011 0 1
128.127 0 1
128.243 0 1
128.359 3280 57.2713
128.476 3326 57.6715
128.592 3282 57.2887
128.708 3399 58.3009
128.825 3359 57.9569
128.941 3345 57.836
129.058 3413 58.4209
129.174 3358 57.9483
129.291 3444 58.6856
129.408 3495 59.1185
129.524 3696 60.7947
129.641 3833 61.9112
129.758 3861 62.1369
129.875 3800 61.6441
129.992 3930 62.6897
130.108 4053 63.6632
130.225 3909 62.522
130.342 3956 62.8967
130.459 3852 62.0645
130.576 3865 62.1691
130.693 3599 59.9917
130.81 3577 59.808
130.928 3451 58.7452
131.045 3572 59.7662
131.162 3770 61.4003
131.279 3784 61.5142
131.396 3848 62.0322
131.513 3852 62.0645
131.631 3794 61.5955
131.748 3935 62.7296
131.865 3774 61.4329
131.983 3775 61.441
132.1 3698 60.8112
132.217 3745 61.1964
132.335 3638 60.3158
132.452 3617 60.1415
132.57 3714 60.9426
132.687 3467 58.8812
132.804 3842 61.9839
132.922 3746 61.2046
133.039 3684 60.696
133.157 3767 61.3759
133.274 3949 62.8411
133.392 3917 62.5859
133.509 4058 63.7024
133.627 4119 64.1794
133.744 4220 64.9615
133.862 4166 64.5446
133.979 4257 65.2457
134.097 4135 64.304
134.214 4097 64.0078
134.332 3983 63.111
134.449 3953 62.8729
134.567 3906 62.498
134.684 3986 63.1348
134.802 4156 64.467
134.919 4211 64.8922
135.037 4177 64.6297
135.154 4182 64.6684
135.272 4074 63.8279
135.389 4128 64.2495
135.507 3980 63.0872
135.624 3964 62.9603
135.742 3834 61.9193
135.859 3950 62.849
135.977 3816 61.7738
136.094 3836 61.9355
136.211 3812 61.7414
136.329 3873 62.2334
136.446 3967 62.9841
136.564 3709 60.9016
136.681 3912 62.546
136.798 4036 63.5295
136.915 3966 62.9762
137.033 4111 64.1171
137.15 4023 63.4271
137.267 4095 63.9922
137.384 4202 64.8228
137.502 4164 64.5291
137.619 4018 63.3877
137.736 4004 63.2772
137.853 3827 61.8628
137.97 3885 62.3298
138.087 3652 60.4318
138.204 3762 61.3351
138.321 3781 61.4898
138.438 3860 62.1289
138.555 3996 63.2139
138.672 3908 62.514
138.788 3948 62.8331
138.905 3796 61.6117
139.022 3726 61.041
139.139 3655 60.4566
139.255 3507 59.2199
139.372 3169 56.2939
139.488 3138 56.0179
139.605 2981 54.5985
139.721 2919 54.0278
139.838 2876 53.6284
139.954 2836 53.2541
140.071 2838 53.2729
140.187 2782 52.7447
140.303 2779 52.7162
140.419 2723 52.1824
140.535 2852 53.4041
140.652 2838 53.2729
140.768 0 1
140.884 0 1
141 0 1
141.115 0 1
141.231 0 1
141.347 0 1
141.463 0 1
141.578 0 1
141.694 0 1
144.104 0 1
144.219 0 1
144.335 0 1
144.45 0 1
144.566 0 1
144.682 0 1
144.798 0 1
144.914 0 1
145.03 0 1
145.146 8300 91.1043
145.262 8666 93.0914
145.378 8698 93.2631
145.494 8624 92.8655
145.61 8852 94.0851
145.726 9000 94.8683
145.842 9042 95.0894
145.959 9045 95.1052
146.075 9020 94.9737
146.192 8988 94.8051
146.308 8833 93.984
146.425 8672 93.1236
146.541 8129 90.161
146.658 7086 84.1784
146.774 5929 77
146.891 5795 76.1249
147.008 6435 80.2185
147.125 7536 86.8101
147.241 8344 91.3455
147.358 8637 92.9355
147.475 8947 94.5886
147.592 8775 93.675
147.709 9067 95.2208
147.826 8883 94.2497
147.943 8582 92.6391
148.06 8898 94.3292
148.177 8929 94.4934
148.294 8751 93.5468
148.411 8861 94.1329
148.528 8938 94.541
148.645 8989 94.8103
148.762 8913 94.4087
148.88 8817 93.8989
148.997 8727 93.4184
149.114 9467 97.2985
149.231 8985 94.7892
149.349 9417 97.0412
149.466 9097 95.3782
149.583 9061 95.1893
149.701 8948 94.5939
149.818 9201 95.9218
149.935 8981 94.7681
150.053 8823 93.9308
150.17 8652 93.0161
150.287 7777 88.1873
150.405 6644 81.5107
150.522 6081 77.9808
150.64 6441 80.2558
150.757 7411 86.0872
150.875 8476 92.0652
150.992 8722 93.3916
151.11 8708 93.3167
151.227 8753 93.5575
151.344 8832 93.9787
151.462 8643 92.9677
151.579 8997 94.8525
151.697 8943 94.5674
151.814 8972 94.7206
151.932 9148 95.6452
152.049 9124 95.5196
152.167 9030 95.0263
152.284 9139 95.5981
152.402 9172 95.7706
152.519 9103 95.4096
152.636 9291 96.3898
152.754 9185 95.8384
152.871 9613 98.0459
152.989 9195 95.8906
153.106 9467 97.2985
153.223 9534 97.6422
153.341 9376 96.8297
153.458 9568 97.8162
153.575 9732 98.6509
153.693 9400 96.9536
153.81 9174 95.781
153.927 8215 90.6366
154.044 7108 84.309
154.162 6472 80.4487
154.279 7071 84.0892
154.396 8048 89.7106
154.513 8945 94.578
154.63 9342 96.654
154.747 9336 96.623
154.864 9151 95.6609
154.981 9216 96
155.098 8944 94.5727
155.215 8894 94.308
155.332 8823 93.9308
155.449 8617 92.8278
155.566 8520 92.3038
155.683 8416 91.7388
155.8 8335 91.2962
155.917 8186 90.4765
156.033 7860 88.6566
156.15 0 1
156.267 0 1
156.383 0 1
156.5 0 1
156.617 0 1
156.733 0 1
156.85 0 1
156.966 0 1
157.082 0 1
157.199 0 1
157.315 0 1
157.431 0 1
157.547 0 1
157.664 0 1
157.78 0 1
157.896 0 1
158.012 0 1
158.128 0 1
158.244 0 1
158.359 0 1
158.475 0 1
158.591 0 1
158.706 0 1
