
6.15755 0 1
6.2731 0 1
6.3887 0 1
6.50437 0 1
6.62009 0 1
6.73587 0 1
6.8517 0 1
6.96759 0 1
7.08353 0 1
7.19952 0 1
7.31557 0 1
7.43166 0 1
7.54781 0 1
7.664 0 1
7.78024 0 1
7.89653 0 1
8.01286 0 1
8.12924 0 1
8.24567 0 1
8.36213 0 1
8.47864 0 1
8.59519 0 1
8.71178 0 1
8.82841 0 1
8.94508 0 1
9.06179 0 1
9.17853 0 1
9.29531 0 1
9.41212 0 1
9.52897 0 1
9.64584 0 1
9.76276 0 1
9.8797 0 1
9.99667 0 1
10.1137 0 1
10.2307 0 1
10.3478 0 1
10.4648 0 1
10.5819 0 1
10.6991 0 1
10.8162 0 1
10.9334 0 1
11.0506 0 1
11.1678 0 1
11.285 0 1
11.4023 0 1
11.5196 0 1
11.6369 0 1
11.7542 0 1
11.8715 0 1
11.9888 0 1
12.1062 0 1
12.2235 0 1
12.3409 0 1
12.4582 0 1
12.5756 0 1
12.693 0 1
12.8104 0 1
12.9278 0 1
13.0452 0 1
13.1626 0 1
13.28 0 1
13.3974 0 1
13.5149 0 1
13.6323 0 1
13.7497 0 1
13.8671 0 1
13.9845 0 1
14.1019 0 1
14.2193 0 1
14.3367 0 1
14.4541 0 1
14.5714 0 1
14.6888 0 1
14.8062 0 1
14.9235 0 1
15.0408 1106 33.2566
15.1581 1122 33.4963
15.2755 1173 34.2491
15.3927 1139 33.7491
15.51 1190 34.4964
15.6273 1102 33.1964
15.7445 1179 34.3366
15.8617 1094 33.0757
15.9789 1079 32.8481
16.0961 988 31.4325
16.2132 1051 32.4191
16.3304 1068 32.6803
16.4475 1093 33.0606
16.5646 1025 32.0156
16.6816 1102 33.1964
16.7986 1112 33.3467
16.9156 1085 32.9393
17.0326 1067 32.665
17.1496 1063 32.6037
17.2665 1056 32.4962
17.3833 1111 33.3317
17.5002 1103 33.2114
17.617 1173 34.2491
17.7338 1162 34.0881
17.8505 1253 35.3977
17.9672 1260 35.4965
18.0839 1306 36.1386
18.2005 1349 36.7287
18.3171 1447 38.0395
18.4337 1393 37.3229
18.5502 1378 37.1214
18.6666 1391 37.2961
18.7831 1376 37.0945
18.8994 1283 35.819
19.0158 1348 36.7151
19.1321 1277 35.7351
19.2483 1189 34.4819
19.3645 1246 35.2987
19.4806 1187 34.4529
19.5967 1125 33.541
19.7128 1044 32.311
19.8288 1090 33.0151
19.9447 938 30.6268
20.0606 0 1
20.1764 0 1
20.2922 0 1
20.4079 0 1
20.5236 0 1
20.6392 0 1
20.7548 0 1
20.8702 0 1
23.3078 0 1
23.4233 0 1
23.539 0 1
23.6547 0 1
23.7704 0 1
23.8862 0 1
24.0021 0 1
24.118 0 1
24.234 0 1
24.35 0 1
24.4661 1141 33.7787
24.5822 1136 33.7046
24.6984 1090 33.0151
24.8146 1082 32.8938
24.9309 1047 32.3574
25.0472 1080 32.8634
25.1636 1050 32.4037
25.28 1088 32.9848
25.3965 1135 33.6898
25.513 1102 33.1964
25.6296 1189 34.4819
25.7462 1191 34.5109
25.8628 1173 34.2491
25.9795 1208 34.7563
26.0962 1241 35.2278
26.213 1219 34.9142
26.3298 1270 35.6371
26.4466 1242 35.242
26.5635 1240 35.2136
26.6804 1349 36.7287
26.7973 1364 36.9324
26.9143 1345 36.6742
27.0313 1369 37
27.1483 1331 36.4829
27.2653 1309 36.1801
27.3824 1281 35.7911
27.4996 1231 35.0856
27.6167 1208 34.7563
27.7339 1205 34.7131
27.8511 1168 34.176
27.9683 1071 32.7261
28.0855 1072 32.7414
28.2028 1066 32.6497
28.3201 1040 32.249
28.4374 1111 33.3317
28.5547 1164 34.1174
28.6721 1067 32.665
28.7894 1100 33.1662
28.9068 1069 32.6956
29.0242 1123 33.5112
29.1416 1074 32.7719
29.259 1106 33.2566
29.3764 1109 33.3017
29.4939 1107 33.2716
29.6113 1103 33.2114
29.7288 1142 33.7935
29.8463 1216 34.8712
29.9638 1240 35.2136
30.0812 1229 35.0571
30.1987 1218 34.8999
30.3162 1341 36.6197
30.4337 1256 35.4401
30.5512 1282 35.805
30.6687 1300 36.0555
30.7862 1274 35.6931
30.9037 1218 34.8999
31.0212 1216 34.8712
31.1387 1193 34.5398
31.2562 1120 33.4664
31.3737 1152 33.9411
31.4912 1113 33.3617
31.6087 1022 31.9687
31.7262 1011 31.7962
31.8436 1006 31.7175
31.9611 941 30.6757
32.0785 999 31.607
32.1959 1071 32.7261
32.3134 1038 32.218
32.4308 1094 33.0757
32.5482 1055 32.4808
32.6655 1126 33.5559
32.7829 1101 33.1813
32.9002 1081 32.8786
33.0176 1097 33.121
33.1349 1051 32.4191
33.2522 1096 33.1059
33.3694 1048 32.3728
33.4867 1104 33.2265
33.6039 1146 33.8526
33.7211 1161 34.0735
33.8383 1140 33.7639
33.9554 1246 35.2987
34.0725 1251 35.3695
34.1896 1210 34.7851
34.3067 1121 33.4813
34.4237 1106 33.2566
34.5407 1182 34.3802
34.6577 1124 33.5261
34.7746 982 31.3369
34.8915 1054 32.4654
35.0084 1046 32.3419
35.1252 1008 31.749
35.242 994 31.5278
35.3587 919 30.315
35.4755 1011 31.7962
35.5921 1021 31.9531
35.7088 997 31.5753
35.8254 1020 31.9374
35.9419 1051 32.4191
36.0584 1003 31.6702
36.1749 1034 32.1559
36.2913 1049 32.3883
36.4077 1092 33.0454
36.524 1052 32.4345
36.6403 1011 31.7962
36.7565 1056 32.4962
36.8727 964 31.0483
36.9889 1051 32.4191
37.1049 1057 32.5115
37.221 0 1
37.3369 0 1
37.4529 0 1
37.5687 0 1
37.6845 0 1
37.8003 0 1
37.916 0 1
38.0316 0 1
38.1472 0 1
40.5851 0 1
40.7008 0 1
40.8164 0 1
40.9322 0 1
41.048 0 1
41.1639 0 1
41.2798 0 1
41.3958 0 1
41.5118 0 1
41.6279 0 1
41.744 819 28.6182
41.8602 908 30.133
41.9765 885 29.7489
42.0928 859 29.3087
42.2091 896 29.9333
42.3255 890 29.8329
42.4419 883 29.7153
42.5584 977 31.257
42.675 902 30.0333
42.7915 991 31.4802
42.9081 1015 31.8591
43.0248 983 31.3528
43.1415 1004 31.686
43.2582 1018 31.9061
43.375 960 30.9839
43.4918 979 31.289
43.6087 976 31.241
43.7256 957 30.9354
43.8425 967 31.0966
43.9595 941 30.6757
44.0765 958 30.9516
44.1935 887 29.7825
44.3106 908 30.133
44.4277 860 29.3258
44.5448 859 29.3087
44.6619 902 30.0333
44.7791 862 29.3598
44.8963 844 29.0517
45.0136 877 29.6142
45.1308 837 28.931
45.2481 871 29.5127
45.3654 861 29.3428
45.4827 806 28.3901
45.6001 790 28.1069
45.7174 808 28.4253
45.8348 761 27.5862
45.9522 713 26.7021
46.0697 721 26.8514
46.1871 673 25.9422
46.3046 749 27.3679
46.422 746 27.313
46.5395 735 27.1109
46.657 750 27.3861
46.7745 750 27.3861
46.892 736 27.1293
47.0096 696 26.3818
47.1271 677 26.0192
47.2446 711 26.6646
47.3622 661 25.7099
47.4797 698 26.4197
47.5973 595 24.3926
47.7149 630 25.0998
47.8324 612 24.7386
47.95 656 25.6125
48.0675 618 24.8596
48.1851 612 24.7386
48.3027 582 24.1247
48.4202 579 24.0624
48.5378 598 24.454
48.6554 555 23.5584
48.7729 616 24.8193
48.8904 613 24.7588
49.008 541 23.2594
49.1255 591 24.3105
49.243 594 24.3721
49.3605 499 22.3383
49.478 520 22.8035
49.5955 555 23.5584
49.713 564 23.7487
49.8304 621 24.9199
49.9479 588 24.2487
50.0653 600 24.4949
50.1827 630 25.0998
50.3001 661 25.7099
50.4175 625 25
50.5348 607 24.6374
50.6521 643 25.3574
50.7694 630 25.0998
50.8867 612 24.7386
51.004 709 26.6271
51.1212 722 26.8701
51.2384 746 27.313
51.3556 763 27.6225
51.4727 806 28.3901
51.5899 756 27.4955
51.707 795 28.1957
51.824 754 27.4591
51.9411 731 27.037
52.0581 714 26.7208
52.175 667 25.8263
52.2919 779 27.9106
52.4088 794 28.178
52.5257 755 27.4773
52.6425 744 27.2764
52.7593 730 27.0185
52.876 723 26.8887
52.9927 731 27.037
53.1094 717 26.7769
53.226 743 27.258
53.3426 799 28.2666
53.4591 838 28.9482
53.5756 820 28.6356
53.692 845 29.0689
53.8084 895 29.9166
53.9248 852 29.189
54.0411 839 28.9655
54.1573 912 30.1993
54.2735 0 1
54.3896 0 1
54.5057 0 1
54.6217 0 1
54.7377 0 1
54.8537 0 1
54.9695 0 1
55.0853 0 1
55.2011 0 1
55.3168 0 1
55.4324 0 1
57.824 0 1
57.9396 0 1
58.0553 0 1
58.1711 0 1
58.2869 0 1
58.4028 0 1
58.5187 0 1
58.6347 0 1
58.7508 0 1
58.8669 0 1
58.983 975 31.225
59.0992 1081 32.8786
59.2155 1083 32.909
59.3318 1035 32.1714
59.4482 1138 33.7343
59.5646 1150 33.9116
59.681 1197 34.5977
59.7975 1202 34.6699
59.9141 1168 34.176
60.0306 1169 34.1906
60.1473 1108 33.2866
60.2639 1157 34.0147
60.3807 1080 32.8634
60.4974 995 31.5436
60.6142 1071 32.7261
60.731 975 31.225
60.8479 966 31.0805
60.9648 880 29.6648
61.0818 902 30.0333
61.1987 857 29.2746
61.3158 892 29.8664
61.4328 922 30.3645
61.5499 948 30.7896
61.667 900 30
61.7841 894 29.8998
61.9013 939 30.6431
62.0185 921 30.348
62.1357 1013 31.8277
62.253 982 31.3369
62.3702 957 30.9354
62.4875 950 30.8221
62.6049 1008 31.749
62.7222 1045 32.3265
62.8396 1045 32.3265
62.9569 1087 32.9697
63.0743 1104 33.2265
63.1918 1165 34.1321
63.3092 1152 33.9411
63.4267 1163 34.1028
63.5441 1115 33.3916
63.6616 1084 32.9242
63.7791 1093 33.0606
63.8966 1023 31.9844
64.0142 931 30.5123
64.1317 945 30.7409
64.2492 875 29.5804
64.3668 811 28.4781
64.4843 784 28
64.6019 795 28.1957
64.7195 736 27.1293
64.837 838 28.9482
64.9546 883 29.7153
65.0722 864 29.3939
65.1898 900 30
65.3074 879 29.6479
65.4249 864 29.3939
65.5425 904 30.0666
65.6601 951 30.8383
65.7777 907 30.1164
65.8952 899 29.9833
66.0128 918 30.2985
66.1304 945 30.7409
66.2479 923 30.3809
66.3655 1024 32
66.483 991 31.4802
66.6005 1075 32.7872
66.718 1074 32.7719
66.8355 1106 33.2566
66.953 1124 33.5261
67.0705 1065 32.6343
67.1879 1125 33.541
67.3054 1029 32.078
67.4228 980 31.305
67.5402 917 30.282
67.6576 874 29.5635
67.7749 811 28.4781
67.8923 807 28.4077
68.0096 770 27.7489
68.1269 840 28.9828
68.2442 759 27.55
68.3614 802 28.3196
68.4787 818 28.6007
68.5958 799 28.2666
68.713 893 29.8831
68.8302 897 29.95
68.9473 853 29.2062
69.0643 838 28.9482
69.1814 906 30.0998
69.2984 869 29.4788
69.4154 969 31.1288
69.5323 918 30.2985
69.6492 979 31.289
69.7661 984 31.3688
69.8829 1059 32.5423
69.9997 1140 33.7639
70.1165 1051 32.4191
70.2332 1178 34.322
70.3499 1168 34.176
70.4665 1175 34.2783
70.5831 1247 35.3129
70.6996 1149 33.8969
70.8161 1137 33.7194
70.9326 1071 32.7261
71.049 968 31.1127
71.1653 904 30.0666
71.2817 874 29.5635
71.3979 827 28.7576
71.5141 786 28.0357
71.6303 802 28.3196
71.7464 775 27.8388
71.8624 0 1
71.9784 0 1
72.0944 0 1
72.2102 0 1
72.3261 0 1
72.4418 0 1
72.5575 0 1
72.6732 0 1
75.1054 0 1
75.2209 0 1
75.3365 0 1
75.4521 0 1
75.5678 0 1
75.6835 0 1
75.7993 0 1
75.9151 0 1
76.031 0 1
76.147 984 31.3688
76.263 1032 32.1248
76.3791 950 30.8221
76.4952 865 29.4109
76.6113 864 29.3939
76.7276 839 28.9655
76.8438 878 29.6311
76.9601 922 30.3645
77.0765 831 28.8271
77.1929 850 29.1548
77.3093 895 29.9166
77.4258 918 30.2985
77.5423 947 30.7734
77.6589 959 30.9677
77.7755 870 29.4958
77.8921 897 29.95
78.0088 849 29.1376
78.1256 999 31.607
78.2423 970 31.1448
78.3591 895 29.9166
78.4759 1027 32.0468
78.5928 1027 32.0468
78.7097 1001 31.6386
78.8266 1085 32.9393
78.9436 1024 32
79.0606 1172 34.2345
79.1776 1124 33.5261
79.2946 1095 33.0908
79.4117 1193 34.5398
79.5288 1232 35.0999
79.6459 1147 33.8674
79.7631 1132 33.6452
79.8802 1093 33.0606
79.9974 1037 32.2025
80.1147 920 30.3315
80.2319 809 28.4429
80.3491 891 29.8496
80.4664 820 28.6356
80.5837 896 29.9333
80.701 832 28.8444
80.8183 813 28.5132
80.9357 803 28.3373
81.053 893 29.8831
81.1704 905 30.0832
81.2877 894 29.8998
81.4051 877 29.6142
81.5225 916 30.2655
81.6399 915 30.249
81.7573 904 30.0666
81.8747 960 30.9839
81.9922 929 30.4795
82.1096 1021 31.9531
82.227 1070 32.7109
82.3444 1046 32.3419
82.4619 1215 34.8569
82.5793 1253 35.3977
82.6967 1139 33.7491
82.8142 1158 34.0294
82.9316 1205 34.7131
83.049 1183 34.3948
83.1664 1161 34.0735
83.2838 1188 34.4674
83.4012 1122 33.4963
83.5186 1020 31.9374
83.636 946 30.7571
83.7534 944 30.7246
83.8708 934 30.5614
83.9881 919 30.315
84.1055 904 30.0666
84.2228 890 29.8329
84.3401 899 29.9833
84.4575 905 30.0832
84.5747 880 29.6648
84.692 1000 31.6228
84.8093 1023 31.9844
84.9265 1037 32.2025
85.0437 984 31.3688
85.1609 918 30.2985
85.2781 970 31.1448
85.3952 939 30.6431
85.5123 986 31.4006
85.6294 1022 31.9687
85.7465 1070 32.7109
85.8636 1185 34.4238
85.9806 1126 33.5559
86.0976 1228 35.0428
86.2145 1225 35
86.3315 1207 34.7419
86.4484 1327 36.428
86.5652 1322 36.3593
86.682 1279 35.7631
86.7988 1295 35.9861
86.9156 1218 34.8999
87.0323 1126 33.5559
87.149 1041 32.2645
87.2657 999 31.607
87.3823 994 31.5278
87.4988 1007 31.7333
87.6154 951 30.8383
87.7318 953 30.8707
87.8483 944 30.7246
87.9647 991 31.4802
88.081 937 30.6105
88.1973 975 31.225
88.3136 1062 32.5883
88.4298 1082 32.8938
88.546 1045 32.3265
88.6621 943 30.7083
88.7781 927 30.4467
88.8942 0 1
89.0101 0 1
89.126 0 1
89.2419 0 1
89.3577 0 1
89.4734 0 1
89.5891 0 1
89.7047 0 1
89.8203 0 1
89.9358 0 1
92.3269 0 1
92.4424 0 1
92.558 0 1
92.6736 0 1
92.7893 0 1
92.905 0 1
93.0208 0 1
93.1366 0 1
93.2525 0 1
93.3685 0 1
93.4845 0 1
93.6005 962 31.0161
93.7167 972 31.1769
93.8328 994 31.5278
93.949 960 30.9839
94.0653 957 30.9354
94.1816 930 30.4959
94.2979 1014 31.8434
94.4143 992 31.496
94.5307 1041 32.2645
94.6472 1062 32.5883
94.7637 1145 33.8378
94.8803 1155 33.9853
94.9969 1199 34.6266
95.1135 1196 34.5832
95.2302 1188 34.4674
95.3469 1231 35.0856
95.4637 1199 34.6266
95.5805 1286 35.8608
95.6973 1222 34.9571
95.8142 1235 35.1426
95.9311 1169 34.1906
96.048 1098 33.1361
96.1649 1080 32.8634
96.2819 1078 32.8329
96.3989 1020 31.9374
96.516 1062 32.5883
96.633 1011 31.7962
96.7501 929 30.4795
96.8673 937 30.6105
96.9844 978 31.273
97.1016 941 30.6757
97.2188 984 31.3688
97.336 974 31.209
97.4532 950 30.8221
97.5704 956 30.9192
97.6877 974 31.209
97.805 957 30.9354
97.9223 932 30.5287
98.0396 961 31
98.1569 972 31.1769
98.2743 1021 31.9531
98.3916 1091 33.0303
98.509 1091 33.0303
98.6264 1122 33.4963
98.7438 1157 34.0147
98.8612 1170 34.2053
98.9786 1187 34.4529
99.096 1153 33.9559
99.2134 1242 35.242
99.3308 1232 35.0999
99.4482 1174 34.2637
99.5656 1120 33.4664
99.6831 1111 33.3317
99.8005 1035 32.1714
99.9179 1030 32.0936
100.035 923 30.3809
100.153 857 29.2746
100.27 894 29.8998
100.388 914 30.2324
100.505 961 31
100.622 876 29.5973
100.74 888 29.7993
100.857 961 31
100.975 930 30.4959
101.092 938 30.6268
101.209 913 30.2159
101.327 838 28.9482
101.444 922 30.3645
101.561 908 30.133
101.679 933 30.545
101.796 984 31.3688
101.913 997 31.5753
102.03 1100 33.1662
102.148 1169 34.1906
102.265 1133 33.6601
102.382 1324 36.3868
102.499 1182 34.3802
102.616 1206 34.7275
102.733 1238 35.1852
102.851 1359 36.8646
102.968 1236 35.1568
103.085 1252 35.3836
103.202 1261 35.5106
103.319 1167 34.1614
103.436 1088 32.9848
103.552 1033 32.1403
103.669 1057 32.5115
103.786 996 31.5595
103.903 985 31.3847
104.02 1015 31.8591
104.137 1025 32.0156
104.253 963 31.0322
104.37 1004 31.686
104.487 992 31.496
104.603 948 30.7896
104.72 974 31.209
104.836 955 30.9031
104.953 941 30.6757
105.069 989 31.4484
105.186 1023 31.9844
105.302 1081 32.8786
105.418 1135 33.6898
105.535 1232 35.0999
105.651 1283 35.819
105.767 1282 35.805
105.883 1270 35.6371
105.999 1185 34.4238
106.115 0 1
106.231 0 1
106.347 0 1
106.463 0 1
106.579 0 1
106.694 0 1
106.81 0 1
106.926 0 1
107.041 0 1
107.157 0 1
109.576 0 1
109.692 0 1
109.807 0 1
109.923 0 1
110.039 0 1
110.155 0 1
110.27 0 1
110.386 0 1
110.502 0 1
110.618 1042 32.28
110.735 1128 33.5857
110.851 1089 33
110.967 1075 32.7872
111.083 1027 32.0468
111.199 1081 32.8786
111.316 1154 33.9706
111.432 1160 34.0588
111.549 1160 34.0588
111.665 1126 33.5559
111.782 1053 32.45
111.898 974 31.209
112.015 1013 31.8277
112.132 969 31.1288
112.248 886 29.7658
112.365 869 29.4788
112.482 889 29.8161
112.599 841 29
112.716 834 28.8791
112.832 798 28.2489
112.949 869 29.4788
113.066 820 28.6356
113.183 777 27.8747
113.3 732 27.0555
113.417 739 27.1846
113.534 740 27.2029
113.652 861 29.3428
113.769 837 28.931
113.886 855 29.2404
114.003 846 29.0861
114.12 996 31.5595
114.238 904 30.0666
114.355 955 30.9031
114.472 908 30.133
114.589 862 29.3598
114.707 872 29.5296
114.824 923 30.3809
114.942 927 30.4467
115.059 943 30.7083
115.176 895 29.9166
115.294 912 30.1993
115.411 837 28.931
115.529 828 28.775
115.646 794 28.178
115.764 771 27.7669
115.881 727 26.9629
115.999 695 26.3629
116.116 688 26.2298
116.234 633 25.1595
116.351 625 25
116.469 592 24.3311
116.586 574 23.9583
116.704 637 25.2389
116.821 607 24.6374
116.939 612 24.7386
117.056 655 25.593
117.174 614 24.779
117.291 651 25.5147
117.409 706 26.5707
117.526 672 25.923
117.644 725 26.9258
117.761 758 27.5318
117.879 794 28.178
117.996 661 25.7099
118.114 679 26.0576
118.231 695 26.3629
118.349 742 27.2397
118.466 729 27
118.584 772 27.7849
118.701 782 27.9643
118.819 803 28.3373
118.936 776 27.8568
119.053 750 27.3861
119.171 802 28.3196
119.288 734 27.0924
119.405 754 27.4591
119.523 767 27.6948
119.64 679 26.0576
119.757 681 26.096
119.875 611 24.7184
119.992 648 25.4558
120.109 655 25.593
120.226 639 25.2784
120.343 632 25.1396
120.46 669 25.865
120.578 693 26.3249
120.695 692 26.3059
120.812 714 26.7208
120.929 711 26.6646
121.046 785 28.0179
121.163 696 26.3818
121.279 770 27.7489
121.396 813 28.5132
121.513 871 29.5127
121.63 822 28.6705
121.747 775 27.8388
121.863 695 26.3629
121.98 734 27.0924
122.097 797 28.2312
122.213 840 28.9828
122.33 944 30.7246
122.446 911 30.1828
122.563 920 30.3315
122.679 880 29.6648
122.795 861 29.3428
122.912 940 30.6594
123.028 872 29.5296
123.144 863 29.3769
123.26 774 27.8209
123.377 0 1
123.493 0 1
123.609 0 1
123.725 0 1
123.84 0 1
123.956 0 1
124.072 0 1
124.188 0 1
124.303 0 1
124.419 0 1
126.852 0 1
126.968 0 1
127.083 0 1
127.199 0 1
127.315 0 1
127.431 0 1
127.547 0 1
127.663 0 1
127.779 0 1
127.895 0 1
128.011 0 1
128.127 0 1
128.243 0 1
128.359 1039 32.2335
128.476 1009 31.7648
128.592 929 30.4795
128.708 913 30.2159
128.825 905 30.0832
128.941 913 30.2159
129.058 829 28.7924
129.174 837 28.931
129.291 838 28.9482
129.408 889 29.8161
129.524 819 28.6182
129.641 873 29.5466
129.758 866 29.4279
129.875 903 30.05
129.992 862 29.3598
130.108 885 29.7489
130.225 847 29.1033
130.342 917 30.282
130.459 909 30.1496
130.576 834 28.8791
130.693 803 28.3373
130.81 626 25.02
130.928 671 25.9037
131.045 832 28.8444
131.162 866 29.4279
131.279 914 30.2324
131.396 863 29.3769
131.513 873 29.5466
131.631 868 29.4618
131.748 901 30.0167
131.865 921 30.348
131.983 819 28.6182
132.1 863 29.3769
132.217 819 28.6182
132.335 859 29.3087
132.452 764 27.6405
132.57 788 28.0713
132.687 716 26.7582
132.804 756 27.4955
132.922 725 26.9258
133.039 755 27.4773
133.157 726 26.9444
133.274 765 27.6586
133.392 775 27.8388
133.509 772 27.7849
133.627 774 27.8209
133.744 790 28.1069
133.862 777 27.8747
133.979 734 27.0924
134.097 728 26.9815
134.214 650 25.4951
134.332 477 21.8403
134.449 498 22.3159
134.567 675 25.9808
134.684 733 27.074
134.802 721 26.8514
134.919 683 26.1343
135.037 735 27.1109
135.154 711 26.6646
135.272 708 26.6083
135.389 753 27.4408
135.507 681 26.096
135.624 726 26.9444
135.742 671 25.9037
135.859 648 25.4558
135.977 660 25.6905
136.094 616 24.8193
136.211 636 25.219
136.329 625 25
136.446 590 24.2899
136.564 601 24.5153
136.681 572 23.9165
136.798 609 24.6779
136.915 596 24.4131
137.033 566 23.7908
137.15 615 24.7992
137.267 606 24.6171
137.384 607 24.6374
137.502 611 24.7184
137.619 583 24.1454
137.736 569 23.8537
137.853 440 20.9762
137.97 438 20.9284
138.087 433 20.8087
138.204 575 23.9792
138.321 584 24.1661
138.438 621 24.9199
138.555 655 25.593
138.672 646 25.4165
138.788 668 25.8457
138.905 715 26.7395
139.022 684 26.1534
139.139 669 25.865
139.255 691 26.2869
139.372 665 25.7876
139.488 644 25.3772
139.605 685 26.1725
139.721 662 25.7294
139.838 660 25.6905
139.954 666 25.807
140.071 655 25.593
140.187 733 27.074
140.303 668 25.8457
140.419 664 25.7682
140.535 621 24.9199
140.652 650 25.4951
140.768 0 1
140.884 0 1
141 0 1
141.115 0 1
141.231 0 1
141.347 0 1
141.463 0 1
141.578 0 1
141.694 0 1
144.104 0 1
144.219 0 1
144.335 0 1
144.45 0 1
144.566 0 1
144.682 0 1
144.798 0 1
144.914 0 1
145.03 0 1
145.146 526 22.9347
145.262 517 22.7376
145.378 553 23.516
145.494 497 22.2935
145.61 481 21.9317
145.726 507 22.5167
145.842 512 22.6274
145.959 493 22.2036
146.075 498 22.3159
146.192 435 20.8567
146.308 469 21.6564
146.425 518 22.7596
146.541 425 20.6155
146.658 386 19.6469
146.774 396 19.8997
146.891 417 20.4206
147.008 459 21.4243
147.125 452 21.2603
147.241 460 21.4476
147.358 400 20
147.475 437 20.9045
147.592 437 20.9045
147.709 424 20.5913
147.826 424 20.5913
147.943 415 20.3715
148.06 418 20.445
148.177 452 21.2603
148.294 392 19.799
148.411 449 21.1896
148.528 371 19.2614
148.645 389 19.7231
148.762 341 18.4662
148.88 375 19.3649
148.997 398 19.9499
149.114 383 19.5704
149.231 344 18.5472
149.349 363 19.0526
149.466 368 19.1833
149.583 351 18.735
149.701 362 19.0263
149.818 349 18.6815
149.935 344 18.5472
150.053 384 19.5959
150.17 346 18.6011
150.287 343 18.5203
150.405 341 18.4662
150.522 376 19.3907
150.64 417 20.4206
150.757 372 19.2873
150.875 419 20.4695
150.992 351 18.735
151.11 394 19.8494
151.227 360 18.9737
151.344 377 19.4165
151.462 380 19.4936
151.579 410 20.2485
151.697 393 19.8242
151.814 390 19.7484
151.932 404 20.0998
152.049 381 19.5192
152.167 389 19.7231
152.284 405 20.1246
152.402 411 20.2731
152.519 404 20.0998
152.636 337 18.3576
152.754 406 20.1494
152.871 387 19.6723
152.989 391 19.7737
153.106 412 20.2978
153.223 420 20.4939
153.341 363 19.0526
153.458 379 19.4679
153.575 373 19.3132
153.693 346 18.6011
153.81 430 20.7364
153.927 419 20.4695
154.044 451 21.2368
154.162 470 21.6795
154.279 466 21.587
154.396 469 21.6564
154.513 488 22.0907
154.63 494 22.2261
154.747 495 22.2486
154.864 504 22.4499
154.981 483 21.9773
155.098 496 22.2711
155.215 510 22.5832
155.332 466 21.587
155.449 514 22.6716
155.566 525 22.9129
155.683 470 21.6795
155.8 445 21.095
155.917 493 22.2036
156.033 470 21.6795
156.15 0 1
156.267 0 1
156.383 0 1
156.5 0 1
156.617 0 1
156.733 0 1
156.85 0 1
156.966 0 1
157.082 0 1
157.199 0 1
157.315 0 1
157.431 0 1
157.547 0 1
157.664 0 1
157.78 0 1
157.896 0 1
158.012 0 1
158.128 0 1
158.244 0 1
158.359 0 1
158.475 0 1
158.591 0 1
158.706 0 1
