
6.15755 0 1
6.2731 0 1
6.3887 0 1
6.50437 0 1
6.62009 0 1
6.73587 0 1
6.8517 0 1
6.96759 0 1
7.08353 0 1
7.19952 0 1
7.31557 0 1
7.43166 0 1
7.54781 0 1
7.664 0 1
7.78024 0 1
7.89653 0 1
8.01286 0 1
8.12924 0 1
8.24567 0 1
8.36213 0 1
8.47864 0 1
8.59519 0 1
8.71178 0 1
8.82841 0 1
8.94508 0 1
9.06179 0 1
9.17853 0 1
9.29531 0 1
9.41212 0 1
9.52897 0 1
9.64584 0 1
9.76276 0 1
9.8797 0 1
9.99667 0 1
10.1137 0 1
10.2307 0 1
10.3478 0 1
10.4648 0 1
10.5819 0 1
10.6991 0 1
10.8162 0 1
10.9334 0 1
11.0506 0 1
11.1678 0 1
11.285 0 1
11.4023 0 1
11.5196 0 1
11.6369 0 1
11.7542 0 1
11.8715 0 1
11.9888 0 1
12.1062 0 1
12.2235 0 1
12.3409 0 1
12.4582 0 1
12.5756 0 1
12.693 0 1
12.8104 0 1
12.9278 0 1
13.0452 0 1
13.1626 0 1
13.28 0 1
13.3974 0 1
13.5149 0 1
13.6323 0 1
13.7497 0 1
13.8671 0 1
13.9845 0 1
14.1019 0 1
14.2193 0 1
14.3367 0 1
14.4541 0 1
14.5714 0 1
14.6888 0 1
14.8062 0 1
14.9235 0 1
15.0408 0 0
15.1581 0 0
15.2755 0 0
15.3927 0 0
15.51 0 0
15.6273 0 0
15.7445 0 0
15.8617 0 0
15.9789 0 0
16.0961 0 0
16.2132 0 0
16.3304 0 0
16.4475 0 0
16.5646 0 0
16.6816 0 0
16.7986 0 0
16.9156 0 0
17.0326 0 0
17.1496 0 0
17.2665 0 0
17.3833 0 0
17.5002 0 0
17.617 0 0
17.7338 0 0
17.8505 0 0
17.9672 0 0
18.0839 0 0
18.2005 0 0
18.3171 0 0
18.4337 0 0
18.5502 0 0
18.6666 0 0
18.7831 0 0
18.8994 0 0
19.0158 0 0
19.1321 0 0
19.2483 0 0
19.3645 0 0
19.4806 0 0
19.5967 0 0
19.7128 0 0
19.8288 0 0
19.9447 0 0
20.0606 0 1
20.1764 0 1
20.2922 0 1
20.4079 0 1
20.5236 0 1
20.6392 0 1
20.7548 0 1
20.8702 0 1
23.3078 0 1
23.4233 0 1
23.539 0 1
23.6547 0 1
23.7704 0 1
23.8862 0 1
24.0021 0 1
24.118 0 1
24.234 0 1
24.35 0 1
24.4661 60464 245.894
24.5822 60956 246.893
24.6984 60195 245.347
24.8146 59551 244.031
24.9309 59279 243.473
25.0472 58030 240.894
25.1636 56466 237.626
25.28 56391 237.468
25.3965 57672 240.15
25.513 59352 243.623
25.6296 61366 247.722
25.7462 64790 254.539
25.8628 66759 258.378
25.9795 68618 261.95
26.0962 69310 263.268
26.213 70031 264.634
26.3298 68254 261.255
26.4466 68469 261.666
26.5635 66936 258.72
26.6804 63872 252.729
26.7973 61154 247.293
26.9143 61157 247.299
27.0313 62611 250.222
27.1483 65316 255.57
27.2653 66951 258.749
27.3824 68563 261.845
27.4996 68696 262.099
27.6167 67583 259.967
27.7339 66434 257.748
27.8511 65553 256.033
27.9683 64608 254.181
28.0855 63558 252.107
28.2028 63065 251.127
28.3201 61690 248.375
28.4374 60397 245.758
28.5547 58571 242.014
28.6721 56350 237.382
28.7894 56573 237.851
28.9068 56804 238.336
29.0242 57945 240.718
29.1416 59667 244.268
29.259 61362 247.714
29.3764 64077 253.134
29.4939 65873 256.657
29.6113 67783 260.352
29.7288 68096 260.952
29.8463 68001 260.77
29.9638 68019 260.805
30.0812 66224 257.34
30.1987 62705 250.41
30.3162 60390 245.744
30.4337 59475 243.875
30.5512 62489 249.978
30.6687 64403 253.777
30.7862 65364 255.664
30.9037 68234 261.216
31.0212 68552 261.824
31.1387 68904 262.496
31.2562 68190 261.132
31.3737 67284 259.392
31.4912 66376 257.635
31.6087 65274 255.488
31.7262 64326 253.626
31.8436 63461 251.915
31.9611 61827 248.65
32.0785 60832 246.641
32.1959 58231 241.311
32.3134 57033 238.816
32.4308 57502 239.796
32.5482 58967 242.831
32.6655 60413 245.791
32.7829 61890 248.777
32.9002 64728 254.417
33.0176 67139 259.112
33.1349 68323 261.387
33.2522 68034 260.833
33.3694 69939 264.46
33.4867 69006 262.69
33.6039 69025 262.726
33.7211 66654 258.174
33.8383 64234 253.444
33.9554 60670 246.313
34.0725 59222 243.356
34.1896 60704 246.382
34.3067 63198 251.392
34.4237 65882 256.675
34.5407 67219 259.266
34.6577 68267 261.28
34.7746 68338 261.415
34.8915 67782 260.35
35.0084 66965 258.776
35.1252 65883 256.677
35.242 65487 255.904
35.3587 64356 253.685
35.4755 63436 251.865
35.5921 62236 249.471
35.7088 60668 246.309
35.8254 59049 243
35.9419 56535 237.771
36.0584 55210 234.968
36.1749 55851 236.328
36.2913 57361 239.502
36.4077 58406 241.673
36.524 59761 244.461
36.6403 62108 249.215
36.7565 65035 255.02
36.8727 66416 257.713
36.9889 66420 257.721
37.1049 66302 257.492
37.221 0 1
37.3369 0 1
37.4529 0 1
37.5687 0 1
37.6845 0 1
37.8003 0 1
37.916 0 1
38.0316 0 1
38.1472 0 1
40.5851 0 1
40.7008 0 1
40.8164 0 1
40.9322 0 1
41.048 0 1
41.1639 0 1
41.2798 0 1
41.3958 0 1
41.5118 0 1
41.6279 0 1
41.744 49928 223.446
41.8602 54404 233.247
41.9765 56155 236.97
42.0928 57322 239.42
42.2091 58482 241.831
42.3255 59376 243.672
42.4419 59012 242.924
42.5584 56666 238.046
42.675 52636 229.425
42.7915 50216 224.089
42.9081 50165 223.975
43.0248 52181 228.432
43.1415 54618 233.705
43.2582 56294 237.264
43.375 57458 239.704
43.4918 58378 241.615
43.6087 58049 240.934
43.7256 57351 239.481
43.8425 56103 236.861
43.9595 55036 234.598
44.0765 53569 231.45
44.1935 53239 230.736
44.3106 52280 228.648
44.4277 50582 224.904
44.5448 48738 220.767
44.6619 45554 213.434
44.7791 43577 208.751
44.8963 43188 207.817
45.0136 43592 208.787
45.1308 44519 210.995
45.2481 45659 213.68
45.3654 47443 217.814
45.4827 50463 224.64
45.6001 49535 222.565
45.7174 50219 224.096
45.8348 49919 223.426
45.9522 49833 223.233
46.0697 48130 219.386
46.1871 44910 211.92
46.3046 41870 204.622
46.422 40040 200.1
46.5395 41159 202.877
46.657 42319 205.716
46.7745 44381 210.668
46.892 45138 212.457
47.0096 45855 214.138
47.1271 45467 213.23
47.2446 44923 211.95
47.3622 44160 210.143
47.4797 43045 207.473
47.5973 42563 206.308
47.7149 40904 202.247
47.8324 39781 199.452
47.95 38707 196.741
48.0675 38240 195.551
48.1851 35779 189.153
48.3027 33719 183.627
48.4202 32950 181.521
48.5378 33487 182.995
48.6554 34541 185.852
48.7729 35802 189.214
48.8904 38000 194.936
49.008 39886 199.715
49.1255 40906 202.252
49.243 41499 203.713
49.3605 41893 204.678
49.478 41754 204.338
49.5955 40209 200.522
49.713 37702 194.17
49.8304 35521 188.47
49.9479 35126 187.419
50.0653 36483 191.005
50.1827 39538 198.842
50.3001 41590 203.936
50.4175 43583 208.765
50.5348 45060 212.273
50.6521 46178 214.891
50.7694 47199 217.253
50.8867 47415 217.75
51.004 47680 218.358
51.1212 47397 217.709
51.2384 47846 218.737
51.3556 47576 218.119
51.4727 46633 215.947
51.5899 46109 214.73
51.707 44446 210.822
51.824 42932 207.2
51.9411 42808 206.901
52.0581 43998 209.757
52.175 45918 214.285
52.2919 48093 219.301
52.4088 51831 227.664
52.5257 54310 233.045
52.6425 55279 235.115
52.7593 55821 236.265
52.876 56534 237.769
52.9927 56580 237.866
53.1094 56855 238.443
53.226 54169 232.742
53.3426 50906 225.624
53.4591 48547 220.334
53.5756 47421 217.764
53.692 50171 223.989
53.8084 53044 230.313
53.9248 55574 235.741
54.0411 57251 239.272
54.1573 58468 241.802
54.2735 0 1
54.3896 0 1
54.5057 0 1
54.6217 0 1
54.7377 0 1
54.8537 0 1
54.9695 0 1
55.0853 0 1
55.2011 0 1
55.3168 0 1
55.4324 0 1
57.824 0 1
57.9396 0 1
58.0553 0 1
58.1711 0 1
58.2869 0 1
58.4028 0 1
58.5187 0 1
58.6347 0 1
58.7508 0 1
58.8669 0 1
58.983 59615 244.162
59.0992 64303 253.58
59.2155 66730 258.322
59.3318 68742 262.187
59.4482 70080 264.726
59.5646 70390 265.311
59.681 69380 263.401
59.7975 68896 262.48
59.9141 67925 260.624
60.0306 65675 256.271
60.1473 64789 254.537
60.2639 61754 248.504
60.3807 59756 244.45
60.4974 56756 238.235
60.6142 56083 236.818
60.731 56094 236.842
60.8479 56928 238.596
60.9648 59191 243.292
61.0818 62528 250.056
61.1987 64164 253.306
61.3158 65281 255.501
61.4328 65375 255.685
61.5499 65415 255.764
61.667 64078 253.136
61.7841 61082 247.148
61.9013 58671 242.221
62.0185 55609 235.816
62.1357 55171 234.885
62.253 56356 237.394
62.3702 59362 243.643
62.4875 62066 249.13
62.6049 63583 252.157
62.7222 65889 256.689
62.8396 65566 256.059
62.9569 66377 257.637
63.0743 66672 258.209
63.1918 65934 256.776
63.3092 64740 254.441
63.4267 63579 252.149
63.5441 61990 248.978
63.6616 59716 244.369
63.7791 57986 240.803
63.8966 54627 233.724
64.0142 52586 229.316
64.1317 51090 226.031
64.2492 51366 226.641
64.3668 53003 230.224
64.4843 55384 235.338
64.6019 58087 241.012
64.7195 59917 244.779
64.837 61364 247.718
64.9546 61263 247.514
65.0722 61125 247.235
65.1898 60077 245.106
65.3074 58366 241.591
65.4249 54730 233.944
65.5425 51759 227.506
65.6601 49902 223.388
65.7777 50847 225.493
65.8952 53381 231.043
66.0128 56082 236.816
66.1304 58855 242.6
66.2479 60776 246.528
66.3655 62028 249.054
66.483 63226 251.448
66.6005 63062 251.121
66.718 62422 249.844
66.8355 62263 249.526
66.953 61689 248.373
67.0705 60039 245.029
67.1879 58082 241.002
67.3054 56576 237.857
67.4228 54055 232.497
67.5402 51261 226.409
67.6576 49066 221.508
67.7749 48266 219.695
67.8923 48496 220.218
68.0096 51105 226.064
68.1269 53724 231.784
68.2442 57030 238.81
68.3614 60025 245
68.4787 60863 246.704
68.5958 60581 246.132
68.713 60842 246.662
68.8302 60544 246.057
68.9473 58618 242.112
69.0643 55070 234.67
69.1814 51824 227.649
69.2984 50252 224.17
69.4154 50939 225.697
69.5323 54576 233.615
69.6492 57491 239.773
69.7661 59997 244.943
69.8829 63587 252.165
69.9997 64733 254.427
70.1165 65141 255.227
70.2332 65541 256.01
70.3499 65622 256.168
70.4665 64632 254.228
70.5831 64055 253.091
70.6996 62338 249.676
70.8161 61498 247.988
70.9326 58916 242.726
71.049 56599 237.905
71.1653 53716 231.767
71.2817 49621 222.758
71.3979 46854 216.458
71.5141 47560 218.083
71.6303 47147 217.134
71.7464 44836 211.745
71.8624 0 1
71.9784 0 1
72.0944 0 1
72.2102 0 1
72.3261 0 1
72.4418 0 1
72.5575 0 1
72.6732 0 1
75.1054 0 1
75.2209 0 1
75.3365 0 1
75.4521 0 1
75.5678 0 1
75.6835 0 1
75.7993 0 1
75.9151 0 1
76.031 0 1
76.147 52444 229.007
76.263 56554 237.811
76.3791 56535 237.771
76.4952 53871 232.101
76.6113 50818 225.428
76.7276 48038 219.176
76.8438 48381 219.957
76.9601 49931 223.452
77.0765 52357 228.817
77.1929 56233 237.135
77.3093 60505 245.978
77.4258 62006 249.01
77.5423 61843 248.683
77.6589 61580 248.153
77.7755 61578 248.149
77.8921 59841 244.624
78.0088 55977 236.595
78.1256 51446 226.817
78.2423 48893 221.118
78.3591 46724 216.157
78.4759 47941 218.954
78.5928 52398 228.906
78.7097 55606 235.809
78.8266 58406 241.673
78.9436 61850 248.697
79.0606 62300 249.6
79.1776 63664 252.317
79.2946 63680 252.349
79.4117 63811 252.608
79.5288 63275 251.545
79.6459 62251 249.502
79.7631 60682 246.337
79.8802 58352 241.562
79.9974 56607 237.922
80.1147 53504 231.309
80.2319 50099 223.828
80.3491 46844 216.435
80.4664 47162 217.168
80.5837 48246 219.65
80.701 50494 224.709
80.8183 53923 232.213
80.9357 57580 239.958
81.053 59270 243.454
81.1704 59018 242.936
81.2877 58708 242.297
81.4051 58560 241.992
81.5225 57829 240.477
81.6399 53093 230.419
81.7573 50145 223.931
81.8747 46019 214.52
81.9922 44305 210.488
82.1096 45088 212.339
82.227 49050 221.472
82.3444 52568 229.277
82.4619 55609 235.816
82.5793 58072 240.981
82.6967 56915 238.569
82.8142 58297 241.448
82.9316 59148 243.204
83.049 59070 243.043
83.1664 57790 240.396
83.2838 56932 238.604
83.4012 54976 234.47
83.5186 53363 231.004
83.636 51714 227.407
83.7534 48674 220.622
83.8708 45483 213.267
83.9881 42571 206.327
84.1055 42388 205.883
84.2228 44140 210.095
84.3401 46683 216.062
84.4575 49474 222.428
84.5747 53984 232.345
84.692 55746 236.106
84.8093 55993 236.628
84.9265 55723 236.057
85.0437 55093 234.719
85.1609 52392 228.893
85.2781 48740 220.771
85.3952 45968 214.401
85.5123 43431 208.401
85.6294 43240 207.942
85.7465 46695 216.09
85.8636 51399 226.713
85.9806 54764 234.017
86.0976 57687 240.181
86.2145 59444 243.811
86.3315 60961 246.903
86.4484 63358 251.71
86.5652 63580 252.151
86.682 63735 252.458
86.7988 63760 252.507
86.9156 62281 249.562
87.0323 60708 246.39
87.149 58598 242.07
87.2657 57253 239.276
87.3823 54036 232.456
87.4988 50452 224.615
87.6154 49053 221.479
87.7318 50515 224.755
87.8483 53665 231.657
87.9647 57949 240.726
88.081 62068 249.135
88.1973 63756 252.5
88.3136 64815 254.588
88.4298 64008 252.998
88.546 63103 251.203
88.6621 61190 247.366
88.7781 57118 238.994
88.8942 0 1
89.0101 0 1
89.126 0 1
89.2419 0 1
89.3577 0 1
89.4734 0 1
89.5891 0 1
89.7047 0 1
89.8203 0 1
89.9358 0 1
92.3269 0 1
92.4424 0 1
92.558 0 1
92.6736 0 1
92.7893 0 1
92.905 0 1
93.0208 0 1
93.1366 0 1
93.2525 0 1
93.3685 0 1
93.4845 0 1
93.6005 62527 250.054
93.7167 63725 252.438
93.8328 64551 254.069
93.949 63151 251.299
94.0653 62257 249.514
94.1816 60330 245.622
94.2979 56318 237.314
94.4143 53024 230.269
94.5307 51489 226.912
94.6472 50832 225.46
94.7637 51771 227.532
94.8803 56495 237.687
94.9969 60326 245.614
95.1135 63360 251.714
95.2302 65437 255.807
95.3469 67529 259.863
95.4637 68593 261.903
95.5805 69172 263.006
95.6973 71438 267.279
95.8142 71330 267.077
95.9311 70423 265.373
96.048 68799 262.296
96.1649 67821 260.425
96.2819 65366 255.668
96.3989 63251 251.498
96.516 60855 246.688
96.633 56721 238.162
96.7501 55451 235.48
96.8673 55350 235.266
96.9844 58121 241.083
97.1016 61790 248.576
97.2188 66027 256.957
97.336 69828 264.25
97.4532 71134 266.71
97.5704 71228 266.886
97.6877 69810 264.216
97.805 67485 259.779
97.9223 63171 251.338
98.0396 58555 241.981
98.1569 55365 235.298
98.2743 54376 233.187
98.3916 55486 235.555
98.509 59712 244.36
98.6264 63498 251.988
98.7438 67558 259.919
98.8612 70964 266.391
98.9786 72668 269.57
99.096 74629 273.183
99.2134 75346 274.492
99.3308 76561 276.697
99.4482 76439 276.476
99.5656 75433 274.651
99.6831 74641 273.205
99.8005 72358 268.994
99.9179 70286 265.115
100.035 67172 259.176
100.153 64169 253.316
100.27 60649 246.27
100.388 59387 243.694
100.505 61608 248.21
100.622 65245 255.431
100.74 70875 266.224
100.857 73269 270.682
100.975 74489 272.927
101.092 75195 274.217
101.209 74914 273.704
101.327 73007 270.198
101.444 69806 264.208
101.561 64144 253.267
101.679 60083 245.118
101.796 57954 240.736
101.913 57476 239.742
102.03 60581 246.132
102.148 66462 257.802
102.265 76500 276.586
102.382 69666 263.943
102.499 76904 277.316
102.616 78047 279.369
102.733 79895 282.657
102.851 81036 284.668
102.968 81330 285.184
103.085 81007 284.617
103.202 79271 281.551
103.319 77843 279.004
103.436 75361 274.52
103.552 72802 269.818
103.669 69150 262.964
103.786 64837 254.631
103.903 63258 251.511
104.02 66029 256.961
104.137 70051 264.671
104.253 77220 277.885
104.37 76499 276.585
104.487 80917 284.459
104.603 80862 284.362
104.72 80091 283.004
104.836 78405 280.009
104.953 73297 270.734
105.069 67577 259.956
105.186 64088 253.156
105.302 61804 248.604
105.418 62383 249.766
105.535 67070 258.979
105.651 73601 271.295
105.767 77998 279.281
105.883 80698 284.074
105.999 83321 288.654
106.115 0 1
106.231 0 1
106.347 0 1
106.463 0 1
106.579 0 1
106.694 0 1
106.81 0 1
106.926 0 1
107.041 0 1
107.157 0 1
109.576 0 1
109.692 0 1
109.807 0 1
109.923 0 1
110.039 0 1
110.155 0 1
110.27 0 1
110.386 0 1
110.502 0 1
110.618 64759 254.478
110.735 72054 268.429
110.851 75708 275.151
110.967 78349 279.909
111.083 80342 283.447
111.199 81172 284.907
111.316 83088 288.25
111.432 83413 288.813
111.549 83398 288.787
111.665 82882 287.892
111.782 80427 283.597
111.898 78266 279.761
112.015 76193 276.031
112.132 72374 269.024
112.248 67807 260.398
112.365 64643 254.25
112.482 66249 257.389
112.599 67816 260.415
112.716 72697 269.624
112.832 77178 277.809
112.949 78738 280.603
113.066 79997 282.837
113.183 78872 280.842
113.3 78571 280.305
113.417 75164 274.161
113.534 70059 264.687
113.652 65608 256.141
113.769 61942 248.881
113.886 60511 245.99
114.003 59826 244.594
114.12 65631 256.185
114.238 71647 267.67
114.355 74899 273.677
114.472 81471 285.431
114.589 74715 273.34
114.707 80744 284.155
114.824 81005 284.614
114.942 81880 286.147
115.059 82170 286.653
115.176 81327 285.179
115.294 79538 282.025
115.411 77771 278.875
115.529 75824 275.362
115.646 72764 269.748
115.764 69055 262.783
115.881 64129 253.237
115.999 63592 252.175
116.116 65589 256.103
116.234 70324 265.187
116.351 74237 272.465
116.469 76035 275.744
116.586 76225 276.089
116.704 75858 275.423
116.821 75516 274.802
116.939 73498 271.105
117.056 68936 262.557
117.174 65171 255.286
117.291 60839 246.656
117.409 58157 241.158
117.526 57462 239.712
117.644 60671 246.315
117.761 65374 255.683
117.879 69797 264.191
117.996 71708 267.783
118.114 73753 271.575
118.231 75685 275.109
118.349 76567 276.707
118.466 76992 277.474
118.584 76911 277.328
118.701 77508 278.403
118.819 76101 275.864
118.936 74410 272.782
119.053 72263 268.818
119.171 70635 265.772
119.288 67876 260.53
119.405 63982 252.947
119.523 60568 246.106
119.64 60636 246.244
119.757 62242 249.483
119.875 65597 256.119
119.992 68804 262.305
120.109 70840 266.158
120.226 70710 265.914
120.343 71428 267.26
120.46 70566 265.643
120.578 69497 263.623
120.695 65858 256.628
120.812 62146 249.291
120.929 58619 242.114
121.046 56630 237.971
121.163 55470 235.521
121.279 56659 238.032
121.396 60320 245.601
121.513 65370 255.676
121.63 67435 259.682
121.747 70391 265.313
121.863 71418 267.241
121.98 71825 268.002
122.097 73683 271.446
122.213 73076 270.326
122.33 73102 270.374
122.446 72087 268.49
122.563 70983 266.426
122.679 69569 263.759
122.795 68484 261.694
122.912 65430 255.793
123.028 63039 251.076
123.144 59444 243.811
123.26 56990 238.726
123.377 0 1
123.493 0 1
123.609 0 1
123.725 0 1
123.84 0 1
123.956 0 1
124.072 0 1
124.188 0 1
124.303 0 1
124.419 0 1
126.852 0 1
126.968 0 1
127.083 0 1
127.199 0 1
127.315 0 1
127.431 0 1
127.547 0 1
127.663 0 1
127.779 0 1
127.895 0 1
128.011 0 1
128.127 0 1
128.243 0 1
128.359 63899 252.783
128.476 62438 249.876
128.592 61293 247.574
128.708 64043 253.067
128.825 67098 259.033
128.941 71143 266.726
129.058 72526 269.307
129.174 73025 270.231
129.291 72524 269.303
129.408 71790 267.937
129.524 69899 264.384
129.641 65973 256.852
129.758 62644 250.288
129.875 59632 244.197
129.992 57143 239.046
130.108 57066 238.885
130.225 59039 242.979
130.342 63181 251.358
130.459 65959 256.825
130.576 71055 266.561
130.693 70939 266.344
130.81 72096 268.507
130.928 72809 269.831
131.045 73227 270.605
131.162 74243 272.476
131.279 74170 272.342
131.396 74621 273.168
131.513 73361 270.852
131.631 71556 267.5
131.748 70259 265.064
131.865 67415 259.644
131.983 64243 253.462
132.1 62844 250.687
132.217 64247 253.47
132.335 67624 260.046
132.452 70521 265.558
132.57 72939 270.072
132.687 70041 264.653
132.804 74669 273.256
132.922 72656 269.548
133.039 70689 265.874
133.157 67876 260.53
133.274 63492 251.976
133.392 60902 246.783
133.509 58708 242.297
133.627 57452 239.691
133.744 58881 242.654
133.862 62075 249.149
133.979 65718 256.355
134.097 68186 261.124
134.214 70926 266.319
134.332 71258 266.942
134.449 72502 269.262
134.567 73091 270.353
134.684 74678 273.273
134.802 74922 273.719
134.919 74846 273.58
135.037 73812 271.684
135.154 72751 269.724
135.272 69945 264.471
135.389 68790 262.278
135.507 65677 256.275
135.624 63044 251.086
135.742 64074 253.128
135.859 66286 257.461
135.977 69713 264.032
136.094 71994 268.317
136.211 72424 269.117
136.329 73180 270.518
136.446 72725 269.676
136.564 71875 268.095
136.681 69243 263.141
136.798 66074 257.049
136.915 62791 250.581
137.033 59750 244.438
137.15 58107 241.054
137.267 57259 239.289
137.384 58492 241.851
137.502 62101 249.201
137.619 65028 255.006
137.736 67531 259.867
137.853 67689 260.171
137.97 70784 266.053
138.087 70692 265.88
138.204 72529 269.312
138.321 73384 270.895
138.438 73926 271.893
138.555 74845 273.578
138.672 74375 272.718
138.788 74012 272.051
138.905 71855 268.058
139.022 70346 265.228
139.139 67834 260.45
139.255 65591 256.107
139.372 65950 256.807
139.488 68090 260.941
139.605 72131 268.572
139.721 73914 271.871
139.838 75201 274.228
139.954 75252 274.321
140.071 74488 272.925
140.187 74783 273.465
140.303 71753 267.868
140.419 67209 259.247
140.535 64111 253.202
140.652 61591 248.175
140.768 0 1
140.884 0 1
141 0 1
141.115 0 1
141.231 0 1
141.347 0 1
141.463 0 1
141.578 0 1
141.694 0 1
144.104 0 1
144.219 0 1
144.335 0 1
144.45 0 1
144.566 0 1
144.682 0 1
144.798 0 1
144.914 0 1
145.03 0 1
145.146 63562 252.115
145.262 63163 251.323
145.378 60579 246.128
145.494 57700 240.208
145.61 55473 235.527
145.726 54152 232.706
145.842 51908 227.833
145.959 51995 228.024
146.075 54637 233.746
146.192 57069 238.891
146.308 59352 243.623
146.425 60912 246.804
146.541 61595 248.183
146.658 62680 250.36
146.774 63251 251.498
146.891 64450 253.87
147.008 64207 253.391
147.125 66111 257.121
147.241 65792 256.5
147.358 65143 255.231
147.475 63861 252.707
147.592 62132 249.263
147.709 59154 243.216
147.826 56959 238.661
147.943 56464 237.622
148.06 57268 239.307
148.177 60042 245.035
148.294 63165 251.326
148.411 63922 252.828
148.528 64216 253.409
148.645 63490 251.972
148.762 63093 251.183
148.88 62563 250.126
148.997 58040 240.915
149.114 58021 240.875
149.231 54196 232.8
149.349 53106 230.447
149.466 50043 223.703
149.583 50114 223.862
149.701 51018 225.872
149.818 53907 232.179
149.935 55385 235.34
150.053 57293 239.36
150.17 58298 241.45
150.287 59206 243.323
150.405 60561 246.091
150.522 61180 247.346
150.64 62241 249.481
150.757 62885 250.769
150.875 62603 250.206
150.992 61799 248.594
151.11 60651 246.274
151.227 59760 244.459
151.344 57199 239.163
151.462 54466 233.38
151.579 54914 234.337
151.697 55637 235.875
151.814 58714 242.31
151.932 61565 248.123
152.049 62598 250.196
152.167 61578 248.149
152.284 62416 249.832
152.402 61744 248.483
152.519 59678 244.291
152.636 57596 239.992
152.754 55259 235.072
152.871 53379 231.039
152.989 51704 227.385
153.106 50649 225.053
153.223 49836 223.24
153.341 52455 229.031
153.458 54378 233.191
153.575 55998 236.639
153.693 57216 239.199
153.81 58345 241.547
153.927 60342 245.646
154.044 61626 248.246
154.162 62301 249.602
154.279 63633 252.256
154.396 64624 254.213
154.513 64517 254.002
154.63 64534 254.035
154.747 64097 253.174
154.864 63154 251.305
154.981 60492 245.951
155.098 58291 241.435
155.215 57819 240.456
155.332 59876 244.696
155.449 62312 249.624
155.566 63818 252.622
155.683 65146 255.237
155.8 64718 254.397
155.917 64635 254.234
156.033 64432 253.835
156.15 0 1
156.267 0 1
156.383 0 1
156.5 0 1
156.617 0 1
156.733 0 1
156.85 0 1
156.966 0 1
157.082 0 1
157.199 0 1
157.315 0 1
157.431 0 1
157.547 0 1
157.664 0 1
157.78 0 1
157.896 0 1
158.012 0 1
158.128 0 1
158.244 0 1
158.359 0 1
158.475 0 1
158.591 0 1
158.706 0 1
