
6.15755 0 1
6.2731 0 1
6.3887 0 1
6.50437 0 1
6.62009 0 1
6.73587 0 1
6.8517 0 1
6.96759 0 1
7.08353 0 1
7.19952 0 1
7.31557 0 1
7.43166 0 1
7.54781 0 1
7.664 0 1
7.78024 0 1
7.89653 0 1
8.01286 0 1
8.12924 0 1
8.24567 0 1
8.36213 0 1
8.47864 0 1
8.59519 0 1
8.71178 0 1
8.82841 0 1
8.94508 0 1
9.06179 0 1
9.17853 0 1
9.29531 0 1
9.41212 0 1
9.52897 0 1
9.64584 0 1
9.76276 0 1
9.8797 0 1
9.99667 0 1
10.1137 0 1
10.2307 0 1
10.3478 0 1
10.4648 0 1
10.5819 0 1
10.6991 0 1
10.8162 0 1
10.9334 0 1
11.0506 0 1
11.1678 0 1
11.285 0 1
11.4023 0 1
11.5196 0 1
11.6369 0 1
11.7542 0 1
11.8715 0 1
11.9888 0 1
12.1062 0 1
12.2235 0 1
12.3409 0 1
12.4582 0 1
12.5756 0 1
12.693 0 1
12.8104 0 1
12.9278 0 1
13.0452 0 1
13.1626 0 1
13.28 0 1
13.3974 0 1
13.5149 0 1
13.6323 0 1
13.7497 0 1
13.8671 0 1
13.9845 0 1
14.1019 0 1
14.2193 0 1
14.3367 0 1
14.4541 0 1
14.5714 0 1
14.6888 0 1
14.8062 0 1
14.9235 0 1
15.0408 1010 31.7805
15.1581 1075 32.7872
15.2755 1074 32.7719
15.3927 1013 31.8277
15.51 1057 32.5115
15.6273 1043 32.2955
15.7445 1015 31.8591
15.8617 1009 31.7648
15.9789 968 31.1127
16.0961 937 30.6105
16.2132 961 31
16.3304 931 30.5123
16.4475 889 29.8161
16.5646 890 29.8329
16.6816 851 29.1719
16.7986 918 30.2985
16.9156 940 30.6594
17.0326 891 29.8496
17.1496 870 29.4958
17.2665 894 29.8998
17.3833 853 29.2062
17.5002 898 29.9666
17.617 947 30.7734
17.7338 905 30.0832
17.8505 886 29.7658
17.9672 976 31.241
18.0839 899 29.9833
18.2005 834 28.8791
18.3171 818 28.6007
18.4337 833 28.8617
18.5502 913 30.2159
18.6666 884 29.7321
18.7831 879 29.6479
18.8994 909 30.1496
19.0158 876 29.5973
19.1321 797 28.2312
19.2483 799 28.2666
19.3645 767 27.6948
19.4806 728 26.9815
19.5967 704 26.533
19.7128 585 24.1868
19.8288 476 21.8174
19.9447 532 23.0651
20.0606 0 1
20.1764 0 1
20.2922 0 1
20.4079 0 1
20.5236 0 1
20.6392 0 1
20.7548 0 1
20.8702 0 1
23.3078 0 1
23.4233 0 1
23.539 0 1
23.6547 0 1
23.7704 0 1
23.8862 0 1
24.0021 0 1
24.118 0 1
24.234 0 1
24.35 0 1
24.4661 368 19.1833
24.5822 425 20.6155
24.6984 457 21.3776
24.8146 543 23.3024
24.9309 646 25.4165
25.0472 692 26.3059
25.1636 728 26.9815
25.28 787 28.0535
25.3965 865 29.4109
25.513 916 30.2655
25.6296 883 29.7153
25.7462 901 30.0167
25.8628 930 30.4959
25.9795 908 30.133
26.0962 866 29.4279
26.213 943 30.7083
26.3298 905 30.0832
26.4466 792 28.1425
26.5635 842 29.0172
26.6804 807 28.4077
26.7973 704 26.533
26.9143 736 27.1293
27.0313 705 26.5518
27.1483 728 26.9815
27.2653 746 27.313
27.3824 781 27.9464
27.4996 815 28.5482
27.6167 815 28.5482
27.7339 774 27.8209
27.8511 806 28.3901
27.9683 843 29.0345
28.0855 823 28.688
28.2028 787 28.0535
28.3201 718 26.7955
28.4374 766 27.6767
28.5547 741 27.2213
28.6721 753 27.4408
28.7894 823 28.688
28.9068 819 28.6182
29.0242 829 28.7924
29.1416 796 28.2135
29.259 836 28.9137
29.3764 833 28.8617
29.4939 783 27.9821
29.6113 826 28.7402
29.7288 837 28.931
29.8463 756 27.4955
29.9638 780 27.9285
30.0812 708 26.6083
30.1987 720 26.8328
30.3162 657 25.632
30.4337 691 26.2869
30.5512 717 26.7769
30.6687 712 26.6833
30.7862 813 28.5132
30.9037 840 28.9828
31.0212 806 28.3901
31.1387 827 28.7576
31.2562 851 29.1719
31.3737 798 28.2489
31.4912 819 28.6182
31.6087 819 28.6182
31.7262 788 28.0713
31.8436 786 28.0357
31.9611 765 27.6586
32.0785 709 26.6271
32.1959 774 27.8209
32.3134 702 26.4953
32.4308 787 28.0535
32.5482 723 26.8887
32.6655 737 27.1477
32.7829 705 26.5518
32.9002 743 27.258
33.0176 720 26.8328
33.1349 744 27.2764
33.2522 711 26.6646
33.3694 728 26.9815
33.4867 726 26.9444
33.6039 721 26.8514
33.7211 730 27.0185
33.8383 694 26.3439
33.9554 615 24.7992
34.0725 629 25.0799
34.1896 673 25.9422
34.3067 726 26.9444
34.4237 725 26.9258
34.5407 733 27.074
34.6577 717 26.7769
34.7746 752 27.4226
34.8915 751 27.4044
35.0084 753 27.4408
35.1252 709 26.6271
35.242 746 27.313
35.3587 668 25.8457
35.4755 678 26.0384
35.5921 645 25.3969
35.7088 636 25.219
35.8254 658 25.6515
35.9419 709 26.6271
36.0584 656 25.6125
36.1749 705 26.5518
36.2913 629 25.0799
36.4077 613 24.7588
36.524 610 24.6982
36.6403 555 23.5584
36.7565 562 23.7065
36.8727 508 22.5389
36.9889 507 22.5167
37.1049 493 22.2036
37.221 0 1
37.3369 0 1
37.4529 0 1
37.5687 0 1
37.6845 0 1
37.8003 0 1
37.916 0 1
38.0316 0 1
38.1472 0 1
40.5851 0 1
40.7008 0 1
40.8164 0 1
40.9322 0 1
41.048 0 1
41.1639 0 1
41.2798 0 1
41.3958 0 1
41.5118 0 1
41.6279 0 1
41.744 333 18.2483
41.8602 367 19.1572
41.9765 433 20.8087
42.0928 492 22.1811
42.2091 472 21.7256
42.3255 490 22.1359
42.4419 505 22.4722
42.5584 511 22.6053
42.675 485 22.0227
42.7915 464 21.5407
42.9081 520 22.8035
43.0248 481 21.9317
43.1415 562 23.7065
43.2582 513 22.6495
43.375 589 24.2693
43.4918 540 23.2379
43.6087 573 23.9374
43.7256 552 23.4947
43.8425 519 22.7816
43.9595 518 22.7596
44.0765 538 23.1948
44.1935 489 22.1133
44.3106 475 21.7945
44.4277 445 21.095
44.5448 473 21.7486
44.6619 537 23.1733
44.7791 545 23.3452
44.8963 555 23.5584
45.0136 591 24.3105
45.1308 566 23.7908
45.2481 527 22.9565
45.3654 558 23.622
45.4827 542 23.2809
45.6001 563 23.7276
45.7174 584 24.1661
45.8348 597 24.4336
45.9522 617 24.8395
46.0697 536 23.1517
46.1871 560 23.6643
46.3046 490 22.1359
46.422 466 21.587
46.5395 450 21.2132
46.657 471 21.7025
46.7745 492 22.1811
46.892 519 22.7816
47.0096 532 23.0651
47.1271 556 23.5797
47.2446 515 22.6936
47.3622 570 23.8747
47.4797 592 24.3311
47.5973 535 23.1301
47.7149 512 22.6274
47.8324 469 21.6564
47.95 483 21.9773
48.0675 474 21.7715
48.1851 524 22.891
48.3027 518 22.7596
48.4202 599 24.4745
48.5378 537 23.1733
48.6554 534 23.1084
48.7729 565 23.7697
48.8904 579 24.0624
49.008 525 22.9129
49.1255 546 23.3666
49.243 578 24.0416
49.3605 515 22.6936
49.478 491 22.1585
49.5955 500 22.3607
49.713 489 22.1133
49.8304 445 21.095
49.9479 447 21.1424
50.0653 447 21.1424
50.1827 466 21.587
50.3001 489 22.1133
50.4175 474 21.7715
50.5348 477 21.8403
50.6521 567 23.8118
50.7694 553 23.516
50.8867 504 22.4499
51.004 546 23.3666
51.1212 512 22.6274
51.2384 475 21.7945
51.3556 499 22.3383
51.4727 444 21.0713
51.5899 498 22.3159
51.707 469 21.6564
51.824 535 23.1301
51.9411 506 22.4944
52.0581 546 23.3666
52.175 530 23.0217
52.2919 505 22.4722
52.4088 507 22.5167
52.5257 553 23.516
52.6425 525 22.9129
52.7593 547 23.388
52.876 522 22.8473
52.9927 501 22.383
53.1094 510 22.5832
53.226 466 21.587
53.3426 503 22.4277
53.4591 421 20.5183
53.5756 409 20.2237
53.692 395 19.8746
53.8084 424 20.5913
53.9248 435 20.8567
54.0411 389 19.7231
54.1573 379 19.4679
54.2735 0 1
54.3896 0 1
54.5057 0 1
54.6217 0 1
54.7377 0 1
54.8537 0 1
54.9695 0 1
55.0853 0 1
55.2011 0 1
55.3168 0 1
55.4324 0 1
57.824 0 1
57.9396 0 1
58.0553 0 1
58.1711 0 1
58.2869 0 1
58.4028 0 1
58.5187 0 1
58.6347 0 1
58.7508 0 1
58.8669 0 1
58.983 469 21.6564
59.0992 552 23.4947
59.2155 724 26.9072
59.3318 860 29.3258
59.4482 912 30.1993
59.5646 936 30.5941
59.681 961 31
59.7975 879 29.6479
59.9141 983 31.3528
60.0306 987 31.4166
60.1473 993 31.5119
60.2639 1039 32.2335
60.3807 1031 32.1092
60.4974 1091 33.0303
60.6142 1082 32.8938
60.731 1026 32.0312
60.8479 1048 32.3728
60.9648 1020 31.9374
61.0818 1003 31.6702
61.1987 966 31.0805
61.3158 1064 32.619
61.4328 941 30.6757
61.5499 914 30.2324
61.667 918 30.2985
61.7841 884 29.7321
61.9013 744 27.2764
62.0185 788 28.0713
62.1357 764 27.6405
62.253 733 27.074
62.3702 703 26.5141
62.4875 732 27.0555
62.6049 715 26.7395
62.7222 716 26.7582
62.8396 747 27.3313
62.9569 716 26.7582
63.0743 666 25.807
63.1918 719 26.8142
63.3092 652 25.5343
63.4267 663 25.7488
63.5441 643 25.3574
63.6616 617 24.8395
63.7791 630 25.0998
63.8966 652 25.5343
64.0142 663 25.7488
64.1317 646 25.4165
64.2492 629 25.0799
64.3668 594 24.3721
64.4843 654 25.5734
64.6019 611 24.7184
64.7195 640 25.2982
64.837 617 24.8395
64.9546 637 25.2389
65.0722 628 25.0599
65.1898 586 24.2074
65.3074 607 24.6374
65.4249 564 23.7487
65.5425 555 23.5584
65.6601 577 24.0208
65.7777 527 22.9565
65.8952 537 23.1733
66.0128 638 25.2587
66.1304 599 24.4745
66.2479 611 24.7184
66.3655 603 24.5561
66.483 623 24.96
66.6005 642 25.3377
66.718 616 24.8193
66.8355 580 24.0832
66.953 585 24.1868
67.0705 577 24.0208
67.1879 571 23.8956
67.3054 542 23.2809
67.4228 579 24.0624
67.5402 652 25.5343
67.6576 652 25.5343
67.7749 611 24.7184
67.8923 638 25.2587
68.0096 636 25.219
68.1269 606 24.6171
68.2442 588 24.2487
68.3614 613 24.7588
68.4787 567 23.8118
68.5958 569 23.8537
68.713 608 24.6577
68.8302 583 24.1454
68.9473 617 24.8395
69.0643 572 23.9165
69.1814 541 23.2594
69.2984 550 23.4521
69.4154 568 23.8328
69.5323 523 22.8692
69.6492 599 24.4745
69.7661 545 23.3452
69.8829 580 24.0832
69.9997 601 24.5153
70.1165 600 24.4949
70.2332 574 23.9583
70.3499 591 24.3105
70.4665 508 22.5389
70.5831 492 22.1811
70.6996 436 20.8806
70.8161 469 21.6564
70.9326 424 20.5913
71.049 407 20.1742
71.1653 332 18.2209
71.2817 347 18.6279
71.3979 329 18.1384
71.5141 281 16.7631
71.6303 256 16
71.7464 216 14.6969
71.8624 0 1
71.9784 0 1
72.0944 0 1
72.2102 0 1
72.3261 0 1
72.4418 0 1
72.5575 0 1
72.6732 0 1
75.1054 0 1
75.2209 0 1
75.3365 0 1
75.4521 0 1
75.5678 0 1
75.6835 0 1
75.7993 0 1
75.9151 0 1
76.031 0 1
76.147 364 19.0788
76.263 388 19.6977
76.3791 422 20.5426
76.4952 498 22.3159
76.6113 536 23.1517
76.7276 503 22.4277
76.8438 493 22.2036
76.9601 514 22.6716
77.0765 544 23.3238
77.1929 526 22.9347
77.3093 491 22.1585
77.4258 495 22.2486
77.5423 481 21.9317
77.6589 469 21.6564
77.7755 524 22.891
77.8921 507 22.5167
78.0088 490 22.1359
78.1256 500 22.3607
78.2423 442 21.0238
78.3591 486 22.0454
78.4759 436 20.8806
78.5928 512 22.6274
78.7097 478 21.8632
78.8266 491 22.1585
78.9436 532 23.0651
79.0606 503 22.4277
79.1776 560 23.6643
79.2946 490 22.1359
79.4117 517 22.7376
79.5288 508 22.5389
79.6459 499 22.3383
79.7631 451 21.2368
79.8802 485 22.0227
79.9974 564 23.7487
80.1147 508 22.5389
80.2319 582 24.1247
80.3491 541 23.2594
80.4664 536 23.1517
80.5837 515 22.6936
80.701 511 22.6053
80.8183 547 23.388
80.9357 541 23.2594
81.053 519 22.7816
81.1704 530 23.0217
81.2877 561 23.6854
81.4051 525 22.9129
81.5225 529 23
81.6399 528 22.9783
81.7573 507 22.5167
81.8747 485 22.0227
81.9922 515 22.6936
82.1096 429 20.7123
82.227 461 21.4709
82.3444 459 21.4243
82.4619 518 22.7596
82.5793 540 23.2379
82.6967 539 23.2164
82.8142 567 23.8118
82.9316 530 23.0217
83.049 540 23.2379
83.1664 508 22.5389
83.2838 522 22.8473
83.4012 496 22.2711
83.5186 566 23.7908
83.636 560 23.6643
83.7534 578 24.0416
83.8708 566 23.7908
83.9881 556 23.5797
84.1055 587 24.2281
84.2228 577 24.0208
84.3401 569 23.8537
84.4575 526 22.9347
84.5747 536 23.1517
84.692 499 22.3383
84.8093 542 23.2809
84.9265 516 22.7156
85.0437 578 24.0416
85.1609 541 23.2594
85.2781 555 23.5584
85.3952 525 22.9129
85.5123 562 23.7065
85.6294 502 22.4054
85.7465 483 21.9773
85.8636 539 23.2164
85.9806 496 22.2711
86.0976 522 22.8473
86.2145 565 23.7697
86.3315 570 23.8747
86.4484 571 23.8956
86.5652 569 23.8537
86.682 581 24.1039
86.7988 578 24.0416
86.9156 556 23.5797
87.0323 530 23.0217
87.149 576 24
87.2657 556 23.5797
87.3823 588 24.2487
87.4988 558 23.622
87.6154 591 24.3105
87.7318 546 23.3666
87.8483 489 22.1133
87.9647 498 22.3159
88.081 453 21.2838
88.1973 450 21.2132
88.3136 362 19.0263
88.4298 358 18.9209
88.546 352 18.7617
88.6621 341 18.4662
88.7781 351 18.735
88.8942 0 1
89.0101 0 1
89.126 0 1
89.2419 0 1
89.3577 0 1
89.4734 0 1
89.5891 0 1
89.7047 0 1
89.8203 0 1
89.9358 0 1
92.3269 0 1
92.4424 0 1
92.558 0 1
92.6736 0 1
92.7893 0 1
92.905 0 1
93.0208 0 1
93.1366 0 1
93.2525 0 1
93.3685 0 1
93.4845 0 1
93.6005 455 21.3307
93.7167 504 22.4499
93.8328 558 23.622
93.949 567 23.8118
94.0653 593 24.3516
94.1816 559 23.6432
94.2979 623 24.96
94.4143 581 24.1039
94.5307 554 23.5372
94.6472 537 23.1733
94.7637 539 23.2164
94.8803 565 23.7697
94.9969 541 23.2594
95.1135 533 23.0868
95.2302 551 23.4734
95.3469 574 23.9583
95.4637 641 25.318
95.5805 593 24.3516
95.6973 627 25.04
95.8142 608 24.6577
95.9311 585 24.1868
96.048 568 23.8328
96.1649 585 24.1868
96.2819 590 24.2899
96.3989 637 25.2389
96.516 626 25.02
96.633 602 24.5357
96.7501 658 25.6515
96.8673 626 25.02
96.9844 605 24.5967
97.1016 620 24.8998
97.2188 597 24.4336
97.336 585 24.1868
97.4532 546 23.3666
97.5704 627 25.04
97.6877 620 24.8998
97.805 616 24.8193
97.9223 576 24
98.0396 565 23.7697
98.1569 582 24.1247
98.2743 628 25.0599
98.3916 601 24.5153
98.509 570 23.8747
98.6264 589 24.2693
98.7438 584 24.1661
98.8612 652 25.5343
98.9786 625 25
99.096 609 24.6779
99.2134 647 25.4362
99.3308 634 25.1794
99.4482 681 26.096
99.5656 628 25.0599
99.6831 650 25.4951
99.8005 658 25.6515
99.9179 642 25.3377
100.035 635 25.1992
100.153 643 25.3574
100.27 629 25.0799
100.388 674 25.9615
100.505 699 26.4386
100.622 668 25.8457
100.74 644 25.3772
100.857 660 25.6905
100.975 633 25.1595
101.092 660 25.6905
101.209 594 24.3721
101.327 667 25.8263
101.444 633 25.1595
101.561 634 25.1794
101.679 598 24.454
101.796 601 24.5153
101.913 617 24.8395
102.03 587 24.2281
102.148 656 25.6125
102.265 645 25.3969
102.382 626 25.02
102.499 654 25.5734
102.616 669 25.865
102.733 702 26.4953
102.851 685 26.1725
102.968 668 25.8457
103.085 693 26.3249
103.202 686 26.1916
103.319 623 24.96
103.436 681 26.096
103.552 712 26.6833
103.669 707 26.5895
103.786 707 26.5895
103.903 699 26.4386
104.02 693 26.3249
104.137 655 25.593
104.253 698 26.4197
104.37 647 25.4362
104.487 675 25.9808
104.603 667 25.8263
104.72 663 25.7488
104.836 656 25.6125
104.953 641 25.318
105.069 594 24.3721
105.186 557 23.6008
105.302 565 23.7697
105.418 504 22.4499
105.535 401 20.025
105.651 433 20.8087
105.767 380 19.4936
105.883 393 19.8242
105.999 346 18.6011
106.115 0 1
106.231 0 1
106.347 0 1
106.463 0 1
106.579 0 1
106.694 0 1
106.81 0 1
106.926 0 1
107.041 0 1
107.157 0 1
109.576 0 1
109.692 0 1
109.807 0 1
109.923 0 1
110.039 0 1
110.155 0 1
110.27 0 1
110.386 0 1
110.502 0 1
110.618 348 18.6548
110.735 373 19.3132
110.851 447 21.1424
110.967 445 21.095
111.083 507 22.5167
111.199 530 23.0217
111.316 646 25.4165
111.432 634 25.1794
111.549 643 25.3574
111.665 643 25.3574
111.782 636 25.219
111.898 608 24.6577
112.015 622 24.9399
112.132 579 24.0624
112.248 614 24.779
112.365 635 25.1992
112.482 660 25.6905
112.599 619 24.8797
112.716 630 25.0998
112.832 573 23.9374
112.949 594 24.3721
113.066 579 24.0624
113.183 575 23.9792
113.3 570 23.8747
113.417 593 24.3516
113.534 578 24.0416
113.652 555 23.5584
113.769 563 23.7276
113.886 573 23.9374
114.003 554 23.5372
114.12 532 23.0651
114.238 533 23.0868
114.355 498 22.3159
114.472 509 22.561
114.589 513 22.6495
114.707 501 22.383
114.824 553 23.516
114.942 553 23.516
115.059 600 24.4949
115.176 565 23.7697
115.294 544 23.3238
115.411 588 24.2487
115.529 559 23.6432
115.646 562 23.7065
115.764 528 22.9783
115.881 550 23.4521
115.999 564 23.7487
116.116 616 24.8193
116.234 580 24.0832
116.351 524 22.891
116.469 537 23.1733
116.586 499 22.3383
116.704 550 23.4521
116.821 594 24.3721
116.939 530 23.0217
117.056 563 23.7276
117.174 542 23.2809
117.291 569 23.8537
117.409 534 23.1084
117.526 511 22.6053
117.644 513 22.6495
117.761 508 22.5389
117.879 508 22.5389
117.996 489 22.1133
118.114 522 22.8473
118.231 495 22.2486
118.349 469 21.6564
118.466 524 22.891
118.584 527 22.9565
118.701 495 22.2486
118.819 494 22.2261
118.936 510 22.5832
119.053 512 22.6274
119.171 478 21.8632
119.288 508 22.5389
119.405 466 21.587
119.523 479 21.8861
119.64 516 22.7156
119.757 556 23.5797
119.875 556 23.5797
119.992 509 22.561
120.109 516 22.7156
120.226 468 21.6333
120.343 491 22.1585
120.46 484 22
120.578 472 21.7256
120.695 516 22.7156
120.812 511 22.6053
120.929 508 22.5389
121.046 504 22.4499
121.163 513 22.6495
121.279 471 21.7025
121.396 457 21.3776
121.513 431 20.7605
121.63 390 19.7484
121.747 414 20.347
121.863 386 19.6469
121.98 392 19.799
122.097 441 21
122.213 407 20.1742
122.33 371 19.2614
122.446 357 18.8944
122.563 361 19
122.679 342 18.4932
122.795 343 18.5203
122.912 317 17.8045
123.028 307 17.5214
123.144 283 16.8226
123.26 259 16.0935
123.377 0 1
123.493 0 1
123.609 0 1
123.725 0 1
123.84 0 1
123.956 0 1
124.072 0 1
124.188 0 1
124.303 0 1
124.419 0 1
126.852 0 1
126.968 0 1
127.083 0 1
127.199 0 1
127.315 0 1
127.431 0 1
127.547 0 1
127.663 0 1
127.779 0 1
127.895 0 1
128.011 0 1
128.127 0 1
128.243 0 1
128.359 539 23.2164
128.476 542 23.2809
128.592 488 22.0907
128.708 540 23.2379
128.825 592 24.3311
128.941 576 24
129.058 582 24.1247
129.174 554 23.5372
129.291 603 24.5561
129.408 552 23.4947
129.524 545 23.3452
129.641 589 24.2693
129.758 619 24.8797
129.875 573 23.9374
129.992 579 24.0624
130.108 633 25.1595
130.225 641 25.318
130.342 614 24.779
130.459 568 23.8328
130.576 630 25.0998
130.693 606 24.6171
130.81 653 25.5539
130.928 709 26.6271
131.045 710 26.6458
131.162 808 28.4253
131.279 808 28.4253
131.396 909 30.1496
131.513 973 31.1929
131.631 993 31.5119
131.748 1087 32.9697
131.865 1152 33.9411
131.983 1173 34.2491
132.1 1387 37.2424
132.217 1456 38.1576
132.335 1461 38.223
132.452 1505 38.7943
132.57 1480 38.4708
132.687 1605 40.0625
132.804 1588 39.8497
132.922 1652 40.6448
133.039 1607 40.0874
133.157 1606 40.0749
133.274 1692 41.1339
133.392 1836 42.8486
133.509 1701 41.2432
133.627 1829 42.7668
133.744 1722 41.497
133.862 1836 42.8486
133.979 1753 41.8688
134.097 1688 41.0853
134.214 1648 40.5956
134.332 1719 41.4608
134.449 1576 39.6989
134.567 1669 40.8534
134.684 1954 44.2041
134.802 2166 46.5403
134.919 2380 48.7852
135.037 2680 51.7687
135.154 2688 51.8459
135.272 2967 54.4702
135.389 3203 56.5951
135.507 3460 58.8218
135.624 3801 61.6523
135.742 4189 64.7225
135.859 4544 67.4092
135.977 4955 70.3918
136.094 5075 71.239
136.211 5446 73.797
136.329 5685 75.3989
136.446 5749 75.8222
136.564 6093 78.0577
136.681 6264 79.1454
136.798 6561 81
136.915 6582 81.1295
137.033 6880 82.9458
137.15 7296 85.4166
137.267 7487 86.5275
137.384 7728 87.909
137.502 7442 86.267
137.619 6999 83.66
137.736 5524 74.3236
137.853 3493 59.1016
137.97 2896 53.8145
138.087 4513 67.1789
138.204 6737 82.0792
138.321 7672 87.59
138.438 7653 87.4814
138.555 7938 89.0955
138.672 8172 90.3991
138.788 8047 89.7051
138.905 7913 88.955
139.022 7212 84.9235
139.139 6410 80.0625
139.255 6258 79.1075
139.372 6124 78.256
139.488 5959 77.1946
139.605 6083 77.9936
139.721 6211 78.8099
139.838 6121 78.2368
139.954 6158 78.4729
140.071 6072 77.923
140.187 6321 79.5047
140.303 6163 78.5048
140.419 6432 80.1998
140.535 6650 81.5475
140.652 6691 81.7985
140.768 0 1
140.884 0 1
141 0 1
141.115 0 1
141.231 0 1
141.347 0 1
141.463 0 1
141.578 0 1
141.694 0 1
144.104 0 1
144.219 0 1
144.335 0 1
144.45 0 1
144.566 0 1
144.682 0 1
144.798 0 1
144.914 0 1
145.03 0 1
145.146 21403 146.298
145.262 26583 163.043
145.378 30020 173.263
145.494 32528 180.355
145.61 33690 183.548
145.726 35348 188.011
145.842 36091 189.976
145.959 36894 192.078
146.075 36793 191.815
146.192 35608 188.701
146.308 33266 182.39
146.425 30400 174.356
146.541 27983 167.281
146.658 26750 163.554
146.774 28488 168.784
146.891 32013 178.922
147.008 36601 191.314
147.125 39614 199.033
147.241 42361 205.818
147.358 43636 208.892
147.475 44848 211.773
147.592 45973 214.413
147.709 47011 216.82
147.826 46669 216.03
147.943 46800 216.333
148.06 45516 213.345
148.177 44902 211.901
148.294 43471 208.497
148.411 42676 206.582
148.528 40972 202.415
148.645 40427 201.065
148.762 39911 199.777
148.88 38740 196.825
148.997 38659 196.619
149.114 36750 191.703
149.231 36251 190.397
149.349 35709 188.968
149.466 32085 179.123
149.583 28890 169.971
149.701 25070 158.335
149.818 22054 148.506
149.935 20550 143.353
150.053 21054 145.1
150.17 23059 151.852
150.287 24758 157.347
150.405 25161 158.622
150.522 24240 155.692
150.64 22500 150
150.757 20268 142.366
150.875 18554 136.213
150.992 19336 139.054
151.11 19227 138.661
151.227 18322 135.359
151.344 17090 130.729
151.462 16159 127.118
151.579 15053 122.691
151.697 14434 120.142
151.814 13693 117.017
151.932 13104 114.473
152.049 12624 112.357
152.167 12221 110.549
152.284 11416 106.846
152.402 11031 105.029
152.519 10873 104.274
152.636 10549 102.708
152.754 10354 101.755
152.871 9754 98.7623
152.989 8685 93.1933
153.106 7565 86.977
153.223 6708 81.9024
153.341 5670 75.2994
153.458 5212 72.1942
153.575 5199 72.1041
153.693 5824 76.3151
153.81 6641 81.4923
153.927 6758 82.2071
154.044 6312 79.4481
154.162 5525 74.3303
154.279 5506 74.2024
154.396 5677 75.3459
154.513 5996 77.4338
154.63 5848 76.4722
154.747 5813 76.243
154.864 5517 74.2765
154.981 5167 71.8818
155.098 4934 70.2424
155.215 4791 69.217
155.332 4588 67.7348
155.449 4349 65.9469
155.566 4306 65.6201
155.683 4040 63.561
155.8 3989 63.1585
155.917 3752 61.2536
156.033 3471 58.9152
156.15 0 1
156.267 0 1
156.383 0 1
156.5 0 1
156.617 0 1
156.733 0 1
156.85 0 1
156.966 0 1
157.082 0 1
157.199 0 1
157.315 0 1
157.431 0 1
157.547 0 1
157.664 0 1
157.78 0 1
157.896 0 1
158.012 0 1
158.128 0 1
158.244 0 1
158.359 0 1
158.475 0 1
158.591 0 1
158.706 0 1
