
6.15755 0 1
6.2731 0 1
6.3887 0 1
6.50437 0 1
6.62009 0 1
6.73587 0 1
6.8517 0 1
6.96759 0 1
7.08353 0 1
7.19952 0 1
7.31557 0 1
7.43166 0 1
7.54781 0 1
7.664 0 1
7.78024 0 1
7.89653 0 1
8.01286 0 1
8.12924 0 1
8.24567 0 1
8.36213 0 1
8.47864 0 1
8.59519 0 1
8.71178 0 1
8.82841 0 1
8.94508 0 1
9.06179 0 1
9.17853 0 1
9.29531 0 1
9.41212 0 1
9.52897 0 1
9.64584 0 1
9.76276 0 1
9.8797 0 1
9.99667 0 1
10.1137 0 1
10.2307 0 1
10.3478 0 1
10.4648 0 1
10.5819 0 1
10.6991 0 1
10.8162 0 1
10.9334 0 1
11.0506 0 1
11.1678 0 1
11.285 0 1
11.4023 0 1
11.5196 0 1
11.6369 0 1
11.7542 0 1
11.8715 0 1
11.9888 0 1
12.1062 0 1
12.2235 0 1
12.3409 0 1
12.4582 0 1
12.5756 0 1
12.693 0 1
12.8104 0 1
12.9278 0 1
13.0452 0 1
13.1626 0 1
13.28 0 1
13.3974 0 1
13.5149 0 1
13.6323 0 1
13.7497 0 1
13.8671 0 1
13.9845 0 1
14.1019 0 1
14.2193 0 1
14.3367 0 1
14.4541 0 1
14.5714 0 1
14.6888 0 1
14.8062 0 1
14.9235 0 1
15.0408 0 0
15.1581 0 0
15.2755 0 0
15.3927 0 0
15.51 0 0
15.6273 0 0
15.7445 0 0
15.8617 0 0
15.9789 0 0
16.0961 0 0
16.2132 0 0
16.3304 0 0
16.4475 0 0
16.5646 0 0
16.6816 0 0
16.7986 0 0
16.9156 0 0
17.0326 0 0
17.1496 0 0
17.2665 0 0
17.3833 0 0
17.5002 0 0
17.617 0 0
17.7338 0 0
17.8505 0 0
17.9672 0 0
18.0839 0 0
18.2005 0 0
18.3171 0 0
18.4337 0 0
18.5502 0 0
18.6666 0 0
18.7831 0 0
18.8994 0 0
19.0158 0 0
19.1321 0 0
19.2483 0 0
19.3645 0 0
19.4806 0 0
19.5967 0 0
19.7128 0 0
19.8288 0 0
19.9447 0 0
20.0606 0 1
20.1764 0 1
20.2922 0 1
20.4079 0 1
20.5236 0 1
20.6392 0 1
20.7548 0 1
20.8702 0 1
23.3078 0 1
23.4233 0 1
23.539 0 1
23.6547 0 1
23.7704 0 1
23.8862 0 1
24.0021 0 1
24.118 0 1
24.234 0 1
24.35 0 1
24.4661 1746 41.7852
24.5822 1793 42.3438
24.6984 1834 42.8252
24.8146 1665 40.8044
24.9309 1763 41.9881
25.0472 1789 42.2966
25.1636 1772 42.0951
25.28 1766 42.0238
25.3965 1735 41.6533
25.513 1889 43.4626
25.6296 1826 42.7317
25.7462 1769 42.0595
25.8628 1758 41.9285
25.9795 1793 42.3438
26.0962 1841 42.9069
26.213 1852 43.0349
26.3298 1856 43.0813
26.4466 1801 42.4382
26.5635 1713 41.3884
26.6804 1519 38.9744
26.7973 1508 38.833
26.9143 1521 39
27.0313 1625 40.3113
27.1483 1669 40.8534
27.2653 1709 41.3401
27.3824 1762 41.9762
27.4996 1798 42.4028
27.6167 1775 42.1307
27.7339 1733 41.6293
27.8511 1748 41.8091
27.9683 1729 41.5812
28.0855 1701 41.2432
28.2028 1720 41.4729
28.3201 1661 40.7554
28.4374 1746 41.7852
28.5547 1676 40.939
28.6721 1760 41.9524
28.7894 1821 42.6732
28.9068 1815 42.6028
29.0242 1773 42.107
29.1416 1743 41.7493
29.259 1798 42.4028
29.3764 1743 41.7493
29.4939 1759 41.9404
29.6113 1741 41.7253
29.7288 1795 42.3674
29.8463 1660 40.7431
29.9638 1678 40.9634
30.0812 1547 39.3319
30.1987 1422 37.7094
30.3162 1408 37.5233
30.4337 1424 37.7359
30.5512 1527 39.0768
30.6687 1618 40.2244
30.7862 1796 42.3792
30.9037 1682 41.0122
31.0212 1847 42.9767
31.1387 1784 42.2374
31.2562 1715 41.4126
31.3737 1669 40.8534
31.4912 1730 41.5933
31.6087 1756 41.9047
31.7262 1708 41.328
31.8436 1797 42.391
31.9611 1720 41.4729
32.0785 1786 42.2611
32.1959 1831 42.7902
32.3134 1823 42.6966
32.4308 1790 42.3084
32.5482 1767 42.0357
32.6655 1848 42.9884
32.7829 1707 41.3159
32.9002 1779 42.1782
33.0176 1703 41.2674
33.1349 1762 41.9762
33.2522 1803 42.4617
33.3694 1651 40.6325
33.4867 1751 41.845
33.6039 1739 41.7013
33.7211 1575 39.6863
33.8383 1498 38.704
33.9554 1385 37.2156
34.0725 1377 37.108
34.1896 1459 38.1969
34.3067 1610 40.1248
34.4237 1702 41.2553
34.5407 1716 41.4246
34.6577 1815 42.6028
34.7746 1798 42.4028
34.8915 1828 42.7551
35.0084 1810 42.5441
35.1252 1798 42.4028
35.242 1795 42.3674
35.3587 1662 40.7676
35.4755 1739 41.7013
35.5921 1727 41.5572
35.7088 1780 42.19
35.8254 1703 41.2674
35.9419 1787 42.2729
36.0584 1763 41.9881
36.1749 1802 42.45
36.2913 1803 42.4617
36.4077 1809 42.5323
36.524 1786 42.2611
36.6403 1731 41.6053
36.7565 1845 42.9535
36.8727 1760 41.9524
36.9889 1785 42.2493
37.1049 1764 42
37.221 0 1
37.3369 0 1
37.4529 0 1
37.5687 0 1
37.6845 0 1
37.8003 0 1
37.916 0 1
38.0316 0 1
38.1472 0 1
40.5851 0 1
40.7008 0 1
40.8164 0 1
40.9322 0 1
41.048 0 1
41.1639 0 1
41.2798 0 1
41.3958 0 1
41.5118 0 1
41.6279 0 1
41.744 1490 38.6005
41.8602 1552 39.3954
41.9765 1542 39.2683
42.0928 1598 39.975
42.2091 1516 38.9358
42.3255 1531 39.128
42.4419 1428 37.7889
42.5584 1336 36.5513
42.675 1251 35.3695
42.7915 1151 33.9264
42.9081 1220 34.9285
43.0248 1379 37.1349
43.1415 1483 38.5097
43.2582 1473 38.3797
43.375 1558 39.4715
43.4918 1623 40.2865
43.6087 1543 39.281
43.7256 1562 39.5221
43.8425 1523 39.0256
43.9595 1483 38.5097
44.0765 1483 38.5097
44.1935 1387 37.2424
44.3106 1443 37.9868
44.4277 1394 37.3363
44.5448 1418 37.6563
44.6619 1376 37.0945
44.7791 1301 36.0694
44.8963 1416 37.6298
45.0136 1292 35.9444
45.1308 1468 38.3145
45.2481 1406 37.4967
45.3654 1383 37.1887
45.4827 1451 38.092
45.6001 1369 37
45.7174 1420 37.6829
45.8348 1404 37.47
45.9522 1350 36.7423
46.0697 1297 36.0139
46.1871 1124 33.5261
46.3046 1003 31.6702
46.422 1067 32.665
46.5395 1088 32.9848
46.657 1243 35.2562
46.7745 1348 36.7151
46.892 1280 35.7771
47.0096 1276 35.7211
47.1271 1326 36.4143
47.2446 1337 36.565
47.3622 1337 36.565
47.4797 1254 35.4119
47.5973 1196 34.5832
47.7149 1249 35.3412
47.8324 1202 34.6699
47.95 1173 34.2491
48.0675 1179 34.3366
48.1851 1150 33.9116
48.3027 1109 33.3017
48.4202 1159 34.0441
48.5378 1219 34.9142
48.6554 1180 34.3511
48.7729 1231 35.0856
48.8904 1175 34.2783
49.008 1243 35.2562
49.1255 1332 36.4966
49.243 1234 35.1283
49.3605 1198 34.6121
49.478 1286 35.8608
49.5955 1131 33.6303
49.713 1036 32.187
49.8304 974 31.209
49.9479 1008 31.749
50.0653 1083 32.909
50.1827 1155 33.9853
50.3001 1298 36.0278
50.4175 1501 38.7427
50.5348 1466 38.2884
50.6521 1604 40.05
50.7694 1608 40.0999
50.8867 1569 39.6106
51.004 1669 40.8534
51.1212 1613 40.1622
51.2384 1593 39.9124
51.3556 1596 39.95
51.4727 1621 40.2616
51.5899 1633 40.4104
51.707 1604 40.05
51.824 1703 41.2674
51.9411 1804 42.4735
52.0581 1913 43.7379
52.175 1844 42.9418
52.2919 1834 42.8252
52.4088 1949 44.1475
52.5257 2045 45.2217
52.6425 2137 46.2277
52.7593 2022 44.9667
52.876 2106 45.8912
52.9927 2053 45.31
53.1094 2020 44.9444
53.226 1883 43.3935
53.3426 1728 41.5692
53.4591 1574 39.6737
53.5756 1612 40.1497
53.692 1801 42.4382
53.8084 2029 45.0444
53.9248 2179 46.6798
54.0411 2223 47.1487
54.1573 2154 46.4112
54.2735 0 1
54.3896 0 1
54.5057 0 1
54.6217 0 1
54.7377 0 1
54.8537 0 1
54.9695 0 1
55.0853 0 1
55.2011 0 1
55.3168 0 1
55.4324 0 1
57.824 0 1
57.9396 0 1
58.0553 0 1
58.1711 0 1
58.2869 0 1
58.4028 0 1
58.5187 0 1
58.6347 0 1
58.7508 0 1
58.8669 0 1
58.983 2927 54.1018
59.0992 2980 54.5894
59.2155 3163 56.2406
59.3318 3189 56.4712
59.4482 3231 56.8419
59.5646 3210 56.6569
59.681 3307 57.5065
59.7975 3301 57.4543
59.9141 3148 56.107
60.0306 2994 54.7175
60.1473 3070 55.4076
60.2639 2873 53.6004
60.3807 2930 54.1295
60.4974 3085 55.5428
60.6142 2978 54.5711
60.731 3169 56.2939
60.8479 3308 57.5152
60.9648 3335 57.7495
61.0818 3361 57.9741
61.1987 3176 56.356
61.3158 3391 58.2323
61.4328 3263 57.1227
61.5499 3292 57.376
61.667 3078 55.4797
61.7841 2930 54.1295
61.9013 2740 52.345
62.0185 2540 50.3984
62.1357 2588 50.8724
62.253 2653 51.5073
62.3702 3042 55.1543
62.4875 3223 56.7715
62.6049 3444 58.6856
62.7222 3631 60.2578
62.8396 3537 59.4727
62.9569 3580 59.8331
63.0743 3611 60.0916
63.1918 3583 59.8582
63.3092 3399 58.3009
63.4267 3504 59.1946
63.5441 3383 58.1636
63.6616 3143 56.0625
63.7791 3053 55.254
63.8966 3165 56.2583
64.0142 3290 57.3585
64.1317 3284 57.3062
64.2492 3360 57.9655
64.3668 3419 58.4722
64.4843 3584 59.8665
64.6019 3508 59.2284
64.7195 3636 60.2993
64.837 3722 61.0082
64.9546 3611 60.0916
65.0722 3680 60.663
65.1898 3563 59.6909
65.3074 3473 58.9322
65.4249 3050 55.2268
65.5425 2754 52.4786
65.6601 2645 51.4296
65.7777 2854 53.4228
65.8952 3139 56.0268
66.0128 3534 59.4475
66.1304 3635 60.291
66.2479 3911 62.538
66.3655 3851 62.0564
66.483 3954 62.8808
66.6005 3874 62.2415
66.718 3995 63.206
66.8355 3926 62.6578
66.953 3963 62.9524
67.0705 3771 61.4085
67.1879 3607 60.0583
67.3054 3644 60.3656
67.4228 3404 58.3438
67.5402 3518 59.3127
67.6576 3419 58.4722
67.7749 3710 60.9098
67.8923 3771 61.4085
68.0096 3978 63.0714
68.1269 4072 63.8122
68.2442 4133 64.2884
68.3614 4236 65.0846
68.4787 4339 65.8711
68.5958 4321 65.7343
68.713 4302 65.5896
68.8302 4220 64.9615
68.9473 3942 62.7853
69.0643 3670 60.5805
69.1814 3291 57.3672
69.2984 3251 57.0175
69.4154 3260 57.0964
69.5323 3654 60.4483
69.6492 3979 63.0793
69.7661 4288 65.4828
69.8829 4373 66.1287
69.9997 4641 68.1249
70.1165 4616 67.9412
70.2332 4661 68.2715
70.3499 4687 68.4617
70.4665 4651 68.1982
70.5831 4621 67.9779
70.6996 4500 67.082
70.8161 4342 65.8939
70.9326 4289 65.4905
71.049 3892 62.3859
71.1653 3877 62.2656
71.2817 3796 61.6117
71.3979 3960 62.9285
71.5141 4086 63.9218
71.6303 4104 64.0625
71.7464 4139 64.3351
71.8624 0 1
71.9784 0 1
72.0944 0 1
72.2102 0 1
72.3261 0 1
72.4418 0 1
72.5575 0 1
72.6732 0 1
75.1054 0 1
75.2209 0 1
75.3365 0 1
75.4521 0 1
75.5678 0 1
75.6835 0 1
75.7993 0 1
75.9151 0 1
76.031 0 1
76.147 4073 63.8201
76.263 4223 64.9846
76.3791 4215 64.923
76.4952 4086 63.9218
76.6113 4259 65.261
76.7276 4307 65.6277
76.8438 4476 66.9029
76.9601 4668 68.3228
77.0765 4883 69.8785
77.1929 5130 71.624
77.3093 4847 69.6204
77.4258 5087 71.3232
77.5423 5085 71.3092
77.6589 5000 70.7107
77.7755 4990 70.6399
77.8921 4703 68.5784
78.0088 4238 65.0999
78.1256 3862 62.145
78.2423 3537 59.4727
78.3591 3440 58.6515
78.4759 3678 60.6465
78.5928 4072 63.8122
78.7097 4549 67.4463
78.8266 5002 70.7248
78.9436 4834 69.527
79.0606 4960 70.4273
79.1776 5020 70.852
79.2946 4955 70.3918
79.4117 5063 71.1548
79.5288 4988 70.6258
79.6459 4806 69.3253
79.7631 4769 69.0579
79.8802 4519 67.2235
79.9974 4428 66.5432
80.1147 4192 64.7457
80.2319 4136 64.3117
80.3491 4196 64.7765
80.4664 4324 65.7571
80.5837 4526 67.2756
80.701 4702 68.5711
80.8183 4771 69.0724
80.9357 4799 69.2748
81.053 4823 69.4478
81.1704 4888 69.9142
81.2877 4919 70.1356
81.4051 4800 69.282
81.5225 4853 69.6635
81.6399 4378 66.1665
81.7573 4080 63.8749
81.8747 3699 60.8194
81.9922 3399 58.3009
82.1096 3489 59.0678
82.227 3916 62.578
82.3444 4239 65.1076
82.4619 4461 66.7907
82.5793 4498 67.0671
82.6967 4829 69.491
82.8142 4705 68.593
82.9316 4748 68.9057
83.049 4775 69.1014
83.1664 4717 68.6804
83.2838 4467 66.8356
83.4012 4436 66.6033
83.5186 4280 65.4217
83.636 4119 64.1794
83.7534 3869 62.2013
83.8708 3771 61.4085
83.9881 3742 61.1719
84.1055 4004 63.2772
84.2228 4148 64.405
84.3401 4422 66.4981
84.4575 4548 67.4389
84.5747 4531 67.3127
84.692 4701 68.5638
84.8093 4654 68.2202
84.9265 4762 69.0072
85.0437 4640 68.1175
85.1609 4320 65.7267
85.2781 4086 63.9218
85.3952 3773 61.4248
85.5123 3554 59.6154
85.6294 3508 59.2284
85.7465 3812 61.7414
85.8636 4168 64.56
85.9806 4407 66.3852
86.0976 4627 68.0221
86.2145 4941 70.2922
86.3315 4873 69.8069
86.4484 5374 73.3076
86.5652 5142 71.7077
86.682 5182 71.9861
86.7988 5110 71.4843
86.9156 5074 71.232
87.0323 4910 70.0714
87.149 4769 69.0579
87.2657 4510 67.1565
87.3823 4279 65.4141
87.4988 4158 64.4826
87.6154 4367 66.0833
87.7318 4638 68.1029
87.8483 4964 70.4557
87.9647 5202 72.1249
88.081 5312 72.8835
88.1973 5372 73.2939
88.3136 5399 73.4779
88.4298 5474 73.9865
88.546 5452 73.8377
88.6621 5303 72.8217
88.7781 4881 69.8642
88.8942 0 1
89.0101 0 1
89.126 0 1
89.2419 0 1
89.3577 0 1
89.4734 0 1
89.5891 0 1
89.7047 0 1
89.8203 0 1
89.9358 0 1
92.3269 0 1
92.4424 0 1
92.558 0 1
92.6736 0 1
92.7893 0 1
92.905 0 1
93.0208 0 1
93.1366 0 1
93.2525 0 1
93.3685 0 1
93.4845 0 1
93.6005 5256 72.4983
93.7167 5433 73.7089
93.8328 5385 73.3826
93.949 5409 73.5459
94.0653 5343 73.0958
94.1816 5263 72.5465
94.2979 4900 70
94.4143 4627 68.0221
94.5307 4451 66.7158
94.6472 4280 65.4217
94.7637 4208 64.8691
94.8803 4546 67.424
94.9969 4804 69.3109
95.1135 4959 70.4202
95.2302 5231 72.3257
95.3469 5308 72.856
95.4637 5525 74.3303
95.5805 5663 75.2529
95.6973 5749 75.8222
95.8142 5636 75.0733
95.9311 5553 74.5185
96.048 5458 73.8783
96.1649 5396 73.4575
96.2819 5153 71.7844
96.3989 4895 69.9643
96.516 4718 68.6877
96.633 4588 67.7348
96.7501 4434 66.5883
96.8673 4566 67.5722
96.9844 4955 70.3918
97.1016 5294 72.7599
97.2188 5541 74.4379
97.336 5736 75.7364
97.4532 5610 74.8999
97.5704 5813 76.243
97.6877 5601 74.8398
97.805 5523 74.3169
97.9223 5418 73.6071
98.0396 5077 71.2531
98.1569 4631 68.0515
98.2743 4557 67.5056
98.3916 4460 66.7832
98.509 4595 67.7864
98.6264 4779 69.1303
98.7438 5095 71.3793
98.8612 5230 72.3187
98.9786 5664 75.2596
99.096 5639 75.0933
99.2134 5855 76.518
99.3308 6073 77.9295
99.4482 5815 76.2561
99.5656 5953 77.1557
99.6831 5784 76.0526
99.8005 5588 74.7529
99.9179 5500 74.162
100.035 5323 72.9589
100.153 4789 69.2026
100.27 4628 68.0294
100.388 4642 68.1322
100.505 4978 70.5549
100.622 5490 74.0945
100.74 5701 75.505
100.857 5846 76.4591
100.975 5966 77.2399
101.092 5974 77.2917
101.209 6023 77.608
101.327 6138 78.3454
101.444 5925 76.974
101.561 5652 75.1798
101.679 5265 72.5603
101.796 4924 70.1712
101.913 4758 68.9783
102.03 4781 69.1448
102.148 4951 70.3633
102.265 5566 74.6056
102.382 5171 71.9097
102.499 5845 76.4526
102.616 6087 78.0192
102.733 6012 77.5371
102.851 6329 79.555
102.968 6339 79.6178
103.085 6348 79.6743
103.202 6219 78.8606
103.319 6057 77.8267
103.436 5954 77.1622
103.552 5825 76.3217
103.669 5199 72.1041
103.786 4961 70.4344
103.903 4899 69.9929
104.02 5329 73
104.137 5829 76.3479
104.253 6345 79.6555
104.37 6308 79.4229
104.487 6527 80.7899
104.603 6520 80.7465
104.72 6527 80.7899
104.836 6665 81.6395
104.953 6330 79.5613
105.069 6009 77.5177
105.186 5849 76.4788
105.302 5359 73.2052
105.418 5208 72.1665
105.535 5299 72.7942
105.651 5671 75.306
105.767 5932 77.0195
105.883 6291 79.3158
105.999 6412 80.075
106.115 0 1
106.231 0 1
106.347 0 1
106.463 0 1
106.579 0 1
106.694 0 1
106.81 0 1
106.926 0 1
107.041 0 1
107.157 0 1
109.576 0 1
109.692 0 1
109.807 0 1
109.923 0 1
110.039 0 1
110.155 0 1
110.27 0 1
110.386 0 1
110.502 0 1
110.618 5080 71.2741
110.735 5471 73.9662
110.851 5714 75.591
110.967 5882 76.6942
111.083 5957 77.1816
111.199 6238 78.981
111.316 6218 78.8543
111.432 6284 79.2717
111.549 6403 80.0187
111.665 6190 78.6766
111.782 6020 77.5887
111.898 5770 75.9605
112.015 5538 74.4177
112.132 5025 70.8872
112.248 4623 67.9926
112.365 4671 68.3447
112.482 4806 69.3253
112.599 5086 71.3162
112.716 5699 75.4917
112.832 5792 76.1052
112.949 5834 76.3806
113.066 5843 76.4395
113.183 5934 77.0325
113.3 5843 76.4395
113.417 5795 76.1249
113.534 5667 75.2795
113.652 5366 73.253
113.769 5222 72.2634
113.886 4599 67.8159
114.003 4490 67.0075
114.12 4584 67.7052
114.238 4621 67.9779
114.355 4998 70.6965
114.472 5081 71.2811
114.589 5188 72.0278
114.707 5253 72.4776
114.824 5457 73.8715
114.942 5588 74.7529
115.059 5642 75.1132
115.176 5628 75.02
115.294 5641 75.1066
115.411 5345 73.1095
115.529 5128 71.6101
115.646 4860 69.7137
115.764 4448 66.6933
115.881 4149 64.4127
115.999 4402 66.3476
116.116 4665 68.3008
116.234 5065 71.1688
116.351 5566 74.6056
116.469 5431 73.6953
116.586 5563 74.5855
116.704 5720 75.6307
116.821 5567 74.6123
116.939 5581 74.7061
117.056 5482 74.0405
117.174 5439 73.7496
117.291 5258 72.5121
117.409 5024 70.8802
117.526 4803 69.3037
117.644 4680 68.4105
117.761 4689 68.4763
117.879 4948 70.342
117.996 5096 71.3863
118.114 5240 72.3878
118.231 5383 73.3689
118.349 5377 73.328
118.466 5582 74.7128
118.584 5605 74.8665
118.701 5698 75.4851
118.819 5680 75.3658
118.936 5583 74.7195
119.053 5472 73.973
119.171 5318 72.9246
119.288 4920 70.1427
119.405 4473 66.8805
119.523 4162 64.5136
119.64 4292 65.5134
119.757 4679 68.4032
119.875 5075 71.239
119.992 5333 73.0274
120.109 5552 74.5117
120.226 5545 74.4648
120.343 5608 74.8866
120.46 5625 75
120.578 5646 75.1399
120.695 5580 74.6994
120.812 5597 74.8131
120.929 5164 71.861
121.046 5102 71.4283
121.163 4930 70.214
121.279 4781 69.1448
121.396 4621 67.9779
121.513 4870 69.7854
121.63 5007 70.7602
121.747 5096 71.3863
121.863 5193 72.0625
121.98 5307 72.8492
122.097 5290 72.7324
122.213 5373 73.3008
122.33 5572 74.6458
122.446 5379 73.3417
122.563 5505 74.1957
122.679 5484 74.054
122.795 5299 72.7942
122.912 5130 71.624
123.028 4791 69.217
123.144 4388 66.242
123.26 4104 64.0625
123.377 0 1
123.493 0 1
123.609 0 1
123.725 0 1
123.84 0 1
123.956 0 1
124.072 0 1
124.188 0 1
124.303 0 1
124.419 0 1
126.852 0 1
126.968 0 1
127.083 0 1
127.199 0 1
127.315 0 1
127.431 0 1
127.547 0 1
127.663 0 1
127.779 0 1
127.895 0 1
128.011 0 1
128.127 0 1
128.243 0 1
128.359 4831 69.5054
128.476 4482 66.9477
128.592 4476 66.9029
128.708 5017 70.8308
128.825 5580 74.6994
128.941 5949 77.1298
129.058 6133 78.3135
129.174 6127 78.2752
129.291 6213 78.8226
129.408 6221 78.8733
129.524 6120 78.2304
129.641 6140 78.3582
129.758 6046 77.756
129.875 6030 77.6531
129.992 5823 76.3086
130.108 5530 74.364
130.225 5382 73.3621
130.342 5241 72.3948
130.459 5145 71.7287
130.576 5482 74.0405
130.693 5556 74.5386
130.81 5714 75.591
130.928 5764 75.921
131.045 5870 76.6159
131.162 5962 77.214
131.279 6094 78.0641
131.396 6135 78.3262
131.513 6030 77.6531
131.631 5917 76.922
131.748 5527 74.3438
131.865 5042 71.007
131.983 4516 67.2012
132.1 4367 66.0833
132.217 4650 68.1909
132.335 5329 73
132.452 5630 75.0333
132.57 5839 76.4133
132.687 5695 75.4652
132.804 6049 77.7753
132.922 6124 78.256
133.039 5840 76.4199
133.157 5942 77.0844
133.274 5902 76.8245
133.392 5800 76.1577
133.509 5692 75.4453
133.627 5603 74.8532
133.744 5287 72.7118
133.862 5173 71.9236
133.979 5146 71.7356
134.097 5285 72.698
134.214 5467 73.9392
134.332 5488 74.081
134.449 5573 74.6525
134.567 5710 75.5645
134.684 5854 76.5114
134.802 5744 75.7892
134.919 5755 75.8617
135.037 5782 76.0395
135.154 5860 76.5506
135.272 5412 73.5663
135.389 5168 71.8888
135.507 4744 68.8767
135.624 4333 65.8255
135.742 4456 66.7533
135.859 4870 69.7854
135.977 5386 73.3894
136.094 5614 74.9266
136.211 5751 75.8353
136.329 5850 76.4853
136.446 5872 76.629
136.564 5728 75.6836
136.681 5962 77.214
136.798 5845 76.4526
136.915 5891 76.7529
137.033 5812 76.2365
137.15 5716 75.6042
137.267 5547 74.4782
137.384 5370 73.2803
137.502 5272 72.6085
137.619 5074 71.232
137.736 5338 73.0616
137.853 5177 71.9514
137.97 5364 73.2393
138.087 5613 74.92
138.204 5431 73.6953
138.321 5683 75.3857
138.438 5834 76.3806
138.555 5809 76.2168
138.672 5848 76.4722
138.788 5765 75.9276
138.905 5391 73.4234
139.022 5326 72.9794
139.139 4756 68.9638
139.255 4460 66.7832
139.372 4399 66.325
139.488 4737 68.8259
139.605 5293 72.753
139.721 5663 75.2529
139.838 5677 75.3459
139.954 5802 76.1709
140.071 5769 75.9539
140.187 5831 76.361
140.303 5706 75.5381
140.419 5717 75.6108
140.535 5641 75.1066
140.652 5600 74.8331
140.768 0 1
140.884 0 1
141 0 1
141.115 0 1
141.231 0 1
141.347 0 1
141.463 0 1
141.578 0 1
141.694 0 1
144.104 0 1
144.219 0 1
144.335 0 1
144.45 0 1
144.566 0 1
144.682 0 1
144.798 0 1
144.914 0 1
145.03 0 1
145.146 5062 71.1477
145.262 5052 71.0774
145.378 5078 71.2601
145.494 5205 72.1457
145.61 4955 70.3918
145.726 4815 69.3902
145.842 4914 70.0999
145.959 4798 69.2676
146.075 4690 68.4836
146.192 4527 67.283
146.308 4582 67.6905
146.425 4575 67.6387
146.541 4642 68.1322
146.658 4521 67.2384
146.774 4761 69
146.891 4782 69.152
147.008 4786 69.1809
147.125 4835 69.5342
147.241 4770 69.0652
147.358 4758 68.9783
147.475 4568 67.587
147.592 4412 66.4229
147.709 3962 62.9444
147.826 3659 60.4897
147.943 3735 61.1146
148.06 3811 61.7333
148.177 4199 64.7997
148.294 4535 67.3424
148.411 4709 68.6222
148.528 4688 68.469
148.645 4675 68.374
148.762 4719 68.695
148.88 4628 68.0294
148.997 4642 68.1322
149.114 5036 70.9648
149.231 4596 67.7938
149.349 4646 68.1616
149.466 4525 67.2681
149.583 4467 66.8356
149.701 4462 66.7982
149.818 4287 65.4752
149.935 4226 65.0077
150.053 4175 64.6142
150.17 4152 64.436
150.287 4245 65.1537
150.405 4348 65.9394
150.522 4545 67.4166
150.64 4383 66.2042
150.757 4546 67.424
150.875 4385 66.2193
150.992 4399 66.325
151.11 4236 65.0846
151.227 4070 63.7966
151.344 3768 61.384
151.462 3506 59.2115
151.579 3483 59.0169
151.697 3688 60.7289
151.814 4102 64.0469
151.932 4420 66.4831
152.049 4446 66.6783
152.167 4502 67.0969
152.284 4545 67.4166
152.402 4671 68.3447
152.519 4682 68.4251
152.636 4603 67.8454
152.754 4517 67.2086
152.871 4573 67.624
152.989 4535 67.3424
153.106 4502 67.0969
153.223 4590 67.7495
153.341 4337 65.8559
153.458 4261 65.2763
153.575 4303 65.5973
153.693 4166 64.5446
153.81 4126 64.2339
153.927 4275 65.3835
154.044 4369 66.0984
154.162 4524 67.2607
154.279 4548 67.4389
154.396 4487 66.9851
154.513 4481 66.9403
154.63 4433 66.5808
154.747 4280 65.4217
154.864 4278 65.4064
154.981 4066 63.7652
155.098 3805 61.6847
155.215 3604 60.0333
155.332 3847 62.0242
155.449 4106 64.0781
155.566 4466 66.8281
155.683 4584 67.7052
155.8 4543 67.4018
155.917 4616 67.9412
156.033 4616 67.9412
156.15 0 1
156.267 0 1
156.383 0 1
156.5 0 1
156.617 0 1
156.733 0 1
156.85 0 1
156.966 0 1
157.082 0 1
157.199 0 1
157.315 0 1
157.431 0 1
157.547 0 1
157.664 0 1
157.78 0 1
157.896 0 1
158.012 0 1
158.128 0 1
158.244 0 1
158.359 0 1
158.475 0 1
158.591 0 1
158.706 0 1
