
6.15755 0 1
6.2731 0 1
6.3887 0 1
6.50437 0 1
6.62009 0 1
6.73587 0 1
6.8517 0 1
6.96759 0 1
7.08353 0 1
7.19952 0 1
7.31557 0 1
7.43166 0 1
7.54781 0 1
7.664 0 1
7.78024 0 1
7.89653 0 1
8.01286 0 1
8.12924 0 1
8.24567 0 1
8.36213 0 1
8.47864 0 1
8.59519 0 1
8.71178 0 1
8.82841 0 1
8.94508 0 1
9.06179 0 1
9.17853 0 1
9.29531 0 1
9.41212 0 1
9.52897 0 1
9.64584 0 1
9.76276 0 1
9.8797 0 1
9.99667 0 1
10.1137 0 1
10.2307 0 1
10.3478 0 1
10.4648 0 1
10.5819 0 1
10.6991 0 1
10.8162 0 1
10.9334 0 1
11.0506 0 1
11.1678 0 1
11.285 0 1
11.4023 0 1
11.5196 0 1
11.6369 0 1
11.7542 0 1
11.8715 0 1
11.9888 0 1
12.1062 0 1
12.2235 0 1
12.3409 0 1
12.4582 0 1
12.5756 0 1
12.693 0 1
12.8104 0 1
12.9278 0 1
13.0452 0 1
13.1626 0 1
13.28 0 1
13.3974 0 1
13.5149 0 1
13.6323 0 1
13.7497 0 1
13.8671 0 1
13.9845 0 1
14.1019 0 1
14.2193 0 1
14.3367 0 1
14.4541 0 1
14.5714 0 1
14.6888 0 1
14.8062 0 1
14.9235 0 1
15.0408 896 29.9333
15.1581 1002 31.6544
15.2755 973 31.1929
15.3927 1024 32
15.51 985 31.3847
15.6273 1028 32.0624
15.7445 945 30.7409
15.8617 956 30.9192
15.9789 934 30.5614
16.0961 926 30.4302
16.2132 910 30.1662
16.3304 904 30.0666
16.4475 885 29.7489
16.5646 881 29.6816
16.6816 900 30
16.7986 960 30.9839
16.9156 886 29.7658
17.0326 839 28.9655
17.1496 898 29.9666
17.2665 884 29.7321
17.3833 901 30.0167
17.5002 894 29.8998
17.617 859 29.3087
17.7338 894 29.8998
17.8505 912 30.1993
17.9672 840 28.9828
18.0839 787 28.0535
18.2005 848 29.1204
18.3171 785 28.0179
18.4337 822 28.6705
18.5502 866 29.4279
18.6666 837 28.931
18.7831 861 29.3428
18.8994 885 29.7489
19.0158 829 28.7924
19.1321 836 28.9137
19.2483 806 28.3901
19.3645 755 27.4773
19.4806 765 27.6586
19.5967 709 26.6271
19.7128 634 25.1794
19.8288 623 24.96
19.9447 478 21.8632
20.0606 0 1
20.1764 0 1
20.2922 0 1
20.4079 0 1
20.5236 0 1
20.6392 0 1
20.7548 0 1
20.8702 0 1
23.3078 0 1
23.4233 0 1
23.539 0 1
23.6547 0 1
23.7704 0 1
23.8862 0 1
24.0021 0 1
24.118 0 1
24.234 0 1
24.35 0 1
24.4661 383 19.5704
24.5822 424 20.5913
24.6984 486 22.0454
24.8146 553 23.516
24.9309 661 25.7099
25.0472 797 28.2312
25.1636 821 28.6531
25.28 839 28.9655
25.3965 886 29.7658
25.513 930 30.4959
25.6296 946 30.7571
25.7462 968 31.1127
25.8628 937 30.6105
25.9795 980 31.305
26.0962 997 31.5753
26.213 928 30.4631
26.3298 933 30.545
26.4466 853 29.2062
26.5635 870 29.4958
26.6804 779 27.9106
26.7973 743 27.258
26.9143 710 26.6458
27.0313 697 26.4008
27.1483 763 27.6225
27.2653 827 28.7576
27.3824 853 29.2062
27.4996 820 28.6356
27.6167 835 28.8964
27.7339 864 29.3939
27.8511 817 28.5832
27.9683 869 29.4788
28.0855 899 29.9833
28.2028 748 27.3496
28.3201 758 27.5318
28.4374 762 27.6043
28.5547 752 27.4226
28.6721 862 29.3598
28.7894 847 29.1033
28.9068 854 29.2233
29.0242 875 29.5804
29.1416 870 29.4958
29.259 788 28.0713
29.3764 838 28.9482
29.4939 793 28.1603
29.6113 794 28.178
29.7288 767 27.6948
29.8463 796 28.2135
29.9638 785 28.0179
30.0812 724 26.9072
30.1987 683 26.1343
30.3162 762 27.6043
30.4337 684 26.1534
30.5512 798 28.2489
30.6687 792 28.1425
30.7862 784 28
30.9037 855 29.2404
31.0212 854 29.2233
31.1387 809 28.4429
31.2562 822 28.6705
31.3737 829 28.7924
31.4912 854 29.2233
31.6087 837 28.931
31.7262 832 28.8444
31.8436 790 28.1069
31.9611 785 28.0179
32.0785 802 28.3196
32.1959 764 27.6405
32.3134 802 28.3196
32.4308 825 28.7228
32.5482 759 27.55
32.6655 747 27.3313
32.7829 746 27.313
32.9002 730 27.0185
33.0176 712 26.6833
33.1349 742 27.2397
33.2522 745 27.2947
33.3694 706 26.5707
33.4867 739 27.1846
33.6039 704 26.533
33.7211 712 26.6833
33.8383 631 25.1197
33.9554 725 26.9258
34.0725 706 26.5707
34.1896 652 25.5343
34.3067 726 26.9444
34.4237 711 26.6646
34.5407 752 27.4226
34.6577 769 27.7308
34.7746 818 28.6007
34.8915 760 27.5681
35.0084 741 27.2213
35.1252 701 26.4764
35.242 679 26.0576
35.3587 706 26.5707
35.4755 661 25.7099
35.5921 644 25.3772
35.7088 665 25.7876
35.8254 677 26.0192
35.9419 756 27.4955
36.0584 684 26.1534
36.1749 668 25.8457
36.2913 700 26.4575
36.4077 659 25.671
36.524 637 25.2389
36.6403 571 23.8956
36.7565 545 23.3452
36.8727 548 23.4094
36.9889 525 22.9129
37.1049 487 22.0681
37.221 0 1
37.3369 0 1
37.4529 0 1
37.5687 0 1
37.6845 0 1
37.8003 0 1
37.916 0 1
38.0316 0 1
38.1472 0 1
40.5851 0 1
40.7008 0 1
40.8164 0 1
40.9322 0 1
41.048 0 1
41.1639 0 1
41.2798 0 1
41.3958 0 1
41.5118 0 1
41.6279 0 1
41.744 327 18.0831
41.8602 404 20.0998
41.9765 447 21.1424
42.0928 475 21.7945
42.2091 469 21.6564
42.3255 519 22.7816
42.4419 484 22
42.5584 554 23.5372
42.675 505 22.4722
42.7915 454 21.3073
42.9081 478 21.8632
43.0248 514 22.6716
43.1415 489 22.1133
43.2582 574 23.9583
43.375 566 23.7908
43.4918 572 23.9165
43.6087 554 23.5372
43.7256 558 23.622
43.8425 524 22.891
43.9595 517 22.7376
44.0765 520 22.8035
44.1935 484 22
44.3106 484 22
44.4277 516 22.7156
44.5448 531 23.0434
44.6619 553 23.516
44.7791 550 23.4521
44.8963 545 23.3452
45.0136 553 23.516
45.1308 594 24.3721
45.2481 588 24.2487
45.3654 577 24.0208
45.4827 579 24.0624
45.6001 574 23.9583
45.7174 609 24.6779
45.8348 623 24.96
45.9522 529 23
46.0697 594 24.3721
46.1871 585 24.1868
46.3046 491 22.1585
46.422 474 21.7715
46.5395 502 22.4054
46.657 521 22.8254
46.7745 564 23.7487
46.892 557 23.6008
47.0096 539 23.2164
47.1271 543 23.3024
47.2446 509 22.561
47.3622 536 23.1517
47.4797 517 22.7376
47.5973 556 23.5797
47.7149 484 22
47.8324 504 22.4499
47.95 520 22.8035
48.0675 506 22.4944
48.1851 493 22.2036
48.3027 541 23.2594
48.4202 571 23.8956
48.5378 560 23.6643
48.6554 574 23.9583
48.7729 535 23.1301
48.8904 564 23.7487
49.008 547 23.388
49.1255 563 23.7276
49.243 575 23.9792
49.3605 532 23.0651
49.478 488 22.0907
49.5955 490 22.1359
49.713 454 21.3073
49.8304 483 21.9773
49.9479 497 22.2935
50.0653 417 20.4206
50.1827 460 21.4476
50.3001 524 22.891
50.4175 485 22.0227
50.5348 519 22.7816
50.6521 517 22.7376
50.7694 483 21.9773
50.8867 455 21.3307
51.004 470 21.6795
51.1212 438 20.9284
51.2384 465 21.5639
51.3556 496 22.2711
51.4727 522 22.8473
51.5899 532 23.0651
51.707 521 22.8254
51.824 523 22.8692
51.9411 486 22.0454
52.0581 504 22.4499
52.175 538 23.1948
52.2919 519 22.7816
52.4088 514 22.6716
52.5257 550 23.4521
52.6425 517 22.7376
52.7593 516 22.7156
52.876 534 23.1084
52.9927 511 22.6053
53.1094 452 21.2603
53.226 476 21.8174
53.3426 466 21.587
53.4591 422 20.5426
53.5756 431 20.7605
53.692 395 19.8746
53.8084 418 20.445
53.9248 411 20.2731
54.0411 386 19.6469
54.1573 385 19.6214
54.2735 0 1
54.3896 0 1
54.5057 0 1
54.6217 0 1
54.7377 0 1
54.8537 0 1
54.9695 0 1
55.0853 0 1
55.2011 0 1
55.3168 0 1
55.4324 0 1
57.824 0 1
57.9396 0 1
58.0553 0 1
58.1711 0 1
58.2869 0 1
58.4028 0 1
58.5187 0 1
58.6347 0 1
58.7508 0 1
58.8669 0 1
58.983 965 31.0644
59.0992 1240 35.2136
59.2155 1502 38.7556
59.3318 1713 41.3884
59.4482 1906 43.6578
59.5646 1902 43.6119
59.681 1940 44.0454
59.7975 1988 44.587
59.9141 2029 45.0444
60.0306 2019 44.9333
60.1473 2097 45.793
60.2639 2195 46.8508
60.3807 2137 46.2277
60.4974 2094 45.7602
60.6142 2173 46.6154
60.731 2132 46.1736
60.8479 1964 44.317
60.9648 1963 44.3058
61.0818 1947 44.1248
61.1987 1830 42.7785
61.3158 1791 42.3202
61.4328 1664 40.7922
61.5499 1607 40.0874
61.667 1518 38.9615
61.7841 1440 37.9473
61.9013 1245 35.2846
62.0185 1142 33.7935
62.1357 1018 31.9061
62.253 960 30.9839
62.3702 1110 33.3167
62.4875 1148 33.8821
62.6049 1382 37.1753
62.7222 1531 39.128
62.8396 1414 37.6032
62.9569 1429 37.8021
63.0743 1334 36.524
63.1918 1189 34.4819
63.3092 1130 33.6155
63.4267 1157 34.0147
63.5441 1172 34.2345
63.6616 1288 35.8887
63.7791 1150 33.9116
63.8966 1154 33.9706
64.0142 974 31.209
64.1317 867 29.4449
64.2492 697 26.4008
64.3668 693 26.3249
64.4843 678 26.0384
64.6019 633 25.1595
64.7195 632 25.1396
64.837 633 25.1595
64.9546 661 25.7099
65.0722 668 25.8457
65.1898 660 25.6905
65.3074 686 26.1916
65.4249 684 26.1534
65.5425 618 24.8596
65.6601 655 25.593
65.7777 612 24.7386
65.8952 644 25.3772
66.0128 629 25.0799
66.1304 672 25.923
66.2479 707 26.5895
66.3655 729 27
66.483 734 27.0924
66.6005 746 27.313
66.718 649 25.4755
66.8355 698 26.4197
66.953 726 26.9444
67.0705 712 26.6833
67.1879 762 27.6043
67.3054 785 28.0179
67.4228 773 27.8029
67.5402 828 28.775
67.6576 844 29.0517
67.7749 837 28.931
67.8923 813 28.5132
68.0096 817 28.5832
68.1269 762 27.6043
68.2442 732 27.0555
68.3614 806 28.3901
68.4787 736 27.1293
68.5958 738 27.1662
68.713 741 27.2213
68.8302 761 27.5862
68.9473 787 28.0535
69.0643 787 28.0535
69.1814 795 28.1957
69.2984 852 29.189
69.4154 794 28.178
69.5323 724 26.9072
69.6492 709 26.6271
69.7661 717 26.7769
69.8829 740 27.2029
69.9997 737 27.1477
70.1165 700 26.4575
70.2332 692 26.3059
70.3499 598 24.454
70.4665 525 22.9129
70.5831 501 22.383
70.6996 459 21.4243
70.8161 433 20.8087
70.9326 405 20.1246
71.049 404 20.0998
71.1653 391 19.7737
71.2817 360 18.9737
71.3979 341 18.4662
71.5141 284 16.8523
71.6303 284 16.8523
71.7464 221 14.8661
71.8624 0 1
71.9784 0 1
72.0944 0 1
72.2102 0 1
72.3261 0 1
72.4418 0 1
72.5575 0 1
72.6732 0 1
75.1054 0 1
75.2209 0 1
75.3365 0 1
75.4521 0 1
75.5678 0 1
75.6835 0 1
75.7993 0 1
75.9151 0 1
76.031 0 1
76.147 355 18.8414
76.263 423 20.567
76.3791 469 21.6564
76.4952 495 22.2486
76.6113 530 23.0217
76.7276 555 23.5584
76.8438 505 22.4722
76.9601 515 22.6936
77.0765 526 22.9347
77.1929 524 22.891
77.3093 503 22.4277
77.4258 522 22.8473
77.5423 520 22.8035
77.6589 507 22.5167
77.7755 493 22.2036
77.8921 526 22.9347
78.0088 532 23.0651
78.1256 529 23
78.2423 461 21.4709
78.3591 444 21.0713
78.4759 486 22.0454
78.5928 471 21.7025
78.7097 471 21.7025
78.8266 493 22.2036
78.9436 511 22.6053
79.0606 535 23.1301
79.1776 528 22.9783
79.2946 500 22.3607
79.4117 528 22.9783
79.5288 513 22.6495
79.6459 521 22.8254
79.7631 497 22.2935
79.8802 530 23.0217
79.9974 524 22.891
80.1147 547 23.388
80.2319 597 24.4336
80.3491 528 22.9783
80.4664 537 23.1733
80.5837 549 23.4307
80.701 482 21.9545
80.8183 529 23
80.9357 575 23.9792
81.053 572 23.9165
81.1704 529 23
81.2877 534 23.1084
81.4051 482 21.9545
81.5225 538 23.1948
81.6399 529 23
81.7573 544 23.3238
81.8747 514 22.6716
81.9922 519 22.7816
82.1096 534 23.1084
82.227 484 22
82.3444 470 21.6795
82.4619 498 22.3159
82.5793 566 23.7908
82.6967 548 23.4094
82.8142 557 23.6008
82.9316 584 24.1661
83.049 563 23.7276
83.1664 556 23.5797
83.2838 517 22.7376
83.4012 471 21.7025
83.5186 518 22.7596
83.636 570 23.8747
83.7534 601 24.5153
83.8708 573 23.9374
83.9881 592 24.3311
84.1055 567 23.8118
84.2228 579 24.0624
84.3401 559 23.6432
84.4575 585 24.1868
84.5747 559 23.6432
84.692 555 23.5584
84.8093 565 23.7697
84.9265 598 24.454
85.0437 534 23.1084
85.1609 536 23.1517
85.2781 551 23.4734
85.3952 548 23.4094
85.5123 519 22.7816
85.6294 493 22.2036
85.7465 503 22.4277
85.8636 512 22.6274
85.9806 509 22.561
86.0976 508 22.5389
86.2145 523 22.8692
86.3315 577 24.0208
86.4484 553 23.516
86.5652 568 23.8328
86.682 566 23.7908
86.7988 552 23.4947
86.9156 533 23.0868
87.0323 491 22.1585
87.149 577 24.0208
87.2657 531 23.0434
87.3823 546 23.3666
87.4988 541 23.2594
87.6154 514 22.6716
87.7318 508 22.5389
87.8483 472 21.7256
87.9647 478 21.8632
88.081 393 19.8242
88.1973 391 19.7737
88.3136 356 18.868
88.4298 349 18.6815
88.546 350 18.7083
88.6621 298 17.2627
88.7781 287 16.9411
88.8942 0 1
89.0101 0 1
89.126 0 1
89.2419 0 1
89.3577 0 1
89.4734 0 1
89.5891 0 1
89.7047 0 1
89.8203 0 1
89.9358 0 1
92.3269 0 1
92.4424 0 1
92.558 0 1
92.6736 0 1
92.7893 0 1
92.905 0 1
93.0208 0 1
93.1366 0 1
93.2525 0 1
93.3685 0 1
93.4845 0 1
93.6005 430 20.7364
93.7167 469 21.6564
93.8328 530 23.0217
93.949 532 23.0651
94.0653 586 24.2074
94.1816 546 23.3666
94.2979 559 23.6432
94.4143 542 23.2809
94.5307 510 22.5832
94.6472 467 21.6102
94.7637 531 23.0434
94.8803 448 21.166
94.9969 474 21.7715
95.1135 497 22.2935
95.2302 520 22.8035
95.3469 523 22.8692
95.4637 567 23.8118
95.5805 545 23.3452
95.6973 579 24.0624
95.8142 540 23.2379
95.9311 515 22.6936
96.048 582 24.1247
96.1649 538 23.1948
96.2819 505 22.4722
96.3989 565 23.7697
96.516 555 23.5584
96.633 598 24.454
96.7501 586 24.2074
96.8673 569 23.8537
96.9844 553 23.516
97.1016 595 24.3926
97.2188 560 23.6643
97.336 568 23.8328
97.4532 586 24.2074
97.5704 563 23.7276
97.6877 517 22.7376
97.805 578 24.0416
97.9223 641 25.318
98.0396 594 24.3721
98.1569 562 23.7065
98.2743 586 24.2074
98.3916 536 23.1517
98.509 565 23.7697
98.6264 535 23.1301
98.7438 544 23.3238
98.8612 559 23.6432
98.9786 568 23.8328
99.096 532 23.0651
99.2134 563 23.7276
99.3308 622 24.9399
99.4482 558 23.622
99.5656 620 24.8998
99.6831 537 23.1733
99.8005 632 25.1396
99.9179 575 23.9792
100.035 561 23.6854
100.153 637 25.2389
100.27 623 24.96
100.388 654 25.5734
100.505 597 24.4336
100.622 623 24.96
100.74 577 24.0208
100.857 563 23.7276
100.975 550 23.4521
101.092 566 23.7908
101.209 583 24.1454
101.327 600 24.4949
101.444 598 24.454
101.561 615 24.7992
101.679 566 23.7908
101.796 587 24.2281
101.913 549 23.4307
102.03 524 22.891
102.148 548 23.4094
102.265 569 23.8537
102.382 548 23.4094
102.499 558 23.622
102.616 614 24.779
102.733 605 24.5967
102.851 616 24.8193
102.968 642 25.3377
103.085 624 24.98
103.202 624 24.98
103.319 639 25.2784
103.436 586 24.2074
103.552 658 25.6515
103.669 598 24.454
103.786 643 25.3574
103.903 578 24.0416
104.02 657 25.632
104.137 630 25.0998
104.253 605 24.5967
104.37 605 24.5967
104.487 602 24.5357
104.603 627 25.04
104.72 607 24.6374
104.836 633 25.1595
104.953 551 23.4734
105.069 552 23.4947
105.186 513 22.6495
105.302 505 22.4722
105.418 421 20.5183
105.535 380 19.4936
105.651 423 20.567
105.767 368 19.1833
105.883 330 18.1659
105.999 329 18.1384
106.115 0 1
106.231 0 1
106.347 0 1
106.463 0 1
106.579 0 1
106.694 0 1
106.81 0 1
106.926 0 1
107.041 0 1
107.157 0 1
109.576 0 1
109.692 0 1
109.807 0 1
109.923 0 1
110.039 0 1
110.155 0 1
110.27 0 1
110.386 0 1
110.502 0 1
110.618 292 17.088
110.735 386 19.6469
110.851 388 19.6977
110.967 430 20.7364
111.083 465 21.5639
111.199 546 23.3666
111.316 510 22.5832
111.432 531 23.0434
111.549 570 23.8747
111.665 600 24.4949
111.782 587 24.2281
111.898 599 24.4745
112.015 540 23.2379
112.132 544 23.3238
112.248 606 24.6171
112.365 580 24.0832
112.482 576 24
112.599 530 23.0217
112.716 541 23.2594
112.832 521 22.8254
112.949 521 22.8254
113.066 507 22.5167
113.183 498 22.3159
113.3 548 23.4094
113.417 509 22.561
113.534 523 22.8692
113.652 524 22.891
113.769 517 22.7376
113.886 544 23.3238
114.003 525 22.9129
114.12 521 22.8254
114.238 436 20.8806
114.355 468 21.6333
114.472 499 22.3383
114.589 540 23.2379
114.707 493 22.2036
114.824 541 23.2594
114.942 566 23.7908
115.059 537 23.1733
115.176 546 23.3666
115.294 523 22.8692
115.411 540 23.2379
115.529 529 23
115.646 510 22.5832
115.764 525 22.9129
115.881 487 22.0681
115.999 525 22.9129
116.116 521 22.8254
116.234 543 23.3024
116.351 508 22.5389
116.469 523 22.8692
116.586 497 22.2935
116.704 530 23.0217
116.821 538 23.1948
116.939 494 22.2261
117.056 493 22.2036
117.174 477 21.8403
117.291 492 22.1811
117.409 529 23
117.526 476 21.8174
117.644 461 21.4709
117.761 473 21.7486
117.879 438 20.9284
117.996 442 21.0238
118.114 463 21.5174
118.231 503 22.4277
118.349 480 21.9089
118.466 483 21.9773
118.584 534 23.1084
118.701 498 22.3159
118.819 516 22.7156
118.936 501 22.383
119.053 494 22.2261
119.171 505 22.4722
119.288 463 21.5174
119.405 461 21.4709
119.523 528 22.9783
119.64 511 22.6053
119.757 468 21.6333
119.875 481 21.9317
119.992 471 21.7025
120.109 490 22.1359
120.226 493 22.2036
120.343 466 21.587
120.46 497 22.2935
120.578 474 21.7715
120.695 512 22.6274
120.812 497 22.2935
120.929 498 22.3159
121.046 440 20.9762
121.163 462 21.4942
121.279 449 21.1896
121.396 427 20.664
121.513 400 20
121.63 397 19.9249
121.747 424 20.5913
121.863 381 19.5192
121.98 383 19.5704
122.097 405 20.1246
122.213 405 20.1246
122.33 370 19.2354
122.446 355 18.8414
122.563 345 18.5742
122.679 303 17.4069
122.795 297 17.2337
122.912 296 17.2047
123.028 279 16.7033
123.144 300 17.3205
123.26 248 15.748
123.377 0 1
123.493 0 1
123.609 0 1
123.725 0 1
123.84 0 1
123.956 0 1
124.072 0 1
124.188 0 1
124.303 0 1
124.419 0 1
126.852 0 1
126.968 0 1
127.083 0 1
127.199 0 1
127.315 0 1
127.431 0 1
127.547 0 1
127.663 0 1
127.779 0 1
127.895 0 1
128.011 0 1
128.127 0 1
128.243 0 1
128.359 504 22.4499
128.476 518 22.7596
128.592 573 23.9374
128.708 512 22.6274
128.825 547 23.388
128.941 570 23.8747
129.058 603 24.5561
129.174 546 23.3666
129.291 539 23.2164
129.408 555 23.5584
129.524 615 24.7992
129.641 564 23.7487
129.758 559 23.6432
129.875 562 23.7065
129.992 565 23.7697
130.108 622 24.9399
130.225 582 24.1247
130.342 602 24.5357
130.459 571 23.8956
130.576 677 26.0192
130.693 669 25.865
130.81 793 28.1603
130.928 696 26.3818
131.045 762 27.6043
131.162 890 29.8329
131.279 1024 32
131.396 1235 35.1426
131.513 1690 41.1096
131.631 2227 47.1911
131.748 2991 54.69
131.865 4059 63.7103
131.983 5092 71.3583
132.1 5682 75.379
132.217 6571 81.0617
132.335 6835 82.6741
132.452 6939 83.3007
132.57 7029 83.8391
132.687 6836 82.6801
132.804 6892 83.0181
132.922 6794 82.4257
133.039 6354 79.712
133.157 5943 77.0909
133.274 5709 75.5579
133.392 5612 74.9133
133.509 5101 71.4213
133.627 4921 70.1498
133.744 4422 66.4981
133.862 3953 62.8729
133.979 3458 58.8048
134.097 3135 55.9911
134.214 2844 53.3292
134.332 2559 50.5866
134.449 1859 43.1161
134.567 1406 37.4967
134.684 1540 39.2428
134.802 1711 41.3642
134.919 1703 41.2674
135.037 1696 41.1825
135.154 1623 40.2865
135.272 1571 39.6358
135.389 1497 38.6911
135.507 1403 37.4566
135.624 1383 37.1887
135.742 1383 37.1887
135.859 1419 37.6696
135.977 1326 36.4143
136.094 1343 36.647
136.211 1396 37.3631
136.329 1373 37.054
136.446 1332 36.4966
136.564 1333 36.5103
136.681 1362 36.9053
136.798 1323 36.3731
136.915 1352 36.7696
137.033 1345 36.6742
137.15 1376 37.0945
137.267 1303 36.0971
137.384 1295 35.9861
137.502 1230 35.0714
137.619 1224 34.9857
137.736 1237 35.171
137.853 1107 33.2716
137.97 1020 31.9374
138.087 960 30.9839
138.204 1037 32.2025
138.321 1133 33.6601
138.438 1176 34.2929
138.555 1122 33.4963
138.672 1171 34.2199
138.788 1192 34.5254
138.905 1092 33.0454
139.022 1119 33.4515
139.139 1069 32.6956
139.255 992 31.496
139.372 924 30.3974
139.488 855 29.2404
139.605 849 29.1376
139.721 799 28.2666
139.838 715 26.7395
139.954 689 26.2488
140.071 663 25.7488
140.187 654 25.5734
140.303 633 25.1595
140.419 578 24.0416
140.535 570 23.8747
140.652 494 22.2261
140.768 0 1
140.884 0 1
141 0 1
141.115 0 1
141.231 0 1
141.347 0 1
141.463 0 1
141.578 0 1
141.694 0 1
144.104 0 1
144.219 0 1
144.335 0 1
144.45 0 1
144.566 0 1
144.682 0 1
144.798 0 1
144.914 0 1
145.03 0 1
145.146 1481 38.4838
145.262 1582 39.7744
145.378 1648 40.5956
145.494 1716 41.4246
145.61 1744 41.7612
145.726 1821 42.6732
145.842 1877 43.3244
145.959 1919 43.8064
146.075 1920 43.8178
146.192 1970 44.3847
146.308 2058 45.3652
146.425 2028 45.0333
146.541 2125 46.0977
146.658 2049 45.2659
146.774 1824 42.7083
146.891 1583 39.7869
147.008 1695 41.1704
147.125 1926 43.8862
147.241 2068 45.4753
147.358 2207 46.9787
147.475 2219 47.1063
147.592 2134 46.1952
147.709 2135 46.2061
147.826 2187 46.7654
147.943 2268 47.6235
148.06 2169 46.5725
148.177 2226 47.1805
148.294 2201 46.9148
148.411 2377 48.7545
148.528 2292 47.8748
148.645 2331 48.2804
148.762 2272 47.6655
148.88 2266 47.6025
148.997 2379 48.775
149.114 2238 47.3075
149.231 2394 48.9285
149.349 2436 49.3559
149.466 2361 48.5901
149.583 2353 48.5077
149.701 2344 48.4149
149.818 2351 48.4871
149.935 2428 49.2747
150.053 2401 49
150.17 2389 48.8774
150.287 2331 48.2804
150.405 2250 47.4342
150.522 2072 45.5192
150.64 1827 42.7434
150.757 1829 42.7668
150.875 2130 46.1519
150.992 2297 47.927
151.11 2203 46.9361
151.227 2067 45.4643
151.344 2134 46.1952
151.462 2274 47.6865
151.579 2318 48.1456
151.697 2349 48.4665
151.814 2287 47.8226
151.932 2411 49.1019
152.049 2366 48.6415
152.167 2306 48.0208
152.284 2323 48.1975
152.402 2181 46.7012
152.519 2280 47.7493
152.636 2403 49.0204
152.754 2335 48.3218
152.871 2362 48.6004
152.989 2266 47.6025
153.106 2191 46.8081
153.223 2167 46.551
153.341 2248 47.4131
153.458 2145 46.3141
153.575 2247 47.4025
153.693 2160 46.4758
153.81 2142 46.2817
153.927 2068 45.4753
154.044 1933 43.9659
154.162 1756 41.9047
154.279 1638 40.4722
154.396 1760 41.9524
154.513 1932 43.9545
154.63 1976 44.4522
154.747 1813 42.5793
154.864 1873 43.2782
154.981 1870 43.2435
155.098 1912 43.7264
155.215 1976 44.4522
155.332 1949 44.1475
155.449 1940 44.0454
155.566 1969 44.3734
155.683 1969 44.3734
155.8 1906 43.6578
155.917 1965 44.3283
156.033 1905 43.6463
156.15 0 1
156.267 0 1
156.383 0 1
156.5 0 1
156.617 0 1
156.733 0 1
156.85 0 1
156.966 0 1
157.082 0 1
157.199 0 1
157.315 0 1
157.431 0 1
157.547 0 1
157.664 0 1
157.78 0 1
157.896 0 1
158.012 0 1
158.128 0 1
158.244 0 1
158.359 0 1
158.475 0 1
158.591 0 1
158.706 0 1
