
6.15755 0 1
6.2731 0 1
6.3887 0 1
6.50437 0 1
6.62009 0 1
6.73587 0 1
6.8517 0 1
6.96759 0 1
7.08353 0 1
7.19952 0 1
7.31557 0 1
7.43166 0 1
7.54781 0 1
7.664 0 1
7.78024 0 1
7.89653 0 1
8.01286 0 1
8.12924 0 1
8.24567 0 1
8.36213 0 1
8.47864 0 1
8.59519 0 1
8.71178 0 1
8.82841 0 1
8.94508 0 1
9.06179 0 1
9.17853 0 1
9.29531 0 1
9.41212 0 1
9.52897 0 1
9.64584 0 1
9.76276 0 1
9.8797 0 1
9.99667 0 1
10.1137 0 1
10.2307 0 1
10.3478 0 1
10.4648 0 1
10.5819 0 1
10.6991 0 1
10.8162 0 1
10.9334 0 1
11.0506 0 1
11.1678 0 1
11.285 0 1
11.4023 0 1
11.5196 0 1
11.6369 0 1
11.7542 0 1
11.8715 0 1
11.9888 0 1
12.1062 0 1
12.2235 0 1
12.3409 0 1
12.4582 0 1
12.5756 0 1
12.693 0 1
12.8104 0 1
12.9278 0 1
13.0452 0 1
13.1626 0 1
13.28 0 1
13.3974 0 1
13.5149 0 1
13.6323 0 1
13.7497 0 1
13.8671 0 1
13.9845 0 1
14.1019 0 1
14.2193 0 1
14.3367 0 1
14.4541 0 1
14.5714 0 1
14.6888 0 1
14.8062 0 1
14.9235 0 1
15.0408 926 30.4302
15.1581 912 30.1993
15.2755 982 31.3369
15.3927 968 31.1127
15.51 936 30.5941
15.6273 898 29.9666
15.7445 914 30.2324
15.8617 882 29.6985
15.9789 879 29.6479
16.0961 869 29.4788
16.2132 841 29
16.3304 810 28.4605
16.4475 855 29.2404
16.5646 870 29.4958
16.6816 875 29.5804
16.7986 841 29
16.9156 787 28.0535
17.0326 764 27.6405
17.1496 815 28.5482
17.2665 803 28.3373
17.3833 779 27.9106
17.5002 816 28.5657
17.617 792 28.1425
17.7338 795 28.1957
17.8505 836 28.9137
17.9672 786 28.0357
18.0839 748 27.3496
18.2005 758 27.5318
18.3171 776 27.8568
18.4337 792 28.1425
18.5502 832 28.8444
18.6666 806 28.3901
18.7831 812 28.4956
18.8994 830 28.8097
19.0158 777 27.8747
19.1321 732 27.0555
19.2483 735 27.1109
19.3645 676 26
19.4806 611 24.7184
19.5967 627 25.04
19.7128 596 24.4131
19.8288 585 24.1868
19.9447 521 22.8254
20.0606 0 1
20.1764 0 1
20.2922 0 1
20.4079 0 1
20.5236 0 1
20.6392 0 1
20.7548 0 1
20.8702 0 1
23.3078 0 1
23.4233 0 1
23.539 0 1
23.6547 0 1
23.7704 0 1
23.8862 0 1
24.0021 0 1
24.118 0 1
24.234 0 1
24.35 0 1
24.4661 536 23.1517
24.5822 561 23.6854
24.6984 731 27.037
24.8146 822 28.6705
24.9309 870 29.4958
25.0472 759 27.55
25.1636 765 27.6586
25.28 794 28.178
25.3965 833 28.8617
25.513 842 29.0172
25.6296 890 29.8329
25.7462 877 29.6142
25.8628 856 29.2575
25.9795 841 29
26.0962 873 29.5466
26.213 847 29.1033
26.3298 846 29.0861
26.4466 774 27.8209
26.5635 794 28.178
26.6804 727 26.9629
26.7973 682 26.1151
26.9143 694 26.3439
27.0313 656 25.6125
27.1483 730 27.0185
27.2653 741 27.2213
27.3824 721 26.8514
27.4996 705 26.5518
27.6167 683 26.1343
27.7339 664 25.7682
27.8511 667 25.8263
27.9683 687 26.2107
28.0855 678 26.0384
28.2028 729 27
28.3201 743 27.258
28.4374 705 26.5518
28.5547 727 26.9629
28.6721 775 27.8388
28.7894 790 28.1069
28.9068 792 28.1425
29.0242 728 26.9815
29.1416 742 27.2397
29.259 761 27.5862
29.3764 738 27.1662
29.4939 703 26.5141
29.6113 722 26.8701
29.7288 669 25.865
29.8463 696 26.3818
29.9638 692 26.3059
30.0812 666 25.807
30.1987 616 24.8193
30.3162 585 24.1868
30.4337 624 24.98
30.5512 674 25.9615
30.6687 673 25.9422
30.7862 721 26.8514
30.9037 776 27.8568
31.0212 705 26.5518
31.1387 708 26.6083
31.2562 696 26.3818
31.3737 651 25.5147
31.4912 681 26.096
31.6087 677 26.0192
31.7262 635 25.1992
31.8436 708 26.6083
31.9611 689 26.2488
32.0785 698 26.4197
32.1959 650 25.4951
32.3134 667 25.8263
32.4308 651 25.5147
32.5482 600 24.4949
32.6655 624 24.98
32.7829 641 25.318
32.9002 686 26.1916
33.0176 640 25.2982
33.1349 617 24.8395
33.2522 646 25.4165
33.3694 622 24.9399
33.4867 647 25.4362
33.6039 633 25.1595
33.7211 628 25.0599
33.8383 610 24.6982
33.9554 601 24.5153
34.0725 545 23.3452
34.1896 626 25.02
34.3067 657 25.632
34.4237 668 25.8457
34.5407 635 25.1992
34.6577 659 25.671
34.7746 673 25.9422
34.8915 667 25.8263
35.0084 587 24.2281
35.1252 590 24.2899
35.242 580 24.0832
35.3587 591 24.3105
35.4755 587 24.2281
35.5921 618 24.8596
35.7088 597 24.4336
35.8254 603 24.5561
35.9419 610 24.6982
36.0584 610 24.6982
36.1749 659 25.671
36.2913 592 24.3311
36.4077 593 24.3516
36.524 550 23.4521
36.6403 578 24.0416
36.7565 531 23.0434
36.8727 449 21.1896
36.9889 469 21.6564
37.1049 422 20.5426
37.221 0 1
37.3369 0 1
37.4529 0 1
37.5687 0 1
37.6845 0 1
37.8003 0 1
37.916 0 1
38.0316 0 1
38.1472 0 1
40.5851 0 1
40.7008 0 1
40.8164 0 1
40.9322 0 1
41.048 0 1
41.1639 0 1
41.2798 0 1
41.3958 0 1
41.5118 0 1
41.6279 0 1
41.744 265 16.2788
41.8602 318 17.8326
41.9765 345 18.5742
42.0928 452 21.2603
42.2091 441 21
42.3255 464 21.5407
42.4419 473 21.7486
42.5584 519 22.7816
42.675 475 21.7945
42.7915 524 22.891
42.9081 511 22.6053
43.0248 515 22.6936
43.1415 473 21.7486
43.2582 489 22.1133
43.375 480 21.9089
43.4918 504 22.4499
43.6087 490 22.1359
43.7256 483 21.9773
43.8425 521 22.8254
43.9595 477 21.8403
44.0765 453 21.2838
44.1935 432 20.7846
44.3106 477 21.8403
44.4277 508 22.5389
44.5448 522 22.8473
44.6619 514 22.6716
44.7791 516 22.7156
44.8963 536 23.1517
45.0136 515 22.6936
45.1308 527 22.9565
45.2481 506 22.4944
45.3654 553 23.516
45.4827 519 22.7816
45.6001 580 24.0832
45.7174 535 23.1301
45.8348 549 23.4307
45.9522 511 22.6053
46.0697 508 22.5389
46.1871 534 23.1084
46.3046 468 21.6333
46.422 446 21.1187
46.5395 524 22.891
46.657 498 22.3159
46.7745 528 22.9783
46.892 483 21.9773
47.0096 479 21.8861
47.1271 501 22.383
47.2446 528 22.9783
47.3622 508 22.5389
47.4797 501 22.383
47.5973 469 21.6564
47.7149 458 21.4009
47.8324 483 21.9773
47.95 467 21.6102
48.0675 483 21.9773
48.1851 513 22.6495
48.3027 536 23.1517
48.4202 544 23.3238
48.5378 535 23.1301
48.6554 581 24.1039
48.7729 508 22.5389
48.8904 553 23.516
49.008 583 24.1454
49.1255 548 23.4094
49.243 584 24.1661
49.3605 568 23.8328
49.478 498 22.3159
49.5955 496 22.2711
49.713 494 22.2261
49.8304 456 21.3542
49.9479 485 22.0227
50.0653 512 22.6274
50.1827 493 22.2036
50.3001 555 23.5584
50.4175 545 23.3452
50.5348 534 23.1084
50.6521 481 21.9317
50.7694 544 23.3238
50.8867 543 23.3024
51.004 481 21.9317
51.1212 493 22.2036
51.2384 463 21.5174
51.3556 469 21.6564
51.4727 511 22.6053
51.5899 509 22.561
51.707 530 23.0217
51.824 579 24.0624
51.9411 582 24.1247
52.0581 612 24.7386
52.175 620 24.8998
52.2919 718 26.7955
52.4088 691 26.2869
52.5257 702 26.4953
52.6425 678 26.0384
52.7593 673 25.9422
52.876 670 25.8844
52.9927 611 24.7184
53.1094 593 24.3516
53.226 651 25.5147
53.3426 665 25.7876
53.4591 788 28.0713
53.5756 1103 33.2114
53.692 1689 41.0974
53.8084 2336 48.3322
53.9248 3057 55.2901
54.0411 3893 62.3939
54.1573 4286 65.4675
54.2735 0 1
54.3896 0 1
54.5057 0 1
54.6217 0 1
54.7377 0 1
54.8537 0 1
54.9695 0 1
55.0853 0 1
55.2011 0 1
55.3168 0 1
55.4324 0 1
57.824 0 1
57.9396 0 1
58.0553 0 1
58.1711 0 1
58.2869 0 1
58.4028 0 1
58.5187 0 1
58.6347 0 1
58.7508 0 1
58.8669 0 1
58.983 3289 57.3498
59.0992 3608 60.0666
59.2155 3983 63.111
59.3318 4228 65.0231
59.4482 4247 65.169
59.5646 4434 66.5883
59.681 4551 67.4611
59.7975 4408 66.3928
59.9141 4143 64.3661
60.0306 3473 58.9322
60.1473 2769 52.6213
60.2639 2238 47.3075
60.3807 1877 43.3244
60.4974 1771 42.0833
60.6142 1679 40.9756
60.731 1699 41.2189
60.8479 1631 40.3856
60.9648 1493 38.6394
61.0818 1321 36.3456
61.1987 1340 36.606
61.3158 1149 33.8969
61.4328 1100 33.1662
61.5499 1015 31.8591
61.667 951 30.8383
61.7841 835 28.8964
61.9013 845 29.0689
62.0185 760 27.5681
62.1357 750 27.3861
62.253 774 27.8209
62.3702 754 27.4591
62.4875 770 27.7489
62.6049 684 26.1534
62.7222 665 25.7876
62.8396 673 25.9422
62.9569 671 25.9037
63.0743 663 25.7488
63.1918 647 25.4362
63.3092 641 25.318
63.4267 561 23.6854
63.5441 585 24.1868
63.6616 593 24.3516
63.7791 560 23.6643
63.8966 528 22.9783
64.0142 552 23.4947
64.1317 536 23.1517
64.2492 554 23.5372
64.3668 554 23.5372
64.4843 533 23.0868
64.6019 526 22.9347
64.7195 566 23.7908
64.837 538 23.1948
64.9546 582 24.1247
65.0722 527 22.9565
65.1898 497 22.2935
65.3074 535 23.1301
65.4249 510 22.5832
65.5425 555 23.5584
65.6601 483 21.9773
65.7777 506 22.4944
65.8952 501 22.383
66.0128 502 22.4054
66.1304 581 24.1039
66.2479 511 22.6053
66.3655 556 23.5797
66.483 559 23.6432
66.6005 530 23.0217
66.718 544 23.3238
66.8355 554 23.5372
66.953 496 22.2711
67.0705 493 22.2036
67.1879 533 23.0868
67.3054 533 23.0868
67.4228 523 22.8692
67.5402 541 23.2594
67.6576 504 22.4499
67.7749 470 21.6795
67.8923 530 23.0217
68.0096 513 22.6495
68.1269 536 23.1517
68.2442 522 22.8473
68.3614 531 23.0434
68.4787 550 23.4521
68.5958 467 21.6102
68.713 501 22.383
68.8302 529 23
68.9473 482 21.9545
69.0643 490 22.1359
69.1814 490 22.1359
69.2984 478 21.8632
69.4154 484 22
69.5323 518 22.7596
69.6492 497 22.2935
69.7661 514 22.6716
69.8829 528 22.9783
69.9997 539 23.2164
70.1165 495 22.2486
70.2332 442 21.0238
70.3499 468 21.6333
70.4665 460 21.4476
70.5831 421 20.5183
70.6996 429 20.7123
70.8161 366 19.1311
70.9326 355 18.8414
71.049 282 16.7929
71.1653 283 16.8226
71.2817 239 15.4596
71.3979 243 15.5885
71.5141 245 15.6525
71.6303 216 14.6969
71.7464 187 13.6748
71.8624 0 1
71.9784 0 1
72.0944 0 1
72.2102 0 1
72.3261 0 1
72.4418 0 1
72.5575 0 1
72.6732 0 1
75.1054 0 1
75.2209 0 1
75.3365 0 1
75.4521 0 1
75.5678 0 1
75.6835 0 1
75.7993 0 1
75.9151 0 1
76.031 0 1
76.147 291 17.0587
76.263 324 18
76.3791 360 18.9737
76.4952 392 19.799
76.6113 382 19.5448
76.7276 420 20.4939
76.8438 402 20.0499
76.9601 400 20
77.0765 430 20.7364
77.1929 438 20.9284
77.3093 426 20.6398
77.4258 418 20.445
77.5423 466 21.587
77.6589 465 21.5639
77.7755 461 21.4709
77.8921 427 20.664
78.0088 425 20.6155
78.1256 410 20.2485
78.2423 442 21.0238
78.3591 417 20.4206
78.4759 427 20.664
78.5928 412 20.2978
78.7097 444 21.0713
78.8266 434 20.8327
78.9436 451 21.2368
79.0606 392 19.799
79.1776 465 21.5639
79.2946 432 20.7846
79.4117 413 20.3224
79.5288 418 20.445
79.6459 457 21.3776
79.7631 439 20.9523
79.8802 519 22.7816
79.9974 456 21.3542
80.1147 404 20.0998
80.2319 400 20
80.3491 390 19.7484
80.4664 437 20.9045
80.5837 413 20.3224
80.701 449 21.1896
80.8183 409 20.2237
80.9357 418 20.445
81.053 397 19.9249
81.1704 417 20.4206
81.2877 493 22.2036
81.4051 429 20.7123
81.5225 438 20.9284
81.6399 433 20.8087
81.7573 468 21.6333
81.8747 441 21
81.9922 404 20.0998
82.1096 402 20.0499
82.227 450 21.2132
82.3444 384 19.5959
82.4619 417 20.4206
82.5793 466 21.587
82.6967 440 20.9762
82.8142 489 22.1133
82.9316 469 21.6564
83.049 460 21.4476
83.1664 454 21.3073
83.2838 427 20.664
83.4012 477 21.8403
83.5186 484 22
83.636 486 22.0454
83.7534 447 21.1424
83.8708 429 20.7123
83.9881 406 20.1494
84.1055 460 21.4476
84.2228 445 21.095
84.3401 431 20.7605
84.4575 458 21.4009
84.5747 430 20.7364
84.692 460 21.4476
84.8093 451 21.2368
84.9265 486 22.0454
85.0437 448 21.166
85.1609 449 21.1896
85.2781 488 22.0907
85.3952 447 21.1424
85.5123 493 22.2036
85.6294 429 20.7123
85.7465 404 20.0998
85.8636 429 20.7123
85.9806 414 20.347
86.0976 394 19.8494
86.2145 432 20.7846
86.3315 435 20.8567
86.4484 456 21.3542
86.5652 431 20.7605
86.682 466 21.587
86.7988 429 20.7123
86.9156 456 21.3542
87.0323 455 21.3307
87.149 444 21.0713
87.2657 472 21.7256
87.3823 464 21.5407
87.4988 435 20.8567
87.6154 425 20.6155
87.7318 398 19.9499
87.8483 360 18.9737
87.9647 343 18.5203
88.081 367 19.1572
88.1973 343 18.5203
88.3136 292 17.088
88.4298 318 17.8326
88.546 301 17.3494
88.6621 296 17.2047
88.7781 250 15.8114
88.8942 0 1
89.0101 0 1
89.126 0 1
89.2419 0 1
89.3577 0 1
89.4734 0 1
89.5891 0 1
89.7047 0 1
89.8203 0 1
89.9358 0 1
92.3269 0 1
92.4424 0 1
92.558 0 1
92.6736 0 1
92.7893 0 1
92.905 0 1
93.0208 0 1
93.1366 0 1
93.2525 0 1
93.3685 0 1
93.4845 0 1
93.6005 312 17.6635
93.7167 381 19.5192
93.8328 362 19.0263
93.949 429 20.7123
94.0653 439 20.9523
94.1816 444 21.0713
94.2979 462 21.4942
94.4143 450 21.2132
94.5307 446 21.1187
94.6472 449 21.1896
94.7637 433 20.8087
94.8803 447 21.1424
94.9969 479 21.8861
95.1135 461 21.4709
95.2302 429 20.7123
95.3469 403 20.0749
95.4637 453 21.2838
95.5805 454 21.3073
95.6973 420 20.4939
95.8142 466 21.587
95.9311 464 21.5407
96.048 495 22.2486
96.1649 459 21.4243
96.2819 457 21.3776
96.3989 439 20.9523
96.516 426 20.6398
96.633 446 21.1187
96.7501 427 20.664
96.8673 448 21.166
96.9844 459 21.4243
97.1016 428 20.6882
97.2188 452 21.2603
97.336 460 21.4476
97.4532 466 21.587
97.5704 457 21.3776
97.6877 495 22.2486
97.805 475 21.7945
97.9223 485 22.0227
98.0396 495 22.2486
98.1569 484 22
98.2743 451 21.2368
98.3916 480 21.9089
98.509 485 22.0227
98.6264 460 21.4476
98.7438 428 20.6882
98.8612 405 20.1246
98.9786 441 21
99.096 446 21.1187
99.2134 529 23
99.3308 543 23.3024
99.4482 556 23.5797
99.5656 535 23.1301
99.6831 514 22.6716
99.8005 494 22.2261
99.9179 504 22.4499
100.035 502 22.4054
100.153 522 22.8473
100.27 464 21.5407
100.388 461 21.4709
100.505 477 21.8403
100.622 495 22.2486
100.74 494 22.2261
100.857 452 21.2603
100.975 470 21.6795
101.092 502 22.4054
101.209 558 23.622
101.327 488 22.0907
101.444 573 23.9374
101.561 559 23.6432
101.679 531 23.0434
101.796 619 24.8797
101.913 576 24
102.03 526 22.9347
102.148 529 23
102.265 545 23.3452
102.382 496 22.2711
102.499 506 22.4944
102.616 531 23.0434
102.733 555 23.5584
102.851 537 23.1733
102.968 630 25.0998
103.085 592 24.3311
103.202 605 24.5967
103.319 601 24.5153
103.436 561 23.6854
103.552 610 24.6982
103.669 563 23.7276
103.786 605 24.5967
103.903 597 24.4336
104.02 612 24.7386
104.137 633 25.1595
104.253 696 26.3818
104.37 660 25.6905
104.487 718 26.7955
104.603 754 27.4591
104.72 767 27.6948
104.836 827 28.7576
104.953 882 29.6985
105.069 849 29.1376
105.186 829 28.7924
105.302 823 28.688
105.418 747 27.3313
105.535 730 27.0185
105.651 624 24.98
105.767 590 24.2899
105.883 582 24.1247
105.999 541 23.2594
106.115 0 1
106.231 0 1
106.347 0 1
106.463 0 1
106.579 0 1
106.694 0 1
106.81 0 1
106.926 0 1
107.041 0 1
107.157 0 1
109.576 0 1
109.692 0 1
109.807 0 1
109.923 0 1
110.039 0 1
110.155 0 1
110.27 0 1
110.386 0 1
110.502 0 1
110.618 412 20.2978
110.735 456 21.3542
110.851 510 22.5832
110.967 516 22.7156
111.083 534 23.1084
111.199 627 25.04
111.316 674 25.9615
111.432 688 26.2298
111.549 759 27.55
111.665 775 27.8388
111.782 780 27.9285
111.898 782 27.9643
112.015 757 27.5136
112.132 885 29.7489
112.248 931 30.5123
112.365 825 28.7228
112.482 724 26.9072
112.599 710 26.6458
112.716 703 26.5141
112.832 771 27.7669
112.949 921 30.348
113.066 1169 34.1906
113.183 1265 35.5668
113.3 1361 36.8917
113.417 1411 37.5633
113.534 1517 38.9487
113.652 1607 40.0874
113.769 1690 41.1096
113.886 1674 40.9145
114.003 1637 40.4599
114.12 1710 41.3521
114.238 1708 41.328
114.355 1596 39.95
114.472 1542 39.2683
114.589 1154 33.9706
114.707 1172 34.2345
114.824 1463 38.2492
114.942 1518 38.9615
115.059 1371 37.027
115.176 1525 39.0512
115.294 1479 38.4578
115.411 1363 36.9188
115.529 1169 34.1906
115.646 925 30.4138
115.764 864 29.3939
115.881 728 26.9815
115.999 595 24.3926
116.116 467 21.6102
116.234 454 21.3073
116.351 467 21.6102
116.469 430 20.7364
116.586 459 21.4243
116.704 402 20.0499
116.821 455 21.3307
116.939 405 20.1246
117.056 452 21.2603
117.174 445 21.095
117.291 451 21.2368
117.409 417 20.4206
117.526 410 20.2485
117.644 421 20.5183
117.761 400 20
117.879 455 21.3307
117.996 336 18.3303
118.114 364 19.0788
118.231 370 19.2354
118.349 393 19.8242
118.466 381 19.5192
118.584 418 20.445
118.701 418 20.445
118.819 419 20.4695
118.936 390 19.7484
119.053 410 20.2485
119.171 408 20.199
119.288 436 20.8806
119.405 404 20.0998
119.523 390 19.7484
119.64 364 19.0788
119.757 375 19.3649
119.875 359 18.9473
119.992 368 19.1833
120.109 362 19.0263
120.226 392 19.799
120.343 360 18.9737
120.46 392 19.799
120.578 383 19.5704
120.695 406 20.1494
120.812 414 20.347
120.929 412 20.2978
121.046 435 20.8567
121.163 401 20.025
121.279 382 19.5448
121.396 390 19.7484
121.513 386 19.6469
121.63 367 19.1572
121.747 347 18.6279
121.863 282 16.7929
121.98 307 17.5214
122.097 355 18.8414
122.213 313 17.6918
122.33 330 18.1659
122.446 321 17.9165
122.563 329 18.1384
122.679 286 16.9115
122.795 276 16.6132
122.912 277 16.6433
123.028 226 15.0333
123.144 230 15.1658
123.26 177 13.3041
123.377 0 1
123.493 0 1
123.609 0 1
123.725 0 1
123.84 0 1
123.956 0 1
124.072 0 1
124.188 0 1
124.303 0 1
124.419 0 1
126.852 0 1
126.968 0 1
127.083 0 1
127.199 0 1
127.315 0 1
127.431 0 1
127.547 0 1
127.663 0 1
127.779 0 1
127.895 0 1
128.011 0 1
128.127 0 1
128.243 0 1
128.359 393 19.8242
128.476 430 20.7364
128.592 412 20.2978
128.708 379 19.4679
128.825 397 19.9249
128.941 386 19.6469
129.058 409 20.2237
129.174 462 21.4942
129.291 448 21.166
129.408 478 21.8632
129.524 436 20.8806
129.641 456 21.3542
129.758 452 21.2603
129.875 461 21.4709
129.992 476 21.8174
130.108 458 21.4009
130.225 537 23.1733
130.342 492 22.1811
130.459 537 23.1733
130.576 492 22.1811
130.693 479 21.8861
130.81 476 21.8174
130.928 488 22.0907
131.045 506 22.4944
131.162 563 23.7276
131.279 601 24.5153
131.396 644 25.3772
131.513 654 25.5734
131.631 641 25.318
131.748 733 27.074
131.865 726 26.9444
131.983 762 27.6043
132.1 761 27.5862
132.217 757 27.5136
132.335 798 28.2489
132.452 840 28.9828
132.57 907 30.1164
132.687 928 30.4631
132.804 964 31.0483
132.922 1018 31.9061
133.039 1060 32.5576
133.157 1046 32.3419
133.274 1115 33.3916
133.392 1047 32.3574
133.509 1131 33.6303
133.627 1068 32.6803
133.744 1132 33.6452
133.862 1090 33.0151
133.979 1100 33.1662
134.097 1126 33.5559
134.214 935 30.5778
134.332 840 28.9828
134.449 891 29.8496
134.567 971 31.1609
134.684 1035 32.1714
134.802 1054 32.4654
134.919 1070 32.7109
135.037 1076 32.8024
135.154 1066 32.6497
135.272 1063 32.6037
135.389 1103 33.2114
135.507 1074 32.7719
135.624 1110 33.3167
135.742 1075 32.7872
135.859 1005 31.7017
135.977 1091 33.0303
136.094 1056 32.4962
136.211 1121 33.4813
136.329 1127 33.5708
136.446 1125 33.541
136.564 1085 32.9393
136.681 1040 32.249
136.798 998 31.5911
136.915 1101 33.1813
137.033 1090 33.0151
137.15 1157 34.0147
137.267 1151 33.9264
137.384 1046 32.3419
137.502 1044 32.311
137.619 1041 32.2645
137.736 1035 32.1714
137.853 850 29.1548
137.97 836 28.9137
138.087 825 28.7228
138.204 927 30.4467
138.321 950 30.8221
138.438 1001 31.6386
138.555 1061 32.573
138.672 1061 32.573
138.788 1049 32.3883
138.905 1033 32.1403
139.022 978 31.273
139.139 1009 31.7648
139.255 903 30.05
139.372 854 29.2233
139.488 788 28.0713
139.605 741 27.2213
139.721 731 27.037
139.838 696 26.3818
139.954 669 25.865
140.071 624 24.98
140.187 622 24.9399
140.303 575 23.9792
140.419 562 23.7065
140.535 511 22.6053
140.652 521 22.8254
140.768 0 1
140.884 0 1
141 0 1
141.115 0 1
141.231 0 1
141.347 0 1
141.463 0 1
141.578 0 1
141.694 0 1
144.104 0 1
144.219 0 1
144.335 0 1
144.45 0 1
144.566 0 1
144.682 0 1
144.798 0 1
144.914 0 1
145.03 0 1
145.146 846 29.0861
145.262 901 30.0167
145.378 830 28.8097
145.494 893 29.8831
145.61 853 29.2062
145.726 914 30.2324
145.842 893 29.8831
145.959 900 30
146.075 936 30.5941
146.192 978 31.273
146.308 988 31.4325
146.425 938 30.6268
146.541 891 29.8496
146.658 803 28.3373
146.774 837 28.931
146.891 877 29.6142
147.008 912 30.1993
147.125 970 31.1448
147.241 978 31.273
147.358 962 31.0161
147.475 943 30.7083
147.592 980 31.305
147.709 1006 31.7175
147.826 937 30.6105
147.943 956 30.9192
148.06 965 31.0644
148.177 872 29.5296
148.294 945 30.7409
148.411 950 30.8221
148.528 1013 31.8277
148.645 943 30.7083
148.762 996 31.5595
148.88 952 30.8545
148.997 982 31.3369
149.114 985 31.3847
149.231 943 30.7083
149.349 979 31.289
149.466 950 30.8221
149.583 1075 32.7872
149.701 1048 32.3728
149.818 983 31.3528
149.935 1026 32.0312
150.053 980 31.305
150.17 1005 31.7017
150.287 957 30.9354
150.405 862 29.3598
150.522 887 29.7825
150.64 932 30.5287
150.757 1005 31.7017
150.875 960 30.9839
150.992 1001 31.6386
151.11 929 30.4795
151.227 929 30.4795
151.344 931 30.5123
151.462 924 30.3974
151.579 991 31.4802
151.697 980 31.305
151.814 946 30.7571
151.932 983 31.3528
152.049 1000 31.6228
152.167 1021 31.9531
152.284 1015 31.8591
152.402 1048 32.3728
152.519 1004 31.686
152.636 1010 31.7805
152.754 1013 31.8277
152.871 980 31.305
152.989 1070 32.7109
153.106 1102 33.1964
153.223 1064 32.619
153.341 996 31.5595
153.458 1042 32.28
153.575 1010 31.7805
153.693 1034 32.1559
153.81 1011 31.7962
153.927 954 30.8869
154.044 904 30.0666
154.162 1009 31.7648
154.279 1136 33.7046
154.396 1147 33.8674
154.513 1171 34.2199
154.63 1184 34.4093
154.747 1262 35.5246
154.864 1343 36.647
154.981 1431 37.8286
155.098 1572 39.6485
155.215 1738 41.6893
155.332 1879 43.3474
155.449 2011 44.8442
155.566 2108 45.913
155.683 2294 47.8957
155.8 2521 50.2096
155.917 2618 51.1664
156.033 2756 52.4976
156.15 0 1
156.267 0 1
156.383 0 1
156.5 0 1
156.617 0 1
156.733 0 1
156.85 0 1
156.966 0 1
157.082 0 1
157.199 0 1
157.315 0 1
157.431 0 1
157.547 0 1
157.664 0 1
157.78 0 1
157.896 0 1
158.012 0 1
158.128 0 1
158.244 0 1
158.359 0 1
158.475 0 1
158.591 0 1
158.706 0 1
