
6.15755 0 1
6.2731 0 1
6.3887 0 1
6.50437 0 1
6.62009 0 1
6.73587 0 1
6.8517 0 1
6.96759 0 1
7.08353 0 1
7.19952 0 1
7.31557 0 1
7.43166 0 1
7.54781 0 1
7.664 0 1
7.78024 0 1
7.89653 0 1
8.01286 0 1
8.12924 0 1
8.24567 0 1
8.36213 0 1
8.47864 0 1
8.59519 0 1
8.71178 0 1
8.82841 0 1
8.94508 0 1
9.06179 0 1
9.17853 0 1
9.29531 0 1
9.41212 0 1
9.52897 0 1
9.64584 0 1
9.76276 0 1
9.8797 0 1
9.99667 0 1
10.1137 0 1
10.2307 0 1
10.3478 0 1
10.4648 0 1
10.5819 0 1
10.6991 0 1
10.8162 0 1
10.9334 0 1
11.0506 0 1
11.1678 0 1
11.285 0 1
11.4023 0 1
11.5196 0 1
11.6369 0 1
11.7542 0 1
11.8715 0 1
11.9888 0 1
12.1062 0 1
12.2235 0 1
12.3409 0 1
12.4582 0 1
12.5756 0 1
12.693 0 1
12.8104 0 1
12.9278 0 1
13.0452 0 1
13.1626 0 1
13.28 0 1
13.3974 0 1
13.5149 0 1
13.6323 0 1
13.7497 0 1
13.8671 0 1
13.9845 0 1
14.1019 0 1
14.2193 0 1
14.3367 0 1
14.4541 0 1
14.5714 0 1
14.6888 0 1
14.8062 0 1
14.9235 0 1
15.0408 0 0
15.1581 0 0
15.2755 0 0
15.3927 0 0
15.51 0 0
15.6273 0 0
15.7445 0 0
15.8617 0 0
15.9789 0 0
16.0961 0 0
16.2132 0 0
16.3304 0 0
16.4475 0 0
16.5646 0 0
16.6816 0 0
16.7986 0 0
16.9156 0 0
17.0326 0 0
17.1496 0 0
17.2665 0 0
17.3833 0 0
17.5002 0 0
17.617 0 0
17.7338 0 0
17.8505 0 0
17.9672 0 0
18.0839 0 0
18.2005 0 0
18.3171 0 0
18.4337 0 0
18.5502 0 0
18.6666 0 0
18.7831 0 0
18.8994 0 0
19.0158 0 0
19.1321 0 0
19.2483 0 0
19.3645 0 0
19.4806 0 0
19.5967 0 0
19.7128 0 0
19.8288 0 0
19.9447 0 0
20.0606 0 1
20.1764 0 1
20.2922 0 1
20.4079 0 1
20.5236 0 1
20.6392 0 1
20.7548 0 1
20.8702 0 1
23.3078 0 1
23.4233 0 1
23.539 0 1
23.6547 0 1
23.7704 0 1
23.8862 0 1
24.0021 0 1
24.118 0 1
24.234 0 1
24.35 0 1
24.4661 1332 36.4966
24.5822 1326 36.4143
24.6984 1294 35.9722
24.8146 1277 35.7351
24.9309 1202 34.6699
25.0472 1281 35.7911
25.1636 1255 35.426
25.28 1241 35.2278
25.3965 1313 36.2353
25.513 1328 36.4417
25.6296 1474 38.3927
25.7462 1501 38.7427
25.8628 1514 38.9102
25.9795 1468 38.3145
26.0962 1490 38.6005
26.213 1519 38.9744
26.3298 1444 38
26.4466 1497 38.6911
26.5635 1381 37.1618
26.6804 1375 37.081
26.7973 1329 36.4555
26.9143 1327 36.428
27.0313 1417 37.6431
27.1483 1381 37.1618
27.2653 1436 37.8946
27.3824 1477 38.4318
27.4996 1451 38.092
27.6167 1419 37.6696
27.7339 1455 38.1445
27.8511 1436 37.8946
27.9683 1338 36.5787
28.0855 1334 36.524
28.2028 1335 36.5377
28.3201 1297 36.0139
28.4374 1327 36.428
28.5547 1161 34.0735
28.6721 1262 35.5246
28.7894 1249 35.3412
28.9068 1320 36.3318
29.0242 1323 36.3731
29.1416 1365 36.9459
29.259 1409 37.5366
29.3764 1387 37.2424
29.4939 1446 38.0263
29.6113 1531 39.128
29.7288 1452 38.1051
29.8463 1439 37.9342
29.9638 1424 37.7359
30.0812 1384 37.2022
30.1987 1340 36.606
30.3162 1303 36.0971
30.4337 1340 36.606
30.5512 1301 36.0694
30.6687 1373 37.054
30.7862 1401 37.4299
30.9037 1449 38.0657
31.0212 1497 38.6911
31.1387 1400 37.4166
31.2562 1459 38.1969
31.3737 1455 38.1445
31.4912 1323 36.3731
31.6087 1390 37.2827
31.7262 1195 34.5688
31.8436 1321 36.3456
31.9611 1197 34.5977
32.0785 1211 34.7994
32.1959 1183 34.3948
32.3134 1230 35.0714
32.4308 1290 35.9166
32.5482 1361 36.8917
32.6655 1403 37.4566
32.7829 1330 36.4692
32.9002 1474 38.3927
33.0176 1392 37.3095
33.1349 1419 37.6696
33.2522 1396 37.3631
33.3694 1499 38.7169
33.4867 1409 37.5366
33.6039 1473 38.3797
33.7211 1388 37.2559
33.8383 1394 37.3363
33.9554 1354 36.7967
34.0725 1321 36.3456
34.1896 1458 38.1838
34.3067 1377 37.108
34.4237 1450 38.0789
34.5407 1414 37.6032
34.6577 1499 38.7169
34.7746 1435 37.8814
34.8915 1506 38.8072
35.0084 1399 37.4032
35.1252 1443 37.9868
35.242 1379 37.1349
35.3587 1341 36.6197
35.4755 1298 36.0278
35.5921 1250 35.3553
35.7088 1197 34.5977
35.8254 1139 33.7491
35.9419 1176 34.2929
36.0584 1160 34.0588
36.1749 1269 35.623
36.2913 1336 36.5513
36.4077 1413 37.5899
36.524 1381 37.1618
36.6403 1375 37.081
36.7565 1425 37.7492
36.8727 1455 38.1445
36.9889 1464 38.2623
37.1049 1449 38.0657
37.221 0 1
37.3369 0 1
37.4529 0 1
37.5687 0 1
37.6845 0 1
37.8003 0 1
37.916 0 1
38.0316 0 1
38.1472 0 1
40.5851 0 1
40.7008 0 1
40.8164 0 1
40.9322 0 1
41.048 0 1
41.1639 0 1
41.2798 0 1
41.3958 0 1
41.5118 0 1
41.6279 0 1
41.744 1207 34.7419
41.8602 1230 35.0714
41.9765 1314 36.2491
42.0928 1294 35.9722
42.2091 1288 35.8887
42.3255 1304 36.1109
42.4419 1275 35.7071
42.5584 1210 34.7851
42.675 1155 33.9853
42.7915 1230 35.0714
42.9081 1171 34.2199
43.0248 1299 36.0416
43.1415 1295 35.9861
43.2582 1299 36.0416
43.375 1345 36.6742
43.4918 1283 35.819
43.6087 1313 36.2353
43.7256 1304 36.1109
43.8425 1324 36.3868
43.9595 1292 35.9444
44.0765 1241 35.2278
44.1935 1121 33.4813
44.3106 1094 33.0757
44.4277 1046 32.3419
44.5448 961 31
44.6619 931 30.5123
44.7791 944 30.7246
44.8963 1016 31.8748
45.0136 1067 32.665
45.1308 1150 33.9116
45.2481 1102 33.1964
45.3654 1068 32.6803
45.4827 1091 33.0303
45.6001 1149 33.8969
45.7174 1118 33.4365
45.8348 1144 33.8231
45.9522 1085 32.9393
46.0697 1022 31.9687
46.1871 1015 31.8591
46.3046 935 30.5778
46.422 962 31.0161
46.5395 991 31.4802
46.657 1043 32.2955
46.7745 1052 32.4345
46.892 1054 32.4654
47.0096 1020 31.9374
47.1271 1046 32.3419
47.2446 1086 32.9545
47.3622 1065 32.6343
47.4797 1026 32.0312
47.5973 959 30.9677
47.7149 960 30.9839
47.8324 844 29.0517
47.95 888 29.7993
48.0675 754 27.4591
48.1851 747 27.3313
48.3027 716 26.7582
48.4202 734 27.0924
48.5378 761 27.5862
48.6554 863 29.3769
48.7729 878 29.6311
48.8904 926 30.4302
49.008 949 30.8058
49.1255 897 29.95
49.243 935 30.5778
49.3605 970 31.1448
49.478 949 30.8058
49.5955 921 30.348
49.713 891 29.8496
49.8304 904 30.0666
49.9479 932 30.5287
50.0653 959 30.9677
50.1827 1057 32.5115
50.3001 1112 33.3467
50.4175 1110 33.3167
50.5348 1080 32.8634
50.6521 1151 33.9264
50.7694 1166 34.1467
50.8867 1146 33.8526
51.004 1085 32.9393
51.1212 1210 34.7851
51.2384 1137 33.7194
51.3556 1109 33.3017
51.4727 1073 32.7567
51.5899 961 31
51.707 988 31.4325
51.824 994 31.5278
51.9411 1048 32.3728
52.0581 1148 33.8821
52.175 1266 35.5809
52.2919 1316 36.2767
52.4088 1370 37.0135
52.5257 1421 37.6962
52.6425 1359 36.8646
52.7593 1428 37.7889
52.876 1408 37.5233
52.9927 1387 37.2424
53.1094 1424 37.7359
53.226 1381 37.1618
53.3426 1363 36.9188
53.4591 1375 37.081
53.5756 1390 37.2827
53.692 1447 38.0395
53.8084 1460 38.2099
53.9248 1542 39.2683
54.0411 1455 38.1445
54.1573 1450 38.0789
54.2735 0 1
54.3896 0 1
54.5057 0 1
54.6217 0 1
54.7377 0 1
54.8537 0 1
54.9695 0 1
55.0853 0 1
55.2011 0 1
55.3168 0 1
55.4324 0 1
57.824 0 1
57.9396 0 1
58.0553 0 1
58.1711 0 1
58.2869 0 1
58.4028 0 1
58.5187 0 1
58.6347 0 1
58.7508 0 1
58.8669 0 1
58.983 1825 42.72
59.0992 1959 44.2606
59.2155 1966 44.3396
59.3318 1932 43.9545
59.4482 2027 45.0222
59.5646 1964 44.317
59.681 1954 44.2041
59.7975 1987 44.5758
59.9141 1775 42.1307
60.0306 1810 42.5441
60.1473 1645 40.5586
60.2639 1550 39.37
60.3807 1442 37.9737
60.4974 1396 37.3631
60.6142 1481 38.4838
60.731 1592 39.8999
60.8479 1830 42.7785
60.9648 1864 43.1741
61.0818 1872 43.2666
61.1987 1935 43.9886
61.3158 1906 43.6578
61.4328 1905 43.6463
61.5499 1914 43.7493
61.667 1962 44.2945
61.7841 1946 44.1135
61.9013 1858 43.1045
62.0185 1801 42.4382
62.1357 1817 42.6263
62.253 1922 43.8406
62.3702 1931 43.9431
62.4875 1901 43.6005
62.6049 1941 44.0568
62.7222 2032 45.0777
62.8396 2107 45.9021
62.9569 2047 45.2438
63.0743 2130 46.1519
63.1918 2128 46.1303
63.3092 2019 44.9333
63.4267 1827 42.7434
63.5441 1745 41.7732
63.6616 1674 40.9145
63.7791 1535 39.1791
63.8966 1490 38.6005
64.0142 1430 37.8153
64.1317 1478 38.4448
64.2492 1668 40.8412
64.3668 1771 42.0833
64.4843 1929 43.9204
64.6019 1881 43.3705
64.7195 2012 44.8553
64.837 1980 44.4972
64.9546 1948 44.1362
65.0722 1962 44.2945
65.1898 1964 44.317
65.3074 1920 43.8178
65.4249 1824 42.7083
65.5425 1781 42.2019
65.6601 1865 43.1856
65.7777 1897 43.5546
65.8952 2050 45.2769
66.0128 2072 45.5192
66.1304 2072 45.5192
66.2479 2074 45.5412
66.3655 2095 45.7712
66.483 2170 46.5833
66.6005 2106 45.8912
66.718 2198 46.8828
66.8355 2071 45.5082
66.953 2031 45.0666
67.0705 1991 44.6206
67.1879 1892 43.4971
67.3054 1718 41.4488
67.4228 1569 39.6106
67.5402 1411 37.5633
67.6576 1410 37.55
67.7749 1472 38.3667
67.8923 1686 41.0609
68.0096 1906 43.6578
68.1269 2033 45.0888
68.2442 2196 46.8615
68.3614 2153 46.4004
68.4787 2297 47.927
68.5958 2217 47.085
68.713 2218 47.0956
68.8302 2180 46.6905
68.9473 2115 45.9891
69.0643 2098 45.8039
69.1814 2077 45.5741
69.2984 2162 46.4973
69.4154 2226 47.1805
69.5323 2157 46.4435
69.6492 2302 47.9792
69.7661 2343 48.4045
69.8829 2328 48.2494
69.9997 2398 48.9694
70.1165 2541 50.4083
70.2332 2459 49.5883
70.3499 2240 47.3286
70.4665 2339 48.3632
70.5831 2357 48.5489
70.6996 2232 47.244
70.8161 2163 46.5081
70.9326 2007 44.7996
71.049 1775 42.1307
71.1653 1599 39.9875
71.2817 1450 38.0789
71.3979 1552 39.3954
71.5141 1612 40.1497
71.6303 1822 42.6849
71.7464 1909 43.6921
71.8624 0 1
71.9784 0 1
72.0944 0 1
72.2102 0 1
72.3261 0 1
72.4418 0 1
72.5575 0 1
72.6732 0 1
75.1054 0 1
75.2209 0 1
75.3365 0 1
75.4521 0 1
75.5678 0 1
75.6835 0 1
75.7993 0 1
75.9151 0 1
76.031 0 1
76.147 2128 46.1303
76.263 2226 47.1805
76.3791 1993 44.643
76.4952 1806 42.4971
76.6113 1623 40.2865
76.7276 1690 41.1096
76.8438 1974 44.4297
76.9601 2115 45.9891
77.0765 2420 49.1935
77.1929 2646 51.4393
77.3093 2704 52
77.4258 2704 52
77.5423 2814 53.0471
77.6589 2792 52.8394
77.7755 2772 52.6498
77.8921 2637 51.3517
78.0088 2599 50.9804
78.1256 2586 50.8527
78.2423 2487 49.8698
78.3591 2542 50.4183
78.4759 2608 51.0686
78.5928 2702 51.9808
78.7097 2752 52.4595
78.8266 2920 54.037
78.9436 2753 52.469
79.0606 2894 53.7959
79.1776 2815 53.0566
79.2946 3035 55.0908
79.4117 2982 54.6077
79.5288 2815 53.0566
79.6459 2862 53.4977
79.7631 2657 51.5461
79.8802 2458 49.5782
79.9974 2371 48.6929
80.1147 1992 44.6318
80.2319 1819 42.6497
80.3491 1819 42.6497
80.4664 2069 45.4863
80.5837 2311 48.0729
80.701 2534 50.3389
80.8183 2823 53.1319
80.9357 2962 54.4243
81.053 2974 54.5344
81.1704 3000 54.7723
81.2877 3011 54.8726
81.4051 2927 54.1018
81.5225 3045 55.1815
81.6399 2832 53.2165
81.7573 2786 52.7826
81.8747 2766 52.5928
81.9922 2731 52.259
82.1096 2827 53.1695
82.227 2801 52.9245
82.3444 3028 55.0273
82.4619 2920 54.037
82.5793 2968 54.4794
82.6967 3233 56.8595
82.8142 3044 55.1725
82.9316 3010 54.8635
83.049 3029 55.0364
83.1664 3001 54.7814
83.2838 2995 54.7266
83.4012 2773 52.6593
83.5186 2680 51.7687
83.636 2518 50.1797
83.7534 2188 46.7761
83.8708 1925 43.8748
83.9881 1833 42.8135
84.1055 2043 45.1996
84.2228 2282 47.7703
84.3401 2721 52.1632
84.4575 2957 54.3783
84.5747 2965 54.4518
84.692 3130 55.9464
84.8093 3050 55.2268
84.9265 3234 56.8683
85.0437 3133 55.9732
85.1609 3191 56.4889
85.2781 3088 55.5698
85.3952 3088 55.5698
85.5123 3015 54.909
85.6294 2904 53.8888
85.7465 3129 55.9375
85.8636 3300 57.4456
85.9806 3339 57.7841
86.0976 3413 58.4209
86.2145 3590 59.9166
86.3315 3432 58.5833
86.4484 3680 60.663
86.5652 3534 59.4475
86.682 3542 59.5147
86.7988 3530 59.4138
86.9156 3453 58.7622
87.0323 3357 57.9396
87.149 3139 56.0268
87.2657 2932 54.1479
87.3823 2448 49.4773
87.4988 2294 47.8957
87.6154 2364 48.621
87.7318 2788 52.8015
87.8483 3212 56.6745
87.9647 3577 59.808
88.081 3813 61.7495
88.1973 3975 63.0476
88.3136 3817 61.7819
88.4298 3898 62.434
88.546 3859 62.1208
88.6621 3788 61.5467
88.7781 3791 61.5711
88.8942 0 1
89.0101 0 1
89.126 0 1
89.2419 0 1
89.3577 0 1
89.4734 0 1
89.5891 0 1
89.7047 0 1
89.8203 0 1
89.9358 0 1
92.3269 0 1
92.4424 0 1
92.558 0 1
92.6736 0 1
92.7893 0 1
92.905 0 1
93.0208 0 1
93.1366 0 1
93.2525 0 1
93.3685 0 1
93.4845 0 1
93.6005 4080 63.8749
93.7167 4202 64.8228
93.8328 4123 64.2106
93.949 4146 64.3894
94.0653 4182 64.6684
94.1816 4072 63.8122
94.2979 4017 63.3798
94.4143 4043 63.5846
94.5307 4107 64.0859
94.6472 3998 63.2297
94.7637 3843 61.9919
94.8803 4028 63.4665
94.9969 4068 63.7809
95.1135 4215 64.923
95.2302 4349 65.9469
95.3469 4320 65.7267
95.4637 4446 66.6783
95.5805 4501 67.0895
95.6973 4457 66.7608
95.8142 4423 66.5056
95.9311 4298 65.5591
96.048 4351 65.9621
96.1649 4225 65
96.2819 4022 63.4192
96.3989 3620 60.1664
96.516 3281 57.28
96.633 2893 53.7866
96.7501 2682 51.788
96.8673 2988 54.6626
96.9844 3502 59.1777
97.1016 3940 62.7694
97.2188 4314 65.681
97.336 4523 67.2533
97.4532 4694 68.5128
97.5704 4766 69.0362
97.6877 4705 68.593
97.805 4598 67.8086
97.9223 4587 67.7274
98.0396 4629 68.0368
98.1569 4574 67.6314
98.2743 4502 67.0969
98.3916 4414 66.4379
98.509 4405 66.3702
98.6264 4444 66.6633
98.7438 4411 66.4154
98.8612 4632 68.0588
98.9786 4787 69.1881
99.096 4771 69.0724
99.2134 5064 71.1618
99.3308 4963 70.4486
99.4482 4840 69.5701
99.5656 4916 70.1142
99.6831 4750 68.9202
99.8005 4691 68.4909
99.9179 4371 66.1135
100.035 3965 62.9682
100.153 3450 58.7367
100.27 3075 55.4527
100.388 3200 56.5685
100.505 3665 60.5392
100.622 4181 64.6607
100.74 4724 68.7314
100.857 4773 69.0869
100.975 5108 71.4703
101.092 5032 70.9366
101.209 5049 71.0563
101.327 5043 71.0141
101.444 5121 71.5612
101.561 4971 70.5053
101.679 4915 70.1071
101.796 4859 69.7065
101.913 4831 69.5054
102.03 4873 69.8069
102.148 4802 69.2965
102.265 5025 70.8872
102.382 4867 69.7639
102.499 5118 71.5402
102.616 5307 72.8492
102.733 5418 73.6071
102.851 5334 73.0342
102.968 5386 73.3894
103.085 5222 72.2634
103.202 5228 72.3049
103.319 5053 71.0845
103.436 4784 69.1665
103.552 4371 66.1135
103.669 3735 61.1146
103.786 3360 57.9655
103.903 3452 58.7537
104.02 3925 62.6498
104.137 4688 68.469
104.253 5211 72.1873
104.37 5179 71.9653
104.487 5637 75.08
104.603 5508 74.2159
104.72 5542 74.4446
104.836 5668 75.2861
104.953 5483 74.0473
105.069 5368 73.2666
105.186 5486 74.0675
105.302 5380 73.3485
105.418 5101 71.4213
105.535 5221 72.2565
105.651 5191 72.0486
105.767 5254 72.4845
105.883 5540 74.4312
105.999 5573 74.6525
106.115 0 1
106.231 0 1
106.347 0 1
106.463 0 1
106.579 0 1
106.694 0 1
106.81 0 1
106.926 0 1
107.041 0 1
107.157 0 1
109.576 0 1
109.692 0 1
109.807 0 1
109.923 0 1
110.039 0 1
110.155 0 1
110.27 0 1
110.386 0 1
110.502 0 1
110.618 5028 70.9084
110.735 4991 70.647
110.851 4984 70.5975
110.967 5131 71.631
111.083 5327 72.9863
111.199 5319 72.9315
111.316 5278 72.6498
111.432 5367 73.2598
111.549 5368 73.2666
111.665 5179 71.9653
111.782 5056 71.1056
111.898 4676 68.3813
112.015 4294 65.5286
112.132 3863 62.153
112.248 3347 57.8533
112.365 3257 57.0701
112.482 3608 60.0666
112.599 3959 62.9206
112.716 4624 68
112.832 4835 69.5342
112.949 4934 70.2424
113.066 4936 70.2567
113.183 4890 69.9285
113.3 4879 69.8498
113.417 4841 69.5773
113.534 4875 69.8212
113.652 4734 68.8041
113.769 4672 68.352
113.886 4652 68.2056
114.003 4445 66.6708
114.12 4476 66.9029
114.238 4335 65.8407
114.355 4362 66.0454
114.472 4377 66.1589
114.589 4539 67.3721
114.707 4463 66.8057
114.824 4593 67.7717
114.942 4665 68.3008
115.059 4723 68.7241
115.176 4705 68.593
115.294 4637 68.0955
115.411 4292 65.5134
115.529 4113 64.1327
115.646 3761 61.327
115.764 3155 56.1694
115.881 2975 54.5436
115.999 3028 55.0273
116.116 3551 59.5903
116.234 4088 63.9375
116.351 4432 66.5733
116.469 4513 67.1789
116.586 4607 67.8749
116.704 4515 67.1937
116.821 4563 67.55
116.939 4708 68.6149
117.056 4633 68.0661
117.174 4586 67.72
117.291 4624 68
117.409 4543 67.4018
117.526 4488 66.9925
117.644 4360 66.0303
117.761 4319 65.7191
117.879 4228 65.0231
117.996 4317 65.7039
118.114 4351 65.9621
118.231 4479 66.9253
118.349 4571 67.6092
118.466 4600 67.8233
118.584 4673 68.3593
118.701 4595 67.7864
118.819 4530 67.3053
118.936 4371 66.1135
119.053 4257 65.2457
119.171 3919 62.6019
119.288 3463 58.8473
119.405 3253 57.0351
119.523 2942 54.2402
119.64 3177 56.3649
119.757 3354 57.9137
119.875 3767 61.3759
119.992 4170 64.5755
120.109 4262 65.284
120.226 4389 66.2495
120.343 4287 65.4752
120.46 4529 67.2978
120.578 4351 65.9621
120.695 4495 67.0448
120.812 4379 66.174
120.929 4371 66.1135
121.046 4373 66.1287
121.163 4354 65.9848
121.279 4160 64.4981
121.396 4282 65.437
121.513 4167 64.5523
121.63 4150 64.4205
121.747 4051 63.6475
121.863 4118 64.1716
121.98 4276 65.3911
122.097 4321 65.7343
122.213 4336 65.8483
122.33 4373 66.1287
122.446 4384 66.2118
122.563 4252 65.2074
122.679 4194 64.7611
122.795 3959 62.9206
122.912 3815 61.7657
123.028 3299 57.4369
123.144 2976 54.5527
123.26 2645 51.4296
123.377 0 1
123.493 0 1
123.609 0 1
123.725 0 1
123.84 0 1
123.956 0 1
124.072 0 1
124.188 0 1
124.303 0 1
124.419 0 1
126.852 0 1
126.968 0 1
127.083 0 1
127.199 0 1
127.315 0 1
127.431 0 1
127.547 0 1
127.663 0 1
127.779 0 1
127.895 0 1
128.011 0 1
128.127 0 1
128.243 0 1
128.359 3319 57.6108
128.476 3036 55.0999
128.592 3128 55.9285
128.708 3542 59.5147
128.825 3945 62.8092
128.941 4419 66.4756
129.058 4541 67.3869
129.174 4560 67.5278
129.291 4624 68
129.408 4632 68.0588
129.524 4594 67.7791
129.641 4654 68.2202
129.758 4474 66.888
129.875 4481 66.9403
129.992 4599 67.8159
130.108 4481 66.9403
130.225 4474 66.888
130.342 4413 66.4304
130.459 4241 65.123
130.576 4511 67.164
130.693 4360 66.0303
130.81 4393 66.2797
130.928 4389 66.2495
131.045 4487 66.9851
131.162 4584 67.7052
131.279 4567 67.5796
131.396 4508 67.1416
131.513 4406 66.3777
131.631 4152 64.436
131.748 4036 63.5295
131.865 3666 60.5475
131.983 3138 56.0179
132.1 3023 54.9818
132.217 3413 58.4209
132.335 3690 60.7454
132.452 4139 64.3351
132.57 4511 67.164
132.687 4226 65.0077
132.804 4532 67.3201
132.922 4449 66.7008
133.039 4366 66.0757
133.157 4462 66.7982
133.274 4349 65.9469
133.392 4294 65.5286
133.509 4284 65.4523
133.627 4249 65.1844
133.744 4391 66.2646
133.862 4248 65.1767
133.979 4145 64.3817
134.097 3985 63.1269
134.214 4327 65.7799
134.332 4061 63.726
134.449 4232 65.0538
134.567 4167 64.5523
134.684 4264 65.2993
134.802 4416 66.453
134.919 4375 66.1438
135.037 4160 64.4981
135.154 4224 64.9923
135.272 4036 63.5295
135.389 3556 59.6322
135.507 3282 57.2887
135.624 3008 54.8452
135.742 3064 55.3534
135.859 3375 58.0948
135.977 3767 61.3759
136.094 4227 65.0154
136.211 4264 65.2993
136.329 4426 66.5282
136.446 4398 66.3174
136.564 4356 66
136.681 4375 66.1438
136.798 4260 65.2687
136.915 4284 65.4523
137.033 4118 64.1716
137.15 4253 65.215
137.267 4087 63.9296
137.384 3895 62.4099
137.502 4065 63.7574
137.619 3949 62.8411
137.736 4044 63.5925
137.853 4058 63.7024
137.97 3953 62.8729
138.087 4152 64.436
138.204 4131 64.2729
138.321 4100 64.0312
138.438 4150 64.4205
138.555 4038 63.5453
138.672 4075 63.8357
138.788 3982 63.1031
138.905 3970 63.0079
139.022 3737 61.131
139.139 3394 58.258
139.255 3057 55.2901
139.372 3057 55.2901
139.488 3392 58.2409
139.605 3727 61.0492
139.721 3968 62.9921
139.838 4113 64.1327
139.954 4162 64.5136
140.071 4200 64.8074
140.187 4076 63.8436
140.303 4115 64.1483
140.419 3995 63.206
140.535 4147 64.3972
140.652 4058 63.7024
140.768 0 1
140.884 0 1
141 0 1
141.115 0 1
141.231 0 1
141.347 0 1
141.463 0 1
141.578 0 1
141.694 0 1
144.104 0 1
144.219 0 1
144.335 0 1
144.45 0 1
144.566 0 1
144.682 0 1
144.798 0 1
144.914 0 1
145.03 0 1
145.146 3571 59.7578
145.262 3561 59.6741
145.378 3457 58.7963
145.494 3516 59.2959
145.61 3411 58.4038
145.726 3434 58.6003
145.842 3537 59.4727
145.959 3320 57.6194
146.075 3252 57.0263
146.192 3337 57.7668
146.308 3409 58.3866
146.425 3469 58.8982
146.541 3293 57.3847
146.658 3297 57.4195
146.774 3285 57.3149
146.891 3341 57.8014
147.008 3337 57.7668
147.125 3293 57.3847
147.241 3314 57.5674
147.358 3352 57.8965
147.475 3195 56.5243
147.592 2961 54.4151
147.709 2769 52.6213
147.826 2520 50.1996
147.943 2414 49.1325
148.06 2660 51.5752
148.177 2873 53.6004
148.294 3121 55.8659
148.411 3318 57.6021
148.528 3222 56.7627
148.645 3268 57.1664
148.762 3215 56.701
148.88 3216 56.7098
148.997 3101 55.6866
149.114 3300 57.4456
149.231 3141 56.0446
149.349 3196 56.5332
149.466 3101 55.6866
149.583 3101 55.6866
149.701 2922 54.0555
149.818 3004 54.8088
149.935 3159 56.205
150.053 3098 55.6597
150.17 3118 55.8391
150.287 3090 55.5878
150.405 3022 54.9727
150.522 3151 56.1338
150.64 3032 55.0636
150.757 3117 55.8301
150.875 3122 55.8749
150.992 3102 55.6956
151.11 2925 54.0833
151.227 2853 53.4135
151.344 2592 50.9117
151.462 2532 50.319
151.579 2411 49.1019
151.697 2501 50.01
151.814 2875 53.619
151.932 3109 55.7584
152.049 3212 56.6745
152.167 3244 56.9561
152.284 3120 55.857
152.402 3157 56.1872
152.519 3140 56.0357
152.636 3224 56.7803
152.754 3141 56.0446
152.871 3131 55.9553
152.989 3066 55.3715
153.106 3026 55.0091
153.223 3002 54.7905
153.341 3007 54.8361
153.458 3056 55.2811
153.575 3088 55.5698
153.693 3081 55.5068
153.81 3069 55.3986
153.927 3105 55.7225
154.044 3044 55.1725
154.162 3155 56.1694
154.279 3279 57.2626
154.396 3176 56.356
154.513 3240 56.921
154.63 3229 56.8243
154.747 3016 54.9181
154.864 2986 54.6443
154.981 2935 54.1756
155.098 2717 52.1249
155.215 2515 50.1498
155.332 2738 52.3259
155.449 2973 54.5252
155.566 3087 55.5608
155.683 3290 57.3585
155.8 3243 56.9473
155.917 3256 57.0614
156.033 3282 57.2887
156.15 0 1
156.267 0 1
156.383 0 1
156.5 0 1
156.617 0 1
156.733 0 1
156.85 0 1
156.966 0 1
157.082 0 1
157.199 0 1
157.315 0 1
157.431 0 1
157.547 0 1
157.664 0 1
157.78 0 1
157.896 0 1
158.012 0 1
158.128 0 1
158.244 0 1
158.359 0 1
158.475 0 1
158.591 0 1
158.706 0 1
