
6.15755 0 1
6.2731 0 1
6.3887 0 1
6.50437 0 1
6.62009 0 1
6.73587 0 1
6.8517 0 1
6.96759 0 1
7.08353 0 1
7.19952 0 1
7.31557 0 1
7.43166 0 1
7.54781 0 1
7.664 0 1
7.78024 0 1
7.89653 0 1
8.01286 0 1
8.12924 0 1
8.24567 0 1
8.36213 0 1
8.47864 0 1
8.59519 0 1
8.71178 0 1
8.82841 0 1
8.94508 0 1
9.06179 0 1
9.17853 0 1
9.29531 0 1
9.41212 0 1
9.52897 0 1
9.64584 0 1
9.76276 0 1
9.8797 0 1
9.99667 0 1
10.1137 0 1
10.2307 0 1
10.3478 0 1
10.4648 0 1
10.5819 0 1
10.6991 0 1
10.8162 0 1
10.9334 0 1
11.0506 0 1
11.1678 0 1
11.285 0 1
11.4023 0 1
11.5196 0 1
11.6369 0 1
11.7542 0 1
11.8715 0 1
11.9888 0 1
12.1062 0 1
12.2235 0 1
12.3409 0 1
12.4582 0 1
12.5756 0 1
12.693 0 1
12.8104 0 1
12.9278 0 1
13.0452 0 1
13.1626 0 1
13.28 0 1
13.3974 0 1
13.5149 0 1
13.6323 0 1
13.7497 0 1
13.8671 0 1
13.9845 0 1
14.1019 0 1
14.2193 0 1
14.3367 0 1
14.4541 0 1
14.5714 0 1
14.6888 0 1
14.8062 0 1
14.9235 0 1
15.0408 1855 43.0697
15.1581 1924 43.8634
15.2755 2001 44.7325
15.3927 2007 44.7996
15.51 2022 44.9667
15.6273 1996 44.6766
15.7445 2060 45.3872
15.8617 1962 44.2945
15.9789 2075 45.5522
16.0961 1975 44.441
16.2132 2030 45.0555
16.3304 2067 45.4643
16.4475 2078 45.5851
16.5646 2269 47.634
16.6816 2264 47.5815
16.7986 2439 49.3862
16.9156 2419 49.1833
17.0326 2405 49.0408
17.1496 2384 48.8262
17.2665 2474 49.7393
17.3833 2414 49.1325
17.5002 2336 48.3322
17.617 2213 47.0425
17.7338 2158 46.4543
17.8505 2137 46.2277
17.9672 2043 45.1996
18.0839 2090 45.7165
18.2005 2204 46.9468
18.3171 2198 46.8828
18.4337 2317 48.1352
18.5502 2318 48.1456
18.6666 2343 48.4045
18.7831 2296 47.9166
18.8994 2403 49.0204
19.0158 2323 48.1975
19.1321 2379 48.775
19.2483 2192 46.8188
19.3645 2109 45.9239
19.4806 1994 44.6542
19.5967 1741 41.7253
19.7128 1731 41.6053
19.8288 1524 39.0384
19.9447 1413 37.5899
20.0606 0 1
20.1764 0 1
20.2922 0 1
20.4079 0 1
20.5236 0 1
20.6392 0 1
20.7548 0 1
20.8702 0 1
23.3078 0 1
23.4233 0 1
23.539 0 1
23.6547 0 1
23.7704 0 1
23.8862 0 1
24.0021 0 1
24.118 0 1
24.234 0 1
24.35 0 1
24.4661 1018 31.9061
24.5822 1159 34.0441
24.6984 1276 35.7211
24.8146 1450 38.0789
24.9309 1573 39.6611
25.0472 1822 42.6849
25.1636 1897 43.5546
25.28 2048 45.2548
25.3965 2161 46.4866
25.513 2225 47.1699
25.6296 2416 49.1528
25.7462 2600 50.9902
25.8628 2596 50.951
25.9795 2554 50.5371
26.0962 2575 50.7445
26.213 2368 48.6621
26.3298 2319 48.156
26.4466 2169 46.5725
26.5635 2289 47.8435
26.6804 2187 46.7654
26.7973 2217 47.085
26.9143 2291 47.8644
27.0313 2275 47.697
27.1483 2404 49.0306
27.2653 2430 49.295
27.3824 2508 50.0799
27.4996 2412 49.1121
27.6167 2362 48.6004
27.7339 2342 48.3942
27.8511 2331 48.2804
27.9683 2249 47.4236
28.0855 2176 46.6476
28.2028 2183 46.7226
28.3201 2064 45.4313
28.4374 2056 45.3431
28.5547 2050 45.2769
28.6721 2192 46.8188
28.7894 2315 48.1144
28.9068 2413 49.1223
29.0242 2411 49.1019
29.1416 2525 50.2494
29.259 2534 50.3389
29.3764 2457 49.5681
29.4939 2482 49.8197
29.6113 2387 48.8569
29.7288 2325 48.2183
29.8463 2244 47.3709
29.9638 2119 46.0326
30.0812 2157 46.4435
30.1987 2092 45.7384
30.3162 2128 46.1303
30.4337 2183 46.7226
30.5512 2264 47.5815
30.6687 2231 47.2335
30.7862 2341 48.3839
30.9037 2276 47.7074
31.0212 2400 48.9898
31.1387 2337 48.3425
31.2562 2308 48.0416
31.3737 2315 48.1144
31.4912 2273 47.676
31.6087 2190 46.7974
31.7262 2144 46.3033
31.8436 2120 46.0435
31.9611 2109 45.9239
32.0785 2003 44.7549
32.1959 2122 46.0652
32.3134 2212 47.0319
32.4308 2328 48.2494
32.5482 2372 48.7032
32.6655 2401 49
32.7829 2342 48.3942
32.9002 2373 48.7134
33.0176 2432 49.3153
33.1349 2360 48.5798
33.2522 2328 48.2494
33.3694 2169 46.5725
33.4867 2121 46.0543
33.6039 2024 44.9889
33.7211 2001 44.7325
33.8383 1968 44.3621
33.9554 2003 44.7549
34.0725 2198 46.8828
34.1896 2115 45.9891
34.3067 2224 47.1593
34.4237 2224 47.1593
34.5407 2117 46.0109
34.6577 2264 47.5815
34.7746 2216 47.0744
34.8915 2169 46.5725
35.0084 2192 46.8188
35.1252 2165 46.5296
35.242 2085 45.6618
35.3587 2099 45.8148
35.4755 1985 44.5533
35.5921 1946 44.1135
35.7088 1918 43.795
35.8254 1987 44.5758
35.9419 1995 44.6654
36.0584 2101 45.8367
36.1749 2159 46.465
36.2913 2089 45.7056
36.4077 2125 46.0977
36.524 2033 45.0888
36.6403 1971 44.3959
36.7565 1882 43.382
36.8727 1802 42.45
36.9889 1680 40.9878
37.1049 1512 38.8844
37.221 0 1
37.3369 0 1
37.4529 0 1
37.5687 0 1
37.6845 0 1
37.8003 0 1
37.916 0 1
38.0316 0 1
38.1472 0 1
40.5851 0 1
40.7008 0 1
40.8164 0 1
40.9322 0 1
41.048 0 1
41.1639 0 1
41.2798 0 1
41.3958 0 1
41.5118 0 1
41.6279 0 1
41.744 1017 31.8904
41.8602 1218 34.8999
41.9765 1349 36.7287
42.0928 1387 37.2424
42.2091 1370 37.0135
42.3255 1395 37.3497
42.4419 1300 36.0555
42.5584 1375 37.081
42.675 1528 39.0896
42.7915 1568 39.598
42.9081 1690 41.1096
43.0248 1748 41.8091
43.1415 1716 41.4246
43.2582 1791 42.3202
43.375 1853 43.0465
43.4918 1858 43.1045
43.6087 1904 43.6348
43.7256 1852 43.0349
43.8425 1840 42.8952
43.9595 1749 41.821
44.0765 1784 42.2374
44.1935 1756 41.9047
44.3106 1561 39.5095
44.4277 1533 39.1535
44.5448 1501 38.7427
44.6619 1564 39.5474
44.7791 1673 40.9023
44.8963 1699 41.2189
45.0136 1854 43.0581
45.1308 1902 43.6119
45.2481 1841 42.9069
45.3654 1892 43.4971
45.4827 1884 43.4051
45.6001 1881 43.3705
45.7174 1842 42.9185
45.8348 1712 41.3763
45.9522 1657 40.7063
46.0697 1529 39.1024
46.1871 1563 39.5348
46.3046 1649 40.6079
46.422 1721 41.4849
46.5395 1709 41.3401
46.657 1801 42.4382
46.7745 1816 42.6146
46.892 1845 42.9535
47.0096 1873 43.2782
47.1271 1887 43.4396
47.2446 1853 43.0465
47.3622 1870 43.2435
47.4797 1870 43.2435
47.5973 1820 42.6615
47.7149 1746 41.7852
47.8324 1830 42.7785
47.95 1663 40.7799
48.0675 1578 39.724
48.1851 1624 40.2989
48.3027 1674 40.9145
48.4202 1693 41.1461
48.5378 1825 42.72
48.6554 1815 42.6028
48.7729 2021 44.9555
48.8904 1901 43.6005
49.008 2023 44.9778
49.1255 1946 44.1135
49.243 1813 42.5793
49.3605 1745 41.7732
49.478 1639 40.4846
49.5955 1460 38.2099
49.713 1460 38.2099
49.8304 1484 38.5227
49.9479 1659 40.7308
50.0653 1744 41.7612
50.1827 1767 42.0357
50.3001 1782 42.2137
50.4175 1891 43.4856
50.5348 1935 43.9886
50.6521 1891 43.4856
50.7694 1974 44.4297
50.8867 1905 43.6463
51.004 1845 42.9535
51.1212 1921 43.8292
51.2384 1821 42.6732
51.3556 1850 43.0116
51.4727 1750 41.833
51.5899 1669 40.8534
51.707 1716 41.4246
51.824 1853 43.0465
51.9411 1968 44.3621
52.0581 2079 45.5961
52.175 2147 46.3357
52.2919 2220 47.1169
52.4088 2275 47.697
52.5257 2315 48.1144
52.6425 2427 49.2646
52.7593 2404 49.0306
52.876 2356 48.5386
52.9927 2165 46.5296
53.1094 2054 45.3211
53.226 1963 44.3058
53.3426 1879 43.3474
53.4591 1799 42.4146
53.5756 1923 43.852
53.692 1957 44.238
53.8084 1898 43.566
53.9248 1858 43.1045
54.0411 1826 42.7317
54.1573 1778 42.1663
54.2735 0 1
54.3896 0 1
54.5057 0 1
54.6217 0 1
54.7377 0 1
54.8537 0 1
54.9695 0 1
55.0853 0 1
55.2011 0 1
55.3168 0 1
55.4324 0 1
57.824 0 1
57.9396 0 1
58.0553 0 1
58.1711 0 1
58.2869 0 1
58.4028 0 1
58.5187 0 1
58.6347 0 1
58.7508 0 1
58.8669 0 1
58.983 1555 39.4335
59.0992 1707 41.3159
59.2155 1845 42.9535
59.3318 1980 44.4972
59.4482 2162 46.4973
59.5646 2204 46.9468
59.681 2244 47.3709
59.7975 2177 46.6583
59.9141 2307 48.0312
60.0306 2267 47.613
60.1473 2101 45.8367
60.2639 2090 45.7165
60.3807 2005 44.7772
60.4974 2060 45.3872
60.6142 2175 46.6369
60.731 2268 47.6235
60.8479 2399 48.9796
60.9648 2337 48.3425
61.0818 2524 50.2394
61.1987 2398 48.9694
61.3158 2423 49.224
61.4328 2209 47
61.5499 2209 47
61.667 2037 45.1331
61.7841 1899 43.5775
61.9013 1866 43.1972
62.0185 1924 43.8634
62.1357 1998 44.699
62.253 2117 46.0109
62.3702 2192 46.8188
62.4875 2174 46.6262
62.6049 2258 47.5184
62.7222 2344 48.4149
62.8396 2346 48.4355
62.9569 2289 47.8435
63.0743 2295 47.9062
63.1918 2361 48.5901
63.3092 2260 47.5395
63.4267 2245 47.3814
63.5441 2241 47.3392
63.6616 2092 45.7384
63.7791 2021 44.9555
63.8966 1896 43.5431
64.0142 1945 44.1022
64.1317 2045 45.2217
64.2492 2201 46.9148
64.3668 2333 48.3011
64.4843 2341 48.3839
64.6019 2305 48.0104
64.7195 2416 49.1528
64.837 2368 48.6621
64.9546 2383 48.816
65.0722 2149 46.3573
65.1898 2023 44.9778
65.3074 1903 43.6234
65.4249 1834 42.8252
65.5425 1793 42.3438
65.6601 1758 41.9285
65.7777 1884 43.4051
65.8952 2080 45.607
66.0128 2209 47
66.1304 2211 47.0213
66.2479 2282 47.7703
66.3655 2267 47.613
66.483 2319 48.156
66.6005 2337 48.3425
66.718 2270 47.6445
66.8355 2322 48.1871
66.953 2315 48.1144
67.0705 2133 46.1844
67.1879 2110 45.9347
67.3054 2034 45.0999
67.4228 1876 43.3128
67.5402 1922 43.8406
67.6576 1862 43.1509
67.7749 1984 44.5421
67.8923 2154 46.4112
68.0096 2229 47.2123
68.1269 2152 46.3897
68.2442 2227 47.1911
68.3614 2190 46.7974
68.4787 2257 47.5079
68.5958 2373 48.7134
68.713 2245 47.3814
68.8302 1925 43.8748
68.9473 1829 42.7668
69.0643 1748 41.8091
69.1814 1615 40.1871
69.2984 1704 41.2795
69.4154 1817 42.6263
69.5323 1970 44.3847
69.6492 2069 45.4863
69.7661 2183 46.7226
69.8829 2161 46.4866
69.9997 2158 46.4543
70.1165 1992 44.6318
70.2332 1992 44.6318
70.3499 2029 45.0444
70.4665 1861 43.1393
70.5831 1714 41.4005
70.6996 1666 40.8167
70.8161 1550 39.37
70.9326 1394 37.3363
71.049 1200 34.641
71.1653 1057 32.5115
71.2817 962 31.0161
71.3979 930 30.4959
71.5141 853 29.2062
71.6303 811 28.4781
71.7464 776 27.8568
71.8624 0 1
71.9784 0 1
72.0944 0 1
72.2102 0 1
72.3261 0 1
72.4418 0 1
72.5575 0 1
72.6732 0 1
75.1054 0 1
75.2209 0 1
75.3365 0 1
75.4521 0 1
75.5678 0 1
75.6835 0 1
75.7993 0 1
75.9151 0 1
76.031 0 1
76.147 1338 36.5787
76.263 1460 38.2099
76.3791 1384 37.2022
76.4952 1381 37.1618
76.6113 1441 37.9605
76.7276 1599 39.9875
76.8438 1663 40.7799
76.9601 1896 43.5431
77.0765 1958 44.2493
77.1929 2097 45.793
77.3093 1944 44.0908
77.4258 1988 44.587
77.5423 1988 44.587
77.6589 1900 43.589
77.7755 1697 41.1947
77.8921 1572 39.6485
78.0088 1385 37.2156
78.1256 1424 37.7359
78.2423 1297 36.0139
78.3591 1468 38.3145
78.4759 1603 40.0375
78.5928 1686 41.0609
78.7097 1819 42.6497
78.8266 1924 43.8634
78.9436 1989 44.5982
79.0606 1982 44.5197
79.1776 1901 43.6005
79.2946 1955 44.2154
79.4117 1970 44.3847
79.5288 2080 45.607
79.6459 1962 44.2945
79.7631 1884 43.4051
79.8802 1854 43.0581
79.9974 1751 41.845
80.1147 1627 40.3361
80.2319 1591 39.8873
80.3491 1673 40.9023
80.4664 1728 41.5692
80.5837 1910 43.7035
80.701 1933 43.9659
80.8183 2009 44.8219
80.9357 2015 44.8888
81.053 2065 45.4423
81.1704 2053 45.31
81.2877 2051 45.288
81.4051 1965 44.3283
81.5225 1771 42.0833
81.6399 1650 40.6202
81.7573 1540 39.2428
81.8747 1420 37.6829
81.9922 1402 37.4433
82.1096 1650 40.6202
82.227 1700 41.2311
82.3444 1925 43.8748
82.4619 1938 44.0227
82.5793 1947 44.1248
82.6967 2038 45.1442
82.8142 2016 44.8999
82.9316 2070 45.4973
83.049 2034 45.0999
83.1664 2035 45.111
83.2838 1982 44.5197
83.4012 1993 44.643
83.5186 1980 44.4972
83.636 1802 42.45
83.7534 1708 41.328
83.8708 1621 40.2616
83.9881 1653 40.6571
84.1055 1818 42.638
84.2228 1784 42.2374
84.3401 1935 43.9886
84.4575 2019 44.9333
84.5747 2074 45.5412
84.692 2004 44.7661
84.8093 2068 45.4753
84.9265 2019 44.9333
85.0437 1864 43.1741
85.1609 1688 41.0853
85.2781 1621 40.2616
85.3952 1478 38.4448
85.5123 1481 38.4838
85.6294 1521 39
85.7465 1676 40.939
85.8636 1806 42.4971
85.9806 1872 43.2666
86.0976 2007 44.7996
86.2145 1995 44.6654
86.3315 2026 45.0111
86.4484 2100 45.8258
86.5652 2120 46.0435
86.682 2116 46
86.7988 2094 45.7602
86.9156 2036 45.1221
87.0323 2081 45.618
87.149 1979 44.486
87.2657 1766 42.0238
87.3823 1629 40.3609
87.4988 1422 37.7094
87.6154 1394 37.3363
87.7318 1514 38.9102
87.8483 1574 39.6737
87.9647 1672 40.8901
88.081 1622 40.2741
88.1973 1557 39.4588
88.3136 1548 39.3446
88.4298 1468 38.3145
88.546 1342 36.6333
88.6621 1123 33.5112
88.7781 896 29.9333
88.8942 0 1
89.0101 0 1
89.126 0 1
89.2419 0 1
89.3577 0 1
89.4734 0 1
89.5891 0 1
89.7047 0 1
89.8203 0 1
89.9358 0 1
92.3269 0 1
92.4424 0 1
92.558 0 1
92.6736 0 1
92.7893 0 1
92.905 0 1
93.0208 0 1
93.1366 0 1
93.2525 0 1
93.3685 0 1
93.4845 0 1
93.6005 1601 40.0125
93.7167 1729 41.5812
93.8328 1788 42.2847
93.949 1745 41.7732
94.0653 1735 41.6533
94.1816 1795 42.3674
94.2979 1630 40.3733
94.4143 1664 40.7922
94.5307 1509 38.8458
94.6472 1462 38.2361
94.7637 1549 39.3573
94.8803 1683 41.0244
94.9969 1792 42.332
95.1135 1925 43.8748
95.2302 2004 44.7661
95.3469 1999 44.7102
95.4637 2097 45.793
95.5805 2115 45.9891
95.6973 2199 46.8935
95.8142 2062 45.4093
95.9311 2142 46.2817
96.048 2061 45.3982
96.1649 2024 44.9889
96.2819 2066 45.4533
96.3989 1958 44.2493
96.516 1783 42.2256
96.633 1833 42.8135
96.7501 1714 41.4005
96.8673 1706 41.3038
96.9844 1869 43.2319
97.1016 2055 45.3321
97.2188 2187 46.7654
97.336 2103 45.8585
97.4532 2173 46.6154
97.5704 2129 46.1411
97.6877 2154 46.4112
97.805 2052 45.299
97.9223 1854 43.0581
98.0396 1731 41.6053
98.1569 1658 40.7185
98.2743 1502 38.7556
98.3916 1591 39.8873
98.509 1658 40.7185
98.6264 1855 43.0697
98.7438 1929 43.9204
98.8612 2066 45.4533
98.9786 2110 45.9347
99.096 2074 45.5412
99.2134 2259 47.5289
99.3308 2176 46.6476
99.4482 2221 47.1275
99.5656 2238 47.3075
99.6831 2129 46.1411
99.8005 2170 46.5833
99.9179 2187 46.7654
100.035 2032 45.0777
100.153 1946 44.1135
100.27 1898 43.566
100.388 1782 42.2137
100.505 1975 44.441
100.622 2078 45.5851
100.74 2178 46.669
100.857 2245 47.3814
100.975 2177 46.6583
101.092 2330 48.2701
101.209 2305 48.0104
101.327 2194 46.8402
101.444 2196 46.8615
101.561 1955 44.2154
101.679 1685 41.0488
101.796 1669 40.8534
101.913 1540 39.2428
102.03 1645 40.5586
102.148 1871 43.2551
102.265 1955 44.2154
102.382 2142 46.2817
102.499 2213 47.0425
102.616 2270 47.6445
102.733 2337 48.3425
102.851 2414 49.1325
102.968 2313 48.0937
103.085 2302 47.9792
103.202 2321 48.1768
103.319 2284 47.7912
103.436 2194 46.8402
103.552 2147 46.3357
103.669 2077 45.5741
103.786 2055 45.3321
103.903 1987 44.5758
104.02 2058 45.3652
104.137 2082 45.6289
104.253 2213 47.0425
104.37 2471 49.7092
104.487 2369 48.6724
104.603 2391 48.8979
104.72 2297 47.927
104.836 2306 48.0208
104.953 2054 45.3211
105.069 1859 43.1161
105.186 1600 40
105.302 1581 39.7618
105.418 1382 37.1753
105.535 1401 37.4299
105.651 1495 38.6652
105.767 1477 38.4318
105.883 1464 38.2623
105.999 1398 37.3898
106.115 0 1
106.231 0 1
106.347 0 1
106.463 0 1
106.579 0 1
106.694 0 1
106.81 0 1
106.926 0 1
107.041 0 1
107.157 0 1
109.576 0 1
109.692 0 1
109.807 0 1
109.923 0 1
110.039 0 1
110.155 0 1
110.27 0 1
110.386 0 1
110.502 0 1
110.618 1040 32.249
110.735 1342 36.6333
110.851 1496 38.6782
110.967 1647 40.5832
111.083 1802 42.45
111.199 1923 43.852
111.316 2050 45.2769
111.432 2119 46.0326
111.549 2216 47.0744
111.665 2154 46.4112
111.782 2157 46.4435
111.898 2168 46.5618
112.015 2093 45.7493
112.132 1995 44.6654
112.248 1915 43.7607
112.365 1760 41.9524
112.482 1808 42.5206
112.599 2044 45.2106
112.716 1989 44.5982
112.832 2203 46.9361
112.949 2157 46.4435
113.066 2231 47.2335
113.183 2253 47.4658
113.3 2345 48.4252
113.417 2130 46.1519
113.534 1945 44.1022
113.652 1778 42.1663
113.769 1694 41.1582
113.886 1538 39.2173
114.003 1500 38.7298
114.12 1701 41.2432
114.238 1826 42.7317
114.355 1950 44.1588
114.472 1928 43.909
114.589 2184 46.7333
114.707 2130 46.1519
114.824 2210 47.0106
114.942 2182 46.7119
115.059 2224 47.1593
115.176 2224 47.1593
115.294 2241 47.3392
115.411 2238 47.3075
115.529 2163 46.5081
115.646 2167 46.551
115.764 2077 45.5741
115.881 1865 43.1856
115.999 1882 43.382
116.116 1883 43.3935
116.234 2016 44.8999
116.351 2039 45.1553
116.469 2155 46.422
116.586 2136 46.2169
116.704 2158 46.4543
116.821 2222 47.1381
116.939 2093 45.7493
117.056 2188 46.7761
117.174 1959 44.2606
117.291 1855 43.0697
117.409 1633 40.4104
117.526 1565 39.5601
117.644 1551 39.3827
117.761 1659 40.7308
117.879 1874 43.2897
117.996 2009 44.8219
118.114 2034 45.0999
118.231 2129 46.1411
118.349 2199 46.8935
118.466 2159 46.465
118.584 2158 46.4543
118.701 2181 46.7012
118.819 2058 45.3652
118.936 2084 45.6508
119.053 2098 45.8039
119.171 2001 44.7325
119.288 1983 44.5309
119.405 1868 43.2204
119.523 1747 41.7971
119.64 1772 42.0951
119.757 1821 42.6732
119.875 1894 43.5201
119.992 2092 45.7384
120.109 2102 45.8476
120.226 2074 45.5412
120.343 2207 46.9787
120.46 2067 45.4643
120.578 2072 45.5192
120.695 2076 45.5631
120.812 1960 44.2719
120.929 1748 41.8091
121.046 1654 40.6694
121.163 1450 38.0789
121.279 1397 37.3765
121.396 1464 38.2623
121.513 1603 40.0375
121.63 1615 40.1871
121.747 1688 41.0853
121.863 1655 40.6817
121.98 1654 40.6694
122.097 1673 40.9023
122.213 1614 40.1746
122.33 1592 39.8999
122.446 1638 40.4722
122.563 1493 38.6394
122.679 1360 36.8782
122.795 1390 37.2827
122.912 1189 34.4819
123.028 1060 32.5576
123.144 936 30.5941
123.26 872 29.5296
123.377 0 1
123.493 0 1
123.609 0 1
123.725 0 1
123.84 0 1
123.956 0 1
124.072 0 1
124.188 0 1
124.303 0 1
124.419 0 1
126.852 0 1
126.968 0 1
127.083 0 1
127.199 0 1
127.315 0 1
127.431 0 1
127.547 0 1
127.663 0 1
127.779 0 1
127.895 0 1
128.011 0 1
128.127 0 1
128.243 0 1
128.359 2112 45.9565
128.476 2051 45.288
128.592 1952 44.1814
128.708 1975 44.441
128.825 1975 44.441
128.941 2071 45.5082
129.058 2205 46.9574
129.174 2292 47.8748
129.291 2219 47.1063
129.408 2220 47.1169
129.524 2348 48.4562
129.641 2356 48.5386
129.758 2216 47.0744
129.875 1960 44.2719
129.992 1933 43.9659
130.108 1785 42.2493
130.225 1705 41.2916
130.342 1629 40.3609
130.459 1726 41.5452
130.576 1973 44.4185
130.693 2067 45.4643
130.81 2074 45.5412
130.928 2093 45.7493
131.045 2173 46.6154
131.162 2278 47.7284
131.279 2243 47.3603
131.396 2232 47.244
131.513 2281 47.7598
131.631 2233 47.2546
131.748 2200 46.9042
131.865 2164 46.5188
131.983 2103 45.8585
132.1 1983 44.5309
132.217 2007 44.7996
132.335 2050 45.2769
132.452 2082 45.6289
132.57 2181 46.7012
132.687 2219 47.1063
132.804 2309 48.0521
132.922 2333 48.3011
133.039 2311 48.0729
133.157 2329 48.2597
133.274 2284 47.7912
133.392 2255 47.4868
133.509 1990 44.6094
133.627 1908 43.6807
133.744 1829 42.7668
133.862 1637 40.4599
133.979 1762 41.9762
134.097 1883 43.3935
134.214 2082 45.6289
134.332 2180 46.6905
134.449 2142 46.2817
134.567 2214 47.0532
134.684 2298 47.9375
134.802 2300 47.9583
134.919 2263 47.571
135.037 2238 47.3075
135.154 2226 47.1805
135.272 2204 46.9468
135.389 2052 45.299
135.507 2094 45.7602
135.624 2161 46.4866
135.742 2022 44.9667
135.859 2033 45.0888
135.977 2070 45.4973
136.094 2133 46.1844
136.211 2170 46.5833
136.329 2291 47.8644
136.446 2256 47.4974
136.564 2247 47.4025
136.681 2303 47.9896
136.798 2318 48.1456
136.915 2286 47.8121
137.033 2120 46.0435
137.15 1972 44.4072
137.267 1866 43.1972
137.384 1699 41.2189
137.502 1724 41.5211
137.619 1717 41.4367
137.736 1821 42.6732
137.853 1937 44.0114
137.97 2051 45.288
138.087 2083 45.6399
138.204 2147 46.3357
138.321 2225 47.1699
138.438 2247 47.4025
138.555 2267 47.613
138.672 2212 47.0319
138.788 2190 46.7974
138.905 2029 45.0444
139.022 1985 44.5533
139.139 1815 42.6028
139.255 1731 41.6053
139.372 1713 41.3884
139.488 1664 40.7922
139.605 1558 39.4715
139.721 1479 38.4578
139.838 1512 38.8844
139.954 1544 39.2938
140.071 1515 38.923
140.187 1284 35.8329
140.303 1259 35.4824
140.419 1111 33.3317
140.535 1119 33.4515
140.652 1050 32.4037
140.768 0 1
140.884 0 1
141 0 1
141.115 0 1
141.231 0 1
141.347 0 1
141.463 0 1
141.578 0 1
141.694 0 1
144.104 0 1
144.219 0 1
144.335 0 1
144.45 0 1
144.566 0 1
144.682 0 1
144.798 0 1
144.914 0 1
145.03 0 1
145.146 1666 40.8167
145.262 1835 42.8369
145.378 1731 41.6053
145.494 1873 43.2782
145.61 1784 42.2374
145.726 1774 42.1189
145.842 1687 41.0731
145.959 1581 39.7618
146.075 1449 38.0657
146.192 1412 37.5766
146.308 1388 37.2559
146.425 1414 37.6032
146.541 1495 38.6652
146.658 1522 39.0128
146.774 1621 40.2616
146.891 1626 40.3237
147.008 1712 41.3763
147.125 1725 41.5331
147.241 1775 42.1307
147.358 1802 42.45
147.475 1824 42.7083
147.592 1725 41.5331
147.709 1740 41.7133
147.826 1698 41.2068
147.943 1648 40.5956
148.06 1547 39.3319
148.177 1537 39.2046
148.294 1594 39.9249
148.411 1643 40.5339
148.528 1703 41.2674
148.645 1715 41.4126
148.762 1738 41.6893
148.88 1790 42.3084
148.997 1881 43.3705
149.114 1826 42.7317
149.231 1827 42.7434
149.349 1809 42.5323
149.466 1661 40.7554
149.583 1666 40.8167
149.701 1499 38.7169
149.818 1388 37.2559
149.935 1361 36.8917
150.053 1355 36.8103
150.17 1420 37.6829
150.287 1480 38.4708
150.405 1656 40.694
150.522 1621 40.2616
150.64 1633 40.4104
150.757 1738 41.6893
150.875 1742 41.7373
150.992 1786 42.2611
151.11 1735 41.6533
151.227 1695 41.1704
151.344 1676 40.939
151.462 1640 40.4969
151.579 1605 40.0625
151.697 1547 39.3319
151.814 1558 39.4715
151.932 1478 38.4448
152.049 1527 39.0768
152.167 1629 40.3609
152.284 1601 40.0125
152.402 1680 40.9878
152.519 1675 40.9268
152.636 1706 41.3038
152.754 1752 41.8569
152.871 1800 42.4264
152.989 1682 41.0122
153.106 1652 40.6448
153.223 1564 39.5474
153.341 1417 37.6431
153.458 1427 37.7757
153.575 1306 36.1386
153.693 1363 36.9188
153.81 1393 37.3229
153.927 1493 38.6394
154.044 1445 38.0132
154.162 1564 39.5474
154.279 1570 39.6232
154.396 1582 39.7744
154.513 1549 39.3573
154.63 1581 39.7618
154.747 1577 39.7115
154.864 1657 40.7063
154.981 1530 39.1152
155.098 1539 39.2301
155.215 1496 38.6782
155.332 1428 37.7889
155.449 1388 37.2559
155.566 1429 37.8021
155.683 1416 37.6298
155.8 1430 37.8153
155.917 1462 38.2361
156.033 1503 38.7685
156.15 0 1
156.267 0 1
156.383 0 1
156.5 0 1
156.617 0 1
156.733 0 1
156.85 0 1
156.966 0 1
157.082 0 1
157.199 0 1
157.315 0 1
157.431 0 1
157.547 0 1
157.664 0 1
157.78 0 1
157.896 0 1
158.012 0 1
158.128 0 1
158.244 0 1
158.359 0 1
158.475 0 1
158.591 0 1
158.706 0 1
