
6.15755 0 1
6.2731 0 1
6.3887 0 1
6.50437 0 1
6.62009 0 1
6.73587 0 1
6.8517 0 1
6.96759 0 1
7.08353 0 1
7.19952 0 1
7.31557 0 1
7.43166 0 1
7.54781 0 1
7.664 0 1
7.78024 0 1
7.89653 0 1
8.01286 0 1
8.12924 0 1
8.24567 0 1
8.36213 0 1
8.47864 0 1
8.59519 0 1
8.71178 0 1
8.82841 0 1
8.94508 0 1
9.06179 0 1
9.17853 0 1
9.29531 0 1
9.41212 0 1
9.52897 0 1
9.64584 0 1
9.76276 0 1
9.8797 0 1
9.99667 0 1
10.1137 0 1
10.2307 0 1
10.3478 0 1
10.4648 0 1
10.5819 0 1
10.6991 0 1
10.8162 0 1
10.9334 0 1
11.0506 0 1
11.1678 0 1
11.285 0 1
11.4023 0 1
11.5196 0 1
11.6369 0 1
11.7542 0 1
11.8715 0 1
11.9888 0 1
12.1062 0 1
12.2235 0 1
12.3409 0 1
12.4582 0 1
12.5756 0 1
12.693 0 1
12.8104 0 1
12.9278 0 1
13.0452 0 1
13.1626 0 1
13.28 0 1
13.3974 0 1
13.5149 0 1
13.6323 0 1
13.7497 0 1
13.8671 0 1
13.9845 0 1
14.1019 0 1
14.2193 0 1
14.3367 0 1
14.4541 0 1
14.5714 0 1
14.6888 0 1
14.8062 0 1
14.9235 0 1
15.0408 1716 41.4246
15.1581 1783 42.2256
15.2755 1787 42.2729
15.3927 1804 42.4735
15.51 1835 42.8369
15.6273 1960 44.2719
15.7445 1895 43.5316
15.8617 1799 42.4146
15.9789 1677 40.9512
16.0961 1632 40.398
16.2132 1593 39.9124
16.3304 1629 40.3609
16.4475 1465 38.2753
16.5646 1506 38.8072
16.6816 1570 39.6232
16.7986 1569 39.6106
16.9156 1543 39.281
17.0326 1394 37.3363
17.1496 1388 37.2559
17.2665 1364 36.9324
17.3833 1426 37.7624
17.5002 1325 36.4005
17.617 1390 37.2827
17.7338 1482 38.4968
17.8505 1483 38.5097
17.9672 1436 37.8946
18.0839 1508 38.833
18.2005 1561 39.5095
18.3171 1551 39.3827
18.4337 1636 40.4475
18.5502 1608 40.0999
18.6666 1690 41.1096
18.7831 1651 40.6325
18.8994 1567 39.5854
19.0158 1523 39.0256
19.1321 1501 38.7427
19.2483 1329 36.4555
19.3645 1313 36.2353
19.4806 1154 33.9706
19.5967 1039 32.2335
19.7128 972 31.1769
19.8288 925 30.4138
19.9447 880 29.6648
20.0606 0 1
20.1764 0 1
20.2922 0 1
20.4079 0 1
20.5236 0 1
20.6392 0 1
20.7548 0 1
20.8702 0 1
23.3078 0 1
23.4233 0 1
23.539 0 1
23.6547 0 1
23.7704 0 1
23.8862 0 1
24.0021 0 1
24.118 0 1
24.234 0 1
24.35 0 1
24.4661 661 25.7099
24.5822 748 27.3496
24.6984 799 28.2666
24.8146 841 29
24.9309 906 30.0998
25.0472 977 31.257
25.1636 1054 32.4654
25.28 1134 33.6749
25.3965 1232 35.0999
25.513 1356 36.8239
25.6296 1419 37.6696
25.7462 1422 37.7094
25.8628 1498 38.704
25.9795 1440 37.9473
26.0962 1478 38.4448
26.213 1475 38.4057
26.3298 1488 38.5746
26.4466 1495 38.6652
26.5635 1450 38.0789
26.6804 1400 37.4166
26.7973 1349 36.7287
26.9143 1369 37
27.0313 1450 38.0789
27.1483 1517 38.9487
27.2653 1437 37.9078
27.3824 1506 38.8072
27.4996 1427 37.7757
27.6167 1430 37.8153
27.7339 1423 37.7227
27.8511 1376 37.0945
27.9683 1231 35.0856
28.0855 1267 35.5949
28.2028 1223 34.9714
28.3201 1266 35.5809
28.4374 1049 32.3883
28.5547 1130 33.6155
28.6721 1076 32.8024
28.7894 1167 34.1614
28.9068 1252 35.3836
29.0242 1251 35.3695
29.1416 1303 36.0971
29.259 1342 36.6333
29.3764 1300 36.0555
29.4939 1333 36.5103
29.6113 1317 36.2905
29.7288 1337 36.565
29.8463 1348 36.7151
29.9638 1319 36.318
30.0812 1338 36.5787
30.1987 1388 37.2559
30.3162 1348 36.7151
30.4337 1348 36.7151
30.5512 1342 36.6333
30.6687 1406 37.4967
30.7862 1373 37.054
30.9037 1436 37.8946
31.0212 1434 37.8682
31.1387 1359 36.8646
31.2562 1322 36.3593
31.3737 1292 35.9444
31.4912 1397 37.3765
31.6087 1294 35.9722
31.7262 1255 35.426
31.8436 1156 34
31.9611 1053 32.45
32.0785 1073 32.7567
32.1959 1146 33.8526
32.3134 1193 34.5398
32.4308 1209 34.7707
32.5482 1189 34.4819
32.6655 1254 35.4119
32.7829 1263 35.5387
32.9002 1222 34.9571
33.0176 1264 35.5528
33.1349 1308 36.1663
33.2522 1289 35.9026
33.3694 1282 35.805
33.4867 1296 36
33.6039 1268 35.609
33.7211 1242 35.242
33.8383 1293 35.9583
33.9554 1232 35.0999
34.0725 1296 36
34.1896 1359 36.8646
34.3067 1341 36.6197
34.4237 1326 36.4143
34.5407 1326 36.4143
34.6577 1333 36.5103
34.7746 1343 36.647
34.8915 1306 36.1386
35.0084 1292 35.9444
35.1252 1280 35.7771
35.242 1223 34.9714
35.3587 1164 34.1174
35.4755 1051 32.4191
35.5921 1014 31.8434
35.7088 995 31.5436
35.8254 1032 32.1248
35.9419 1062 32.5883
36.0584 1076 32.8024
36.1749 1099 33.1512
36.2913 1150 33.9116
36.4077 1147 33.8674
36.524 1059 32.5423
36.6403 1078 32.8329
36.7565 1045 32.3265
36.8727 1110 33.3167
36.9889 998 31.5911
37.1049 903 30.05
37.221 0 1
37.3369 0 1
37.4529 0 1
37.5687 0 1
37.6845 0 1
37.8003 0 1
37.916 0 1
38.0316 0 1
38.1472 0 1
40.5851 0 1
40.7008 0 1
40.8164 0 1
40.9322 0 1
41.048 0 1
41.1639 0 1
41.2798 0 1
41.3958 0 1
41.5118 0 1
41.6279 0 1
41.744 586 24.2074
41.8602 621 24.9199
41.9765 748 27.3496
42.0928 796 28.2135
42.2091 816 28.5657
42.3255 852 29.189
42.4419 879 29.6479
42.5584 965 31.0644
42.675 923 30.3809
42.7915 1035 32.1714
42.9081 1081 32.8786
43.0248 1188 34.4674
43.1415 1204 34.6987
43.2582 1157 34.0147
43.375 1162 34.0881
43.4918 1274 35.6931
43.6087 1265 35.5668
43.7256 1207 34.7419
43.8425 1214 34.8425
43.9595 1147 33.8674
44.0765 1191 34.5109
44.1935 1065 32.6343
44.3106 1036 32.187
44.4277 1049 32.3883
44.5448 950 30.8221
44.6619 977 31.257
44.7791 1062 32.5883
44.8963 1022 31.9687
45.0136 1080 32.8634
45.1308 1063 32.6037
45.2481 1115 33.3916
45.3654 1158 34.0294
45.4827 1147 33.8674
45.6001 1085 32.9393
45.7174 1197 34.5977
45.8348 1250 35.3553
45.9522 1187 34.4529
46.0697 1129 33.6006
46.1871 1108 33.2866
46.3046 1242 35.242
46.422 1252 35.3836
46.5395 1247 35.3129
46.657 1220 34.9285
46.7745 1281 35.7911
46.892 1335 36.5377
47.0096 1316 36.2767
47.1271 1351 36.756
47.2446 1261 35.5106
47.3622 1353 36.7831
47.4797 1314 36.2491
47.5973 1327 36.428
47.7149 1199 34.6266
47.8324 1157 34.0147
47.95 1068 32.6803
48.0675 1069 32.6956
48.1851 1036 32.187
48.3027 1095 33.0908
48.4202 1150 33.9116
48.5378 1266 35.5809
48.6554 1232 35.0999
48.7729 1213 34.8281
48.8904 1324 36.3868
49.008 1245 35.2846
49.1255 1314 36.2491
49.243 1277 35.7351
49.3605 1254 35.4119
49.478 1248 35.327
49.5955 1289 35.9026
49.713 1210 34.7851
49.8304 1307 36.1525
49.9479 1322 36.3593
50.0653 1406 37.4967
50.1827 1414 37.6032
50.3001 1449 38.0657
50.4175 1463 38.2492
50.5348 1491 38.6135
50.6521 1529 39.1024
50.7694 1605 40.0625
50.8867 1489 38.5876
51.004 1469 38.3275
51.1212 1421 37.6962
51.2384 1455 38.1445
51.3556 1335 36.5377
51.4727 1257 35.4542
51.5899 1162 34.0881
51.707 1190 34.4964
51.824 1239 35.1994
51.9411 1382 37.1753
52.0581 1391 37.2961
52.175 1461 38.223
52.2919 1459 38.1969
52.4088 1450 38.0789
52.5257 1478 38.4448
52.6425 1475 38.4057
52.7593 1457 38.1707
52.876 1487 38.5616
52.9927 1493 38.6394
53.1094 1538 39.2173
53.226 1471 38.3536
53.3426 1506 38.8072
53.4591 1533 39.1535
53.5756 1499 38.7169
53.692 1528 39.0896
53.8084 1440 37.9473
53.9248 1557 39.4588
54.0411 1325 36.4005
54.1573 1407 37.51
54.2735 0 1
54.3896 0 1
54.5057 0 1
54.6217 0 1
54.7377 0 1
54.8537 0 1
54.9695 0 1
55.0853 0 1
55.2011 0 1
55.3168 0 1
55.4324 0 1
57.824 0 1
57.9396 0 1
58.0553 0 1
58.1711 0 1
58.2869 0 1
58.4028 0 1
58.5187 0 1
58.6347 0 1
58.7508 0 1
58.8669 0 1
58.983 1239 35.1994
59.0992 1454 38.1314
59.2155 1544 39.2938
59.3318 1790 42.3084
59.4482 1983 44.5309
59.5646 2156 46.4327
59.681 2291 47.8644
59.7975 2285 47.8017
59.9141 2283 47.7807
60.0306 2400 48.9898
60.1473 2122 46.0652
60.2639 2031 45.0666
60.3807 2101 45.8367
60.4974 2117 46.0109
60.6142 2210 47.0106
60.731 2390 48.8876
60.8479 2566 50.6557
60.9648 2534 50.3389
61.0818 2750 52.4404
61.1987 2810 53.0094
61.3158 2717 52.1249
61.4328 2775 52.6783
61.5499 2785 52.7731
61.667 2846 53.3479
61.7841 2801 52.9245
61.9013 2826 53.1601
62.0185 2718 52.1344
62.1357 2857 53.4509
62.253 2876 53.6284
62.3702 2883 53.6936
62.4875 3074 55.4437
62.6049 3063 55.3444
62.7222 3062 55.3353
62.8396 3214 56.6922
62.9569 3267 57.1577
63.0743 3315 57.576
63.1918 3203 56.5951
63.3092 3076 55.4617
63.4267 3053 55.254
63.5441 2713 52.0865
63.6616 2660 51.5752
63.7791 2387 48.8569
63.8966 2284 47.7912
64.0142 2347 48.4458
64.1317 2427 49.2646
64.2492 2660 51.5752
64.3668 2863 53.507
64.4843 2926 54.0925
64.6019 2932 54.1479
64.7195 3013 54.8908
64.837 2985 54.6352
64.9546 3141 56.0446
65.0722 2989 54.6717
65.1898 3106 55.7315
65.3074 3069 55.3986
65.4249 3001 54.7814
65.5425 3032 55.0636
65.6601 2944 54.2586
65.7777 3020 54.9545
65.8952 3189 56.4712
66.0128 3209 56.648
66.1304 3270 57.1839
66.2479 3403 58.3352
66.3655 3301 57.4543
66.483 3388 58.2065
66.6005 3489 59.0678
66.718 3468 58.8897
66.8355 3340 57.7927
66.953 3127 55.9196
67.0705 3019 54.9454
67.1879 2752 52.4595
67.3054 2480 49.7996
67.4228 2329 48.2597
67.5402 2247 47.4025
67.6576 2366 48.6415
67.7749 2549 50.4876
67.8923 2698 51.9423
68.0096 3003 54.7996
68.1269 3022 54.9727
68.2442 3162 56.2317
68.3614 3208 56.6392
68.4787 3203 56.5951
68.5958 3133 55.9732
68.713 3135 55.9911
68.8302 3213 56.6833
68.9473 3137 56.0089
69.0643 2956 54.3691
69.1814 3052 55.2449
69.2984 3030 55.0454
69.4154 3080 55.4977
69.5323 3100 55.6776
69.6492 3083 55.5248
69.7661 3219 56.7362
69.8829 3277 57.2451
69.9997 3283 57.2975
70.1165 3248 56.9912
70.2332 3203 56.5951
70.3499 3224 56.7803
70.4665 2983 54.6168
70.5831 2797 52.8867
70.6996 2692 51.8845
70.8161 2411 49.1019
70.9326 2006 44.7884
71.049 1657 40.7063
71.1653 1341 36.6197
71.2817 1306 36.1386
71.3979 1263 35.5387
71.5141 1265 35.5668
71.6303 1282 35.805
71.7464 1102 33.1964
71.8624 0 1
71.9784 0 1
72.0944 0 1
72.2102 0 1
72.3261 0 1
72.4418 0 1
72.5575 0 1
72.6732 0 1
75.1054 0 1
75.2209 0 1
75.3365 0 1
75.4521 0 1
75.5678 0 1
75.6835 0 1
75.7993 0 1
75.9151 0 1
76.031 0 1
76.147 1678 40.9634
76.263 1604 40.05
76.3791 1617 40.2119
76.4952 1643 40.5339
76.6113 1729 41.5812
76.7276 1930 43.9318
76.8438 2233 47.2546
76.9601 2472 49.7192
77.0765 2565 50.6458
77.1929 2742 52.3641
77.3093 2826 53.1601
77.4258 2736 52.3068
77.5423 2727 52.2207
77.6589 2762 52.5547
77.7755 2627 51.2543
77.8921 2745 52.3927
78.0088 2766 52.5928
78.1256 2559 50.5866
78.2423 2649 51.4684
78.3591 2733 52.2781
78.4759 2610 51.0882
78.5928 2767 52.6023
78.7097 2803 52.9434
78.8266 2858 53.4603
78.9436 3112 55.7853
79.0606 3105 55.7225
79.1776 3025 55
79.2946 3023 54.9818
79.4117 2976 54.5527
79.5288 3003 54.7996
79.6459 2740 52.345
79.7631 2642 51.4004
79.8802 2458 49.5782
79.9974 2154 46.4112
80.1147 1876 43.3128
80.2319 1909 43.6921
80.3491 2202 46.9255
80.4664 2348 48.4562
80.5837 2556 50.5569
80.701 2768 52.6118
80.8183 2863 53.507
80.9357 2806 52.9717
81.053 2957 54.3783
81.1704 2910 53.9444
81.2877 2932 54.1479
81.4051 2901 53.8609
81.5225 2832 53.2165
81.6399 2855 53.4322
81.7573 2739 52.3355
81.8747 2691 51.8748
81.9922 2754 52.4786
82.1096 2873 53.6004
82.227 2845 53.3385
82.3444 2929 54.1202
82.4619 3031 55.0545
82.5793 3069 55.3986
82.6967 3192 56.4978
82.8142 3204 56.6039
82.9316 3110 55.7674
83.049 3161 56.2228
83.1664 2944 54.2586
83.2838 2930 54.1295
83.4012 2720 52.1536
83.5186 2531 50.309
83.636 2192 46.8188
83.7534 1913 43.7379
83.8708 1870 43.2435
83.9881 2079 45.5961
84.1055 2297 47.927
84.2228 2714 52.0961
84.3401 2764 52.5738
84.4575 3021 54.9636
84.5747 3055 55.2721
84.692 3001 54.7814
84.8093 3049 55.2178
84.9265 2893 53.7866
85.0437 3000 54.7723
85.1609 2967 54.4702
85.2781 2933 54.1572
85.3952 2830 53.1977
85.5123 2775 52.6783
85.6294 2783 52.7541
85.7465 2741 52.3546
85.8636 2978 54.5711
85.9806 2940 54.2218
86.0976 3142 56.0535
86.2145 3158 56.1961
86.3315 3207 56.6304
86.4484 3201 56.5774
86.5652 3254 57.0438
86.682 3140 56.0357
86.7988 3164 56.2494
86.9156 2905 53.8981
87.0323 2670 51.672
87.149 2430 49.295
87.2657 2099 45.8148
87.3823 1999 44.7102
87.4988 2005 44.7772
87.6154 2235 47.2758
87.7318 2536 50.3587
87.8483 2661 51.5849
87.9647 2580 50.7937
88.081 2715 52.1057
88.1973 2641 51.3907
88.3136 2394 48.9285
88.4298 2432 49.3153
88.546 2078 45.5851
88.6621 1852 43.0349
88.7781 1569 39.6106
88.8942 0 1
89.0101 0 1
89.126 0 1
89.2419 0 1
89.3577 0 1
89.4734 0 1
89.5891 0 1
89.7047 0 1
89.8203 0 1
89.9358 0 1
92.3269 0 1
92.4424 0 1
92.558 0 1
92.6736 0 1
92.7893 0 1
92.905 0 1
93.0208 0 1
93.1366 0 1
93.2525 0 1
93.3685 0 1
93.4845 0 1
93.6005 2065 45.4423
93.7167 2334 48.3115
93.8328 2552 50.5173
93.949 2723 52.1824
94.0653 2867 53.5444
94.1816 3019 54.9454
94.2979 2942 54.2402
94.4143 3085 55.5428
94.5307 3039 55.1271
94.6472 3009 54.8544
94.7637 3103 55.7046
94.8803 3047 55.1996
94.9969 3157 56.1872
95.1135 3140 56.0357
95.2302 3319 57.6108
95.3469 3423 58.5064
95.4637 3337 57.7668
95.5805 3365 58.0086
95.6973 3511 59.2537
95.8142 3199 56.5597
95.9311 3175 56.3471
96.048 2952 54.3323
96.1649 2783 52.7541
96.2819 2620 51.1859
96.3989 2285 47.8017
96.516 2198 46.8828
96.633 2291 47.8644
96.7501 2472 49.7192
96.8673 2702 51.9808
96.9844 2865 53.5257
97.1016 3048 55.2087
97.2188 3264 57.1314
97.336 3276 57.2364
97.4532 3266 57.1489
97.5704 3154 56.1605
97.6877 3079 55.4887
97.805 3112 55.7853
97.9223 3030 55.0454
98.0396 3026 55.0091
98.1569 2969 54.4885
98.2743 3003 54.7996
98.3916 3009 54.8544
98.509 3046 55.1906
98.6264 3105 55.7225
98.7438 3242 56.9386
98.8612 3337 57.7668
98.9786 3373 58.0775
99.096 3441 58.66
99.2134 3447 58.7112
99.3308 3561 59.6741
99.4482 3338 57.7754
99.5656 3120 55.857
99.6831 3111 55.7763
99.8005 2886 53.7215
99.9179 2557 50.5668
100.035 2432 49.3153
100.153 2493 49.93
100.27 2693 51.8941
100.388 2774 52.6688
100.505 2991 54.69
100.622 3086 55.5518
100.74 3204 56.6039
100.857 3221 56.7539
100.975 3274 57.2189
101.092 3295 57.4021
101.209 3196 56.5332
101.327 3153 56.1516
101.444 3159 56.205
101.561 3223 56.7715
101.679 3081 55.5068
101.796 2990 54.6809
101.913 3013 54.8908
102.03 3249 57
102.148 3302 57.463
102.265 3419 58.4722
102.382 3311 57.5413
102.499 3513 59.2706
102.616 3659 60.4897
102.733 3630 60.2495
102.851 3533 59.439
102.968 3491 59.0847
103.085 3362 57.9828
103.202 3179 56.3826
103.319 2836 53.2541
103.436 2525 50.2494
103.552 2502 50.02
103.669 2401 49
103.786 2634 51.3225
103.903 2944 54.2586
104.02 3056 55.2811
104.137 3100 55.6776
104.253 3198 56.5509
104.37 3256 57.0614
104.487 3227 56.8067
104.603 3203 56.5951
104.72 3102 55.6956
104.836 3059 55.3082
104.953 2897 53.8238
105.069 2738 52.3259
105.186 2696 51.923
105.302 2657 51.5461
105.418 2664 51.614
105.535 2580 50.7937
105.651 2471 49.7092
105.767 2398 48.9694
105.883 2189 46.7868
105.999 1909 43.6921
106.115 0 1
106.231 0 1
106.347 0 1
106.463 0 1
106.579 0 1
106.694 0 1
106.81 0 1
106.926 0 1
107.041 0 1
107.157 0 1
109.576 0 1
109.692 0 1
109.807 0 1
109.923 0 1
110.039 0 1
110.155 0 1
110.27 0 1
110.386 0 1
110.502 0 1
110.618 1511 38.8716
110.735 1738 41.6893
110.851 2029 45.0444
110.967 2251 47.4447
111.083 2578 50.774
111.199 2713 52.0865
111.316 2952 54.3323
111.432 3012 54.8817
111.549 3008 54.8452
111.665 2948 54.2955
111.782 2958 54.3875
111.898 2745 52.3927
112.015 2644 51.4198
112.132 2428 49.2747
112.248 2282 47.7703
112.365 2299 47.9479
112.482 2485 49.8498
112.599 2738 52.3259
112.716 2811 53.0189
112.832 2898 53.8331
112.949 2842 53.3104
113.066 2915 53.9907
113.183 2919 54.0278
113.3 2785 52.7731
113.417 2796 52.8772
113.534 2777 52.6972
113.652 2703 51.9904
113.769 2660 51.5752
113.886 2588 50.8724
114.003 2644 51.4198
114.12 2689 51.8556
114.238 2775 52.6783
114.355 2866 53.535
114.472 3004 54.8088
114.589 2967 54.4702
114.707 3049 55.2178
114.824 3115 55.8122
114.942 3147 56.0981
115.059 3073 55.4346
115.176 2978 54.5711
115.294 2882 53.6843
115.411 2770 52.6308
115.529 2610 51.0882
115.646 2387 48.8569
115.764 2295 47.9062
115.881 2292 47.8748
115.999 2419 49.1833
116.116 2506 50.06
116.234 2707 52.0288
116.351 2717 52.1249
116.469 2757 52.5071
116.586 2738 52.3259
116.704 2713 52.0865
116.821 2752 52.4595
116.939 2727 52.2207
117.056 2704 52
117.174 2606 51.049
117.291 2460 49.5984
117.409 2447 49.4672
117.526 2564 50.636
117.644 2537 50.3686
117.761 2535 50.3488
117.879 2602 51.0098
117.996 2742 52.3641
118.114 2810 53.0094
118.231 2946 54.2771
118.349 2918 54.0185
118.466 2885 53.7122
118.584 2871 53.5817
118.701 2908 53.9259
118.819 2663 51.6043
118.936 2579 50.7839
119.053 2501 50.01
119.171 2335 48.3218
119.288 2254 47.4763
119.405 2094 45.7602
119.523 2168 46.5618
119.64 2257 47.5079
119.757 2431 49.3052
119.875 2529 50.2892
119.992 2476 49.7594
120.109 2537 50.3686
120.226 2658 51.5558
120.343 2380 48.7852
120.46 2541 50.4083
120.578 2450 49.4975
120.695 2448 49.4773
120.812 2323 48.1975
120.929 2364 48.621
121.046 2319 48.156
121.163 2246 47.392
121.279 2311 48.0729
121.396 2236 47.2864
121.513 2378 48.7647
121.63 2456 49.558
121.747 2460 49.5984
121.863 2481 49.8096
121.98 2505 50.05
122.097 2411 49.1019
122.213 2343 48.4045
122.33 2364 48.621
122.446 2160 46.4758
122.563 2011 44.8442
122.679 1870 43.2435
122.795 1596 39.95
122.912 1426 37.7624
123.028 1278 35.7491
123.144 1152 33.9411
123.26 1219 34.9142
123.377 0 1
123.493 0 1
123.609 0 1
123.725 0 1
123.84 0 1
123.956 0 1
124.072 0 1
124.188 0 1
124.303 0 1
124.419 0 1
126.852 0 1
126.968 0 1
127.083 0 1
127.199 0 1
127.315 0 1
127.431 0 1
127.547 0 1
127.663 0 1
127.779 0 1
127.895 0 1
128.011 0 1
128.127 0 1
128.243 0 1
128.359 2323 48.1975
128.476 2289 47.8435
128.592 2304 48
128.708 2449 49.4874
128.825 2626 51.2445
128.941 2764 52.5738
129.058 2656 51.5364
129.174 2780 52.7257
129.291 2745 52.3927
129.408 2854 53.4228
129.524 2803 52.9434
129.641 2770 52.6308
129.758 2661 51.5849
129.875 2633 51.3128
129.992 2522 50.2195
130.108 2470 49.6991
130.225 2478 49.7795
130.342 2484 49.8397
130.459 2696 51.923
130.576 2928 54.111
130.693 2910 53.9444
130.81 2936 54.1849
130.928 2816 53.066
131.045 2883 53.6936
131.162 2913 53.9722
131.279 2918 54.0185
131.396 3051 55.2359
131.513 2976 54.5527
131.631 2730 52.2494
131.748 2736 52.3068
131.865 2575 50.7445
131.983 2370 48.6826
132.1 2497 49.97
132.217 2466 49.6588
132.335 2660 51.5752
132.452 2694 51.9038
132.57 2811 53.0189
132.687 2863 53.507
132.804 2839 53.2823
132.922 2784 52.7636
133.039 2748 52.4214
133.157 2737 52.3163
133.274 2721 52.1632
133.392 2607 51.0588
133.509 2580 50.7937
133.627 2497 49.97
133.744 2513 50.1298
133.862 2451 49.5076
133.979 2618 51.1664
134.097 2857 53.4509
134.214 2871 53.5817
134.332 2882 53.6843
134.449 2905 53.8981
134.567 2785 52.7731
134.684 2790 52.8205
134.802 2840 53.2917
134.919 2852 53.4041
135.037 2804 52.9528
135.154 2876 53.6284
135.272 2724 52.192
135.389 2612 51.1077
135.507 2451 49.5076
135.624 2392 48.9081
135.742 2533 50.3289
135.859 2590 50.892
135.977 2678 51.7494
136.094 2683 51.7977
136.211 2762 52.5547
136.329 2685 51.817
136.446 2706 52.0192
136.564 2717 52.1249
136.681 2818 53.0848
136.798 2786 52.7826
136.915 2625 51.2348
137.033 2581 50.8035
137.15 2422 49.2138
137.267 2387 48.8569
137.384 2462 49.6185
137.502 2421 49.2037
137.619 2601 51
137.736 2751 52.45
137.853 2643 51.4101
137.97 2836 53.2541
138.087 2710 52.0577
138.204 2690 51.8652
138.321 2653 51.5073
138.438 2752 52.4595
138.555 2603 51.0196
138.672 2700 51.9615
138.788 2489 49.8899
138.905 2392 48.9081
139.022 2305 48.0104
139.139 2242 47.3498
139.255 2106 45.8912
139.372 2088 45.6946
139.488 2085 45.6618
139.605 2177 46.6583
139.721 2102 45.8476
139.838 1985 44.5533
139.954 1871 43.2551
140.071 1758 41.9285
140.187 1598 39.975
140.303 1513 38.8973
140.419 1523 39.0256
140.535 1375 37.081
140.652 1253 35.3977
140.768 0 1
140.884 0 1
141 0 1
141.115 0 1
141.231 0 1
141.347 0 1
141.463 0 1
141.578 0 1
141.694 0 1
144.104 0 1
144.219 0 1
144.335 0 1
144.45 0 1
144.566 0 1
144.682 0 1
144.798 0 1
144.914 0 1
145.03 0 1
145.146 1877 43.3244
145.262 2053 45.31
145.378 1988 44.587
145.494 2006 44.7884
145.61 1942 44.0681
145.726 2044 45.2106
145.842 1931 43.9431
145.959 1836 42.8486
146.075 1830 42.7785
146.192 1853 43.0465
146.308 1804 42.4735
146.425 1924 43.8634
146.541 1993 44.643
146.658 1984 44.5421
146.774 2018 44.9222
146.891 1972 44.4072
147.008 2063 45.4203
147.125 1875 43.3013
147.241 2038 45.1442
147.358 2024 44.9889
147.475 2139 46.2493
147.592 2073 45.5302
147.709 2005 44.7772
147.826 1823 42.6966
147.943 1800 42.4264
148.06 1777 42.1545
148.177 1835 42.8369
148.294 1849 43
148.411 2023 44.9778
148.528 1983 44.5309
148.645 1974 44.4297
148.762 1996 44.6766
148.88 2051 45.288
148.997 2045 45.2217
149.114 1908 43.6807
149.231 1962 44.2945
149.349 1990 44.6094
149.466 1836 42.8486
149.583 1820 42.6615
149.701 1858 43.1045
149.818 1819 42.6497
149.935 1710 41.3521
150.053 1830 42.7785
150.17 1843 42.9302
150.287 1927 43.8976
150.405 1974 44.4297
150.522 1910 43.7035
150.64 1936 44
150.757 1895 43.5316
150.875 1984 44.5421
150.992 1960 44.2719
151.11 1971 44.3959
151.227 1966 44.3396
151.344 1910 43.7035
151.462 1871 43.2551
151.579 1747 41.7971
151.697 1815 42.6028
151.814 1836 42.8486
151.932 1787 42.2729
152.049 1920 43.8178
152.167 1953 44.1928
152.284 1885 43.4166
152.402 1884 43.4051
152.519 1911 43.715
152.636 1873 43.2782
152.754 1901 43.6005
152.871 1886 43.4281
152.989 1754 41.8808
153.106 1775 42.1307
153.223 1672 40.8901
153.341 1728 41.5692
153.458 1648 40.5956
153.575 1670 40.8656
153.693 1683 41.0244
153.81 1796 42.3792
153.927 1827 42.7434
154.044 1738 41.6893
154.162 1787 42.2729
154.279 1803 42.4617
154.396 1836 42.8486
154.513 1821 42.6732
154.63 1821 42.6732
154.747 1874 43.2897
154.864 1877 43.3244
154.981 1714 41.4005
155.098 1650 40.6202
155.215 1588 39.8497
155.332 1609 40.1123
155.449 1705 41.2916
155.566 1732 41.6173
155.683 1774 42.1189
155.8 1684 41.0366
155.917 1697 41.1947
156.033 1667 40.8289
156.15 0 1
156.267 0 1
156.383 0 1
156.5 0 1
156.617 0 1
156.733 0 1
156.85 0 1
156.966 0 1
157.082 0 1
157.199 0 1
157.315 0 1
157.431 0 1
157.547 0 1
157.664 0 1
157.78 0 1
157.896 0 1
158.012 0 1
158.128 0 1
158.244 0 1
158.359 0 1
158.475 0 1
158.591 0 1
158.706 0 1
