
6.15755 0 1
6.2731 0 1
6.3887 0 1
6.50437 0 1
6.62009 0 1
6.73587 0 1
6.8517 0 1
6.96759 0 1
7.08353 0 1
7.19952 0 1
7.31557 0 1
7.43166 0 1
7.54781 0 1
7.664 0 1
7.78024 0 1
7.89653 0 1
8.01286 0 1
8.12924 0 1
8.24567 0 1
8.36213 0 1
8.47864 0 1
8.59519 0 1
8.71178 0 1
8.82841 0 1
8.94508 0 1
9.06179 0 1
9.17853 0 1
9.29531 0 1
9.41212 0 1
9.52897 0 1
9.64584 0 1
9.76276 0 1
9.8797 0 1
9.99667 0 1
10.1137 0 1
10.2307 0 1
10.3478 0 1
10.4648 0 1
10.5819 0 1
10.6991 0 1
10.8162 0 1
10.9334 0 1
11.0506 0 1
11.1678 0 1
11.285 0 1
11.4023 0 1
11.5196 0 1
11.6369 0 1
11.7542 0 1
11.8715 0 1
11.9888 0 1
12.1062 0 1
12.2235 0 1
12.3409 0 1
12.4582 0 1
12.5756 0 1
12.693 0 1
12.8104 0 1
12.9278 0 1
13.0452 0 1
13.1626 0 1
13.28 0 1
13.3974 0 1
13.5149 0 1
13.6323 0 1
13.7497 0 1
13.8671 0 1
13.9845 0 1
14.1019 0 1
14.2193 0 1
14.3367 0 1
14.4541 0 1
14.5714 0 1
14.6888 0 1
14.8062 0 1
14.9235 0 1
15.0408 22585 150.283
15.1581 23595 153.607
15.2755 24674 157.08
15.3927 25199 158.742
15.51 25303 159.069
15.6273 25274 158.978
15.7445 24924 157.873
15.8617 24146 155.39
15.9789 23379 152.902
16.0961 22730 150.765
16.2132 22196 148.983
16.3304 22131 148.765
16.4475 22298 149.325
16.5646 22339 149.462
16.6816 22629 150.429
16.7986 22656 150.519
16.9156 22274 149.245
17.0326 21988 148.284
17.1496 21725 147.394
17.2665 21351 146.12
17.3833 21325 146.031
17.5002 21174 145.513
17.617 21575 146.884
17.7338 21476 146.547
17.8505 21833 147.76
17.9672 22301 149.335
18.0839 22237 149.121
18.2005 22788 150.957
18.3171 23608 153.649
18.4337 23975 154.839
18.5502 24291 155.856
18.6666 24224 155.641
18.7831 24224 155.641
18.8994 24118 155.3
19.0158 23322 152.715
19.1321 22572 150.24
19.2483 21293 145.921
19.3645 19653 140.189
19.4806 18058 134.38
19.5967 16857 129.835
19.7128 15439 124.254
19.8288 14144 118.929
19.9447 13137 114.617
20.0606 0 1
20.1764 0 1
20.2922 0 1
20.4079 0 1
20.5236 0 1
20.6392 0 1
20.7548 0 1
20.8702 0 1
23.3078 0 1
23.4233 0 1
23.539 0 1
23.6547 0 1
23.7704 0 1
23.8862 0 1
24.0021 0 1
24.118 0 1
24.234 0 1
24.35 0 1
24.4661 9861 99.3026
24.5822 11085 105.285
24.6984 11880 108.995
24.8146 12523 111.906
24.9309 13370 115.629
25.0472 14452 120.216
25.1636 15930 126.214
25.28 17136 130.905
25.3965 18686 136.697
25.513 20002 141.428
25.6296 21326 146.034
25.7462 22240 149.131
25.8628 23156 152.171
25.9795 23636 153.74
26.0962 23556 153.48
26.213 23763 154.153
26.3298 23427 153.059
26.4466 22598 150.326
26.5635 21815 147.699
26.6804 22174 148.909
26.7973 22518 150.06
26.9143 22726 150.751
27.0313 22807 151.02
27.1483 23342 152.781
27.2653 23512 153.336
27.3824 23806 154.292
27.4996 23340 152.774
27.6167 23222 152.388
27.7339 22947 151.483
27.8511 22161 148.866
27.9683 21313 145.99
28.0855 20722 143.951
28.2028 19774 140.62
28.3201 18502 136.022
28.4374 17660 132.891
28.5547 17364 131.773
28.6721 18518 136.081
28.7894 19283 138.863
28.9068 20267 142.362
29.0242 21158 145.458
29.1416 21634 147.085
29.259 21504 146.642
29.3764 21540 146.765
29.4939 21539 146.762
29.6113 21710 147.343
29.7288 21892 147.959
29.8463 21605 146.986
29.9638 21297 145.935
30.0812 20985 144.862
30.1987 21089 145.221
30.3162 21540 146.765
30.4337 21890 147.953
30.5512 22091 148.63
30.6687 22600 150.333
30.7862 22617 150.389
30.9037 23006 151.677
31.0212 22824 151.076
31.1387 22580 150.266
31.2562 22217 149.054
31.3737 21885 147.936
31.4912 21242 145.746
31.6087 20239 142.264
31.7262 19561 139.861
31.8436 18234 135.033
31.9611 17612 132.71
32.0785 17665 132.91
32.1959 18203 134.918
32.3134 18812 137.157
32.4308 19913 141.113
32.5482 20725 143.962
32.6655 20933 144.682
32.7829 21097 145.248
32.9002 21324 146.027
33.0176 21009 144.945
33.1349 21129 145.358
33.2522 21468 146.52
33.3694 21380 146.219
33.4867 21304 145.959
33.6039 20676 143.792
33.7211 20442 142.976
33.8383 20452 143.01
33.9554 20993 144.89
34.0725 21812 147.689
34.1896 21929 148.084
34.3067 22447 149.823
34.4237 22542 150.14
34.5407 22492 149.973
34.6577 22579 150.263
34.7746 22345 149.482
34.8915 21906 148.007
35.0084 21403 146.298
35.1252 21044 145.066
35.242 20518 143.241
35.3587 19854 140.904
35.4755 18790 137.077
35.5921 17440 132.061
35.7088 16708 129.259
35.8254 16894 129.977
35.9419 17455 132.117
36.0584 18128 134.64
36.1749 18794 137.091
36.2913 18985 137.786
36.4077 18942 137.63
36.524 18772 137.011
36.6403 18667 136.627
36.7565 18481 135.945
36.8727 17753 133.24
36.9889 17211 131.191
37.1049 15905 126.115
37.221 0 1
37.3369 0 1
37.4529 0 1
37.5687 0 1
37.6845 0 1
37.8003 0 1
37.916 0 1
38.0316 0 1
38.1472 0 1
40.5851 0 1
40.7008 0 1
40.8164 0 1
40.9322 0 1
41.048 0 1
41.1639 0 1
41.2798 0 1
41.3958 0 1
41.5118 0 1
41.6279 0 1
41.744 9813 99.0606
41.8602 10737 103.619
41.9765 11748 108.388
42.0928 12640 112.428
42.2091 13303 115.339
42.3255 14091 118.706
42.4419 14727 121.355
42.5584 15115 122.943
42.675 16240 127.436
42.7915 17355 131.738
42.9081 18519 136.085
43.0248 19500 139.642
43.1415 19673 140.26
43.2582 20208 142.155
43.375 20578 143.45
43.4918 20432 142.941
43.6087 20619 143.593
43.7256 20149 141.947
43.8425 20145 141.933
43.9595 19894 141.046
44.0765 19425 139.374
44.1935 19104 138.217
44.3106 17911 133.832
44.4277 16926 130.1
44.5448 16075 126.787
44.6619 15913 126.147
44.7791 16883 129.935
44.8963 17811 133.458
45.0136 18819 137.182
45.1308 19189 138.524
45.2481 19382 139.219
45.3654 19609 140.032
45.4827 19583 139.939
45.6001 19695 140.339
45.7174 20103 141.785
45.8348 19621 140.075
45.9522 19835 140.837
46.0697 19553 139.832
46.1871 19415 139.338
46.3046 19950 141.244
46.422 20511 143.217
46.5395 21193 145.578
46.657 21856 147.838
46.7745 22038 148.452
46.892 22525 150.083
47.0096 22785 150.947
47.1271 23154 152.164
47.2446 22824 151.076
47.3622 22548 150.16
47.4797 22356 149.519
47.5973 22073 148.57
47.7149 21050 145.086
47.8324 20185 142.074
47.95 18954 137.674
48.0675 17112 130.813
48.1851 17466 132.159
48.3027 17976 134.075
48.4202 19124 138.29
48.5378 20366 142.709
48.6554 21055 145.103
48.7729 21339 146.079
48.8904 21448 146.451
49.008 21347 146.106
49.1255 21841 147.787
49.243 21555 146.816
49.3605 21418 146.349
49.478 21390 146.253
49.5955 21077 145.179
49.713 21152 145.437
49.8304 21684 147.255
49.9479 22530 150.1
50.0653 23238 152.44
50.1827 23973 154.832
50.3001 24466 156.416
50.4175 24462 156.403
50.5348 25043 158.25
50.6521 25013 158.155
50.7694 25329 159.151
50.8867 25001 158.117
51.004 24534 156.633
51.1212 23905 154.612
51.2384 23318 152.702
51.3556 21994 148.304
51.4727 20414 142.878
51.5899 19025 137.931
51.707 19193 138.539
51.824 20500 143.178
51.9411 21647 147.129
52.0581 23248 152.473
52.175 23809 154.302
52.2919 23738 154.071
52.4088 23476 153.219
52.5257 24072 155.152
52.6425 24315 155.933
52.7593 24322 155.955
52.876 24207 155.586
52.9927 23740 154.078
53.1094 23644 153.766
53.226 23455 153.15
53.3426 23280 152.578
53.4591 23594 153.603
53.5756 23965 154.806
53.692 24045 155.065
53.8084 23878 154.525
53.9248 23174 152.23
54.0411 22456 149.853
54.1573 21018 144.976
54.2735 0 1
54.3896 0 1
54.5057 0 1
54.6217 0 1
54.7377 0 1
54.8537 0 1
54.9695 0 1
55.0853 0 1
55.2011 0 1
55.3168 0 1
55.4324 0 1
57.824 0 1
57.9396 0 1
58.0553 0 1
58.1711 0 1
58.2869 0 1
58.4028 0 1
58.5187 0 1
58.6347 0 1
58.7508 0 1
58.8669 0 1
58.983 18863 137.343
59.0992 22336 149.452
59.2155 24863 157.68
59.3318 27313 165.266
59.4482 29433 171.56
59.5646 31698 178.039
59.681 33254 182.357
59.7975 34169 184.849
59.9141 34263 185.103
60.0306 33799 183.845
60.1473 32502 180.283
60.2639 31218 176.686
60.3807 30385 174.313
60.4974 30601 174.931
60.6142 32717 180.878
60.731 35465 188.322
60.8479 37468 193.567
60.9648 38957 197.375
61.0818 39853 199.632
61.1987 40157 200.392
61.3158 40402 201.002
61.4328 40317 200.791
61.5499 40871 202.166
61.667 40242 200.604
61.7841 39590 198.972
61.9013 39748 199.369
62.0185 40197 200.492
62.1357 40663 201.651
62.253 41709 204.228
62.3702 42817 206.923
62.4875 43982 209.719
62.6049 44822 211.712
62.7222 44977 212.078
62.8396 46180 214.895
62.9569 46168 214.867
63.0743 46449 215.52
63.1918 45785 213.974
63.3092 44351 210.597
63.4267 42567 206.318
63.5441 40362 200.903
63.6616 36905 192.107
63.7791 34050 184.526
63.8966 32371 179.919
64.0142 33119 181.986
64.1317 34964 186.987
64.2492 38667 196.639
64.3668 40888 202.208
64.4843 42308 205.689
64.6019 43222 207.899
64.7195 43421 208.377
64.837 43803 209.292
64.9546 43783 209.244
65.0722 43982 209.719
65.1898 43491 208.545
65.3074 43536 208.653
65.4249 42722 206.693
65.5425 42440 206.01
65.6601 42495 206.143
65.7777 43656 208.94
65.8952 44633 211.265
66.0128 46016 214.513
66.1304 46462 215.55
66.2479 47527 218.007
66.3655 47859 218.767
66.483 48781 220.864
66.6005 48692 220.663
66.718 48123 219.37
66.8355 47173 217.193
66.953 45539 213.399
67.0705 43271 208.017
67.1879 40482 201.201
67.3054 36635 191.403
67.4228 32669 180.746
67.5402 32005 178.899
67.6576 33417 182.803
67.7749 36051 189.871
67.8923 39462 198.65
68.0096 42608 206.417
68.1269 44069 209.926
68.2442 44450 210.832
68.3614 45161 212.511
68.4787 45457 213.206
68.5958 45374 213.012
68.713 45158 212.504
68.8302 44534 211.031
68.9473 43714 209.079
69.0643 43156 207.74
69.1814 43105 207.617
69.2984 42874 207.06
69.4154 43082 207.562
69.5323 43772 209.218
69.6492 45066 212.288
69.7661 45510 213.331
69.8829 46559 215.775
69.9997 46067 214.632
70.1165 45587 213.511
70.2332 45787 213.979
70.3499 44154 210.129
70.4665 42815 206.918
70.5831 40084 200.21
70.6996 36822 191.891
70.8161 33332 182.571
70.9326 28405 168.538
71.049 23193 152.292
71.1653 18879 137.401
71.2817 17452 132.106
71.3979 17239 131.297
71.5141 17010 130.422
71.6303 16727 129.333
71.7464 15513 124.551
71.8624 0 1
71.9784 0 1
72.0944 0 1
72.2102 0 1
72.3261 0 1
72.4418 0 1
72.5575 0 1
72.6732 0 1
75.1054 0 1
75.2209 0 1
75.3365 0 1
75.4521 0 1
75.5678 0 1
75.6835 0 1
75.7993 0 1
75.9151 0 1
76.031 0 1
76.147 23083 151.931
76.263 23378 152.899
76.3791 23329 152.738
76.4952 22828 151.089
76.6113 24753 157.331
76.7276 28136 167.738
76.8438 32144 179.287
76.9601 35907 189.491
77.0765 38027 195.005
77.1929 39304 198.252
77.3093 39878 199.695
77.4258 40300 200.749
77.5423 40300 200.749
77.6589 40464 201.157
77.7755 39816 199.539
77.8921 39535 198.834
78.0088 38499 196.212
78.1256 38382 195.913
78.2423 38111 195.22
78.3591 38277 195.645
78.4759 38892 197.211
78.5928 39589 198.97
78.7097 40318 200.793
78.8266 40908 202.257
78.9436 43377 208.271
79.0606 43307 208.103
79.1776 43834 209.366
79.2946 43846 209.394
79.4117 43896 209.514
79.5288 43041 207.463
79.6459 40821 202.042
79.7631 38311 195.732
79.8802 35413 188.183
79.9974 31439 177.31
80.1147 28461 168.704
80.2319 28720 169.47
80.3491 30847 175.633
80.4664 34669 186.196
80.5837 37714 194.201
80.701 39426 198.56
80.8183 40294 200.734
80.9357 41599 203.958
81.053 42035 205.024
81.1704 41850 204.573
81.2877 41973 204.873
81.4051 41786 204.416
81.5225 41985 204.902
81.6399 40638 201.589
81.7573 40531 201.323
81.8747 39276 198.182
81.9922 39980 199.95
82.1096 40506 201.261
82.227 41019 202.531
82.3444 41598 203.956
82.4619 43454 208.456
82.5793 44506 210.964
82.6967 45159 212.506
82.8142 46038 214.565
82.9316 45749 213.89
83.049 45789 213.984
83.1664 44263 210.388
83.2838 42361 205.818
83.4012 39773 199.432
83.5186 36610 191.337
83.636 32517 180.325
83.7534 29198 170.874
83.8708 28324 168.297
83.9881 30794 175.482
84.1055 33408 182.779
84.2228 37636 194
84.3401 40467 201.164
84.4575 42384 205.874
84.5747 43359 208.228
84.692 43776 209.227
84.8093 43392 208.307
84.9265 42882 207.08
85.0437 42526 206.218
85.1609 41808 204.47
85.2781 41326 203.288
85.3952 40598 201.489
85.5123 40307 200.766
85.6294 40398 200.993
85.7465 40890 202.213
85.8636 42196 205.417
85.9806 43206 207.861
86.0976 44595 211.175
86.2145 45615 213.577
86.3315 47127 217.088
86.4484 44956 212.028
86.5652 46470 215.569
86.682 45594 213.528
86.7988 44171 210.169
86.9156 42253 205.555
87.0323 39641 199.1
87.149 35966 189.647
87.2657 31600 177.764
87.3823 29087 170.549
87.4988 29358 171.342
87.6154 31762 178.219
87.7318 34926 186.885
87.8483 36478 190.992
87.9647 37524 193.711
88.081 37710 194.191
88.1973 36572 191.238
88.3136 35481 188.364
88.4298 32420 180.056
88.546 28373 168.443
88.6621 23949 154.755
88.7781 20772 144.125
88.8942 0 1
89.0101 0 1
89.126 0 1
89.2419 0 1
89.3577 0 1
89.4734 0 1
89.5891 0 1
89.7047 0 1
89.8203 0 1
89.9358 0 1
92.3269 0 1
92.4424 0 1
92.558 0 1
92.6736 0 1
92.7893 0 1
92.905 0 1
93.0208 0 1
93.1366 0 1
93.2525 0 1
93.3685 0 1
93.4845 0 1
93.6005 30135 173.594
93.7167 33061 181.827
93.8328 35276 187.819
93.949 37428 193.463
94.0653 39996 199.99
94.1816 41744 204.313
94.2979 43175 207.786
94.4143 43168 207.769
94.5307 43141 207.704
94.6472 43032 207.442
94.7637 43424 208.384
94.8803 43912 209.552
94.9969 44780 211.613
95.1135 46027 214.539
95.2302 47385 217.681
95.3469 47856 218.76
95.4637 48666 220.604
95.5805 48926 221.192
95.6973 48553 220.347
95.8142 46972 216.73
95.9311 45512 213.335
96.048 43159 207.747
96.1649 40522 201.301
96.2819 37968 194.854
96.3989 34623 186.073
96.516 32852 181.251
96.633 33790 183.821
96.7501 35442 188.26
96.8673 38245 195.563
96.9844 41056 202.623
97.1016 43760 209.189
97.2188 45248 212.716
97.336 45329 212.906
97.4532 45770 213.939
97.5704 45280 212.791
97.6877 44560 211.092
97.805 44182 210.195
97.9223 43469 208.492
98.0396 43150 207.726
98.1569 42052 205.066
98.2743 42644 206.504
98.3916 42628 206.465
98.509 44374 210.651
98.6264 45346 212.946
98.7438 46903 216.571
98.8612 47871 218.794
98.9786 48847 221.014
99.096 49601 222.713
99.2134 50143 223.926
99.3308 49013 221.389
99.4482 47938 218.947
99.5656 46648 215.981
99.6831 43597 208.799
99.8005 41020 202.534
99.9179 37931 194.759
100.035 36539 191.152
100.153 36485 191.01
100.27 38433 196.043
100.388 40977 202.428
100.505 43430 208.399
100.622 44338 210.566
100.74 45845 214.114
100.857 46317 215.214
100.975 46634 215.949
101.092 46623 215.924
101.209 46114 214.742
101.327 45239 212.695
101.444 44340 210.571
101.561 43704 209.055
101.679 43078 207.552
101.796 43017 207.405
101.913 43827 209.349
102.03 44711 211.45
102.148 46497 215.632
102.265 48829 220.973
102.382 48203 219.552
102.499 49690 222.913
102.616 50148 223.937
102.733 50659 225.076
102.851 49920 223.428
102.968 49203 221.817
103.085 47464 217.862
103.202 45018 212.174
103.319 42305 205.682
103.436 39168 197.909
103.552 36574 191.243
103.669 36462 190.95
103.786 38034 195.023
103.903 40387 200.965
104.02 43255 207.978
104.137 44703 211.431
104.253 45545 213.413
104.37 45780 213.963
104.487 45604 213.551
104.603 45395 213.061
104.72 43580 208.758
104.836 42448 206.029
104.953 40934 202.322
105.069 39262 198.146
105.186 38033 195.021
105.302 37071 192.538
105.418 36396 190.777
105.535 35979 189.681
105.651 34425 185.54
105.767 33004 181.67
105.883 30124 173.563
105.999 26282 162.117
106.115 0 1
106.231 0 1
106.347 0 1
106.463 0 1
106.579 0 1
106.694 0 1
106.81 0 1
106.926 0 1
107.041 0 1
107.157 0 1
109.576 0 1
109.692 0 1
109.807 0 1
109.923 0 1
110.039 0 1
110.155 0 1
110.27 0 1
110.386 0 1
110.502 0 1
110.618 21348 146.11
110.735 25600 160
110.851 29638 172.157
110.967 33181 182.157
111.083 36366 190.699
111.199 39661 199.151
111.316 41518 203.76
111.432 42941 207.222
111.549 44497 210.943
111.665 44321 210.526
111.782 42855 207.014
111.898 41140 202.83
112.015 38618 196.515
112.132 35484 188.372
112.248 32530 180.361
112.365 33564 183.205
112.482 35991 189.713
112.599 38537 196.308
112.716 41147 202.847
112.832 41391 203.448
112.949 41909 204.717
113.066 41835 204.536
113.183 41568 203.882
113.3 41582 203.917
113.417 40550 201.37
113.534 39724 199.309
113.652 38633 196.553
113.769 38189 195.42
113.886 37719 194.214
114.003 37605 193.92
114.12 39139 197.836
114.238 40462 201.152
114.355 41712 204.235
114.472 43060 207.509
114.589 43925 209.583
114.707 44511 210.976
114.824 45050 212.25
114.942 45050 212.25
115.059 44808 211.679
115.176 44211 210.264
115.294 41789 204.424
115.411 40323 200.806
115.529 39053 197.618
115.646 36079 189.945
115.764 33325 182.551
115.881 32665 180.735
115.999 34686 186.242
116.116 36969 192.273
116.234 39646 199.113
116.351 39928 199.82
116.469 40331 200.826
116.586 40286 200.714
116.704 40123 200.307
116.821 40102 200.255
116.939 39434 198.58
117.056 38768 196.896
117.174 37602 193.912
117.291 36298 190.52
117.409 36284 190.484
117.526 35826 189.278
117.644 37013 192.388
117.761 38693 196.705
117.879 39969 199.922
117.996 40643 201.601
118.114 41232 203.057
118.231 42222 205.48
118.349 42781 206.836
118.466 42705 206.652
118.584 42792 206.862
118.701 42312 205.699
118.819 40682 201.698
118.936 39107 197.755
119.053 37958 194.828
119.171 36305 190.539
119.288 33399 182.754
119.405 31470 177.398
119.523 32161 179.335
119.64 33784 183.804
119.757 36182 190.216
119.875 37728 194.237
119.992 38050 195.064
120.109 37829 194.497
120.226 38217 195.492
120.343 37496 193.639
120.46 37907 194.697
120.578 36989 192.325
120.695 36236 190.358
120.812 35210 187.643
120.929 34234 185.024
121.046 33495 183.016
121.163 33348 182.614
121.279 33419 182.809
121.396 34637 186.11
121.513 35512 188.446
121.63 36310 190.552
121.747 36121 190.055
121.863 36254 190.405
121.98 35745 189.063
122.097 35693 188.926
122.213 35010 187.11
122.33 33370 182.675
122.446 31945 178.732
122.563 29847 172.763
122.679 26980 164.256
122.795 23966 154.81
122.912 20338 142.611
123.028 18297 135.266
123.144 16927 130.104
123.26 16656 129.058
123.377 0 1
123.493 0 1
123.609 0 1
123.725 0 1
123.84 0 1
123.956 0 1
124.072 0 1
124.188 0 1
124.303 0 1
124.419 0 1
126.852 0 1
126.968 0 1
127.083 0 1
127.199 0 1
127.315 0 1
127.431 0 1
127.547 0 1
127.663 0 1
127.779 0 1
127.895 0 1
128.011 0 1
128.127 0 1
128.243 0 1
128.359 35698 188.939
128.476 34925 186.882
128.592 35393 188.13
128.708 37385 193.352
128.825 39412 198.525
128.941 41267 203.143
129.058 41856 204.587
129.174 41739 204.301
129.291 41765 204.365
129.408 42259 205.57
129.524 41700 204.206
129.641 41413 203.502
129.758 39902 199.755
129.875 38577 196.41
129.992 37974 194.869
130.108 37340 193.236
130.225 37611 193.936
130.342 38857 197.122
130.459 40401 201
130.576 43499 208.564
130.693 43488 208.538
130.81 43442 208.427
130.928 43302 208.091
131.045 43814 209.318
131.162 44290 210.452
131.279 44455 210.844
131.396 44733 211.502
131.513 43739 209.139
131.631 42778 206.828
131.748 41250 203.101
131.865 39642 199.103
131.983 37196 192.863
132.1 36520 191.102
132.217 37819 194.471
132.335 39922 199.805
132.452 41293 203.207
132.57 42367 205.832
132.687 41305 203.236
132.804 42846 206.993
132.922 42362 205.82
133.039 41822 204.504
133.157 41465 203.63
133.274 40367 200.915
133.392 38945 197.345
133.509 38114 195.228
133.627 37309 193.155
133.744 37229 192.948
133.862 38754 196.86
133.979 40641 201.596
134.097 42641 206.497
134.214 42969 207.29
134.332 43144 207.711
134.449 42999 207.362
134.567 43350 208.207
134.684 43402 208.331
134.802 44169 210.164
134.919 44305 210.488
135.037 44098 209.995
135.154 42497 206.148
135.272 41536 203.804
135.389 39846 199.615
135.507 37739 194.265
135.624 36799 191.831
135.742 37377 193.331
135.859 39178 197.934
135.977 40903 202.245
136.094 41804 204.46
136.211 41906 204.71
136.329 41798 204.446
136.446 41429 203.541
136.564 41796 204.441
136.681 41621 204.012
136.798 40984 202.445
136.915 39255 198.129
137.033 38116 195.233
137.15 37311 193.161
137.267 36688 191.541
137.384 36997 192.346
137.502 37545 193.765
137.619 39755 199.387
137.736 41329 203.295
137.853 39938 199.845
137.97 41637 204.051
138.087 40947 202.354
138.204 41481 203.669
138.321 41278 203.17
138.438 41790 204.426
138.555 41841 204.551
138.672 40415 201.035
138.788 38965 197.396
138.905 36815 191.872
139.022 35604 188.69
139.139 32956 181.538
139.255 31194 176.618
139.372 30645 175.057
139.488 30824 175.568
139.605 30908 175.807
139.721 30519 174.697
139.838 28923 170.068
139.954 26785 163.661
140.071 23980 154.855
140.187 22795 150.98
140.303 21465 146.509
140.419 20112 141.817
140.535 18588 136.338
140.652 17209 131.183
140.768 0 1
140.884 0 1
141 0 1
141.115 0 1
141.231 0 1
141.347 0 1
141.463 0 1
141.578 0 1
141.694 0 1
144.104 0 1
144.219 0 1
144.335 0 1
144.45 0 1
144.566 0 1
144.682 0 1
144.798 0 1
144.914 0 1
145.03 0 1
145.146 29376 171.394
145.262 30420 174.413
145.378 31086 176.312
145.494 31279 176.859
145.61 31150 176.494
145.726 29635 172.148
145.842 28853 169.862
145.959 28595 169.101
146.075 28214 167.97
146.192 28585 169.071
146.308 28910 170.029
146.425 30207 173.802
146.541 31371 177.119
146.658 31437 177.305
146.774 31779 178.267
146.891 31505 177.496
147.008 31697 178.037
147.125 31645 177.89
147.241 32268 179.633
147.358 32577 180.491
147.475 32473 180.203
147.592 32180 179.388
147.709 31109 176.377
147.826 30032 173.297
147.943 29009 170.32
148.06 28224 168
148.177 28114 167.672
148.294 29743 172.462
148.411 31212 176.669
148.528 31872 178.527
148.645 31784 178.281
148.762 31493 177.463
148.88 31415 177.243
148.997 32046 179.014
149.114 30885 175.741
149.231 31230 176.72
149.349 30225 173.853
149.466 29051 170.444
149.583 28406 168.541
149.701 27991 167.305
149.818 27276 165.154
149.935 28477 168.751
150.053 29190 170.851
150.17 30651 175.074
150.287 30840 175.613
150.405 30944 175.909
150.522 30570 174.843
150.64 30942 175.903
150.757 31332 177.008
150.875 31670 177.961
150.992 32195 179.43
151.11 31640 177.876
151.227 31461 177.372
151.344 30597 174.92
151.462 29685 172.293
151.579 28031 167.425
151.697 27590 166.102
151.814 28122 167.696
151.932 29002 170.3
152.049 29903 172.925
152.167 30572 174.849
152.284 30812 175.533
152.402 30825 175.57
152.519 30384 174.31
152.636 30275 173.997
152.754 30177 173.715
152.871 29658 172.215
152.989 28245 168.062
153.106 27583 166.081
153.223 26775 163.631
153.341 26489 162.754
153.458 26518 162.843
153.575 27021 164.381
153.693 28453 168.68
153.81 28861 169.885
153.927 29090 170.558
154.044 29113 170.625
154.162 29332 171.266
154.279 29505 171.77
154.396 30024 173.274
154.513 30589 174.897
154.63 30548 174.78
154.747 30313 174.106
154.864 29671 172.253
154.981 28625 169.189
155.098 27733 166.532
155.215 26281 162.114
155.332 26402 162.487
155.449 26659 163.276
155.566 27947 167.174
155.683 28322 168.291
155.8 27987 167.293
155.917 27275 165.151
156.033 26811 163.741
156.15 0 1
156.267 0 1
156.383 0 1
156.5 0 1
156.617 0 1
156.733 0 1
156.85 0 1
156.966 0 1
157.082 0 1
157.199 0 1
157.315 0 1
157.431 0 1
157.547 0 1
157.664 0 1
157.78 0 1
157.896 0 1
158.012 0 1
158.128 0 1
158.244 0 1
158.359 0 1
158.475 0 1
158.591 0 1
158.706 0 1
