
6.15755 0 1
6.2731 0 1
6.3887 0 1
6.50437 0 1
6.62009 0 1
6.73587 0 1
6.8517 0 1
6.96759 0 1
7.08353 0 1
7.19952 0 1
7.31557 0 1
7.43166 0 1
7.54781 0 1
7.664 0 1
7.78024 0 1
7.89653 0 1
8.01286 0 1
8.12924 0 1
8.24567 0 1
8.36213 0 1
8.47864 0 1
8.59519 0 1
8.71178 0 1
8.82841 0 1
8.94508 0 1
9.06179 0 1
9.17853 0 1
9.29531 0 1
9.41212 0 1
9.52897 0 1
9.64584 0 1
9.76276 0 1
9.8797 0 1
9.99667 0 1
10.1137 0 1
10.2307 0 1
10.3478 0 1
10.4648 0 1
10.5819 0 1
10.6991 0 1
10.8162 0 1
10.9334 0 1
11.0506 0 1
11.1678 0 1
11.285 0 1
11.4023 0 1
11.5196 0 1
11.6369 0 1
11.7542 0 1
11.8715 0 1
11.9888 0 1
12.1062 0 1
12.2235 0 1
12.3409 0 1
12.4582 0 1
12.5756 0 1
12.693 0 1
12.8104 0 1
12.9278 0 1
13.0452 0 1
13.1626 0 1
13.28 0 1
13.3974 0 1
13.5149 0 1
13.6323 0 1
13.7497 0 1
13.8671 0 1
13.9845 0 1
14.1019 0 1
14.2193 0 1
14.3367 0 1
14.4541 0 1
14.5714 0 1
14.6888 0 1
14.8062 0 1
14.9235 0 1
15.0408 468 21.6333
15.1581 478 21.8632
15.2755 555 23.5584
15.3927 526 22.9347
15.51 564 23.7487
15.6273 536 23.1517
15.7445 532 23.0651
15.8617 516 22.7156
15.9789 553 23.516
16.0961 508 22.5389
16.2132 480 21.9089
16.3304 550 23.4521
16.4475 551 23.4734
16.5646 586 24.2074
16.6816 567 23.8118
16.7986 598 24.454
16.9156 544 23.3238
17.0326 551 23.4734
17.1496 565 23.7697
17.2665 547 23.388
17.3833 520 22.8035
17.5002 583 24.1454
17.617 560 23.6643
17.7338 552 23.4947
17.8505 496 22.2711
17.9672 505 22.4722
18.0839 505 22.4722
18.2005 481 21.9317
18.3171 514 22.6716
18.4337 493 22.2036
18.5502 564 23.7487
18.6666 539 23.2164
18.7831 570 23.8747
18.8994 533 23.0868
19.0158 511 22.6053
19.1321 504 22.4499
19.2483 531 23.0434
19.3645 499 22.3383
19.4806 468 21.6333
19.5967 441 21
19.7128 397 19.9249
19.8288 435 20.8567
19.9447 358 18.9209
20.0606 0 1
20.1764 0 1
20.2922 0 1
20.4079 0 1
20.5236 0 1
20.6392 0 1
20.7548 0 1
20.8702 0 1
23.3078 0 1
23.4233 0 1
23.539 0 1
23.6547 0 1
23.7704 0 1
23.8862 0 1
24.0021 0 1
24.118 0 1
24.234 0 1
24.35 0 1
24.4661 178 13.3417
24.5822 192 13.8564
24.6984 253 15.906
24.8146 268 16.3707
24.9309 366 19.1311
25.0472 404 20.0998
25.1636 452 21.2603
25.28 514 22.6716
25.3965 544 23.3238
25.513 580 24.0832
25.6296 624 24.98
25.7462 592 24.3311
25.8628 595 24.3926
25.9795 565 23.7697
26.0962 588 24.2487
26.213 601 24.5153
26.3298 591 24.3105
26.4466 577 24.0208
26.5635 538 23.1948
26.6804 504 22.4499
26.7973 582 24.1247
26.9143 523 22.8692
27.0313 553 23.516
27.1483 541 23.2594
27.2653 503 22.4277
27.3824 586 24.2074
27.4996 603 24.5561
27.6167 573 23.9374
27.7339 565 23.7697
27.8511 529 23
27.9683 490 22.1359
28.0855 483 21.9773
28.2028 532 23.0651
28.3201 554 23.5372
28.4374 583 24.1454
28.5547 564 23.7487
28.6721 581 24.1039
28.7894 657 25.632
28.9068 580 24.0832
29.0242 560 23.6643
29.1416 617 24.8395
29.259 609 24.6779
29.3764 570 23.8747
29.4939 537 23.1733
29.6113 622 24.9399
29.7288 594 24.3721
29.8463 583 24.1454
29.9638 566 23.7908
30.0812 552 23.4947
30.1987 581 24.1039
30.3162 484 22
30.4337 557 23.6008
30.5512 516 22.7156
30.6687 520 22.8035
30.7862 534 23.1084
30.9037 520 22.8035
31.0212 496 22.2711
31.1387 579 24.0624
31.2562 530 23.0217
31.3737 534 23.1084
31.4912 505 22.4722
31.6087 509 22.561
31.7262 518 22.7596
31.8436 556 23.5797
31.9611 543 23.3024
32.0785 558 23.622
32.1959 584 24.1661
32.3134 529 23
32.4308 568 23.8328
32.5482 581 24.1039
32.6655 531 23.0434
32.7829 567 23.8118
32.9002 563 23.7276
33.0176 536 23.1517
33.1349 568 23.8328
33.2522 515 22.6936
33.3694 564 23.7487
33.4867 588 24.2487
33.6039 610 24.6982
33.7211 539 23.2164
33.8383 497 22.2935
33.9554 523 22.8692
34.0725 512 22.6274
34.1896 488 22.0907
34.3067 512 22.6274
34.4237 535 23.1301
34.5407 534 23.1084
34.6577 555 23.5584
34.7746 513 22.6495
34.8915 488 22.0907
35.0084 513 22.6495
35.1252 525 22.9129
35.242 495 22.2486
35.3587 471 21.7025
35.4755 500 22.3607
35.5921 523 22.8692
35.7088 482 21.9545
35.8254 515 22.6936
35.9419 545 23.3452
36.0584 572 23.9165
36.1749 567 23.8118
36.2913 611 24.7184
36.4077 560 23.6643
36.524 521 22.8254
36.6403 548 23.4094
36.7565 488 22.0907
36.8727 427 20.664
36.9889 372 19.2873
37.1049 351 18.735
37.221 0 1
37.3369 0 1
37.4529 0 1
37.5687 0 1
37.6845 0 1
37.8003 0 1
37.916 0 1
38.0316 0 1
38.1472 0 1
40.5851 0 1
40.7008 0 1
40.8164 0 1
40.9322 0 1
41.048 0 1
41.1639 0 1
41.2798 0 1
41.3958 0 1
41.5118 0 1
41.6279 0 1
41.744 211 14.5258
41.8602 281 16.7631
41.9765 289 17
42.0928 333 18.2483
42.2091 388 19.6977
42.3255 424 20.5913
42.4419 432 20.7846
42.5584 438 20.9284
42.675 453 21.2838
42.7915 398 19.9499
42.9081 447 21.1424
43.0248 407 20.1742
43.1415 426 20.6398
43.2582 427 20.664
43.375 436 20.8806
43.4918 485 22.0227
43.6087 467 21.6102
43.7256 433 20.8087
43.8425 434 20.8327
43.9595 401 20.025
44.0765 409 20.2237
44.1935 391 19.7737
44.3106 422 20.5426
44.4277 413 20.3224
44.5448 434 20.8327
44.6619 449 21.1896
44.7791 522 22.8473
44.8963 449 21.1896
45.0136 455 21.3307
45.1308 474 21.7715
45.2481 507 22.5167
45.3654 465 21.5639
45.4827 423 20.567
45.6001 485 22.0227
45.7174 499 22.3383
45.8348 471 21.7025
45.9522 469 21.6564
46.0697 438 20.9284
46.1871 423 20.567
46.3046 429 20.7123
46.422 445 21.095
46.5395 419 20.4695
46.657 415 20.3715
46.7745 408 20.199
46.892 439 20.9523
47.0096 440 20.9762
47.1271 507 22.5167
47.2446 459 21.4243
47.3622 466 21.587
47.4797 447 21.1424
47.5973 410 20.2485
47.7149 401 20.025
47.8324 379 19.4679
47.95 465 21.5639
48.0675 465 21.5639
48.1851 458 21.4009
48.3027 458 21.4009
48.4202 475 21.7945
48.5378 460 21.4476
48.6554 499 22.3383
48.7729 517 22.7376
48.8904 502 22.4054
49.008 468 21.6333
49.1255 472 21.7256
49.243 483 21.9773
49.3605 466 21.587
49.478 479 21.8861
49.5955 483 21.9773
49.713 465 21.5639
49.8304 480 21.9089
49.9479 440 20.9762
50.0653 426 20.6398
50.1827 406 20.1494
50.3001 455 21.3307
50.4175 434 20.8327
50.5348 408 20.199
50.6521 426 20.6398
50.7694 444 21.0713
50.8867 403 20.0749
51.004 443 21.0476
51.1212 428 20.6882
51.2384 451 21.2368
51.3556 452 21.2603
51.4727 460 21.4476
51.5899 473 21.7486
51.707 470 21.6795
51.824 473 21.7486
51.9411 465 21.5639
52.0581 496 22.2711
52.175 490 22.1359
52.2919 500 22.3607
52.4088 477 21.8403
52.5257 457 21.3776
52.6425 479 21.8861
52.7593 466 21.587
52.876 465 21.5639
52.9927 510 22.5832
53.1094 455 21.3307
53.226 487 22.0681
53.3426 437 20.9045
53.4591 457 21.3776
53.5756 474 21.7715
53.692 389 19.7231
53.8084 384 19.5959
53.9248 360 18.9737
54.0411 301 17.3494
54.1573 232 15.2315
54.2735 0 1
54.3896 0 1
54.5057 0 1
54.6217 0 1
54.7377 0 1
54.8537 0 1
54.9695 0 1
55.0853 0 1
55.2011 0 1
55.3168 0 1
55.4324 0 1
57.824 0 1
57.9396 0 1
58.0553 0 1
58.1711 0 1
58.2869 0 1
58.4028 0 1
58.5187 0 1
58.6347 0 1
58.7508 0 1
58.8669 0 1
58.983 254 15.9374
59.0992 299 17.2916
59.2155 397 19.9249
59.3318 446 21.1187
59.4482 475 21.7945
59.5646 479 21.8861
59.681 499 22.3383
59.7975 557 23.6008
59.9141 540 23.2379
60.0306 579 24.0624
60.1473 585 24.1868
60.2639 615 24.7992
60.3807 611 24.7184
60.4974 611 24.7184
60.6142 588 24.2487
60.731 663 25.7488
60.8479 585 24.1868
60.9648 671 25.9037
61.0818 608 24.6577
61.1987 573 23.9374
61.3158 613 24.7588
61.4328 586 24.2074
61.5499 619 24.8797
61.667 597 24.4336
61.7841 632 25.1396
61.9013 605 24.5967
62.0185 581 24.1039
62.1357 592 24.3311
62.253 632 25.1396
62.3702 569 23.8537
62.4875 572 23.9165
62.6049 530 23.0217
62.7222 604 24.5764
62.8396 568 23.8328
62.9569 599 24.4745
63.0743 605 24.5967
63.1918 591 24.3105
63.3092 581 24.1039
63.4267 537 23.1733
63.5441 590 24.2899
63.6616 641 25.318
63.7791 598 24.454
63.8966 581 24.1039
64.0142 549 23.4307
64.1317 651 25.5147
64.2492 605 24.5967
64.3668 607 24.6374
64.4843 560 23.6643
64.6019 577 24.0208
64.7195 597 24.4336
64.837 572 23.9165
64.9546 588 24.2487
65.0722 563 23.7276
65.1898 563 23.7276
65.3074 564 23.7487
65.4249 606 24.6171
65.5425 595 24.3926
65.6601 594 24.3721
65.7777 587 24.2281
65.8952 573 23.9374
66.0128 550 23.4521
66.1304 575 23.9792
66.2479 546 23.3666
66.3655 543 23.3024
66.483 545 23.3452
66.6005 568 23.8328
66.718 537 23.1733
66.8355 546 23.3666
66.953 541 23.2594
67.0705 571 23.8956
67.1879 508 22.5389
67.3054 600 24.4949
67.4228 596 24.4131
67.5402 598 24.454
67.6576 578 24.0416
67.7749 578 24.0416
67.8923 564 23.7487
68.0096 565 23.7697
68.1269 588 24.2487
68.2442 584 24.1661
68.3614 641 25.318
68.4787 576 24
68.5958 593 24.3516
68.713 565 23.7697
68.8302 548 23.4094
68.9473 588 24.2487
69.0643 574 23.9583
69.1814 566 23.7908
69.2984 587 24.2281
69.4154 527 22.9565
69.5323 561 23.6854
69.6492 554 23.5372
69.7661 536 23.1517
69.8829 562 23.7065
69.9997 535 23.1301
70.1165 535 23.1301
70.2332 547 23.388
70.3499 544 23.3238
70.4665 521 22.8254
70.5831 503 22.4277
70.6996 423 20.567
70.8161 392 19.799
70.9326 343 18.5203
71.049 314 17.72
71.1653 280 16.7332
71.2817 235 15.3297
71.3979 234 15.2971
71.5141 230 15.1658
71.6303 222 14.8997
71.7464 190 13.784
71.8624 0 1
71.9784 0 1
72.0944 0 1
72.2102 0 1
72.3261 0 1
72.4418 0 1
72.5575 0 1
72.6732 0 1
75.1054 0 1
75.2209 0 1
75.3365 0 1
75.4521 0 1
75.5678 0 1
75.6835 0 1
75.7993 0 1
75.9151 0 1
76.031 0 1
76.147 308 17.5499
76.263 368 19.1833
76.3791 409 20.2237
76.4952 468 21.6333
76.6113 476 21.8174
76.7276 475 21.7945
76.8438 476 21.8174
76.9601 513 22.6495
77.0765 477 21.8403
77.1929 515 22.6936
77.3093 512 22.6274
77.4258 487 22.0681
77.5423 494 22.2261
77.6589 481 21.9317
77.7755 505 22.4722
77.8921 498 22.3159
78.0088 481 21.9317
78.1256 469 21.6564
78.2423 523 22.8692
78.3591 539 23.2164
78.4759 500 22.3607
78.5928 484 22
78.7097 533 23.0868
78.8266 502 22.4054
78.9436 447 21.1424
79.0606 471 21.7025
79.1776 465 21.5639
79.2946 464 21.5407
79.4117 497 22.2935
79.5288 507 22.5167
79.6459 523 22.8692
79.7631 514 22.6716
79.8802 535 23.1301
79.9974 564 23.7487
80.1147 541 23.2594
80.2319 557 23.6008
80.3491 546 23.3666
80.4664 505 22.4722
80.5837 500 22.3607
80.701 576 24
80.8183 509 22.561
80.9357 569 23.8537
81.053 567 23.8118
81.1704 575 23.9792
81.2877 586 24.2074
81.4051 533 23.0868
81.5225 522 22.8473
81.6399 514 22.6716
81.7573 538 23.1948
81.8747 495 22.2486
81.9922 496 22.2711
82.1096 533 23.0868
82.227 595 24.3926
82.3444 502 22.4054
82.4619 535 23.1301
82.5793 582 24.1247
82.6967 479 21.8861
82.8142 495 22.2486
82.9316 503 22.4277
83.049 509 22.561
83.1664 507 22.5167
83.2838 462 21.4942
83.4012 521 22.8254
83.5186 514 22.6716
83.636 490 22.1359
83.7534 526 22.9347
83.8708 505 22.4722
83.9881 486 22.0454
84.1055 502 22.4054
84.2228 413 20.3224
84.3401 478 21.8632
84.4575 431 20.7605
84.5747 455 21.3307
84.692 493 22.2036
84.8093 515 22.6936
84.9265 449 21.1896
85.0437 487 22.0681
85.1609 418 20.445
85.2781 429 20.7123
85.3952 418 20.445
85.5123 418 20.445
85.6294 401 20.025
85.7465 475 21.7945
85.8636 461 21.4709
85.9806 413 20.3224
86.0976 371 19.2614
86.2145 399 19.975
86.3315 323 17.9722
86.4484 384 19.5959
86.5652 379 19.4679
86.682 313 17.6918
86.7988 372 19.2873
86.9156 379 19.4679
87.0323 391 19.7737
87.149 375 19.3649
87.2657 335 18.303
87.3823 346 18.6011
87.4988 369 19.2094
87.6154 313 17.6918
87.7318 339 18.412
87.8483 284 16.8523
87.9647 241 15.5242
88.081 234 15.2971
88.1973 189 13.7477
88.3136 183 13.5277
88.4298 174 13.1909
88.546 129 11.3578
88.6621 134 11.5758
88.7781 127 11.2694
88.8942 0 1
89.0101 0 1
89.126 0 1
89.2419 0 1
89.3577 0 1
89.4734 0 1
89.5891 0 1
89.7047 0 1
89.8203 0 1
89.9358 0 1
92.3269 0 1
92.4424 0 1
92.558 0 1
92.6736 0 1
92.7893 0 1
92.905 0 1
93.0208 0 1
93.1366 0 1
93.2525 0 1
93.3685 0 1
93.4845 0 1
93.6005 201 14.1774
93.7167 266 16.3095
93.8328 287 16.9411
93.949 332 18.2209
94.0653 360 18.9737
94.1816 359 18.9473
94.2979 364 19.0788
94.4143 353 18.7883
94.5307 344 18.5472
94.6472 373 19.3132
94.7637 342 18.4932
94.8803 399 19.975
94.9969 369 19.2094
95.1135 409 20.2237
95.2302 410 20.2485
95.3469 404 20.0998
95.4637 368 19.1833
95.5805 373 19.3132
95.6973 363 19.0526
95.8142 386 19.6469
95.9311 368 19.1833
96.048 358 18.9209
96.1649 384 19.5959
96.2819 408 20.199
96.3989 426 20.6398
96.516 411 20.2731
96.633 445 21.095
96.7501 405 20.1246
96.8673 406 20.1494
96.9844 472 21.7256
97.1016 439 20.9523
97.2188 437 20.9045
97.336 447 21.1424
97.4532 434 20.8327
97.5704 433 20.8087
97.6877 479 21.8861
97.805 425 20.6155
97.9223 477 21.8403
98.0396 455 21.3307
98.1569 466 21.587
98.2743 465 21.5639
98.3916 464 21.5407
98.509 512 22.6274
98.6264 495 22.2486
98.7438 488 22.0907
98.8612 422 20.5426
98.9786 441 21
99.096 430 20.7364
99.2134 469 21.6564
99.3308 471 21.7025
99.4482 509 22.561
99.5656 464 21.5407
99.6831 501 22.383
99.8005 506 22.4944
99.9179 532 23.0651
100.035 513 22.6495
100.153 571 23.8956
100.27 537 23.1733
100.388 516 22.7156
100.505 490 22.1359
100.622 492 22.1811
100.74 501 22.383
100.857 505 22.4722
100.975 481 21.9317
101.092 512 22.6274
101.209 552 23.4947
101.327 529 23
101.444 498 22.3159
101.561 523 22.8692
101.679 526 22.9347
101.796 485 22.0227
101.913 516 22.7156
102.03 513 22.6495
102.148 534 23.1084
102.265 495 22.2486
102.382 572 23.9165
102.499 533 23.0868
102.616 517 22.7376
102.733 508 22.5389
102.851 516 22.7156
102.968 546 23.3666
103.085 535 23.1301
103.202 510 22.5832
103.319 541 23.2594
103.436 603 24.5561
103.552 586 24.2074
103.669 549 23.4307
103.786 578 24.0416
103.903 542 23.2809
104.02 551 23.4734
104.137 565 23.7697
104.253 528 22.9783
104.37 557 23.6008
104.487 556 23.5797
104.603 524 22.891
104.72 570 23.8747
104.836 579 24.0624
104.953 552 23.4947
105.069 554 23.5372
105.186 576 24
105.302 498 22.3159
105.418 471 21.7025
105.535 450 21.2132
105.651 368 19.1833
105.767 298 17.2627
105.883 303 17.4069
105.999 257 16.0312
106.115 0 1
106.231 0 1
106.347 0 1
106.463 0 1
106.579 0 1
106.694 0 1
106.81 0 1
106.926 0 1
107.041 0 1
107.157 0 1
109.576 0 1
109.692 0 1
109.807 0 1
109.923 0 1
110.039 0 1
110.155 0 1
110.27 0 1
110.386 0 1
110.502 0 1
110.618 290 17.0294
110.735 363 19.0526
110.851 422 20.5426
110.967 420 20.4939
111.083 411 20.2731
111.199 423 20.567
111.316 461 21.4709
111.432 486 22.0454
111.549 513 22.6495
111.665 488 22.0907
111.782 515 22.6936
111.898 465 21.5639
112.015 470 21.6795
112.132 513 22.6495
112.248 536 23.1517
112.365 507 22.5167
112.482 487 22.0681
112.599 526 22.9347
112.716 460 21.4476
112.832 485 22.0227
112.949 531 23.0434
113.066 491 22.1585
113.183 499 22.3383
113.3 490 22.1359
113.417 521 22.8254
113.534 466 21.587
113.652 540 23.2379
113.769 491 22.1585
113.886 515 22.6936
114.003 497 22.2935
114.12 460 21.4476
114.238 515 22.6936
114.355 482 21.9545
114.472 445 21.095
114.589 494 22.2261
114.707 459 21.4243
114.824 515 22.6936
114.942 470 21.6795
115.059 494 22.2261
115.176 513 22.6495
115.294 515 22.6936
115.411 492 22.1811
115.529 491 22.1585
115.646 492 22.1811
115.764 481 21.9317
115.881 553 23.516
115.999 468 21.6333
116.116 507 22.5167
116.234 505 22.4722
116.351 522 22.8473
116.469 506 22.4944
116.586 490 22.1359
116.704 472 21.7256
116.821 500 22.3607
116.939 495 22.2486
117.056 489 22.1133
117.174 498 22.3159
117.291 462 21.4942
117.409 487 22.0681
117.526 507 22.5167
117.644 488 22.0907
117.761 491 22.1585
117.879 490 22.1359
117.996 448 21.166
118.114 473 21.7486
118.231 480 21.9089
118.349 471 21.7025
118.466 463 21.5174
118.584 529 23
118.701 452 21.2603
118.819 497 22.2935
118.936 460 21.4476
119.053 452 21.2603
119.171 435 20.8567
119.288 477 21.8403
119.405 449 21.1896
119.523 448 21.166
119.64 488 22.0907
119.757 459 21.4243
119.875 481 21.9317
119.992 468 21.6333
120.109 484 22
120.226 505 22.4722
120.343 462 21.4942
120.46 480 21.9089
120.578 458 21.4009
120.695 465 21.5639
120.812 474 21.7715
120.929 451 21.2368
121.046 472 21.7256
121.163 447 21.1424
121.279 469 21.6564
121.396 439 20.9523
121.513 463 21.5174
121.63 481 21.9317
121.747 453 21.2838
121.863 441 21
121.98 415 20.3715
122.097 416 20.3961
122.213 363 19.0526
122.33 355 18.8414
122.446 353 18.7883
122.563 333 18.2483
122.679 265 16.2788
122.795 233 15.2643
122.912 255 15.9687
123.028 274 16.5529
123.144 232 15.2315
123.26 249 15.7797
123.377 0 1
123.493 0 1
123.609 0 1
123.725 0 1
123.84 0 1
123.956 0 1
124.072 0 1
124.188 0 1
124.303 0 1
124.419 0 1
126.852 0 1
126.968 0 1
127.083 0 1
127.199 0 1
127.315 0 1
127.431 0 1
127.547 0 1
127.663 0 1
127.779 0 1
127.895 0 1
128.011 0 1
128.127 0 1
128.243 0 1
128.359 484 22
128.476 485 22.0227
128.592 528 22.9783
128.708 495 22.2486
128.825 496 22.2711
128.941 529 23
129.058 545 23.3452
129.174 551 23.4734
129.291 529 23
129.408 560 23.6643
129.524 524 22.891
129.641 549 23.4307
129.758 522 22.8473
129.875 529 23
129.992 571 23.8956
130.108 546 23.3666
130.225 521 22.8254
130.342 504 22.4499
130.459 541 23.2594
130.576 535 23.1301
130.693 508 22.5389
130.81 530 23.0217
130.928 497 22.2935
131.045 488 22.0907
131.162 458 21.4009
131.279 554 23.5372
131.396 527 22.9565
131.513 539 23.2164
131.631 500 22.3607
131.748 522 22.8473
131.865 504 22.4499
131.983 490 22.1359
132.1 498 22.3159
132.217 532 23.0651
132.335 476 21.8174
132.452 534 23.1084
132.57 509 22.561
132.687 529 23
132.804 525 22.9129
132.922 544 23.3238
133.039 488 22.0907
133.157 542 23.2809
133.274 537 23.1733
133.392 559 23.6432
133.509 536 23.1517
133.627 557 23.6008
133.744 564 23.7487
133.862 535 23.1301
133.979 504 22.4499
134.097 477 21.8403
134.214 514 22.6716
134.332 462 21.4942
134.449 487 22.0681
134.567 480 21.9089
134.684 493 22.2036
134.802 503 22.4277
134.919 521 22.8254
135.037 507 22.5167
135.154 487 22.0681
135.272 483 21.9773
135.389 456 21.3542
135.507 499 22.3383
135.624 520 22.8035
135.742 535 23.1301
135.859 516 22.7156
135.977 508 22.5389
136.094 532 23.0651
136.211 558 23.622
136.329 555 23.5584
136.446 566 23.7908
136.564 525 22.9129
136.681 486 22.0454
136.798 526 22.9347
136.915 582 24.1247
137.033 566 23.7908
137.15 549 23.4307
137.267 522 22.8473
137.384 483 21.9773
137.502 500 22.3607
137.619 494 22.2261
137.736 486 22.0454
137.853 476 21.8174
137.97 504 22.4499
138.087 495 22.2486
138.204 481 21.9317
138.321 497 22.2935
138.438 524 22.891
138.555 526 22.9347
138.672 507 22.5167
138.788 517 22.7376
138.905 489 22.1133
139.022 447 21.1424
139.139 432 20.7846
139.255 435 20.8567
139.372 417 20.4206
139.488 420 20.4939
139.605 375 19.3649
139.721 372 19.2873
139.838 311 17.6352
139.954 272 16.4924
140.071 327 18.0831
140.187 259 16.0935
140.303 238 15.4272
140.419 264 16.2481
140.535 263 16.2173
140.652 206 14.3527
140.768 0 1
140.884 0 1
141 0 1
141.115 0 1
141.231 0 1
141.347 0 1
141.463 0 1
141.578 0 1
141.694 0 1
144.104 0 1
144.219 0 1
144.335 0 1
144.45 0 1
144.566 0 1
144.682 0 1
144.798 0 1
144.914 0 1
145.03 0 1
145.146 367 19.1572
145.262 416 20.3961
145.378 409 20.2237
145.494 394 19.8494
145.61 426 20.6398
145.726 364 19.0788
145.842 432 20.7846
145.959 422 20.5426
146.075 412 20.2978
146.192 398 19.9499
146.308 383 19.5704
146.425 397 19.9249
146.541 401 20.025
146.658 345 18.5742
146.774 375 19.3649
146.891 358 18.9209
147.008 345 18.5742
147.125 406 20.1494
147.241 367 19.1572
147.358 401 20.025
147.475 372 19.2873
147.592 344 18.5472
147.709 399 19.975
147.826 374 19.3391
147.943 358 18.9209
148.06 362 19.0263
148.177 385 19.6214
148.294 369 19.2094
148.411 413 20.3224
148.528 418 20.445
148.645 429 20.7123
148.762 437 20.9045
148.88 357 18.8944
148.997 395 19.8746
149.114 428 20.6882
149.231 417 20.4206
149.349 416 20.3961
149.466 444 21.0713
149.583 403 20.0749
149.701 400 20
149.818 401 20.025
149.935 378 19.4422
150.053 401 20.025
150.17 362 19.0263
150.287 386 19.6469
150.405 393 19.8242
150.522 353 18.7883
150.64 386 19.6469
150.757 408 20.199
150.875 380 19.4936
150.992 387 19.6723
151.11 401 20.025
151.227 368 19.1833
151.344 371 19.2614
151.462 392 19.799
151.579 351 18.735
151.697 340 18.4391
151.814 343 18.5203
151.932 377 19.4165
152.049 398 19.9499
152.167 401 20.025
152.284 382 19.5448
152.402 397 19.9249
152.519 331 18.1934
152.636 380 19.4936
152.754 415 20.3715
152.871 384 19.5959
152.989 366 19.1311
153.106 400 20
153.223 390 19.7484
153.341 385 19.6214
153.458 378 19.4422
153.575 377 19.4165
153.693 332 18.2209
153.81 344 18.5472
153.927 355 18.8414
154.044 320 17.8885
154.162 345 18.5742
154.279 362 19.0263
154.396 371 19.2614
154.513 388 19.6977
154.63 388 19.6977
154.747 364 19.0788
154.864 395 19.8746
154.981 368 19.1833
155.098 331 18.1934
155.215 361 19
155.332 324 18
155.449 344 18.5472
155.566 373 19.3132
155.683 356 18.868
155.8 353 18.7883
155.917 385 19.6214
156.033 370 19.2354
156.15 0 1
156.267 0 1
156.383 0 1
156.5 0 1
156.617 0 1
156.733 0 1
156.85 0 1
156.966 0 1
157.082 0 1
157.199 0 1
157.315 0 1
157.431 0 1
157.547 0 1
157.664 0 1
157.78 0 1
157.896 0 1
158.012 0 1
158.128 0 1
158.244 0 1
158.359 0 1
158.475 0 1
158.591 0 1
158.706 0 1
