
6.15755 0 1
6.2731 0 1
6.3887 0 1
6.50437 0 1
6.62009 0 1
6.73587 0 1
6.8517 0 1
6.96759 0 1
7.08353 0 1
7.19952 0 1
7.31557 0 1
7.43166 0 1
7.54781 0 1
7.664 0 1
7.78024 0 1
7.89653 0 1
8.01286 0 1
8.12924 0 1
8.24567 0 1
8.36213 0 1
8.47864 0 1
8.59519 0 1
8.71178 0 1
8.82841 0 1
8.94508 0 1
9.06179 0 1
9.17853 0 1
9.29531 0 1
9.41212 0 1
9.52897 0 1
9.64584 0 1
9.76276 0 1
9.8797 0 1
9.99667 0 1
10.1137 0 1
10.2307 0 1
10.3478 0 1
10.4648 0 1
10.5819 0 1
10.6991 0 1
10.8162 0 1
10.9334 0 1
11.0506 0 1
11.1678 0 1
11.285 0 1
11.4023 0 1
11.5196 0 1
11.6369 0 1
11.7542 0 1
11.8715 0 1
11.9888 0 1
12.1062 0 1
12.2235 0 1
12.3409 0 1
12.4582 0 1
12.5756 0 1
12.693 0 1
12.8104 0 1
12.9278 0 1
13.0452 0 1
13.1626 0 1
13.28 0 1
13.3974 0 1
13.5149 0 1
13.6323 0 1
13.7497 0 1
13.8671 0 1
13.9845 0 1
14.1019 0 1
14.2193 0 1
14.3367 0 1
14.4541 0 1
14.5714 0 1
14.6888 0 1
14.8062 0 1
14.9235 0 1
15.0408 466 21.587
15.1581 490 22.1359
15.2755 479 21.8861
15.3927 510 22.5832
15.51 517 22.7376
15.6273 524 22.891
15.7445 493 22.2036
15.8617 543 23.3024
15.9789 481 21.9317
16.0961 523 22.8692
16.2132 484 22
16.3304 460 21.4476
16.4475 494 22.2261
16.5646 570 23.8747
16.6816 550 23.4521
16.7986 530 23.0217
16.9156 581 24.1039
17.0326 551 23.4734
17.1496 563 23.7276
17.2665 526 22.9347
17.3833 555 23.5584
17.5002 530 23.0217
17.617 496 22.2711
17.7338 494 22.2261
17.8505 444 21.0713
17.9672 466 21.587
18.0839 435 20.8567
18.2005 464 21.5407
18.3171 539 23.2164
18.4337 498 22.3159
18.5502 516 22.7156
18.6666 514 22.6716
18.7831 541 23.2594
18.8994 508 22.5389
19.0158 561 23.6854
19.1321 465 21.5639
19.2483 436 20.8806
19.3645 438 20.9284
19.4806 415 20.3715
19.5967 397 19.9249
19.7128 372 19.2873
19.8288 301 17.3494
19.9447 295 17.1756
20.0606 0 1
20.1764 0 1
20.2922 0 1
20.4079 0 1
20.5236 0 1
20.6392 0 1
20.7548 0 1
20.8702 0 1
23.3078 0 1
23.4233 0 1
23.539 0 1
23.6547 0 1
23.7704 0 1
23.8862 0 1
24.0021 0 1
24.118 0 1
24.234 0 1
24.35 0 1
24.4661 203 14.2478
24.5822 228 15.0997
24.6984 269 16.4012
24.8146 260 16.1245
24.9309 302 17.3781
25.0472 325 18.0278
25.1636 352 18.7617
25.28 362 19.0263
25.3965 426 20.6398
25.513 442 21.0238
25.6296 457 21.3776
25.7462 496 22.2711
25.8628 511 22.6053
25.9795 454 21.3073
26.0962 510 22.5832
26.213 489 22.1133
26.3298 418 20.445
26.4466 419 20.4695
26.5635 410 20.2485
26.6804 418 20.445
26.7973 436 20.8806
26.9143 459 21.4243
27.0313 478 21.8632
27.1483 435 20.8567
27.2653 416 20.3961
27.3824 419 20.4695
27.4996 471 21.7025
27.6167 447 21.1424
27.7339 444 21.0713
27.8511 436 20.8806
27.9683 401 20.025
28.0855 375 19.3649
28.2028 381 19.5192
28.3201 354 18.8149
28.4374 375 19.3649
28.5547 363 19.0526
28.6721 384 19.5959
28.7894 428 20.6882
28.9068 385 19.6214
29.0242 390 19.7484
29.1416 445 21.095
29.259 453 21.2838
29.3764 455 21.3307
29.4939 458 21.4009
29.6113 458 21.4009
29.7288 437 20.9045
29.8463 399 19.975
29.9638 393 19.8242
30.0812 352 18.7617
30.1987 387 19.6723
30.3162 401 20.025
30.4337 372 19.2873
30.5512 406 20.1494
30.6687 444 21.0713
30.7862 419 20.4695
30.9037 429 20.7123
31.0212 438 20.9284
31.1387 427 20.664
31.2562 460 21.4476
31.3737 438 20.9284
31.4912 402 20.0499
31.6087 392 19.799
31.7262 385 19.6214
31.8436 374 19.3391
31.9611 356 18.868
32.0785 350 18.7083
32.1959 375 19.3649
32.3134 365 19.105
32.4308 403 20.0749
32.5482 412 20.2978
32.6655 412 20.2978
32.7829 416 20.3961
32.9002 407 20.1742
33.0176 460 21.4476
33.1349 395 19.8746
33.2522 421 20.5183
33.3694 411 20.2731
33.4867 408 20.199
33.6039 337 18.3576
33.7211 389 19.7231
33.8383 366 19.1311
33.9554 336 18.3303
34.0725 391 19.7737
34.1896 376 19.3907
34.3067 354 18.8149
34.4237 405 20.1246
34.5407 426 20.6398
34.6577 370 19.2354
34.7746 383 19.5704
34.8915 411 20.2731
35.0084 404 20.0998
35.1252 376 19.3907
35.242 368 19.1833
35.3587 394 19.8494
35.4755 340 18.4391
35.5921 324 18
35.7088 293 17.1172
35.8254 312 17.6635
35.9419 312 17.6635
36.0584 340 18.4391
36.1749 325 18.0278
36.2913 360 18.9737
36.4077 374 19.3391
36.524 356 18.868
36.6403 354 18.8149
36.7565 337 18.3576
36.8727 313 17.6918
36.9889 309 17.5784
37.1049 267 16.3401
37.221 0 1
37.3369 0 1
37.4529 0 1
37.5687 0 1
37.6845 0 1
37.8003 0 1
37.916 0 1
38.0316 0 1
38.1472 0 1
40.5851 0 1
40.7008 0 1
40.8164 0 1
40.9322 0 1
41.048 0 1
41.1639 0 1
41.2798 0 1
41.3958 0 1
41.5118 0 1
41.6279 0 1
41.744 168 12.9615
41.8602 192 13.8564
41.9765 230 15.1658
42.0928 249 15.7797
42.2091 227 15.0665
42.3255 238 15.4272
42.4419 236 15.3623
42.5584 236 15.3623
42.675 233 15.2643
42.7915 286 16.9115
42.9081 305 17.4642
43.0248 319 17.8606
43.1415 295 17.1756
43.2582 331 18.1934
43.375 292 17.088
43.4918 323 17.9722
43.6087 327 18.0831
43.7256 307 17.5214
43.8425 302 17.3781
43.9595 340 18.4391
44.0765 313 17.6918
44.1935 269 16.4012
44.3106 296 17.2047
44.4277 283 16.8226
44.5448 251 15.843
44.6619 249 15.7797
44.7791 249 15.7797
44.8963 304 17.4356
45.0136 273 16.5227
45.1308 280 16.7332
45.2481 335 18.303
45.3654 347 18.6279
45.4827 311 17.6352
45.6001 337 18.3576
45.7174 325 18.0278
45.8348 290 17.0294
45.9522 298 17.2627
46.0697 281 16.7631
46.1871 259 16.0935
46.3046 281 16.7631
46.422 283 16.8226
46.5395 304 17.4356
46.657 317 17.8045
46.7745 318 17.8326
46.892 318 17.8326
47.0096 328 18.1108
47.1271 360 18.9737
47.2446 365 19.105
47.3622 325 18.0278
47.4797 342 18.4932
47.5973 294 17.1464
47.7149 307 17.5214
47.8324 291 17.0587
47.95 296 17.2047
48.0675 295 17.1756
48.1851 276 16.6132
48.3027 251 15.843
48.4202 280 16.7332
48.5378 271 16.4621
48.6554 311 17.6352
48.7729 283 16.8226
48.8904 371 19.2614
49.008 362 19.0263
49.1255 337 18.3576
49.243 353 18.7883
49.3605 294 17.1464
49.478 271 16.4621
49.5955 266 16.3095
49.713 295 17.1756
49.8304 267 16.3401
49.9479 292 17.088
50.0653 299 17.2916
50.1827 304 17.4356
50.3001 329 18.1384
50.4175 320 17.8885
50.5348 328 18.1108
50.6521 349 18.6815
50.7694 316 17.7764
50.8867 346 18.6011
51.004 333 18.2483
51.1212 301 17.3494
51.2384 305 17.4642
51.3556 338 18.3848
51.4727 266 16.3095
51.5899 276 16.6132
51.707 277 16.6433
51.824 264 16.2481
51.9411 284 16.8523
52.0581 314 17.72
52.175 331 18.1934
52.2919 342 18.4932
52.4088 330 18.1659
52.5257 371 19.2614
52.6425 301 17.3494
52.7593 364 19.0788
52.876 310 17.6068
52.9927 301 17.3494
53.1094 297 17.2337
53.226 260 16.1245
53.3426 257 16.0312
53.4591 259 16.0935
53.5756 243 15.5885
53.692 276 16.6132
53.8084 261 16.1555
53.9248 248 15.748
54.0411 207 14.3875
54.1573 241 15.5242
54.2735 0 1
54.3896 0 1
54.5057 0 1
54.6217 0 1
54.7377 0 1
54.8537 0 1
54.9695 0 1
55.0853 0 1
55.2011 0 1
55.3168 0 1
55.4324 0 1
57.824 0 1
57.9396 0 1
58.0553 0 1
58.1711 0 1
58.2869 0 1
58.4028 0 1
58.5187 0 1
58.6347 0 1
58.7508 0 1
58.8669 0 1
58.983 227 15.0665
59.0992 256 16
59.2155 276 16.6132
59.3318 313 17.6918
59.4482 343 18.5203
59.5646 402 20.0499
59.681 393 19.8242
59.7975 421 20.5183
59.9141 424 20.5913
60.0306 399 19.975
60.1473 365 19.105
60.2639 350 18.7083
60.3807 326 18.0555
60.4974 363 19.0526
60.6142 348 18.6548
60.731 369 19.2094
60.8479 379 19.4679
60.9648 391 19.7737
61.0818 375 19.3649
61.1987 416 20.3961
61.3158 432 20.7846
61.4328 373 19.3132
61.5499 424 20.5913
61.667 371 19.2614
61.7841 320 17.8885
61.9013 320 17.8885
62.0185 316 17.7764
62.1357 341 18.4662
62.253 378 19.4422
62.3702 402 20.0499
62.4875 377 19.4165
62.6049 426 20.6398
62.7222 417 20.4206
62.8396 418 20.445
62.9569 437 20.9045
63.0743 417 20.4206
63.1918 456 21.3542
63.3092 402 20.0499
63.4267 400 20
63.5441 361 19
63.6616 416 20.3961
63.7791 332 18.2209
63.8966 364 19.0788
64.0142 336 18.3303
64.1317 299 17.2916
64.2492 323 17.9722
64.3668 340 18.4391
64.4843 425 20.6155
64.6019 437 20.9045
64.7195 395 19.8746
64.837 399 19.975
64.9546 422 20.5426
65.0722 436 20.8806
65.1898 388 19.6977
65.3074 386 19.6469
65.4249 363 19.0526
65.5425 296 17.2047
65.6601 352 18.7617
65.7777 344 18.5472
65.8952 396 19.8997
66.0128 392 19.799
66.1304 404 20.0998
66.2479 384 19.5959
66.3655 416 20.3961
66.483 407 20.1742
66.6005 444 21.0713
66.718 450 21.2132
66.8355 421 20.5183
66.953 423 20.567
67.0705 417 20.4206
67.1879 419 20.4695
67.3054 386 19.6469
67.4228 355 18.8414
67.5402 315 17.7482
67.6576 336 18.3303
67.7749 312 17.6635
67.8923 331 18.1934
68.0096 368 19.1833
68.1269 408 20.199
68.2442 520 22.8035
68.3614 517 22.7376
68.4787 520 22.8035
68.5958 575 23.9792
68.713 538 23.1948
68.8302 530 23.0217
68.9473 516 22.7156
69.0643 508 22.5389
69.1814 537 23.1733
69.2984 512 22.6274
69.4154 576 24
69.5323 612 24.7386
69.6492 617 24.8395
69.7661 634 25.1794
69.8829 658 25.6515
69.9997 626 25.02
70.1165 690 26.2679
70.2332 708 26.6083
70.3499 685 26.1725
70.4665 644 25.3772
70.5831 607 24.6374
70.6996 597 24.4336
70.8161 563 23.7276
70.9326 533 23.0868
71.049 468 21.6333
71.1653 362 19.0263
71.2817 267 16.3401
71.3979 232 15.2315
71.5141 210 14.4914
71.6303 203 14.2478
71.7464 173 13.1529
71.8624 0 1
71.9784 0 1
72.0944 0 1
72.2102 0 1
72.3261 0 1
72.4418 0 1
72.5575 0 1
72.6732 0 1
75.1054 0 1
75.2209 0 1
75.3365 0 1
75.4521 0 1
75.5678 0 1
75.6835 0 1
75.7993 0 1
75.9151 0 1
76.031 0 1
76.147 338 18.3848
76.263 297 17.2337
76.3791 349 18.6815
76.4952 277 16.6433
76.6113 319 17.8606
76.7276 321 17.9165
76.8438 310 17.6068
76.9601 348 18.6548
77.0765 390 19.7484
77.1929 477 21.8403
77.3093 527 22.9565
77.4258 492 22.1811
77.5423 509 22.561
77.6589 559 23.6432
77.7755 583 24.1454
77.8921 495 22.2486
78.0088 534 23.1084
78.1256 486 22.0454
78.2423 453 21.2838
78.3591 470 21.6795
78.4759 535 23.1301
78.5928 596 24.4131
78.7097 692 26.3059
78.8266 668 25.8457
78.9436 742 27.2397
79.0606 761 27.5862
79.1776 739 27.1846
79.2946 813 28.5132
79.4117 808 28.4253
79.5288 833 28.8617
79.6459 813 28.5132
79.7631 802 28.3196
79.8802 785 28.0179
79.9974 796 28.2135
80.1147 740 27.2029
80.2319 690 26.2679
80.3491 660 25.6905
80.4664 676 26
80.5837 694 26.3439
80.701 749 27.3679
80.8183 848 29.1204
80.9357 899 29.9833
81.053 870 29.4958
81.1704 883 29.7153
81.2877 831 28.8271
81.4051 845 29.0689
81.5225 827 28.7576
81.6399 736 27.1293
81.7573 614 24.779
81.8747 585 24.1868
81.9922 560 23.6643
82.1096 572 23.9165
82.227 554 23.5372
82.3444 682 26.1151
82.4619 716 26.7582
82.5793 717 26.7769
82.6967 689 26.2488
82.8142 687 26.2107
82.9316 671 25.9037
83.049 651 25.5147
83.1664 623 24.96
83.2838 590 24.2899
83.4012 531 23.0434
83.5186 562 23.7065
83.636 499 22.3383
83.7534 467 21.6102
83.8708 429 20.7123
83.9881 377 19.4165
84.1055 364 19.0788
84.2228 340 18.4391
84.3401 345 18.5742
84.4575 347 18.6279
84.5747 379 19.4679
84.692 414 20.347
84.8093 433 20.8087
84.9265 377 19.4165
85.0437 380 19.4936
85.1609 364 19.0788
85.2781 336 18.3303
85.3952 331 18.1934
85.5123 279 16.7033
85.6294 275 16.5831
85.7465 285 16.8819
85.8636 343 18.5203
85.9806 342 18.4932
86.0976 358 18.9209
86.2145 371 19.2614
86.3315 396 19.8997
86.4484 397 19.9249
86.5652 398 19.9499
86.682 376 19.3907
86.7988 406 20.1494
86.9156 376 19.3907
87.0323 392 19.799
87.149 351 18.735
87.2657 363 19.0526
87.3823 307 17.5214
87.4988 276 16.6132
87.6154 234 15.2971
87.7318 235 15.3297
87.8483 251 15.843
87.9647 237 15.3948
88.081 251 15.843
88.1973 265 16.2788
88.3136 272 16.4924
88.4298 262 16.1864
88.546 273 16.5227
88.6621 249 15.7797
88.7781 176 13.2665
88.8942 0 1
89.0101 0 1
89.126 0 1
89.2419 0 1
89.3577 0 1
89.4734 0 1
89.5891 0 1
89.7047 0 1
89.8203 0 1
89.9358 0 1
92.3269 0 1
92.4424 0 1
92.558 0 1
92.6736 0 1
92.7893 0 1
92.905 0 1
93.0208 0 1
93.1366 0 1
93.2525 0 1
93.3685 0 1
93.4845 0 1
93.6005 256 16
93.7167 294 17.1464
93.8328 298 17.2627
93.949 339 18.412
94.0653 360 18.9737
94.1816 302 17.3781
94.2979 356 18.868
94.4143 343 18.5203
94.5307 323 17.9722
94.6472 329 18.1384
94.7637 307 17.5214
94.8803 293 17.1172
94.9969 325 18.0278
95.1135 410 20.2485
95.2302 398 19.9499
95.3469 459 21.4243
95.4637 436 20.8806
95.5805 464 21.5407
95.6973 465 21.5639
95.8142 430 20.7364
95.9311 447 21.1424
96.048 443 21.0476
96.1649 396 19.8997
96.2819 419 20.4695
96.3989 465 21.5639
96.516 390 19.7484
96.633 412 20.2978
96.7501 406 20.1494
96.8673 359 18.9473
96.9844 313 17.6918
97.1016 316 17.7764
97.2188 402 20.0499
97.336 380 19.4936
97.4532 434 20.8327
97.5704 498 22.3159
97.6877 455 21.3307
97.805 439 20.9523
97.9223 455 21.3307
98.0396 440 20.9762
98.1569 351 18.735
98.2743 402 20.0499
98.3916 342 18.4932
98.509 333 18.2483
98.6264 416 20.3961
98.7438 394 19.8494
98.8612 448 21.166
98.9786 495 22.2486
99.096 438 20.9284
99.2134 447 21.1424
99.3308 496 22.2711
99.4482 506 22.4944
99.5656 445 21.095
99.6831 456 21.3542
99.8005 455 21.3307
99.9179 497 22.2935
100.035 438 20.9284
100.153 397 19.9249
100.27 406 20.1494
100.388 419 20.4695
100.505 348 18.6548
100.622 367 19.1572
100.74 369 19.2094
100.857 382 19.5448
100.975 437 20.9045
101.092 451 21.2368
101.209 442 21.0238
101.327 406 20.1494
101.444 433 20.8087
101.561 420 20.4939
101.679 412 20.2978
101.796 326 18.0555
101.913 317 17.8045
102.03 294 17.1464
102.148 322 17.9444
102.265 360 18.9737
102.382 439 20.9523
102.499 377 19.4165
102.616 394 19.8494
102.733 438 20.9284
102.851 423 20.567
102.968 458 21.4009
103.085 477 21.8403
103.202 432 20.7846
103.319 473 21.7486
103.436 455 21.3307
103.552 464 21.5407
103.669 442 21.0238
103.786 415 20.3715
103.903 399 19.975
104.02 339 18.412
104.137 335 18.303
104.253 397 19.9249
104.37 449 21.1896
104.487 520 22.8035
104.603 594 24.3721
104.72 601 24.5153
104.836 586 24.2074
104.953 579 24.0624
105.069 583 24.1454
105.186 556 23.5797
105.302 514 22.6716
105.418 518 22.7596
105.535 519 22.7816
105.651 510 22.5832
105.767 536 23.1517
105.883 521 22.8254
105.999 564 23.7487
106.115 0 1
106.231 0 1
106.347 0 1
106.463 0 1
106.579 0 1
106.694 0 1
106.81 0 1
106.926 0 1
107.041 0 1
107.157 0 1
109.576 0 1
109.692 0 1
109.807 0 1
109.923 0 1
110.039 0 1
110.155 0 1
110.27 0 1
110.386 0 1
110.502 0 1
110.618 321 17.9165
110.735 339 18.412
110.851 478 21.8632
110.967 482 21.9545
111.083 630 25.0998
111.199 639 25.2784
111.316 679 26.0576
111.432 714 26.7208
111.549 693 26.3249
111.665 727 26.9629
111.782 819 28.6182
111.898 756 27.4955
112.015 759 27.55
112.132 714 26.7208
112.248 713 26.7021
112.365 633 25.1595
112.482 498 22.3159
112.599 538 23.1948
112.716 489 22.1133
112.832 545 23.3452
112.949 523 22.8692
113.066 640 25.2982
113.183 698 26.4197
113.3 701 26.4764
113.417 637 25.2389
113.534 627 25.04
113.652 589 24.2693
113.769 551 23.4734
113.886 516 22.7156
114.003 479 21.8861
114.12 457 21.3776
114.238 452 21.2603
114.355 481 21.9317
114.472 497 22.2935
114.589 525 22.9129
114.707 483 21.9773
114.824 529 23
114.942 507 22.5167
115.059 537 23.1733
115.176 483 21.9773
115.294 486 22.0454
115.411 481 21.9317
115.529 425 20.6155
115.646 457 21.3776
115.764 495 22.2486
115.881 436 20.8806
115.999 361 19
116.116 370 19.2354
116.234 357 18.8944
116.351 356 18.868
116.469 380 19.4936
116.586 394 19.8494
116.704 407 20.1742
116.821 450 21.2132
116.939 437 20.9045
117.056 441 21
117.174 419 20.4695
117.291 382 19.5448
117.409 391 19.7737
117.526 337 18.3576
117.644 310 17.6068
117.761 313 17.6918
117.879 361 19
117.996 328 18.1108
118.114 356 18.868
118.231 384 19.5959
118.349 352 18.7617
118.466 359 18.9473
118.584 393 19.8242
118.701 353 18.7883
118.819 329 18.1384
118.936 388 19.6977
119.053 334 18.2757
119.171 349 18.6815
119.288 313 17.6918
119.405 307 17.5214
119.523 251 15.843
119.64 241 15.5242
119.757 238 15.4272
119.875 242 15.5563
119.992 270 16.4317
120.109 279 16.7033
120.226 306 17.4929
120.343 268 16.3707
120.46 291 17.0587
120.578 290 17.0294
120.695 321 17.9165
120.812 306 17.4929
120.929 286 16.9115
121.046 258 16.0624
121.163 248 15.748
121.279 253 15.906
121.396 219 14.7986
121.513 260 16.1245
121.63 257 16.0312
121.747 279 16.7033
121.863 255 15.9687
121.98 281 16.7631
122.097 251 15.843
122.213 263 16.2173
122.33 283 16.8226
122.446 234 15.2971
122.563 261 16.1555
122.679 245 15.6525
122.795 207 14.3875
122.912 201 14.1774
123.028 177 13.3041
123.144 152 12.3288
123.26 131 11.4455
123.377 0 1
123.493 0 1
123.609 0 1
123.725 0 1
123.84 0 1
123.956 0 1
124.072 0 1
124.188 0 1
124.303 0 1
124.419 0 1
126.852 0 1
126.968 0 1
127.083 0 1
127.199 0 1
127.315 0 1
127.431 0 1
127.547 0 1
127.663 0 1
127.779 0 1
127.895 0 1
128.011 0 1
128.127 0 1
128.243 0 1
128.359 460 21.4476
128.476 446 21.1187
128.592 438 20.9284
128.708 395 19.8746
128.825 400 20
128.941 391 19.7737
129.058 419 20.4695
129.174 456 21.3542
129.291 448 21.166
129.408 507 22.5167
129.524 460 21.4476
129.641 501 22.383
129.758 478 21.8632
129.875 478 21.8632
129.992 432 20.7846
130.108 367 19.1572
130.225 379 19.4679
130.342 346 18.6011
130.459 354 18.8149
130.576 393 19.8242
130.693 431 20.7605
130.81 480 21.9089
130.928 481 21.9317
131.045 462 21.4942
131.162 454 21.3073
131.279 470 21.6795
131.396 479 21.8861
131.513 473 21.7486
131.631 452 21.2603
131.748 465 21.5639
131.865 441 21
131.983 417 20.4206
132.1 432 20.7846
132.217 396 19.8997
132.335 424 20.5913
132.452 381 19.5192
132.57 376 19.3907
132.687 418 20.445
132.804 427 20.664
132.922 432 20.7846
133.039 480 21.9089
133.157 466 21.587
133.274 477 21.8403
133.392 517 22.7376
133.509 431 20.7605
133.627 379 19.4679
133.744 363 19.0526
133.862 333 18.2483
133.979 355 18.8414
134.097 374 19.3391
134.214 401 20.025
134.332 429 20.7123
134.449 482 21.9545
134.567 465 21.5639
134.684 469 21.6564
134.802 441 21
134.919 444 21.0713
135.037 454 21.3073
135.154 448 21.166
135.272 467 21.6102
135.389 424 20.5913
135.507 434 20.8327
135.624 416 20.3961
135.742 398 19.9499
135.859 399 19.975
135.977 359 18.9473
136.094 354 18.8149
136.211 393 19.8242
136.329 384 19.5959
136.446 421 20.5183
136.564 447 21.1424
136.681 415 20.3715
136.798 409 20.2237
136.915 433 20.8087
137.033 447 21.1424
137.15 409 20.2237
137.267 379 19.4679
137.384 334 18.2757
137.502 315 17.7482
137.619 317 17.8045
137.736 324 18
137.853 362 19.0263
137.97 362 19.0263
138.087 380 19.4936
138.204 385 19.6214
138.321 362 19.0263
138.438 395 19.8746
138.555 379 19.4679
138.672 387 19.6723
138.788 362 19.0263
138.905 314 17.72
139.022 300 17.3205
139.139 286 16.9115
139.255 305 17.4642
139.372 249 15.7797
139.488 205 14.3178
139.605 203 14.2478
139.721 199 14.1067
139.838 180 13.4164
139.954 185 13.6015
140.071 200 14.1421
140.187 174 13.1909
140.303 164 12.8062
140.419 160 12.6491
140.535 138 11.7473
140.652 130 11.4018
140.768 0 1
140.884 0 1
141 0 1
141.115 0 1
141.231 0 1
141.347 0 1
141.463 0 1
141.578 0 1
141.694 0 1
144.104 0 1
144.219 0 1
144.335 0 1
144.45 0 1
144.566 0 1
144.682 0 1
144.798 0 1
144.914 0 1
145.03 0 1
145.146 202 14.2127
145.262 232 15.2315
145.378 207 14.3875
145.494 210 14.4914
145.61 243 15.5885
145.726 259 16.0935
145.842 255 15.9687
145.959 241 15.5242
146.075 221 14.8661
146.192 213 14.5945
146.308 224 14.9666
146.425 180 13.4164
146.541 226 15.0333
146.658 246 15.6844
146.774 253 15.906
146.891 259 16.0935
147.008 280 16.7332
147.125 267 16.3401
147.241 298 17.2627
147.358 274 16.5529
147.475 274 16.5529
147.592 294 17.1464
147.709 277 16.6433
147.826 268 16.3707
147.943 243 15.5885
148.06 266 16.3095
148.177 246 15.6844
148.294 253 15.906
148.411 238 15.4272
148.528 271 16.4621
148.645 265 16.2788
148.762 297 17.2337
148.88 290 17.0294
148.997 297 17.2337
149.114 277 16.6433
149.231 299 17.2916
149.349 278 16.6733
149.466 275 16.5831
149.583 285 16.8819
149.701 274 16.5529
149.818 240 15.4919
149.935 224 14.9666
150.053 212 14.5602
150.17 243 15.5885
150.287 255 15.9687
150.405 302 17.3781
150.522 301 17.3494
150.64 270 16.4317
150.757 295 17.1756
150.875 283 16.8226
150.992 278 16.6733
151.11 242 15.5563
151.227 271 16.4621
151.344 264 16.2481
151.462 253 15.906
151.579 271 16.4621
151.697 259 16.0935
151.814 284 16.8523
151.932 246 15.6844
152.049 253 15.906
152.167 273 16.5227
152.284 238 15.4272
152.402 257 16.0312
152.519 281 16.7631
152.636 283 16.8226
152.754 287 16.9411
152.871 229 15.1327
152.989 265 16.2788
153.106 266 16.3095
153.223 268 16.3707
153.341 274 16.5529
153.458 229 15.1327
153.575 219 14.7986
153.693 219 14.7986
153.81 225 15
153.927 244 15.6205
154.044 240 15.4919
154.162 275 16.5831
154.279 266 16.3095
154.396 277 16.6433
154.513 272 16.4924
154.63 283 16.8226
154.747 250 15.8114
154.864 283 16.8226
154.981 264 16.2481
155.098 253 15.906
155.215 222 14.8997
155.332 217 14.7309
155.449 236 15.3623
155.566 237 15.3948
155.683 216 14.6969
155.8 263 16.2173
155.917 250 15.8114
156.033 258 16.0624
156.15 0 1
156.267 0 1
156.383 0 1
156.5 0 1
156.617 0 1
156.733 0 1
156.85 0 1
156.966 0 1
157.082 0 1
157.199 0 1
157.315 0 1
157.431 0 1
157.547 0 1
157.664 0 1
157.78 0 1
157.896 0 1
158.012 0 1
158.128 0 1
158.244 0 1
158.359 0 1
158.475 0 1
158.591 0 1
158.706 0 1
