
6.15755 0 1
6.2731 0 1
6.3887 0 1
6.50437 0 1
6.62009 0 1
6.73587 0 1
6.8517 0 1
6.96759 0 1
7.08353 0 1
7.19952 0 1
7.31557 0 1
7.43166 0 1
7.54781 0 1
7.664 0 1
7.78024 0 1
7.89653 0 1
8.01286 0 1
8.12924 0 1
8.24567 0 1
8.36213 0 1
8.47864 0 1
8.59519 0 1
8.71178 0 1
8.82841 0 1
8.94508 0 1
9.06179 0 1
9.17853 0 1
9.29531 0 1
9.41212 0 1
9.52897 0 1
9.64584 0 1
9.76276 0 1
9.8797 0 1
9.99667 0 1
10.1137 0 1
10.2307 0 1
10.3478 0 1
10.4648 0 1
10.5819 0 1
10.6991 0 1
10.8162 0 1
10.9334 0 1
11.0506 0 1
11.1678 0 1
11.285 0 1
11.4023 0 1
11.5196 0 1
11.6369 0 1
11.7542 0 1
11.8715 0 1
11.9888 0 1
12.1062 0 1
12.2235 0 1
12.3409 0 1
12.4582 0 1
12.5756 0 1
12.693 0 1
12.8104 0 1
12.9278 0 1
13.0452 0 1
13.1626 0 1
13.28 0 1
13.3974 0 1
13.5149 0 1
13.6323 0 1
13.7497 0 1
13.8671 0 1
13.9845 0 1
14.1019 0 1
14.2193 0 1
14.3367 0 1
14.4541 0 1
14.5714 0 1
14.6888 0 1
14.8062 0 1
14.9235 0 1
15.0408 0 0
15.1581 0 0
15.2755 0 0
15.3927 0 0
15.51 0 0
15.6273 0 0
15.7445 0 0
15.8617 0 0
15.9789 0 0
16.0961 0 0
16.2132 0 0
16.3304 0 0
16.4475 0 0
16.5646 0 0
16.6816 0 0
16.7986 0 0
16.9156 0 0
17.0326 0 0
17.1496 0 0
17.2665 0 0
17.3833 0 0
17.5002 0 0
17.617 0 0
17.7338 0 0
17.8505 0 0
17.9672 0 0
18.0839 0 0
18.2005 0 0
18.3171 0 0
18.4337 0 0
18.5502 0 0
18.6666 0 0
18.7831 0 0
18.8994 0 0
19.0158 0 0
19.1321 0 0
19.2483 0 0
19.3645 0 0
19.4806 0 0
19.5967 0 0
19.7128 0 0
19.8288 0 0
19.9447 0 0
20.0606 0 1
20.1764 0 1
20.2922 0 1
20.4079 0 1
20.5236 0 1
20.6392 0 1
20.7548 0 1
20.8702 0 1
23.3078 0 1
23.4233 0 1
23.539 0 1
23.6547 0 1
23.7704 0 1
23.8862 0 1
24.0021 0 1
24.118 0 1
24.234 0 1
24.35 0 1
24.4661 5884 76.7072
24.5822 6284 79.2717
24.6984 6341 79.6304
24.8146 6332 79.5739
24.9309 6435 80.2185
25.0472 6702 81.8657
25.1636 6583 81.1357
25.28 6786 82.3772
25.3965 6920 83.1865
25.513 6867 82.8674
25.6296 6827 82.6257
25.7462 6898 83.0542
25.8628 6609 81.2958
25.9795 6604 81.265
26.0962 6355 79.7183
26.213 6407 80.0437
26.3298 6111 78.1729
26.4466 6090 78.0385
26.5635 6224 78.8923
26.6804 6134 78.3199
26.7973 6215 78.8353
26.9143 6078 77.9615
27.0313 5993 77.4145
27.1483 5887 76.7268
27.2653 5588 74.7529
27.3824 5737 75.743
27.4996 5759 75.8881
27.6167 5717 75.6108
27.7339 5626 75.0067
27.8511 5813 76.243
27.9683 6418 80.1124
28.0855 6956 83.4026
28.2028 7570 87.0057
28.3201 7759 88.0852
28.4374 8136 90.1998
28.5547 8501 92.2009
28.6721 8915 94.4193
28.7894 9153 95.6713
28.9068 9675 98.3616
29.0242 9990 99.95
29.1416 10627 103.087
29.259 11308 106.339
29.3764 11616 107.778
29.4939 12269 110.766
29.6113 13014 114.079
29.7288 13404 115.776
29.8463 13961 118.157
29.9638 14855 121.881
30.0812 15126 122.988
30.1987 15581 124.824
30.3162 15849 125.893
30.4337 15982 126.42
30.5512 15813 125.75
30.6687 15536 124.643
30.7862 15489 124.455
30.9037 15183 123.219
31.0212 15837 125.845
31.1387 16163 127.134
31.2562 15934 126.23
31.3737 15903 126.107
31.4912 16815 129.673
31.6087 17294 131.507
31.7262 17612 132.71
31.8436 17433 132.034
31.9611 17207 131.175
32.0785 16882 129.931
32.1959 16576 128.748
32.3134 16087 126.835
32.4308 15418 124.169
32.5482 15272 123.58
32.6655 14744 121.425
32.7829 14220 119.248
32.9002 14048 118.524
33.0176 13315 115.391
33.1349 12788 113.084
33.2522 12318 110.986
33.3694 12093 109.968
33.4867 11544 107.443
33.6039 10943 104.609
33.7211 10486 102.401
33.8383 10080 100.399
33.9554 10009 100.045
34.0725 9471 97.3191
34.1896 8813 93.8776
34.3067 7831 88.4929
34.4237 7220 84.9706
34.5407 7012 83.7377
34.6577 7010 83.7257
34.7746 6852 82.7768
34.8915 6529 80.8022
35.0084 6197 78.721
35.1252 6304 79.3977
35.242 6432 80.1998
35.3587 6447 80.2932
35.4755 6074 77.9359
35.5921 6112 78.1793
35.7088 6087 78.0192
35.8254 5921 76.948
35.9419 5857 76.531
36.0584 5779 76.0197
36.1749 5772 75.9737
36.2913 5632 75.0467
36.4077 5517 74.2765
36.524 5468 73.9459
36.6403 5529 74.3572
36.7565 5411 73.5595
36.8727 5553 74.5185
36.9889 5496 74.135
37.1049 5611 74.9066
37.221 0 1
37.3369 0 1
37.4529 0 1
37.5687 0 1
37.6845 0 1
37.8003 0 1
37.916 0 1
38.0316 0 1
38.1472 0 1
40.5851 0 1
40.7008 0 1
40.8164 0 1
40.9322 0 1
41.048 0 1
41.1639 0 1
41.2798 0 1
41.3958 0 1
41.5118 0 1
41.6279 0 1
41.744 4650 68.1909
41.8602 4683 68.4324
41.9765 4872 69.7997
42.0928 4836 69.5414
42.2091 4857 69.6922
42.3255 4976 70.5408
42.4419 4871 69.7925
42.5584 4903 70.0214
42.675 4972 70.5124
42.7915 4824 69.455
42.9081 4770 69.0652
43.0248 4394 66.2873
43.1415 4044 63.5925
43.2582 3926 62.6578
43.375 3949 62.8411
43.4918 4320 65.7267
43.6087 4165 64.5368
43.7256 4131 64.2729
43.8425 4100 64.0312
43.9595 4088 63.9375
44.0765 4284 65.4523
44.1935 4325 65.7647
44.3106 4311 65.6582
44.4277 4189 64.7225
44.5448 4247 65.169
44.6619 4151 64.4283
44.7791 4177 64.6297
44.8963 4172 64.591
45.0136 4247 65.169
45.1308 4168 64.56
45.2481 4209 64.8768
45.3654 4246 65.1613
45.4827 4204 64.8383
45.6001 4247 65.169
45.7174 4109 64.1015
45.8348 4091 63.9609
45.9522 3878 62.2736
46.0697 3819 61.7981
46.1871 3615 60.1249
46.3046 3749 61.2291
46.422 3627 60.2246
46.5395 3430 58.5662
46.657 3225 56.7891
46.7745 3070 55.4076
46.892 3070 55.4076
47.0096 3123 55.8838
47.1271 3249 57
47.2446 3206 56.6216
47.3622 3133 55.9732
47.4797 3149 56.116
47.5973 3202 56.5862
47.7149 3317 57.5934
47.8324 3158 56.1961
47.95 3237 56.8946
48.0675 3207 56.6304
48.1851 3210 56.6569
48.3027 3109 55.7584
48.4202 3239 56.9122
48.5378 3227 56.8067
48.6554 3259 57.0877
48.7729 3252 57.0263
48.8904 3289 57.3498
49.008 3401 58.3181
49.1255 3379 58.1292
49.243 3337 57.7668
49.3605 3386 58.1893
49.478 3311 57.5413
49.5955 3365 58.0086
49.713 3465 58.8643
49.8304 3365 58.0086
49.9479 3415 58.438
50.0653 3242 56.9386
50.1827 3017 54.9272
50.3001 2863 53.507
50.4175 2998 54.754
50.5348 3073 55.4346
50.6521 3300 57.4456
50.7694 3486 59.0424
50.8867 3561 59.6741
51.004 3733 61.0983
51.1212 3896 62.4179
51.2384 4096 64
51.3556 4308 65.6354
51.4727 4290 65.4981
51.5899 4478 66.9179
51.707 4507 67.1342
51.824 4587 67.7274
51.9411 4517 67.2086
52.0581 4690 68.4836
52.175 4678 68.3959
52.2919 4951 70.3633
52.4088 4896 69.9714
52.5257 4984 70.5975
52.6425 4906 70.0428
52.7593 4953 70.3776
52.876 4873 69.8069
52.9927 4899 69.9929
53.1094 5072 71.218
53.226 5125 71.5891
53.3426 5212 72.1942
53.4591 5209 72.1734
53.5756 5029 70.9154
53.692 4803 69.3037
53.8084 4552 67.4685
53.9248 4115 64.1483
54.0411 4283 65.4446
54.1573 4500 67.082
54.2735 0 1
54.3896 0 1
54.5057 0 1
54.6217 0 1
54.7377 0 1
54.8537 0 1
54.9695 0 1
55.0853 0 1
55.2011 0 1
55.3168 0 1
55.4324 0 1
57.824 0 1
57.9396 0 1
58.0553 0 1
58.1711 0 1
58.2869 0 1
58.4028 0 1
58.5187 0 1
58.6347 0 1
58.7508 0 1
58.8669 0 1
58.983 5284 72.6911
59.0992 5243 72.4086
59.2155 5273 72.6154
59.3318 5459 73.885
59.4482 5742 75.776
59.5646 6004 77.4855
59.681 6250 79.0569
59.7975 6343 79.643
59.9141 6416 80.0999
60.0306 6488 80.5481
60.1473 6516 80.7217
60.2639 6607 81.2835
60.3807 6473 80.455
60.4974 6503 80.6412
60.6142 6407 80.0437
60.731 6472 80.4487
60.8479 6799 82.456
60.9648 6513 80.7032
61.0818 6665 81.6395
61.1987 6486 80.5357
61.3158 6669 81.6639
61.4328 6653 81.5659
61.5499 6531 80.8146
61.667 6480 80.4984
61.7841 6545 80.9012
61.9013 6513 80.7032
62.0185 6472 80.4487
62.1357 6157 78.4666
62.253 5844 76.4461
62.3702 5500 74.162
62.4875 5386 73.3894
62.6049 5311 72.8766
62.7222 5622 74.98
62.8396 5920 76.9415
62.9569 6078 77.9615
63.0743 6062 77.8588
63.1918 6096 78.0769
63.3092 6397 79.9812
63.4267 6398 79.9875
63.5441 6396 79.975
63.6616 6603 81.2588
63.7791 6400 80
63.8966 6621 81.3695
64.0142 6480 80.4984
64.1317 6512 80.697
64.2492 6577 81.0987
64.3668 6458 80.3617
64.4843 6492 80.5729
64.6019 6518 80.7341
64.7195 6521 80.7527
64.837 6571 81.0617
64.9546 6538 80.8579
65.0722 6391 79.9437
65.1898 6311 79.4418
65.3074 6400 80
65.4249 6313 79.4544
65.5425 6354 79.712
65.6601 6107 78.1473
65.7777 5973 77.2852
65.8952 5643 75.1199
66.0128 5273 72.6154
66.1304 5008 70.7672
66.2479 5221 72.2565
66.3655 5354 73.171
66.483 5823 76.3086
66.6005 6117 78.2113
66.718 5935 77.039
66.8355 6128 78.2815
66.953 6272 79.196
67.0705 6365 79.781
67.1879 6573 81.074
67.3054 6541 80.8764
67.4228 6308 79.4229
67.5402 6540 80.8703
67.6576 6627 81.4064
67.7749 6545 80.9012
67.8923 6802 82.4742
68.0096 6733 82.0549
68.1269 6746 82.134
68.2442 6727 82.0183
68.3614 6709 81.9085
68.4787 6776 82.3165
68.5958 6889 83
68.713 6889 83
68.8302 6882 82.9578
68.9473 6971 83.4925
69.0643 6902 83.0783
69.1814 7023 83.8033
69.2984 6945 83.3367
69.4154 6764 82.2435
69.5323 6288 79.2969
69.6492 6006 77.4984
69.7661 5849 76.4788
69.8829 6019 77.5822
69.9997 6458 80.3617
70.1165 6751 82.1645
70.2332 7073 84.1011
70.3499 7167 84.6581
70.4665 7362 85.8021
70.5831 7659 87.5157
70.6996 7856 88.6341
70.8161 8011 89.5042
70.9326 8135 90.1942
71.049 8076 89.8666
71.1653 8075 89.861
71.2817 8005 89.4707
71.3979 8031 89.6158
71.5141 8061 89.7831
71.6303 7994 89.4092
71.7464 7339 85.668
71.8624 0 1
71.9784 0 1
72.0944 0 1
72.2102 0 1
72.3261 0 1
72.4418 0 1
72.5575 0 1
72.6732 0 1
75.1054 0 1
75.2209 0 1
75.3365 0 1
75.4521 0 1
75.5678 0 1
75.6835 0 1
75.7993 0 1
75.9151 0 1
76.031 0 1
76.147 7988 89.3756
76.263 8666 93.0914
76.3791 8872 94.1913
76.4952 9019 94.9684
76.6113 9178 95.8019
76.7276 8942 94.5621
76.8438 9140 95.6033
76.9601 9172 95.7706
77.0765 9338 96.6333
77.1929 9227 96.0573
77.3093 9225 96.0469
77.4258 9289 96.3795
77.5423 9320 96.5401
77.6589 9386 96.8814
77.7755 9219 96.0156
77.8921 9331 96.5971
78.0088 9066 95.2155
78.1256 9181 95.8175
78.2423 9155 95.6818
78.3591 8897 94.3239
78.4759 8302 91.1153
78.5928 7645 87.4357
78.7097 7103 84.2793
78.8266 6927 83.2286
78.9436 6397 79.9812
79.0606 7362 85.8021
79.1776 7732 87.9318
79.2946 8322 91.225
79.4117 8643 92.9677
79.5288 9001 94.8736
79.6459 9056 95.163
79.7631 9167 95.7445
79.8802 9320 96.5401
79.9974 9259 96.2237
80.1147 9273 96.2964
80.2319 9085 95.3153
80.3491 9239 96.1197
80.4664 9464 97.2831
80.5837 9355 96.7212
80.701 9264 96.2497
80.8183 9364 96.7678
80.9357 9267 96.2653
81.053 9233 96.0885
81.1704 9389 96.8969
81.2877 9279 96.3276
81.4051 9199 95.9114
81.5225 9350 96.6954
81.6399 8913 94.4087
81.7573 9215 95.9948
81.8747 8874 94.2019
81.9922 8871 94.186
82.1096 8340 91.3236
82.227 7642 87.4185
82.3444 6882 82.9578
82.4619 6523 80.7651
82.5793 6536 80.8455
82.6967 7030 83.8451
82.8142 7568 86.9943
82.9316 7720 87.8635
83.049 7803 88.3346
83.1664 8101 90.0056
83.2838 8421 91.766
83.4012 8417 91.7442
83.5186 8488 92.1303
83.636 8431 91.8205
83.7534 8501 92.2009
83.8708 8421 91.766
83.9881 8355 91.4057
84.1055 8477 92.0706
84.2228 8263 90.901
84.3401 8504 92.2171
84.4575 8435 91.8423
84.5747 8358 91.4221
84.692 8275 90.967
84.8093 8311 91.1647
84.9265 8279 90.989
85.0437 8260 90.8845
85.1609 8349 91.3729
85.2781 8350 91.3783
85.3952 8265 90.912
85.5123 8233 90.7359
85.6294 7908 88.9269
85.7465 7604 87.2009
85.8636 6878 82.9337
85.9806 6502 80.635
86.0976 6338 79.6116
86.2145 6660 81.6088
86.3315 6889 83
86.4484 7997 89.4259
86.5652 8405 91.6788
86.682 8604 92.7577
86.7988 8957 94.6414
86.9156 9326 96.5712
87.0323 9614 98.051
87.149 9647 98.2191
87.2657 9755 98.7674
87.3823 9852 99.2572
87.4988 10080 100.399
87.6154 10108 100.539
87.7318 10253 101.257
87.8483 10400 101.98
87.9647 10673 103.31
88.081 10628 103.092
88.1973 10773 103.793
88.3136 11242 106.028
88.4298 10802 103.933
88.546 10908 104.441
88.6621 10996 104.862
88.7781 10985 104.809
88.8942 0 1
89.0101 0 1
89.126 0 1
89.2419 0 1
89.3577 0 1
89.4734 0 1
89.5891 0 1
89.7047 0 1
89.8203 0 1
89.9358 0 1
92.3269 0 1
92.4424 0 1
92.558 0 1
92.6736 0 1
92.7893 0 1
92.905 0 1
93.0208 0 1
93.1366 0 1
93.2525 0 1
93.3685 0 1
93.4845 0 1
93.6005 10701 103.446
93.7167 10917 104.484
93.8328 10735 103.61
93.949 10850 104.163
94.0653 10686 103.373
94.1816 10835 104.091
94.2979 10776 103.808
94.4143 10622 103.063
94.5307 10576 102.84
94.6472 10401 101.985
94.7637 10012 100.06
94.8803 9753 98.7573
94.9969 9106 95.4254
95.1135 8342 91.3345
95.2302 7984 89.3532
95.3469 8393 91.6133
95.4637 8641 92.957
95.5805 9279 96.3276
95.6973 9802 99.0051
95.8142 10309 101.533
95.9311 10559 102.757
96.048 10834 104.087
96.1649 11138 105.537
96.2819 11039 105.067
96.3989 11074 105.233
96.516 11239 106.014
96.633 11144 105.565
96.7501 11354 106.555
96.8673 11278 106.198
96.9844 11350 106.536
97.1016 11243 106.033
97.2188 11243 106.033
97.336 11419 106.86
97.4532 11311 106.353
97.5704 11464 107.07
97.6877 11576 107.592
97.805 11462 107.061
97.9223 11159 105.636
98.0396 10945 104.618
98.1569 11215 105.901
98.2743 11102 105.366
98.3916 10871 104.264
98.509 10523 102.582
98.6264 9572 97.8366
98.7438 8826 93.9468
98.8612 8196 90.5318
98.9786 8446 91.9021
99.096 8866 94.1594
99.2134 9698 98.4784
99.3308 10381 101.887
99.4482 10878 104.298
99.5656 11361 106.588
99.6831 11328 106.433
99.8005 11462 107.061
99.9179 11347 106.522
100.035 11716 108.24
100.153 11604 107.722
100.27 11819 108.715
100.388 11971 109.412
100.505 11985 109.476
100.622 11774 108.508
100.74 11983 109.467
100.857 11945 109.293
100.975 12010 109.59
101.092 12131 110.141
101.209 12197 110.44
101.327 12298 110.896
101.444 12184 110.381
101.561 12067 109.85
101.679 12189 110.404
101.796 12027 109.668
101.913 11765 108.467
102.03 11609 107.745
102.148 10729 103.581
102.265 10121 100.603
102.382 8595 92.7092
102.499 8879 94.2284
102.616 9358 96.7368
102.733 10114 100.568
102.851 10899 104.398
102.968 11631 107.847
103.085 11861 108.908
103.202 11924 109.197
103.319 12142 110.191
103.436 11872 108.959
103.552 12074 109.882
103.669 12075 109.886
103.786 12225 110.567
103.903 12369 111.216
104.02 12255 110.702
104.137 12201 110.458
104.253 12516 111.875
104.37 12020 109.636
104.487 12291 110.865
104.603 12173 110.331
104.72 12157 110.259
104.836 11949 109.311
104.953 12229 110.585
105.069 12023 109.649
105.186 12141 110.186
105.302 11749 108.393
105.418 11709 108.208
105.535 11113 105.418
105.651 10076 100.379
105.767 9261 96.2341
105.883 8536 92.3905
105.999 8863 94.1435
106.115 0 1
106.231 0 1
106.347 0 1
106.463 0 1
106.579 0 1
106.694 0 1
106.81 0 1
106.926 0 1
107.041 0 1
107.157 0 1
109.576 0 1
109.692 0 1
109.807 0 1
109.923 0 1
110.039 0 1
110.155 0 1
110.27 0 1
110.386 0 1
110.502 0 1
110.618 9851 99.2522
110.735 9465 97.2882
110.851 8664 93.0806
110.967 8177 90.4268
111.083 8279 90.989
111.199 8700 93.2738
111.316 9642 98.1937
111.432 9992 99.96
111.549 10277 101.376
111.665 10520 102.567
111.782 10521 102.572
111.898 10524 102.587
112.015 10456 102.255
112.132 10548 102.703
112.248 10453 102.24
112.365 10663 103.262
112.482 10582 102.869
112.599 10414 102.049
112.716 10322 101.597
112.832 10515 102.543
112.949 10294 101.459
113.066 10306 101.518
113.183 10061 100.305
113.3 10000 100
113.417 10030 100.15
113.534 10068 100.339
113.652 9960 99.7998
113.769 9845 99.222
113.886 9715 98.5647
114.003 9584 97.8979
114.12 8856 94.1063
114.238 8401 91.657
114.355 7538 86.8217
114.472 6862 82.8372
114.589 6897 83.0482
114.707 7102 84.2734
114.824 7770 88.1476
114.942 8207 90.5925
115.059 8584 92.6499
115.176 9063 95.1998
115.294 9263 96.2445
115.411 9033 95.0421
115.529 9194 95.8853
115.646 9353 96.7109
115.764 9229 96.0677
115.881 9434 97.1288
115.999 9310 96.4883
116.116 9329 96.5867
116.234 9443 97.1751
116.351 9495 97.4423
116.469 9514 97.5397
116.586 9869 99.3428
116.704 9690 98.4378
116.821 9649 98.2293
116.939 9828 99.1363
117.056 9885 99.4233
117.174 9743 98.7066
117.291 9816 99.0757
117.409 9935 99.6745
117.526 10010 100.05
117.644 9799 98.9899
117.761 9444 97.1802
117.879 9130 95.551
117.996 8192 90.5097
118.114 7829 88.4816
118.231 7761 88.0965
118.349 8143 90.2386
118.466 8998 94.8578
118.584 9651 98.2395
118.701 10065 100.324
118.819 10781 103.832
118.936 10796 103.904
119.053 11209 105.873
119.171 11015 104.952
119.288 10965 104.714
119.405 11144 105.565
119.523 11050 105.119
119.64 11233 105.986
119.757 11412 106.827
119.875 11163 105.655
119.992 11174 105.707
120.109 11169 105.683
120.226 11297 106.287
120.343 11181 105.74
120.46 11371 106.635
120.578 11106 105.385
120.695 11047 105.105
120.812 10993 104.848
120.929 10927 104.532
121.046 10961 104.695
121.163 10896 104.384
121.279 10978 104.776
121.396 10320 101.587
121.513 9924 99.6193
121.63 9032 95.0368
121.747 8221 90.6697
121.863 7755 88.0625
121.98 7911 88.9438
122.097 8159 90.3272
122.213 8871 94.186
122.33 9349 96.6902
122.446 9798 98.9848
122.563 10139 100.693
122.679 10008 100.04
122.795 10174 100.866
122.912 10246 101.223
123.028 10334 101.656
123.144 10269 101.336
123.26 10239 101.188
123.377 0 1
123.493 0 1
123.609 0 1
123.725 0 1
123.84 0 1
123.956 0 1
124.072 0 1
124.188 0 1
124.303 0 1
124.419 0 1
126.852 0 1
126.968 0 1
127.083 0 1
127.199 0 1
127.315 0 1
127.431 0 1
127.547 0 1
127.663 0 1
127.779 0 1
127.895 0 1
128.011 0 1
128.127 0 1
128.243 0 1
128.359 11407 106.804
128.476 11352 106.546
128.592 11268 106.151
128.708 11372 106.64
128.825 11465 107.075
128.941 11638 107.88
129.058 11786 108.563
129.174 11650 107.935
129.291 11543 107.438
129.408 11681 108.079
129.524 11561 107.522
129.641 11745 108.374
129.758 11637 107.875
129.875 11588 107.648
129.992 11388 106.715
130.108 11395 106.747
130.225 11418 106.855
130.342 11039 105.067
130.459 10084 100.419
130.576 9530 97.6217
130.693 8348 91.3674
130.81 7808 88.3629
130.928 8080 89.8888
131.045 8681 93.1719
131.162 9578 97.8673
131.279 10407 102.015
131.396 10828 104.058
131.513 10966 104.719
131.631 10965 104.714
131.748 11261 106.118
131.865 11013 104.943
131.983 10980 104.785
132.1 11028 105.014
132.217 11098 105.347
132.335 11254 106.085
132.452 11103 105.371
132.57 11193 105.797
132.687 10626 103.082
132.804 11487 107.177
132.922 11076 105.243
133.039 11111 105.409
133.157 11077 105.247
133.274 10895 104.379
133.392 10832 104.077
133.509 10785 103.851
133.627 10563 102.776
133.744 10534 102.635
133.862 10290 101.44
133.979 9938 99.6895
134.097 9101 95.3992
134.214 8275 90.967
134.332 7516 86.6949
134.449 7373 85.8662
134.567 7999 89.4371
134.684 8516 92.2822
134.802 9421 97.0618
134.919 9796 98.9747
135.037 10121 100.603
135.154 10172 100.856
135.272 10446 102.206
135.389 10200 100.995
135.507 10203 101.01
135.624 10350 101.735
135.742 10324 101.607
135.859 10384 101.902
135.977 10365 101.809
136.094 10376 101.863
136.211 10419 102.074
136.329 10196 100.975
136.446 10343 101.701
136.564 10356 101.764
136.681 10661 103.252
136.798 10385 101.907
136.915 10147 100.732
137.033 10311 101.543
137.15 10236 101.173
137.267 10101 100.504
137.384 10067 100.334
137.502 9941 99.7046
137.619 9465 97.2882
137.736 8983 94.7787
137.853 7984 89.3532
137.97 7276 85.2995
138.087 7578 87.0517
138.204 7612 87.2468
138.321 8428 91.8041
138.438 9098 95.3834
138.555 9484 97.3858
138.672 9730 98.6408
138.788 10280 101.39
138.905 10184 100.916
139.022 10295 101.464
139.139 10431 102.132
139.255 10216 101.074
139.372 10296 101.469
139.488 10207 101.03
139.605 10091 100.454
139.721 10124 100.618
139.838 9972 99.8599
139.954 9978 99.8899
140.071 10006 100.03
140.187 10132 100.658
140.303 10076 100.379
140.419 10230 101.143
140.535 10192 100.955
140.652 10251 101.247
140.768 0 1
140.884 0 1
141 0 1
141.115 0 1
141.231 0 1
141.347 0 1
141.463 0 1
141.578 0 1
141.694 0 1
144.104 0 1
144.219 0 1
144.335 0 1
144.45 0 1
144.566 0 1
144.682 0 1
144.798 0 1
144.914 0 1
145.03 0 1
145.146 8476 92.0652
145.262 8832 93.9787
145.378 8881 94.2391
145.494 8873 94.1966
145.61 9013 94.9368
145.726 9046 95.1105
145.842 9147 95.6399
145.959 9173 95.7758
146.075 9515 97.5449
146.192 9409 97
146.308 9226 96.0521
146.425 8617 92.8278
146.541 7953 89.1796
146.658 7492 86.5563
146.774 7630 87.3499
146.891 7984 89.3532
147.008 8575 92.6013
147.125 9150 95.6556
147.241 9460 97.2625
147.358 10025 100.125
147.475 9930 99.6494
147.592 9873 99.363
147.709 9878 99.3881
147.826 9651 98.2395
147.943 9564 97.7957
148.06 9309 96.4832
148.177 9518 97.5602
148.294 9080 95.289
148.411 9181 95.8175
148.528 9292 96.395
148.645 9076 95.268
148.762 9104 95.4149
148.88 9059 95.1788
148.997 8735 93.4612
149.114 9620 98.0816
149.231 9069 95.2313
149.349 9345 96.6695
149.466 9330 96.5919
149.583 9342 96.654
149.701 9572 97.8366
149.818 9278 96.3224
149.935 9172 95.7706
150.053 8460 91.9783
150.17 7714 87.8294
150.287 7258 85.1939
150.405 7166 84.6522
150.522 7563 86.9655
150.64 8057 89.7608
150.757 8569 92.5689
150.875 8750 93.5414
150.992 9207 95.9531
151.11 9047 95.1157
151.227 9132 95.5615
151.344 8911 94.3981
151.462 9063 95.1998
151.579 9183 95.828
151.697 9173 95.7758
151.814 9070 95.2365
151.932 9081 95.2943
152.049 9259 96.2237
152.167 9245 96.1509
152.284 9181 95.8175
152.402 9273 96.2964
152.519 9091 95.3467
152.636 9502 97.4782
152.754 9273 96.2964
152.871 9349 96.6902
152.989 9427 97.0927
153.106 9532 97.632
153.223 9312 96.4987
153.341 9223 96.0365
153.458 9269 96.2756
153.575 8933 94.5145
153.693 8220 90.6642
153.81 7750 88.0341
153.927 6973 83.5045
154.044 7071 84.0892
154.162 7653 87.4814
154.279 8155 90.305
154.396 8460 91.9783
154.513 8999 94.8631
154.63 9132 95.5615
154.747 9186 95.8436
154.864 9175 95.7862
154.981 9164 95.7288
155.098 9183 95.828
155.215 9047 95.1157
155.332 9344 96.6644
155.449 9161 95.7131
155.566 9235 96.0989
155.683 9232 96.0833
155.8 9327 96.5764
155.917 9260 96.2289
156.033 9453 97.2265
156.15 0 1
156.267 0 1
156.383 0 1
156.5 0 1
156.617 0 1
156.733 0 1
156.85 0 1
156.966 0 1
157.082 0 1
157.199 0 1
157.315 0 1
157.431 0 1
157.547 0 1
157.664 0 1
157.78 0 1
157.896 0 1
158.012 0 1
158.128 0 1
158.244 0 1
158.359 0 1
158.475 0 1
158.591 0 1
158.706 0 1
