
6.15755 0 1
6.2731 0 1
6.3887 0 1
6.50437 0 1
6.62009 0 1
6.73587 0 1
6.8517 0 1
6.96759 0 1
7.08353 0 1
7.19952 0 1
7.31557 0 1
7.43166 0 1
7.54781 0 1
7.664 0 1
7.78024 0 1
7.89653 0 1
8.01286 0 1
8.12924 0 1
8.24567 0 1
8.36213 0 1
8.47864 0 1
8.59519 0 1
8.71178 0 1
8.82841 0 1
8.94508 0 1
9.06179 0 1
9.17853 0 1
9.29531 0 1
9.41212 0 1
9.52897 0 1
9.64584 0 1
9.76276 0 1
9.8797 0 1
9.99667 0 1
10.1137 0 1
10.2307 0 1
10.3478 0 1
10.4648 0 1
10.5819 0 1
10.6991 0 1
10.8162 0 1
10.9334 0 1
11.0506 0 1
11.1678 0 1
11.285 0 1
11.4023 0 1
11.5196 0 1
11.6369 0 1
11.7542 0 1
11.8715 0 1
11.9888 0 1
12.1062 0 1
12.2235 0 1
12.3409 0 1
12.4582 0 1
12.5756 0 1
12.693 0 1
12.8104 0 1
12.9278 0 1
13.0452 0 1
13.1626 0 1
13.28 0 1
13.3974 0 1
13.5149 0 1
13.6323 0 1
13.7497 0 1
13.8671 0 1
13.9845 0 1
14.1019 0 1
14.2193 0 1
14.3367 0 1
14.4541 0 1
14.5714 0 1
14.6888 0 1
14.8062 0 1
14.9235 0 1
15.0408 935 30.5778
15.1581 998 31.5911
15.2755 992 31.496
15.3927 938 30.6268
15.51 975 31.225
15.6273 971 31.1609
15.7445 797 28.2312
15.8617 956 30.9192
15.9789 924 30.3974
16.0961 898 29.9666
16.2132 933 30.545
16.3304 987 31.4166
16.4475 947 30.7734
16.5646 883 29.7153
16.6816 988 31.4325
16.7986 952 30.8545
16.9156 1018 31.9061
17.0326 1050 32.4037
17.1496 1071 32.7261
17.2665 1153 33.9559
17.3833 1290 35.9166
17.5002 1306 36.1386
17.617 1427 37.7757
17.7338 1542 39.2683
17.8505 1691 41.1218
17.9672 1613 40.1622
18.0839 1617 40.2119
18.2005 1740 41.7133
18.3171 1707 41.3159
18.4337 1866 43.1972
18.5502 1768 42.0476
18.6666 1743 41.7493
18.7831 1677 40.9512
18.8994 1552 39.3954
19.0158 1423 37.7227
19.1321 1206 34.7275
19.2483 1110 33.3167
19.3645 1083 32.909
19.4806 1183 34.3948
19.5967 1152 33.9411
19.7128 1133 33.6601
19.8288 998 31.5911
19.9447 900 30
20.0606 0 1
20.1764 0 1
20.2922 0 1
20.4079 0 1
20.5236 0 1
20.6392 0 1
20.7548 0 1
20.8702 0 1
23.3078 0 1
23.4233 0 1
23.539 0 1
23.6547 0 1
23.7704 0 1
23.8862 0 1
24.0021 0 1
24.118 0 1
24.234 0 1
24.35 0 1
24.4661 316 17.7764
24.5822 324 18
24.6984 419 20.4695
24.8146 476 21.8174
24.9309 544 23.3238
25.0472 635 25.1992
25.1636 712 26.6833
25.28 727 26.9629
25.3965 779 27.9106
25.513 823 28.688
25.6296 868 29.4618
25.7462 879 29.6479
25.8628 856 29.2575
25.9795 840 28.9828
26.0962 741 27.2213
26.213 779 27.9106
26.3298 696 26.3818
26.4466 728 26.9815
26.5635 693 26.3249
26.6804 732 27.0555
26.7973 706 26.5707
26.9143 679 26.0576
27.0313 657 25.632
27.1483 679 26.0576
27.2653 697 26.4008
27.3824 700 26.4575
27.4996 740 27.2029
27.6167 712 26.6833
27.7339 754 27.4591
27.8511 721 26.8514
27.9683 640 25.2982
28.0855 642 25.3377
28.2028 695 26.3629
28.3201 701 26.4764
28.4374 772 27.7849
28.5547 768 27.7128
28.6721 769 27.7308
28.7894 724 26.9072
28.9068 757 27.5136
29.0242 738 27.1662
29.1416 709 26.6271
29.259 714 26.7208
29.3764 724 26.9072
29.4939 688 26.2298
29.6113 726 26.9444
29.7288 694 26.3439
29.8463 713 26.7021
29.9638 651 25.5147
30.0812 672 25.923
30.1987 659 25.671
30.3162 687 26.2107
30.4337 678 26.0384
30.5512 667 25.8263
30.6687 705 26.5518
30.7862 687 26.2107
30.9037 709 26.6271
31.0212 749 27.3679
31.1387 740 27.2029
31.2562 729 27
31.3737 741 27.2213
31.4912 670 25.8844
31.6087 668 25.8457
31.7262 698 26.4197
31.8436 704 26.533
31.9611 719 26.8142
32.0785 738 27.1662
32.1959 726 26.9444
32.3134 688 26.2298
32.4308 706 26.5707
32.5482 648 25.4558
32.6655 667 25.8263
32.7829 632 25.1396
32.9002 625 25
33.0176 586 24.2074
33.1349 621 24.9199
33.2522 663 25.7488
33.3694 648 25.4558
33.4867 639 25.2784
33.6039 587 24.2281
33.7211 640 25.2982
33.8383 623 24.96
33.9554 645 25.3969
34.0725 559 23.6432
34.1896 605 24.5967
34.3067 628 25.0599
34.4237 662 25.7294
34.5407 654 25.5734
34.6577 631 25.1197
34.7746 664 25.7682
34.8915 670 25.8844
35.0084 660 25.6905
35.1252 646 25.4165
35.242 622 24.9399
35.3587 559 23.6432
35.4755 627 25.04
35.5921 625 25
35.7088 640 25.2982
35.8254 609 24.6779
35.9419 626 25.02
36.0584 626 25.02
36.1749 639 25.2784
36.2913 610 24.6982
36.4077 573 23.9374
36.524 579 24.0624
36.6403 541 23.2594
36.7565 500 22.3607
36.8727 472 21.7256
36.9889 420 20.4939
37.1049 454 21.3073
37.221 0 1
37.3369 0 1
37.4529 0 1
37.5687 0 1
37.6845 0 1
37.8003 0 1
37.916 0 1
38.0316 0 1
38.1472 0 1
40.5851 0 1
40.7008 0 1
40.8164 0 1
40.9322 0 1
41.048 0 1
41.1639 0 1
41.2798 0 1
41.3958 0 1
41.5118 0 1
41.6279 0 1
41.744 286 16.9115
41.8602 373 19.3132
41.9765 389 19.7231
42.0928 407 20.1742
42.2091 437 20.9045
42.3255 447 21.1424
42.4419 468 21.6333
42.5584 486 22.0454
42.675 492 22.1811
42.7915 519 22.7816
42.9081 468 21.6333
43.0248 451 21.2368
43.1415 456 21.3542
43.2582 494 22.2261
43.375 490 22.1359
43.4918 476 21.8174
43.6087 476 21.8174
43.7256 498 22.3159
43.8425 500 22.3607
43.9595 483 21.9773
44.0765 445 21.095
44.1935 446 21.1187
44.3106 465 21.5639
44.4277 448 21.166
44.5448 475 21.7945
44.6619 420 20.4939
44.7791 511 22.6053
44.8963 506 22.4944
45.0136 508 22.5389
45.1308 533 23.0868
45.2481 511 22.6053
45.3654 511 22.6053
45.4827 521 22.8254
45.6001 482 21.9545
45.7174 505 22.4722
45.8348 511 22.6053
45.9522 467 21.6102
46.0697 463 21.5174
46.1871 427 20.664
46.3046 464 21.5407
46.422 434 20.8327
46.5395 454 21.3073
46.657 413 20.3224
46.7745 422 20.5426
46.892 462 21.4942
47.0096 488 22.0907
47.1271 492 22.1811
47.2446 496 22.2711
47.3622 495 22.2486
47.4797 471 21.7025
47.5973 442 21.0238
47.7149 449 21.1896
47.8324 466 21.587
47.95 451 21.2368
48.0675 464 21.5407
48.1851 482 21.9545
48.3027 462 21.4942
48.4202 479 21.8861
48.5378 483 21.9773
48.6554 496 22.2711
48.7729 502 22.4054
48.8904 521 22.8254
49.008 513 22.6495
49.1255 526 22.9347
49.243 471 21.7025
49.3605 426 20.6398
49.478 465 21.5639
49.5955 438 20.9284
49.713 438 20.9284
49.8304 412 20.2978
49.9479 398 19.9499
50.0653 400 20
50.1827 413 20.3224
50.3001 437 20.9045
50.4175 453 21.2838
50.5348 456 21.3542
50.6521 493 22.2036
50.7694 505 22.4722
50.8867 442 21.0238
51.004 481 21.9317
51.1212 480 21.9089
51.2384 434 20.8327
51.3556 429 20.7123
51.4727 433 20.8087
51.5899 456 21.3542
51.707 472 21.7256
51.824 459 21.4243
51.9411 487 22.0681
52.0581 441 21
52.175 474 21.7715
52.2919 481 21.9317
52.4088 372 19.2873
52.5257 462 21.4942
52.6425 506 22.4944
52.7593 430 20.7364
52.876 525 22.9129
52.9927 492 22.1811
53.1094 439 20.9523
53.226 442 21.0238
53.3426 419 20.4695
53.4591 408 20.199
53.5756 375 19.3649
53.692 373 19.3132
53.8084 361 19
53.9248 373 19.3132
54.0411 321 17.9165
54.1573 326 18.0555
54.2735 0 1
54.3896 0 1
54.5057 0 1
54.6217 0 1
54.7377 0 1
54.8537 0 1
54.9695 0 1
55.0853 0 1
55.2011 0 1
55.3168 0 1
55.4324 0 1
57.824 0 1
57.9396 0 1
58.0553 0 1
58.1711 0 1
58.2869 0 1
58.4028 0 1
58.5187 0 1
58.6347 0 1
58.7508 0 1
58.8669 0 1
58.983 2020 44.9444
59.0992 2994 54.7175
59.2155 4729 68.7677
59.3318 7271 85.2702
59.4482 9233 96.0885
59.5646 10273 101.356
59.681 10751 103.687
59.7975 11334 106.461
59.9141 11720 108.259
60.0306 11854 108.876
60.1473 12196 110.436
60.2639 12519 111.888
60.3807 12887 113.521
60.4974 12754 112.934
60.6142 12434 111.508
60.731 12071 109.868
60.8479 11541 107.429
60.9648 11291 106.259
61.0818 10767 103.764
61.1987 10635 103.126
61.3158 10778 103.817
61.4328 10677 103.33
61.5499 10362 101.794
61.667 10011 100.055
61.7841 9249 96.1717
61.9013 8305 91.1318
62.0185 7342 85.6855
62.1357 6666 81.6456
62.253 5930 77.0065
62.3702 5639 75.0933
62.4875 6545 80.9012
62.6049 8060 89.7775
62.7222 9356 96.7264
62.8396 9771 98.8484
62.9569 9658 98.2751
63.0743 9244 96.1457
63.1918 8297 91.0879
63.3092 7097 84.2437
63.4267 6151 78.4283
63.5441 5120 71.5542
63.6616 4389 66.2495
63.7791 3762 61.3351
63.8966 3512 59.2621
64.0142 2900 53.8516
64.1317 2377 48.7545
64.2492 1773 42.107
64.3668 1238 35.1852
64.4843 947 30.7734
64.6019 962 31.0161
64.7195 912 30.1993
64.837 903 30.05
64.9546 1010 31.7805
65.0722 1102 33.1964
65.1898 1075 32.7872
65.3074 1057 32.5115
65.4249 920 30.3315
65.5425 808 28.4253
65.6601 700 26.4575
65.7777 626 25.02
65.8952 581 24.1039
66.0128 610 24.6982
66.1304 619 24.8797
66.2479 662 25.7294
66.3655 691 26.2869
66.483 709 26.6271
66.6005 701 26.4764
66.718 725 26.9258
66.8355 673 25.9422
66.953 645 25.3969
67.0705 600 24.4949
67.1879 632 25.1396
67.3054 600 24.4949
67.4228 621 24.9199
67.5402 585 24.1868
67.6576 612 24.7386
67.7749 617 24.8395
67.8923 558 23.622
68.0096 563 23.7276
68.1269 614 24.779
68.2442 560 23.6643
68.3614 588 24.2487
68.4787 582 24.1247
68.5958 616 24.8193
68.713 627 25.04
68.8302 566 23.7908
68.9473 556 23.5797
69.0643 519 22.7816
69.1814 497 22.2935
69.2984 491 22.1585
69.4154 540 23.2379
69.5323 566 23.7908
69.6492 542 23.2809
69.7661 574 23.9583
69.8829 582 24.1247
69.9997 567 23.8118
70.1165 571 23.8956
70.2332 555 23.5584
70.3499 531 23.0434
70.4665 463 21.5174
70.5831 469 21.6564
70.6996 431 20.7605
70.8161 378 19.4422
70.9326 365 19.105
71.049 358 18.9209
71.1653 324 18
71.2817 305 17.4642
71.3979 296 17.2047
71.5141 227 15.0665
71.6303 247 15.7162
71.7464 260 16.1245
71.8624 0 1
71.9784 0 1
72.0944 0 1
72.2102 0 1
72.3261 0 1
72.4418 0 1
72.5575 0 1
72.6732 0 1
75.1054 0 1
75.2209 0 1
75.3365 0 1
75.4521 0 1
75.5678 0 1
75.6835 0 1
75.7993 0 1
75.9151 0 1
76.031 0 1
76.147 393 19.8242
76.263 396 19.8997
76.3791 431 20.7605
76.4952 445 21.095
76.6113 472 21.7256
76.7276 453 21.2838
76.8438 501 22.383
76.9601 471 21.7025
77.0765 449 21.1896
77.1929 492 22.1811
77.3093 461 21.4709
77.4258 461 21.4709
77.5423 472 21.7256
77.6589 482 21.9545
77.7755 433 20.8087
77.8921 430 20.7364
78.0088 444 21.0713
78.1256 460 21.4476
78.2423 449 21.1896
78.3591 441 21
78.4759 412 20.2978
78.5928 388 19.6977
78.7097 455 21.3307
78.8266 418 20.445
78.9436 430 20.7364
79.0606 459 21.4243
79.1776 449 21.1896
79.2946 432 20.7846
79.4117 481 21.9317
79.5288 497 22.2935
79.6459 489 22.1133
79.7631 444 21.0713
79.8802 486 22.0454
79.9974 478 21.8632
80.1147 478 21.8632
80.2319 432 20.7846
80.3491 447 21.1424
80.4664 498 22.3159
80.5837 487 22.0681
80.701 469 21.6564
80.8183 491 22.1585
80.9357 471 21.7025
81.053 443 21.0476
81.1704 502 22.4054
81.2877 484 22
81.4051 455 21.3307
81.5225 461 21.4709
81.6399 412 20.2978
81.7573 431 20.7605
81.8747 431 20.7605
81.9922 447 21.1424
82.1096 449 21.1896
82.227 432 20.7846
82.3444 415 20.3715
82.4619 455 21.3307
82.5793 455 21.3307
82.6967 436 20.8806
82.8142 460 21.4476
82.9316 491 22.1585
83.049 496 22.2711
83.1664 480 21.9089
83.2838 496 22.2711
83.4012 511 22.6053
83.5186 474 21.7715
83.636 479 21.8861
83.7534 462 21.4942
83.8708 457 21.3776
83.9881 457 21.3776
84.1055 498 22.3159
84.2228 478 21.8632
84.3401 489 22.1133
84.4575 500 22.3607
84.5747 450 21.2132
84.692 495 22.2486
84.8093 510 22.5832
84.9265 445 21.095
85.0437 461 21.4709
85.1609 459 21.4243
85.2781 458 21.4009
85.3952 462 21.4942
85.5123 431 20.7605
85.6294 470 21.6795
85.7465 471 21.7025
85.8636 471 21.7025
85.9806 471 21.7025
86.0976 451 21.2368
86.2145 445 21.095
86.3315 490 22.1359
86.4484 502 22.4054
86.5652 533 23.0868
86.682 506 22.4944
86.7988 507 22.5167
86.9156 502 22.4054
87.0323 519 22.7816
87.149 464 21.5407
87.2657 453 21.2838
87.3823 474 21.7715
87.4988 510 22.5832
87.6154 459 21.4243
87.7318 478 21.8632
87.8483 415 20.3715
87.9647 410 20.2485
88.081 362 19.0263
88.1973 357 18.8944
88.3136 349 18.6815
88.4298 291 17.0587
88.546 277 16.6433
88.6621 252 15.8745
88.7781 254 15.9374
88.8942 0 1
89.0101 0 1
89.126 0 1
89.2419 0 1
89.3577 0 1
89.4734 0 1
89.5891 0 1
89.7047 0 1
89.8203 0 1
89.9358 0 1
92.3269 0 1
92.4424 0 1
92.558 0 1
92.6736 0 1
92.7893 0 1
92.905 0 1
93.0208 0 1
93.1366 0 1
93.2525 0 1
93.3685 0 1
93.4845 0 1
93.6005 419 20.4695
93.7167 390 19.7484
93.8328 414 20.347
93.949 458 21.4009
94.0653 458 21.4009
94.1816 422 20.5426
94.2979 452 21.2603
94.4143 473 21.7486
94.5307 458 21.4009
94.6472 461 21.4709
94.7637 453 21.2838
94.8803 433 20.8087
94.9969 485 22.0227
95.1135 461 21.4709
95.2302 428 20.6882
95.3469 467 21.6102
95.4637 504 22.4499
95.5805 484 22
95.6973 484 22
95.8142 493 22.2036
95.9311 476 21.8174
96.048 447 21.1424
96.1649 522 22.8473
96.2819 471 21.7025
96.3989 501 22.383
96.516 491 22.1585
96.633 494 22.2261
96.7501 449 21.1896
96.8673 504 22.4499
96.9844 500 22.3607
97.1016 460 21.4476
97.2188 533 23.0868
97.336 501 22.383
97.4532 502 22.4054
97.5704 499 22.3383
97.6877 471 21.7025
97.805 444 21.0713
97.9223 451 21.2368
98.0396 451 21.2368
98.1569 445 21.095
98.2743 489 22.1133
98.3916 489 22.1133
98.509 526 22.9347
98.6264 502 22.4054
98.7438 464 21.5407
98.8612 481 21.9317
98.9786 520 22.8035
99.096 496 22.2711
99.2134 511 22.6053
99.3308 505 22.4722
99.4482 537 23.1733
99.5656 503 22.4277
99.6831 505 22.4722
99.8005 571 23.8956
99.9179 515 22.6936
100.035 498 22.3159
100.153 517 22.7376
100.27 540 23.2379
100.388 508 22.5389
100.505 528 22.9783
100.622 511 22.6053
100.74 506 22.4944
100.857 496 22.2711
100.975 497 22.2935
101.092 485 22.0227
101.209 495 22.2486
101.327 443 21.0476
101.444 434 20.8327
101.561 479 21.8861
101.679 495 22.2486
101.796 463 21.5174
101.913 486 22.0454
102.03 519 22.7816
102.148 522 22.8473
102.265 537 23.1733
102.382 525 22.9129
102.499 537 23.1733
102.616 547 23.388
102.733 559 23.6432
102.851 578 24.0416
102.968 538 23.1948
103.085 555 23.5584
103.202 616 24.8193
103.319 546 23.3666
103.436 525 22.9129
103.552 508 22.5389
103.669 539 23.2164
103.786 564 23.7487
103.903 622 24.9399
104.02 626 25.02
104.137 559 23.6432
104.253 575 23.9792
104.37 512 22.6274
104.487 513 22.6495
104.603 499 22.3383
104.72 477 21.8403
104.836 541 23.2594
104.953 496 22.2711
105.069 466 21.587
105.186 430 20.7364
105.302 445 21.095
105.418 446 21.1187
105.535 450 21.2132
105.651 401 20.025
105.767 393 19.8242
105.883 350 18.7083
105.999 308 17.5499
106.115 0 1
106.231 0 1
106.347 0 1
106.463 0 1
106.579 0 1
106.694 0 1
106.81 0 1
106.926 0 1
107.041 0 1
107.157 0 1
109.576 0 1
109.692 0 1
109.807 0 1
109.923 0 1
110.039 0 1
110.155 0 1
110.27 0 1
110.386 0 1
110.502 0 1
110.618 266 16.3095
110.735 334 18.2757
110.851 443 21.0476
110.967 390 19.7484
111.083 457 21.3776
111.199 496 22.2711
111.316 519 22.7816
111.432 540 23.2379
111.549 478 21.8632
111.665 531 23.0434
111.782 516 22.7156
111.898 518 22.7596
112.015 496 22.2711
112.132 505 22.4722
112.248 495 22.2486
112.365 548 23.4094
112.482 548 23.4094
112.599 525 22.9129
112.716 524 22.891
112.832 505 22.4722
112.949 493 22.2036
113.066 466 21.587
113.183 485 22.0227
113.3 465 21.5639
113.417 507 22.5167
113.534 421 20.5183
113.652 435 20.8567
113.769 442 21.0238
113.886 427 20.664
114.003 441 21
114.12 438 20.9284
114.238 506 22.4944
114.355 494 22.2261
114.472 501 22.383
114.589 468 21.6333
114.707 469 21.6564
114.824 473 21.7486
114.942 432 20.7846
115.059 495 22.2486
115.176 484 22
115.294 434 20.8327
115.411 455 21.3307
115.529 438 20.9284
115.646 465 21.5639
115.764 453 21.2838
115.881 451 21.2368
115.999 495 22.2486
116.116 469 21.6564
116.234 451 21.2368
116.351 445 21.095
116.469 444 21.0713
116.586 381 19.5192
116.704 386 19.6469
116.821 426 20.6398
116.939 409 20.2237
117.056 393 19.8242
117.174 357 18.8944
117.291 398 19.9499
117.409 397 19.9249
117.526 398 19.9499
117.644 375 19.3649
117.761 425 20.6155
117.879 432 20.7846
117.996 437 20.9045
118.114 438 20.9284
118.231 452 21.2603
118.349 449 21.1896
118.466 425 20.6155
118.584 456 21.3542
118.701 451 21.2368
118.819 420 20.4939
118.936 417 20.4206
119.053 392 19.799
119.171 421 20.5183
119.288 410 20.2485
119.405 424 20.5913
119.523 417 20.4206
119.64 451 21.2368
119.757 415 20.3715
119.875 407 20.1742
119.992 423 20.567
120.109 381 19.5192
120.226 397 19.9249
120.343 379 19.4679
120.46 419 20.4695
120.578 409 20.2237
120.695 368 19.1833
120.812 380 19.4936
120.929 340 18.4391
121.046 344 18.5472
121.163 309 17.5784
121.279 351 18.735
121.396 363 19.0526
121.513 341 18.4662
121.63 373 19.3132
121.747 360 18.9737
121.863 349 18.6815
121.98 363 19.0526
122.097 349 18.6815
122.213 353 18.7883
122.33 357 18.8944
122.446 334 18.2757
122.563 271 16.4621
122.679 283 16.8226
122.795 275 16.5831
122.912 216 14.6969
123.028 236 15.3623
123.144 215 14.6629
123.26 206 14.3527
123.377 0 1
123.493 0 1
123.609 0 1
123.725 0 1
123.84 0 1
123.956 0 1
124.072 0 1
124.188 0 1
124.303 0 1
124.419 0 1
126.852 0 1
126.968 0 1
127.083 0 1
127.199 0 1
127.315 0 1
127.431 0 1
127.547 0 1
127.663 0 1
127.779 0 1
127.895 0 1
128.011 0 1
128.127 0 1
128.243 0 1
128.359 424 20.5913
128.476 481 21.9317
128.592 455 21.3307
128.708 472 21.7256
128.825 500 22.3607
128.941 421 20.5183
129.058 496 22.2711
129.174 481 21.9317
129.291 434 20.8327
129.408 465 21.5639
129.524 468 21.6333
129.641 475 21.7945
129.758 476 21.8174
129.875 439 20.9523
129.992 459 21.4243
130.108 430 20.7364
130.225 425 20.6155
130.342 470 21.6795
130.459 427 20.664
130.576 519 22.7816
130.693 524 22.891
130.81 552 23.4947
130.928 570 23.8747
131.045 568 23.8328
131.162 603 24.5561
131.279 622 24.9399
131.396 645 25.3969
131.513 661 25.7099
131.631 734 27.0924
131.748 703 26.5141
131.865 725 26.9258
131.983 815 28.5482
132.1 844 29.0517
132.217 923 30.3809
132.335 1008 31.749
132.452 1038 32.218
132.57 995 31.5436
132.687 1106 33.2566
132.804 1148 33.8821
132.922 1153 33.9559
133.039 1168 34.176
133.157 1236 35.1568
133.274 1261 35.5106
133.392 1216 34.8712
133.509 1220 34.9285
133.627 1251 35.3695
133.744 1291 35.9305
133.862 1314 36.2491
133.979 1301 36.0694
134.097 1292 35.9444
134.214 1427 37.7757
134.332 1429 37.8021
134.449 1436 37.8946
134.567 1412 37.5766
134.684 1352 36.7696
134.802 1276 35.7211
134.919 1345 36.6742
135.037 1322 36.3593
135.154 1230 35.0714
135.272 1293 35.9583
135.389 1146 33.8526
135.507 1233 35.1141
135.624 1236 35.1568
135.742 1340 36.606
135.859 1337 36.565
135.977 1344 36.6606
136.094 1330 36.4692
136.211 1263 35.5387
136.329 1326 36.4143
136.446 1242 35.242
136.564 1320 36.3318
136.681 1300 36.0555
136.798 1303 36.0971
136.915 1287 35.8748
137.033 1248 35.327
137.15 1144 33.8231
137.267 1205 34.7131
137.384 1137 33.7194
137.502 1112 33.3467
137.619 1120 33.4664
137.736 1109 33.3017
137.853 1162 34.0881
137.97 1094 33.0757
138.087 1178 34.322
138.204 1119 33.4515
138.321 1170 34.2053
138.438 1086 32.9545
138.555 1165 34.1321
138.672 1077 32.8177
138.788 1046 32.3419
138.905 1006 31.7175
139.022 1070 32.7109
139.139 1096 33.1059
139.255 1087 32.9697
139.372 1036 32.187
139.488 1049 32.3883
139.605 949 30.8058
139.721 890 29.8329
139.838 793 28.1603
139.954 744 27.2764
140.071 715 26.7395
140.187 734 27.0924
140.303 642 25.3377
140.419 672 25.923
140.535 552 23.4947
140.652 573 23.9374
140.768 0 1
140.884 0 1
141 0 1
141.115 0 1
141.231 0 1
141.347 0 1
141.463 0 1
141.578 0 1
141.694 0 1
144.104 0 1
144.219 0 1
144.335 0 1
144.45 0 1
144.566 0 1
144.682 0 1
144.798 0 1
144.914 0 1
145.03 0 1
145.146 956 30.9192
145.262 896 29.9333
145.378 1034 32.1559
145.494 932 30.5287
145.61 1019 31.9218
145.726 934 30.5614
145.842 929 30.4795
145.959 950 30.8221
146.075 902 30.0333
146.192 892 29.8664
146.308 978 31.273
146.425 941 30.6757
146.541 992 31.496
146.658 994 31.5278
146.774 1037 32.2025
146.891 1059 32.5423
147.008 1050 32.4037
147.125 1044 32.311
147.241 1039 32.2335
147.358 1039 32.2335
147.475 1014 31.8434
147.592 994 31.5278
147.709 974 31.209
147.826 959 30.9677
147.943 979 31.289
148.06 1031 32.1092
148.177 1099 33.1512
148.294 1053 32.45
148.411 1022 31.9687
148.528 1054 32.4654
148.645 1072 32.7414
148.762 1052 32.4345
148.88 1092 33.0454
148.997 1024 32
149.114 1051 32.4191
149.231 1071 32.7261
149.349 1101 33.1813
149.466 1019 31.9218
149.583 1042 32.28
149.701 1090 33.0151
149.818 968 31.1127
149.935 1048 32.3728
150.053 993 31.5119
150.17 947 30.7734
150.287 1009 31.7648
150.405 1057 32.5115
150.522 1077 32.8177
150.64 1116 33.4066
150.757 1133 33.6601
150.875 1031 32.1092
150.992 1095 33.0908
151.11 1003 31.6702
151.227 961 31
151.344 927 30.4467
151.462 963 31.0322
151.579 921 30.348
151.697 973 31.1929
151.814 1041 32.2645
151.932 1067 32.665
152.049 1049 32.3883
152.167 1062 32.5883
152.284 1022 31.9687
152.402 1065 32.6343
152.519 1072 32.7414
152.636 1008 31.749
152.754 1036 32.187
152.871 1057 32.5115
152.989 1041 32.2645
153.106 1006 31.7175
153.223 1039 32.2335
153.341 1025 32.0156
153.458 974 31.209
153.575 949 30.8058
153.693 1025 32.0156
153.81 927 30.4467
153.927 963 31.0322
154.044 1005 31.7017
154.162 906 30.0998
154.279 1007 31.7333
154.396 900 30
154.513 869 29.4788
154.63 927 30.4467
154.747 944 30.7246
154.864 856 29.2575
154.981 817 28.5832
155.098 766 27.6767
155.215 787 28.0535
155.332 871 29.5127
155.449 894 29.8998
155.566 913 30.2159
155.683 834 28.8791
155.8 860 29.3258
155.917 835 28.8964
156.033 830 28.8097
156.15 0 1
156.267 0 1
156.383 0 1
156.5 0 1
156.617 0 1
156.733 0 1
156.85 0 1
156.966 0 1
157.082 0 1
157.199 0 1
157.315 0 1
157.431 0 1
157.547 0 1
157.664 0 1
157.78 0 1
157.896 0 1
158.012 0 1
158.128 0 1
158.244 0 1
158.359 0 1
158.475 0 1
158.591 0 1
158.706 0 1
