
6.15755 0 1
6.2731 0 1
6.3887 0 1
6.50437 0 1
6.62009 0 1
6.73587 0 1
6.8517 0 1
6.96759 0 1
7.08353 0 1
7.19952 0 1
7.31557 0 1
7.43166 0 1
7.54781 0 1
7.664 0 1
7.78024 0 1
7.89653 0 1
8.01286 0 1
8.12924 0 1
8.24567 0 1
8.36213 0 1
8.47864 0 1
8.59519 0 1
8.71178 0 1
8.82841 0 1
8.94508 0 1
9.06179 0 1
9.17853 0 1
9.29531 0 1
9.41212 0 1
9.52897 0 1
9.64584 0 1
9.76276 0 1
9.8797 0 1
9.99667 0 1
10.1137 0 1
10.2307 0 1
10.3478 0 1
10.4648 0 1
10.5819 0 1
10.6991 0 1
10.8162 0 1
10.9334 0 1
11.0506 0 1
11.1678 0 1
11.285 0 1
11.4023 0 1
11.5196 0 1
11.6369 0 1
11.7542 0 1
11.8715 0 1
11.9888 0 1
12.1062 0 1
12.2235 0 1
12.3409 0 1
12.4582 0 1
12.5756 0 1
12.693 0 1
12.8104 0 1
12.9278 0 1
13.0452 0 1
13.1626 0 1
13.28 0 1
13.3974 0 1
13.5149 0 1
13.6323 0 1
13.7497 0 1
13.8671 0 1
13.9845 0 1
14.1019 0 1
14.2193 0 1
14.3367 0 1
14.4541 0 1
14.5714 0 1
14.6888 0 1
14.8062 0 1
14.9235 0 1
15.0408 0 0
15.1581 0 0
15.2755 0 0
15.3927 0 0
15.51 0 0
15.6273 0 0
15.7445 0 0
15.8617 0 0
15.9789 0 0
16.0961 0 0
16.2132 0 0
16.3304 0 0
16.4475 0 0
16.5646 0 0
16.6816 0 0
16.7986 0 0
16.9156 0 0
17.0326 0 0
17.1496 0 0
17.2665 0 0
17.3833 0 0
17.5002 0 0
17.617 0 0
17.7338 0 0
17.8505 0 0
17.9672 0 0
18.0839 0 0
18.2005 0 0
18.3171 0 0
18.4337 0 0
18.5502 0 0
18.6666 0 0
18.7831 0 0
18.8994 0 0
19.0158 0 0
19.1321 0 0
19.2483 0 0
19.3645 0 0
19.4806 0 0
19.5967 0 0
19.7128 0 0
19.8288 0 0
19.9447 0 0
20.0606 0 1
20.1764 0 1
20.2922 0 1
20.4079 0 1
20.5236 0 1
20.6392 0 1
20.7548 0 1
20.8702 0 1
23.3078 0 1
23.4233 0 1
23.539 0 1
23.6547 0 1
23.7704 0 1
23.8862 0 1
24.0021 0 1
24.118 0 1
24.234 0 1
24.35 0 1
24.4661 31390 177.172
24.5822 35184 187.574
24.6984 39061 197.639
24.8146 42740 206.737
24.9309 45893 214.227
25.0472 49082 221.545
25.1636 51264 226.416
25.28 54374 233.182
25.3965 56675 238.065
25.513 58360 241.578
25.6296 60498 245.963
25.7462 62013 249.024
25.8628 62889 250.777
25.9795 63358 251.71
26.0962 64537 254.041
26.213 64568 254.102
26.3298 64091 253.162
26.4466 63705 252.398
26.5635 63684 252.357
26.6804 63522 252.036
26.7973 64163 253.304
26.9143 64989 254.929
27.0313 64273 253.521
27.1483 65854 256.62
27.2653 66619 258.107
27.3824 66936 258.72
27.4996 67092 259.021
27.6167 65565 256.057
27.7339 64860 254.676
27.8511 62420 249.84
27.9683 61471 247.933
28.0855 60234 245.426
28.2028 59438 243.799
28.3201 58889 242.671
28.4374 57918 240.662
28.5547 57642 240.087
28.6721 56727 238.174
28.7894 56517 237.733
28.9068 55459 235.497
29.0242 55310 235.181
29.1416 54778 234.047
29.259 55345 235.255
29.3764 55588 235.771
29.4939 55411 235.395
29.6113 55823 236.269
29.7288 56020 236.685
29.8463 56883 238.502
29.9638 56623 237.956
30.0812 57618 240.037
30.1987 57720 240.25
30.3162 57997 240.826
30.4337 58245 241.34
30.5512 58688 242.256
30.6687 59286 243.487
30.7862 60384 245.732
30.9037 60995 246.972
31.0212 61116 247.217
31.1387 60833 246.643
31.2562 60063 245.078
31.3737 58782 242.45
31.4912 58079 240.996
31.6087 56710 238.139
31.7262 55931 236.497
31.8436 54776 234.043
31.9611 54127 232.652
32.0785 53006 230.23
32.1959 53289 230.844
32.3134 52241 228.563
32.4308 52121 228.3
32.5482 51659 227.286
32.6655 51468 226.866
32.7829 51244 226.371
32.9002 51988 228.009
33.0176 51982 227.996
33.1349 51955 227.936
33.2522 51854 227.715
33.3694 52383 228.873
33.4867 53094 230.421
33.6039 53481 231.26
33.7211 53358 230.994
33.8383 53886 232.134
33.9554 54551 233.562
34.0725 54682 233.842
34.1896 55384 235.338
34.3067 55650 235.903
34.4237 56409 237.506
34.5407 57124 239.006
34.6577 58109 241.058
34.7746 57173 239.109
34.8915 57151 239.063
35.0084 55785 236.188
35.1252 55006 234.534
35.242 54125 232.648
35.3587 53245 230.749
35.4755 52691 229.545
35.5921 52092 228.237
35.7088 50804 225.397
35.8254 49995 223.596
35.9419 49121 221.633
36.0584 47613 218.204
36.1749 46461 215.548
36.2913 44726 211.485
36.4077 43485 208.531
36.524 42810 206.906
36.6403 41732 204.284
36.7565 40761 201.894
36.8727 39546 198.862
36.9889 38610 196.494
37.1049 36742 191.682
37.221 0 1
37.3369 0 1
37.4529 0 1
37.5687 0 1
37.6845 0 1
37.8003 0 1
37.916 0 1
38.0316 0 1
38.1472 0 1
40.5851 0 1
40.7008 0 1
40.8164 0 1
40.9322 0 1
41.048 0 1
41.1639 0 1
41.2798 0 1
41.3958 0 1
41.5118 0 1
41.6279 0 1
41.744 20434 142.948
41.8602 22841 151.132
41.9765 25287 159.019
42.0928 26776 163.634
42.2091 29174 170.804
42.3255 31504 177.494
42.4419 33116 181.978
42.5584 35669 188.862
42.675 37537 193.745
42.7915 39382 198.449
42.9081 40499 201.244
43.0248 41870 204.622
43.1415 43744 209.151
43.2582 44613 211.218
43.375 45422 213.124
43.4918 46575 215.812
43.6087 46740 216.194
43.7256 46604 215.88
43.8425 45925 214.301
43.9595 44825 211.719
44.0765 44559 211.09
44.1935 43352 208.211
44.3106 42928 207.191
44.4277 42422 205.966
44.5448 41775 204.389
44.6619 40904 202.247
44.7791 40559 201.393
44.8963 39683 199.206
45.0136 38682 196.677
45.1308 38057 195.082
45.2481 37104 192.624
45.3654 36719 191.622
45.4827 36933 192.18
45.6001 37021 192.408
45.7174 37767 194.337
45.8348 38699 196.721
45.9522 39777 199.442
46.0697 41209 203
46.1871 42184 205.387
46.3046 43342 208.187
46.422 44374 210.651
46.5395 44086 209.967
46.657 45199 212.601
46.7745 46122 214.76
46.892 46573 215.808
47.0096 47209 217.276
47.1271 47765 218.552
47.2446 47657 218.305
47.3622 46881 216.52
47.4797 46719 216.146
47.5973 45958 214.378
47.7149 44973 212.068
47.8324 44199 210.236
47.95 43358 208.226
48.0675 43472 208.499
48.1851 42536 206.243
48.3027 41541 203.816
48.4202 40532 201.326
48.5378 39359 198.391
48.6554 37869 194.6
48.7729 36990 192.328
48.8904 35955 189.618
49.008 35959 189.629
49.1255 35677 188.884
49.243 36655 191.455
49.3605 37479 193.595
49.478 38962 197.388
49.5955 39947 199.867
49.713 41261 203.128
49.8304 42456 206.049
49.9479 42907 207.14
50.0653 43214 207.88
50.1827 44390 210.689
50.3001 44523 211.005
50.4175 46090 214.686
50.5348 46490 215.615
50.6521 47063 216.94
50.7694 47105 217.037
50.8867 46531 215.71
51.004 45742 213.874
51.1212 45145 212.474
51.2384 44709 211.445
51.3556 43668 208.969
51.4727 43139 207.699
51.5899 42514 206.189
51.707 42265 205.585
51.824 41808 204.47
51.9411 41170 202.904
52.0581 39978 199.945
52.175 39061 197.639
52.2919 37784 194.381
52.4088 36338 190.625
52.5257 37385 193.352
52.6425 37617 193.951
52.7593 37564 193.814
52.876 37896 194.669
52.9927 38342 195.811
53.1094 39416 198.535
53.226 40318 200.793
53.3426 40828 202.059
53.4591 41008 202.504
53.5756 40010 200.025
53.692 39395 198.482
53.8084 38089 195.164
53.9248 37074 192.546
54.0411 36268 190.442
54.1573 34242 185.046
54.2735 0 1
54.3896 0 1
54.5057 0 1
54.6217 0 1
54.7377 0 1
54.8537 0 1
54.9695 0 1
55.0853 0 1
55.2011 0 1
55.3168 0 1
55.4324 0 1
57.824 0 1
57.9396 0 1
58.0553 0 1
58.1711 0 1
58.2869 0 1
58.4028 0 1
58.5187 0 1
58.6347 0 1
58.7508 0 1
58.8669 0 1
58.983 29881 172.861
59.0992 34828 186.623
59.2155 38238 195.545
59.3318 42088 205.154
59.4482 44360 210.618
59.5646 47298 217.481
59.681 48687 220.651
59.7975 50356 224.401
59.9141 50934 225.686
60.0306 52091 228.235
60.1473 52652 229.46
60.2639 52907 230.015
60.3807 52892 229.983
60.4974 52409 228.93
60.6142 51855 227.717
60.731 50105 223.841
60.8479 48432 220.073
60.9648 46515 215.673
61.0818 45203 212.61
61.1987 44028 209.829
61.3158 43517 208.607
61.4328 44003 209.769
61.5499 45295 212.826
61.667 47039 216.885
61.7841 48509 220.248
61.9013 50456 224.624
62.0185 52698 229.56
62.1357 54237 232.888
62.253 55769 236.155
62.3702 56172 237.006
62.4875 57341 239.46
62.6049 57999 240.83
62.7222 58429 241.721
62.8396 58769 242.423
62.9569 59588 244.107
63.0743 59330 243.578
63.1918 58822 242.532
63.3092 58249 241.348
63.4267 56956 238.655
63.5441 55888 236.406
63.6616 55230 235.011
63.7791 54481 233.412
63.8966 53185 230.619
64.0142 52925 230.054
64.1317 51543 227.031
64.2492 50203 224.06
64.3668 47640 218.266
64.4843 45919 214.287
64.6019 44193 210.221
64.7195 42953 207.251
64.837 42287 205.638
64.9546 42498 206.15
65.0722 43051 207.487
65.1898 44740 211.518
65.3074 45680 213.729
65.4249 48266 219.695
65.5425 49864 223.302
65.6601 52489 229.105
65.7777 53621 231.562
65.8952 55181 234.906
66.0128 55330 235.223
66.1304 56430 237.55
66.2479 56914 238.567
66.3655 57450 239.687
66.483 57830 240.479
66.6005 57807 240.431
66.718 57930 240.687
66.8355 56649 238.011
66.953 56492 237.68
67.0705 54545 233.549
67.1879 54268 232.955
67.3054 53209 230.671
67.4228 52432 228.98
67.5402 51792 227.579
67.6576 51181 226.232
67.7749 49913 223.412
67.8923 48214 219.577
68.0096 46710 216.125
68.1269 44140 210.095
68.2442 42133 205.263
68.3614 40573 201.427
68.4787 40165 200.412
68.5958 40045 200.112
68.713 40968 202.406
68.8302 42292 205.65
68.9473 44778 211.608
69.0643 46514 215.671
69.1814 48940 221.224
69.2984 51101 226.055
69.4154 51872 227.754
69.5323 52873 229.941
69.6492 52898 229.996
69.7661 52980 230.174
69.8829 52102 228.259
69.9997 52504 229.138
70.1165 52227 228.532
70.2332 51164 226.195
70.3499 49891 223.363
70.4665 48081 219.274
70.5831 46067 214.632
70.6996 43884 209.485
70.8161 41860 204.597
70.9326 39747 199.366
71.049 37298 193.127
71.1653 34981 187.032
71.2817 32782 181.058
71.3979 29530 171.843
71.5141 26449 162.631
71.6303 23041 151.793
71.7464 18686 136.697
71.8624 0 1
71.9784 0 1
72.0944 0 1
72.2102 0 1
72.3261 0 1
72.4418 0 1
72.5575 0 1
72.6732 0 1
75.1054 0 1
75.2209 0 1
75.3365 0 1
75.4521 0 1
75.5678 0 1
75.6835 0 1
75.7993 0 1
75.9151 0 1
76.031 0 1
76.147 33602 183.308
76.263 36872 192.021
76.3791 38339 195.803
76.4952 39493 198.728
76.6113 40474 201.182
76.7276 40910 202.262
76.8438 40333 200.831
76.9601 39405 198.507
77.0765 38231 195.527
77.1929 37003 192.362
77.3093 36182 190.216
77.4258 34860 186.708
77.5423 35042 187.195
77.6589 35110 187.377
77.7755 36060 189.895
77.8921 37913 194.713
78.0088 40027 200.067
78.1256 42451 206.036
78.2423 44314 210.509
78.3591 45954 214.369
78.4759 47176 217.2
78.5928 47702 218.408
78.7097 48220 219.591
78.8266 50002 223.611
78.9436 48820 220.952
79.0606 49656 222.836
79.1776 49801 223.161
79.2946 50475 224.666
79.4117 50751 225.28
79.5288 49769 223.09
79.6459 49367 222.187
79.7631 48959 221.267
79.8802 47870 218.792
79.9974 47510 217.968
80.1147 47302 217.49
80.2319 46472 215.574
80.3491 45426 213.134
80.4664 44938 211.986
80.5837 43191 207.824
80.701 41406 203.485
80.8183 39220 198.04
80.9357 36758 191.724
81.053 35420 188.202
81.1704 34980 187.029
81.2877 35278 187.824
81.4051 35326 187.952
81.5225 37028 192.427
81.6399 38803 196.985
81.7573 40858 202.134
81.8747 43952 209.647
81.9922 45381 213.028
82.1096 46989 216.769
82.227 47201 217.258
82.3444 47672 218.339
82.4619 49107 221.601
82.5793 49511 222.511
82.6967 49991 223.587
82.8142 50087 223.801
82.9316 51235 226.351
83.049 50280 224.232
83.1664 49762 223.074
83.2838 49340 222.126
83.4012 49059 221.493
83.5186 48771 220.842
83.636 48124 219.372
83.7534 47610 218.197
83.8708 46814 216.365
83.9881 45714 213.808
84.1055 44960 212.038
84.2228 43763 209.196
84.3401 40837 202.082
84.4575 38824 197.038
84.5747 36479 190.995
84.692 35335 187.976
84.8093 34111 184.692
84.9265 34359 185.362
85.0437 35189 187.587
85.1609 37344 193.246
85.2781 39391 198.472
85.3952 41375 203.408
85.5123 43994 209.747
85.6294 45855 214.138
85.7465 47393 217.699
85.8636 48656 220.581
85.9806 49393 222.245
86.0976 49972 223.544
86.2145 50845 225.488
86.3315 50578 224.896
86.4484 52424 228.963
86.5652 52059 228.164
86.682 51965 227.958
86.7988 50968 225.761
86.9156 49797 223.152
87.0323 48751 220.796
87.149 47118 217.067
87.2657 46540 215.731
87.3823 44329 210.545
87.4988 43187 207.815
87.6154 41078 202.677
87.7318 39761 199.402
87.8483 37153 192.751
87.9647 33987 184.356
88.081 31676 177.978
88.1973 28294 168.208
88.3136 26100 161.555
88.4298 24821 157.547
88.546 23665 153.834
88.6621 23373 152.882
88.7781 22786 150.95
88.8942 0 1
89.0101 0 1
89.126 0 1
89.2419 0 1
89.3577 0 1
89.4734 0 1
89.5891 0 1
89.7047 0 1
89.8203 0 1
89.9358 0 1
92.3269 0 1
92.4424 0 1
92.558 0 1
92.6736 0 1
92.7893 0 1
92.905 0 1
93.0208 0 1
93.1366 0 1
93.2525 0 1
93.3685 0 1
93.4845 0 1
93.6005 29269 171.082
93.7167 29425 171.537
93.8328 29612 172.081
93.949 30759 175.382
94.0653 31652 177.91
94.1816 33120 181.989
94.2979 35777 189.148
94.4143 38134 195.279
94.5307 40825 202.052
94.6472 43536 208.653
94.7637 46112 214.737
94.8803 48250 219.659
94.9969 49419 222.304
95.1135 50521 224.769
95.2302 51804 227.605
95.3469 52564 229.268
95.4637 52920 230.043
95.5805 53316 230.903
95.6973 54268 232.955
95.8142 53351 230.978
95.9311 52506 229.142
96.048 52349 228.799
96.1649 52234 228.548
96.2819 51155 226.175
96.3989 51012 225.858
96.516 50668 225.096
96.633 49240 221.901
96.7501 48938 221.219
96.8673 47900 218.861
96.9844 47207 217.272
97.1016 45250 212.72
97.2188 42685 206.603
97.336 40205 200.512
97.4532 38009 194.959
97.5704 36525 191.115
97.6877 36332 190.61
97.805 36370 190.709
97.9223 37978 194.879
98.0396 39868 199.67
98.1569 42103 205.19
98.2743 44024 209.819
98.3916 46597 215.863
98.509 49045 221.461
98.6264 50411 224.524
98.7438 51503 226.943
98.8612 52300 228.692
98.9786 52837 229.863
99.096 53614 231.547
99.2134 54322 233.071
99.3308 55144 234.828
99.4482 55275 235.106
99.5656 55154 234.849
99.6831 54465 233.377
99.8005 53620 231.56
99.9179 53604 231.525
100.035 52935 230.076
100.153 51920 227.86
100.27 51923 227.866
100.388 51186 226.243
100.505 49631 222.78
100.622 48377 219.948
100.74 46143 214.809
100.857 43458 208.466
100.975 41137 202.823
101.092 39601 199
101.209 38750 196.85
101.327 38865 197.142
101.444 39979 199.947
101.561 41850 204.573
101.679 44227 210.302
101.796 46802 216.338
101.913 48963 221.276
102.03 50701 225.169
102.148 51839 227.682
102.265 51798 227.592
102.382 54807 234.109
102.499 54836 234.171
102.616 55401 235.374
102.733 56083 236.818
102.851 56798 238.323
102.968 56706 238.13
103.085 56583 237.872
103.202 55761 236.138
103.319 55270 235.096
103.436 54512 233.478
103.552 54261 232.94
103.669 53124 230.486
103.786 53113 230.463
103.903 52332 228.762
104.02 51557 227.062
104.137 50089 223.806
104.253 47789 218.607
104.37 45048 212.245
104.487 42937 207.212
104.603 40695 201.73
104.72 39613 199.03
104.836 39155 197.876
104.953 39773 199.432
105.069 40032 200.08
105.186 40858 202.134
105.302 41867 204.614
105.418 42810 206.906
105.535 42041 205.039
105.651 41740 204.304
105.767 40622 201.549
105.883 38524 196.275
105.999 36197 190.255
106.115 0 1
106.231 0 1
106.347 0 1
106.463 0 1
106.579 0 1
106.694 0 1
106.81 0 1
106.926 0 1
107.041 0 1
107.157 0 1
109.576 0 1
109.692 0 1
109.807 0 1
109.923 0 1
110.039 0 1
110.155 0 1
110.27 0 1
110.386 0 1
110.502 0 1
110.618 23340 152.774
110.735 27904 167.045
110.851 31426 177.274
110.967 35062 187.248
111.083 37489 193.621
111.199 40525 201.308
111.316 43625 208.866
111.432 45429 213.141
111.549 46905 216.576
111.665 47743 218.502
111.782 48441 220.093
111.898 47906 218.874
112.015 47942 218.957
112.132 46997 216.788
112.248 46902 216.569
112.365 46458 215.541
112.482 45557 213.441
112.599 44865 211.814
112.716 43360 208.231
112.832 41904 204.705
112.949 39539 198.844
113.066 37913 194.713
113.183 36437 190.885
113.3 35755 189.09
113.417 35405 188.162
113.534 36196 190.252
113.652 37319 193.181
113.769 38736 196.815
113.886 40805 202.002
114.003 42216 205.465
114.12 43611 208.832
114.238 45111 212.394
114.355 46166 214.863
114.472 48521 220.275
114.589 45799 214.007
114.707 47646 218.28
114.824 48294 219.759
114.942 49105 221.596
115.059 49215 221.845
115.176 48987 221.33
115.294 48731 220.751
115.411 47436 217.798
115.529 47371 217.649
115.646 46786 216.301
115.764 45907 214.259
115.881 45140 212.462
115.999 44359 210.616
116.116 43535 208.65
116.234 42714 206.674
116.351 41425 203.531
116.469 39151 197.866
116.586 38170 195.371
116.704 36863 191.997
116.821 35665 188.852
116.939 35262 187.782
117.056 35319 187.933
117.174 35759 189.101
117.291 36906 192.109
117.409 38702 196.728
117.526 40430 201.072
117.644 41568 203.882
117.761 43038 207.456
117.879 44013 209.793
117.996 44058 209.9
118.114 44958 212.033
118.231 45756 213.907
118.349 46419 215.451
118.466 46765 216.252
118.584 47290 217.463
118.701 47404 217.725
118.819 47029 216.862
118.936 46325 215.232
119.053 45254 212.73
119.171 44440 210.808
119.288 43356 208.221
119.405 43288 208.058
119.523 42413 205.944
119.64 41839 204.546
119.757 41075 202.67
119.875 40445 201.109
119.992 38920 197.282
120.109 37836 194.515
120.226 36154 190.142
120.343 35412 188.181
120.46 34297 185.194
120.578 34207 184.951
120.695 34375 185.405
120.812 35143 187.465
120.929 35376 188.085
121.046 36065 189.908
121.163 37019 192.403
121.279 37911 194.707
121.396 38445 196.074
121.513 38933 197.314
121.63 38929 197.304
121.747 38743 196.832
121.863 38780 196.926
121.98 38727 196.792
122.097 38248 195.571
122.213 38024 194.997
122.33 37121 192.668
122.446 36235 190.355
122.563 34362 185.37
122.679 32827 181.182
122.795 30850 175.642
122.912 28747 169.549
123.028 27070 164.53
123.144 24861 157.674
123.26 22438 149.793
123.377 0 1
123.493 0 1
123.609 0 1
123.725 0 1
123.84 0 1
123.956 0 1
124.072 0 1
124.188 0 1
124.303 0 1
124.419 0 1
126.852 0 1
126.968 0 1
127.083 0 1
127.199 0 1
127.315 0 1
127.431 0 1
127.547 0 1
127.663 0 1
127.779 0 1
127.895 0 1
128.011 0 1
128.127 0 1
128.243 0 1
128.359 41477 203.659
128.476 42531 206.23
128.592 43216 207.885
128.708 43662 208.955
128.825 43502 208.571
128.941 43608 208.825
129.058 42946 207.234
129.174 42885 207.087
129.291 41505 203.728
129.408 40729 201.814
129.524 40272 200.679
129.641 39610 199.023
129.758 39269 198.164
129.875 39508 198.766
129.992 40050 200.125
130.108 40934 202.322
130.225 42278 205.616
130.342 43472 208.499
130.459 44953 212.021
130.576 44770 211.589
130.693 45733 213.853
130.81 46884 216.527
130.928 47233 217.332
131.045 48097 219.31
131.162 48946 221.237
131.279 49580 222.666
131.396 49883 223.345
131.513 49779 223.112
131.631 48982 221.319
131.748 48407 220.016
131.865 46911 216.589
131.983 46730 216.171
132.1 45625 213.6
132.217 45523 213.361
132.335 44763 211.573
132.452 44057 209.898
132.57 44190 210.214
132.687 43433 208.406
132.804 41540 203.814
132.922 40684 201.703
133.039 40616 201.534
133.157 40131 200.327
133.274 40334 200.833
133.392 40198 200.494
133.509 40335 200.836
133.627 41456 203.607
133.744 41878 204.641
133.862 42844 206.988
133.979 43904 209.533
134.097 45099 212.365
134.214 45422 213.124
134.332 46177 214.888
134.449 46903 216.571
134.567 47689 218.378
134.684 48081 219.274
134.802 49151 221.7
134.919 49733 223.009
135.037 49284 222
135.154 48752 220.799
135.272 47909 218.881
135.389 47400 217.715
135.507 46731 216.174
135.624 45401 213.075
135.742 45490 213.284
135.859 44876 211.84
135.977 44374 210.651
136.094 43424 208.384
136.211 42903 207.13
136.329 42612 206.427
136.446 42024 204.998
136.564 41231 203.054
136.681 40870 202.163
136.798 40816 202.03
136.915 40557 201.388
137.033 40287 200.716
137.15 40661 201.646
137.267 41080 202.682
137.384 41847 204.565
137.502 42319 205.716
137.619 43141 207.704
137.736 43361 208.233
137.853 42801 206.884
137.97 43801 209.287
138.087 46498 215.634
138.204 45568 213.467
138.321 47063 216.94
138.438 46944 216.666
138.555 46976 216.739
138.672 46347 215.284
138.788 45505 213.319
138.905 43667 208.967
139.022 41715 204.243
139.139 40301 200.751
139.255 38615 196.507
139.372 37401 193.393
139.488 34764 186.451
139.605 33026 181.731
139.721 31810 178.354
139.838 29796 172.615
139.954 28006 167.35
140.071 26069 161.459
140.187 23121 152.056
140.303 21709 147.34
140.419 20000 141.421
140.535 18633 136.503
140.652 17290 131.491
140.768 0 1
140.884 0 1
141 0 1
141.115 0 1
141.231 0 1
141.347 0 1
141.463 0 1
141.578 0 1
141.694 0 1
144.104 0 1
144.219 0 1
144.335 0 1
144.45 0 1
144.566 0 1
144.682 0 1
144.798 0 1
144.914 0 1
145.03 0 1
145.146 28745 169.544
145.262 30185 173.738
145.378 30826 175.573
145.494 31440 177.313
145.61 31571 177.682
145.726 31616 177.809
145.842 31388 177.167
145.959 31616 177.809
146.075 32150 179.304
146.192 32160 179.332
146.308 32327 179.797
146.425 32468 180.189
146.541 32812 181.141
146.658 32963 181.557
146.774 33914 184.158
146.891 34305 185.216
147.008 34849 186.679
147.125 35254 187.76
147.241 35770 189.13
147.358 36096 189.989
147.475 35985 189.697
147.592 35558 188.568
147.709 34934 186.906
147.826 34252 185.073
147.943 33667 183.486
148.06 33204 182.22
148.177 32582 180.505
148.294 32384 179.956
148.411 32611 180.585
148.528 32358 179.883
148.645 32619 180.607
148.762 32587 180.519
148.88 32359 179.886
148.997 32810 181.135
149.114 31167 176.542
149.231 31758 178.208
149.349 31644 177.888
149.466 31401 177.203
149.583 31498 177.477
149.701 31445 177.327
149.818 31180 176.579
149.935 31877 178.541
150.053 32033 178.978
150.17 32344 179.844
150.287 32456 180.155
150.405 32798 181.102
150.522 33255 182.36
150.64 34154 184.808
150.757 34265 185.108
150.875 34793 186.529
150.992 35424 188.213
151.11 34943 186.93
151.227 34679 186.223
151.344 34078 184.602
151.462 33342 182.598
151.579 33155 182.085
151.697 32680 180.776
151.814 32589 180.524
151.932 32089 179.134
152.049 32077 179.101
152.167 32136 179.265
152.284 31565 177.665
152.402 31293 176.898
152.519 31184 176.59
152.636 30794 175.482
152.754 30842 175.619
152.871 30779 175.439
152.989 30303 174.078
153.106 30191 173.756
153.223 30473 174.565
153.341 30387 174.319
153.458 30357 174.233
153.575 30698 175.208
153.693 30567 174.834
153.81 30805 175.514
153.927 31125 176.423
154.044 31092 176.329
154.162 31586 177.725
154.279 32768 181.019
154.396 33144 182.055
154.513 33516 183.074
154.63 33702 183.581
154.747 33040 181.769
154.864 32712 180.865
154.981 31502 177.488
155.098 31082 176.301
155.215 30727 175.291
155.332 30426 174.431
155.449 29927 172.994
155.566 29412 171.499
155.683 29159 170.76
155.8 28575 169.041
155.917 28354 168.386
156.033 27648 166.277
156.15 0 1
156.267 0 1
156.383 0 1
156.5 0 1
156.617 0 1
156.733 0 1
156.85 0 1
156.966 0 1
157.082 0 1
157.199 0 1
157.315 0 1
157.431 0 1
157.547 0 1
157.664 0 1
157.78 0 1
157.896 0 1
158.012 0 1
158.128 0 1
158.244 0 1
158.359 0 1
158.475 0 1
158.591 0 1
158.706 0 1
