
6.15755 0 1
6.2731 0 1
6.3887 0 1
6.50437 0 1
6.62009 0 1
6.73587 0 1
6.8517 0 1
6.96759 0 1
7.08353 0 1
7.19952 0 1
7.31557 0 1
7.43166 0 1
7.54781 0 1
7.664 0 1
7.78024 0 1
7.89653 0 1
8.01286 0 1
8.12924 0 1
8.24567 0 1
8.36213 0 1
8.47864 0 1
8.59519 0 1
8.71178 0 1
8.82841 0 1
8.94508 0 1
9.06179 0 1
9.17853 0 1
9.29531 0 1
9.41212 0 1
9.52897 0 1
9.64584 0 1
9.76276 0 1
9.8797 0 1
9.99667 0 1
10.1137 0 1
10.2307 0 1
10.3478 0 1
10.4648 0 1
10.5819 0 1
10.6991 0 1
10.8162 0 1
10.9334 0 1
11.0506 0 1
11.1678 0 1
11.285 0 1
11.4023 0 1
11.5196 0 1
11.6369 0 1
11.7542 0 1
11.8715 0 1
11.9888 0 1
12.1062 0 1
12.2235 0 1
12.3409 0 1
12.4582 0 1
12.5756 0 1
12.693 0 1
12.8104 0 1
12.9278 0 1
13.0452 0 1
13.1626 0 1
13.28 0 1
13.3974 0 1
13.5149 0 1
13.6323 0 1
13.7497 0 1
13.8671 0 1
13.9845 0 1
14.1019 0 1
14.2193 0 1
14.3367 0 1
14.4541 0 1
14.5714 0 1
14.6888 0 1
14.8062 0 1
14.9235 0 1
15.0408 1069 32.6956
15.1581 1150 33.9116
15.2755 1222 34.9571
15.3927 1244 35.2704
15.51 1206 34.7275
15.6273 1226 35.0143
15.7445 1172 34.2345
15.8617 1207 34.7419
15.9789 1255 35.426
16.0961 1181 34.3657
16.2132 1167 34.1614
16.3304 1206 34.7275
16.4475 1170 34.2053
16.5646 1242 35.242
16.6816 1392 37.3095
16.7986 1451 38.092
16.9156 1429 37.8021
17.0326 1391 37.2961
17.1496 1441 37.9605
17.2665 1348 36.7151
17.3833 1375 37.081
17.5002 1363 36.9188
17.617 1291 35.9305
17.7338 1290 35.9166
17.8505 1251 35.3695
17.9672 1255 35.426
18.0839 1247 35.3129
18.2005 1266 35.5809
18.3171 1209 34.7707
18.4337 1356 36.8239
18.5502 1317 36.2905
18.6666 1376 37.0945
18.7831 1434 37.8682
18.8994 1388 37.2559
19.0158 1366 36.9594
19.1321 1319 36.318
19.2483 1269 35.623
19.3645 1194 34.5543
19.4806 1190 34.4964
19.5967 1090 33.0151
19.7128 1003 31.6702
19.8288 948 30.7896
19.9447 875 29.5804
20.0606 0 1
20.1764 0 1
20.2922 0 1
20.4079 0 1
20.5236 0 1
20.6392 0 1
20.7548 0 1
20.8702 0 1
23.3078 0 1
23.4233 0 1
23.539 0 1
23.6547 0 1
23.7704 0 1
23.8862 0 1
24.0021 0 1
24.118 0 1
24.234 0 1
24.35 0 1
24.4661 589 24.2693
24.5822 677 26.0192
24.6984 735 27.1109
24.8146 908 30.133
24.9309 917 30.282
25.0472 1053 32.45
25.1636 1164 34.1174
25.28 1195 34.5688
25.3965 1301 36.0694
25.513 1450 38.0789
25.6296 1425 37.7492
25.7462 1407 37.51
25.8628 1498 38.704
25.9795 1496 38.6782
26.0962 1522 39.0128
26.213 1413 37.5899
26.3298 1434 37.8682
26.4466 1415 37.6165
26.5635 1310 36.1939
26.6804 1389 37.2693
26.7973 1309 36.1801
26.9143 1327 36.428
27.0313 1412 37.5766
27.1483 1422 37.7094
27.2653 1405 37.4833
27.3824 1431 37.8286
27.4996 1406 37.4967
27.6167 1466 38.2884
27.7339 1388 37.2559
27.8511 1371 37.027
27.9683 1373 37.054
28.0855 1245 35.2846
28.2028 1271 35.6511
28.3201 1253 35.3977
28.4374 1205 34.7131
28.5547 1225 35
28.6721 1289 35.9026
28.7894 1352 36.7696
28.9068 1378 37.1214
29.0242 1439 37.9342
29.1416 1486 38.5487
29.259 1485 38.5357
29.3764 1459 38.1969
29.4939 1436 37.8946
29.6113 1431 37.8286
29.7288 1367 36.973
29.8463 1303 36.0971
29.9638 1224 34.9857
30.0812 1247 35.3129
30.1987 1301 36.0694
30.3162 1295 35.9861
30.4337 1293 35.9583
30.5512 1359 36.8646
30.6687 1342 36.6333
30.7862 1364 36.9324
30.9037 1417 37.6431
31.0212 1437 37.9078
31.1387 1405 37.4833
31.2562 1318 36.3043
31.3737 1321 36.3456
31.4912 1313 36.2353
31.6087 1238 35.1852
31.7262 1263 35.5387
31.8436 1177 34.3074
31.9611 1186 34.4384
32.0785 1183 34.3948
32.1959 1266 35.5809
32.3134 1320 36.3318
32.4308 1340 36.606
32.5482 1375 37.081
32.6655 1441 37.9605
32.7829 1432 37.8418
32.9002 1438 37.921
33.0176 1407 37.51
33.1349 1394 37.3363
33.2522 1443 37.9868
33.3694 1321 36.3456
33.4867 1363 36.9188
33.6039 1206 34.7275
33.7211 1186 34.4384
33.8383 1222 34.9571
33.9554 1211 34.7994
34.0725 1250 35.3553
34.1896 1231 35.0856
34.3067 1254 35.4119
34.4237 1271 35.6511
34.5407 1237 35.171
34.6577 1383 37.1887
34.7746 1385 37.2156
34.8915 1364 36.9324
35.0084 1310 36.1939
35.1252 1280 35.7771
35.242 1279 35.7631
35.3587 1192 34.5254
35.4755 1222 34.9571
35.5921 1205 34.7131
35.7088 1132 33.6452
35.8254 1184 34.4093
35.9419 1156 34
36.0584 1228 35.0428
36.1749 1254 35.4119
36.2913 1233 35.1141
36.4077 1179 34.3366
36.524 1275 35.7071
36.6403 1234 35.1283
36.7565 1126 33.5559
36.8727 1076 32.8024
36.9889 960 30.9839
37.1049 898 29.9666
37.221 0 1
37.3369 0 1
37.4529 0 1
37.5687 0 1
37.6845 0 1
37.8003 0 1
37.916 0 1
38.0316 0 1
38.1472 0 1
40.5851 0 1
40.7008 0 1
40.8164 0 1
40.9322 0 1
41.048 0 1
41.1639 0 1
41.2798 0 1
41.3958 0 1
41.5118 0 1
41.6279 0 1
41.744 640 25.2982
41.8602 717 26.7769
41.9765 777 27.8747
42.0928 768 27.7128
42.2091 838 28.9482
42.3255 762 27.6043
42.4419 818 28.6007
42.5584 845 29.0689
42.675 911 30.1828
42.7915 959 30.9677
42.9081 971 31.1609
43.0248 982 31.3369
43.1415 1052 32.4345
43.2582 1132 33.6452
43.375 1113 33.3617
43.4918 1139 33.7491
43.6087 1119 33.4515
43.7256 1107 33.2716
43.8425 1086 32.9545
43.9595 1009 31.7648
44.0765 995 31.5436
44.1935 1033 32.1403
44.3106 1002 31.6544
44.4277 969 31.1288
44.5448 926 30.4302
44.6619 969 31.1288
44.7791 973 31.1929
44.8963 1120 33.4664
45.0136 1091 33.0303
45.1308 1107 33.2716
45.2481 1129 33.6006
45.3654 1132 33.6452
45.4827 1100 33.1662
45.6001 1129 33.6006
45.7174 1096 33.1059
45.8348 996 31.5595
45.9522 946 30.7571
46.0697 924 30.3974
46.1871 914 30.2324
46.3046 989 31.4484
46.422 1007 31.7333
46.5395 1042 32.28
46.657 1070 32.7109
46.7745 1127 33.5708
46.892 1155 33.9853
47.0096 1125 33.541
47.1271 1183 34.3948
47.2446 1181 34.3657
47.3622 1150 33.9116
47.4797 1140 33.7639
47.5973 1153 33.9559
47.7149 1054 32.4654
47.8324 1081 32.8786
47.95 984 31.3688
48.0675 978 31.273
48.1851 946 30.7571
48.3027 1054 32.4654
48.4202 1134 33.6749
48.5378 1114 33.3766
48.6554 1153 33.9559
48.7729 1157 34.0147
48.8904 1131 33.6303
49.008 1198 34.6121
49.1255 1208 34.7563
49.243 1161 34.0735
49.3605 1033 32.1403
49.478 1001 31.6386
49.5955 928 30.4631
49.713 903 30.05
49.8304 930 30.4959
49.9479 980 31.305
50.0653 1065 32.6343
50.1827 1067 32.665
50.3001 1072 32.7414
50.4175 1163 34.1028
50.5348 1168 34.176
50.6521 1185 34.4238
50.7694 1234 35.1283
50.8867 1176 34.2929
51.004 1191 34.5109
51.1212 1202 34.6699
51.2384 1163 34.1028
51.3556 1119 33.4515
51.4727 1054 32.4654
51.5899 1050 32.4037
51.707 1077 32.8177
51.824 1151 33.9264
51.9411 1267 35.5949
52.0581 1334 36.524
52.175 1425 37.7492
52.2919 1412 37.5766
52.4088 1413 37.5899
52.5257 1430 37.8153
52.6425 1484 38.5227
52.7593 1501 38.7427
52.876 1472 38.3667
52.9927 1319 36.318
53.1094 1218 34.8999
53.226 1179 34.3366
53.3426 1212 34.8138
53.4591 1172 34.2345
53.5756 1216 34.8712
53.692 1164 34.1174
53.8084 1139 33.7491
53.9248 1119 33.4515
54.0411 1090 33.0151
54.1573 935 30.5778
54.2735 0 1
54.3896 0 1
54.5057 0 1
54.6217 0 1
54.7377 0 1
54.8537 0 1
54.9695 0 1
55.0853 0 1
55.2011 0 1
55.3168 0 1
55.4324 0 1
57.824 0 1
57.9396 0 1
58.0553 0 1
58.1711 0 1
58.2869 0 1
58.4028 0 1
58.5187 0 1
58.6347 0 1
58.7508 0 1
58.8669 0 1
58.983 916 30.2655
59.0992 938 30.6268
59.2155 1146 33.8526
59.3318 1155 33.9853
59.4482 1224 34.9857
59.5646 1218 34.8999
59.681 1294 35.9722
59.7975 1299 36.0416
59.9141 1287 35.8748
60.0306 1250 35.3553
60.1473 1254 35.4119
60.2639 1270 35.6371
60.3807 1206 34.7275
60.4974 1245 35.2846
60.6142 1258 35.4683
60.731 1382 37.1753
60.8479 1355 36.8103
60.9648 1431 37.8286
61.0818 1443 37.9868
61.1987 1405 37.4833
61.3158 1398 37.3898
61.4328 1362 36.9053
61.5499 1298 36.0278
61.667 1260 35.4965
61.7841 1130 33.6155
61.9013 1031 32.1092
62.0185 1155 33.9853
62.1357 1097 33.121
62.253 1261 35.5106
62.3702 1372 37.0405
62.4875 1332 36.4966
62.6049 1404 37.47
62.7222 1397 37.3765
62.8396 1414 37.6032
62.9569 1420 37.6829
63.0743 1428 37.7889
63.1918 1383 37.1887
63.3092 1405 37.4833
63.4267 1345 36.6742
63.5441 1317 36.2905
63.6616 1302 36.0832
63.7791 1166 34.1467
63.8966 1181 34.3657
64.0142 1135 33.6898
64.1317 1210 34.7851
64.2492 1286 35.8608
64.3668 1370 37.0135
64.4843 1404 37.47
64.6019 1411 37.5633
64.7195 1433 37.855
64.837 1432 37.8418
64.9546 1380 37.1484
65.0722 1323 36.3731
65.1898 1197 34.5977
65.3074 1149 33.8969
65.4249 1051 32.4191
65.5425 1000 31.6228
65.6601 1037 32.2025
65.7777 1117 33.4215
65.8952 1210 34.7851
66.0128 1274 35.6931
66.1304 1323 36.3731
66.2479 1335 36.5377
66.3655 1337 36.565
66.483 1455 38.1445
66.6005 1428 37.7889
66.718 1419 37.6696
66.8355 1434 37.8682
66.953 1312 36.2215
67.0705 1279 35.7631
67.1879 1274 35.6931
67.3054 1208 34.7563
67.4228 1164 34.1174
67.5402 1087 32.9697
67.6576 1112 33.3467
67.7749 1189 34.4819
67.8923 1273 35.6791
68.0096 1307 36.1525
68.1269 1364 36.9324
68.2442 1352 36.7696
68.3614 1376 37.0945
68.4787 1339 36.5923
68.5958 1335 36.5377
68.713 1309 36.1801
68.8302 1186 34.4384
68.9473 1154 33.9706
69.0643 1076 32.8024
69.1814 959 30.9677
69.2984 971 31.1609
69.4154 1078 32.8329
69.5323 1203 34.6843
69.6492 1202 34.6699
69.7661 1296 36
69.8829 1297 36.0139
69.9997 1275 35.7071
70.1165 1228 35.0428
70.2332 1156 34
70.3499 1148 33.8821
70.4665 1093 33.0606
70.5831 983 31.3528
70.6996 1006 31.7175
70.8161 908 30.133
70.9326 865 29.4109
71.049 784 28
71.1653 636 25.219
71.2817 569 23.8537
71.3979 480 21.9089
71.5141 520 22.8035
71.6303 488 22.0907
71.7464 462 21.4942
71.8624 0 1
71.9784 0 1
72.0944 0 1
72.2102 0 1
72.3261 0 1
72.4418 0 1
72.5575 0 1
72.6732 0 1
75.1054 0 1
75.2209 0 1
75.3365 0 1
75.4521 0 1
75.5678 0 1
75.6835 0 1
75.7993 0 1
75.9151 0 1
76.031 0 1
76.147 808 28.4253
76.263 869 29.4788
76.3791 866 29.4279
76.4952 817 28.5832
76.6113 882 29.6985
76.7276 919 30.315
76.8438 1017 31.8904
76.9601 1132 33.6452
77.0765 1162 34.0881
77.1929 1212 34.8138
77.3093 1171 34.2199
77.4258 1194 34.5543
77.5423 1121 33.4813
77.6589 1126 33.5559
77.7755 998 31.5911
77.8921 958 30.9516
78.0088 864 29.3939
78.1256 806 28.3901
78.2423 797 28.2312
78.3591 884 29.7321
78.4759 980 31.305
78.5928 1041 32.2645
78.7097 1051 32.4191
78.8266 1144 33.8231
78.9436 1085 32.9393
79.0606 1198 34.6121
79.1776 1212 34.8138
79.2946 1201 34.6554
79.4117 1214 34.8425
79.5288 1242 35.242
79.6459 1226 35.0143
79.7631 1122 33.4963
79.8802 1137 33.7194
79.9974 996 31.5595
80.1147 983 31.3528
80.2319 945 30.7409
80.3491 993 31.5119
80.4664 1067 32.665
80.5837 1193 34.5398
80.701 1178 34.322
80.8183 1187 34.4529
80.9357 1257 35.4542
81.053 1202 34.6699
81.1704 1205 34.7131
81.2877 1205 34.7131
81.4051 1139 33.7491
81.5225 1064 32.619
81.6399 1024 32
81.7573 930 30.4959
81.8747 848 29.1204
81.9922 825 28.7228
82.1096 941 30.6757
82.227 1052 32.4345
82.3444 1110 33.3167
82.4619 1132 33.6452
82.5793 1169 34.1906
82.6967 1240 35.2136
82.8142 1238 35.1852
82.9316 1232 35.0999
83.049 1283 35.819
83.1664 1288 35.8887
83.2838 1228 35.0428
83.4012 1174 34.2637
83.5186 1211 34.7994
83.636 1070 32.7109
83.7534 1072 32.7414
83.8708 966 31.0805
83.9881 972 31.1769
84.1055 1034 32.1559
84.2228 1015 31.8591
84.3401 1222 34.9571
84.4575 1266 35.5809
84.5747 1279 35.7631
84.692 1198 34.6121
84.8093 1326 36.4143
84.9265 1177 34.3074
85.0437 1158 34.0294
85.1609 1031 32.1092
85.2781 933 30.545
85.3952 827 28.7576
85.5123 901 30.0167
85.6294 885 29.7489
85.7465 968 31.1127
85.8636 1096 33.1059
85.9806 1091 33.0303
86.0976 1126 33.5559
86.2145 1248 35.327
86.3315 1178 34.322
86.4484 1308 36.1663
86.5652 1236 35.1568
86.682 1261 35.5106
86.7988 1299 36.0416
86.9156 1235 35.1426
87.0323 1241 35.2278
87.149 1162 34.0881
87.2657 1081 32.8786
87.3823 989 31.4484
87.4988 868 29.4618
87.6154 867 29.4449
87.7318 927 30.4467
87.8483 936 30.5941
87.9647 962 31.0161
88.081 903 30.05
88.1973 989 31.4484
88.3136 969 31.1288
88.4298 864 29.3939
88.546 891 29.8496
88.6621 671 25.9037
88.7781 554 23.5372
88.8942 0 1
89.0101 0 1
89.126 0 1
89.2419 0 1
89.3577 0 1
89.4734 0 1
89.5891 0 1
89.7047 0 1
89.8203 0 1
89.9358 0 1
92.3269 0 1
92.4424 0 1
92.558 0 1
92.6736 0 1
92.7893 0 1
92.905 0 1
93.0208 0 1
93.1366 0 1
93.2525 0 1
93.3685 0 1
93.4845 0 1
93.6005 970 31.1448
93.7167 1054 32.4654
93.8328 1048 32.3728
93.949 1082 32.8938
94.0653 1060 32.5576
94.1816 1052 32.4345
94.2979 1022 31.9687
94.4143 935 30.5778
94.5307 931 30.5123
94.6472 881 29.6816
94.7637 950 30.8221
94.8803 1023 31.9844
94.9969 1139 33.7491
95.1135 1172 34.2345
95.2302 1175 34.2783
95.3469 1218 34.8999
95.4637 1208 34.7563
95.5805 1257 35.4542
95.6973 1283 35.819
95.8142 1269 35.623
95.9311 1305 36.1248
96.048 1278 35.7491
96.1649 1207 34.7419
96.2819 1218 34.8999
96.3989 1173 34.2491
96.516 1122 33.4963
96.633 1061 32.573
96.7501 1033 32.1403
96.8673 1024 32
96.9844 1119 33.4515
97.1016 1121 33.4813
97.2188 1237 35.171
97.336 1343 36.647
97.4532 1243 35.2562
97.5704 1331 36.4829
97.6877 1210 34.7851
97.805 1300 36.0555
97.9223 1154 33.9706
98.0396 1014 31.8434
98.1569 959 30.9677
98.2743 927 30.4467
98.3916 932 30.5287
98.509 1060 32.5576
98.6264 1100 33.1662
98.7438 1177 34.3074
98.8612 1251 35.3695
98.9786 1267 35.5949
99.096 1303 36.0971
99.2134 1293 35.9583
99.3308 1338 36.5787
99.4482 1294 35.9722
99.5656 1388 37.2559
99.6831 1347 36.7015
99.8005 1280 35.7771
99.9179 1312 36.2215
100.035 1182 34.3802
100.153 1231 35.0856
100.27 1115 33.3916
100.388 1172 34.2345
100.505 1122 33.4963
100.622 1240 35.2136
100.74 1323 36.3731
100.857 1399 37.4032
100.975 1341 36.6197
101.092 1350 36.7423
101.209 1358 36.8511
101.327 1350 36.7423
101.444 1314 36.2491
101.561 1157 34.0147
101.679 1030 32.0936
101.796 1018 31.9061
101.913 946 30.7571
102.03 1028 32.0624
102.148 1113 33.3617
102.265 1203 34.6843
102.382 1278 35.7491
102.499 1336 36.5513
102.616 1332 36.4966
102.733 1345 36.6742
102.851 1422 37.7094
102.968 1410 37.55
103.085 1391 37.2961
103.202 1388 37.2559
103.319 1423 37.7227
103.436 1388 37.2559
103.552 1326 36.4143
103.669 1218 34.8999
103.786 1162 34.0881
103.903 1168 34.176
104.02 1199 34.6266
104.137 1335 36.5377
104.253 1327 36.428
104.37 1468 38.3145
104.487 1540 39.2428
104.603 1369 37
104.72 1464 38.2623
104.836 1385 37.2156
104.953 1326 36.4143
105.069 1170 34.2053
105.186 999 31.607
105.302 905 30.0832
105.418 858 29.2916
105.535 850 29.1548
105.651 846 29.0861
105.767 903 30.05
105.883 863 29.3769
105.999 875 29.5804
106.115 0 1
106.231 0 1
106.347 0 1
106.463 0 1
106.579 0 1
106.694 0 1
106.81 0 1
106.926 0 1
107.041 0 1
107.157 0 1
109.576 0 1
109.692 0 1
109.807 0 1
109.923 0 1
110.039 0 1
110.155 0 1
110.27 0 1
110.386 0 1
110.502 0 1
110.618 629 25.0799
110.735 794 28.178
110.851 937 30.6105
110.967 1017 31.8904
111.083 1125 33.541
111.199 1214 34.8425
111.316 1205 34.7131
111.432 1254 35.4119
111.549 1318 36.3043
111.665 1305 36.1248
111.782 1358 36.8511
111.898 1306 36.1386
112.015 1316 36.2767
112.132 1185 34.4238
112.248 1147 33.8674
112.365 1172 34.2345
112.482 1063 32.6037
112.599 1242 35.242
112.716 1245 35.2846
112.832 1398 37.3898
112.949 1366 36.9594
113.066 1347 36.7015
113.183 1373 37.054
113.3 1414 37.6032
113.417 1276 35.7211
113.534 1179 34.3366
113.652 1119 33.4515
113.769 1018 31.9061
113.886 1020 31.9374
114.003 911 30.1828
114.12 1044 32.311
114.238 1132 33.6452
114.355 1195 34.5688
114.472 1210 34.7851
114.589 1396 37.3631
114.707 1314 36.2491
114.824 1317 36.2905
114.942 1411 37.5633
115.059 1314 36.2491
115.176 1366 36.9594
115.294 1349 36.7287
115.411 1369 37
115.529 1248 35.327
115.646 1325 36.4005
115.764 1239 35.1994
115.881 1113 33.3617
115.999 1093 33.0606
116.116 1167 34.1614
116.234 1276 35.7211
116.351 1263 35.5387
116.469 1367 36.973
116.586 1339 36.5923
116.704 1429 37.8021
116.821 1397 37.3765
116.939 1434 37.8682
117.056 1292 35.9444
117.174 1171 34.2199
117.291 1059 32.5423
117.409 968 31.1127
117.526 903 30.05
117.644 969 31.1288
117.761 1058 32.5269
117.879 1132 33.6452
117.996 1138 33.7343
118.114 1182 34.3802
118.231 1282 35.805
118.349 1263 35.5387
118.466 1305 36.1248
118.584 1293 35.9583
118.701 1308 36.1663
118.819 1240 35.2136
118.936 1235 35.1426
119.053 1155 33.9853
119.171 1222 34.9571
119.288 1135 33.6898
119.405 1070 32.7109
119.523 1089 33
119.64 1071 32.7261
119.757 1077 32.8177
119.875 1091 33.0303
119.992 1205 34.7131
120.109 1230 35.0714
120.226 1268 35.609
120.343 1224 34.9857
120.46 1246 35.2987
120.578 1253 35.3977
120.695 1241 35.2278
120.812 1151 33.9264
120.929 971 31.1609
121.046 909 30.1496
121.163 871 29.5127
121.279 817 28.5832
121.396 861 29.3428
121.513 961 31
121.63 918 30.2985
121.747 984 31.3688
121.863 959 30.9677
121.98 1018 31.9061
122.097 968 31.1127
122.213 1015 31.8591
122.33 875 29.5804
122.446 916 30.2655
122.563 911 30.1828
122.679 872 29.5296
122.795 770 27.7489
122.912 682 26.1151
123.028 620 24.8998
123.144 552 23.4947
123.26 508 22.5389
123.377 0 1
123.493 0 1
123.609 0 1
123.725 0 1
123.84 0 1
123.956 0 1
124.072 0 1
124.188 0 1
124.303 0 1
124.419 0 1
126.852 0 1
126.968 0 1
127.083 0 1
127.199 0 1
127.315 0 1
127.431 0 1
127.547 0 1
127.663 0 1
127.779 0 1
127.895 0 1
128.011 0 1
128.127 0 1
128.243 0 1
128.359 1136 33.7046
128.476 1197 34.5977
128.592 1164 34.1174
128.708 1204 34.6987
128.825 1193 34.5398
128.941 1201 34.6554
129.058 1329 36.4555
129.174 1350 36.7423
129.291 1389 37.2693
129.408 1366 36.9594
129.524 1401 37.4299
129.641 1441 37.9605
129.758 1299 36.0416
129.875 1205 34.7131
129.992 1143 33.8083
130.108 1019 31.9218
130.225 980 31.305
130.342 1019 31.9218
130.459 1073 32.7567
130.576 1125 33.541
130.693 1215 34.8569
130.81 1247 35.3129
130.928 1265 35.5668
131.045 1371 37.027
131.162 1308 36.1663
131.279 1382 37.1753
131.396 1367 36.973
131.513 1299 36.0416
131.631 1376 37.0945
131.748 1361 36.8917
131.865 1249 35.3412
131.983 1274 35.6931
132.1 1245 35.2846
132.217 1198 34.6121
132.335 1159 34.0441
132.452 1263 35.5387
132.57 1271 35.6511
132.687 1409 37.5366
132.804 1391 37.2961
132.922 1342 36.6333
133.039 1440 37.9473
133.157 1397 37.3765
133.274 1390 37.2827
133.392 1347 36.7015
133.509 1223 34.9714
133.627 1096 33.1059
133.744 1064 32.619
133.862 1028 32.0624
133.979 1169 34.1906
134.097 1176 34.2929
134.214 1242 35.242
134.332 1262 35.5246
134.449 1290 35.9166
134.567 1358 36.8511
134.684 1367 36.973
134.802 1399 37.4032
134.919 1390 37.2827
135.037 1365 36.9459
135.154 1323 36.3731
135.272 1308 36.1663
135.389 1327 36.428
135.507 1364 36.9324
135.624 1264 35.5528
135.742 1226 35.0143
135.859 1205 34.7131
135.977 1205 34.7131
136.094 1325 36.4005
136.211 1303 36.0971
136.329 1332 36.4966
136.446 1399 37.4032
136.564 1430 37.8153
136.681 1417 37.6431
136.798 1349 36.7287
136.915 1368 36.9865
137.033 1299 36.0416
137.15 1171 34.2199
137.267 1049 32.3883
137.384 1083 32.909
137.502 1016 31.8748
137.619 1063 32.6037
137.736 1113 33.3617
137.853 1199 34.6266
137.97 1285 35.8469
138.087 1197 34.5977
138.204 1205 34.7131
138.321 1344 36.6606
138.438 1319 36.318
138.555 1354 36.7967
138.672 1340 36.606
138.788 1315 36.2629
138.905 1257 35.4542
139.022 1200 34.641
139.139 1093 33.0606
139.255 1069 32.6956
139.372 961 31
139.488 979 31.289
139.605 880 29.6648
139.721 895 29.9166
139.838 930 30.4959
139.954 910 30.1662
140.071 853 29.2062
140.187 781 27.9464
140.303 769 27.7308
140.419 705 26.5518
140.535 701 26.4764
140.652 563 23.7276
140.768 0 1
140.884 0 1
141 0 1
141.115 0 1
141.231 0 1
141.347 0 1
141.463 0 1
141.578 0 1
141.694 0 1
144.104 0 1
144.219 0 1
144.335 0 1
144.45 0 1
144.566 0 1
144.682 0 1
144.798 0 1
144.914 0 1
145.03 0 1
145.146 1015 31.8591
145.262 1057 32.5115
145.378 1104 33.2265
145.494 1143 33.8083
145.61 1045 32.3265
145.726 1046 32.3419
145.842 981 31.3209
145.959 1011 31.7962
146.075 856 29.2575
146.192 905 30.0832
146.308 878 29.6311
146.425 912 30.1993
146.541 946 30.7571
146.658 947 30.7734
146.774 931 30.5123
146.891 1014 31.8434
147.008 1076 32.8024
147.125 1040 32.249
147.241 1064 32.619
147.358 1087 32.9697
147.475 1111 33.3317
147.592 1064 32.619
147.709 1033 32.1403
147.826 1030 32.0936
147.943 966 31.0805
148.06 990 31.4643
148.177 975 31.225
148.294 938 30.6268
148.411 972 31.1769
148.528 1064 32.619
148.645 1103 33.2114
148.762 1061 32.573
148.88 1071 32.7261
148.997 1081 32.8786
149.114 1087 32.9697
149.231 1050 32.4037
149.349 1077 32.8177
149.466 1068 32.6803
149.583 993 31.5119
149.701 906 30.0998
149.818 879 29.6479
149.935 835 28.8964
150.053 863 29.3769
150.17 899 29.9833
150.287 936 30.5941
150.405 936 30.5941
150.522 976 31.241
150.64 937 30.6105
150.757 1033 32.1403
150.875 1080 32.8634
150.992 1058 32.5269
151.11 1028 32.0624
151.227 1029 32.078
151.344 1016 31.8748
151.462 965 31.0644
151.579 995 31.5436
151.697 875 29.5804
151.814 883 29.7153
151.932 926 30.4302
152.049 926 30.4302
152.167 966 31.0805
152.284 975 31.225
152.402 1007 31.7333
152.519 1042 32.28
152.636 1062 32.5883
152.754 1058 32.5269
152.871 1060 32.5576
152.989 1039 32.2335
153.106 993 31.5119
153.223 944 30.7246
153.341 879 29.6479
153.458 876 29.5973
153.575 829 28.7924
153.693 804 28.3549
153.81 884 29.7321
153.927 858 29.2916
154.044 917 30.282
154.162 931 30.5123
154.279 885 29.7489
154.396 924 30.3974
154.513 953 30.8707
154.63 956 30.9192
154.747 941 30.6757
154.864 966 31.0805
154.981 943 30.7083
155.098 940 30.6594
155.215 855 29.2404
155.332 871 29.5127
155.449 870 29.4958
155.566 837 28.931
155.683 903 30.05
155.8 916 30.2655
155.917 898 29.9666
156.033 841 29
156.15 0 1
156.267 0 1
156.383 0 1
156.5 0 1
156.617 0 1
156.733 0 1
156.85 0 1
156.966 0 1
157.082 0 1
157.199 0 1
157.315 0 1
157.431 0 1
157.547 0 1
157.664 0 1
157.78 0 1
157.896 0 1
158.012 0 1
158.128 0 1
158.244 0 1
158.359 0 1
158.475 0 1
158.591 0 1
158.706 0 1
