
6.15755 0 1
6.2731 0 1
6.3887 0 1
6.50437 0 1
6.62009 0 1
6.73587 0 1
6.8517 0 1
6.96759 0 1
7.08353 0 1
7.19952 0 1
7.31557 0 1
7.43166 0 1
7.54781 0 1
7.664 0 1
7.78024 0 1
7.89653 0 1
8.01286 0 1
8.12924 0 1
8.24567 0 1
8.36213 0 1
8.47864 0 1
8.59519 0 1
8.71178 0 1
8.82841 0 1
8.94508 0 1
9.06179 0 1
9.17853 0 1
9.29531 0 1
9.41212 0 1
9.52897 0 1
9.64584 0 1
9.76276 0 1
9.8797 0 1
9.99667 0 1
10.1137 0 1
10.2307 0 1
10.3478 0 1
10.4648 0 1
10.5819 0 1
10.6991 0 1
10.8162 0 1
10.9334 0 1
11.0506 0 1
11.1678 0 1
11.285 0 1
11.4023 0 1
11.5196 0 1
11.6369 0 1
11.7542 0 1
11.8715 0 1
11.9888 0 1
12.1062 0 1
12.2235 0 1
12.3409 0 1
12.4582 0 1
12.5756 0 1
12.693 0 1
12.8104 0 1
12.9278 0 1
13.0452 0 1
13.1626 0 1
13.28 0 1
13.3974 0 1
13.5149 0 1
13.6323 0 1
13.7497 0 1
13.8671 0 1
13.9845 0 1
14.1019 0 1
14.2193 0 1
14.3367 0 1
14.4541 0 1
14.5714 0 1
14.6888 0 1
14.8062 0 1
14.9235 0 1
15.0408 836 28.9137
15.1581 861 29.3428
15.2755 828 28.775
15.3927 819 28.6182
15.51 907 30.1164
15.6273 884 29.7321
15.7445 894 29.8998
15.8617 848 29.1204
15.9789 774 27.8209
16.0961 848 29.1204
16.2132 758 27.5318
16.3304 780 27.9285
16.4475 800 28.2843
16.5646 796 28.2135
16.6816 802 28.3196
16.7986 800 28.2843
16.9156 754 27.4591
17.0326 747 27.3313
17.1496 770 27.7489
17.2665 774 27.8209
17.3833 782 27.9643
17.5002 771 27.7669
17.617 816 28.5657
17.7338 792 28.1425
17.8505 818 28.6007
17.9672 847 29.1033
18.0839 793 28.1603
18.2005 790 28.1069
18.3171 739 27.1846
18.4337 753 27.4408
18.5502 711 26.6646
18.6666 827 28.7576
18.7831 802 28.3196
18.8994 784 28
19.0158 735 27.1109
19.1321 753 27.4408
19.2483 745 27.2947
19.3645 712 26.6833
19.4806 626 25.02
19.5967 628 25.0599
19.7128 562 23.7065
19.8288 500 22.3607
19.9447 446 21.1187
20.0606 0 1
20.1764 0 1
20.2922 0 1
20.4079 0 1
20.5236 0 1
20.6392 0 1
20.7548 0 1
20.8702 0 1
23.3078 0 1
23.4233 0 1
23.539 0 1
23.6547 0 1
23.7704 0 1
23.8862 0 1
24.0021 0 1
24.118 0 1
24.234 0 1
24.35 0 1
24.4661 331 18.1934
24.5822 377 19.4165
24.6984 416 20.3961
24.8146 506 22.4944
24.9309 566 23.7908
25.0472 615 24.7992
25.1636 675 25.9808
25.28 753 27.4408
25.3965 747 27.3313
25.513 780 27.9285
25.6296 803 28.3373
25.7462 841 29
25.8628 870 29.4958
25.9795 849 29.1376
26.0962 805 28.3725
26.213 809 28.4429
26.3298 771 27.7669
26.4466 705 26.5518
26.5635 713 26.7021
26.6804 700 26.4575
26.7973 647 25.4362
26.9143 617 24.8395
27.0313 596 24.4131
27.1483 666 25.807
27.2653 667 25.8263
27.3824 684 26.1534
27.4996 695 26.3629
27.6167 800 28.2843
27.7339 717 26.7769
27.8511 720 26.8328
27.9683 739 27.1846
28.0855 721 26.8514
28.2028 697 26.4008
28.3201 699 26.4386
28.4374 645 25.3969
28.5547 675 25.9808
28.6721 719 26.8142
28.7894 709 26.6271
28.9068 720 26.8328
29.0242 701 26.4764
29.1416 729 27
29.259 684 26.1534
29.3764 692 26.3059
29.4939 689 26.2488
29.6113 702 26.4953
29.7288 698 26.4197
29.8463 677 26.0192
29.9638 658 25.6515
30.0812 606 24.6171
30.1987 608 24.6577
30.3162 605 24.5967
30.4337 639 25.2784
30.5512 617 24.8395
30.6687 650 25.4951
30.7862 700 26.4575
30.9037 721 26.8514
31.0212 737 27.1477
31.1387 692 26.3059
31.2562 753 27.4408
31.3737 785 28.0179
31.4912 690 26.2679
31.6087 689 26.2488
31.7262 695 26.3629
31.8436 644 25.3772
31.9611 682 26.1151
32.0785 624 24.98
32.1959 623 24.96
32.3134 634 25.1794
32.4308 616 24.8193
32.5482 645 25.3969
32.6655 637 25.2389
32.7829 570 23.8747
32.9002 637 25.2389
33.0176 638 25.2587
33.1349 613 24.7588
33.2522 650 25.4951
33.3694 603 24.5561
33.4867 587 24.2281
33.6039 615 24.7992
33.7211 628 25.0599
33.8383 569 23.8537
33.9554 563 23.7276
34.0725 577 24.0208
34.1896 547 23.388
34.3067 577 24.0208
34.4237 657 25.632
34.5407 634 25.1794
34.6577 670 25.8844
34.7746 644 25.3772
34.8915 654 25.5734
35.0084 625 25
35.1252 623 24.96
35.242 640 25.2982
35.3587 635 25.1992
35.4755 545 23.3452
35.5921 580 24.0832
35.7088 581 24.1039
35.8254 536 23.1517
35.9419 568 23.8328
36.0584 647 25.4362
36.1749 609 24.6779
36.2913 591 24.3105
36.4077 523 22.8692
36.524 562 23.7065
36.6403 479 21.8861
36.7565 509 22.561
36.8727 457 21.3776
36.9889 430 20.7364
37.1049 405 20.1246
37.221 0 1
37.3369 0 1
37.4529 0 1
37.5687 0 1
37.6845 0 1
37.8003 0 1
37.916 0 1
38.0316 0 1
38.1472 0 1
40.5851 0 1
40.7008 0 1
40.8164 0 1
40.9322 0 1
41.048 0 1
41.1639 0 1
41.2798 0 1
41.3958 0 1
41.5118 0 1
41.6279 0 1
41.744 260 16.1245
41.8602 346 18.6011
41.9765 355 18.8414
42.0928 397 19.9249
42.2091 416 20.3961
42.3255 440 20.9762
42.4419 428 20.6882
42.5584 439 20.9523
42.675 433 20.8087
42.7915 426 20.6398
42.9081 456 21.3542
43.0248 458 21.4009
43.1415 456 21.3542
43.2582 476 21.8174
43.375 475 21.7945
43.4918 462 21.4942
43.6087 473 21.7486
43.7256 452 21.2603
43.8425 465 21.5639
43.9595 463 21.5174
44.0765 408 20.199
44.1935 445 21.095
44.3106 429 20.7123
44.4277 450 21.2132
44.5448 454 21.3073
44.6619 471 21.7025
44.7791 462 21.4942
44.8963 490 22.1359
45.0136 498 22.3159
45.1308 461 21.4709
45.2481 473 21.7486
45.3654 471 21.7025
45.4827 492 22.1811
45.6001 488 22.0907
45.7174 501 22.383
45.8348 544 23.3238
45.9522 485 22.0227
46.0697 491 22.1585
46.1871 427 20.664
46.3046 418 20.445
46.422 401 20.025
46.5395 414 20.347
46.657 428 20.6882
46.7745 447 21.1424
46.892 461 21.4709
47.0096 506 22.4944
47.1271 478 21.8632
47.2446 440 20.9762
47.3622 499 22.3383
47.4797 466 21.587
47.5973 452 21.2603
47.7149 481 21.9317
47.8324 369 19.2094
47.95 394 19.8494
48.0675 424 20.5913
48.1851 464 21.5407
48.3027 478 21.8632
48.4202 432 20.7846
48.5378 508 22.5389
48.6554 497 22.2935
48.7729 457 21.3776
48.8904 432 20.7846
49.008 504 22.4499
49.1255 505 22.4722
49.243 455 21.3307
49.3605 464 21.5407
49.478 452 21.2603
49.5955 427 20.664
49.713 432 20.7846
49.8304 348 18.6548
49.9479 392 19.799
50.0653 416 20.3961
50.1827 426 20.6398
50.3001 416 20.3961
50.4175 480 21.9089
50.5348 471 21.7025
50.6521 461 21.4709
50.7694 457 21.3776
50.8867 420 20.4939
51.004 422 20.5426
51.1212 414 20.347
51.2384 401 20.025
51.3556 405 20.1246
51.4727 388 19.6977
51.5899 459 21.4243
51.707 439 20.9523
51.824 472 21.7256
51.9411 457 21.3776
52.0581 415 20.3715
52.175 454 21.3073
52.2919 440 20.9762
52.4088 468 21.6333
52.5257 465 21.5639
52.6425 438 20.9284
52.7593 530 23.0217
52.876 449 21.1896
52.9927 431 20.7605
53.1094 441 21
53.226 396 19.8997
53.3426 419 20.4695
53.4591 365 19.105
53.5756 370 19.2354
53.692 368 19.1833
53.8084 369 19.2094
53.9248 332 18.2209
54.0411 322 17.9444
54.1573 346 18.6011
54.2735 0 1
54.3896 0 1
54.5057 0 1
54.6217 0 1
54.7377 0 1
54.8537 0 1
54.9695 0 1
55.0853 0 1
55.2011 0 1
55.3168 0 1
55.4324 0 1
57.824 0 1
57.9396 0 1
58.0553 0 1
58.1711 0 1
58.2869 0 1
58.4028 0 1
58.5187 0 1
58.6347 0 1
58.7508 0 1
58.8669 0 1
58.983 485 22.0227
59.0992 583 24.1454
59.2155 695 26.3629
59.3318 773 27.8029
59.4482 770 27.7489
59.5646 868 29.4618
59.681 888 29.7993
59.7975 812 28.4956
59.9141 863 29.3769
60.0306 860 29.3258
60.1473 923 30.3809
60.2639 952 30.8545
60.3807 901 30.0167
60.4974 933 30.545
60.6142 924 30.3974
60.731 909 30.1496
60.8479 883 29.7153
60.9648 872 29.5296
61.0818 862 29.3598
61.1987 871 29.5127
61.3158 815 28.5482
61.4328 820 28.6356
61.5499 773 27.8029
61.667 755 27.4773
61.7841 722 26.8701
61.9013 678 26.0384
62.0185 716 26.7582
62.1357 611 24.7184
62.253 617 24.8395
62.3702 650 25.4951
62.4875 659 25.671
62.6049 645 25.3969
62.7222 673 25.9422
62.8396 648 25.4558
62.9569 605 24.5967
63.0743 621 24.9199
63.1918 570 23.8747
63.3092 551 23.4734
63.4267 555 23.5584
63.5441 557 23.6008
63.6616 577 24.0208
63.7791 567 23.8118
63.8966 568 23.8328
64.0142 530 23.0217
64.1317 539 23.2164
64.2492 586 24.2074
64.3668 512 22.6274
64.4843 535 23.1301
64.6019 505 22.4722
64.7195 519 22.7816
64.837 505 22.4722
64.9546 537 23.1733
65.0722 558 23.622
65.1898 501 22.383
65.3074 456 21.3542
65.4249 483 21.9773
65.5425 469 21.6564
65.6601 476 21.8174
65.7777 455 21.3307
65.8952 478 21.8632
66.0128 479 21.8861
66.1304 465 21.5639
66.2479 522 22.8473
66.3655 540 23.2379
66.483 551 23.4734
66.6005 529 23
66.718 497 22.2935
66.8355 465 21.5639
66.953 480 21.9089
67.0705 498 22.3159
67.1879 484 22
67.3054 518 22.7596
67.4228 563 23.7276
67.5402 547 23.388
67.6576 515 22.6936
67.7749 513 22.6495
67.8923 549 23.4307
68.0096 532 23.0651
68.1269 508 22.5389
68.2442 516 22.7156
68.3614 529 23
68.4787 508 22.5389
68.5958 506 22.4944
68.713 498 22.3159
68.8302 530 23.0217
68.9473 485 22.0227
69.0643 472 21.7256
69.1814 489 22.1133
69.2984 433 20.8087
69.4154 479 21.8861
69.5323 445 21.095
69.6492 492 22.1811
69.7661 534 23.1084
69.8829 529 23
69.9997 519 22.7816
70.1165 554 23.5372
70.2332 494 22.2261
70.3499 499 22.3383
70.4665 449 21.1896
70.5831 405 20.1246
70.6996 342 18.4932
70.8161 376 19.3907
70.9326 353 18.7883
71.049 353 18.7883
71.1653 340 18.4391
71.2817 275 16.5831
71.3979 270 16.4317
71.5141 247 15.7162
71.6303 243 15.5885
71.7464 180 13.4164
71.8624 0 1
71.9784 0 1
72.0944 0 1
72.2102 0 1
72.3261 0 1
72.4418 0 1
72.5575 0 1
72.6732 0 1
75.1054 0 1
75.2209 0 1
75.3365 0 1
75.4521 0 1
75.5678 0 1
75.6835 0 1
75.7993 0 1
75.9151 0 1
76.031 0 1
76.147 305 17.4642
76.263 320 17.8885
76.3791 375 19.3649
76.4952 407 20.1742
76.6113 404 20.0998
76.7276 435 20.8567
76.8438 453 21.2838
76.9601 451 21.2368
77.0765 485 22.0227
77.1929 427 20.664
77.3093 434 20.8327
77.4258 450 21.2132
77.5423 503 22.4277
77.6589 443 21.0476
77.7755 471 21.7025
77.8921 442 21.0238
78.0088 442 21.0238
78.1256 425 20.6155
78.2423 427 20.664
78.3591 398 19.9499
78.4759 392 19.799
78.5928 422 20.5426
78.7097 458 21.4009
78.8266 417 20.4206
78.9436 469 21.6564
79.0606 443 21.0476
79.1776 433 20.8087
79.2946 431 20.7605
79.4117 454 21.3073
79.5288 433 20.8087
79.6459 435 20.8567
79.7631 409 20.2237
79.8802 473 21.7486
79.9974 469 21.6564
80.1147 513 22.6495
80.2319 495 22.2486
80.3491 472 21.7256
80.4664 470 21.6795
80.5837 463 21.5174
80.701 496 22.2711
80.8183 432 20.7846
80.9357 440 20.9762
81.053 463 21.5174
81.1704 456 21.3542
81.2877 419 20.4695
81.4051 472 21.7256
81.5225 458 21.4009
81.6399 451 21.2368
81.7573 459 21.4243
81.8747 442 21.0238
81.9922 446 21.1187
82.1096 462 21.4942
82.227 431 20.7605
82.3444 439 20.9523
82.4619 410 20.2485
82.5793 449 21.1896
82.6967 478 21.8632
82.8142 475 21.7945
82.9316 469 21.6564
83.049 487 22.0681
83.1664 477 21.8403
83.2838 493 22.2036
83.4012 454 21.3073
83.5186 442 21.0238
83.636 489 22.1133
83.7534 460 21.4476
83.8708 486 22.0454
83.9881 496 22.2711
84.1055 504 22.4499
84.2228 510 22.5832
84.3401 511 22.6053
84.4575 504 22.4499
84.5747 507 22.5167
84.692 488 22.0907
84.8093 469 21.6564
84.9265 465 21.5639
85.0437 471 21.7025
85.1609 460 21.4476
85.2781 491 22.1585
85.3952 461 21.4709
85.5123 478 21.8632
85.6294 443 21.0476
85.7465 474 21.7715
85.8636 406 20.1494
85.9806 434 20.8327
86.0976 447 21.1424
86.2145 498 22.3159
86.3315 509 22.561
86.4484 501 22.383
86.5652 492 22.1811
86.682 479 21.8861
86.7988 460 21.4476
86.9156 479 21.8861
87.0323 471 21.7025
87.149 448 21.166
87.2657 476 21.8174
87.3823 507 22.5167
87.4988 527 22.9565
87.6154 483 21.9773
87.7318 415 20.3715
87.8483 446 21.1187
87.9647 435 20.8567
88.081 385 19.6214
88.1973 401 20.025
88.3136 345 18.5742
88.4298 322 17.9444
88.546 301 17.3494
88.6621 251 15.843
88.7781 301 17.3494
88.8942 0 1
89.0101 0 1
89.126 0 1
89.2419 0 1
89.3577 0 1
89.4734 0 1
89.5891 0 1
89.7047 0 1
89.8203 0 1
89.9358 0 1
92.3269 0 1
92.4424 0 1
92.558 0 1
92.6736 0 1
92.7893 0 1
92.905 0 1
93.0208 0 1
93.1366 0 1
93.2525 0 1
93.3685 0 1
93.4845 0 1
93.6005 401 20.025
93.7167 421 20.5183
93.8328 466 21.587
93.949 508 22.5389
94.0653 481 21.9317
94.1816 520 22.8035
94.2979 488 22.0907
94.4143 471 21.7025
94.5307 507 22.5167
94.6472 487 22.0681
94.7637 482 21.9545
94.8803 506 22.4944
94.9969 464 21.5407
95.1135 445 21.095
95.2302 481 21.9317
95.3469 495 22.2486
95.4637 447 21.1424
95.5805 439 20.9523
95.6973 531 23.0434
95.8142 488 22.0907
95.9311 499 22.3383
96.048 461 21.4709
96.1649 483 21.9773
96.2819 499 22.3383
96.3989 504 22.4499
96.516 492 22.1811
96.633 531 23.0434
96.7501 562 23.7065
96.8673 584 24.1661
96.9844 538 23.1948
97.1016 492 22.1811
97.2188 528 22.9783
97.336 468 21.6333
97.4532 489 22.1133
97.5704 485 22.0227
97.6877 528 22.9783
97.805 487 22.0681
97.9223 562 23.7065
98.0396 509 22.561
98.1569 533 23.0868
98.2743 502 22.4054
98.3916 495 22.2486
98.509 484 22
98.6264 461 21.4709
98.7438 484 22
98.8612 516 22.7156
98.9786 492 22.1811
99.096 500 22.3607
99.2134 527 22.9565
99.3308 556 23.5797
99.4482 539 23.2164
99.5656 529 23
99.6831 513 22.6495
99.8005 517 22.7376
99.9179 522 22.8473
100.035 516 22.7156
100.153 534 23.1084
100.27 546 23.3666
100.388 537 23.1733
100.505 538 23.1948
100.622 563 23.7276
100.74 508 22.5389
100.857 502 22.4054
100.975 504 22.4499
101.092 539 23.2164
101.209 519 22.7816
101.327 493 22.2036
101.444 578 24.0416
101.561 517 22.7376
101.679 549 23.4307
101.796 563 23.7276
101.913 543 23.3024
102.03 490 22.1359
102.148 526 22.9347
102.265 506 22.4944
102.382 526 22.9347
102.499 539 23.2164
102.616 532 23.0651
102.733 511 22.6053
102.851 570 23.8747
102.968 535 23.1301
103.085 570 23.8747
103.202 597 24.4336
103.319 586 24.2074
103.436 507 22.5167
103.552 529 23
103.669 558 23.622
103.786 556 23.5797
103.903 591 24.3105
104.02 611 24.7184
104.137 551 23.4734
104.253 579 24.0624
104.37 561 23.6854
104.487 553 23.516
104.603 577 24.0208
104.72 545 23.3452
104.836 544 23.3238
104.953 565 23.7697
105.069 533 23.0868
105.186 453 21.2838
105.302 412 20.2978
105.418 427 20.664
105.535 385 19.6214
105.651 354 18.8149
105.767 332 18.2209
105.883 315 17.7482
105.999 272 16.4924
106.115 0 1
106.231 0 1
106.347 0 1
106.463 0 1
106.579 0 1
106.694 0 1
106.81 0 1
106.926 0 1
107.041 0 1
107.157 0 1
109.576 0 1
109.692 0 1
109.807 0 1
109.923 0 1
110.039 0 1
110.155 0 1
110.27 0 1
110.386 0 1
110.502 0 1
110.618 298 17.2627
110.735 314 17.72
110.851 361 19
110.967 390 19.7484
111.083 423 20.567
111.199 506 22.4944
111.316 501 22.383
111.432 520 22.8035
111.549 556 23.5797
111.665 566 23.7908
111.782 511 22.6053
111.898 501 22.383
112.015 495 22.2486
112.132 464 21.5407
112.248 453 21.2838
112.365 489 22.1133
112.482 480 21.9089
112.599 529 23
112.716 492 22.1811
112.832 496 22.2711
112.949 494 22.2261
113.066 451 21.2368
113.183 495 22.2486
113.3 463 21.5174
113.417 526 22.9347
113.534 459 21.4243
113.652 464 21.5407
113.769 441 21
113.886 443 21.0476
114.003 470 21.6795
114.12 463 21.5174
114.238 449 21.1896
114.355 429 20.7123
114.472 448 21.166
114.589 416 20.3961
114.707 469 21.6564
114.824 495 22.2486
114.942 457 21.3776
115.059 492 22.1811
115.176 503 22.4277
115.294 491 22.1585
115.411 456 21.3542
115.529 501 22.383
115.646 487 22.0681
115.764 450 21.2132
115.881 452 21.2603
115.999 459 21.4243
116.116 513 22.6495
116.234 440 20.9762
116.351 437 20.9045
116.469 451 21.2368
116.586 399 19.975
116.704 437 20.9045
116.821 414 20.347
116.939 433 20.8087
117.056 464 21.5407
117.174 456 21.3542
117.291 448 21.166
117.409 454 21.3073
117.526 450 21.2132
117.644 467 21.6102
117.761 418 20.445
117.879 431 20.7605
117.996 373 19.3132
118.114 423 20.567
118.231 403 20.0749
118.349 439 20.9523
118.466 419 20.4695
118.584 459 21.4243
118.701 403 20.0749
118.819 442 21.0238
118.936 427 20.664
119.053 491 22.1585
119.171 444 21.0713
119.288 457 21.3776
119.405 426 20.6398
119.523 420 20.4939
119.64 429 20.7123
119.757 445 21.095
119.875 419 20.4695
119.992 421 20.5183
120.109 414 20.347
120.226 430 20.7364
120.343 411 20.2731
120.46 400 20
120.578 421 20.5183
120.695 363 19.0526
120.812 431 20.7605
120.929 417 20.4206
121.046 412 20.2978
121.163 380 19.4936
121.279 387 19.6723
121.396 347 18.6279
121.513 377 19.4165
121.63 354 18.8149
121.747 347 18.6279
121.863 357 18.8944
121.98 344 18.5472
122.097 344 18.5472
122.213 357 18.8944
122.33 335 18.303
122.446 342 18.4932
122.563 316 17.7764
122.679 317 17.8045
122.795 298 17.2627
122.912 234 15.2971
123.028 226 15.0333
123.144 246 15.6844
123.26 213 14.5945
123.377 0 1
123.493 0 1
123.609 0 1
123.725 0 1
123.84 0 1
123.956 0 1
124.072 0 1
124.188 0 1
124.303 0 1
124.419 0 1
126.852 0 1
126.968 0 1
127.083 0 1
127.199 0 1
127.315 0 1
127.431 0 1
127.547 0 1
127.663 0 1
127.779 0 1
127.895 0 1
128.011 0 1
128.127 0 1
128.243 0 1
128.359 373 19.3132
128.476 435 20.8567
128.592 413 20.3224
128.708 426 20.6398
128.825 445 21.095
128.941 450 21.2132
129.058 454 21.3073
129.174 455 21.3307
129.291 468 21.6333
129.408 501 22.383
129.524 483 21.9773
129.641 469 21.6564
129.758 544 23.3238
129.875 613 24.7588
129.992 679 26.0576
130.108 806 28.3901
130.225 849 29.1376
130.342 892 29.8664
130.459 962 31.0161
130.576 997 31.5753
130.693 1277 35.7351
130.81 1848 42.9884
130.928 2476 49.7594
131.045 3489 59.0678
131.162 4599 67.8159
131.279 5658 75.2197
131.396 6921 83.1925
131.513 8309 91.1537
131.631 9901 99.5038
131.748 11420 106.864
131.865 13172 114.769
131.983 15267 123.56
132.1 17018 130.453
132.217 19233 138.683
132.335 21484 146.574
132.452 24373 156.119
132.57 27431 165.623
132.687 30202 173.787
132.804 34534 185.833
132.922 37462 193.551
133.039 41271 203.153
133.157 45011 212.158
133.274 48453 220.12
133.392 51418 226.755
133.509 53323 230.918
133.627 53039 230.302
133.744 50079 223.783
133.862 44635 211.27
133.979 37743 194.276
134.097 34814 186.585
134.214 37209 192.896
134.332 44070 209.929
134.449 51044 225.929
134.567 54377 233.189
134.684 55047 234.621
134.802 54583 233.63
134.919 54978 234.474
135.037 55361 235.289
135.154 55172 234.887
135.272 54072 232.534
135.389 52807 229.798
135.507 51228 226.336
135.624 49922 223.432
135.742 48574 220.395
135.859 47593 218.158
135.977 47034 216.873
136.094 46050 214.593
136.211 45096 212.358
136.329 43924 209.581
136.446 42436 206
136.564 41135 202.818
136.681 40212 200.529
136.798 38556 196.357
136.915 35535 188.507
137.033 30931 175.872
137.15 25937 161.05
137.267 21665 147.19
137.384 18420 135.72
137.502 15824 125.793
137.619 15989 126.448
137.736 18115 134.592
137.853 19218 138.629
137.97 20397 142.818
138.087 19647 140.168
138.204 18552 136.206
138.321 16938 130.146
138.438 14958 122.303
138.555 13721 117.137
138.672 13359 115.581
138.788 12467 111.656
138.905 10938 104.585
139.022 9531 97.6268
139.139 8520 92.3038
139.255 8336 91.3017
139.372 7724 87.8863
139.488 7034 83.8689
139.605 6561 81
139.721 6168 78.5366
139.838 5986 77.3692
139.954 5648 75.1532
140.071 5431 73.6953
140.187 5082 71.2881
140.303 4598 67.8086
140.419 4366 66.0757
140.535 4161 64.5058
140.652 3883 62.3137
140.768 0 1
140.884 0 1
141 0 1
141.115 0 1
141.231 0 1
141.347 0 1
141.463 0 1
141.578 0 1
141.694 0 1
144.104 0 1
144.219 0 1
144.335 0 1
144.45 0 1
144.566 0 1
144.682 0 1
144.798 0 1
144.914 0 1
145.03 0 1
145.146 2780 52.7257
145.262 3038 55.1181
145.378 3055 55.2721
145.494 3090 55.5878
145.61 3116 55.8211
145.726 3195 56.5243
145.842 3107 55.7405
145.959 3027 55.0182
146.075 2990 54.6809
146.192 3125 55.9017
146.308 3057 55.2901
146.425 3214 56.6922
146.541 3413 58.4209
146.658 3414 58.4294
146.774 3083 55.5248
146.891 2446 49.4571
147.008 2573 50.7247
147.125 3717 60.9672
147.241 4735 68.8113
147.358 5292 72.7461
147.475 5633 75.0533
147.592 5809 76.2168
147.709 5993 77.4145
147.826 6231 78.9367
147.943 6295 79.341
148.06 6247 79.038
148.177 6278 79.2338
148.294 6359 79.7433
148.411 6383 79.8937
148.528 6361 79.7559
148.645 6335 79.5927
148.762 6282 79.2591
148.88 6222 78.8797
148.997 6270 79.1833
149.114 6273 79.2023
149.231 6003 77.479
149.349 6039 77.711
149.466 5737 75.743
149.583 5642 75.1132
149.701 5575 74.6659
149.818 5383 73.3689
149.935 5335 73.0411
150.053 4907 70.05
150.17 4932 70.2282
150.287 4496 67.0522
150.405 3569 59.7411
150.522 2251 47.4447
150.64 1985 44.5533
150.757 2613 51.1175
150.875 3221 56.7539
150.992 3227 56.8067
151.11 3072 55.4256
151.227 2894 53.7959
151.344 2791 52.8299
151.462 2648 51.4587
151.579 2578 50.774
151.697 2441 49.4065
151.814 2527 50.2693
151.932 2399 48.9796
152.049 2355 48.5283
152.167 2445 49.4469
152.284 2372 48.7032
152.402 2364 48.621
152.519 2405 49.0408
152.636 2289 47.8435
152.754 2324 48.2079
152.871 2301 47.9687
152.989 2250 47.4342
153.106 2192 46.8188
153.223 2210 47.0106
153.341 2223 47.1487
153.458 2191 46.8081
153.575 2175 46.6369
153.693 2088 45.6946
153.81 2084 45.6508
153.927 1962 44.2945
154.044 1713 41.3884
154.162 1420 37.6829
154.279 1470 38.3406
154.396 1663 40.7799
154.513 1919 43.8064
154.63 1923 43.852
154.747 1926 43.8862
154.864 1969 44.3734
154.981 1845 42.9535
155.098 1820 42.6615
155.215 1899 43.5775
155.332 1772 42.0951
155.449 1919 43.8064
155.566 1891 43.4856
155.683 1858 43.1045
155.8 1811 42.5558
155.917 1845 42.9535
156.033 1833 42.8135
156.15 0 1
156.267 0 1
156.383 0 1
156.5 0 1
156.617 0 1
156.733 0 1
156.85 0 1
156.966 0 1
157.082 0 1
157.199 0 1
157.315 0 1
157.431 0 1
157.547 0 1
157.664 0 1
157.78 0 1
157.896 0 1
158.012 0 1
158.128 0 1
158.244 0 1
158.359 0 1
158.475 0 1
158.591 0 1
158.706 0 1
