
6.15755 0 1
6.2731 0 1
6.3887 0 1
6.50437 0 1
6.62009 0 1
6.73587 0 1
6.8517 0 1
6.96759 0 1
7.08353 0 1
7.19952 0 1
7.31557 0 1
7.43166 0 1
7.54781 0 1
7.664 0 1
7.78024 0 1
7.89653 0 1
8.01286 0 1
8.12924 0 1
8.24567 0 1
8.36213 0 1
8.47864 0 1
8.59519 0 1
8.71178 0 1
8.82841 0 1
8.94508 0 1
9.06179 0 1
9.17853 0 1
9.29531 0 1
9.41212 0 1
9.52897 0 1
9.64584 0 1
9.76276 0 1
9.8797 0 1
9.99667 0 1
10.1137 0 1
10.2307 0 1
10.3478 0 1
10.4648 0 1
10.5819 0 1
10.6991 0 1
10.8162 0 1
10.9334 0 1
11.0506 0 1
11.1678 0 1
11.285 0 1
11.4023 0 1
11.5196 0 1
11.6369 0 1
11.7542 0 1
11.8715 0 1
11.9888 0 1
12.1062 0 1
12.2235 0 1
12.3409 0 1
12.4582 0 1
12.5756 0 1
12.693 0 1
12.8104 0 1
12.9278 0 1
13.0452 0 1
13.1626 0 1
13.28 0 1
13.3974 0 1
13.5149 0 1
13.6323 0 1
13.7497 0 1
13.8671 0 1
13.9845 0 1
14.1019 0 1
14.2193 0 1
14.3367 0 1
14.4541 0 1
14.5714 0 1
14.6888 0 1
14.8062 0 1
14.9235 0 1
15.0408 3268 57.1664
15.1581 3470 58.9067
15.2755 3636 60.2993
15.3927 3568 59.7327
15.51 3602 60.0167
15.6273 3608 60.0666
15.7445 3739 61.1474
15.8617 3651 60.4235
15.9789 3698 60.8112
16.0961 3679 60.6548
16.2132 3688 60.7289
16.3304 3769 61.3922
16.4475 3759 61.3107
16.5646 3741 61.1637
16.6816 3824 61.8385
16.7986 3807 61.7009
16.9156 3873 62.2334
17.0326 3907 62.506
17.1496 3789 61.5549
17.2665 3850 62.0484
17.3833 3953 62.8729
17.5002 3873 62.2334
17.617 3877 62.2656
17.7338 4002 63.2614
17.8505 3822 61.8223
17.9672 3521 59.338
18.0839 3478 58.9746
18.2005 3456 58.7878
18.3171 3538 59.4811
18.4337 3752 61.2536
18.5502 3988 63.1506
18.6666 4286 65.4675
18.7831 4464 66.8132
18.8994 4494 67.0373
19.0158 4572 67.6166
19.1321 4461 66.7907
19.2483 4483 66.9552
19.3645 4525 67.2681
19.4806 4491 67.0149
19.5967 4396 66.3023
19.7128 4516 67.2012
19.8288 4259 65.261
19.9447 3734 61.1065
20.0606 0 1
20.1764 0 1
20.2922 0 1
20.4079 0 1
20.5236 0 1
20.6392 0 1
20.7548 0 1
20.8702 0 1
23.3078 0 1
23.4233 0 1
23.539 0 1
23.6547 0 1
23.7704 0 1
23.8862 0 1
24.0021 0 1
24.118 0 1
24.234 0 1
24.35 0 1
24.4661 4808 69.3397
24.5822 4758 68.9783
24.6984 4733 68.7968
24.8146 4712 68.644
24.9309 4789 69.2026
25.0472 4747 68.8985
25.1636 4611 67.9043
25.28 4656 68.2349
25.3965 4669 68.3301
25.513 4601 67.8307
25.6296 4782 69.152
25.7462 4926 70.1855
25.8628 4991 70.647
25.9795 4982 70.5833
26.0962 5208 72.1665
26.213 5109 71.4773
26.3298 5097 71.3933
26.4466 5043 71.0141
26.5635 4955 70.3918
26.6804 4834 69.527
26.7973 4571 67.6092
26.9143 4491 67.0149
27.0313 4401 66.34
27.1483 4425 66.5207
27.2653 4537 67.3573
27.3824 4883 69.8785
27.4996 4918 70.1285
27.6167 5019 70.8449
27.7339 4991 70.647
27.8511 4954 70.3847
27.9683 4893 69.95
28.0855 4926 70.1855
28.2028 5056 71.1056
28.3201 4826 69.4694
28.4374 4760 68.9928
28.5547 4837 69.5485
28.6721 4879 69.8498
28.7894 4631 68.0515
28.9068 4594 67.7791
29.0242 4689 68.4763
29.1416 4754 68.9493
29.259 4923 70.1641
29.3764 4908 70.0571
29.4939 4894 69.9571
29.6113 5055 71.0985
29.7288 5083 71.2952
29.8463 5123 71.5751
29.9638 4985 70.6045
30.0812 4941 70.2922
30.1987 4861 69.7209
30.3162 4762 69.0072
30.4337 4534 67.335
30.5512 4342 65.8939
30.6687 4322 65.7419
30.7862 4485 66.9701
30.9037 4512 67.1714
31.0212 4817 69.4046
31.1387 4823 69.4478
31.2562 5248 72.4431
31.3737 4921 70.1498
31.4912 5044 71.0211
31.6087 5012 70.7955
31.7262 5021 70.859
31.8436 4904 70.0286
31.9611 4978 70.5549
32.0785 4973 70.5195
32.1959 4660 68.2642
32.3134 4721 68.7095
32.4308 4710 68.6294
32.5482 4792 69.2243
32.6655 4759 68.9855
32.7829 4860 69.7137
32.9002 4990 70.6399
33.0176 5138 71.6798
33.1349 5199 72.1041
33.2522 5107 71.4633
33.3694 4962 70.4415
33.4867 5161 71.8401
33.6039 5244 72.4155
33.7211 4971 70.5053
33.8383 4881 69.8642
33.9554 4810 69.3542
34.0725 4556 67.4981
34.1896 4323 65.7495
34.3067 4429 66.5507
34.4237 4317 65.7039
34.5407 4544 67.4092
34.6577 4665 68.3008
34.7746 4670 68.3374
34.8915 4719 68.695
35.0084 4744 68.8767
35.1252 4907 70.05
35.242 4881 69.8642
35.3587 4965 70.4628
35.4755 4913 70.0928
35.5921 4826 69.4694
35.7088 5006 70.7531
35.8254 4856 69.685
35.9419 4583 67.6979
36.0584 4684 68.4398
36.1749 4643 68.1396
36.2913 4545 67.4166
36.4077 4608 67.8823
36.524 4780 69.1375
36.6403 4846 69.6132
36.7565 4914 70.0999
36.8727 4998 70.6965
36.9889 4962 70.4415
37.1049 4888 69.9142
37.221 0 1
37.3369 0 1
37.4529 0 1
37.5687 0 1
37.6845 0 1
37.8003 0 1
37.916 0 1
38.0316 0 1
38.1472 0 1
40.5851 0 1
40.7008 0 1
40.8164 0 1
40.9322 0 1
41.048 0 1
41.1639 0 1
41.2798 0 1
41.3958 0 1
41.5118 0 1
41.6279 0 1
41.744 3989 63.1585
41.8602 4155 64.4593
41.9765 4272 65.3605
42.0928 4289 65.4905
42.2091 4286 65.4675
42.3255 4324 65.7571
42.4419 4202 64.8228
42.5584 4192 64.7457
42.675 4154 64.4515
42.7915 4010 63.3246
42.9081 3862 62.145
43.0248 3924 62.6418
43.1415 3894 62.4019
43.2582 3878 62.2736
43.375 3865 62.1691
43.4918 3930 62.6897
43.6087 4066 63.7652
43.7256 3972 63.0238
43.8425 3995 63.206
43.9595 3957 62.9047
44.0765 3928 62.6738
44.1935 3868 62.1932
44.3106 3961 62.9365
44.4277 3883 62.3137
44.5448 3744 61.1882
44.6619 3536 59.4643
44.7791 3579 59.8247
44.8963 3466 58.8727
45.0136 3536 59.4643
45.1308 3484 59.0254
45.2481 3581 59.8415
45.3654 3559 59.6574
45.4827 3491 59.0847
45.6001 3615 60.1249
45.7174 3555 59.6238
45.8348 3494 59.1101
45.9522 3573 59.7746
46.0697 3445 58.6941
46.1871 3397 58.2838
46.3046 3404 58.3438
46.422 3341 57.8014
46.5395 3186 56.4447
46.657 3146 56.0892
46.7745 3059 55.3082
46.892 3114 55.8032
47.0096 3079 55.4887
47.1271 3164 56.2494
47.2446 3189 56.4712
47.3622 3098 55.6597
47.4797 3089 55.5788
47.5973 3096 55.6417
47.7149 3012 54.8817
47.8324 3036 55.0999
47.95 3022 54.9727
48.0675 2989 54.6717
48.1851 2926 54.0925
48.3027 2850 53.3854
48.4202 2819 53.0943
48.5378 2862 53.4977
48.6554 2815 53.0566
48.7729 2950 54.3139
48.8904 2976 54.5527
49.008 3024 54.9909
49.1255 3073 55.4346
49.243 3012 54.8817
49.3605 2985 54.6352
49.478 3000 54.7723
49.5955 3010 54.8635
49.713 3056 55.2811
49.8304 2932 54.1479
49.9479 2946 54.2771
50.0653 2922 54.0555
50.1827 2825 53.1507
50.3001 2806 52.9717
50.4175 2881 53.6749
50.5348 2974 54.5344
50.6521 2957 54.3783
50.7694 3115 55.8122
50.8867 3031 55.0545
51.004 3111 55.7763
51.1212 3200 56.5685
51.2384 3190 56.4801
51.3556 3368 58.0345
51.4727 3404 58.3438
51.5899 3338 57.7754
51.707 3251 57.0175
51.824 3344 57.8273
51.9411 3373 58.0775
52.0581 3541 59.5063
52.175 3634 60.2827
52.2919 3757 61.2944
52.4088 3786 61.5305
52.5257 3762 61.3351
52.6425 4064 63.7495
52.7593 4021 63.4114
52.876 4062 63.7338
52.9927 4009 63.3167
53.1094 4106 64.0781
53.226 4011 63.3325
53.3426 4089 63.9453
53.4591 4043 63.5846
53.5756 4051 63.6475
53.692 4012 63.3404
53.8084 4007 63.3009
53.9248 4004 63.2772
54.0411 3967 62.9841
54.1573 3983 63.111
54.2735 0 1
54.3896 0 1
54.5057 0 1
54.6217 0 1
54.7377 0 1
54.8537 0 1
54.9695 0 1
55.0853 0 1
55.2011 0 1
55.3168 0 1
55.4324 0 1
57.824 0 1
57.9396 0 1
58.0553 0 1
58.1711 0 1
58.2869 0 1
58.4028 0 1
58.5187 0 1
58.6347 0 1
58.7508 0 1
58.8669 0 1
58.983 4639 68.1102
59.0992 4591 67.7569
59.2155 4636 68.0882
59.3318 4548 67.4389
59.4482 4617 67.9485
59.5646 4736 68.8186
59.681 4674 68.3667
59.7975 4549 67.4463
59.9141 4672 68.352
60.0306 4627 68.0221
60.1473 4652 68.2056
60.2639 4516 67.2012
60.3807 4369 66.0984
60.4974 4291 65.5057
60.6142 4467 66.8356
60.731 4376 66.1513
60.8479 4536 67.3498
60.9648 4737 68.8259
61.0818 4559 67.5204
61.1987 4790 69.2098
61.3158 4715 68.6659
61.4328 4760 68.9928
61.5499 4653 68.2129
61.667 4611 67.9043
61.7841 4578 67.6609
61.9013 4546 67.424
62.0185 4603 67.8454
62.1357 4434 66.5883
62.253 4414 66.4379
62.3702 4454 66.7383
62.4875 4330 65.8027
62.6049 4413 66.4304
62.7222 4475 66.8954
62.8396 4505 67.1193
62.9569 4442 66.6483
63.0743 4321 65.7343
63.1918 4337 65.8559
63.3092 4231 65.0461
63.4267 4183 64.6761
63.5441 4138 64.3273
63.6616 4302 65.5896
63.7791 4149 64.4127
63.8966 4055 63.6789
64.0142 4015 63.364
64.1317 4103 64.0547
64.2492 4175 64.6142
64.3668 4300 65.5744
64.4843 4358 66.0151
64.6019 4452 66.7233
64.7195 4268 65.3299
64.837 4347 65.9318
64.9546 4352 65.9697
65.0722 4280 65.4217
65.1898 4236 65.0846
65.3074 4212 64.8999
65.4249 4120 64.1872
65.5425 4229 65.0308
65.6601 4134 64.2962
65.7777 4221 64.9692
65.8952 4289 65.4905
66.0128 4186 64.6993
66.1304 4136 64.3117
66.2479 4192 64.7457
66.3655 4183 64.6761
66.483 4243 65.1383
66.6005 4292 65.5134
66.718 4048 63.6239
66.8355 4002 63.2614
66.953 4021 63.4114
67.0705 3848 62.0322
67.1879 3911 62.538
67.3054 3918 62.5939
67.4228 3790 61.563
67.5402 3787 61.5386
67.6576 3932 62.7057
67.7749 3746 61.2046
67.8923 4039 63.5531
68.0096 4143 64.3661
68.1269 4245 65.1537
68.2442 4229 65.0308
68.3614 4322 65.7419
68.4787 4343 65.9014
68.5958 4308 65.6354
68.713 4382 66.1967
68.8302 4273 65.3682
68.9473 4231 65.0461
69.0643 4209 64.8768
69.1814 4244 65.146
69.2984 4272 65.3605
69.4154 4397 66.3099
69.5323 4473 66.8805
69.6492 4327 65.7799
69.7661 4363 66.053
69.8829 4442 66.6483
69.9997 4511 67.164
70.1165 4505 67.1193
70.2332 4514 67.1863
70.3499 4330 65.8027
70.4665 4202 64.8228
70.5831 4137 64.3195
70.6996 3990 63.1664
70.8161 3938 62.7535
70.9326 3994 63.1981
71.049 4025 63.4429
71.1653 3872 62.2254
71.2817 3787 61.5386
71.3979 3871 62.2174
71.5141 3764 61.3514
71.6303 3939 62.7615
71.7464 3689 60.7371
71.8624 0 1
71.9784 0 1
72.0944 0 1
72.2102 0 1
72.3261 0 1
72.4418 0 1
72.5575 0 1
72.6732 0 1
75.1054 0 1
75.2209 0 1
75.3365 0 1
75.4521 0 1
75.5678 0 1
75.6835 0 1
75.7993 0 1
75.9151 0 1
76.031 0 1
76.147 3481 59
76.263 3661 60.5062
76.3791 3744 61.1882
76.4952 3784 61.5142
76.6113 3804 61.6766
76.7276 3892 62.3859
76.8438 4059 63.7103
76.9601 4176 64.622
77.0765 4310 65.6506
77.1929 4268 65.3299
77.3093 4512 67.1714
77.4258 4528 67.2904
77.5423 4411 66.4154
77.6589 4428 66.5432
77.7755 4365 66.0681
77.8921 4250 65.192
78.0088 4146 64.3894
78.1256 4287 65.4752
78.2423 4275 65.3835
78.3591 4210 64.8845
78.4759 4235 65.0769
78.5928 4361 66.0379
78.7097 4404 66.3626
78.8266 4178 64.6375
78.9436 4503 67.1044
79.0606 4302 65.5896
79.1776 4371 66.1135
79.2946 4411 66.4154
79.4117 4391 66.2646
79.5288 4139 64.3351
79.6459 3898 62.434
79.7631 3758 61.3025
79.8802 3625 60.208
79.9974 3610 60.0833
80.1147 3650 60.4152
80.2319 3598 59.9833
80.3491 3858 62.1128
80.4664 3917 62.5859
80.5837 4084 63.9062
80.701 4085 63.914
80.8183 4064 63.7495
80.9357 4223 64.9846
81.053 4133 64.2884
81.1704 4222 64.9769
81.2877 4144 64.3739
81.4051 4005 63.2851
81.5225 4022 63.4192
81.6399 3928 62.6738
81.7573 4018 63.3877
81.8747 3941 62.7774
81.9922 3988 63.1506
82.1096 3997 63.2218
82.227 4069 63.7887
82.3444 4043 63.5846
82.4619 4117 64.1639
82.5793 4138 64.3273
82.6967 3975 63.0476
82.8142 4086 63.9218
82.9316 4022 63.4192
83.049 3967 62.9841
83.1664 3737 61.131
83.2838 3486 59.0424
83.4012 3259 57.0877
83.5186 3055 55.2721
83.636 3022 54.9727
83.7534 3110 55.7674
83.8708 3228 56.8155
83.9881 3422 58.4979
84.1055 3559 59.6574
84.2228 3727 61.0492
84.3401 3840 61.9677
84.4575 3779 61.4736
84.5747 3943 62.7933
84.692 4079 63.867
84.8093 3988 63.1506
84.9265 3885 62.3298
85.0437 3857 62.1048
85.1609 3796 61.6117
85.2781 3710 60.9098
85.3952 3713 60.9344
85.5123 3742 61.1719
85.6294 3892 62.3859
85.7465 3988 63.1506
85.8636 4169 64.5678
85.9806 4154 64.4515
86.0976 4116 64.1561
86.2145 4132 64.2806
86.3315 4307 65.6277
86.4484 4150 64.4205
86.5652 4271 65.3529
86.682 4275 65.3835
86.7988 4127 64.2417
86.9156 3791 61.5711
87.0323 3625 60.208
87.149 3432 58.5833
87.2657 3428 58.5491
87.3823 3666 60.5475
87.4988 3823 61.8304
87.6154 3890 62.3699
87.7318 4116 64.1561
87.8483 4203 64.8305
87.9647 4284 65.4523
88.081 4298 65.5591
88.1973 4505 67.1193
88.3136 4441 66.6408
88.4298 4401 66.34
88.546 4381 66.1891
88.6621 4261 65.2763
88.7781 4255 65.2304
88.8942 0 1
89.0101 0 1
89.126 0 1
89.2419 0 1
89.3577 0 1
89.4734 0 1
89.5891 0 1
89.7047 0 1
89.8203 0 1
89.9358 0 1
92.3269 0 1
92.4424 0 1
92.558 0 1
92.6736 0 1
92.7893 0 1
92.905 0 1
93.0208 0 1
93.1366 0 1
93.2525 0 1
93.3685 0 1
93.4845 0 1
93.6005 4383 66.2042
93.7167 4399 66.325
93.8328 4438 66.6183
93.949 4321 65.7343
94.0653 4217 64.9384
94.1816 4050 63.6396
94.2979 4093 63.9766
94.4143 4002 63.2614
94.5307 4133 64.2884
94.6472 4254 65.2227
94.7637 4236 65.0846
94.8803 4372 66.1211
94.9969 4528 67.2904
95.1135 4582 67.6905
95.2302 4668 68.3228
95.3469 4623 67.9926
95.4637 4655 68.2276
95.5805 4626 68.0147
95.6973 4488 66.9925
95.8142 4514 67.1863
95.9311 4298 65.5591
96.048 3965 62.9682
96.1649 3751 61.2454
96.2819 3424 58.515
96.3989 3280 57.2713
96.516 3376 58.1034
96.633 3549 59.5735
96.7501 3862 62.145
96.8673 4382 66.1967
96.9844 4371 66.1135
97.1016 4475 66.8954
97.2188 4499 67.0746
97.336 4727 68.7532
97.4532 4593 67.7717
97.5704 4626 68.0147
97.6877 4540 67.3795
97.805 4282 65.437
97.9223 4327 65.7799
98.0396 4286 65.4675
98.1569 4291 65.5057
98.2743 4318 65.7115
98.3916 4416 66.453
98.509 4583 67.6979
98.6264 4719 68.695
98.7438 4587 67.7274
98.8612 4624 68
98.9786 4686 68.4544
99.096 4764 69.0217
99.2134 4750 68.9202
99.3308 4701 68.5638
99.4482 4679 68.4032
99.5656 4555 67.4907
99.6831 4356 66
99.8005 3827 61.8628
99.9179 3523 59.3549
100.035 3462 58.8388
100.153 3637 60.3075
100.27 3964 62.9603
100.388 4297 65.5515
100.505 4410 66.4078
100.622 4622 67.9853
100.74 4808 69.3397
100.857 4696 68.5274
100.975 4707 68.6076
101.092 4632 68.0588
101.209 4562 67.5426
101.327 4422 66.4981
101.444 4392 66.2722
101.561 4367 66.0833
101.679 4527 67.283
101.796 4460 66.7832
101.913 4698 68.542
102.03 4674 68.3667
102.148 4794 69.2387
102.265 4734 68.8041
102.382 5141 71.7008
102.499 4900 70
102.616 5061 71.1407
102.733 5026 70.8943
102.851 5009 70.7743
102.968 4851 69.6491
103.085 4867 69.7639
103.202 4439 66.6258
103.319 4188 64.7148
103.436 3748 61.2209
103.552 3505 59.203
103.669 3393 58.2495
103.786 3986 63.1348
103.903 4370 66.106
104.02 4847 69.6204
104.137 4833 69.5198
104.253 4919 70.1356
104.37 5026 70.8943
104.487 4953 70.3776
104.603 5021 70.859
104.72 4693 68.5055
104.836 4795 69.2459
104.953 4731 68.7823
105.069 4683 68.4324
105.186 4671 68.3447
105.302 4842 69.5845
105.418 4920 70.1427
105.535 4995 70.6753
105.651 5105 71.4493
105.767 5198 72.0972
105.883 5300 72.8011
105.999 5323 72.9589
106.115 0 1
106.231 0 1
106.347 0 1
106.463 0 1
106.579 0 1
106.694 0 1
106.81 0 1
106.926 0 1
107.041 0 1
107.157 0 1
109.576 0 1
109.692 0 1
109.807 0 1
109.923 0 1
110.039 0 1
110.155 0 1
110.27 0 1
110.386 0 1
110.502 0 1
110.618 4805 69.3181
110.735 5023 70.8731
110.851 5066 71.1758
110.967 5090 71.3442
111.083 5052 71.0774
111.199 5096 71.3863
111.316 5100 71.4143
111.432 5138 71.6798
111.549 5034 70.9507
111.665 4824 69.455
111.782 4485 66.9701
111.898 4124 64.2184
112.015 3470 58.9067
112.132 3202 56.5862
112.248 3144 56.0714
112.365 3853 62.0725
112.482 4258 65.2534
112.599 4801 69.2892
112.716 4726 68.7459
112.832 4649 68.1836
112.949 4790 69.2098
113.066 4724 68.7314
113.183 4596 67.7938
113.3 4557 67.5056
113.417 4460 66.7832
113.534 4405 66.3702
113.652 4356 66
113.769 4492 67.0224
113.886 4543 67.4018
114.003 4501 67.0895
114.12 4658 68.2495
114.238 4912 70.0857
114.355 4750 68.9202
114.472 4880 69.857
114.589 5018 70.8378
114.707 5043 71.0141
114.824 4872 69.7997
114.942 4972 70.5124
115.059 4900 70
115.176 4789 69.2026
115.294 4578 67.6609
115.411 4219 64.9538
115.529 3825 61.8466
115.646 3157 56.1872
115.764 2983 54.6168
115.881 3397 58.2838
115.999 3802 61.6604
116.116 4308 65.6354
116.234 4494 67.0373
116.351 4494 67.0373
116.469 4493 67.0298
116.586 4562 67.5426
116.704 4686 68.4544
116.821 4267 65.3223
116.939 4347 65.9318
117.056 4083 63.8984
117.174 4195 64.7688
117.291 4119 64.1794
117.409 4268 65.3299
117.526 4302 65.5896
117.644 4464 66.8132
117.761 4461 66.7907
117.879 4629 68.0368
117.996 4649 68.1836
118.114 4577 67.6535
118.231 4788 69.1954
118.349 4522 67.2458
118.466 4571 67.6092
118.584 4726 68.7459
118.701 4533 67.3276
118.819 4386 66.2269
118.936 4276 65.3911
119.053 3926 62.6578
119.171 3366 58.0172
119.288 2873 53.6004
119.405 2750 52.4404
119.523 3009 54.8544
119.64 3488 59.0593
119.757 3901 62.458
119.875 4067 63.773
119.992 4047 63.616
120.109 4209 64.8768
120.226 4167 64.5523
120.343 4200 64.8074
120.46 4107 64.0859
120.578 3972 63.0238
120.695 3991 63.1744
120.812 3911 62.538
120.929 4007 63.3009
121.046 3865 62.1691
121.163 4041 63.5689
121.279 4066 63.7652
121.396 4229 65.0308
121.513 4291 65.5057
121.63 4346 65.9242
121.747 4343 65.9014
121.863 4389 66.2495
121.98 4435 66.5958
122.097 4323 65.7495
122.213 4449 66.7008
122.33 4385 66.2193
122.446 4238 65.0999
122.563 4071 63.8044
122.679 4071 63.8044
122.795 3742 61.1719
122.912 3285 57.3149
123.028 2689 51.8556
123.144 2540 50.3984
123.26 2721 52.1632
123.377 0 1
123.493 0 1
123.609 0 1
123.725 0 1
123.84 0 1
123.956 0 1
124.072 0 1
124.188 0 1
124.303 0 1
124.419 0 1
126.852 0 1
126.968 0 1
127.083 0 1
127.199 0 1
127.315 0 1
127.431 0 1
127.547 0 1
127.663 0 1
127.779 0 1
127.895 0 1
128.011 0 1
128.127 0 1
128.243 0 1
128.359 2629 51.2738
128.476 2840 53.2917
128.592 3283 57.2975
128.708 3836 61.9355
128.825 4132 64.2806
128.941 4237 65.0922
129.058 4256 65.238
129.174 4291 65.5057
129.291 4138 64.3273
129.408 4051 63.6475
129.524 3930 62.6897
129.641 3973 63.0317
129.758 3885 62.3298
129.875 3919 62.6019
129.992 3967 62.9841
130.108 4104 64.0625
130.225 4150 64.4205
130.342 4060 63.7181
130.459 4141 64.3506
130.576 4438 66.6183
130.693 4479 66.9253
130.81 4217 64.9384
130.928 4283 65.4446
131.045 4302 65.5896
131.162 4365 66.0681
131.279 4309 65.643
131.396 4236 65.0846
131.513 4090 63.9531
131.631 3886 62.3378
131.748 3256 57.0614
131.865 2672 51.6914
131.983 2550 50.4975
132.1 3100 55.6776
132.217 3696 60.7947
132.335 4070 63.7966
132.452 4156 64.467
132.57 4063 63.7417
132.687 4006 63.293
132.804 3933 62.7136
132.922 3966 62.9762
133.039 3923 62.6339
133.157 3738 61.1392
133.274 3736 61.1228
133.392 3889 62.3618
133.509 3853 62.0725
133.627 3866 62.1772
133.744 3881 62.2977
133.862 4041 63.5689
133.979 4065 63.7574
134.097 4026 63.4508
134.214 4119 64.1794
134.332 4209 64.8768
134.449 4063 63.7417
134.567 4059 63.7103
134.684 4044 63.5925
134.802 4124 64.2184
134.919 4211 64.8922
135.037 4048 63.6239
135.154 4019 63.3956
135.272 3603 60.025
135.389 2847 53.3573
135.507 2411 49.1019
135.624 2631 51.2933
135.742 3201 56.5774
135.859 3800 61.6441
135.977 3832 61.9032
136.094 3864 62.1611
136.211 3989 63.1585
136.329 3870 62.2093
136.446 3749 61.2291
136.564 3769 61.3922
136.681 3680 60.663
136.798 3677 60.6383
136.915 3598 59.9833
137.033 3613 60.1082
137.15 3677 60.6383
137.267 3811 61.7333
137.384 3742 61.1719
137.502 3762 61.3351
137.619 3839 61.9597
137.736 3943 62.7933
137.853 3783 61.5061
137.97 3887 62.3458
138.087 3961 62.9365
138.204 3898 62.434
138.321 4043 63.5846
138.438 4105 64.0703
138.555 4166 64.5446
138.672 3938 62.7535
138.788 3869 62.2013
138.905 3657 60.4731
139.022 2946 54.2771
139.139 2526 50.2593
139.255 2560 50.5964
139.372 3017 54.9272
139.488 3740 61.1555
139.605 4014 63.3561
139.721 3905 62.49
139.838 3937 62.7455
139.954 3919 62.6019
140.071 3854 62.0806
140.187 3855 62.0886
140.303 3643 60.3573
140.419 3615 60.1249
140.535 3695 60.7865
140.652 3563 59.6909
140.768 0 1
140.884 0 1
141 0 1
141.115 0 1
141.231 0 1
141.347 0 1
141.463 0 1
141.578 0 1
141.694 0 1
144.104 0 1
144.219 0 1
144.335 0 1
144.45 0 1
144.566 0 1
144.682 0 1
144.798 0 1
144.914 0 1
145.03 0 1
145.146 2760 52.5357
145.262 2774 52.6688
145.378 2792 52.8394
145.494 2805 52.9623
145.61 2770 52.6308
145.726 2742 52.3641
145.842 2797 52.8867
145.959 2808 52.9906
146.075 2756 52.4976
146.192 2884 53.7029
146.308 2936 54.1849
146.425 3043 55.1634
146.541 3048 55.2087
146.658 2947 54.2863
146.774 2982 54.6077
146.891 3089 55.5788
147.008 3048 55.2087
147.125 3112 55.7853
147.241 3098 55.6597
147.358 3167 56.2761
147.475 3218 56.7274
147.592 3083 55.5248
147.709 3014 54.8999
147.826 2823 53.1319
147.943 2439 49.3862
148.06 1988 44.587
148.177 2020 44.9444
148.294 2368 48.6621
148.411 2781 52.7352
148.528 3009 54.8544
148.645 3002 54.7905
148.762 2990 54.6809
148.88 3040 55.1362
148.997 3014 54.8999
149.114 2960 54.4059
149.231 2817 53.0754
149.349 2811 53.0189
149.466 2830 53.1977
149.583 2808 52.9906
149.701 2812 53.0283
149.818 2885 53.7122
149.935 2861 53.4883
150.053 2883 53.6936
150.17 3026 55.0091
150.287 2960 54.4059
150.405 3099 55.6687
150.522 3070 55.4076
150.64 3137 56.0089
150.757 3186 56.4447
150.875 3264 57.1314
150.992 3246 56.9737
151.11 3277 57.2451
151.227 3291 57.3672
151.344 3191 56.4889
151.462 3118 55.8391
151.579 2873 53.6004
151.697 2450 49.4975
151.814 2122 46.0652
151.932 2200 46.9042
152.049 2711 52.0673
152.167 3212 56.6745
152.284 3292 57.376
152.402 3397 58.2838
152.519 3450 58.7367
152.636 3418 58.4637
152.754 3313 57.5587
152.871 3223 56.7715
152.989 3197 56.542
153.106 3123 55.8838
153.223 3040 55.1362
153.341 3086 55.5518
153.458 3013 54.8908
153.575 3140 56.0357
153.693 3176 56.356
153.81 3365 58.0086
153.927 3318 57.6021
154.044 3432 58.5833
154.162 3330 57.7062
154.279 3395 58.2666
154.396 3337 57.7668
154.513 3547 59.5567
154.63 3634 60.2827
154.747 3698 60.8112
154.864 3652 60.4318
154.981 3599 59.9917
155.098 3327 57.6802
155.215 3027 55.0182
155.332 2603 51.0196
155.449 2620 51.1859
155.566 3062 55.3353
155.683 3486 59.0424
155.8 3585 59.8749
155.917 3576 59.7997
156.033 3623 60.1914
156.15 0 1
156.267 0 1
156.383 0 1
156.5 0 1
156.617 0 1
156.733 0 1
156.85 0 1
156.966 0 1
157.082 0 1
157.199 0 1
157.315 0 1
157.431 0 1
157.547 0 1
157.664 0 1
157.78 0 1
157.896 0 1
158.012 0 1
158.128 0 1
158.244 0 1
158.359 0 1
158.475 0 1
158.591 0 1
158.706 0 1
