
6.15755 0 1
6.2731 0 1
6.3887 0 1
6.50437 0 1
6.62009 0 1
6.73587 0 1
6.8517 0 1
6.96759 0 1
7.08353 0 1
7.19952 0 1
7.31557 0 1
7.43166 0 1
7.54781 0 1
7.664 0 1
7.78024 0 1
7.89653 0 1
8.01286 0 1
8.12924 0 1
8.24567 0 1
8.36213 0 1
8.47864 0 1
8.59519 0 1
8.71178 0 1
8.82841 0 1
8.94508 0 1
9.06179 0 1
9.17853 0 1
9.29531 0 1
9.41212 0 1
9.52897 0 1
9.64584 0 1
9.76276 0 1
9.8797 0 1
9.99667 0 1
10.1137 0 1
10.2307 0 1
10.3478 0 1
10.4648 0 1
10.5819 0 1
10.6991 0 1
10.8162 0 1
10.9334 0 1
11.0506 0 1
11.1678 0 1
11.285 0 1
11.4023 0 1
11.5196 0 1
11.6369 0 1
11.7542 0 1
11.8715 0 1
11.9888 0 1
12.1062 0 1
12.2235 0 1
12.3409 0 1
12.4582 0 1
12.5756 0 1
12.693 0 1
12.8104 0 1
12.9278 0 1
13.0452 0 1
13.1626 0 1
13.28 0 1
13.3974 0 1
13.5149 0 1
13.6323 0 1
13.7497 0 1
13.8671 0 1
13.9845 0 1
14.1019 0 1
14.2193 0 1
14.3367 0 1
14.4541 0 1
14.5714 0 1
14.6888 0 1
14.8062 0 1
14.9235 0 1
15.0408 1006 31.7175
15.1581 1040 32.249
15.2755 1134 33.6749
15.3927 1075 32.7872
15.51 1131 33.6303
15.6273 1100 33.1662
15.7445 1087 32.9697
15.8617 1073 32.7567
15.9789 1150 33.9116
16.0961 1107 33.2716
16.2132 1040 32.249
16.3304 1109 33.3017
16.4475 1165 34.1321
16.5646 1266 35.5809
16.6816 1168 34.176
16.7986 1278 35.7491
16.9156 1348 36.7151
17.0326 1355 36.8103
17.1496 1303 36.0971
17.2665 1289 35.9026
17.3833 1346 36.6879
17.5002 1292 35.9444
17.617 1231 35.0856
17.7338 1166 34.1467
17.8505 1154 33.9706
17.9672 1115 33.3916
18.0839 1146 33.8526
18.2005 1182 34.3802
18.3171 1174 34.2637
18.4337 1186 34.4384
18.5502 1207 34.7419
18.6666 1265 35.5668
18.7831 1418 37.6563
18.8994 1333 36.5103
19.0158 1288 35.8887
19.1321 1242 35.242
19.2483 1192 34.5254
19.3645 1124 33.5261
19.4806 1055 32.4808
19.5967 1045 32.3265
19.7128 950 30.8221
19.8288 846 29.0861
19.9447 810 28.4605
20.0606 0 1
20.1764 0 1
20.2922 0 1
20.4079 0 1
20.5236 0 1
20.6392 0 1
20.7548 0 1
20.8702 0 1
23.3078 0 1
23.4233 0 1
23.539 0 1
23.6547 0 1
23.7704 0 1
23.8862 0 1
24.0021 0 1
24.118 0 1
24.234 0 1
24.35 0 1
24.4661 521 22.8254
24.5822 635 25.1992
24.6984 736 27.1293
24.8146 833 28.8617
24.9309 838 28.9482
25.0472 947 30.7734
25.1636 1056 32.4962
25.28 1144 33.8231
25.3965 1192 34.5254
25.513 1271 35.6511
25.6296 1320 36.3318
25.7462 1372 37.0405
25.8628 1402 37.4433
25.9795 1414 37.6032
26.0962 1444 38
26.213 1439 37.9342
26.3298 1297 36.0139
26.4466 1259 35.4824
26.5635 1180 34.3511
26.6804 1155 33.9853
26.7973 1192 34.5254
26.9143 1249 35.3412
27.0313 1237 35.171
27.1483 1242 35.242
27.2653 1394 37.3363
27.3824 1376 37.0945
27.4996 1347 36.7015
27.6167 1334 36.524
27.7339 1324 36.3868
27.8511 1304 36.1109
27.9683 1228 35.0428
28.0855 1221 34.9428
28.2028 1225 35
28.3201 1162 34.0881
28.4374 1140 33.7639
28.5547 1102 33.1964
28.6721 1156 34
28.7894 1272 35.6651
28.9068 1316 36.2767
29.0242 1367 36.973
29.1416 1371 37.027
29.259 1465 38.2753
29.3764 1321 36.3456
29.4939 1336 36.5513
29.6113 1286 35.8608
29.7288 1254 35.4119
29.8463 1215 34.8569
29.9638 1193 34.5398
30.0812 1161 34.0735
30.1987 1170 34.2053
30.3162 1154 33.9706
30.4337 1232 35.0999
30.5512 1256 35.4401
30.6687 1201 34.6554
30.7862 1265 35.5668
30.9037 1343 36.647
31.0212 1283 35.819
31.1387 1246 35.2987
31.2562 1291 35.9305
31.3737 1227 35.0286
31.4912 1258 35.4683
31.6087 1157 34.0147
31.7262 1133 33.6601
31.8436 1098 33.1361
31.9611 1018 31.9061
32.0785 1101 33.1813
32.1959 1169 34.1906
32.3134 1191 34.5109
32.4308 1205 34.7131
32.5482 1268 35.609
32.6655 1382 37.1753
32.7829 1275 35.7071
32.9002 1277 35.7351
33.0176 1317 36.2905
33.1349 1287 35.8748
33.2522 1215 34.8569
33.3694 1211 34.7994
33.4867 1135 33.6898
33.6039 1144 33.8231
33.7211 1022 31.9687
33.8383 1080 32.8634
33.9554 1082 32.8938
34.0725 1134 33.6749
34.1896 1182 34.3802
34.3067 1182 34.3802
34.4237 1138 33.7343
34.5407 1251 35.3695
34.6577 1260 35.4965
34.7746 1151 33.9264
34.8915 1239 35.1994
35.0084 1195 34.5688
35.1252 1182 34.3802
35.242 1126 33.5559
35.3587 1175 34.2783
35.4755 1135 33.6898
35.5921 1095 33.0908
35.7088 1002 31.6544
35.8254 1079 32.8481
35.9419 1116 33.4066
36.0584 1157 34.0147
36.1749 1101 33.1813
36.2913 1139 33.7491
36.4077 1148 33.8821
36.524 1130 33.6155
36.6403 1073 32.7567
36.7565 1091 33.0303
36.8727 988 31.4325
36.9889 940 30.6594
37.1049 846 29.0861
37.221 0 1
37.3369 0 1
37.4529 0 1
37.5687 0 1
37.6845 0 1
37.8003 0 1
37.916 0 1
38.0316 0 1
38.1472 0 1
40.5851 0 1
40.7008 0 1
40.8164 0 1
40.9322 0 1
41.048 0 1
41.1639 0 1
41.2798 0 1
41.3958 0 1
41.5118 0 1
41.6279 0 1
41.744 614 24.779
41.8602 639 25.2784
41.9765 741 27.2213
42.0928 771 27.7669
42.2091 741 27.2213
42.3255 703 26.5141
42.4419 728 26.9815
42.5584 733 27.074
42.675 847 29.1033
42.7915 924 30.3974
42.9081 905 30.0832
43.0248 940 30.6594
43.1415 1024 32
43.2582 1048 32.3728
43.375 993 31.5119
43.4918 1044 32.311
43.6087 1018 31.9061
43.7256 1006 31.7175
43.8425 1019 31.9218
43.9595 902 30.0333
44.0765 969 31.1288
44.1935 968 31.1127
44.3106 869 29.4788
44.4277 871 29.5127
44.5448 878 29.6311
44.6619 897 29.95
44.7791 933 30.545
44.8963 992 31.496
45.0136 1013 31.8277
45.1308 1021 31.9531
45.2481 1050 32.4037
45.3654 1044 32.311
45.4827 1043 32.2955
45.6001 1059 32.5423
45.7174 1023 31.9844
45.8348 904 30.0666
45.9522 887 29.7825
46.0697 894 29.8998
46.1871 823 28.688
46.3046 872 29.5296
46.422 921 30.348
46.5395 935 30.5778
46.657 1041 32.2645
46.7745 986 31.4006
46.892 1035 32.1714
47.0096 1092 33.0454
47.1271 1050 32.4037
47.2446 1091 33.0303
47.3622 1059 32.5423
47.4797 1006 31.7175
47.5973 967 31.0966
47.7149 981 31.3209
47.8324 902 30.0333
47.95 932 30.5287
48.0675 975 31.225
48.1851 851 29.1719
48.3027 864 29.3939
48.4202 983 31.3528
48.5378 1089 33
48.6554 1036 32.187
48.7729 1035 32.1714
48.8904 1074 32.7719
49.008 1046 32.3419
49.1255 1029 32.078
49.243 982 31.3369
49.3605 958 30.9516
49.478 836 28.9137
49.5955 857 29.2746
49.713 824 28.7054
49.8304 825 28.7228
49.9479 841 29
50.0653 921 30.348
50.1827 1026 32.0312
50.3001 1024 32
50.4175 982 31.3369
50.5348 1041 32.2645
50.6521 1103 33.2114
50.7694 1079 32.8481
50.8867 1076 32.8024
51.004 1105 33.2415
51.1212 1048 32.3728
51.2384 1057 32.5115
51.3556 1007 31.7333
51.4727 974 31.209
51.5899 994 31.5278
51.707 929 30.4795
51.824 1015 31.8591
51.9411 1143 33.8083
52.0581 1177 34.3074
52.175 1271 35.6511
52.2919 1313 36.2353
52.4088 1367 36.973
52.5257 1374 37.0675
52.6425 1410 37.55
52.7593 1368 36.9865
52.876 1400 37.4166
52.9927 1279 35.7631
53.1094 1207 34.7419
53.226 1132 33.6452
53.3426 1093 33.0606
53.4591 1081 32.8786
53.5756 1132 33.6452
53.692 1121 33.4813
53.8084 1094 33.0757
53.9248 1063 32.6037
54.0411 1083 32.909
54.1573 979 31.289
54.2735 0 1
54.3896 0 1
54.5057 0 1
54.6217 0 1
54.7377 0 1
54.8537 0 1
54.9695 0 1
55.0853 0 1
55.2011 0 1
55.3168 0 1
55.4324 0 1
57.824 0 1
57.9396 0 1
58.0553 0 1
58.1711 0 1
58.2869 0 1
58.4028 0 1
58.5187 0 1
58.6347 0 1
58.7508 0 1
58.8669 0 1
58.983 737 27.1477
59.0992 846 29.0861
59.2155 944 30.7246
59.3318 1057 32.5115
59.4482 1057 32.5115
59.5646 1158 34.0294
59.681 1217 34.8855
59.7975 1217 34.8855
59.9141 1219 34.9142
60.0306 1127 33.5708
60.1473 1181 34.3657
60.2639 1076 32.8024
60.3807 1118 33.4365
60.4974 1108 33.2866
60.6142 1193 34.5398
60.731 1214 34.8425
60.8479 1318 36.3043
60.9648 1337 36.565
61.0818 1308 36.1663
61.1987 1274 35.6931
61.3158 1303 36.0971
61.4328 1212 34.8138
61.5499 1154 33.9706
61.667 1091 33.0303
61.7841 1031 32.1092
61.9013 962 31.0161
62.0185 977 31.257
62.1357 1067 32.665
62.253 1150 33.9116
62.3702 1179 34.3366
62.4875 1245 35.2846
62.6049 1236 35.1568
62.7222 1327 36.428
62.8396 1348 36.7151
62.9569 1255 35.426
63.0743 1323 36.3731
63.1918 1310 36.1939
63.3092 1244 35.2704
63.4267 1180 34.3511
63.5441 1201 34.6554
63.6616 1078 32.8329
63.7791 1127 33.5708
63.8966 1021 31.9531
64.0142 974 31.209
64.1317 1155 33.9853
64.2492 1193 34.5398
64.3668 1267 35.5949
64.4843 1291 35.9305
64.6019 1351 36.756
64.7195 1247 35.3129
64.837 1333 36.5103
64.9546 1287 35.8748
65.0722 1152 33.9411
65.1898 1042 32.28
65.3074 1046 32.3419
65.4249 979 31.289
65.5425 907 30.1164
65.6601 984 31.3688
65.7777 962 31.0161
65.8952 1110 33.3167
66.0128 1137 33.7194
66.1304 1136 33.7046
66.2479 1192 34.5254
66.3655 1275 35.7071
66.483 1206 34.7275
66.6005 1251 35.3695
66.718 1272 35.6651
66.8355 1295 35.9861
66.953 1142 33.7935
67.0705 1250 35.3553
67.1879 1222 34.9571
67.3054 1061 32.573
67.4228 1032 32.1248
67.5402 992 31.496
67.6576 987 31.4166
67.7749 1021 31.9531
67.8923 1177 34.3074
68.0096 1229 35.0571
68.1269 1147 33.8674
68.2442 1261 35.5106
68.3614 1193 34.5398
68.4787 1240 35.2136
68.5958 1250 35.3553
68.713 1184 34.4093
68.8302 1047 32.3574
68.9473 1045 32.3265
69.0643 935 30.5778
69.1814 857 29.2746
69.2984 921 30.348
69.4154 1008 31.749
69.5323 1063 32.6037
69.6492 1097 33.121
69.7661 1128 33.5857
69.8829 1162 34.0881
69.9997 1157 34.0147
70.1165 1154 33.9706
70.2332 1075 32.7872
70.3499 1063 32.6037
70.4665 977 31.257
70.5831 996 31.5595
70.6996 896 29.9333
70.8161 802 28.3196
70.9326 788 28.0713
71.049 685 26.1725
71.1653 606 24.6171
71.2817 524 22.891
71.3979 493 22.2036
71.5141 505 22.4722
71.6303 461 21.4709
71.7464 404 20.0998
71.8624 0 1
71.9784 0 1
72.0944 0 1
72.2102 0 1
72.3261 0 1
72.4418 0 1
72.5575 0 1
72.6732 0 1
75.1054 0 1
75.2209 0 1
75.3365 0 1
75.4521 0 1
75.5678 0 1
75.6835 0 1
75.7993 0 1
75.9151 0 1
76.031 0 1
76.147 781 27.9464
76.263 817 28.5832
76.3791 761 27.5862
76.4952 811 28.4781
76.6113 833 28.8617
76.7276 854 29.2233
76.8438 906 30.0998
76.9601 1035 32.1714
77.0765 1030 32.0936
77.1929 1058 32.5269
77.3093 1051 32.4191
77.4258 1054 32.4654
77.5423 1099 33.1512
77.6589 1016 31.8748
77.7755 956 30.9192
77.8921 792 28.1425
78.0088 806 28.3901
78.1256 762 27.6043
78.2423 722 26.8701
78.3591 823 28.688
78.4759 869 29.4788
78.5928 950 30.8221
78.7097 944 30.7246
78.8266 1011 31.7962
78.9436 1035 32.1714
79.0606 1015 31.8591
79.1776 1079 32.8481
79.2946 1113 33.3617
79.4117 1081 32.8786
79.5288 1065 32.6343
79.6459 1037 32.2025
79.7631 1002 31.6544
79.8802 976 31.241
79.9974 917 30.282
80.1147 890 29.8329
80.2319 870 29.4958
80.3491 906 30.0998
80.4664 964 31.0483
80.5837 1013 31.8277
80.701 1063 32.6037
80.8183 1038 32.218
80.9357 1081 32.8786
81.053 1122 33.4963
81.1704 1178 34.322
81.2877 1168 34.176
81.4051 1007 31.7333
81.5225 914 30.2324
81.6399 929 30.4795
81.7573 808 28.4253
81.8747 800 28.2843
81.9922 788 28.0713
82.1096 844 29.0517
82.227 946 30.7571
82.3444 1008 31.749
82.4619 1027 32.0468
82.5793 1096 33.1059
82.6967 1116 33.4066
82.8142 1057 32.5115
82.9316 1141 33.7787
83.049 1143 33.8083
83.1664 1130 33.6155
83.2838 1131 33.6303
83.4012 1067 32.665
83.5186 979 31.289
83.636 1038 32.218
83.7534 920 30.3315
83.8708 857 29.2746
83.9881 885 29.7489
84.1055 973 31.1929
84.2228 980 31.305
84.3401 1025 32.0156
84.4575 1107 33.2716
84.5747 1054 32.4654
84.692 1106 33.2566
84.8093 1129 33.6006
84.9265 1117 33.4215
85.0437 1075 32.7872
85.1609 933 30.545
85.2781 892 29.8664
85.3952 818 28.6007
85.5123 776 27.8568
85.6294 770 27.7489
85.7465 920 30.3315
85.8636 1026 32.0312
85.9806 1031 32.1092
86.0976 1094 33.0757
86.2145 1128 33.5857
86.3315 1131 33.6303
86.4484 1172 34.2345
86.5652 1179 34.3366
86.682 1175 34.2783
86.7988 1121 33.4813
86.9156 1118 33.4365
87.0323 1068 32.6803
87.149 1049 32.3883
87.2657 969 31.1288
87.3823 902 30.0333
87.4988 791 28.1247
87.6154 787 28.0535
87.7318 796 28.2135
87.8483 871 29.5127
87.9647 853 29.2062
88.081 894 29.8998
88.1973 886 29.7658
88.3136 869 29.4788
88.4298 789 28.0891
88.546 766 27.6767
88.6621 672 25.923
88.7781 492 22.1811
88.8942 0 1
89.0101 0 1
89.126 0 1
89.2419 0 1
89.3577 0 1
89.4734 0 1
89.5891 0 1
89.7047 0 1
89.8203 0 1
89.9358 0 1
92.3269 0 1
92.4424 0 1
92.558 0 1
92.6736 0 1
92.7893 0 1
92.905 0 1
93.0208 0 1
93.1366 0 1
93.2525 0 1
93.3685 0 1
93.4845 0 1
93.6005 814 28.5307
93.7167 872 29.5296
93.8328 927 30.4467
93.949 932 30.5287
94.0653 1032 32.1248
94.1816 995 31.5436
94.2979 937 30.6105
94.4143 912 30.1993
94.5307 818 28.6007
94.6472 852 29.189
94.7637 857 29.2746
94.8803 931 30.5123
94.9969 1001 31.6386
95.1135 1030 32.0936
95.2302 1033 32.1403
95.3469 1128 33.5857
95.4637 1148 33.8821
95.5805 1107 33.2716
95.6973 1153 33.9559
95.8142 1109 33.3017
95.9311 1162 34.0881
96.048 1159 34.0441
96.1649 1088 32.9848
96.2819 1075 32.7872
96.3989 1023 31.9844
96.516 1027 32.0468
96.633 960 30.9839
96.7501 983 31.3528
96.8673 867 29.4449
96.9844 1019 31.9218
97.1016 1032 32.1248
97.2188 1139 33.7491
97.336 1140 33.7639
97.4532 1153 33.9559
97.5704 1177 34.3074
97.6877 1170 34.2053
97.805 1206 34.7275
97.9223 1079 32.8481
98.0396 907 30.1164
98.1569 901 30.0167
98.2743 794 28.178
98.3916 793 28.1603
98.509 851 29.1719
98.6264 944 30.7246
98.7438 1068 32.6803
98.8612 1101 33.1813
98.9786 1097 33.121
99.096 1203 34.6843
99.2134 1228 35.0428
99.3308 1214 34.8425
99.4482 1199 34.6266
99.5656 1210 34.7851
99.6831 1192 34.5254
99.8005 1205 34.7131
99.9179 1161 34.0735
100.035 1060 32.5576
100.153 1087 32.9697
100.27 952 30.8545
100.388 1039 32.2335
100.505 1015 31.8591
100.622 1122 33.4963
100.74 1137 33.7194
100.857 1168 34.176
100.975 1231 35.0856
101.092 1237 35.171
101.209 1263 35.5387
101.327 1182 34.3802
101.444 1202 34.6699
101.561 1056 32.4962
101.679 948 30.7896
101.796 880 29.6648
101.913 865 29.4109
102.03 864 29.3939
102.148 991 31.4802
102.265 1061 32.573
102.382 1188 34.4674
102.499 1208 34.7563
102.616 1189 34.4819
102.733 1268 35.609
102.851 1251 35.3695
102.968 1242 35.242
103.085 1255 35.426
103.202 1289 35.9026
103.319 1245 35.2846
103.436 1228 35.0428
103.552 1152 33.9411
103.669 1157 34.0147
103.786 1145 33.8378
103.903 1091 33.0303
104.02 1096 33.1059
104.137 1103 33.2114
104.253 1199 34.6266
104.37 1379 37.1349
104.487 1314 36.2491
104.603 1327 36.428
104.72 1315 36.2629
104.836 1241 35.2278
104.953 1126 33.5559
105.069 960 30.9839
105.186 904 30.0666
105.302 796 28.2135
105.418 794 28.178
105.535 802 28.3196
105.651 842 29.0172
105.767 809 28.4429
105.883 765 27.6586
105.999 706 26.5707
106.115 0 1
106.231 0 1
106.347 0 1
106.463 0 1
106.579 0 1
106.694 0 1
106.81 0 1
106.926 0 1
107.041 0 1
107.157 0 1
109.576 0 1
109.692 0 1
109.807 0 1
109.923 0 1
110.039 0 1
110.155 0 1
110.27 0 1
110.386 0 1
110.502 0 1
110.618 515 22.6936
110.735 719 26.8142
110.851 824 28.7054
110.967 945 30.7409
111.083 1017 31.8904
111.199 1011 31.7962
111.316 1054 32.4654
111.432 1160 34.0588
111.549 1111 33.3317
111.665 1177 34.3074
111.782 1236 35.1568
111.898 1134 33.6749
112.015 1183 34.3948
112.132 1091 33.0303
112.248 1050 32.4037
112.365 988 31.4325
112.482 1056 32.4962
112.599 1125 33.541
112.716 1129 33.6006
112.832 1178 34.322
112.949 1212 34.8138
113.066 1264 35.5528
113.183 1197 34.5977
113.3 1210 34.7851
113.417 1229 35.0571
113.534 1126 33.5559
113.652 1015 31.8591
113.769 893 29.8831
113.886 935 30.5778
114.003 886 29.7658
114.12 876 29.5973
114.238 986 31.4006
114.355 1091 33.0303
114.472 1076 32.8024
114.589 1210 34.7851
114.707 1156 34
114.824 1244 35.2704
114.942 1255 35.426
115.059 1273 35.6791
115.176 1208 34.7563
115.294 1169 34.1906
115.411 1229 35.0571
115.529 1186 34.4384
115.646 1145 33.8378
115.764 1136 33.7046
115.881 1045 32.3265
115.999 977 31.257
116.116 1037 32.2025
116.234 1153 33.9559
116.351 1207 34.7419
116.469 1218 34.8999
116.586 1246 35.2987
116.704 1268 35.609
116.821 1310 36.1939
116.939 1212 34.8138
117.056 1158 34.0294
117.174 1069 32.6956
117.291 954 30.8869
117.409 862 29.3598
117.526 839 28.9655
117.644 869 29.4788
117.761 935 30.5778
117.879 1029 32.078
117.996 1091 33.0303
118.114 1112 33.3467
118.231 1152 33.9411
118.349 1108 33.2866
118.466 1163 34.1028
118.584 1115 33.3916
118.701 1182 34.3802
118.819 1207 34.7419
118.936 1189 34.4819
119.053 1110 33.3167
119.171 1086 32.9545
119.288 1053 32.45
119.405 1016 31.8748
119.523 934 30.5614
119.64 958 30.9516
119.757 985 31.3847
119.875 942 30.692
119.992 1048 32.3728
120.109 1090 33.0151
120.226 1126 33.5559
120.343 1091 33.0303
120.46 1107 33.2716
120.578 1175 34.2783
120.695 1104 33.2265
120.812 1080 32.8634
120.929 902 30.0333
121.046 835 28.8964
121.163 783 27.9821
121.279 733 27.074
121.396 805 28.3725
121.513 854 29.2233
121.63 864 29.3939
121.747 898 29.9666
121.863 875 29.5804
121.98 875 29.5804
122.097 905 30.0832
122.213 851 29.1719
122.33 859 29.3087
122.446 851 29.1719
122.563 743 27.258
122.679 747 27.3313
122.795 690 26.2679
122.912 636 25.219
123.028 560 23.6643
123.144 481 21.9317
123.26 445 21.095
123.377 0 1
123.493 0 1
123.609 0 1
123.725 0 1
123.84 0 1
123.956 0 1
124.072 0 1
124.188 0 1
124.303 0 1
124.419 0 1
126.852 0 1
126.968 0 1
127.083 0 1
127.199 0 1
127.315 0 1
127.431 0 1
127.547 0 1
127.663 0 1
127.779 0 1
127.895 0 1
128.011 0 1
128.127 0 1
128.243 0 1
128.359 1056 32.4962
128.476 1104 33.2265
128.592 1046 32.3419
128.708 1047 32.3574
128.825 1089 33
128.941 1136 33.7046
129.058 1112 33.3467
129.174 1261 35.5106
129.291 1270 35.6371
129.408 1249 35.3412
129.524 1222 34.9571
129.641 1287 35.8748
129.758 1158 34.0294
129.875 1093 33.0606
129.992 1035 32.1714
130.108 996 31.5595
130.225 895 29.9166
130.342 864 29.3939
130.459 957 30.9354
130.576 1047 32.3574
130.693 1077 32.8177
130.81 1120 33.4664
130.928 1171 34.2199
131.045 1215 34.8569
131.162 1223 34.9714
131.279 1255 35.426
131.396 1201 34.6554
131.513 1202 34.6699
131.631 1199 34.6266
131.748 1131 33.6303
131.865 1153 33.9559
131.983 1125 33.541
132.1 1059 32.5423
132.217 1029 32.078
132.335 1133 33.6601
132.452 1144 33.8231
132.57 1142 33.7935
132.687 1217 34.8855
132.804 1221 34.9428
132.922 1248 35.327
133.039 1270 35.6371
133.157 1226 35.0143
133.274 1233 35.1141
133.392 1220 34.9285
133.509 1067 32.665
133.627 1005 31.7017
133.744 1021 31.9531
133.862 928 30.4631
133.979 957 30.9354
134.097 985 31.3847
134.214 1105 33.2415
134.332 1155 33.9853
134.449 1123 33.5112
134.567 1213 34.8281
134.684 1226 35.0143
134.802 1254 35.4119
134.919 1270 35.6371
135.037 1218 34.8999
135.154 1198 34.6121
135.272 1268 35.609
135.389 1132 33.6452
135.507 1153 33.9559
135.624 1099 33.1512
135.742 1181 34.3657
135.859 1099 33.1512
135.977 1157 34.0147
136.094 1155 33.9853
136.211 1177 34.3074
136.329 1213 34.8281
136.446 1253 35.3977
136.564 1219 34.9142
136.681 1266 35.5809
136.798 1284 35.8329
136.915 1252 35.3836
137.033 1164 34.1174
137.15 1077 32.8177
137.267 994 31.5278
137.384 997 31.5753
137.502 880 29.6648
137.619 886 29.7658
137.736 958 30.9516
137.853 1024 32
137.97 1157 34.0147
138.087 1133 33.6601
138.204 1213 34.8281
138.321 1194 34.5543
138.438 1211 34.7994
138.555 1248 35.327
138.672 1197 34.5977
138.788 1161 34.0735
138.905 1069 32.6956
139.022 1011 31.7962
139.139 1039 32.2335
139.255 981 31.3209
139.372 912 30.1993
139.488 884 29.7321
139.605 813 28.5132
139.721 791 28.1247
139.838 839 28.9655
139.954 848 29.1204
140.071 792 28.1425
140.187 742 27.2397
140.303 743 27.258
140.419 665 25.7876
140.535 653 25.5539
140.652 595 24.3926
140.768 0 1
140.884 0 1
141 0 1
141.115 0 1
141.231 0 1
141.347 0 1
141.463 0 1
141.578 0 1
141.694 0 1
144.104 0 1
144.219 0 1
144.335 0 1
144.45 0 1
144.566 0 1
144.682 0 1
144.798 0 1
144.914 0 1
145.03 0 1
145.146 889 29.8161
145.262 1009 31.7648
145.378 1037 32.2025
145.494 995 31.5436
145.61 995 31.5436
145.726 961 31
145.842 921 30.348
145.959 878 29.6311
146.075 815 28.5482
146.192 788 28.0713
146.308 734 27.0924
146.425 804 28.3549
146.541 863 29.3769
146.658 843 29.0345
146.774 885 29.7489
146.891 895 29.9166
147.008 897 29.95
147.125 938 30.6268
147.241 972 31.1769
147.358 941 30.6757
147.475 928 30.4631
147.592 982 31.3369
147.709 896 29.9333
147.826 884 29.7321
147.943 849 29.1376
148.06 864 29.3939
148.177 888 29.7993
148.294 849 29.1376
148.411 855 29.2404
148.528 885 29.7489
148.645 944 30.7246
148.762 981 31.3209
148.88 982 31.3369
148.997 1010 31.7805
149.114 938 30.6268
149.231 965 31.0644
149.349 957 30.9354
149.466 935 30.5778
149.583 897 29.95
149.701 799 28.2666
149.818 738 27.1662
149.935 793 28.1603
150.053 742 27.2397
150.17 792 28.1425
150.287 854 29.2233
150.405 829 28.7924
150.522 955 30.9031
150.64 867 29.4449
150.757 928 30.4631
150.875 932 30.5287
150.992 930 30.4959
151.11 975 31.225
151.227 874 29.5635
151.344 881 29.6816
151.462 837 28.931
151.579 864 29.3939
151.697 879 29.6479
151.814 807 28.4077
151.932 812 28.4956
152.049 866 29.4279
152.167 866 29.4279
152.284 878 29.6311
152.402 924 30.3974
152.519 951 30.8383
152.636 959 30.9677
152.754 887 29.7825
152.871 907 30.1164
152.989 908 30.133
153.106 874 29.5635
153.223 816 28.5657
153.341 772 27.7849
153.458 778 27.8927
153.575 758 27.5318
153.693 686 26.1916
153.81 753 27.4408
153.927 770 27.7489
154.044 829 28.7924
154.162 760 27.5681
154.279 854 29.2233
154.396 866 29.4279
154.513 861 29.3428
154.63 867 29.4449
154.747 849 29.1376
154.864 846 29.0861
154.981 858 29.2916
155.098 803 28.3373
155.215 775 27.8388
155.332 766 27.6767
155.449 758 27.5318
155.566 723 26.8887
155.683 808 28.4253
155.8 822 28.6705
155.917 833 28.8617
156.033 800 28.2843
156.15 0 1
156.267 0 1
156.383 0 1
156.5 0 1
156.617 0 1
156.733 0 1
156.85 0 1
156.966 0 1
157.082 0 1
157.199 0 1
157.315 0 1
157.431 0 1
157.547 0 1
157.664 0 1
157.78 0 1
157.896 0 1
158.012 0 1
158.128 0 1
158.244 0 1
158.359 0 1
158.475 0 1
158.591 0 1
158.706 0 1
