
6.15755 0 1
6.2731 0 1
6.3887 0 1
6.50437 0 1
6.62009 0 1
6.73587 0 1
6.8517 0 1
6.96759 0 1
7.08353 0 1
7.19952 0 1
7.31557 0 1
7.43166 0 1
7.54781 0 1
7.664 0 1
7.78024 0 1
7.89653 0 1
8.01286 0 1
8.12924 0 1
8.24567 0 1
8.36213 0 1
8.47864 0 1
8.59519 0 1
8.71178 0 1
8.82841 0 1
8.94508 0 1
9.06179 0 1
9.17853 0 1
9.29531 0 1
9.41212 0 1
9.52897 0 1
9.64584 0 1
9.76276 0 1
9.8797 0 1
9.99667 0 1
10.1137 0 1
10.2307 0 1
10.3478 0 1
10.4648 0 1
10.5819 0 1
10.6991 0 1
10.8162 0 1
10.9334 0 1
11.0506 0 1
11.1678 0 1
11.285 0 1
11.4023 0 1
11.5196 0 1
11.6369 0 1
11.7542 0 1
11.8715 0 1
11.9888 0 1
12.1062 0 1
12.2235 0 1
12.3409 0 1
12.4582 0 1
12.5756 0 1
12.693 0 1
12.8104 0 1
12.9278 0 1
13.0452 0 1
13.1626 0 1
13.28 0 1
13.3974 0 1
13.5149 0 1
13.6323 0 1
13.7497 0 1
13.8671 0 1
13.9845 0 1
14.1019 0 1
14.2193 0 1
14.3367 0 1
14.4541 0 1
14.5714 0 1
14.6888 0 1
14.8062 0 1
14.9235 0 1
15.0408 0 0
15.1581 0 0
15.2755 0 0
15.3927 0 0
15.51 0 0
15.6273 0 0
15.7445 0 0
15.8617 0 0
15.9789 0 0
16.0961 0 0
16.2132 0 0
16.3304 0 0
16.4475 0 0
16.5646 0 0
16.6816 0 0
16.7986 0 0
16.9156 0 0
17.0326 0 0
17.1496 0 0
17.2665 0 0
17.3833 0 0
17.5002 0 0
17.617 0 0
17.7338 0 0
17.8505 0 0
17.9672 0 0
18.0839 0 0
18.2005 0 0
18.3171 0 0
18.4337 0 0
18.5502 0 0
18.6666 0 0
18.7831 0 0
18.8994 0 0
19.0158 0 0
19.1321 0 0
19.2483 0 0
19.3645 0 0
19.4806 0 0
19.5967 0 0
19.7128 0 0
19.8288 0 0
19.9447 0 0
20.0606 0 1
20.1764 0 1
20.2922 0 1
20.4079 0 1
20.5236 0 1
20.6392 0 1
20.7548 0 1
20.8702 0 1
23.3078 0 1
23.4233 0 1
23.539 0 1
23.6547 0 1
23.7704 0 1
23.8862 0 1
24.0021 0 1
24.118 0 1
24.234 0 1
24.35 0 1
24.4661 1775 42.1307
24.5822 1763 41.9881
24.6984 1807 42.5088
24.8146 1781 42.2019
24.9309 1775 42.1307
25.0472 1724 41.5211
25.1636 1577 39.7115
25.28 1565 39.5601
25.3965 1623 40.2865
25.513 1613 40.1622
25.6296 1773 42.107
25.7462 1894 43.5201
25.8628 2044 45.2106
25.9795 1934 43.9773
26.0962 2061 45.3982
26.213 2022 44.9667
26.3298 1949 44.1475
26.4466 1962 44.2945
26.5635 1887 43.4396
26.6804 1868 43.2204
26.7973 1858 43.1045
26.9143 1881 43.3705
27.0313 1933 43.9659
27.1483 1947 44.1248
27.2653 2015 44.8888
27.3824 1851 43.0232
27.4996 2057 45.3542
27.6167 2079 45.5961
27.7339 2000 44.7214
27.8511 1924 43.8634
27.9683 1880 43.359
28.0855 1884 43.4051
28.2028 2037 45.1331
28.3201 1923 43.852
28.4374 1804 42.4735
28.5547 1735 41.6533
28.6721 1598 39.975
28.7894 1593 39.9124
28.9068 1617 40.2119
29.0242 1614 40.1746
29.1416 1739 41.7013
29.259 1793 42.3438
29.3764 1859 43.1161
29.4939 1858 43.1045
29.6113 1965 44.3283
29.7288 1961 44.2832
29.8463 1903 43.6234
29.9638 1909 43.6921
30.0812 1826 42.7317
30.1987 1865 43.1856
30.3162 1789 42.2966
30.4337 1849 43
30.5512 1876 43.3128
30.6687 2008 44.8107
30.7862 1909 43.6921
30.9037 1933 43.9659
31.0212 2010 44.833
31.1387 2013 44.8665
31.2562 1958 44.2493
31.3737 1985 44.5533
31.4912 1897 43.5546
31.6087 1906 43.6578
31.7262 1936 44
31.8436 1981 44.5084
31.9611 1877 43.3244
32.0785 1726 41.5452
32.1959 1625 40.3113
32.3134 1577 39.7115
32.4308 1658 40.7185
32.5482 1653 40.6571
32.6655 1647 40.5832
32.7829 1744 41.7612
32.9002 1927 43.8976
33.0176 1908 43.6807
33.1349 1915 43.7607
33.2522 1943 44.0795
33.3694 1829 42.7668
33.4867 1978 44.4747
33.6039 1869 43.2319
33.7211 1850 43.0116
33.8383 1783 42.2256
33.9554 1672 40.8901
34.0725 1772 42.0951
34.1896 1743 41.7493
34.3067 1826 42.7317
34.4237 1801 42.4382
34.5407 1916 43.7721
34.6577 1974 44.4297
34.7746 1994 44.6542
34.8915 1967 44.3509
35.0084 1924 43.8634
35.1252 1924 43.8634
35.242 1886 43.4281
35.3587 1967 44.3509
35.4755 1958 44.2493
35.5921 1923 43.852
35.7088 1841 42.9069
35.8254 1677 40.9512
35.9419 1579 39.7366
36.0584 1528 39.0896
36.1749 1462 38.2361
36.2913 1595 39.9375
36.4077 1578 39.724
36.524 1676 40.939
36.6403 1846 42.9651
36.7565 1965 44.3283
36.8727 1960 44.2719
36.9889 1833 42.8135
37.1049 1846 42.9651
37.221 0 1
37.3369 0 1
37.4529 0 1
37.5687 0 1
37.6845 0 1
37.8003 0 1
37.916 0 1
38.0316 0 1
38.1472 0 1
40.5851 0 1
40.7008 0 1
40.8164 0 1
40.9322 0 1
41.048 0 1
41.1639 0 1
41.2798 0 1
41.3958 0 1
41.5118 0 1
41.6279 0 1
41.744 1425 37.7492
41.8602 1499 38.7169
41.9765 1529 39.1024
42.0928 1533 39.1535
42.2091 1569 39.6106
42.3255 1592 39.8999
42.4419 1601 40.0125
42.5584 1439 37.9342
42.675 1383 37.1887
42.7915 1401 37.4299
42.9081 1346 36.6879
43.0248 1430 37.8153
43.1415 1448 38.0526
43.2582 1584 39.7995
43.375 1633 40.4104
43.4918 1653 40.6571
43.6087 1691 41.1218
43.7256 1657 40.7063
43.8425 1599 39.9875
43.9595 1572 39.6485
44.0765 1540 39.2428
44.1935 1446 38.0263
44.3106 1499 38.7169
44.4277 1467 38.3014
44.5448 1402 37.4433
44.6619 1196 34.5832
44.7791 1197 34.5977
44.8963 1195 34.5688
45.0136 1175 34.2783
45.1308 1208 34.7563
45.2481 1287 35.8748
45.3654 1316 36.2767
45.4827 1331 36.4829
45.6001 1317 36.2905
45.7174 1368 36.9865
45.8348 1278 35.7491
45.9522 1210 34.7851
46.0697 1175 34.2783
46.1871 1045 32.3265
46.3046 1066 32.6497
46.422 1041 32.2645
46.5395 1073 32.7567
46.657 1130 33.6155
46.7745 1227 35.0286
46.892 1272 35.6651
47.0096 1223 34.9714
47.1271 1195 34.5688
47.2446 1190 34.4964
47.3622 1164 34.1174
47.4797 1188 34.4674
47.5973 1178 34.322
47.7149 1205 34.7131
47.8324 1121 33.4813
47.95 1144 33.8231
48.0675 1066 32.6497
48.1851 899 29.9833
48.3027 952 30.8545
48.4202 929 30.4795
48.5378 910 30.1662
48.6554 989 31.4484
48.7729 1043 32.2955
48.8904 1046 32.3419
49.008 1087 32.9697
49.1255 1080 32.8634
49.243 1083 32.909
49.3605 1048 32.3728
49.478 1008 31.749
49.5955 943 30.7083
49.713 833 28.8617
49.8304 856 29.2575
49.9479 826 28.7402
50.0653 917 30.282
50.1827 1031 32.1092
50.3001 1060 32.5576
50.4175 1140 33.7639
50.5348 1180 34.3511
50.6521 1165 34.1321
50.7694 1235 35.1426
50.8867 1236 35.1568
51.004 1261 35.5106
51.1212 1258 35.4683
51.2384 1263 35.5387
51.3556 1369 37
51.4727 1257 35.4542
51.5899 1197 34.5977
51.707 1102 33.1964
51.824 1106 33.2566
51.9411 1175 34.2783
52.0581 1217 34.8855
52.175 1252 35.3836
52.2919 1345 36.6742
52.4088 1482 38.4968
52.5257 1393 37.3229
52.6425 1431 37.8286
52.7593 1436 37.8946
52.876 1417 37.6431
52.9927 1461 38.223
53.1094 1374 37.0675
53.226 1237 35.171
53.3426 1222 34.9571
53.4591 1193 34.5398
53.5756 1323 36.3731
53.692 1363 36.9188
53.8084 1535 39.1791
53.9248 1496 38.6782
54.0411 1510 38.8587
54.1573 1659 40.7308
54.2735 0 1
54.3896 0 1
54.5057 0 1
54.6217 0 1
54.7377 0 1
54.8537 0 1
54.9695 0 1
55.0853 0 1
55.2011 0 1
55.3168 0 1
55.4324 0 1
57.824 0 1
57.9396 0 1
58.0553 0 1
58.1711 0 1
58.2869 0 1
58.4028 0 1
58.5187 0 1
58.6347 0 1
58.7508 0 1
58.8669 0 1
58.983 1610 40.1248
59.0992 1773 42.107
59.2155 1800 42.4264
59.3318 1897 43.5546
59.4482 1954 44.2041
59.5646 1923 43.852
59.681 1936 44
59.7975 1899 43.5775
59.9141 1947 44.1248
60.0306 1774 42.1189
60.1473 1697 41.1947
60.2639 1684 41.0366
60.3807 1493 38.6394
60.4974 1572 39.6485
60.6142 1549 39.3573
60.731 1632 40.398
60.8479 1709 41.3401
60.9648 1695 41.1704
61.0818 1735 41.6533
61.1987 1734 41.6413
61.3158 1724 41.5211
61.4328 1697 41.1947
61.5499 1669 40.8534
61.667 1567 39.5854
61.7841 1379 37.1349
61.9013 1461 38.223
62.0185 1432 37.8418
62.1357 1528 39.0896
62.253 1594 39.9249
62.3702 1771 42.0833
62.4875 1862 43.1509
62.6049 1951 44.1701
62.7222 1951 44.1701
62.8396 1931 43.9431
62.9569 1955 44.2154
63.0743 2032 45.0777
63.1918 2079 45.5961
63.3092 2033 45.0888
63.4267 1974 44.4297
63.5441 1881 43.3705
63.6616 1740 41.7133
63.7791 1711 41.3642
63.8966 1576 39.6989
64.0142 1675 40.9268
64.1317 1762 41.9762
64.2492 1713 41.3884
64.3668 1928 43.909
64.4843 1859 43.1161
64.6019 1789 42.2966
64.7195 1888 43.4511
64.837 1825 42.72
64.9546 1864 43.1741
65.0722 1721 41.4849
65.1898 1596 39.95
65.3074 1516 38.9358
65.4249 1345 36.6742
65.5425 1384 37.2022
65.6601 1400 37.4166
65.7777 1493 38.6394
65.8952 1641 40.5093
66.0128 1757 41.9166
66.1304 1701 41.2432
66.2479 1908 43.6807
66.3655 1865 43.1856
66.483 1828 42.7551
66.6005 1928 43.909
66.718 1878 43.3359
66.8355 1860 43.1277
66.953 1809 42.5323
67.0705 1706 41.3038
67.1879 1683 41.0244
67.3054 1596 39.95
67.4228 1458 38.1838
67.5402 1442 37.9737
67.6576 1455 38.1445
67.7749 1466 38.2884
67.8923 1573 39.6611
68.0096 1574 39.6737
68.1269 1552 39.3954
68.2442 1437 37.9078
68.3614 1580 39.7492
68.4787 1524 39.0384
68.5958 1565 39.5601
68.713 1475 38.4057
68.8302 1330 36.4692
68.9473 1216 34.8712
69.0643 1181 34.3657
69.1814 1125 33.541
69.2984 1226 35.0143
69.4154 1373 37.054
69.5323 1507 38.8201
69.6492 1548 39.3446
69.7661 1620 40.2492
69.8829 1722 41.497
69.9997 1832 42.8019
70.1165 1741 41.7253
70.2332 1779 42.1782
70.3499 1762 41.9762
70.4665 1820 42.6615
70.5831 1708 41.328
70.6996 1726 41.5452
70.8161 1570 39.6232
70.9326 1484 38.5227
71.049 1436 37.8946
71.1653 1372 37.0405
71.2817 1377 37.108
71.3979 1412 37.5766
71.5141 1430 37.8153
71.6303 1436 37.8946
71.7464 1364 36.9324
71.8624 0 1
71.9784 0 1
72.0944 0 1
72.2102 0 1
72.3261 0 1
72.4418 0 1
72.5575 0 1
72.6732 0 1
75.1054 0 1
75.2209 0 1
75.3365 0 1
75.4521 0 1
75.5678 0 1
75.6835 0 1
75.7993 0 1
75.9151 0 1
76.031 0 1
76.147 1427 37.7757
76.263 1465 38.2753
76.3791 1399 37.4032
76.4952 1387 37.2424
76.6113 1364 36.9324
76.7276 1434 37.8682
76.8438 1548 39.3446
76.9601 1487 38.5616
77.0765 1500 38.7298
77.1929 1534 39.1663
77.3093 1549 39.3573
77.4258 1631 40.3856
77.5423 1636 40.4475
77.6589 1551 39.3827
77.7755 1347 36.7015
77.8921 1272 35.6651
78.0088 1112 33.3467
78.1256 1085 32.9393
78.2423 1032 32.1248
78.3591 1171 34.2199
78.4759 1366 36.9594
78.5928 1438 37.921
78.7097 1539 39.2301
78.8266 1624 40.2989
78.9436 1735 41.6533
79.0606 1828 42.7551
79.1776 1750 41.833
79.2946 1781 42.2019
79.4117 1703 41.2674
79.5288 1713 41.3884
79.6459 1581 39.7618
79.7631 1588 39.8497
79.8802 1509 38.8458
79.9974 1412 37.5766
80.1147 1346 36.6879
80.2319 1342 36.6333
80.3491 1367 36.973
80.4664 1442 37.9737
80.5837 1365 36.9459
80.701 1394 37.3363
80.8183 1399 37.4032
80.9357 1478 38.4448
81.053 1469 38.3275
81.1704 1474 38.3927
81.2877 1424 37.7359
81.4051 1253 35.3977
81.5225 1115 33.3916
81.6399 1023 31.9844
81.7573 914 30.2324
81.8747 901 30.0167
81.9922 1045 32.3265
82.1096 1175 34.2783
82.227 1293 35.9583
82.3444 1420 37.6829
82.4619 1412 37.5766
82.5793 1447 38.0395
82.6967 1543 39.281
82.8142 1597 39.9625
82.9316 1531 39.128
83.049 1520 38.9872
83.1664 1528 39.0896
83.2838 1414 37.6032
83.4012 1367 36.973
83.5186 1290 35.9166
83.636 1209 34.7707
83.7534 1271 35.6511
83.8708 1206 34.7275
83.9881 1264 35.5528
84.1055 1281 35.7911
84.2228 1435 37.8814
84.3401 1371 37.027
84.4575 1322 36.3593
84.5747 1350 36.7423
84.692 1428 37.7889
84.8093 1355 36.8103
84.9265 1292 35.9444
85.0437 1136 33.7046
85.1609 1000 31.6228
85.2781 919 30.315
85.3952 841 29
85.5123 871 29.5127
85.6294 1065 32.6343
85.7465 1345 36.6742
85.8636 1392 37.3095
85.9806 1509 38.8458
86.0976 1578 39.724
86.2145 1673 40.9023
86.3315 1684 41.0366
86.4484 1572 39.6485
86.5652 1682 41.0122
86.682 1731 41.6053
86.7988 1617 40.2119
86.9156 1579 39.7366
87.0323 1472 38.3667
87.149 1443 37.9868
87.2657 1460 38.2099
87.3823 1466 38.2884
87.4988 1463 38.2492
87.6154 1494 38.6523
87.7318 1477 38.4318
87.8483 1494 38.6523
87.9647 1531 39.128
88.081 1554 39.4208
88.1973 1679 40.9756
88.3136 1601 40.0125
88.4298 1497 38.6911
88.546 1298 36.0278
88.6621 1157 34.0147
88.7781 1045 32.3265
88.8942 0 1
89.0101 0 1
89.126 0 1
89.2419 0 1
89.3577 0 1
89.4734 0 1
89.5891 0 1
89.7047 0 1
89.8203 0 1
89.9358 0 1
92.3269 0 1
92.4424 0 1
92.558 0 1
92.6736 0 1
92.7893 0 1
92.905 0 1
93.0208 0 1
93.1366 0 1
93.2525 0 1
93.3685 0 1
93.4845 0 1
93.6005 1583 39.7869
93.7167 1569 39.6106
93.8328 1556 39.4462
93.949 1547 39.3319
94.0653 1326 36.4143
94.1816 1184 34.4093
94.2979 1127 33.5708
94.4143 1025 32.0156
94.5307 1041 32.2645
94.6472 1139 33.7491
94.7637 1304 36.1109
94.8803 1611 40.1373
94.9969 1660 40.7431
95.1135 1726 41.5452
95.2302 1709 41.3401
95.3469 1821 42.6732
95.4637 1784 42.2374
95.5805 1885 43.4166
95.6973 1880 43.359
95.8142 1886 43.4281
95.9311 1694 41.1582
96.048 1653 40.6571
96.1649 1620 40.2492
96.2819 1632 40.398
96.3989 1680 40.9878
96.516 1596 39.95
96.633 1596 39.95
96.7501 1649 40.6079
96.8673 1701 41.2432
96.9844 1679 40.9756
97.1016 1635 40.4351
97.2188 1733 41.6293
97.336 1827 42.7434
97.4532 1781 42.2019
97.5704 1644 40.5463
97.6877 1454 38.1314
97.805 1229 35.0571
97.9223 1124 33.5261
98.0396 1046 32.3419
98.1569 985 31.3847
98.2743 1105 33.2415
98.3916 1282 35.805
98.509 1431 37.8286
98.6264 1614 40.1746
98.7438 1730 41.5933
98.8612 1884 43.4051
98.9786 1782 42.2137
99.096 1915 43.7607
99.2134 1939 44.0341
99.3308 1906 43.6578
99.4482 1955 44.2154
99.5656 1819 42.6497
99.6831 1795 42.3674
99.8005 1793 42.3438
99.9179 1758 41.9285
100.035 1731 41.6053
100.153 1727 41.5572
100.27 1784 42.2374
100.388 1642 40.5216
100.505 1735 41.6533
100.622 1759 41.9404
100.74 1748 41.8091
100.857 1793 42.3438
100.975 1724 41.5211
101.092 1762 41.9762
101.209 1662 40.7676
101.327 1450 38.0789
101.444 1193 34.5398
101.561 1156 34
101.679 992 31.496
101.796 1072 32.7414
101.913 1250 35.3553
102.03 1444 38
102.148 1664 40.7922
102.265 1793 42.3438
102.382 2006 44.7884
102.499 1935 43.9886
102.616 1995 44.6654
102.733 2007 44.7996
102.851 2050 45.2769
102.968 1984 44.5421
103.085 1882 43.382
103.202 1930 43.9318
103.319 1889 43.4626
103.436 1797 42.391
103.552 1874 43.2897
103.669 1808 42.5206
103.786 1850 43.0116
103.903 1756 41.9047
104.02 1791 42.3202
104.137 1817 42.6263
104.253 1861 43.1393
104.37 1876 43.3128
104.487 1889 43.4626
104.603 1904 43.6348
104.72 1643 40.5339
104.836 1443 37.9868
104.953 1236 35.1568
105.069 1141 33.7787
105.186 1093 33.0606
105.302 1180 34.3511
105.418 1455 38.1445
105.535 1699 41.2189
105.651 1921 43.8292
105.767 1951 44.1701
105.883 2102 45.8476
105.999 2076 45.5631
106.115 0 1
106.231 0 1
106.347 0 1
106.463 0 1
106.579 0 1
106.694 0 1
106.81 0 1
106.926 0 1
107.041 0 1
107.157 0 1
109.576 0 1
109.692 0 1
109.807 0 1
109.923 0 1
110.039 0 1
110.155 0 1
110.27 0 1
110.386 0 1
110.502 0 1
110.618 1526 39.064
110.735 1861 43.1393
110.851 1914 43.7493
110.967 1914 43.7493
111.083 2002 44.7437
111.199 2015 44.8888
111.316 2050 45.2769
111.432 2061 45.3982
111.549 2074 45.5412
111.665 2010 44.833
111.782 1944 44.0908
111.898 1894 43.5201
112.015 1884 43.4051
112.132 1856 43.0813
112.248 1865 43.1856
112.365 1906 43.6578
112.482 1769 42.0595
112.599 1775 42.1307
112.716 1744 41.7612
112.832 1751 41.845
112.949 1787 42.2729
113.066 1773 42.107
113.183 1734 41.6413
113.3 1573 39.6611
113.417 1349 36.7287
113.534 1190 34.4964
113.652 1087 32.9697
113.769 1049 32.3883
113.886 1137 33.7194
114.003 1323 36.3731
114.12 1600 40
114.238 1778 42.1663
114.355 1771 42.0833
114.472 1855 43.0697
114.589 1909 43.6921
114.707 1921 43.8292
114.824 1838 42.8719
114.942 1886 43.4281
115.059 2006 44.7884
115.176 1903 43.6234
115.294 1973 44.4185
115.411 1885 43.4166
115.529 1868 43.2204
115.646 1815 42.6028
115.764 1792 42.332
115.881 1702 41.2553
115.999 1666 40.8167
116.116 1739 41.7013
116.234 1710 41.3521
116.351 1696 41.1825
116.469 1745 41.7732
116.586 1786 42.2611
116.704 1777 42.1545
116.821 1563 39.5348
116.939 1400 37.4166
117.056 1294 35.9722
117.174 1114 33.3766
117.291 1122 33.4963
117.409 1122 33.4963
117.526 1166 34.1467
117.644 1354 36.7967
117.761 1660 40.7431
117.879 1708 41.328
117.996 1739 41.7013
118.114 1834 42.8252
118.231 1898 43.566
118.349 1887 43.4396
118.466 1822 42.6849
118.584 1900 43.589
118.701 1938 44.0227
118.819 1913 43.7379
118.936 1846 42.9651
119.053 1724 41.5211
119.171 1806 42.4971
119.288 1821 42.6732
119.405 1761 41.9643
119.523 1697 41.1947
119.64 1646 40.5709
119.757 1625 40.3113
119.875 1616 40.1995
119.992 1633 40.4104
120.109 1733 41.6293
120.226 1651 40.6325
120.343 1668 40.8412
120.46 1546 39.3192
120.578 1374 37.0675
120.695 1335 36.5377
120.812 1171 34.2199
120.929 1166 34.1467
121.046 1103 33.2114
121.163 1188 34.4674
121.279 1278 35.7491
121.396 1438 37.921
121.513 1688 41.0853
121.63 1677 40.9512
121.747 1698 41.2068
121.863 1796 42.3792
121.98 1850 43.0116
122.097 1907 43.6692
122.213 1863 43.1625
122.33 1825 42.72
122.446 1745 41.7732
122.563 1793 42.3438
122.679 1833 42.8135
122.795 1794 42.3556
122.912 1691 41.1218
123.028 1705 41.2916
123.144 1621 40.2616
123.26 1595 39.9375
123.377 0 1
123.493 0 1
123.609 0 1
123.725 0 1
123.84 0 1
123.956 0 1
124.072 0 1
124.188 0 1
124.303 0 1
124.419 0 1
126.852 0 1
126.968 0 1
127.083 0 1
127.199 0 1
127.315 0 1
127.431 0 1
127.547 0 1
127.663 0 1
127.779 0 1
127.895 0 1
128.011 0 1
128.127 0 1
128.243 0 1
128.359 1829 42.7668
128.476 1862 43.1509
128.592 1862 43.1509
128.708 1816 42.6146
128.825 1841 42.9069
128.941 1813 42.5793
129.058 1851 43.0232
129.174 1851 43.0232
129.291 1842 42.9185
129.408 1706 41.3038
129.524 1600 40
129.641 1454 38.1314
129.758 1368 36.9865
129.875 1268 35.609
129.992 1267 35.5949
130.108 1379 37.1349
130.225 1425 37.7492
130.342 1569 39.6106
130.459 1689 41.0974
130.576 1795 42.3674
130.693 1854 43.0581
130.81 1880 43.359
130.928 1951 44.1701
131.045 1998 44.699
131.162 1996 44.6766
131.279 2040 45.1664
131.396 2073 45.5302
131.513 2041 45.1774
131.631 1978 44.4747
131.748 2079 45.5961
131.865 1882 43.382
131.983 1915 43.7607
132.1 1900 43.589
132.217 1920 43.8178
132.335 1960 44.2719
132.452 1874 43.2897
132.57 1898 43.566
132.687 1864 43.1741
132.804 1972 44.4072
132.922 1817 42.6263
133.039 1677 40.9512
133.157 1562 39.5221
133.274 1447 38.0395
133.392 1396 37.3631
133.509 1284 35.8329
133.627 1331 36.4829
133.744 1366 36.9594
133.862 1587 39.8372
133.979 1644 40.5463
134.097 1813 42.5793
134.214 1899 43.5775
134.332 1894 43.5201
134.449 1877 43.3244
134.567 1971 44.3959
134.684 2058 45.3652
134.802 2161 46.4866
134.919 2145 46.3141
135.037 2066 45.4533
135.154 2110 45.9347
135.272 1991 44.6206
135.389 1980 44.4972
135.507 1997 44.6878
135.624 1979 44.486
135.742 1947 44.1248
135.859 2041 45.1774
135.977 1961 44.2832
136.094 1983 44.5309
136.211 1866 43.1972
136.329 1951 44.1701
136.446 1959 44.2606
136.564 1798 42.4028
136.681 1697 41.1947
136.798 1567 39.5854
136.915 1421 37.6962
137.033 1352 36.7696
137.15 1358 36.8511
137.267 1265 35.5668
137.384 1383 37.1887
137.502 1447 38.0395
137.619 1624 40.2989
137.736 1764 42
137.853 1776 42.1426
137.97 1863 43.1625
138.087 1869 43.2319
138.204 1985 44.5533
138.321 2061 45.3982
138.438 2153 46.4004
138.555 2026 45.0111
138.672 2131 46.1628
138.788 2005 44.7772
138.905 2079 45.5961
139.022 2080 45.607
139.139 2033 45.0888
139.255 2051 45.288
139.372 2058 45.3652
139.488 2096 45.7821
139.605 1965 44.3283
139.721 2063 45.4203
139.838 1995 44.6654
139.954 2005 44.7772
140.071 1933 43.9659
140.187 1920 43.8178
140.303 1677 40.9512
140.419 1573 39.6611
140.535 1401 37.4299
140.652 1372 37.0405
140.768 0 1
140.884 0 1
141 0 1
141.115 0 1
141.231 0 1
141.347 0 1
141.463 0 1
141.578 0 1
141.694 0 1
144.104 0 1
144.219 0 1
144.335 0 1
144.45 0 1
144.566 0 1
144.682 0 1
144.798 0 1
144.914 0 1
145.03 0 1
145.146 1399 37.4032
145.262 1468 38.3145
145.378 1437 37.9078
145.494 1371 37.027
145.61 1241 35.2278
145.726 1179 34.3366
145.842 1170 34.2053
145.959 1136 33.7046
146.075 1044 32.311
146.192 1068 32.6803
146.308 1163 34.1028
146.425 1247 35.3129
146.541 1310 36.1939
146.658 1423 37.7227
146.774 1501 38.7427
146.891 1627 40.3361
147.008 1601 40.0125
147.125 1615 40.1871
147.241 1706 41.3038
147.358 1712 41.3763
147.475 1656 40.694
147.592 1645 40.5586
147.709 1717 41.4367
147.826 1675 40.9268
147.943 1587 39.8372
148.06 1514 38.9102
148.177 1598 39.975
148.294 1602 40.025
148.411 1606 40.0749
148.528 1588 39.8497
148.645 1586 39.8246
148.762 1538 39.2173
148.88 1483 38.5097
148.997 1488 38.5746
149.114 1582 39.7744
149.231 1413 37.5899
149.349 1314 36.2491
149.466 1352 36.7696
149.583 1249 35.3412
149.701 1182 34.3802
149.818 1138 33.7343
149.935 1062 32.5883
150.053 1135 33.6898
150.17 1192 34.5254
150.287 1323 36.3731
150.405 1440 37.9473
150.522 1573 39.6611
150.64 1558 39.4715
150.757 1635 40.4351
150.875 1679 40.9756
150.992 1630 40.3733
151.11 1653 40.6571
151.227 1683 41.0244
151.344 1665 40.8044
151.462 1637 40.4599
151.579 1533 39.1535
151.697 1569 39.6106
151.814 1576 39.6989
151.932 1520 38.9872
152.049 1558 39.4715
152.167 1657 40.7063
152.284 1594 39.9249
152.402 1598 39.975
152.519 1543 39.281
152.636 1551 39.3827
152.754 1463 38.2492
152.871 1485 38.5357
152.989 1376 37.0945
153.106 1297 36.0139
153.223 1219 34.9142
153.341 1234 35.1283
153.458 1112 33.3467
153.575 1127 33.5708
153.693 1212 34.8138
153.81 1225 35
153.927 1363 36.9188
154.044 1422 37.7094
154.162 1566 39.5727
154.279 1657 40.7063
154.396 1657 40.7063
154.513 1701 41.2432
154.63 1747 41.7971
154.747 1783 42.2256
154.864 1802 42.45
154.981 1747 41.7971
155.098 1722 41.497
155.215 1681 41
155.332 1720 41.4729
155.449 1707 41.3159
155.566 1658 40.7185
155.683 1723 41.509
155.8 1664 40.7922
155.917 1669 40.8534
156.033 1659 40.7308
156.15 0 1
156.267 0 1
156.383 0 1
156.5 0 1
156.617 0 1
156.733 0 1
156.85 0 1
156.966 0 1
157.082 0 1
157.199 0 1
157.315 0 1
157.431 0 1
157.547 0 1
157.664 0 1
157.78 0 1
157.896 0 1
158.012 0 1
158.128 0 1
158.244 0 1
158.359 0 1
158.475 0 1
158.591 0 1
158.706 0 1
