
6.15755 0 1
6.2731 0 1
6.3887 0 1
6.50437 0 1
6.62009 0 1
6.73587 0 1
6.8517 0 1
6.96759 0 1
7.08353 0 1
7.19952 0 1
7.31557 0 1
7.43166 0 1
7.54781 0 1
7.664 0 1
7.78024 0 1
7.89653 0 1
8.01286 0 1
8.12924 0 1
8.24567 0 1
8.36213 0 1
8.47864 0 1
8.59519 0 1
8.71178 0 1
8.82841 0 1
8.94508 0 1
9.06179 0 1
9.17853 0 1
9.29531 0 1
9.41212 0 1
9.52897 0 1
9.64584 0 1
9.76276 0 1
9.8797 0 1
9.99667 0 1
10.1137 0 1
10.2307 0 1
10.3478 0 1
10.4648 0 1
10.5819 0 1
10.6991 0 1
10.8162 0 1
10.9334 0 1
11.0506 0 1
11.1678 0 1
11.285 0 1
11.4023 0 1
11.5196 0 1
11.6369 0 1
11.7542 0 1
11.8715 0 1
11.9888 0 1
12.1062 0 1
12.2235 0 1
12.3409 0 1
12.4582 0 1
12.5756 0 1
12.693 0 1
12.8104 0 1
12.9278 0 1
13.0452 0 1
13.1626 0 1
13.28 0 1
13.3974 0 1
13.5149 0 1
13.6323 0 1
13.7497 0 1
13.8671 0 1
13.9845 0 1
14.1019 0 1
14.2193 0 1
14.3367 0 1
14.4541 0 1
14.5714 0 1
14.6888 0 1
14.8062 0 1
14.9235 0 1
15.0408 0 0
15.1581 0 0
15.2755 0 0
15.3927 0 0
15.51 0 0
15.6273 0 0
15.7445 0 0
15.8617 0 0
15.9789 0 0
16.0961 0 0
16.2132 0 0
16.3304 0 0
16.4475 0 0
16.5646 0 0
16.6816 0 0
16.7986 0 0
16.9156 0 0
17.0326 0 0
17.1496 0 0
17.2665 0 0
17.3833 0 0
17.5002 0 0
17.617 0 0
17.7338 0 0
17.8505 0 0
17.9672 0 0
18.0839 0 0
18.2005 0 0
18.3171 0 0
18.4337 0 0
18.5502 0 0
18.6666 0 0
18.7831 0 0
18.8994 0 0
19.0158 0 0
19.1321 0 0
19.2483 0 0
19.3645 0 0
19.4806 0 0
19.5967 0 0
19.7128 0 0
19.8288 0 0
19.9447 0 0
20.0606 0 1
20.1764 0 1
20.2922 0 1
20.4079 0 1
20.5236 0 1
20.6392 0 1
20.7548 0 1
20.8702 0 1
23.3078 0 1
23.4233 0 1
23.539 0 1
23.6547 0 1
23.7704 0 1
23.8862 0 1
24.0021 0 1
24.118 0 1
24.234 0 1
24.35 0 1
24.4661 6110 78.1665
24.5822 7964 89.2412
24.6984 8681 93.1719
24.8146 9779 98.8888
24.9309 10755 103.706
25.0472 11933 109.238
25.1636 12906 113.605
25.28 13825 117.58
25.3965 14826 121.762
25.513 15517 124.567
25.6296 16141 127.047
25.7462 16735 129.364
25.8628 16959 130.227
25.9795 16926 130.1
26.0962 16843 129.781
26.213 16023 126.582
26.3298 14787 121.602
26.4466 14177 119.067
26.5635 13618 116.696
26.6804 13313 115.382
26.7973 14003 118.334
26.9143 14226 119.273
27.0313 14545 120.603
27.1483 14817 121.725
27.2653 15434 124.234
27.3824 15641 125.064
27.4996 15789 125.654
27.6167 15473 124.391
27.7339 15021 122.56
27.8511 14784 121.589
27.9683 14457 120.237
28.0855 14014 118.381
28.2028 13732 117.184
28.3201 13193 114.861
28.4374 12957 113.829
28.5547 13607 116.649
28.6721 14367 119.862
28.7894 15343 123.867
28.9068 15495 124.479
29.0242 16173 127.173
29.1416 16091 126.85
29.259 16304 127.687
29.3764 15896 126.079
29.4939 16120 126.965
29.6113 15702 125.308
29.7288 14660 121.078
29.8463 14087 118.689
29.9638 13549 116.4
30.0812 13059 114.276
30.1987 13001 114.022
30.3162 13811 117.52
30.4337 14220 119.248
30.5512 14324 119.683
30.6687 14761 121.495
30.7862 14927 122.176
30.9037 15304 123.709
31.0212 15724 125.395
31.1387 15312 123.742
31.2562 15148 123.077
31.3737 14812 121.705
31.4912 14504 120.433
31.6087 14285 119.52
31.7262 13631 116.752
31.8436 13258 115.143
31.9611 13153 114.687
32.0785 13616 116.688
32.1959 14494 120.391
32.3134 15193 123.26
32.4308 15938 126.246
32.5482 15978 126.404
32.6655 16301 127.675
32.7829 16469 128.332
32.9002 16006 126.515
33.0176 16018 126.562
33.1349 16606 128.864
33.2522 16297 127.66
33.3694 15217 123.357
33.4867 14285 119.52
33.6039 13810 117.516
33.7211 13350 115.542
33.8383 13380 115.672
33.9554 14105 118.764
34.0725 14409 120.037
34.1896 14542 120.59
34.3067 14859 121.897
34.4237 15108 122.915
34.5407 15702 125.308
34.6577 15574 124.796
34.7746 15607 124.928
34.8915 15422 124.185
35.0084 14993 122.446
35.1252 14758 121.483
35.242 14152 118.962
35.3587 13813 117.529
35.4755 13265 115.174
35.5921 12711 112.743
35.7088 12993 113.987
35.8254 13247 115.096
35.9419 14016 118.389
36.0584 14630 120.955
36.1749 15115 122.943
36.2913 15085 122.821
36.4077 14687 121.19
36.524 14308 119.616
36.6403 13898 117.89
36.7565 13526 116.301
36.8727 12830 113.27
36.9889 11929 109.22
37.1049 10861 104.216
37.221 0 1
37.3369 0 1
37.4529 0 1
37.5687 0 1
37.6845 0 1
37.8003 0 1
37.916 0 1
38.0316 0 1
38.1472 0 1
40.5851 0 1
40.7008 0 1
40.8164 0 1
40.9322 0 1
41.048 0 1
41.1639 0 1
41.2798 0 1
41.3958 0 1
41.5118 0 1
41.6279 0 1
41.744 7379 85.9011
41.8602 8284 91.0165
41.9765 9145 95.6295
42.0928 9335 96.6178
42.2091 9379 96.8452
42.3255 9252 96.1873
42.4419 9125 95.5249
42.5584 9471 97.3191
42.675 9948 99.7397
42.7915 10623 103.068
42.9081 11500 107.238
43.0248 11689 108.116
43.1415 11749 108.393
43.2582 12030 109.681
43.375 12563 112.085
43.4918 12485 111.736
43.6087 12586 112.187
43.7256 12107 110.032
43.8425 11925 109.202
43.9595 11741 108.356
44.0765 11429 106.907
44.1935 11089 105.304
44.3106 10716 103.518
44.4277 10141 100.703
44.5448 10036 100.18
44.6619 10245 101.218
44.7791 11035 105.048
44.8963 11735 108.328
45.0136 12447 111.566
45.1308 12897 113.565
45.2481 12849 113.353
45.3654 12733 112.841
45.4827 12834 113.287
45.6001 12827 113.256
45.7174 12603 112.263
45.8348 12143 110.195
45.9522 11457 107.037
46.0697 11099 105.352
46.1871 10702 103.45
46.3046 10925 104.523
46.422 11248 106.057
46.5395 11899 109.083
46.657 11874 108.968
46.7745 12077 109.895
46.892 12344 111.104
47.0096 12628 112.374
47.1271 12917 113.653
47.2446 12790 113.093
47.3622 12680 112.606
47.4797 12331 111.045
47.5973 11828 108.757
47.7149 11659 107.977
47.8324 10857 104.197
47.95 10413 102.044
48.0675 10044 100.22
48.1851 9838 99.1867
48.3027 10556 102.742
48.4202 11254 106.085
48.5378 12317 110.982
48.6554 12792 113.102
48.7729 13139 114.625
48.8904 13047 114.223
49.008 13109 114.495
49.1255 12733 112.841
49.243 12244 110.653
49.3605 11637 107.875
49.478 11199 105.825
49.5955 10694 103.412
49.713 10413 102.044
49.8304 10645 103.175
49.9479 11266 106.141
50.0653 11671 108.032
50.1827 11834 108.784
50.3001 11907 109.119
50.4175 12005 109.567
50.5348 12427 111.476
50.6521 12563 112.085
50.7694 12485 111.736
50.8867 12536 111.964
51.004 12171 110.322
51.1212 11753 108.411
51.2384 11545 107.448
51.3556 11097 105.342
51.4727 9920 99.5992
51.5899 9365 96.7729
51.707 9792 98.9545
51.824 10376 101.863
51.9411 11593 107.671
52.0581 12611 112.299
52.175 13018 114.096
52.2919 13032 114.158
52.4088 13035 114.171
52.5257 13232 115.03
52.6425 13545 116.383
52.7593 13350 115.542
52.876 12796 113.119
52.9927 12518 111.884
53.1094 11810 108.674
53.226 11375 106.654
53.3426 10824 104.038
53.4591 10975 104.762
53.5756 11106 105.385
53.692 11289 106.25
53.8084 10939 104.59
53.9248 10700 103.441
54.0411 10308 101.528
54.1573 9715 98.5647
54.2735 0 1
54.3896 0 1
54.5057 0 1
54.6217 0 1
54.7377 0 1
54.8537 0 1
54.9695 0 1
55.0853 0 1
55.2011 0 1
55.3168 0 1
55.4324 0 1
57.824 0 1
57.9396 0 1
58.0553 0 1
58.1711 0 1
58.2869 0 1
58.4028 0 1
58.5187 0 1
58.6347 0 1
58.7508 0 1
58.8669 0 1
58.983 7519 86.7122
59.0992 9066 95.2155
59.2155 9844 99.2169
59.3318 11150 105.594
59.4482 12181 110.368
59.5646 12935 113.732
59.681 13434 115.905
59.7975 13883 117.826
59.9141 14082 118.668
60.0306 13589 116.572
60.1473 13124 114.56
60.2639 12388 111.301
60.3807 11817 108.706
60.4974 12226 110.571
60.6142 12936 113.737
60.731 14125 118.849
60.8479 15072 122.768
60.9648 15506 124.523
61.0818 15540 124.66
61.1987 15736 125.443
61.3158 15634 125.036
61.4328 15424 124.193
61.5499 14901 122.07
61.667 14385 119.937
61.7841 13782 117.397
61.9013 13151 114.678
62.0185 13262 115.161
62.1357 13758 117.295
62.253 14327 119.695
62.3702 14812 121.705
62.4875 14948 122.262
62.6049 15277 123.6
62.7222 14976 122.376
62.8396 15570 124.78
62.9569 15922 126.182
63.0743 15514 124.555
63.1918 15148 123.077
63.3092 15156 123.11
63.4267 14558 120.657
63.5441 13900 117.898
63.6616 13036 114.175
63.7791 11762 108.453
63.8966 11082 105.271
64.0142 11352 106.546
64.1317 12180 110.363
64.2492 13600 116.619
64.3668 14656 121.062
64.4843 15167 123.154
64.6019 15341 123.859
64.7195 15407 124.125
64.837 15123 122.976
64.9546 15359 123.931
65.0722 14836 121.803
65.1898 14272 119.465
65.3074 13776 117.371
65.4249 13431 115.892
65.5425 12992 113.982
65.6601 13115 114.521
65.7777 13595 116.598
65.8952 14013 118.377
66.0128 14271 119.461
66.1304 14732 121.375
66.2479 14824 121.754
66.3655 15020 122.556
66.483 15379 124.012
66.6005 15449 124.294
66.718 15143 123.057
66.8355 14648 121.029
66.953 14601 120.835
67.0705 14138 118.903
67.1879 13534 116.336
67.3054 12119 110.086
67.4228 10722 103.547
67.5402 10122 100.608
67.6576 10596 102.937
67.7749 11441 106.963
67.8923 12682 112.614
68.0096 14190 119.122
68.1269 14610 120.872
68.2442 14675 121.14
68.3614 14749 121.445
68.4787 14708 121.277
68.5958 14812 121.705
68.713 14533 120.553
68.8302 14042 118.499
68.9473 13479 116.099
69.0643 13061 114.285
69.1814 12715 112.761
69.2984 12906 113.605
69.4154 13265 115.174
69.5323 13829 117.597
69.6492 14163 119.008
69.7661 14477 120.32
69.8829 14421 120.087
69.9997 14577 120.735
70.1165 14601 120.835
70.2332 14180 119.08
70.3499 13898 117.89
70.4665 13507 116.22
70.5831 12835 113.292
70.6996 12161 110.277
70.8161 11536 107.406
70.9326 10108 100.539
71.049 8205 90.5815
71.1653 6304 79.3977
71.2817 5389 73.4098
71.3979 5222 72.2634
71.5141 5197 72.0902
71.6303 5272 72.6085
71.7464 4892 69.9428
71.8624 0 1
71.9784 0 1
72.0944 0 1
72.2102 0 1
72.3261 0 1
72.4418 0 1
72.5575 0 1
72.6732 0 1
75.1054 0 1
75.2209 0 1
75.3365 0 1
75.4521 0 1
75.5678 0 1
75.6835 0 1
75.7993 0 1
75.9151 0 1
76.031 0 1
76.147 7677 87.6185
76.263 7869 88.7074
76.3791 7786 88.2383
76.4952 7212 84.9235
76.6113 7241 85.0941
76.7276 8151 90.2829
76.8438 9274 96.3016
76.9601 11172 105.698
77.0765 12492 111.768
77.1929 12813 113.195
77.3093 12715 112.761
77.4258 12739 112.867
77.5423 12657 112.503
77.6589 12576 112.143
77.7755 12324 111.014
77.8921 11824 108.738
78.0088 11453 107.019
78.1256 11341 106.494
78.2423 10964 104.709
78.3591 11358 106.574
78.4759 11491 107.196
78.5928 11950 109.316
78.7097 12277 110.802
78.8266 12812 113.19
78.9436 12801 113.142
79.0606 12931 113.715
79.1776 13013 114.075
79.2946 13021 114.11
79.4117 12888 113.525
79.5288 12675 112.583
79.6459 12429 111.485
79.7631 12078 109.9
79.8802 11598 107.694
79.9974 10491 102.426
80.1147 8622 92.8547
80.2319 7739 87.9716
80.3491 8185 90.471
80.4664 9254 96.1977
80.5837 10854 104.183
80.701 12515 111.87
80.8183 12881 113.494
80.9357 13006 114.044
81.053 13100 114.455
81.1704 12767 112.991
81.2877 13246 115.091
81.4051 12751 112.92
81.5225 12492 111.768
81.6399 12065 109.841
81.7573 11759 108.439
81.8747 11625 107.819
81.9922 11214 105.896
82.1096 11606 107.731
82.227 11785 108.559
82.3444 12252 110.689
82.4619 12741 112.876
82.5793 13000 114.018
82.6967 13053 114.25
82.8142 13241 115.07
82.9316 13213 114.948
83.049 12953 113.811
83.1664 12922 113.675
83.2838 12722 112.792
83.4012 12397 111.342
83.5186 11875 108.972
83.636 10987 104.819
83.7534 9120 95.4987
83.8708 7690 87.6926
83.9881 7633 87.367
84.1055 8086 89.9222
84.2228 9806 99.0252
84.3401 11187 105.769
84.4575 12792 113.102
84.5747 13037 114.18
84.692 12907 113.609
84.8093 12862 113.411
84.9265 12790 113.093
85.0437 12741 112.876
85.1609 12040 109.727
85.2781 11897 109.073
85.3952 11719 108.254
85.5123 11417 106.85
85.6294 11637 107.875
85.7465 11772 108.499
85.8636 12072 109.873
85.9806 12543 111.996
86.0976 12724 112.801
86.2145 12759 112.956
86.3315 13025 114.127
86.4484 13476 116.086
86.5652 13231 115.026
86.682 13214 114.952
86.7988 12886 113.517
86.9156 12655 112.494
87.0323 12200 110.454
87.149 11416 106.846
87.2657 10223 101.109
87.3823 8394 91.6188
87.4988 7336 85.6505
87.6154 7325 85.5862
87.7318 8368 91.4768
87.8483 9901 99.5038
87.9647 11361 106.588
88.081 11787 108.568
88.1973 11656 107.963
88.3136 11103 105.371
88.4298 10744 103.653
88.546 9852 99.2572
88.6621 8426 91.7932
88.7781 6381 79.8812
88.8942 0 1
89.0101 0 1
89.126 0 1
89.2419 0 1
89.3577 0 1
89.4734 0 1
89.5891 0 1
89.7047 0 1
89.8203 0 1
89.9358 0 1
92.3269 0 1
92.4424 0 1
92.558 0 1
92.6736 0 1
92.7893 0 1
92.905 0 1
93.0208 0 1
93.1366 0 1
93.2525 0 1
93.3685 0 1
93.4845 0 1
93.6005 7830 88.4873
93.7167 8316 91.1921
93.8328 8787 93.739
93.949 9459 97.2574
94.0653 9921 99.6042
94.1816 10664 103.267
94.2979 11267 106.146
94.4143 11769 108.485
94.5307 11982 109.462
94.6472 11923 109.192
94.7637 11922 109.188
94.8803 12215 110.521
94.9969 12118 110.082
95.1135 12279 110.811
95.2302 12600 112.25
95.3469 12739 112.867
95.4637 13158 114.708
95.5805 13153 114.687
95.6973 13164 114.734
95.8142 13025 114.127
95.9311 12750 112.916
96.048 12619 112.334
96.1649 12288 110.851
96.2819 11916 109.16
96.3989 10990 104.833
96.516 9956 99.7798
96.633 8266 90.9175
96.7501 7235 85.0588
96.8673 7337 85.6563
96.9844 8311 91.1647
97.1016 9716 98.5698
97.2188 11483 107.159
97.336 12613 112.308
97.4532 12925 113.688
97.5704 13066 114.307
97.6877 12885 113.512
97.805 12760 112.96
97.9223 12503 111.817
98.0396 12011 109.595
98.1569 11825 108.743
98.2743 11590 107.657
98.3916 11691 108.125
98.509 11942 109.279
98.6264 12277 110.802
98.7438 12453 111.593
98.8612 12627 112.37
98.9786 12741 112.876
99.096 12981 113.934
99.2134 13217 114.965
99.3308 13310 115.369
99.4482 13245 115.087
99.5656 13322 115.421
99.6831 13285 115.261
99.8005 12637 112.414
99.9179 12208 110.49
100.035 11027 105.01
100.153 9533 97.6371
100.27 8141 90.2275
100.388 7946 89.1403
100.505 8961 94.6626
100.622 10434 102.147
100.74 12314 110.968
100.857 13031 114.153
100.975 13106 114.481
101.092 13376 115.655
101.209 13299 115.321
101.327 13156 114.7
101.444 13070 114.324
101.561 12510 111.848
101.679 12359 111.171
101.796 12218 110.535
101.913 12113 110.059
102.03 12299 110.901
102.148 12547 112.013
102.265 12634 112.401
102.382 13327 115.443
102.499 13261 115.156
102.616 13511 116.237
102.733 13805 117.495
102.851 13850 117.686
102.968 13786 117.414
103.085 14088 118.693
103.202 13973 118.207
103.319 13543 116.374
103.436 12584 112.178
103.552 11558 107.508
103.669 10028 100.14
103.786 8262 90.8955
103.903 8070 89.8332
104.02 8666 93.0914
104.137 10601 102.961
104.253 12349 111.126
104.37 13575 116.512
104.487 13841 117.648
104.603 14070 118.617
104.72 13891 117.86
104.836 13471 116.065
104.953 13340 115.499
105.069 12811 113.186
105.186 12585 112.183
105.302 12181 110.368
105.418 12211 110.503
105.535 12047 109.759
105.651 12205 110.476
105.767 11903 109.101
105.883 11219 105.92
105.999 10118 100.588
106.115 0 1
106.231 0 1
106.347 0 1
106.463 0 1
106.579 0 1
106.694 0 1
106.81 0 1
106.926 0 1
107.041 0 1
107.157 0 1
109.576 0 1
109.692 0 1
109.807 0 1
109.923 0 1
110.039 0 1
110.155 0 1
110.27 0 1
110.386 0 1
110.502 0 1
110.618 4733 68.7968
110.735 6005 77.4919
110.851 6818 82.5712
110.967 7879 88.7637
111.083 8921 94.451
111.199 9803 99.0101
111.316 10672 103.305
111.432 11139 105.541
111.549 11585 107.634
111.665 11912 109.142
111.782 11912 109.142
111.898 11857 108.89
112.015 11273 106.174
112.132 9952 99.7597
112.248 8765 93.6216
112.365 6916 83.1625
112.482 6894 83.0301
112.599 7800 88.3176
112.716 8965 94.6837
112.832 10553 102.728
112.949 11613 107.764
113.066 11912 109.142
113.183 12002 109.554
113.3 11897 109.073
113.417 12143 110.195
113.534 12070 109.864
113.652 11461 107.056
113.769 11184 105.754
113.886 10940 104.594
114.003 10987 104.819
114.12 11200 105.83
114.238 11326 106.424
114.355 11803 108.642
114.472 12437 111.521
114.589 11835 108.789
114.707 12032 109.69
114.824 12173 110.331
114.942 12408 111.391
115.059 12433 111.503
115.176 12273 110.784
115.294 12179 110.359
115.411 11835 108.789
115.529 11363 106.597
115.646 10506 102.499
115.764 9103 95.4096
115.881 7794 88.2836
115.999 6772 82.2922
116.116 7254 85.1704
116.234 8292 91.0604
116.351 9922 99.6092
116.469 11155 105.617
116.586 11764 108.462
116.704 11802 108.637
116.821 11751 108.402
116.939 11727 108.291
117.056 11666 108.009
117.174 11485 107.168
117.291 11220 105.925
117.409 11096 105.338
117.526 10937 104.58
117.644 10945 104.618
117.761 11301 106.306
117.879 11579 107.606
117.996 11529 107.373
118.114 11724 108.277
118.231 11816 108.701
118.349 12047 109.759
118.466 12058 109.809
118.584 12366 111.203
118.701 12064 109.836
118.819 11870 108.95
118.936 11673 108.042
119.053 11136 105.527
119.171 10556 102.742
119.288 9607 98.0153
119.405 8348 91.3674
119.523 6872 82.8975
119.64 6420 80.1249
119.757 7081 84.1487
119.875 7989 89.3812
119.992 9472 97.3242
120.109 10598 102.947
120.226 10982 104.795
120.343 11043 105.086
120.46 11083 105.276
120.578 11081 105.266
120.695 11042 105.081
120.812 10863 104.226
120.929 10907 104.437
121.046 10542 102.674
121.163 10402 101.99
121.279 10471 102.328
121.396 10423 102.093
121.513 10901 104.408
121.63 10946 104.623
121.747 11008 104.919
121.863 10921 104.504
121.98 11131 105.504
122.097 11067 105.2
122.213 10883 104.322
122.33 11021 104.981
122.446 10345 101.71
122.563 9927 99.6343
122.679 9400 96.9536
122.795 8421 91.766
122.912 7287 85.3639
123.028 5661 75.2396
123.144 4342 65.8939
123.26 3484 59.0254
123.377 0 1
123.493 0 1
123.609 0 1
123.725 0 1
123.84 0 1
123.956 0 1
124.072 0 1
124.188 0 1
124.303 0 1
124.419 0 1
126.852 0 1
126.968 0 1
127.083 0 1
127.199 0 1
127.315 0 1
127.431 0 1
127.547 0 1
127.663 0 1
127.779 0 1
127.895 0 1
128.011 0 1
128.127 0 1
128.243 0 1
128.359 8714 93.3488
128.476 9017 94.9579
128.592 8342 91.3345
128.708 7186 84.7703
128.825 7543 86.8504
128.941 8454 91.9456
129.058 9748 98.732
129.174 11241 106.024
129.291 11933 109.238
129.408 12194 110.426
129.524 12147 110.213
129.641 12180 110.363
129.758 12322 111.005
129.875 12138 110.173
129.992 11872 108.959
130.108 11664 108
130.225 11673 108.042
130.342 11583 107.624
130.459 11702 108.176
130.576 11690 108.12
130.693 11866 108.931
130.81 12353 111.144
130.928 12015 109.613
131.045 12118 110.082
131.162 12336 111.068
131.279 12062 109.827
131.396 11977 109.439
131.513 11767 108.476
131.631 11480 107.145
131.748 11095 105.333
131.865 10599 102.951
131.983 9860 99.2975
132.1 8523 92.3201
132.217 7045 83.9345
132.335 6999 83.66
132.452 7932 89.0618
132.57 9223 96.0365
132.687 10705 103.465
132.804 11359 106.579
132.922 11839 108.807
133.039 11705 108.19
133.157 11889 109.037
133.274 11850 108.858
133.392 11967 109.394
133.509 11851 108.862
133.627 11702 108.176
133.744 11238 106.009
133.862 11317 106.381
133.979 11182 105.745
134.097 11378 106.668
134.214 11560 107.517
134.332 11628 107.833
134.449 11806 108.655
134.567 11578 107.601
134.684 11680 108.074
134.802 11700 108.167
134.919 11463 107.065
135.037 11418 106.855
135.154 10952 104.652
135.272 10422 102.088
135.389 10112 100.558
135.507 9754 98.7623
135.624 8623 92.8601
135.742 7617 87.2754
135.859 6769 82.2739
135.977 7364 85.8138
136.094 8336 91.3017
136.211 9835 99.1716
136.329 10997 104.867
136.446 11657 107.968
136.564 11747 108.384
136.681 11626 107.824
136.798 11835 108.789
136.915 11833 108.78
137.033 11704 108.185
137.15 11570 107.564
137.267 11363 106.597
137.384 11269 106.156
137.502 10967 104.723
137.619 10854 104.183
137.736 10976 104.766
137.853 10659 103.242
137.97 10686 103.373
138.087 11491 107.196
138.204 11192 105.792
138.321 11310 106.348
138.438 11356 106.565
138.555 11153 105.608
138.672 10824 104.038
138.788 10608 102.995
138.905 10319 101.582
139.022 9832 99.1564
139.139 9241 96.1301
139.255 8570 92.5743
139.372 7260 85.2056
139.488 6238 78.981
139.605 6375 79.8436
139.721 6963 83.4446
139.838 7826 88.4647
139.954 8473 92.0489
140.071 8343 91.34
140.187 7087 84.1843
140.303 6239 78.9873
140.419 5901 76.818
140.535 5577 74.6793
140.652 5252 72.4707
140.768 0 1
140.884 0 1
141 0 1
141.115 0 1
141.231 0 1
141.347 0 1
141.463 0 1
141.578 0 1
141.694 0 1
144.104 0 1
144.219 0 1
144.335 0 1
144.45 0 1
144.566 0 1
144.682 0 1
144.798 0 1
144.914 0 1
145.03 0 1
145.146 6571 81.0617
145.262 7273 85.2819
145.378 8244 90.7965
145.494 8658 93.0484
145.61 8755 93.5682
145.726 8523 92.3201
145.842 8591 92.6876
145.959 8598 92.7254
146.075 8465 92.0054
146.192 8347 91.3619
146.308 8153 90.294
146.425 8191 90.5041
146.541 7987 89.37
146.658 8058 89.7664
146.774 8347 91.3619
146.891 8209 90.6035
147.008 8308 91.1482
147.125 8226 90.6973
147.241 8271 90.945
147.358 8132 90.1776
147.475 8195 90.5262
147.592 7905 88.9101
147.709 7578 87.0517
147.826 7204 84.8764
147.943 6761 82.2253
148.06 6377 79.8561
148.177 5641 75.1066
148.294 5296 72.7736
148.411 5578 74.686
148.528 6205 78.7718
148.645 6926 83.2226
148.762 8030 89.6103
148.88 8449 91.9184
148.997 8594 92.7038
149.114 8352 91.3893
149.231 8447 91.9076
149.349 8525 92.3309
149.466 8444 91.8912
149.583 8385 91.5696
149.701 8138 90.2109
149.818 8118 90.0999
149.935 8246 90.8075
150.053 7879 88.7637
150.17 8066 89.8109
150.287 8043 89.6828
150.405 8064 89.7998
150.522 8216 90.6422
150.64 8252 90.8405
150.757 8213 90.6256
150.875 8021 89.56
150.992 8206 90.587
151.11 8036 89.6437
151.227 7865 88.6848
151.344 7643 87.4243
151.462 7099 84.2556
151.579 6877 82.9277
151.697 6524 80.7713
151.814 5782 76.0395
151.932 5394 73.4439
152.049 5504 74.1889
152.167 5993 77.4145
152.284 6850 82.7647
152.402 7764 88.1136
152.519 8064 89.7998
152.636 8321 91.2195
152.754 8230 90.7193
152.871 8252 90.8405
152.989 8319 91.2086
153.106 8072 89.8443
153.223 8419 91.7551
153.341 8000 89.4427
153.458 8027 89.5935
153.575 7957 89.202
153.693 7955 89.1908
153.81 7888 88.8144
153.927 8019 89.5489
154.044 7918 88.9831
154.162 7859 88.651
154.279 8022 89.5656
154.396 8048 89.7106
154.513 8022 89.5656
154.63 8176 90.4212
154.747 8089 89.9389
154.864 8069 89.8276
154.981 7678 87.6242
155.098 7312 85.5102
155.215 6747 82.1401
155.332 6217 78.848
155.449 5755 75.8617
155.566 5624 74.9933
155.683 5968 77.2528
155.8 6426 80.1623
155.917 7171 84.6818
156.033 7732 87.9318
156.15 0 1
156.267 0 1
156.383 0 1
156.5 0 1
156.617 0 1
156.733 0 1
156.85 0 1
156.966 0 1
157.082 0 1
157.199 0 1
157.315 0 1
157.431 0 1
157.547 0 1
157.664 0 1
157.78 0 1
157.896 0 1
158.012 0 1
158.128 0 1
158.244 0 1
158.359 0 1
158.475 0 1
158.591 0 1
158.706 0 1
