
6.15755 0 1
6.2731 0 1
6.3887 0 1
6.50437 0 1
6.62009 0 1
6.73587 0 1
6.8517 0 1
6.96759 0 1
7.08353 0 1
7.19952 0 1
7.31557 0 1
7.43166 0 1
7.54781 0 1
7.664 0 1
7.78024 0 1
7.89653 0 1
8.01286 0 1
8.12924 0 1
8.24567 0 1
8.36213 0 1
8.47864 0 1
8.59519 0 1
8.71178 0 1
8.82841 0 1
8.94508 0 1
9.06179 0 1
9.17853 0 1
9.29531 0 1
9.41212 0 1
9.52897 0 1
9.64584 0 1
9.76276 0 1
9.8797 0 1
9.99667 0 1
10.1137 0 1
10.2307 0 1
10.3478 0 1
10.4648 0 1
10.5819 0 1
10.6991 0 1
10.8162 0 1
10.9334 0 1
11.0506 0 1
11.1678 0 1
11.285 0 1
11.4023 0 1
11.5196 0 1
11.6369 0 1
11.7542 0 1
11.8715 0 1
11.9888 0 1
12.1062 0 1
12.2235 0 1
12.3409 0 1
12.4582 0 1
12.5756 0 1
12.693 0 1
12.8104 0 1
12.9278 0 1
13.0452 0 1
13.1626 0 1
13.28 0 1
13.3974 0 1
13.5149 0 1
13.6323 0 1
13.7497 0 1
13.8671 0 1
13.9845 0 1
14.1019 0 1
14.2193 0 1
14.3367 0 1
14.4541 0 1
14.5714 0 1
14.6888 0 1
14.8062 0 1
14.9235 0 1
15.0408 7959 89.2132
15.1581 8509 92.2442
15.2755 8760 93.5949
15.3927 8949 94.5992
15.51 8988 94.8051
15.6273 8926 94.4775
15.7445 8727 93.4184
15.8617 8489 92.1358
15.9789 8386 91.5751
16.0961 8171 90.3936
16.2132 8003 89.4595
16.3304 7778 88.193
16.4475 7682 87.647
16.5646 7582 87.0747
16.6816 7690 87.6926
16.7986 7303 85.4576
16.9156 7111 84.3267
17.0326 7147 84.5399
17.1496 6964 83.4506
17.2665 6915 83.1565
17.3833 7084 84.1665
17.5002 6891 83.012
17.617 6913 83.1445
17.7338 7122 84.3919
17.8505 7283 85.3405
17.9672 7460 86.3713
18.0839 7614 87.2582
18.2005 7713 87.8237
18.3171 7898 88.8707
18.4337 8002 89.4539
18.5502 7996 89.4204
18.6666 8185 90.471
18.7831 8269 90.934
18.8994 8175 90.4157
19.0158 8015 89.5265
19.1321 7643 87.4243
19.2483 7306 85.4751
19.3645 6959 83.4206
19.4806 6544 80.895
19.5967 6462 80.3866
19.7128 5984 77.3563
19.8288 5718 75.6175
19.9447 4962 70.4415
20.0606 0 1
20.1764 0 1
20.2922 0 1
20.4079 0 1
20.5236 0 1
20.6392 0 1
20.7548 0 1
20.8702 0 1
23.3078 0 1
23.4233 0 1
23.539 0 1
23.6547 0 1
23.7704 0 1
23.8862 0 1
24.0021 0 1
24.118 0 1
24.234 0 1
24.35 0 1
24.4661 3488 59.0593
24.5822 3935 62.7296
24.6984 4354 65.9848
24.8146 4974 70.5266
24.9309 5669 75.2928
25.0472 6141 78.3645
25.1636 6673 81.6884
25.28 6992 83.6182
25.3965 7361 85.7963
25.513 7655 87.4929
25.6296 8029 89.6047
25.7462 8167 90.3715
25.8628 8280 90.9945
25.9795 8158 90.3216
26.0962 8219 90.6587
26.213 8103 90.0167
26.3298 8241 90.78
26.4466 8126 90.1443
26.5635 8260 90.8845
26.6804 8373 91.5041
26.7973 8384 91.5642
26.9143 8343 91.34
27.0313 8117 90.0944
27.1483 8309 91.1537
27.2653 8483 92.1032
27.3824 8783 93.7177
27.4996 8607 92.7739
27.6167 8677 93.1504
27.7339 8299 91.0988
27.8511 8540 92.4121
27.9683 8187 90.482
28.0855 8074 89.8554
28.2028 8144 90.2441
28.3201 8040 89.666
28.4374 8113 90.0722
28.5547 8112 90.0666
28.6721 8412 91.717
28.7894 8249 90.824
28.9068 8296 91.0824
29.0242 8311 91.1647
29.1416 7981 89.3364
29.259 7914 88.9607
29.3764 7830 88.4873
29.4939 7860 88.6566
29.6113 8018 89.5433
29.7288 8070 89.8332
29.8463 8073 89.8499
29.9638 8079 89.8833
30.0812 8079 89.8833
30.1987 8209 90.6035
30.3162 8319 91.2086
30.4337 8254 90.8515
30.5512 8161 90.3383
30.6687 8244 90.7965
30.7862 8421 91.766
30.9037 8752 93.5521
31.0212 8829 93.9628
31.1387 8806 93.8403
31.2562 8633 92.9139
31.3737 8652 93.0161
31.4912 8478 92.0761
31.6087 8451 91.9293
31.7262 8302 91.1153
31.8436 8269 90.934
31.9611 8387 91.5806
32.0785 8429 91.8096
32.1959 8391 91.6024
32.3134 8413 91.7224
32.4308 8471 92.038
32.5482 8734 93.4559
32.6655 8316 91.1921
32.7829 8307 91.1427
32.9002 7994 89.4092
33.0176 7941 89.1123
33.1349 7962 89.23
33.2522 8070 89.8332
33.3694 8066 89.8109
33.4867 8084 89.9111
33.6039 8268 90.9285
33.7211 8326 91.2469
33.8383 8371 91.4932
33.9554 8510 92.2497
34.0725 8330 91.2688
34.1896 8470 92.0326
34.3067 8411 91.7115
34.4237 8673 93.1289
34.5407 8879 94.2284
34.6577 9115 95.4725
34.7746 9180 95.8123
34.8915 9166 95.7392
35.0084 8909 94.3875
35.1252 8666 93.0914
35.242 8498 92.1846
35.3587 8637 92.9355
35.4755 8509 92.2442
35.5921 8363 91.4494
35.7088 8482 92.0978
35.8254 8532 92.3688
35.9419 8229 90.7138
36.0584 8374 91.5096
36.1749 8188 90.4876
36.2913 8143 90.2386
36.4077 7812 88.3855
36.524 7321 85.5628
36.6403 6870 82.8855
36.7565 6394 79.9625
36.8727 5818 76.2758
36.9889 5520 74.2967
37.1049 5170 71.9027
37.221 0 1
37.3369 0 1
37.4529 0 1
37.5687 0 1
37.6845 0 1
37.8003 0 1
37.916 0 1
38.0316 0 1
38.1472 0 1
40.5851 0 1
40.7008 0 1
40.8164 0 1
40.9322 0 1
41.048 0 1
41.1639 0 1
41.2798 0 1
41.3958 0 1
41.5118 0 1
41.6279 0 1
41.744 4445 66.6708
41.8602 5342 73.089
41.9765 6139 78.3518
42.0928 6767 82.2618
42.2091 7133 84.4571
42.3255 7762 88.1022
42.4419 8321 91.2195
42.5584 8806 93.8403
42.675 8939 94.5463
42.7915 8964 94.6784
42.9081 9247 96.1613
43.0248 9230 96.0729
43.1415 9497 97.4526
43.2582 9847 99.2321
43.375 10624 103.073
43.4918 11270 106.16
43.6087 11594 107.675
43.7256 11556 107.499
43.8425 11582 107.62
43.9595 11499 107.233
44.0765 11973 109.421
44.1935 12384 111.283
44.3106 12173 110.331
44.4277 12290 110.86
44.5448 12415 111.423
44.6619 12462 111.633
44.7791 12314 110.968
44.8963 12576 112.143
45.0136 12556 112.054
45.1308 12647 112.459
45.2481 12494 111.777
45.3654 12152 110.236
45.4827 12187 110.395
45.6001 11863 108.917
45.7174 11587 107.643
45.8348 11589 107.652
45.9522 11264 106.132
46.0697 11418 106.855
46.1871 10925 104.523
46.3046 10512 102.528
46.422 10142 100.707
46.5395 9839 99.1917
46.657 10113 100.563
46.7745 10165 100.822
46.892 10645 103.175
47.0096 10946 104.623
47.1271 11140 105.546
47.2446 11039 105.067
47.3622 10816 104
47.4797 10592 102.917
47.5973 10629 103.097
47.7149 10305 101.514
47.8324 10187 100.931
47.95 9883 99.4133
48.0675 9964 99.8198
48.1851 9538 97.6627
48.3027 9661 98.2904
48.4202 9287 96.3691
48.5378 9422 97.067
48.6554 9113 95.462
48.7729 9239 96.1197
48.8904 9185 95.8384
49.008 9048 95.121
49.1255 8876 94.2125
49.243 8905 94.3663
49.3605 8790 93.755
49.478 8766 93.6269
49.5955 8949 94.5992
49.713 8673 93.1289
49.8304 8521 92.3093
49.9479 8413 91.7224
50.0653 8739 93.4826
50.1827 8988 94.8051
50.3001 8943 94.5674
50.4175 9464 97.2831
50.5348 9910 99.549
50.6521 10029 100.145
50.7694 10279 101.385
50.8867 10258 101.282
51.004 10499 102.465
51.1212 10348 101.725
51.2384 10396 101.961
51.3556 10164 100.817
51.4727 9971 99.8549
51.5899 10031 100.155
51.707 9902 99.5088
51.824 9817 99.0808
51.9411 9553 97.7394
52.0581 9556 97.7548
52.175 9300 96.4365
52.2919 9283 96.3483
52.4088 9259 96.2237
52.5257 9412 97.0155
52.6425 9093 95.3572
52.7593 8825 93.9415
52.876 8829 93.9628
52.9927 8882 94.2444
53.1094 8839 94.016
53.226 8682 93.1773
53.3426 8285 91.022
53.4591 8103 90.0167
53.5756 7750 88.0341
53.692 7364 85.8138
53.8084 7146 84.534
53.9248 6821 82.5893
54.0411 6324 79.5236
54.1573 5995 77.4274
54.2735 0 1
54.3896 0 1
54.5057 0 1
54.6217 0 1
54.7377 0 1
54.8537 0 1
54.9695 0 1
55.0853 0 1
55.2011 0 1
55.3168 0 1
55.4324 0 1
57.824 0 1
57.9396 0 1
58.0553 0 1
58.1711 0 1
58.2869 0 1
58.4028 0 1
58.5187 0 1
58.6347 0 1
58.7508 0 1
58.8669 0 1
58.983 8005 89.4707
59.0992 9186 95.8436
59.2155 9979 99.8949
59.3318 10982 104.795
59.4482 12039 109.722
59.5646 12752 112.925
59.681 13278 115.23
59.7975 13387 115.702
59.9141 13451 115.978
60.0306 13458 116.009
60.1473 13133 114.599
60.2639 13242 115.074
60.3807 13098 114.446
60.4974 13135 114.608
60.6142 13202 114.9
60.731 12756 112.942
60.8479 12865 113.424
60.9648 12678 112.597
61.0818 12504 111.821
61.1987 12885 113.512
61.3158 12912 113.631
61.4328 12867 113.433
61.5499 12686 112.632
61.667 12486 111.741
61.7841 12598 112.241
61.9013 12580 112.161
62.0185 12429 111.485
62.1357 12474 111.687
62.253 12547 112.013
62.3702 13201 114.896
62.4875 13656 116.859
62.6049 14100 118.743
62.7222 14566 120.69
62.8396 14966 122.336
62.9569 15387 124.044
63.0743 15432 124.226
63.1918 15446 124.282
63.3092 15461 124.342
63.4267 15022 122.564
63.5441 14668 121.112
63.6616 14501 120.42
63.7791 14114 118.802
63.8966 13995 118.3
64.0142 14100 118.743
64.1317 13878 117.805
64.2492 13543 116.374
64.3668 13151 114.678
64.4843 13116 114.525
64.6019 13001 114.022
64.7195 13102 114.464
64.837 13189 114.843
64.9546 12824 113.243
65.0722 12902 113.587
65.1898 13171 114.765
65.3074 12864 113.42
65.4249 12705 112.716
65.5425 12583 112.174
65.6601 12604 112.268
65.7777 12635 112.406
65.8952 13014 114.079
66.0128 13589 116.572
66.1304 14141 118.916
66.2479 14534 120.557
66.3655 15187 123.236
66.483 15749 125.495
66.6005 15990 126.452
66.718 15984 126.428
66.8355 15920 126.174
66.953 15759 125.535
67.0705 15459 124.334
67.1879 15100 122.882
67.3054 14869 121.939
67.4228 14323 119.679
67.5402 14170 119.038
67.6576 13893 117.869
67.7749 13666 116.902
67.8923 13442 115.94
68.0096 13289 115.278
68.1269 13150 114.673
68.2442 13351 115.547
68.3614 13468 116.052
68.4787 13501 116.194
68.5958 13335 115.477
68.713 13310 115.369
68.8302 13534 116.336
68.9473 13175 114.782
69.0643 12843 113.327
69.1814 12255 110.702
69.2984 12033 109.695
69.4154 12148 110.218
69.5323 12453 111.593
69.6492 13195 114.869
69.7661 13605 116.64
69.8829 14025 118.427
69.9997 14292 119.549
70.1165 14261 119.419
70.2332 13848 117.678
70.3499 13473 116.073
70.4665 12847 113.345
70.5831 11703 108.18
70.6996 10730 103.586
70.8161 9732 98.6509
70.9326 9005 94.8947
71.049 8206 90.587
71.1653 7677 87.6185
71.2817 7192 84.8057
71.3979 6752 82.1706
71.5141 6505 80.6536
71.6303 5876 76.6551
71.7464 5093 71.3653
71.8624 0 1
71.9784 0 1
72.0944 0 1
72.2102 0 1
72.3261 0 1
72.4418 0 1
72.5575 0 1
72.6732 0 1
75.1054 0 1
75.2209 0 1
75.3365 0 1
75.4521 0 1
75.5678 0 1
75.6835 0 1
75.7993 0 1
75.9151 0 1
76.031 0 1
76.147 10797 103.909
76.263 11509 107.28
76.3791 12028 109.672
76.4952 12021 109.64
76.6113 12168 110.309
76.7276 12037 109.713
76.8438 12581 112.165
76.9601 12391 111.315
77.0765 12496 111.786
77.1929 12661 112.521
77.3093 13175 114.782
77.4258 13288 115.274
77.5423 13447 115.961
77.6589 13589 116.572
77.7755 13497 116.177
77.8921 13214 114.952
78.0088 12437 111.521
78.1256 12132 110.145
78.2423 11953 109.33
78.3591 11742 108.361
78.4759 12104 110.018
78.5928 13305 115.347
78.7097 14112 118.794
78.8266 14620 120.913
78.9436 15267 123.56
79.0606 15425 124.197
79.1776 16101 126.89
79.2946 16458 128.289
79.4117 16681 129.155
79.5288 16774 129.514
79.6459 16682 129.159
79.7631 16026 126.594
79.8802 15317 123.762
79.9974 14989 122.43
80.1147 14700 121.244
80.2319 14814 121.713
80.3491 14479 120.329
80.4664 14507 120.445
80.5837 14550 120.623
80.701 14657 121.066
80.8183 14446 120.192
80.9357 14645 121.017
81.053 15142 123.053
81.1704 15468 124.37
81.2877 15251 123.495
81.4051 15188 123.24
81.5225 15102 122.89
81.6399 14680 121.161
81.7573 14029 118.444
81.8747 13629 116.743
81.9922 12941 113.759
82.1096 13510 116.233
82.227 14767 121.52
82.3444 15620 124.98
82.4619 16571 128.728
82.5793 17090 130.729
82.6967 17351 131.723
82.8142 17344 131.697
82.9316 18318 135.344
83.049 18369 135.532
83.1664 18482 135.949
83.2838 18245 135.074
83.4012 17522 132.371
83.5186 16805 129.634
83.636 16245 127.456
83.7534 16073 126.779
83.8708 16277 127.581
83.9881 15941 126.258
84.1055 16074 126.783
84.2228 16146 127.067
84.3401 16301 127.675
84.4575 16336 127.812
84.5747 16632 128.965
84.692 17109 130.801
84.8093 17384 131.848
84.9265 17096 130.752
85.0437 16661 129.077
85.1609 16431 128.183
85.2781 15369 123.972
85.3952 14455 120.229
85.5123 14133 118.882
85.6294 14167 119.025
85.7465 15076 122.784
85.8636 16257 127.503
85.9806 17025 130.48
86.0976 17930 133.903
86.2145 18485 135.96
86.3315 18422 135.728
86.4484 18869 137.364
86.5652 19509 139.675
86.682 19499 139.639
86.7988 19301 138.928
86.9156 19145 138.365
87.0323 18562 136.242
87.149 18027 134.265
87.2657 17274 131.431
87.3823 16922 130.085
87.4988 16371 127.949
87.6154 15677 125.208
87.7318 15113 122.935
87.8483 14155 118.975
87.9647 13067 114.311
88.081 12424 111.463
88.1973 11935 109.247
88.3136 11329 106.438
88.4298 10595 102.932
88.546 9692 98.448
88.6621 8942 94.5621
88.7781 7875 88.7412
88.8942 0 1
89.0101 0 1
89.126 0 1
89.2419 0 1
89.3577 0 1
89.4734 0 1
89.5891 0 1
89.7047 0 1
89.8203 0 1
89.9358 0 1
92.3269 0 1
92.4424 0 1
92.558 0 1
92.6736 0 1
92.7893 0 1
92.905 0 1
93.0208 0 1
93.1366 0 1
93.2525 0 1
93.3685 0 1
93.4845 0 1
93.6005 15473 124.391
93.7167 17257 131.366
93.8328 18430 135.757
93.949 19455 139.481
94.0653 19946 141.23
94.1816 20003 141.432
94.2979 19768 140.599
94.4143 19240 138.708
94.5307 18214 134.959
94.6472 17431 132.027
94.7637 17228 131.255
94.8803 17424 132
94.9969 18332 135.396
95.1135 19521 139.718
95.2302 20487 143.133
95.3469 21919 148.051
95.4637 22508 150.027
95.5805 22973 151.568
95.6973 23656 153.805
95.8142 23533 153.405
95.9311 23511 153.333
96.048 23524 153.375
96.1649 23208 152.342
96.2819 22746 150.818
96.3989 21956 148.176
96.516 21717 147.367
96.633 21482 146.567
96.7501 21565 146.85
96.8673 21645 147.122
96.9844 21603 146.98
97.1016 21365 146.168
97.2188 21438 146.417
97.336 21864 147.865
97.4532 22095 148.644
97.5704 22939 151.456
97.6877 23044 151.803
97.805 22902 151.334
97.9223 22425 149.75
98.0396 21448 146.451
98.1569 19972 141.322
98.2743 18972 137.739
98.3916 17915 133.847
98.509 18206 134.93
98.6264 19602 140.007
98.7438 20786 144.174
98.8612 21846 147.804
98.9786 23194 152.296
99.096 24200 155.563
99.2134 24384 156.154
99.3308 25193 158.723
99.4482 25634 160.106
99.5656 26112 161.592
99.6831 25830 160.717
99.8005 25410 159.405
99.9179 24600 156.844
100.035 23790 154.24
100.153 23281 152.581
100.27 23215 152.365
100.388 23094 151.967
100.505 23047 151.812
100.622 22710 150.698
100.74 22899 151.324
100.857 22615 150.383
100.975 23040 151.789
101.092 23644 153.766
101.209 23885 154.548
101.327 23964 154.803
101.444 23895 154.58
101.561 23118 152.046
101.679 22034 148.439
101.796 20465 143.056
101.913 19395 139.266
102.03 19190 138.528
102.148 19891 141.035
102.265 21008 144.941
102.382 22781 150.934
102.499 24420 156.269
102.616 24923 157.87
102.733 25429 159.465
102.851 25986 161.202
102.968 26297 162.163
103.085 26424 162.555
103.202 26362 162.364
103.319 26094 161.536
103.436 25169 158.647
103.552 24242 155.698
103.669 23406 152.99
103.786 23504 153.31
103.903 23243 152.457
104.02 22941 151.463
104.137 22789 150.96
104.253 22648 150.493
104.37 23394 152.951
104.487 23185 152.266
104.603 23099 151.984
104.72 23017 151.714
104.836 22425 149.75
104.953 20817 144.281
105.069 19114 138.253
105.186 17291 131.495
105.302 15502 124.507
105.418 14175 119.059
105.535 12621 112.343
105.651 11715 108.236
105.767 11585 107.634
105.883 11102 105.366
105.999 10747 103.668
106.115 0 1
106.231 0 1
106.347 0 1
106.463 0 1
106.579 0 1
106.694 0 1
106.81 0 1
106.926 0 1
107.041 0 1
107.157 0 1
109.576 0 1
109.692 0 1
109.807 0 1
109.923 0 1
110.039 0 1
110.155 0 1
110.27 0 1
110.386 0 1
110.502 0 1
110.618 10586 102.888
110.735 12782 113.058
110.851 15136 123.028
110.967 17318 131.598
111.083 19334 139.047
111.199 21032 145.024
111.316 21727 147.401
111.432 22627 150.423
111.549 22837 151.119
111.665 22781 150.934
111.782 22947 151.483
111.898 23134 152.099
112.015 22133 148.772
112.132 21939 148.118
112.248 21268 145.836
112.365 21328 146.041
112.482 21049 145.083
112.599 21610 147.003
112.716 20962 144.783
112.832 20763 144.094
112.949 20743 144.024
113.066 20957 144.765
113.183 21392 146.26
113.3 21648 147.133
113.417 21861 147.855
113.534 21392 146.26
113.652 20835 144.343
113.769 19922 141.145
113.886 18534 136.14
114.003 17788 133.372
114.12 16980 130.307
114.238 17535 132.42
114.355 18515 136.07
114.472 18958 137.688
114.589 22343 149.476
114.707 22942 151.466
114.824 23221 152.384
114.942 23231 152.417
115.059 23642 153.76
115.176 23758 154.136
115.294 23319 152.706
115.411 23471 153.202
115.529 22913 151.37
115.646 22146 148.815
115.764 21805 147.665
115.881 21330 146.048
115.999 20731 143.983
116.116 20326 142.569
116.234 20334 142.597
116.351 20126 141.866
116.469 20054 141.612
116.586 20068 141.662
116.704 20320 142.548
116.821 20888 144.527
116.939 21080 145.19
117.056 20839 144.357
117.174 20621 143.6
117.291 19771 140.609
117.409 18694 136.726
117.526 17724 133.132
117.644 16897 129.988
117.761 16731 129.348
117.879 17189 131.107
117.996 18376 135.558
118.114 20011 141.46
118.231 21454 146.472
118.349 22040 148.459
118.466 22073 148.57
118.584 22216 149.05
118.701 22129 148.758
118.819 22004 148.337
118.936 21709 147.34
119.053 21289 145.908
119.171 20859 144.426
119.288 20572 143.429
119.405 20262 142.345
119.523 19459 139.496
119.64 19298 138.917
119.757 18918 137.543
119.875 18636 136.514
119.992 18429 135.753
120.109 18474 135.919
120.226 18216 134.967
120.343 18353 135.473
120.46 18898 137.47
120.578 19238 138.701
120.695 18867 137.357
120.812 18487 135.967
120.929 17926 133.888
121.046 16990 130.346
121.163 15575 124.8
121.279 14923 122.16
121.396 14311 119.629
121.513 14033 118.461
121.63 14555 120.644
121.747 15105 122.902
121.863 15669 125.176
121.98 15940 126.254
122.097 16033 126.621
122.213 15318 123.766
122.33 14688 121.194
122.446 13864 117.745
122.563 12890 113.534
122.679 12244 110.653
122.795 11507 107.271
122.912 10899 104.398
123.028 10068 100.339
123.144 9453 97.2265
123.26 8584 92.6499
123.377 0 1
123.493 0 1
123.609 0 1
123.725 0 1
123.84 0 1
123.956 0 1
124.072 0 1
124.188 0 1
124.303 0 1
124.419 0 1
126.852 0 1
126.968 0 1
127.083 0 1
127.199 0 1
127.315 0 1
127.431 0 1
127.547 0 1
127.663 0 1
127.779 0 1
127.895 0 1
128.011 0 1
128.127 0 1
128.243 0 1
128.359 19372 139.183
128.476 19447 139.453
128.592 19156 138.405
128.708 18757 136.956
128.825 18560 136.235
128.941 18229 135.015
129.058 18225 135
129.174 18368 135.529
129.291 18269 135.163
129.408 18431 135.761
129.524 18733 136.869
129.641 18916 137.535
129.758 18806 137.135
129.875 18713 136.795
129.992 18240 135.056
130.108 17580 132.59
130.225 16774 129.514
130.342 16273 127.566
130.459 15333 123.826
130.576 15625 125
130.693 16103 126.898
130.81 17470 132.174
130.928 18559 136.231
131.045 19443 139.438
131.162 19715 140.41
131.279 19863 140.936
131.396 20296 142.464
131.513 20201 142.13
131.631 19636 140.129
131.748 19810 140.748
131.865 19389 139.244
131.983 19486 139.592
132.1 19091 138.17
132.217 18808 137.142
132.335 18465 135.886
132.452 18368 135.529
132.57 18353 135.473
132.687 18200 134.907
132.804 18055 134.369
132.922 18259 135.126
133.039 18395 135.628
133.157 18500 136.015
133.274 18706 136.77
133.392 18685 136.693
133.509 18448 135.823
133.627 18112 134.581
133.744 17862 133.649
133.862 16833 129.742
133.979 16287 127.621
134.097 15924 126.19
134.214 16507 128.48
134.332 17136 130.905
134.449 18475 135.923
134.567 19820 140.784
134.684 20399 142.825
134.802 20724 143.958
134.919 20857 144.42
135.037 20921 144.641
135.154 20431 142.937
135.272 20621 143.6
135.389 21050 145.086
135.507 21008 144.941
135.624 20885 144.516
135.742 20555 143.37
135.859 20615 143.579
135.977 20462 143.045
136.094 20540 143.318
136.211 20591 143.496
136.329 20259 142.334
136.446 20082 141.711
136.564 20448 142.997
136.681 20466 143.059
136.798 20488 143.136
136.915 20435 142.951
137.033 20249 142.299
137.15 20537 143.307
137.267 19893 141.043
137.384 19006 137.862
137.502 18004 134.179
137.619 17116 130.828
137.736 16954 130.208
137.853 16372 127.953
137.97 17724 133.132
138.087 18707 136.774
138.204 20061 141.637
138.321 20470 143.073
138.438 20633 143.642
138.555 20604 143.541
138.672 20350 142.653
138.788 20022 141.499
138.905 18989 137.801
139.022 18495 135.996
139.139 17500 132.288
139.255 16668 129.105
139.372 16448 128.25
139.488 15072 122.768
139.605 13968 118.186
139.721 13340 115.499
139.838 12340 111.086
139.954 11654 107.954
140.071 11315 106.372
140.187 10666 103.276
140.303 10068 100.339
140.419 9579 97.8724
140.535 9335 96.6178
140.652 8659 93.0537
140.768 0 1
140.884 0 1
141 0 1
141.115 0 1
141.231 0 1
141.347 0 1
141.463 0 1
141.578 0 1
141.694 0 1
144.104 0 1
144.219 0 1
144.335 0 1
144.45 0 1
144.566 0 1
144.682 0 1
144.798 0 1
144.914 0 1
145.03 0 1
145.146 14838 121.811
145.262 15471 124.382
145.378 15420 124.177
145.494 15479 124.415
145.61 15626 125.004
145.726 15579 124.816
145.842 15572 124.788
145.959 15530 124.619
146.075 15459 124.334
146.192 15142 123.053
146.308 14399 119.996
146.425 13748 117.252
146.541 13468 116.052
146.658 13323 115.425
146.774 13714 117.107
146.891 14142 118.92
147.008 15201 123.292
147.125 15702 125.308
147.241 16084 126.823
147.358 16316 127.734
147.475 16240 127.436
147.592 16227 127.385
147.709 16045 126.669
147.826 16030 126.61
147.943 16025 126.59
148.06 16028 126.602
148.177 16207 127.307
148.294 16031 126.614
148.411 16287 127.621
148.528 15919 126.171
148.645 15817 125.766
148.762 15694 125.276
148.88 15749 125.495
148.997 15882 126.024
149.114 15176 123.191
149.231 15292 123.661
149.349 15414 124.153
149.466 15353 123.907
149.583 15502 124.507
149.701 15588 124.852
149.818 15178 123.199
149.935 15075 122.78
150.053 14371 119.879
150.17 13732 117.184
150.287 13411 115.806
150.405 13700 117.047
150.522 14132 118.878
150.64 14885 122.004
150.757 15639 125.056
150.875 16029 126.606
150.992 16037 126.637
151.11 16066 126.752
151.227 15809 125.734
151.344 15907 126.123
151.462 15657 125.128
151.579 16030 126.61
151.697 16050 126.689
151.814 16284 127.609
151.932 16092 126.854
152.049 15856 125.921
152.167 15647 125.088
152.284 15558 124.732
152.402 15417 124.165
152.519 15415 124.157
152.636 15331 123.818
152.754 14855 121.881
152.871 14869 121.939
152.989 15272 123.58
153.106 15145 123.065
153.223 14986 122.417
153.341 15046 122.662
153.458 14542 120.59
153.575 14269 119.453
153.693 13714 117.107
153.81 13334 115.473
153.927 13222 114.987
154.044 13431 115.892
154.162 14181 119.084
154.279 14661 121.083
154.396 15168 123.158
154.513 15713 125.352
154.63 15715 125.359
154.747 15630 125.02
154.864 15273 123.584
154.981 15186 123.231
155.098 15207 123.317
155.215 15474 124.395
155.332 15321 123.778
155.449 15143 123.057
155.566 14813 121.709
155.683 14529 120.536
155.8 14114 118.802
155.917 13838 117.635
156.033 13220 114.978
156.15 0 1
156.267 0 1
156.383 0 1
156.5 0 1
156.617 0 1
156.733 0 1
156.85 0 1
156.966 0 1
157.082 0 1
157.199 0 1
157.315 0 1
157.431 0 1
157.547 0 1
157.664 0 1
157.78 0 1
157.896 0 1
158.012 0 1
158.128 0 1
158.244 0 1
158.359 0 1
158.475 0 1
158.591 0 1
158.706 0 1
