
6.15755 0 1
6.2731 0 1
6.3887 0 1
6.50437 0 1
6.62009 0 1
6.73587 0 1
6.8517 0 1
6.96759 0 1
7.08353 0 1
7.19952 0 1
7.31557 0 1
7.43166 0 1
7.54781 0 1
7.664 0 1
7.78024 0 1
7.89653 0 1
8.01286 0 1
8.12924 0 1
8.24567 0 1
8.36213 0 1
8.47864 0 1
8.59519 0 1
8.71178 0 1
8.82841 0 1
8.94508 0 1
9.06179 0 1
9.17853 0 1
9.29531 0 1
9.41212 0 1
9.52897 0 1
9.64584 0 1
9.76276 0 1
9.8797 0 1
9.99667 0 1
10.1137 0 1
10.2307 0 1
10.3478 0 1
10.4648 0 1
10.5819 0 1
10.6991 0 1
10.8162 0 1
10.9334 0 1
11.0506 0 1
11.1678 0 1
11.285 0 1
11.4023 0 1
11.5196 0 1
11.6369 0 1
11.7542 0 1
11.8715 0 1
11.9888 0 1
12.1062 0 1
12.2235 0 1
12.3409 0 1
12.4582 0 1
12.5756 0 1
12.693 0 1
12.8104 0 1
12.9278 0 1
13.0452 0 1
13.1626 0 1
13.28 0 1
13.3974 0 1
13.5149 0 1
13.6323 0 1
13.7497 0 1
13.8671 0 1
13.9845 0 1
14.1019 0 1
14.2193 0 1
14.3367 0 1
14.4541 0 1
14.5714 0 1
14.6888 0 1
14.8062 0 1
14.9235 0 1
15.0408 22488 149.96
15.1581 23515 153.346
15.2755 24234 155.673
15.3927 25081 158.37
15.51 24835 157.591
15.6273 24966 158.006
15.7445 24556 156.704
15.8617 23815 154.321
15.9789 23261 152.516
16.0961 22598 150.326
16.2132 21958 148.182
16.3304 21758 147.506
16.4475 21582 146.908
16.5646 21681 147.245
16.6816 21631 147.075
16.7986 21846 147.804
16.9156 21917 148.044
17.0326 21227 145.695
17.1496 21023 144.993
17.2665 20402 142.836
17.3833 20553 143.363
17.5002 20371 142.727
17.617 20905 144.586
17.7338 20936 144.693
17.8505 21395 146.27
17.9672 21745 147.462
18.0839 22067 148.55
18.2005 22470 149.9
18.3171 22930 151.427
18.4337 23601 153.626
18.5502 23309 152.673
18.6666 23640 153.753
18.7831 23429 153.065
18.8994 23315 152.693
19.0158 22453 149.843
19.1321 21661 147.177
19.2483 20485 143.126
19.3645 19207 138.589
19.4806 17682 132.974
19.5967 16207 127.307
19.7128 14646 121.021
19.8288 13749 117.256
19.9447 12679 112.601
20.0606 0 1
20.1764 0 1
20.2922 0 1
20.4079 0 1
20.5236 0 1
20.6392 0 1
20.7548 0 1
20.8702 0 1
23.3078 0 1
23.4233 0 1
23.539 0 1
23.6547 0 1
23.7704 0 1
23.8862 0 1
24.0021 0 1
24.118 0 1
24.234 0 1
24.35 0 1
24.4661 9817 99.0808
24.5822 10834 104.087
24.6984 11571 107.569
24.8146 12149 110.223
24.9309 12866 113.428
25.0472 13940 118.068
25.1636 15037 122.625
25.28 16741 129.387
25.3965 18267 135.155
25.513 19227 138.661
25.6296 20819 144.288
25.7462 21739 147.442
25.8628 22247 149.154
25.9795 22930 151.427
26.0962 23160 152.184
26.213 23051 151.826
26.3298 22684 150.612
26.4466 21818 147.709
26.5635 21581 146.905
26.6804 21351 146.12
26.7973 21348 146.11
26.9143 21714 147.357
27.0313 22091 148.63
27.1483 22063 148.536
27.2653 22456 149.853
27.3824 22523 150.077
27.4996 22565 150.217
27.6167 21985 148.273
27.7339 21811 147.685
27.8511 21195 145.585
27.9683 20588 143.485
28.0855 19574 139.907
28.2028 19276 138.838
28.3201 17801 133.42
28.4374 16792 129.584
28.5547 16967 130.257
28.6721 17470 132.174
28.7894 18424 135.735
28.9068 19386 139.234
29.0242 20443 142.979
29.1416 20294 142.457
29.259 20673 143.781
29.3764 20801 144.226
29.4939 20742 144.021
29.6113 21028 145.01
29.7288 21219 145.667
29.8463 20991 144.883
29.9638 20630 143.631
30.0812 20211 142.165
30.1987 20155 141.968
30.3162 20714 143.924
30.4337 20915 144.62
30.5512 21300 145.945
30.6687 21626 147.058
30.7862 21725 147.394
30.9037 21783 147.591
31.0212 21931 148.091
31.1387 21557 146.823
31.2562 21275 145.86
31.3737 20715 143.927
31.4912 20103 141.785
31.6087 19606 140.021
31.7262 18917 137.539
31.8436 17671 132.932
31.9611 16638 128.988
32.0785 16619 128.915
32.1959 17348 131.712
32.3134 18143 134.696
32.4308 19179 138.488
32.5482 19895 141.05
32.6655 20159 141.982
32.7829 20008 141.45
32.9002 20184 142.07
33.0176 20386 142.78
33.1349 20478 143.101
33.2522 20824 144.305
33.3694 20725 143.962
33.4867 20572 143.429
33.6039 20105 141.792
33.7211 19682 140.293
33.8383 19652 140.186
33.9554 20057 141.623
34.0725 20702 143.882
34.1896 20869 144.461
34.3067 21302 145.952
34.4237 21417 146.345
34.5407 21805 147.665
34.6577 21641 147.109
34.7746 21514 146.677
34.8915 21078 145.183
35.0084 20447 142.993
35.1252 19881 141
35.242 19588 139.957
35.3587 18481 135.945
35.4755 17833 133.54
35.5921 16628 128.95
35.7088 15981 126.416
35.8254 16208 127.311
35.9419 16386 128.008
36.0584 17200 131.149
36.1749 17936 133.925
36.2913 18350 135.462
36.4077 18155 134.74
36.524 17899 133.787
36.6403 17688 132.996
36.7565 17750 133.229
36.8727 17136 130.905
36.9889 16685 129.17
37.1049 15529 124.615
37.221 0 1
37.3369 0 1
37.4529 0 1
37.5687 0 1
37.6845 0 1
37.8003 0 1
37.916 0 1
38.0316 0 1
38.1472 0 1
40.5851 0 1
40.7008 0 1
40.8164 0 1
40.9322 0 1
41.048 0 1
41.1639 0 1
41.2798 0 1
41.3958 0 1
41.5118 0 1
41.6279 0 1
41.744 9412 97.0155
41.8602 10468 102.313
41.9765 11330 106.442
42.0928 12197 110.44
42.2091 13020 114.105
42.3255 13514 116.25
42.4419 13941 118.072
42.5584 14249 119.369
42.675 15284 123.628
42.7915 16540 128.608
42.9081 17734 133.169
43.0248 18811 137.153
43.1415 18782 137.047
43.2582 19043 137.996
43.375 19453 139.474
43.4918 19655 140.196
43.6087 19706 140.378
43.7256 19595 139.982
43.8425 19271 138.82
43.9595 18989 137.801
44.0765 18685 136.693
44.1935 18168 134.789
44.3106 17480 132.212
44.4277 16258 127.507
44.5448 15346 123.879
44.6619 15564 124.756
44.7791 16035 126.629
44.8963 17008 130.415
45.0136 17745 133.21
45.1308 18435 135.776
45.2481 18587 136.334
45.3654 18687 136.7
45.4827 18617 136.444
45.6001 19008 137.87
45.7174 19016 137.899
45.8348 19041 137.989
45.9522 19058 138.051
46.0697 18660 136.602
46.1871 18503 136.026
46.3046 18872 137.375
46.422 19827 140.808
46.5395 20030 141.527
46.657 20879 144.496
46.7745 21064 145.134
46.892 21527 146.721
47.0096 21888 147.946
47.1271 21880 147.919
47.2446 21586 146.922
47.3622 21770 147.547
47.4797 21247 145.764
47.5973 20795 144.205
47.7149 20286 142.429
47.8324 19676 140.271
47.95 17976 134.075
48.0675 16557 128.674
48.1851 16799 129.611
48.3027 17422 131.992
48.4202 18233 135.03
48.5378 19708 140.385
48.6554 20296 142.464
48.7729 20816 144.278
48.8904 20371 142.727
49.008 20599 143.524
49.1255 20610 143.562
49.243 20637 143.656
49.3605 20764 144.097
49.478 20365 142.706
49.5955 20227 142.222
49.713 20280 142.408
49.8304 20638 143.659
49.9479 21527 146.721
50.0653 22374 149.579
50.1827 22956 151.512
50.3001 23253 152.489
50.4175 23641 153.756
50.5348 23735 154.062
50.6521 23658 153.812
50.7694 23969 154.819
50.8867 23867 154.489
51.004 23517 153.353
51.1212 22601 150.336
51.2384 21969 148.219
51.3556 21193 145.578
51.4727 19283 138.863
51.5899 18212 134.952
51.707 18518 136.081
51.824 19328 139.025
51.9411 20706 143.896
52.0581 22562 150.207
52.175 23028 151.75
52.2919 22657 150.522
52.4088 22673 150.576
52.5257 23276 152.565
52.6425 23379 152.902
52.7593 23628 153.714
52.876 23590 153.59
52.9927 23480 153.232
53.1094 22996 151.644
53.226 22553 150.177
53.3426 22479 149.93
53.4591 22967 151.549
53.5756 22821 151.066
53.692 23132 152.092
53.8084 23020 151.723
53.9248 22523 150.077
54.0411 21416 146.342
54.1573 20394 142.808
54.2735 0 1
54.3896 0 1
54.5057 0 1
54.6217 0 1
54.7377 0 1
54.8537 0 1
54.9695 0 1
55.0853 0 1
55.2011 0 1
55.3168 0 1
55.4324 0 1
57.824 0 1
57.9396 0 1
58.0553 0 1
58.1711 0 1
58.2869 0 1
58.4028 0 1
58.5187 0 1
58.6347 0 1
58.7508 0 1
58.8669 0 1
58.983 18227 135.007
59.0992 21351 146.12
59.2155 23694 153.929
59.3318 26311 162.207
59.4482 28560 168.997
59.5646 30921 175.844
59.681 32375 179.931
59.7975 33444 182.877
59.9141 33305 182.497
60.0306 33035 181.755
60.1473 31647 177.896
60.2639 30135 173.594
60.3807 29282 171.12
60.4974 29796 172.615
60.6142 31463 177.378
60.731 34240 185.041
60.8479 36712 191.604
60.9648 37961 194.836
61.0818 38704 196.733
61.1987 38946 197.347
61.3158 39501 198.749
61.4328 39482 198.701
61.5499 39768 199.419
61.667 39488 198.716
61.7841 39294 198.227
61.9013 38942 197.337
62.0185 39012 197.515
62.1357 39840 199.6
62.253 40538 201.341
62.3702 41610 203.985
62.4875 42294 205.655
62.6049 43502 208.571
62.7222 43938 209.614
62.8396 44562 211.097
62.9569 45279 212.789
63.0743 45008 212.151
63.1918 44677 211.369
63.3092 43118 207.649
63.4267 41609 203.983
63.5441 39499 198.744
63.6616 36544 191.165
63.7791 33224 182.275
63.8966 31681 177.992
64.0142 31863 178.502
64.1317 34419 185.524
64.2492 37236 192.966
64.3668 40406 201.012
64.4843 41165 202.892
64.6019 42209 205.448
64.7195 42503 206.163
64.837 43030 207.437
64.9546 43035 207.449
65.0722 43375 208.267
65.1898 42813 206.913
65.3074 42973 207.299
65.4249 41546 203.828
65.5425 41837 204.541
65.6601 41750 204.328
65.7777 42775 206.821
65.8952 43585 208.77
66.0128 44251 210.359
66.1304 45327 212.901
66.2479 46252 215.063
66.3655 47447 217.823
66.483 47702 218.408
66.6005 48030 219.157
66.718 47284 217.449
66.8355 46596 215.861
66.953 44682 211.381
67.0705 42839 206.976
67.1879 40029 200.072
67.3054 35780 189.156
67.4228 32235 179.541
67.5402 31529 177.564
67.6576 32767 181.017
67.7749 35577 188.619
67.8923 38834 197.063
68.0096 42059 205.083
68.1269 43281 208.041
68.2442 43768 209.208
68.3614 44160 210.143
68.4787 44612 211.216
68.5958 44436 210.798
68.713 44382 210.67
68.8302 43811 209.311
68.9473 43515 208.602
69.0643 42277 205.614
69.1814 42201 205.429
69.2984 41824 204.509
69.4154 42015 204.976
69.5323 42945 207.232
69.6492 44167 210.159
69.7661 44676 211.367
69.8829 45029 212.2
69.9997 45491 213.286
70.1165 45083 212.328
70.2332 44887 211.866
70.3499 43739 209.139
70.4665 41773 204.384
70.5831 39234 198.076
70.6996 36505 191.063
70.8161 32979 181.601
70.9326 28377 168.455
71.049 22757 150.854
71.1653 18872 137.375
71.2817 17038 130.53
71.3979 16720 129.306
71.5141 16636 128.981
71.6303 16230 127.397
71.7464 15223 123.382
71.8624 0 1
71.9784 0 1
72.0944 0 1
72.2102 0 1
72.3261 0 1
72.4418 0 1
72.5575 0 1
72.6732 0 1
75.1054 0 1
75.2209 0 1
75.3365 0 1
75.4521 0 1
75.5678 0 1
75.6835 0 1
75.7993 0 1
75.9151 0 1
76.031 0 1
76.147 22675 150.582
76.263 23190 152.283
76.3791 22843 151.139
76.4952 22594 150.313
76.6113 24426 156.288
76.7276 27487 165.792
76.8438 31844 178.449
76.9601 35285 187.843
77.0765 37368 193.308
77.1929 38784 196.937
77.3093 39174 197.924
77.4258 39595 198.985
77.5423 39555 198.884
77.6589 39683 199.206
77.7755 39554 198.882
77.8921 38631 196.548
78.0088 38262 195.607
78.1256 37597 193.899
78.2423 37460 193.546
78.3591 37389 193.362
78.4759 37891 194.656
78.5928 38803 196.985
78.7097 39596 198.987
78.8266 40192 200.479
78.9436 42894 207.109
79.0606 42116 205.222
79.1776 42578 206.344
79.2946 43225 207.906
79.4117 43219 207.892
79.5288 41967 204.858
79.6459 40689 201.715
79.7631 38115 195.231
79.8802 34841 186.657
79.9974 31072 176.273
80.1147 27527 165.913
80.2319 27481 165.774
80.3491 30182 173.73
80.4664 33679 183.518
80.5837 37408 193.411
80.701 38745 196.837
80.8183 39746 199.364
80.9357 40453 201.129
81.053 40928 202.307
81.1704 41275 203.162
81.2877 41339 203.32
81.4051 40572 201.425
81.5225 41180 202.929
81.6399 39715 199.286
81.7573 39938 199.845
81.8747 38387 195.926
81.9922 39045 197.598
82.1096 39466 198.661
82.227 40329 200.821
82.3444 40919 202.284
82.4619 42756 206.775
82.5793 43342 208.187
82.6967 44409 210.734
82.8142 44967 212.054
82.9316 44992 212.113
83.049 44815 211.696
83.1664 43700 209.045
83.2838 41504 203.725
83.4012 39525 198.809
83.5186 36067 189.913
83.636 32378 179.939
83.7534 28599 169.112
83.8708 27461 165.714
83.9881 29563 171.939
84.1055 33022 181.72
84.2228 36708 191.593
84.3401 40121 200.302
84.4575 41610 203.985
84.5747 42360 205.815
84.692 42952 207.249
84.8093 42851 207.005
84.9265 42339 205.764
85.0437 42042 205.041
85.1609 41639 204.056
85.2781 40982 202.44
85.3952 39746 199.364
85.5123 39649 199.121
85.6294 39640 199.098
85.7465 40534 201.331
85.8636 41123 202.788
85.9806 42428 205.981
86.0976 44059 209.902
86.2145 44347 210.587
86.3315 46147 214.819
86.4484 44318 210.518
86.5652 45541 213.403
86.682 44707 211.44
86.7988 43582 208.763
86.9156 41437 203.561
87.0323 38668 196.642
87.149 35532 188.499
87.2657 30952 175.932
87.3823 28201 167.932
87.4988 28805 169.72
87.6154 30927 175.861
87.7318 33905 184.133
87.8483 36322 190.583
87.9647 37277 193.073
88.081 36777 191.773
88.1973 36045 189.855
88.3136 34659 186.169
88.4298 31776 178.258
88.546 27944 167.165
88.6621 24061 155.116
88.7781 20538 143.311
88.8942 0 1
89.0101 0 1
89.126 0 1
89.2419 0 1
89.3577 0 1
89.4734 0 1
89.5891 0 1
89.7047 0 1
89.8203 0 1
89.9358 0 1
92.3269 0 1
92.4424 0 1
92.558 0 1
92.6736 0 1
92.7893 0 1
92.905 0 1
93.0208 0 1
93.1366 0 1
93.2525 0 1
93.3685 0 1
93.4845 0 1
93.6005 29338 171.283
93.7167 32006 178.902
93.8328 34586 185.973
93.949 37386 193.355
94.0653 39193 197.972
94.1816 40190 200.474
94.2979 41496 203.706
94.4143 42209 205.448
94.5307 42300 205.67
94.6472 42180 205.378
94.7637 42682 206.596
94.8803 43416 208.365
94.9969 44039 209.855
95.1135 45043 212.233
95.2302 46321 215.223
95.3469 47292 217.467
95.4637 47361 217.626
95.5805 47970 219.021
95.6973 47432 217.789
95.8142 46184 214.905
95.9311 44056 209.895
96.048 42048 205.056
96.1649 39891 199.727
96.2819 36878 192.036
96.3989 34627 186.083
96.516 32786 181.069
96.633 34013 184.426
96.7501 35398 188.144
96.8673 37869 194.6
96.9844 40443 201.104
97.1016 42382 205.869
97.2188 44021 209.812
97.336 44511 210.976
97.4532 44244 210.343
97.5704 44534 211.031
97.6877 43824 209.342
97.805 43440 208.423
97.9223 42646 206.509
98.0396 41840 204.548
98.1569 41490 203.691
98.2743 41677 204.149
98.3916 42037 205.029
98.509 43473 208.502
98.6264 44145 210.107
98.7438 45824 214.065
98.8612 47021 216.843
98.9786 47850 218.746
99.096 48661 220.592
99.2134 49016 221.396
99.3308 48130 219.386
99.4482 47250 217.371
99.5656 45151 212.488
99.6831 42741 206.739
99.8005 40540 201.345
99.9179 37887 194.646
100.035 36383 190.743
100.153 36569 191.23
100.27 38063 195.097
100.388 40109 200.272
100.505 42073 205.117
100.622 43647 208.919
100.74 44757 211.559
100.857 45301 212.84
100.975 45288 212.81
101.092 45595 213.53
101.209 44827 211.724
101.327 44676 211.367
101.444 43574 208.744
101.561 43161 207.752
101.679 43010 207.389
101.796 42487 206.124
101.913 42889 207.097
102.03 44024 209.819
102.148 45435 213.155
102.265 47496 217.936
102.382 47130 217.094
102.499 48675 220.624
102.616 48876 221.079
102.733 49605 222.722
102.851 48345 219.875
102.968 47773 218.57
103.085 46539 215.729
103.202 43824 209.342
103.319 41230 203.052
103.436 38850 197.104
103.552 36840 191.937
103.669 36645 191.429
103.786 37729 194.24
103.903 40237 200.592
104.02 41868 204.617
104.137 43580 208.758
104.253 45030 212.203
104.37 45123 212.422
104.487 45050 212.25
104.603 44614 211.22
104.72 42968 207.287
104.836 41908 204.714
104.953 40624 201.554
105.069 39197 197.982
105.186 38042 195.044
105.302 37053 192.492
105.418 35836 189.304
105.535 35082 187.302
105.651 33914 184.158
105.767 32136 179.265
105.883 29899 172.913
105.999 25706 160.331
106.115 0 1
106.231 0 1
106.347 0 1
106.463 0 1
106.579 0 1
106.694 0 1
106.81 0 1
106.926 0 1
107.041 0 1
107.157 0 1
109.576 0 1
109.692 0 1
109.807 0 1
109.923 0 1
110.039 0 1
110.155 0 1
110.27 0 1
110.386 0 1
110.502 0 1
110.618 21029 145.014
110.735 24898 157.791
110.851 28795 169.691
110.967 32463 180.175
111.083 35795 189.196
111.199 38289 195.676
111.316 41001 202.487
111.432 42422 205.966
111.549 43952 209.647
111.665 43690 209.022
111.782 41841 204.551
111.898 39933 199.832
112.015 38196 195.438
112.132 34830 186.628
112.248 32125 179.234
112.365 32907 181.403
112.482 35321 187.939
112.599 37834 194.51
112.716 39959 199.897
112.832 40790 201.965
112.949 41446 203.583
113.066 41115 202.768
113.183 41326 203.288
113.3 40763 201.898
113.417 40229 200.572
113.534 39186 197.955
113.652 38269 195.625
113.769 37202 192.878
113.886 36823 191.893
114.003 36863 191.997
114.12 38487 196.181
114.238 39815 199.537
114.355 41001 202.487
114.472 41956 204.832
114.589 42691 206.618
114.707 43707 209.062
114.824 43863 209.435
114.942 43815 209.32
115.059 44349 210.592
115.176 43361 208.233
115.294 41447 203.585
115.411 39755 199.387
115.529 37952 194.813
115.646 35475 188.348
115.764 32401 180.003
115.881 32099 179.162
115.999 33695 183.562
116.116 36364 190.693
116.234 38534 196.301
116.351 39226 198.056
116.469 39532 198.827
116.586 39533 198.829
116.704 39678 199.193
116.821 39519 198.794
116.939 39025 197.547
117.056 37943 194.79
117.174 36707 191.591
117.291 35811 189.238
117.409 35507 188.433
117.526 35203 187.625
117.644 36711 191.601
117.761 37619 193.956
117.879 39097 197.73
117.996 39555 198.884
118.114 40464 201.157
118.231 41025 202.546
118.349 42375 205.852
118.466 41434 203.553
118.584 41775 204.389
118.701 41463 203.625
118.819 40010 200.025
118.936 38239 195.548
119.053 36939 192.195
119.171 34999 187.08
119.288 32637 180.657
119.405 30875 175.713
119.523 31426 177.274
119.64 33147 182.063
119.757 35227 187.689
119.875 36751 191.706
119.992 37395 193.378
120.109 36967 192.268
120.226 37606 193.923
120.343 37256 193.018
120.46 36895 192.081
120.578 36203 190.271
120.695 35302 187.888
120.812 34773 186.475
120.929 33663 183.475
121.046 32742 180.948
121.163 32769 181.022
121.279 32970 181.576
121.396 34072 184.586
121.513 35023 187.144
121.63 35561 188.576
121.747 35213 187.651
121.863 35442 188.26
121.98 35461 188.311
122.097 35024 187.147
122.213 34434 185.564
122.33 33053 181.805
122.446 31118 176.403
122.563 28874 169.924
122.679 26434 162.585
122.795 23638 153.747
122.912 20092 141.746
123.028 17688 132.996
123.144 16613 128.891
123.26 15796 125.682
123.377 0 1
123.493 0 1
123.609 0 1
123.725 0 1
123.84 0 1
123.956 0 1
124.072 0 1
124.188 0 1
124.303 0 1
124.419 0 1
126.852 0 1
126.968 0 1
127.083 0 1
127.199 0 1
127.315 0 1
127.431 0 1
127.547 0 1
127.663 0 1
127.779 0 1
127.895 0 1
128.011 0 1
128.127 0 1
128.243 0 1
128.359 34946 186.938
128.476 34176 184.868
128.592 34676 186.215
128.708 36544 191.165
128.825 38972 197.413
128.941 40493 201.229
129.058 40628 201.564
129.174 41079 202.68
129.291 41289 203.197
129.408 41478 203.661
129.524 41594 203.946
129.641 40821 202.042
129.758 39643 199.105
129.875 38278 195.648
129.992 36904 192.104
130.108 36566 191.222
130.225 36552 191.186
130.342 38076 195.131
130.459 39424 198.555
130.576 42321 205.721
130.693 42405 205.925
130.81 42487 206.124
130.928 42743 206.744
131.045 42729 206.71
131.162 42914 207.157
131.279 43788 209.256
131.396 43458 208.466
131.513 42806 206.896
131.631 41864 204.607
131.748 40401 201
131.865 38359 195.855
131.983 36131 190.082
132.1 35524 188.478
132.217 36739 191.674
132.335 38643 196.578
132.452 40639 201.591
132.57 41350 203.347
132.687 40915 202.275
132.804 41397 203.463
132.922 41273 203.158
133.039 41230 203.052
133.157 40792 201.97
133.274 39663 199.156
133.392 38298 195.699
133.509 37146 192.733
133.627 36708 191.593
133.744 36270 190.447
133.862 37669 194.085
133.979 39346 198.358
134.097 41386 203.435
134.214 42203 205.434
134.332 42424 205.971
134.449 42583 206.356
134.567 42123 205.239
134.684 42679 206.589
134.802 42814 206.915
134.919 43171 207.776
135.037 42459 206.056
135.154 41579 203.909
135.272 40421 201.05
135.389 39307 198.26
135.507 36935 192.185
135.624 35868 189.388
135.742 36352 190.662
135.859 37946 194.797
135.977 40030 200.075
136.094 41121 202.783
136.211 41318 203.268
136.329 41058 202.628
136.446 40888 202.208
136.564 40628 201.564
136.681 40393 200.98
136.798 40188 200.469
136.915 38502 196.219
137.033 37077 192.554
137.15 36396 190.777
137.267 36107 190.018
137.384 36263 190.428
137.502 37147 192.736
137.619 38694 196.708
137.736 40571 201.422
137.853 39343 198.351
137.97 41458 203.612
138.087 40305 200.761
138.204 40233 200.582
138.321 40908 202.257
138.438 40660 201.643
138.555 40656 201.633
138.672 40014 200.035
138.788 37998 194.931
138.905 36196 190.252
139.022 34513 185.777
139.139 32659 180.718
139.255 30524 174.711
139.372 29860 172.8
139.488 30272 173.989
139.605 30473 174.565
139.721 30161 173.669
139.838 28642 169.239
139.954 26628 163.181
140.071 23766 154.162
140.187 22399 149.663
140.303 20970 144.81
140.419 19925 141.156
140.535 18657 136.591
140.652 16999 130.38
140.768 0 1
140.884 0 1
141 0 1
141.115 0 1
141.231 0 1
141.347 0 1
141.463 0 1
141.578 0 1
141.694 0 1
144.104 0 1
144.219 0 1
144.335 0 1
144.45 0 1
144.566 0 1
144.682 0 1
144.798 0 1
144.914 0 1
145.03 0 1
145.146 28454 168.683
145.262 29847 172.763
145.378 30864 175.682
145.494 30742 175.334
145.61 30121 173.554
145.726 29036 170.4
145.842 27989 167.299
145.959 28018 167.386
146.075 27641 166.256
146.192 27406 165.548
146.308 28150 167.78
146.425 29385 171.421
146.541 30269 173.98
146.658 31049 176.207
146.774 30880 175.727
146.891 30584 174.883
147.008 30702 175.22
147.125 30441 174.473
147.241 31494 177.465
147.358 31951 178.748
147.475 31541 177.598
147.592 31146 176.482
147.709 30241 173.899
147.826 29126 170.663
147.943 27851 166.886
148.06 27262 165.112
148.177 27339 165.345
148.294 28934 170.1
148.411 30066 173.396
148.528 31025 176.139
148.645 30695 175.2
148.762 30443 174.479
148.88 30913 175.821
148.997 30925 175.855
149.114 29945 173.046
149.231 30075 173.421
149.349 30019 173.26
149.466 27915 167.078
149.583 27667 166.334
149.701 27248 165.07
149.818 26692 163.377
149.935 27226 165.003
150.053 28598 169.109
150.17 29332 171.266
150.287 29483 171.706
150.405 29862 172.806
150.522 29873 172.838
150.64 30107 173.514
150.757 30467 174.548
150.875 30328 174.149
150.992 31155 176.508
151.11 31038 176.176
151.227 30245 173.911
151.344 29949 173.058
151.462 28353 168.383
151.579 27245 165.061
151.697 26974 164.238
151.814 27143 164.751
151.932 27854 166.895
152.049 29137 170.696
152.167 30020 173.263
152.284 29737 172.444
152.402 29762 172.517
152.519 29767 172.531
152.636 29868 172.824
152.754 29140 170.704
152.871 28823 169.773
152.989 27567 166.033
153.106 27034 164.42
153.223 26111 161.589
153.341 25506 159.706
153.458 25705 160.328
153.575 26462 162.671
153.693 27449 165.677
153.81 27877 166.964
153.927 27759 166.61
154.044 27887 166.994
154.162 28075 167.556
154.279 28544 168.95
154.396 28756 169.576
154.513 29213 170.918
154.63 29399 171.461
154.747 29697 172.328
154.864 28442 168.648
154.981 27477 165.762
155.098 26552 162.948
155.215 25946 161.078
155.332 25528 159.775
155.449 25938 161.053
155.566 27111 164.654
155.683 27329 165.315
155.8 27324 165.3
155.917 26330 162.265
156.033 25767 160.521
156.15 0 1
156.267 0 1
156.383 0 1
156.5 0 1
156.617 0 1
156.733 0 1
156.85 0 1
156.966 0 1
157.082 0 1
157.199 0 1
157.315 0 1
157.431 0 1
157.547 0 1
157.664 0 1
157.78 0 1
157.896 0 1
158.012 0 1
158.128 0 1
158.244 0 1
158.359 0 1
158.475 0 1
158.591 0 1
158.706 0 1
