
6.15755 0 1
6.2731 0 1
6.3887 0 1
6.50437 0 1
6.62009 0 1
6.73587 0 1
6.8517 0 1
6.96759 0 1
7.08353 0 1
7.19952 0 1
7.31557 0 1
7.43166 0 1
7.54781 0 1
7.664 0 1
7.78024 0 1
7.89653 0 1
8.01286 0 1
8.12924 0 1
8.24567 0 1
8.36213 0 1
8.47864 0 1
8.59519 0 1
8.71178 0 1
8.82841 0 1
8.94508 0 1
9.06179 0 1
9.17853 0 1
9.29531 0 1
9.41212 0 1
9.52897 0 1
9.64584 0 1
9.76276 0 1
9.8797 0 1
9.99667 0 1
10.1137 0 1
10.2307 0 1
10.3478 0 1
10.4648 0 1
10.5819 0 1
10.6991 0 1
10.8162 0 1
10.9334 0 1
11.0506 0 1
11.1678 0 1
11.285 0 1
11.4023 0 1
11.5196 0 1
11.6369 0 1
11.7542 0 1
11.8715 0 1
11.9888 0 1
12.1062 0 1
12.2235 0 1
12.3409 0 1
12.4582 0 1
12.5756 0 1
12.693 0 1
12.8104 0 1
12.9278 0 1
13.0452 0 1
13.1626 0 1
13.28 0 1
13.3974 0 1
13.5149 0 1
13.6323 0 1
13.7497 0 1
13.8671 0 1
13.9845 0 1
14.1019 0 1
14.2193 0 1
14.3367 0 1
14.4541 0 1
14.5714 0 1
14.6888 0 1
14.8062 0 1
14.9235 0 1
15.0408 0 0
15.1581 0 0
15.2755 0 0
15.3927 0 0
15.51 0 0
15.6273 0 0
15.7445 0 0
15.8617 0 0
15.9789 0 0
16.0961 0 0
16.2132 0 0
16.3304 0 0
16.4475 0 0
16.5646 0 0
16.6816 0 0
16.7986 0 0
16.9156 0 0
17.0326 0 0
17.1496 0 0
17.2665 0 0
17.3833 0 0
17.5002 0 0
17.617 0 0
17.7338 0 0
17.8505 0 0
17.9672 0 0
18.0839 0 0
18.2005 0 0
18.3171 0 0
18.4337 0 0
18.5502 0 0
18.6666 0 0
18.7831 0 0
18.8994 0 0
19.0158 0 0
19.1321 0 0
19.2483 0 0
19.3645 0 0
19.4806 0 0
19.5967 0 0
19.7128 0 0
19.8288 0 0
19.9447 0 0
20.0606 0 1
20.1764 0 1
20.2922 0 1
20.4079 0 1
20.5236 0 1
20.6392 0 1
20.7548 0 1
20.8702 0 1
23.3078 0 1
23.4233 0 1
23.539 0 1
23.6547 0 1
23.7704 0 1
23.8862 0 1
24.0021 0 1
24.118 0 1
24.234 0 1
24.35 0 1
24.4661 5261 72.5328
24.5822 5391 73.4234
24.6984 5429 73.6817
24.8146 5489 74.0878
24.9309 5572 74.6458
25.0472 5726 75.6703
25.1636 5763 75.9144
25.28 5828 76.3413
25.3965 6042 77.7303
25.513 6006 77.4984
25.6296 6090 78.0385
25.7462 5872 76.629
25.8628 5977 77.3111
25.9795 5965 77.2334
26.0962 5787 76.0723
26.213 5864 76.5768
26.3298 5818 76.2758
26.4466 5905 76.844
26.5635 5768 75.9474
26.6804 5458 73.8783
26.7973 5407 73.5323
26.9143 5193 72.0625
27.0313 5099 71.4073
27.1483 5238 72.374
27.2653 5226 72.2911
27.3824 5321 72.9452
27.4996 5282 72.6774
27.6167 5243 72.4086
27.7339 4901 70.0071
27.8511 4589 67.7422
27.9683 4548 67.4389
28.0855 4531 67.3127
28.2028 4502 67.0969
28.3201 4473 66.8805
28.4374 4603 67.8454
28.5547 4838 69.5557
28.6721 4984 70.5975
28.7894 5000 70.7107
28.9068 5058 71.1196
29.0242 5148 71.7496
29.1416 5035 70.9577
29.259 5112 71.4983
29.3764 5088 71.3302
29.4939 5181 71.9792
29.6113 4866 69.7567
29.7288 5131 71.631
29.8463 4958 70.4131
29.9638 4922 70.157
30.0812 4939 70.278
30.1987 4720 68.7023
30.3162 4563 67.55
30.4337 4513 67.1789
30.5512 4394 66.2873
30.6687 4340 65.8787
30.7862 4347 65.9318
30.9037 4387 66.2344
31.0212 4364 66.0606
31.1387 4373 66.1287
31.2562 4215 64.923
31.3737 4222 64.9769
31.4912 4128 64.2495
31.6087 4009 63.3167
31.7262 3993 63.1902
31.8436 4013 63.3482
31.9611 4190 64.7302
32.0785 4358 66.0151
32.1959 4500 67.082
32.3134 4406 66.3777
32.4308 4662 68.2788
32.5482 4483 66.9552
32.6655 4482 66.9477
32.7829 4541 67.3869
32.9002 4529 67.2978
33.0176 4412 66.4229
33.1349 4623 67.9926
33.2522 4403 66.3551
33.3694 4309 65.643
33.4867 4423 66.5056
33.6039 4500 67.082
33.7211 4462 66.7982
33.8383 4289 65.4905
33.9554 4154 64.4515
34.0725 3946 62.8172
34.1896 3903 62.474
34.3067 3951 62.857
34.4237 3881 62.2977
34.5407 3961 62.9365
34.6577 3985 63.1269
34.7746 3902 62.466
34.8915 3820 61.8061
35.0084 3525 59.3717
35.1252 3555 59.6238
35.242 3553 59.607
35.3587 3573 59.7746
35.4755 3661 60.5062
35.5921 3741 61.1637
35.7088 3944 62.8013
35.8254 3867 62.1852
35.9419 3969 63
36.0584 4146 64.3894
36.1749 4190 64.7302
36.2913 4165 64.5368
36.4077 4213 64.9076
36.524 4000 63.2456
36.6403 4093 63.9766
36.7565 4032 63.498
36.8727 4165 64.5368
36.9889 4080 63.8749
37.1049 4045 63.6003
37.221 0 1
37.3369 0 1
37.4529 0 1
37.5687 0 1
37.6845 0 1
37.8003 0 1
37.916 0 1
38.0316 0 1
38.1472 0 1
40.5851 0 1
40.7008 0 1
40.8164 0 1
40.9322 0 1
41.048 0 1
41.1639 0 1
41.2798 0 1
41.3958 0 1
41.5118 0 1
41.6279 0 1
41.744 3110 55.7674
41.8602 3081 55.5068
41.9765 3091 55.5968
42.0928 3085 55.5428
42.2091 3118 55.8391
42.3255 3001 54.7814
42.4419 3136 56
42.5584 3209 56.648
42.675 3005 54.8179
42.7915 2898 53.8331
42.9081 2891 53.768
43.0248 2896 53.8145
43.1415 2715 52.1057
43.2582 2773 52.6593
43.375 2729 52.2398
43.4918 2713 52.0865
43.6087 2633 51.3128
43.7256 2606 51.049
43.8425 2509 50.0899
43.9595 2393 48.9183
44.0765 2403 49.0204
44.1935 2431 49.3052
44.3106 2408 49.0714
44.4277 2486 49.8598
44.5448 2615 51.1371
44.6619 2592 50.9117
44.7791 2590 50.892
44.8963 2602 51.0098
45.0136 2548 50.4777
45.1308 2521 50.2096
45.2481 2521 50.2096
45.3654 2539 50.3885
45.4827 2540 50.3984
45.6001 2501 50.01
45.7174 2479 49.7896
45.8348 2425 49.2443
45.9522 2427 49.2646
46.0697 2458 49.5782
46.1871 2348 48.4562
46.3046 2352 48.4974
46.422 2253 47.4658
46.5395 2176 46.6476
46.657 2140 46.2601
46.7745 2070 45.4973
46.892 2057 45.3542
47.0096 2133 46.1844
47.1271 2105 45.8803
47.2446 2042 45.1885
47.3622 1993 44.643
47.4797 1926 43.8862
47.5973 1858 43.1045
47.7149 1883 43.3935
47.8324 1935 43.9886
47.95 1979 44.486
48.0675 1963 44.3058
48.1851 2028 45.0333
48.3027 2024 44.9889
48.4202 2008 44.8107
48.5378 2024 44.9889
48.6554 1978 44.4747
48.7729 1966 44.3396
48.8904 1972 44.4072
49.008 2000 44.7214
49.1255 2046 45.2327
49.243 2050 45.2769
49.3605 1967 44.3509
49.478 1986 44.5646
49.5955 1981 44.5084
49.713 2039 45.1553
49.8304 2048 45.2548
49.9479 2006 44.7884
50.0653 2034 45.0999
50.1827 1942 44.0681
50.3001 1904 43.6348
50.4175 1939 44.0341
50.5348 1874 43.2897
50.6521 2096 45.7821
50.7694 2083 45.6399
50.8867 2103 45.8585
51.004 2070 45.4973
51.1212 2060 45.3872
51.2384 2169 46.5725
51.3556 2282 47.7703
51.4727 2536 50.3587
51.5899 2499 49.99
51.707 2567 50.6656
51.824 2577 50.7642
51.9411 2619 51.1762
52.0581 2619 51.1762
52.175 2719 52.144
52.2919 2704 52
52.4088 2808 52.9906
52.5257 2712 52.0769
52.6425 2871 53.5817
52.7593 2816 53.066
52.876 2855 53.4322
52.9927 2915 53.9907
53.1094 2979 54.5802
53.226 2919 54.0278
53.3426 3019 54.9454
53.4591 3099 55.6687
53.5756 2943 54.2494
53.692 3016 54.9181
53.8084 2872 53.591
53.9248 2880 53.6656
54.0411 2715 52.1057
54.1573 2858 53.4603
54.2735 0 1
54.3896 0 1
54.5057 0 1
54.6217 0 1
54.7377 0 1
54.8537 0 1
54.9695 0 1
55.0853 0 1
55.2011 0 1
55.3168 0 1
55.4324 0 1
57.824 0 1
57.9396 0 1
58.0553 0 1
58.1711 0 1
58.2869 0 1
58.4028 0 1
58.5187 0 1
58.6347 0 1
58.7508 0 1
58.8669 0 1
58.983 3426 58.532
59.0992 3402 58.3267
59.2155 3183 56.4181
59.3318 3296 57.4108
59.4482 3190 56.4801
59.5646 3249 57
59.681 3156 56.1783
59.7975 3165 56.2583
59.9141 3251 57.0175
60.0306 3388 58.2065
60.1473 3429 58.5577
60.2639 3460 58.8218
60.3807 3469 58.8982
60.4974 3505 59.203
60.6142 3445 58.6941
60.731 3506 59.2115
60.8479 3490 59.0762
60.9648 3382 58.155
61.0818 3472 58.9237
61.1987 3409 58.3866
61.3158 3363 57.9914
61.4328 3367 58.0259
61.5499 3292 57.376
61.667 3382 58.155
61.7841 3332 57.7235
61.9013 3356 57.931
62.0185 3267 57.1577
62.1357 3213 56.6833
62.253 3225 56.7891
62.3702 3081 55.5068
62.4875 3031 55.0545
62.6049 3052 55.2449
62.7222 2954 54.3507
62.8396 2975 54.5436
62.9569 2919 54.0278
63.0743 2960 54.4059
63.1918 2873 53.6004
63.3092 2960 54.4059
63.4267 3010 54.8635
63.5441 3101 55.6866
63.6616 3120 55.857
63.7791 3133 55.9732
63.8966 3142 56.0535
64.0142 3090 55.5878
64.1317 3115 55.8122
64.2492 3065 55.3624
64.3668 2988 54.6626
64.4843 3140 56.0357
64.6019 3035 55.0908
64.7195 2981 54.5985
64.837 3006 54.827
64.9546 2992 54.6992
65.0722 3038 55.1181
65.1898 2948 54.2955
65.3074 3120 55.857
65.4249 3012 54.8817
65.5425 3045 55.1815
65.6601 3049 55.2178
65.7777 2938 54.2033
65.8952 3017 54.9272
66.0128 2924 54.074
66.1304 2870 53.5724
66.2479 2802 52.9339
66.3655 2659 51.5655
66.483 2637 51.3517
66.6005 2753 52.469
66.718 2549 50.4876
66.8355 2651 51.4879
66.953 2838 53.2729
67.0705 2856 53.4416
67.1879 2991 54.69
67.3054 2981 54.5985
67.4228 2874 53.6097
67.5402 2956 54.3691
67.6576 2941 54.231
67.7749 2938 54.2033
67.8923 2969 54.4885
68.0096 2964 54.4426
68.1269 2980 54.5894
68.2442 2881 53.6749
68.3614 2981 54.5985
68.4787 3043 55.1634
68.5958 2994 54.7175
68.713 2945 54.2679
68.8302 2996 54.7357
68.9473 2974 54.5344
69.0643 3061 55.3263
69.1814 2946 54.2771
69.2984 2976 54.5527
69.4154 3049 55.2178
69.5323 3079 55.4887
69.6492 3052 55.2449
69.7661 3031 55.0545
69.8829 2924 54.074
69.9997 2787 52.792
70.1165 2716 52.1153
70.2332 2726 52.2111
70.3499 2673 51.7011
70.4665 2726 52.2111
70.5831 2777 52.6972
70.6996 2960 54.4059
70.8161 3004 54.8088
70.9326 2949 54.3047
71.049 3110 55.7674
71.1653 3098 55.6597
71.2817 2975 54.5436
71.3979 2954 54.3507
71.5141 2950 54.3139
71.6303 2810 53.0094
71.7464 2562 50.6162
71.8624 0 1
71.9784 0 1
72.0944 0 1
72.2102 0 1
72.3261 0 1
72.4418 0 1
72.5575 0 1
72.6732 0 1
75.1054 0 1
75.2209 0 1
75.3365 0 1
75.4521 0 1
75.5678 0 1
75.6835 0 1
75.7993 0 1
75.9151 0 1
76.031 0 1
76.147 2577 50.7642
76.263 2898 53.8331
76.3791 2927 54.1018
76.4952 2838 53.2729
76.6113 2947 54.2863
76.7276 2905 53.8981
76.8438 2813 53.0377
76.9601 2838 53.2729
77.0765 2825 53.1507
77.1929 2757 52.5071
77.3093 2842 53.3104
77.4258 2869 53.563
77.5423 2805 52.9623
77.6589 2932 54.1479
77.7755 2855 53.4322
77.8921 2767 52.6023
78.0088 2648 51.4587
78.1256 2796 52.8772
78.2423 2786 52.7826
78.3591 2748 52.4214
78.4759 2842 53.3104
78.5928 2782 52.7447
78.7097 2646 51.4393
78.8266 2890 53.7587
78.9436 2535 50.3488
79.0606 2494 49.94
79.1776 2183 46.7226
79.2946 2280 47.7493
79.4117 2347 48.4458
79.5288 2412 49.1121
79.6459 2585 50.8429
79.7631 2596 50.951
79.8802 2642 51.4004
79.9974 2609 51.0784
80.1147 2551 50.5074
80.2319 2490 49.8999
80.3491 2479 49.7896
80.4664 2554 50.5371
80.5837 2549 50.4876
80.701 2490 49.8999
80.8183 2468 49.679
80.9357 2559 50.5866
81.053 2401 49
81.1704 2560 50.5964
81.2877 2463 49.6286
81.4051 2423 49.224
81.5225 2468 49.679
81.6399 2324 48.2079
81.7573 2373 48.7134
81.8747 2381 48.7955
81.9922 2303 47.9896
82.1096 2250 47.4342
82.227 2346 48.4355
82.3444 2256 47.4974
82.4619 2322 48.1871
82.5793 2200 46.9042
82.6967 2187 46.7654
82.8142 2056 45.3431
82.9316 1810 42.5441
83.049 1774 42.1189
83.1664 1979 44.486
83.2838 2138 46.2385
83.4012 2081 45.618
83.5186 2205 46.9574
83.636 2138 46.2385
83.7534 1977 44.4635
83.8708 2102 45.8476
83.9881 2122 46.0652
84.1055 2081 45.618
84.2228 2016 44.8999
84.3401 2003 44.7549
84.4575 1985 44.5533
84.5747 2057 45.3542
84.692 2023 44.9778
84.8093 2041 45.1774
84.9265 2009 44.8219
85.0437 2018 44.9222
85.1609 2050 45.2769
85.2781 2043 45.1996
85.3952 2028 45.0333
85.5123 2013 44.8665
85.6294 1999 44.7102
85.7465 2005 44.7772
85.8636 2030 45.0555
85.9806 2053 45.31
86.0976 1972 44.4072
86.2145 2005 44.7772
86.3315 1852 43.0349
86.4484 1788 42.2847
86.5652 1745 41.7732
86.682 1869 43.2319
86.7988 1997 44.6878
86.9156 1990 44.6094
87.0323 2006 44.7884
87.149 1943 44.0795
87.2657 1905 43.6463
87.3823 1921 43.8292
87.4988 1897 43.5546
87.6154 1951 44.1701
87.7318 1929 43.9204
87.8483 1992 44.6318
87.9647 1999 44.7102
88.081 1942 44.0681
88.1973 1963 44.3058
88.3136 1995 44.6654
88.4298 1969 44.3734
88.546 1955 44.2154
88.6621 1997 44.6878
88.7781 1983 44.5309
88.8942 0 1
89.0101 0 1
89.126 0 1
89.2419 0 1
89.3577 0 1
89.4734 0 1
89.5891 0 1
89.7047 0 1
89.8203 0 1
89.9358 0 1
92.3269 0 1
92.4424 0 1
92.558 0 1
92.6736 0 1
92.7893 0 1
92.905 0 1
93.0208 0 1
93.1366 0 1
93.2525 0 1
93.3685 0 1
93.4845 0 1
93.6005 1883 43.3935
93.7167 1866 43.1972
93.8328 1969 44.3734
93.949 1912 43.7264
94.0653 1945 44.1022
94.1816 1913 43.7379
94.2979 1934 43.9773
94.4143 1944 44.0908
94.5307 1958 44.2493
94.6472 2041 45.1774
94.7637 1962 44.2945
94.8803 2027 45.0222
94.9969 2052 45.299
95.1135 2135 46.2061
95.2302 2189 46.7868
95.3469 2084 45.6508
95.4637 2139 46.2493
95.5805 1890 43.4741
95.6973 1796 42.3792
95.8142 1786 42.2611
95.9311 2037 45.1331
96.048 2215 47.0638
96.1649 2273 47.676
96.2819 2252 47.4552
96.3989 2252 47.4552
96.516 2247 47.4025
96.633 2233 47.2546
96.7501 2112 45.9565
96.8673 2220 47.1169
96.9844 2191 46.8081
97.1016 2140 46.2601
97.2188 2140 46.2601
97.336 2111 45.9456
97.4532 2114 45.9783
97.5704 2101 45.8367
97.6877 2176 46.6476
97.805 2102 45.8476
97.9223 2067 45.4643
98.0396 2108 45.913
98.1569 2033 45.0888
98.2743 1977 44.4635
98.3916 2140 46.2601
98.509 1996 44.6766
98.6264 2085 45.6618
98.7438 2121 46.0543
98.8612 2116 46
98.9786 1980 44.4972
99.096 1885 43.4166
99.2134 1846 42.9651
99.3308 1799 42.4146
99.4482 1862 43.1509
99.5656 1955 44.2154
99.6831 1991 44.6206
99.8005 2034 45.0999
99.9179 1909 43.6921
100.035 2012 44.8553
100.153 2034 45.0999
100.27 2004 44.7661
100.388 2001 44.7325
100.505 1965 44.3283
100.622 2032 45.0777
100.74 2064 45.4313
100.857 1981 44.5084
100.975 2098 45.8039
101.092 2032 45.0777
101.209 2042 45.1885
101.327 2110 45.9347
101.444 2030 45.0555
101.561 2111 45.9456
101.679 2081 45.618
101.796 2110 45.9347
101.913 2053 45.31
102.03 2084 45.6508
102.148 2108 45.913
102.265 2252 47.4552
102.382 2053 45.31
102.499 2178 46.669
102.616 2098 45.8039
102.733 1892 43.4971
102.851 1760 41.9524
102.968 1853 43.0465
103.085 1900 43.589
103.202 2058 45.3652
103.319 2101 45.8367
103.436 2061 45.3982
103.552 2064 45.4313
103.669 1956 44.2267
103.786 1904 43.6348
103.903 1983 44.5309
104.02 1969 44.3734
104.137 1873 43.2782
104.253 1909 43.6921
104.37 1843 42.9302
104.487 1955 44.2154
104.603 1885 43.4166
104.72 1837 42.8602
104.836 1867 43.2088
104.953 1759 41.9404
105.069 1759 41.9404
105.186 1737 41.6773
105.302 1779 42.1782
105.418 1735 41.6533
105.535 1686 41.0609
105.651 1726 41.5452
105.767 1680 40.9878
105.883 1600 40
105.999 1623 40.2865
106.115 0 1
106.231 0 1
106.347 0 1
106.463 0 1
106.579 0 1
106.694 0 1
106.81 0 1
106.926 0 1
107.041 0 1
107.157 0 1
109.576 0 1
109.692 0 1
109.807 0 1
109.923 0 1
110.039 0 1
110.155 0 1
110.27 0 1
110.386 0 1
110.502 0 1
110.618 1056 32.4962
110.735 1061 32.573
110.851 989 31.4484
110.967 1072 32.7414
111.083 993 31.5119
111.199 989 31.4484
111.316 1052 32.4345
111.432 996 31.5595
111.549 942 30.692
111.665 901 30.0167
111.782 848 29.1204
111.898 924 30.3974
112.015 983 31.3528
112.132 967 31.0966
112.248 894 29.8998
112.365 967 31.0966
112.482 928 30.4631
112.599 927 30.4467
112.716 916 30.2655
112.832 920 30.3315
112.949 855 29.2404
113.066 885 29.7489
113.183 915 30.249
113.3 906 30.0998
113.417 860 29.3258
113.534 904 30.0666
113.652 940 30.6594
113.769 845 29.0689
113.886 916 30.2655
114.003 920 30.3315
114.12 933 30.545
114.238 914 30.2324
114.355 930 30.4959
114.472 857 29.2746
114.589 757 27.5136
114.707 742 27.2397
114.824 881 29.6816
114.942 918 30.2985
115.059 1032 32.1248
115.176 981 31.3209
115.294 1003 31.6702
115.411 978 31.273
115.529 1008 31.749
115.646 1032 32.1248
115.764 1054 32.4654
115.881 1021 31.9531
115.999 1036 32.187
116.116 1027 32.0468
116.234 995 31.5436
116.351 1019 31.9218
116.469 1046 32.3419
116.586 1073 32.7567
116.704 1107 33.2716
116.821 1079 32.8481
116.939 1067 32.665
117.056 1093 33.0606
117.174 1139 33.7491
117.291 1092 33.0454
117.409 1123 33.5112
117.526 1165 34.1321
117.644 1198 34.6121
117.761 1257 35.4542
117.879 1233 35.1141
117.996 1181 34.3657
118.114 1076 32.8024
118.231 954 30.8869
118.349 947 30.7734
118.466 1095 33.0908
118.584 1270 35.6371
118.701 1339 36.5923
118.819 1338 36.5787
118.936 1333 36.5103
119.053 1257 35.4542
119.171 1345 36.6742
119.288 1391 37.2961
119.405 1349 36.7287
119.523 1344 36.6606
119.64 1405 37.4833
119.757 1383 37.1887
119.875 1468 38.3145
119.992 1362 36.9053
120.109 1367 36.973
120.226 1446 38.0263
120.343 1345 36.6742
120.46 1498 38.704
120.578 1495 38.6652
120.695 1443 37.9868
120.812 1445 38.0132
120.929 1546 39.3192
121.046 1511 38.8716
121.163 1481 38.4838
121.279 1598 39.975
121.396 1637 40.4599
121.513 1544 39.2938
121.63 1548 39.3446
121.747 1395 37.3497
121.863 1291 35.9305
121.98 1235 35.1426
122.097 1214 34.8425
122.213 1359 36.8646
122.33 1563 39.5348
122.446 1620 40.2492
122.563 1597 39.9625
122.679 1718 41.4488
122.795 1638 40.4722
122.912 1746 41.7852
123.028 1619 40.2368
123.144 1726 41.5452
123.26 1770 42.0714
123.377 0 1
123.493 0 1
123.609 0 1
123.725 0 1
123.84 0 1
123.956 0 1
124.072 0 1
124.188 0 1
124.303 0 1
124.419 0 1
126.852 0 1
126.968 0 1
127.083 0 1
127.199 0 1
127.315 0 1
127.431 0 1
127.547 0 1
127.663 0 1
127.779 0 1
127.895 0 1
128.011 0 1
128.127 0 1
128.243 0 1
128.359 2236 47.2864
128.476 2252 47.4552
128.592 2238 47.3075
128.708 2303 47.9896
128.825 2330 48.2701
128.941 2238 47.3075
129.058 2274 47.6865
129.174 2224 47.1593
129.291 2366 48.6415
129.408 2278 47.7284
129.524 2362 48.6004
129.641 2221 47.1275
129.758 2316 48.1248
129.875 2323 48.1975
129.992 2400 48.9898
130.108 2311 48.0729
130.225 2317 48.1352
130.342 2285 47.8017
130.459 2171 46.594
130.576 2188 46.7761
130.693 1940 44.0454
130.81 1772 42.0951
130.928 1817 42.6263
131.045 1911 43.715
131.162 1967 44.3509
131.279 2173 46.6154
131.396 2400 48.9898
131.513 2383 48.816
131.631 2419 49.1833
131.748 2430 49.295
131.865 2466 49.6588
131.983 2507 50.07
132.1 2480 49.7996
132.217 2430 49.295
132.335 2464 49.6387
132.452 2408 49.0714
132.57 2339 48.3632
132.687 2282 47.7703
132.804 2525 50.2494
132.922 2449 49.4874
133.039 2385 48.8365
133.157 2336 48.3322
133.274 2502 50.02
133.392 2514 50.1398
133.509 2409 49.0816
133.627 2477 49.7695
133.744 2420 49.1935
133.862 2418 49.1732
133.979 2384 48.8262
134.097 2227 47.1911
134.214 2214 47.0532
134.332 1972 44.4072
134.449 2014 44.8776
134.567 2021 44.9555
134.684 2156 46.4327
134.802 2217 47.085
134.919 2338 48.3529
135.037 2505 50.05
135.154 2523 50.2295
135.272 2544 50.4381
135.389 2493 49.93
135.507 2574 50.7346
135.624 2664 51.614
135.742 2690 51.8652
135.859 2600 50.9902
135.977 2614 51.1273
136.094 2650 51.4782
136.211 2569 50.6853
136.329 2616 51.1468
136.446 2531 50.309
136.564 2608 51.0686
136.681 2690 51.8652
136.798 2506 50.06
136.915 2541 50.4083
137.033 2685 51.817
137.15 2564 50.636
137.267 2584 50.8331
137.384 2561 50.6063
137.502 2533 50.3289
137.619 2467 49.6689
137.736 2315 48.1144
137.853 2230 47.2229
137.97 2093 45.7493
138.087 2167 46.551
138.204 2162 46.4973
138.321 2325 48.2183
138.438 2380 48.7852
138.555 2548 50.4777
138.672 2577 50.7642
138.788 2685 51.817
138.905 2705 52.0096
139.022 2804 52.9528
139.139 2755 52.4881
139.255 2864 53.5164
139.372 2817 53.0754
139.488 2755 52.4881
139.605 2816 53.066
139.721 2769 52.6213
139.838 2817 53.0754
139.954 2852 53.4041
140.071 2733 52.2781
140.187 2697 51.9326
140.303 2714 52.0961
140.419 2680 51.7687
140.535 2612 51.1077
140.652 2774 52.6688
140.768 0 1
140.884 0 1
141 0 1
141.115 0 1
141.231 0 1
141.347 0 1
141.463 0 1
141.578 0 1
141.694 0 1
144.104 0 1
144.219 0 1
144.335 0 1
144.45 0 1
144.566 0 1
144.682 0 1
144.798 0 1
144.914 0 1
145.03 0 1
145.146 2386 48.8467
145.262 2555 50.547
145.378 2480 49.7996
145.494 2520 50.1996
145.61 2544 50.4381
145.726 2512 50.1199
145.842 2506 50.06
145.959 2464 49.6387
146.075 2369 48.6724
146.192 2315 48.1144
146.308 2234 47.2652
146.425 2156 46.4327
146.541 2141 46.2709
146.658 2015 44.8888
146.774 1996 44.6766
146.891 2062 45.4093
147.008 2215 47.0638
147.125 2330 48.2701
147.241 2325 48.2183
147.358 2276 47.7074
147.475 2271 47.655
147.592 2443 49.4267
147.709 2464 49.6387
147.826 2500 50
147.943 2458 49.5782
148.06 2522 50.2195
148.177 2394 48.9285
148.294 2432 49.3153
148.411 2356 48.5386
148.528 2408 49.0714
148.645 2403 49.0204
148.762 2331 48.2804
148.88 2359 48.5695
148.997 2376 48.7442
149.114 2523 50.2295
149.231 2291 47.8644
149.349 2401 49
149.466 2350 48.4768
149.583 2202 46.9255
149.701 2250 47.4342
149.818 2204 46.9468
149.935 2035 45.111
150.053 2071 45.5082
150.17 2019 44.9333
150.287 2054 45.3211
150.405 1969 44.3734
150.522 2073 45.5302
150.64 2176 46.6476
150.757 2268 47.6235
150.875 2195 46.8508
150.992 2186 46.7547
151.11 2180 46.6905
151.227 2289 47.8435
151.344 2408 49.0714
151.462 2317 48.1352
151.579 2433 49.3254
151.697 2469 49.689
151.814 2400 48.9898
151.932 2347 48.4458
152.049 2420 49.1935
152.167 2322 48.1871
152.284 2401 49
152.402 2412 49.1121
152.519 2376 48.7442
152.636 2474 49.7393
152.754 2389 48.8774
152.871 2335 48.3218
152.989 2331 48.2804
153.106 2332 48.2908
153.223 2191 46.8081
153.341 2353 48.5077
153.458 2115 45.9891
153.575 2071 45.5082
153.693 1984 44.5421
153.81 2032 45.0777
153.927 2008 44.8107
154.044 2052 45.299
154.162 2133 46.1844
154.279 2313 48.0937
154.396 2329 48.2597
154.513 2355 48.5283
154.63 2391 48.8979
154.747 2321 48.1768
154.864 2326 48.2286
154.981 2406 49.051
155.098 2502 50.02
155.215 2464 49.6387
155.332 2501 50.01
155.449 2526 50.2593
155.566 2478 49.7795
155.683 2495 49.95
155.8 2535 50.3488
155.917 2459 49.5883
156.033 2599 50.9804
156.15 0 1
156.267 0 1
156.383 0 1
156.5 0 1
156.617 0 1
156.733 0 1
156.85 0 1
156.966 0 1
157.082 0 1
157.199 0 1
157.315 0 1
157.431 0 1
157.547 0 1
157.664 0 1
157.78 0 1
157.896 0 1
158.012 0 1
158.128 0 1
158.244 0 1
158.359 0 1
158.475 0 1
158.591 0 1
158.706 0 1
