
6.15755 0 1
6.2731 0 1
6.3887 0 1
6.50437 0 1
6.62009 0 1
6.73587 0 1
6.8517 0 1
6.96759 0 1
7.08353 0 1
7.19952 0 1
7.31557 0 1
7.43166 0 1
7.54781 0 1
7.664 0 1
7.78024 0 1
7.89653 0 1
8.01286 0 1
8.12924 0 1
8.24567 0 1
8.36213 0 1
8.47864 0 1
8.59519 0 1
8.71178 0 1
8.82841 0 1
8.94508 0 1
9.06179 0 1
9.17853 0 1
9.29531 0 1
9.41212 0 1
9.52897 0 1
9.64584 0 1
9.76276 0 1
9.8797 0 1
9.99667 0 1
10.1137 0 1
10.2307 0 1
10.3478 0 1
10.4648 0 1
10.5819 0 1
10.6991 0 1
10.8162 0 1
10.9334 0 1
11.0506 0 1
11.1678 0 1
11.285 0 1
11.4023 0 1
11.5196 0 1
11.6369 0 1
11.7542 0 1
11.8715 0 1
11.9888 0 1
12.1062 0 1
12.2235 0 1
12.3409 0 1
12.4582 0 1
12.5756 0 1
12.693 0 1
12.8104 0 1
12.9278 0 1
13.0452 0 1
13.1626 0 1
13.28 0 1
13.3974 0 1
13.5149 0 1
13.6323 0 1
13.7497 0 1
13.8671 0 1
13.9845 0 1
14.1019 0 1
14.2193 0 1
14.3367 0 1
14.4541 0 1
14.5714 0 1
14.6888 0 1
14.8062 0 1
14.9235 0 1
15.0408 3940 62.7694
15.1581 4231 65.0461
15.2755 4273 65.3682
15.3927 4220 64.9615
15.51 4160 64.4981
15.6273 4185 64.6916
15.7445 4218 64.9461
15.8617 4123 64.2106
15.9789 4094 63.9844
16.0961 4042 63.5767
16.2132 3830 61.887
16.3304 3600 60
16.4475 3754 61.2699
16.5646 3646 60.3821
16.6816 3621 60.1747
16.7986 3706 60.8769
16.9156 3725 61.0328
17.0326 3724 61.0246
17.1496 3660 60.4979
17.2665 3714 60.9426
17.3833 3640 60.3324
17.5002 3792 61.5792
17.617 3647 60.3904
17.7338 3723 61.0164
17.8505 3801 61.6523
17.9672 3687 60.7207
18.0839 3638 60.3158
18.2005 3362 57.9828
18.3171 3352 57.8965
18.4337 3527 59.3886
18.5502 3656 60.4649
18.6666 3649 60.407
18.7831 3635 60.291
18.8994 3778 61.4654
19.0158 3699 60.8194
19.1321 3472 58.9237
19.2483 3429 58.5577
19.3645 3254 57.0438
19.4806 3134 55.9821
19.5967 2898 53.8331
19.7128 2575 50.7445
19.8288 2378 48.7647
19.9447 2048 45.2548
20.0606 0 1
20.1764 0 1
20.2922 0 1
20.4079 0 1
20.5236 0 1
20.6392 0 1
20.7548 0 1
20.8702 0 1
23.3078 0 1
23.4233 0 1
23.539 0 1
23.6547 0 1
23.7704 0 1
23.8862 0 1
24.0021 0 1
24.118 0 1
24.234 0 1
24.35 0 1
24.4661 1541 39.2556
24.5822 1786 42.2611
24.6984 1980 44.4972
24.8146 2238 47.3075
24.9309 2582 50.8134
25.0472 2963 54.4334
25.1636 3224 56.7803
25.28 3612 60.0999
25.3965 3697 60.803
25.513 3765 61.3596
25.6296 3873 62.2334
25.7462 3953 62.8729
25.8628 3990 63.1664
25.9795 4181 64.6607
26.0962 3930 62.6897
26.213 3934 62.7216
26.3298 3984 63.1189
26.4466 3666 60.5475
26.5635 3595 59.9583
26.6804 3519 59.3212
26.7973 3339 57.7841
26.9143 3071 55.4166
27.0313 3020 54.9545
27.1483 3096 55.6417
27.2653 3297 57.4195
27.3824 3447 58.7112
27.4996 3504 59.1946
27.6167 3593 59.9416
27.7339 3566 59.716
27.8511 3547 59.5567
27.9683 3560 59.6657
28.0855 3536 59.4643
28.2028 3480 58.9915
28.3201 3405 58.3524
28.4374 3390 58.2237
28.5547 3249 57
28.6721 3418 58.4637
28.7894 3404 58.3438
28.9068 3490 59.0762
29.0242 3506 59.2115
29.1416 3580 59.8331
29.259 3574 59.7829
29.3764 3443 58.6771
29.4939 3478 58.9746
29.6113 3378 58.1206
29.7288 3596 59.9667
29.8463 3521 59.338
29.9638 3446 58.7026
30.0812 3410 58.3952
30.1987 3394 58.258
30.3162 3247 56.9825
30.4337 2879 53.6563
30.5512 2933 54.1572
30.6687 3207 56.6304
30.7862 3338 57.7754
30.9037 3482 59.0085
31.0212 3678 60.6465
31.1387 3716 60.959
31.2562 3769 61.3922
31.3737 3845 62.0081
31.4912 3814 61.7576
31.6087 3670 60.5805
31.7262 3620 60.1664
31.8436 3425 58.5235
31.9611 3278 57.2538
32.0785 3284 57.3062
32.1959 3303 57.4717
32.3134 3344 57.8273
32.4308 3405 58.3524
32.5482 3337 57.7668
32.6655 3231 56.8419
32.7829 3171 56.3116
32.9002 3205 56.6127
33.0176 3055 55.2721
33.1349 3181 56.4004
33.2522 3188 56.4624
33.3694 3244 56.9561
33.4867 3247 56.9825
33.6039 3240 56.921
33.7211 3261 57.1052
33.8383 3043 55.1634
33.9554 2868 53.5537
34.0725 2780 52.7257
34.1896 2680 51.7687
34.3067 3007 54.8361
34.4237 3106 55.7315
34.5407 3176 56.356
34.6577 3323 57.6455
34.7746 3429 58.5577
34.8915 3304 57.4804
35.0084 3320 57.6194
35.1252 3273 57.2101
35.242 3215 56.701
35.3587 3066 55.3715
35.4755 2947 54.2863
35.5921 2780 52.7257
35.7088 2716 52.1153
35.8254 2723 52.1824
35.9419 2766 52.5928
36.0584 2905 53.8981
36.1749 2939 54.2125
36.2913 2862 53.4977
36.4077 2748 52.4214
36.524 2715 52.1057
36.6403 2540 50.3984
36.7565 2428 49.2747
36.8727 2292 47.8748
36.9889 2137 46.2277
37.1049 2165 46.5296
37.221 0 1
37.3369 0 1
37.4529 0 1
37.5687 0 1
37.6845 0 1
37.8003 0 1
37.916 0 1
38.0316 0 1
38.1472 0 1
40.5851 0 1
40.7008 0 1
40.8164 0 1
40.9322 0 1
41.048 0 1
41.1639 0 1
41.2798 0 1
41.3958 0 1
41.5118 0 1
41.6279 0 1
41.744 1389 37.2693
41.8602 1591 39.8873
41.9765 1912 43.7264
42.0928 2148 46.3465
42.2091 2204 46.9468
42.3255 2262 47.5605
42.4419 2400 48.9898
42.5584 2338 48.3529
42.675 2227 47.1911
42.7915 2161 46.4866
42.9081 2120 46.0435
43.0248 2216 47.0744
43.1415 2214 47.0532
43.2582 2259 47.5289
43.375 2287 47.8226
43.4918 2343 48.4045
43.6087 2387 48.8569
43.7256 2364 48.621
43.8425 2418 49.1732
43.9595 2338 48.3529
44.0765 2280 47.7493
44.1935 2304 48
44.3106 2205 46.9574
44.4277 1994 44.6542
44.5448 1978 44.4747
44.6619 2100 45.8258
44.7791 2187 46.7654
44.8963 2395 48.9387
45.0136 2401 49
45.1308 2497 49.97
45.2481 2406 49.051
45.3654 2414 49.1325
45.4827 2509 50.0899
45.6001 2477 49.7695
45.7174 2465 49.6488
45.8348 2550 50.4975
45.9522 2607 51.0588
46.0697 2368 48.6621
46.1871 2345 48.4252
46.3046 2150 46.3681
46.422 1993 44.643
46.5395 1974 44.4297
46.657 2069 45.4863
46.7745 2168 46.5618
46.892 2131 46.1628
47.0096 2268 47.6235
47.1271 2318 48.1456
47.2446 2361 48.5901
47.3622 2389 48.8774
47.4797 2355 48.5283
47.5973 2362 48.6004
47.7149 2221 47.1275
47.8324 2176 46.6476
47.95 2046 45.2327
48.0675 1910 43.7035
48.1851 2130 46.1519
48.3027 2257 47.5079
48.4202 2339 48.3632
48.5378 2347 48.4458
48.6554 2269 47.634
48.7729 2369 48.6724
48.8904 2396 48.949
49.008 2442 49.4166
49.1255 2455 49.548
49.243 2381 48.7955
49.3605 2427 49.2646
49.478 2241 47.3392
49.5955 2124 46.0869
49.713 2008 44.8107
49.8304 1864 43.1741
49.9479 1856 43.0813
50.0653 1895 43.5316
50.1827 1911 43.715
50.3001 2097 45.793
50.4175 2131 46.1628
50.5348 2073 45.5302
50.6521 2133 46.1844
50.7694 2196 46.8615
50.8867 2110 45.9347
51.004 2263 47.571
51.1212 2240 47.3286
51.2384 2115 45.9891
51.3556 1953 44.1928
51.4727 1962 44.2945
51.5899 1990 44.6094
51.707 2033 45.0888
51.824 2194 46.8402
51.9411 2246 47.392
52.0581 2168 46.5618
52.175 2152 46.3897
52.2919 2157 46.4435
52.4088 2130 46.1519
52.5257 2222 47.1381
52.6425 2252 47.4552
52.7593 2297 47.927
52.876 2115 45.9891
52.9927 2148 46.3465
53.1094 2146 46.3249
53.226 2022 44.9667
53.3426 1947 44.1248
53.4591 1784 42.2374
53.5756 1712 41.3763
53.692 1698 41.2068
53.8084 1710 41.3521
53.9248 1588 39.8497
54.0411 1544 39.2938
54.1573 1405 37.4833
54.2735 0 1
54.3896 0 1
54.5057 0 1
54.6217 0 1
54.7377 0 1
54.8537 0 1
54.9695 0 1
55.0853 0 1
55.2011 0 1
55.3168 0 1
55.4324 0 1
57.824 0 1
57.9396 0 1
58.0553 0 1
58.1711 0 1
58.2869 0 1
58.4028 0 1
58.5187 0 1
58.6347 0 1
58.7508 0 1
58.8669 0 1
58.983 2004 44.7661
59.0992 2489 49.8899
59.2155 2956 54.3691
59.3318 3230 56.8331
59.4482 3400 58.3095
59.5646 3646 60.3821
59.681 3792 61.5792
59.7975 3957 62.9047
59.9141 4037 63.5374
60.0306 3986 63.1348
60.1473 3956 62.8967
60.2639 3935 62.7296
60.3807 4016 63.3719
60.4974 4202 64.8228
60.6142 4281 65.4294
60.731 4316 65.6963
60.8479 4191 64.7379
60.9648 4054 63.671
61.0818 4176 64.622
61.1987 4051 63.6475
61.3158 3957 62.9047
61.4328 3765 61.3596
61.5499 3755 61.2781
61.667 3623 60.1914
61.7841 3555 59.6238
61.9013 3256 57.0614
62.0185 3000 54.7723
62.1357 2921 54.0463
62.253 2860 53.479
62.3702 2784 52.7636
62.4875 2909 53.9351
62.6049 3020 54.9545
62.7222 3016 54.9181
62.8396 2887 53.7308
62.9569 2962 54.4243
63.0743 2848 53.3667
63.1918 2962 54.4243
63.3092 2768 52.6118
63.4267 2614 51.1273
63.5441 2590 50.892
63.6616 2527 50.2693
63.7791 2405 49.0408
63.8966 2508 50.0799
64.0142 2545 50.448
64.1317 2505 50.05
64.2492 2528 50.2792
64.3668 2496 49.96
64.4843 2430 49.295
64.6019 2386 48.8467
64.7195 2421 49.2037
64.837 2501 50.01
64.9546 2418 49.1732
65.0722 2454 49.5379
65.1898 2467 49.6689
65.3074 2426 49.2544
65.4249 2318 48.1456
65.5425 2312 48.0833
65.6601 2158 46.4543
65.7777 2149 46.3573
65.8952 2124 46.0869
66.0128 2230 47.2229
66.1304 2307 48.0312
66.2479 2346 48.4355
66.3655 2433 49.3254
66.483 2420 49.1935
66.6005 2466 49.6588
66.718 2365 48.6313
66.8355 2434 49.3356
66.953 2348 48.4562
67.0705 2413 49.1223
67.1879 2219 47.1063
67.3054 2252 47.4552
67.4228 2370 48.6826
67.5402 2378 48.7647
67.6576 2446 49.4571
67.7749 2411 49.1019
67.8923 2364 48.621
68.0096 2328 48.2494
68.1269 2305 48.0104
68.2442 2412 49.1121
68.3614 2338 48.3529
68.4787 2315 48.1144
68.5958 2285 47.8017
68.713 2320 48.1664
68.8302 2368 48.6621
68.9473 2303 47.9896
69.0643 2251 47.4447
69.1814 2230 47.2229
69.2984 2082 45.6289
69.4154 2065 45.4423
69.5323 2132 46.1736
69.6492 2198 46.8828
69.7661 2254 47.4763
69.8829 2337 48.3425
69.9997 2298 47.9375
70.1165 2368 48.6621
70.2332 2338 48.3529
70.3499 2219 47.1063
70.4665 1941 44.0568
70.5831 1910 43.7035
70.6996 1849 43
70.8161 1664 40.7922
70.9326 1518 38.9615
71.049 1415 37.6165
71.1653 1407 37.51
71.2817 1248 35.327
71.3979 1201 34.6554
71.5141 1117 33.4215
71.6303 1040 32.249
71.7464 815 28.5482
71.8624 0 1
71.9784 0 1
72.0944 0 1
72.2102 0 1
72.3261 0 1
72.4418 0 1
72.5575 0 1
72.6732 0 1
75.1054 0 1
75.2209 0 1
75.3365 0 1
75.4521 0 1
75.5678 0 1
75.6835 0 1
75.7993 0 1
75.9151 0 1
76.031 0 1
76.147 1343 36.647
76.263 1528 39.0896
76.3791 1686 41.0609
76.4952 1767 42.0357
76.6113 1970 44.3847
76.7276 1987 44.5758
76.8438 2054 45.3211
76.9601 2017 44.911
77.0765 1959 44.2606
77.1929 1940 44.0454
77.3093 1965 44.3283
77.4258 1978 44.4747
77.5423 1999 44.7102
77.6589 2026 45.0111
77.7755 2013 44.8665
77.8921 1972 44.4072
78.0088 1968 44.3621
78.1256 1836 42.8486
78.2423 1797 42.391
78.3591 1769 42.0595
78.4759 1816 42.6146
78.5928 1724 41.5211
78.7097 1861 43.1393
78.8266 1823 42.6966
78.9436 2081 45.618
79.0606 2039 45.1553
79.1776 2065 45.4423
79.2946 1983 44.5309
79.4117 2027 45.0222
79.5288 1931 43.9431
79.6459 1965 44.3283
79.7631 2015 44.8888
79.8802 1971 44.3959
79.9974 2012 44.8553
80.1147 2120 46.0435
80.2319 2094 45.7602
80.3491 2053 45.31
80.4664 2049 45.2659
80.5837 2118 46.0217
80.701 2108 45.913
80.8183 1957 44.238
80.9357 2010 44.833
81.053 1983 44.5309
81.1704 2068 45.4753
81.2877 2025 45
81.4051 2098 45.8039
81.5225 2077 45.5741
81.6399 2054 45.3211
81.7573 1946 44.1135
81.8747 1845 42.9535
81.9922 1864 43.1741
82.1096 1854 43.0581
82.227 1845 42.9535
82.3444 1850 43.0116
82.4619 2019 44.9333
82.5793 2079 45.5961
82.6967 2105 45.8803
82.8142 2203 46.9361
82.9316 2225 47.1699
83.049 2091 45.7275
83.1664 1986 44.5646
83.2838 1927 43.8976
83.4012 1983 44.5309
83.5186 1953 44.1928
83.636 2180 46.6905
83.7534 2162 46.4973
83.8708 2169 46.5725
83.9881 2194 46.8402
84.1055 2165 46.5296
84.2228 2196 46.8615
84.3401 2158 46.4543
84.4575 2087 45.6837
84.5747 2057 45.3542
84.692 2073 45.5302
84.8093 2059 45.3762
84.9265 2089 45.7056
85.0437 2098 45.8039
85.1609 2122 46.0652
85.2781 2100 45.8258
85.3952 2092 45.7384
85.5123 1891 43.4856
85.6294 1925 43.8748
85.7465 1937 44.0114
85.8636 1938 44.0227
85.9806 2062 45.4093
86.0976 2158 46.4543
86.2145 2141 46.2709
86.3315 2221 47.1275
86.4484 2212 47.0319
86.5652 2172 46.6047
86.682 2113 45.9674
86.7988 2037 45.1331
86.9156 2047 45.2438
87.0323 2144 46.3033
87.149 2098 45.8039
87.2657 2212 47.0319
87.3823 2180 46.6905
87.4988 2115 45.9891
87.6154 2017 44.911
87.7318 1990 44.6094
87.8483 1864 43.1741
87.9647 1820 42.6615
88.081 1776 42.1426
88.1973 1615 40.1871
88.3136 1484 38.5227
88.4298 1325 36.4005
88.546 1231 35.0856
88.6621 1177 34.3074
88.7781 1139 33.7491
88.8942 0 1
89.0101 0 1
89.126 0 1
89.2419 0 1
89.3577 0 1
89.4734 0 1
89.5891 0 1
89.7047 0 1
89.8203 0 1
89.9358 0 1
92.3269 0 1
92.4424 0 1
92.558 0 1
92.6736 0 1
92.7893 0 1
92.905 0 1
93.0208 0 1
93.1366 0 1
93.2525 0 1
93.3685 0 1
93.4845 0 1
93.6005 1706 41.3038
93.7167 1839 42.8836
93.8328 1973 44.4185
93.949 2130 46.1519
94.0653 2112 45.9565
94.1816 2185 46.744
94.2979 2180 46.6905
94.4143 2230 47.2229
94.5307 2186 46.7547
94.6472 1984 44.5421
94.7637 2044 45.2106
94.8803 2130 46.1519
94.9969 2075 45.5522
95.1135 2136 46.2169
95.2302 2176 46.6476
95.3469 2200 46.9042
95.4637 2285 47.8017
95.5805 2385 48.8365
95.6973 2375 48.734
95.8142 2308 48.0416
95.9311 2187 46.7654
96.048 2115 45.9891
96.1649 2159 46.465
96.2819 2254 47.4763
96.3989 2278 47.7284
96.516 2405 49.0408
96.633 2374 48.7237
96.7501 2361 48.5901
96.8673 2338 48.3529
96.9844 2354 48.518
97.1016 2213 47.0425
97.2188 2321 48.1768
97.336 2295 47.9062
97.4532 2202 46.9255
97.5704 2311 48.0729
97.6877 2320 48.1664
97.805 2331 48.2804
97.9223 2331 48.2804
98.0396 2312 48.0833
98.1569 2220 47.1169
98.2743 2290 47.8539
98.3916 2184 46.7333
98.509 2258 47.5184
98.6264 2304 48
98.7438 2390 48.8876
98.8612 2327 48.239
98.9786 2433 49.3254
99.096 2437 49.366
99.2134 2413 49.1223
99.3308 2478 49.7795
99.4482 2568 50.6754
99.5656 2462 49.6185
99.6831 2504 50.04
99.8005 2447 49.4672
99.9179 2548 50.4777
100.035 2558 50.5767
100.153 2620 51.1859
100.27 2570 50.6952
100.388 2545 50.448
100.505 2543 50.4282
100.622 2596 50.951
100.74 2457 49.5681
100.857 2400 48.9898
100.975 2475 49.7494
101.092 2472 49.7192
101.209 2459 49.5883
101.327 2579 50.7839
101.444 2523 50.2295
101.561 2604 51.0294
101.679 2534 50.3389
101.796 2426 49.2544
101.913 2446 49.4571
102.03 2468 49.679
102.148 2410 49.0918
102.265 2624 51.225
102.382 2627 51.2543
102.499 2650 51.4782
102.616 2699 51.9519
102.733 2748 52.4214
102.851 2714 52.0961
102.968 2762 52.5547
103.085 2677 51.7397
103.202 2709 52.0481
103.319 2546 50.4579
103.436 2613 51.1175
103.552 2708 52.0384
103.669 2826 53.1601
103.786 2825 53.1507
103.903 2864 53.5164
104.02 2889 53.7494
104.137 2755 52.4881
104.253 2716 52.1153
104.37 2614 51.1273
104.487 2726 52.2111
104.603 2617 51.1566
104.72 2697 51.9326
104.836 2609 51.0784
104.953 2556 50.5569
105.069 2468 49.679
105.186 2287 47.8226
105.302 2254 47.4763
105.418 2044 45.2106
105.535 1980 44.4972
105.651 1825 42.72
105.767 1685 41.0488
105.883 1453 38.1182
105.999 1458 38.1838
106.115 0 1
106.231 0 1
106.347 0 1
106.463 0 1
106.579 0 1
106.694 0 1
106.81 0 1
106.926 0 1
107.041 0 1
107.157 0 1
109.576 0 1
109.692 0 1
109.807 0 1
109.923 0 1
110.039 0 1
110.155 0 1
110.27 0 1
110.386 0 1
110.502 0 1
110.618 1372 37.0405
110.735 1614 40.1746
110.851 1832 42.8019
110.967 2030 45.0555
111.083 2145 46.3141
111.199 2308 48.0416
111.316 2442 49.4166
111.432 2551 50.5074
111.549 2665 51.6236
111.665 2672 51.6914
111.782 2675 51.7204
111.898 2482 49.8197
112.015 2465 49.6488
112.132 2516 50.1597
112.248 2541 50.4083
112.365 2661 51.5849
112.482 2698 51.9423
112.599 2590 50.892
112.716 2534 50.3389
112.832 2599 50.9804
112.949 2551 50.5074
113.066 2437 49.366
113.183 2409 49.0816
113.3 2474 49.7393
113.417 2432 49.3153
113.534 2516 50.1597
113.652 2479 49.7896
113.769 2441 49.4065
113.886 2456 49.558
114.003 2284 47.7912
114.12 2375 48.734
114.238 2314 48.1041
114.355 2268 47.6235
114.472 2217 47.085
114.589 2222 47.1381
114.707 2252 47.4552
114.824 2439 49.3862
114.942 2346 48.4355
115.059 2557 50.5668
115.176 2542 50.4183
115.294 2393 48.9183
115.411 2321 48.1768
115.529 2276 47.7074
115.646 2265 47.592
115.764 2328 48.2494
115.881 2270 47.6445
115.999 2459 49.5883
116.116 2409 49.0816
116.234 2349 48.4665
116.351 2282 47.7703
116.469 2271 47.655
116.586 2237 47.2969
116.704 2241 47.3392
116.821 2217 47.085
116.939 2137 46.2277
117.056 2239 47.3181
117.174 2232 47.244
117.291 2264 47.5815
117.409 2232 47.244
117.526 2240 47.3286
117.644 2139 46.2493
117.761 2154 46.4112
117.879 2047 45.2438
117.996 2049 45.2659
118.114 2012 44.8553
118.231 2073 45.5302
118.349 2145 46.3141
118.466 2329 48.2597
118.584 2262 47.5605
118.701 2225 47.1699
118.819 2270 47.6445
118.936 2200 46.9042
119.053 2165 46.5296
119.171 2243 47.3603
119.288 2183 46.7226
119.405 2186 46.7547
119.523 2234 47.2652
119.64 2285 47.8017
119.757 2262 47.5605
119.875 2225 47.1699
119.992 2122 46.0652
120.109 2160 46.4758
120.226 2048 45.2548
120.343 2122 46.0652
120.46 2093 45.7493
120.578 2179 46.6798
120.695 2048 45.2548
120.812 2028 45.0333
120.929 2159 46.465
121.046 2078 45.5851
121.163 2043 45.1996
121.279 1971 44.3959
121.396 1916 43.7721
121.513 1918 43.795
121.63 1745 41.7732
121.747 1746 41.7852
121.863 1694 41.1582
121.98 1768 42.0476
122.097 1717 41.4367
122.213 1738 41.6893
122.33 1664 40.7922
122.446 1589 39.8623
122.563 1566 39.5727
122.679 1446 38.0263
122.795 1330 36.4692
122.912 1246 35.2987
123.028 1133 33.6601
123.144 1169 34.1906
123.26 1161 34.0735
123.377 0 1
123.493 0 1
123.609 0 1
123.725 0 1
123.84 0 1
123.956 0 1
124.072 0 1
124.188 0 1
124.303 0 1
124.419 0 1
126.852 0 1
126.968 0 1
127.083 0 1
127.199 0 1
127.315 0 1
127.431 0 1
127.547 0 1
127.663 0 1
127.779 0 1
127.895 0 1
128.011 0 1
128.127 0 1
128.243 0 1
128.359 2194 46.8402
128.476 2185 46.744
128.592 2144 46.3033
128.708 2273 47.676
128.825 2312 48.0833
128.941 2344 48.4149
129.058 2496 49.96
129.174 2390 48.8876
129.291 2363 48.6107
129.408 2433 49.3254
129.524 2425 49.2443
129.641 2429 49.2849
129.758 2335 48.3218
129.875 2361 48.5901
129.992 2573 50.7247
130.108 2473 49.7293
130.225 2469 49.689
130.342 2328 48.2494
130.459 2283 47.7807
130.576 2296 47.9166
130.693 2243 47.3603
130.81 2170 46.5833
130.928 2441 49.4065
131.045 2565 50.6458
131.162 2555 50.547
131.279 2903 53.8795
131.396 2743 52.3737
131.513 3015 54.909
131.631 3099 55.6687
131.748 3163 56.2406
131.865 3084 55.5338
131.983 3009 54.8544
132.1 3200 56.5685
132.217 3444 58.6856
132.335 3684 60.696
132.452 3873 62.2334
132.57 4025 63.4429
132.687 4126 64.2339
132.804 4319 65.7191
132.922 4352 65.9697
133.039 4306 65.6201
133.157 4418 66.468
133.274 4446 66.6783
133.392 4550 67.4537
133.509 4590 67.7495
133.627 4548 67.4389
133.744 4501 67.0895
133.862 4458 66.7683
133.979 4372 66.1211
134.097 4252 65.2074
134.214 4186 64.6993
134.332 4272 65.3605
134.449 4125 64.2262
134.567 4325 65.7647
134.684 4344 65.909
134.802 4589 67.7422
134.919 4646 68.1616
135.037 4769 69.0579
135.154 4746 68.8912
135.272 4795 69.2459
135.389 4559 67.5204
135.507 4265 65.307
135.624 4420 66.4831
135.742 4667 68.3154
135.859 4715 68.6659
135.977 4988 70.6258
136.094 5123 71.5751
136.211 5010 70.7814
136.329 5090 71.3442
136.446 5123 71.5751
136.564 5211 72.1873
136.681 5121 71.5612
136.798 5209 72.1734
136.915 5157 71.8123
137.033 5248 72.4431
137.15 5237 72.3671
137.267 5140 71.6938
137.384 5052 71.0774
137.502 4984 70.5975
137.619 4789 69.2026
137.736 4731 68.7823
137.853 4460 66.7832
137.97 4499 67.0746
138.087 4662 68.2788
138.204 4822 69.4406
138.321 4891 69.9357
138.438 4939 70.278
138.555 5075 71.239
138.672 5480 74.027
138.788 5450 73.8241
138.905 5123 71.5751
139.022 4800 69.282
139.139 4322 65.7419
139.255 4080 63.8749
139.372 4064 63.7495
139.488 3931 62.6977
139.605 4003 63.2693
139.721 3875 62.2495
139.838 3870 62.2093
139.954 3534 59.4475
140.071 3465 58.8643
140.187 3170 56.3028
140.303 2956 54.3691
140.419 2912 53.963
140.535 2805 52.9623
140.652 2655 51.5267
140.768 0 1
140.884 0 1
141 0 1
141.115 0 1
141.231 0 1
141.347 0 1
141.463 0 1
141.578 0 1
141.694 0 1
144.104 0 1
144.219 0 1
144.335 0 1
144.45 0 1
144.566 0 1
144.682 0 1
144.798 0 1
144.914 0 1
145.03 0 1
145.146 5853 76.5049
145.262 5963 77.2205
145.378 6245 79.0253
145.494 6511 80.6908
145.61 6298 79.3599
145.726 6518 80.7341
145.842 6591 81.185
145.959 6817 82.5651
146.075 6615 81.3327
146.192 6697 81.8352
146.308 6407 80.0437
146.425 6154 78.4474
146.541 6222 78.8797
146.658 6113 78.1857
146.774 6108 78.1537
146.891 6336 79.599
147.008 6344 79.6492
147.125 6045 77.7496
147.241 6314 79.4607
147.358 6778 82.3286
147.475 7093 84.22
147.592 7358 85.7788
147.709 7202 84.8646
147.826 7117 84.3623
147.943 6903 83.0843
148.06 6858 82.813
148.177 6972 83.4985
148.294 7119 84.3742
148.411 7219 84.9647
148.528 7235 85.0588
148.645 7302 85.4517
148.762 7319 85.5512
148.88 7358 85.7788
148.997 7657 87.5043
149.114 7554 86.9138
149.231 7552 86.9022
149.349 7662 87.5329
149.466 7607 87.2181
149.583 7718 87.8521
149.701 7706 87.7838
149.818 7735 87.9488
149.935 7636 87.3842
150.053 7159 84.6109
150.17 6969 83.4805
150.287 6591 81.185
150.405 6758 82.2071
150.522 6981 83.5524
150.64 7032 83.857
150.757 6558 80.9815
150.875 6756 82.1949
150.992 7392 85.9767
151.11 7506 86.6372
151.227 7711 87.8123
151.344 7854 88.6228
151.462 7979 89.3252
151.579 7800 88.3176
151.697 7504 86.6256
151.814 7770 88.1476
151.932 7972 89.2861
152.049 8122 90.1221
152.167 8100 90
152.284 8334 91.2907
152.402 8268 90.9285
152.519 8398 91.6406
152.636 8502 92.2063
152.754 8718 93.3702
152.871 8708 93.3167
152.989 8615 92.817
153.106 8879 94.2284
153.223 9008 94.9105
153.341 8875 94.2072
153.458 8798 93.7977
153.575 8573 92.5905
153.693 7749 88.0284
153.81 7401 86.0291
153.927 7109 84.3149
154.044 7537 86.8159
154.162 8134 90.1887
154.279 7944 89.1291
154.396 7658 87.51
154.513 7834 88.5099
154.63 8459 91.9728
154.747 8588 92.6715
154.864 8925 94.4722
154.981 8748 93.5307
155.098 8758 93.5842
155.215 8508 92.2388
155.332 8463 91.9946
155.449 8673 93.1289
155.566 8859 94.1223
155.683 8920 94.4458
155.8 9114 95.4673
155.917 9215 95.9948
156.033 9347 96.6799
156.15 0 1
156.267 0 1
156.383 0 1
156.5 0 1
156.617 0 1
156.733 0 1
156.85 0 1
156.966 0 1
157.082 0 1
157.199 0 1
157.315 0 1
157.431 0 1
157.547 0 1
157.664 0 1
157.78 0 1
157.896 0 1
158.012 0 1
158.128 0 1
158.244 0 1
158.359 0 1
158.475 0 1
158.591 0 1
158.706 0 1
