
6.15755 0 1
6.2731 0 1
6.3887 0 1
6.50437 0 1
6.62009 0 1
6.73587 0 1
6.8517 0 1
6.96759 0 1
7.08353 0 1
7.19952 0 1
7.31557 0 1
7.43166 0 1
7.54781 0 1
7.664 0 1
7.78024 0 1
7.89653 0 1
8.01286 0 1
8.12924 0 1
8.24567 0 1
8.36213 0 1
8.47864 0 1
8.59519 0 1
8.71178 0 1
8.82841 0 1
8.94508 0 1
9.06179 0 1
9.17853 0 1
9.29531 0 1
9.41212 0 1
9.52897 0 1
9.64584 0 1
9.76276 0 1
9.8797 0 1
9.99667 0 1
10.1137 0 1
10.2307 0 1
10.3478 0 1
10.4648 0 1
10.5819 0 1
10.6991 0 1
10.8162 0 1
10.9334 0 1
11.0506 0 1
11.1678 0 1
11.285 0 1
11.4023 0 1
11.5196 0 1
11.6369 0 1
11.7542 0 1
11.8715 0 1
11.9888 0 1
12.1062 0 1
12.2235 0 1
12.3409 0 1
12.4582 0 1
12.5756 0 1
12.693 0 1
12.8104 0 1
12.9278 0 1
13.0452 0 1
13.1626 0 1
13.28 0 1
13.3974 0 1
13.5149 0 1
13.6323 0 1
13.7497 0 1
13.8671 0 1
13.9845 0 1
14.1019 0 1
14.2193 0 1
14.3367 0 1
14.4541 0 1
14.5714 0 1
14.6888 0 1
14.8062 0 1
14.9235 0 1
15.0408 1129 33.6006
15.1581 1099 33.1512
15.2755 1154 33.9706
15.3927 1173 34.2491
15.51 1144 33.8231
15.6273 1148 33.8821
15.7445 1186 34.4384
15.8617 1207 34.7419
15.9789 1190 34.4964
16.0961 1190 34.4964
16.2132 1190 34.4964
16.3304 1214 34.8425
16.4475 1224 34.9857
16.5646 1265 35.5668
16.6816 1362 36.9053
16.7986 1432 37.8418
16.9156 1498 38.704
17.0326 1365 36.9459
17.1496 1479 38.4578
17.2665 1431 37.8286
17.3833 1394 37.3363
17.5002 1340 36.606
17.617 1342 36.6333
17.7338 1284 35.8329
17.8505 1165 34.1321
17.9672 1212 34.8138
18.0839 1254 35.4119
18.2005 1296 36
18.3171 1235 35.1426
18.4337 1316 36.2767
18.5502 1337 36.565
18.6666 1377 37.108
18.7831 1363 36.9188
18.8994 1394 37.3363
19.0158 1371 37.027
19.1321 1281 35.7911
19.2483 1334 36.524
19.3645 1240 35.2136
19.4806 1160 34.0588
19.5967 1060 32.5576
19.7128 948 30.7896
19.8288 905 30.0832
19.9447 806 28.3901
20.0606 0 1
20.1764 0 1
20.2922 0 1
20.4079 0 1
20.5236 0 1
20.6392 0 1
20.7548 0 1
20.8702 0 1
23.3078 0 1
23.4233 0 1
23.539 0 1
23.6547 0 1
23.7704 0 1
23.8862 0 1
24.0021 0 1
24.118 0 1
24.234 0 1
24.35 0 1
24.4661 556 23.5797
24.5822 685 26.1725
24.6984 798 28.2489
24.8146 872 29.5296
24.9309 915 30.249
25.0472 972 31.1769
25.1636 1109 33.3017
25.28 1160 34.0588
25.3965 1273 35.6791
25.513 1335 36.5377
25.6296 1444 38
25.7462 1467 38.3014
25.8628 1453 38.1182
25.9795 1562 39.5221
26.0962 1532 39.1408
26.213 1454 38.1314
26.3298 1394 37.3363
26.4466 1230 35.0714
26.5635 1264 35.5528
26.6804 1253 35.3977
26.7973 1296 36
26.9143 1325 36.4005
27.0313 1299 36.0416
27.1483 1385 37.2156
27.2653 1321 36.3456
27.3824 1451 38.092
27.4996 1471 38.3536
27.6167 1482 38.4968
27.7339 1388 37.2559
27.8511 1375 37.081
27.9683 1308 36.1663
28.0855 1338 36.5787
28.2028 1255 35.426
28.3201 1217 34.8855
28.4374 1191 34.5109
28.5547 1189 34.4819
28.6721 1216 34.8712
28.7894 1327 36.428
28.9068 1368 36.9865
29.0242 1426 37.7624
29.1416 1558 39.4715
29.259 1471 38.3536
29.3764 1433 37.855
29.4939 1457 38.1707
29.6113 1472 38.3667
29.7288 1397 37.3765
29.8463 1285 35.8469
29.9638 1269 35.623
30.0812 1179 34.3366
30.1987 1222 34.9571
30.3162 1247 35.3129
30.4337 1311 36.2077
30.5512 1309 36.1801
30.6687 1340 36.606
30.7862 1384 37.2022
30.9037 1390 37.2827
31.0212 1369 37
31.1387 1363 36.9188
31.2562 1322 36.3593
31.3737 1373 37.054
31.4912 1357 36.8375
31.6087 1305 36.1248
31.7262 1213 34.8281
31.8436 1260 35.4965
31.9611 1125 33.541
32.0785 1145 33.8378
32.1959 1252 35.3836
32.3134 1227 35.0286
32.4308 1322 36.3593
32.5482 1352 36.7696
32.6655 1425 37.7492
32.7829 1456 38.1576
32.9002 1408 37.5233
33.0176 1408 37.5233
33.1349 1364 36.9324
33.2522 1379 37.1349
33.3694 1325 36.4005
33.4867 1246 35.2987
33.6039 1111 33.3317
33.7211 1045 32.3265
33.8383 1115 33.3916
33.9554 1176 34.2929
34.0725 1168 34.176
34.1896 1227 35.0286
34.3067 1206 34.7275
34.4237 1336 36.5513
34.5407 1346 36.6879
34.6577 1317 36.2905
34.7746 1310 36.1939
34.8915 1350 36.7423
35.0084 1210 34.7851
35.1252 1248 35.327
35.242 1281 35.7911
35.3587 1217 34.8855
35.4755 1195 34.5688
35.5921 1091 33.0303
35.7088 1113 33.3617
35.8254 1027 32.0468
35.9419 1126 33.5559
36.0584 1180 34.3511
36.1749 1208 34.7563
36.2913 1215 34.8569
36.4077 1275 35.7071
36.524 1202 34.6699
36.6403 1171 34.2199
36.7565 1117 33.4215
36.8727 1090 33.0151
36.9889 1009 31.7648
37.1049 911 30.1828
37.221 0 1
37.3369 0 1
37.4529 0 1
37.5687 0 1
37.6845 0 1
37.8003 0 1
37.916 0 1
38.0316 0 1
38.1472 0 1
40.5851 0 1
40.7008 0 1
40.8164 0 1
40.9322 0 1
41.048 0 1
41.1639 0 1
41.2798 0 1
41.3958 0 1
41.5118 0 1
41.6279 0 1
41.744 636 25.219
41.8602 703 26.5141
41.9765 786 28.0357
42.0928 820 28.6356
42.2091 784 28
42.3255 774 27.8209
42.4419 714 26.7208
42.5584 770 27.7489
42.675 847 29.1033
42.7915 904 30.0666
42.9081 1023 31.9844
43.0248 971 31.1609
43.1415 1021 31.9531
43.2582 1082 32.8938
43.375 1084 32.9242
43.4918 1113 33.3617
43.6087 1066 32.6497
43.7256 1006 31.7175
43.8425 1112 33.3467
43.9595 1036 32.187
44.0765 1052 32.4345
44.1935 986 31.4006
44.3106 1002 31.6544
44.4277 891 29.8496
44.5448 873 29.5466
44.6619 909 30.1496
44.7791 999 31.607
44.8963 972 31.1769
45.0136 1018 31.9061
45.1308 1135 33.6898
45.2481 1103 33.2114
45.3654 1115 33.3916
45.4827 1127 33.5708
45.6001 1150 33.9116
45.7174 1090 33.0151
45.8348 1047 32.3574
45.9522 986 31.4006
46.0697 909 30.1496
46.1871 946 30.7571
46.3046 875 29.5804
46.422 971 31.1609
46.5395 1046 32.3419
46.657 1029 32.078
46.7745 1081 32.8786
46.892 1048 32.3728
47.0096 1072 32.7414
47.1271 1138 33.7343
47.2446 1134 33.6749
47.3622 1086 32.9545
47.4797 1145 33.8378
47.5973 1094 33.0757
47.7149 1084 32.9242
47.8324 1044 32.311
47.95 951 30.8383
48.0675 947 30.7734
48.1851 855 29.2404
48.3027 957 30.9354
48.4202 980 31.305
48.5378 1051 32.4191
48.6554 1134 33.6749
48.7729 1149 33.8969
48.8904 1144 33.8231
49.008 1131 33.6303
49.1255 1137 33.7194
49.243 1081 32.8786
49.3605 1080 32.8634
49.478 941 30.6757
49.5955 909 30.1496
49.713 865 29.4109
49.8304 888 29.7993
49.9479 971 31.1609
50.0653 1021 31.9531
50.1827 1072 32.7414
50.3001 1126 33.5559
50.4175 1086 32.9545
50.5348 1103 33.2114
50.6521 1146 33.8526
50.7694 1130 33.6155
50.8867 1225 35
51.004 1106 33.2566
51.1212 1144 33.8231
51.2384 1084 32.9242
51.3556 1180 34.3511
51.4727 1150 33.9116
51.5899 942 30.692
51.707 1039 32.2335
51.824 1044 32.311
51.9411 1230 35.0714
52.0581 1342 36.6333
52.175 1428 37.7889
52.2919 1447 38.0395
52.4088 1532 39.1408
52.5257 1551 39.3827
52.6425 1610 40.1248
52.7593 1617 40.2119
52.876 1572 39.6485
52.9927 1435 37.8814
53.1094 1399 37.4032
53.226 1361 36.8917
53.3426 1273 35.6791
53.4591 1280 35.7771
53.5756 1295 35.9861
53.692 1370 37.0135
53.8084 1341 36.6197
53.9248 1398 37.3898
54.0411 1328 36.4417
54.1573 1159 34.0441
54.2735 0 1
54.3896 0 1
54.5057 0 1
54.6217 0 1
54.7377 0 1
54.8537 0 1
54.9695 0 1
55.0853 0 1
55.2011 0 1
55.3168 0 1
55.4324 0 1
57.824 0 1
57.9396 0 1
58.0553 0 1
58.1711 0 1
58.2869 0 1
58.4028 0 1
58.5187 0 1
58.6347 0 1
58.7508 0 1
58.8669 0 1
58.983 969 31.1288
59.0992 1053 32.45
59.2155 1114 33.3766
59.3318 1200 34.641
59.4482 1194 34.5543
59.5646 1315 36.2629
59.681 1396 37.3631
59.7975 1325 36.4005
59.9141 1272 35.6651
60.0306 1325 36.4005
60.1473 1311 36.2077
60.2639 1212 34.8138
60.3807 1128 33.5857
60.4974 1157 34.0147
60.6142 1244 35.2704
60.731 1332 36.4966
60.8479 1335 36.5377
60.9648 1378 37.1214
61.0818 1441 37.9605
61.1987 1404 37.47
61.3158 1391 37.2961
61.4328 1335 36.5377
61.5499 1324 36.3868
61.667 1194 34.5543
61.7841 1117 33.4215
61.9013 1070 32.7109
62.0185 1032 32.1248
62.1357 1135 33.6898
62.253 1176 34.2929
62.3702 1260 35.4965
62.4875 1348 36.7151
62.6049 1358 36.8511
62.7222 1357 36.8375
62.8396 1440 37.9473
62.9569 1442 37.9737
63.0743 1420 37.6829
63.1918 1373 37.054
63.3092 1392 37.3095
63.4267 1396 37.3631
63.5441 1317 36.2905
63.6616 1206 34.7275
63.7791 1128 33.5857
63.8966 1111 33.3317
64.0142 1129 33.6006
64.1317 1156 34
64.2492 1271 35.6511
64.3668 1337 36.565
64.4843 1388 37.2559
64.6019 1439 37.9342
64.7195 1365 36.9459
64.837 1370 37.0135
64.9546 1288 35.8887
65.0722 1267 35.5949
65.1898 1210 34.7851
65.3074 1154 33.9706
65.4249 1082 32.8938
65.5425 1028 32.0624
65.6601 1019 31.9218
65.7777 1126 33.5559
65.8952 1229 35.0571
66.0128 1253 35.3977
66.1304 1287 35.8748
66.2479 1263 35.5387
66.3655 1366 36.9594
66.483 1351 36.756
66.6005 1360 36.8782
66.718 1373 37.054
66.8355 1339 36.5923
66.953 1282 35.805
67.0705 1359 36.8646
67.1879 1275 35.7071
67.3054 1155 33.9853
67.4228 1093 33.0606
67.5402 1076 32.8024
67.6576 1047 32.3574
67.7749 1134 33.6749
67.8923 1177 34.3074
68.0096 1270 35.6371
68.1269 1312 36.2215
68.2442 1422 37.7094
68.3614 1389 37.2693
68.4787 1350 36.7423
68.5958 1320 36.3318
68.713 1308 36.1663
68.8302 1207 34.7419
68.9473 1119 33.4515
69.0643 1090 33.0151
69.1814 985 31.3847
69.2984 1051 32.4191
69.4154 1069 32.6956
69.5323 1155 33.9853
69.6492 1165 34.1321
69.7661 1323 36.3731
69.8829 1236 35.1568
69.9997 1207 34.7419
70.1165 1190 34.4964
70.2332 1157 34.0147
70.3499 1181 34.3657
70.4665 1069 32.6956
70.5831 1083 32.909
70.6996 995 31.5436
70.8161 955 30.9031
70.9326 852 29.189
71.049 736 27.1293
71.1653 612 24.7386
71.2817 551 23.4734
71.3979 482 21.9545
71.5141 484 22
71.6303 448 21.166
71.7464 454 21.3073
71.8624 0 1
71.9784 0 1
72.0944 0 1
72.2102 0 1
72.3261 0 1
72.4418 0 1
72.5575 0 1
72.6732 0 1
75.1054 0 1
75.2209 0 1
75.3365 0 1
75.4521 0 1
75.5678 0 1
75.6835 0 1
75.7993 0 1
75.9151 0 1
76.031 0 1
76.147 786 28.0357
76.263 824 28.7054
76.3791 812 28.4956
76.4952 857 29.2746
76.6113 888 29.7993
76.7276 960 30.9839
76.8438 1016 31.8748
76.9601 1060 32.5576
77.0765 1069 32.6956
77.1929 1265 35.5668
77.3093 1174 34.2637
77.4258 1215 34.8569
77.5423 1192 34.5254
77.6589 1155 33.9853
77.7755 1050 32.4037
77.8921 958 30.9516
78.0088 893 29.8831
78.1256 845 29.0689
78.2423 817 28.5832
78.3591 788 28.0713
78.4759 969 31.1288
78.5928 1056 32.4962
78.7097 1074 32.7719
78.8266 1120 33.4664
78.9436 1183 34.3948
79.0606 1117 33.4215
79.1776 1111 33.3317
79.2946 1142 33.7935
79.4117 1163 34.1028
79.5288 1115 33.3916
79.6459 1200 34.641
79.7631 1139 33.7491
79.8802 1051 32.4191
79.9974 1033 32.1403
80.1147 974 31.209
80.2319 952 30.8545
80.3491 993 31.5119
80.4664 932 30.5287
80.5837 1103 33.2114
80.701 1118 33.4365
80.8183 1150 33.9116
80.9357 1185 34.4238
81.053 1223 34.9714
81.1704 1181 34.3657
81.2877 1212 34.8138
81.4051 1200 34.641
81.5225 1097 33.121
81.6399 1020 31.9374
81.7573 901 30.0167
81.8747 933 30.545
81.9922 803 28.3373
82.1096 1004 31.686
82.227 1025 32.0156
82.3444 1086 32.9545
82.4619 1125 33.541
82.5793 1187 34.4529
82.6967 1164 34.1174
82.8142 1157 34.0147
82.9316 1159 34.0441
83.049 1228 35.0428
83.1664 1249 35.3412
83.2838 1162 34.0881
83.4012 1164 34.1174
83.5186 1089 33
83.636 1075 32.7872
83.7534 1034 32.1559
83.8708 949 30.8058
83.9881 914 30.2324
84.1055 941 30.6757
84.2228 1044 32.311
84.3401 1098 33.1361
84.4575 1150 33.9116
84.5747 1220 34.9285
84.692 1268 35.609
84.8093 1239 35.1994
84.9265 1314 36.2491
85.0437 1169 34.1906
85.1609 1063 32.6037
85.2781 930 30.4959
85.3952 892 29.8664
85.5123 840 28.9828
85.6294 849 29.1376
85.7465 969 31.1288
85.8636 1028 32.0624
85.9806 1070 32.7109
86.0976 1147 33.8674
86.2145 1204 34.6987
86.3315 1195 34.5688
86.4484 1273 35.6791
86.5652 1247 35.3129
86.682 1172 34.2345
86.7988 1271 35.6511
86.9156 1235 35.1426
87.0323 1186 34.4384
87.149 1160 34.0588
87.2657 1042 32.28
87.3823 920 30.3315
87.4988 844 29.0517
87.6154 803 28.3373
87.7318 880 29.6648
87.8483 874 29.5635
87.9647 968 31.1127
88.081 928 30.4631
88.1973 1006 31.7175
88.3136 894 29.8998
88.4298 904 30.0666
88.546 823 28.688
88.6621 737 27.1477
88.7781 563 23.7276
88.8942 0 1
89.0101 0 1
89.126 0 1
89.2419 0 1
89.3577 0 1
89.4734 0 1
89.5891 0 1
89.7047 0 1
89.8203 0 1
89.9358 0 1
92.3269 0 1
92.4424 0 1
92.558 0 1
92.6736 0 1
92.7893 0 1
92.905 0 1
93.0208 0 1
93.1366 0 1
93.2525 0 1
93.3685 0 1
93.4845 0 1
93.6005 959 30.9677
93.7167 1020 31.9374
93.8328 1010 31.7805
93.949 1021 31.9531
94.0653 1064 32.619
94.1816 1055 32.4808
94.2979 1025 32.0156
94.4143 986 31.4006
94.5307 1007 31.7333
94.6472 923 30.3809
94.7637 901 30.0167
94.8803 997 31.5753
94.9969 1066 32.6497
95.1135 1103 33.2114
95.2302 1158 34.0294
95.3469 1177 34.3074
95.4637 1189 34.4819
95.5805 1245 35.2846
95.6973 1214 34.8425
95.8142 1303 36.0971
95.9311 1233 35.1141
96.048 1288 35.8887
96.1649 1222 34.9571
96.2819 1156 34
96.3989 1125 33.541
96.516 1113 33.3617
96.633 982 31.3369
96.7501 978 31.273
96.8673 1017 31.8904
96.9844 995 31.5436
97.1016 1119 33.4515
97.2188 1168 34.176
97.336 1250 35.3553
97.4532 1242 35.242
97.5704 1198 34.6121
97.6877 1296 36
97.805 1228 35.0428
97.9223 1199 34.6266
98.0396 1086 32.9545
98.1569 951 30.8383
98.2743 944 30.7246
98.3916 934 30.5614
98.509 905 30.0832
98.6264 1033 32.1403
98.7438 1173 34.2491
98.8612 1148 33.8821
98.9786 1213 34.8281
99.096 1311 36.2077
99.2134 1315 36.2629
99.3308 1380 37.1484
99.4482 1350 36.7423
99.5656 1313 36.2353
99.6831 1290 35.9166
99.8005 1306 36.1386
99.9179 1226 35.0143
100.035 1207 34.7419
100.153 1139 33.7491
100.27 1107 33.2716
100.388 1115 33.3916
100.505 1093 33.0606
100.622 1214 34.8425
100.74 1241 35.2278
100.857 1273 35.6791
100.975 1318 36.3043
101.092 1351 36.756
101.209 1324 36.3868
101.327 1296 36
101.444 1301 36.0694
101.561 1243 35.2562
101.679 1107 33.2716
101.796 1032 32.1248
101.913 952 30.8545
102.03 983 31.3528
102.148 1094 33.0757
102.265 1156 34
102.382 1240 35.2136
102.499 1368 36.9865
102.616 1304 36.1109
102.733 1365 36.9459
102.851 1398 37.3898
102.968 1373 37.054
103.085 1426 37.7624
103.202 1415 37.6165
103.319 1338 36.5787
103.436 1325 36.4005
103.552 1229 35.0571
103.669 1260 35.4965
103.786 1151 33.9264
103.903 1105 33.2415
104.02 1142 33.7935
104.137 1201 34.6554
104.253 1201 34.6554
104.37 1423 37.7227
104.487 1415 37.6165
104.603 1395 37.3497
104.72 1431 37.8286
104.836 1351 36.756
104.953 1271 35.6511
105.069 1178 34.322
105.186 1008 31.749
105.302 903 30.05
105.418 920 30.3315
105.535 828 28.775
105.651 946 30.7571
105.767 942 30.692
105.883 944 30.7246
105.999 846 29.0861
106.115 0 1
106.231 0 1
106.347 0 1
106.463 0 1
106.579 0 1
106.694 0 1
106.81 0 1
106.926 0 1
107.041 0 1
107.157 0 1
109.576 0 1
109.692 0 1
109.807 0 1
109.923 0 1
110.039 0 1
110.155 0 1
110.27 0 1
110.386 0 1
110.502 0 1
110.618 574 23.9583
110.735 743 27.258
110.851 815 28.5482
110.967 1000 31.6228
111.083 1089 33
111.199 1155 33.9853
111.316 1272 35.6651
111.432 1271 35.6511
111.549 1325 36.4005
111.665 1277 35.7351
111.782 1250 35.3553
111.898 1333 36.5103
112.015 1248 35.327
112.132 1220 34.9285
112.248 1145 33.8378
112.365 1068 32.6803
112.482 1059 32.5423
112.599 1155 33.9853
112.716 1230 35.0714
112.832 1319 36.318
112.949 1332 36.4966
113.066 1268 35.609
113.183 1363 36.9188
113.3 1322 36.3593
113.417 1361 36.8917
113.534 1261 35.5106
113.652 1160 34.0588
113.769 1041 32.2645
113.886 942 30.692
114.003 922 30.3645
114.12 980 31.305
114.238 1115 33.3916
114.355 1194 34.5543
114.472 1193 34.5398
114.589 1369 37
114.707 1334 36.524
114.824 1404 37.47
114.942 1418 37.6563
115.059 1429 37.8021
115.176 1412 37.5766
115.294 1250 35.3553
115.411 1351 36.756
115.529 1291 35.9305
115.646 1360 36.8782
115.764 1220 34.9285
115.881 1235 35.1426
115.999 1083 32.909
116.116 1160 34.0588
116.234 1166 34.1467
116.351 1275 35.7071
116.469 1325 36.4005
116.586 1336 36.5513
116.704 1350 36.7423
116.821 1322 36.3593
116.939 1313 36.2353
117.056 1290 35.9166
117.174 1219 34.9142
117.291 1138 33.7343
117.409 1082 32.8938
117.526 999 31.607
117.644 936 30.5941
117.761 1066 32.6497
117.879 1086 32.9545
117.996 1188 34.4674
118.114 1260 35.4965
118.231 1335 36.5377
118.349 1322 36.3593
118.466 1306 36.1386
118.584 1344 36.6606
118.701 1334 36.524
118.819 1270 35.6371
118.936 1290 35.9166
119.053 1310 36.1939
119.171 1311 36.2077
119.288 1213 34.8281
119.405 1143 33.8083
119.523 1035 32.1714
119.64 1026 32.0312
119.757 999 31.607
119.875 1049 32.3883
119.992 1160 34.0588
120.109 1254 35.4119
120.226 1298 36.0278
120.343 1260 35.4965
120.46 1248 35.327
120.578 1340 36.606
120.695 1230 35.0714
120.812 1128 33.5857
120.929 1112 33.3467
121.046 951 30.8383
121.163 949 30.8058
121.279 864 29.3939
121.396 967 31.0966
121.513 965 31.0644
121.63 1012 31.8119
121.747 994 31.5278
121.863 994 31.5278
121.98 981 31.3209
122.097 1030 32.0936
122.213 967 31.0966
122.33 950 30.8221
122.446 917 30.282
122.563 907 30.1164
122.679 863 29.3769
122.795 820 28.6356
122.912 764 27.6405
123.028 600 24.4949
123.144 557 23.6008
123.26 505 22.4722
123.377 0 1
123.493 0 1
123.609 0 1
123.725 0 1
123.84 0 1
123.956 0 1
124.072 0 1
124.188 0 1
124.303 0 1
124.419 0 1
126.852 0 1
126.968 0 1
127.083 0 1
127.199 0 1
127.315 0 1
127.431 0 1
127.547 0 1
127.663 0 1
127.779 0 1
127.895 0 1
128.011 0 1
128.127 0 1
128.243 0 1
128.359 1103 33.2114
128.476 1209 34.7707
128.592 1182 34.3802
128.708 1116 33.4066
128.825 1149 33.8969
128.941 1161 34.0735
129.058 1241 35.2278
129.174 1274 35.6931
129.291 1283 35.819
129.408 1335 36.5377
129.524 1353 36.7831
129.641 1354 36.7967
129.758 1303 36.0971
129.875 1285 35.8469
129.992 1122 33.4963
130.108 1015 31.8591
130.225 1033 32.1403
130.342 968 31.1127
130.459 1092 33.0454
130.576 1167 34.1614
130.693 1176 34.2929
130.81 1216 34.8712
130.928 1183 34.3948
131.045 1357 36.8375
131.162 1332 36.4966
131.279 1394 37.3363
131.396 1328 36.4417
131.513 1343 36.647
131.631 1296 36
131.748 1325 36.4005
131.865 1315 36.2629
131.983 1231 35.0856
132.1 1208 34.7563
132.217 1166 34.1467
132.335 1173 34.2491
132.452 1189 34.4819
132.57 1258 35.4683
132.687 1332 36.4966
132.804 1345 36.6742
132.922 1331 36.4829
133.039 1321 36.3456
133.157 1350 36.7423
133.274 1392 37.3095
133.392 1279 35.7631
133.509 1206 34.7275
133.627 1078 32.8329
133.744 1095 33.0908
133.862 1029 32.078
133.979 987 31.4166
134.097 1079 32.8481
134.214 1217 34.8855
134.332 1210 34.7851
134.449 1247 35.3129
134.567 1267 35.5949
134.684 1301 36.0694
134.802 1319 36.318
134.919 1347 36.7015
135.037 1310 36.1939
135.154 1420 37.6829
135.272 1286 35.8608
135.389 1295 35.9861
135.507 1257 35.4542
135.624 1248 35.327
135.742 1192 34.5254
135.859 1157 34.0147
135.977 1228 35.0428
136.094 1201 34.6554
136.211 1296 36
136.329 1379 37.1349
136.446 1390 37.2827
136.564 1408 37.5233
136.681 1350 36.7423
136.798 1365 36.9459
136.915 1366 36.9594
137.033 1336 36.5513
137.15 1215 34.8569
137.267 1133 33.6601
137.384 1065 32.6343
137.502 1098 33.1361
137.619 1030 32.0936
137.736 1096 33.1059
137.853 1164 34.1174
137.97 1246 35.2987
138.087 1290 35.9166
138.204 1330 36.4692
138.321 1296 36
138.438 1298 36.0278
138.555 1373 37.054
138.672 1311 36.2077
138.788 1270 35.6371
138.905 1221 34.9428
139.022 1181 34.3657
139.139 1042 32.28
139.255 1018 31.9061
139.372 1047 32.3574
139.488 882 29.6985
139.605 942 30.692
139.721 888 29.7993
139.838 901 30.0167
139.954 897 29.95
140.071 889 29.8161
140.187 780 27.9285
140.303 781 27.9464
140.419 724 26.9072
140.535 673 25.9422
140.652 630 25.0998
140.768 0 1
140.884 0 1
141 0 1
141.115 0 1
141.231 0 1
141.347 0 1
141.463 0 1
141.578 0 1
141.694 0 1
144.104 0 1
144.219 0 1
144.335 0 1
144.45 0 1
144.566 0 1
144.682 0 1
144.798 0 1
144.914 0 1
145.03 0 1
145.146 953 30.8707
145.262 1001 31.6386
145.378 1044 32.311
145.494 1128 33.5857
145.61 1147 33.8674
145.726 1030 32.0936
145.842 1044 32.311
145.959 967 31.0966
146.075 888 29.7993
146.192 877 29.6142
146.308 759 27.55
146.425 867 29.4449
146.541 902 30.0333
146.658 905 30.0832
146.774 943 30.7083
146.891 956 30.9192
147.008 1002 31.6544
147.125 949 30.8058
147.241 1049 32.3883
147.358 1013 31.8277
147.475 1049 32.3883
147.592 994 31.5278
147.709 977 31.257
147.826 990 31.4643
147.943 899 29.9833
148.06 983 31.3528
148.177 926 30.4302
148.294 972 31.1769
148.411 921 30.348
148.528 975 31.225
148.645 988 31.4325
148.762 1024 32
148.88 979 31.289
148.997 1070 32.7109
149.114 1068 32.6803
149.231 1056 32.4962
149.349 1029 32.078
149.466 1022 31.9687
149.583 953 30.8707
149.701 879 29.6479
149.818 928 30.4631
149.935 835 28.8964
150.053 872 29.5296
150.17 852 29.189
150.287 857 29.2746
150.405 905 30.0832
150.522 896 29.9333
150.64 946 30.7571
150.757 1018 31.9061
150.875 1015 31.8591
150.992 966 31.0805
151.11 1032 32.1248
151.227 1015 31.8591
151.344 975 31.225
151.462 868 29.4618
151.579 915 30.249
151.697 930 30.4959
151.814 886 29.7658
151.932 884 29.7321
152.049 873 29.5466
152.167 898 29.9666
152.284 961 31
152.402 987 31.4166
152.519 945 30.7409
152.636 1067 32.665
152.754 1071 32.7261
152.871 1016 31.8748
152.989 937 30.6105
153.106 992 31.496
153.223 878 29.6311
153.341 854 29.2233
153.458 831 28.8271
153.575 794 28.178
153.693 763 27.6225
153.81 830 28.8097
153.927 846 29.0861
154.044 828 28.775
154.162 881 29.6816
154.279 931 30.5123
154.396 975 31.225
154.513 920 30.3315
154.63 935 30.5778
154.747 946 30.7571
154.864 922 30.3645
154.981 948 30.7896
155.098 953 30.8707
155.215 904 30.0666
155.332 850 29.1548
155.449 835 28.8964
155.566 851 29.1719
155.683 814 28.5307
155.8 869 29.4788
155.917 866 29.4279
156.033 884 29.7321
156.15 0 1
156.267 0 1
156.383 0 1
156.5 0 1
156.617 0 1
156.733 0 1
156.85 0 1
156.966 0 1
157.082 0 1
157.199 0 1
157.315 0 1
157.431 0 1
157.547 0 1
157.664 0 1
157.78 0 1
157.896 0 1
158.012 0 1
158.128 0 1
158.244 0 1
158.359 0 1
158.475 0 1
158.591 0 1
158.706 0 1
