
6.15755 0 1
6.2731 0 1
6.3887 0 1
6.50437 0 1
6.62009 0 1
6.73587 0 1
6.8517 0 1
6.96759 0 1
7.08353 0 1
7.19952 0 1
7.31557 0 1
7.43166 0 1
7.54781 0 1
7.664 0 1
7.78024 0 1
7.89653 0 1
8.01286 0 1
8.12924 0 1
8.24567 0 1
8.36213 0 1
8.47864 0 1
8.59519 0 1
8.71178 0 1
8.82841 0 1
8.94508 0 1
9.06179 0 1
9.17853 0 1
9.29531 0 1
9.41212 0 1
9.52897 0 1
9.64584 0 1
9.76276 0 1
9.8797 0 1
9.99667 0 1
10.1137 0 1
10.2307 0 1
10.3478 0 1
10.4648 0 1
10.5819 0 1
10.6991 0 1
10.8162 0 1
10.9334 0 1
11.0506 0 1
11.1678 0 1
11.285 0 1
11.4023 0 1
11.5196 0 1
11.6369 0 1
11.7542 0 1
11.8715 0 1
11.9888 0 1
12.1062 0 1
12.2235 0 1
12.3409 0 1
12.4582 0 1
12.5756 0 1
12.693 0 1
12.8104 0 1
12.9278 0 1
13.0452 0 1
13.1626 0 1
13.28 0 1
13.3974 0 1
13.5149 0 1
13.6323 0 1
13.7497 0 1
13.8671 0 1
13.9845 0 1
14.1019 0 1
14.2193 0 1
14.3367 0 1
14.4541 0 1
14.5714 0 1
14.6888 0 1
14.8062 0 1
14.9235 0 1
15.0408 0 0
15.1581 0 0
15.2755 0 0
15.3927 0 0
15.51 0 0
15.6273 0 0
15.7445 0 0
15.8617 0 0
15.9789 0 0
16.0961 0 0
16.2132 0 0
16.3304 0 0
16.4475 0 0
16.5646 0 0
16.6816 0 0
16.7986 0 0
16.9156 0 0
17.0326 0 0
17.1496 0 0
17.2665 0 0
17.3833 0 0
17.5002 0 0
17.617 0 0
17.7338 0 0
17.8505 0 0
17.9672 0 0
18.0839 0 0
18.2005 0 0
18.3171 0 0
18.4337 0 0
18.5502 0 0
18.6666 0 0
18.7831 0 0
18.8994 0 0
19.0158 0 0
19.1321 0 0
19.2483 0 0
19.3645 0 0
19.4806 0 0
19.5967 0 0
19.7128 0 0
19.8288 0 0
19.9447 0 0
20.0606 0 1
20.1764 0 1
20.2922 0 1
20.4079 0 1
20.5236 0 1
20.6392 0 1
20.7548 0 1
20.8702 0 1
23.3078 0 1
23.4233 0 1
23.539 0 1
23.6547 0 1
23.7704 0 1
23.8862 0 1
24.0021 0 1
24.118 0 1
24.234 0 1
24.35 0 1
24.4661 2838 53.2729
24.5822 2879 53.6563
24.6984 2802 52.9339
24.8146 2676 51.7301
24.9309 2674 51.7107
25.0472 2416 49.1528
25.1636 2489 49.8899
25.28 2594 50.9313
25.3965 2813 53.0377
25.513 2941 54.231
25.6296 3188 56.4624
25.7462 3361 57.9741
25.8628 3549 59.5735
25.9795 3527 59.3886
26.0962 3534 59.4475
26.213 3495 59.1185
26.3298 3501 59.1692
26.4466 3574 59.7829
26.5635 3499 59.1523
26.6804 3444 58.6856
26.7973 3361 57.9741
26.9143 3458 58.8048
27.0313 3574 59.7829
27.1483 3516 59.2959
27.2653 3520 59.3296
27.3824 3545 59.5399
27.4996 3525 59.3717
27.6167 3423 58.5064
27.7339 3445 58.6941
27.8511 3306 57.4978
27.9683 3163 56.2406
28.0855 3033 55.0727
28.2028 3061 55.3263
28.3201 2793 52.8488
28.4374 2687 51.8363
28.5547 2565 50.6458
28.6721 2411 49.1019
28.7894 2437 49.366
28.9068 2614 51.1273
29.0242 2841 53.301
29.1416 3009 54.8544
29.259 3244 56.9561
29.3764 3351 57.8878
29.4939 3394 58.258
29.6113 3355 57.9224
29.7288 3357 57.9396
29.8463 3415 58.438
29.9638 3375 58.0948
30.0812 3355 57.9224
30.1987 3374 58.0861
30.3162 3402 58.3267
30.4337 3367 58.0259
30.5512 3574 59.7829
30.6687 3409 58.3866
30.7862 3491 59.0847
30.9037 3410 58.3952
31.0212 3346 57.8446
31.1387 3385 58.1808
31.2562 3332 57.7235
31.3737 3192 56.4978
31.4912 3082 55.5158
31.6087 3102 55.6956
31.7262 2830 53.1977
31.8436 2805 52.9623
31.9611 2580 50.7937
32.0785 2418 49.1732
32.1959 2246 47.392
32.3134 2336 48.3322
32.4308 2539 50.3885
32.5482 2736 52.3068
32.6655 2835 53.2447
32.7829 3255 57.0526
32.9002 3212 56.6745
33.0176 3322 57.6368
33.1349 3356 57.931
33.2522 3397 58.2838
33.3694 3280 57.2713
33.4867 3370 58.0517
33.6039 3405 58.3524
33.7211 3304 57.4804
33.8383 3404 58.3438
33.9554 3238 56.9034
34.0725 3368 58.0345
34.1896 3311 57.5413
34.3067 3271 57.1927
34.4237 3351 57.8878
34.5407 3376 58.1034
34.6577 3330 57.7062
34.7746 3367 58.0259
34.8915 3347 57.8533
35.0084 3176 56.356
35.1252 3104 55.7136
35.242 3006 54.827
35.3587 3007 54.8361
35.4755 2809 53
35.5921 2600 50.9902
35.7088 2357 48.5489
35.8254 2218 47.0956
35.9419 2236 47.2864
36.0584 2267 47.613
36.1749 2441 49.4065
36.2913 2659 51.5655
36.4077 2773 52.6593
36.524 2851 53.3948
36.6403 3176 56.356
36.7565 3167 56.2761
36.8727 3143 56.0625
36.9889 3188 56.4624
37.1049 3146 56.0892
37.221 0 1
37.3369 0 1
37.4529 0 1
37.5687 0 1
37.6845 0 1
37.8003 0 1
37.916 0 1
38.0316 0 1
38.1472 0 1
40.5851 0 1
40.7008 0 1
40.8164 0 1
40.9322 0 1
41.048 0 1
41.1639 0 1
41.2798 0 1
41.3958 0 1
41.5118 0 1
41.6279 0 1
41.744 2381 48.7955
41.8602 2532 50.319
41.9765 2607 51.0588
42.0928 2614 51.1273
42.2091 2696 51.923
42.3255 2724 52.192
42.4419 2788 52.8015
42.5584 2829 53.1883
42.675 2799 52.9056
42.7915 2768 52.6118
42.9081 2733 52.2781
43.0248 2696 51.923
43.1415 2708 52.0384
43.2582 2627 51.2543
43.375 2710 52.0577
43.4918 2742 52.3641
43.6087 2563 50.6261
43.7256 2593 50.9215
43.8425 2531 50.309
43.9595 2444 49.4368
44.0765 2339 48.3632
44.1935 2192 46.8188
44.3106 2066 45.4533
44.4277 1948 44.1362
44.5448 1838 42.8719
44.6619 1565 39.5601
44.7791 1587 39.8372
44.8963 1561 39.5095
45.0136 1676 40.939
45.1308 1782 42.2137
45.2481 1971 44.3959
45.3654 2069 45.4863
45.4827 2111 45.9456
45.6001 2120 46.0435
45.7174 2142 46.2817
45.8348 2076 45.5631
45.9522 2121 46.0543
46.0697 2057 45.3542
46.1871 1933 43.9659
46.3046 1922 43.8406
46.422 1932 43.9545
46.5395 1890 43.4741
46.657 1883 43.3935
46.7745 1968 44.3621
46.892 1995 44.6654
47.0096 1839 42.8836
47.1271 1864 43.1741
47.2446 1867 43.2088
47.3622 1829 42.7668
47.4797 1770 42.0714
47.5973 1730 41.5933
47.7149 1618 40.2244
47.8324 1487 38.5616
47.95 1412 37.5766
48.0675 1379 37.1349
48.1851 1229 35.0571
48.3027 1126 33.5559
48.4202 1187 34.4529
48.5378 1213 34.8281
48.6554 1338 36.5787
48.7729 1364 36.9324
48.8904 1472 38.3667
49.008 1520 38.9872
49.1255 1611 40.1373
49.243 1571 39.6358
49.3605 1626 40.3237
49.478 1512 38.8844
49.5955 1602 40.025
49.713 1669 40.8534
49.8304 1598 39.975
49.9479 1623 40.2865
50.0653 1738 41.6893
50.1827 1706 41.3038
50.3001 1600 40
50.4175 1812 42.5676
50.5348 1869 43.2319
50.6521 1890 43.4741
50.7694 1893 43.5086
50.8867 1904 43.6348
51.004 1905 43.6463
51.1212 1880 43.359
51.2384 1906 43.6578
51.3556 1887 43.4396
51.4727 1702 41.2553
51.5899 1687 41.0731
51.707 1449 38.0657
51.824 1346 36.6879
51.9411 1475 38.4057
52.0581 1600 40
52.175 1834 42.8252
52.2919 2132 46.1736
52.4088 2294 47.8957
52.5257 2483 49.8297
52.6425 2552 50.5173
52.7593 2492 49.9199
52.876 2518 50.1797
52.9927 2428 49.2747
53.1094 2560 50.5964
53.226 2609 51.0784
53.3426 2629 51.2738
53.4591 2624 51.225
53.5756 2706 52.0192
53.692 2812 53.0283
53.8084 2829 53.1883
53.9248 2780 52.7257
54.0411 2917 54.0093
54.1573 2939 54.2125
54.2735 0 1
54.3896 0 1
54.5057 0 1
54.6217 0 1
54.7377 0 1
54.8537 0 1
54.9695 0 1
55.0853 0 1
55.2011 0 1
55.3168 0 1
55.4324 0 1
57.824 0 1
57.9396 0 1
58.0553 0 1
58.1711 0 1
58.2869 0 1
58.4028 0 1
58.5187 0 1
58.6347 0 1
58.7508 0 1
58.8669 0 1
58.983 3079 55.4887
59.0992 3222 56.7627
59.2155 3295 57.4021
59.3318 3529 59.4054
59.4482 3515 59.2874
59.5646 3386 58.1893
59.681 3579 59.8247
59.7975 3278 57.2538
59.9141 3084 55.5338
60.0306 2953 54.3415
60.1473 2696 51.923
60.2639 2446 49.4571
60.3807 2148 46.3465
60.4974 2011 44.8442
60.6142 1899 43.5775
60.731 2140 46.2601
60.8479 2303 47.9896
60.9648 2587 50.8626
61.0818 2752 52.4595
61.1987 2981 54.5985
61.3158 3043 55.1634
61.4328 3021 54.9636
61.5499 3050 55.2268
61.667 2982 54.6077
61.7841 3057 55.2901
61.9013 2887 53.7308
62.0185 2956 54.3691
62.1357 3047 55.1996
62.253 3022 54.9727
62.3702 2945 54.2679
62.4875 3069 55.3986
62.6049 3019 54.9454
62.7222 3095 55.6327
62.8396 2973 54.5252
62.9569 3173 56.3294
63.0743 3029 55.0364
63.1918 2974 54.5344
63.3092 2900 53.8516
63.4267 2802 52.9339
63.5441 2697 51.9326
63.6616 2437 49.366
63.7791 2246 47.392
63.8966 1875 43.3013
64.0142 1681 41
64.1317 1706 41.3038
64.2492 1809 42.5323
64.3668 2048 45.2548
64.4843 2430 49.295
64.6019 2557 50.5668
64.7195 2653 51.5073
64.837 2784 52.7636
64.9546 2749 52.4309
65.0722 2702 51.9808
65.1898 2685 51.817
65.3074 2859 53.4696
65.4249 2687 51.8363
65.5425 2666 51.6333
65.6601 2617 51.1566
65.7777 2742 52.3641
65.8952 2782 52.7447
66.0128 2782 52.7447
66.1304 2880 53.6656
66.2479 2879 53.6563
66.3655 2905 53.8981
66.483 2970 54.4977
66.6005 2882 53.6843
66.718 2967 54.4702
66.8355 2780 52.7257
66.953 2800 52.915
67.0705 2720 52.1536
67.1879 2496 49.96
67.3054 2266 47.6025
67.4228 2058 45.3652
67.5402 1762 41.9762
67.6576 1545 39.3065
67.7749 1576 39.6989
67.8923 1744 41.7612
68.0096 1889 43.4626
68.1269 2133 46.1844
68.2442 2461 49.6085
68.3614 2618 51.1664
68.4787 2683 51.7977
68.5958 2762 52.5547
68.713 2715 52.1057
68.8302 2741 52.3546
68.9473 2793 52.8488
69.0643 2761 52.5452
69.1814 2729 52.2398
69.2984 2723 52.1824
69.4154 2795 52.8678
69.5323 2863 53.507
69.6492 2877 53.6377
69.7661 3029 55.0364
69.8829 2915 53.9907
69.9997 3102 55.6956
70.1165 3108 55.7494
70.2332 3088 55.5698
70.3499 3173 56.3294
70.4665 3184 56.4269
70.5831 3018 54.9363
70.6996 2977 54.5619
70.8161 2861 53.4883
70.9326 2693 51.8941
71.049 2483 49.8297
71.1653 2025 45
71.2817 1784 42.2374
71.3979 1588 39.8497
71.5141 1499 38.7169
71.6303 1735 41.6533
71.7464 1792 42.332
71.8624 0 1
71.9784 0 1
72.0944 0 1
72.2102 0 1
72.3261 0 1
72.4418 0 1
72.5575 0 1
72.6732 0 1
75.1054 0 1
75.2209 0 1
75.3365 0 1
75.4521 0 1
75.5678 0 1
75.6835 0 1
75.7993 0 1
75.9151 0 1
76.031 0 1
76.147 2602 51.0098
76.263 2616 51.1468
76.3791 2500 50
76.4952 2221 47.1275
76.6113 1838 42.8719
76.7276 1614 40.1746
76.8438 1602 40.025
76.9601 1783 42.2256
77.0765 2094 45.7602
77.1929 2530 50.2991
77.3093 2840 53.2917
77.4258 2912 53.963
77.5423 2861 53.4883
77.6589 2908 53.9259
77.7755 2916 54
77.8921 2957 54.3783
78.0088 2855 53.4322
78.1256 2872 53.591
78.2423 2912 53.963
78.3591 2736 52.3068
78.4759 2927 54.1018
78.5928 2888 53.7401
78.7097 2967 54.4702
78.8266 2920 54.037
78.9436 3162 56.2317
79.0606 3154 56.1605
79.1776 3066 55.3715
79.2946 3128 55.9285
79.4117 3115 55.8122
79.5288 3014 54.8999
79.6459 2877 53.6377
79.7631 2814 53.0471
79.8802 2619 51.1762
79.9974 2514 50.1398
80.1147 2251 47.4447
80.2319 1845 42.9535
80.3491 1485 38.5357
80.4664 1416 37.6298
80.5837 1676 40.939
80.701 1884 43.4051
80.8183 2275 47.697
80.9357 2534 50.3389
81.053 2621 51.1957
81.1704 2652 51.4976
81.2877 2619 51.1762
81.4051 2713 52.0865
81.5225 2581 50.8035
81.6399 2574 50.7346
81.7573 2568 50.6754
81.8747 2483 49.8297
81.9922 2469 49.689
82.1096 2566 50.6557
82.227 2646 51.4393
82.3444 2627 51.2543
82.4619 2845 53.3385
82.5793 2815 53.0566
82.6967 2742 52.3641
82.8142 2654 51.517
82.9316 2720 52.1536
83.049 2597 50.9608
83.1664 2573 50.7247
83.2838 2548 50.4777
83.4012 2426 49.2544
83.5186 2318 48.1456
83.636 2184 46.7333
83.7534 1982 44.5197
83.8708 1593 39.9124
83.9881 1347 36.7015
84.1055 1241 35.2278
84.2228 1371 37.027
84.3401 1538 39.2173
84.4575 1876 43.3128
84.5747 2191 46.8081
84.692 2398 48.9694
84.8093 2436 49.3559
84.9265 2366 48.6415
85.0437 2327 48.239
85.1609 2410 49.0918
85.2781 2434 49.3356
85.3952 2333 48.3011
85.5123 2515 50.1498
85.6294 2485 49.8498
85.7465 2541 50.4083
85.8636 2553 50.5272
85.9806 2629 51.2738
86.0976 2737 52.3163
86.2145 2851 53.3948
86.3315 2968 54.4794
86.4484 2770 52.6308
86.5652 2895 53.8052
86.682 2975 54.5436
86.7988 2891 53.768
86.9156 2805 52.9623
87.0323 2665 51.6236
87.149 2619 51.1762
87.2657 2551 50.5074
87.3823 2222 47.1381
87.4988 1856 43.0813
87.6154 1571 39.6358
87.7318 1530 39.1152
87.8483 1796 42.3792
87.9647 2148 46.3465
88.081 2533 50.3289
88.1973 2832 53.2165
88.3136 2859 53.4696
88.4298 3000 54.7723
88.546 2983 54.6168
88.6621 2944 54.2586
88.7781 2890 53.7587
88.8942 0 1
89.0101 0 1
89.126 0 1
89.2419 0 1
89.3577 0 1
89.4734 0 1
89.5891 0 1
89.7047 0 1
89.8203 0 1
89.9358 0 1
92.3269 0 1
92.4424 0 1
92.558 0 1
92.6736 0 1
92.7893 0 1
92.905 0 1
93.0208 0 1
93.1366 0 1
93.2525 0 1
93.3685 0 1
93.4845 0 1
93.6005 2573 50.7247
93.7167 2863 53.507
93.8328 2845 53.3385
93.949 2952 54.3323
94.0653 2794 52.8583
94.1816 2872 53.591
94.2979 2827 53.1695
94.4143 2762 52.5547
94.5307 2757 52.5071
94.6472 2821 53.1131
94.7637 2801 52.9245
94.8803 2855 53.4322
94.9969 2908 53.9259
95.1135 3063 55.3444
95.2302 3105 55.7225
95.3469 3130 55.9464
95.4637 3241 56.9298
95.5805 3162 56.2317
95.6973 3117 55.8301
95.8142 3203 56.5951
95.9311 3151 56.1338
96.048 3039 55.1271
96.1649 3038 55.1181
96.2819 2888 53.7401
96.3989 2813 53.0377
96.516 2530 50.2991
96.633 2224 47.1593
96.7501 1891 43.4856
96.8673 1668 40.8412
96.9844 1728 41.5692
97.1016 1945 44.1022
97.2188 2266 47.6025
97.336 2708 52.0384
97.4532 2824 53.1413
97.5704 2915 53.9907
97.6877 2821 53.1131
97.805 2967 54.4702
97.9223 2802 52.9339
98.0396 2841 53.301
98.1569 2741 52.3546
98.2743 2838 53.2729
98.3916 2797 52.8867
98.509 2888 53.7401
98.6264 2904 53.8888
98.7438 3044 55.1725
98.8612 3034 55.0818
98.9786 3108 55.7494
99.096 3091 55.5968
99.2134 3095 55.6327
99.3308 3217 56.7186
99.4482 3139 56.0268
99.5656 3149 56.116
99.6831 2968 54.4794
99.8005 2984 54.626
99.9179 2862 53.4977
100.035 2735 52.2972
100.153 2393 48.9183
100.27 2040 45.1664
100.388 1791 42.3202
100.505 1767 42.0357
100.622 1904 43.6348
100.74 2318 48.1456
100.857 2583 50.8232
100.975 2917 54.0093
101.092 2966 54.461
101.209 2942 54.2402
101.327 2976 54.5527
101.444 2890 53.7587
101.561 2856 53.4416
101.679 2894 53.7959
101.796 2952 54.3323
101.913 2991 54.69
102.03 2996 54.7357
102.148 2921 54.0463
102.265 3164 56.2494
102.382 3232 56.8507
102.499 3299 57.4369
102.616 3180 56.3915
102.733 3318 57.6021
102.851 3287 57.3324
102.968 3362 57.9828
103.085 3397 58.2838
103.202 3199 56.5597
103.319 3081 55.5068
103.436 2986 54.6443
103.552 2985 54.6352
103.669 2702 51.9808
103.786 2344 48.4149
103.903 1974 44.4297
104.02 1931 43.9431
104.137 2112 45.9565
104.253 2331 48.2804
104.37 2963 54.4334
104.487 3060 55.3173
104.603 3195 56.5243
104.72 3111 55.7763
104.836 3271 57.1927
104.953 3139 56.0268
105.069 3165 56.2583
105.186 3132 55.9643
105.302 3213 56.6833
105.418 3167 56.2761
105.535 3240 56.921
105.651 3364 58
105.767 3382 58.155
105.883 3640 60.3324
105.999 3555 59.6238
106.115 0 1
106.231 0 1
106.347 0 1
106.463 0 1
106.579 0 1
106.694 0 1
106.81 0 1
106.926 0 1
107.041 0 1
107.157 0 1
109.576 0 1
109.692 0 1
109.807 0 1
109.923 0 1
110.039 0 1
110.155 0 1
110.27 0 1
110.386 0 1
110.502 0 1
110.618 3129 55.9375
110.735 3248 56.9912
110.851 3289 57.3498
110.967 3415 58.438
111.083 3454 58.7707
111.199 3527 59.3886
111.316 3477 58.9661
111.432 3593 59.9416
111.549 3472 58.9237
111.665 3723 61.0164
111.782 3435 58.6089
111.898 3270 57.1839
112.015 3209 56.648
112.132 2933 54.1572
112.248 2765 52.5833
112.365 2334 48.3115
112.482 2027 45.0222
112.599 2206 46.9681
112.716 2305 48.0104
112.832 2578 50.774
112.949 3012 54.8817
113.066 3190 56.4801
113.183 3168 56.285
113.3 3125 55.9017
113.417 3076 55.4617
113.534 3140 56.0357
113.652 3205 56.6127
113.769 3192 56.4978
113.886 3207 56.6304
114.003 3172 56.3205
114.12 3241 56.9298
114.238 3275 57.2276
114.355 3461 58.8303
114.472 3428 58.5491
114.589 3512 59.2621
114.707 3439 58.643
114.824 3617 60.1415
114.942 3579 59.8247
115.059 3674 60.6135
115.176 3718 60.9754
115.294 3528 59.397
115.411 3462 58.8388
115.529 3398 58.2924
115.646 3241 56.9298
115.764 2989 54.6717
115.881 2742 52.3641
115.999 2408 49.0714
116.116 2171 46.594
116.234 2320 48.1664
116.351 2594 50.9313
116.469 2965 54.4518
116.586 3225 56.7891
116.704 3213 56.6833
116.821 3328 57.6888
116.939 3423 58.5064
117.056 3464 58.8558
117.174 3289 57.3498
117.291 3297 57.4195
117.409 3306 57.4978
117.526 3361 57.9741
117.644 3250 57.0088
117.761 3318 57.6021
117.879 3425 58.5235
117.996 3470 58.9067
118.114 3590 59.9166
118.231 3685 60.7042
118.349 3546 59.5483
118.466 3517 59.3043
118.584 3656 60.4649
118.701 3646 60.3821
118.819 3617 60.1415
118.936 3455 58.7792
119.053 3447 58.7112
119.171 3417 58.4551
119.288 3258 57.0789
119.405 2969 54.4885
119.523 2565 50.6458
119.64 2443 49.4267
119.757 2287 47.8226
119.875 2441 49.4065
119.992 2687 51.8363
120.109 2944 54.2586
120.226 3232 56.8507
120.343 3210 56.6569
120.46 3310 57.5326
120.578 3260 57.0964
120.695 3256 57.0614
120.812 3398 58.2924
120.929 3267 57.1577
121.046 3260 57.0964
121.163 3197 56.542
121.279 3219 56.7362
121.396 3355 57.9224
121.513 3346 57.8446
121.63 3432 58.5833
121.747 3494 59.1101
121.863 3580 59.8331
121.98 3630 60.2495
122.097 3514 59.279
122.213 3570 59.7495
122.33 3594 59.95
122.446 3598 59.9833
122.563 3505 59.203
122.679 3458 58.8048
122.795 3344 57.8273
122.912 3171 56.3116
123.028 2983 54.6168
123.144 2901 53.8609
123.26 2525 50.2494
123.377 0 1
123.493 0 1
123.609 0 1
123.725 0 1
123.84 0 1
123.956 0 1
124.072 0 1
124.188 0 1
124.303 0 1
124.419 0 1
126.852 0 1
126.968 0 1
127.083 0 1
127.199 0 1
127.315 0 1
127.431 0 1
127.547 0 1
127.663 0 1
127.779 0 1
127.895 0 1
128.011 0 1
128.127 0 1
128.243 0 1
128.359 3125 55.9017
128.476 2908 53.9259
128.592 2784 52.7636
128.708 2568 50.6754
128.825 2784 52.7636
128.941 2964 54.4426
129.058 3306 57.4978
129.174 3375 58.0948
129.291 3497 59.1354
129.408 3446 58.7026
129.524 3560 59.6657
129.641 3547 59.5567
129.758 3508 59.2284
129.875 3665 60.5392
129.992 3599 59.9917
130.108 3451 58.7452
130.225 3480 58.9915
130.342 3410 58.3952
130.459 3548 59.5651
130.576 3717 60.9672
130.693 3719 60.9836
130.81 3785 61.5224
130.928 3712 60.9262
131.045 3747 61.2127
131.162 3798 61.6279
131.279 3939 62.7615
131.396 3872 62.2254
131.513 3797 61.6198
131.631 3668 60.564
131.748 3479 58.983
131.865 3385 58.1808
131.983 3128 55.9285
132.1 2852 53.4041
132.217 2847 53.3573
132.335 2698 51.9423
132.452 3110 55.7674
132.57 3263 57.1227
132.687 3425 58.5235
132.804 3678 60.6465
132.922 3655 60.4566
133.039 3621 60.1747
133.157 3710 60.9098
133.274 3593 59.9416
133.392 3523 59.3549
133.509 3636 60.2993
133.627 3537 59.4727
133.744 3586 59.8832
133.862 3492 59.0931
133.979 3614 60.1166
134.097 3625 60.208
134.214 3598 59.9833
134.332 3970 63.0079
134.449 3690 60.7454
134.567 3811 61.7333
134.684 3762 61.3351
134.802 3845 62.0081
134.919 3949 62.8411
135.037 3970 63.0079
135.154 3758 61.3025
135.272 3686 60.7124
135.389 3461 58.8303
135.507 3326 57.6715
135.624 3057 55.2901
135.742 2962 54.4243
135.859 2846 53.3479
135.977 3043 55.1634
136.094 3252 57.0263
136.211 3556 59.6322
136.329 3616 60.1332
136.446 3662 60.5145
136.564 3589 59.9083
136.681 3711 60.918
136.798 3601 60.0083
136.915 3559 59.6574
137.033 3592 59.9333
137.15 3563 59.6909
137.267 3575 59.7913
137.384 3556 59.6322
137.502 3442 58.6686
137.619 3533 59.439
137.736 3467 58.8812
137.853 3568 59.7327
137.97 3663 60.5227
138.087 3560 59.6657
138.204 3789 61.5549
138.321 3833 61.9112
138.438 3874 62.2415
138.555 3858 62.1128
138.672 3766 61.3677
138.788 3731 61.0819
138.905 3659 60.4897
139.022 3566 59.716
139.139 3330 57.7062
139.255 3160 56.2139
139.372 3103 55.7046
139.488 3047 55.1996
139.605 3217 56.7186
139.721 3371 58.0603
139.838 3574 59.7829
139.954 3691 60.7536
140.071 3672 60.597
140.187 3819 61.7981
140.303 3784 61.5142
140.419 3829 61.8789
140.535 3643 60.3573
140.652 3598 59.9833
140.768 0 1
140.884 0 1
141 0 1
141.115 0 1
141.231 0 1
141.347 0 1
141.463 0 1
141.578 0 1
141.694 0 1
144.104 0 1
144.219 0 1
144.335 0 1
144.45 0 1
144.566 0 1
144.682 0 1
144.798 0 1
144.914 0 1
145.03 0 1
145.146 2831 53.2071
145.262 3122 55.8749
145.378 3110 55.7674
145.494 3133 55.9732
145.61 2964 54.4426
145.726 3065 55.3624
145.842 2992 54.6992
145.959 2995 54.7266
146.075 2965 54.4518
146.192 2919 54.0278
146.308 2896 53.8145
146.425 2905 53.8981
146.541 3030 55.0454
146.658 3115 55.8122
146.774 3040 55.1362
146.891 3185 56.4358
147.008 3143 56.0625
147.125 3230 56.8331
147.241 3330 57.7062
147.358 3291 57.3672
147.475 3353 57.9051
147.592 3257 57.0701
147.709 3194 56.5155
147.826 3193 56.5066
147.943 3089 55.5788
148.06 2870 53.5724
148.177 2743 52.3737
148.294 2785 52.7731
148.411 2834 53.2353
148.528 2920 54.037
148.645 3034 55.0818
148.762 3134 55.9821
148.88 3276 57.2364
148.997 3196 56.5332
149.114 3337 57.7668
149.231 3383 58.1636
149.349 3298 57.4282
149.466 3295 57.4021
149.583 3109 55.7584
149.701 3220 56.745
149.818 3116 55.8211
149.935 3054 55.263
150.053 3070 55.4076
150.17 3056 55.2811
150.287 3071 55.4166
150.405 3205 56.6127
150.522 3321 57.6281
150.64 3309 57.5239
150.757 3365 58.0086
150.875 3493 59.1016
150.992 3436 58.6174
151.11 3476 58.9576
151.227 3368 58.0345
151.344 3344 57.8273
151.462 3322 57.6368
151.579 3263 57.1227
151.697 3225 56.7891
151.814 2985 54.6352
151.932 2879 53.6563
152.049 2932 54.1479
152.167 3102 55.6956
152.284 3196 56.5332
152.402 3304 57.4804
152.519 3417 58.4551
152.636 3443 58.6771
152.754 3406 58.3609
152.871 3459 58.8133
152.989 3409 58.3866
153.106 3323 57.6455
153.223 3287 57.3324
153.341 3226 56.7979
153.458 3272 57.2014
153.575 3117 55.8301
153.693 3238 56.9034
153.81 3161 56.2228
153.927 3174 56.3383
154.044 3293 57.3847
154.162 3497 59.1354
154.279 3410 58.3952
154.396 3584 59.8665
154.513 3520 59.3296
154.63 3697 60.803
154.747 3653 60.4401
154.864 3620 60.1664
154.981 3471 58.9152
155.098 3487 59.0508
155.215 3445 58.6941
155.332 3300 57.4456
155.449 3265 57.1402
155.566 3225 56.7891
155.683 3224 56.7803
155.8 3306 57.4978
155.917 3480 58.9915
156.033 3651 60.4235
156.15 0 1
156.267 0 1
156.383 0 1
156.5 0 1
156.617 0 1
156.733 0 1
156.85 0 1
156.966 0 1
157.082 0 1
157.199 0 1
157.315 0 1
157.431 0 1
157.547 0 1
157.664 0 1
157.78 0 1
157.896 0 1
158.012 0 1
158.128 0 1
158.244 0 1
158.359 0 1
158.475 0 1
158.591 0 1
158.706 0 1
