
6.15755 0 1
6.2731 0 1
6.3887 0 1
6.50437 0 1
6.62009 0 1
6.73587 0 1
6.8517 0 1
6.96759 0 1
7.08353 0 1
7.19952 0 1
7.31557 0 1
7.43166 0 1
7.54781 0 1
7.664 0 1
7.78024 0 1
7.89653 0 1
8.01286 0 1
8.12924 0 1
8.24567 0 1
8.36213 0 1
8.47864 0 1
8.59519 0 1
8.71178 0 1
8.82841 0 1
8.94508 0 1
9.06179 0 1
9.17853 0 1
9.29531 0 1
9.41212 0 1
9.52897 0 1
9.64584 0 1
9.76276 0 1
9.8797 0 1
9.99667 0 1
10.1137 0 1
10.2307 0 1
10.3478 0 1
10.4648 0 1
10.5819 0 1
10.6991 0 1
10.8162 0 1
10.9334 0 1
11.0506 0 1
11.1678 0 1
11.285 0 1
11.4023 0 1
11.5196 0 1
11.6369 0 1
11.7542 0 1
11.8715 0 1
11.9888 0 1
12.1062 0 1
12.2235 0 1
12.3409 0 1
12.4582 0 1
12.5756 0 1
12.693 0 1
12.8104 0 1
12.9278 0 1
13.0452 0 1
13.1626 0 1
13.28 0 1
13.3974 0 1
13.5149 0 1
13.6323 0 1
13.7497 0 1
13.8671 0 1
13.9845 0 1
14.1019 0 1
14.2193 0 1
14.3367 0 1
14.4541 0 1
14.5714 0 1
14.6888 0 1
14.8062 0 1
14.9235 0 1
15.0408 1169 34.1906
15.1581 1196 34.5832
15.2755 1292 35.9444
15.3927 1253 35.3977
15.51 1226 35.0143
15.6273 1155 33.9853
15.7445 1190 34.4964
15.8617 1212 34.8138
15.9789 1170 34.2053
16.0961 1155 33.9853
16.2132 1150 33.9116
16.3304 1139 33.7491
16.4475 1179 34.3366
16.5646 1251 35.3695
16.6816 1187 34.4529
16.7986 1166 34.1467
16.9156 1296 36
17.0326 1192 34.5254
17.1496 1240 35.2136
17.2665 1246 35.2987
17.3833 1288 35.8887
17.5002 1263 35.5387
17.617 1259 35.4824
17.7338 1286 35.8608
17.8505 1375 37.081
17.9672 1379 37.1349
18.0839 1471 38.3536
18.2005 1512 38.8844
18.3171 1554 39.4208
18.4337 1559 39.4842
18.5502 1569 39.6106
18.6666 1598 39.975
18.7831 1549 39.3573
18.8994 1511 38.8716
19.0158 1483 38.5097
19.1321 1364 36.9324
19.2483 1383 37.1887
19.3645 1214 34.8425
19.4806 1271 35.6511
19.5967 1239 35.1994
19.7128 1173 34.2491
19.8288 1198 34.6121
19.9447 1023 31.9844
20.0606 0 1
20.1764 0 1
20.2922 0 1
20.4079 0 1
20.5236 0 1
20.6392 0 1
20.7548 0 1
20.8702 0 1
23.3078 0 1
23.4233 0 1
23.539 0 1
23.6547 0 1
23.7704 0 1
23.8862 0 1
24.0021 0 1
24.118 0 1
24.234 0 1
24.35 0 1
24.4661 1194 34.5543
24.5822 1184 34.4093
24.6984 1167 34.1614
24.8146 1188 34.4674
24.9309 1223 34.9714
25.0472 1251 35.3695
25.1636 1214 34.8425
25.28 1228 35.0428
25.3965 1187 34.4529
25.513 1230 35.0714
25.6296 1354 36.7967
25.7462 1362 36.9053
25.8628 1362 36.9053
25.9795 1390 37.2827
26.0962 1358 36.8511
26.213 1392 37.3095
26.3298 1466 38.2884
26.4466 1393 37.3229
26.5635 1496 38.6782
26.6804 1475 38.4057
26.7973 1526 39.064
26.9143 1448 38.0526
27.0313 1501 38.7427
27.1483 1448 38.0526
27.2653 1485 38.5357
27.3824 1443 37.9868
27.4996 1427 37.7757
27.6167 1382 37.1753
27.7339 1312 36.2215
27.8511 1311 36.2077
27.9683 1167 34.1614
28.0855 1217 34.8855
28.2028 1183 34.3948
28.3201 1098 33.1361
28.4374 1147 33.8674
28.5547 1185 34.4238
28.6721 1215 34.8569
28.7894 1143 33.8083
28.9068 1245 35.2846
29.0242 1239 35.1994
29.1416 1196 34.5832
29.259 1262 35.5246
29.3764 1221 34.9428
29.4939 1205 34.7131
29.6113 1258 35.4683
29.7288 1295 35.9861
29.8463 1272 35.6651
29.9638 1338 36.5787
30.0812 1282 35.805
30.1987 1403 37.4566
30.3162 1402 37.4433
30.4337 1412 37.5766
30.5512 1372 37.0405
30.6687 1388 37.2559
30.7862 1377 37.108
30.9037 1386 37.229
31.0212 1339 36.5923
31.1387 1293 35.9583
31.2562 1279 35.7631
31.3737 1197 34.5977
31.4912 1171 34.2199
31.6087 1122 33.4963
31.7262 1080 32.8634
31.8436 1129 33.6006
31.9611 1102 33.1964
32.0785 1124 33.5261
32.1959 1135 33.6898
32.3134 1167 34.1614
32.4308 1171 34.2199
32.5482 1151 33.9264
32.6655 1180 34.3511
32.7829 1222 34.9571
32.9002 1160 34.0588
33.0176 1271 35.6511
33.1349 1115 33.3916
33.2522 1249 35.3412
33.3694 1177 34.3074
33.4867 1213 34.8281
33.6039 1256 35.4401
33.7211 1279 35.7631
33.8383 1320 36.3318
33.9554 1321 36.3456
34.0725 1280 35.7771
34.1896 1309 36.1801
34.3067 1306 36.1386
34.4237 1344 36.6606
34.5407 1301 36.0694
34.6577 1271 35.6511
34.7746 1230 35.0714
34.8915 1238 35.1852
35.0084 1174 34.2637
35.1252 1086 32.9545
35.242 1069 32.6956
35.3587 1003 31.6702
35.4755 1021 31.9531
35.5921 1019 31.9218
35.7088 1092 33.0454
35.8254 1117 33.4215
35.9419 1185 34.4238
36.0584 1125 33.541
36.1749 1155 33.9853
36.2913 1208 34.7563
36.4077 1145 33.8378
36.524 1095 33.0908
36.6403 1133 33.6601
36.7565 1100 33.1662
36.8727 1129 33.6006
36.9889 1148 33.8821
37.1049 1080 32.8634
37.221 0 1
37.3369 0 1
37.4529 0 1
37.5687 0 1
37.6845 0 1
37.8003 0 1
37.916 0 1
38.0316 0 1
38.1472 0 1
40.5851 0 1
40.7008 0 1
40.8164 0 1
40.9322 0 1
41.048 0 1
41.1639 0 1
41.2798 0 1
41.3958 0 1
41.5118 0 1
41.6279 0 1
41.744 861 29.3428
41.8602 943 30.7083
41.9765 955 30.9031
42.0928 1001 31.6386
42.2091 990 31.4643
42.3255 1012 31.8119
42.4419 980 31.305
42.5584 969 31.1288
42.675 1138 33.7343
42.7915 1082 32.8938
42.9081 1040 32.249
43.0248 1021 31.9531
43.1415 1120 33.4664
43.2582 1073 32.7567
43.375 1052 32.4345
43.4918 1099 33.1512
43.6087 1135 33.6898
43.7256 1055 32.4808
43.8425 1053 32.45
43.9595 996 31.5595
44.0765 1000 31.6228
44.1935 1026 32.0312
44.3106 1010 31.7805
44.4277 1011 31.7962
44.5448 937 30.6105
44.6619 973 31.1929
44.7791 898 29.9666
44.8963 930 30.4959
45.0136 960 30.9839
45.1308 932 30.5287
45.2481 876 29.5973
45.3654 838 28.9482
45.4827 889 29.8161
45.6001 792 28.1425
45.7174 826 28.7402
45.8348 792 28.1425
45.9522 804 28.3549
46.0697 845 29.0689
46.1871 767 27.6948
46.3046 728 26.9815
46.422 757 27.5136
46.5395 748 27.3496
46.657 675 25.9808
46.7745 736 27.1293
46.892 723 26.8887
47.0096 728 26.9815
47.1271 712 26.6833
47.2446 711 26.6646
47.3622 707 26.5895
47.4797 675 25.9808
47.5973 640 25.2982
47.7149 612 24.7386
47.8324 652 25.5343
47.95 607 24.6374
48.0675 613 24.7588
48.1851 594 24.3721
48.3027 588 24.2487
48.4202 568 23.8328
48.5378 580 24.0832
48.6554 569 23.8537
48.7729 618 24.8596
48.8904 600 24.4949
49.008 554 23.5372
49.1255 575 23.9792
49.243 579 24.0624
49.3605 571 23.8956
49.478 556 23.5797
49.5955 560 23.6643
49.713 565 23.7697
49.8304 608 24.6577
49.9479 615 24.7992
50.0653 615 24.7992
50.1827 608 24.6577
50.3001 643 25.3574
50.4175 595 24.3926
50.5348 653 25.5539
50.6521 710 26.6458
50.7694 676 26
50.8867 693 26.3249
51.004 708 26.6083
51.1212 692 26.3059
51.2384 742 27.2397
51.3556 699 26.4386
51.4727 754 27.4591
51.5899 735 27.1109
51.707 793 28.1603
51.824 709 26.6271
51.9411 804 28.3549
52.0581 793 28.1603
52.175 748 27.3496
52.2919 755 27.4773
52.4088 797 28.2312
52.5257 726 26.9444
52.6425 764 27.6405
52.7593 734 27.0924
52.876 727 26.9629
52.9927 770 27.7489
53.1094 778 27.8927
53.226 805 28.3725
53.3426 807 28.4077
53.4591 862 29.3598
53.5756 841 29
53.692 909 30.1496
53.8084 897 29.95
53.9248 984 31.3688
54.0411 907 30.1164
54.1573 905 30.0832
54.2735 0 1
54.3896 0 1
54.5057 0 1
54.6217 0 1
54.7377 0 1
54.8537 0 1
54.9695 0 1
55.0853 0 1
55.2011 0 1
55.3168 0 1
55.4324 0 1
57.824 0 1
57.9396 0 1
58.0553 0 1
58.1711 0 1
58.2869 0 1
58.4028 0 1
58.5187 0 1
58.6347 0 1
58.7508 0 1
58.8669 0 1
58.983 1015 31.8591
59.0992 1087 32.9697
59.2155 1154 33.9706
59.3318 1142 33.7935
59.4482 1218 34.8999
59.5646 1240 35.2136
59.681 1248 35.327
59.7975 1210 34.7851
59.9141 1274 35.6931
60.0306 1265 35.5668
60.1473 1191 34.5109
60.2639 1132 33.6452
60.3807 1058 32.5269
60.4974 1088 32.9848
60.6142 1092 33.0454
60.731 950 30.8221
60.8479 966 31.0805
60.9648 976 31.241
61.0818 894 29.8998
61.1987 884 29.7321
61.3158 1010 31.7805
61.4328 926 30.4302
61.5499 971 31.1609
61.667 959 30.9677
61.7841 1017 31.8904
61.9013 922 30.3645
62.0185 988 31.4325
62.1357 1052 32.4345
62.253 1007 31.7333
62.3702 1120 33.4664
62.4875 1078 32.8329
62.6049 1043 32.2955
62.7222 1099 33.1512
62.8396 1153 33.9559
62.9569 1099 33.1512
63.0743 1175 34.2783
63.1918 1195 34.5688
63.3092 1145 33.8378
63.4267 1187 34.4529
63.5441 1122 33.4963
63.6616 1141 33.7787
63.7791 1081 32.8786
63.8966 1041 32.2645
64.0142 965 31.0644
64.1317 902 30.0333
64.2492 925 30.4138
64.3668 837 28.931
64.4843 826 28.7402
64.6019 799 28.2666
64.7195 828 28.775
64.837 845 29.0689
64.9546 855 29.2404
65.0722 842 29.0172
65.1898 882 29.6985
65.3074 911 30.1828
65.4249 865 29.4109
65.5425 905 30.0832
65.6601 923 30.3809
65.7777 980 31.305
65.8952 1022 31.9687
66.0128 922 30.3645
66.1304 968 31.1127
66.2479 1070 32.7109
66.3655 1051 32.4191
66.483 1127 33.5708
66.6005 1093 33.0606
66.718 1142 33.7935
66.8355 1180 34.3511
66.953 1159 34.0441
67.0705 1061 32.573
67.1879 1116 33.4066
67.3054 1038 32.218
67.4228 1009 31.7648
67.5402 960 30.9839
67.6576 847 29.1033
67.7749 842 29.0172
67.8923 782 27.9643
68.0096 794 28.178
68.1269 777 27.8747
68.2442 824 28.7054
68.3614 782 27.9643
68.4787 871 29.5127
68.5958 916 30.2655
68.713 846 29.0861
68.8302 945 30.7409
68.9473 889 29.8161
69.0643 896 29.9333
69.1814 949 30.8058
69.2984 904 30.0666
69.4154 975 31.225
69.5323 1052 32.4345
69.6492 991 31.4802
69.7661 1071 32.7261
69.8829 1039 32.2335
69.9997 1167 34.1614
70.1165 1244 35.2704
70.2332 1261 35.5106
70.3499 1211 34.7994
70.4665 1252 35.3836
70.5831 1219 34.9142
70.6996 1173 34.2491
70.8161 1210 34.7851
70.9326 1071 32.7261
71.049 1031 32.1092
71.1653 947 30.7734
71.2817 845 29.0689
71.3979 819 28.6182
71.5141 848 29.1204
71.6303 776 27.8568
71.7464 769 27.7308
71.8624 0 1
71.9784 0 1
72.0944 0 1
72.2102 0 1
72.3261 0 1
72.4418 0 1
72.5575 0 1
72.6732 0 1
75.1054 0 1
75.2209 0 1
75.3365 0 1
75.4521 0 1
75.5678 0 1
75.6835 0 1
75.7993 0 1
75.9151 0 1
76.031 0 1
76.147 1024 32
76.263 999 31.607
76.3791 993 31.5119
76.4952 946 30.7571
76.6113 877 29.6142
76.7276 863 29.3769
76.8438 836 28.9137
76.9601 859 29.3087
77.0765 855 29.2404
77.1929 810 28.4605
77.3093 857 29.2746
77.4258 825 28.7228
77.5423 906 30.0998
77.6589 974 31.209
77.7755 957 30.9354
77.8921 923 30.3809
78.0088 932 30.5287
78.1256 934 30.5614
78.2423 904 30.0666
78.3591 1028 32.0624
78.4759 955 30.9031
78.5928 979 31.289
78.7097 1093 33.0606
78.8266 1102 33.1964
78.9436 1185 34.4238
79.0606 1243 35.2562
79.1776 1151 33.9264
79.2946 1176 34.2929
79.4117 1198 34.6121
79.5288 1124 33.5261
79.6459 1106 33.2566
79.7631 1067 32.665
79.8802 1071 32.7261
79.9974 945 30.7409
80.1147 925 30.4138
80.2319 862 29.3598
80.3491 896 29.9333
80.4664 910 30.1662
80.5837 890 29.8329
80.701 812 28.4956
80.8183 841 29
80.9357 827 28.7576
81.053 834 28.8791
81.1704 894 29.8998
81.2877 918 30.2985
81.4051 901 30.0167
81.5225 965 31.0644
81.6399 865 29.4109
81.7573 948 30.7896
81.8747 923 30.3809
81.9922 967 31.0966
82.1096 995 31.5436
82.227 1000 31.6228
82.3444 1107 33.2716
82.4619 1147 33.8674
82.5793 1202 34.6699
82.6967 1190 34.4964
82.8142 1157 34.0147
82.9316 1174 34.2637
83.049 1245 35.2846
83.1664 1177 34.3074
83.2838 1153 33.9559
83.4012 1067 32.665
83.5186 1009 31.7648
83.636 947 30.7734
83.7534 891 29.8496
83.8708 859 29.3087
83.9881 825 28.7228
84.1055 901 30.0167
84.2228 844 29.0517
84.3401 870 29.4958
84.4575 835 28.8964
84.5747 901 30.0167
84.692 941 30.6757
84.8093 953 30.8707
84.9265 972 31.1769
85.0437 880 29.6648
85.1609 910 30.1662
85.2781 984 31.3688
85.3952 984 31.3688
85.5123 970 31.1448
85.6294 979 31.289
85.7465 1086 32.9545
85.8636 1119 33.4515
85.9806 1172 34.2345
86.0976 1196 34.5832
86.2145 1292 35.9444
86.3315 1290 35.9166
86.4484 1240 35.2136
86.5652 1306 36.1386
86.682 1298 36.0278
86.7988 1247 35.3129
86.9156 1231 35.0856
87.0323 1143 33.8083
87.149 1096 33.1059
87.2657 1024 32
87.3823 941 30.6757
87.4988 1017 31.8904
87.6154 936 30.5941
87.7318 928 30.4631
87.8483 958 30.9516
87.9647 1011 31.7962
88.081 971 31.1609
88.1973 983 31.3528
88.3136 1029 32.078
88.4298 1028 32.0624
88.546 1031 32.1092
88.6621 1005 31.7017
88.7781 1002 31.6544
88.8942 0 1
89.0101 0 1
89.126 0 1
89.2419 0 1
89.3577 0 1
89.4734 0 1
89.5891 0 1
89.7047 0 1
89.8203 0 1
89.9358 0 1
92.3269 0 1
92.4424 0 1
92.558 0 1
92.6736 0 1
92.7893 0 1
92.905 0 1
93.0208 0 1
93.1366 0 1
93.2525 0 1
93.3685 0 1
93.4845 0 1
93.6005 945 30.7409
93.7167 987 31.4166
93.8328 1003 31.6702
93.949 980 31.305
94.0653 931 30.5123
94.1816 952 30.8545
94.2979 984 31.3688
94.4143 980 31.305
94.5307 1037 32.2025
94.6472 1129 33.6006
94.7637 1086 32.9545
94.8803 1117 33.4215
94.9969 1232 35.0999
95.1135 1296 36
95.2302 1203 34.6843
95.3469 1249 35.3412
95.4637 1209 34.7707
95.5805 1267 35.5949
95.6973 1158 34.0294
95.8142 1178 34.322
95.9311 1126 33.5559
96.048 1077 32.8177
96.1649 1042 32.28
96.2819 1023 31.9844
96.3989 986 31.4006
96.516 983 31.3528
96.633 995 31.5436
96.7501 963 31.0322
96.8673 968 31.1127
96.9844 956 30.9192
97.1016 966 31.0805
97.2188 914 30.2324
97.336 974 31.209
97.4532 965 31.0644
97.5704 918 30.2985
97.6877 944 30.7246
97.805 920 30.3315
97.9223 894 29.8998
98.0396 970 31.1448
98.1569 982 31.3369
98.2743 993 31.5119
98.3916 999 31.607
98.509 1115 33.3916
98.6264 1092 33.0454
98.7438 1182 34.3802
98.8612 1207 34.7419
98.9786 1184 34.4093
99.096 1191 34.5109
99.2134 1222 34.9571
99.3308 1219 34.9142
99.4482 1176 34.2929
99.5656 1111 33.3317
99.6831 1051 32.4191
99.8005 1029 32.078
99.9179 978 31.273
100.035 1031 32.1092
100.153 950 30.8221
100.27 947 30.7734
100.388 981 31.3209
100.505 938 30.6268
100.622 898 29.9666
100.74 887 29.7825
100.857 920 30.3315
100.975 931 30.5123
101.092 913 30.2159
101.209 894 29.8998
101.327 899 29.9833
101.444 899 29.9833
101.561 875 29.5804
101.679 934 30.5614
101.796 955 30.9031
101.913 1015 31.8591
102.03 1055 32.4808
102.148 1171 34.2199
102.265 1189 34.4819
102.382 1221 34.9428
102.499 1260 35.4965
102.616 1197 34.5977
102.733 1305 36.1248
102.851 1288 35.8887
102.968 1315 36.2629
103.085 1183 34.3948
103.202 1200 34.641
103.319 1101 33.1813
103.436 1109 33.3017
103.552 992 31.496
103.669 1053 32.45
103.786 1050 32.4037
103.903 988 31.4325
104.02 973 31.1929
104.137 1012 31.8119
104.253 1001 31.6386
104.37 988 31.4325
104.487 1057 32.5115
104.603 959 30.9677
104.72 928 30.4631
104.836 976 31.241
104.953 986 31.4006
105.069 1000 31.6228
105.186 1057 32.5115
105.302 1069 32.6956
105.418 1156 34
105.535 1332 36.4966
105.651 1277 35.7351
105.767 1321 36.3456
105.883 1223 34.9714
105.999 1222 34.9571
106.115 0 1
106.231 0 1
106.347 0 1
106.463 0 1
106.579 0 1
106.694 0 1
106.81 0 1
106.926 0 1
107.041 0 1
107.157 0 1
109.576 0 1
109.692 0 1
109.807 0 1
109.923 0 1
110.039 0 1
110.155 0 1
110.27 0 1
110.386 0 1
110.502 0 1
110.618 1042 32.28
110.735 1182 34.3802
110.851 1200 34.641
110.967 1117 33.4215
111.083 1111 33.3317
111.199 1110 33.3167
111.316 1113 33.3617
111.432 1175 34.2783
111.549 1169 34.1906
111.665 1091 33.0303
111.782 1074 32.7719
111.898 965 31.0644
112.015 1030 32.0936
112.132 1032 32.1248
112.248 940 30.6594
112.365 867 29.4449
112.482 930 30.4959
112.599 893 29.8831
112.716 834 28.8791
112.832 803 28.3373
112.949 793 28.1603
113.066 811 28.4781
113.183 779 27.9106
113.3 762 27.6043
113.417 799 28.2666
113.534 752 27.4226
113.652 777 27.8747
113.769 851 29.1719
113.886 876 29.5973
114.003 896 29.9333
114.12 921 30.348
114.238 923 30.3809
114.355 945 30.7409
114.472 886 29.7658
114.589 798 28.2489
114.707 897 29.95
114.824 879 29.6479
114.942 881 29.6816
115.059 895 29.9166
115.176 900 30
115.294 818 28.6007
115.411 812 28.4956
115.529 824 28.7054
115.646 804 28.3549
115.764 730 27.0185
115.881 703 26.5141
115.999 692 26.3059
116.116 699 26.4386
116.234 646 25.4165
116.351 611 24.7184
116.469 623 24.96
116.586 627 25.04
116.704 573 23.9374
116.821 607 24.6374
116.939 620 24.8998
117.056 644 25.3772
117.174 621 24.9199
117.291 662 25.7294
117.409 682 26.1151
117.526 725 26.9258
117.644 703 26.5141
117.761 761 27.5862
117.879 757 27.5136
117.996 811 28.4781
118.114 754 27.4591
118.231 676 26
118.349 735 27.1109
118.466 768 27.7128
118.584 799 28.2666
118.701 791 28.1247
118.819 791 28.1247
118.936 783 27.9821
119.053 780 27.9285
119.171 791 28.1247
119.288 774 27.8209
119.405 743 27.258
119.523 715 26.7395
119.64 713 26.7021
119.757 705 26.5518
119.875 681 26.096
119.992 662 25.7294
120.109 646 25.4165
120.226 625 25
120.343 627 25.04
120.46 697 26.4008
120.578 702 26.4953
120.695 702 26.4953
120.812 740 27.2029
120.929 749 27.3679
121.046 779 27.9106
121.163 785 28.0179
121.279 836 28.9137
121.396 805 28.3725
121.513 797 28.2312
121.63 830 28.8097
121.747 778 27.8927
121.863 732 27.0555
121.98 773 27.8029
122.097 839 28.9655
122.213 907 30.1164
122.33 902 30.0333
122.446 890 29.8329
122.563 917 30.282
122.679 898 29.9666
122.795 936 30.5941
122.912 916 30.2655
123.028 908 30.133
123.144 911 30.1828
123.26 827 28.7576
123.377 0 1
123.493 0 1
123.609 0 1
123.725 0 1
123.84 0 1
123.956 0 1
124.072 0 1
124.188 0 1
124.303 0 1
124.419 0 1
126.852 0 1
126.968 0 1
127.083 0 1
127.199 0 1
127.315 0 1
127.431 0 1
127.547 0 1
127.663 0 1
127.779 0 1
127.895 0 1
128.011 0 1
128.127 0 1
128.243 0 1
128.359 1065 32.6343
128.476 1019 31.9218
128.592 1023 31.9844
128.708 953 30.8707
128.825 1007 31.7333
128.941 1014 31.8434
129.058 979 31.289
129.174 913 30.2159
129.291 905 30.0832
129.408 914 30.2324
129.524 879 29.6479
129.641 848 29.1204
129.758 915 30.249
129.875 938 30.6268
129.992 929 30.4795
130.108 960 30.9839
130.225 981 31.3209
130.342 953 30.8707
130.459 926 30.4302
130.576 994 31.5278
130.693 874 29.5635
130.81 728 26.9815
130.928 731 27.037
131.045 781 27.9464
131.162 965 31.0644
131.279 973 31.1929
131.396 932 30.5287
131.513 983 31.3528
131.631 968 31.1127
131.748 934 30.5614
131.865 937 30.6105
131.983 925 30.4138
132.1 893 29.8831
132.217 928 30.4631
132.335 940 30.6594
132.452 808 28.4253
132.57 788 28.0713
132.687 764 27.6405
132.804 809 28.4429
132.922 773 27.8029
133.039 754 27.4591
133.157 762 27.6043
133.274 776 27.8568
133.392 796 28.2135
133.509 839 28.9655
133.627 760 27.5681
133.744 785 28.0179
133.862 769 27.7308
133.979 829 28.7924
134.097 745 27.2947
134.214 741 27.2213
134.332 599 24.4745
134.449 504 22.4499
134.567 632 25.1396
134.684 684 26.1534
134.802 732 27.0555
134.919 814 28.5307
135.037 760 27.5681
135.154 723 26.8887
135.272 704 26.533
135.389 662 25.7294
135.507 686 26.1916
135.624 695 26.3629
135.742 706 26.5707
135.859 666 25.807
135.977 625 25
136.094 628 25.0599
136.211 633 25.1595
136.329 629 25.0799
136.446 600 24.4949
136.564 605 24.5967
136.681 587 24.2281
136.798 549 23.4307
136.915 610 24.6982
137.033 598 24.454
137.15 604 24.5764
137.267 603 24.5561
137.384 592 24.3311
137.502 654 25.5734
137.619 609 24.6779
137.736 554 23.5372
137.853 486 22.0454
137.97 405 20.1246
138.087 416 20.3961
138.204 561 23.6854
138.321 628 25.0599
138.438 696 26.3818
138.555 700 26.4575
138.672 669 25.865
138.788 684 26.1534
138.905 692 26.3059
139.022 705 26.5518
139.139 745 27.2947
139.255 701 26.4764
139.372 702 26.4953
139.488 725 26.9258
139.605 676 26
139.721 718 26.7955
139.838 690 26.2679
139.954 768 27.7128
140.071 713 26.7021
140.187 757 27.5136
140.303 686 26.1916
140.419 727 26.9629
140.535 742 27.2397
140.652 717 26.7769
140.768 0 1
140.884 0 1
141 0 1
141.115 0 1
141.231 0 1
141.347 0 1
141.463 0 1
141.578 0 1
141.694 0 1
144.104 0 1
144.219 0 1
144.335 0 1
144.45 0 1
144.566 0 1
144.682 0 1
144.798 0 1
144.914 0 1
145.03 0 1
145.146 562 23.7065
145.262 588 24.2487
145.378 582 24.1247
145.494 570 23.8747
145.61 561 23.6854
145.726 583 24.1454
145.842 553 23.516
145.959 587 24.2281
146.075 578 24.0416
146.192 509 22.561
146.308 555 23.5584
146.425 488 22.0907
146.541 476 21.8174
146.658 416 20.3961
146.774 406 20.1494
146.891 422 20.5426
147.008 459 21.4243
147.125 461 21.4709
147.241 499 22.3383
147.358 483 21.9773
147.475 507 22.5167
147.592 484 22
147.709 441 21
147.826 474 21.7715
147.943 479 21.8861
148.06 465 21.5639
148.177 485 22.0227
148.294 470 21.6795
148.411 474 21.7715
148.528 429 20.7123
148.645 456 21.3542
148.762 450 21.2132
148.88 401 20.025
148.997 430 20.7364
149.114 390 19.7484
149.231 383 19.5704
149.349 380 19.4936
149.466 431 20.7605
149.583 405 20.1246
149.701 359 18.9473
149.818 404 20.0998
149.935 387 19.6723
150.053 355 18.8414
150.17 337 18.3576
150.287 332 18.2209
150.405 388 19.6977
150.522 361 19
150.64 407 20.1742
150.757 383 19.5704
150.875 421 20.5183
150.992 383 19.5704
151.11 387 19.6723
151.227 412 20.2978
151.344 393 19.8242
151.462 353 18.7883
151.579 407 20.1742
151.697 417 20.4206
151.814 377 19.4165
151.932 372 19.2873
152.049 399 19.975
152.167 371 19.2614
152.284 393 19.8242
152.402 355 18.8414
152.519 373 19.3132
152.636 339 18.412
152.754 381 19.5192
152.871 324 18
152.989 400 20
153.106 379 19.4679
153.223 410 20.2485
153.341 384 19.5959
153.458 359 18.9473
153.575 406 20.1494
153.693 384 19.5959
153.81 361 19
153.927 393 19.8242
154.044 366 19.1311
154.162 433 20.8087
154.279 434 20.8327
154.396 459 21.4243
154.513 450 21.2132
154.63 438 20.9284
154.747 467 21.6102
154.864 521 22.8254
154.981 530 23.0217
155.098 502 22.4054
155.215 501 22.383
155.332 514 22.6716
155.449 496 22.2711
155.566 480 21.9089
155.683 480 21.9089
155.8 435 20.8567
155.917 441 21
156.033 440 20.9762
156.15 0 1
156.267 0 1
156.383 0 1
156.5 0 1
156.617 0 1
156.733 0 1
156.85 0 1
156.966 0 1
157.082 0 1
157.199 0 1
157.315 0 1
157.431 0 1
157.547 0 1
157.664 0 1
157.78 0 1
157.896 0 1
158.012 0 1
158.128 0 1
158.244 0 1
158.359 0 1
158.475 0 1
158.591 0 1
158.706 0 1
