
6.15755 0 1
6.2731 0 1
6.3887 0 1
6.50437 0 1
6.62009 0 1
6.73587 0 1
6.8517 0 1
6.96759 0 1
7.08353 0 1
7.19952 0 1
7.31557 0 1
7.43166 0 1
7.54781 0 1
7.664 0 1
7.78024 0 1
7.89653 0 1
8.01286 0 1
8.12924 0 1
8.24567 0 1
8.36213 0 1
8.47864 0 1
8.59519 0 1
8.71178 0 1
8.82841 0 1
8.94508 0 1
9.06179 0 1
9.17853 0 1
9.29531 0 1
9.41212 0 1
9.52897 0 1
9.64584 0 1
9.76276 0 1
9.8797 0 1
9.99667 0 1
10.1137 0 1
10.2307 0 1
10.3478 0 1
10.4648 0 1
10.5819 0 1
10.6991 0 1
10.8162 0 1
10.9334 0 1
11.0506 0 1
11.1678 0 1
11.285 0 1
11.4023 0 1
11.5196 0 1
11.6369 0 1
11.7542 0 1
11.8715 0 1
11.9888 0 1
12.1062 0 1
12.2235 0 1
12.3409 0 1
12.4582 0 1
12.5756 0 1
12.693 0 1
12.8104 0 1
12.9278 0 1
13.0452 0 1
13.1626 0 1
13.28 0 1
13.3974 0 1
13.5149 0 1
13.6323 0 1
13.7497 0 1
13.8671 0 1
13.9845 0 1
14.1019 0 1
14.2193 0 1
14.3367 0 1
14.4541 0 1
14.5714 0 1
14.6888 0 1
14.8062 0 1
14.9235 0 1
15.0408 0 0
15.1581 0 0
15.2755 0 0
15.3927 0 0
15.51 0 0
15.6273 0 0
15.7445 0 0
15.8617 0 0
15.9789 0 0
16.0961 0 0
16.2132 0 0
16.3304 0 0
16.4475 0 0
16.5646 0 0
16.6816 0 0
16.7986 0 0
16.9156 0 0
17.0326 0 0
17.1496 0 0
17.2665 0 0
17.3833 0 0
17.5002 0 0
17.617 0 0
17.7338 0 0
17.8505 0 0
17.9672 0 0
18.0839 0 0
18.2005 0 0
18.3171 0 0
18.4337 0 0
18.5502 0 0
18.6666 0 0
18.7831 0 0
18.8994 0 0
19.0158 0 0
19.1321 0 0
19.2483 0 0
19.3645 0 0
19.4806 0 0
19.5967 0 0
19.7128 0 0
19.8288 0 0
19.9447 0 0
20.0606 0 1
20.1764 0 1
20.2922 0 1
20.4079 0 1
20.5236 0 1
20.6392 0 1
20.7548 0 1
20.8702 0 1
23.3078 0 1
23.4233 0 1
23.539 0 1
23.6547 0 1
23.7704 0 1
23.8862 0 1
24.0021 0 1
24.118 0 1
24.234 0 1
24.35 0 1
24.4661 825 28.7228
24.5822 857 29.2746
24.6984 848 29.1204
24.8146 866 29.4279
24.9309 810 28.4605
25.0472 862 29.3598
25.1636 886 29.7658
25.28 965 31.0644
25.3965 962 31.0161
25.513 880 29.6648
25.6296 888 29.7993
25.7462 897 29.95
25.8628 952 30.8545
25.9795 917 30.282
26.0962 1024 32
26.213 919 30.315
26.3298 934 30.5614
26.4466 903 30.05
26.5635 984 31.3688
26.6804 887 29.7825
26.7973 872 29.5296
26.9143 857 29.2746
27.0313 774 27.8209
27.1483 861 29.3428
27.2653 872 29.5296
27.3824 919 30.315
27.4996 881 29.6816
27.6167 870 29.4958
27.7339 802 28.3196
27.8511 756 27.4955
27.9683 779 27.9106
28.0855 786 28.0357
28.2028 829 28.7924
28.3201 800 28.2843
28.4374 869 29.4788
28.5547 879 29.6479
28.6721 892 29.8664
28.7894 817 28.5832
28.9068 897 29.95
29.0242 840 28.9828
29.1416 863 29.3769
29.259 887 29.7825
29.3764 836 28.9137
29.4939 886 29.7658
29.6113 891 29.8496
29.7288 877 29.6142
29.8463 899 29.9833
29.9638 847 29.1033
30.0812 888 29.7993
30.1987 872 29.5296
30.3162 833 28.8617
30.4337 784 28
30.5512 753 27.4408
30.6687 759 27.55
30.7862 787 28.0535
30.9037 772 27.7849
31.0212 817 28.5832
31.1387 796 28.2135
31.2562 800 28.2843
31.3737 798 28.2489
31.4912 770 27.7489
31.6087 763 27.6225
31.7262 814 28.5307
31.8436 759 27.55
31.9611 775 27.8388
32.0785 789 28.0891
32.1959 862 29.3598
32.3134 818 28.6007
32.4308 841 29
32.5482 811 28.4781
32.6655 902 30.0333
32.7829 878 29.6311
32.9002 790 28.1069
33.0176 865 29.4109
33.1349 859 29.3087
33.2522 837 28.931
33.3694 875 29.5804
33.4867 886 29.7658
33.6039 858 29.2916
33.7211 855 29.2404
33.8383 837 28.931
33.9554 829 28.7924
34.0725 763 27.6225
34.1896 704 26.533
34.3067 678 26.0384
34.4237 742 27.2397
34.5407 743 27.258
34.6577 754 27.4591
34.7746 778 27.8927
34.8915 792 28.1425
35.0084 734 27.0924
35.1252 760 27.5681
35.242 716 26.7582
35.3587 708 26.6083
35.4755 787 28.0535
35.5921 820 28.6356
35.7088 748 27.3496
35.8254 802 28.3196
35.9419 855 29.2404
36.0584 832 28.8444
36.1749 798 28.2489
36.2913 867 29.4449
36.4077 834 28.8791
36.524 828 28.775
36.6403 865 29.4109
36.7565 858 29.2916
36.8727 869 29.4788
36.9889 834 28.8791
37.1049 783 27.9821
37.221 0 1
37.3369 0 1
37.4529 0 1
37.5687 0 1
37.6845 0 1
37.8003 0 1
37.916 0 1
38.0316 0 1
38.1472 0 1
40.5851 0 1
40.7008 0 1
40.8164 0 1
40.9322 0 1
41.048 0 1
41.1639 0 1
41.2798 0 1
41.3958 0 1
41.5118 0 1
41.6279 0 1
41.744 676 26
41.8602 697 26.4008
41.9765 674 25.9615
42.0928 649 25.4755
42.2091 674 25.9615
42.3255 709 26.6271
42.4419 705 26.5518
42.5584 712 26.6833
42.675 702 26.4953
42.7915 691 26.2869
42.9081 702 26.4953
43.0248 646 25.4165
43.1415 589 24.2693
43.2582 591 24.3105
43.375 656 25.6125
43.4918 641 25.318
43.6087 654 25.5734
43.7256 677 26.0192
43.8425 669 25.865
43.9595 559 23.6432
44.0765 605 24.5967
44.1935 584 24.1661
44.3106 608 24.6577
44.4277 645 25.3969
44.5448 642 25.3377
44.6619 637 25.2389
44.7791 609 24.6779
44.8963 605 24.5967
45.0136 615 24.7992
45.1308 631 25.1197
45.2481 626 25.02
45.3654 621 24.9199
45.4827 622 24.9399
45.6001 577 24.0208
45.7174 594 24.3721
45.8348 585 24.1868
45.9522 572 23.9165
46.0697 570 23.8747
46.1871 570 23.8747
46.3046 546 23.3666
46.422 532 23.0651
46.5395 564 23.7487
46.657 527 22.9565
46.7745 455 21.3307
46.892 462 21.4942
47.0096 450 21.2132
47.1271 495 22.2486
47.2446 448 21.166
47.3622 466 21.587
47.4797 451 21.2368
47.5973 411 20.2731
47.7149 428 20.6882
47.8324 463 21.5174
47.95 467 21.6102
48.0675 442 21.0238
48.1851 445 21.095
48.3027 442 21.0238
48.4202 481 21.9317
48.5378 487 22.0681
48.6554 428 20.6882
48.7729 481 21.9317
48.8904 479 21.8861
49.008 431 20.7605
49.1255 438 20.9284
49.243 502 22.4054
49.3605 466 21.587
49.478 469 21.6564
49.5955 435 20.8567
49.713 469 21.6564
49.8304 472 21.7256
49.9479 501 22.383
50.0653 479 21.8861
50.1827 471 21.7025
50.3001 358 18.9209
50.4175 369 19.2094
50.5348 409 20.2237
50.6521 463 21.5174
50.7694 458 21.4009
50.8867 462 21.4942
51.004 483 21.9773
51.1212 495 22.2486
51.2384 494 22.2261
51.3556 519 22.7816
51.4727 522 22.8473
51.5899 571 23.8956
51.707 585 24.1868
51.824 576 24
51.9411 585 24.1868
52.0581 653 25.5539
52.175 626 25.02
52.2919 580 24.0832
52.4088 610 24.6982
52.5257 602 24.5357
52.6425 635 25.1992
52.7593 643 25.3574
52.876 613 24.7588
52.9927 595 24.3926
53.1094 631 25.1197
53.226 619 24.8797
53.3426 647 25.4362
53.4591 632 25.1396
53.5756 616 24.8193
53.692 612 24.7386
53.8084 587 24.2281
53.9248 549 23.4307
54.0411 534 23.1084
54.1573 553 23.516
54.2735 0 1
54.3896 0 1
54.5057 0 1
54.6217 0 1
54.7377 0 1
54.8537 0 1
54.9695 0 1
55.0853 0 1
55.2011 0 1
55.3168 0 1
55.4324 0 1
57.824 0 1
57.9396 0 1
58.0553 0 1
58.1711 0 1
58.2869 0 1
58.4028 0 1
58.5187 0 1
58.6347 0 1
58.7508 0 1
58.8669 0 1
58.983 613 24.7588
59.0992 612 24.7386
59.2155 608 24.6577
59.3318 631 25.1197
59.4482 637 25.2389
59.5646 644 25.3772
59.681 695 26.3629
59.7975 648 25.4558
59.9141 678 26.0384
60.0306 698 26.4197
60.1473 684 26.1534
60.2639 686 26.1916
60.3807 696 26.3818
60.4974 708 26.6083
60.6142 668 25.8457
60.731 686 26.1916
60.8479 685 26.1725
60.9648 644 25.3772
61.0818 621 24.9199
61.1987 626 25.02
61.3158 677 26.0192
61.4328 667 25.8263
61.5499 659 25.671
61.667 628 25.0599
61.7841 708 26.6083
61.9013 615 24.7992
62.0185 642 25.3377
62.1357 656 25.6125
62.253 653 25.5539
62.3702 626 25.02
62.4875 559 23.6432
62.6049 533 23.0868
62.7222 535 23.1301
62.8396 494 22.2261
62.9569 554 23.5372
63.0743 555 23.5584
63.1918 562 23.7065
63.3092 584 24.1661
63.4267 600 24.4949
63.5441 568 23.8328
63.6616 553 23.516
63.7791 603 24.5561
63.8966 591 24.3105
64.0142 606 24.6171
64.1317 556 23.5797
64.2492 545 23.3452
64.3668 562 23.7065
64.4843 556 23.5797
64.6019 556 23.5797
64.7195 575 23.9792
64.837 550 23.4521
64.9546 560 23.6643
65.0722 578 24.0416
65.1898 540 23.2379
65.3074 567 23.8118
65.4249 547 23.388
65.5425 552 23.4947
65.6601 524 22.891
65.7777 513 22.6495
65.8952 572 23.9165
66.0128 553 23.516
66.1304 519 22.7816
66.2479 466 21.587
66.3655 483 21.9773
66.483 427 20.664
66.6005 488 22.0907
66.718 478 21.8632
66.8355 514 22.6716
66.953 496 22.2711
67.0705 546 23.3666
67.1879 535 23.1301
67.3054 522 22.8473
67.4228 546 23.3666
67.5402 539 23.2164
67.6576 472 21.7256
67.7749 498 22.3159
67.8923 541 23.2594
68.0096 553 23.516
68.1269 496 22.2711
68.2442 508 22.5389
68.3614 521 22.8254
68.4787 526 22.9347
68.5958 527 22.9565
68.713 517 22.7376
68.8302 485 22.0227
68.9473 500 22.3607
69.0643 522 22.8473
69.1814 513 22.6495
69.2984 467 21.6102
69.4154 526 22.9347
69.5323 490 22.1359
69.6492 495 22.2486
69.7661 498 22.3159
69.8829 474 21.7715
69.9997 415 20.3715
70.1165 426 20.6398
70.2332 417 20.4206
70.3499 488 22.0907
70.4665 483 21.9773
70.5831 452 21.2603
70.6996 483 21.9773
70.8161 438 20.9284
70.9326 466 21.587
71.049 477 21.8403
71.1653 403 20.0749
71.2817 466 21.587
71.3979 451 21.2368
71.5141 455 21.3307
71.6303 444 21.0713
71.7464 396 19.8997
71.8624 0 1
71.9784 0 1
72.0944 0 1
72.2102 0 1
72.3261 0 1
72.4418 0 1
72.5575 0 1
72.6732 0 1
75.1054 0 1
75.2209 0 1
75.3365 0 1
75.4521 0 1
75.5678 0 1
75.6835 0 1
75.7993 0 1
75.9151 0 1
76.031 0 1
76.147 303 17.4069
76.263 391 19.7737
76.3791 384 19.5959
76.4952 369 19.2094
76.6113 385 19.6214
76.7276 384 19.5959
76.8438 361 19
76.9601 363 19.0526
77.0765 356 18.868
77.1929 338 18.3848
77.3093 329 18.1384
77.4258 317 17.8045
77.5423 348 18.6548
77.6589 325 18.0278
77.7755 329 18.1384
77.8921 307 17.5214
78.0088 309 17.5784
78.1256 342 18.4932
78.2423 327 18.0831
78.3591 316 17.7764
78.4759 289 17
78.5928 302 17.3781
78.7097 307 17.5214
78.8266 295 17.1756
78.9436 273 16.5227
79.0606 236 15.3623
79.1776 217 14.7309
79.2946 234 15.2971
79.4117 240 15.4919
79.5288 271 16.4621
79.6459 235 15.3297
79.7631 254 15.9374
79.8802 246 15.6844
79.9974 246 15.6844
80.1147 235 15.3297
80.2319 245 15.6525
80.3491 215 14.6629
80.4664 209 14.4568
80.5837 237 15.3948
80.701 211 14.5258
80.8183 192 13.8564
80.9357 223 14.9332
81.053 230 15.1658
81.1704 205 14.3178
81.2877 207 14.3875
81.4051 173 13.1529
81.5225 200 14.1421
81.6399 166 12.8841
81.7573 165 12.8452
81.8747 174 13.1909
81.9922 158 12.5698
82.1096 155 12.4499
82.227 154 12.4097
82.3444 163 12.7671
82.4619 146 12.083
82.5793 144 12
82.6967 131 11.4455
82.8142 127 11.2694
82.9316 89 9.43398
83.049 121 11
83.1664 114 10.6771
83.2838 116 10.7703
83.4012 89 9.43398
83.5186 101 10.0499
83.636 90 9.48683
83.7534 83 9.11043
83.8708 81 9
83.9881 96 9.79796
84.1055 68 8.24621
84.2228 83 9.11043
84.3401 82 9.05539
84.4575 70 8.3666
84.5747 75 8.66025
84.692 78 8.83176
84.8093 71 8.42615
84.9265 62 7.87401
85.0437 67 8.18535
85.1609 62 7.87401
85.2781 57 7.54983
85.3952 47 6.85565
85.5123 63 7.93725
85.6294 43 6.55744
85.7465 56 7.48331
85.8636 59 7.68115
85.9806 50 7.07107
86.0976 57 7.54983
86.2145 42 6.48074
86.3315 55 7.4162
86.4484 75 8.66025
86.5652 79 8.88819
86.682 72 8.48528
86.7988 79 8.88819
86.9156 119 10.9087
87.0323 92 9.59166
87.149 80 8.94427
87.2657 96 9.79796
87.3823 94 9.69536
87.4988 100 10
87.6154 122 11.0454
87.7318 129 11.3578
87.8483 127 11.2694
87.9647 117 10.8167
88.081 117 10.8167
88.1973 144 12
88.3136 146 12.083
88.4298 149 12.2066
88.546 146 12.083
88.6621 161 12.6886
88.7781 165 12.8452
88.8942 0 1
89.0101 0 1
89.126 0 1
89.2419 0 1
89.3577 0 1
89.4734 0 1
89.5891 0 1
89.7047 0 1
89.8203 0 1
89.9358 0 1
92.3269 0 1
92.4424 0 1
92.558 0 1
92.6736 0 1
92.7893 0 1
92.905 0 1
93.0208 0 1
93.1366 0 1
93.2525 0 1
93.3685 0 1
93.4845 0 1
93.6005 259 16.0935
93.7167 259 16.0935
93.8328 236 15.3623
93.949 235 15.3297
94.0653 247 15.7162
94.1816 283 16.8226
94.2979 240 15.4919
94.4143 214 14.6287
94.5307 217 14.7309
94.6472 225 15
94.7637 209 14.4568
94.8803 194 13.9284
94.9969 189 13.7477
95.1135 213 14.5945
95.2302 169 13
95.3469 168 12.9615
95.4637 167 12.9228
95.5805 141 11.8743
95.6973 201 14.1774
95.8142 221 14.8661
95.9311 234 15.2971
96.048 203 14.2478
96.1649 260 16.1245
96.2819 253 15.906
96.3989 262 16.1864
96.516 244 15.6205
96.633 260 16.1245
96.7501 288 16.9706
96.8673 288 16.9706
96.9844 278 16.6733
97.1016 311 17.6352
97.2188 301 17.3494
97.336 286 16.9115
97.4532 306 17.4929
97.5704 324 18
97.6877 318 17.8326
97.805 355 18.8414
97.9223 331 18.1934
98.0396 340 18.4391
98.1569 372 19.2873
98.2743 351 18.735
98.3916 357 18.8944
98.509 390 19.7484
98.6264 388 19.6977
98.7438 374 19.3391
98.8612 357 18.8944
98.9786 341 18.4662
99.096 264 16.2481
99.2134 285 16.8819
99.3308 393 19.8242
99.4482 416 20.3961
99.5656 460 21.4476
99.6831 423 20.567
99.8005 456 21.3542
99.9179 425 20.6155
100.035 427 20.664
100.153 438 20.9284
100.27 512 22.6274
100.388 506 22.4944
100.505 515 22.6936
100.622 520 22.8035
100.74 443 21.0476
100.857 481 21.9317
100.975 503 22.4277
101.092 476 21.8174
101.209 497 22.2935
101.327 507 22.5167
101.444 525 22.9129
101.561 512 22.6274
101.679 499 22.3383
101.796 525 22.9129
101.913 519 22.7816
102.03 506 22.4944
102.148 523 22.8692
102.265 573 23.9374
102.382 525 22.9129
102.499 494 22.2261
102.616 411 20.2731
102.733 368 19.1833
102.851 428 20.6882
102.968 525 22.9129
103.085 541 23.2594
103.202 540 23.2379
103.319 535 23.1301
103.436 599 24.4745
103.552 576 24
103.669 525 22.9129
103.786 511 22.6053
103.903 561 23.6854
104.02 547 23.388
104.137 516 22.7156
104.253 544 23.3238
104.37 520 22.8035
104.487 590 24.2899
104.603 555 23.5584
104.72 581 24.1039
104.836 538 23.1948
104.953 567 23.8118
105.069 593 24.3516
105.186 617 24.8395
105.302 593 24.3516
105.418 578 24.0416
105.535 561 23.6854
105.651 548 23.4094
105.767 622 24.9399
105.883 558 23.622
105.999 491 22.1585
106.115 0 1
106.231 0 1
106.347 0 1
106.463 0 1
106.579 0 1
106.694 0 1
106.81 0 1
106.926 0 1
107.041 0 1
107.157 0 1
109.576 0 1
109.692 0 1
109.807 0 1
109.923 0 1
110.039 0 1
110.155 0 1
110.27 0 1
110.386 0 1
110.502 0 1
110.618 417 20.4206
110.735 471 21.7025
110.851 441 21
110.967 418 20.445
111.083 412 20.2978
111.199 351 18.735
111.316 338 18.3848
111.432 381 19.5192
111.549 381 19.5192
111.665 441 21
111.782 410 20.2485
111.898 392 19.799
112.015 383 19.5704
112.132 366 19.1311
112.248 453 21.2838
112.365 410 20.2485
112.482 415 20.3715
112.599 351 18.735
112.716 388 19.6977
112.832 388 19.6977
112.949 382 19.5448
113.066 350 18.7083
113.183 363 19.0526
113.3 342 18.4932
113.417 345 18.5742
113.534 326 18.0555
113.652 340 18.4391
113.769 340 18.4391
113.886 330 18.1659
114.003 378 19.4422
114.12 354 18.8149
114.238 295 17.1756
114.355 336 18.3303
114.472 291 17.0587
114.589 299 17.2916
114.707 301 17.3494
114.824 281 16.7631
114.942 272 16.4924
115.059 240 15.4919
115.176 321 17.9165
115.294 299 17.2916
115.411 319 17.8606
115.529 305 17.4642
115.646 350 18.7083
115.764 346 18.6011
115.881 297 17.2337
115.999 304 17.4356
116.116 324 18
116.234 269 16.4012
116.351 276 16.6132
116.469 330 18.1659
116.586 286 16.9115
116.704 287 16.9411
116.821 293 17.1172
116.939 281 16.7631
117.056 315 17.7482
117.174 303 17.4069
117.291 323 17.9722
117.409 310 17.6068
117.526 317 17.8045
117.644 287 16.9411
117.761 274 16.5529
117.879 243 15.5885
117.996 264 16.2481
118.114 250 15.8114
118.231 280 16.7332
118.349 289 17
118.466 310 17.6068
118.584 307 17.5214
118.701 286 16.9115
118.819 313 17.6918
118.936 304 17.4356
119.053 311 17.6352
119.171 309 17.5784
119.288 321 17.9165
119.405 307 17.5214
119.523 294 17.1464
119.64 309 17.5784
119.757 311 17.6352
119.875 308 17.5499
119.992 318 17.8326
120.109 327 18.0831
120.226 338 18.3848
120.343 333 18.2483
120.46 319 17.8606
120.578 324 18
120.695 334 18.2757
120.812 311 17.6352
120.929 328 18.1108
121.046 341 18.4662
121.163 361 19
121.279 318 17.8326
121.396 314 17.72
121.513 287 16.9411
121.63 262 16.1864
121.747 232 15.2315
121.863 231 15.1987
121.98 245 15.6525
122.097 318 17.8326
122.213 330 18.1659
122.33 319 17.8606
122.446 308 17.5499
122.563 291 17.0587
122.679 328 18.1108
122.795 337 18.3576
122.912 354 18.8149
123.028 344 18.5472
123.144 365 19.105
123.26 359 18.9473
123.377 0 1
123.493 0 1
123.609 0 1
123.725 0 1
123.84 0 1
123.956 0 1
124.072 0 1
124.188 0 1
124.303 0 1
124.419 0 1
126.852 0 1
126.968 0 1
127.083 0 1
127.199 0 1
127.315 0 1
127.431 0 1
127.547 0 1
127.663 0 1
127.779 0 1
127.895 0 1
128.011 0 1
128.127 0 1
128.243 0 1
128.359 443 21.0476
128.476 437 20.9045
128.592 437 20.9045
128.708 454 21.3073
128.825 470 21.6795
128.941 493 22.2036
129.058 412 20.2978
129.174 444 21.0713
129.291 425 20.6155
129.408 484 22
129.524 448 21.166
129.641 433 20.8087
129.758 509 22.561
129.875 428 20.6882
129.992 451 21.2368
130.108 453 21.2838
130.225 425 20.6155
130.342 401 20.025
130.459 359 18.9473
130.576 360 18.9737
130.693 302 17.3781
130.81 303 17.4069
130.928 338 18.3848
131.045 375 19.3649
131.162 433 20.8087
131.279 437 20.9045
131.396 481 21.9317
131.513 467 21.6102
131.631 482 21.9545
131.748 486 22.0454
131.865 514 22.6716
131.983 463 21.5174
132.1 503 22.4277
132.217 511 22.6053
132.335 508 22.5389
132.452 494 22.2261
132.57 529 23
132.687 470 21.6795
132.804 499 22.3383
132.922 511 22.6053
133.039 471 21.7025
133.157 519 22.7816
133.274 436 20.8806
133.392 486 22.0454
133.509 454 21.3073
133.627 460 21.4476
133.744 501 22.383
133.862 435 20.8567
133.979 439 20.9523
134.097 437 20.9045
134.214 406 20.1494
134.332 390 19.7484
134.449 348 18.6548
134.567 377 19.4165
134.684 437 20.9045
134.802 528 22.9783
134.919 529 23
135.037 483 21.9773
135.154 539 23.2164
135.272 486 22.0454
135.389 513 22.6495
135.507 543 23.3024
135.624 533 23.0868
135.742 561 23.6854
135.859 549 23.4307
135.977 570 23.8747
136.094 528 22.9783
136.211 522 22.8473
136.329 551 23.4734
136.446 521 22.8254
136.564 522 22.8473
136.681 513 22.6495
136.798 536 23.1517
136.915 559 23.6432
137.033 535 23.1301
137.15 539 23.2164
137.267 529 23
137.384 502 22.4054
137.502 497 22.2935
137.619 463 21.5174
137.736 445 21.095
137.853 431 20.7605
137.97 433 20.8087
138.087 435 20.8567
138.204 424 20.5913
138.321 457 21.3776
138.438 518 22.7596
138.555 513 22.6495
138.672 581 24.1039
138.788 544 23.3238
138.905 617 24.8395
139.022 589 24.2693
139.139 614 24.779
139.255 584 24.1661
139.372 580 24.0832
139.488 607 24.6374
139.605 583 24.1454
139.721 573 23.9374
139.838 634 25.1794
139.954 564 23.7487
140.071 583 24.1454
140.187 584 24.1661
140.303 574 23.9583
140.419 578 24.0416
140.535 572 23.9165
140.652 547 23.388
140.768 0 1
140.884 0 1
141 0 1
141.115 0 1
141.231 0 1
141.347 0 1
141.463 0 1
141.578 0 1
141.694 0 1
144.104 0 1
144.219 0 1
144.335 0 1
144.45 0 1
144.566 0 1
144.682 0 1
144.798 0 1
144.914 0 1
145.03 0 1
145.146 569 23.8537
145.262 576 24
145.378 555 23.5584
145.494 565 23.7697
145.61 599 24.4745
145.726 592 24.3311
145.842 597 24.4336
145.959 482 21.9545
146.075 559 23.6432
146.192 478 21.8632
146.308 483 21.9773
146.425 450 21.2132
146.541 470 21.6795
146.658 446 21.1187
146.774 461 21.4709
146.891 465 21.5639
147.008 503 22.4277
147.125 510 22.5832
147.241 545 23.3452
147.358 559 23.6432
147.475 551 23.4734
147.592 567 23.8118
147.709 542 23.2809
147.826 571 23.8956
147.943 575 23.9792
148.06 564 23.7487
148.177 590 24.2899
148.294 617 24.8395
148.411 539 23.2164
148.528 566 23.7908
148.645 555 23.5584
148.762 568 23.8328
148.88 555 23.5584
148.997 493 22.2036
149.114 567 23.8118
149.231 555 23.5584
149.349 517 22.7376
149.466 538 23.1948
149.583 525 22.9129
149.701 508 22.5389
149.818 488 22.0907
149.935 442 21.0238
150.053 446 21.1187
150.17 465 21.5639
150.287 414 20.347
150.405 471 21.7025
150.522 450 21.2132
150.64 506 22.4944
150.757 501 22.383
150.875 522 22.8473
150.992 529 23
151.11 556 23.5797
151.227 624 24.98
151.344 589 24.2693
151.462 569 23.8537
151.579 585 24.1868
151.697 591 24.3105
151.814 556 23.5797
151.932 603 24.5561
152.049 631 25.1197
152.167 550 23.4521
152.284 576 24
152.402 572 23.9165
152.519 592 24.3311
152.636 593 24.3516
152.754 613 24.7588
152.871 616 24.8193
152.989 542 23.2809
153.106 568 23.8328
153.223 543 23.3024
153.341 550 23.4521
153.458 487 22.0681
153.575 528 22.9783
153.693 475 21.7945
153.81 527 22.9565
153.927 491 22.1585
154.044 502 22.4054
154.162 524 22.891
154.279 567 23.8118
154.396 564 23.7487
154.513 596 24.4131
154.63 576 24
154.747 574 23.9583
154.864 603 24.5561
154.981 603 24.5561
155.098 603 24.5561
155.215 598 24.454
155.332 629 25.0799
155.449 629 25.0799
155.566 580 24.0832
155.683 628 25.0599
155.8 591 24.3105
155.917 598 24.454
156.033 614 24.779
156.15 0 1
156.267 0 1
156.383 0 1
156.5 0 1
156.617 0 1
156.733 0 1
156.85 0 1
156.966 0 1
157.082 0 1
157.199 0 1
157.315 0 1
157.431 0 1
157.547 0 1
157.664 0 1
157.78 0 1
157.896 0 1
158.012 0 1
158.128 0 1
158.244 0 1
158.359 0 1
158.475 0 1
158.591 0 1
158.706 0 1
