
6.15755 0 1
6.2731 0 1
6.3887 0 1
6.50437 0 1
6.62009 0 1
6.73587 0 1
6.8517 0 1
6.96759 0 1
7.08353 0 1
7.19952 0 1
7.31557 0 1
7.43166 0 1
7.54781 0 1
7.664 0 1
7.78024 0 1
7.89653 0 1
8.01286 0 1
8.12924 0 1
8.24567 0 1
8.36213 0 1
8.47864 0 1
8.59519 0 1
8.71178 0 1
8.82841 0 1
8.94508 0 1
9.06179 0 1
9.17853 0 1
9.29531 0 1
9.41212 0 1
9.52897 0 1
9.64584 0 1
9.76276 0 1
9.8797 0 1
9.99667 0 1
10.1137 0 1
10.2307 0 1
10.3478 0 1
10.4648 0 1
10.5819 0 1
10.6991 0 1
10.8162 0 1
10.9334 0 1
11.0506 0 1
11.1678 0 1
11.285 0 1
11.4023 0 1
11.5196 0 1
11.6369 0 1
11.7542 0 1
11.8715 0 1
11.9888 0 1
12.1062 0 1
12.2235 0 1
12.3409 0 1
12.4582 0 1
12.5756 0 1
12.693 0 1
12.8104 0 1
12.9278 0 1
13.0452 0 1
13.1626 0 1
13.28 0 1
13.3974 0 1
13.5149 0 1
13.6323 0 1
13.7497 0 1
13.8671 0 1
13.9845 0 1
14.1019 0 1
14.2193 0 1
14.3367 0 1
14.4541 0 1
14.5714 0 1
14.6888 0 1
14.8062 0 1
14.9235 0 1
15.0408 43693 209.029
15.1581 46283 215.135
15.2755 48999 221.357
15.3927 49733 223.009
15.51 50613 224.973
15.6273 51016 225.867
15.7445 51729 227.44
15.8617 51935 227.893
15.9789 51872 227.754
16.0961 50607 224.96
16.2132 50259 224.185
16.3304 49865 223.305
16.4475 49027 221.42
16.5646 48586 220.422
16.6816 47794 218.618
16.7986 47430 217.784
16.9156 46764 216.25
17.0326 46349 215.288
17.1496 46258 215.077
17.2665 46124 214.765
17.3833 46267 215.098
17.5002 46112 214.737
17.617 46566 215.792
17.7338 46920 216.61
17.8505 47310 217.509
17.9672 47928 218.925
18.0839 47807 218.648
18.2005 46239 215.033
18.3171 44215 210.274
18.4337 42505 206.167
18.5502 42671 206.57
18.6666 44163 210.15
18.7831 46257 215.074
18.8994 46823 216.386
19.0158 45999 214.474
19.1321 46075 214.651
19.2483 45891 214.222
19.3645 46061 214.618
19.4806 45954 214.369
19.5967 44983 212.092
19.7128 41890 204.67
19.8288 37845 194.538
19.9447 31672 177.966
20.0606 0 1
20.1764 0 1
20.2922 0 1
20.4079 0 1
20.5236 0 1
20.6392 0 1
20.7548 0 1
20.8702 0 1
23.3078 0 1
23.4233 0 1
23.539 0 1
23.6547 0 1
23.7704 0 1
23.8862 0 1
24.0021 0 1
24.118 0 1
24.234 0 1
24.35 0 1
24.4661 17258 131.37
24.5822 20357 142.678
24.6984 23112 152.026
24.8146 28265 168.122
24.9309 34507 185.761
25.0472 40046 200.115
25.1636 45026 212.193
25.28 49162 221.725
25.3965 51195 226.263
25.513 52375 228.856
25.6296 52832 229.852
25.7462 53263 230.788
25.8628 52763 229.702
25.9795 52757 229.689
26.0962 53323 230.918
26.213 52880 229.957
26.3298 52219 228.515
26.4466 51840 227.684
26.5635 51383 226.678
26.6804 50835 225.466
26.7973 48851 221.023
26.9143 45995 214.464
27.0313 43142 207.707
27.1483 43592 208.787
27.2653 44466 210.87
27.3824 46399 215.404
27.4996 47098 217.021
27.6167 46498 215.634
27.7339 46012 214.504
27.8511 46304 215.184
27.9683 46416 215.444
28.0855 48485 220.193
28.2028 49292 222.018
28.3201 49568 222.639
28.4374 50233 224.127
28.5547 50464 224.642
28.6721 49952 223.499
28.7894 50484 224.686
28.9068 50562 224.86
29.0242 50442 224.593
29.1416 50468 224.651
29.259 50557 224.849
29.3764 50932 225.681
29.4939 49962 223.522
29.6113 50503 224.729
29.7288 50929 225.675
29.8463 50964 225.752
29.9638 50200 224.054
30.0812 49527 222.547
30.1987 48636 220.536
30.3162 45827 214.072
30.4337 42811 206.908
30.5512 40777 201.933
30.6687 40952 202.366
30.7862 42248 205.543
30.9037 44261 210.383
31.0212 45882 214.201
31.1387 45988 214.448
31.2562 45808 214.028
31.3737 45193 212.586
31.4912 45884 214.206
31.6087 46206 214.956
31.7262 47524 218
31.8436 48177 219.493
31.9611 48329 219.839
32.0785 48459 220.134
32.1959 48490 220.204
32.3134 48613 220.484
32.4308 49007 221.375
32.5482 48991 221.339
32.6655 48829 220.973
32.7829 48790 220.885
32.9002 49001 221.362
33.0176 48720 220.726
33.1349 48913 221.163
33.2522 48942 221.228
33.3694 48718 220.722
33.4867 49196 221.802
33.6039 48445 220.102
33.7211 47678 218.353
33.8383 46546 215.745
33.9554 43957 209.659
34.0725 41161 202.882
34.1896 39702 199.254
34.3067 39741 199.351
34.4237 40966 202.401
34.5407 42902 207.128
34.6577 44057 209.898
34.7746 44490 210.927
34.8915 43674 208.983
35.0084 43029 207.434
35.1252 43638 208.897
35.242 44224 210.295
35.3587 44872 211.83
35.4755 46191 214.921
35.5921 46550 215.754
35.7088 47496 217.936
35.8254 47951 218.977
35.9419 48147 219.424
36.0584 48657 220.583
36.1749 48359 219.907
36.2913 47867 218.785
36.4077 46557 215.771
36.524 44326 210.537
36.6403 42487 206.124
36.7565 39116 197.778
36.8727 36334 190.615
36.9889 33201 182.211
37.1049 30387 174.319
37.221 0 1
37.3369 0 1
37.4529 0 1
37.5687 0 1
37.6845 0 1
37.8003 0 1
37.916 0 1
38.0316 0 1
38.1472 0 1
40.5851 0 1
40.7008 0 1
40.8164 0 1
40.9322 0 1
41.048 0 1
41.1639 0 1
41.2798 0 1
41.3958 0 1
41.5118 0 1
41.6279 0 1
41.744 20127 141.87
41.8602 24961 157.991
41.9765 29449 171.607
42.0928 32619 180.607
42.2091 35522 188.473
42.3255 36814 191.87
42.4419 38012 194.967
42.5584 37872 194.607
42.675 36765 191.742
42.7915 34508 185.763
42.9081 32820 181.163
43.0248 32311 179.753
43.1415 33809 183.872
43.2582 34806 186.564
43.375 36426 190.856
43.4918 37651 194.039
43.6087 37685 194.126
43.7256 37290 193.106
43.8425 36744 191.687
43.9595 36133 190.087
44.0765 35861 189.37
44.1935 36593 191.293
44.3106 37201 192.876
44.4277 38332 195.786
44.5448 39096 197.727
44.6619 38707 196.741
44.7791 39530 198.822
44.8963 39851 199.627
45.0136 39758 199.394
45.1308 40072 200.18
45.2481 39662 199.153
45.3654 39655 199.136
45.4827 39841 199.602
45.6001 39635 199.085
45.7174 39991 199.977
45.8348 39978 199.945
45.9522 39526 198.811
46.0697 39367 198.411
46.1871 37518 193.696
46.3046 35445 188.268
46.422 33398 182.751
46.5395 32319 179.775
46.657 33231 182.294
46.7745 35198 187.611
46.892 36462 190.95
47.0096 38250 195.576
47.1271 39177 197.932
47.2446 39195 197.977
47.3622 38207 195.466
47.4797 38283 195.66
47.5973 37688 194.134
47.7149 37058 192.505
47.8324 37398 193.386
47.95 38380 195.908
48.0675 39887 199.717
48.1851 39908 199.77
48.3027 40456 201.137
48.4202 40600 201.494
48.5378 40504 201.256
48.6554 40634 201.579
48.7729 40764 201.901
48.8904 40954 202.371
49.008 40592 201.475
49.1255 40496 201.236
49.243 40723 201.799
49.3605 39734 199.334
49.478 39723 199.306
49.5955 38443 196.069
49.713 36199 190.26
49.8304 33613 183.338
49.9479 31410 177.229
50.0653 31171 176.553
50.1827 32281 179.669
50.3001 33461 182.923
50.4175 35295 187.87
50.5348 37018 192.401
50.6521 37926 194.746
50.7694 38503 196.222
50.8867 37918 194.725
51.004 37814 194.458
51.1212 37083 192.569
51.2384 36935 192.185
51.3556 37538 193.747
51.4727 38173 195.379
51.5899 38686 196.688
51.707 39833 199.582
51.824 40889 202.21
51.9411 40448 201.117
52.0581 41047 202.601
52.175 41148 202.85
52.2919 40603 201.502
52.4088 40825 202.052
52.5257 40990 202.46
52.6425 41128 202.8
52.7593 40458 201.142
52.876 40682 201.698
52.9927 40231 200.577
53.1094 40313 200.781
53.226 38873 197.162
53.3426 36745 191.69
53.4591 33950 184.255
53.5756 31756 178.202
53.692 29763 172.52
53.8084 28966 170.194
53.9248 27605 166.148
54.0411 25991 161.217
54.1573 24651 157.006
54.2735 0 1
54.3896 0 1
54.5057 0 1
54.6217 0 1
54.7377 0 1
54.8537 0 1
54.9695 0 1
55.0853 0 1
55.2011 0 1
55.3168 0 1
55.4324 0 1
57.824 0 1
57.9396 0 1
58.0553 0 1
58.1711 0 1
58.2869 0 1
58.4028 0 1
58.5187 0 1
58.6347 0 1
58.7508 0 1
58.8669 0 1
58.983 24372 156.115
59.0992 30519 174.697
59.2155 36033 189.824
59.3318 41229 203.049
59.4482 45515 213.342
59.5646 48254 219.668
59.681 50220 224.098
59.7975 50697 225.16
59.9141 51494 226.923
60.0306 51823 227.647
60.1473 51331 226.563
60.2639 52600 229.347
60.3807 53694 231.72
60.4974 54735 233.955
60.6142 55609 235.816
60.731 55959 236.557
60.8479 56056 236.761
60.9648 56081 236.814
61.0818 55421 235.417
61.1987 56139 236.937
61.3158 55417 235.408
61.4328 55322 235.206
61.5499 55139 234.817
61.667 54862 234.226
61.7841 53319 230.909
61.9013 50709 225.187
62.0185 47607 218.19
62.1357 46060 214.616
62.253 45065 212.285
62.3702 45883 214.203
62.4875 48140 219.408
62.6049 50499 224.72
62.7222 52536 229.207
62.8396 54167 232.738
62.9569 55692 235.992
63.0743 55567 235.727
63.1918 54602 233.671
63.3092 53894 232.151
63.4267 53691 231.713
63.5441 52278 228.644
63.6616 51810 227.618
63.7791 51946 227.917
63.8966 51709 227.396
64.0142 53254 230.768
64.1317 53852 232.06
64.2492 54332 233.092
64.3668 54664 233.803
64.4843 53751 231.843
64.6019 53448 231.188
64.7195 53215 230.684
64.837 53467 231.229
64.9546 53355 230.987
65.0722 52796 229.774
65.1898 52542 229.22
65.3074 50961 225.745
65.4249 49231 221.881
65.5425 46419 215.451
65.6601 43562 208.715
65.7777 41753 204.336
65.8952 42506 206.17
66.0128 44273 210.412
66.1304 46237 215.028
66.2479 48056 219.217
66.3655 49869 223.314
66.483 51909 227.835
66.6005 52336 228.771
66.718 51887 227.787
66.8355 50816 225.424
66.953 50343 224.372
67.0705 49230 221.878
67.1879 48078 219.267
67.3054 47748 218.513
67.4228 47238 217.343
67.5402 47467 217.869
67.6576 48010 219.112
67.7749 48964 221.278
67.8923 49359 222.169
68.0096 49501 222.488
68.1269 49657 222.839
68.2442 49855 223.282
68.3614 49759 223.067
68.4787 49597 222.704
68.5958 50080 223.786
68.713 49765 223.081
68.8302 48988 221.332
68.9473 48599 220.452
69.0643 46630 215.94
69.1814 44443 210.815
69.2984 41396 203.46
69.4154 40444 201.107
69.5323 40758 201.886
69.6492 43215 207.882
69.7661 44984 212.094
69.8829 46862 216.476
69.9997 48775 220.851
70.1165 48478 220.177
70.2332 47734 218.481
70.3499 45362 212.984
70.4665 43121 207.656
70.5831 40062 200.155
70.6996 37505 193.662
70.8161 34578 185.952
70.9326 31252 176.782
71.049 28330 168.315
71.1653 25781 160.565
71.2817 24588 156.806
71.3979 23128 152.079
71.5141 22081 148.597
71.6303 20772 144.125
71.7464 18183 134.844
71.8624 0 1
71.9784 0 1
72.0944 0 1
72.2102 0 1
72.3261 0 1
72.4418 0 1
72.5575 0 1
72.6732 0 1
75.1054 0 1
75.2209 0 1
75.3365 0 1
75.4521 0 1
75.5678 0 1
75.6835 0 1
75.7993 0 1
75.9151 0 1
76.031 0 1
76.147 31867 178.513
76.263 34938 186.917
76.3791 36743 191.685
76.4952 37936 194.772
76.6113 39269 198.164
76.7276 40498 201.241
76.8438 42354 205.801
76.9601 43587 208.775
77.0765 44417 210.753
77.1929 44997 212.125
77.3093 45445 213.178
77.4258 45576 213.485
77.5423 45697 213.769
77.6589 45827 214.072
77.7755 45729 213.843
77.8921 45351 212.958
78.0088 43895 209.511
78.1256 41906 204.71
78.2423 39339 198.341
78.3591 37732 194.247
78.4759 36889 192.065
78.5928 38723 196.782
78.7097 41233 203.059
78.8266 43382 208.283
78.9436 46314 215.207
79.0606 47849 218.744
79.1776 49261 221.948
79.2946 51171 226.21
79.4117 51417 226.753
79.5288 51590 227.134
79.6459 51869 227.748
79.7631 50901 225.612
79.8802 50830 225.455
79.9974 49481 222.443
80.1147 48536 220.309
80.2319 48867 221.059
80.3491 50396 224.491
80.4664 51684 227.341
80.5837 54416 233.272
80.701 56243 237.156
80.8183 58206 241.259
80.9357 60004 244.957
81.053 61237 247.461
81.1704 61233 247.453
81.2877 62396 249.792
81.4051 62503 250.006
81.5225 61774 248.544
81.6399 61333 247.655
81.7573 58061 240.959
81.8747 56200 237.065
81.9922 52595 229.336
82.1096 52739 229.65
82.227 54188 232.783
82.3444 56382 237.449
82.4619 60452 245.87
82.5793 63718 252.424
82.6967 65200 255.343
82.8142 67341 259.501
82.9316 68761 262.223
83.049 68466 261.66
83.1664 67877 260.532
83.2838 67045 258.93
83.4012 65946 256.8
83.5186 64718 254.397
83.636 63142 251.281
83.7534 61659 248.312
83.8708 59419 243.76
83.9881 58636 242.149
84.1055 60988 246.957
84.2228 62799 250.597
84.3401 65380 255.695
84.4575 67355 259.528
84.5747 68766 262.233
84.692 68779 262.258
84.8093 70004 264.583
84.9265 68983 262.646
85.0437 68218 261.186
85.1609 66219 257.331
85.2781 62814 250.627
85.3952 59122 243.15
85.5123 55514 235.614
85.6294 52934 230.074
85.7465 52744 229.661
85.8636 55599 235.794
85.9806 57171 239.105
86.0976 59827 244.596
86.2145 60934 246.848
86.3315 62199 249.397
86.4484 63928 252.84
86.5652 64045 253.071
86.682 63285 251.565
86.7988 61795 248.586
86.9156 60341 245.644
87.0323 59214 243.339
87.149 57580 239.958
87.2657 55544 235.678
87.3823 53341 230.957
87.4988 49758 223.065
87.6154 47853 218.753
87.7318 47047 216.903
87.8483 46140 214.802
87.9647 45147 212.478
88.081 44060 209.905
88.1973 42207 205.443
88.3136 39181 197.942
88.4298 36294 190.51
88.546 33275 182.414
88.6621 30142 173.615
88.7781 26595 163.08
88.8942 0 1
89.0101 0 1
89.126 0 1
89.2419 0 1
89.3577 0 1
89.4734 0 1
89.5891 0 1
89.7047 0 1
89.8203 0 1
89.9358 0 1
92.3269 0 1
92.4424 0 1
92.558 0 1
92.6736 0 1
92.7893 0 1
92.905 0 1
93.0208 0 1
93.1366 0 1
93.2525 0 1
93.3685 0 1
93.4845 0 1
93.6005 35932 189.557
93.7167 38993 197.466
93.8328 41403 203.477
93.949 44022 209.814
94.0653 45701 213.778
94.1816 46424 215.462
94.2979 47292 217.467
94.4143 47961 219
94.5307 47514 217.977
94.6472 45854 214.135
94.7637 43050 207.485
94.8803 40835 202.077
94.9969 39979 199.947
95.1135 41251 203.103
95.2302 43480 208.519
95.3469 45378 213.021
95.4637 47664 218.321
95.5805 49276 221.982
95.6973 49720 222.98
95.8142 49925 223.439
95.9311 49247 221.917
96.048 48846 221.011
96.1649 48385 219.966
96.2819 48178 219.495
96.3989 47196 217.246
96.516 46336 215.258
96.633 45541 213.403
96.7501 45247 212.713
96.8673 45212 212.631
96.9844 46004 214.485
97.1016 46913 216.594
97.2188 48260 219.682
97.336 49648 222.818
97.4532 50241 224.145
97.5704 50945 225.71
97.6877 50589 224.92
97.805 50225 224.109
97.9223 50577 224.893
98.0396 49685 222.901
98.1569 49263 221.953
98.2743 46994 216.781
98.3916 44149 210.117
98.509 41639 204.056
98.6264 40558 201.39
98.7438 41127 202.798
98.8612 43188 207.817
98.9786 46045 214.581
99.096 47778 218.582
99.2134 49601 222.713
99.3308 51424 226.769
99.4482 51744 227.473
99.5656 51921 227.862
99.6831 51380 226.672
99.8005 51189 226.25
99.9179 50174 223.996
100.035 49328 222.099
100.153 48306 219.786
100.27 47078 216.975
100.388 46687 216.072
100.505 47348 217.596
100.622 48246 219.65
100.74 49163 221.727
100.857 49971 223.542
100.975 50888 225.584
101.092 51018 225.872
101.209 51514 226.967
101.327 51464 226.857
101.444 51587 227.128
101.561 50879 225.564
101.679 50320 224.321
101.796 49172 221.748
101.913 46560 215.778
102.03 43578 208.753
102.148 42334 205.752
102.265 40916 202.277
102.382 44001 209.764
102.499 46039 214.567
102.616 48588 220.427
102.733 49742 223.029
102.851 52135 228.331
102.968 52721 229.611
103.085 52919 230.041
103.202 52577 229.297
103.319 51107 226.069
103.436 50445 224.6
103.552 49093 221.569
103.669 48312 219.8
103.786 47611 218.199
103.903 46797 216.326
104.02 46943 216.663
104.137 47937 218.945
104.253 49146 221.689
104.37 51718 227.416
104.487 51195 226.263
104.603 51450 226.826
104.72 52040 228.123
104.836 51829 227.66
104.953 50549 224.831
105.069 48425 220.057
105.186 45439 213.164
105.302 42441 206.012
105.418 38746 196.84
105.535 35085 187.31
105.651 31268 176.828
105.767 28682 169.358
105.883 27971 167.245
105.999 26705 163.417
106.115 0 1
106.231 0 1
106.347 0 1
106.463 0 1
106.579 0 1
106.694 0 1
106.81 0 1
106.926 0 1
107.041 0 1
107.157 0 1
109.576 0 1
109.692 0 1
109.807 0 1
109.923 0 1
110.039 0 1
110.155 0 1
110.27 0 1
110.386 0 1
110.502 0 1
110.618 20471 143.077
110.735 22875 151.245
110.851 26101 161.558
110.967 29965 173.104
111.083 33626 183.374
111.199 37619 193.956
111.316 40370 200.923
111.432 42731 206.715
111.549 43600 208.806
111.665 43693 209.029
111.782 42929 207.193
111.898 42632 206.475
112.015 41640 204.059
112.132 40892 202.218
112.248 39176 197.929
112.365 38676 196.662
112.482 38418 196.005
112.599 39851 199.627
112.716 40481 201.199
112.832 40867 202.156
112.949 41768 204.372
113.066 41736 204.294
113.183 42118 205.227
113.3 42320 205.718
113.417 42019 204.985
113.534 41330 203.298
113.652 41429 203.541
113.769 41387 203.438
113.886 40835 202.077
114.003 39502 198.751
114.12 37868 194.597
114.238 35712 188.976
114.355 34308 185.224
114.472 33630 183.385
114.589 38438 196.056
114.707 39706 199.264
114.824 41597 203.953
114.942 42667 206.56
115.059 43329 208.156
115.176 43691 209.024
115.294 42568 206.32
115.411 42211 205.453
115.529 41192 202.958
115.646 39566 198.912
115.764 38065 195.103
115.881 37677 194.106
115.999 37203 192.881
116.116 38242 195.556
116.234 38473 196.145
116.351 39590 198.972
116.469 39716 199.289
116.586 40255 200.636
116.704 40057 200.142
116.821 40216 200.539
116.939 40799 201.988
117.056 40513 201.278
117.174 40258 200.644
117.291 40588 201.465
117.409 39583 198.955
117.526 39455 198.633
117.644 38304 195.714
117.761 37049 192.481
117.879 35090 187.323
117.996 34137 184.762
118.114 35905 189.486
118.231 38280 195.653
118.349 39280 198.192
118.466 40839 202.087
118.584 41716 204.245
118.701 42148 205.3
118.819 42051 205.063
118.936 40543 201.353
119.053 39950 199.875
119.171 38298 195.699
119.288 36986 192.317
119.405 36118 190.047
119.523 35646 188.801
119.64 36109 190.024
119.757 36219 190.313
119.875 36818 191.88
119.992 37620 193.959
120.109 37765 194.332
120.226 37908 194.7
120.343 38093 195.174
120.46 38004 194.946
120.578 38015 194.974
120.695 38374 195.893
120.812 38637 196.563
120.929 38388 195.929
121.046 38244 195.561
121.163 37586 193.871
121.279 37393 193.373
121.396 35795 189.196
121.513 34237 185.032
121.63 33269 182.398
121.747 32297 179.714
121.863 32361 179.892
121.98 33453 182.902
122.097 33608 183.325
122.213 33255 182.36
122.33 32639 180.663
122.446 30997 176.06
122.563 29141 170.707
122.679 27245 165.061
122.795 24769 157.382
122.912 22657 150.522
123.028 20858 144.423
123.144 19659 140.211
123.26 18619 136.451
123.377 0 1
123.493 0 1
123.609 0 1
123.725 0 1
123.84 0 1
123.956 0 1
124.072 0 1
124.188 0 1
124.303 0 1
124.419 0 1
126.852 0 1
126.968 0 1
127.083 0 1
127.199 0 1
127.315 0 1
127.431 0 1
127.547 0 1
127.663 0 1
127.779 0 1
127.895 0 1
128.011 0 1
128.127 0 1
128.243 0 1
128.359 39167 197.907
128.476 39918 199.795
128.592 39644 199.108
128.708 40224 200.559
128.825 40583 201.452
128.941 41691 204.184
129.058 42531 206.23
129.174 43154 207.735
129.291 43550 208.686
129.408 43892 209.504
129.524 43171 207.776
129.641 43564 208.72
129.758 43743 209.148
129.875 43841 209.382
129.992 44232 210.314
130.108 43874 209.461
130.225 43936 209.609
130.342 43534 208.648
130.459 41859 204.595
130.576 40549 201.368
130.693 38187 195.415
130.81 36440 190.893
130.928 36769 191.752
131.045 38515 196.252
131.162 39736 199.339
131.279 41537 203.806
131.396 41944 204.802
131.513 41332 203.303
131.631 41417 203.512
131.748 40273 200.681
131.865 39128 197.808
131.983 38353 195.839
132.1 38450 196.087
132.217 39065 197.649
132.335 39626 199.063
132.452 40420 201.047
132.57 41205 202.99
132.687 42282 205.626
132.804 41474 203.652
132.922 41783 204.409
133.039 42321 205.721
133.157 42384 205.874
133.274 42031 205.015
133.392 42656 206.533
133.509 42596 206.388
133.627 42830 206.954
133.744 42523 206.211
133.862 42108 205.202
133.979 41526 203.779
134.097 40238 200.594
134.214 38582 196.423
134.332 35603 188.688
134.449 35253 187.758
134.567 35778 189.151
134.684 37648 194.031
134.802 38466 196.128
134.919 39607 199.015
135.037 39325 198.305
135.154 38967 197.401
135.272 38177 195.389
135.389 37880 194.628
135.507 37295 193.119
135.624 37394 193.375
135.742 37989 194.908
135.859 39215 198.028
135.977 39742 199.354
136.094 40368 200.918
136.211 40864 202.148
136.329 41155 202.867
136.446 41007 202.502
136.564 41653 204.091
136.681 41827 204.517
136.798 41275 203.162
136.915 41896 204.685
137.033 42210 205.451
137.15 41673 204.14
137.267 41578 203.907
137.384 41630 204.034
137.502 41207 202.995
137.619 40117 200.292
137.736 39471 198.673
137.853 36133 190.087
137.97 34688 186.247
138.087 33344 182.603
138.204 33737 183.676
138.321 35287 187.848
138.438 36972 192.281
138.555 38601 196.471
138.672 38279 195.65
138.788 37927 194.749
138.905 37450 193.52
139.022 36263 190.428
139.139 34961 186.979
139.255 33898 184.114
139.372 32762 181.003
139.488 31501 177.485
139.605 30363 174.25
139.721 29405 171.479
139.838 28202 167.935
139.954 26873 163.93
140.071 25311 159.094
140.187 24160 155.435
140.303 23414 153.016
140.419 22300 149.332
140.535 21606 146.99
140.652 20536 143.304
140.768 0 1
140.884 0 1
141 0 1
141.115 0 1
141.231 0 1
141.347 0 1
141.463 0 1
141.578 0 1
141.694 0 1
144.104 0 1
144.219 0 1
144.335 0 1
144.45 0 1
144.566 0 1
144.682 0 1
144.798 0 1
144.914 0 1
145.03 0 1
145.146 27909 167.06
145.262 29767 172.531
145.378 30097 173.485
145.494 30402 174.362
145.61 30495 174.628
145.726 30343 174.192
145.842 30468 174.551
145.959 30381 174.301
146.075 30098 173.488
146.192 30570 174.843
146.308 30149 173.635
146.425 29380 171.406
146.541 29013 170.332
146.658 27760 166.613
146.774 26570 163.003
146.891 25207 158.767
147.008 24409 156.234
147.125 24880 157.734
147.241 25959 161.118
147.358 27179 164.861
147.475 27367 165.43
147.592 27148 164.767
147.709 26677 163.331
147.826 26490 162.757
147.943 26196 161.852
148.06 26767 163.606
148.177 27196 164.912
148.294 27861 166.916
148.411 28596 169.104
148.528 28977 170.226
148.645 29126 170.663
148.762 29080 170.529
148.88 29083 170.537
148.997 29784 172.58
149.114 28176 167.857
149.231 28783 169.656
149.349 29122 170.652
149.466 28982 170.241
149.583 29148 170.728
149.701 28607 169.136
149.818 28629 169.201
149.935 28685 169.366
150.053 28519 168.876
150.17 28293 168.205
150.287 28089 167.598
150.405 27332 165.324
150.522 26018 161.301
150.64 24638 156.965
150.757 24315 155.933
150.875 24948 157.949
150.992 25717 160.365
151.11 26112 161.592
151.227 25629 160.091
151.344 25304 159.072
151.462 24855 157.655
151.579 25728 160.4
151.697 26085 161.509
151.814 26532 162.886
151.932 27341 165.351
152.049 27736 166.541
152.167 27696 166.421
152.284 27615 166.178
152.402 27760 166.613
152.519 27615 166.178
152.636 27838 166.847
152.754 27404 165.542
152.871 27611 166.166
152.989 27481 165.774
153.106 27650 166.283
153.223 27799 166.73
153.341 27366 165.427
153.458 27133 164.721
153.575 26938 164.128
153.693 26831 163.802
153.81 26726 163.481
153.927 27030 164.408
154.044 25870 160.842
154.162 25526 159.769
154.279 24203 155.573
154.396 24505 156.541
154.513 25311 159.094
154.63 26142 161.685
154.747 25937 161.05
154.864 26046 161.388
154.981 25476 159.612
155.098 25638 160.119
155.215 25696 160.3
155.332 26120 161.617
155.449 26542 162.917
155.566 26843 163.838
155.683 26773 163.625
155.8 26720 163.463
155.917 26603 163.104
156.033 26235 161.972
156.15 0 1
156.267 0 1
156.383 0 1
156.5 0 1
156.617 0 1
156.733 0 1
156.85 0 1
156.966 0 1
157.082 0 1
157.199 0 1
157.315 0 1
157.431 0 1
157.547 0 1
157.664 0 1
157.78 0 1
157.896 0 1
158.012 0 1
158.128 0 1
158.244 0 1
158.359 0 1
158.475 0 1
158.591 0 1
158.706 0 1
