
6.15755 0 1
6.2731 0 1
6.3887 0 1
6.50437 0 1
6.62009 0 1
6.73587 0 1
6.8517 0 1
6.96759 0 1
7.08353 0 1
7.19952 0 1
7.31557 0 1
7.43166 0 1
7.54781 0 1
7.664 0 1
7.78024 0 1
7.89653 0 1
8.01286 0 1
8.12924 0 1
8.24567 0 1
8.36213 0 1
8.47864 0 1
8.59519 0 1
8.71178 0 1
8.82841 0 1
8.94508 0 1
9.06179 0 1
9.17853 0 1
9.29531 0 1
9.41212 0 1
9.52897 0 1
9.64584 0 1
9.76276 0 1
9.8797 0 1
9.99667 0 1
10.1137 0 1
10.2307 0 1
10.3478 0 1
10.4648 0 1
10.5819 0 1
10.6991 0 1
10.8162 0 1
10.9334 0 1
11.0506 0 1
11.1678 0 1
11.285 0 1
11.4023 0 1
11.5196 0 1
11.6369 0 1
11.7542 0 1
11.8715 0 1
11.9888 0 1
12.1062 0 1
12.2235 0 1
12.3409 0 1
12.4582 0 1
12.5756 0 1
12.693 0 1
12.8104 0 1
12.9278 0 1
13.0452 0 1
13.1626 0 1
13.28 0 1
13.3974 0 1
13.5149 0 1
13.6323 0 1
13.7497 0 1
13.8671 0 1
13.9845 0 1
14.1019 0 1
14.2193 0 1
14.3367 0 1
14.4541 0 1
14.5714 0 1
14.6888 0 1
14.8062 0 1
14.9235 0 1
15.0408 0 0
15.1581 0 0
15.2755 0 0
15.3927 0 0
15.51 0 0
15.6273 0 0
15.7445 0 0
15.8617 0 0
15.9789 0 0
16.0961 0 0
16.2132 0 0
16.3304 0 0
16.4475 0 0
16.5646 0 0
16.6816 0 0
16.7986 0 0
16.9156 0 0
17.0326 0 0
17.1496 0 0
17.2665 0 0
17.3833 0 0
17.5002 0 0
17.617 0 0
17.7338 0 0
17.8505 0 0
17.9672 0 0
18.0839 0 0
18.2005 0 0
18.3171 0 0
18.4337 0 0
18.5502 0 0
18.6666 0 0
18.7831 0 0
18.8994 0 0
19.0158 0 0
19.1321 0 0
19.2483 0 0
19.3645 0 0
19.4806 0 0
19.5967 0 0
19.7128 0 0
19.8288 0 0
19.9447 0 0
20.0606 0 1
20.1764 0 1
20.2922 0 1
20.4079 0 1
20.5236 0 1
20.6392 0 1
20.7548 0 1
20.8702 0 1
23.3078 0 1
23.4233 0 1
23.539 0 1
23.6547 0 1
23.7704 0 1
23.8862 0 1
24.0021 0 1
24.118 0 1
24.234 0 1
24.35 0 1
24.4661 49337 222.119
24.5822 56410 237.508
24.6984 62625 250.25
24.8146 68433 261.597
24.9309 73086 270.344
25.0472 77828 278.977
25.1636 81638 285.724
25.28 87262 295.401
25.3965 90227 300.378
25.513 93037 305.02
25.6296 96865 311.231
25.7462 99366 315.224
25.8628 100133 316.438
25.9795 101029 317.851
26.0962 102374 319.959
26.213 102654 320.397
26.3298 102187 319.667
26.4466 101993 319.363
26.5635 101558 318.682
26.6804 102126 319.572
26.7973 101899 319.216
26.9143 102637 320.37
27.0313 102200 319.687
27.1483 104420 323.141
27.2653 105693 325.105
27.3824 106978 327.075
27.4996 106137 325.787
27.6167 104929 323.927
27.7339 102606 320.322
27.8511 100178 316.509
27.9683 98099 313.208
28.0855 96247 310.237
28.2028 94658 307.665
28.3201 93671 306.057
28.4374 92509 304.153
28.5547 91091 301.813
28.6721 90096 300.16
28.7894 89140 298.563
28.9068 88401 297.323
29.0242 88234 297.042
29.1416 87694 296.132
29.259 87606 295.983
29.3764 88383 297.293
29.4939 88408 297.335
29.6113 88755 297.918
29.7288 89122 298.533
29.8463 90254 300.423
29.9638 90058 300.097
30.0812 91105 301.836
30.1987 91799 302.983
30.3162 91878 303.114
30.4337 92941 304.862
30.5512 92930 304.844
30.6687 94621 307.605
30.7862 95864 309.619
30.9037 96063 309.94
31.0212 97402 312.093
31.1387 96647 310.881
31.2562 95461 308.968
31.3737 93239 305.351
31.4912 91378 302.288
31.6087 90441 300.734
31.7262 88420 297.355
31.8436 86984 294.931
31.9611 85780 292.882
32.0785 84976 291.506
32.1959 84096 289.993
32.3134 83537 289.028
32.4308 82521 287.265
32.5482 81559 285.585
32.6655 81454 285.401
32.7829 82052 286.447
32.9002 82516 287.256
33.0176 83135 288.331
33.1349 82768 287.694
33.2522 82340 286.949
33.3694 83121 288.307
33.4867 84240 290.241
33.6039 85054 291.64
33.7211 85630 292.626
33.8383 85745 292.822
33.9554 86084 293.401
34.0725 86993 294.946
34.1896 87656 296.068
34.3067 88843 298.065
34.4237 89577 299.294
34.5407 90402 300.669
34.6577 92400 303.974
34.7746 91636 302.714
34.8915 90186 300.31
35.0084 88522 297.526
35.1252 87888 296.459
35.242 86363 293.876
35.3587 85222 291.928
35.4755 83989 289.809
35.5921 82101 286.533
35.7088 80775 284.209
35.8254 79624 282.177
35.9419 78412 280.021
36.0584 75806 275.329
36.1749 74381 272.729
36.2913 71330 267.077
36.4077 69123 262.913
36.524 67681 260.156
36.6403 66109 257.117
36.7565 64840 254.637
36.8727 63304 251.603
36.9889 60944 246.868
37.1049 58266 241.384
37.221 0 1
37.3369 0 1
37.4529 0 1
37.5687 0 1
37.6845 0 1
37.8003 0 1
37.916 0 1
38.0316 0 1
38.1472 0 1
40.5851 0 1
40.7008 0 1
40.8164 0 1
40.9322 0 1
41.048 0 1
41.1639 0 1
41.2798 0 1
41.3958 0 1
41.5118 0 1
41.6279 0 1
41.744 32804 181.119
41.8602 36112 190.032
41.9765 40055 200.137
42.0928 43130 207.678
42.2091 46291 215.153
42.3255 49678 222.886
42.4419 53402 231.089
42.5584 56658 238.029
42.675 59996 244.941
42.7915 61690 248.375
42.9081 63786 252.559
43.0248 66458 257.794
43.1415 68925 262.536
43.2582 70012 264.598
43.375 71911 268.162
43.4918 73021 270.224
43.6087 74262 272.511
43.7256 72653 269.542
43.8425 71774 267.907
43.9595 71385 267.18
44.0765 69646 263.905
44.1935 68322 261.385
44.3106 67594 259.988
44.4277 67377 259.571
44.5448 65339 255.615
44.6619 64447 253.864
44.7791 64196 253.369
44.8963 62341 249.682
45.0136 61075 247.134
45.1308 59802 244.544
45.2481 58755 242.394
45.3654 57989 240.809
45.4827 58558 241.988
45.6001 58677 242.233
45.7174 59466 243.857
45.8348 61724 248.443
45.9522 63040 251.078
46.0697 65559 256.045
46.1871 67417 259.648
46.3046 69085 262.84
46.422 70015 264.603
46.5395 69512 263.651
46.657 70836 266.15
46.7745 72647 269.531
46.892 73498 271.105
47.0096 74473 272.897
47.1271 75774 275.271
47.2446 75496 274.765
47.3622 74533 273.007
47.4797 73273 270.69
47.5973 71367 267.146
47.7149 71185 266.805
47.8324 69653 263.919
47.95 68096 260.952
48.0675 67853 260.486
48.1851 66013 256.93
48.3027 65203 255.349
48.4202 63381 251.756
48.5378 61081 247.146
48.6554 59197 243.304
48.7729 57560 239.917
48.8904 56661 238.036
49.008 56348 237.377
49.1255 56616 237.941
49.243 57135 239.029
49.3605 59153 243.214
49.478 61071 247.125
49.5955 63466 251.925
49.713 65213 255.368
49.8304 66778 258.414
49.9479 67960 260.691
50.0653 68420 261.572
50.1827 69847 264.286
50.3001 70845 266.167
50.4175 71331 267.079
50.5348 72955 270.102
50.6521 73642 271.371
50.7694 73743 271.557
50.8867 73503 271.114
51.004 71945 268.226
51.1212 70802 266.086
51.2384 70227 265.004
51.3556 69041 262.757
51.4727 67928 260.63
51.5899 66343 257.571
51.707 66526 257.926
51.824 65575 256.076
51.9411 64661 254.285
52.0581 63127 251.251
52.175 61028 247.038
52.2919 59297 243.51
52.4088 57903 240.63
52.5257 58590 242.054
52.6425 58932 242.759
52.7593 58768 242.421
52.876 59497 243.92
52.9927 60901 246.781
53.1094 62059 249.116
53.226 63358 251.71
53.3426 63830 252.646
53.4591 64036 253.053
53.5756 63372 251.738
53.692 61657 248.308
53.8084 60564 246.098
53.9248 58771 242.427
54.0411 56110 236.875
54.1573 54587 233.639
54.2735 0 1
54.3896 0 1
54.5057 0 1
54.6217 0 1
54.7377 0 1
54.8537 0 1
54.9695 0 1
55.0853 0 1
55.2011 0 1
55.3168 0 1
55.4324 0 1
57.824 0 1
57.9396 0 1
58.0553 0 1
58.1711 0 1
58.2869 0 1
58.4028 0 1
58.5187 0 1
58.6347 0 1
58.7508 0 1
58.8669 0 1
58.983 47243 217.355
59.0992 54085 232.562
59.2155 60380 245.723
59.3318 66225 257.342
59.4482 70454 265.432
59.5646 74433 272.824
59.681 77412 278.23
59.7975 78868 280.834
59.9141 80550 283.813
60.0306 81952 286.273
60.1473 82047 286.438
60.2639 83299 288.616
60.3807 82970 288.045
60.4974 82298 286.876
60.6142 81427 285.354
60.731 79167 281.366
60.8479 76240 276.116
60.9648 73025 270.231
61.0818 70481 265.483
61.1987 68953 262.589
61.3158 68495 261.715
61.4328 69107 262.882
61.5499 71260 266.946
61.667 73277 270.697
61.7841 76896 277.301
61.9013 79907 282.678
62.0185 82575 287.359
62.1357 84055 289.922
62.253 87181 295.264
62.3702 88274 297.109
62.4875 89576 299.292
62.6049 91139 301.892
62.7222 92516 304.164
62.8396 93334 305.506
62.9569 93163 305.226
63.0743 93146 305.198
63.1918 91782 302.955
63.3092 91188 301.974
63.4267 89549 299.247
63.5441 87859 296.41
63.6616 86562 294.214
63.7791 84931 291.429
63.8966 84201 290.174
64.0142 83032 288.153
64.1317 80818 284.285
64.2492 78320 279.857
64.3668 75528 274.824
64.4843 71971 268.274
64.6019 69320 263.287
64.7195 67420 259.654
64.837 66757 258.374
64.9546 66421 257.723
65.0722 67651 260.098
65.1898 69854 264.299
65.3074 72284 268.857
65.4249 76463 276.519
65.5425 79364 281.716
65.6601 81659 285.76
65.7777 83722 289.348
65.8952 85464 292.342
66.0128 86733 294.505
66.1304 88507 297.501
66.2479 88534 297.547
66.3655 89739 299.565
66.483 91635 302.713
66.6005 90272 300.453
66.718 90318 300.53
66.8355 89193 298.652
66.953 88029 296.697
67.0705 87050 295.042
67.1879 85442 292.305
67.3054 84040 289.897
67.4228 82703 287.581
67.5402 81957 286.281
67.6576 80493 283.713
67.7749 77801 278.928
67.8923 76320 276.261
68.0096 72852 269.911
68.1269 69211 263.08
68.2442 66182 257.259
68.3614 64435 253.841
68.4787 63331 251.657
68.5958 63137 251.271
68.713 63950 252.883
68.8302 66513 257.901
68.9473 69928 264.439
69.0643 73172 270.503
69.1814 77318 278.061
69.2984 79526 282.004
69.4154 81850 286.094
69.5323 83037 288.161
69.6492 82990 288.08
69.7661 83449 288.875
69.8829 82624 287.444
69.9997 82478 287.19
70.1165 82242 286.779
70.2332 81254 285.051
70.3499 78934 280.952
70.4665 75760 275.245
70.5831 73005 270.194
70.6996 68998 262.675
70.8161 66745 258.351
70.9326 62912 250.823
71.049 59088 243.08
71.1653 55024 234.572
71.2817 51300 226.495
71.3979 46584 215.833
71.5141 42082 205.139
71.6303 36602 191.316
71.7464 30000 173.205
71.8624 0 1
71.9784 0 1
72.0944 0 1
72.2102 0 1
72.3261 0 1
72.4418 0 1
72.5575 0 1
72.6732 0 1
75.1054 0 1
75.2209 0 1
75.3365 0 1
75.4521 0 1
75.5678 0 1
75.6835 0 1
75.7993 0 1
75.9151 0 1
76.031 0 1
76.147 52659 229.475
76.263 57273 239.318
76.3791 60188 245.332
76.4952 62067 249.132
76.6113 62908 250.815
76.7276 64261 253.498
76.8438 63717 252.422
76.9601 62016 249.03
77.0765 60313 245.587
77.1929 58039 240.913
77.3093 56529 237.758
77.4258 55039 234.604
77.5423 54800 234.094
77.6589 55700 236.008
77.7755 56463 237.619
77.8921 59860 244.663
78.0088 63247 251.49
78.1256 66162 257.22
78.2423 69439 263.513
78.3591 72758 269.737
78.4759 73600 271.293
78.5928 74972 273.81
78.7097 75775 275.273
78.8266 77519 278.422
78.9436 76592 276.753
79.0606 77684 278.718
79.1776 78975 281.025
79.2946 79282 281.571
79.4117 79256 281.524
79.5288 77563 278.501
79.6459 76805 277.137
79.7631 76140 275.935
79.8802 75475 274.727
79.9974 74439 272.835
80.1147 73966 271.967
80.2319 72795 269.805
80.3491 71743 267.849
80.4664 69865 264.32
80.5837 67593 259.987
80.701 65255 255.451
80.8183 61593 248.179
80.9357 58009 240.851
81.053 55739 236.091
81.1704 54822 234.141
81.2877 55412 235.398
81.4051 55635 235.871
81.5225 58309 241.473
81.6399 61149 247.283
81.7573 64647 254.258
81.8747 68844 262.381
81.9922 70991 266.441
82.1096 74125 272.259
82.227 74291 272.564
82.3444 75057 273.965
82.4619 76751 277.04
82.5793 77770 278.873
82.6967 78595 280.348
82.8142 78778 280.674
82.9316 79684 282.284
83.049 79094 281.237
83.1664 78312 279.843
83.2838 77665 278.684
83.4012 77049 277.577
83.5186 76574 276.72
83.636 75283 274.377
83.7534 74538 273.016
83.8708 72864 269.933
83.9881 71538 267.466
84.1055 70461 265.445
84.2228 68045 260.854
84.3401 63814 252.614
84.4575 61340 247.669
84.5747 57821 240.46
84.692 54533 233.523
84.8093 53168 230.582
84.9265 53939 232.248
85.0437 55043 234.612
85.1609 58640 242.157
85.2781 61656 248.306
85.3952 65872 256.655
85.5123 68791 262.28
85.6294 71929 268.196
85.7465 74547 273.033
85.8636 76622 276.807
85.9806 77277 277.987
86.0976 77954 279.202
86.2145 78977 281.028
86.3315 79628 282.184
86.4484 81574 285.612
86.5652 81163 284.891
86.682 81001 284.607
86.7988 79934 282.726
86.9156 78765 280.651
87.0323 76536 276.651
87.149 74098 272.209
87.2657 72591 269.427
87.3823 69461 263.555
87.4988 67669 260.133
87.6154 64390 253.752
87.7318 62404 249.808
87.8483 58271 241.394
87.9647 54121 232.639
88.081 49502 222.49
88.1973 44699 211.421
88.3136 40962 202.391
88.4298 38897 197.223
88.546 37719 194.214
88.6621 36498 191.044
88.7781 35551 188.55
88.8942 0 1
89.0101 0 1
89.126 0 1
89.2419 0 1
89.3577 0 1
89.4734 0 1
89.5891 0 1
89.7047 0 1
89.8203 0 1
89.9358 0 1
92.3269 0 1
92.4424 0 1
92.558 0 1
92.6736 0 1
92.7893 0 1
92.905 0 1
93.0208 0 1
93.1366 0 1
93.2525 0 1
93.3685 0 1
93.4845 0 1
93.6005 45617 213.581
93.7167 45732 213.85
93.8328 47333 217.561
93.949 48165 219.465
94.0653 49695 222.924
94.1816 51784 227.561
94.2979 55030 234.585
94.4143 59902 244.749
94.5307 64420 253.811
94.6472 68707 262.12
94.7637 72221 268.74
94.8803 75886 275.474
94.9969 77575 278.523
95.1135 79370 281.727
95.2302 80843 284.329
95.3469 82553 287.32
95.4637 83261 288.55
95.5805 82981 288.064
95.6973 84545 290.766
95.8142 83550 289.05
95.9311 83125 288.314
96.048 81375 285.263
96.1649 81610 285.675
96.2819 80506 283.736
96.3989 79241 281.498
96.516 78713 280.558
96.633 77834 278.987
96.7501 76651 276.859
96.8673 75842 275.394
96.9844 73636 271.36
97.1016 70456 265.435
97.2188 66453 257.785
97.336 63257 251.509
97.4532 59526 243.98
97.5704 57876 240.574
97.6877 56569 237.842
97.805 56897 238.531
97.9223 58541 241.952
98.0396 62294 249.588
98.1569 65872 256.655
98.2743 69166 262.994
98.3916 72985 270.157
98.509 77308 278.043
98.6264 78850 280.802
98.7438 80359 283.477
98.8612 82078 286.493
98.9786 82744 287.653
99.096 84258 290.272
99.2134 85727 292.792
99.3308 86218 293.629
99.4482 86130 293.479
99.5656 85638 292.64
99.6831 85332 292.116
99.8005 83490 288.946
99.9179 83571 289.086
100.035 82199 286.704
100.153 81814 286.031
100.27 80508 283.739
100.388 79328 281.652
100.505 77673 278.699
100.622 76153 275.958
100.74 72675 269.583
100.857 68544 261.809
100.975 64435 253.841
101.092 62063 249.124
101.209 60433 245.831
101.327 60909 246.797
101.444 61985 248.968
101.561 65217 255.376
101.679 69373 263.388
101.796 73231 270.612
101.913 76450 276.496
102.03 78349 279.909
102.148 81690 285.815
102.265 80876 284.387
102.382 86379 293.903
102.499 85740 292.814
102.616 86651 294.365
102.733 87477 295.765
102.851 89456 299.092
102.968 88458 297.419
103.085 89187 298.642
103.202 87147 295.207
103.319 86474 294.065
103.436 85870 293.036
103.552 84080 289.966
103.669 83686 289.285
103.786 82577 287.362
103.903 82379 287.017
104.02 80705 284.086
104.137 77733 278.806
104.253 74735 273.377
104.37 70197 264.947
104.487 66811 258.478
104.603 64243 253.462
104.72 62413 249.826
104.836 61743 248.481
104.953 61925 248.847
105.069 62867 250.733
105.186 64253 253.482
105.302 65394 255.723
105.418 66847 258.548
105.535 67150 259.133
105.651 65398 255.73
105.767 63410 251.813
105.883 61023 247.028
105.999 57105 238.967
106.115 0 1
106.231 0 1
106.347 0 1
106.463 0 1
106.579 0 1
106.694 0 1
106.81 0 1
106.926 0 1
107.041 0 1
107.157 0 1
109.576 0 1
109.692 0 1
109.807 0 1
109.923 0 1
110.039 0 1
110.155 0 1
110.27 0 1
110.386 0 1
110.502 0 1
110.618 36615 191.35
110.735 43425 208.387
110.851 49651 222.825
110.967 54357 233.146
111.083 58913 242.72
111.199 64411 253.793
111.316 67967 260.705
111.432 70928 266.323
111.549 73208 270.57
111.665 73956 271.949
111.782 74882 273.646
111.898 75099 274.042
112.015 75071 273.991
112.132 73678 271.437
112.248 73744 271.558
112.365 72444 269.154
112.482 72235 268.766
112.599 70377 265.287
112.716 68075 260.912
112.832 64913 254.78
112.949 62385 249.77
113.066 58886 242.664
113.183 56946 238.634
113.3 56066 236.783
113.417 55417 235.408
113.534 56290 237.255
113.652 58235 241.319
113.769 60658 246.288
113.886 63343 251.68
114.003 66757 258.374
114.12 68713 262.132
114.238 70897 266.265
114.355 71944 268.224
114.472 75590 274.936
114.589 71351 267.116
114.707 74186 272.371
114.824 76084 275.833
114.942 76770 277.074
115.059 77329 278.081
115.176 77280 277.993
115.294 76182 276.011
115.411 75291 274.392
115.529 74046 272.114
115.646 72785 269.787
115.764 71427 267.258
115.881 70691 265.878
115.999 69192 263.044
116.116 67688 260.169
116.234 66252 257.395
116.351 64112 253.203
116.469 61809 248.614
116.586 58999 242.897
116.704 56904 238.546
116.821 55169 234.881
116.939 54485 233.42
117.056 55178 234.9
117.174 56178 237.019
117.291 58255 241.361
117.409 60389 245.742
117.526 62945 250.888
117.644 65580 256.086
117.761 67195 259.22
117.879 68452 261.633
117.996 69221 263.099
118.114 70666 265.831
118.231 71532 267.455
118.349 72746 269.715
118.466 73926 271.893
118.584 73680 271.441
118.701 73864 271.779
118.819 73342 270.817
118.936 71999 268.326
119.053 71148 266.736
119.171 69549 263.721
119.288 68508 261.74
119.405 67304 259.43
119.523 66513 257.901
119.64 65205 255.353
119.757 63809 252.604
119.875 62698 250.396
119.992 61042 247.067
120.109 58845 242.58
120.226 56583 237.872
120.343 55062 234.653
120.46 53939 232.248
120.578 53601 231.519
120.695 53743 231.825
120.812 54153 232.708
120.929 55337 235.238
121.046 56737 238.195
121.163 58257 241.365
121.279 58897 242.687
121.396 59872 244.688
121.513 60582 246.134
121.63 61334 247.657
121.747 60812 246.601
121.863 60513 245.994
121.98 60946 246.872
122.097 60557 246.083
122.213 59480 243.885
122.33 57794 240.404
122.446 56387 237.459
122.563 54285 232.991
122.679 51524 226.989
122.795 48565 220.375
122.912 45235 212.685
123.028 42300 205.67
123.144 39307 198.26
123.26 35884 189.431
123.377 0 1
123.493 0 1
123.609 0 1
123.725 0 1
123.84 0 1
123.956 0 1
124.072 0 1
124.188 0 1
124.303 0 1
124.419 0 1
126.852 0 1
126.968 0 1
127.083 0 1
127.199 0 1
127.315 0 1
127.431 0 1
127.547 0 1
127.663 0 1
127.779 0 1
127.895 0 1
128.011 0 1
128.127 0 1
128.243 0 1
128.359 64823 254.604
128.476 66000 256.905
128.592 67178 259.187
128.708 67724 260.238
128.825 68554 261.828
128.941 68414 261.561
129.058 67899 260.574
129.174 66643 258.153
129.291 64841 254.639
129.408 63845 252.676
129.524 62448 249.896
129.641 62496 249.992
129.758 61425 247.841
129.875 61664 248.322
129.992 62611 250.222
130.108 64867 254.69
130.225 65301 255.541
130.342 67412 259.638
130.459 69944 264.469
130.576 70036 264.643
130.693 71835 268.021
130.81 73311 270.76
130.928 73833 271.722
131.045 75381 274.556
131.162 76525 276.632
131.279 77355 278.128
131.396 77700 278.747
131.513 77990 279.267
131.631 76446 276.489
131.748 75643 275.033
131.865 74245 272.479
131.983 73456 271.028
132.1 71474 267.346
132.217 71239 266.906
132.335 70314 265.168
132.452 69517 263.661
132.57 68676 262.061
132.687 67771 260.329
132.804 64800 254.558
132.922 64522 254.012
133.039 63333 251.66
133.157 63041 251.08
133.274 62624 250.248
133.392 62939 250.876
133.509 63159 251.315
133.627 64138 253.255
133.744 65078 255.104
133.862 66733 258.327
133.979 68565 261.849
134.097 70057 264.683
134.214 71203 266.839
134.332 72283 268.855
134.449 73622 271.334
134.567 73871 271.792
134.684 75261 274.337
134.802 76435 276.469
134.919 76890 277.29
135.037 77135 277.732
135.154 75002 273.865
135.272 74399 272.762
135.389 73835 271.726
135.507 72270 268.831
135.624 71284 266.991
135.742 70460 265.443
135.859 69763 264.127
135.977 69200 263.059
136.094 68023 260.812
136.211 67286 259.395
136.329 66299 257.486
136.446 65438 255.809
136.564 63884 252.753
136.681 63531 252.054
136.798 63401 251.796
136.915 63453 251.899
137.033 63272 251.539
137.15 63413 251.819
137.267 63978 252.939
137.384 65179 255.302
137.502 66005 256.914
137.619 66783 258.424
137.736 67756 260.3
137.853 66529 257.932
137.97 67981 260.732
138.087 72636 269.511
138.204 71891 268.125
138.321 73138 270.44
138.438 73199 270.553
138.555 73440 270.998
138.672 72871 269.946
138.788 70223 264.996
138.905 67885 260.548
139.022 65519 255.967
139.139 62842 250.683
139.255 60398 245.76
139.372 57681 240.169
139.488 54434 233.311
139.605 52160 228.386
139.721 49356 222.162
139.838 46579 215.822
139.954 43952 209.647
140.071 41218 203.022
140.187 36888 192.062
140.303 33974 184.32
140.419 31379 177.141
140.535 29528 171.837
140.652 27223 164.994
140.768 0 1
140.884 0 1
141 0 1
141.115 0 1
141.231 0 1
141.347 0 1
141.463 0 1
141.578 0 1
141.694 0 1
144.104 0 1
144.219 0 1
144.335 0 1
144.45 0 1
144.566 0 1
144.682 0 1
144.798 0 1
144.914 0 1
145.03 0 1
145.146 45398 213.068
145.262 46734 216.18
145.378 47825 218.689
145.494 48505 220.239
145.61 48819 220.95
145.726 49092 221.567
145.842 49307 222.052
145.959 49954 223.504
146.075 49902 223.388
146.192 50374 224.442
146.308 50301 224.279
146.425 51025 225.887
146.541 51420 226.76
146.658 51651 227.269
146.774 52080 228.21
146.891 52994 230.204
147.008 54054 232.495
147.125 54215 232.841
147.241 55658 235.919
147.358 56409 237.506
147.475 55791 236.201
147.592 55231 235.013
147.709 54301 233.026
147.826 53358 230.994
147.943 52317 228.729
148.06 51772 227.535
148.177 50459 224.631
148.294 50976 225.779
148.411 50805 225.4
148.528 50446 224.602
148.645 50938 225.694
148.762 50323 224.328
148.88 50338 224.361
148.997 50887 225.581
149.114 48335 219.852
149.231 49377 222.209
149.349 49173 221.75
149.466 48577 220.402
149.583 48946 221.237
149.701 49122 221.635
149.818 48297 219.766
149.935 49718 222.975
150.053 49782 223.119
150.17 50180 224.009
150.287 50658 225.073
150.405 51381 226.674
150.522 52139 228.34
150.64 52753 229.68
150.757 53236 230.729
150.875 54133 232.665
150.992 54391 233.219
151.11 54295 233.013
151.227 54002 232.383
151.344 52828 229.843
151.462 51204 226.283
151.579 50988 225.805
151.697 50060 223.741
151.814 49750 223.047
151.932 49496 222.477
152.049 49177 221.759
152.167 48994 221.346
152.284 48486 220.195
152.402 48553 220.347
152.519 48209 219.565
152.636 47992 219.071
152.754 47982 219.048
152.871 47151 217.143
152.989 47449 217.828
153.106 47277 217.433
153.223 47167 217.18
153.341 46729 216.169
153.458 47153 217.147
153.575 47450 217.83
153.693 47911 218.886
153.81 47945 218.963
153.927 48551 220.343
154.044 48753 220.801
154.162 49582 222.67
154.279 50374 224.442
154.396 51440 226.804
154.513 52038 228.118
154.63 51733 227.449
154.747 52060 228.167
154.864 50927 225.67
154.981 49556 222.612
155.098 48612 220.481
155.215 47762 218.545
155.332 46933 216.64
155.449 46828 216.398
155.566 45505 213.319
155.683 45195 212.591
155.8 44657 211.322
155.917 43909 209.545
156.033 43045 207.473
156.15 0 1
156.267 0 1
156.383 0 1
156.5 0 1
156.617 0 1
156.733 0 1
156.85 0 1
156.966 0 1
157.082 0 1
157.199 0 1
157.315 0 1
157.431 0 1
157.547 0 1
157.664 0 1
157.78 0 1
157.896 0 1
158.012 0 1
158.128 0 1
158.244 0 1
158.359 0 1
158.475 0 1
158.591 0 1
158.706 0 1
