
6.15755 0 1
6.2731 0 1
6.3887 0 1
6.50437 0 1
6.62009 0 1
6.73587 0 1
6.8517 0 1
6.96759 0 1
7.08353 0 1
7.19952 0 1
7.31557 0 1
7.43166 0 1
7.54781 0 1
7.664 0 1
7.78024 0 1
7.89653 0 1
8.01286 0 1
8.12924 0 1
8.24567 0 1
8.36213 0 1
8.47864 0 1
8.59519 0 1
8.71178 0 1
8.82841 0 1
8.94508 0 1
9.06179 0 1
9.17853 0 1
9.29531 0 1
9.41212 0 1
9.52897 0 1
9.64584 0 1
9.76276 0 1
9.8797 0 1
9.99667 0 1
10.1137 0 1
10.2307 0 1
10.3478 0 1
10.4648 0 1
10.5819 0 1
10.6991 0 1
10.8162 0 1
10.9334 0 1
11.0506 0 1
11.1678 0 1
11.285 0 1
11.4023 0 1
11.5196 0 1
11.6369 0 1
11.7542 0 1
11.8715 0 1
11.9888 0 1
12.1062 0 1
12.2235 0 1
12.3409 0 1
12.4582 0 1
12.5756 0 1
12.693 0 1
12.8104 0 1
12.9278 0 1
13.0452 0 1
13.1626 0 1
13.28 0 1
13.3974 0 1
13.5149 0 1
13.6323 0 1
13.7497 0 1
13.8671 0 1
13.9845 0 1
14.1019 0 1
14.2193 0 1
14.3367 0 1
14.4541 0 1
14.5714 0 1
14.6888 0 1
14.8062 0 1
14.9235 0 1
15.0408 0 0
15.1581 0 0
15.2755 0 0
15.3927 0 0
15.51 0 0
15.6273 0 0
15.7445 0 0
15.8617 0 0
15.9789 0 0
16.0961 0 0
16.2132 0 0
16.3304 0 0
16.4475 0 0
16.5646 0 0
16.6816 0 0
16.7986 0 0
16.9156 0 0
17.0326 0 0
17.1496 0 0
17.2665 0 0
17.3833 0 0
17.5002 0 0
17.617 0 0
17.7338 0 0
17.8505 0 0
17.9672 0 0
18.0839 0 0
18.2005 0 0
18.3171 0 0
18.4337 0 0
18.5502 0 0
18.6666 0 0
18.7831 0 0
18.8994 0 0
19.0158 0 0
19.1321 0 0
19.2483 0 0
19.3645 0 0
19.4806 0 0
19.5967 0 0
19.7128 0 0
19.8288 0 0
19.9447 0 0
20.0606 0 1
20.1764 0 1
20.2922 0 1
20.4079 0 1
20.5236 0 1
20.6392 0 1
20.7548 0 1
20.8702 0 1
23.3078 0 1
23.4233 0 1
23.539 0 1
23.6547 0 1
23.7704 0 1
23.8862 0 1
24.0021 0 1
24.118 0 1
24.234 0 1
24.35 0 1
24.4661 1651 40.6325
24.5822 1636 40.4475
24.6984 1842 42.9185
24.8146 1798 42.4028
24.9309 2105 45.8803
25.0472 2159 46.465
25.1636 2282 47.7703
25.28 2652 51.4976
25.3965 2802 52.9339
25.513 3003 54.7996
25.6296 3110 55.7674
25.7462 3424 58.515
25.8628 3557 59.6406
25.9795 3584 59.8665
26.0962 3564 59.6992
26.213 3615 60.1249
26.3298 3450 58.7367
26.4466 3451 58.7452
26.5635 3479 58.983
26.6804 3407 58.3695
26.7973 3586 59.8832
26.9143 3455 58.7792
27.0313 3549 59.5735
27.1483 3654 60.4483
27.2653 3739 61.1474
27.3824 3619 60.1581
27.4996 3596 59.9667
27.6167 3568 59.7327
27.7339 3554 59.6154
27.8511 3533 59.439
27.9683 3367 58.0259
28.0855 3237 56.8946
28.2028 3066 55.3715
28.3201 2858 53.4603
28.4374 2718 52.1344
28.5547 2764 52.5738
28.6721 2938 54.2033
28.7894 3085 55.5428
28.9068 3148 56.107
29.0242 3226 56.7979
29.1416 3255 57.0526
29.259 3152 56.1427
29.3764 3244 56.9561
29.4939 3232 56.8507
29.6113 3191 56.4889
29.7288 3152 56.1427
29.8463 3227 56.8067
29.9638 3231 56.8419
30.0812 3430 58.5662
30.1987 3220 56.745
30.3162 3415 58.438
30.4337 3324 57.6541
30.5512 3522 59.3464
30.6687 3409 58.3866
30.7862 3494 59.1101
30.9037 3460 58.8218
31.0212 3517 59.3043
31.1387 3637 60.3075
31.2562 3403 58.3352
31.3737 3342 57.81
31.4912 3402 58.3267
31.6087 3174 56.3383
31.7262 3028 55.0273
31.8436 2828 53.1789
31.9611 2722 52.1728
32.0785 2746 52.4023
32.1959 2832 53.2165
32.3134 3166 56.2672
32.4308 3145 56.0803
32.5482 3117 55.8301
32.6655 3067 55.3805
32.7829 3109 55.7584
32.9002 3024 54.9909
33.0176 3071 55.4166
33.1349 3012 54.8817
33.2522 3169 56.2939
33.3694 3114 55.8032
33.4867 3182 56.4092
33.6039 3311 57.5413
33.7211 3186 56.4447
33.8383 3294 57.3934
33.9554 3360 57.9655
34.0725 3353 57.9051
34.1896 3307 57.5065
34.3067 3382 58.155
34.4237 3536 59.4643
34.5407 3589 59.9083
34.6577 3559 59.6574
34.7746 3397 58.2838
34.8915 3466 58.8727
35.0084 3359 57.9569
35.1252 3252 57.0263
35.242 3170 56.3028
35.3587 3077 55.4707
35.4755 2803 52.9434
35.5921 2567 50.6656
35.7088 2574 50.7346
35.8254 2576 50.7543
35.9419 2716 52.1153
36.0584 2854 53.4228
36.1749 2853 53.4135
36.2913 2926 54.0925
36.4077 2849 53.376
36.524 2721 52.1632
36.6403 2565 50.6458
36.7565 2559 50.5866
36.8727 2503 50.03
36.9889 2542 50.4183
37.1049 2349 48.4665
37.221 0 1
37.3369 0 1
37.4529 0 1
37.5687 0 1
37.6845 0 1
37.8003 0 1
37.916 0 1
38.0316 0 1
38.1472 0 1
40.5851 0 1
40.7008 0 1
40.8164 0 1
40.9322 0 1
41.048 0 1
41.1639 0 1
41.2798 0 1
41.3958 0 1
41.5118 0 1
41.6279 0 1
41.744 1476 38.4187
41.8602 1617 40.2119
41.9765 1742 41.7373
42.0928 1845 42.9535
42.2091 1913 43.7379
42.3255 2074 45.5412
42.4419 2167 46.551
42.5584 2217 47.085
42.675 2389 48.8774
42.7915 2588 50.8724
42.9081 2640 51.3809
43.0248 2827 53.1695
43.1415 2869 53.563
43.2582 2807 52.9811
43.375 2951 54.3231
43.4918 3003 54.7996
43.6087 3030 55.0454
43.7256 3028 55.0273
43.8425 3007 54.8361
43.9595 3057 55.2901
44.0765 3032 55.0636
44.1935 2857 53.4509
44.3106 2776 52.6878
44.4277 2626 51.2445
44.5448 2494 49.94
44.6619 2474 49.7393
44.7791 2644 51.4198
44.8963 2735 52.2972
45.0136 2777 52.6972
45.1308 2702 51.9808
45.2481 2700 51.9615
45.3654 2645 51.4296
45.4827 2662 51.5946
45.6001 2649 51.4684
45.7174 2686 51.8266
45.8348 2676 51.7301
45.9522 2605 51.0392
46.0697 2806 52.9717
46.1871 2798 52.8961
46.3046 2912 53.963
46.422 2976 54.5527
46.5395 2966 54.461
46.657 3214 56.6922
46.7745 3211 56.6657
46.892 3171 56.3116
47.0096 3229 56.8243
47.1271 3264 57.1314
47.2446 3383 58.1636
47.3622 3299 57.4369
47.4797 3333 57.7321
47.5973 3143 56.0625
47.7149 3171 56.3116
47.8324 3107 55.7405
47.95 2910 53.9444
48.0675 2815 53.0566
48.1851 2672 51.6914
48.3027 2738 52.3259
48.4202 2746 52.4023
48.5378 2815 53.0566
48.6554 2816 53.066
48.7729 2763 52.5642
48.8904 2735 52.2972
49.008 2782 52.7447
49.1255 2614 51.1273
49.243 2630 51.2835
49.3605 2678 51.7494
49.478 2706 52.0192
49.5955 2676 51.7301
49.713 2706 52.0192
49.8304 2852 53.4041
49.9479 2892 53.7773
50.0653 3104 55.7136
50.1827 3248 56.9912
50.3001 3238 56.9034
50.4175 3312 57.55
50.5348 3408 58.3781
50.6521 3377 58.112
50.7694 3389 58.2151
50.8867 3460 58.8218
51.004 3448 58.7197
51.1212 3344 57.8273
51.2384 3373 58.0775
51.3556 3185 56.4358
51.4727 3030 55.0454
51.5899 2834 53.2353
51.707 2780 52.7257
51.824 2682 51.788
51.9411 2770 52.6308
52.0581 2850 53.3854
52.175 2780 52.7257
52.2919 2720 52.1536
52.4088 2709 52.0481
52.5257 2611 51.0979
52.6425 2507 50.07
52.7593 2448 49.4773
52.876 2430 49.295
52.9927 2393 48.9183
53.1094 2418 49.1732
53.226 2439 49.3862
53.3426 2415 49.1426
53.4591 2520 50.1996
53.5756 2556 50.5569
53.692 2538 50.3786
53.8084 2742 52.3641
53.9248 2819 53.0943
54.0411 2667 51.643
54.1573 2476 49.7594
54.2735 0 1
54.3896 0 1
54.5057 0 1
54.6217 0 1
54.7377 0 1
54.8537 0 1
54.9695 0 1
55.0853 0 1
55.2011 0 1
55.3168 0 1
55.4324 0 1
57.824 0 1
57.9396 0 1
58.0553 0 1
58.1711 0 1
58.2869 0 1
58.4028 0 1
58.5187 0 1
58.6347 0 1
58.7508 0 1
58.8669 0 1
58.983 2111 45.9456
59.0992 2352 48.4974
59.2155 2610 51.0882
59.3318 2851 53.3948
59.4482 3147 56.0981
59.5646 3334 57.7408
59.681 3578 59.8164
59.7975 3355 57.9224
59.9141 3451 58.7452
60.0306 3296 57.4108
60.1473 3292 57.376
60.2639 3241 56.9298
60.3807 3171 56.3116
60.4974 3096 55.6417
60.6142 3120 55.857
60.731 3058 55.2992
60.8479 3229 56.8243
60.9648 3315 57.576
61.0818 3359 57.9569
61.1987 3342 57.81
61.3158 3324 57.6541
61.4328 3068 55.3895
61.5499 3080 55.4977
61.667 3068 55.3895
61.7841 3082 55.5158
61.9013 3297 57.4195
62.0185 3251 57.0175
62.1357 3384 58.1722
62.253 3590 59.9166
62.3702 3814 61.7576
62.4875 4134 64.2962
62.6049 4201 64.8151
62.7222 4251 65.1997
62.8396 4451 66.7158
62.9569 4607 67.8749
63.0743 4671 68.3447
63.1918 4608 67.8823
63.3092 4628 68.0294
63.4267 4290 65.4981
63.5441 4108 64.0937
63.6616 4023 63.4271
63.7791 3814 61.7576
63.8966 3536 59.4643
64.0142 3421 58.4893
64.1317 3321 57.6281
64.2492 3220 56.745
64.3668 3163 56.2406
64.4843 3210 56.6569
64.6019 3237 56.8946
64.7195 3239 56.9122
64.837 3026 55.0091
64.9546 3089 55.5788
65.0722 2888 53.7401
65.1898 2941 54.231
65.3074 3052 55.2449
65.4249 3050 55.2268
65.5425 3008 54.8452
65.6601 3271 57.1927
65.7777 3505 59.203
65.8952 3698 60.8112
66.0128 3812 61.7414
66.1304 4162 64.5136
66.2479 4251 65.1997
66.3655 4306 65.6201
66.483 4578 67.6609
66.6005 4653 68.2129
66.718 4679 68.4032
66.8355 4444 66.6633
66.953 4303 65.5973
67.0705 4238 65.0999
67.1879 3961 62.9365
67.3054 3781 61.4898
67.4228 3518 59.3127
67.5402 3231 56.8419
67.6576 3022 54.9727
67.7749 2847 53.3573
67.8923 2844 53.3292
68.0096 2991 54.69
68.1269 3012 54.8817
68.2442 3166 56.2672
68.3614 3146 56.0892
68.4787 3103 55.7046
68.5958 3005 54.8179
68.713 2927 54.1018
68.8302 2972 54.5161
68.9473 2850 53.3854
69.0643 2720 52.1536
69.1814 2759 52.5262
69.2984 2881 53.6749
69.4154 2899 53.8424
69.5323 2904 53.8888
69.6492 3359 57.9569
69.7661 3549 59.5735
69.8829 3742 61.1719
69.9997 3777 61.4573
70.1165 3750 61.2372
70.2332 3818 61.79
70.3499 3806 61.6928
70.4665 3699 60.8194
70.5831 3433 58.5918
70.6996 3255 57.0526
70.8161 3010 54.8635
70.9326 2882 53.6843
71.049 2561 50.6063
71.1653 2330 48.2701
71.2817 2021 44.9555
71.3979 1887 43.4396
71.5141 1835 42.8369
71.6303 1730 41.5933
71.7464 1545 39.3065
71.8624 0 1
71.9784 0 1
72.0944 0 1
72.2102 0 1
72.3261 0 1
72.4418 0 1
72.5575 0 1
72.6732 0 1
75.1054 0 1
75.2209 0 1
75.3365 0 1
75.4521 0 1
75.5678 0 1
75.6835 0 1
75.7993 0 1
75.9151 0 1
76.031 0 1
76.147 2242 47.3498
76.263 2195 46.8508
76.3791 2251 47.4447
76.4952 2058 45.3652
76.6113 1992 44.6318
76.7276 1988 44.587
76.8438 1993 44.643
76.9601 2071 45.5082
77.0765 2026 45.0111
77.1929 2515 50.1498
77.3093 2609 51.0784
77.4258 2733 52.2781
77.5423 2834 53.2353
77.6589 2625 51.2348
77.7755 2589 50.8822
77.8921 2606 51.049
78.0088 2520 50.1996
78.1256 2553 50.5272
78.2423 2584 50.8331
78.3591 2574 50.7346
78.4759 2763 52.5642
78.5928 3011 54.8726
78.7097 3368 58.0345
78.8266 3628 60.2329
78.9436 3906 62.498
79.0606 3892 62.3859
79.1776 4059 63.7103
79.2946 4134 64.2962
79.4117 4081 63.8827
79.5288 4039 63.5531
79.6459 3895 62.4099
79.7631 3764 61.3514
79.8802 3275 57.2276
79.9974 3155 56.1694
80.1147 2969 54.4885
80.2319 2769 52.6213
80.3491 2665 51.6236
80.4664 2627 51.2543
80.5837 2569 50.6853
80.701 2581 50.8035
80.8183 2663 51.6043
80.9357 2894 53.7959
81.053 3058 55.2992
81.1704 2955 54.3599
81.2877 2823 53.1319
81.4051 2697 51.9326
81.5225 2747 52.4118
81.6399 2623 51.2152
81.7573 2563 50.6261
81.8747 2654 51.517
81.9922 2740 52.345
82.1096 2832 53.2165
82.227 3065 55.3624
82.3444 3469 58.8982
82.4619 3915 62.57
82.5793 4163 64.5213
82.6967 4164 64.5291
82.8142 4218 64.9461
82.9316 4250 65.192
83.049 4207 64.8614
83.1664 4106 64.0781
83.2838 4012 63.3404
83.4012 3716 60.959
83.5186 3312 57.55
83.636 3131 55.9553
83.7534 3023 54.9818
83.8708 2770 52.6308
83.9881 2600 50.9902
84.1055 2559 50.5866
84.2228 2535 50.3488
84.3401 2598 50.9706
84.4575 2867 53.5444
84.5747 3056 55.2811
84.692 3295 57.4021
84.8093 3208 56.6392
84.9265 3188 56.4624
85.0437 2832 53.2165
85.1609 2763 52.5642
85.2781 2696 51.923
85.3952 2633 51.3128
85.5123 2634 51.3225
85.6294 2617 51.1566
85.7465 2839 53.2823
85.8636 3056 55.2811
85.9806 3436 58.6174
86.0976 3665 60.5392
86.2145 3895 62.4099
86.3315 4167 64.5523
86.4484 4154 64.4515
86.5652 4054 63.671
86.682 3995 63.206
86.7988 3884 62.3217
86.9156 3727 61.0492
87.0323 3441 58.66
87.149 3275 57.2276
87.2657 3245 56.9649
87.3823 2953 54.3415
87.4988 2825 53.1507
87.6154 2536 50.3587
87.7318 2382 48.8057
87.8483 2441 49.4065
87.9647 2347 48.4458
88.081 2428 49.2747
88.1973 2577 50.7642
88.3136 2440 49.3964
88.4298 2218 47.0956
88.546 1850 43.0116
88.6621 1532 39.1408
88.7781 1383 37.1887
88.8942 0 1
89.0101 0 1
89.126 0 1
89.2419 0 1
89.3577 0 1
89.4734 0 1
89.5891 0 1
89.7047 0 1
89.8203 0 1
89.9358 0 1
92.3269 0 1
92.4424 0 1
92.558 0 1
92.6736 0 1
92.7893 0 1
92.905 0 1
93.0208 0 1
93.1366 0 1
93.2525 0 1
93.3685 0 1
93.4845 0 1
93.6005 1750 41.833
93.7167 2154 46.4112
93.8328 2439 49.3862
93.949 2738 52.3259
94.0653 2720 52.1536
94.1816 2762 52.5547
94.2979 2819 53.0943
94.4143 2878 53.647
94.5307 2830 53.1977
94.6472 2818 53.0848
94.7637 2772 52.6498
94.8803 2922 54.0555
94.9969 3148 56.107
95.1135 3497 59.1354
95.2302 3816 61.7738
95.3469 4159 64.4903
95.4637 4412 66.4229
95.5805 4467 66.8356
95.6973 4452 66.7233
95.8142 4536 67.3498
95.9311 4320 65.7267
96.048 4319 65.7191
96.1649 4213 64.9076
96.2819 3691 60.7536
96.3989 3435 58.6089
96.516 3289 57.3498
96.633 3094 55.6237
96.7501 2998 54.754
96.8673 2693 51.8941
96.9844 2659 51.5655
97.1016 2703 51.9904
97.2188 2641 51.3907
97.336 2814 53.0471
97.4532 3268 57.1664
97.5704 3474 58.9406
97.6877 3606 60.05
97.805 3343 57.8187
97.9223 3146 56.0892
98.0396 2845 53.3385
98.1569 2864 53.5164
98.2743 2864 53.5164
98.3916 2717 52.1249
98.509 2907 53.9166
98.6264 3158 56.1961
98.7438 3316 57.5847
98.8612 3672 60.597
98.9786 3999 63.2376
99.096 4403 66.3551
99.2134 4444 66.6633
99.3308 4595 67.7864
99.4482 4589 67.7422
99.5656 4557 67.5056
99.6831 4534 67.335
99.8005 4363 66.053
99.9179 3907 62.506
100.035 3747 61.2127
100.153 3563 59.6909
100.27 3430 58.5662
100.388 3073 55.4346
100.505 2776 52.6878
100.622 2753 52.469
100.74 2657 51.5461
100.857 2892 53.7773
100.975 3221 56.7539
101.092 3575 59.7913
101.209 3555 59.6238
101.327 3532 59.4306
101.444 3168 56.285
101.561 3214 56.6922
101.679 3005 54.8179
101.796 3095 55.6327
101.913 3054 55.263
102.03 3173 56.3294
102.148 3332 57.7235
102.265 3452 58.7537
102.382 4043 63.5846
102.499 4276 65.3911
102.616 4495 67.0448
102.733 4600 67.8233
102.851 4854 69.6707
102.968 4784 69.1665
103.085 4798 69.2676
103.202 4924 70.1712
103.319 4670 68.3374
103.436 4326 65.7723
103.552 3930 62.6897
103.669 3766 61.3677
103.786 3482 59.0085
103.903 3143 56.0625
104.02 2926 54.0925
104.137 2774 52.6688
104.253 2844 53.3292
104.37 2936 54.1849
104.487 3153 56.1516
104.603 3280 57.2713
104.72 3269 57.1752
104.836 2957 54.3783
104.953 2728 52.2303
105.069 2527 50.2693
105.186 2437 49.366
105.302 2356 48.5386
105.418 2312 48.0833
105.535 2140 46.2601
105.651 2128 46.1303
105.767 2155 46.422
105.883 2254 47.4763
105.999 2404 49.0306
106.115 0 1
106.231 0 1
106.347 0 1
106.463 0 1
106.579 0 1
106.694 0 1
106.81 0 1
106.926 0 1
107.041 0 1
107.157 0 1
109.576 0 1
109.692 0 1
109.807 0 1
109.923 0 1
110.039 0 1
110.155 0 1
110.27 0 1
110.386 0 1
110.502 0 1
110.618 1901 43.6005
110.735 2164 46.5188
110.851 2363 48.6107
110.967 2665 51.6236
111.083 2982 54.6077
111.199 3196 56.5332
111.316 3382 58.155
111.432 3504 59.1946
111.549 3567 59.7244
111.665 3732 61.0901
111.782 3776 61.4492
111.898 3705 60.8687
112.015 3532 59.4306
112.132 3172 56.3205
112.248 3041 55.1453
112.365 2866 53.535
112.482 2750 52.4404
112.599 2579 50.7839
112.716 2496 49.96
112.832 2549 50.4876
112.949 2484 49.8397
113.066 2673 51.7011
113.183 2938 54.2033
113.3 3102 55.6956
113.417 3083 55.5248
113.534 2978 54.5711
113.652 2922 54.0555
113.769 2985 54.6352
113.886 2975 54.5436
114.003 2950 54.3139
114.12 2877 53.6377
114.238 3094 55.6237
114.355 3451 58.7452
114.472 3687 60.7207
114.589 3871 62.2174
114.707 4293 65.521
114.824 4444 66.6633
114.942 4666 68.3081
115.059 4590 67.7495
115.176 4644 68.1469
115.294 4575 67.6387
115.411 4508 67.1416
115.529 4163 64.5213
115.646 3788 61.5467
115.764 3519 59.3212
115.881 3430 58.5662
115.999 3049 55.2178
116.116 2937 54.1941
116.234 2730 52.2494
116.351 2789 52.811
116.469 2572 50.7149
116.586 2680 51.7687
116.704 2987 54.6535
116.821 3083 55.5248
116.939 3222 56.7627
117.056 3159 56.205
117.174 3052 55.2449
117.291 3081 55.5068
117.409 3209 56.648
117.526 3122 55.8749
117.644 3058 55.2992
117.761 3257 57.0701
117.879 3449 58.7282
117.996 3757 61.2944
118.114 4019 63.3956
118.231 4195 64.7688
118.349 4465 66.8207
118.466 4499 67.0746
118.584 4537 67.3573
118.701 4485 66.9701
118.819 4606 67.8675
118.936 4467 66.8356
119.053 4261 65.2763
119.171 4002 63.2614
119.288 3658 60.4814
119.405 3509 59.2368
119.523 3185 56.4358
119.64 3182 56.4092
119.757 2863 53.507
119.875 2675 51.7204
119.992 2682 51.788
120.109 2593 50.9215
120.226 2627 51.2543
120.343 2670 51.672
120.46 2830 53.1977
120.578 2885 53.7122
120.695 2806 52.9717
120.812 2917 54.0093
120.929 2883 53.6936
121.046 2845 53.3385
121.163 2727 52.2207
121.279 2639 51.3712
121.396 2747 52.4118
121.513 2904 53.8888
121.63 3089 55.5788
121.747 3221 56.7539
121.863 3351 57.8878
121.98 3395 58.2666
122.097 3517 59.3043
122.213 3440 58.6515
122.33 3328 57.6888
122.446 3321 57.6281
122.563 3218 56.7274
122.679 3013 54.8908
122.795 2829 53.1883
122.912 2546 50.4579
123.028 2355 48.5283
123.144 2126 46.1086
123.26 1937 44.0114
123.377 0 1
123.493 0 1
123.609 0 1
123.725 0 1
123.84 0 1
123.956 0 1
124.072 0 1
124.188 0 1
124.303 0 1
124.419 0 1
126.852 0 1
126.968 0 1
127.083 0 1
127.199 0 1
127.315 0 1
127.431 0 1
127.547 0 1
127.663 0 1
127.779 0 1
127.895 0 1
128.011 0 1
128.127 0 1
128.243 0 1
128.359 3598 59.9833
128.476 3403 58.3352
128.592 3311 57.5413
128.708 3207 56.6304
128.825 3147 56.0981
128.941 3090 55.5878
129.058 2932 54.1479
129.174 2953 54.3415
129.291 2898 53.8331
129.408 3007 54.8361
129.524 3163 56.2406
129.641 3348 57.8619
129.758 3371 58.0603
129.875 3458 58.8048
129.992 3488 59.0593
130.108 3496 59.127
130.225 3416 58.4466
130.342 3482 59.0085
130.459 3472 58.9237
130.576 3553 59.607
130.693 3893 62.3939
130.81 3911 62.538
130.928 4158 64.4826
131.045 4378 66.1665
131.162 4383 66.2042
131.279 4428 66.5432
131.396 4238 65.0999
131.513 4325 65.7647
131.631 4192 64.7457
131.748 4200 64.8074
131.865 4038 63.5453
131.983 3897 62.426
132.1 3683 60.6877
132.217 3567 59.7244
132.335 3611 60.0916
132.452 3286 57.3236
132.57 3138 56.0179
132.687 3128 55.9285
132.804 2952 54.3323
132.922 3081 55.5068
133.039 3082 55.5158
133.157 3277 57.2451
133.274 3353 57.9051
133.392 3406 58.3609
133.509 3499 59.1523
133.627 3598 59.9833
133.744 3458 58.8048
133.862 3581 59.8415
133.979 3499 59.1523
134.097 3658 60.4814
134.214 3753 61.2617
134.332 3968 62.9921
134.449 4127 64.2417
134.567 4185 64.6916
134.684 4251 65.1997
134.802 4244 65.146
134.919 4150 64.4205
135.037 4443 66.6558
135.154 4203 64.8305
135.272 4176 64.622
135.389 4035 63.5216
135.507 4051 63.6475
135.624 3852 62.0645
135.742 3769 61.3922
135.859 3584 59.8665
135.977 3542 59.5147
136.094 3379 58.1292
136.211 3364 58
136.329 3256 57.0614
136.446 3225 56.7891
136.564 3223 56.7715
136.681 3248 56.9912
136.798 3361 57.9741
136.915 3346 57.8446
137.033 3693 60.7701
137.15 3608 60.0666
137.267 3522 59.3464
137.384 3633 60.2744
137.502 3497 59.1354
137.619 3574 59.7829
137.736 3613 60.1082
137.853 3589 59.9083
137.97 3803 61.6685
138.087 3961 62.9365
138.204 3953 62.8729
138.321 3843 61.9919
138.438 3928 62.6738
138.555 3824 61.8385
138.672 3817 61.7819
138.788 3682 60.6795
138.905 3537 59.4727
139.022 3445 58.6941
139.139 3400 58.3095
139.255 3133 55.9732
139.372 3097 55.6507
139.488 2876 53.6284
139.605 2661 51.5849
139.721 2508 50.0799
139.838 2276 47.7074
139.954 2173 46.6154
140.071 2020 44.9444
140.187 1872 43.2666
140.303 1867 43.2088
140.419 1825 42.72
140.535 1755 41.8927
140.652 1644 40.5463
140.768 0 1
140.884 0 1
141 0 1
141.115 0 1
141.231 0 1
141.347 0 1
141.463 0 1
141.578 0 1
141.694 0 1
144.104 0 1
144.219 0 1
144.335 0 1
144.45 0 1
144.566 0 1
144.682 0 1
144.798 0 1
144.914 0 1
145.03 0 1
145.146 2364 48.621
145.262 2471 49.7092
145.378 2598 50.9706
145.494 2531 50.309
145.61 2827 53.1695
145.726 2868 53.5537
145.842 2922 54.0555
145.959 2970 54.4977
146.075 3066 55.3715
146.192 2945 54.2679
146.308 2824 53.1413
146.425 2889 53.7494
146.541 3025 55
146.658 3201 56.5774
146.774 3152 56.1427
146.891 3317 57.5934
147.008 3404 58.3438
147.125 3411 58.4038
147.241 3497 59.1354
147.358 3466 58.8727
147.475 3430 58.5662
147.592 3358 57.9483
147.709 3404 58.3438
147.826 3340 57.7927
147.943 3313 57.5587
148.06 3295 57.4021
148.177 3178 56.3738
148.294 3175 56.3471
148.411 3033 55.0727
148.528 2967 54.4702
148.645 3007 54.8361
148.762 2897 53.8238
148.88 2908 53.9259
148.997 2891 53.768
149.114 2951 54.3231
149.231 2998 54.754
149.349 3036 55.0999
149.466 3065 55.3624
149.583 3174 56.3383
149.701 3121 55.8659
149.818 2923 54.0648
149.935 3000 54.7723
150.053 3019 54.9454
150.17 2999 54.7631
150.287 3180 56.3915
150.405 3237 56.8946
150.522 3316 57.5847
150.64 3436 58.6174
150.757 3537 59.4727
150.875 3398 58.2924
150.992 3581 59.8415
151.11 3524 59.3633
151.227 3547 59.5567
151.344 3604 60.0333
151.462 3403 58.3352
151.579 3465 58.8643
151.697 3399 58.3009
151.814 3355 57.9224
151.932 3296 57.4108
152.049 3260 57.0964
152.167 3108 55.7494
152.284 3036 55.0999
152.402 3148 56.107
152.519 3016 54.9181
152.636 3060 55.3173
152.754 3118 55.8391
152.871 3080 55.4977
152.989 3287 57.3324
153.106 3175 56.3471
153.223 3241 56.9298
153.341 3279 57.2626
153.458 3209 56.648
153.575 3081 55.5068
153.693 3106 55.7315
153.81 3131 55.9553
153.927 3318 57.6021
154.044 3516 59.2959
154.162 3375 58.0948
154.279 3638 60.3158
154.396 3650 60.4152
154.513 3602 60.0167
154.63 3744 61.1882
154.747 3731 61.0819
154.864 3645 60.3738
154.981 3569 59.7411
155.098 3643 60.3573
155.215 3539 59.4895
155.332 3357 57.9396
155.449 3335 57.7495
155.566 3380 58.1378
155.683 3069 55.3986
155.8 2937 54.1941
155.917 2940 54.2218
156.033 2667 51.643
156.15 0 1
156.267 0 1
156.383 0 1
156.5 0 1
156.617 0 1
156.733 0 1
156.85 0 1
156.966 0 1
157.082 0 1
157.199 0 1
157.315 0 1
157.431 0 1
157.547 0 1
157.664 0 1
157.78 0 1
157.896 0 1
158.012 0 1
158.128 0 1
158.244 0 1
158.359 0 1
158.475 0 1
158.591 0 1
158.706 0 1
