
6.15755 0 1
6.2731 0 1
6.3887 0 1
6.50437 0 1
6.62009 0 1
6.73587 0 1
6.8517 0 1
6.96759 0 1
7.08353 0 1
7.19952 0 1
7.31557 0 1
7.43166 0 1
7.54781 0 1
7.664 0 1
7.78024 0 1
7.89653 0 1
8.01286 0 1
8.12924 0 1
8.24567 0 1
8.36213 0 1
8.47864 0 1
8.59519 0 1
8.71178 0 1
8.82841 0 1
8.94508 0 1
9.06179 0 1
9.17853 0 1
9.29531 0 1
9.41212 0 1
9.52897 0 1
9.64584 0 1
9.76276 0 1
9.8797 0 1
9.99667 0 1
10.1137 0 1
10.2307 0 1
10.3478 0 1
10.4648 0 1
10.5819 0 1
10.6991 0 1
10.8162 0 1
10.9334 0 1
11.0506 0 1
11.1678 0 1
11.285 0 1
11.4023 0 1
11.5196 0 1
11.6369 0 1
11.7542 0 1
11.8715 0 1
11.9888 0 1
12.1062 0 1
12.2235 0 1
12.3409 0 1
12.4582 0 1
12.5756 0 1
12.693 0 1
12.8104 0 1
12.9278 0 1
13.0452 0 1
13.1626 0 1
13.28 0 1
13.3974 0 1
13.5149 0 1
13.6323 0 1
13.7497 0 1
13.8671 0 1
13.9845 0 1
14.1019 0 1
14.2193 0 1
14.3367 0 1
14.4541 0 1
14.5714 0 1
14.6888 0 1
14.8062 0 1
14.9235 0 1
15.0408 0 0
15.1581 0 0
15.2755 0 0
15.3927 0 0
15.51 0 0
15.6273 0 0
15.7445 0 0
15.8617 0 0
15.9789 0 0
16.0961 0 0
16.2132 0 0
16.3304 0 0
16.4475 0 0
16.5646 0 0
16.6816 0 0
16.7986 0 0
16.9156 0 0
17.0326 0 0
17.1496 0 0
17.2665 0 0
17.3833 0 0
17.5002 0 0
17.617 0 0
17.7338 0 0
17.8505 0 0
17.9672 0 0
18.0839 0 0
18.2005 0 0
18.3171 0 0
18.4337 0 0
18.5502 0 0
18.6666 0 0
18.7831 0 0
18.8994 0 0
19.0158 0 0
19.1321 0 0
19.2483 0 0
19.3645 0 0
19.4806 0 0
19.5967 0 0
19.7128 0 0
19.8288 0 0
19.9447 0 0
20.0606 0 1
20.1764 0 1
20.2922 0 1
20.4079 0 1
20.5236 0 1
20.6392 0 1
20.7548 0 1
20.8702 0 1
23.3078 0 1
23.4233 0 1
23.539 0 1
23.6547 0 1
23.7704 0 1
23.8862 0 1
24.0021 0 1
24.118 0 1
24.234 0 1
24.35 0 1
24.4661 15762 125.547
24.5822 15718 125.371
24.6984 15852 125.905
24.8146 15824 125.793
24.9309 16067 126.756
25.0472 16051 126.693
25.1636 16423 128.152
25.28 16427 128.168
25.3965 16506 128.476
25.513 16323 127.761
25.6296 16703 129.24
25.7462 17056 130.599
25.8628 16830 129.73
25.9795 16934 130.131
26.0962 16735 129.364
26.213 16803 129.626
26.3298 16437 128.207
26.4466 16101 126.89
26.5635 14968 122.344
26.6804 13962 118.161
26.7973 13033 114.162
26.9143 13585 116.555
27.0313 14266 119.44
27.1483 15087 122.829
27.2653 15680 125.22
27.3824 16103 126.898
27.4996 16096 126.87
27.6167 16209 127.315
27.7339 15994 126.467
27.8511 15566 124.764
27.9683 15719 125.375
28.0855 16011 126.535
28.2028 15858 125.929
28.3201 15691 125.264
28.4374 15653 125.112
28.5547 15580 124.82
28.6721 15963 126.345
28.7894 15901 126.099
28.9068 15681 125.224
29.0242 15909 126.131
29.1416 15656 125.124
29.259 15985 126.432
29.3764 15910 126.135
29.4939 15689 125.256
29.6113 16119 126.961
29.7288 15994 126.467
29.8463 15648 125.092
29.9638 14917 122.135
30.0812 13949 118.106
30.1987 12956 113.824
30.3162 12202 110.463
30.4337 12676 112.588
30.5512 13449 115.97
30.6687 14312 119.633
30.7862 15120 122.963
30.9037 15310 123.734
31.0212 15922 126.182
31.1387 16208 127.311
31.2562 15893 126.067
31.3737 15895 126.075
31.4912 15665 125.16
31.6087 15540 124.66
31.7262 15423 124.189
31.8436 15491 124.463
31.9611 15726 125.403
32.0785 15597 124.888
32.1959 15796 125.682
32.3134 15982 126.42
32.4308 15992 126.459
32.5482 16236 127.421
32.6655 15941 126.258
32.7829 16037 126.637
32.9002 15784 125.634
33.0176 15973 126.384
33.1349 16175 127.181
33.2522 16002 126.499
33.3694 16160 127.122
33.4867 15958 126.325
33.6039 15624 124.996
33.7211 14473 120.304
33.8383 13216 114.961
33.9554 12421 111.45
34.0725 12687 112.637
34.1896 13483 116.116
34.3067 14354 119.808
34.4237 15041 122.642
34.5407 15557 124.728
34.6577 16067 126.756
34.7746 16299 127.668
34.8915 16357 127.894
35.0084 16194 127.256
35.1252 15971 126.376
35.242 15728 125.411
35.3587 15995 126.471
35.4755 15701 125.304
35.5921 15673 125.192
35.7088 15781 125.622
35.8254 15936 126.238
35.9419 16485 128.394
36.0584 16096 126.87
36.1749 16396 128.047
36.2913 15980 126.412
36.4077 16475 128.355
36.524 16248 127.468
36.6403 16329 127.785
36.7565 16215 127.338
36.8727 16263 127.526
36.9889 16079 126.803
37.1049 16062 126.736
37.221 0 1
37.3369 0 1
37.4529 0 1
37.5687 0 1
37.6845 0 1
37.8003 0 1
37.916 0 1
38.0316 0 1
38.1472 0 1
40.5851 0 1
40.7008 0 1
40.8164 0 1
40.9322 0 1
41.048 0 1
41.1639 0 1
41.2798 0 1
41.3958 0 1
41.5118 0 1
41.6279 0 1
41.744 13292 115.291
41.8602 13761 117.307
41.9765 13819 117.554
42.0928 13917 117.97
42.2091 14062 118.583
42.3255 13895 117.877
42.4419 13187 114.835
42.5584 12094 109.973
42.675 10878 104.298
42.7915 10575 102.835
42.9081 10952 104.652
43.0248 12044 109.745
43.1415 12851 113.362
43.2582 13463 116.03
43.375 13805 117.495
43.4918 13801 117.478
43.6087 13885 117.835
43.7256 13757 117.29
43.8425 13601 116.623
43.9595 13499 116.185
44.0765 12997 114.004
44.1935 12926 113.693
44.3106 12653 112.486
44.4277 12565 112.094
44.5448 12088 109.945
44.6619 12251 110.684
44.7791 12463 111.638
44.8963 12637 112.414
45.0136 12975 113.908
45.1308 12763 112.973
45.2481 12571 112.12
45.3654 12589 112.201
45.4827 12580 112.161
45.6001 12637 112.414
45.7174 12552 112.036
45.8348 12273 110.784
45.9522 12009 109.586
46.0697 11414 106.836
46.1871 10139 100.693
46.3046 9347 96.6799
46.422 9195 95.8906
46.5395 9639 98.1784
46.657 10565 102.786
46.7745 11305 106.325
46.892 11557 107.503
47.0096 11553 107.485
47.1271 11828 108.757
47.2446 11778 108.526
47.3622 11602 107.713
47.4797 11463 107.065
47.5973 10998 104.871
47.7149 10891 104.36
47.8324 10691 103.397
47.95 10277 101.376
48.0675 10056 100.28
48.1851 10178 100.886
48.3027 10407 102.015
48.4202 10724 103.557
48.5378 10815 103.995
48.6554 11004 104.9
48.7729 11115 105.428
48.8904 11119 105.447
49.008 11245 106.042
49.1255 11503 107.252
49.243 11404 106.79
49.3605 11679 108.069
49.478 11122 105.461
49.5955 10648 103.189
49.713 9553 97.7394
49.8304 8818 93.9042
49.9479 8748 93.5307
50.0653 9733 98.656
50.1827 11295 106.278
50.3001 12172 110.327
50.4175 12960 113.842
50.5348 13548 116.396
50.6521 14077 118.647
50.7694 14051 118.537
50.8867 14502 120.424
51.004 14464 120.266
51.1212 14782 121.581
51.2384 14761 121.495
51.3556 14687 121.19
51.4727 14622 120.921
51.5899 14845 121.84
51.707 14972 122.36
51.824 15544 124.676
51.9411 16166 127.146
52.0581 16805 129.634
52.175 17236 131.286
52.2919 17362 131.765
52.4088 17850 133.604
52.5257 18246 135.078
52.6425 18087 134.488
52.7593 18576 136.294
52.876 18891 137.445
52.9927 19075 138.112
53.1094 18617 136.444
53.226 17278 131.446
53.3426 15578 124.812
53.4591 14429 120.121
53.5756 14449 120.204
53.692 16180 127.201
53.8084 18156 134.744
53.9248 19817 140.773
54.0411 20572 143.429
54.1573 21257 145.798
54.2735 0 1
54.3896 0 1
54.5057 0 1
54.6217 0 1
54.7377 0 1
54.8537 0 1
54.9695 0 1
55.0853 0 1
55.2011 0 1
55.3168 0 1
55.4324 0 1
57.824 0 1
57.9396 0 1
58.0553 0 1
58.1711 0 1
58.2869 0 1
58.4028 0 1
58.5187 0 1
58.6347 0 1
58.7508 0 1
58.8669 0 1
58.983 26447 162.625
59.0992 28233 168.027
59.2155 29802 172.633
59.3318 30402 174.362
59.4482 30395 174.342
59.5646 30861 175.673
59.681 30944 175.909
59.7975 30240 173.897
59.9141 29709 172.363
60.0306 29176 170.81
60.1473 28667 169.313
60.2639 27970 167.242
60.3807 28343 168.354
60.4974 28816 169.753
60.6142 29749 172.479
60.731 30200 173.781
60.8479 31129 176.434
60.9648 31358 177.082
61.0818 32149 179.301
61.1987 31761 178.216
61.3158 32188 179.41
61.4328 31910 178.634
61.5499 31401 177.203
61.667 30315 174.112
61.7841 28118 167.684
61.9013 26149 161.707
62.0185 24416 156.256
62.1357 24205 155.58
62.253 26311 162.207
62.3702 29135 170.69
62.4875 31533 177.575
62.6049 32512 180.311
62.7222 33589 183.273
62.8396 34093 184.643
62.9569 34056 184.543
63.0743 34076 184.597
63.1918 34064 184.564
63.3092 33527 183.104
63.4267 32806 181.124
63.5441 32162 179.338
63.6616 31172 176.556
63.7791 30894 175.767
63.8966 30713 175.251
64.0142 31614 177.803
64.1317 32350 179.861
64.2492 33193 182.189
64.3668 33978 184.331
64.4843 35150 187.483
64.6019 35009 187.107
64.7195 35517 188.46
64.837 36054 189.879
64.9546 35753 189.085
65.0722 35558 188.568
65.1898 34531 185.825
65.3074 32892 181.362
65.4249 29530 171.843
65.5425 27099 164.618
65.6601 25904 160.947
65.7777 27193 164.903
65.8952 29918 172.968
66.0128 33222 182.269
66.1304 35729 189.021
66.2479 36736 191.666
66.3655 37981 194.887
66.483 38448 196.082
66.6005 38467 196.13
66.718 38542 196.321
66.8355 38103 195.2
66.953 37666 194.077
67.0705 36710 191.599
67.1879 36035 189.829
67.3054 35183 187.571
67.4228 33995 184.377
67.5402 34216 184.976
67.6576 35203 187.625
67.7749 36074 189.932
67.8923 38280 195.653
68.0096 39503 198.754
68.1269 40302 200.754
68.2442 40949 202.359
68.3614 41182 202.933
68.4787 41439 203.566
68.5958 42194 205.412
68.713 41797 204.443
68.8302 40999 202.482
68.9473 38914 197.266
69.0643 35526 188.483
69.1814 32814 181.146
69.2984 30354 174.224
69.4154 31565 177.665
69.5323 35293 187.864
69.6492 39149 197.861
69.7661 42718 206.683
69.8829 43956 209.657
69.9997 45390 213.049
70.1165 45851 214.128
70.2332 46529 215.706
70.3499 46215 214.977
70.4665 45595 213.53
70.5831 45040 212.226
70.6996 44298 210.471
70.8161 42609 206.419
70.9326 41253 203.108
71.049 39876 199.69
71.1653 38977 197.426
71.2817 38638 196.566
71.3979 39499 198.744
71.5141 40717 201.785
71.6303 42206 205.441
71.7464 40499 201.244
71.8624 0 1
71.9784 0 1
72.0944 0 1
72.2102 0 1
72.3261 0 1
72.4418 0 1
72.5575 0 1
72.6732 0 1
75.1054 0 1
75.2209 0 1
75.3365 0 1
75.4521 0 1
75.5678 0 1
75.6835 0 1
75.7993 0 1
75.9151 0 1
76.031 0 1
76.147 41695 204.194
76.263 43506 208.581
76.3791 43019 207.41
76.4952 41007 202.502
76.6113 41753 204.336
76.7276 43291 208.065
76.8438 45054 212.259
76.9601 46832 216.407
77.0765 48934 221.21
77.1929 49958 223.513
77.3093 50844 225.486
77.4258 50414 224.531
77.5423 50394 224.486
77.6589 50409 224.519
77.7755 49316 222.072
77.8921 47094 217.012
78.0088 43221 207.897
78.1256 39280 198.192
78.2423 36105 190.013
78.3591 34678 186.22
78.4759 35403 188.157
78.5928 39789 199.472
78.7097 43611 208.832
78.8266 49168 221.739
78.9436 47013 216.825
79.0606 49504 222.495
79.1776 49702 222.939
79.2946 49861 223.296
79.4117 49862 223.298
79.5288 49603 222.717
79.6459 48447 220.107
79.7631 47318 217.527
79.8802 45568 213.467
79.9974 43482 208.523
80.1147 41494 203.701
80.2319 40875 202.176
80.3491 41450 203.593
80.4664 43542 208.667
80.5837 45639 213.633
80.701 47903 218.868
80.8183 47894 218.847
80.9357 48732 220.753
81.053 49158 221.716
81.1704 48816 220.943
81.2877 48787 220.878
81.4051 48608 220.472
81.5225 48411 220.025
81.6399 43611 208.832
81.7573 40795 201.978
81.8747 36618 191.358
81.9922 34642 186.124
82.1096 34906 186.831
82.227 37571 193.832
82.3444 40723 201.799
82.4619 44072 209.933
82.5793 45289 212.812
82.6967 48281 219.729
82.8142 47504 217.954
82.9316 47601 218.177
83.049 47014 216.827
83.1664 46183 214.902
83.2838 44995 212.12
83.4012 44589 211.161
83.5186 42699 206.637
83.636 40661 201.646
83.7534 38100 195.192
83.8708 36826 191.901
83.9881 37570 193.83
84.1055 39528 198.816
84.2228 41068 202.652
84.3401 43484 208.528
84.4575 45734 213.855
84.5747 46185 214.907
84.692 46841 216.428
84.8093 46799 216.331
84.9265 47139 217.115
85.0437 47003 216.802
85.1609 44699 211.421
85.2781 40852 202.119
85.3952 38035 195.026
85.5123 36002 189.742
85.6294 34727 186.352
85.7465 36477 190.99
85.8636 40757 201.884
85.9806 43472 208.499
86.0976 46671 216.035
86.2145 48544 220.327
86.3315 48865 221.054
86.4484 52625 229.401
86.5652 51278 226.446
86.682 51722 227.425
86.7988 50590 224.922
86.9156 50587 224.916
87.0323 49059 221.493
87.149 48070 219.249
87.2657 45247 212.713
87.3823 43766 209.203
87.4988 42412 205.942
87.6154 44316 210.514
87.7318 46992 216.776
87.8483 50018 223.647
87.9647 52778 229.735
88.081 54419 233.279
88.1973 54631 233.733
88.3136 55202 234.951
88.4298 55407 235.387
88.546 54969 234.455
88.6621 53650 231.625
88.7781 50742 225.26
88.8942 0 1
89.0101 0 1
89.126 0 1
89.2419 0 1
89.3577 0 1
89.4734 0 1
89.5891 0 1
89.7047 0 1
89.8203 0 1
89.9358 0 1
92.3269 0 1
92.4424 0 1
92.558 0 1
92.6736 0 1
92.7893 0 1
92.905 0 1
93.0208 0 1
93.1366 0 1
93.2525 0 1
93.3685 0 1
93.4845 0 1
93.6005 53789 231.925
93.7167 54395 233.227
93.8328 54302 233.028
93.949 54405 233.249
94.0653 53624 231.569
94.1816 52076 228.202
94.2979 49945 223.484
94.4143 46546 215.745
94.5307 43957 209.659
94.6472 42230 205.499
94.7637 42043 205.044
94.8803 44590 211.163
94.9969 46978 216.744
95.1135 49566 222.634
95.2302 50697 225.16
95.3469 53486 231.27
95.4637 55569 235.731
95.5805 56148 236.956
95.6973 56990 238.726
95.8142 57101 238.958
95.9311 56243 237.156
96.048 55927 236.489
96.1649 54396 233.23
96.2819 52748 229.669
96.3989 49969 223.537
96.516 47461 217.855
96.633 45263 212.751
96.7501 44533 211.028
96.8673 46728 216.167
96.9844 49938 223.468
97.1016 53287 230.84
97.2188 56023 236.692
97.336 57507 239.806
97.4532 57612 240.025
97.5704 57525 239.844
97.6877 57359 239.497
97.805 56636 237.983
97.9223 54989 234.497
98.0396 50831 225.457
98.1569 47802 218.637
98.2743 45061 212.276
98.3916 44642 211.287
98.509 45418 213.115
98.6264 47910 218.884
98.7438 50741 225.258
98.8612 52621 229.393
98.9786 55237 235.026
99.096 56902 238.541
99.2134 57962 240.753
99.3308 58826 242.541
99.4482 58846 242.582
99.5656 59229 243.37
99.6831 58010 240.853
99.8005 56732 238.185
99.9179 55059 234.647
100.035 52847 229.885
100.153 49160 221.721
100.27 46204 214.951
100.388 47073 216.963
100.505 50452 224.615
100.622 54812 234.12
100.74 57584 239.967
100.857 59459 243.842
100.975 59847 244.636
101.092 59762 244.463
101.209 59529 243.986
101.327 59825 244.591
101.444 59293 243.502
101.561 57079 238.912
101.679 53454 231.201
101.796 49576 222.657
101.913 47476 217.89
102.03 47418 217.757
102.148 49500 222.486
102.265 55678 235.962
102.382 52819 229.824
102.499 57189 239.142
102.616 59100 243.105
102.733 61563 248.119
102.851 62861 250.721
102.968 63169 251.334
103.085 62934 250.866
103.202 62037 249.072
103.319 61312 247.613
103.436 59401 243.723
103.552 56475 237.645
103.669 52589 229.323
103.786 48937 221.217
103.903 49386 222.23
104.02 53560 231.43
104.137 58584 242.041
104.253 64170 253.318
104.37 62793 250.585
104.487 64810 254.578
104.603 65378 255.691
104.72 64853 254.663
104.836 65971 256.848
104.953 64454 253.878
105.069 61529 248.05
105.186 58061 240.959
105.302 53987 232.351
105.418 52087 228.226
105.535 52448 229.015
105.651 55903 236.438
105.767 59403 243.727
105.883 61205 247.396
105.999 63351 251.696
106.115 0 1
106.231 0 1
106.347 0 1
106.463 0 1
106.579 0 1
106.694 0 1
106.81 0 1
106.926 0 1
107.041 0 1
107.157 0 1
109.576 0 1
109.692 0 1
109.807 0 1
109.923 0 1
110.039 0 1
110.155 0 1
110.27 0 1
110.386 0 1
110.502 0 1
110.618 49635 222.789
110.735 54616 233.701
110.851 56901 238.539
110.967 58901 242.695
111.083 59587 244.104
111.199 61056 247.095
111.316 62430 249.86
111.432 63331 251.657
111.549 63061 251.119
111.665 62435 249.87
111.782 60495 245.957
111.898 57988 240.807
112.015 55457 235.493
112.132 50901 225.612
112.248 46555 215.766
112.365 45824 214.065
112.482 48285 219.738
112.599 51641 227.247
112.716 57038 238.826
112.832 58731 242.345
112.949 58843 242.576
113.066 58502 241.872
113.183 58214 241.276
113.3 57915 240.655
113.417 57676 240.158
113.534 55609 235.816
113.652 53900 232.164
113.769 50583 224.907
113.886 47568 218.101
114.003 45499 213.305
114.12 45392 213.054
114.238 47795 218.621
114.355 49956 223.508
114.472 51317 226.533
114.589 51485 226.903
114.707 52584 229.312
114.824 54310 233.045
114.942 55130 234.798
115.059 55692 235.992
115.176 55896 236.423
115.294 55084 234.7
115.411 54176 232.757
115.529 51746 227.477
115.646 48682 220.64
115.764 44615 211.223
115.881 41651 204.086
115.999 42740 206.737
116.116 46891 216.543
116.234 51399 226.713
116.351 54395 233.227
116.469 55365 235.298
116.586 55770 236.157
116.704 55913 236.459
116.821 56122 236.901
116.939 56009 236.662
117.056 55703 236.015
117.174 54009 232.398
117.291 52312 228.718
117.409 50438 224.584
117.526 47571 218.108
117.644 46299 215.172
117.761 47012 216.823
117.879 49149 221.696
117.996 50595 224.933
118.114 52890 229.978
118.231 53860 232.078
118.349 53880 232.121
118.466 55713 236.036
118.584 56136 236.93
118.701 57269 239.309
118.819 57430 239.646
118.936 56230 237.129
119.053 54328 233.084
119.171 52056 228.158
119.288 48498 220.223
119.405 44176 210.181
119.523 41771 204.38
119.64 43258 207.986
119.757 46606 215.884
119.875 51192 226.256
119.992 53855 232.067
120.109 55272 235.1
120.226 55966 236.571
120.343 56295 237.266
120.46 56312 237.301
120.578 55951 236.54
120.695 55712 236.034
120.812 55190 234.926
120.929 53416 231.119
121.046 52030 228.101
121.163 48991 221.339
121.279 47637 218.259
121.396 46617 215.91
121.513 47399 217.713
121.63 49346 222.14
121.747 51020 225.876
121.863 52266 228.618
121.98 52926 230.057
122.097 52949 230.106
122.213 54454 233.354
122.33 55315 235.191
122.446 55482 235.546
122.563 55372 235.313
122.679 54531 233.519
122.795 53261 230.783
122.912 51208 226.292
123.028 47668 218.33
123.144 43349 208.204
123.26 40881 202.191
123.377 0 1
123.493 0 1
123.609 0 1
123.725 0 1
123.84 0 1
123.956 0 1
124.072 0 1
124.188 0 1
124.303 0 1
124.419 0 1
126.852 0 1
126.968 0 1
127.083 0 1
127.199 0 1
127.315 0 1
127.431 0 1
127.547 0 1
127.663 0 1
127.779 0 1
127.895 0 1
128.011 0 1
128.127 0 1
128.243 0 1
128.359 47747 218.511
128.476 44819 211.705
128.592 46515 215.673
128.708 50901 225.612
128.825 56511 237.72
128.941 59603 244.137
129.058 61926 248.849
129.174 62495 249.99
129.291 62667 250.334
129.408 62392 249.784
129.524 62503 250.006
129.641 62034 249.066
129.758 61023 247.028
129.875 59604 244.139
129.992 58125 241.091
130.108 55454 235.487
130.225 53649 231.623
130.342 52710 229.587
130.459 51806 227.609
130.576 55559 235.71
130.693 56118 236.892
130.81 57588 239.975
130.928 57939 240.705
131.045 57891 240.605
131.162 58901 242.695
131.279 60007 244.963
131.396 60235 245.428
131.513 59618 244.168
131.631 58126 241.093
131.748 55954 236.546
131.865 50234 224.129
131.983 44863 211.809
132.1 44752 211.547
132.217 48173 219.483
132.335 53000 230.217
132.452 57006 238.759
132.57 59281 243.477
132.687 57625 240.052
132.804 61665 248.324
132.922 59253 243.419
133.039 59873 244.69
133.157 59401 243.723
133.274 58990 242.879
133.392 58299 241.452
133.509 56939 238.619
133.627 55611 235.82
133.744 53171 230.588
133.862 51822 227.644
133.979 51338 226.579
134.097 51790 227.574
134.214 54358 233.148
134.332 53581 231.476
134.449 55952 236.542
134.567 56198 237.061
134.684 56636 237.983
134.802 57041 238.833
134.919 58238 241.326
135.037 57913 240.651
135.154 57126 239.01
135.272 55449 235.476
135.389 50730 225.233
135.507 45845 214.114
135.624 42357 205.808
135.742 43990 209.738
135.859 48120 219.363
135.977 52698 229.56
136.094 56312 237.301
136.211 58156 241.156
136.329 58773 242.431
136.446 58675 242.229
136.564 58765 242.415
136.681 59521 243.969
136.798 57840 240.499
136.915 58127 241.095
137.033 57358 239.495
137.15 56319 237.316
137.267 54730 233.944
137.384 53661 231.648
137.502 51785 227.563
137.619 50947 225.714
137.736 51086 226.022
137.853 51109 226.073
137.97 52070 228.189
138.087 55870 236.368
138.204 55815 236.252
138.321 55943 236.523
138.438 56853 238.439
138.555 57226 239.22
138.672 57297 239.368
138.788 56742 238.206
138.905 54882 234.269
139.022 51782 227.557
139.139 46700 216.102
139.255 43610 208.83
139.372 43893 209.507
139.488 48022 219.139
139.605 52329 228.755
139.721 55642 235.886
139.838 57537 239.869
139.954 58086 241.01
140.071 57947 240.722
140.187 58303 241.46
140.303 57716 240.242
140.419 57520 239.833
140.535 57133 239.025
140.652 56338 237.356
140.768 0 1
140.884 0 1
141 0 1
141.115 0 1
141.231 0 1
141.347 0 1
141.463 0 1
141.578 0 1
141.694 0 1
144.104 0 1
144.219 0 1
144.335 0 1
144.45 0 1
144.566 0 1
144.682 0 1
144.798 0 1
144.914 0 1
145.03 0 1
145.146 49343 222.133
145.262 50173 223.993
145.378 49716 222.971
145.494 49871 223.318
145.61 49643 222.807
145.726 48971 221.294
145.842 48254 219.668
145.959 47372 217.651
146.075 46089 214.683
146.192 45162 212.514
146.308 44733 211.502
146.425 43760 209.189
146.541 43999 209.759
146.658 45206 212.617
146.774 46165 214.86
146.891 47031 216.866
147.008 46284 215.137
147.125 46931 216.636
147.241 46887 216.534
147.358 45916 214.28
147.475 44742 211.523
147.592 42423 205.968
147.709 38772 196.906
147.826 35595 188.666
147.943 35288 187.851
148.06 37336 193.225
148.177 41487 203.684
148.294 44620 211.234
148.411 46133 214.786
148.528 46650 215.986
148.645 46418 215.448
148.762 45990 214.453
148.88 45785 213.974
148.997 44014 209.795
149.114 47048 216.906
149.231 45841 214.105
149.349 45455 213.202
149.466 44200 210.238
149.583 43648 208.921
149.701 42779 206.831
149.818 41770 204.377
149.935 41281 203.177
150.053 40700 201.742
150.17 40829 202.062
150.287 41784 204.411
150.405 43092 207.586
150.522 43636 208.892
150.64 43596 208.797
150.757 43202 207.851
150.875 43274 208.024
150.992 42760 206.785
151.11 40778 201.936
151.227 39252 198.121
151.344 36676 191.51
151.462 33242 182.324
151.579 33769 183.763
151.697 35900 189.473
151.814 39574 198.932
151.932 42197 205.419
152.049 44401 210.715
152.167 44688 211.395
152.284 44838 211.75
152.402 44936 211.981
152.519 44562 211.097
152.636 45026 212.193
152.754 44730 211.495
152.871 44562 211.097
152.989 43731 209.12
153.106 43489 208.54
153.223 43251 207.969
153.341 42131 205.258
153.458 41439 203.566
153.575 40958 202.381
153.693 40588 201.465
153.81 40823 202.047
153.927 41395 203.458
154.044 42045 205.049
154.162 42964 207.278
154.279 44144 210.105
154.396 44039 209.855
154.513 44622 211.239
154.63 43604 208.816
154.747 42264 205.582
154.864 40791 201.968
154.981 38583 196.426
155.098 36029 189.813
155.215 35558 188.568
155.332 37621 193.961
155.449 41353 203.354
155.566 43640 208.902
155.683 44514 210.983
155.8 44684 211.386
155.917 45081 212.323
156.033 45000 212.132
156.15 0 1
156.267 0 1
156.383 0 1
156.5 0 1
156.617 0 1
156.733 0 1
156.85 0 1
156.966 0 1
157.082 0 1
157.199 0 1
157.315 0 1
157.431 0 1
157.547 0 1
157.664 0 1
157.78 0 1
157.896 0 1
158.012 0 1
158.128 0 1
158.244 0 1
158.359 0 1
158.475 0 1
158.591 0 1
158.706 0 1
