
6.15755 0 1
6.2731 0 1
6.3887 0 1
6.50437 0 1
6.62009 0 1
6.73587 0 1
6.8517 0 1
6.96759 0 1
7.08353 0 1
7.19952 0 1
7.31557 0 1
7.43166 0 1
7.54781 0 1
7.664 0 1
7.78024 0 1
7.89653 0 1
8.01286 0 1
8.12924 0 1
8.24567 0 1
8.36213 0 1
8.47864 0 1
8.59519 0 1
8.71178 0 1
8.82841 0 1
8.94508 0 1
9.06179 0 1
9.17853 0 1
9.29531 0 1
9.41212 0 1
9.52897 0 1
9.64584 0 1
9.76276 0 1
9.8797 0 1
9.99667 0 1
10.1137 0 1
10.2307 0 1
10.3478 0 1
10.4648 0 1
10.5819 0 1
10.6991 0 1
10.8162 0 1
10.9334 0 1
11.0506 0 1
11.1678 0 1
11.285 0 1
11.4023 0 1
11.5196 0 1
11.6369 0 1
11.7542 0 1
11.8715 0 1
11.9888 0 1
12.1062 0 1
12.2235 0 1
12.3409 0 1
12.4582 0 1
12.5756 0 1
12.693 0 1
12.8104 0 1
12.9278 0 1
13.0452 0 1
13.1626 0 1
13.28 0 1
13.3974 0 1
13.5149 0 1
13.6323 0 1
13.7497 0 1
13.8671 0 1
13.9845 0 1
14.1019 0 1
14.2193 0 1
14.3367 0 1
14.4541 0 1
14.5714 0 1
14.6888 0 1
14.8062 0 1
14.9235 0 1
15.0408 925 30.4138
15.1581 950 30.8221
15.2755 979 31.289
15.3927 989 31.4484
15.51 935 30.5778
15.6273 950 30.8221
15.7445 920 30.3315
15.8617 891 29.8496
15.9789 1011 31.7962
16.0961 1037 32.2025
16.2132 1026 32.0312
16.3304 1106 33.2566
16.4475 1098 33.1361
16.5646 1092 33.0454
16.6816 1074 32.7719
16.7986 999 31.607
16.9156 1140 33.7639
17.0326 1051 32.4191
17.1496 1098 33.1361
17.2665 1082 32.8938
17.3833 1036 32.187
17.5002 1067 32.665
17.617 1112 33.3467
17.7338 1124 33.5261
17.8505 1062 32.5883
17.9672 1181 34.3657
18.0839 1120 33.4664
18.2005 1181 34.3657
18.3171 1206 34.7275
18.4337 1273 35.6791
18.5502 1193 34.5398
18.6666 1255 35.426
18.7831 1279 35.7631
18.8994 1253 35.3977
19.0158 1276 35.7211
19.1321 1194 34.5543
19.2483 1139 33.7491
19.3645 1158 34.0294
19.4806 1159 34.0441
19.5967 1201 34.6554
19.7128 1210 34.7851
19.8288 1202 34.6699
19.9447 1084 32.9242
20.0606 0 1
20.1764 0 1
20.2922 0 1
20.4079 0 1
20.5236 0 1
20.6392 0 1
20.7548 0 1
20.8702 0 1
23.3078 0 1
23.4233 0 1
23.539 0 1
23.6547 0 1
23.7704 0 1
23.8862 0 1
24.0021 0 1
24.118 0 1
24.234 0 1
24.35 0 1
24.4661 1163 34.1028
24.5822 1163 34.1028
24.6984 1209 34.7707
24.8146 1220 34.9285
24.9309 1291 35.9305
25.0472 1307 36.1525
25.1636 1376 37.0945
25.28 1384 37.2022
25.3965 1363 36.9188
25.513 1339 36.5923
25.6296 1341 36.6197
25.7462 1362 36.9053
25.8628 1299 36.0416
25.9795 1293 35.9583
26.0962 1278 35.7491
26.213 1267 35.5949
26.3298 1335 36.5377
26.4466 1384 37.2022
26.5635 1403 37.4566
26.6804 1447 38.0395
26.7973 1492 38.6264
26.9143 1519 38.9744
27.0313 1437 37.9078
27.1483 1548 39.3446
27.2653 1494 38.6523
27.3824 1556 39.4462
27.4996 1502 38.7556
27.6167 1462 38.2361
27.7339 1411 37.5633
27.8511 1442 37.9737
27.9683 1344 36.6606
28.0855 1350 36.7423
28.2028 1359 36.8646
28.3201 1299 36.0416
28.4374 1348 36.7151
28.5547 1340 36.606
28.6721 1455 38.1445
28.7894 1529 39.1024
28.9068 1522 39.0128
29.0242 1417 37.6431
29.1416 1318 36.3043
29.259 1326 36.4143
29.3764 1289 35.9026
29.4939 1298 36.0278
29.6113 1250 35.3553
29.7288 1310 36.1939
29.8463 1328 36.4417
29.9638 1385 37.2156
30.0812 1474 38.3927
30.1987 1475 38.4057
30.3162 1471 38.3536
30.4337 1581 39.7618
30.5512 1535 39.1791
30.6687 1570 39.6232
30.7862 1562 39.5221
30.9037 1589 39.8623
31.0212 1546 39.3192
31.1387 1597 39.9625
31.2562 1557 39.4588
31.3737 1516 38.9358
31.4912 1444 38
31.6087 1472 38.3667
31.7262 1372 37.0405
31.8436 1348 36.7151
31.9611 1388 37.2559
32.0785 1421 37.6962
32.1959 1484 38.5227
32.3134 1527 39.0768
32.4308 1454 38.1314
32.5482 1562 39.5221
32.6655 1495 38.6652
32.7829 1491 38.6135
32.9002 1377 37.108
33.0176 1351 36.756
33.1349 1355 36.8103
33.2522 1347 36.7015
33.3694 1354 36.7967
33.4867 1400 37.4166
33.6039 1441 37.9605
33.7211 1461 38.223
33.8383 1575 39.6863
33.9554 1576 39.6989
34.0725 1575 39.6863
34.1896 1630 40.3733
34.3067 1652 40.6448
34.4237 1665 40.8044
34.5407 1651 40.6325
34.6577 1695 41.1704
34.7746 1578 39.724
34.8915 1509 38.8458
35.0084 1521 39
35.1252 1550 39.37
35.242 1412 37.5766
35.3587 1461 38.223
35.4755 1359 36.8646
35.5921 1365 36.9459
35.7088 1446 38.0263
35.8254 1465 38.2753
35.9419 1524 39.0384
36.0584 1500 38.7298
36.1749 1570 39.6232
36.2913 1586 39.8246
36.4077 1431 37.8286
36.524 1378 37.1214
36.6403 1354 36.7967
36.7565 1323 36.3731
36.8727 1258 35.4683
36.9889 1347 36.7015
37.1049 1352 36.7696
37.221 0 1
37.3369 0 1
37.4529 0 1
37.5687 0 1
37.6845 0 1
37.8003 0 1
37.916 0 1
38.0316 0 1
38.1472 0 1
40.5851 0 1
40.7008 0 1
40.8164 0 1
40.9322 0 1
41.048 0 1
41.1639 0 1
41.2798 0 1
41.3958 0 1
41.5118 0 1
41.6279 0 1
41.744 1196 34.5832
41.8602 1197 34.5977
41.9765 1188 34.4674
42.0928 1203 34.6843
42.2091 1149 33.8969
42.3255 1228 35.0428
42.4419 1292 35.9444
42.5584 1273 35.6791
42.675 1362 36.9053
42.7915 1395 37.3497
42.9081 1486 38.5487
43.0248 1466 38.2884
43.1415 1466 38.2884
43.2582 1477 38.4318
43.375 1447 38.0395
43.4918 1537 39.2046
43.6087 1515 38.923
43.7256 1453 38.1182
43.8425 1360 36.8782
43.9595 1302 36.0832
44.0765 1323 36.3731
44.1935 1219 34.9142
44.3106 1230 35.0714
44.4277 1227 35.0286
44.5448 1263 35.5387
44.6619 1244 35.2704
44.7791 1307 36.1525
44.8963 1261 35.5106
45.0136 1261 35.5106
45.1308 1156 34
45.2481 1114 33.3766
45.3654 1070 32.7109
45.4827 1033 32.1403
45.6001 1018 31.9061
45.7174 1086 32.9545
45.8348 1108 33.2866
45.9522 1146 33.8526
46.0697 1133 33.6601
46.1871 1225 35
46.3046 1229 35.0571
46.422 1207 34.7419
46.5395 1287 35.8748
46.657 1196 34.5832
46.7745 1237 35.171
46.892 1282 35.805
47.0096 1323 36.3731
47.1271 1230 35.0714
47.2446 1226 35.0143
47.3622 1211 34.7994
47.4797 1237 35.171
47.5973 1129 33.6006
47.7149 1073 32.7567
47.8324 1099 33.1512
47.95 1040 32.249
48.0675 1123 33.5112
48.1851 1105 33.2415
48.3027 1094 33.0757
48.4202 1118 33.4365
48.5378 1070 32.7109
48.6554 1029 32.078
48.7729 947 30.7734
48.8904 926 30.4302
49.008 922 30.3645
49.1255 896 29.9333
49.243 891 29.8496
49.3605 895 29.9166
49.478 1015 31.8591
49.5955 963 31.0322
49.713 1022 31.9687
49.8304 1046 32.3419
49.9479 1153 33.9559
50.0653 1165 34.1321
50.1827 1274 35.6931
50.3001 1191 34.5109
50.4175 1205 34.7131
50.5348 1240 35.2136
50.6521 1204 34.6987
50.7694 1268 35.609
50.8867 1269 35.623
51.004 1224 34.9857
51.1212 1232 35.0999
51.2384 1176 34.2929
51.3556 1158 34.0294
51.4727 1147 33.8674
51.5899 1242 35.242
51.707 1261 35.5106
51.824 1351 36.756
51.9411 1362 36.9053
52.0581 1310 36.1939
52.175 1316 36.2767
52.2919 1258 35.4683
52.4088 1286 35.8608
52.5257 1204 34.6987
52.6425 1176 34.2929
52.7593 1191 34.5109
52.876 1198 34.6121
52.9927 1295 35.9861
53.1094 1366 36.9594
53.226 1491 38.6135
53.3426 1568 39.598
53.4591 1649 40.6079
53.5756 1696 41.1825
53.692 1714 41.4005
53.8084 1779 42.1782
53.9248 1774 42.1189
54.0411 1813 42.5793
54.1573 1899 43.5775
54.2735 0 1
54.3896 0 1
54.5057 0 1
54.6217 0 1
54.7377 0 1
54.8537 0 1
54.9695 0 1
55.0853 0 1
55.2011 0 1
55.3168 0 1
55.4324 0 1
57.824 0 1
57.9396 0 1
58.0553 0 1
58.1711 0 1
58.2869 0 1
58.4028 0 1
58.5187 0 1
58.6347 0 1
58.7508 0 1
58.8669 0 1
58.983 2055 45.3321
59.0992 2133 46.1844
59.2155 2166 46.5403
59.3318 2128 46.1303
59.4482 2155 46.422
59.5646 2208 46.9894
59.681 2135 46.2061
59.7975 2088 45.6946
59.9141 2016 44.8999
60.0306 2069 45.4863
60.1473 2051 45.288
60.2639 1999 44.7102
60.3807 2068 45.4753
60.4974 2034 45.0999
60.6142 1967 44.3509
60.731 1889 43.4626
60.8479 1857 43.0929
60.9648 1785 42.2493
61.0818 1771 42.0833
61.1987 1607 40.0874
61.3158 1638 40.4722
61.4328 1525 39.0512
61.5499 1668 40.8412
61.667 1693 41.1461
61.7841 1917 43.7836
61.9013 1956 44.2267
62.0185 1927 43.8976
62.1357 2032 45.0777
62.253 2073 45.5302
62.3702 2108 45.913
62.4875 2168 46.5618
62.6049 2107 45.9021
62.7222 2116 46
62.8396 2162 46.4973
62.9569 2105 45.8803
63.0743 2159 46.465
63.1918 2099 45.8148
63.3092 2003 44.7549
63.4267 1992 44.6318
63.5441 1919 43.8064
63.6616 1963 44.3058
63.7791 1954 44.2041
63.8966 1977 44.4635
64.0142 2064 45.4313
64.1317 1944 44.0908
64.2492 1915 43.7607
64.3668 1791 42.3202
64.4843 1642 40.5216
64.6019 1661 40.7554
64.7195 1563 39.5348
64.837 1508 38.833
64.9546 1471 38.3536
65.0722 1584 39.7995
65.1898 1636 40.4475
65.3074 1677 40.9512
65.4249 1799 42.4146
65.5425 1953 44.1928
65.6601 1916 43.7721
65.7777 2098 45.8039
65.8952 2124 46.0869
66.0128 2155 46.422
66.1304 2237 47.2969
66.2479 2219 47.1063
66.3655 2274 47.6865
66.483 2218 47.0956
66.6005 2106 45.8912
66.718 2038 45.1442
66.8355 2138 46.2385
66.953 2116 46
67.0705 2082 45.6289
67.1879 2087 45.6837
67.3054 2051 45.288
67.4228 2001 44.7325
67.5402 2079 45.5961
67.6576 2136 46.2169
67.7749 2089 45.7056
67.8923 2028 45.0333
68.0096 1963 44.3058
68.1269 1828 42.7551
68.2442 1748 41.8091
68.3614 1620 40.2492
68.4787 1510 38.8587
68.5958 1562 39.5221
68.713 1744 41.7612
68.8302 1790 42.3084
68.9473 1845 42.9535
69.0643 1964 44.317
69.1814 2116 46
69.2984 2239 47.3181
69.4154 2275 47.697
69.5323 2473 49.7293
69.6492 2547 50.4678
69.7661 2510 50.0999
69.8829 2510 50.0999
69.9997 2528 50.2792
70.1165 2546 50.4579
70.2332 2629 51.2738
70.3499 2624 51.225
70.4665 2584 50.8331
70.5831 2608 51.0686
70.6996 2528 50.2792
70.8161 2411 49.1019
70.9326 2419 49.1833
71.049 2494 49.94
71.1653 2497 49.97
71.2817 2486 49.8598
71.3979 2461 49.6085
71.5141 2404 49.0306
71.6303 2166 46.5403
71.7464 1872 43.2666
71.8624 0 1
71.9784 0 1
72.0944 0 1
72.2102 0 1
72.3261 0 1
72.4418 0 1
72.5575 0 1
72.6732 0 1
75.1054 0 1
75.2209 0 1
75.3365 0 1
75.4521 0 1
75.5678 0 1
75.6835 0 1
75.7993 0 1
75.9151 0 1
76.031 0 1
76.147 2441 49.4065
76.263 2614 51.1273
76.3791 2710 52.0577
76.4952 2816 53.066
76.6113 2944 54.2586
76.7276 2881 53.6749
76.8438 2763 52.5642
76.9601 2670 51.672
77.0765 2514 50.1398
77.1929 2287 47.8226
77.3093 2105 45.8803
77.4258 1970 44.3847
77.5423 1845 42.9535
77.6589 1972 44.4072
77.7755 2137 46.2277
77.8921 2389 48.8774
78.0088 2494 49.94
78.1256 2825 53.1507
78.2423 2833 53.2259
78.3591 3011 54.8726
78.4759 3106 55.7315
78.5928 3063 55.3444
78.7097 3208 56.6392
78.8266 3084 55.5338
78.9436 3309 57.5239
79.0606 3127 55.9196
79.1776 3156 56.1783
79.2946 2983 54.6168
79.4117 3122 55.8749
79.5288 2925 54.0833
79.6459 2842 53.3104
79.7631 2974 54.5344
79.8802 2768 52.6118
79.9974 2833 53.2259
80.1147 2991 54.69
80.2319 2917 54.0093
80.3491 2935 54.1756
80.4664 3014 54.8999
80.5837 2782 52.7447
80.701 2696 51.923
80.8183 2349 48.4665
80.9357 2204 46.9468
81.053 2016 44.8999
81.1704 1935 43.9886
81.2877 1935 43.9886
81.4051 2096 45.7821
81.5225 2192 46.8188
81.6399 2406 49.051
81.7573 2689 51.8556
81.8747 2790 52.8205
81.9922 2930 54.1295
82.1096 3133 55.9732
82.227 3087 55.5608
82.3444 3123 55.8838
82.4619 3095 55.6327
82.5793 3259 57.0877
82.6967 3077 55.4707
82.8142 3029 55.0364
82.9316 3034 55.0818
83.049 2927 54.1018
83.1664 2913 53.9722
83.2838 2768 52.6118
83.4012 2721 52.1632
83.5186 2669 51.6624
83.636 2866 53.535
83.7534 2800 52.915
83.8708 2750 52.4404
83.9881 2959 54.3967
84.1055 2824 53.1413
84.2228 2731 52.259
84.3401 2704 52
84.4575 2280 47.7493
84.5747 2221 47.1275
84.692 1948 44.1362
84.8093 1951 44.1701
84.9265 1883 43.3935
85.0437 1984 44.5421
85.1609 2302 47.9792
85.2781 2518 50.1797
85.3952 2831 53.2071
85.5123 2888 53.7401
85.6294 3223 56.7715
85.7465 3243 56.9473
85.8636 3447 58.7112
85.9806 3591 59.925
86.0976 3431 58.5747
86.2145 3519 59.3212
86.3315 3725 61.0328
86.4484 3521 59.338
86.5652 3608 60.0666
86.682 3636 60.2993
86.7988 3635 60.291
86.9156 3560 59.6657
87.0323 3552 59.5987
87.149 3502 59.1777
87.2657 3586 59.8832
87.3823 3598 59.9833
87.4988 3853 62.0725
87.6154 3774 61.4329
87.7318 3659 60.4897
87.8483 3574 59.7829
87.9647 3232 56.8507
88.081 3023 54.9818
88.1973 2737 52.3163
88.3136 2622 51.2055
88.4298 2548 50.4777
88.546 2592 50.9117
88.6621 2868 53.5537
88.7781 3120 55.857
88.8942 0 1
89.0101 0 1
89.126 0 1
89.2419 0 1
89.3577 0 1
89.4734 0 1
89.5891 0 1
89.7047 0 1
89.8203 0 1
89.9358 0 1
92.3269 0 1
92.4424 0 1
92.558 0 1
92.6736 0 1
92.7893 0 1
92.905 0 1
93.0208 0 1
93.1366 0 1
93.2525 0 1
93.3685 0 1
93.4845 0 1
93.6005 2807 52.9811
93.7167 2858 53.4603
93.8328 2805 52.9623
93.949 2804 52.9528
94.0653 3061 55.3263
94.1816 3442 58.6686
94.2979 3726 61.041
94.4143 4098 64.0156
94.5307 4344 65.909
94.6472 4543 67.4018
94.7637 4600 67.8233
94.8803 4804 69.3109
94.9969 4731 68.7823
95.1135 4709 68.6222
95.2302 4742 68.8622
95.3469 4710 68.6294
95.4637 4619 67.9632
95.5805 4789 69.2026
95.6973 4831 69.5054
95.8142 4740 68.8477
95.9311 4657 68.2422
96.048 4514 67.1863
96.1649 4517 67.2086
96.2819 4516 67.2012
96.3989 4575 67.6387
96.516 4514 67.1863
96.633 4612 67.9117
96.7501 4609 67.8896
96.8673 4496 67.0522
96.9844 4146 64.3894
97.1016 3906 62.498
97.2188 3683 60.6877
97.336 3283 57.2975
97.4532 2910 53.9444
97.5704 2992 54.6992
97.6877 2947 54.2863
97.805 3372 58.0689
97.9223 3562 59.6825
98.0396 3681 60.6712
98.1569 4185 64.6916
98.2743 4411 66.4154
98.3916 4730 68.775
98.509 4795 69.2459
98.6264 4951 70.3633
98.7438 4760 68.9928
98.8612 4917 70.1213
98.9786 4858 69.6994
99.096 4820 69.4262
99.2134 4833 69.5198
99.3308 5015 70.8167
99.4482 4855 69.6778
99.5656 4821 69.4334
99.6831 4850 69.6419
99.8005 4597 67.8012
99.9179 4701 68.5638
100.035 4461 66.7907
100.153 4792 69.2243
100.27 4789 69.2026
100.388 4967 70.4769
100.505 4649 68.1836
100.622 4356 66
100.74 3950 62.849
100.857 3599 59.9917
100.975 3209 56.648
101.092 3097 55.6507
101.209 3017 54.9272
101.327 3200 56.5685
101.444 3434 58.6003
101.561 3863 62.153
101.679 4071 63.8044
101.796 4506 67.1267
101.913 4697 68.5347
102.03 4935 70.2496
102.148 5046 71.0352
102.265 5141 71.7008
102.382 5245 72.4224
102.499 4999 70.7036
102.616 5072 71.218
102.733 5156 71.8053
102.851 4952 70.3704
102.968 5185 72.0069
103.085 5220 72.2496
103.202 5055 71.0985
103.319 4883 69.8785
103.436 4878 69.8427
103.552 4821 69.4334
103.669 4909 70.0643
103.786 4957 70.406
103.903 5025 70.8872
104.02 4894 69.9571
104.137 4706 68.6003
104.253 4295 65.5362
104.37 4027 63.4586
104.487 3596 59.9667
104.603 3408 58.3781
104.72 3349 57.8705
104.836 3427 58.5406
104.953 3643 60.3573
105.069 3964 62.9603
105.186 4355 65.9924
105.302 4732 68.7895
105.418 5035 70.9577
105.535 5272 72.6085
105.651 5470 73.9594
105.767 5341 73.0821
105.883 5472 73.973
105.999 5512 74.2428
106.115 0 1
106.231 0 1
106.347 0 1
106.463 0 1
106.579 0 1
106.694 0 1
106.81 0 1
106.926 0 1
107.041 0 1
107.157 0 1
109.576 0 1
109.692 0 1
109.807 0 1
109.923 0 1
110.039 0 1
110.155 0 1
110.27 0 1
110.386 0 1
110.502 0 1
110.618 4709 68.6222
110.735 4861 69.7209
110.851 5076 71.2461
110.967 5120 71.5542
111.083 5100 71.4143
111.199 5005 70.746
111.316 4919 70.1356
111.432 5136 71.6659
111.549 5004 70.739
111.665 4924 70.1712
111.782 4826 69.4694
111.898 4813 69.3758
112.015 4716 68.6731
112.132 4725 68.7386
112.248 4917 70.1213
112.365 4899 69.9929
112.482 4521 67.2384
112.599 4516 67.2012
112.716 4095 63.9922
112.832 3818 61.79
112.949 3560 59.6657
113.066 3286 57.3236
113.183 3054 55.263
113.3 3285 57.3149
113.417 3224 56.7803
113.534 3452 58.7537
113.652 3811 61.7333
113.769 4061 63.726
113.886 4338 65.8635
114.003 4323 65.7495
114.12 4723 68.7241
114.238 4807 69.3325
114.355 4724 68.7314
114.472 4693 68.5055
114.589 4590 67.7495
114.707 4595 67.7864
114.824 4505 67.1193
114.942 4626 68.0147
115.059 4780 69.1375
115.176 4725 68.7386
115.294 4674 68.3667
115.411 4352 65.9697
115.529 4455 66.7458
115.646 4407 66.3852
115.764 4535 67.3424
115.881 4607 67.8749
115.999 4681 68.4178
116.116 4357 66.0076
116.234 4270 65.3452
116.351 4033 63.5059
116.469 3707 60.8851
116.586 3348 57.8619
116.704 3177 56.3649
116.821 3093 55.6147
116.939 3019 54.9454
117.056 3221 56.7539
117.174 3464 58.8558
117.291 3841 61.9758
117.409 4096 64
117.526 4210 64.8845
117.644 4496 67.0522
117.761 4629 68.0368
117.879 4612 67.9117
117.996 4578 67.6609
118.114 4556 67.4981
118.231 4571 67.6092
118.349 4445 66.6708
118.466 4324 65.7571
118.584 4456 66.7533
118.701 4524 67.2607
118.819 4507 67.1342
118.936 4498 67.0671
119.053 4310 65.6506
119.171 4227 65.0154
119.288 4335 65.8407
119.405 4335 65.8407
119.523 4512 67.1714
119.64 4168 64.56
119.757 4175 64.6142
119.875 4143 64.3661
119.992 3839 61.9597
120.109 3625 60.208
120.226 3433 58.5918
120.343 3214 56.6922
120.46 3116 55.8211
120.578 3070 55.4076
120.695 3015 54.909
120.812 3271 57.1927
120.929 3531 59.4222
121.046 3837 61.9435
121.163 3935 62.7296
121.279 4188 64.7148
121.396 4360 66.0303
121.513 4295 65.5362
121.63 4424 66.5132
121.747 4338 65.8635
121.863 4253 65.215
121.98 4161 64.5058
122.097 4310 65.6506
122.213 4185 64.6916
122.33 4229 65.0308
122.446 4351 65.9621
122.563 4431 66.5658
122.679 4136 64.3117
122.795 4067 63.773
122.912 4054 63.671
123.028 4176 64.622
123.144 4003 63.2693
123.26 3988 63.1506
123.377 0 1
123.493 0 1
123.609 0 1
123.725 0 1
123.84 0 1
123.956 0 1
124.072 0 1
124.188 0 1
124.303 0 1
124.419 0 1
126.852 0 1
126.968 0 1
127.083 0 1
127.199 0 1
127.315 0 1
127.431 0 1
127.547 0 1
127.663 0 1
127.779 0 1
127.895 0 1
128.011 0 1
128.127 0 1
128.243 0 1
128.359 4322 65.7419
128.476 4258 65.2534
128.592 4346 65.9242
128.708 4138 64.3273
128.825 4074 63.8279
128.941 3819 61.7981
129.058 3607 60.0583
129.174 3439 58.643
129.291 3335 57.7495
129.408 3423 58.5064
129.524 3400 58.3095
129.641 3393 58.2495
129.758 3609 60.075
129.875 3809 61.7171
129.992 3968 62.9921
130.108 4171 64.5833
130.225 4305 65.6125
130.342 4275 65.3835
130.459 4349 65.9469
130.576 4562 67.5426
130.693 4482 66.9477
130.81 4248 65.1767
130.928 4256 65.238
131.045 4237 65.0922
131.162 4329 65.7951
131.279 4347 65.9318
131.396 4517 67.2086
131.513 4234 65.0692
131.631 4357 66.0076
131.748 4308 65.6354
131.865 4291 65.5057
131.983 4382 66.1967
132.1 4362 66.0454
132.217 4253 65.215
132.335 4079 63.867
132.452 3901 62.458
132.57 3757 61.2944
132.687 3387 58.1979
132.804 3427 58.5406
132.922 3355 57.9224
133.039 3190 56.4801
133.157 3230 56.8331
133.274 3466 58.8727
133.392 3715 60.9508
133.509 3758 61.3025
133.627 4003 63.2693
133.744 4139 64.3351
133.862 4087 63.9296
133.979 4096 64
134.097 4171 64.5833
134.214 4128 64.2495
134.332 4105 64.0703
134.449 3999 63.2376
134.567 3994 63.1981
134.684 4085 63.914
134.802 4118 64.1716
134.919 4243 65.1383
135.037 4119 64.1794
135.154 4118 64.1716
135.272 4236 65.0846
135.389 4196 64.7765
135.507 4265 65.307
135.624 4079 63.867
135.742 4086 63.9218
135.859 3995 63.206
135.977 3852 62.0645
136.094 3697 60.803
136.211 3704 60.8605
136.329 3351 57.8878
136.446 3317 57.5934
136.564 3242 56.9386
136.681 3338 57.7754
136.798 3210 56.6569
136.915 3376 58.1034
137.033 3513 59.2706
137.15 3636 60.2993
137.267 3781 61.4898
137.384 3917 62.5859
137.502 3964 62.9603
137.619 3928 62.6738
137.736 4145 64.3817
137.853 3886 62.3378
137.97 4038 63.5453
138.087 3704 60.8605
138.204 3694 60.7783
138.321 3997 63.2218
138.438 3984 63.1189
138.555 4085 63.914
138.672 4028 63.4665
138.788 4072 63.8122
138.905 3935 62.7296
139.022 3976 63.0555
139.139 4041 63.5689
139.255 4129 64.2573
139.372 4073 63.8201
139.488 3982 63.1031
139.605 3834 61.9193
139.721 3643 60.3573
139.838 3416 58.4466
139.954 3443 58.6771
140.071 3394 58.258
140.187 3248 56.9912
140.303 3197 56.542
140.419 3142 56.0535
140.535 3260 57.0964
140.652 3227 56.8067
140.768 0 1
140.884 0 1
141 0 1
141.115 0 1
141.231 0 1
141.347 0 1
141.463 0 1
141.578 0 1
141.694 0 1
144.104 0 1
144.219 0 1
144.335 0 1
144.45 0 1
144.566 0 1
144.682 0 1
144.798 0 1
144.914 0 1
145.03 0 1
145.146 2231 47.2335
145.262 2366 48.6415
145.378 2538 50.3786
145.494 2615 51.1371
145.61 2557 50.5668
145.726 2682 51.788
145.842 2764 52.5738
145.959 2858 53.4603
146.075 2832 53.2165
146.192 2889 53.7494
146.308 2941 54.231
146.425 2959 54.3967
146.541 2939 54.2125
146.658 2916 54
146.774 2848 53.3667
146.891 2799 52.9056
147.008 2825 53.1507
147.125 2947 54.2863
147.241 3040 55.1362
147.358 3012 54.8817
147.475 3014 54.8999
147.592 3076 55.4617
147.709 3014 54.8999
147.826 3087 55.5608
147.943 3064 55.3534
148.06 3067 55.3805
148.177 3012 54.8817
148.294 3099 55.6687
148.411 2880 53.6656
148.528 2839 53.2823
148.645 2958 54.3875
148.762 2683 51.7977
148.88 2755 52.4881
148.997 2706 52.0192
149.114 2749 52.4309
149.231 2607 51.0588
149.349 2626 51.2445
149.466 2759 52.5262
149.583 2842 53.3104
149.701 2854 53.4228
149.818 2855 53.4322
149.935 3058 55.2992
150.053 3044 55.1725
150.17 2939 54.2125
150.287 3040 55.1362
150.405 2950 54.3139
150.522 2992 54.6992
150.64 2924 54.074
150.757 2959 54.3967
150.875 2960 54.4059
150.992 3035 55.0908
151.11 3136 56
151.227 3063 55.3444
151.344 3013 54.8908
151.462 3082 55.5158
151.579 3138 56.0179
151.697 3112 55.7853
151.814 3152 56.1427
151.932 3041 55.1453
152.049 2955 54.3599
152.167 2976 54.5527
152.284 2971 54.5069
152.402 2872 53.591
152.519 2800 52.915
152.636 2789 52.811
152.754 2765 52.5833
152.871 2676 51.7301
152.989 2823 53.1319
153.106 2717 52.1249
153.223 2754 52.4786
153.341 2760 52.5357
153.458 3034 55.0818
153.575 2919 54.0278
153.693 3044 55.1725
153.81 3117 55.8301
153.927 2970 54.4977
154.044 2972 54.5161
154.162 2918 54.0185
154.279 2932 54.1479
154.396 2929 54.1202
154.513 3098 55.6597
154.63 3191 56.4889
154.747 3174 56.3383
154.864 3212 56.6745
154.981 3272 57.2014
155.098 3273 57.2101
155.215 3240 56.921
155.332 3231 56.8419
155.449 3107 55.7405
155.566 3152 56.1427
155.683 3114 55.8032
155.8 3075 55.4527
155.917 3045 55.1815
156.033 2890 53.7587
156.15 0 1
156.267 0 1
156.383 0 1
156.5 0 1
156.617 0 1
156.733 0 1
156.85 0 1
156.966 0 1
157.082 0 1
157.199 0 1
157.315 0 1
157.431 0 1
157.547 0 1
157.664 0 1
157.78 0 1
157.896 0 1
158.012 0 1
158.128 0 1
158.244 0 1
158.359 0 1
158.475 0 1
158.591 0 1
158.706 0 1
