
6.15755 0 1
6.2731 0 1
6.3887 0 1
6.50437 0 1
6.62009 0 1
6.73587 0 1
6.8517 0 1
6.96759 0 1
7.08353 0 1
7.19952 0 1
7.31557 0 1
7.43166 0 1
7.54781 0 1
7.664 0 1
7.78024 0 1
7.89653 0 1
8.01286 0 1
8.12924 0 1
8.24567 0 1
8.36213 0 1
8.47864 0 1
8.59519 0 1
8.71178 0 1
8.82841 0 1
8.94508 0 1
9.06179 0 1
9.17853 0 1
9.29531 0 1
9.41212 0 1
9.52897 0 1
9.64584 0 1
9.76276 0 1
9.8797 0 1
9.99667 0 1
10.1137 0 1
10.2307 0 1
10.3478 0 1
10.4648 0 1
10.5819 0 1
10.6991 0 1
10.8162 0 1
10.9334 0 1
11.0506 0 1
11.1678 0 1
11.285 0 1
11.4023 0 1
11.5196 0 1
11.6369 0 1
11.7542 0 1
11.8715 0 1
11.9888 0 1
12.1062 0 1
12.2235 0 1
12.3409 0 1
12.4582 0 1
12.5756 0 1
12.693 0 1
12.8104 0 1
12.9278 0 1
13.0452 0 1
13.1626 0 1
13.28 0 1
13.3974 0 1
13.5149 0 1
13.6323 0 1
13.7497 0 1
13.8671 0 1
13.9845 0 1
14.1019 0 1
14.2193 0 1
14.3367 0 1
14.4541 0 1
14.5714 0 1
14.6888 0 1
14.8062 0 1
14.9235 0 1
15.0408 98 9.89949
15.1581 102 10.0995
15.2755 102 10.0995
15.3927 118 10.8628
15.51 112 10.583
15.6273 108 10.3923
15.7445 103 10.1489
15.8617 104 10.198
15.9789 103 10.1489
16.0961 107 10.3441
16.2132 97 9.84886
16.3304 97 9.84886
16.4475 91 9.53939
16.5646 102 10.0995
16.6816 91 9.53939
16.7986 95 9.74679
16.9156 88 9.38083
17.0326 86 9.27362
17.1496 93 9.64365
17.2665 91 9.53939
17.3833 90 9.48683
17.5002 95 9.74679
17.617 78 8.83176
17.7338 86 9.27362
17.8505 73 8.544
17.9672 89 9.43398
18.0839 79 8.88819
18.2005 88 9.38083
18.3171 82 9.05539
18.4337 83 9.11043
18.5502 91 9.53939
18.6666 74 8.60233
18.7831 79 8.88819
18.8994 80 8.94427
19.0158 78 8.83176
19.1321 78 8.83176
19.2483 94 9.69536
19.3645 78 8.83176
19.4806 76 8.7178
19.5967 65 8.06226
19.7128 73 8.544
19.8288 64 8
19.9447 49 7
20.0606 0 1
20.1764 0 1
20.2922 0 1
20.4079 0 1
20.5236 0 1
20.6392 0 1
20.7548 0 1
20.8702 0 1
23.3078 0 1
23.4233 0 1
23.539 0 1
23.6547 0 1
23.7704 0 1
23.8862 0 1
24.0021 0 1
24.118 0 1
24.234 0 1
24.35 0 1
24.4661 37 6.08276
24.5822 42 6.48074
24.6984 37 6.08276
24.8146 46 6.78233
24.9309 46 6.78233
25.0472 88 9.38083
25.1636 82 9.05539
25.28 97 9.84886
25.3965 84 9.16515
25.513 84 9.16515
25.6296 96 9.79796
25.7462 106 10.2956
25.8628 90 9.48683
25.9795 82 9.05539
26.0962 96 9.79796
26.213 79 8.88819
26.3298 72 8.48528
26.4466 84 9.16515
26.5635 98 9.89949
26.6804 76 8.7178
26.7973 78 8.83176
26.9143 79 8.88819
27.0313 76 8.7178
27.1483 72 8.48528
27.2653 85 9.21954
27.3824 78 8.83176
27.4996 92 9.59166
27.6167 74 8.60233
27.7339 85 9.21954
27.8511 75 8.66025
27.9683 80 8.94427
28.0855 74 8.60233
28.2028 79 8.88819
28.3201 96 9.79796
28.4374 88 9.38083
28.5547 82 9.05539
28.6721 84 9.16515
28.7894 83 9.11043
28.9068 110 10.4881
29.0242 82 9.05539
29.1416 73 8.544
29.259 83 9.11043
29.3764 73 8.544
29.4939 69 8.30662
29.6113 68 8.24621
29.7288 79 8.88819
29.8463 79 8.88819
29.9638 74 8.60233
30.0812 61 7.81025
30.1987 82 9.05539
30.3162 81 9
30.4337 92 9.59166
30.5512 71 8.42615
30.6687 82 9.05539
30.7862 75 8.66025
30.9037 68 8.24621
31.0212 98 9.89949
31.1387 89 9.43398
31.2562 76 8.7178
31.3737 91 9.53939
31.4912 61 7.81025
31.6087 105 10.247
31.7262 86 9.27362
31.8436 84 9.16515
31.9611 79 8.88819
32.0785 89 9.43398
32.1959 75 8.66025
32.3134 85 9.21954
32.4308 91 9.53939
32.5482 78 8.83176
32.6655 85 9.21954
32.7829 71 8.42615
32.9002 68 8.24621
33.0176 64 8
33.1349 75 8.66025
33.2522 82 9.05539
33.3694 69 8.30662
33.4867 67 8.18535
33.6039 75 8.66025
33.7211 59 7.68115
33.8383 77 8.77496
33.9554 70 8.3666
34.0725 77 8.77496
34.1896 80 8.94427
34.3067 68 8.24621
34.4237 72 8.48528
34.5407 74 8.60233
34.6577 89 9.43398
34.7746 80 8.94427
34.8915 72 8.48528
35.0084 70 8.3666
35.1252 67 8.18535
35.242 60 7.74597
35.3587 67 8.18535
35.4755 71 8.42615
35.5921 75 8.66025
35.7088 83 9.11043
35.8254 86 9.27362
35.9419 76 8.7178
36.0584 72 8.48528
36.1749 68 8.24621
36.2913 58 7.61577
36.4077 75 8.66025
36.524 55 7.4162
36.6403 48 6.9282
36.7565 49 7
36.8727 46 6.78233
36.9889 30 5.47723
37.1049 31 5.56776
37.221 0 1
37.3369 0 1
37.4529 0 1
37.5687 0 1
37.6845 0 1
37.8003 0 1
37.916 0 1
38.0316 0 1
38.1472 0 1
40.5851 0 1
40.7008 0 1
40.8164 0 1
40.9322 0 1
41.048 0 1
41.1639 0 1
41.2798 0 1
41.3958 0 1
41.5118 0 1
41.6279 0 1
41.744 29 5.38516
41.8602 28 5.2915
41.9765 51 7.14143
42.0928 45 6.7082
42.2091 53 7.28011
42.3255 43 6.55744
42.4419 50 7.07107
42.5584 47 6.85565
42.675 49 7
42.7915 61 7.81025
42.9081 68 8.24621
43.0248 78 8.83176
43.1415 63 7.93725
43.2582 65 8.06226
43.375 62 7.87401
43.4918 47 6.85565
43.6087 52 7.2111
43.7256 53 7.28011
43.8425 38 6.16441
43.9595 51 7.14143
44.0765 72 8.48528
44.1935 50 7.07107
44.3106 61 7.81025
44.4277 54 7.34847
44.5448 53 7.28011
44.6619 50 7.07107
44.7791 56 7.48331
44.8963 50 7.07107
45.0136 59 7.68115
45.1308 57 7.54983
45.2481 60 7.74597
45.3654 53 7.28011
45.4827 57 7.54983
45.6001 70 8.3666
45.7174 72 8.48528
45.8348 54 7.34847
45.9522 65 8.06226
46.0697 53 7.28011
46.1871 58 7.61577
46.3046 61 7.81025
46.422 54 7.34847
46.5395 47 6.85565
46.657 61 7.81025
46.7745 59 7.68115
46.892 57 7.54983
47.0096 54 7.34847
47.1271 56 7.48331
47.2446 58 7.61577
47.3622 50 7.07107
47.4797 54 7.34847
47.5973 48 6.9282
47.7149 56 7.48331
47.8324 50 7.07107
47.95 59 7.68115
48.0675 71 8.42615
48.1851 66 8.12404
48.3027 64 8
48.4202 59 7.68115
48.5378 73 8.544
48.6554 60 7.74597
48.7729 61 7.81025
48.8904 68 8.24621
49.008 64 8
49.1255 54 7.34847
49.243 56 7.48331
49.3605 54 7.34847
49.478 48 6.9282
49.5955 53 7.28011
49.713 50 7.07107
49.8304 58 7.61577
49.9479 47 6.85565
50.0653 58 7.61577
50.1827 56 7.48331
50.3001 72 8.48528
50.4175 61 7.81025
50.5348 58 7.61577
50.6521 63 7.93725
50.7694 50 7.07107
50.8867 56 7.48331
51.004 63 7.93725
51.1212 59 7.68115
51.2384 72 8.48528
51.3556 52 7.2111
51.4727 59 7.68115
51.5899 52 7.2111
51.707 54 7.34847
51.824 47 6.85565
51.9411 64 8
52.0581 59 7.68115
52.175 60 7.74597
52.2919 52 7.2111
52.4088 72 8.48528
52.5257 55 7.4162
52.6425 64 8
52.7593 48 6.9282
52.876 53 7.28011
52.9927 49 7
53.1094 52 7.2111
53.226 48 6.9282
53.3426 46 6.78233
53.4591 51 7.14143
53.5756 36 6
53.692 44 6.63325
53.8084 36 6
53.9248 45 6.7082
54.0411 38 6.16441
54.1573 42 6.48074
54.2735 0 1
54.3896 0 1
54.5057 0 1
54.6217 0 1
54.7377 0 1
54.8537 0 1
54.9695 0 1
55.0853 0 1
55.2011 0 1
55.3168 0 1
55.4324 0 1
57.824 0 1
57.9396 0 1
58.0553 0 1
58.1711 0 1
58.2869 0 1
58.4028 0 1
58.5187 0 1
58.6347 0 1
58.7508 0 1
58.8669 0 1
58.983 2665 51.6236
59.0992 4194 64.7611
59.2155 5700 75.4983
59.3318 7114 84.3445
59.4482 8138 90.2109
59.5646 8988 94.8051
59.681 9383 96.8659
59.7975 9848 99.2371
59.9141 10085 100.424
60.0306 10509 102.513
60.1473 10731 103.591
60.2639 10608 102.995
60.3807 10203 101.01
60.4974 10424 102.098
60.6142 10361 101.789
60.731 10907 104.437
60.8479 11304 106.32
60.9648 12403 111.369
61.0818 13084 114.385
61.1987 13139 114.625
61.3158 12728 112.818
61.4328 11756 108.425
61.5499 10116 100.578
61.667 8867 94.1647
61.7841 7718 87.8521
61.9013 7002 83.678
62.0185 7180 84.7349
62.1357 7258 85.1939
62.253 6850 82.7647
62.3702 6322 79.511
62.4875 5709 75.5579
62.6049 5014 70.8096
62.7222 4293 65.521
62.8396 3640 60.3324
62.9569 2988 54.6626
63.0743 2338 48.3529
63.1918 1973 44.4185
63.3092 1642 40.5216
63.4267 1371 37.027
63.5441 1174 34.2637
63.6616 947 30.7734
63.7791 741 27.2213
63.8966 516 22.7156
64.0142 412 20.2978
64.1317 302 17.3781
64.2492 264 16.2481
64.3668 196 14
64.4843 158 12.5698
64.6019 134 11.5758
64.7195 113 10.6301
64.837 95 9.74679
64.9546 96 9.79796
65.0722 65 8.06226
65.1898 58 7.61577
65.3074 67 8.18535
65.4249 61 7.81025
65.5425 55 7.4162
65.6601 56 7.48331
65.7777 66 8.12404
65.8952 68 8.24621
66.0128 68 8.24621
66.1304 83 9.11043
66.2479 66 8.12404
66.3655 66 8.12404
66.483 57 7.54983
66.6005 58 7.61577
66.718 62 7.87401
66.8355 67 8.18535
66.953 67 8.18535
67.0705 64 8
67.1879 63 7.93725
67.3054 55 7.4162
67.4228 53 7.28011
67.5402 49 7
67.6576 82 9.05539
67.7749 68 8.24621
67.8923 75 8.66025
68.0096 58 7.61577
68.1269 72 8.48528
68.2442 52 7.2111
68.3614 72 8.48528
68.4787 75 8.66025
68.5958 73 8.544
68.713 46 6.78233
68.8302 66 8.12404
68.9473 53 7.28011
69.0643 56 7.48331
69.1814 47 6.85565
69.2984 52 7.2111
69.4154 56 7.48331
69.5323 64 8
69.6492 63 7.93725
69.7661 56 7.48331
69.8829 60 7.74597
69.9997 66 8.12404
70.1165 56 7.48331
70.2332 61 7.81025
70.3499 64 8
70.4665 51 7.14143
70.5831 58 7.61577
70.6996 48 6.9282
70.8161 35 5.91608
70.9326 48 6.9282
71.049 41 6.40312
71.1653 46 6.78233
71.2817 42 6.48074
71.3979 28 5.2915
71.5141 27 5.19615
71.6303 28 5.2915
71.7464 27 5.19615
71.8624 0 1
71.9784 0 1
72.0944 0 1
72.2102 0 1
72.3261 0 1
72.4418 0 1
72.5575 0 1
72.6732 0 1
75.1054 0 1
75.2209 0 1
75.3365 0 1
75.4521 0 1
75.5678 0 1
75.6835 0 1
75.7993 0 1
75.9151 0 1
76.031 0 1
76.147 36 6
76.263 39 6.245
76.3791 50 7.07107
76.4952 50 7.07107
76.6113 88 9.38083
76.7276 57 7.54983
76.8438 69 8.30662
76.9601 51 7.14143
77.0765 51 7.14143
77.1929 60 7.74597
77.3093 60 7.74597
77.4258 38 6.16441
77.5423 48 6.9282
77.6589 63 7.93725
77.7755 49 7
77.8921 37 6.08276
78.0088 66 8.12404
78.1256 39 6.245
78.2423 46 6.78233
78.3591 46 6.78233
78.4759 62 7.87401
78.5928 56 7.48331
78.7097 60 7.74597
78.8266 61 7.81025
78.9436 55 7.4162
79.0606 62 7.87401
79.1776 57 7.54983
79.2946 54 7.34847
79.4117 69 8.30662
79.5288 52 7.2111
79.6459 70 8.3666
79.7631 58 7.61577
79.8802 55 7.4162
79.9974 62 7.87401
80.1147 65 8.06226
80.2319 58 7.61577
80.3491 67 8.18535
80.4664 57 7.54983
80.5837 61 7.81025
80.701 54 7.34847
80.8183 68 8.24621
80.9357 55 7.4162
81.053 64 8
81.1704 63 7.93725
81.2877 67 8.18535
81.4051 65 8.06226
81.5225 63 7.93725
81.6399 53 7.28011
81.7573 55 7.4162
81.8747 59 7.68115
81.9922 60 7.74597
82.1096 59 7.68115
82.227 64 8
82.3444 65 8.06226
82.4619 62 7.87401
82.5793 53 7.28011
82.6967 59 7.68115
82.8142 46 6.78233
82.9316 64 8
83.049 63 7.93725
83.1664 51 7.14143
83.2838 56 7.48331
83.4012 75 8.66025
83.5186 55 7.4162
83.636 60 7.74597
83.7534 51 7.14143
83.8708 58 7.61577
83.9881 66 8.12404
84.1055 71 8.42615
84.2228 60 7.74597
84.3401 76 8.7178
84.4575 70 8.3666
84.5747 62 7.87401
84.692 54 7.34847
84.8093 59 7.68115
84.9265 84 9.16515
85.0437 73 8.544
85.1609 58 7.61577
85.2781 64 8
85.3952 61 7.81025
85.5123 47 6.85565
85.6294 61 7.81025
85.7465 69 8.30662
85.8636 53 7.28011
85.9806 47 6.85565
86.0976 63 7.93725
86.2145 59 7.68115
86.3315 64 8
86.4484 75 8.66025
86.5652 66 8.12404
86.682 67 8.18535
86.7988 70 8.3666
86.9156 59 7.68115
87.0323 58 7.61577
87.149 53 7.28011
87.2657 74 8.60233
87.3823 52 7.2111
87.4988 68 8.24621
87.6154 65 8.06226
87.7318 49 7
87.8483 57 7.54983
87.9647 59 7.68115
88.081 45 6.7082
88.1973 27 5.19615
88.3136 37 6.08276
88.4298 29 5.38516
88.546 39 6.245
88.6621 30 5.47723
88.7781 31 5.56776
88.8942 0 1
89.0101 0 1
89.126 0 1
89.2419 0 1
89.3577 0 1
89.4734 0 1
89.5891 0 1
89.7047 0 1
89.8203 0 1
89.9358 0 1
92.3269 0 1
92.4424 0 1
92.558 0 1
92.6736 0 1
92.7893 0 1
92.905 0 1
93.0208 0 1
93.1366 0 1
93.2525 0 1
93.3685 0 1
93.4845 0 1
93.6005 57 7.54983
93.7167 57 7.54983
93.8328 65 8.06226
93.949 48 6.9282
94.0653 57 7.54983
94.1816 79 8.88819
94.2979 63 7.93725
94.4143 52 7.2111
94.5307 74 8.60233
94.6472 68 8.24621
94.7637 69 8.30662
94.8803 50 7.07107
94.9969 67 8.18535
95.1135 55 7.4162
95.2302 65 8.06226
95.3469 65 8.06226
95.4637 66 8.12404
95.5805 56 7.48331
95.6973 68 8.24621
95.8142 63 7.93725
95.9311 70 8.3666
96.048 67 8.18535
96.1649 71 8.42615
96.2819 57 7.54983
96.3989 52 7.2111
96.516 53 7.28011
96.633 56 7.48331
96.7501 64 8
96.8673 59 7.68115
96.9844 64 8
97.1016 68 8.24621
97.2188 70 8.3666
97.336 73 8.544
97.4532 62 7.87401
97.5704 64 8
97.6877 58 7.61577
97.805 70 8.3666
97.9223 62 7.87401
98.0396 72 8.48528
98.1569 65 8.06226
98.2743 60 7.74597
98.3916 64 8
98.509 68 8.24621
98.6264 43 6.55744
98.7438 49 7
98.8612 56 7.48331
98.9786 67 8.18535
99.096 57 7.54983
99.2134 76 8.7178
99.3308 61 7.81025
99.4482 70 8.3666
99.5656 59 7.68115
99.6831 67 8.18535
99.8005 67 8.18535
99.9179 61 7.81025
100.035 67 8.18535
100.153 56 7.48331
100.27 66 8.12404
100.388 53 7.28011
100.505 70 8.3666
100.622 62 7.87401
100.74 67 8.18535
100.857 61 7.81025
100.975 62 7.87401
101.092 62 7.87401
101.209 81 9
101.327 72 8.48528
101.444 71 8.42615
101.561 76 8.7178
101.679 56 7.48331
101.796 64 8
101.913 64 8
102.03 62 7.87401
102.148 65 8.06226
102.265 54 7.34847
102.382 76 8.7178
102.499 51 7.14143
102.616 68 8.24621
102.733 68 8.24621
102.851 86 9.27362
102.968 72 8.48528
103.085 80 8.94427
103.202 73 8.544
103.319 67 8.18535
103.436 67 8.18535
103.552 74 8.60233
103.669 76 8.7178
103.786 71 8.42615
103.903 86 9.27362
104.02 74 8.60233
104.137 66 8.12404
104.253 71 8.42615
104.37 82 9.05539
104.487 54 7.34847
104.603 67 8.18535
104.72 52 7.2111
104.836 72 8.48528
104.953 77 8.77496
105.069 63 7.93725
105.186 60 7.74597
105.302 51 7.14143
105.418 54 7.34847
105.535 51 7.14143
105.651 45 6.7082
105.767 43 6.55744
105.883 26 5.09902
105.999 39 6.245
106.115 0 1
106.231 0 1
106.347 0 1
106.463 0 1
106.579 0 1
106.694 0 1
106.81 0 1
106.926 0 1
107.041 0 1
107.157 0 1
109.576 0 1
109.692 0 1
109.807 0 1
109.923 0 1
110.039 0 1
110.155 0 1
110.27 0 1
110.386 0 1
110.502 0 1
110.618 25 5
110.735 31 5.56776
110.851 35 5.91608
110.967 48 6.9282
111.083 45 6.7082
111.199 56 7.48331
111.316 69 8.30662
111.432 69 8.30662
111.549 67 8.18535
111.665 97 9.84886
111.782 65 8.06226
111.898 69 8.30662
112.015 71 8.42615
112.132 59 7.68115
112.248 60 7.74597
112.365 71 8.42615
112.482 67 8.18535
112.599 48 6.9282
112.716 68 8.24621
112.832 51 7.14143
112.949 68 8.24621
113.066 66 8.12404
113.183 50 7.07107
113.3 69 8.30662
113.417 65 8.06226
113.534 73 8.544
113.652 76 8.7178
113.769 56 7.48331
113.886 52 7.2111
114.003 52 7.2111
114.12 53 7.28011
114.238 44 6.63325
114.355 53 7.28011
114.472 56 7.48331
114.589 67 8.18535
114.707 56 7.48331
114.824 49 7
114.942 67 8.18535
115.059 67 8.18535
115.176 70 8.3666
115.294 71 8.42615
115.411 55 7.4162
115.529 62 7.87401
115.646 65 8.06226
115.764 54 7.34847
115.881 61 7.81025
115.999 59 7.68115
116.116 65 8.06226
116.234 58 7.61577
116.351 72 8.48528
116.469 53 7.28011
116.586 52 7.2111
116.704 73 8.544
116.821 58 7.61577
116.939 58 7.61577
117.056 55 7.4162
117.174 62 7.87401
117.291 75 8.66025
117.409 65 8.06226
117.526 67 8.18535
117.644 57 7.54983
117.761 67 8.18535
117.879 67 8.18535
117.996 49 7
118.114 45 6.7082
118.231 46 6.78233
118.349 70 8.3666
118.466 59 7.68115
118.584 55 7.4162
118.701 68 8.24621
118.819 56 7.48331
118.936 80 8.94427
119.053 67 8.18535
119.171 63 7.93725
119.288 64 8
119.405 77 8.77496
119.523 53 7.28011
119.64 40 6.32456
119.757 55 7.4162
119.875 63 7.93725
119.992 66 8.12404
120.109 54 7.34847
120.226 65 8.06226
120.343 73 8.544
120.46 51 7.14143
120.578 61 7.81025
120.695 63 7.93725
120.812 54 7.34847
120.929 60 7.74597
121.046 58 7.61577
121.163 65 8.06226
121.279 45 6.7082
121.396 64 8
121.513 41 6.40312
121.63 55 7.4162
121.747 55 7.4162
121.863 36 6
121.98 56 7.48331
122.097 52 7.2111
122.213 43 6.55744
122.33 56 7.48331
122.446 46 6.78233
122.563 29 5.38516
122.679 47 6.85565
122.795 29 5.38516
122.912 43 6.55744
123.028 30 5.47723
123.144 35 5.91608
123.26 34 5.83095
123.377 0 1
123.493 0 1
123.609 0 1
123.725 0 1
123.84 0 1
123.956 0 1
124.072 0 1
124.188 0 1
124.303 0 1
124.419 0 1
126.852 0 1
126.968 0 1
127.083 0 1
127.199 0 1
127.315 0 1
127.431 0 1
127.547 0 1
127.663 0 1
127.779 0 1
127.895 0 1
128.011 0 1
128.127 0 1
128.243 0 1
128.359 68 8.24621
128.476 71 8.42615
128.592 77 8.77496
128.708 87 9.32738
128.825 53 7.28011
128.941 65 8.06226
129.058 67 8.18535
129.174 67 8.18535
129.291 71 8.42615
129.408 71 8.42615
129.524 66 8.12404
129.641 56 7.48331
129.758 65 8.06226
129.875 70 8.3666
129.992 73 8.544
130.108 85 9.21954
130.225 70 8.3666
130.342 70 8.3666
130.459 59 7.68115
130.576 79 8.88819
130.693 56 7.48331
130.81 63 7.93725
130.928 79 8.88819
131.045 56 7.48331
131.162 71 8.42615
131.279 56 7.48331
131.396 69 8.30662
131.513 68 8.24621
131.631 74 8.60233
131.748 70 8.3666
131.865 57 7.54983
131.983 77 8.77496
132.1 55 7.4162
132.217 54 7.34847
132.335 74 8.60233
132.452 73 8.544
132.57 82 9.05539
132.687 69 8.30662
132.804 101 10.0499
132.922 69 8.30662
133.039 83 9.11043
133.157 57 7.54983
133.274 67 8.18535
133.392 60 7.74597
133.509 76 8.7178
133.627 64 8
133.744 78 8.83176
133.862 79 8.88819
133.979 78 8.83176
134.097 64 8
134.214 62 7.87401
134.332 61 7.81025
134.449 65 8.06226
134.567 78 8.83176
134.684 63 7.93725
134.802 68 8.24621
134.919 73 8.544
135.037 71 8.42615
135.154 61 7.81025
135.272 87 9.32738
135.389 68 8.24621
135.507 72 8.48528
135.624 74 8.60233
135.742 83 9.11043
135.859 88 9.38083
135.977 87 9.32738
136.094 90 9.48683
136.211 75 8.66025
136.329 79 8.88819
136.446 74 8.60233
136.564 60 7.74597
136.681 68 8.24621
136.798 80 8.94427
136.915 81 9
137.033 49 7
137.15 92 9.59166
137.267 68 8.24621
137.384 67 8.18535
137.502 80 8.94427
137.619 67 8.18535
137.736 59 7.68115
137.853 53 7.28011
137.97 76 8.7178
138.087 54 7.34847
138.204 67 8.18535
138.321 80 8.94427
138.438 64 8
138.555 75 8.66025
138.672 85 9.21954
138.788 70 8.3666
138.905 67 8.18535
139.022 66 8.12404
139.139 72 8.48528
139.255 52 7.2111
139.372 59 7.68115
139.488 63 7.93725
139.605 66 8.12404
139.721 50 7.07107
139.838 48 6.9282
139.954 56 7.48331
140.071 40 6.32456
140.187 38 6.16441
140.303 37 6.08276
140.419 34 5.83095
140.535 42 6.48074
140.652 45 6.7082
140.768 0 1
140.884 0 1
141 0 1
141.115 0 1
141.231 0 1
141.347 0 1
141.463 0 1
141.578 0 1
141.694 0 1
144.104 0 1
144.219 0 1
144.335 0 1
144.45 0 1
144.566 0 1
144.682 0 1
144.798 0 1
144.914 0 1
145.03 0 1
145.146 57 7.54983
145.262 68 8.24621
145.378 67 8.18535
145.494 72 8.48528
145.61 71 8.42615
145.726 59 7.68115
145.842 75 8.66025
145.959 89 9.43398
146.075 88 9.38083
146.192 82 9.05539
146.308 77 8.77496
146.425 100 10
146.541 88 9.38083
146.658 94 9.69536
146.774 104 10.198
146.891 70 8.3666
147.008 120 10.9545
147.125 94 9.69536
147.241 117 10.8167
147.358 119 10.9087
147.475 114 10.6771
147.592 127 11.2694
147.709 122 11.0454
147.826 116 10.7703
147.943 116 10.7703
148.06 122 11.0454
148.177 107 10.3441
148.294 130 11.4018
148.411 115 10.7238
148.528 113 10.6301
148.645 133 11.5326
148.762 123 11.0905
148.88 141 11.8743
148.997 145 12.0416
149.114 128 11.3137
149.231 134 11.5758
149.349 143 11.9583
149.466 141 11.8743
149.583 130 11.4018
149.701 135 11.619
149.818 130 11.4018
149.935 109 10.4403
150.053 122 11.0454
150.17 124 11.1355
150.287 101 10.0499
150.405 126 11.225
150.522 113 10.6301
150.64 123 11.0905
150.757 131 11.4455
150.875 136 11.6619
150.992 101 10.0499
151.11 121 11
151.227 113 10.6301
151.344 109 10.4403
151.462 128 11.3137
151.579 114 10.6771
151.697 99 9.94987
151.814 115 10.7238
151.932 128 11.3137
152.049 115 10.7238
152.167 112 10.583
152.284 109 10.4403
152.402 129 11.3578
152.519 127 11.2694
152.636 102 10.0995
152.754 131 11.4455
152.871 139 11.7898
152.989 123 11.0905
153.106 124 11.1355
153.223 107 10.3441
153.341 120 10.9545
153.458 107 10.3441
153.575 115 10.7238
153.693 103 10.1489
153.81 91 9.53939
153.927 132 11.4891
154.044 114 10.6771
154.162 110 10.4881
154.279 107 10.3441
154.396 98 9.89949
154.513 108 10.3923
154.63 105 10.247
154.747 118 10.8628
154.864 103 10.1489
154.981 109 10.4403
155.098 106 10.2956
155.215 123 11.0905
155.332 106 10.2956
155.449 107 10.3441
155.566 114 10.6771
155.683 136 11.6619
155.8 125 11.1803
155.917 119 10.9087
156.033 137 11.7047
156.15 0 1
156.267 0 1
156.383 0 1
156.5 0 1
156.617 0 1
156.733 0 1
156.85 0 1
156.966 0 1
157.082 0 1
157.199 0 1
157.315 0 1
157.431 0 1
157.547 0 1
157.664 0 1
157.78 0 1
157.896 0 1
158.012 0 1
158.128 0 1
158.244 0 1
158.359 0 1
158.475 0 1
158.591 0 1
158.706 0 1
