
6.15755 0 1
6.2731 0 1
6.3887 0 1
6.50437 0 1
6.62009 0 1
6.73587 0 1
6.8517 0 1
6.96759 0 1
7.08353 0 1
7.19952 0 1
7.31557 0 1
7.43166 0 1
7.54781 0 1
7.664 0 1
7.78024 0 1
7.89653 0 1
8.01286 0 1
8.12924 0 1
8.24567 0 1
8.36213 0 1
8.47864 0 1
8.59519 0 1
8.71178 0 1
8.82841 0 1
8.94508 0 1
9.06179 0 1
9.17853 0 1
9.29531 0 1
9.41212 0 1
9.52897 0 1
9.64584 0 1
9.76276 0 1
9.8797 0 1
9.99667 0 1
10.1137 0 1
10.2307 0 1
10.3478 0 1
10.4648 0 1
10.5819 0 1
10.6991 0 1
10.8162 0 1
10.9334 0 1
11.0506 0 1
11.1678 0 1
11.285 0 1
11.4023 0 1
11.5196 0 1
11.6369 0 1
11.7542 0 1
11.8715 0 1
11.9888 0 1
12.1062 0 1
12.2235 0 1
12.3409 0 1
12.4582 0 1
12.5756 0 1
12.693 0 1
12.8104 0 1
12.9278 0 1
13.0452 0 1
13.1626 0 1
13.28 0 1
13.3974 0 1
13.5149 0 1
13.6323 0 1
13.7497 0 1
13.8671 0 1
13.9845 0 1
14.1019 0 1
14.2193 0 1
14.3367 0 1
14.4541 0 1
14.5714 0 1
14.6888 0 1
14.8062 0 1
14.9235 0 1
15.0408 0 0
15.1581 0 0
15.2755 0 0
15.3927 0 0
15.51 0 0
15.6273 0 0
15.7445 0 0
15.8617 0 0
15.9789 0 0
16.0961 0 0
16.2132 0 0
16.3304 0 0
16.4475 0 0
16.5646 0 0
16.6816 0 0
16.7986 0 0
16.9156 0 0
17.0326 0 0
17.1496 0 0
17.2665 0 0
17.3833 0 0
17.5002 0 0
17.617 0 0
17.7338 0 0
17.8505 0 0
17.9672 0 0
18.0839 0 0
18.2005 0 0
18.3171 0 0
18.4337 0 0
18.5502 0 0
18.6666 0 0
18.7831 0 0
18.8994 0 0
19.0158 0 0
19.1321 0 0
19.2483 0 0
19.3645 0 0
19.4806 0 0
19.5967 0 0
19.7128 0 0
19.8288 0 0
19.9447 0 0
20.0606 0 1
20.1764 0 1
20.2922 0 1
20.4079 0 1
20.5236 0 1
20.6392 0 1
20.7548 0 1
20.8702 0 1
23.3078 0 1
23.4233 0 1
23.539 0 1
23.6547 0 1
23.7704 0 1
23.8862 0 1
24.0021 0 1
24.118 0 1
24.234 0 1
24.35 0 1
24.4661 1293 35.9583
24.5822 1441 37.9605
24.6984 1552 39.3954
24.8146 1676 40.939
24.9309 2012 44.8553
25.0472 2299 47.9479
25.1636 2527 50.2693
25.28 2653 51.5073
25.3965 2772 52.6498
25.513 2796 52.8772
25.6296 2829 53.1883
25.7462 2761 52.5452
25.8628 2656 51.5364
25.9795 2812 53.0283
26.0962 2759 52.5262
26.213 2821 53.1131
26.3298 2844 53.3292
26.4466 2790 52.8205
26.5635 2703 51.9904
26.6804 2751 52.45
26.7973 2721 52.1632
26.9143 2577 50.7642
27.0313 2531 50.309
27.1483 2647 51.449
27.2653 2585 50.8429
27.3824 2606 51.049
27.4996 2360 48.5798
27.6167 2289 47.8435
27.7339 2241 47.3392
27.8511 2371 48.6929
27.9683 2339 48.3632
28.0855 2592 50.9117
28.2028 2561 50.6063
28.3201 2543 50.4282
28.4374 2541 50.4083
28.5547 2605 51.0392
28.6721 2509 50.0899
28.7894 2553 50.5272
28.9068 2519 50.1896
29.0242 2596 50.951
29.1416 2659 51.5655
29.259 2669 51.6624
29.3764 2579 50.7839
29.4939 2558 50.5767
29.6113 2395 48.9387
29.7288 2467 49.6689
29.8463 2370 48.6826
29.9638 2430 49.295
30.0812 2392 48.9081
30.1987 2558 50.5767
30.3162 2565 50.6458
30.4337 2552 50.5173
30.5512 2622 51.2055
30.6687 2553 50.5272
30.7862 2532 50.319
30.9037 2373 48.7134
31.0212 2243 47.3603
31.1387 2303 47.9896
31.2562 2414 49.1325
31.3737 2477 49.7695
31.4912 2476 49.7594
31.6087 2688 51.8459
31.7262 2663 51.6043
31.8436 2557 50.5668
31.9611 2601 51
32.0785 2527 50.2693
32.1959 2517 50.1697
32.3134 2429 49.2849
32.4308 2480 49.7996
32.5482 2509 50.0899
32.6655 2423 49.224
32.7829 2366 48.6415
32.9002 2312 48.0833
33.0176 2309 48.0521
33.1349 2166 46.5403
33.2522 2181 46.7012
33.3694 2259 47.5289
33.4867 2317 48.1352
33.6039 2262 47.5605
33.7211 2234 47.2652
33.8383 2311 48.0729
33.9554 2397 48.9592
34.0725 2440 49.3964
34.1896 2527 50.2693
34.3067 2440 49.3964
34.4237 2469 49.689
34.5407 2399 48.9796
34.6577 2258 47.5184
34.7746 2326 48.2286
34.8915 2309 48.0521
35.0084 2438 49.3761
35.1252 2556 50.5569
35.242 2591 50.9019
35.3587 2686 51.8266
35.4755 2532 50.319
35.5921 2500 50
35.7088 2377 48.7545
35.8254 2359 48.5695
35.9419 2199 46.8935
36.0584 2150 46.3681
36.1749 2232 47.244
36.2913 2135 46.2061
36.4077 2160 46.4758
36.524 2040 45.1664
36.6403 1758 41.9285
36.7565 1559 39.4842
36.8727 1527 39.0768
36.9889 1420 37.6829
37.1049 1467 38.3014
37.221 0 1
37.3369 0 1
37.4529 0 1
37.5687 0 1
37.6845 0 1
37.8003 0 1
37.916 0 1
38.0316 0 1
38.1472 0 1
40.5851 0 1
40.7008 0 1
40.8164 0 1
40.9322 0 1
41.048 0 1
41.1639 0 1
41.2798 0 1
41.3958 0 1
41.5118 0 1
41.6279 0 1
41.744 1953 44.1928
41.8602 2513 50.1298
41.9765 2965 54.4518
42.0928 3193 56.5066
42.2091 3345 57.836
42.3255 3261 57.1052
42.4419 3357 57.9396
42.5584 3383 58.1636
42.675 3435 58.6089
42.7915 3563 59.6909
42.9081 3546 59.5483
43.0248 3557 59.6406
43.1415 3546 59.5483
43.2582 3394 58.258
43.375 3219 56.7362
43.4918 3302 57.463
43.6087 3112 55.7853
43.7256 3284 57.3062
43.8425 3537 59.4727
43.9595 3419 58.4722
44.0765 3406 58.3609
44.1935 3406 58.3609
44.3106 3235 56.8771
44.4277 3149 56.116
44.5448 2945 54.2679
44.6619 2923 54.0648
44.7791 2753 52.469
44.8963 2612 51.1077
45.0136 2472 49.7192
45.1308 2417 49.163
45.2481 2305 48.0104
45.3654 2184 46.7333
45.4827 2057 45.3542
45.6001 2030 45.0555
45.7174 1978 44.4747
45.8348 2056 45.3431
45.9522 1967 44.3509
46.0697 2051 45.288
46.1871 2048 45.2548
46.3046 2168 46.5618
46.422 2290 47.8539
46.5395 2121 46.0543
46.657 2143 46.2925
46.7745 2120 46.0435
46.892 2046 45.2327
47.0096 1998 44.699
47.1271 2012 44.8553
47.2446 2073 45.5302
47.3622 2116 46
47.4797 2168 46.5618
47.5973 2192 46.8188
47.7149 2123 46.076
47.8324 1997 44.6878
47.95 2135 46.2061
48.0675 2014 44.8776
48.1851 2139 46.2493
48.3027 2029 45.0444
48.4202 1972 44.4072
48.5378 1889 43.4626
48.6554 1915 43.7607
48.7729 1959 44.2606
48.8904 1861 43.1393
49.008 1869 43.2319
49.1255 1869 43.2319
49.243 1883 43.3935
49.3605 1906 43.6578
49.478 1868 43.2204
49.5955 1954 44.2041
49.713 1966 44.3396
49.8304 2130 46.1519
49.9479 1972 44.4072
50.0653 2106 45.8912
50.1827 2025 45
50.3001 1966 44.3396
50.4175 1717 41.4367
50.5348 1666 40.8167
50.6521 1724 41.5211
50.7694 1877 43.3244
50.8867 1950 44.1588
51.004 2074 45.5412
51.1212 2080 45.607
51.2384 2095 45.7712
51.3556 2058 45.3652
51.4727 2102 45.8476
51.5899 2054 45.3211
51.707 2117 46.0109
51.824 2073 45.5302
51.9411 2029 45.0444
52.0581 1944 44.0908
52.175 1960 44.2719
52.2919 1997 44.6878
52.4088 1915 43.7607
52.5257 1995 44.6654
52.6425 1821 42.6732
52.7593 1828 42.7551
52.876 1848 42.9884
52.9927 1897 43.5546
53.1094 1878 43.3359
53.226 1772 42.0951
53.3426 1892 43.4971
53.4591 1919 43.8064
53.5756 1639 40.4846
53.692 1495 38.6652
53.8084 1361 36.8917
53.9248 1188 34.4674
54.0411 1081 32.8786
54.1573 998 31.5911
54.2735 0 1
54.3896 0 1
54.5057 0 1
54.6217 0 1
54.7377 0 1
54.8537 0 1
54.9695 0 1
55.0853 0 1
55.2011 0 1
55.3168 0 1
55.4324 0 1
57.824 0 1
57.9396 0 1
58.0553 0 1
58.1711 0 1
58.2869 0 1
58.4028 0 1
58.5187 0 1
58.6347 0 1
58.7508 0 1
58.8669 0 1
58.983 1706 41.3038
59.0992 1712 41.3763
59.2155 1709 41.3401
59.3318 1818 42.638
59.4482 2056 45.3431
59.5646 2220 47.1169
59.681 2362 48.6004
59.7975 2453 49.5278
59.9141 2426 49.2544
60.0306 2420 49.1935
60.1473 2460 49.5984
60.2639 2474 49.7393
60.3807 2453 49.5278
60.4974 2476 49.7594
60.6142 2453 49.5278
60.731 2446 49.4571
60.8479 2476 49.7594
60.9648 2497 49.97
61.0818 2428 49.2747
61.1987 2409 49.0816
61.3158 2338 48.3529
61.4328 2377 48.7545
61.5499 2275 47.697
61.667 2249 47.4236
61.7841 2393 48.9183
61.9013 2421 49.2037
62.0185 2471 49.7092
62.1357 2417 49.163
62.253 2427 49.2646
62.3702 2394 48.9285
62.4875 2227 47.1911
62.6049 2116 46
62.7222 2151 46.3789
62.8396 2351 48.4871
62.9569 2438 49.3761
63.0743 2591 50.9019
63.1918 2557 50.5668
63.3092 2578 50.774
63.4267 2561 50.6063
63.5441 2563 50.6261
63.6616 2606 51.049
63.7791 2424 49.2341
63.8966 2485 49.8498
64.0142 2483 49.8297
64.1317 2482 49.8197
64.2492 2539 50.3885
64.3668 2428 49.2747
64.4843 2482 49.8197
64.6019 2491 49.9099
64.7195 2290 47.8539
64.837 2406 49.051
64.9546 2311 48.0729
65.0722 2304 48
65.1898 2285 47.8017
65.3074 2337 48.3425
65.4249 2254 47.4763
65.5425 2416 49.1528
65.6601 2463 49.6286
65.7777 2405 49.0408
65.8952 2558 50.5767
66.0128 2273 47.676
66.1304 2006 44.7884
66.2479 1909 43.6921
66.3655 2062 45.4093
66.483 2289 47.8435
66.6005 2427 49.2646
66.718 2429 49.2849
66.8355 2550 50.4975
66.953 2533 50.3289
67.0705 2512 50.1199
67.1879 2455 49.548
67.3054 2367 48.6518
67.4228 2428 49.2747
67.5402 2313 48.0937
67.6576 2369 48.6724
67.7749 2395 48.9387
67.8923 2399 48.9796
68.0096 2421 49.2037
68.1269 2494 49.94
68.2442 2315 48.1144
68.3614 2340 48.3735
68.4787 2382 48.8057
68.5958 2303 47.9896
68.713 2217 47.085
68.8302 2239 47.3181
68.9473 2315 48.1144
69.0643 2231 47.2335
69.1814 2301 47.9687
69.2984 2319 48.156
69.4154 2270 47.6445
69.5323 2221 47.1275
69.6492 2166 46.5403
69.7661 1891 43.4856
69.8829 1812 42.5676
69.9997 1817 42.6263
70.1165 1999 44.7102
70.2332 2111 45.9456
70.3499 1997 44.6878
70.4665 1703 41.2674
70.5831 1696 41.1825
70.6996 1554 39.4208
70.8161 1515 38.923
70.9326 1548 39.3446
71.049 1438 37.921
71.1653 1312 36.2215
71.2817 1343 36.647
71.3979 1271 35.6511
71.5141 1248 35.327
71.6303 1209 34.7707
71.7464 1082 32.8938
71.8624 0 1
71.9784 0 1
72.0944 0 1
72.2102 0 1
72.3261 0 1
72.4418 0 1
72.5575 0 1
72.6732 0 1
75.1054 0 1
75.2209 0 1
75.3365 0 1
75.4521 0 1
75.5678 0 1
75.6835 0 1
75.7993 0 1
75.9151 0 1
76.031 0 1
76.147 1892 43.4971
76.263 2045 45.2217
76.3791 2087 45.6837
76.4952 2150 46.3681
76.6113 2156 46.4327
76.7276 2193 46.8295
76.8438 2227 47.1911
76.9601 2258 47.5184
77.0765 2241 47.3392
77.1929 2328 48.2494
77.3093 2288 47.833
77.4258 2214 47.0532
77.5423 2134 46.1952
77.6589 2120 46.0435
77.7755 2235 47.2758
77.8921 2119 46.0326
78.0088 2135 46.2061
78.1256 2223 47.1487
78.2423 2218 47.0956
78.3591 2288 47.833
78.4759 2215 47.0638
78.5928 2173 46.6154
78.7097 1931 43.9431
78.8266 1633 40.4104
78.9436 1521 39
79.0606 1619 40.2368
79.1776 1919 43.8064
79.2946 2146 46.3249
79.4117 2291 47.8644
79.5288 2279 47.7389
79.6459 2396 48.949
79.7631 2292 47.8748
79.8802 2300 47.9583
79.9974 2283 47.7807
80.1147 2311 48.0729
80.2319 2343 48.4045
80.3491 2263 47.571
80.4664 2443 49.4267
80.5837 2346 48.4355
80.701 2386 48.8467
80.8183 2529 50.2892
80.9357 2434 49.3356
81.053 2503 50.03
81.1704 2402 49.0102
81.2877 2294 47.8957
81.4051 2255 47.4868
81.5225 2319 48.156
81.6399 2359 48.5695
81.7573 2440 49.3964
81.8747 2440 49.3964
81.9922 2574 50.7346
82.1096 2693 51.8941
82.227 2692 51.8845
82.3444 2463 49.6286
82.4619 2200 46.9042
82.5793 2091 45.7275
82.6967 2188 46.7761
82.8142 2751 52.45
82.9316 3213 56.6833
83.049 3420 58.4808
83.1664 3705 60.8687
83.2838 3854 62.0806
83.4012 3910 62.53
83.5186 3995 63.206
83.636 4020 63.4035
83.7534 4074 63.8279
83.8708 4092 63.9687
83.9881 4219 64.9538
84.1055 4342 65.8939
84.2228 4218 64.9461
84.3401 4352 65.9697
84.4575 4353 65.9773
84.5747 4367 66.0833
84.692 4253 65.215
84.8093 4298 65.5591
84.9265 4330 65.8027
85.0437 4343 65.9014
85.1609 4300 65.5744
85.2781 4280 65.4217
85.3952 4164 64.5291
85.5123 4233 65.0615
85.6294 4102 64.0469
85.7465 4148 64.405
85.8636 3834 61.9193
85.9806 3266 57.1489
86.0976 2739 52.3355
86.2145 2735 52.2972
86.3315 3040 55.1362
86.4484 3747 61.2127
86.5652 4173 64.5988
86.682 4174 64.6065
86.7988 4109 64.1015
86.9156 4055 63.6789
87.0323 4049 63.6318
87.149 4037 63.5374
87.2657 4140 64.3428
87.3823 4032 63.498
87.4988 3962 62.9444
87.6154 3654 60.4483
87.7318 3260 57.0964
87.8483 3035 55.0908
87.9647 3088 55.5698
88.081 2945 54.2679
88.1973 2958 54.3875
88.3136 2791 52.8299
88.4298 2623 51.2152
88.546 2518 50.1797
88.6621 2431 49.3052
88.7781 2336 48.3322
88.8942 0 1
89.0101 0 1
89.126 0 1
89.2419 0 1
89.3577 0 1
89.4734 0 1
89.5891 0 1
89.7047 0 1
89.8203 0 1
89.9358 0 1
92.3269 0 1
92.4424 0 1
92.558 0 1
92.6736 0 1
92.7893 0 1
92.905 0 1
93.0208 0 1
93.1366 0 1
93.2525 0 1
93.3685 0 1
93.4845 0 1
93.6005 4483 66.9552
93.7167 4458 66.7683
93.8328 4413 66.4304
93.949 4430 66.5582
94.0653 4463 66.8057
94.1816 4371 66.1135
94.2979 4252 65.2074
94.4143 4456 66.7533
94.5307 4439 66.6258
94.6472 4314 65.681
94.7637 4171 64.5833
94.8803 3825 61.8466
94.9969 3306 57.4978
95.1135 3093 55.6147
95.2302 3119 55.848
95.3469 3651 60.4235
95.4637 4129 64.2573
95.5805 4422 66.4981
95.6973 4482 66.9477
95.8142 4604 67.8528
95.9311 4598 67.8086
96.048 4516 67.2012
96.1649 4483 66.9552
96.2819 4458 66.7683
96.3989 4498 67.0671
96.516 4507 67.1342
96.633 4523 67.2533
96.7501 4525 67.2681
96.8673 4562 67.5426
96.9844 4637 68.0955
97.1016 4723 68.7241
97.2188 4451 66.7158
97.336 4528 67.2904
97.4532 4485 66.9701
97.5704 4289 65.4905
97.6877 4410 66.4078
97.805 4350 65.9545
97.9223 4438 66.6183
98.0396 4431 66.5658
98.1569 4397 66.3099
98.2743 4322 65.7419
98.3916 3945 62.8092
98.509 3307 57.5065
98.6264 2961 54.4151
98.7438 3060 55.3173
98.8612 3374 58.0861
98.9786 3768 61.384
99.096 3858 62.1128
99.2134 3743 61.1801
99.3308 3685 60.7042
99.4482 3454 58.7707
99.5656 3496 59.127
99.6831 3259 57.0877
99.8005 3323 57.6455
99.9179 3147 56.0981
100.035 3118 55.8391
100.153 3108 55.7494
100.27 3048 55.2087
100.388 3090 55.5878
100.505 3258 57.0789
100.622 3083 55.5248
100.74 3052 55.2449
100.857 3072 55.4256
100.975 3068 55.3895
101.092 3036 55.0999
101.209 2975 54.5436
101.327 2925 54.0833
101.444 3037 55.109
101.561 3032 55.0636
101.679 3009 54.8544
101.796 3016 54.9181
101.913 2725 52.2015
102.03 2614 51.1273
102.148 2331 48.2804
102.265 2248 47.4131
102.382 2490 49.8999
102.499 2590 50.892
102.616 2808 52.9906
102.733 2830 53.1977
102.851 2795 52.8678
102.968 2836 53.2541
103.085 2730 52.2494
103.202 2880 53.6656
103.319 2701 51.9711
103.436 2754 52.4786
103.552 2710 52.0577
103.669 2706 52.0192
103.786 2741 52.3546
103.903 2671 51.6817
104.02 2835 53.2447
104.137 2795 52.8678
104.253 2849 53.376
104.37 2838 53.2729
104.487 2800 52.915
104.603 2713 52.0865
104.72 2651 51.4879
104.836 2477 49.7695
104.953 2155 46.422
105.069 1991 44.6206
105.186 1792 42.332
105.302 1678 40.9634
105.418 1559 39.4842
105.535 1459 38.1969
105.651 1229 35.0571
105.767 1042 32.28
105.883 859 29.3087
105.999 810 28.4605
106.115 0 1
106.231 0 1
106.347 0 1
106.463 0 1
106.579 0 1
106.694 0 1
106.81 0 1
106.926 0 1
107.041 0 1
107.157 0 1
109.576 0 1
109.692 0 1
109.807 0 1
109.923 0 1
110.039 0 1
110.155 0 1
110.27 0 1
110.386 0 1
110.502 0 1
110.618 2748 52.4214
110.735 2892 53.7773
110.851 2703 51.9904
110.967 2378 48.7647
111.083 2386 48.8467
111.199 2607 51.0588
111.316 2910 53.9444
111.432 2974 54.5344
111.549 2970 54.4977
111.665 3065 55.3624
111.782 3015 54.909
111.898 3199 56.5597
112.015 3084 55.5338
112.132 3030 55.0454
112.248 3046 55.1906
112.365 3117 55.8301
112.482 2930 54.1295
112.599 3126 55.9106
112.716 3256 57.0614
112.832 3334 57.7408
112.949 3265 57.1402
113.066 3356 57.931
113.183 3342 57.81
113.3 3289 57.3498
113.417 3317 57.5934
113.534 3255 57.0526
113.652 3275 57.2276
113.769 3265 57.1402
113.886 3375 58.0948
114.003 3237 56.8946
114.12 3415 58.438
114.238 3136 56
114.355 3036 55.0999
114.472 2662 51.5946
114.589 2595 50.9411
114.707 2657 51.5461
114.824 2967 54.4702
114.942 3077 55.4707
115.059 3246 56.9737
115.176 3195 56.5243
115.294 3093 55.6147
115.411 3116 55.8211
115.529 3217 56.7186
115.646 3119 55.848
115.764 2982 54.6077
115.881 2999 54.7631
115.999 3038 55.1181
116.116 3136 56
116.234 3132 55.9643
116.351 3346 57.8446
116.469 3262 57.1139
116.586 3332 57.7235
116.704 3367 58.0259
116.821 3368 58.0345
116.939 3469 58.8982
117.056 3374 58.0861
117.174 3376 58.1034
117.291 3367 58.0259
117.409 3420 58.4808
117.526 3295 57.4021
117.644 3488 59.0593
117.761 3392 58.2409
117.879 3186 56.4447
117.996 2962 54.4243
118.114 2710 52.0577
118.231 2648 51.4587
118.349 2704 52
118.466 2956 54.3691
118.584 3098 55.6597
118.701 3256 57.0614
118.819 3265 57.1402
118.936 3197 56.542
119.053 3185 56.4358
119.171 3006 54.827
119.288 2935 54.1756
119.405 3004 54.8088
119.523 3013 54.8908
119.64 2857 53.4509
119.757 2980 54.5894
119.875 3049 55.2178
119.992 3058 55.2992
120.109 3111 55.7763
120.226 3213 56.6833
120.343 3282 57.2887
120.46 3327 57.6802
120.578 3183 56.4181
120.695 3148 56.107
120.812 3153 56.1516
120.929 3087 55.5608
121.046 3158 56.1961
121.163 2993 54.7083
121.279 3004 54.8088
121.396 3064 55.3534
121.513 3029 55.0364
121.63 2766 52.5928
121.747 2417 49.163
121.863 2166 46.5403
121.98 2137 46.2277
122.097 2094 45.7602
122.213 2104 45.8694
122.33 2131 46.1628
122.446 2242 47.3498
122.563 2067 45.4643
122.679 2039 45.1553
122.795 1941 44.0568
122.912 1933 43.9659
123.028 1890 43.4741
123.144 1925 43.8748
123.26 1803 42.4617
123.377 0 1
123.493 0 1
123.609 0 1
123.725 0 1
123.84 0 1
123.956 0 1
124.072 0 1
124.188 0 1
124.303 0 1
124.419 0 1
126.852 0 1
126.968 0 1
127.083 0 1
127.199 0 1
127.315 0 1
127.431 0 1
127.547 0 1
127.663 0 1
127.779 0 1
127.895 0 1
128.011 0 1
128.127 0 1
128.243 0 1
128.359 3586 59.8832
128.476 3447 58.7112
128.592 3505 59.203
128.708 3564 59.6992
128.825 3524 59.3633
128.941 3761 61.327
129.058 3616 60.1332
129.174 3806 61.6928
129.291 3789 61.5549
129.408 3890 62.3699
129.524 3998 63.2297
129.641 4088 63.9375
129.758 4128 64.2495
129.875 4182 64.6684
129.992 4374 66.1362
130.108 4308 65.6354
130.225 4283 65.4446
130.342 4272 65.3605
130.459 4025 63.4429
130.576 4048 63.6239
130.693 3807 61.7009
130.81 3708 60.8933
130.928 3744 61.1882
131.045 3787 61.5386
131.162 3906 62.498
131.279 4134 64.2962
131.396 4123 64.2106
131.513 4119 64.1794
131.631 4158 64.4826
131.748 4109 64.1015
131.865 4012 63.3404
131.983 4164 64.5291
132.1 4004 63.2772
132.217 4026 63.4508
132.335 3875 62.2495
132.452 3873 62.2334
132.57 3958 62.9126
132.687 3757 61.2944
132.804 4223 64.9846
132.922 3986 63.1348
133.039 4004 63.2772
133.157 4058 63.7024
133.274 4212 64.8999
133.392 4275 65.3835
133.509 4327 65.7799
133.627 4517 67.2086
133.744 4501 67.0895
133.862 4426 66.5282
133.979 4543 67.4018
134.097 4385 66.2193
134.214 4341 65.8863
134.332 4221 64.9692
134.449 4122 64.2028
134.567 4269 65.3376
134.684 4391 66.2646
134.802 4359 66.0227
134.919 4495 67.0448
135.037 4532 67.3201
135.154 4480 66.9328
135.272 4329 65.7951
135.389 4404 66.3626
135.507 4307 65.6277
135.624 4342 65.8939
135.742 4190 64.7302
135.859 4187 64.707
135.977 4207 64.8614
136.094 4130 64.2651
136.211 4126 64.2339
136.329 4220 64.9615
136.446 4208 64.8691
136.564 4171 64.5833
136.681 4184 64.6838
136.798 4222 64.9769
136.915 4283 65.4446
137.033 4302 65.5896
137.15 4245 65.1537
137.267 4263 65.2917
137.384 4395 66.2948
137.502 4400 66.3325
137.619 4281 65.4294
137.736 4240 65.1153
137.853 4013 63.3482
137.97 4018 63.3877
138.087 3850 62.0484
138.204 3990 63.1664
138.321 4243 65.1383
138.438 4227 65.0154
138.555 4194 64.7611
138.672 4229 65.0308
138.788 4085 63.914
138.905 4119 64.1794
139.022 3895 62.4099
139.139 3871 62.2174
139.255 3682 60.6795
139.372 3389 58.2151
139.488 3403 58.3352
139.605 3224 56.7803
139.721 3155 56.1694
139.838 3042 55.1543
139.954 2935 54.1756
140.071 2960 54.4059
140.187 2919 54.0278
140.303 2888 53.7401
140.419 2946 54.2771
140.535 2942 54.2402
140.652 3020 54.9545
140.768 0 1
140.884 0 1
141 0 1
141.115 0 1
141.231 0 1
141.347 0 1
141.463 0 1
141.578 0 1
141.694 0 1
144.104 0 1
144.219 0 1
144.335 0 1
144.45 0 1
144.566 0 1
144.682 0 1
144.798 0 1
144.914 0 1
145.03 0 1
145.146 8517 92.2876
145.262 8933 94.5145
145.378 8946 94.5833
145.494 8948 94.5939
145.61 8816 93.8936
145.726 9058 95.1735
145.842 9199 95.9114
145.959 9089 95.3362
146.075 9067 95.2208
146.192 8946 94.5833
146.308 9011 94.9263
146.425 8816 93.8936
146.541 8131 90.1721
146.658 6910 83.1264
146.774 6057 77.8267
146.891 5851 76.4918
147.008 6642 81.4985
147.125 7858 88.6454
147.241 8766 93.6269
147.358 8776 93.6803
147.475 9023 94.9895
147.592 8897 94.3239
147.709 8973 94.7259
147.826 9133 95.5667
147.943 9016 94.9526
148.06 9118 95.4882
148.177 9011 94.9263
148.294 8984 94.784
148.411 9121 95.5039
148.528 9040 95.0789
148.645 9098 95.3834
148.762 9079 95.2838
148.88 9298 96.4261
148.997 8902 94.3504
149.114 9326 96.5712
149.231 8981 94.7681
149.349 9190 95.8645
149.466 9158 95.6974
149.583 9479 97.3602
149.701 9082 95.2995
149.818 9332 96.6023
149.935 9186 95.8436
150.053 9184 95.8332
150.17 8879 94.2284
150.287 7956 89.1964
150.405 6707 81.8963
150.522 6093 78.0577
150.64 6601 81.2465
150.757 7473 86.4465
150.875 8538 92.4013
150.992 8978 94.7523
151.11 8788 93.7443
151.227 9162 95.7183
151.344 8836 94
151.462 8945 94.578
151.579 8746 93.5201
151.697 9035 95.0526
151.814 8938 94.541
151.932 9065 95.2103
152.049 8961 94.6626
152.167 9056 95.163
152.284 9235 96.0989
152.402 9079 95.2838
152.519 9187 95.8488
152.636 9090 95.3415
152.754 9367 96.7833
152.871 9292 96.395
152.989 9418 97.0464
153.106 9412 97.0155
153.223 9417 97.0412
153.341 9425 97.0824
153.458 9575 97.8519
153.575 9473 97.3293
153.693 9639 98.1784
153.81 9051 95.1367
153.927 7999 89.4371
154.044 6727 82.0183
154.162 6498 80.6102
154.279 7041 83.9107
154.396 8109 90.05
154.513 9051 95.1367
154.63 9519 97.5654
154.747 9261 96.2341
154.864 9317 96.5246
154.981 9064 95.205
155.098 8882 94.2444
155.215 8835 93.9947
155.332 8780 93.7017
155.449 8581 92.6337
155.566 8510 92.2497
155.683 8223 90.6808
155.8 8040 89.666
155.917 8000 89.4427
156.033 7879 88.7637
156.15 0 1
156.267 0 1
156.383 0 1
156.5 0 1
156.617 0 1
156.733 0 1
156.85 0 1
156.966 0 1
157.082 0 1
157.199 0 1
157.315 0 1
157.431 0 1
157.547 0 1
157.664 0 1
157.78 0 1
157.896 0 1
158.012 0 1
158.128 0 1
158.244 0 1
158.359 0 1
158.475 0 1
158.591 0 1
158.706 0 1
