
6.15755 0 1
6.2731 0 1
6.3887 0 1
6.50437 0 1
6.62009 0 1
6.73587 0 1
6.8517 0 1
6.96759 0 1
7.08353 0 1
7.19952 0 1
7.31557 0 1
7.43166 0 1
7.54781 0 1
7.664 0 1
7.78024 0 1
7.89653 0 1
8.01286 0 1
8.12924 0 1
8.24567 0 1
8.36213 0 1
8.47864 0 1
8.59519 0 1
8.71178 0 1
8.82841 0 1
8.94508 0 1
9.06179 0 1
9.17853 0 1
9.29531 0 1
9.41212 0 1
9.52897 0 1
9.64584 0 1
9.76276 0 1
9.8797 0 1
9.99667 0 1
10.1137 0 1
10.2307 0 1
10.3478 0 1
10.4648 0 1
10.5819 0 1
10.6991 0 1
10.8162 0 1
10.9334 0 1
11.0506 0 1
11.1678 0 1
11.285 0 1
11.4023 0 1
11.5196 0 1
11.6369 0 1
11.7542 0 1
11.8715 0 1
11.9888 0 1
12.1062 0 1
12.2235 0 1
12.3409 0 1
12.4582 0 1
12.5756 0 1
12.693 0 1
12.8104 0 1
12.9278 0 1
13.0452 0 1
13.1626 0 1
13.28 0 1
13.3974 0 1
13.5149 0 1
13.6323 0 1
13.7497 0 1
13.8671 0 1
13.9845 0 1
14.1019 0 1
14.2193 0 1
14.3367 0 1
14.4541 0 1
14.5714 0 1
14.6888 0 1
14.8062 0 1
14.9235 0 1
15.0408 0 0
15.1581 0 0
15.2755 0 0
15.3927 0 0
15.51 0 0
15.6273 0 0
15.7445 0 0
15.8617 0 0
15.9789 0 0
16.0961 0 0
16.2132 0 0
16.3304 0 0
16.4475 0 0
16.5646 0 0
16.6816 0 0
16.7986 0 0
16.9156 0 0
17.0326 0 0
17.1496 0 0
17.2665 0 0
17.3833 0 0
17.5002 0 0
17.617 0 0
17.7338 0 0
17.8505 0 0
17.9672 0 0
18.0839 0 0
18.2005 0 0
18.3171 0 0
18.4337 0 0
18.5502 0 0
18.6666 0 0
18.7831 0 0
18.8994 0 0
19.0158 0 0
19.1321 0 0
19.2483 0 0
19.3645 0 0
19.4806 0 0
19.5967 0 0
19.7128 0 0
19.8288 0 0
19.9447 0 0
20.0606 0 1
20.1764 0 1
20.2922 0 1
20.4079 0 1
20.5236 0 1
20.6392 0 1
20.7548 0 1
20.8702 0 1
23.3078 0 1
23.4233 0 1
23.539 0 1
23.6547 0 1
23.7704 0 1
23.8862 0 1
24.0021 0 1
24.118 0 1
24.234 0 1
24.35 0 1
24.4661 1528 39.0896
24.5822 1599 39.9875
24.6984 1688 41.0853
24.8146 1602 40.025
24.9309 1639 40.4846
25.0472 1495 38.6652
25.1636 1445 38.0132
25.28 1445 38.0132
25.3965 1469 38.3275
25.513 1483 38.5097
25.6296 1581 39.7618
25.7462 1693 41.1461
25.8628 1772 42.0951
25.9795 1851 43.0232
26.0962 1827 42.7434
26.213 1749 41.821
26.3298 1782 42.2137
26.4466 1773 42.107
26.5635 1745 41.7732
26.6804 1645 40.5586
26.7973 1652 40.6448
26.9143 1656 40.694
27.0313 1671 40.8779
27.1483 1692 41.1339
27.2653 1732 41.6173
27.3824 1772 42.0951
27.4996 1773 42.107
27.6167 1741 41.7253
27.7339 1732 41.6173
27.8511 1758 41.9285
27.9683 1770 42.0714
28.0855 1740 41.7133
28.2028 1644 40.5463
28.3201 1677 40.9512
28.4374 1659 40.7308
28.5547 1542 39.2683
28.6721 1444 38
28.7894 1389 37.2693
28.9068 1441 37.9605
29.0242 1412 37.5766
29.1416 1483 38.5097
29.259 1527 39.0768
29.3764 1687 41.0731
29.4939 1664 40.7922
29.6113 1683 41.0244
29.7288 1672 40.8901
29.8463 1607 40.0874
29.9638 1692 41.1339
30.0812 1554 39.4208
30.1987 1593 39.9124
30.3162 1564 39.5474
30.4337 1618 40.2244
30.5512 1616 40.1995
30.6687 1657 40.7063
30.7862 1721 41.4849
30.9037 1771 42.0833
31.0212 1812 42.5676
31.1387 1770 42.0714
31.2562 1843 42.9302
31.3737 1703 41.2674
31.4912 1684 41.0366
31.6087 1680 40.9878
31.7262 1714 41.4005
31.8436 1716 41.4246
31.9611 1640 40.4969
32.0785 1529 39.1024
32.1959 1479 38.4578
32.3134 1374 37.0675
32.4308 1370 37.0135
32.5482 1415 37.6165
32.6655 1406 37.4967
32.7829 1576 39.6989
32.9002 1683 41.0244
33.0176 1713 41.3884
33.1349 1653 40.6571
33.2522 1667 40.8289
33.3694 1662 40.7676
33.4867 1763 41.9881
33.6039 1681 41
33.7211 1598 39.975
33.8383 1592 39.8999
33.9554 1490 38.6005
34.0725 1541 39.2556
34.1896 1562 39.5221
34.3067 1687 41.0731
34.4237 1633 40.4104
34.5407 1660 40.7431
34.6577 1738 41.6893
34.7746 1721 41.4849
34.8915 1670 40.8656
35.0084 1677 40.9512
35.1252 1750 41.833
35.242 1715 41.4126
35.3587 1647 40.5832
35.4755 1652 40.6448
35.5921 1598 39.975
35.7088 1611 40.1373
35.8254 1479 38.4578
35.9419 1369 37
36.0584 1364 36.9324
36.1749 1371 37.027
36.2913 1293 35.9583
36.4077 1376 37.0945
36.524 1523 39.0256
36.6403 1617 40.2119
36.7565 1603 40.0375
36.8727 1674 40.9145
36.9889 1594 39.9249
37.1049 1588 39.8497
37.221 0 1
37.3369 0 1
37.4529 0 1
37.5687 0 1
37.6845 0 1
37.8003 0 1
37.916 0 1
38.0316 0 1
38.1472 0 1
40.5851 0 1
40.7008 0 1
40.8164 0 1
40.9322 0 1
41.048 0 1
41.1639 0 1
41.2798 0 1
41.3958 0 1
41.5118 0 1
41.6279 0 1
41.744 1246 35.2987
41.8602 1252 35.3836
41.9765 1310 36.1939
42.0928 1378 37.1214
42.2091 1398 37.3898
42.3255 1373 37.054
42.4419 1298 36.0278
42.5584 1293 35.9583
42.675 1159 34.0441
42.7915 1211 34.7994
42.9081 1245 35.2846
43.0248 1267 35.5949
43.1415 1238 35.1852
43.2582 1317 36.2905
43.375 1369 37
43.4918 1381 37.1618
43.6087 1439 37.9342
43.7256 1319 36.318
43.8425 1325 36.4005
43.9595 1351 36.756
44.0765 1292 35.9444
44.1935 1300 36.0555
44.3106 1237 35.171
44.4277 1196 34.5832
44.5448 1124 33.5261
44.6619 981 31.3209
44.7791 1029 32.078
44.8963 922 30.3645
45.0136 1012 31.8119
45.1308 1037 32.2025
45.2481 1064 32.619
45.3654 1068 32.6803
45.4827 1084 32.9242
45.6001 1115 33.3916
45.7174 1084 32.9242
45.8348 1084 32.9242
45.9522 1019 31.9218
46.0697 949 30.8058
46.1871 907 30.1164
46.3046 848 29.1204
46.422 830 28.8097
46.5395 898 29.9666
46.657 1003 31.6702
46.7745 1049 32.3883
46.892 1021 31.9531
47.0096 1056 32.4962
47.1271 1005 31.7017
47.2446 1047 32.3574
47.3622 1000 31.6228
47.4797 1022 31.9687
47.5973 1003 31.6702
47.7149 960 30.9839
47.8324 964 31.0483
47.95 950 30.8221
48.0675 852 29.189
48.1851 827 28.7576
48.3027 819 28.6182
48.4202 777 27.8747
48.5378 676 26
48.6554 805 28.3725
48.7729 901 30.0167
48.8904 838 28.9482
49.008 880 29.6648
49.1255 927 30.4467
49.243 919 30.315
49.3605 863 29.3769
49.478 827 28.7576
49.5955 722 26.8701
49.713 694 26.3439
49.8304 685 26.1725
49.9479 727 26.9629
50.0653 731 27.037
50.1827 849 29.1376
50.3001 877 29.6142
50.4175 917 30.282
50.5348 982 31.3369
50.6521 955 30.9031
50.7694 989 31.4484
50.8867 1014 31.8434
51.004 1038 32.218
51.1212 1127 33.5708
51.2384 1137 33.7194
51.3556 1057 32.5115
51.4727 1053 32.45
51.5899 1018 31.9061
51.707 1006 31.7175
51.824 915 30.249
51.9411 966 31.0805
52.0581 1011 31.7962
52.175 1090 33.0151
52.2919 1184 34.4093
52.4088 1178 34.322
52.5257 1190 34.4964
52.6425 1245 35.2846
52.7593 1258 35.4683
52.876 1203 34.6843
52.9927 1244 35.2704
53.1094 1168 34.176
53.226 1095 33.0908
53.3426 996 31.5595
53.4591 1046 32.3419
53.5756 1057 32.5115
53.692 1169 34.1906
53.8084 1289 35.9026
53.9248 1286 35.8608
54.0411 1311 36.2077
54.1573 1347 36.7015
54.2735 0 1
54.3896 0 1
54.5057 0 1
54.6217 0 1
54.7377 0 1
54.8537 0 1
54.9695 0 1
55.0853 0 1
55.2011 0 1
55.3168 0 1
55.4324 0 1
57.824 0 1
57.9396 0 1
58.0553 0 1
58.1711 0 1
58.2869 0 1
58.4028 0 1
58.5187 0 1
58.6347 0 1
58.7508 0 1
58.8669 0 1
58.983 1377 37.108
59.0992 1454 38.1314
59.2155 1477 38.4318
59.3318 1678 40.9634
59.4482 1639 40.4846
59.5646 1576 39.6989
59.681 1580 39.7492
59.7975 1576 39.6989
59.9141 1647 40.5832
60.0306 1578 39.724
60.1473 1471 38.3536
60.2639 1399 37.4032
60.3807 1302 36.0832
60.4974 1264 35.5528
60.6142 1243 35.2562
60.731 1345 36.6742
60.8479 1374 37.0675
60.9648 1320 36.3318
61.0818 1411 37.5633
61.1987 1359 36.8646
61.3158 1435 37.8814
61.4328 1381 37.1618
61.5499 1345 36.6742
61.667 1229 35.0571
61.7841 1166 34.1467
61.9013 1125 33.541
62.0185 1112 33.3467
62.1357 1231 35.0856
62.253 1356 36.8239
62.3702 1437 37.9078
62.4875 1503 38.7685
62.6049 1615 40.1871
62.7222 1529 39.1024
62.8396 1611 40.1373
62.9569 1697 41.1947
63.0743 1664 40.7922
63.1918 1706 41.3038
63.3092 1754 41.8808
63.4267 1629 40.3609
63.5441 1620 40.2492
63.6616 1527 39.0768
63.7791 1394 37.3363
63.8966 1422 37.7094
64.0142 1482 38.4968
64.1317 1497 38.6911
64.2492 1550 39.37
64.3668 1643 40.5339
64.4843 1550 39.37
64.6019 1607 40.0874
64.7195 1596 39.95
64.837 1661 40.7554
64.9546 1529 39.1024
65.0722 1481 38.4838
65.1898 1440 37.9473
65.3074 1311 36.2077
65.4249 1160 34.0588
65.5425 1170 34.2053
65.6601 1280 35.7771
65.7777 1299 36.0416
65.8952 1430 37.8153
66.0128 1547 39.3319
66.1304 1664 40.7922
66.2479 1611 40.1373
66.3655 1680 40.9878
66.483 1685 41.0488
66.6005 1638 40.4722
66.718 1696 41.1825
66.8355 1643 40.5339
66.953 1677 40.9512
67.0705 1659 40.7308
67.1879 1511 38.8716
67.3054 1363 36.9188
67.4228 1305 36.1248
67.5402 1316 36.2767
67.6576 1352 36.7696
67.7749 1365 36.9459
67.8923 1330 36.4692
68.0096 1424 37.7359
68.1269 1338 36.5787
68.2442 1422 37.7094
68.3614 1407 37.51
68.4787 1367 36.973
68.5958 1350 36.7423
68.713 1297 36.0139
68.8302 1197 34.5977
68.9473 1009 31.7648
69.0643 1005 31.7017
69.1814 1000 31.6228
69.2984 1023 31.9844
69.4154 1120 33.4664
69.5323 1256 35.4401
69.6492 1326 36.4143
69.7661 1418 37.6563
69.8829 1527 39.0768
69.9997 1440 37.9473
70.1165 1530 39.1152
70.2332 1554 39.4208
70.3499 1499 38.7169
70.4665 1469 38.3275
70.5831 1410 37.55
70.6996 1443 37.9868
70.8161 1379 37.1349
70.9326 1276 35.7211
71.049 1207 34.7419
71.1653 1145 33.8378
71.2817 1109 33.3017
71.3979 1236 35.1568
71.5141 1199 34.6266
71.6303 1168 34.176
71.7464 1064 32.619
71.8624 0 1
71.9784 0 1
72.0944 0 1
72.2102 0 1
72.3261 0 1
72.4418 0 1
72.5575 0 1
72.6732 0 1
75.1054 0 1
75.2209 0 1
75.3365 0 1
75.4521 0 1
75.5678 0 1
75.6835 0 1
75.7993 0 1
75.9151 0 1
76.031 0 1
76.147 1174 34.2637
76.263 1280 35.7771
76.3791 1243 35.2562
76.4952 1178 34.322
76.6113 1244 35.2704
76.7276 1281 35.7911
76.8438 1283 35.819
76.9601 1254 35.4119
77.0765 1347 36.7015
77.1929 1267 35.5949
77.3093 1410 37.55
77.4258 1373 37.054
77.5423 1379 37.1349
77.6589 1260 35.4965
77.7755 1204 34.6987
77.8921 1019 31.9218
78.0088 965 31.0644
78.1256 913 30.2159
78.2423 911 30.1828
78.3591 913 30.2159
78.4759 1072 32.7414
78.5928 1151 33.9264
78.7097 1292 35.9444
78.8266 1295 35.9861
78.9436 1481 38.4838
79.0606 1431 37.8286
79.1776 1451 38.092
79.2946 1472 38.3667
79.4117 1437 37.9078
79.5288 1423 37.7227
79.6459 1419 37.6696
79.7631 1305 36.1248
79.8802 1217 34.8855
79.9974 1199 34.6266
80.1147 1124 33.5261
80.2319 1142 33.7935
80.3491 1188 34.4674
80.4664 1213 34.8281
80.5837 1140 33.7639
80.701 1188 34.4674
80.8183 1120 33.4664
80.9357 1206 34.7275
81.053 1265 35.5668
81.1704 1232 35.0999
81.2877 1140 33.7639
81.4051 1088 32.9848
81.5225 906 30.0998
81.6399 804 28.3549
81.7573 792 28.1425
81.8747 741 27.2213
81.9922 818 28.6007
82.1096 955 30.9031
82.227 1102 33.1964
82.3444 1127 33.5708
82.4619 1239 35.1994
82.5793 1266 35.5809
82.6967 1243 35.2562
82.8142 1261 35.5106
82.9316 1265 35.5668
83.049 1260 35.4965
83.1664 1258 35.4683
83.2838 1183 34.3948
83.4012 1150 33.9116
83.5186 980 31.305
83.636 1057 32.5115
83.7534 1048 32.3728
83.8708 1085 32.9393
83.9881 1040 32.249
84.1055 1102 33.1964
84.2228 1110 33.3167
84.3401 1052 32.4345
84.4575 1142 33.7935
84.5747 1144 33.8231
84.692 1133 33.6601
84.8093 1102 33.1964
84.9265 1045 32.3265
85.0437 837 28.931
85.1609 760 27.5681
85.2781 707 26.5895
85.3952 655 25.593
85.5123 744 27.2764
85.6294 871 29.5127
85.7465 1060 32.5576
85.8636 1224 34.9857
85.9806 1181 34.3657
86.0976 1302 36.0832
86.2145 1269 35.623
86.3315 1436 37.8946
86.4484 1318 36.3043
86.5652 1349 36.7287
86.682 1362 36.9053
86.7988 1424 37.7359
86.9156 1319 36.318
87.0323 1261 35.5106
87.149 1224 34.9857
87.2657 1197 34.5977
87.3823 1243 35.2562
87.4988 1206 34.7275
87.6154 1143 33.8083
87.7318 1242 35.242
87.8483 1233 35.1141
87.9647 1222 34.9571
88.081 1298 36.0278
88.1973 1336 36.5513
88.3136 1332 36.4966
88.4298 1187 34.4529
88.546 1099 33.1512
88.6621 978 31.273
88.7781 874 29.5635
88.8942 0 1
89.0101 0 1
89.126 0 1
89.2419 0 1
89.3577 0 1
89.4734 0 1
89.5891 0 1
89.7047 0 1
89.8203 0 1
89.9358 0 1
92.3269 0 1
92.4424 0 1
92.558 0 1
92.6736 0 1
92.7893 0 1
92.905 0 1
93.0208 0 1
93.1366 0 1
93.2525 0 1
93.3685 0 1
93.4845 0 1
93.6005 1314 36.2491
93.7167 1273 35.6791
93.8328 1321 36.3456
93.949 1176 34.2929
94.0653 1035 32.1714
94.1816 989 31.4484
94.2979 927 30.4467
94.4143 777 27.8747
94.5307 822 28.6705
94.6472 951 30.8383
94.7637 1110 33.3167
94.8803 1236 35.1568
94.9969 1333 36.5103
95.1135 1373 37.054
95.2302 1484 38.5227
95.3469 1461 38.223
95.4637 1607 40.0874
95.5805 1540 39.2428
95.6973 1589 39.8623
95.8142 1556 39.4462
95.9311 1546 39.3192
96.048 1441 37.9605
96.1649 1365 36.9459
96.2819 1387 37.2424
96.3989 1440 37.9473
96.516 1389 37.2693
96.633 1401 37.4299
96.7501 1395 37.3497
96.8673 1436 37.8946
96.9844 1413 37.5899
97.1016 1404 37.47
97.2188 1355 36.8103
97.336 1403 37.4566
97.4532 1466 38.2884
97.5704 1380 37.1484
97.6877 1206 34.7275
97.805 1033 32.1403
97.9223 855 29.2404
98.0396 823 28.688
98.1569 855 29.2404
98.2743 883 29.7153
98.3916 1103 33.2114
98.509 1280 35.7771
98.6264 1452 38.1051
98.7438 1502 38.7556
98.8612 1483 38.5097
98.9786 1533 39.1535
99.096 1555 39.4335
99.2134 1548 39.3446
99.3308 1587 39.8372
99.4482 1597 39.9625
99.5656 1550 39.37
99.6831 1459 38.1969
99.8005 1448 38.0526
99.9179 1436 37.8946
100.035 1417 37.6431
100.153 1470 38.3406
100.27 1409 37.5366
100.388 1417 37.6431
100.505 1467 38.3014
100.622 1374 37.0675
100.74 1431 37.8286
100.857 1426 37.7624
100.975 1421 37.6962
101.092 1455 38.1445
101.209 1340 36.606
101.327 1173 34.2491
101.444 1003 31.6702
101.561 912 30.1993
101.679 831 28.8271
101.796 869 29.4788
101.913 1001 31.6386
102.03 1226 35.0143
102.148 1398 37.3898
102.265 1482 38.4968
102.382 1660 40.7431
102.499 1625 40.3113
102.616 1646 40.5709
102.733 1655 40.6817
102.851 1702 41.2553
102.968 1679 40.9756
103.085 1601 40.0125
103.202 1632 40.398
103.319 1567 39.5854
103.436 1549 39.3573
103.552 1593 39.9124
103.669 1560 39.4968
103.786 1540 39.2428
103.903 1522 39.0128
104.02 1539 39.2301
104.137 1570 39.6232
104.253 1557 39.4588
104.37 1609 40.1123
104.487 1636 40.4475
104.603 1536 39.1918
104.72 1364 36.9324
104.836 1194 34.5543
104.953 974 31.209
105.069 936 30.5941
105.186 940 30.6594
105.302 985 31.3847
105.418 1210 34.7851
105.535 1483 38.5097
105.651 1528 39.0896
105.767 1702 41.2553
105.883 1741 41.7253
105.999 1704 41.2795
106.115 0 1
106.231 0 1
106.347 0 1
106.463 0 1
106.579 0 1
106.694 0 1
106.81 0 1
106.926 0 1
107.041 0 1
107.157 0 1
109.576 0 1
109.692 0 1
109.807 0 1
109.923 0 1
110.039 0 1
110.155 0 1
110.27 0 1
110.386 0 1
110.502 0 1
110.618 1316 36.2767
110.735 1472 38.3667
110.851 1696 41.1825
110.967 1706 41.3038
111.083 1716 41.4246
111.199 1724 41.5211
111.316 1697 41.1947
111.432 1727 41.5572
111.549 1737 41.6773
111.665 1642 40.5216
111.782 1630 40.3733
111.898 1638 40.4722
112.015 1551 39.3827
112.132 1597 39.9625
112.248 1540 39.2428
112.365 1512 38.8844
112.482 1431 37.8286
112.599 1540 39.2428
112.716 1545 39.3065
112.832 1459 38.1969
112.949 1441 37.9605
113.066 1532 39.1408
113.183 1434 37.8682
113.3 1276 35.7211
113.417 1099 33.1512
113.534 1017 31.8904
113.652 872 29.5296
113.769 873 29.5466
113.886 925 30.4138
114.003 1039 32.2335
114.12 1242 35.242
114.238 1390 37.2827
114.355 1492 38.6264
114.472 1554 39.4208
114.589 1590 39.8748
114.707 1696 41.1825
114.824 1653 40.6571
114.942 1693 41.1461
115.059 1617 40.2119
115.176 1591 39.8873
115.294 1619 40.2368
115.411 1551 39.3827
115.529 1585 39.8121
115.646 1544 39.2938
115.764 1464 38.2623
115.881 1419 37.6696
115.999 1492 38.6264
116.116 1491 38.6135
116.234 1403 37.4566
116.351 1474 38.3927
116.469 1482 38.4968
116.586 1449 38.0657
116.704 1475 38.4057
116.821 1334 36.524
116.939 1231 35.0856
117.056 1065 32.6343
117.174 959 30.9677
117.291 890 29.8329
117.409 968 31.1127
117.526 952 30.8545
117.644 1184 34.4093
117.761 1317 36.2905
117.879 1452 38.1051
117.996 1471 38.3536
118.114 1579 39.7366
118.231 1571 39.6358
118.349 1552 39.3954
118.466 1601 40.0125
118.584 1682 41.0122
118.701 1610 40.1248
118.819 1560 39.4968
118.936 1585 39.8121
119.053 1566 39.5727
119.171 1511 38.8716
119.288 1498 38.704
119.405 1460 38.2099
119.523 1478 38.4448
119.64 1448 38.0526
119.757 1465 38.2753
119.875 1444 38
119.992 1430 37.8153
120.109 1366 36.9594
120.226 1410 37.55
120.343 1371 37.027
120.46 1329 36.4555
120.578 1202 34.6699
120.695 1116 33.4066
120.812 1030 32.0936
120.929 933 30.545
121.046 868 29.4618
121.163 909 30.1496
121.279 1174 34.2637
121.396 1250 35.3553
121.513 1347 36.7015
121.63 1489 38.5876
121.747 1453 38.1182
121.863 1490 38.6005
121.98 1514 38.9102
122.097 1531 39.128
122.213 1525 39.0512
122.33 1654 40.6694
122.446 1464 38.2623
122.563 1499 38.7169
122.679 1483 38.5097
122.795 1472 38.3667
122.912 1483 38.5097
123.028 1477 38.4318
123.144 1434 37.8682
123.26 1400 37.4166
123.377 0 1
123.493 0 1
123.609 0 1
123.725 0 1
123.84 0 1
123.956 0 1
124.072 0 1
124.188 0 1
124.303 0 1
124.419 0 1
126.852 0 1
126.968 0 1
127.083 0 1
127.199 0 1
127.315 0 1
127.431 0 1
127.547 0 1
127.663 0 1
127.779 0 1
127.895 0 1
128.011 0 1
128.127 0 1
128.243 0 1
128.359 1576 39.6989
128.476 1608 40.0999
128.592 1604 40.05
128.708 1593 39.9124
128.825 1649 40.6079
128.941 1630 40.3733
129.058 1579 39.7366
129.174 1570 39.6232
129.291 1613 40.1622
129.408 1530 39.1152
129.524 1338 36.5787
129.641 1205 34.7131
129.758 1158 34.0294
129.875 1058 32.5269
129.992 1006 31.7175
130.108 1083 32.909
130.225 1206 34.7275
130.342 1318 36.3043
130.459 1400 37.4166
130.576 1515 38.923
130.693 1546 39.3192
130.81 1533 39.1535
130.928 1546 39.3192
131.045 1643 40.5339
131.162 1717 41.4367
131.279 1683 41.0244
131.396 1726 41.5452
131.513 1643 40.5339
131.631 1670 40.8656
131.748 1672 40.8901
131.865 1616 40.1995
131.983 1627 40.3361
132.1 1667 40.8289
132.217 1586 39.8246
132.335 1631 40.3856
132.452 1573 39.6611
132.57 1626 40.3237
132.687 1557 39.4588
132.804 1528 39.0896
132.922 1498 38.704
133.039 1346 36.6879
133.157 1247 35.3129
133.274 1111 33.3317
133.392 1108 33.2866
133.509 989 31.4484
133.627 1026 32.0312
133.744 1079 32.8481
133.862 1228 35.0428
133.979 1381 37.1618
134.097 1459 38.1969
134.214 1481 38.4838
134.332 1467 38.3014
134.449 1518 38.9615
134.567 1585 39.8121
134.684 1664 40.7922
134.802 1613 40.1622
134.919 1593 39.9124
135.037 1596 39.95
135.154 1665 40.8044
135.272 1606 40.0749
135.389 1581 39.7618
135.507 1610 40.1248
135.624 1545 39.3065
135.742 1505 38.7943
135.859 1610 40.1248
135.977 1605 40.0625
136.094 1558 39.4715
136.211 1503 38.7685
136.329 1553 39.4081
136.446 1551 39.3827
136.564 1444 38
136.681 1349 36.7287
136.798 1251 35.3695
136.915 1149 33.8969
137.033 1054 32.4654
137.15 1077 32.8177
137.267 1047 32.3574
137.384 1130 33.6155
137.502 1231 35.0856
137.619 1277 35.7351
137.736 1327 36.428
137.853 1346 36.6879
137.97 1487 38.5616
138.087 1548 39.3446
138.204 1635 40.4351
138.321 1671 40.8779
138.438 1703 41.2674
138.555 1706 41.3038
138.672 1681 41
138.788 1769 42.0595
138.905 1696 41.1825
139.022 1670 40.8656
139.139 1704 41.2795
139.255 1730 41.5933
139.372 1714 41.4005
139.488 1710 41.3521
139.605 1669 40.8534
139.721 1659 40.7308
139.838 1627 40.3361
139.954 1647 40.5832
140.071 1643 40.5339
140.187 1638 40.4722
140.303 1524 39.0384
140.419 1338 36.5787
140.535 1228 35.0428
140.652 1144 33.8231
140.768 0 1
140.884 0 1
141 0 1
141.115 0 1
141.231 0 1
141.347 0 1
141.463 0 1
141.578 0 1
141.694 0 1
144.104 0 1
144.219 0 1
144.335 0 1
144.45 0 1
144.566 0 1
144.682 0 1
144.798 0 1
144.914 0 1
145.03 0 1
145.146 1111 33.3317
145.262 1163 34.1028
145.378 1133 33.6601
145.494 1082 32.8938
145.61 1025 32.0156
145.726 920 30.3315
145.842 926 30.4302
145.959 854 29.2233
146.075 816 28.5657
146.192 902 30.0333
146.308 908 30.133
146.425 927 30.4467
146.541 932 30.5287
146.658 998 31.5911
146.774 1175 34.2783
146.891 1203 34.6843
147.008 1209 34.7707
147.125 1260 35.4965
147.241 1208 34.7563
147.358 1267 35.5949
147.475 1265 35.5668
147.592 1230 35.0714
147.709 1308 36.1663
147.826 1278 35.7491
147.943 1189 34.4819
148.06 1264 35.5528
148.177 1218 34.8999
148.294 1249 35.3412
148.411 1335 36.5377
148.528 1166 34.1467
148.645 1255 35.426
148.762 1159 34.0441
148.88 1187 34.4529
148.997 1186 34.4384
149.114 1226 35.0143
149.231 1109 33.3017
149.349 1099 33.1512
149.466 1024 32
149.583 906 30.0998
149.701 919 30.315
149.818 814 28.5307
149.935 869 29.4788
150.053 833 28.8617
150.17 872 29.5296
150.287 954 30.8869
150.405 1062 32.5883
150.522 1136 33.7046
150.64 1185 34.4238
150.757 1187 34.4529
150.875 1216 34.8712
150.992 1296 36
151.11 1306 36.1386
151.227 1266 35.5809
151.344 1258 35.4683
151.462 1266 35.5809
151.579 1236 35.1568
151.697 1262 35.5246
151.814 1292 35.9444
151.932 1291 35.9305
152.049 1281 35.7911
152.167 1252 35.3836
152.284 1263 35.5387
152.402 1241 35.2278
152.519 1220 34.9285
152.636 1262 35.5246
152.754 1170 34.2053
152.871 1165 34.1321
152.989 1087 32.9697
153.106 1042 32.28
153.223 984 31.3688
153.341 917 30.282
153.458 871 29.5127
153.575 901 30.0167
153.693 836 28.9137
153.81 987 31.4166
153.927 1075 32.7872
154.044 1204 34.6987
154.162 1212 34.8138
154.279 1287 35.8748
154.396 1353 36.7831
154.513 1394 37.3363
154.63 1444 38
154.747 1400 37.4166
154.864 1491 38.6135
154.981 1421 37.6962
155.098 1414 37.6032
155.215 1372 37.0405
155.332 1379 37.1349
155.449 1437 37.9078
155.566 1409 37.5366
155.683 1456 38.1576
155.8 1409 37.5366
155.917 1441 37.9605
156.033 1360 36.8782
156.15 0 1
156.267 0 1
156.383 0 1
156.5 0 1
156.617 0 1
156.733 0 1
156.85 0 1
156.966 0 1
157.082 0 1
157.199 0 1
157.315 0 1
157.431 0 1
157.547 0 1
157.664 0 1
157.78 0 1
157.896 0 1
158.012 0 1
158.128 0 1
158.244 0 1
158.359 0 1
158.475 0 1
158.591 0 1
158.706 0 1
