
6.15755 0 1
6.2731 0 1
6.3887 0 1
6.50437 0 1
6.62009 0 1
6.73587 0 1
6.8517 0 1
6.96759 0 1
7.08353 0 1
7.19952 0 1
7.31557 0 1
7.43166 0 1
7.54781 0 1
7.664 0 1
7.78024 0 1
7.89653 0 1
8.01286 0 1
8.12924 0 1
8.24567 0 1
8.36213 0 1
8.47864 0 1
8.59519 0 1
8.71178 0 1
8.82841 0 1
8.94508 0 1
9.06179 0 1
9.17853 0 1
9.29531 0 1
9.41212 0 1
9.52897 0 1
9.64584 0 1
9.76276 0 1
9.8797 0 1
9.99667 0 1
10.1137 0 1
10.2307 0 1
10.3478 0 1
10.4648 0 1
10.5819 0 1
10.6991 0 1
10.8162 0 1
10.9334 0 1
11.0506 0 1
11.1678 0 1
11.285 0 1
11.4023 0 1
11.5196 0 1
11.6369 0 1
11.7542 0 1
11.8715 0 1
11.9888 0 1
12.1062 0 1
12.2235 0 1
12.3409 0 1
12.4582 0 1
12.5756 0 1
12.693 0 1
12.8104 0 1
12.9278 0 1
13.0452 0 1
13.1626 0 1
13.28 0 1
13.3974 0 1
13.5149 0 1
13.6323 0 1
13.7497 0 1
13.8671 0 1
13.9845 0 1
14.1019 0 1
14.2193 0 1
14.3367 0 1
14.4541 0 1
14.5714 0 1
14.6888 0 1
14.8062 0 1
14.9235 0 1
15.0408 0 0
15.1581 0 0
15.2755 0 0
15.3927 0 0
15.51 0 0
15.6273 0 0
15.7445 0 0
15.8617 0 0
15.9789 0 0
16.0961 0 0
16.2132 0 0
16.3304 0 0
16.4475 0 0
16.5646 0 0
16.6816 0 0
16.7986 0 0
16.9156 0 0
17.0326 0 0
17.1496 0 0
17.2665 0 0
17.3833 0 0
17.5002 0 0
17.617 0 0
17.7338 0 0
17.8505 0 0
17.9672 0 0
18.0839 0 0
18.2005 0 0
18.3171 0 0
18.4337 0 0
18.5502 0 0
18.6666 0 0
18.7831 0 0
18.8994 0 0
19.0158 0 0
19.1321 0 0
19.2483 0 0
19.3645 0 0
19.4806 0 0
19.5967 0 0
19.7128 0 0
19.8288 0 0
19.9447 0 0
20.0606 0 1
20.1764 0 1
20.2922 0 1
20.4079 0 1
20.5236 0 1
20.6392 0 1
20.7548 0 1
20.8702 0 1
23.3078 0 1
23.4233 0 1
23.539 0 1
23.6547 0 1
23.7704 0 1
23.8862 0 1
24.0021 0 1
24.118 0 1
24.234 0 1
24.35 0 1
24.4661 21299 145.942
24.5822 21013 144.959
24.6984 20761 144.087
24.8146 20906 144.589
24.9309 20754 144.062
25.0472 19457 139.488
25.1636 18222 134.989
25.28 18040 134.313
25.3965 18477 135.93
25.513 19127 138.3
25.6296 20243 142.278
25.7462 22208 149.023
25.8628 23126 152.072
25.9795 23210 152.348
26.0962 23217 152.371
26.213 23142 152.125
26.3298 23185 152.266
26.4466 22977 151.582
26.5635 22694 150.645
26.6804 22135 148.778
26.7973 22298 149.325
26.9143 22635 150.449
27.0313 22910 151.36
27.1483 23278 152.571
27.2653 23571 153.528
27.3824 23825 154.353
27.4996 23994 154.9
27.6167 23850 154.434
27.7339 23109 152.016
27.8511 22894 151.308
27.9683 22271 149.235
28.0855 22221 149.067
28.2028 22070 148.56
28.3201 20850 144.395
28.4374 20529 143.279
28.5547 18992 137.811
28.6721 17422 131.992
28.7894 16855 129.827
28.9068 16914 130.054
29.0242 17242 131.309
29.1416 17982 134.097
29.259 18854 137.31
29.3764 20279 142.404
29.4939 20709 143.906
29.6113 21099 145.255
29.7288 21214 145.65
29.8463 21405 146.304
29.9638 21519 146.694
30.0812 21389 146.25
30.1987 21490 146.595
30.3162 21033 145.028
30.4337 21531 146.734
30.5512 21955 148.172
30.6687 21901 147.99
30.7862 22500 150
30.9037 22491 149.97
31.0212 22936 151.446
31.1387 22696 150.652
31.2562 22470 149.9
31.3737 22175 148.913
31.4912 22107 148.684
31.6087 21694 147.289
31.7262 21476 146.547
31.8436 20844 144.375
31.9611 20444 142.983
32.0785 18967 137.721
32.1959 17063 130.625
32.3134 16474 128.351
32.4308 16372 127.953
32.5482 16412 128.109
32.6655 17214 131.202
32.7829 18497 136.004
32.9002 19686 140.307
33.0176 20004 141.435
33.1349 20071 141.672
33.2522 20773 144.128
33.3694 20393 142.804
33.4867 20848 144.388
33.6039 21132 145.368
33.7211 20735 143.997
33.8383 20823 144.302
33.9554 20675 143.788
34.0725 20831 144.329
34.1896 20976 144.831
34.3067 21358 146.144
34.4237 21617 147.027
34.5407 21878 147.912
34.6577 21984 148.27
34.7746 22230 149.097
34.8915 21701 147.313
35.0084 21709 147.34
35.1252 21320 146.014
35.242 21077 145.179
35.3587 20721 143.948
35.4755 20746 144.035
35.5921 20010 141.457
35.7088 18837 137.248
35.8254 17246 131.324
35.9419 15988 126.444
36.0584 15620 124.98
36.1749 15569 124.776
36.2913 15563 124.752
36.4077 16146 127.067
36.524 17367 131.784
36.6403 18714 136.799
36.7565 19395 139.266
36.8727 19593 139.975
36.9889 19542 139.793
37.1049 19771 140.609
37.221 0 1
37.3369 0 1
37.4529 0 1
37.5687 0 1
37.6845 0 1
37.8003 0 1
37.916 0 1
38.0316 0 1
38.1472 0 1
40.5851 0 1
40.7008 0 1
40.8164 0 1
40.9322 0 1
41.048 0 1
41.1639 0 1
41.2798 0 1
41.3958 0 1
41.5118 0 1
41.6279 0 1
41.744 13475 116.082
41.8602 14412 120.05
41.9765 15299 123.689
42.0928 15735 125.439
42.2091 16448 128.25
42.3255 16640 128.996
42.4419 16635 128.977
42.5584 16493 128.425
42.675 16516 128.515
42.7915 15931 126.218
42.9081 16039 126.645
43.0248 16095 126.866
43.1415 16352 127.875
43.2582 16319 127.746
43.375 16548 128.639
43.4918 16731 129.348
43.6087 16633 128.969
43.7256 16349 127.863
43.8425 16030 126.61
43.9595 15744 125.475
44.0765 15673 125.192
44.1935 15439 124.254
44.3106 14596 120.814
44.4277 14172 119.046
44.5448 13187 114.835
44.6619 11502 107.247
44.7791 10738 103.624
44.8963 10368 101.823
45.0136 10297 101.474
45.1308 10303 101.504
45.2481 10567 102.796
45.3654 11770 108.49
45.4827 11962 109.371
45.6001 12285 110.838
45.7174 12264 110.743
45.8348 12395 111.333
45.9522 12378 111.256
46.0697 12162 110.281
46.1871 12125 110.114
46.3046 11922 109.188
46.422 11740 108.351
46.5395 11603 107.717
46.657 11751 108.402
46.7745 12009 109.586
46.892 11950 109.316
47.0096 12070 109.864
47.1271 11990 109.499
47.2446 11805 108.651
47.3622 11385 106.701
47.4797 11685 108.097
47.5973 11418 106.855
47.7149 11202 105.84
47.8324 10910 104.451
47.95 10213 101.059
48.0675 9586 97.9081
48.1851 8881 94.2391
48.3027 8071 89.8387
48.4202 7759 88.0852
48.5378 7757 88.0738
48.6554 7722 87.8749
48.7729 8214 90.6311
48.8904 9005 94.8947
49.008 9154 95.6765
49.1255 9564 97.7957
49.243 9642 98.1937
49.3605 9467 97.2985
49.478 9624 98.102
49.5955 9719 98.585
49.713 9788 98.9343
49.8304 9749 98.737
49.9479 9855 99.2724
50.0653 10191 100.95
50.1827 10281 101.395
50.3001 10828 104.058
50.4175 10979 104.781
50.5348 11259 106.108
50.6521 11495 107.215
50.7694 11738 108.342
50.8867 12002 109.554
51.004 12171 110.322
51.1212 12592 112.214
51.2384 12614 112.312
51.3556 12519 111.888
51.4727 12270 110.77
51.5899 11831 108.77
51.707 10821 104.024
51.824 10267 101.326
51.9411 10028 100.14
52.0581 10374 101.853
52.175 10760 103.73
52.2919 11801 108.632
52.4088 12830 113.27
52.5257 13408 115.793
52.6425 13603 116.632
52.7593 14297 119.57
52.876 14660 121.078
52.9927 14805 121.676
53.1094 15148 123.077
53.226 15597 124.888
53.3426 15510 124.539
53.4591 15803 125.71
53.5756 15870 125.976
53.692 16436 128.203
53.8084 16985 130.327
53.9248 16926 130.1
54.0411 17953 133.989
54.1573 18148 134.715
54.2735 0 1
54.3896 0 1
54.5057 0 1
54.6217 0 1
54.7377 0 1
54.8537 0 1
54.9695 0 1
55.0853 0 1
55.2011 0 1
55.3168 0 1
55.4324 0 1
57.824 0 1
57.9396 0 1
58.0553 0 1
58.1711 0 1
58.2869 0 1
58.4028 0 1
58.5187 0 1
58.6347 0 1
58.7508 0 1
58.8669 0 1
58.983 18851 137.299
59.0992 19998 141.414
59.2155 20578 143.45
59.3318 21228 145.698
59.4482 21133 145.372
59.5646 21520 146.697
59.681 21179 145.53
59.7975 20977 144.834
59.9141 20428 142.927
60.0306 19350 139.104
60.1473 18408 135.676
60.2639 17036 130.522
60.3807 15716 125.363
60.4974 14732 121.375
60.6142 14141 118.916
60.731 14325 119.687
60.8479 14395 119.979
60.9648 15317 123.762
61.0818 16257 127.503
61.1987 16940 130.154
61.3158 17191 131.114
61.4328 17352 131.727
61.5499 17456 132.121
61.667 17597 132.654
61.7841 17882 133.724
61.9013 17967 134.041
62.0185 18142 134.692
62.1357 18479 135.937
62.253 18597 136.371
62.3702 18976 137.753
62.4875 19322 139.004
62.6049 19615 140.054
62.7222 20522 143.255
62.8396 21242 145.746
62.9569 21491 146.598
63.0743 21540 146.765
63.1918 21304 145.959
63.3092 20727 143.969
63.4267 20570 143.422
63.5441 19623 140.082
63.6616 18261 135.133
63.7791 17027 130.488
63.8966 15439 124.254
64.0142 14524 120.516
64.1317 14450 120.208
64.2492 14401 120.004
64.3668 15157 123.114
64.4843 16329 127.785
64.6019 17177 131.061
64.7195 17827 133.518
64.837 18036 134.298
64.9546 18175 134.815
65.0722 18068 134.417
65.1898 18454 135.846
65.3074 18625 136.473
65.4249 18202 134.915
65.5425 18333 135.399
65.6601 18562 136.242
65.7777 18418 135.713
65.8952 18651 136.569
66.0128 19182 138.499
66.1304 19497 139.632
66.2479 20236 142.253
66.3655 20620 143.597
66.483 21107 145.282
66.6005 20830 144.326
66.718 20885 144.516
66.8355 20180 142.056
66.953 20125 141.863
67.0705 18946 137.644
67.1879 18105 134.555
67.3054 16862 129.854
67.4228 15471 124.382
67.5402 14044 118.507
67.6576 13157 114.704
67.7749 12525 111.915
67.8923 13338 115.49
68.0096 13689 117
68.1269 14728 121.359
68.2442 15499 124.495
68.3614 16221 127.362
68.4787 16446 128.242
68.5958 16509 128.487
68.713 16427 128.168
68.8302 16460 128.297
68.9473 16779 129.534
69.0643 16533 128.581
69.1814 16574 128.74
69.2984 16785 129.557
69.4154 16932 130.123
69.5323 17558 132.507
69.6492 18134 134.663
69.7661 18436 135.779
69.8829 19313 138.971
69.9997 20051 141.602
70.1165 20221 142.201
70.2332 20173 142.032
70.3499 20348 142.646
70.4665 19991 141.39
70.5831 19269 138.813
70.6996 18559 136.231
70.8161 17487 132.238
70.9326 16312 127.718
71.049 14943 122.242
71.1653 13746 117.243
71.2817 12696 112.677
71.3979 12013 109.604
71.5141 12205 110.476
71.6303 12660 112.517
71.7464 12257 110.711
71.8624 0 1
71.9784 0 1
72.0944 0 1
72.2102 0 1
72.3261 0 1
72.4418 0 1
72.5575 0 1
72.6732 0 1
75.1054 0 1
75.2209 0 1
75.3365 0 1
75.4521 0 1
75.5678 0 1
75.6835 0 1
75.7993 0 1
75.9151 0 1
76.031 0 1
76.147 15795 125.678
76.263 16073 126.779
76.3791 15339 123.851
76.4952 14253 119.386
76.6113 12679 112.601
76.7276 12570 112.116
76.8438 12937 113.741
76.9601 13921 117.987
77.0765 14884 122
77.1929 16057 126.716
77.3093 16809 129.65
77.4258 16989 130.342
77.5423 17074 130.668
77.6589 16894 129.977
77.7755 16760 129.46
77.8921 16473 128.347
78.0088 16362 127.914
78.1256 16635 128.977
78.2423 16323 127.761
78.3591 16253 127.487
78.4759 16698 129.221
78.5928 17339 131.678
78.7097 17961 134.019
78.8266 18128 134.64
78.9436 20247 142.292
79.0606 19610 140.036
79.1776 19702 140.364
79.2946 19951 141.248
79.4117 20007 141.446
79.5288 19381 139.216
79.6459 18789 137.073
79.7631 17603 132.676
79.8802 16274 127.57
79.9974 14887 122.012
80.1147 13305 115.347
80.2319 12141 110.186
80.3491 12134 110.154
80.4664 12268 110.761
80.5837 13101 114.46
80.701 14076 118.642
80.8183 14412 120.05
80.9357 14972 122.36
81.053 15835 125.837
81.1704 15381 124.02
81.2877 15009 122.511
81.4051 15086 122.825
81.5225 14743 121.421
81.6399 14654 121.054
81.7573 14539 120.578
81.8747 14102 118.752
81.9922 14244 119.348
82.1096 14919 122.143
82.227 15330 123.814
82.3444 16366 127.93
82.4619 16945 130.173
82.5793 17478 132.204
82.6967 16842 129.777
82.8142 17384 131.848
82.9316 17381 131.837
83.049 17590 132.627
83.1664 16848 129.8
83.2838 15740 125.459
83.4012 14628 120.946
83.5186 13608 116.653
83.636 12457 111.611
83.7534 11443 106.972
83.8708 10675 103.32
83.9881 10459 102.269
84.1055 10921 104.504
84.2228 11560 107.517
84.3401 12442 111.544
84.4575 13368 115.62
84.5747 14072 118.625
84.692 14886 122.008
84.8093 14470 120.291
84.9265 14058 118.566
85.0437 13895 117.877
85.1609 13614 116.679
85.2781 13384 115.689
85.3952 13504 116.207
85.5123 13486 116.129
85.6294 13981 118.241
85.7465 14637 120.983
85.8636 15512 124.547
85.9806 17039 130.534
86.0976 17682 132.974
86.2145 18002 134.172
86.3315 19153 138.394
86.4484 18342 135.433
86.5652 19214 138.615
86.682 19231 138.676
86.7988 18423 135.731
86.9156 17317 131.594
87.0323 16017 126.558
87.149 15013 122.528
87.2657 13978 118.229
87.3823 13385 115.694
87.4988 12965 113.864
87.6154 13461 116.022
87.7318 14005 118.343
87.8483 14723 121.338
87.9647 15783 125.63
88.081 16583 128.775
88.1973 17719 133.113
88.3136 17728 133.147
88.4298 17137 130.908
88.546 16878 129.915
88.6621 16376 127.969
88.7781 16221 127.362
88.8942 0 1
89.0101 0 1
89.126 0 1
89.2419 0 1
89.3577 0 1
89.4734 0 1
89.5891 0 1
89.7047 0 1
89.8203 0 1
89.9358 0 1
92.3269 0 1
92.4424 0 1
92.558 0 1
92.6736 0 1
92.7893 0 1
92.905 0 1
93.0208 0 1
93.1366 0 1
93.2525 0 1
93.3685 0 1
93.4845 0 1
93.6005 16809 129.65
93.7167 17432 132.03
93.8328 17187 131.099
93.949 16934 130.131
94.0653 16604 128.857
94.1816 16384 128
94.2979 16071 126.771
94.4143 15852 125.905
94.5307 15714 125.355
94.6472 16352 127.875
94.7637 16926 130.1
94.8803 17729 133.15
94.9969 18871 137.372
95.1135 19821 140.787
95.2302 20501 143.182
95.3469 21024 144.997
95.4637 21166 145.485
95.5805 21398 146.281
95.6973 21300 145.945
95.8142 21078 145.183
95.9311 20492 143.15
96.048 19234 138.687
96.1649 18197 134.896
96.2819 16937 130.142
96.3989 15871 125.98
96.516 14811 121.7
96.633 14505 120.437
96.7501 14886 122.008
96.8673 15254 123.507
96.9844 16030 126.61
97.1016 16867 129.873
97.2188 17626 132.763
97.336 18428 135.75
97.4532 18755 136.949
97.5704 18599 136.378
97.6877 17562 132.522
97.805 17074 130.668
97.9223 16533 128.581
98.0396 16100 126.886
98.1569 16165 127.142
98.2743 16095 126.866
98.3916 16988 130.338
98.509 17544 132.454
98.6264 18859 137.328
98.7438 19838 140.847
98.8612 21013 144.959
98.9786 21190 145.568
99.096 21562 146.84
99.2134 21824 147.729
99.3308 22066 148.546
99.4482 21723 147.387
99.5656 20773 144.128
99.6831 19836 140.84
99.8005 18461 135.871
99.9179 17322 131.613
100.035 16473 128.347
100.153 15825 125.797
100.27 15792 125.666
100.388 15814 125.754
100.505 16117 126.953
100.622 16667 129.101
100.74 17757 133.255
100.857 18558 136.228
100.975 18836 137.244
101.092 18780 137.04
101.209 18164 134.774
101.327 17509 132.322
101.444 17147 130.947
101.561 16780 129.538
101.679 16598 128.833
101.796 16625 128.938
101.913 17312 131.575
102.03 18471 135.908
102.148 19572 139.9
102.265 20599 143.524
102.382 22470 149.9
102.499 22525 150.083
102.616 23075 151.905
102.733 23336 152.761
102.851 23068 151.882
102.968 23423 153.046
103.085 22552 150.173
103.202 21603 146.98
103.319 20056 141.619
103.436 18901 137.481
103.552 18300 135.277
103.669 17062 130.622
103.786 17127 130.87
103.903 17219 131.221
104.02 17688 132.996
104.137 18450 135.831
104.253 19321 139
104.37 20058 141.626
104.487 20380 142.759
104.603 20286 142.429
104.72 19744 140.513
104.836 19060 138.058
104.953 18505 136.033
105.069 18064 134.402
105.186 18184 134.848
105.302 18358 135.492
105.418 19328 139.025
105.535 20695 143.858
105.651 22290 149.298
105.767 23678 153.877
105.883 24831 157.579
105.999 25216 158.795
106.115 0 1
106.231 0 1
106.347 0 1
106.463 0 1
106.579 0 1
106.694 0 1
106.81 0 1
106.926 0 1
107.041 0 1
107.157 0 1
109.576 0 1
109.692 0 1
109.807 0 1
109.923 0 1
110.039 0 1
110.155 0 1
110.27 0 1
110.386 0 1
110.502 0 1
110.618 19288 138.881
110.735 21072 145.162
110.851 22713 150.708
110.967 23249 152.476
111.083 23410 153.003
111.199 23621 153.691
111.316 24252 155.731
111.432 24112 155.28
111.549 23489 153.261
111.665 22777 150.921
111.782 21254 145.788
111.898 20139 141.912
112.015 19451 139.467
112.132 18436 135.779
112.248 17716 133.101
112.365 17247 131.328
112.482 16799 129.611
112.599 18057 134.376
112.716 18046 134.335
112.832 18371 135.54
112.949 19166 138.441
113.066 19302 138.932
113.183 18949 137.655
113.3 17989 134.123
113.417 17346 131.704
113.534 16694 129.205
113.652 16674 129.128
113.769 16869 129.881
113.886 17325 131.624
114.003 17946 133.963
114.12 19188 138.521
114.238 21096 145.245
114.355 22005 148.341
114.472 22594 150.313
114.589 23310 152.676
114.707 23177 152.24
114.824 23200 152.315
114.942 23431 153.072
115.059 23433 153.078
115.176 22299 149.328
115.294 21707 147.333
115.411 20663 143.746
115.529 20062 141.64
115.646 19468 139.528
115.764 18336 135.41
115.881 17530 132.401
115.999 17771 133.308
116.116 17866 133.664
116.234 18736 136.88
116.351 18797 137.102
116.469 19443 139.438
116.586 19754 140.549
116.704 19556 139.843
116.821 18994 137.819
116.939 18019 134.235
117.056 17746 133.214
117.174 17547 132.465
117.291 17726 133.139
117.409 17955 133.996
117.526 18602 136.389
117.644 20174 142.035
117.761 21342 146.089
117.879 22836 151.116
117.996 23333 152.751
118.114 23805 154.289
118.231 24070 155.145
118.349 24200 155.563
118.466 24180 155.499
118.584 24494 156.506
118.701 24169 155.464
118.819 22963 151.535
118.936 21683 147.251
119.053 21492 146.602
119.171 20847 144.385
119.288 20127 141.87
119.405 19231 138.676
119.523 18191 134.874
119.64 17978 134.082
119.757 18426 135.742
119.875 18917 137.539
119.992 19072 138.101
120.109 19621 140.075
120.226 19182 138.499
120.343 19151 138.387
120.46 18551 136.202
120.578 18130 134.648
120.695 17569 132.548
120.812 17951 133.981
120.929 18123 134.622
121.046 18366 135.521
121.163 18999 137.837
121.279 19527 139.739
121.396 21060 145.121
121.513 22218 149.057
121.63 22767 150.887
121.747 23378 152.899
121.863 23709 153.977
121.98 23764 154.156
122.097 23930 154.693
122.213 23855 154.451
122.33 23342 152.781
122.446 22488 149.96
122.563 21838 147.777
122.679 21321 146.017
122.795 20918 144.631
122.912 20655 143.718
123.028 19645 140.161
123.144 18512 136.059
123.26 17960 134.015
123.377 0 1
123.493 0 1
123.609 0 1
123.725 0 1
123.84 0 1
123.956 0 1
124.072 0 1
124.188 0 1
124.303 0 1
124.419 0 1
126.852 0 1
126.968 0 1
127.083 0 1
127.199 0 1
127.315 0 1
127.431 0 1
127.547 0 1
127.663 0 1
127.779 0 1
127.895 0 1
128.011 0 1
128.127 0 1
128.243 0 1
128.359 20998 144.907
128.476 20120 141.845
128.592 19827 140.808
128.708 20109 141.806
128.825 20860 144.43
128.941 21212 145.643
129.058 21240 145.739
129.174 21398 146.281
129.291 20697 143.865
129.408 20212 142.169
129.524 19683 140.296
129.641 19431 139.395
129.758 19374 139.191
129.875 19699 140.353
129.992 19734 140.478
130.108 19991 141.39
130.225 21175 145.516
130.342 22615 150.383
130.459 22927 151.417
130.576 24435 156.317
130.693 23962 154.797
130.81 24057 155.103
130.928 24011 154.955
131.045 24351 156.048
131.162 24247 155.714
131.279 24016 154.971
131.396 24338 156.006
131.513 23619 153.685
131.631 22908 151.354
131.748 22197 148.987
131.865 21694 147.289
131.983 20634 143.645
132.1 20063 141.644
132.217 20427 142.923
132.335 21002 144.921
132.452 21634 147.085
132.57 21252 145.781
132.687 21017 144.972
132.804 21610 147.003
132.922 20571 143.426
133.039 20242 142.274
133.157 19566 139.879
133.274 19501 139.646
133.392 19278 138.845
133.509 19582 139.936
133.627 19720 140.428
133.744 20831 144.329
133.862 21683 147.251
133.979 22590 150.3
134.097 23010 151.69
134.214 22800 150.997
134.332 23586 153.577
134.449 23506 153.317
134.567 23511 153.333
134.684 23764 154.156
134.802 24113 155.284
134.919 24162 155.441
135.037 24099 155.239
135.154 23225 152.398
135.272 22984 151.605
135.389 22148 148.822
135.507 21070 145.155
135.624 20442 142.976
135.742 20366 142.709
135.859 20678 143.798
135.977 21411 146.325
136.094 21924 148.068
136.211 21520 146.697
136.329 21664 147.187
136.446 21008 144.941
136.564 20897 144.558
136.681 20306 142.499
136.798 19727 140.453
136.915 19422 139.363
137.033 19748 140.528
137.15 19610 140.036
137.267 19970 141.315
137.384 21102 145.265
137.502 21717 147.367
137.619 22160 148.862
137.736 22737 150.788
137.853 22564 150.213
137.97 22985 151.608
138.087 22848 151.156
138.204 23042 151.796
138.321 23688 153.909
138.438 23816 154.324
138.555 24471 156.432
138.672 23902 154.603
138.788 23644 153.766
138.905 22970 151.559
139.022 22397 149.656
139.139 21458 146.485
139.255 20372 142.731
139.372 20706 143.896
139.488 21203 145.612
139.605 22038 148.452
139.721 22226 149.084
139.838 21794 147.628
139.954 21654 147.153
140.071 20820 144.291
140.187 21016 144.969
140.303 20385 142.776
140.419 19488 139.599
140.535 19213 138.611
140.652 18839 137.255
140.768 0 1
140.884 0 1
141 0 1
141.115 0 1
141.231 0 1
141.347 0 1
141.463 0 1
141.578 0 1
141.694 0 1
144.104 0 1
144.219 0 1
144.335 0 1
144.45 0 1
144.566 0 1
144.682 0 1
144.798 0 1
144.914 0 1
145.03 0 1
145.146 15182 123.215
145.262 16270 127.554
145.378 16181 127.205
145.494 15751 125.503
145.61 15527 124.607
145.726 15180 123.207
145.842 15468 124.37
145.959 15414 124.153
146.075 15598 124.892
146.192 15850 125.897
146.308 16512 128.499
146.425 16789 129.572
146.541 17361 131.761
146.658 17671 132.932
146.774 17582 132.597
146.891 17680 132.966
147.008 18018 134.231
147.125 18231 135.022
147.241 19017 137.902
147.358 19045 138.004
147.475 19015 137.895
147.592 19230 138.672
147.709 19071 138.098
147.826 18403 135.658
147.943 17947 133.966
148.06 16822 129.7
148.177 16774 129.514
148.294 16801 129.619
148.411 17186 131.095
148.528 17541 132.442
148.645 17712 133.086
148.762 17629 132.774
148.88 17585 132.608
148.997 17196 131.134
149.114 17628 132.77
149.231 16975 130.288
149.349 16302 127.679
149.466 16365 127.926
149.583 16051 126.693
149.701 16045 126.669
149.818 15794 125.674
149.935 15747 125.487
150.053 16543 128.62
150.17 17142 130.927
150.287 17501 132.291
150.405 17850 133.604
150.522 17933 133.914
150.64 18317 135.34
150.757 18710 136.785
150.875 19249 138.741
150.992 19639 140.139
151.11 19983 141.361
151.227 19871 140.965
151.344 19315 138.978
151.462 19243 138.719
151.579 19331 139.036
151.697 18337 135.414
151.814 17436 132.045
151.932 17274 131.431
152.049 17446 132.083
152.167 17827 133.518
152.284 18231 135.022
152.402 18542 136.169
152.519 18254 135.107
152.636 18146 134.707
152.754 18227 135.007
152.871 17527 132.39
152.989 17510 132.325
153.106 16834 129.746
153.223 17149 130.954
153.341 16776 129.522
153.458 16647 129.023
153.575 17077 130.679
153.693 17631 132.782
153.81 18400 135.647
153.927 18752 136.938
154.044 19100 138.203
154.162 19487 139.596
154.279 20319 142.545
154.396 21022 144.99
154.513 21677 147.231
154.63 22067 148.55
154.747 22141 148.799
154.864 22397 149.656
154.981 22239 149.127
155.098 22219 149.06
155.215 21506 146.649
155.332 20407 142.853
155.449 19870 140.961
155.566 20052 141.605
155.683 20614 143.576
155.8 20982 144.852
155.917 21201 145.606
156.033 20957 144.765
156.15 0 1
156.267 0 1
156.383 0 1
156.5 0 1
156.617 0 1
156.733 0 1
156.85 0 1
156.966 0 1
157.082 0 1
157.199 0 1
157.315 0 1
157.431 0 1
157.547 0 1
157.664 0 1
157.78 0 1
157.896 0 1
158.012 0 1
158.128 0 1
158.244 0 1
158.359 0 1
158.475 0 1
158.591 0 1
158.706 0 1
