
6.15755 0 1
6.2731 0 1
6.3887 0 1
6.50437 0 1
6.62009 0 1
6.73587 0 1
6.8517 0 1
6.96759 0 1
7.08353 0 1
7.19952 0 1
7.31557 0 1
7.43166 0 1
7.54781 0 1
7.664 0 1
7.78024 0 1
7.89653 0 1
8.01286 0 1
8.12924 0 1
8.24567 0 1
8.36213 0 1
8.47864 0 1
8.59519 0 1
8.71178 0 1
8.82841 0 1
8.94508 0 1
9.06179 0 1
9.17853 0 1
9.29531 0 1
9.41212 0 1
9.52897 0 1
9.64584 0 1
9.76276 0 1
9.8797 0 1
9.99667 0 1
10.1137 0 1
10.2307 0 1
10.3478 0 1
10.4648 0 1
10.5819 0 1
10.6991 0 1
10.8162 0 1
10.9334 0 1
11.0506 0 1
11.1678 0 1
11.285 0 1
11.4023 0 1
11.5196 0 1
11.6369 0 1
11.7542 0 1
11.8715 0 1
11.9888 0 1
12.1062 0 1
12.2235 0 1
12.3409 0 1
12.4582 0 1
12.5756 0 1
12.693 0 1
12.8104 0 1
12.9278 0 1
13.0452 0 1
13.1626 0 1
13.28 0 1
13.3974 0 1
13.5149 0 1
13.6323 0 1
13.7497 0 1
13.8671 0 1
13.9845 0 1
14.1019 0 1
14.2193 0 1
14.3367 0 1
14.4541 0 1
14.5714 0 1
14.6888 0 1
14.8062 0 1
14.9235 0 1
15.0408 1015 31.8591
15.1581 1063 32.6037
15.2755 1104 33.2265
15.3927 1121 33.4813
15.51 1111 33.3317
15.6273 1065 32.6343
15.7445 1089 33
15.8617 1045 32.3265
15.9789 1079 32.8481
16.0961 1082 32.8938
16.2132 1030 32.0936
16.3304 983 31.3528
16.4475 1006 31.7175
16.5646 1020 31.9374
16.6816 976 31.241
16.7986 1013 31.8277
16.9156 971 31.1609
17.0326 1046 32.3419
17.1496 1037 32.2025
17.2665 1035 32.1714
17.3833 995 31.5436
17.5002 1066 32.6497
17.617 1092 33.0454
17.7338 1097 33.121
17.8505 1107 33.2716
17.9672 1160 34.0588
18.0839 1204 34.6987
18.2005 1245 35.2846
18.3171 1266 35.5809
18.4337 1324 36.3868
18.5502 1308 36.1663
18.6666 1249 35.3412
18.7831 1305 36.1248
18.8994 1292 35.9444
19.0158 1248 35.327
19.1321 1123 33.5112
19.2483 1137 33.7194
19.3645 1144 33.8231
19.4806 1048 32.3728
19.5967 1075 32.7872
19.7128 1046 32.3419
19.8288 1028 32.0624
19.9447 886 29.7658
20.0606 0 1
20.1764 0 1
20.2922 0 1
20.4079 0 1
20.5236 0 1
20.6392 0 1
20.7548 0 1
20.8702 0 1
23.3078 0 1
23.4233 0 1
23.539 0 1
23.6547 0 1
23.7704 0 1
23.8862 0 1
24.0021 0 1
24.118 0 1
24.234 0 1
24.35 0 1
24.4661 1012 31.8119
24.5822 1043 32.2955
24.6984 1059 32.5423
24.8146 1028 32.0624
24.9309 1055 32.4808
25.0472 1033 32.1403
25.1636 1033 32.1403
25.28 966 31.0805
25.3965 1015 31.8591
25.513 1108 33.2866
25.6296 1123 33.5112
25.7462 1126 33.5559
25.8628 1091 33.0303
25.9795 1114 33.3766
26.0962 1105 33.2415
26.213 1116 33.4066
26.3298 1177 34.3074
26.4466 1144 33.8231
26.5635 1238 35.1852
26.6804 1269 35.623
26.7973 1242 35.242
26.9143 1254 35.4119
27.0313 1262 35.5246
27.1483 1233 35.1141
27.2653 1239 35.1994
27.3824 1232 35.0999
27.4996 1214 34.8425
27.6167 1175 34.2783
27.7339 1057 32.5115
27.8511 1070 32.7109
27.9683 1047 32.3574
28.0855 1016 31.8748
28.2028 1024 32
28.3201 1032 32.1248
28.4374 1022 31.9687
28.5547 961 31
28.6721 1048 32.3728
28.7894 963 31.0322
28.9068 938 30.6268
29.0242 1047 32.3574
29.1416 992 31.496
29.259 1037 32.2025
29.3764 1075 32.7872
29.4939 989 31.4484
29.6113 1011 31.7962
29.7288 1066 32.6497
29.8463 1044 32.311
29.9638 1085 32.9393
30.0812 1205 34.7131
30.1987 1128 33.5857
30.3162 1222 34.9571
30.4337 1229 35.0571
30.5512 1191 34.5109
30.6687 1198 34.6121
30.7862 1214 34.8425
30.9037 1176 34.2929
31.0212 1124 33.5261
31.1387 1050 32.4037
31.2562 1043 32.2955
31.3737 1034 32.1559
31.4912 1077 32.8177
31.6087 970 31.1448
31.7262 941 30.6757
31.8436 997 31.5753
31.9611 936 30.5941
32.0785 996 31.5595
32.1959 958 30.9516
32.3134 1007 31.7333
32.4308 1038 32.218
32.5482 1086 32.9545
32.6655 1034 32.1559
32.7829 1040 32.249
32.9002 998 31.5911
33.0176 1087 32.9697
33.1349 1007 31.7333
33.2522 982 31.3369
33.3694 997 31.5753
33.4867 984 31.3688
33.6039 1090 33.0151
33.7211 1054 32.4654
33.8383 1107 33.2716
33.9554 1134 33.6749
34.0725 1194 34.5543
34.1896 1161 34.0735
34.3067 1138 33.7343
34.4237 1075 32.7872
34.5407 1078 32.8329
34.6577 1068 32.6803
34.7746 983 31.3528
34.8915 973 31.1929
35.0084 952 30.8545
35.1252 939 30.6431
35.242 930 30.4959
35.3587 880 29.6648
35.4755 966 31.0805
35.5921 973 31.1929
35.7088 853 29.2062
35.8254 1026 32.0312
35.9419 985 31.3847
36.0584 995 31.5436
36.1749 1036 32.187
36.2913 1016 31.8748
36.4077 957 30.9354
36.524 995 31.5436
36.6403 989 31.4484
36.7565 946 30.7571
36.8727 941 30.6757
36.9889 945 30.7409
37.1049 961 31
37.221 0 1
37.3369 0 1
37.4529 0 1
37.5687 0 1
37.6845 0 1
37.8003 0 1
37.916 0 1
38.0316 0 1
38.1472 0 1
40.5851 0 1
40.7008 0 1
40.8164 0 1
40.9322 0 1
41.048 0 1
41.1639 0 1
41.2798 0 1
41.3958 0 1
41.5118 0 1
41.6279 0 1
41.744 791 28.1247
41.8602 795 28.1957
41.9765 861 29.3428
42.0928 907 30.1164
42.2091 857 29.2746
42.3255 883 29.7153
42.4419 876 29.5973
42.5584 874 29.5635
42.675 895 29.9166
42.7915 896 29.9333
42.9081 895 29.9166
43.0248 926 30.4302
43.1415 961 31
43.2582 994 31.5278
43.375 947 30.7734
43.4918 926 30.4302
43.6087 929 30.4795
43.7256 964 31.0483
43.8425 929 30.4795
43.9595 873 29.5466
44.0765 886 29.7658
44.1935 877 29.6142
44.3106 867 29.4449
44.4277 883 29.7153
44.5448 863 29.3769
44.6619 804 28.3549
44.7791 830 28.8097
44.8963 804 28.3549
45.0136 806 28.3901
45.1308 777 27.8747
45.2481 783 27.9821
45.3654 740 27.2029
45.4827 761 27.5862
45.6001 704 26.533
45.7174 688 26.2298
45.8348 665 25.7876
45.9522 626 25.02
46.0697 680 26.0768
46.1871 664 25.7682
46.3046 632 25.1396
46.422 652 25.5343
46.5395 681 26.096
46.657 652 25.5343
46.7745 666 25.807
46.892 638 25.2587
47.0096 616 24.8193
47.1271 673 25.9422
47.2446 658 25.6515
47.3622 658 25.6515
47.4797 652 25.5343
47.5973 628 25.0599
47.7149 622 24.9399
47.8324 613 24.7588
47.95 597 24.4336
48.0675 584 24.1661
48.1851 628 25.0599
48.3027 592 24.3311
48.4202 591 24.3105
48.5378 546 23.3666
48.6554 542 23.2809
48.7729 545 23.3452
48.8904 562 23.7065
49.008 564 23.7487
49.1255 560 23.6643
49.243 553 23.516
49.3605 561 23.6854
49.478 484 22
49.5955 543 23.3024
49.713 539 23.2164
49.8304 570 23.8747
49.9479 558 23.622
50.0653 587 24.2281
50.1827 639 25.2784
50.3001 616 24.8193
50.4175 680 26.0768
50.5348 630 25.0998
50.6521 597 24.4336
50.7694 627 25.04
50.8867 615 24.7992
51.004 705 26.5518
51.1212 736 27.1293
51.2384 746 27.313
51.3556 771 27.7669
51.4727 711 26.6646
51.5899 780 27.9285
51.707 710 26.6458
51.824 744 27.2764
51.9411 760 27.5681
52.0581 728 26.9815
52.175 697 26.4008
52.2919 745 27.2947
52.4088 775 27.8388
52.5257 717 26.7769
52.6425 706 26.5707
52.7593 671 25.9037
52.876 629 25.0799
52.9927 720 26.8328
53.1094 705 26.5518
53.226 793 28.1603
53.3426 731 27.037
53.4591 773 27.8029
53.5756 791 28.1247
53.692 846 29.0861
53.8084 880 29.6648
53.9248 870 29.4958
54.0411 897 29.95
54.1573 885 29.7489
54.2735 0 1
54.3896 0 1
54.5057 0 1
54.6217 0 1
54.7377 0 1
54.8537 0 1
54.9695 0 1
55.0853 0 1
55.2011 0 1
55.3168 0 1
55.4324 0 1
57.824 0 1
57.9396 0 1
58.0553 0 1
58.1711 0 1
58.2869 0 1
58.4028 0 1
58.5187 0 1
58.6347 0 1
58.7508 0 1
58.8669 0 1
58.983 969 31.1288
59.0992 1078 32.8329
59.2155 1021 31.9531
59.3318 1092 33.0454
59.4482 1092 33.0454
59.5646 1104 33.2265
59.681 1225 35
59.7975 1205 34.7131
59.9141 1185 34.4238
60.0306 1209 34.7707
60.1473 1154 33.9706
60.2639 1088 32.9848
60.3807 1077 32.8177
60.4974 1011 31.7962
60.6142 995 31.5436
60.731 924 30.3974
60.8479 955 30.9031
60.9648 872 29.5296
61.0818 778 27.8927
61.1987 787 28.0535
61.3158 836 28.9137
61.4328 838 28.9482
61.5499 825 28.7228
61.667 864 29.3939
61.7841 880 29.6648
61.9013 935 30.5778
62.0185 921 30.348
62.1357 906 30.0998
62.253 937 30.6105
62.3702 984 31.3688
62.4875 993 31.5119
62.6049 912 30.1993
62.7222 992 31.496
62.8396 1017 31.8904
62.9569 1055 32.4808
63.0743 1121 33.4813
63.1918 1152 33.9411
63.3092 1113 33.3617
63.4267 1154 33.9706
63.5441 1131 33.6303
63.6616 1163 34.1028
63.7791 1115 33.3916
63.8966 1048 32.3728
64.0142 1004 31.686
64.1317 935 30.5778
64.2492 882 29.6985
64.3668 831 28.8271
64.4843 722 26.8701
64.6019 759 27.55
64.7195 783 27.9821
64.837 822 28.6705
64.9546 795 28.1957
65.0722 785 28.0179
65.1898 861 29.3428
65.3074 860 29.3258
65.4249 845 29.0689
65.5425 903 30.05
65.6601 827 28.7576
65.7777 896 29.9333
65.8952 933 30.545
66.0128 906 30.0998
66.1304 936 30.5941
66.2479 968 31.1127
66.3655 1046 32.3419
66.483 1084 32.9242
66.6005 1051 32.4191
66.718 1123 33.5112
66.8355 1071 32.7261
66.953 1108 33.2866
67.0705 1116 33.4066
67.1879 1155 33.9853
67.3054 1113 33.3617
67.4228 1018 31.9061
67.5402 950 30.8221
67.6576 856 29.2575
67.7749 780 27.9285
67.8923 722 26.8701
68.0096 801 28.3019
68.1269 741 27.2213
68.2442 753 27.4408
68.3614 697 26.4008
68.4787 776 27.8568
68.5958 824 28.7054
68.713 822 28.6705
68.8302 809 28.4429
68.9473 881 29.6816
69.0643 819 28.6182
69.1814 852 29.189
69.2984 885 29.7489
69.4154 948 30.7896
69.5323 896 29.9333
69.6492 970 31.1448
69.7661 959 30.9677
69.8829 1048 32.3728
69.9997 1017 31.8904
70.1165 1102 33.1964
70.2332 1159 34.0441
70.3499 1163 34.1028
70.4665 1229 35.0571
70.5831 1174 34.2637
70.6996 1218 34.8999
70.8161 1147 33.8674
70.9326 1046 32.3419
71.049 973 31.1929
71.1653 901 30.0167
71.2817 838 28.9482
71.3979 823 28.688
71.5141 749 27.3679
71.6303 757 27.5136
71.7464 752 27.4226
71.8624 0 1
71.9784 0 1
72.0944 0 1
72.2102 0 1
72.3261 0 1
72.4418 0 1
72.5575 0 1
72.6732 0 1
75.1054 0 1
75.2209 0 1
75.3365 0 1
75.4521 0 1
75.5678 0 1
75.6835 0 1
75.7993 0 1
75.9151 0 1
76.031 0 1
76.147 1047 32.3574
76.263 945 30.7409
76.3791 873 29.5466
76.4952 887 29.7825
76.6113 854 29.2233
76.7276 804 28.3549
76.8438 899 29.9833
76.9601 834 28.8791
77.0765 846 29.0861
77.1929 803 28.3373
77.3093 799 28.2666
77.4258 825 28.7228
77.5423 946 30.7571
77.6589 899 29.9833
77.7755 926 30.4302
77.8921 822 28.6705
78.0088 842 29.0172
78.1256 884 29.7321
78.2423 889 29.8161
78.3591 889 29.8161
78.4759 935 30.5778
78.5928 997 31.5753
78.7097 1040 32.249
78.8266 1067 32.665
78.9436 1170 34.2053
79.0606 1195 34.5688
79.1776 1147 33.8674
79.2946 1181 34.3657
79.4117 1264 35.5528
79.5288 1183 34.3948
79.6459 1155 33.9853
79.7631 1088 32.9848
79.8802 1014 31.8434
79.9974 931 30.5123
80.1147 897 29.95
80.2319 863 29.3769
80.3491 859 29.3087
80.4664 806 28.3901
80.5837 795 28.1957
80.701 823 28.688
80.8183 815 28.5482
80.9357 845 29.0689
81.053 819 28.6182
81.1704 900 30
81.2877 928 30.4631
81.4051 933 30.545
81.5225 833 28.8617
81.6399 836 28.9137
81.7573 824 28.7054
81.8747 876 29.5973
81.9922 870 29.4958
82.1096 1006 31.7175
82.227 997 31.5753
82.3444 1094 33.0757
82.4619 1148 33.8821
82.5793 1154 33.9706
82.6967 1112 33.3467
82.8142 1206 34.7275
82.9316 1241 35.2278
83.049 1276 35.7211
83.1664 1241 35.2278
83.2838 1175 34.2783
83.4012 1064 32.619
83.5186 1009 31.7648
83.636 958 30.9516
83.7534 889 29.8161
83.8708 833 28.8617
83.9881 873 29.5466
84.1055 835 28.8964
84.2228 866 29.4279
84.3401 880 29.6648
84.4575 844 29.0517
84.5747 850 29.1548
84.692 938 30.6268
84.8093 954 30.8869
84.9265 965 31.0644
85.0437 925 30.4138
85.1609 875 29.5804
85.2781 925 30.4138
85.3952 921 30.348
85.5123 961 31
85.6294 1016 31.8748
85.7465 977 31.257
85.8636 1183 34.3948
85.9806 1151 33.9264
86.0976 1220 34.9285
86.2145 1185 34.4238
86.3315 1190 34.4964
86.4484 1268 35.609
86.5652 1349 36.7287
86.682 1335 36.5377
86.7988 1299 36.0416
86.9156 1206 34.7275
87.0323 1133 33.6601
87.149 1081 32.8786
87.2657 1026 32.0312
87.3823 992 31.496
87.4988 958 30.9516
87.6154 976 31.241
87.7318 957 30.9354
87.8483 1020 31.9374
87.9647 939 30.6431
88.081 911 30.1828
88.1973 944 30.7246
88.3136 1041 32.2645
88.4298 1073 32.7567
88.546 941 30.6757
88.6621 971 31.1609
88.7781 884 29.7321
88.8942 0 1
89.0101 0 1
89.126 0 1
89.2419 0 1
89.3577 0 1
89.4734 0 1
89.5891 0 1
89.7047 0 1
89.8203 0 1
89.9358 0 1
92.3269 0 1
92.4424 0 1
92.558 0 1
92.6736 0 1
92.7893 0 1
92.905 0 1
93.0208 0 1
93.1366 0 1
93.2525 0 1
93.3685 0 1
93.4845 0 1
93.6005 945 30.7409
93.7167 944 30.7246
93.8328 924 30.3974
93.949 886 29.7658
94.0653 928 30.4631
94.1816 897 29.95
94.2979 915 30.249
94.4143 959 30.9677
94.5307 937 30.6105
94.6472 1006 31.7175
94.7637 1155 33.9853
94.8803 1121 33.4813
94.9969 1167 34.1614
95.1135 1210 34.7851
95.2302 1232 35.0999
95.3469 1234 35.1283
95.4637 1276 35.7211
95.5805 1266 35.5809
95.6973 1295 35.9861
95.8142 1183 34.3948
95.9311 1203 34.6843
96.048 1102 33.1964
96.1649 1104 33.2265
96.2819 1017 31.8904
96.3989 985 31.3847
96.516 995 31.5436
96.633 935 30.5778
96.7501 970 31.1448
96.8673 967 31.0966
96.9844 872 29.5296
97.1016 873 29.5466
97.2188 1002 31.6544
97.336 1001 31.6386
97.4532 962 31.0161
97.5704 1016 31.8748
97.6877 900 30
97.805 944 30.7246
97.9223 856 29.2575
98.0396 874 29.5635
98.1569 909 30.1496
98.2743 930 30.4959
98.3916 1020 31.9374
98.509 1175 34.2783
98.6264 1142 33.7935
98.7438 1151 33.9264
98.8612 1245 35.2846
98.9786 1200 34.641
99.096 1299 36.0416
99.2134 1225 35
99.3308 1168 34.176
99.4482 1224 34.9857
99.5656 1143 33.8083
99.6831 1120 33.4664
99.8005 1053 32.45
99.9179 1007 31.7333
100.035 990 31.4643
100.153 923 30.3809
100.27 933 30.545
100.388 907 30.1164
100.505 893 29.8831
100.622 909 30.1496
100.74 939 30.6431
100.857 897 29.95
100.975 952 30.8545
101.092 916 30.2655
101.209 917 30.282
101.327 882 29.6985
101.444 920 30.3315
101.561 892 29.8664
101.679 1004 31.686
101.796 886 29.7658
101.913 983 31.3528
102.03 1064 32.619
102.148 1150 33.9116
102.265 1135 33.6898
102.382 1333 36.5103
102.499 1201 34.6554
102.616 1283 35.819
102.733 1309 36.1801
102.851 1310 36.1939
102.968 1363 36.9188
103.085 1251 35.3695
103.202 1185 34.4238
103.319 1130 33.6155
103.436 1128 33.5857
103.552 1013 31.8277
103.669 1007 31.7333
103.786 1003 31.6702
103.903 935 30.5778
104.02 1027 32.0468
104.137 1008 31.749
104.253 985 31.3847
104.37 1008 31.749
104.487 1054 32.4654
104.603 1064 32.619
104.72 935 30.5778
104.836 968 31.1127
104.953 932 30.5287
105.069 966 31.0805
105.186 1029 32.078
105.302 1061 32.573
105.418 1131 33.6303
105.535 1195 34.5688
105.651 1294 35.9722
105.767 1277 35.7351
105.883 1214 34.8425
105.999 1276 35.7211
106.115 0 1
106.231 0 1
106.347 0 1
106.463 0 1
106.579 0 1
106.694 0 1
106.81 0 1
106.926 0 1
107.041 0 1
107.157 0 1
109.576 0 1
109.692 0 1
109.807 0 1
109.923 0 1
110.039 0 1
110.155 0 1
110.27 0 1
110.386 0 1
110.502 0 1
110.618 1049 32.3883
110.735 1147 33.8674
110.851 1074 32.7719
110.967 1113 33.3617
111.083 1031 32.1092
111.199 1058 32.5269
111.316 1163 34.1028
111.432 1149 33.8969
111.549 1134 33.6749
111.665 1059 32.5423
111.782 1085 32.9393
111.898 1044 32.311
112.015 993 31.5119
112.132 948 30.7896
112.248 904 30.0666
112.365 986 31.4006
112.482 942 30.692
112.599 849 29.1376
112.716 839 28.9655
112.832 852 29.189
112.949 831 28.8271
113.066 858 29.2916
113.183 757 27.5136
113.3 754 27.4591
113.417 707 26.5895
113.534 731 27.037
113.652 786 28.0357
113.769 826 28.7402
113.886 823 28.688
114.003 908 30.133
114.12 906 30.0998
114.238 970 31.1448
114.355 915 30.249
114.472 979 31.289
114.589 812 28.4956
114.707 949 30.8058
114.824 972 31.1769
114.942 975 31.225
115.059 958 30.9516
115.176 997 31.5753
115.294 884 29.7321
115.411 857 29.2746
115.529 871 29.5127
115.646 800 28.2843
115.764 784 28
115.881 727 26.9629
115.999 725 26.9258
116.116 724 26.9072
116.234 626 25.02
116.351 643 25.3574
116.469 664 25.7682
116.586 606 24.6171
116.704 584 24.1661
116.821 600 24.4949
116.939 631 25.1197
117.056 628 25.0599
117.174 640 25.2982
117.291 680 26.0768
117.409 695 26.3629
117.526 638 25.2587
117.644 693 26.3249
117.761 726 26.9444
117.879 753 27.4408
117.996 749 27.3679
118.114 790 28.1069
118.231 786 28.0357
118.349 755 27.4773
118.466 800 28.2843
118.584 853 29.2062
118.701 865 29.4109
118.819 793 28.1603
118.936 807 28.4077
119.053 800 28.2843
119.171 756 27.4955
119.288 783 27.9821
119.405 743 27.258
119.523 780 27.9285
119.64 747 27.3313
119.757 732 27.0555
119.875 645 25.3969
119.992 674 25.9615
120.109 694 26.3439
120.226 660 25.6905
120.343 691 26.2869
120.46 687 26.2107
120.578 667 25.8263
120.695 744 27.2764
120.812 725 26.9258
120.929 691 26.2869
121.046 761 27.5862
121.163 799 28.2666
121.279 802 28.3196
121.396 807 28.4077
121.513 849 29.1376
121.63 850 29.1548
121.747 833 28.8617
121.863 792 28.1425
121.98 819 28.6182
122.097 906 30.0998
122.213 877 29.6142
122.33 962 31.0161
122.446 987 31.4166
122.563 893 29.8831
122.679 952 30.8545
122.795 948 30.7896
122.912 920 30.3315
123.028 939 30.6431
123.144 891 29.8496
123.26 862 29.3598
123.377 0 1
123.493 0 1
123.609 0 1
123.725 0 1
123.84 0 1
123.956 0 1
124.072 0 1
124.188 0 1
124.303 0 1
124.419 0 1
126.852 0 1
126.968 0 1
127.083 0 1
127.199 0 1
127.315 0 1
127.431 0 1
127.547 0 1
127.663 0 1
127.779 0 1
127.895 0 1
128.011 0 1
128.127 0 1
128.243 0 1
128.359 1059 32.5423
128.476 1012 31.8119
128.592 1043 32.2955
128.708 988 31.4325
128.825 928 30.4631
128.941 994 31.5278
129.058 959 30.9677
129.174 916 30.2655
129.291 889 29.8161
129.408 901 30.0167
129.524 886 29.7658
129.641 910 30.1662
129.758 871 29.5127
129.875 931 30.5123
129.992 905 30.0832
130.108 879 29.6479
130.225 891 29.8496
130.342 934 30.5614
130.459 931 30.5123
130.576 839 28.9655
130.693 776 27.8568
130.81 672 25.923
130.928 737 27.1477
131.045 907 30.1164
131.162 906 30.0998
131.279 886 29.7658
131.396 1003 31.6702
131.513 921 30.348
131.631 908 30.133
131.748 916 30.2655
131.865 921 30.348
131.983 934 30.5614
132.1 921 30.348
132.217 866 29.4279
132.335 860 29.3258
132.452 843 29.0345
132.57 808 28.4253
132.687 775 27.8388
132.804 853 29.2062
132.922 811 28.4781
133.039 825 28.7228
133.157 794 28.178
133.274 789 28.0891
133.392 817 28.5832
133.509 812 28.4956
133.627 818 28.6007
133.744 806 28.3901
133.862 791 28.1247
133.979 774 27.8209
134.097 780 27.9285
134.214 681 26.096
134.332 567 23.8118
134.449 592 24.3311
134.567 711 26.6646
134.684 718 26.7955
134.802 707 26.5895
134.919 742 27.2397
135.037 782 27.9643
135.154 788 28.0713
135.272 728 26.9815
135.389 751 27.4044
135.507 757 27.5136
135.624 757 27.5136
135.742 692 26.3059
135.859 774 27.8209
135.977 711 26.6646
136.094 642 25.3377
136.211 640 25.2982
136.329 637 25.2389
136.446 653 25.5539
136.564 689 26.2488
136.681 612 24.7386
136.798 611 24.7184
136.915 604 24.5764
137.033 597 24.4336
137.15 622 24.9399
137.267 653 25.5539
137.384 595 24.3926
137.502 630 25.0998
137.619 620 24.8998
137.736 617 24.8395
137.853 520 22.8035
137.97 469 21.6564
138.087 499 22.3383
138.204 604 24.5764
138.321 643 25.3574
138.438 645 25.3969
138.555 681 26.096
138.672 691 26.2869
138.788 671 25.9037
138.905 753 27.4408
139.022 752 27.4226
139.139 712 26.6833
139.255 704 26.533
139.372 742 27.2397
139.488 759 27.55
139.605 783 27.9821
139.721 675 25.9808
139.838 688 26.2298
139.954 715 26.7395
140.071 712 26.6833
140.187 742 27.2397
140.303 710 26.6458
140.419 667 25.8263
140.535 754 27.4591
140.652 697 26.4008
140.768 0 1
140.884 0 1
141 0 1
141.115 0 1
141.231 0 1
141.347 0 1
141.463 0 1
141.578 0 1
141.694 0 1
144.104 0 1
144.219 0 1
144.335 0 1
144.45 0 1
144.566 0 1
144.682 0 1
144.798 0 1
144.914 0 1
145.03 0 1
145.146 590 24.2899
145.262 572 23.9165
145.378 597 24.4336
145.494 613 24.7588
145.61 571 23.8956
145.726 607 24.6374
145.842 603 24.5561
145.959 562 23.7065
146.075 563 23.7276
146.192 575 23.9792
146.308 574 23.9583
146.425 533 23.0868
146.541 532 23.0651
146.658 519 22.7816
146.774 499 22.3383
146.891 473 21.7486
147.008 506 22.4944
147.125 527 22.9565
147.241 527 22.9565
147.358 519 22.7816
147.475 520 22.8035
147.592 512 22.6274
147.709 468 21.6333
147.826 536 23.1517
147.943 488 22.0907
148.06 471 21.7025
148.177 483 21.9773
148.294 482 21.9545
148.411 485 22.0227
148.528 490 22.1359
148.645 443 21.0476
148.762 423 20.567
148.88 413 20.3224
148.997 421 20.5183
149.114 405 20.1246
149.231 402 20.0499
149.349 398 19.9499
149.466 452 21.2603
149.583 408 20.199
149.701 389 19.7231
149.818 422 20.5426
149.935 418 20.445
150.053 397 19.9249
150.17 418 20.445
150.287 397 19.9249
150.405 433 20.8087
150.522 392 19.799
150.64 436 20.8806
150.757 448 21.166
150.875 437 20.9045
150.992 445 21.095
151.11 443 21.0476
151.227 453 21.2838
151.344 444 21.0713
151.462 397 19.9249
151.579 419 20.4695
151.697 439 20.9523
151.814 464 21.5407
151.932 429 20.7123
152.049 406 20.1494
152.167 453 21.2838
152.284 412 20.2978
152.402 434 20.8327
152.519 453 21.2838
152.636 421 20.5183
152.754 446 21.1187
152.871 439 20.9523
152.989 436 20.8806
153.106 471 21.7025
153.223 401 20.025
153.341 442 21.0238
153.458 442 21.0238
153.575 444 21.0713
153.693 427 20.664
153.81 489 22.1133
153.927 468 21.6333
154.044 501 22.383
154.162 511 22.6053
154.279 518 22.7596
154.396 520 22.8035
154.513 558 23.622
154.63 565 23.7697
154.747 557 23.6008
154.864 551 23.4734
154.981 567 23.8118
155.098 558 23.622
155.215 583 24.1454
155.332 548 23.4094
155.449 578 24.0416
155.566 571 23.8956
155.683 601 24.5153
155.8 584 24.1661
155.917 524 22.891
156.033 480 21.9089
156.15 0 1
156.267 0 1
156.383 0 1
156.5 0 1
156.617 0 1
156.733 0 1
156.85 0 1
156.966 0 1
157.082 0 1
157.199 0 1
157.315 0 1
157.431 0 1
157.547 0 1
157.664 0 1
157.78 0 1
157.896 0 1
158.012 0 1
158.128 0 1
158.244 0 1
158.359 0 1
158.475 0 1
158.591 0 1
158.706 0 1
