
6.15755 0 1
6.2731 0 1
6.3887 0 1
6.50437 0 1
6.62009 0 1
6.73587 0 1
6.8517 0 1
6.96759 0 1
7.08353 0 1
7.19952 0 1
7.31557 0 1
7.43166 0 1
7.54781 0 1
7.664 0 1
7.78024 0 1
7.89653 0 1
8.01286 0 1
8.12924 0 1
8.24567 0 1
8.36213 0 1
8.47864 0 1
8.59519 0 1
8.71178 0 1
8.82841 0 1
8.94508 0 1
9.06179 0 1
9.17853 0 1
9.29531 0 1
9.41212 0 1
9.52897 0 1
9.64584 0 1
9.76276 0 1
9.8797 0 1
9.99667 0 1
10.1137 0 1
10.2307 0 1
10.3478 0 1
10.4648 0 1
10.5819 0 1
10.6991 0 1
10.8162 0 1
10.9334 0 1
11.0506 0 1
11.1678 0 1
11.285 0 1
11.4023 0 1
11.5196 0 1
11.6369 0 1
11.7542 0 1
11.8715 0 1
11.9888 0 1
12.1062 0 1
12.2235 0 1
12.3409 0 1
12.4582 0 1
12.5756 0 1
12.693 0 1
12.8104 0 1
12.9278 0 1
13.0452 0 1
13.1626 0 1
13.28 0 1
13.3974 0 1
13.5149 0 1
13.6323 0 1
13.7497 0 1
13.8671 0 1
13.9845 0 1
14.1019 0 1
14.2193 0 1
14.3367 0 1
14.4541 0 1
14.5714 0 1
14.6888 0 1
14.8062 0 1
14.9235 0 1
15.0408 2782 52.7447
15.1581 2994 54.7175
15.2755 3143 56.0625
15.3927 3066 55.3715
15.51 2735 52.2972
15.6273 2929 54.1202
15.7445 2965 54.4518
15.8617 3032 55.0636
15.9789 3000 54.7723
16.0961 2848 53.3667
16.2132 2758 52.5167
16.3304 2760 52.5357
16.4475 2795 52.8678
16.5646 2600 50.9902
16.6816 2662 51.5946
16.7986 2644 51.4198
16.9156 2703 51.9904
17.0326 2646 51.4393
17.1496 2730 52.2494
17.2665 2685 51.817
17.3833 2588 50.8724
17.5002 2711 52.0673
17.617 2634 51.3225
17.7338 2730 52.2494
17.8505 2718 52.1344
17.9672 2620 51.1859
18.0839 2669 51.6624
18.2005 2675 51.7204
18.3171 2619 51.1762
18.4337 2493 49.93
18.5502 2494 49.94
18.6666 2628 51.264
18.7831 2661 51.5849
18.8994 2524 50.2394
19.0158 2449 49.4874
19.1321 2421 49.2037
19.2483 2470 49.6991
19.3645 2341 48.3839
19.4806 2331 48.2804
19.5967 2153 46.4004
19.7128 1910 43.7035
19.8288 1735 41.6533
19.9447 1548 39.3446
20.0606 0 1
20.1764 0 1
20.2922 0 1
20.4079 0 1
20.5236 0 1
20.6392 0 1
20.7548 0 1
20.8702 0 1
23.3078 0 1
23.4233 0 1
23.539 0 1
23.6547 0 1
23.7704 0 1
23.8862 0 1
24.0021 0 1
24.118 0 1
24.234 0 1
24.35 0 1
24.4661 1087 32.9697
24.5822 1302 36.0832
24.6984 1354 36.7967
24.8146 1597 39.9625
24.9309 1824 42.7083
25.0472 1943 44.0795
25.1636 2174 46.6262
25.28 2497 49.97
25.3965 2568 50.6754
25.513 2560 50.5964
25.6296 2656 51.5364
25.7462 2732 52.2685
25.8628 2776 52.6878
25.9795 2844 53.3292
26.0962 2826 53.1601
26.213 2696 51.923
26.3298 2652 51.4976
26.4466 2492 49.9199
26.5635 2439 49.3862
26.6804 2440 49.3964
26.7973 2335 48.3218
26.9143 2338 48.3529
27.0313 2212 47.0319
27.1483 2178 46.669
27.2653 2245 47.3814
27.3824 2464 49.6387
27.4996 2402 49.0102
27.6167 2466 49.6588
27.7339 2376 48.7442
27.8511 2397 48.9592
27.9683 2504 50.04
28.0855 2503 50.03
28.2028 2589 50.8822
28.3201 2410 49.0918
28.4374 2460 49.5984
28.5547 2316 48.1248
28.6721 2279 47.7389
28.7894 2293 47.8853
28.9068 2318 48.1456
29.0242 2418 49.1732
29.1416 2391 48.8979
29.259 2498 49.98
29.3764 2480 49.7996
29.4939 2358 48.5592
29.6113 2342 48.3942
29.7288 2332 48.2908
29.8463 2409 49.0816
29.9638 2371 48.6929
30.0812 2318 48.1456
30.1987 2366 48.6415
30.3162 2199 46.8935
30.4337 2227 47.1911
30.5512 2107 45.9021
30.6687 2070 45.4973
30.7862 2235 47.2758
30.9037 2314 48.1041
31.0212 2498 49.98
31.1387 2580 50.7937
31.2562 2448 49.4773
31.3737 2481 49.8096
31.4912 2521 50.2096
31.6087 2484 49.8397
31.7262 2402 49.0102
31.8436 2367 48.6518
31.9611 2232 47.244
32.0785 2199 46.8935
32.1959 2185 46.744
32.3134 2132 46.1736
32.4308 2066 45.4533
32.5482 2178 46.669
32.6655 2212 47.0319
32.7829 2219 47.1063
32.9002 2109 45.9239
33.0176 2179 46.6798
33.1349 2057 45.3542
33.2522 2113 45.9674
33.3694 2180 46.6905
33.4867 2169 46.5725
33.6039 2306 48.0208
33.7211 2336 48.3322
33.8383 2223 47.1487
33.9554 2082 45.6289
34.0725 2121 46.0543
34.1896 2009 44.8219
34.3067 2000 44.7214
34.4237 2172 46.6047
34.5407 2174 46.6262
34.6577 2271 47.655
34.7746 2251 47.4447
34.8915 2251 47.4447
35.0084 2191 46.8081
35.1252 2333 48.3011
35.242 2214 47.0532
35.3587 2200 46.9042
35.4755 2158 46.4543
35.5921 2031 45.0666
35.7088 1964 44.317
35.8254 1908 43.6807
35.9419 1846 42.9651
36.0584 1976 44.4522
36.1749 1967 44.3509
36.2913 1975 44.441
36.4077 1979 44.486
36.524 1893 43.5086
36.6403 1832 42.8019
36.7565 1727 41.5572
36.8727 1623 40.2865
36.9889 1530 39.1152
37.1049 1428 37.7889
37.221 0 1
37.3369 0 1
37.4529 0 1
37.5687 0 1
37.6845 0 1
37.8003 0 1
37.916 0 1
38.0316 0 1
38.1472 0 1
40.5851 0 1
40.7008 0 1
40.8164 0 1
40.9322 0 1
41.048 0 1
41.1639 0 1
41.2798 0 1
41.3958 0 1
41.5118 0 1
41.6279 0 1
41.744 943 30.7083
41.8602 1133 33.6601
41.9765 1365 36.9459
42.0928 1512 38.8844
42.2091 1558 39.4715
42.3255 1683 41.0244
42.4419 1718 41.4488
42.5584 1765 42.0119
42.675 1733 41.6293
42.7915 1737 41.6773
42.9081 1669 40.8534
43.0248 1711 41.3642
43.1415 1693 41.1461
43.2582 1685 41.0488
43.375 1844 42.9418
43.4918 1856 43.0813
43.6087 1846 42.9651
43.7256 1881 43.3705
43.8425 1791 42.3202
43.9595 1763 41.9881
44.0765 1786 42.2611
44.1935 1746 41.7852
44.3106 1784 42.2374
44.4277 1614 40.1746
44.5448 1572 39.6485
44.6619 1623 40.2865
44.7791 1697 41.1947
44.8963 1750 41.833
45.0136 1810 42.5441
45.1308 1862 43.1509
45.2481 1877 43.3244
45.3654 1904 43.6348
45.4827 1853 43.0465
45.6001 1946 44.1135
45.7174 1951 44.1701
45.8348 1954 44.2041
45.9522 1950 44.1588
46.0697 1895 43.5316
46.1871 1835 42.8369
46.3046 1792 42.332
46.422 1655 40.6817
46.5395 1568 39.598
46.657 1560 39.4968
46.7745 1566 39.5727
46.892 1650 40.6202
47.0096 1718 41.4488
47.1271 1807 42.5088
47.2446 1808 42.5206
47.3622 1793 42.3438
47.4797 1785 42.2493
47.5973 1812 42.5676
47.7149 1697 41.1947
47.8324 1707 41.3159
47.95 1663 40.7799
48.0675 1571 39.6358
48.1851 1620 40.2492
48.3027 1612 40.1497
48.4202 1744 41.7612
48.5378 1722 41.497
48.6554 1834 42.8252
48.7729 1765 42.0119
48.8904 1836 42.8486
49.008 1829 42.7668
49.1255 1868 43.2204
49.243 1894 43.5201
49.3605 1904 43.6348
49.478 1839 42.8836
49.5955 1789 42.2966
49.713 1747 41.7971
49.8304 1702 41.2553
49.9479 1603 40.0375
50.0653 1483 38.5097
50.1827 1506 38.8072
50.3001 1506 38.8072
50.4175 1605 40.0625
50.5348 1702 41.2553
50.6521 1835 42.8369
50.7694 1921 43.8292
50.8867 2095 45.7712
51.004 2111 45.9456
51.1212 2175 46.6369
51.2384 2389 48.8774
51.3556 2509 50.0899
51.4727 2574 50.7346
51.5899 2584 50.8331
51.707 2514 50.1398
51.824 2564 50.636
51.9411 2697 51.9326
52.0581 2797 52.8867
52.175 2720 52.1536
52.2919 2681 51.7784
52.4088 2589 50.8822
52.5257 2353 48.5077
52.6425 2281 47.7598
52.7593 2182 46.7119
52.876 2190 46.7974
52.9927 2147 46.3357
53.1094 2224 47.1593
53.226 2305 48.0104
53.3426 2114 45.9783
53.4591 2061 45.3982
53.5756 1998 44.699
53.692 1749 41.821
53.8084 1809 42.5323
53.9248 1743 41.7493
54.0411 1701 41.2432
54.1573 1686 41.0609
54.2735 0 1
54.3896 0 1
54.5057 0 1
54.6217 0 1
54.7377 0 1
54.8537 0 1
54.9695 0 1
55.0853 0 1
55.2011 0 1
55.3168 0 1
55.4324 0 1
57.824 0 1
57.9396 0 1
58.0553 0 1
58.1711 0 1
58.2869 0 1
58.4028 0 1
58.5187 0 1
58.6347 0 1
58.7508 0 1
58.8669 0 1
58.983 2070 45.4973
59.0992 2588 50.8724
59.2155 2941 54.231
59.3318 3300 57.4456
59.4482 3487 59.0508
59.5646 3858 62.1128
59.681 4093 63.9766
59.7975 4203 64.8305
59.9141 4270 65.3452
60.0306 4350 65.9545
60.1473 4336 65.8483
60.2639 4227 65.0154
60.3807 4219 64.9538
60.4974 4416 66.453
60.6142 4495 67.0448
60.731 4754 68.9493
60.8479 4779 69.1303
60.9648 4952 70.3704
61.0818 5094 71.3723
61.1987 5153 71.7844
61.3158 5101 71.4213
61.4328 5385 73.3826
61.5499 5492 74.108
61.667 5555 74.5319
61.7841 5604 74.8599
61.9013 5678 75.3525
62.0185 5764 75.921
62.1357 5561 74.5721
62.253 5422 73.6342
62.3702 5207 72.1595
62.4875 5042 71.007
62.6049 5102 71.4283
62.7222 4774 69.0941
62.8396 4442 66.6483
62.9569 4115 64.1483
63.0743 4035 63.5216
63.1918 4191 64.7379
63.3092 4169 64.5678
63.4267 4396 66.3023
63.5441 4448 66.6933
63.6616 4230 65.0385
63.7791 3697 60.803
63.8966 3052 55.2449
64.0142 2486 49.8598
64.1317 2132 46.1736
64.2492 2067 45.4643
64.3668 2026 45.0111
64.4843 2052 45.299
64.6019 2094 45.7602
64.7195 2074 45.5412
64.837 2120 46.0435
64.9546 1991 44.6206
65.0722 2031 45.0666
65.1898 2070 45.4973
65.3074 2115 45.9891
65.4249 2020 44.9444
65.5425 1948 44.1362
65.6601 1889 43.4626
65.7777 1801 42.4382
65.8952 1768 42.0476
66.0128 1804 42.4735
66.1304 1872 43.2666
66.2479 1942 44.0681
66.3655 2067 45.4643
66.483 1962 44.2945
66.6005 2031 45.0666
66.718 2062 45.4093
66.8355 2041 45.1774
66.953 2033 45.0888
67.0705 1992 44.6318
67.1879 1901 43.6005
67.3054 1800 42.4264
67.4228 1817 42.6263
67.5402 1801 42.4382
67.6576 1874 43.2897
67.7749 1882 43.382
67.8923 1961 44.2832
68.0096 1985 44.5533
68.1269 1941 44.0568
68.2442 1899 43.5775
68.3614 1923 43.852
68.4787 2001 44.7325
68.5958 2020 44.9444
68.713 1982 44.5197
68.8302 2000 44.7214
68.9473 1902 43.6119
69.0643 1928 43.909
69.1814 1917 43.7836
69.2984 1815 42.6028
69.4154 1750 41.833
69.5323 1698 41.2068
69.6492 1823 42.6966
69.7661 1826 42.7317
69.8829 1877 43.3244
69.9997 1931 43.9431
70.1165 1914 43.7493
70.2332 1842 42.9185
70.3499 1845 42.9535
70.4665 1658 40.7185
70.5831 1615 40.1871
70.6996 1519 38.9744
70.8161 1433 37.855
70.9326 1237 35.171
71.049 1110 33.3167
71.1653 1062 32.5883
71.2817 1055 32.4808
71.3979 956 30.9192
71.5141 908 30.133
71.6303 853 29.2062
71.7464 678 26.0384
71.8624 0 1
71.9784 0 1
72.0944 0 1
72.2102 0 1
72.3261 0 1
72.4418 0 1
72.5575 0 1
72.6732 0 1
75.1054 0 1
75.2209 0 1
75.3365 0 1
75.4521 0 1
75.5678 0 1
75.6835 0 1
75.7993 0 1
75.9151 0 1
76.031 0 1
76.147 1229 35.0571
76.263 1291 35.9305
76.3791 1283 35.819
76.4952 1396 37.3631
76.6113 1608 40.0999
76.7276 1530 39.1152
76.8438 1602 40.025
76.9601 1578 39.724
77.0765 1617 40.2119
77.1929 1560 39.4968
77.3093 1615 40.1871
77.4258 1664 40.7922
77.5423 1607 40.0874
77.6589 1641 40.5093
77.7755 1700 41.2311
77.8921 1724 41.5211
78.0088 1637 40.4599
78.1256 1630 40.3733
78.2423 1544 39.2938
78.3591 1493 38.6394
78.4759 1431 37.8286
78.5928 1436 37.8946
78.7097 1382 37.1753
78.8266 1483 38.5097
78.9436 1657 40.7063
79.0606 1603 40.0375
79.1776 1646 40.5709
79.2946 1669 40.8534
79.4117 1694 41.1582
79.5288 1620 40.2492
79.6459 1655 40.6817
79.7631 1574 39.6737
79.8802 1560 39.4968
79.9974 1556 39.4462
80.1147 1603 40.0375
80.2319 1593 39.9124
80.3491 1663 40.7799
80.4664 1749 41.821
80.5837 1703 41.2674
80.701 1720 41.4729
80.8183 1655 40.6817
80.9357 1680 40.9878
81.053 1623 40.2865
81.1704 1753 41.8688
81.2877 1751 41.845
81.4051 1845 42.9535
81.5225 1650 40.6202
81.6399 1691 41.1218
81.7573 1665 40.8044
81.8747 1579 39.7366
81.9922 1466 38.2884
82.1096 1593 39.9124
82.227 1503 38.7685
82.3444 1428 37.7889
82.4619 1597 39.9625
82.5793 1634 40.4228
82.6967 1757 41.9166
82.8142 1704 41.2795
82.9316 1741 41.7253
83.049 1676 40.939
83.1664 1781 42.2019
83.2838 1709 41.3401
83.4012 1701 41.2432
83.5186 1643 40.5339
83.636 1602 40.025
83.7534 1660 40.7431
83.8708 1688 41.0853
83.9881 1715 41.4126
84.1055 1816 42.6146
84.2228 1802 42.45
84.3401 1665 40.8044
84.4575 1728 41.5692
84.5747 1788 42.2847
84.692 1700 41.2311
84.8093 1704 41.2795
84.9265 1749 41.821
85.0437 1850 43.0116
85.1609 1814 42.5911
85.2781 1751 41.845
85.3952 1750 41.833
85.5123 1723 41.509
85.6294 1532 39.1408
85.7465 1585 39.8121
85.8636 1568 39.598
85.9806 1587 39.8372
86.0976 1666 40.8167
86.2145 1818 42.638
86.3315 1787 42.2729
86.4484 1768 42.0476
86.5652 1764 42
86.682 1779 42.1782
86.7988 1736 41.6653
86.9156 1805 42.4853
87.0323 1621 40.2616
87.149 1713 41.3884
87.2657 1647 40.5832
87.3823 1654 40.6694
87.4988 1676 40.939
87.6154 1645 40.5586
87.7318 1577 39.7115
87.8483 1606 40.0749
87.9647 1538 39.2173
88.081 1402 37.4433
88.1973 1344 36.6606
88.3136 1203 34.6843
88.4298 1149 33.8969
88.546 1071 32.7261
88.6621 1071 32.7261
88.7781 980 31.305
88.8942 0 1
89.0101 0 1
89.126 0 1
89.2419 0 1
89.3577 0 1
89.4734 0 1
89.5891 0 1
89.7047 0 1
89.8203 0 1
89.9358 0 1
92.3269 0 1
92.4424 0 1
92.558 0 1
92.6736 0 1
92.7893 0 1
92.905 0 1
93.0208 0 1
93.1366 0 1
93.2525 0 1
93.3685 0 1
93.4845 0 1
93.6005 1374 37.0675
93.7167 1415 37.6165
93.8328 1608 40.0999
93.949 1670 40.8656
94.0653 1702 41.2553
94.1816 1867 43.2088
94.2979 1765 42.0119
94.4143 1773 42.107
94.5307 1736 41.6653
94.6472 1639 40.4846
94.7637 1698 41.2068
94.8803 1659 40.7308
94.9969 1628 40.3485
95.1135 1672 40.8901
95.2302 1685 41.0488
95.3469 1750 41.833
95.4637 1772 42.0951
95.5805 1905 43.6463
95.6973 1904 43.6348
95.8142 1740 41.7133
95.9311 1795 42.3674
96.048 1723 41.509
96.1649 1706 41.3038
96.2819 1673 40.9023
96.3989 1733 41.6293
96.516 1868 43.2204
96.633 1794 42.3556
96.7501 1877 43.3244
96.8673 1807 42.5088
96.9844 1866 43.1972
97.1016 1770 42.0714
97.2188 1753 41.8688
97.336 1726 41.5452
97.4532 1738 41.6893
97.5704 1745 41.7732
97.6877 1783 42.2256
97.805 1823 42.6966
97.9223 1816 42.6146
98.0396 1776 42.1426
98.1569 1741 41.7253
98.2743 1778 42.1663
98.3916 1695 41.1704
98.509 1654 40.6694
98.6264 1696 41.1825
98.7438 1768 42.0476
98.8612 1800 42.4264
98.9786 1941 44.0568
99.096 1959 44.2606
99.2134 1941 44.0568
99.3308 1935 43.9886
99.4482 1848 42.9884
99.5656 1779 42.1782
99.6831 1823 42.6966
99.8005 1842 42.9185
99.9179 1828 42.7551
100.035 1868 43.2204
100.153 1983 44.5309
100.27 1970 44.3847
100.388 1920 43.8178
100.505 1863 43.1625
100.622 1945 44.1022
100.74 1904 43.6348
100.857 1863 43.1625
100.975 1796 42.3792
101.092 1977 44.4635
101.209 1834 42.8252
101.327 1932 43.9545
101.444 1931 43.9431
101.561 1951 44.1701
101.679 1909 43.6921
101.796 1759 41.9404
101.913 1799 42.4146
102.03 1710 41.3521
102.148 1837 42.8602
102.265 1877 43.3244
102.382 1899 43.5775
102.499 1947 44.1248
102.616 2068 45.4753
102.733 2021 44.9555
102.851 2011 44.8442
102.968 1970 44.3847
103.085 1925 43.8748
103.202 1928 43.909
103.319 1898 43.566
103.436 1886 43.4281
103.552 1970 44.3847
103.669 2018 44.9222
103.786 1983 44.5309
103.903 2021 44.9555
104.02 1956 44.2267
104.137 1930 43.9318
104.253 1927 43.8976
104.37 1974 44.4297
104.487 1914 43.7493
104.603 1848 42.9884
104.72 1877 43.3244
104.836 1865 43.1856
104.953 1819 42.6497
105.069 1798 42.4028
105.186 1732 41.6173
105.302 1599 39.9875
105.418 1590 39.8748
105.535 1449 38.0657
105.651 1304 36.1109
105.767 1185 34.4238
105.883 1102 33.1964
105.999 1007 31.7333
106.115 0 1
106.231 0 1
106.347 0 1
106.463 0 1
106.579 0 1
106.694 0 1
106.81 0 1
106.926 0 1
107.041 0 1
107.157 0 1
109.576 0 1
109.692 0 1
109.807 0 1
109.923 0 1
110.039 0 1
110.155 0 1
110.27 0 1
110.386 0 1
110.502 0 1
110.618 963 31.0322
110.735 1102 33.1964
110.851 1269 35.623
110.967 1447 38.0395
111.083 1554 39.4208
111.199 1709 41.3401
111.316 1767 42.0357
111.432 1867 43.2088
111.549 1930 43.9318
111.665 1932 43.9545
111.782 1743 41.7493
111.898 1718 41.4488
112.015 1734 41.6413
112.132 1819 42.6497
112.248 1862 43.1509
112.365 1920 43.8178
112.482 1873 43.2782
112.599 1941 44.0568
112.716 1909 43.6921
112.832 1862 43.1509
112.949 1748 41.8091
113.066 1713 41.3884
113.183 1747 41.7971
113.3 1776 42.1426
113.417 1779 42.1782
113.534 1769 42.0595
113.652 1755 41.8927
113.769 1743 41.7493
113.886 1783 42.2256
114.003 1690 41.1096
114.12 1679 40.9756
114.238 1606 40.0749
114.355 1683 41.0244
114.472 1615 40.1871
114.589 1660 40.7431
114.707 1782 42.2137
114.824 1837 42.8602
114.942 1842 42.9185
115.059 1776 42.1426
115.176 1784 42.2374
115.294 1737 41.6773
115.411 1649 40.6079
115.529 1649 40.6079
115.646 1580 39.7492
115.764 1765 42.0119
115.881 1777 42.1545
115.999 1814 42.5911
116.116 1800 42.4264
116.234 1762 41.9762
116.351 1796 42.3792
116.469 1732 41.6173
116.586 1671 40.8779
116.704 1663 40.7799
116.821 1672 40.8901
116.939 1681 41
117.056 1665 40.8044
117.174 1681 41
117.291 1714 41.4005
117.409 1626 40.3237
117.526 1617 40.2119
117.644 1581 39.7618
117.761 1658 40.7185
117.879 1558 39.4715
117.996 1572 39.6485
118.114 1598 39.975
118.231 1698 41.2068
118.349 1665 40.8044
118.466 1696 41.1825
118.584 1808 42.5206
118.701 1675 40.9268
118.819 1689 41.0974
118.936 1650 40.6202
119.053 1523 39.0256
119.171 1547 39.3319
119.288 1559 39.4842
119.405 1588 39.8497
119.523 1691 41.1218
119.64 1736 41.6653
119.757 1707 41.3159
119.875 1676 40.939
119.992 1614 40.1746
120.109 1613 40.1622
120.226 1631 40.3856
120.343 1571 39.6358
120.46 1617 40.2119
120.578 1618 40.2244
120.695 1482 38.4968
120.812 1622 40.2741
120.929 1623 40.2865
121.046 1565 39.5601
121.163 1537 39.2046
121.279 1458 38.1838
121.396 1429 37.8021
121.513 1490 38.6005
121.63 1413 37.5899
121.747 1374 37.0675
121.863 1343 36.647
121.98 1347 36.7015
122.097 1375 37.081
122.213 1288 35.8887
122.33 1339 36.5923
122.446 1300 36.0555
122.563 1140 33.7639
122.679 1097 33.121
122.795 985 31.3847
122.912 941 30.6757
123.028 920 30.3315
123.144 906 30.0998
123.26 839 28.9655
123.377 0 1
123.493 0 1
123.609 0 1
123.725 0 1
123.84 0 1
123.956 0 1
124.072 0 1
124.188 0 1
124.303 0 1
124.419 0 1
126.852 0 1
126.968 0 1
127.083 0 1
127.199 0 1
127.315 0 1
127.431 0 1
127.547 0 1
127.663 0 1
127.779 0 1
127.895 0 1
128.011 0 1
128.127 0 1
128.243 0 1
128.359 1629 40.3609
128.476 1745 41.7732
128.592 1794 42.3556
128.708 1910 43.7035
128.825 1888 43.4511
128.941 1984 44.5421
129.058 1949 44.1475
129.174 1970 44.3847
129.291 1790 42.3084
129.408 1944 44.0908
129.524 1868 43.2204
129.641 1842 42.9185
129.758 1874 43.2897
129.875 1838 42.8719
129.992 1934 43.9773
130.108 1933 43.9659
130.225 1925 43.8748
130.342 1883 43.3935
130.459 1835 42.8369
130.576 1942 44.0681
130.693 1830 42.7785
130.81 1896 43.5431
130.928 1946 44.1135
131.045 1952 44.1814
131.162 2182 46.7119
131.279 2242 47.3498
131.396 2488 49.8799
131.513 2471 49.7092
131.631 2445 49.4469
131.748 2492 49.9199
131.865 2583 50.8232
131.983 2589 50.8822
132.1 2505 50.05
132.217 2811 53.0189
132.335 2896 53.8145
132.452 3008 54.8452
132.57 3166 56.2672
132.687 3152 56.1427
132.804 3135 55.9911
132.922 3264 57.1314
133.039 3299 57.4369
133.157 3315 57.576
133.274 3255 57.0526
133.392 3200 56.5685
133.509 3245 56.9649
133.627 3229 56.8243
133.744 3189 56.4712
133.862 3316 57.5847
133.979 3052 55.2449
134.097 2993 54.7083
134.214 3023 54.9818
134.332 2921 54.0463
134.449 2964 54.4426
134.567 3099 55.6687
134.684 3252 57.0263
134.802 3278 57.2538
134.919 3358 57.9483
135.037 3370 58.0517
135.154 3259 57.0877
135.272 3448 58.7197
135.389 3255 57.0526
135.507 3151 56.1338
135.624 3193 56.5066
135.742 3394 58.258
135.859 3376 58.1034
135.977 3350 57.8792
136.094 3541 59.5063
136.211 3530 59.4138
136.329 3547 59.5567
136.446 3354 57.9137
136.564 3503 59.1861
136.681 3460 58.8218
136.798 3435 58.6089
136.915 3563 59.6909
137.033 3564 59.6992
137.15 3569 59.7411
137.267 3365 58.0086
137.384 3349 57.8705
137.502 3319 57.6108
137.619 3183 56.4181
137.736 3104 55.7136
137.853 2955 54.3599
137.97 3011 54.8726
138.087 3027 55.0182
138.204 3044 55.1725
138.321 3299 57.4369
138.438 3362 57.9828
138.555 3546 59.5483
138.672 3512 59.2621
138.788 3554 59.6154
138.905 3593 59.9416
139.022 3402 58.3267
139.139 3149 56.116
139.255 2946 54.2771
139.372 2848 53.3667
139.488 2751 52.45
139.605 2681 51.7784
139.721 2621 51.1957
139.838 2678 51.7494
139.954 2364 48.621
140.071 2295 47.9062
140.187 2104 45.8694
140.303 2074 45.5412
140.419 2007 44.7996
140.535 1969 44.3734
140.652 1959 44.2606
140.768 0 1
140.884 0 1
141 0 1
141.115 0 1
141.231 0 1
141.347 0 1
141.463 0 1
141.578 0 1
141.694 0 1
144.104 0 1
144.219 0 1
144.335 0 1
144.45 0 1
144.566 0 1
144.682 0 1
144.798 0 1
144.914 0 1
145.03 0 1
145.146 5239 72.3809
145.262 5877 76.6616
145.378 6386 79.9125
145.494 6996 83.6421
145.61 7452 86.325
145.726 7829 88.4816
145.842 8079 89.8833
145.959 8480 92.0869
146.075 8840 94.0213
146.192 9200 95.9166
146.308 9297 96.421
146.425 9443 97.1751
146.541 9415 97.0309
146.658 9082 95.2995
146.774 8398 91.6406
146.891 7123 84.3979
147.008 6862 82.8372
147.125 8319 91.2086
147.241 9710 98.5393
147.358 10357 101.769
147.475 10378 101.872
147.592 10493 102.435
147.709 10594 102.927
147.826 10803 103.937
147.943 10493 102.435
148.06 10348 101.725
148.177 10326 101.617
148.294 10184 100.916
148.411 10319 101.582
148.528 10682 103.354
148.645 11130 105.499
148.762 11079 105.257
148.88 11564 107.536
148.997 11883 109.009
149.114 11744 108.37
149.231 11617 107.782
149.349 12454 111.597
149.466 12559 112.067
149.583 12958 113.833
149.701 13109 114.495
149.818 13306 115.352
149.935 13416 115.827
150.053 13393 115.728
150.17 13689 117
150.287 12854 113.375
150.405 10038 100.19
150.522 7862 88.6679
150.64 9448 97.2008
150.757 11987 109.485
150.875 13588 116.568
150.992 14132 118.878
151.11 14268 119.449
151.227 14346 119.775
151.344 14443 120.179
151.462 14439 120.162
151.579 14073 118.63
151.697 13955 118.131
151.814 13717 117.12
151.932 13635 116.769
152.049 13794 117.448
152.167 13567 116.477
152.284 13375 115.65
152.402 13372 115.637
152.519 13249 115.104
152.636 12606 112.276
152.754 12420 111.445
152.871 12015 109.613
152.989 11841 108.816
153.106 11543 107.438
153.223 11125 105.475
153.341 10628 103.092
153.458 9928 99.6393
153.575 9242 96.1353
153.693 8743 93.504
153.81 8360 91.433
153.927 7595 87.1493
154.044 6472 80.4487
154.162 5890 76.7463
154.279 5907 76.857
154.396 6504 80.6474
154.513 6680 81.7313
154.63 6758 82.2071
154.747 6665 81.6395
154.864 6748 82.1462
154.981 6419 80.1187
155.098 6282 79.2591
155.215 6239 78.9873
155.332 6032 77.666
155.449 5988 77.3822
155.566 6080 77.9744
155.683 6039 77.711
155.8 6180 78.613
155.917 6221 78.8733
156.033 6082 77.9872
156.15 0 1
156.267 0 1
156.383 0 1
156.5 0 1
156.617 0 1
156.733 0 1
156.85 0 1
156.966 0 1
157.082 0 1
157.199 0 1
157.315 0 1
157.431 0 1
157.547 0 1
157.664 0 1
157.78 0 1
157.896 0 1
158.012 0 1
158.128 0 1
158.244 0 1
158.359 0 1
158.475 0 1
158.591 0 1
158.706 0 1
