
6.15755 0 1
6.2731 0 1
6.3887 0 1
6.50437 0 1
6.62009 0 1
6.73587 0 1
6.8517 0 1
6.96759 0 1
7.08353 0 1
7.19952 0 1
7.31557 0 1
7.43166 0 1
7.54781 0 1
7.664 0 1
7.78024 0 1
7.89653 0 1
8.01286 0 1
8.12924 0 1
8.24567 0 1
8.36213 0 1
8.47864 0 1
8.59519 0 1
8.71178 0 1
8.82841 0 1
8.94508 0 1
9.06179 0 1
9.17853 0 1
9.29531 0 1
9.41212 0 1
9.52897 0 1
9.64584 0 1
9.76276 0 1
9.8797 0 1
9.99667 0 1
10.1137 0 1
10.2307 0 1
10.3478 0 1
10.4648 0 1
10.5819 0 1
10.6991 0 1
10.8162 0 1
10.9334 0 1
11.0506 0 1
11.1678 0 1
11.285 0 1
11.4023 0 1
11.5196 0 1
11.6369 0 1
11.7542 0 1
11.8715 0 1
11.9888 0 1
12.1062 0 1
12.2235 0 1
12.3409 0 1
12.4582 0 1
12.5756 0 1
12.693 0 1
12.8104 0 1
12.9278 0 1
13.0452 0 1
13.1626 0 1
13.28 0 1
13.3974 0 1
13.5149 0 1
13.6323 0 1
13.7497 0 1
13.8671 0 1
13.9845 0 1
14.1019 0 1
14.2193 0 1
14.3367 0 1
14.4541 0 1
14.5714 0 1
14.6888 0 1
14.8062 0 1
14.9235 0 1
15.0408 512 22.6274
15.1581 534 23.1084
15.2755 533 23.0868
15.3927 538 23.1948
15.51 544 23.3238
15.6273 533 23.0868
15.7445 544 23.3238
15.8617 533 23.0868
15.9789 510 22.5832
16.0961 550 23.4521
16.2132 546 23.3666
16.3304 546 23.3666
16.4475 553 23.516
16.5646 581 24.1039
16.6816 620 24.8998
16.7986 636 25.219
16.9156 663 25.7488
17.0326 633 25.1595
17.1496 677 26.0192
17.2665 623 24.96
17.3833 668 25.8457
17.5002 635 25.1992
17.617 627 25.04
17.7338 563 23.7276
17.8505 532 23.0651
17.9672 590 24.2899
18.0839 529 23
18.2005 564 23.7487
18.3171 569 23.8537
18.4337 613 24.7588
18.5502 579 24.0624
18.6666 634 25.1794
18.7831 606 24.6171
18.8994 613 24.7588
19.0158 622 24.9399
19.1321 583 24.1454
19.2483 554 23.5372
19.3645 507 22.5167
19.4806 533 23.0868
19.5967 459 21.4243
19.7128 453 21.2838
19.8288 400 20
19.9447 369 19.2094
20.0606 0 1
20.1764 0 1
20.2922 0 1
20.4079 0 1
20.5236 0 1
20.6392 0 1
20.7548 0 1
20.8702 0 1
23.3078 0 1
23.4233 0 1
23.539 0 1
23.6547 0 1
23.7704 0 1
23.8862 0 1
24.0021 0 1
24.118 0 1
24.234 0 1
24.35 0 1
24.4661 245 15.6525
24.5822 297 17.2337
24.6984 312 17.6635
24.8146 372 19.2873
24.9309 389 19.7231
25.0472 464 21.5407
25.1636 500 22.3607
25.28 541 23.2594
25.3965 529 23
25.513 595 24.3926
25.6296 627 25.04
25.7462 656 25.6125
25.8628 694 26.3439
25.9795 703 26.5141
26.0962 693 26.3249
26.213 609 24.6779
26.3298 648 25.4558
26.4466 545 23.3452
26.5635 582 24.1247
26.6804 543 23.3024
26.7973 577 24.0208
26.9143 575 23.9792
27.0313 600 24.4949
27.1483 659 25.671
27.2653 595 24.3926
27.3824 599 24.4745
27.4996 670 25.8844
27.6167 673 25.9422
27.7339 680 26.0768
27.8511 590 24.2899
27.9683 615 24.7992
28.0855 558 23.622
28.2028 568 23.8328
28.3201 562 23.7065
28.4374 513 22.6495
28.5547 552 23.4947
28.6721 566 23.7908
28.7894 568 23.8328
28.9068 582 24.1247
29.0242 686 26.1916
29.1416 651 25.5147
29.259 652 25.5343
29.3764 645 25.3969
29.4939 662 25.7294
29.6113 617 24.8395
29.7288 607 24.6374
29.8463 588 24.2487
29.9638 525 22.9129
30.0812 597 24.4336
30.1987 546 23.3666
30.3162 580 24.0832
30.4337 554 23.5372
30.5512 599 24.4745
30.6687 601 24.5153
30.7862 590 24.2899
30.9037 587 24.2281
31.0212 602 24.5357
31.1387 627 25.04
31.2562 621 24.9199
31.3737 567 23.8118
31.4912 629 25.0799
31.6087 625 25
31.7262 521 22.8254
31.8436 584 24.1661
31.9611 544 23.3238
32.0785 556 23.5797
32.1959 548 23.4094
32.3134 558 23.622
32.4308 605 24.5967
32.5482 609 24.6779
32.6655 667 25.8263
32.7829 636 25.219
32.9002 602 24.5357
33.0176 646 25.4165
33.1349 614 24.779
33.2522 604 24.5764
33.3694 569 23.8537
33.4867 537 23.1733
33.6039 559 23.6432
33.7211 541 23.2594
33.8383 543 23.3024
33.9554 542 23.2809
34.0725 554 23.5372
34.1896 573 23.9374
34.3067 620 24.8998
34.4237 625 25
34.5407 600 24.4949
34.6577 598 24.454
34.7746 594 24.3721
34.8915 565 23.7697
35.0084 575 23.9792
35.1252 547 23.388
35.242 503 22.4277
35.3587 526 22.9347
35.4755 496 22.2711
35.5921 520 22.8035
35.7088 491 22.1585
35.8254 484 22
35.9419 498 22.3159
36.0584 505 22.4722
36.1749 516 22.7156
36.2913 511 22.6053
36.4077 537 23.1733
36.524 542 23.2809
36.6403 534 23.1084
36.7565 524 22.891
36.8727 469 21.6564
36.9889 442 21.0238
37.1049 430 20.7364
37.221 0 1
37.3369 0 1
37.4529 0 1
37.5687 0 1
37.6845 0 1
37.8003 0 1
37.916 0 1
38.0316 0 1
38.1472 0 1
40.5851 0 1
40.7008 0 1
40.8164 0 1
40.9322 0 1
41.048 0 1
41.1639 0 1
41.2798 0 1
41.3958 0 1
41.5118 0 1
41.6279 0 1
41.744 289 17
41.8602 325 18.0278
41.9765 341 18.4662
42.0928 362 19.0263
42.2091 349 18.6815
42.3255 359 18.9473
42.4419 361 19
42.5584 332 18.2209
42.675 368 19.1833
42.7915 425 20.6155
42.9081 458 21.4009
43.0248 459 21.4243
43.1415 488 22.0907
43.2582 472 21.7256
43.375 510 22.5832
43.4918 494 22.2261
43.6087 446 21.1187
43.7256 448 21.166
43.8425 451 21.2368
43.9595 500 22.3607
44.0765 469 21.6564
44.1935 478 21.8632
44.3106 435 20.8567
44.4277 444 21.0713
44.5448 405 20.1246
44.6619 444 21.0713
44.7791 428 20.6882
44.8963 445 21.095
45.0136 439 20.9523
45.1308 482 21.9545
45.2481 472 21.7256
45.3654 532 23.0651
45.4827 490 22.1359
45.6001 528 22.9783
45.7174 509 22.561
45.8348 474 21.7715
45.9522 423 20.567
46.0697 417 20.4206
46.1871 391 19.7737
46.3046 411 20.2731
46.422 448 21.166
46.5395 463 21.5174
46.657 458 21.4009
46.7745 494 22.2261
46.892 517 22.7376
47.0096 536 23.1517
47.1271 502 22.4054
47.2446 537 23.1733
47.3622 504 22.4499
47.4797 498 22.3159
47.5973 490 22.1359
47.7149 465 21.5639
47.8324 455 21.3307
47.95 452 21.2603
48.0675 432 20.7846
48.1851 415 20.3715
48.3027 438 20.9284
48.4202 476 21.8174
48.5378 493 22.2036
48.6554 522 22.8473
48.7729 502 22.4054
48.8904 536 23.1517
49.008 515 22.6936
49.1255 529 23
49.243 469 21.6564
49.3605 458 21.4009
49.478 481 21.9317
49.5955 394 19.8494
49.713 418 20.445
49.8304 427 20.664
49.9479 495 22.2486
50.0653 503 22.4277
50.1827 451 21.2368
50.3001 516 22.7156
50.4175 506 22.4944
50.5348 527 22.9565
50.6521 535 23.1301
50.7694 557 23.6008
50.8867 586 24.2074
51.004 558 23.622
51.1212 561 23.6854
51.2384 591 24.3105
51.3556 590 24.2899
51.4727 482 21.9545
51.5899 530 23.0217
51.707 525 22.9129
51.824 555 23.5584
51.9411 553 23.516
52.0581 645 25.3969
52.175 742 27.2397
52.2919 713 26.7021
52.4088 769 27.7308
52.5257 804 28.3549
52.6425 805 28.3725
52.7593 815 28.5482
52.876 812 28.4956
52.9927 712 26.6833
53.1094 722 26.8701
53.226 623 24.96
53.3426 619 24.8797
53.4591 654 25.5734
53.5756 626 25.02
53.692 580 24.0832
53.8084 607 24.6374
53.9248 582 24.1247
54.0411 577 24.0208
54.1573 549 23.4307
54.2735 0 1
54.3896 0 1
54.5057 0 1
54.6217 0 1
54.7377 0 1
54.8537 0 1
54.9695 0 1
55.0853 0 1
55.2011 0 1
55.3168 0 1
55.4324 0 1
57.824 0 1
57.9396 0 1
58.0553 0 1
58.1711 0 1
58.2869 0 1
58.4028 0 1
58.5187 0 1
58.6347 0 1
58.7508 0 1
58.8669 0 1
58.983 350 18.7083
59.0992 379 19.4679
59.2155 486 22.0454
59.3318 510 22.5832
59.4482 541 23.2594
59.5646 531 23.0434
59.681 532 23.0651
59.7975 584 24.1661
59.9141 549 23.4307
60.0306 549 23.4307
60.1473 531 23.0434
60.2639 516 22.7156
60.3807 584 24.1661
60.4974 546 23.3666
60.6142 552 23.4947
60.731 586 24.2074
60.8479 570 23.8747
60.9648 663 25.7488
61.0818 635 25.1992
61.1987 646 25.4165
61.3158 676 26
61.4328 626 25.02
61.5499 585 24.1868
61.667 523 22.8692
61.7841 511 22.6053
61.9013 479 21.8861
62.0185 491 22.1585
62.1357 540 23.2379
62.253 569 23.8537
62.3702 613 24.7588
62.4875 626 25.02
62.6049 625 25
62.7222 639 25.2784
62.8396 612 24.7386
62.9569 647 25.4362
63.0743 567 23.8118
63.1918 651 25.5147
63.3092 650 25.4951
63.4267 583 24.1454
63.5441 600 24.4949
63.6616 500 22.3607
63.7791 499 22.3383
63.8966 549 23.4307
64.0142 500 22.3607
64.1317 528 22.9783
64.2492 573 23.9374
64.3668 585 24.1868
64.4843 663 25.7488
64.6019 639 25.2784
64.7195 636 25.219
64.837 622 24.9399
64.9546 584 24.1661
65.0722 573 23.9374
65.1898 549 23.4307
65.3074 494 22.2261
65.4249 474 21.7715
65.5425 430 20.7364
65.6601 471 21.7025
65.7777 521 22.8254
65.8952 580 24.0832
66.0128 589 24.2693
66.1304 595 24.3926
66.2479 595 24.3926
66.3655 593 24.3516
66.483 626 25.02
66.6005 618 24.8596
66.718 596 24.4131
66.8355 608 24.6577
66.953 622 24.9399
67.0705 607 24.6374
67.1879 519 22.7816
67.3054 511 22.6053
67.4228 537 23.1733
67.5402 484 22
67.6576 445 21.095
67.7749 506 22.4944
67.8923 553 23.516
68.0096 641 25.318
68.1269 648 25.4558
68.2442 629 25.0799
68.3614 589 24.2693
68.4787 642 25.3377
68.5958 595 24.3926
68.713 578 24.0416
68.8302 537 23.1733
68.9473 541 23.2594
69.0643 484 22
69.1814 459 21.4243
69.2984 464 21.5407
69.4154 507 22.5167
69.5323 504 22.4499
69.6492 530 23.0217
69.7661 631 25.1197
69.8829 617 24.8395
69.9997 583 24.1454
70.1165 559 23.6432
70.2332 552 23.4947
70.3499 558 23.622
70.4665 511 22.6053
70.5831 481 21.9317
70.6996 464 21.5407
70.8161 446 21.1187
70.9326 395 19.8746
71.049 344 18.5472
71.1653 255 15.9687
71.2817 243 15.5885
71.3979 236 15.3623
71.5141 205 14.3178
71.6303 193 13.8924
71.7464 180 13.4164
71.8624 0 1
71.9784 0 1
72.0944 0 1
72.2102 0 1
72.3261 0 1
72.4418 0 1
72.5575 0 1
72.6732 0 1
75.1054 0 1
75.2209 0 1
75.3365 0 1
75.4521 0 1
75.5678 0 1
75.6835 0 1
75.7993 0 1
75.9151 0 1
76.031 0 1
76.147 351 18.735
76.263 414 20.347
76.3791 392 19.799
76.4952 400 20
76.6113 398 19.9499
76.7276 384 19.5959
76.8438 442 21.0238
76.9601 473 21.7486
77.0765 495 22.2486
77.1929 480 21.9089
77.3093 501 22.383
77.4258 507 22.5167
77.5423 529 23
77.6589 503 22.4277
77.7755 482 21.9545
77.8921 443 21.0476
78.0088 402 20.0499
78.1256 358 18.9209
78.2423 370 19.2354
78.3591 371 19.2614
78.4759 449 21.1896
78.5928 462 21.4942
78.7097 494 22.2261
78.8266 524 22.891
78.9436 503 22.4277
79.0606 523 22.8692
79.1776 513 22.6495
79.2946 510 22.5832
79.4117 585 24.1868
79.5288 547 23.388
79.6459 560 23.6643
79.7631 522 22.8473
79.8802 478 21.8632
79.9974 467 21.6102
80.1147 427 20.664
80.2319 383 19.5704
80.3491 416 20.3961
80.4664 466 21.587
80.5837 475 21.7945
80.701 512 22.6274
80.8183 552 23.4947
80.9357 557 23.6008
81.053 535 23.1301
81.1704 524 22.891
81.2877 561 23.6854
81.4051 551 23.4734
81.5225 486 22.0454
81.6399 475 21.7945
81.7573 420 20.4939
81.8747 405 20.1246
81.9922 377 19.4165
82.1096 457 21.3776
82.227 470 21.6795
82.3444 493 22.2036
82.4619 540 23.2379
82.5793 579 24.0624
82.6967 533 23.0868
82.8142 537 23.1733
82.9316 568 23.8328
83.049 523 22.8692
83.1664 533 23.0868
83.2838 536 23.1517
83.4012 525 22.9129
83.5186 533 23.0868
83.636 482 21.9545
83.7534 465 21.5639
83.8708 438 20.9284
83.9881 393 19.8242
84.1055 480 21.9089
84.2228 435 20.8567
84.3401 507 22.5167
84.4575 513 22.6495
84.5747 604 24.5764
84.692 579 24.0624
84.8093 567 23.8118
84.9265 549 23.4307
85.0437 559 23.6432
85.1609 486 22.0454
85.2781 453 21.2838
85.3952 387 19.6723
85.5123 366 19.1311
85.6294 402 20.0499
85.7465 480 21.9089
85.8636 526 22.9347
85.9806 473 21.7486
86.0976 543 23.3024
86.2145 535 23.1301
86.3315 533 23.0868
86.4484 536 23.1517
86.5652 558 23.622
86.682 543 23.3024
86.7988 530 23.0217
86.9156 538 23.1948
87.0323 523 22.8692
87.149 515 22.6936
87.2657 450 21.2132
87.3823 470 21.6795
87.4988 373 19.3132
87.6154 380 19.4936
87.7318 366 19.1311
87.8483 405 20.1246
87.9647 404 20.0998
88.081 440 20.9762
88.1973 427 20.664
88.3136 416 20.3961
88.4298 426 20.6398
88.546 353 18.7883
88.6621 330 18.1659
88.7781 272 16.4924
88.8942 0 1
89.0101 0 1
89.126 0 1
89.2419 0 1
89.3577 0 1
89.4734 0 1
89.5891 0 1
89.7047 0 1
89.8203 0 1
89.9358 0 1
92.3269 0 1
92.4424 0 1
92.558 0 1
92.6736 0 1
92.7893 0 1
92.905 0 1
93.0208 0 1
93.1366 0 1
93.2525 0 1
93.3685 0 1
93.4845 0 1
93.6005 432 20.7846
93.7167 440 20.9762
93.8328 492 22.1811
93.949 448 21.166
94.0653 455 21.3307
94.1816 498 22.3159
94.2979 454 21.3073
94.4143 444 21.0713
94.5307 450 21.2132
94.6472 398 19.9499
94.7637 413 20.3224
94.8803 429 20.7123
94.9969 496 22.2711
95.1135 449 21.1896
95.2302 551 23.4734
95.3469 578 24.0416
95.4637 543 23.3024
95.5805 546 23.3666
95.6973 547 23.388
95.8142 540 23.2379
95.9311 566 23.7908
96.048 582 24.1247
96.1649 561 23.6854
96.2819 541 23.2594
96.3989 559 23.6432
96.516 525 22.9129
96.633 430 20.7364
96.7501 452 21.2603
96.8673 446 21.1187
96.9844 433 20.8087
97.1016 474 21.7715
97.2188 534 23.1084
97.336 556 23.5797
97.4532 548 23.4094
97.5704 558 23.622
97.6877 569 23.8537
97.805 572 23.9165
97.9223 516 22.7156
98.0396 515 22.6936
98.1569 417 20.4206
98.2743 428 20.6882
98.3916 440 20.9762
98.509 467 21.6102
98.6264 469 21.6564
98.7438 548 23.4094
98.8612 533 23.0868
98.9786 541 23.2594
99.096 647 25.4362
99.2134 594 24.3721
99.3308 624 24.98
99.4482 592 24.3311
99.5656 616 24.8193
99.6831 643 25.3574
99.8005 593 24.3516
99.9179 584 24.1661
100.035 544 23.3238
100.153 522 22.8473
100.27 526 22.9347
100.388 492 22.1811
100.505 480 21.9089
100.622 512 22.6274
100.74 599 24.4745
100.857 577 24.0208
100.975 606 24.6171
101.092 587 24.2281
101.209 597 24.4336
101.327 669 25.865
101.444 584 24.1661
101.561 558 23.622
101.679 462 21.4942
101.796 422 20.5426
101.913 451 21.2368
102.03 484 22
102.148 516 22.7156
102.265 541 23.2594
102.382 618 24.8596
102.499 606 24.6171
102.616 589 24.2693
102.733 650 25.4951
102.851 611 24.7184
102.968 656 25.6125
103.085 656 25.6125
103.202 591 24.3105
103.319 593 24.3516
103.436 621 24.9199
103.552 618 24.8596
103.669 586 24.2074
103.786 502 22.4054
103.903 532 23.0651
104.02 529 23
104.137 569 23.8537
104.253 610 24.6982
104.37 625 25
104.487 625 25
104.603 645 25.3969
104.72 668 25.8457
104.836 638 25.2587
104.953 577 24.0208
105.069 535 23.1301
105.186 433 20.8087
105.302 415 20.3715
105.418 450 21.2132
105.535 393 19.8242
105.651 381 19.5192
105.767 423 20.567
105.883 409 20.2237
105.999 398 19.9499
106.115 0 1
106.231 0 1
106.347 0 1
106.463 0 1
106.579 0 1
106.694 0 1
106.81 0 1
106.926 0 1
107.041 0 1
107.157 0 1
109.576 0 1
109.692 0 1
109.807 0 1
109.923 0 1
110.039 0 1
110.155 0 1
110.27 0 1
110.386 0 1
110.502 0 1
110.618 229 15.1327
110.735 338 18.3848
110.851 415 20.3715
110.967 456 21.3542
111.083 505 22.4722
111.199 554 23.5372
111.316 571 23.8956
111.432 566 23.7908
111.549 583 24.1454
111.665 602 24.5357
111.782 647 25.4362
111.898 569 23.8537
112.015 552 23.4947
112.132 582 24.1247
112.248 517 22.7376
112.365 492 22.1811
112.482 512 22.6274
112.599 534 23.1084
112.716 587 24.2281
112.832 608 24.6577
112.949 647 25.4362
113.066 621 24.9199
113.183 677 26.0192
113.3 646 25.4165
113.417 608 24.6577
113.534 623 24.96
113.652 569 23.8537
113.769 510 22.5832
113.886 475 21.7945
114.003 465 21.5639
114.12 494 22.2261
114.238 565 23.7697
114.355 577 24.0208
114.472 552 23.4947
114.589 700 26.4575
114.707 645 25.3969
114.824 655 25.593
114.942 678 26.0384
115.059 684 26.1534
115.176 646 25.4165
115.294 645 25.3969
115.411 636 25.219
115.529 593 24.3516
115.646 612 24.7386
115.764 595 24.3926
115.881 546 23.3666
115.999 527 22.9565
116.116 551 23.4734
116.234 569 23.8537
116.351 571 23.8956
116.469 588 24.2487
116.586 606 24.6171
116.704 622 24.9399
116.821 693 26.3249
116.939 583 24.1454
117.056 597 24.4336
117.174 578 24.0416
117.291 504 22.4499
117.409 475 21.7945
117.526 430 20.7364
117.644 439 20.9523
117.761 454 21.3073
117.879 485 22.0227
117.996 521 22.8254
118.114 562 23.7065
118.231 569 23.8537
118.349 575 23.9792
118.466 535 23.1301
118.584 591 24.3105
118.701 546 23.3666
118.819 562 23.7065
118.936 566 23.7908
119.053 561 23.6854
119.171 514 22.6716
119.288 531 23.0434
119.405 523 22.8692
119.523 465 21.5639
119.64 455 21.3307
119.757 441 21
119.875 469 21.6564
119.992 506 22.4944
120.109 548 23.4094
120.226 556 23.5797
120.343 519 22.7816
120.46 573 23.9374
120.578 564 23.7487
120.695 501 22.383
120.812 529 23
120.929 487 22.0681
121.046 427 20.664
121.163 367 19.1572
121.279 387 19.6723
121.396 414 20.347
121.513 378 19.4422
121.63 437 20.9045
121.747 437 20.9045
121.863 406 20.1494
121.98 431 20.7605
122.097 439 20.9523
122.213 429 20.7123
122.33 421 20.5183
122.446 390 19.7484
122.563 401 20.025
122.679 369 19.2094
122.795 348 18.6548
122.912 313 17.6918
123.028 285 16.8819
123.144 254 15.9374
123.26 211 14.5258
123.377 0 1
123.493 0 1
123.609 0 1
123.725 0 1
123.84 0 1
123.956 0 1
124.072 0 1
124.188 0 1
124.303 0 1
124.419 0 1
126.852 0 1
126.968 0 1
127.083 0 1
127.199 0 1
127.315 0 1
127.431 0 1
127.547 0 1
127.663 0 1
127.779 0 1
127.895 0 1
128.011 0 1
128.127 0 1
128.243 0 1
128.359 530 23.0217
128.476 496 22.2711
128.592 551 23.4734
128.708 560 23.6643
128.825 479 21.8861
128.941 571 23.8956
129.058 579 24.0624
129.174 642 25.3377
129.291 587 24.2281
129.408 640 25.2982
129.524 585 24.1868
129.641 579 24.0624
129.758 578 24.0416
129.875 542 23.2809
129.992 502 22.4054
130.108 485 22.0227
130.225 440 20.9762
130.342 475 21.7945
130.459 494 22.2261
130.576 471 21.7025
130.693 571 23.8956
130.81 525 22.9129
130.928 606 24.6171
131.045 574 23.9583
131.162 589 24.2693
131.279 642 25.3377
131.396 603 24.5561
131.513 627 25.04
131.631 591 24.3105
131.748 625 25
131.865 577 24.0208
131.983 563 23.7276
132.1 580 24.0832
132.217 523 22.8692
132.335 556 23.5797
132.452 568 23.8328
132.57 627 25.04
132.687 597 24.4336
132.804 633 25.1595
132.922 632 25.1396
133.039 622 24.9399
133.157 611 24.7184
133.274 632 25.1396
133.392 595 24.3926
133.509 529 23
133.627 532 23.0651
133.744 486 22.0454
133.862 467 21.6102
133.979 457 21.3776
134.097 525 22.9129
134.214 564 23.7487
134.332 524 22.891
134.449 545 23.3452
134.567 576 24
134.684 575 23.9792
134.802 611 24.7184
134.919 596 24.4131
135.037 617 24.8395
135.154 607 24.6374
135.272 599 24.4745
135.389 579 24.0624
135.507 562 23.7065
135.624 563 23.7276
135.742 503 22.4277
135.859 530 23.0217
135.977 545 23.3452
136.094 568 23.8328
136.211 597 24.4336
136.329 607 24.6374
136.446 671 25.9037
136.564 613 24.7588
136.681 646 25.4165
136.798 612 24.7386
136.915 599 24.4745
137.033 619 24.8797
137.15 552 23.4947
137.267 529 23
137.384 470 21.6795
137.502 523 22.8692
137.619 460 21.4476
137.736 481 21.9317
137.853 488 22.0907
137.97 589 24.2693
138.087 580 24.0832
138.204 565 23.7697
138.321 584 24.1661
138.438 592 24.3311
138.555 616 24.8193
138.672 598 24.454
138.788 598 24.454
138.905 528 22.9783
139.022 511 22.6053
139.139 494 22.2261
139.255 472 21.7256
139.372 487 22.0681
139.488 431 20.7605
139.605 406 20.1494
139.721 424 20.5913
139.838 422 20.5426
139.954 432 20.7846
140.071 400 20
140.187 388 19.6977
140.303 366 19.1311
140.419 369 19.2094
140.535 315 17.7482
140.652 267 16.3401
140.768 0 1
140.884 0 1
141 0 1
141.115 0 1
141.231 0 1
141.347 0 1
141.463 0 1
141.578 0 1
141.694 0 1
144.104 0 1
144.219 0 1
144.335 0 1
144.45 0 1
144.566 0 1
144.682 0 1
144.798 0 1
144.914 0 1
145.03 0 1
145.146 483 21.9773
145.262 444 21.0713
145.378 444 21.0713
145.494 479 21.8861
145.61 510 22.5832
145.726 473 21.7486
145.842 504 22.4499
145.959 429 20.7123
146.075 421 20.5183
146.192 363 19.0526
146.308 395 19.8746
146.425 406 20.1494
146.541 378 19.4422
146.658 432 20.7846
146.774 437 20.9045
146.891 481 21.9317
147.008 485 22.0227
147.125 469 21.6564
147.241 492 22.1811
147.358 496 22.2711
147.475 454 21.3073
147.592 508 22.5389
147.709 488 22.0907
147.826 448 21.166
147.943 448 21.166
148.06 435 20.8567
148.177 416 20.3961
148.294 423 20.567
148.411 389 19.7231
148.528 470 21.6795
148.645 436 20.8806
148.762 478 21.8632
148.88 507 22.5167
148.997 504 22.4499
149.114 510 22.5832
149.231 494 22.2261
149.349 518 22.7596
149.466 425 20.6155
149.583 431 20.7605
149.701 426 20.6398
149.818 379 19.4679
149.935 393 19.8242
150.053 383 19.5704
150.17 399 19.975
150.287 403 20.0749
150.405 478 21.8632
150.522 402 20.0499
150.64 489 22.1133
150.757 477 21.8403
150.875 470 21.6795
150.992 457 21.3776
151.11 472 21.7256
151.227 433 20.8087
151.344 436 20.8806
151.462 430 20.7364
151.579 432 20.7846
151.697 407 20.1742
151.814 391 19.7737
151.932 413 20.3224
152.049 445 21.095
152.167 413 20.3224
152.284 457 21.3776
152.402 429 20.7123
152.519 422 20.5426
152.636 428 20.6882
152.754 441 21
152.871 424 20.5913
152.989 421 20.5183
153.106 438 20.9284
153.223 406 20.1494
153.341 386 19.6469
153.458 370 19.2354
153.575 350 18.7083
153.693 399 19.975
153.81 367 19.1572
153.927 420 20.4939
154.044 392 19.799
154.162 409 20.2237
154.279 395 19.8746
154.396 402 20.0499
154.513 370 19.2354
154.63 424 20.5913
154.747 462 21.4942
154.864 441 21
154.981 415 20.3715
155.098 421 20.5183
155.215 395 19.8746
155.332 390 19.7484
155.449 382 19.5448
155.566 372 19.2873
155.683 364 19.0788
155.8 386 19.6469
155.917 368 19.1833
156.033 358 18.9209
156.15 0 1
156.267 0 1
156.383 0 1
156.5 0 1
156.617 0 1
156.733 0 1
156.85 0 1
156.966 0 1
157.082 0 1
157.199 0 1
157.315 0 1
157.431 0 1
157.547 0 1
157.664 0 1
157.78 0 1
157.896 0 1
158.012 0 1
158.128 0 1
158.244 0 1
158.359 0 1
158.475 0 1
158.591 0 1
158.706 0 1
