
6.15755 0 1
6.2731 0 1
6.3887 0 1
6.50437 0 1
6.62009 0 1
6.73587 0 1
6.8517 0 1
6.96759 0 1
7.08353 0 1
7.19952 0 1
7.31557 0 1
7.43166 0 1
7.54781 0 1
7.664 0 1
7.78024 0 1
7.89653 0 1
8.01286 0 1
8.12924 0 1
8.24567 0 1
8.36213 0 1
8.47864 0 1
8.59519 0 1
8.71178 0 1
8.82841 0 1
8.94508 0 1
9.06179 0 1
9.17853 0 1
9.29531 0 1
9.41212 0 1
9.52897 0 1
9.64584 0 1
9.76276 0 1
9.8797 0 1
9.99667 0 1
10.1137 0 1
10.2307 0 1
10.3478 0 1
10.4648 0 1
10.5819 0 1
10.6991 0 1
10.8162 0 1
10.9334 0 1
11.0506 0 1
11.1678 0 1
11.285 0 1
11.4023 0 1
11.5196 0 1
11.6369 0 1
11.7542 0 1
11.8715 0 1
11.9888 0 1
12.1062 0 1
12.2235 0 1
12.3409 0 1
12.4582 0 1
12.5756 0 1
12.693 0 1
12.8104 0 1
12.9278 0 1
13.0452 0 1
13.1626 0 1
13.28 0 1
13.3974 0 1
13.5149 0 1
13.6323 0 1
13.7497 0 1
13.8671 0 1
13.9845 0 1
14.1019 0 1
14.2193 0 1
14.3367 0 1
14.4541 0 1
14.5714 0 1
14.6888 0 1
14.8062 0 1
14.9235 0 1
15.0408 115532 339.9
15.1581 121329 348.323
15.2755 124009 352.149
15.3927 124985 353.532
15.51 124944 353.474
15.6273 123975 352.101
15.7445 123628 351.608
15.8617 124389 352.688
15.9789 124197 352.416
16.0961 127493 357.062
16.2132 128237 358.102
16.3304 132856 364.494
16.4475 136746 369.792
16.5646 141670 376.391
16.6816 145540 381.497
16.7986 149575 386.749
16.9156 153638 391.967
17.0326 157885 397.347
17.1496 160718 400.896
17.2665 164623 405.738
17.3833 166136 407.598
17.5002 168295 410.238
17.617 169741 411.996
17.7338 171191 413.752
17.8505 172019 414.752
17.9672 170101 412.433
18.0839 162391 402.978
18.2005 156673 395.819
18.3171 157244 396.54
18.4337 163010 403.745
18.5502 169019 411.119
18.6666 173381 416.39
18.7831 176566 420.198
18.8994 176028 419.557
19.0158 172652 415.514
19.1321 169896 412.184
19.2483 166201 407.678
19.3645 163283 404.083
19.4806 160301 400.376
19.5967 157384 396.717
19.7128 155364 394.162
19.8288 151189 388.83
19.9447 139700 373.765
20.0606 0 1
20.1764 0 1
20.2922 0 1
20.4079 0 1
20.5236 0 1
20.6392 0 1
20.7548 0 1
20.8702 0 1
23.3078 0 1
23.4233 0 1
23.539 0 1
23.6547 0 1
23.7704 0 1
23.8862 0 1
24.0021 0 1
24.118 0 1
24.234 0 1
24.35 0 1
24.4661 157811 397.254
24.5822 158381 397.971
24.6984 158556 398.191
24.8146 156244 395.277
24.9309 155977 394.939
25.0472 155080 393.802
25.1636 155297 394.077
25.28 159050 398.811
25.3965 162338 402.912
25.513 168552 410.551
25.6296 174527 417.764
25.7462 179201 423.321
25.8628 182430 427.118
25.9795 183614 428.502
26.0962 186686 432.072
26.213 186468 431.819
26.3298 186972 432.403
26.4466 184720 429.791
26.5635 182101 426.733
26.6804 176371 419.965
26.7973 167210 408.913
26.9143 163708 404.608
27.0313 169628 411.859
27.1483 177659 421.496
27.2653 180986 425.424
27.3824 181820 426.404
27.4996 180749 425.146
27.6167 177001 420.715
27.7339 174415 417.63
27.8511 170490 412.904
27.9683 167805 409.64
28.0855 164676 405.803
28.2028 163356 404.173
28.3201 159225 399.03
28.4374 159133 398.915
28.5547 157009 396.244
28.6721 155915 394.861
28.7894 156257 395.294
28.9068 157318 396.633
29.0242 160844 401.054
29.1416 165159 406.398
29.259 168321 410.269
29.3764 172526 415.362
29.4939 176766 420.435
29.6113 179077 423.175
29.7288 180385 424.718
29.8463 181263 425.75
29.9638 180254 424.563
30.0812 177622 421.452
30.1987 170816 413.299
30.3162 160844 401.054
30.4337 152925 391.056
30.5512 156044 395.024
30.6687 162246 402.798
30.7862 170857 413.349
30.9037 171962 414.683
31.0212 174443 417.664
31.1387 173316 416.312
31.2562 171263 413.839
31.3737 168668 410.692
31.4912 165318 406.593
31.6087 162741 403.412
31.7262 160156 400.195
31.8436 157765 397.196
31.9611 156109 395.106
32.0785 153420 391.689
32.1959 152137 390.047
32.3134 151464 389.184
32.4308 151613 389.375
32.5482 155252 394.02
32.6655 159019 398.772
32.7829 163053 403.798
32.9002 166636 408.211
33.0176 169515 411.722
33.1349 173718 416.795
33.2522 177751 421.605
33.3694 173278 416.267
33.4867 175263 418.644
33.6039 174910 418.222
33.7211 173903 417.017
33.8383 168383 410.345
33.9554 158089 397.604
34.0725 148166 384.923
34.1896 145832 381.88
34.3067 150328 387.722
34.4237 157326 396.643
34.5407 162367 402.948
34.6577 165213 406.464
34.7746 165474 406.785
34.8915 164917 406.1
35.0084 162498 403.11
35.1252 159953 399.941
35.242 157810 397.253
35.3587 154601 393.193
35.4755 153223 391.437
35.5921 151606 389.366
35.7088 148596 385.482
35.8254 147121 383.564
35.9419 145958 382.045
36.0584 143621 378.974
36.1749 144350 379.934
36.2913 146652 382.952
36.4077 149996 387.293
36.524 153968 392.388
36.6403 156798 395.977
36.7565 160949 401.184
36.8727 164043 405.022
36.9889 164605 405.715
37.1049 163468 404.312
37.221 0 1
37.3369 0 1
37.4529 0 1
37.5687 0 1
37.6845 0 1
37.8003 0 1
37.916 0 1
38.0316 0 1
38.1472 0 1
40.5851 0 1
40.7008 0 1
40.8164 0 1
40.9322 0 1
41.048 0 1
41.1639 0 1
41.2798 0 1
41.3958 0 1
41.5118 0 1
41.6279 0 1
41.744 118712 344.546
41.8602 129645 360.062
41.9765 135547 368.167
42.0928 139103 372.965
42.2091 139499 373.496
42.3255 140387 374.683
42.4419 139937 374.082
42.5584 139584 373.609
42.675 135113 367.577
42.7915 126710 355.963
42.9081 117920 343.395
43.0248 114303 338.087
43.1415 118168 343.756
43.2582 124144 352.341
43.375 128065 357.862
43.4918 129831 360.321
43.6087 131249 362.283
43.7256 130123 360.726
43.8425 128211 358.066
43.9595 125216 353.859
44.0765 123225 351.034
44.1935 120581 347.248
44.3106 117635 342.98
44.4277 114486 338.358
44.5448 110771 332.823
44.6619 106753 326.731
44.7791 103990 322.475
44.8963 100755 317.419
45.0136 99023 314.679
45.1308 100468 316.967
45.2481 102269 319.795
45.3654 103431 321.607
45.4827 105614 324.983
45.6001 108408 329.254
45.7174 109361 330.698
45.8348 109108 330.315
45.9522 108155 328.869
46.0697 107642 328.088
46.1871 105848 325.343
46.3046 101082 317.934
46.422 93836 306.327
46.5395 88368 297.268
46.657 87025 295
46.7745 91077 301.79
46.892 94002 306.597
47.0096 96332 310.374
47.1271 98557 313.938
47.2446 98624 314.045
47.3622 97749 312.648
47.4797 96450 310.564
47.5973 94900 308.058
47.7149 93136 305.182
47.8324 91399 302.323
47.95 89815 299.692
48.0675 87379 295.599
48.1851 85691 292.73
48.3027 83340 288.687
48.4202 80622 283.94
48.5378 79886 282.641
48.6554 80264 283.309
48.7729 82252 286.796
48.8904 84318 290.376
49.008 88227 297.03
49.1255 90790 301.314
49.243 93878 306.395
49.3605 94832 307.948
49.478 95976 309.8
49.5955 96813 311.148
49.713 94962 308.159
49.8304 90282 300.47
49.9479 84235 290.233
50.0653 80282 283.341
50.1827 80049 282.929
50.3001 84573 290.814
50.4175 90516 300.859
50.5348 93802 306.271
50.6521 99760 315.848
50.7694 101262 318.217
50.8867 103550 321.792
51.004 104700 323.574
51.1212 106020 325.607
51.2384 106536 326.399
51.3556 106793 326.792
51.4727 107193 327.403
51.5899 106536 326.399
51.707 105909 325.437
51.824 104855 323.813
51.9411 103339 321.464
52.0581 102553 320.239
52.175 104722 323.608
52.2919 108530 329.439
52.4088 112237 335.018
52.5257 117854 343.299
52.6425 123513 351.444
52.7593 126644 355.871
52.876 129235 359.493
52.9927 130321 361
53.1094 131567 362.722
53.226 132555 364.081
53.3426 132075 363.421
53.4591 126385 355.507
53.5756 117700 343.074
53.692 111305 333.624
53.8084 109465 330.855
53.9248 114671 338.631
54.0411 122750 350.357
54.1573 128122 357.941
54.2735 0 1
54.3896 0 1
54.5057 0 1
54.6217 0 1
54.7377 0 1
54.8537 0 1
54.9695 0 1
55.0853 0 1
55.2011 0 1
55.3168 0 1
55.4324 0 1
57.824 0 1
57.9396 0 1
58.0553 0 1
58.1711 0 1
58.2869 0 1
58.4028 0 1
58.5187 0 1
58.6347 0 1
58.7508 0 1
58.8669 0 1
58.983 128923 359.058
59.0992 139665 373.718
59.2155 148429 385.265
59.3318 154788 393.431
59.4482 161213 401.513
59.5646 165026 406.234
59.681 166405 407.928
59.7975 166459 407.994
59.9141 166215 407.695
60.0306 163879 404.82
60.1473 161454 401.813
60.2639 157452 396.802
60.3807 153710 392.059
60.4974 148716 385.637
60.6142 144818 380.55
60.731 140720 375.127
60.8479 138338 371.938
60.9648 139672 373.727
61.0818 143661 379.026
61.1987 147035 383.451
61.3158 152885 391.005
61.4328 158217 397.765
61.5499 161062 401.325
61.667 161478 401.843
61.7841 160407 400.508
61.9013 157483 396.841
62.0185 152511 390.527
62.1357 143084 378.264
62.253 132885 364.534
62.3702 129312 359.6
62.4875 133624 365.546
62.6049 139638 373.682
62.7222 144659 380.341
62.8396 152759 390.844
62.9569 156394 395.467
63.0743 159686 399.607
63.1918 160705 400.88
63.3092 160793 400.99
63.4267 159370 399.212
63.5441 157205 396.491
63.6616 154038 392.477
63.7791 151590 389.346
63.8966 147627 384.223
64.0142 141496 376.16
64.1317 137396 370.67
64.2492 131200 362.215
64.3668 128707 358.758
64.4843 129996 360.55
64.6019 133742 365.708
64.7195 138747 372.488
64.837 144441 380.054
64.9546 150441 387.867
65.0722 154295 392.804
65.1898 154063 392.509
65.3074 157222 396.512
65.4249 153006 391.16
65.5425 150250 387.621
65.6601 141131 375.674
65.7777 131087 362.059
65.8952 123544 351.488
66.0128 121757 348.937
66.1304 126941 356.288
66.2479 135528 368.141
66.3655 141992 376.818
66.483 148918 385.899
66.6005 152344 390.313
66.718 156206 395.229
66.8355 157313 396.627
66.953 157080 396.333
67.0705 156181 395.197
67.1879 154409 392.949
67.3054 151528 389.266
67.4228 149985 387.279
67.5402 145148 380.983
67.6576 140658 375.044
67.7749 133244 365.026
67.8923 129781 360.251
68.0096 126036 355.015
68.1269 126968 356.326
68.2442 131565 362.719
68.3614 136939 370.053
68.4787 143020 378.18
68.5958 151786 389.597
68.713 155353 394.148
68.8302 157084 396.338
68.9473 157636 397.034
69.0643 158303 397.873
69.1814 156112 395.11
69.2984 149020 386.031
69.4154 139475 373.464
69.5323 129777 360.246
69.6492 126355 355.464
69.7661 131340 362.409
69.8829 139210 373.109
69.9997 148144 384.895
70.1165 155690 394.576
70.2332 160966 401.206
70.3499 164277 405.311
70.4665 166401 407.923
70.5831 167038 408.703
70.6996 166755 408.356
70.8161 166387 407.906
70.9326 162937 403.655
71.049 160407 400.508
71.1653 155735 394.633
71.2817 151060 388.664
71.3979 143064 378.238
71.5141 134709 367.027
71.6303 125710 354.556
71.7464 116153 340.812
71.8624 0 1
71.9784 0 1
72.0944 0 1
72.2102 0 1
72.3261 0 1
72.4418 0 1
72.5575 0 1
72.6732 0 1
75.1054 0 1
75.2209 0 1
75.3365 0 1
75.4521 0 1
75.5678 0 1
75.6835 0 1
75.7993 0 1
75.9151 0 1
76.031 0 1
76.147 148515 385.376
76.263 155390 394.195
76.3791 154993 393.692
76.4952 149955 387.24
76.6113 144547 380.193
76.7276 135832 368.554
76.8438 131982 363.293
76.9601 132984 364.67
77.0765 138899 372.692
77.1929 145149 380.984
77.3093 154537 393.112
77.4258 163170 403.943
77.5423 166768 408.372
77.6589 167442 409.197
77.7755 168333 410.284
77.8921 166484 408.025
78.0088 160673 400.84
78.1256 149081 386.11
78.2423 137241 370.461
78.3591 127328 356.83
78.4759 121883 349.117
78.5928 125726 354.579
78.7097 137170 370.365
78.8266 144800 380.526
78.9436 159795 399.744
79.0606 160747 400.933
79.1776 164206 405.223
79.2946 166371 407.886
79.4117 169028 411.13
79.5288 168736 410.775
79.6459 167960 409.829
79.7631 164167 405.175
79.8802 162129 402.652
79.9974 159302 399.127
80.1147 153855 392.244
80.2319 146592 382.873
80.3491 137152 370.34
80.4664 130053 360.629
80.5837 130565 361.338
80.701 136013 368.799
80.8183 144141 379.659
80.9357 153653 391.986
81.053 160684 400.854
81.1704 166285 407.781
81.2877 166046 407.487
81.4051 165691 407.052
81.5225 166478 408.017
81.6399 160156 400.195
81.7573 154242 392.737
81.8747 139917 374.055
81.9922 129789 360.262
82.1096 123751 351.783
82.227 127705 357.358
82.3444 136570 369.554
82.4619 149042 386.06
82.5793 157605 396.995
82.6967 159297 399.12
82.8142 164299 405.338
82.9316 167082 408.757
83.049 168924 411.004
83.1664 168709 410.742
83.2838 166858 408.483
83.4012 166538 408.091
83.5186 163625 404.506
83.636 159291 399.113
83.7534 154576 393.162
83.8708 149292 386.383
83.9881 138575 372.257
84.1055 130431 361.152
84.2228 132906 364.563
84.3401 135975 368.748
84.4575 143582 378.922
84.5747 154246 392.742
84.692 163939 404.894
84.8093 169494 411.696
84.9265 172107 414.858
85.0437 171966 414.688
85.1609 169239 411.387
85.2781 161229 401.533
85.3952 147942 384.632
85.5123 137472 370.772
85.6294 130140 360.749
85.7465 127950 357.701
85.8636 135800 368.511
85.9806 147615 384.207
86.0976 158059 397.566
86.2145 165429 406.73
86.3315 170470 412.88
86.4484 174853 418.154
86.5652 178124 422.047
86.682 178556 422.559
86.7988 180203 424.503
86.9156 177947 421.838
87.0323 176937 420.639
87.149 173035 415.975
87.2657 169157 411.287
87.3823 163896 404.841
87.4988 156034 395.011
87.6154 144753 380.464
87.7318 141161 375.714
87.8483 143988 379.458
87.9647 151379 389.075
88.081 162236 402.785
88.1973 172172 414.936
88.3136 178890 422.954
88.4298 178934 423.006
88.546 179150 423.261
88.6621 176916 420.614
88.7781 170618 413.059
88.8942 0 1
89.0101 0 1
89.126 0 1
89.2419 0 1
89.3577 0 1
89.4734 0 1
89.5891 0 1
89.7047 0 1
89.8203 0 1
89.9358 0 1
92.3269 0 1
92.4424 0 1
92.558 0 1
92.6736 0 1
92.7893 0 1
92.905 0 1
93.0208 0 1
93.1366 0 1
93.2525 0 1
93.3685 0 1
93.4845 0 1
93.6005 169813 412.084
93.7167 170546 412.972
93.8328 170178 412.526
93.949 166523 408.072
94.0653 159184 398.979
94.1816 149360 386.471
94.2979 142001 376.83
94.4143 137634 370.991
94.5307 134754 367.089
94.6472 139144 373.02
94.7637 148581 385.462
94.8803 156356 395.419
94.9969 163570 404.438
95.1135 168471 410.452
95.2302 171188 413.749
95.3469 175079 418.424
95.4637 177824 421.692
95.5805 179679 423.886
95.6973 181071 425.524
95.8142 181079 425.534
95.9311 178209 422.148
96.048 174818 418.112
96.1649 171594 414.239
96.2819 166009 407.442
96.3989 158369 397.956
96.516 149864 387.123
96.633 142231 377.135
96.7501 141432 376.074
96.8673 147046 383.466
96.9844 155338 394.129
97.1016 165856 407.254
97.2188 174057 417.201
97.336 179232 423.358
97.4532 177633 421.465
97.5704 175879 419.379
97.6877 171320 413.908
97.805 162362 402.942
97.9223 150278 387.657
98.0396 141701 376.432
98.1569 136647 369.658
98.2743 135241 367.751
98.3916 139862 373.981
98.509 150401 387.816
98.6264 157289 396.597
98.7438 164287 405.323
98.8612 169061 411.17
98.9786 172359 415.161
99.096 174255 417.439
99.2134 176888 420.581
99.3308 176868 420.557
99.4482 177018 420.735
99.5656 175309 418.699
99.6831 171360 413.957
99.8005 168201 410.123
99.9179 163252 404.045
100.035 155005 393.707
100.153 145307 381.192
100.27 138475 372.122
100.388 139955 374.106
100.505 148308 385.108
100.622 159594 399.492
100.74 169187 411.323
100.857 173097 416.049
100.975 175412 418.822
101.092 174464 417.689
101.209 174847 418.147
101.327 169646 411.881
101.444 159724 399.655
101.561 149616 386.802
101.679 142124 376.993
101.796 137867 371.304
101.913 138097 371.614
102.03 145946 382.029
102.148 157595 396.982
102.265 153407 391.672
102.382 184629 429.685
102.499 177287 421.055
102.616 180381 424.713
102.733 182567 427.279
102.851 184156 429.134
102.968 188110 433.716
103.085 185981 431.255
103.202 183654 428.549
103.319 180109 424.393
103.436 176113 419.658
103.552 168411 410.379
103.669 157721 397.141
103.786 149305 386.4
103.903 150022 387.327
104.02 159285 399.105
104.137 171696 414.362
104.253 182309 426.977
104.37 186569 431.936
104.487 189917 435.795
104.603 189350 435.144
104.72 185381 430.559
104.836 179293 423.43
104.953 168130 410.037
105.069 157819 397.264
105.186 150177 387.527
105.302 146690 383.001
105.418 150370 387.776
105.535 160413 400.516
105.651 169774 412.036
105.767 176266 419.84
105.883 182091 426.721
105.999 185645 430.865
106.115 0 1
106.231 0 1
106.347 0 1
106.463 0 1
106.579 0 1
106.694 0 1
106.81 0 1
106.926 0 1
107.041 0 1
107.157 0 1
109.576 0 1
109.692 0 1
109.807 0 1
109.923 0 1
110.039 0 1
110.155 0 1
110.27 0 1
110.386 0 1
110.502 0 1
110.618 143178 378.389
110.735 153387 391.647
110.851 158250 397.806
110.967 161904 402.373
111.083 164098 405.09
111.199 167492 409.258
111.316 168999 411.095
111.432 169365 411.54
111.549 167655 409.457
111.665 163894 404.838
111.782 160729 400.91
111.898 155416 394.228
112.015 147801 384.449
112.132 136798 369.862
112.248 128498 358.466
112.365 129085 359.284
112.482 140318 374.59
112.599 144697 380.391
112.716 153293 391.526
112.832 156005 394.975
112.949 154112 392.571
113.066 154612 393.207
113.183 150509 387.955
113.3 143368 378.64
113.417 134542 366.8
113.534 126341 355.445
113.652 120108 346.566
113.769 115321 339.589
113.886 114002 337.642
114.003 119226 345.291
114.12 125772 354.643
114.238 129630 360.042
114.355 133322 365.133
114.472 137471 370.771
114.589 134243 366.392
114.707 137947 371.412
114.824 137856 371.29
114.942 137594 370.937
115.059 135648 368.304
115.176 134175 366.299
115.294 130147 360.759
115.411 125776 354.649
115.529 120409 347
115.646 111380 333.736
115.764 103280 321.372
115.881 101403 318.438
115.999 104870 323.836
116.116 111280 333.587
116.234 116838 341.816
116.351 118672 344.488
116.469 118184 343.779
116.586 117606 342.937
116.704 115808 340.306
116.821 112713 335.728
116.939 106646 326.567
117.056 100898 317.644
117.174 95454 308.956
117.291 92001 303.317
117.409 89403 299.003
117.526 91615 302.68
117.644 96328 310.368
117.761 101382 318.405
117.879 105593 324.951
117.996 106882 326.928
118.114 110063 331.757
118.231 112452 335.339
118.349 112271 335.069
118.466 113124 336.339
118.584 115014 339.137
118.701 114335 338.135
118.819 113281 336.572
118.936 111284 333.593
119.053 108909 330.014
119.171 106385 326.167
119.288 99809 315.926
119.405 95188 308.526
119.523 96119 310.031
119.64 100358 316.793
119.757 107692 328.165
119.875 113298 336.598
119.992 116403 341.179
120.109 117080 342.17
120.226 117790 343.205
120.343 117346 342.558
120.46 116267 340.979
120.578 111325 333.654
120.695 106984 327.084
120.812 102716 320.493
120.929 99509 315.45
121.046 98466 313.793
121.163 98289 313.511
121.279 103981 322.461
121.396 109925 331.549
121.513 115015 339.139
121.63 119357 345.481
121.747 123159 350.94
121.863 126045 355.028
121.98 128463 358.417
122.097 130050 360.624
122.213 131392 362.48
122.33 132063 363.405
122.446 132994 364.683
122.563 132463 363.955
122.679 130222 360.863
122.795 127821 357.521
122.912 124861 353.357
123.028 117635 342.98
123.144 112524 335.446
123.26 112085 334.791
123.377 0 1
123.493 0 1
123.609 0 1
123.725 0 1
123.84 0 1
123.956 0 1
124.072 0 1
124.188 0 1
124.303 0 1
124.419 0 1
126.852 0 1
126.968 0 1
127.083 0 1
127.199 0 1
127.315 0 1
127.431 0 1
127.547 0 1
127.663 0 1
127.779 0 1
127.895 0 1
128.011 0 1
128.127 0 1
128.243 0 1
128.359 135265 367.784
128.476 131194 362.207
128.592 135905 368.653
128.708 143851 379.277
128.825 152783 390.875
128.941 157590 396.976
129.058 158583 398.225
129.174 157710 397.127
129.291 157520 396.888
129.408 154823 393.476
129.524 146536 382.8
129.641 139365 373.316
129.758 134601 366.88
129.875 128767 358.841
129.992 124208 352.432
130.108 123340 351.198
130.225 127040 356.427
130.342 131422 362.522
130.459 134930 367.328
130.576 135965 368.734
130.693 138700 372.424
130.81 141011 375.514
130.928 141401 376.033
131.045 142611 377.639
131.162 143796 379.204
131.279 145072 380.883
131.396 143249 378.482
131.513 141647 376.36
131.631 138362 371.97
131.748 132689 364.265
131.865 125474 354.223
131.983 119876 346.231
132.1 121727 348.894
132.217 128032 357.816
132.335 134405 366.613
132.452 137829 371.253
132.57 137853 371.286
132.687 132804 364.423
132.804 140219 374.458
132.922 133750 365.718
133.039 127343 356.852
133.157 122088 349.411
133.274 116228 340.922
133.392 111720 334.245
133.509 107503 327.877
133.627 105238 324.404
133.744 106046 325.647
133.862 110188 331.946
133.979 111766 334.314
134.097 114017 337.664
134.214 116052 340.664
134.332 114869 338.923
134.449 116540 341.38
134.567 115286 339.538
134.684 116562 341.412
134.802 116024 340.623
134.919 115594 339.991
135.037 113917 337.516
135.154 110034 331.714
135.272 106228 325.926
135.389 102566 320.259
135.507 95618 309.222
135.624 94398 307.243
135.742 97298 311.926
135.859 102503 320.161
135.977 104710 323.589
136.094 105094 324.182
136.211 104142 322.71
136.329 103326 321.444
136.446 102112 319.55
136.564 98637 314.065
136.681 93820 306.301
136.798 91683 302.792
136.915 87664 296.081
137.033 84152 290.09
137.15 82977 288.057
137.267 81776 285.965
137.384 84168 290.117
137.502 86217 293.627
137.619 87947 296.559
137.736 91006 301.672
137.853 91144 301.901
137.97 93539 305.841
138.087 95791 309.501
138.204 97527 312.293
138.321 99476 315.398
138.438 101738 318.964
138.555 103034 320.989
138.672 103350 321.481
138.788 102318 319.872
138.905 100879 317.615
139.022 97821 312.763
139.139 94718 307.763
139.255 96299 310.321
139.372 101384 318.409
139.488 107941 328.544
139.605 112354 335.192
139.721 113763 337.288
139.838 115943 340.504
139.954 116317 341.053
140.071 114108 337.799
140.187 116455 341.255
140.303 110528 332.458
140.419 107458 327.808
140.535 104954 323.966
140.652 101401 318.435
140.768 0 1
140.884 0 1
141 0 1
141.115 0 1
141.231 0 1
141.347 0 1
141.463 0 1
141.578 0 1
141.694 0 1
144.104 0 1
144.219 0 1
144.335 0 1
144.45 0 1
144.566 0 1
144.682 0 1
144.798 0 1
144.914 0 1
145.03 0 1
145.146 99057 314.733
145.262 98924 314.522
145.378 95535 309.087
145.494 92170 303.595
145.61 88974 298.285
145.726 86188 293.578
145.842 83295 288.609
145.959 81894 286.171
146.075 82721 287.613
146.192 83822 289.52
146.308 84455 290.611
146.425 86367 293.883
146.541 85691 292.73
146.658 85187 291.868
146.774 85697 292.74
146.891 86209 293.614
147.008 86538 294.173
147.125 87331 295.518
147.241 86182 293.568
147.358 85775 292.874
147.475 83779 289.446
147.592 81158 284.882
147.709 77337 278.095
147.826 74481 272.912
147.943 74783 273.465
148.06 77415 278.236
148.177 80500 283.725
148.294 81979 286.32
148.411 82047 286.438
148.528 81255 285.053
148.645 80572 283.852
148.762 79085 281.221
148.88 76771 277.076
148.997 76857 277.231
149.114 68467 261.662
149.231 69463 263.558
149.349 67196 259.222
149.466 66576 258.023
149.583 64518 254.004
149.701 65596 256.117
149.818 66922 258.693
149.935 67814 260.411
150.053 68772 262.244
150.17 69640 263.894
150.287 70829 266.137
150.405 71030 266.515
150.522 72330 268.942
150.64 73251 270.649
150.757 74312 272.602
150.875 75212 274.248
150.992 74503 272.952
151.11 74576 273.086
151.227 71969 268.27
151.344 69552 263.727
151.462 68159 261.073
151.579 69965 264.509
151.697 73559 271.218
151.814 77861 279.036
151.932 79532 282.014
152.049 79819 282.523
152.167 80162 283.129
152.284 81056 284.703
152.402 80162 283.129
152.519 78105 279.473
152.636 76242 276.12
152.754 75359 274.516
152.871 73831 271.719
152.989 72307 268.9
153.106 71495 267.385
153.223 71537 267.464
153.341 72977 270.143
153.458 74618 273.163
153.575 76088 275.841
153.693 77122 277.708
153.81 78668 280.478
153.927 79339 281.672
154.044 81558 285.584
154.162 82499 287.226
154.279 84914 291.4
154.396 86839 294.685
154.513 87942 296.55
154.63 89727 299.545
154.747 88546 297.567
154.864 87455 295.728
154.981 84785 291.179
155.098 84235 290.233
155.215 86625 294.321
155.332 91218 302.023
155.449 94105 306.765
155.566 95469 308.981
155.683 96505 310.653
155.8 96934 311.342
155.917 97260 311.865
156.033 96758 311.059
156.15 0 1
156.267 0 1
156.383 0 1
156.5 0 1
156.617 0 1
156.733 0 1
156.85 0 1
156.966 0 1
157.082 0 1
157.199 0 1
157.315 0 1
157.431 0 1
157.547 0 1
157.664 0 1
157.78 0 1
157.896 0 1
158.012 0 1
158.128 0 1
158.244 0 1
158.359 0 1
158.475 0 1
158.591 0 1
158.706 0 1
