
6.15755 0 1
6.2731 0 1
6.3887 0 1
6.50437 0 1
6.62009 0 1
6.73587 0 1
6.8517 0 1
6.96759 0 1
7.08353 0 1
7.19952 0 1
7.31557 0 1
7.43166 0 1
7.54781 0 1
7.664 0 1
7.78024 0 1
7.89653 0 1
8.01286 0 1
8.12924 0 1
8.24567 0 1
8.36213 0 1
8.47864 0 1
8.59519 0 1
8.71178 0 1
8.82841 0 1
8.94508 0 1
9.06179 0 1
9.17853 0 1
9.29531 0 1
9.41212 0 1
9.52897 0 1
9.64584 0 1
9.76276 0 1
9.8797 0 1
9.99667 0 1
10.1137 0 1
10.2307 0 1
10.3478 0 1
10.4648 0 1
10.5819 0 1
10.6991 0 1
10.8162 0 1
10.9334 0 1
11.0506 0 1
11.1678 0 1
11.285 0 1
11.4023 0 1
11.5196 0 1
11.6369 0 1
11.7542 0 1
11.8715 0 1
11.9888 0 1
12.1062 0 1
12.2235 0 1
12.3409 0 1
12.4582 0 1
12.5756 0 1
12.693 0 1
12.8104 0 1
12.9278 0 1
13.0452 0 1
13.1626 0 1
13.28 0 1
13.3974 0 1
13.5149 0 1
13.6323 0 1
13.7497 0 1
13.8671 0 1
13.9845 0 1
14.1019 0 1
14.2193 0 1
14.3367 0 1
14.4541 0 1
14.5714 0 1
14.6888 0 1
14.8062 0 1
14.9235 0 1
15.0408 1832 42.8019
15.1581 1840 42.8952
15.2755 1981 44.5084
15.3927 2024 44.9889
15.51 2000 44.7214
15.6273 2007 44.7996
15.7445 2028 45.0333
15.8617 1954 44.2041
15.9789 2042 45.1885
16.0961 1989 44.5982
16.2132 1909 43.6921
16.3304 1986 44.5646
16.4475 2083 45.6399
16.5646 2229 47.2123
16.6816 2235 47.2758
16.7986 2251 47.4447
16.9156 2379 48.775
17.0326 2294 47.8957
17.1496 2372 48.7032
17.2665 2381 48.7955
17.3833 2284 47.7912
17.5002 2230 47.2229
17.617 2060 45.3872
17.7338 2130 46.1519
17.8505 2123 46.076
17.9672 1958 44.2493
18.0839 1991 44.6206
18.2005 2112 45.9565
18.3171 2238 47.3075
18.4337 2196 46.8615
18.5502 2194 46.8402
18.6666 2327 48.239
18.7831 2283 47.7807
18.8994 2297 47.927
19.0158 2341 48.3839
19.1321 2226 47.1805
19.2483 2112 45.9565
19.3645 2017 44.911
19.4806 1867 43.2088
19.5967 1823 42.6966
19.7128 1617 40.2119
19.8288 1609 40.1123
19.9447 1388 37.2559
20.0606 0 1
20.1764 0 1
20.2922 0 1
20.4079 0 1
20.5236 0 1
20.6392 0 1
20.7548 0 1
20.8702 0 1
23.3078 0 1
23.4233 0 1
23.539 0 1
23.6547 0 1
23.7704 0 1
23.8862 0 1
24.0021 0 1
24.118 0 1
24.234 0 1
24.35 0 1
24.4661 966 31.0805
24.5822 1171 34.2199
24.6984 1309 36.1801
24.8146 1417 37.6431
24.9309 1584 39.7995
25.0472 1669 40.8534
25.1636 1881 43.3705
25.28 1964 44.317
25.3965 2180 46.6905
25.513 2212 47.0319
25.6296 2437 49.366
25.7462 2416 49.1528
25.8628 2522 50.2195
25.9795 2554 50.5371
26.0962 2493 49.93
26.213 2474 49.7393
26.3298 2222 47.1381
26.4466 2288 47.833
26.5635 2101 45.8367
26.6804 2079 45.5961
26.7973 2228 47.2017
26.9143 2310 48.0625
27.0313 2264 47.5815
27.1483 2375 48.734
27.2653 2296 47.9166
27.3824 2413 49.1223
27.4996 2382 48.8057
27.6167 2353 48.5077
27.7339 2232 47.244
27.8511 2276 47.7074
27.9683 2264 47.5815
28.0855 2164 46.5188
28.2028 2043 45.1996
28.3201 2015 44.8888
28.4374 1997 44.6878
28.5547 2090 45.7165
28.6721 2116 46
28.7894 2191 46.8081
28.9068 2251 47.4447
29.0242 2311 48.0729
29.1416 2461 49.6085
29.259 2480 49.7996
29.3764 2437 49.366
29.4939 2502 50.02
29.6113 2337 48.3425
29.7288 2284 47.7912
29.8463 2232 47.244
29.9638 2098 45.8039
30.0812 2088 45.6946
30.1987 2073 45.5302
30.3162 2121 46.0543
30.4337 2165 46.5296
30.5512 2224 47.1593
30.6687 2153 46.4004
30.7862 2247 47.4025
30.9037 2270 47.6445
31.0212 2304 48
31.1387 2363 48.6107
31.2562 2307 48.0312
31.3737 2214 47.0532
31.4912 2124 46.0869
31.6087 2162 46.4973
31.7262 2091 45.7275
31.8436 2017 44.911
31.9611 1986 44.5646
32.0785 2006 44.7884
32.1959 2093 45.7493
32.3134 2079 45.5961
32.4308 2159 46.465
32.5482 2288 47.833
32.6655 2407 49.0612
32.7829 2426 49.2544
32.9002 2321 48.1768
33.0176 2346 48.4355
33.1349 2274 47.6865
33.2522 2281 47.7598
33.3694 2226 47.1805
33.4867 2192 46.8188
33.6039 1947 44.1248
33.7211 1898 43.566
33.8383 1839 42.8836
33.9554 1969 44.3734
34.0725 2072 45.5192
34.1896 2081 45.618
34.3067 2043 45.1996
34.4237 2130 46.1519
34.5407 2208 46.9894
34.6577 2147 46.3357
34.7746 2178 46.669
34.8915 2173 46.6154
35.0084 2209 47
35.1252 2052 45.299
35.242 2031 45.0666
35.3587 2023 44.9778
35.4755 1933 43.9659
35.5921 1822 42.6849
35.7088 1850 43.0116
35.8254 1828 42.7551
35.9419 1935 43.9886
36.0584 2056 45.3431
36.1749 1982 44.5197
36.2913 2048 45.2548
36.4077 2065 45.4423
36.524 2109 45.9239
36.6403 2007 44.7996
36.7565 1874 43.2897
36.8727 1807 42.5088
36.9889 1692 41.1339
37.1049 1507 38.8201
37.221 0 1
37.3369 0 1
37.4529 0 1
37.5687 0 1
37.6845 0 1
37.8003 0 1
37.916 0 1
38.0316 0 1
38.1472 0 1
40.5851 0 1
40.7008 0 1
40.8164 0 1
40.9322 0 1
41.048 0 1
41.1639 0 1
41.2798 0 1
41.3958 0 1
41.5118 0 1
41.6279 0 1
41.744 1091 33.0303
41.8602 1155 33.9853
41.9765 1310 36.1939
42.0928 1316 36.2767
42.2091 1325 36.4005
42.3255 1255 35.426
42.4419 1265 35.5668
42.5584 1311 36.2077
42.675 1416 37.6298
42.7915 1543 39.281
42.9081 1646 40.5709
43.0248 1712 41.3763
43.1415 1739 41.7013
43.2582 1770 42.0714
43.375 1823 42.6966
43.4918 1781 42.2019
43.6087 1789 42.2966
43.7256 1806 42.4971
43.8425 1796 42.3792
43.9595 1774 42.1189
44.0765 1691 41.1218
44.1935 1616 40.1995
44.3106 1506 38.8072
44.4277 1478 38.4448
44.5448 1475 38.4057
44.6619 1463 38.2492
44.7791 1611 40.1373
44.8963 1737 41.6773
45.0136 1857 43.0929
45.1308 1846 42.9651
45.2481 1762 41.9762
45.3654 1908 43.6807
45.4827 1838 42.8719
45.6001 1787 42.2729
45.7174 1791 42.3202
45.8348 1631 40.3856
45.9522 1539 39.2301
46.0697 1517 38.9487
46.1871 1485 38.5357
46.3046 1520 38.9872
46.422 1649 40.6079
46.5395 1647 40.5832
46.657 1746 41.7852
46.7745 1713 41.3884
46.892 1845 42.9535
47.0096 1836 42.8486
47.1271 1823 42.6966
47.2446 1823 42.6966
47.3622 1861 43.1393
47.4797 1784 42.2374
47.5973 1718 41.4488
47.7149 1708 41.328
47.8324 1650 40.6202
47.95 1642 40.5216
48.0675 1503 38.7685
48.1851 1598 39.975
48.3027 1603 40.0375
48.4202 1719 41.4608
48.5378 1768 42.0476
48.6554 1829 42.7668
48.7729 1927 43.8976
48.8904 1839 42.8836
49.008 1777 42.1545
49.1255 1886 43.4281
49.243 1796 42.3792
49.3605 1670 40.8656
49.478 1480 38.4708
49.5955 1429 37.8021
49.713 1460 38.2099
49.8304 1404 37.47
49.9479 1523 39.0256
50.0653 1574 39.6737
50.1827 1611 40.1373
50.3001 1692 41.1339
50.4175 1779 42.1782
50.5348 1876 43.3128
50.6521 1917 43.7836
50.7694 1879 43.3474
50.8867 1869 43.2319
51.004 1789 42.2966
51.1212 1805 42.4853
51.2384 1763 41.9881
51.3556 1740 41.7133
51.4727 1681 41
51.5899 1590 39.8748
51.707 1666 40.8167
51.824 1666 40.8167
51.9411 1855 43.0697
52.0581 2065 45.4423
52.175 2070 45.4973
52.2919 2146 46.3249
52.4088 2200 46.9042
52.5257 2287 47.8226
52.6425 2311 48.0729
52.7593 2279 47.7389
52.876 2166 46.5403
52.9927 2081 45.618
53.1094 1921 43.8292
53.226 1898 43.566
53.3426 1793 42.3438
53.4591 1808 42.5206
53.5756 1948 44.1362
53.692 1935 43.9886
53.8084 1880 43.359
53.9248 1861 43.1393
54.0411 1802 42.45
54.1573 1745 41.7732
54.2735 0 1
54.3896 0 1
54.5057 0 1
54.6217 0 1
54.7377 0 1
54.8537 0 1
54.9695 0 1
55.0853 0 1
55.2011 0 1
55.3168 0 1
55.4324 0 1
57.824 0 1
57.9396 0 1
58.0553 0 1
58.1711 0 1
58.2869 0 1
58.4028 0 1
58.5187 0 1
58.6347 0 1
58.7508 0 1
58.8669 0 1
58.983 1544 39.2938
59.0992 1822 42.6849
59.2155 1917 43.7836
59.3318 2007 44.7996
59.4482 2100 45.8258
59.5646 2205 46.9574
59.681 2303 47.9896
59.7975 2151 46.3789
59.9141 2196 46.8615
60.0306 2110 45.9347
60.1473 2107 45.9021
60.2639 2055 45.3321
60.3807 1942 44.0681
60.4974 2044 45.2106
60.6142 2045 45.2217
60.731 2240 47.3286
60.8479 2365 48.6313
60.9648 2312 48.0833
61.0818 2430 49.295
61.1987 2305 48.0104
61.3158 2386 48.8467
61.4328 2185 46.744
61.5499 2139 46.2493
61.667 2032 45.0777
61.7841 1838 42.8719
61.9013 1745 41.7732
62.0185 1750 41.833
62.1357 1867 43.2088
62.253 1978 44.4747
62.3702 2107 45.9021
62.4875 2182 46.7119
62.6049 2188 46.7761
62.7222 2217 47.085
62.8396 2263 47.571
62.9569 2345 48.4252
63.0743 2196 46.8615
63.1918 2279 47.7389
63.3092 2188 46.7761
63.4267 2138 46.2385
63.5441 2212 47.0319
63.6616 2029 45.0444
63.7791 1887 43.4396
63.8966 1799 42.4146
64.0142 1877 43.3244
64.1317 1962 44.2945
64.2492 2021 44.9555
64.3668 2203 46.9361
64.4843 2208 46.9894
64.6019 2250 47.4342
64.7195 2329 48.2597
64.837 2223 47.1487
64.9546 2206 46.9681
65.0722 2202 46.9255
65.1898 2006 44.7884
65.3074 1860 43.1277
65.4249 1711 41.3642
65.5425 1656 40.694
65.6601 1726 41.5452
65.7777 1903 43.6234
65.8952 1918 43.795
66.0128 2017 44.911
66.1304 2123 46.076
66.2479 2180 46.6905
66.3655 2179 46.6798
66.483 2214 47.0532
66.6005 2237 47.2969
66.718 2272 47.6655
66.8355 2204 46.9468
66.953 2231 47.2335
67.0705 2087 45.6837
67.1879 2099 45.8148
67.3054 1958 44.2493
67.4228 1846 42.9651
67.5402 1735 41.6533
67.6576 1801 42.4382
67.7749 1819 42.6497
67.8923 1989 44.5982
68.0096 2072 45.5192
68.1269 2138 46.2385
68.2442 2153 46.4004
68.3614 2219 47.1063
68.4787 2168 46.5618
68.5958 2082 45.6289
68.713 2114 45.9783
68.8302 1984 44.5421
68.9473 1849 43
69.0643 1706 41.3038
69.1814 1597 39.9625
69.2984 1605 40.0625
69.4154 1760 41.9524
69.5323 1851 43.0232
69.6492 1938 44.0227
69.7661 2051 45.288
69.8829 2169 46.5725
69.9997 2074 45.5412
70.1165 1936 44
70.2332 2029 45.0444
70.3499 1833 42.8135
70.4665 1752 41.8569
70.5831 1702 41.2553
70.6996 1564 39.5474
70.8161 1533 39.1535
70.9326 1342 36.6333
71.049 1265 35.5668
71.1653 969 31.1288
71.2817 925 30.4138
71.3979 856 29.2575
71.5141 871 29.5127
71.6303 820 28.6356
71.7464 759 27.55
71.8624 0 1
71.9784 0 1
72.0944 0 1
72.2102 0 1
72.3261 0 1
72.4418 0 1
72.5575 0 1
72.6732 0 1
75.1054 0 1
75.2209 0 1
75.3365 0 1
75.4521 0 1
75.5678 0 1
75.6835 0 1
75.7993 0 1
75.9151 0 1
76.031 0 1
76.147 1313 36.2353
76.263 1359 36.8646
76.3791 1340 36.606
76.4952 1387 37.2424
76.6113 1432 37.8418
76.7276 1507 38.8201
76.8438 1631 40.3856
76.9601 1750 41.833
77.0765 1920 43.8178
77.1929 1922 43.8406
77.3093 1969 44.3734
77.4258 1987 44.5758
77.5423 1897 43.5546
77.6589 1837 42.8602
77.7755 1675 40.9268
77.8921 1478 38.4448
78.0088 1412 37.5766
78.1256 1302 36.0832
78.2423 1234 35.1283
78.3591 1409 37.5366
78.4759 1545 39.3065
78.5928 1637 40.4599
78.7097 1697 41.1947
78.8266 1836 42.8486
78.9436 1833 42.8135
79.0606 1789 42.2966
79.1776 1870 43.2435
79.2946 1815 42.6028
79.4117 1868 43.2204
79.5288 1872 43.2666
79.6459 1920 43.8178
79.7631 1762 41.9762
79.8802 1674 40.9145
79.9974 1727 41.5572
80.1147 1573 39.6611
80.2319 1505 38.7943
80.3491 1609 40.1123
80.4664 1722 41.497
80.5837 1743 41.7493
80.701 1812 42.5676
80.8183 1900 43.589
80.9357 1981 44.5084
81.053 1999 44.7102
81.1704 1873 43.2782
81.2877 1928 43.909
81.4051 1870 43.2435
81.5225 1723 41.509
81.6399 1616 40.1995
81.7573 1448 38.0526
81.8747 1367 36.973
81.9922 1423 37.7227
82.1096 1522 39.0128
82.227 1714 41.4005
82.3444 1700 41.2311
82.4619 1865 43.1856
82.5793 1958 44.2493
82.6967 1829 42.7668
82.8142 1884 43.4051
82.9316 1908 43.6807
83.049 1961 44.2832
83.1664 1984 44.5421
83.2838 1941 44.0568
83.4012 1893 43.5086
83.5186 1853 43.0465
83.636 1756 41.9047
83.7534 1643 40.5339
83.8708 1477 38.4318
83.9881 1565 39.5601
84.1055 1584 39.7995
84.2228 1764 42
84.3401 1820 42.6615
84.4575 1922 43.8406
84.5747 2019 44.9333
84.692 1905 43.6463
84.8093 1958 44.2493
84.9265 1961 44.2832
85.0437 1856 43.0813
85.1609 1739 41.7013
85.2781 1539 39.2301
85.3952 1449 38.0657
85.5123 1337 36.565
85.6294 1450 38.0789
85.7465 1559 39.4842
85.8636 1700 41.2311
85.9806 1753 41.8688
86.0976 1833 42.8135
86.2145 1801 42.4382
86.3315 1960 44.2719
86.4484 1984 44.5421
86.5652 2012 44.8553
86.682 1983 44.5309
86.7988 2021 44.9555
86.9156 1968 44.3621
87.0323 1948 44.1362
87.149 1873 43.2782
87.2657 1756 41.9047
87.3823 1519 38.9744
87.4988 1390 37.2827
87.6154 1331 36.4829
87.7318 1333 36.5103
87.8483 1430 37.8153
87.9647 1528 39.0896
88.081 1613 40.1622
88.1973 1548 39.3446
88.3136 1515 38.923
88.4298 1557 39.4588
88.546 1310 36.1939
88.6621 1178 34.322
88.7781 918 30.2985
88.8942 0 1
89.0101 0 1
89.126 0 1
89.2419 0 1
89.3577 0 1
89.4734 0 1
89.5891 0 1
89.7047 0 1
89.8203 0 1
89.9358 0 1
92.3269 0 1
92.4424 0 1
92.558 0 1
92.6736 0 1
92.7893 0 1
92.905 0 1
93.0208 0 1
93.1366 0 1
93.2525 0 1
93.3685 0 1
93.4845 0 1
93.6005 1498 38.704
93.7167 1662 40.7676
93.8328 1636 40.4475
93.949 1757 41.9166
94.0653 1659 40.7308
94.1816 1738 41.6893
94.2979 1648 40.5956
94.4143 1572 39.6485
94.5307 1475 38.4057
94.6472 1395 37.3497
94.7637 1434 37.8682
94.8803 1570 39.6232
94.9969 1712 41.3763
95.1135 1755 41.8927
95.2302 1870 43.2435
95.3469 1947 44.1248
95.4637 1938 44.0227
95.5805 1973 44.4185
95.6973 1953 44.1928
95.8142 2028 45.0333
95.9311 2044 45.2106
96.048 1981 44.5084
96.1649 1955 44.2154
96.2819 1969 44.3734
96.3989 1905 43.6463
96.516 1789 42.2966
96.633 1631 40.3856
96.7501 1565 39.5601
96.8673 1695 41.1704
96.9844 1697 41.1947
97.1016 1866 43.1972
97.2188 1908 43.6807
97.336 2049 45.2659
97.4532 1984 44.5421
97.5704 2090 45.7165
97.6877 2076 45.5631
97.805 1998 44.699
97.9223 1866 43.1972
98.0396 1768 42.0476
98.1569 1529 39.1024
98.2743 1474 38.3927
98.3916 1461 38.223
98.509 1491 38.6135
98.6264 1685 41.0488
98.7438 1831 42.7902
98.8612 1944 44.0908
98.9786 1944 44.0908
99.096 2005 44.7772
99.2134 2054 45.3211
99.3308 2155 46.422
99.4482 2080 45.607
99.5656 2014 44.8776
99.6831 2109 45.9239
99.8005 2097 45.793
99.9179 2079 45.5961
100.035 1935 43.9886
100.153 1907 43.6692
100.27 1792 42.332
100.388 1770 42.0714
100.505 1882 43.382
100.622 1879 43.3474
100.74 2019 44.9333
100.857 2037 45.1331
100.975 2179 46.6798
101.092 2094 45.7602
101.209 2156 46.4327
101.327 2206 46.9681
101.444 2041 45.1774
101.561 1879 43.3474
101.679 1769 42.0595
101.796 1567 39.5854
101.913 1486 38.5487
102.03 1521 39
102.148 1703 41.2674
102.265 1885 43.4166
102.382 1989 44.5982
102.499 2141 46.2709
102.616 2031 45.0666
102.733 2138 46.2385
102.851 2161 46.4866
102.968 2147 46.3357
103.085 2266 47.6025
103.202 2163 46.5081
103.319 2175 46.6369
103.436 2106 45.8912
103.552 2134 46.1952
103.669 1997 44.6878
103.786 1891 43.4856
103.903 1818 42.638
104.02 1826 42.7317
104.137 2036 45.1221
104.253 2100 45.8258
104.37 2295 47.9062
104.487 2301 47.9687
104.603 2362 48.6004
104.72 2355 48.5283
104.836 2240 47.3286
104.953 1986 44.5646
105.069 1775 42.1307
105.186 1596 39.95
105.302 1476 38.4187
105.418 1318 36.3043
105.535 1387 37.2424
105.651 1423 37.7227
105.767 1417 37.6431
105.883 1431 37.8286
105.999 1295 35.9861
106.115 0 1
106.231 0 1
106.347 0 1
106.463 0 1
106.579 0 1
106.694 0 1
106.81 0 1
106.926 0 1
107.041 0 1
107.157 0 1
109.576 0 1
109.692 0 1
109.807 0 1
109.923 0 1
110.039 0 1
110.155 0 1
110.27 0 1
110.386 0 1
110.502 0 1
110.618 899 29.9833
110.735 1205 34.7131
110.851 1451 38.092
110.967 1581 39.7618
111.083 1729 41.5812
111.199 1837 42.8602
111.316 1949 44.1475
111.432 2025 45
111.549 2047 45.2438
111.665 2068 45.4753
111.782 2083 45.6399
111.898 2005 44.7772
112.015 2015 44.8888
112.132 1890 43.4741
112.248 1809 42.5323
112.365 1694 41.1582
112.482 1672 40.8901
112.599 1858 43.1045
112.716 1880 43.359
112.832 2029 45.0444
112.949 2152 46.3897
113.066 2035 45.111
113.183 2078 45.5851
113.3 2109 45.9239
113.417 1964 44.317
113.534 1946 44.1135
113.652 1741 41.7253
113.769 1615 40.1871
113.886 1510 38.8587
114.003 1450 38.0789
114.12 1538 39.2173
114.238 1713 41.3884
114.355 1810 42.5441
114.472 1793 42.3438
114.589 2140 46.2601
114.707 2029 45.0444
114.824 2016 44.8999
114.942 2064 45.4313
115.059 2082 45.6289
115.176 2040 45.1664
115.294 2050 45.2769
115.411 2018 44.9222
115.529 2017 44.911
115.646 2051 45.288
115.764 1864 43.1741
115.881 1775 42.1307
115.999 1758 41.9285
116.116 1758 41.9285
116.234 1864 43.1741
116.351 2017 44.911
116.469 2099 45.8148
116.586 2045 45.2217
116.704 2134 46.1952
116.821 2097 45.793
116.939 2132 46.1736
117.056 1992 44.6318
117.174 1882 43.382
117.291 1776 42.1426
117.409 1631 40.3856
117.526 1480 38.4708
117.644 1437 37.9078
117.761 1597 39.9625
117.879 1733 41.6293
117.996 1818 42.638
118.114 1945 44.1022
118.231 2002 44.7437
118.349 1969 44.3734
118.466 2045 45.2217
118.584 1968 44.3621
118.701 2030 45.0555
118.819 2076 45.5631
118.936 2054 45.3211
119.053 1885 43.4166
119.171 1916 43.7721
119.288 1867 43.2088
119.405 1752 41.8569
119.523 1752 41.8569
119.64 1652 40.6448
119.757 1728 41.5692
119.875 1804 42.4735
119.992 1916 43.7721
120.109 1981 44.5084
120.226 1990 44.6094
120.343 1910 43.7035
120.46 1968 44.3621
120.578 1971 44.3959
120.695 2027 45.0222
120.812 1869 43.2319
120.929 1647 40.5832
121.046 1577 39.7115
121.163 1483 38.5097
121.279 1362 36.9053
121.396 1394 37.3363
121.513 1487 38.5616
121.63 1564 39.5474
121.747 1581 39.7618
121.863 1586 39.8246
121.98 1595 39.9375
122.097 1552 39.3954
122.213 1536 39.1918
122.33 1632 40.398
122.446 1520 38.9872
122.563 1446 38.0263
122.679 1396 37.3631
122.795 1208 34.7563
122.912 1150 33.9116
123.028 1037 32.2025
123.144 919 30.315
123.26 886 29.7658
123.377 0 1
123.493 0 1
123.609 0 1
123.725 0 1
123.84 0 1
123.956 0 1
124.072 0 1
124.188 0 1
124.303 0 1
124.419 0 1
126.852 0 1
126.968 0 1
127.083 0 1
127.199 0 1
127.315 0 1
127.431 0 1
127.547 0 1
127.663 0 1
127.779 0 1
127.895 0 1
128.011 0 1
128.127 0 1
128.243 0 1
128.359 1973 44.4185
128.476 1840 42.8952
128.592 1867 43.2088
128.708 1754 41.8808
128.825 1921 43.8292
128.941 1936 44
129.058 2019 44.9333
129.174 2132 46.1736
129.291 2157 46.4435
129.408 2149 46.3573
129.524 2163 46.5081
129.641 2128 46.1303
129.758 2110 45.9347
129.875 2000 44.7214
129.992 1865 43.1856
130.108 1639 40.4846
130.225 1625 40.3113
130.342 1575 39.6863
130.459 1610 40.1248
130.576 1735 41.6533
130.693 1915 43.7607
130.81 1971 44.3959
130.928 1991 44.6206
131.045 2042 45.1885
131.162 2082 45.6289
131.279 2034 45.0999
131.396 2099 45.8148
131.513 2178 46.669
131.631 2112 45.9565
131.748 2059 45.3762
131.865 1968 44.3621
131.983 2041 45.1774
132.1 1872 43.2666
132.217 1818 42.638
132.335 1851 43.0232
132.452 1938 44.0227
132.57 2107 45.9021
132.687 2072 45.5192
132.804 2113 45.9674
132.922 2254 47.4763
133.039 2267 47.613
133.157 2225 47.1699
133.274 2169 46.5725
133.392 2123 46.076
133.509 1919 43.8064
133.627 1792 42.332
133.744 1674 40.9145
133.862 1563 39.5348
133.979 1663 40.7799
134.097 1794 42.3556
134.214 1847 42.9767
134.332 1935 43.9886
134.449 2066 45.4533
134.567 2048 45.2548
134.684 2076 45.5631
134.802 2173 46.6154
134.919 2205 46.9574
135.037 2039 45.1553
135.154 2030 45.0555
135.272 2017 44.911
135.389 2065 45.4423
135.507 2027 45.0222
135.624 1953 44.1928
135.742 1897 43.5546
135.859 1890 43.4741
135.977 1865 43.1856
136.094 2004 44.7661
136.211 2067 45.4643
136.329 2184 46.7333
136.446 2209 47
136.564 2187 46.7654
136.681 2252 47.4552
136.798 2202 46.9255
136.915 2220 47.1169
137.033 2106 45.8912
137.15 1874 43.2897
137.267 1814 42.5911
137.384 1680 40.9878
137.502 1574 39.6737
137.619 1647 40.5832
137.736 1775 42.1307
137.853 1825 42.72
137.97 1923 43.852
138.087 1935 43.9886
138.204 1986 44.5646
138.321 1982 44.5197
138.438 2145 46.3141
138.555 2186 46.7547
138.672 2199 46.8935
138.788 1992 44.6318
138.905 1966 44.3396
139.022 1938 44.0227
139.139 1793 42.3438
139.255 1689 41.0974
139.372 1579 39.7366
139.488 1473 38.3797
139.605 1424 37.7359
139.721 1463 38.2492
139.838 1468 38.3145
139.954 1492 38.6264
140.071 1461 38.223
140.187 1322 36.3593
140.303 1243 35.2562
140.419 1173 34.2491
140.535 1075 32.7872
140.652 969 31.1288
140.768 0 1
140.884 0 1
141 0 1
141.115 0 1
141.231 0 1
141.347 0 1
141.463 0 1
141.578 0 1
141.694 0 1
144.104 0 1
144.219 0 1
144.335 0 1
144.45 0 1
144.566 0 1
144.682 0 1
144.798 0 1
144.914 0 1
145.03 0 1
145.146 1504 38.7814
145.262 1655 40.6817
145.378 1692 41.1339
145.494 1769 42.0595
145.61 1696 41.1825
145.726 1580 39.7492
145.842 1534 39.1663
145.959 1461 38.223
146.075 1365 36.9459
146.192 1345 36.6742
146.308 1281 35.7911
146.425 1344 36.6606
146.541 1401 37.4299
146.658 1478 38.4448
146.774 1458 38.1838
146.891 1566 39.5727
147.008 1575 39.6863
147.125 1606 40.0749
147.241 1640 40.4969
147.358 1643 40.5339
147.475 1603 40.0375
147.592 1729 41.5812
147.709 1610 40.1248
147.826 1552 39.3954
147.943 1500 38.7298
148.06 1483 38.5097
148.177 1424 37.7359
148.294 1410 37.55
148.411 1443 37.9868
148.528 1534 39.1663
148.645 1611 40.1373
148.762 1586 39.8246
148.88 1655 40.6817
148.997 1710 41.3521
149.114 1585 39.8121
149.231 1747 41.7971
149.349 1695 41.1704
149.466 1522 39.0128
149.583 1558 39.4715
149.701 1447 38.0395
149.818 1389 37.2693
149.935 1298 36.0278
150.053 1285 35.8469
150.17 1415 37.6165
150.287 1406 37.4967
150.405 1513 38.8973
150.522 1406 37.4967
150.64 1552 39.3954
150.757 1612 40.1497
150.875 1641 40.5093
150.992 1589 39.8623
151.11 1574 39.6737
151.227 1531 39.128
151.344 1491 38.6135
151.462 1516 38.9358
151.579 1507 38.8201
151.697 1418 37.6563
151.814 1411 37.5633
151.932 1437 37.9078
152.049 1356 36.8239
152.167 1471 38.3536
152.284 1629 40.3609
152.402 1550 39.37
152.519 1638 40.4722
152.636 1518 38.9615
152.754 1618 40.2244
152.871 1625 40.3113
152.989 1584 39.7995
153.106 1526 39.064
153.223 1490 38.6005
153.341 1345 36.6742
153.458 1340 36.606
153.575 1276 35.7211
153.693 1254 35.4119
153.81 1226 35.0143
153.927 1316 36.2767
154.044 1340 36.606
154.162 1470 38.3406
154.279 1447 38.0395
154.396 1527 39.0768
154.513 1547 39.3319
154.63 1518 38.9615
154.747 1425 37.7492
154.864 1472 38.3667
154.981 1502 38.7556
155.098 1395 37.3497
155.215 1351 36.756
155.332 1314 36.2491
155.449 1323 36.3731
155.566 1331 36.4829
155.683 1331 36.4829
155.8 1406 37.4967
155.917 1373 37.054
156.033 1414 37.6032
156.15 0 1
156.267 0 1
156.383 0 1
156.5 0 1
156.617 0 1
156.733 0 1
156.85 0 1
156.966 0 1
157.082 0 1
157.199 0 1
157.315 0 1
157.431 0 1
157.547 0 1
157.664 0 1
157.78 0 1
157.896 0 1
158.012 0 1
158.128 0 1
158.244 0 1
158.359 0 1
158.475 0 1
158.591 0 1
158.706 0 1
