
6.15755 0 1
6.2731 0 1
6.3887 0 1
6.50437 0 1
6.62009 0 1
6.73587 0 1
6.8517 0 1
6.96759 0 1
7.08353 0 1
7.19952 0 1
7.31557 0 1
7.43166 0 1
7.54781 0 1
7.664 0 1
7.78024 0 1
7.89653 0 1
8.01286 0 1
8.12924 0 1
8.24567 0 1
8.36213 0 1
8.47864 0 1
8.59519 0 1
8.71178 0 1
8.82841 0 1
8.94508 0 1
9.06179 0 1
9.17853 0 1
9.29531 0 1
9.41212 0 1
9.52897 0 1
9.64584 0 1
9.76276 0 1
9.8797 0 1
9.99667 0 1
10.1137 0 1
10.2307 0 1
10.3478 0 1
10.4648 0 1
10.5819 0 1
10.6991 0 1
10.8162 0 1
10.9334 0 1
11.0506 0 1
11.1678 0 1
11.285 0 1
11.4023 0 1
11.5196 0 1
11.6369 0 1
11.7542 0 1
11.8715 0 1
11.9888 0 1
12.1062 0 1
12.2235 0 1
12.3409 0 1
12.4582 0 1
12.5756 0 1
12.693 0 1
12.8104 0 1
12.9278 0 1
13.0452 0 1
13.1626 0 1
13.28 0 1
13.3974 0 1
13.5149 0 1
13.6323 0 1
13.7497 0 1
13.8671 0 1
13.9845 0 1
14.1019 0 1
14.2193 0 1
14.3367 0 1
14.4541 0 1
14.5714 0 1
14.6888 0 1
14.8062 0 1
14.9235 0 1
15.0408 80 8.94427
15.1581 88 9.38083
15.2755 99 9.94987
15.3927 100 10
15.51 97 9.84886
15.6273 109 10.4403
15.7445 108 10.3923
15.8617 107 10.3441
15.9789 94 9.69536
16.0961 87 9.32738
16.2132 102 10.0995
16.3304 77 8.77496
16.4475 94 9.69536
16.5646 84 9.16515
16.6816 88 9.38083
16.7986 89 9.43398
16.9156 88 9.38083
17.0326 84 9.16515
17.1496 96 9.79796
17.2665 84 9.16515
17.3833 95 9.74679
17.5002 84 9.16515
17.617 57 7.54983
17.7338 74 8.60233
17.8505 80 8.94427
17.9672 77 8.77496
18.0839 71 8.42615
18.2005 79 8.88819
18.3171 80 8.94427
18.4337 85 9.21954
18.5502 89 9.43398
18.6666 82 9.05539
18.7831 96 9.79796
18.8994 77 8.77496
19.0158 68 8.24621
19.1321 68 8.24621
19.2483 81 9
19.3645 64 8
19.4806 64 8
19.5967 63 7.93725
19.7128 54 7.34847
19.8288 73 8.544
19.9447 46 6.78233
20.0606 0 1
20.1764 0 1
20.2922 0 1
20.4079 0 1
20.5236 0 1
20.6392 0 1
20.7548 0 1
20.8702 0 1
23.3078 0 1
23.4233 0 1
23.539 0 1
23.6547 0 1
23.7704 0 1
23.8862 0 1
24.0021 0 1
24.118 0 1
24.234 0 1
24.35 0 1
24.4661 36 6
24.5822 40 6.32456
24.6984 42 6.48074
24.8146 69 8.30662
24.9309 72 8.48528
25.0472 79 8.88819
25.1636 80 8.94427
25.28 93 9.64365
25.3965 84 9.16515
25.513 81 9
25.6296 87 9.32738
25.7462 105 10.247
25.8628 75 8.66025
25.9795 95 9.74679
26.0962 75 8.66025
26.213 94 9.69536
26.3298 76 8.7178
26.4466 71 8.42615
26.5635 75 8.66025
26.6804 82 9.05539
26.7973 58 7.61577
26.9143 71 8.42615
27.0313 68 8.24621
27.1483 66 8.12404
27.2653 82 9.05539
27.3824 62 7.87401
27.4996 80 8.94427
27.6167 83 9.11043
27.7339 74 8.60233
27.8511 86 9.27362
27.9683 82 9.05539
28.0855 75 8.66025
28.2028 57 7.54983
28.3201 114 10.6771
28.4374 77 8.77496
28.5547 81 9
28.6721 77 8.77496
28.7894 92 9.59166
28.9068 67 8.18535
29.0242 92 9.59166
29.1416 80 8.94427
29.259 75 8.66025
29.3764 101 10.0499
29.4939 73 8.544
29.6113 78 8.83176
29.7288 76 8.7178
29.8463 80 8.94427
29.9638 76 8.7178
30.0812 78 8.83176
30.1987 65 8.06226
30.3162 92 9.59166
30.4337 71 8.42615
30.5512 83 9.11043
30.6687 73 8.544
30.7862 68 8.24621
30.9037 82 9.05539
31.0212 95 9.74679
31.1387 97 9.84886
31.2562 73 8.544
31.3737 71 8.42615
31.4912 77 8.77496
31.6087 87 9.32738
31.7262 76 8.7178
31.8436 86 9.27362
31.9611 76 8.7178
32.0785 77 8.77496
32.1959 89 9.43398
32.3134 81 9
32.4308 89 9.43398
32.5482 82 9.05539
32.6655 67 8.18535
32.7829 90 9.48683
32.9002 70 8.3666
33.0176 64 8
33.1349 62 7.87401
33.2522 62 7.87401
33.3694 84 9.16515
33.4867 55 7.4162
33.6039 64 8
33.7211 84 9.16515
33.8383 74 8.60233
33.9554 71 8.42615
34.0725 82 9.05539
34.1896 63 7.93725
34.3067 75 8.66025
34.4237 62 7.87401
34.5407 71 8.42615
34.6577 67 8.18535
34.7746 76 8.7178
34.8915 86 9.27362
35.0084 77 8.77496
35.1252 72 8.48528
35.242 82 9.05539
35.3587 80 8.94427
35.4755 82 9.05539
35.5921 75 8.66025
35.7088 73 8.544
35.8254 78 8.83176
35.9419 66 8.12404
36.0584 63 7.93725
36.1749 68 8.24621
36.2913 64 8
36.4077 53 7.28011
36.524 63 7.93725
36.6403 52 7.2111
36.7565 52 7.2111
36.8727 44 6.63325
36.9889 48 6.9282
37.1049 40 6.32456
37.221 0 1
37.3369 0 1
37.4529 0 1
37.5687 0 1
37.6845 0 1
37.8003 0 1
37.916 0 1
38.0316 0 1
38.1472 0 1
40.5851 0 1
40.7008 0 1
40.8164 0 1
40.9322 0 1
41.048 0 1
41.1639 0 1
41.2798 0 1
41.3958 0 1
41.5118 0 1
41.6279 0 1
41.744 33 5.74456
41.8602 34 5.83095
41.9765 48 6.9282
42.0928 56 7.48331
42.2091 40 6.32456
42.3255 51 7.14143
42.4419 49 7
42.5584 51 7.14143
42.675 54 7.34847
42.7915 52 7.2111
42.9081 61 7.81025
43.0248 71 8.42615
43.1415 52 7.2111
43.2582 58 7.61577
43.375 46 6.78233
43.4918 61 7.81025
43.6087 63 7.93725
43.7256 53 7.28011
43.8425 51 7.14143
43.9595 53 7.28011
44.0765 53 7.28011
44.1935 62 7.87401
44.3106 67 8.18535
44.4277 42 6.48074
44.5448 58 7.61577
44.6619 73 8.544
44.7791 73 8.544
44.8963 58 7.61577
45.0136 63 7.93725
45.1308 55 7.4162
45.2481 65 8.06226
45.3654 72 8.48528
45.4827 60 7.74597
45.6001 52 7.2111
45.7174 45 6.7082
45.8348 52 7.2111
45.9522 78 8.83176
46.0697 53 7.28011
46.1871 65 8.06226
46.3046 69 8.30662
46.422 56 7.48331
46.5395 60 7.74597
46.657 58 7.61577
46.7745 73 8.544
46.892 57 7.54983
47.0096 53 7.28011
47.1271 58 7.61577
47.2446 51 7.14143
47.3622 51 7.14143
47.4797 41 6.40312
47.5973 57 7.54983
47.7149 58 7.61577
47.8324 57 7.54983
47.95 61 7.81025
48.0675 65 8.06226
48.1851 69 8.30662
48.3027 45 6.7082
48.4202 54 7.34847
48.5378 56 7.48331
48.6554 57 7.54983
48.7729 49 7
48.8904 61 7.81025
49.008 63 7.93725
49.1255 57 7.54983
49.243 53 7.28011
49.3605 51 7.14143
49.478 52 7.2111
49.5955 48 6.9282
49.713 62 7.87401
49.8304 52 7.2111
49.9479 59 7.68115
50.0653 46 6.78233
50.1827 51 7.14143
50.3001 46 6.78233
50.4175 69 8.30662
50.5348 52 7.2111
50.6521 52 7.2111
50.7694 54 7.34847
50.8867 47 6.85565
51.004 51 7.14143
51.1212 61 7.81025
51.2384 62 7.87401
51.3556 54 7.34847
51.4727 50 7.07107
51.5899 52 7.2111
51.707 57 7.54983
51.824 59 7.68115
51.9411 70 8.3666
52.0581 52 7.2111
52.175 58 7.61577
52.2919 43 6.55744
52.4088 66 8.12404
52.5257 57 7.54983
52.6425 58 7.61577
52.7593 53 7.28011
52.876 57 7.54983
52.9927 62 7.87401
53.1094 53 7.28011
53.226 60 7.74597
53.3426 53 7.28011
53.4591 51 7.14143
53.5756 51 7.14143
53.692 50 7.07107
53.8084 44 6.63325
53.9248 46 6.78233
54.0411 33 5.74456
54.1573 37 6.08276
54.2735 0 1
54.3896 0 1
54.5057 0 1
54.6217 0 1
54.7377 0 1
54.8537 0 1
54.9695 0 1
55.0853 0 1
55.2011 0 1
55.3168 0 1
55.4324 0 1
57.824 0 1
57.9396 0 1
58.0553 0 1
58.1711 0 1
58.2869 0 1
58.4028 0 1
58.5187 0 1
58.6347 0 1
58.7508 0 1
58.8669 0 1
58.983 74 8.60233
59.0992 127 11.2694
59.2155 125 11.1803
59.3318 157 12.53
59.4482 180 13.4164
59.5646 232 15.2315
59.681 271 16.4621
59.7975 269 16.4012
59.9141 292 17.088
60.0306 353 18.7883
60.1473 450 21.2132
60.2639 607 24.6374
60.3807 663 25.7488
60.4974 846 29.0861
60.6142 955 30.9031
60.731 1091 33.0303
60.8479 1210 34.7851
60.9648 1363 36.9188
61.0818 1213 34.8281
61.1987 1346 36.6879
61.3158 1258 35.4683
61.4328 1251 35.3695
61.5499 1230 35.0714
61.667 1133 33.6601
61.7841 1105 33.2415
61.9013 1004 31.686
62.0185 909 30.1496
62.1357 856 29.2575
62.253 759 27.55
62.3702 563 23.7276
62.4875 488 22.0907
62.6049 421 20.5183
62.7222 358 18.9209
62.8396 285 16.8819
62.9569 283 16.8226
63.0743 282 16.7929
63.1918 237 15.3948
63.3092 208 14.4222
63.4267 196 14
63.5441 160 12.6491
63.6616 126 11.225
63.7791 89 9.43398
63.8966 103 10.1489
64.0142 97 9.84886
64.1317 85 9.21954
64.2492 77 8.77496
64.3668 62 7.87401
64.4843 85 9.21954
64.6019 58 7.61577
64.7195 60 7.74597
64.837 74 8.60233
64.9546 60 7.74597
65.0722 63 7.93725
65.1898 69 8.30662
65.3074 53 7.28011
65.4249 58 7.61577
65.5425 71 8.42615
65.6601 67 8.18535
65.7777 88 9.38083
65.8952 68 8.24621
66.0128 67 8.18535
66.1304 83 9.11043
66.2479 76 8.7178
66.3655 76 8.7178
66.483 67 8.18535
66.6005 51 7.14143
66.718 67 8.18535
66.8355 69 8.30662
66.953 60 7.74597
67.0705 74 8.60233
67.1879 60 7.74597
67.3054 88 9.38083
67.4228 52 7.2111
67.5402 80 8.94427
67.6576 75 8.66025
67.7749 63 7.93725
67.8923 76 8.7178
68.0096 55 7.4162
68.1269 66 8.12404
68.2442 63 7.93725
68.3614 66 8.12404
68.4787 63 7.93725
68.5958 58 7.61577
68.713 68 8.24621
68.8302 69 8.30662
68.9473 42 6.48074
69.0643 46 6.78233
69.1814 67 8.18535
69.2984 77 8.77496
69.4154 63 7.93725
69.5323 71 8.42615
69.6492 74 8.60233
69.7661 65 8.06226
69.8829 69 8.30662
69.9997 74 8.60233
70.1165 75 8.66025
70.2332 59 7.68115
70.3499 78 8.83176
70.4665 48 6.9282
70.5831 58 7.61577
70.6996 55 7.4162
70.8161 46 6.78233
70.9326 46 6.78233
71.049 34 5.83095
71.1653 37 6.08276
71.2817 43 6.55744
71.3979 29 5.38516
71.5141 35 5.91608
71.6303 27 5.19615
71.7464 28 5.2915
71.8624 0 1
71.9784 0 1
72.0944 0 1
72.2102 0 1
72.3261 0 1
72.4418 0 1
72.5575 0 1
72.6732 0 1
75.1054 0 1
75.2209 0 1
75.3365 0 1
75.4521 0 1
75.5678 0 1
75.6835 0 1
75.7993 0 1
75.9151 0 1
76.031 0 1
76.147 46 6.78233
76.263 66 8.12404
76.3791 54 7.34847
76.4952 52 7.2111
76.6113 61 7.81025
76.7276 76 8.7178
76.8438 48 6.9282
76.9601 61 7.81025
77.0765 54 7.34847
77.1929 61 7.81025
77.3093 72 8.48528
77.4258 51 7.14143
77.5423 51 7.14143
77.6589 53 7.28011
77.7755 62 7.87401
77.8921 63 7.93725
78.0088 40 6.32456
78.1256 72 8.48528
78.2423 53 7.28011
78.3591 64 8
78.4759 67 8.18535
78.5928 64 8
78.7097 75 8.66025
78.8266 67 8.18535
78.9436 72 8.48528
79.0606 45 6.7082
79.1776 69 8.30662
79.2946 67 8.18535
79.4117 73 8.544
79.5288 52 7.2111
79.6459 55 7.4162
79.7631 48 6.9282
79.8802 54 7.34847
79.9974 60 7.74597
80.1147 67 8.18535
80.2319 63 7.93725
80.3491 58 7.61577
80.4664 69 8.30662
80.5837 71 8.42615
80.701 61 7.81025
80.8183 56 7.48331
80.9357 63 7.93725
81.053 61 7.81025
81.1704 64 8
81.2877 60 7.74597
81.4051 67 8.18535
81.5225 75 8.66025
81.6399 45 6.7082
81.7573 70 8.3666
81.8747 54 7.34847
81.9922 47 6.85565
82.1096 64 8
82.227 58 7.61577
82.3444 68 8.24621
82.4619 70 8.3666
82.5793 71 8.42615
82.6967 64 8
82.8142 62 7.87401
82.9316 79 8.88819
83.049 70 8.3666
83.1664 61 7.81025
83.2838 56 7.48331
83.4012 66 8.12404
83.5186 58 7.61577
83.636 65 8.06226
83.7534 67 8.18535
83.8708 82 9.05539
83.9881 57 7.54983
84.1055 65 8.06226
84.2228 58 7.61577
84.3401 57 7.54983
84.4575 63 7.93725
84.5747 49 7
84.692 57 7.54983
84.8093 68 8.24621
84.9265 55 7.4162
85.0437 59 7.68115
85.1609 57 7.54983
85.2781 55 7.4162
85.3952 52 7.2111
85.5123 54 7.34847
85.6294 57 7.54983
85.7465 64 8
85.8636 76 8.7178
85.9806 61 7.81025
86.0976 71 8.42615
86.2145 78 8.83176
86.3315 72 8.48528
86.4484 61 7.81025
86.5652 70 8.3666
86.682 57 7.54983
86.7988 61 7.81025
86.9156 60 7.74597
87.0323 47 6.85565
87.149 63 7.93725
87.2657 57 7.54983
87.3823 66 8.12404
87.4988 57 7.54983
87.6154 57 7.54983
87.7318 58 7.61577
87.8483 53 7.28011
87.9647 53 7.28011
88.081 41 6.40312
88.1973 45 6.7082
88.3136 41 6.40312
88.4298 47 6.85565
88.546 29 5.38516
88.6621 37 6.08276
88.7781 32 5.65685
88.8942 0 1
89.0101 0 1
89.126 0 1
89.2419 0 1
89.3577 0 1
89.4734 0 1
89.5891 0 1
89.7047 0 1
89.8203 0 1
89.9358 0 1
92.3269 0 1
92.4424 0 1
92.558 0 1
92.6736 0 1
92.7893 0 1
92.905 0 1
93.0208 0 1
93.1366 0 1
93.2525 0 1
93.3685 0 1
93.4845 0 1
93.6005 58 7.61577
93.7167 53 7.28011
93.8328 69 8.30662
93.949 60 7.74597
94.0653 67 8.18535
94.1816 57 7.54983
94.2979 56 7.48331
94.4143 71 8.42615
94.5307 58 7.61577
94.6472 57 7.54983
94.7637 70 8.3666
94.8803 76 8.7178
94.9969 71 8.42615
95.1135 68 8.24621
95.2302 70 8.3666
95.3469 65 8.06226
95.4637 80 8.94427
95.5805 77 8.77496
95.6973 68 8.24621
95.8142 73 8.544
95.9311 59 7.68115
96.048 63 7.93725
96.1649 73 8.544
96.2819 81 9
96.3989 63 7.93725
96.516 67 8.18535
96.633 81 9
96.7501 82 9.05539
96.8673 81 9
96.9844 77 8.77496
97.1016 62 7.87401
97.2188 75 8.66025
97.336 67 8.18535
97.4532 63 7.93725
97.5704 56 7.48331
97.6877 59 7.68115
97.805 54 7.34847
97.9223 74 8.60233
98.0396 67 8.18535
98.1569 51 7.14143
98.2743 56 7.48331
98.3916 72 8.48528
98.509 53 7.28011
98.6264 65 8.06226
98.7438 60 7.74597
98.8612 66 8.12404
98.9786 80 8.94427
99.096 69 8.30662
99.2134 68 8.24621
99.3308 80 8.94427
99.4482 70 8.3666
99.5656 62 7.87401
99.6831 63 7.93725
99.8005 75 8.66025
99.9179 59 7.68115
100.035 80 8.94427
100.153 82 9.05539
100.27 73 8.544
100.388 59 7.68115
100.505 74 8.60233
100.622 77 8.77496
100.74 83 9.11043
100.857 67 8.18535
100.975 59 7.68115
101.092 67 8.18535
101.209 69 8.30662
101.327 73 8.544
101.444 66 8.12404
101.561 63 7.93725
101.679 74 8.60233
101.796 70 8.3666
101.913 72 8.48528
102.03 70 8.3666
102.148 67 8.18535
102.265 86 9.27362
102.382 71 8.42615
102.499 77 8.77496
102.616 81 9
102.733 76 8.7178
102.851 80 8.94427
102.968 88 9.38083
103.085 75 8.66025
103.202 75 8.66025
103.319 84 9.16515
103.436 89 9.43398
103.552 68 8.24621
103.669 73 8.544
103.786 87 9.32738
103.903 99 9.94987
104.02 81 9
104.137 87 9.32738
104.253 74 8.60233
104.37 68 8.24621
104.487 64 8
104.603 83 9.11043
104.72 69 8.30662
104.836 71 8.42615
104.953 61 7.81025
105.069 76 8.7178
105.186 53 7.28011
105.302 60 7.74597
105.418 50 7.07107
105.535 38 6.16441
105.651 43 6.55744
105.767 56 7.48331
105.883 40 6.32456
105.999 30 5.47723
106.115 0 1
106.231 0 1
106.347 0 1
106.463 0 1
106.579 0 1
106.694 0 1
106.81 0 1
106.926 0 1
107.041 0 1
107.157 0 1
109.576 0 1
109.692 0 1
109.807 0 1
109.923 0 1
110.039 0 1
110.155 0 1
110.27 0 1
110.386 0 1
110.502 0 1
110.618 38 6.16441
110.735 36 6
110.851 44 6.63325
110.967 49 7
111.083 66 8.12404
111.199 69 8.30662
111.316 61 7.81025
111.432 75 8.66025
111.549 80 8.94427
111.665 68 8.24621
111.782 63 7.93725
111.898 81 9
112.015 77 8.77496
112.132 69 8.30662
112.248 78 8.83176
112.365 78 8.83176
112.482 54 7.34847
112.599 82 9.05539
112.716 63 7.93725
112.832 70 8.3666
112.949 80 8.94427
113.066 69 8.30662
113.183 76 8.7178
113.3 65 8.06226
113.417 71 8.42615
113.534 65 8.06226
113.652 64 8
113.769 66 8.12404
113.886 64 8
114.003 69 8.30662
114.12 83 9.11043
114.238 67 8.18535
114.355 69 8.30662
114.472 66 8.12404
114.589 68 8.24621
114.707 58 7.61577
114.824 72 8.48528
114.942 73 8.544
115.059 71 8.42615
115.176 66 8.12404
115.294 61 7.81025
115.411 63 7.93725
115.529 60 7.74597
115.646 74 8.60233
115.764 60 7.74597
115.881 68 8.24621
115.999 61 7.81025
116.116 63 7.93725
116.234 68 8.24621
116.351 64 8
116.469 58 7.61577
116.586 61 7.81025
116.704 56 7.48331
116.821 67 8.18535
116.939 70 8.3666
117.056 57 7.54983
117.174 77 8.77496
117.291 40 6.32456
117.409 66 8.12404
117.526 62 7.87401
117.644 72 8.48528
117.761 48 6.9282
117.879 44 6.63325
117.996 49 7
118.114 58 7.61577
118.231 73 8.544
118.349 68 8.24621
118.466 68 8.24621
118.584 61 7.81025
118.701 65 8.06226
118.819 58 7.61577
118.936 71 8.42615
119.053 53 7.28011
119.171 60 7.74597
119.288 53 7.28011
119.405 53 7.28011
119.523 58 7.61577
119.64 67 8.18535
119.757 68 8.24621
119.875 83 9.11043
119.992 52 7.2111
120.109 56 7.48331
120.226 56 7.48331
120.343 54 7.34847
120.46 53 7.28011
120.578 47 6.85565
120.695 62 7.87401
120.812 54 7.34847
120.929 72 8.48528
121.046 67 8.18535
121.163 67 8.18535
121.279 56 7.48331
121.396 59 7.68115
121.513 51 7.14143
121.63 51 7.14143
121.747 47 6.85565
121.863 46 6.78233
121.98 51 7.14143
122.097 52 7.2111
122.213 55 7.4162
122.33 48 6.9282
122.446 49 7
122.563 39 6.245
122.679 35 5.91608
122.795 34 5.83095
122.912 21 4.58258
123.028 31 5.56776
123.144 28 5.2915
123.26 26 5.09902
123.377 0 1
123.493 0 1
123.609 0 1
123.725 0 1
123.84 0 1
123.956 0 1
124.072 0 1
124.188 0 1
124.303 0 1
124.419 0 1
126.852 0 1
126.968 0 1
127.083 0 1
127.199 0 1
127.315 0 1
127.431 0 1
127.547 0 1
127.663 0 1
127.779 0 1
127.895 0 1
128.011 0 1
128.127 0 1
128.243 0 1
128.359 57 7.54983
128.476 51 7.14143
128.592 59 7.68115
128.708 60 7.74597
128.825 68 8.24621
128.941 51 7.14143
129.058 68 8.24621
129.174 71 8.42615
129.291 61 7.81025
129.408 79 8.88819
129.524 71 8.42615
129.641 68 8.24621
129.758 57 7.54983
129.875 76 8.7178
129.992 65 8.06226
130.108 66 8.12404
130.225 73 8.544
130.342 58 7.61577
130.459 57 7.54983
130.576 70 8.3666
130.693 60 7.74597
130.81 59 7.68115
130.928 68 8.24621
131.045 76 8.7178
131.162 57 7.54983
131.279 73 8.544
131.396 83 9.11043
131.513 79 8.88819
131.631 65 8.06226
131.748 78 8.83176
131.865 73 8.544
131.983 70 8.3666
132.1 68 8.24621
132.217 58 7.61577
132.335 70 8.3666
132.452 77 8.77496
132.57 67 8.18535
132.687 73 8.544
132.804 72 8.48528
132.922 72 8.48528
133.039 70 8.3666
133.157 62 7.87401
133.274 69 8.30662
133.392 66 8.12404
133.509 71 8.42615
133.627 63 7.93725
133.744 89 9.43398
133.862 66 8.12404
133.979 92 9.59166
134.097 56 7.48331
134.214 54 7.34847
134.332 57 7.54983
134.449 64 8
134.567 57 7.54983
134.684 62 7.87401
134.802 80 8.94427
134.919 77 8.77496
135.037 66 8.12404
135.154 75 8.66025
135.272 60 7.74597
135.389 84 9.16515
135.507 57 7.54983
135.624 65 8.06226
135.742 67 8.18535
135.859 78 8.83176
135.977 82 9.05539
136.094 72 8.48528
136.211 76 8.7178
136.329 81 9
136.446 74 8.60233
136.564 77 8.77496
136.681 83 9.11043
136.798 70 8.3666
136.915 70 8.3666
137.033 63 7.93725
137.15 64 8
137.267 78 8.83176
137.384 77 8.77496
137.502 69 8.30662
137.619 76 8.7178
137.736 71 8.42615
137.853 52 7.2111
137.97 67 8.18535
138.087 73 8.544
138.204 59 7.68115
138.321 75 8.66025
138.438 85 9.21954
138.555 75 8.66025
138.672 81 9
138.788 84 9.16515
138.905 61 7.81025
139.022 55 7.4162
139.139 62 7.87401
139.255 57 7.54983
139.372 56 7.48331
139.488 58 7.61577
139.605 53 7.28011
139.721 50 7.07107
139.838 72 8.48528
139.954 53 7.28011
140.071 43 6.55744
140.187 41 6.40312
140.303 36 6
140.419 41 6.40312
140.535 39 6.245
140.652 29 5.38516
140.768 0 1
140.884 0 1
141 0 1
141.115 0 1
141.231 0 1
141.347 0 1
141.463 0 1
141.578 0 1
141.694 0 1
144.104 0 1
144.219 0 1
144.335 0 1
144.45 0 1
144.566 0 1
144.682 0 1
144.798 0 1
144.914 0 1
145.03 0 1
145.146 94 9.69536
145.262 130 11.4018
145.378 164 12.8062
145.494 240 15.4919
145.61 341 18.4662
145.726 412 20.2978
145.842 537 23.1733
145.959 699 26.4386
146.075 873 29.5466
146.192 1052 32.4345
146.308 1228 35.0428
146.425 1482 38.4968
146.541 1710 41.3521
146.658 2051 45.288
146.774 2401 49
146.891 2650 51.4782
147.008 3108 55.7494
147.125 3704 60.8605
147.241 4502 67.0969
147.358 5555 74.5319
147.475 6829 82.6378
147.592 7830 88.4873
147.709 9036 95.0579
147.826 10038 100.19
147.943 10833 104.082
148.06 11267 106.146
148.177 11783 108.55
148.294 12280 110.815
148.411 12181 110.368
148.528 12083 109.923
148.645 11889 109.037
148.762 11637 107.875
148.88 11347 106.522
148.997 10968 104.728
149.114 9932 99.6594
149.231 9670 98.3362
149.349 8975 94.7365
149.466 8403 91.6679
149.583 7894 88.8482
149.701 7437 86.238
149.818 7025 83.8153
149.935 6651 81.5537
150.053 6245 79.0253
150.17 5625 75
150.287 5531 74.3707
150.405 5115 71.5192
150.522 4778 69.1231
150.64 4720 68.7023
150.757 4472 66.873
150.875 4322 65.7419
150.992 4063 63.7417
151.11 3572 59.7662
151.227 3361 57.9741
151.344 3122 55.8749
151.462 3087 55.5608
151.579 3087 55.5608
151.697 3102 55.6956
151.814 3109 55.7584
151.932 3004 54.8088
152.049 2930 54.1295
152.167 2710 52.0577
152.284 2667 51.643
152.402 2432 49.3153
152.519 2353 48.5077
152.636 2097 45.793
152.754 1973 44.4185
152.871 1893 43.5086
152.989 1810 42.5441
153.106 1641 40.5093
153.223 1604 40.05
153.341 1454 38.1314
153.458 1366 36.9594
153.575 1316 36.2767
153.693 1189 34.4819
153.81 1054 32.4654
153.927 917 30.282
154.044 965 31.0644
154.162 881 29.6816
154.279 882 29.6985
154.396 842 29.0172
154.513 796 28.2135
154.63 733 27.074
154.747 785 28.0179
154.864 687 26.2107
154.981 574 23.9583
155.098 513 22.6495
155.215 499 22.3383
155.332 513 22.6495
155.449 482 21.9545
155.566 481 21.9317
155.683 461 21.4709
155.8 448 21.166
155.917 424 20.5913
156.033 398 19.9499
156.15 0 1
156.267 0 1
156.383 0 1
156.5 0 1
156.617 0 1
156.733 0 1
156.85 0 1
156.966 0 1
157.082 0 1
157.199 0 1
157.315 0 1
157.431 0 1
157.547 0 1
157.664 0 1
157.78 0 1
157.896 0 1
158.012 0 1
158.128 0 1
158.244 0 1
158.359 0 1
158.475 0 1
158.591 0 1
158.706 0 1
