
6.15755 0 1
6.2731 0 1
6.3887 0 1
6.50437 0 1
6.62009 0 1
6.73587 0 1
6.8517 0 1
6.96759 0 1
7.08353 0 1
7.19952 0 1
7.31557 0 1
7.43166 0 1
7.54781 0 1
7.664 0 1
7.78024 0 1
7.89653 0 1
8.01286 0 1
8.12924 0 1
8.24567 0 1
8.36213 0 1
8.47864 0 1
8.59519 0 1
8.71178 0 1
8.82841 0 1
8.94508 0 1
9.06179 0 1
9.17853 0 1
9.29531 0 1
9.41212 0 1
9.52897 0 1
9.64584 0 1
9.76276 0 1
9.8797 0 1
9.99667 0 1
10.1137 0 1
10.2307 0 1
10.3478 0 1
10.4648 0 1
10.5819 0 1
10.6991 0 1
10.8162 0 1
10.9334 0 1
11.0506 0 1
11.1678 0 1
11.285 0 1
11.4023 0 1
11.5196 0 1
11.6369 0 1
11.7542 0 1
11.8715 0 1
11.9888 0 1
12.1062 0 1
12.2235 0 1
12.3409 0 1
12.4582 0 1
12.5756 0 1
12.693 0 1
12.8104 0 1
12.9278 0 1
13.0452 0 1
13.1626 0 1
13.28 0 1
13.3974 0 1
13.5149 0 1
13.6323 0 1
13.7497 0 1
13.8671 0 1
13.9845 0 1
14.1019 0 1
14.2193 0 1
14.3367 0 1
14.4541 0 1
14.5714 0 1
14.6888 0 1
14.8062 0 1
14.9235 0 1
15.0408 3100 55.6776
15.1581 3082 55.5158
15.2755 3161 56.2228
15.3927 3250 57.0088
15.51 3055 55.2721
15.6273 2958 54.3875
15.7445 2874 53.6097
15.8617 2978 54.5711
15.9789 2879 53.6563
16.0961 2953 54.3415
16.2132 2815 53.0566
16.3304 2838 53.2729
16.4475 2822 53.1225
16.5646 2788 52.8015
16.6816 2835 53.2447
16.7986 2715 52.1057
16.9156 2622 51.2055
17.0326 2580 50.7937
17.1496 2592 50.9117
17.2665 2620 51.1859
17.3833 2639 51.3712
17.5002 2604 51.0294
17.617 2659 51.5655
17.7338 2645 51.4296
17.8505 2567 50.6656
17.9672 2498 49.98
18.0839 2588 50.8724
18.2005 2637 51.3517
18.3171 2696 51.923
18.4337 2693 51.8941
18.5502 2586 50.8527
18.6666 2701 51.9711
18.7831 2645 51.4296
18.8994 2587 50.8626
19.0158 2451 49.5076
19.1321 2366 48.6415
19.2483 2142 46.2817
19.3645 2080 45.607
19.4806 2063 45.4203
19.5967 1973 44.4185
19.7128 2104 45.8694
19.8288 1968 44.3621
19.9447 1772 42.0951
20.0606 0 1
20.1764 0 1
20.2922 0 1
20.4079 0 1
20.5236 0 1
20.6392 0 1
20.7548 0 1
20.8702 0 1
23.3078 0 1
23.4233 0 1
23.539 0 1
23.6547 0 1
23.7704 0 1
23.8862 0 1
24.0021 0 1
24.118 0 1
24.234 0 1
24.35 0 1
24.4661 1069 32.6956
24.5822 1247 35.3129
24.6984 1404 37.47
24.8146 1583 39.7869
24.9309 1801 42.4382
25.0472 2047 45.2438
25.1636 2331 48.2804
25.28 2514 50.1398
25.3965 2659 51.5655
25.513 2741 52.3546
25.6296 2926 54.0925
25.7462 2880 53.6656
25.8628 2914 53.9815
25.9795 2933 54.1572
26.0962 2835 53.2447
26.213 2720 52.1536
26.3298 2711 52.0673
26.4466 2614 51.1273
26.5635 2459 49.5883
26.6804 2342 48.3942
26.7973 2372 48.7032
26.9143 2324 48.2079
27.0313 2360 48.5798
27.1483 2483 49.8297
27.2653 2409 49.0816
27.3824 2442 49.4166
27.4996 2440 49.3964
27.6167 2405 49.0408
27.7339 2490 49.8999
27.8511 2445 49.4469
27.9683 2312 48.0833
28.0855 2319 48.156
28.2028 2399 48.9796
28.3201 2387 48.8569
28.4374 2457 49.5681
28.5547 2573 50.7247
28.6721 2559 50.5866
28.7894 2627 51.2543
28.9068 2532 50.319
29.0242 2587 50.8626
29.1416 2461 49.6085
29.259 2550 50.4975
29.3764 2407 49.0612
29.4939 2467 49.6689
29.6113 2511 50.1099
29.7288 2385 48.8365
29.8463 2366 48.6415
29.9638 2291 47.8644
30.0812 2342 48.3942
30.1987 2212 47.0319
30.3162 2263 47.571
30.4337 2410 49.0918
30.5512 2492 49.9199
30.6687 2444 49.4368
30.7862 2492 49.9199
30.9037 2485 49.8498
31.0212 2435 49.3457
31.1387 2494 49.94
31.2562 2537 50.3686
31.3737 2567 50.6656
31.4912 2391 48.8979
31.6087 2444 49.4368
31.7262 2290 47.8539
31.8436 2312 48.0833
31.9611 2351 48.4871
32.0785 2369 48.6724
32.1959 2342 48.3942
32.3134 2342 48.3942
32.4308 2423 49.224
32.5482 2317 48.1352
32.6655 2227 47.1911
32.7829 2206 46.9681
32.9002 2252 47.4552
33.0176 2236 47.2864
33.1349 2245 47.3814
33.2522 2178 46.669
33.3694 2180 46.6905
33.4867 2201 46.9148
33.6039 2225 47.1699
33.7211 2226 47.1805
33.8383 2137 46.2277
33.9554 2212 47.0319
34.0725 2296 47.9166
34.1896 2277 47.7179
34.3067 2315 48.1144
34.4237 2359 48.5695
34.5407 2247 47.4025
34.6577 2254 47.4763
34.7746 2340 48.3735
34.8915 2216 47.0744
35.0084 2324 48.2079
35.1252 2142 46.2817
35.242 2157 46.4435
35.3587 2076 45.5631
35.4755 2049 45.2659
35.5921 2079 45.5961
35.7088 2126 46.1086
35.8254 2162 46.4973
35.9419 2111 45.9456
36.0584 2128 46.1303
36.1749 2049 45.2659
36.2913 2124 46.0869
36.4077 2030 45.0555
36.524 1970 44.3847
36.6403 1902 43.6119
36.7565 1891 43.4856
36.8727 1774 42.1189
36.9889 1607 40.0874
37.1049 1539 39.2301
37.221 0 1
37.3369 0 1
37.4529 0 1
37.5687 0 1
37.6845 0 1
37.8003 0 1
37.916 0 1
38.0316 0 1
38.1472 0 1
40.5851 0 1
40.7008 0 1
40.8164 0 1
40.9322 0 1
41.048 0 1
41.1639 0 1
41.2798 0 1
41.3958 0 1
41.5118 0 1
41.6279 0 1
41.744 886 29.7658
41.8602 1054 32.4654
41.9765 1144 33.8231
42.0928 1357 36.8375
42.2091 1484 38.5227
42.3255 1580 39.7492
42.4419 1630 40.3733
42.5584 1685 41.0488
42.675 1716 41.4246
42.7915 1765 42.0119
42.9081 1806 42.4971
43.0248 1773 42.107
43.1415 1756 41.9047
43.2582 1775 42.1307
43.375 1642 40.5216
43.4918 1730 41.5933
43.6087 1727 41.5572
43.7256 1650 40.6202
43.8425 1623 40.2865
43.9595 1627 40.3361
44.0765 1646 40.5709
44.1935 1623 40.2865
44.3106 1575 39.6863
44.4277 1525 39.0512
44.5448 1614 40.1746
44.6619 1538 39.2173
44.7791 1605 40.0625
44.8963 1695 41.1704
45.0136 1713 41.3884
45.1308 1770 42.0714
45.2481 1727 41.5572
45.3654 1791 42.3202
45.4827 1866 43.1972
45.6001 1803 42.4617
45.7174 1885 43.4166
45.8348 1819 42.6497
45.9522 1845 42.9535
46.0697 1740 41.7133
46.1871 1714 41.4005
46.3046 1733 41.6293
46.422 1677 40.9512
46.5395 1652 40.6448
46.657 1655 40.6817
46.7745 1622 40.2741
46.892 1610 40.1248
47.0096 1626 40.3237
47.1271 1661 40.7554
47.2446 1659 40.7308
47.3622 1684 41.0366
47.4797 1654 40.6694
47.5973 1719 41.4608
47.7149 1716 41.4246
47.8324 1648 40.5956
47.95 1553 39.4081
48.0675 1483 38.5097
48.1851 1523 39.0256
48.3027 1561 39.5095
48.4202 1626 40.3237
48.5378 1680 40.9878
48.6554 1679 40.9756
48.7729 1717 41.4367
48.8904 1715 41.4126
49.008 1765 42.0119
49.1255 1766 42.0238
49.243 1676 40.939
49.3605 1703 41.2674
49.478 1703 41.2674
49.5955 1675 40.9268
49.713 1564 39.5474
49.8304 1638 40.4722
49.9479 1596 39.95
50.0653 1600 40
50.1827 1534 39.1663
50.3001 1499 38.7169
50.4175 1535 39.1791
50.5348 1583 39.7869
50.6521 1609 40.1123
50.7694 1590 39.8748
50.8867 1545 39.3065
51.004 1576 39.6989
51.1212 1564 39.5474
51.2384 1641 40.5093
51.3556 1649 40.6079
51.4727 1547 39.3319
51.5899 1465 38.2753
51.707 1463 38.2492
51.824 1519 38.9744
51.9411 1560 39.4968
52.0581 1621 40.2616
52.175 1698 41.2068
52.2919 1667 40.8289
52.4088 1589 39.8623
52.5257 1666 40.8167
52.6425 1644 40.5463
52.7593 1712 41.3763
52.876 1734 41.6413
52.9927 1588 39.8497
53.1094 1594 39.9249
53.226 1608 40.0999
53.3426 1553 39.4081
53.4591 1608 40.0999
53.5756 1635 40.4351
53.692 1471 38.3536
53.8084 1470 38.3406
53.9248 1320 36.3318
54.0411 1176 34.2929
54.1573 1070 32.7109
54.2735 0 1
54.3896 0 1
54.5057 0 1
54.6217 0 1
54.7377 0 1
54.8537 0 1
54.9695 0 1
55.0853 0 1
55.2011 0 1
55.3168 0 1
55.4324 0 1
57.824 0 1
57.9396 0 1
58.0553 0 1
58.1711 0 1
58.2869 0 1
58.4028 0 1
58.5187 0 1
58.6347 0 1
58.7508 0 1
58.8669 0 1
58.983 1348 36.7151
59.0992 1500 38.7298
59.2155 1755 41.8927
59.3318 1947 44.1248
59.4482 2131 46.1628
59.5646 2279 47.7389
59.681 2314 48.1041
59.7975 2457 49.5681
59.9141 2583 50.8232
60.0306 2596 50.951
60.1473 2501 50.01
60.2639 2504 50.04
60.3807 2518 50.1797
60.4974 2370 48.6826
60.6142 2391 48.8979
60.731 2481 49.8096
60.8479 2352 48.4974
60.9648 2438 49.3761
61.0818 2421 49.2037
61.1987 2427 49.2646
61.3158 2476 49.7594
61.4328 2416 49.1528
61.5499 2401 49
61.667 2496 49.96
61.7841 2396 48.949
61.9013 2429 49.2849
62.0185 2339 48.3632
62.1357 2271 47.655
62.253 2189 46.7868
62.3702 2131 46.1628
62.4875 2021 44.9555
62.6049 2026 45.0111
62.7222 2151 46.3789
62.8396 2173 46.6154
62.9569 2205 46.9574
63.0743 2148 46.3465
63.1918 2020 44.9444
63.3092 2072 45.5192
63.4267 2151 46.3789
63.5441 2105 45.8803
63.6616 2025 45
63.7791 1983 44.5309
63.8966 1888 43.4511
64.0142 1791 42.3202
64.1317 1891 43.4856
64.2492 1855 43.0697
64.3668 1959 44.2606
64.4843 1994 44.6542
64.6019 1944 44.0908
64.7195 2011 44.8442
64.837 2009 44.8219
64.9546 2033 45.0888
65.0722 2014 44.8776
65.1898 1979 44.486
65.3074 2087 45.6837
65.4249 1999 44.7102
65.5425 2004 44.7661
65.6601 1978 44.4747
65.7777 1831 42.7902
65.8952 1881 43.3705
66.0128 1783 42.2256
66.1304 1879 43.3474
66.2479 1875 43.3013
66.3655 1955 44.2154
66.483 1974 44.4297
66.6005 1951 44.1701
66.718 1971 44.3959
66.8355 1956 44.2267
66.953 2002 44.7437
67.0705 2044 45.2106
67.1879 1998 44.699
67.3054 1928 43.909
67.4228 1898 43.566
67.5402 1786 42.2611
67.6576 1782 42.2137
67.7749 1788 42.2847
67.8923 1824 42.7083
68.0096 1812 42.5676
68.1269 1825 42.72
68.2442 1896 43.5431
68.3614 1863 43.1625
68.4787 1815 42.6028
68.5958 1925 43.8748
68.713 1988 44.587
68.8302 2019 44.9333
68.9473 1974 44.4297
69.0643 1970 44.3847
69.1814 1977 44.4635
69.2984 1981 44.5084
69.4154 1957 44.238
69.5323 1870 43.2435
69.6492 1806 42.4971
69.7661 1735 41.6533
69.8829 1804 42.4735
69.9997 1899 43.5775
70.1165 1896 43.5431
70.2332 1855 43.0697
70.3499 1835 42.8369
70.4665 1763 41.9881
70.5831 1648 40.5956
70.6996 1595 39.9375
70.8161 1479 38.4578
70.9326 1394 37.3363
71.049 1227 35.0286
71.1653 1142 33.7935
71.2817 1014 31.8434
71.3979 914 30.2324
71.5141 861 29.3428
71.6303 702 26.4953
71.7464 679 26.0576
71.8624 0 1
71.9784 0 1
72.0944 0 1
72.2102 0 1
72.3261 0 1
72.4418 0 1
72.5575 0 1
72.6732 0 1
75.1054 0 1
75.2209 0 1
75.3365 0 1
75.4521 0 1
75.5678 0 1
75.6835 0 1
75.7993 0 1
75.9151 0 1
76.031 0 1
76.147 1120 33.4664
76.263 1371 37.027
76.3791 1433 37.855
76.4952 1421 37.6962
76.6113 1450 38.0789
76.7276 1407 37.51
76.8438 1467 38.3014
76.9601 1515 38.923
77.0765 1586 39.8246
77.1929 1533 39.1535
77.3093 1637 40.4599
77.4258 1648 40.5956
77.5423 1731 41.6053
77.6589 1697 41.1947
77.7755 1728 41.5692
77.8921 1748 41.8091
78.0088 1749 41.821
78.1256 1796 42.3792
78.2423 1668 40.8412
78.3591 1656 40.694
78.4759 1637 40.4599
78.5928 1502 38.7556
78.7097 1439 37.9342
78.8266 1451 38.092
78.9436 1476 38.4187
79.0606 1530 39.1152
79.1776 1604 40.05
79.2946 1575 39.6863
79.4117 1699 41.2189
79.5288 1700 41.2311
79.6459 1732 41.6173
79.7631 1692 41.1339
79.8802 1730 41.5933
79.9974 1670 40.8656
80.1147 1610 40.1248
80.2319 1538 39.2173
80.3491 1444 38
80.4664 1469 38.3275
80.5837 1466 38.2884
80.701 1549 39.3573
80.8183 1640 40.4969
80.9357 1659 40.7308
81.053 1656 40.694
81.1704 1754 41.8808
81.2877 1761 41.9643
81.4051 1696 41.1825
81.5225 1800 42.4264
81.6399 1818 42.638
81.7573 1887 43.4396
81.8747 1821 42.6732
81.9922 1815 42.6028
82.1096 1796 42.3792
82.227 1598 39.975
82.3444 1533 39.1535
82.4619 1472 38.3667
82.5793 1628 40.3485
82.6967 1732 41.6173
82.8142 1733 41.6293
82.9316 1800 42.4264
83.049 1775 42.1307
83.1664 1832 42.8019
83.2838 1775 42.1307
83.4012 1882 43.382
83.5186 1827 42.7434
83.636 1750 41.833
83.7534 1721 41.4849
83.8708 1657 40.7063
83.9881 1541 39.2556
84.1055 1508 38.833
84.2228 1499 38.7169
84.3401 1591 39.8873
84.4575 1600 40
84.5747 1652 40.6448
84.692 1731 41.6053
84.8093 1810 42.5441
84.9265 1835 42.8369
85.0437 1747 41.7971
85.1609 1836 42.8486
85.2781 1913 43.7379
85.3952 1906 43.6578
85.5123 1857 43.0929
85.6294 1757 41.9166
85.7465 1722 41.497
85.8636 1596 39.95
85.9806 1494 38.6523
86.0976 1548 39.3446
86.2145 1668 40.8412
86.3315 1783 42.2256
86.4484 1719 41.4608
86.5652 1765 42.0119
86.682 1848 42.9884
86.7988 1858 43.1045
86.9156 1807 42.5088
87.0323 1894 43.5201
87.149 1726 41.5452
87.2657 1759 41.9404
87.3823 1715 41.4126
87.4988 1669 40.8534
87.6154 1493 38.6394
87.7318 1464 38.2623
87.8483 1417 37.6431
87.9647 1435 37.8814
88.081 1435 37.8814
88.1973 1356 36.8239
88.3136 1253 35.3977
88.4298 1189 34.4819
88.546 1212 34.8138
88.6621 1083 32.909
88.7781 1081 32.8786
88.8942 0 1
89.0101 0 1
89.126 0 1
89.2419 0 1
89.3577 0 1
89.4734 0 1
89.5891 0 1
89.7047 0 1
89.8203 0 1
89.9358 0 1
92.3269 0 1
92.4424 0 1
92.558 0 1
92.6736 0 1
92.7893 0 1
92.905 0 1
93.0208 0 1
93.1366 0 1
93.2525 0 1
93.3685 0 1
93.4845 0 1
93.6005 1331 36.4829
93.7167 1457 38.1707
93.8328 1551 39.3827
93.949 1659 40.7308
94.0653 1677 40.9512
94.1816 1755 41.8927
94.2979 1757 41.9166
94.4143 1778 42.1663
94.5307 1819 42.6497
94.6472 1879 43.3474
94.7637 1828 42.7551
94.8803 1773 42.107
94.9969 1651 40.6325
95.1135 1593 39.9124
95.2302 1663 40.7799
95.3469 1677 40.9512
95.4637 1702 41.2553
95.5805 1751 41.845
95.6973 1804 42.4735
95.8142 1827 42.7434
95.9311 1838 42.8719
96.048 1823 42.6966
96.1649 1736 41.6653
96.2819 1815 42.6028
96.3989 1798 42.4028
96.516 1720 41.4729
96.633 1685 41.0488
96.7501 1662 40.7676
96.8673 1604 40.05
96.9844 1680 40.9878
97.1016 1687 41.0731
97.2188 1808 42.5206
97.336 1774 42.1189
97.4532 1821 42.6732
97.5704 1848 42.9884
97.6877 1853 43.0465
97.805 1938 44.0227
97.9223 1995 44.6654
98.0396 1875 43.3013
98.1569 1911 43.715
98.2743 1888 43.4511
98.3916 1876 43.3128
98.509 1770 42.0714
98.6264 1685 41.0488
98.7438 1669 40.8534
98.8612 1739 41.7013
98.9786 1774 42.1189
99.096 1917 43.7836
99.2134 1933 43.9659
99.3308 1991 44.6206
99.4482 1897 43.5546
99.5656 2008 44.8107
99.6831 1932 43.9545
99.8005 1953 44.1928
99.9179 1949 44.1475
100.035 1836 42.8486
100.153 1769 42.0595
100.27 1731 41.6053
100.388 1795 42.3674
100.505 1851 43.0232
100.622 1787 42.2729
100.74 1882 43.382
100.857 1798 42.4028
100.975 1856 43.0813
101.092 1911 43.715
101.209 1950 44.1588
101.327 2044 45.2106
101.444 2006 44.7884
101.561 2054 45.3211
101.679 2108 45.913
101.796 2008 44.8107
101.913 2019 44.9333
102.03 1935 43.9886
102.148 1886 43.4281
102.265 1862 43.1509
102.382 1839 42.8836
102.499 2001 44.7325
102.616 2039 45.1553
102.733 2017 44.911
102.851 2054 45.3211
102.968 2208 46.9894
103.085 2069 45.4863
103.202 2135 46.2061
103.319 2101 45.8367
103.436 2014 44.8776
103.552 2020 44.9444
103.669 1945 44.1022
103.786 1845 42.9535
103.903 1819 42.6497
104.02 1947 44.1248
104.137 2005 44.7772
104.253 2054 45.3211
104.37 1970 44.3847
104.487 2063 45.4203
104.603 2023 44.9778
104.72 1981 44.5084
104.836 2034 45.0999
104.953 1969 44.3734
105.069 1981 44.5084
105.186 1861 43.1393
105.302 1857 43.0929
105.418 1671 40.8779
105.535 1583 39.7869
105.651 1442 37.9737
105.767 1276 35.7211
105.883 1274 35.6931
105.999 1107 33.2716
106.115 0 1
106.231 0 1
106.347 0 1
106.463 0 1
106.579 0 1
106.694 0 1
106.81 0 1
106.926 0 1
107.041 0 1
107.157 0 1
109.576 0 1
109.692 0 1
109.807 0 1
109.923 0 1
110.039 0 1
110.155 0 1
110.27 0 1
110.386 0 1
110.502 0 1
110.618 1008 31.749
110.735 1110 33.3167
110.851 1168 34.176
110.967 1314 36.2491
111.083 1480 38.4708
111.199 1551 39.3827
111.316 1695 41.1704
111.432 1818 42.638
111.549 1884 43.4051
111.665 1936 44
111.782 1963 44.3058
111.898 1935 43.9886
112.015 1899 43.5775
112.132 1837 42.8602
112.248 1741 41.7253
112.365 1690 41.1096
112.482 1681 41
112.599 1729 41.5812
112.716 1741 41.7253
112.832 1804 42.4735
112.949 1789 42.2966
113.066 1768 42.0476
113.183 1776 42.1426
113.3 1833 42.8135
113.417 1836 42.8486
113.534 1847 42.9767
113.652 1873 43.2782
113.769 1909 43.6921
113.886 1888 43.4511
114.003 1902 43.6119
114.12 1856 43.0813
114.238 1722 41.497
114.355 1681 41
114.472 1676 40.939
114.589 1644 40.5463
114.707 1750 41.833
114.824 1750 41.833
114.942 1824 42.7083
115.059 1777 42.1545
115.176 1806 42.4971
115.294 1895 43.5316
115.411 1822 42.6849
115.529 1776 42.1426
115.646 1686 41.0609
115.764 1576 39.6989
115.881 1505 38.7943
115.999 1584 39.7995
116.116 1555 39.4335
116.234 1651 40.6325
116.351 1749 41.821
116.469 1781 42.2019
116.586 1673 40.9023
116.704 1585 39.8121
116.821 1734 41.6413
116.939 1593 39.9124
117.056 1802 42.45
117.174 1745 41.7732
117.291 1816 42.6146
117.409 1836 42.8486
117.526 1754 41.8808
117.644 1719 41.4608
117.761 1636 40.4475
117.879 1585 39.8121
117.996 1504 38.7814
118.114 1507 38.8201
118.231 1588 39.8497
118.349 1655 40.6817
118.466 1763 41.9881
118.584 1696 41.1825
118.701 1714 41.4005
118.819 1689 41.0974
118.936 1614 40.1746
119.053 1605 40.0625
119.171 1614 40.1746
119.288 1491 38.6135
119.405 1393 37.3229
119.523 1421 37.6962
119.64 1433 37.855
119.757 1568 39.598
119.875 1608 40.0999
119.992 1648 40.5956
120.109 1637 40.4599
120.226 1548 39.3446
120.343 1541 39.2556
120.46 1572 39.6485
120.578 1566 39.5727
120.695 1562 39.5221
120.812 1611 40.1373
120.929 1646 40.5709
121.046 1637 40.4599
121.163 1566 39.5727
121.279 1602 40.025
121.396 1485 38.5357
121.513 1387 37.2424
121.63 1431 37.8286
121.747 1339 36.5923
121.863 1310 36.1939
121.98 1404 37.47
122.097 1411 37.5633
122.213 1349 36.7287
122.33 1379 37.1349
122.446 1324 36.3868
122.563 1218 34.8999
122.679 1161 34.0735
122.795 1078 32.8329
122.912 963 31.0322
123.028 837 28.931
123.144 735 27.1109
123.26 781 27.9464
123.377 0 1
123.493 0 1
123.609 0 1
123.725 0 1
123.84 0 1
123.956 0 1
124.072 0 1
124.188 0 1
124.303 0 1
124.419 0 1
126.852 0 1
126.968 0 1
127.083 0 1
127.199 0 1
127.315 0 1
127.431 0 1
127.547 0 1
127.663 0 1
127.779 0 1
127.895 0 1
128.011 0 1
128.127 0 1
128.243 0 1
128.359 1591 39.8873
128.476 1574 39.6737
128.592 1605 40.0625
128.708 1797 42.391
128.825 1760 41.9524
128.941 1850 43.0116
129.058 1866 43.1972
129.174 1850 43.0116
129.291 1875 43.3013
129.408 1876 43.3128
129.524 1953 44.1928
129.641 1893 43.5086
129.758 2054 45.3211
129.875 2149 46.3573
129.992 2023 44.9778
130.108 1920 43.8178
130.225 1968 44.3621
130.342 2120 46.0435
130.459 2477 49.7695
130.576 3144 56.0714
130.693 3349 57.8705
130.81 3531 59.4222
130.928 3680 60.663
131.045 3736 61.1228
131.162 3789 61.5549
131.279 3728 61.0574
131.396 3527 59.3886
131.513 3573 59.7746
131.631 3192 56.4978
131.748 3177 56.3649
131.865 3096 55.6417
131.983 3023 54.9818
132.1 2983 54.6168
132.217 2992 54.6992
132.335 3106 55.7315
132.452 3131 55.9553
132.57 3322 57.6368
132.687 3339 57.7841
132.804 3418 58.4637
132.922 3362 57.9828
133.039 3488 59.0593
133.157 3428 58.5491
133.274 3511 59.2537
133.392 3436 58.6174
133.509 3594 59.95
133.627 3450 58.7367
133.744 3222 56.7627
133.862 3191 56.4889
133.979 3131 55.9553
134.097 3017 54.9272
134.214 3001 54.7814
134.332 3001 54.7814
134.449 3052 55.2449
134.567 3285 57.3149
134.684 3391 58.2323
134.802 3594 59.95
134.919 3471 58.9152
135.037 3480 58.9915
135.154 3348 57.8619
135.272 3280 57.2713
135.389 3228 56.8155
135.507 3124 55.8928
135.624 3331 57.7148
135.742 3487 59.0508
135.859 3406 58.3609
135.977 3590 59.9166
136.094 3626 60.2163
136.211 3613 60.1082
136.329 3718 60.9754
136.446 3640 60.3324
136.564 3616 60.1332
136.681 3701 60.8358
136.798 3752 61.2536
136.915 3754 61.2699
137.033 3730 61.0737
137.15 3767 61.3759
137.267 3785 61.5224
137.384 3670 60.5805
137.502 3476 58.9576
137.619 3453 58.7622
137.736 3304 57.4804
137.853 3122 55.8749
137.97 3265 57.1402
138.087 3234 56.8683
138.204 3237 56.8946
138.321 3523 59.3549
138.438 3683 60.6877
138.555 3810 61.7252
138.672 3773 61.4248
138.788 3623 60.1914
138.905 3442 58.6686
139.022 3394 58.258
139.139 3085 55.5428
139.255 3061 55.3263
139.372 3136 56
139.488 3131 55.9553
139.605 3120 55.857
139.721 3025 55
139.838 2825 53.1507
139.954 2714 52.0961
140.071 2465 49.6488
140.187 2474 49.7393
140.303 2391 48.8979
140.419 2338 48.3529
140.535 2337 48.3425
140.652 2182 46.7119
140.768 0 1
140.884 0 1
141 0 1
141.115 0 1
141.231 0 1
141.347 0 1
141.463 0 1
141.578 0 1
141.694 0 1
144.104 0 1
144.219 0 1
144.335 0 1
144.45 0 1
144.566 0 1
144.682 0 1
144.798 0 1
144.914 0 1
145.03 0 1
145.146 7240 85.0882
145.262 7425 86.1684
145.378 7640 87.4071
145.494 7520 86.7179
145.61 7237 85.0706
145.726 7276 85.2995
145.842 7163 84.6345
145.959 7126 84.4156
146.075 6966 83.4626
146.192 6882 82.9578
146.308 6831 82.6499
146.425 6606 81.2773
146.541 6588 81.1665
146.658 6498 80.6102
146.774 6536 80.8455
146.891 6712 81.9268
147.008 7079 84.1368
147.125 7074 84.1071
147.241 6992 83.6182
147.358 7188 84.7821
147.475 6807 82.5045
147.592 6378 79.8624
147.709 5772 75.9737
147.826 5636 75.0733
147.943 5683 75.3857
148.06 5728 75.6836
148.177 5948 77.1233
148.294 6051 77.7882
148.411 6312 79.4481
148.528 6276 79.2212
148.645 6386 79.9125
148.762 6552 80.9444
148.88 6356 79.7245
148.997 6652 81.5598
149.114 6260 79.1202
149.231 6339 79.6178
149.349 6483 80.5171
149.466 6243 79.0127
149.583 6335 79.5927
149.701 6404 80.025
149.818 6270 79.1833
149.935 6197 78.721
150.053 6029 77.6466
150.17 5779 76.0197
150.287 5737 75.743
150.405 5730 75.6968
150.522 5777 76.0066
150.64 5825 76.3217
150.757 5867 76.5963
150.875 5966 77.2399
150.992 5978 77.3175
151.11 5826 76.3282
151.227 5482 74.0405
151.344 5164 71.861
151.462 4519 67.2235
151.579 4328 65.7875
151.697 4558 67.513
151.814 4890 69.9285
151.932 5228 72.3049
152.049 5667 75.2795
152.167 5986 77.3692
152.284 6510 80.6846
152.402 6551 80.9382
152.519 6816 82.5591
152.636 7065 84.0536
152.754 7359 85.7846
152.871 7663 87.5386
152.989 7829 88.4816
153.106 8144 90.2441
153.223 8468 92.0217
153.341 8855 94.101
153.458 9000 94.8683
153.575 9652 98.2446
153.693 9853 99.2623
153.81 10254 101.262
153.927 10730 103.586
154.044 11003 104.895
154.162 11420 106.864
154.279 12066 109.845
154.396 12243 110.648
154.513 12658 112.508
154.63 13039 114.188
154.747 13171 114.765
154.864 11866 108.931
154.981 7575 87.0345
155.098 6815 82.553
155.215 10720 103.537
155.332 13525 116.297
155.449 14320 119.666
155.566 14876 121.967
155.683 15650 125.1
155.8 15707 125.328
155.917 15446 124.282
156.033 15512 124.547
156.15 0 1
156.267 0 1
156.383 0 1
156.5 0 1
156.617 0 1
156.733 0 1
156.85 0 1
156.966 0 1
157.082 0 1
157.199 0 1
157.315 0 1
157.431 0 1
157.547 0 1
157.664 0 1
157.78 0 1
157.896 0 1
158.012 0 1
158.128 0 1
158.244 0 1
158.359 0 1
158.475 0 1
158.591 0 1
158.706 0 1
