
6.15755 0 1
6.2731 0 1
6.3887 0 1
6.50437 0 1
6.62009 0 1
6.73587 0 1
6.8517 0 1
6.96759 0 1
7.08353 0 1
7.19952 0 1
7.31557 0 1
7.43166 0 1
7.54781 0 1
7.664 0 1
7.78024 0 1
7.89653 0 1
8.01286 0 1
8.12924 0 1
8.24567 0 1
8.36213 0 1
8.47864 0 1
8.59519 0 1
8.71178 0 1
8.82841 0 1
8.94508 0 1
9.06179 0 1
9.17853 0 1
9.29531 0 1
9.41212 0 1
9.52897 0 1
9.64584 0 1
9.76276 0 1
9.8797 0 1
9.99667 0 1
10.1137 0 1
10.2307 0 1
10.3478 0 1
10.4648 0 1
10.5819 0 1
10.6991 0 1
10.8162 0 1
10.9334 0 1
11.0506 0 1
11.1678 0 1
11.285 0 1
11.4023 0 1
11.5196 0 1
11.6369 0 1
11.7542 0 1
11.8715 0 1
11.9888 0 1
12.1062 0 1
12.2235 0 1
12.3409 0 1
12.4582 0 1
12.5756 0 1
12.693 0 1
12.8104 0 1
12.9278 0 1
13.0452 0 1
13.1626 0 1
13.28 0 1
13.3974 0 1
13.5149 0 1
13.6323 0 1
13.7497 0 1
13.8671 0 1
13.9845 0 1
14.1019 0 1
14.2193 0 1
14.3367 0 1
14.4541 0 1
14.5714 0 1
14.6888 0 1
14.8062 0 1
14.9235 0 1
15.0408 0 0
15.1581 0 0
15.2755 0 0
15.3927 0 0
15.51 0 0
15.6273 0 0
15.7445 0 0
15.8617 0 0
15.9789 0 0
16.0961 0 0
16.2132 0 0
16.3304 0 0
16.4475 0 0
16.5646 0 0
16.6816 0 0
16.7986 0 0
16.9156 0 0
17.0326 0 0
17.1496 0 0
17.2665 0 0
17.3833 0 0
17.5002 0 0
17.617 0 0
17.7338 0 0
17.8505 0 0
17.9672 0 0
18.0839 0 0
18.2005 0 0
18.3171 0 0
18.4337 0 0
18.5502 0 0
18.6666 0 0
18.7831 0 0
18.8994 0 0
19.0158 0 0
19.1321 0 0
19.2483 0 0
19.3645 0 0
19.4806 0 0
19.5967 0 0
19.7128 0 0
19.8288 0 0
19.9447 0 0
20.0606 0 1
20.1764 0 1
20.2922 0 1
20.4079 0 1
20.5236 0 1
20.6392 0 1
20.7548 0 1
20.8702 0 1
23.3078 0 1
23.4233 0 1
23.539 0 1
23.6547 0 1
23.7704 0 1
23.8862 0 1
24.0021 0 1
24.118 0 1
24.234 0 1
24.35 0 1
24.4661 436 20.8806
24.5822 404 20.0998
24.6984 406 20.1494
24.8146 398 19.9499
24.9309 424 20.5913
25.0472 429 20.7123
25.1636 442 21.0238
25.28 454 21.3073
25.3965 445 21.095
25.513 482 21.9545
25.6296 431 20.7605
25.7462 456 21.3542
25.8628 461 21.4709
25.9795 484 22
26.0962 438 20.9284
26.213 470 21.6795
26.3298 444 21.0713
26.4466 441 21
26.5635 476 21.8174
26.6804 458 21.4009
26.7973 440 20.9762
26.9143 422 20.5426
27.0313 396 19.8997
27.1483 365 19.105
27.2653 396 19.8997
27.3824 383 19.5704
27.4996 428 20.6882
27.6167 414 20.347
27.7339 389 19.7231
27.8511 417 20.4206
27.9683 374 19.3391
28.0855 399 19.975
28.2028 425 20.6155
28.3201 379 19.4679
28.4374 410 20.2485
28.5547 408 20.199
28.6721 431 20.7605
28.7894 387 19.6723
28.9068 405 20.1246
29.0242 451 21.2368
29.1416 446 21.1187
29.259 476 21.8174
29.3764 385 19.6214
29.4939 428 20.6882
29.6113 420 20.4939
29.7288 425 20.6155
29.8463 418 20.445
29.9638 447 21.1424
30.0812 391 19.7737
30.1987 411 20.2731
30.3162 429 20.7123
30.4337 390 19.7484
30.5512 367 19.1572
30.6687 376 19.3907
30.7862 333 18.2483
30.9037 376 19.3907
31.0212 378 19.4422
31.1387 420 20.4939
31.2562 374 19.3391
31.3737 387 19.6723
31.4912 344 18.5472
31.6087 385 19.6214
31.7262 385 19.6214
31.8436 386 19.6469
31.9611 372 19.2873
32.0785 392 19.799
32.1959 409 20.2237
32.3134 395 19.8746
32.4308 442 21.0238
32.5482 375 19.3649
32.6655 388 19.6977
32.7829 426 20.6398
32.9002 399 19.975
33.0176 386 19.6469
33.1349 436 20.8806
33.2522 413 20.3224
33.3694 399 19.975
33.4867 386 19.6469
33.6039 420 20.4939
33.7211 419 20.4695
33.8383 362 19.0263
33.9554 386 19.6469
34.0725 403 20.0749
34.1896 354 18.8149
34.3067 368 19.1833
34.4237 342 18.4932
34.5407 393 19.8242
34.6577 389 19.7231
34.7746 392 19.799
34.8915 360 18.9737
35.0084 373 19.3132
35.1252 353 18.7883
35.242 348 18.6548
35.3587 349 18.6815
35.4755 343 18.5203
35.5921 407 20.1742
35.7088 364 19.0788
35.8254 420 20.4939
35.9419 379 19.4679
36.0584 401 20.025
36.1749 385 19.6214
36.2913 437 20.9045
36.4077 397 19.9249
36.524 412 20.2978
36.6403 400 20
36.7565 403 20.0749
36.8727 391 19.7737
36.9889 402 20.0499
37.1049 391 19.7737
37.221 0 1
37.3369 0 1
37.4529 0 1
37.5687 0 1
37.6845 0 1
37.8003 0 1
37.916 0 1
38.0316 0 1
38.1472 0 1
40.5851 0 1
40.7008 0 1
40.8164 0 1
40.9322 0 1
41.048 0 1
41.1639 0 1
41.2798 0 1
41.3958 0 1
41.5118 0 1
41.6279 0 1
41.744 324 18
41.8602 351 18.735
41.9765 346 18.6011
42.0928 320 17.8885
42.2091 352 18.7617
42.3255 327 18.0831
42.4419 315 17.7482
42.5584 321 17.9165
42.675 367 19.1572
42.7915 351 18.735
42.9081 304 17.4356
43.0248 298 17.2627
43.1415 268 16.3707
43.2582 288 16.9706
43.375 323 17.9722
43.4918 308 17.5499
43.6087 299 17.2916
43.7256 283 16.8226
43.8425 265 16.2788
43.9595 276 16.6132
44.0765 267 16.3401
44.1935 314 17.72
44.3106 303 17.4069
44.4277 330 18.1659
44.5448 319 17.8606
44.6619 289 17
44.7791 332 18.2209
44.8963 316 17.7764
45.0136 307 17.5214
45.1308 275 16.5831
45.2481 293 17.1172
45.3654 263 16.2173
45.4827 300 17.3205
45.6001 266 16.3095
45.7174 287 16.9411
45.8348 256 16
45.9522 261 16.1555
46.0697 276 16.6132
46.1871 279 16.7033
46.3046 304 17.4356
46.422 270 16.4317
46.5395 289 17
46.657 242 15.5563
46.7745 209 14.4568
46.892 210 14.4914
47.0096 237 15.3948
47.1271 254 15.9374
47.2446 239 15.4596
47.3622 219 14.7986
47.4797 236 15.3623
47.5973 216 14.6969
47.7149 227 15.0665
47.8324 216 14.6969
47.95 229 15.1327
48.0675 223 14.9332
48.1851 205 14.3178
48.3027 233 15.2643
48.4202 236 15.3623
48.5378 241 15.5242
48.6554 236 15.3623
48.7729 231 15.1987
48.8904 232 15.2315
49.008 233 15.2643
49.1255 216 14.6969
49.243 208 14.4222
49.3605 227 15.0665
49.478 236 15.3623
49.5955 229 15.1327
49.713 240 15.4919
49.8304 201 14.1774
49.9479 227 15.0665
50.0653 223 14.9332
50.1827 217 14.7309
50.3001 187 13.6748
50.4175 190 13.784
50.5348 204 14.2829
50.6521 210 14.4914
50.7694 216 14.6969
50.8867 244 15.6205
51.004 226 15.0333
51.1212 259 16.0935
51.2384 217 14.7309
51.3556 240 15.4919
51.4727 283 16.8226
51.5899 272 16.4924
51.707 293 17.1172
51.824 276 16.6132
51.9411 259 16.0935
52.0581 261 16.1555
52.175 304 17.4356
52.2919 313 17.6918
52.4088 309 17.5784
52.5257 278 16.6733
52.6425 315 17.7482
52.7593 333 18.2483
52.876 307 17.5214
52.9927 308 17.5499
53.1094 322 17.9444
53.226 316 17.7764
53.3426 313 17.6918
53.4591 297 17.2337
53.5756 277 16.6433
53.692 301 17.3494
53.8084 316 17.7764
53.9248 260 16.1245
54.0411 235 15.3297
54.1573 246 15.6844
54.2735 0 1
54.3896 0 1
54.5057 0 1
54.6217 0 1
54.7377 0 1
54.8537 0 1
54.9695 0 1
55.0853 0 1
55.2011 0 1
55.3168 0 1
55.4324 0 1
57.824 0 1
57.9396 0 1
58.0553 0 1
58.1711 0 1
58.2869 0 1
58.4028 0 1
58.5187 0 1
58.6347 0 1
58.7508 0 1
58.8669 0 1
58.983 340 18.4391
59.0992 357 18.8944
59.2155 303 17.4069
59.3318 309 17.5784
59.4482 300 17.3205
59.5646 318 17.8326
59.681 345 18.5742
59.7975 298 17.2627
59.9141 300 17.3205
60.0306 330 18.1659
60.1473 349 18.6815
60.2639 389 19.7231
60.3807 307 17.5214
60.4974 335 18.303
60.6142 338 18.3848
60.731 295 17.1756
60.8479 307 17.5214
60.9648 329 18.1384
61.0818 313 17.6918
61.1987 323 17.9722
61.3158 307 17.5214
61.4328 290 17.0294
61.5499 351 18.735
61.667 312 17.6635
61.7841 308 17.5499
61.9013 323 17.9722
62.0185 321 17.9165
62.1357 315 17.7482
62.253 294 17.1464
62.3702 277 16.6433
62.4875 245 15.6525
62.6049 278 16.6733
62.7222 254 15.9374
62.8396 258 16.0624
62.9569 277 16.6433
63.0743 277 16.6433
63.1918 276 16.6132
63.3092 270 16.4317
63.4267 281 16.7631
63.5441 262 16.1864
63.6616 275 16.5831
63.7791 301 17.3494
63.8966 326 18.0555
64.0142 299 17.2916
64.1317 304 17.4356
64.2492 267 16.3401
64.3668 270 16.4317
64.4843 318 17.8326
64.6019 288 16.9706
64.7195 258 16.0624
64.837 304 17.4356
64.9546 287 16.9411
65.0722 264 16.2481
65.1898 250 15.8114
65.3074 292 17.088
65.4249 264 16.2481
65.5425 236 15.3623
65.6601 238 15.4272
65.7777 303 17.4069
65.8952 268 16.3707
66.0128 258 16.0624
66.1304 250 15.8114
66.2479 235 15.3297
66.3655 239 15.4596
66.483 214 14.6287
66.6005 213 14.5945
66.718 248 15.748
66.8355 237 15.3948
66.953 252 15.8745
67.0705 280 16.7332
67.1879 251 15.843
67.3054 261 16.1555
67.4228 274 16.5529
67.5402 251 15.843
67.6576 254 15.9374
67.7749 268 16.3707
67.8923 248 15.748
68.0096 255 15.9687
68.1269 268 16.3707
68.2442 285 16.8819
68.3614 255 15.9687
68.4787 260 16.1245
68.5958 237 15.3948
68.713 232 15.2315
68.8302 237 15.3948
68.9473 246 15.6844
69.0643 211 14.5258
69.1814 279 16.7033
69.2984 239 15.4596
69.4154 234 15.2971
69.5323 254 15.9374
69.6492 219 14.7986
69.7661 233 15.2643
69.8829 215 14.6629
69.9997 189 13.7477
70.1165 203 14.2478
70.2332 212 14.5602
70.3499 206 14.3527
70.4665 235 15.3297
70.5831 215 14.6629
70.6996 236 15.3623
70.8161 236 15.3623
70.9326 232 15.2315
71.049 219 14.7986
71.1653 212 14.5602
71.2817 239 15.4596
71.3979 202 14.2127
71.5141 222 14.8997
71.6303 224 14.9666
71.7464 191 13.8203
71.8624 0 1
71.9784 0 1
72.0944 0 1
72.2102 0 1
72.3261 0 1
72.4418 0 1
72.5575 0 1
72.6732 0 1
75.1054 0 1
75.2209 0 1
75.3365 0 1
75.4521 0 1
75.5678 0 1
75.6835 0 1
75.7993 0 1
75.9151 0 1
76.031 0 1
76.147 167 12.9228
76.263 180 13.4164
76.3791 203 14.2478
76.4952 189 13.7477
76.6113 186 13.6382
76.7276 173 13.1529
76.8438 158 12.5698
76.9601 193 13.8924
77.0765 158 12.5698
77.1929 169 13
77.3093 168 12.9615
77.4258 169 13
77.5423 160 12.6491
77.6589 144 12
77.7755 148 12.1655
77.8921 167 12.9228
78.0088 151 12.2882
78.1256 156 12.49
78.2423 154 12.4097
78.3591 175 13.2288
78.4759 153 12.3693
78.5928 152 12.3288
78.7097 128 11.3137
78.8266 143 11.9583
78.9436 134 11.5758
79.0606 123 11.0905
79.1776 106 10.2956
79.2946 110 10.4881
79.4117 101 10.0499
79.5288 116 10.7703
79.6459 117 10.8167
79.7631 141 11.8743
79.8802 132 11.4891
79.9974 117 10.8167
80.1147 99 9.94987
80.2319 110 10.4881
80.3491 127 11.2694
80.4664 108 10.3923
80.5837 108 10.3923
80.701 113 10.6301
80.8183 98 9.89949
80.9357 103 10.1489
81.053 101 10.0499
81.1704 94 9.69536
81.2877 87 9.32738
81.4051 99 9.94987
81.5225 75 8.66025
81.6399 76 8.7178
81.7573 92 9.59166
81.8747 79 8.88819
81.9922 76 8.7178
82.1096 76 8.7178
82.227 57 7.54983
82.3444 74 8.60233
82.4619 69 8.30662
82.5793 54 7.34847
82.6967 55 7.4162
82.8142 54 7.34847
82.9316 55 7.4162
83.049 59 7.68115
83.1664 50 7.07107
83.2838 66 8.12404
83.4012 48 6.9282
83.5186 53 7.28011
83.636 38 6.16441
83.7534 45 6.7082
83.8708 43 6.55744
83.9881 32 5.65685
84.1055 40 6.32456
84.2228 28 5.2915
84.3401 44 6.63325
84.4575 26 5.09902
84.5747 30 5.47723
84.692 46 6.78233
84.8093 34 5.83095
84.9265 23 4.79583
85.0437 27 5.19615
85.1609 31 5.56776
85.2781 21 4.58258
85.3952 26 5.09902
85.5123 27 5.19615
85.6294 27 5.19615
85.7465 33 5.74456
85.8636 28 5.2915
85.9806 31 5.56776
86.0976 21 4.58258
86.2145 27 5.19615
86.3315 24 4.89898
86.4484 34 5.83095
86.5652 25 5
86.682 51 7.14143
86.7988 41 6.40312
86.9156 42 6.48074
87.0323 46 6.78233
87.149 48 6.9282
87.2657 61 7.81025
87.3823 47 6.85565
87.4988 36 6
87.6154 50 7.07107
87.7318 69 8.30662
87.8483 53 7.28011
87.9647 56 7.48331
88.081 63 7.93725
88.1973 72 8.48528
88.3136 68 8.24621
88.4298 72 8.48528
88.546 71 8.42615
88.6621 67 8.18535
88.7781 78 8.83176
88.8942 0 1
89.0101 0 1
89.126 0 1
89.2419 0 1
89.3577 0 1
89.4734 0 1
89.5891 0 1
89.7047 0 1
89.8203 0 1
89.9358 0 1
92.3269 0 1
92.4424 0 1
92.558 0 1
92.6736 0 1
92.7893 0 1
92.905 0 1
93.0208 0 1
93.1366 0 1
93.2525 0 1
93.3685 0 1
93.4845 0 1
93.6005 128 11.3137
93.7167 113 10.6301
93.8328 132 11.4891
93.949 109 10.4403
94.0653 120 10.9545
94.1816 111 10.5357
94.2979 107 10.3441
94.4143 114 10.6771
94.5307 102 10.0995
94.6472 111 10.5357
94.7637 103 10.1489
94.8803 79 8.88819
94.9969 82 9.05539
95.1135 91 9.53939
95.2302 106 10.2956
95.3469 86 9.27362
95.4637 63 7.93725
95.5805 74 8.60233
95.6973 88 9.38083
95.8142 122 11.0454
95.9311 120 10.9545
96.048 101 10.0499
96.1649 128 11.3137
96.2819 114 10.6771
96.3989 111 10.5357
96.516 113 10.6301
96.633 136 11.6619
96.7501 139 11.7898
96.8673 145 12.0416
96.9844 134 11.5758
97.1016 131 11.4455
97.2188 135 11.619
97.336 137 11.7047
97.4532 155 12.4499
97.5704 168 12.9615
97.6877 158 12.5698
97.805 167 12.9228
97.9223 161 12.6886
98.0396 165 12.8452
98.1569 172 13.1149
98.2743 162 12.7279
98.3916 161 12.6886
98.509 192 13.8564
98.6264 180 13.4164
98.7438 174 13.1909
98.8612 180 13.4164
98.9786 161 12.6886
99.096 124 11.1355
99.2134 125 11.1803
99.3308 185 13.6015
99.4482 208 14.4222
99.5656 207 14.3875
99.6831 200 14.1421
99.8005 233 15.2643
99.9179 233 15.2643
100.035 206 14.3527
100.153 248 15.748
100.27 212 14.5602
100.388 225 15
100.505 238 15.4272
100.622 235 15.3297
100.74 235 15.3297
100.857 228 15.0997
100.975 245 15.6525
101.092 287 16.9411
101.209 256 16
101.327 242 15.5563
101.444 254 15.9374
101.561 226 15.0333
101.679 274 16.5529
101.796 233 15.2643
101.913 264 16.2481
102.03 251 15.843
102.148 233 15.2643
102.265 281 16.7631
102.382 240 15.4919
102.499 248 15.748
102.616 187 13.6748
102.733 170 13.0384
102.851 251 15.843
102.968 260 16.1245
103.085 238 15.4272
103.202 278 16.6733
103.319 292 17.088
103.436 251 15.843
103.552 267 16.3401
103.669 265 16.2788
103.786 299 17.2916
103.903 265 16.2788
104.02 271 16.4621
104.137 255 15.9687
104.253 255 15.9687
104.37 292 17.088
104.487 250 15.8114
104.603 284 16.8523
104.72 281 16.7631
104.836 250 15.8114
104.953 287 16.9411
105.069 285 16.8819
105.186 297 17.2337
105.302 282 16.7929
105.418 279 16.7033
105.535 286 16.9115
105.651 263 16.2173
105.767 252 15.8745
105.883 261 16.1555
105.999 255 15.9687
106.115 0 1
106.231 0 1
106.347 0 1
106.463 0 1
106.579 0 1
106.694 0 1
106.81 0 1
106.926 0 1
107.041 0 1
107.157 0 1
109.576 0 1
109.692 0 1
109.807 0 1
109.923 0 1
110.039 0 1
110.155 0 1
110.27 0 1
110.386 0 1
110.502 0 1
110.618 210 14.4914
110.735 233 15.2643
110.851 204 14.2829
110.967 208 14.4222
111.083 208 14.4222
111.199 164 12.8062
111.316 161 12.6886
111.432 176 13.2665
111.549 191 13.8203
111.665 196 14
111.782 200 14.1421
111.898 207 14.3875
112.015 203 14.2478
112.132 192 13.8564
112.248 196 14
112.365 185 13.6015
112.482 183 13.5277
112.599 163 12.7671
112.716 201 14.1774
112.832 189 13.7477
112.949 180 13.4164
113.066 169 13
113.183 190 13.784
113.3 154 12.4097
113.417 188 13.7113
113.534 182 13.4907
113.652 157 12.53
113.769 163 12.7671
113.886 155 12.4499
114.003 174 13.1909
114.12 152 12.3288
114.238 163 12.7671
114.355 163 12.7671
114.472 130 11.4018
114.589 157 12.53
114.707 129 11.3578
114.824 134 11.5758
114.942 129 11.3578
115.059 149 12.2066
115.176 155 12.4499
115.294 144 12
115.411 145 12.0416
115.529 151 12.2882
115.646 146 12.083
115.764 162 12.7279
115.881 140 11.8322
115.999 133 11.5326
116.116 136 11.6619
116.234 140 11.8322
116.351 172 13.1149
116.469 151 12.2882
116.586 163 12.7671
116.704 141 11.8743
116.821 125 11.1803
116.939 127 11.2694
117.056 134 11.5758
117.174 145 12.0416
117.291 141 11.8743
117.409 148 12.1655
117.526 152 12.3288
117.644 151 12.2882
117.761 145 12.0416
117.879 119 10.9087
117.996 112 10.583
118.114 123 11.0905
118.231 110 10.4881
118.349 136 11.6619
118.466 157 12.53
118.584 134 11.5758
118.701 141 11.8743
118.819 147 12.1244
118.936 143 11.9583
119.053 146 12.083
119.171 155 12.4499
119.288 162 12.7279
119.405 142 11.9164
119.523 170 13.0384
119.64 143 11.9583
119.757 135 11.619
119.875 151 12.2882
119.992 141 11.8743
120.109 156 12.49
120.226 146 12.083
120.343 141 11.8743
120.46 141 11.8743
120.578 153 12.3693
120.695 156 12.49
120.812 156 12.49
120.929 138 11.7473
121.046 149 12.2066
121.163 177 13.3041
121.279 173 13.1529
121.396 138 11.7473
121.513 140 11.8322
121.63 133 11.5326
121.747 108 10.3923
121.863 109 10.4403
121.98 136 11.6619
122.097 144 12
122.213 148 12.1655
122.33 149 12.2066
122.446 173 13.1529
122.563 156 12.49
122.679 158 12.5698
122.795 168 12.9615
122.912 168 12.9615
123.028 164 12.8062
123.144 158 12.5698
123.26 161 12.6886
123.377 0 1
123.493 0 1
123.609 0 1
123.725 0 1
123.84 0 1
123.956 0 1
124.072 0 1
124.188 0 1
124.303 0 1
124.419 0 1
126.852 0 1
126.968 0 1
127.083 0 1
127.199 0 1
127.315 0 1
127.431 0 1
127.547 0 1
127.663 0 1
127.779 0 1
127.895 0 1
128.011 0 1
128.127 0 1
128.243 0 1
128.359 195 13.9642
128.476 195 13.9642
128.592 221 14.8661
128.708 199 14.1067
128.825 204 14.2829
128.941 207 14.3875
129.058 206 14.3527
129.174 214 14.6287
129.291 215 14.6629
129.408 226 15.0333
129.524 215 14.6629
129.641 208 14.4222
129.758 209 14.4568
129.875 209 14.4568
129.992 237 15.3948
130.108 239 15.4596
130.225 195 13.9642
130.342 182 13.4907
130.459 162 12.7279
130.576 198 14.0712
130.693 145 12.0416
130.81 149 12.2066
130.928 166 12.8841
131.045 188 13.7113
131.162 229 15.1327
131.279 230 15.1658
131.396 208 14.4222
131.513 227 15.0665
131.631 222 14.8997
131.748 221 14.8661
131.865 255 15.9687
131.983 251 15.843
132.1 244 15.6205
132.217 254 15.9374
132.335 249 15.7797
132.452 268 16.3707
132.57 250 15.8114
132.687 217 14.7309
132.804 243 15.5885
132.922 233 15.2643
133.039 234 15.2971
133.157 245 15.6525
133.274 229 15.1327
133.392 228 15.0997
133.509 258 16.0624
133.627 257 16.0312
133.744 222 14.8997
133.862 212 14.5602
133.979 207 14.3875
134.097 184 13.5647
134.214 165 12.8452
134.332 175 13.2288
134.449 152 12.3288
134.567 179 13.3791
134.684 207 14.3875
134.802 231 15.1987
134.919 245 15.6525
135.037 258 16.0624
135.154 233 15.2643
135.272 278 16.6733
135.389 253 15.906
135.507 238 15.4272
135.624 235 15.3297
135.742 251 15.843
135.859 297 17.2337
135.977 225 15
136.094 265 16.2788
136.211 260 16.1245
136.329 266 16.3095
136.446 271 16.4621
136.564 255 15.9687
136.681 257 16.0312
136.798 291 17.0587
136.915 264 16.2481
137.033 308 17.5499
137.15 263 16.2173
137.267 264 16.2481
137.384 248 15.748
137.502 254 15.9374
137.619 208 14.4222
137.736 202 14.2127
137.853 210 14.4914
137.97 202 14.2127
138.087 202 14.2127
138.204 209 14.4568
138.321 220 14.8324
138.438 255 15.9687
138.555 263 16.2173
138.672 267 16.3401
138.788 257 16.0312
138.905 280 16.7332
139.022 307 17.5214
139.139 295 17.1756
139.255 266 16.3095
139.372 271 16.4621
139.488 286 16.9115
139.605 252 15.8745
139.721 282 16.7929
139.838 277 16.6433
139.954 298 17.2627
140.071 289 17
140.187 295 17.1756
140.303 263 16.2173
140.419 314 17.72
140.535 311 17.6352
140.652 290 17.0294
140.768 0 1
140.884 0 1
141 0 1
141.115 0 1
141.231 0 1
141.347 0 1
141.463 0 1
141.578 0 1
141.694 0 1
144.104 0 1
144.219 0 1
144.335 0 1
144.45 0 1
144.566 0 1
144.682 0 1
144.798 0 1
144.914 0 1
145.03 0 1
145.146 287 16.9411
145.262 267 16.3401
145.378 264 16.2481
145.494 311 17.6352
145.61 267 16.3401
145.726 272 16.4924
145.842 278 16.6733
145.959 244 15.6205
146.075 254 15.9374
146.192 249 15.7797
146.308 213 14.5945
146.425 220 14.8324
146.541 199 14.1067
146.658 206 14.3527
146.774 212 14.5602
146.891 226 15.0333
147.008 230 15.1658
147.125 259 16.0935
147.241 274 16.5529
147.358 269 16.4012
147.475 267 16.3401
147.592 294 17.1464
147.709 260 16.1245
147.826 261 16.1555
147.943 290 17.0294
148.06 273 16.5227
148.177 288 16.9706
148.294 215 14.6629
148.411 253 15.906
148.528 278 16.6733
148.645 256 16
148.762 272 16.4924
148.88 258 16.0624
148.997 250 15.8114
149.114 255 15.9687
149.231 247 15.7162
149.349 288 16.9706
149.466 237 15.3948
149.583 271 16.4621
149.701 234 15.2971
149.818 232 15.2315
149.935 232 15.2315
150.053 225 15
150.17 216 14.6969
150.287 223 14.9332
150.405 223 14.9332
150.522 207 14.3875
150.64 239 15.4596
150.757 282 16.7929
150.875 269 16.4012
150.992 260 16.1245
151.11 270 16.4317
151.227 268 16.3707
151.344 255 15.9687
151.462 268 16.3707
151.579 256 16
151.697 262 16.1864
151.814 290 17.0294
151.932 278 16.6733
152.049 284 16.8523
152.167 277 16.6433
152.284 287 16.9411
152.402 254 15.9374
152.519 296 17.2047
152.636 305 17.4642
152.754 260 16.1245
152.871 289 17
152.989 290 17.0294
153.106 265 16.2788
153.223 280 16.7332
153.341 256 16
153.458 200 14.1421
153.575 242 15.5563
153.693 212 14.5602
153.81 272 16.4924
153.927 233 15.2643
154.044 251 15.843
154.162 271 16.4621
154.279 262 16.1864
154.396 280 16.7332
154.513 267 16.3401
154.63 301 17.3494
154.747 301 17.3494
154.864 287 16.9411
154.981 335 18.303
155.098 305 17.4642
155.215 321 17.9165
155.332 281 16.7631
155.449 323 17.9722
155.566 280 16.7332
155.683 332 18.2209
155.8 265 16.2788
155.917 288 16.9706
156.033 267 16.3401
156.15 0 1
156.267 0 1
156.383 0 1
156.5 0 1
156.617 0 1
156.733 0 1
156.85 0 1
156.966 0 1
157.082 0 1
157.199 0 1
157.315 0 1
157.431 0 1
157.547 0 1
157.664 0 1
157.78 0 1
157.896 0 1
158.012 0 1
158.128 0 1
158.244 0 1
158.359 0 1
158.475 0 1
158.591 0 1
158.706 0 1
