
6.15755 0 1
6.2731 0 1
6.3887 0 1
6.50437 0 1
6.62009 0 1
6.73587 0 1
6.8517 0 1
6.96759 0 1
7.08353 0 1
7.19952 0 1
7.31557 0 1
7.43166 0 1
7.54781 0 1
7.664 0 1
7.78024 0 1
7.89653 0 1
8.01286 0 1
8.12924 0 1
8.24567 0 1
8.36213 0 1
8.47864 0 1
8.59519 0 1
8.71178 0 1
8.82841 0 1
8.94508 0 1
9.06179 0 1
9.17853 0 1
9.29531 0 1
9.41212 0 1
9.52897 0 1
9.64584 0 1
9.76276 0 1
9.8797 0 1
9.99667 0 1
10.1137 0 1
10.2307 0 1
10.3478 0 1
10.4648 0 1
10.5819 0 1
10.6991 0 1
10.8162 0 1
10.9334 0 1
11.0506 0 1
11.1678 0 1
11.285 0 1
11.4023 0 1
11.5196 0 1
11.6369 0 1
11.7542 0 1
11.8715 0 1
11.9888 0 1
12.1062 0 1
12.2235 0 1
12.3409 0 1
12.4582 0 1
12.5756 0 1
12.693 0 1
12.8104 0 1
12.9278 0 1
13.0452 0 1
13.1626 0 1
13.28 0 1
13.3974 0 1
13.5149 0 1
13.6323 0 1
13.7497 0 1
13.8671 0 1
13.9845 0 1
14.1019 0 1
14.2193 0 1
14.3367 0 1
14.4541 0 1
14.5714 0 1
14.6888 0 1
14.8062 0 1
14.9235 0 1
15.0408 0 0
15.1581 0 0
15.2755 0 0
15.3927 0 0
15.51 0 0
15.6273 0 0
15.7445 0 0
15.8617 0 0
15.9789 0 0
16.0961 0 0
16.2132 0 0
16.3304 0 0
16.4475 0 0
16.5646 0 0
16.6816 0 0
16.7986 0 0
16.9156 0 0
17.0326 0 0
17.1496 0 0
17.2665 0 0
17.3833 0 0
17.5002 0 0
17.617 0 0
17.7338 0 0
17.8505 0 0
17.9672 0 0
18.0839 0 0
18.2005 0 0
18.3171 0 0
18.4337 0 0
18.5502 0 0
18.6666 0 0
18.7831 0 0
18.8994 0 0
19.0158 0 0
19.1321 0 0
19.2483 0 0
19.3645 0 0
19.4806 0 0
19.5967 0 0
19.7128 0 0
19.8288 0 0
19.9447 0 0
20.0606 0 1
20.1764 0 1
20.2922 0 1
20.4079 0 1
20.5236 0 1
20.6392 0 1
20.7548 0 1
20.8702 0 1
23.3078 0 1
23.4233 0 1
23.539 0 1
23.6547 0 1
23.7704 0 1
23.8862 0 1
24.0021 0 1
24.118 0 1
24.234 0 1
24.35 0 1
24.4661 1387 37.2424
24.5822 1374 37.0675
24.6984 1347 36.7015
24.8146 1381 37.1618
24.9309 1446 38.0263
25.0472 1399 37.4032
25.1636 1362 36.9053
25.28 1319 36.318
25.3965 1380 37.1484
25.513 1403 37.4566
25.6296 1404 37.47
25.7462 1417 37.6431
25.8628 1489 38.5876
25.9795 1474 38.3927
26.0962 1486 38.5487
26.213 1418 37.6563
26.3298 1472 38.3667
26.4466 1412 37.5766
26.5635 1281 35.7911
26.6804 1217 34.8855
26.7973 1235 35.1426
26.9143 1235 35.1426
27.0313 1406 37.4967
27.1483 1408 37.5233
27.2653 1453 38.1182
27.3824 1483 38.5097
27.4996 1440 37.9473
27.6167 1460 38.2099
27.7339 1379 37.1349
27.8511 1321 36.3456
27.9683 1445 38.0132
28.0855 1396 37.3631
28.2028 1385 37.2156
28.3201 1367 36.973
28.4374 1324 36.3868
28.5547 1356 36.8239
28.6721 1299 36.0416
28.7894 1285 35.8469
28.9068 1366 36.9594
29.0242 1334 36.524
29.1416 1358 36.8511
29.259 1361 36.8917
29.3764 1372 37.0405
29.4939 1402 37.4433
29.6113 1372 37.0405
29.7288 1402 37.4433
29.8463 1326 36.4143
29.9638 1315 36.2629
30.0812 1251 35.3695
30.1987 1158 34.0294
30.3162 1083 32.909
30.4337 1179 34.3366
30.5512 1218 34.8999
30.6687 1295 35.9861
30.7862 1339 36.5923
30.9037 1344 36.6606
31.0212 1313 36.2353
31.1387 1335 36.5377
31.2562 1320 36.3318
31.3737 1334 36.524
31.4912 1349 36.7287
31.6087 1362 36.9053
31.7262 1345 36.6742
31.8436 1336 36.5513
31.9611 1323 36.3731
32.0785 1351 36.756
32.1959 1337 36.565
32.3134 1322 36.3593
32.4308 1275 35.7071
32.5482 1292 35.9444
32.6655 1254 35.4119
32.7829 1286 35.8608
32.9002 1299 36.0416
33.0176 1289 35.9026
33.1349 1329 36.4555
33.2522 1284 35.8329
33.3694 1330 36.4692
33.4867 1367 36.973
33.6039 1307 36.1525
33.7211 1147 33.8674
33.8383 1112 33.3467
33.9554 1013 31.8277
34.0725 1077 32.8177
34.1896 1105 33.2415
34.3067 1214 34.8425
34.4237 1274 35.6931
34.5407 1319 36.318
34.6577 1330 36.4692
34.7746 1293 35.9583
34.8915 1364 36.9324
35.0084 1296 36
35.1252 1338 36.5787
35.242 1307 36.1525
35.3587 1305 36.1248
35.4755 1278 35.7491
35.5921 1281 35.7911
35.7088 1317 36.2905
35.8254 1277 35.7351
35.9419 1266 35.5809
36.0584 1278 35.7491
36.1749 1280 35.7771
36.2913 1126 33.5559
36.4077 1226 35.0143
36.524 1209 34.7707
36.6403 1216 34.8712
36.7565 1270 35.6371
36.8727 1202 34.6699
36.9889 1309 36.1801
37.1049 1311 36.2077
37.221 0 1
37.3369 0 1
37.4529 0 1
37.5687 0 1
37.6845 0 1
37.8003 0 1
37.916 0 1
38.0316 0 1
38.1472 0 1
40.5851 0 1
40.7008 0 1
40.8164 0 1
40.9322 0 1
41.048 0 1
41.1639 0 1
41.2798 0 1
41.3958 0 1
41.5118 0 1
41.6279 0 1
41.744 973 31.1929
41.8602 961 31
41.9765 1032 32.1248
42.0928 1000 31.6228
42.2091 1012 31.8119
42.3255 1011 31.7962
42.4419 979 31.289
42.5584 867 29.4449
42.675 785 28.0179
42.7915 725 26.9258
42.9081 722 26.8701
43.0248 839 28.9655
43.1415 911 30.1828
43.2582 927 30.4467
43.375 945 30.7409
43.4918 1017 31.8904
43.6087 950 30.8221
43.7256 994 31.5278
43.8425 872 29.5296
43.9595 861 29.3428
44.0765 887 29.7825
44.1935 845 29.0689
44.3106 908 30.133
44.4277 830 28.8097
44.5448 763 27.6225
44.6619 845 29.0689
44.7791 783 27.9821
44.8963 784 28
45.0136 787 28.0535
45.1308 727 26.9629
45.2481 746 27.313
45.3654 748 27.3496
45.4827 716 26.7582
45.6001 662 25.7294
45.7174 712 26.6833
45.8348 747 27.3313
45.9522 701 26.4764
46.0697 679 26.0576
46.1871 570 23.8747
46.3046 545 23.3452
46.422 534 23.1084
46.5395 622 24.9399
46.657 613 24.7588
46.7745 682 26.1151
46.892 605 24.5967
47.0096 666 25.807
47.1271 633 25.1595
47.2446 686 26.1916
47.3622 635 25.1992
47.4797 635 25.1992
47.5973 629 25.0799
47.7149 626 25.02
47.8324 607 24.6374
47.95 579 24.0624
48.0675 526 22.9347
48.1851 573 23.9374
48.3027 537 23.1733
48.4202 561 23.6854
48.5378 554 23.5372
48.6554 507 22.5167
48.7729 536 23.1517
48.8904 539 23.2164
49.008 546 23.3666
49.1255 540 23.2379
49.243 554 23.5372
49.3605 520 22.8035
49.478 502 22.4054
49.5955 466 21.587
49.713 467 21.6102
49.8304 405 20.1246
49.9479 466 21.587
50.0653 513 22.6495
50.1827 545 23.3452
50.3001 603 24.5561
50.4175 625 25
50.5348 649 25.4755
50.6521 639 25.2784
50.7694 665 25.7876
50.8867 654 25.5734
51.004 693 26.3249
51.1212 706 26.5707
51.2384 718 26.7955
51.3556 716 26.7582
51.4727 773 27.8029
51.5899 743 27.258
51.707 768 27.7128
51.824 771 27.7669
51.9411 743 27.258
52.0581 777 27.8747
52.175 769 27.7308
52.2919 754 27.4591
52.4088 802 28.3196
52.5257 862 29.3598
52.6425 860 29.3258
52.7593 876 29.5973
52.876 904 30.0666
52.9927 844 29.0517
53.1094 873 29.5466
53.226 743 27.258
53.3426 720 26.8328
53.4591 663 25.7488
53.5756 745 27.2947
53.692 855 29.2404
53.8084 948 30.7896
53.9248 948 30.7896
54.0411 978 31.273
54.1573 1026 32.0312
54.2735 0 1
54.3896 0 1
54.5057 0 1
54.6217 0 1
54.7377 0 1
54.8537 0 1
54.9695 0 1
55.0853 0 1
55.2011 0 1
55.3168 0 1
55.4324 0 1
57.824 0 1
57.9396 0 1
58.0553 0 1
58.1711 0 1
58.2869 0 1
58.4028 0 1
58.5187 0 1
58.6347 0 1
58.7508 0 1
58.8669 0 1
58.983 1014 31.8434
59.0992 1140 33.7639
59.2155 1191 34.5109
59.3318 1215 34.8569
59.4482 1227 35.0286
59.5646 1187 34.4529
59.681 1198 34.6121
59.7975 1282 35.805
59.9141 1198 34.6121
60.0306 1206 34.7275
60.1473 1156 34
60.2639 1167 34.1614
60.3807 1059 32.5423
60.4974 1123 33.5112
60.6142 1098 33.1361
60.731 1132 33.6452
60.8479 1037 32.2025
60.9648 1086 32.9545
61.0818 1030 32.0936
61.1987 1097 33.121
61.3158 1073 32.7567
61.4328 1082 32.8938
61.5499 1015 31.8591
61.667 929 30.4795
61.7841 900 30
61.9013 857 29.2746
62.0185 833 28.8617
62.1357 826 28.7402
62.253 994 31.5278
62.3702 996 31.5595
62.4875 1097 33.121
62.6049 1181 34.3657
62.7222 1140 33.7639
62.8396 1234 35.1283
62.9569 1293 35.9583
63.0743 1236 35.1568
63.1918 1231 35.0856
63.3092 1216 34.8712
63.4267 1157 34.0147
63.5441 1227 35.0286
63.6616 1205 34.7131
63.7791 1165 34.1321
63.8966 1178 34.322
64.0142 1146 33.8526
64.1317 1136 33.7046
64.2492 1163 34.1028
64.3668 1092 33.0454
64.4843 1132 33.6452
64.6019 1196 34.5832
64.7195 1176 34.2929
64.837 1200 34.641
64.9546 1211 34.7994
65.0722 1224 34.9857
65.1898 1081 32.8786
65.3074 1080 32.8634
65.4249 932 30.5287
65.5425 883 29.7153
65.6601 844 29.0517
65.7777 947 30.7734
65.8952 1053 32.45
66.0128 1086 32.9545
66.1304 1167 34.1614
66.2479 1174 34.2637
66.3655 1231 35.0856
66.483 1295 35.9861
66.6005 1309 36.1801
66.718 1253 35.3977
66.8355 1321 36.3456
66.953 1261 35.5106
67.0705 1247 35.3129
67.1879 1267 35.5949
67.3054 1164 34.1174
67.4228 1069 32.6956
67.5402 1133 33.6601
67.6576 1113 33.3617
67.7749 1100 33.1662
67.8923 1063 32.6037
68.0096 1113 33.3617
68.1269 1075 32.7872
68.2442 1067 32.665
68.3614 1163 34.1028
68.4787 1114 33.3766
68.5958 1079 32.8481
68.713 1072 32.7414
68.8302 1047 32.3574
68.9473 912 30.1993
69.0643 835 28.8964
69.1814 782 27.9643
69.2984 819 28.6182
69.4154 854 29.2233
69.5323 972 31.1769
69.6492 998 31.5911
69.7661 1103 33.2114
69.8829 1085 32.9393
69.9997 1146 33.8526
70.1165 1195 34.5688
70.2332 1164 34.1174
70.3499 1206 34.7275
70.4665 1205 34.7131
70.5831 1201 34.6554
70.6996 1122 33.4963
70.8161 1123 33.5112
70.9326 1141 33.7787
71.049 1096 33.1059
71.1653 987 31.4166
71.2817 974 31.209
71.3979 1025 32.0156
71.5141 956 30.9192
71.6303 1016 31.8748
71.7464 900 30
71.8624 0 1
71.9784 0 1
72.0944 0 1
72.2102 0 1
72.3261 0 1
72.4418 0 1
72.5575 0 1
72.6732 0 1
75.1054 0 1
75.2209 0 1
75.3365 0 1
75.4521 0 1
75.5678 0 1
75.6835 0 1
75.7993 0 1
75.9151 0 1
76.031 0 1
76.147 1078 32.8329
76.263 1070 32.7109
76.3791 1096 33.1059
76.4952 1038 32.218
76.6113 983 31.3528
76.7276 989 31.4484
76.8438 1059 32.5423
76.9601 1063 32.6037
77.0765 1091 33.0303
77.1929 1043 32.2955
77.3093 1050 32.4037
77.4258 1064 32.619
77.5423 1079 32.8481
77.6589 1062 32.5883
77.7755 1077 32.8177
77.8921 951 30.8383
78.0088 902 30.0333
78.1256 755 27.4773
78.2423 700 26.4575
78.3591 712 26.6833
78.4759 760 27.5681
78.5928 909 30.1496
78.7097 987 31.4166
78.8266 936 30.5941
78.9436 1141 33.7787
79.0606 1034 32.1559
79.1776 1085 32.9393
79.2946 1090 33.0151
79.4117 1162 34.0881
79.5288 1151 33.9264
79.6459 1133 33.6601
79.7631 1043 32.2955
79.8802 1005 31.7017
79.9974 929 30.4795
80.1147 946 30.7571
80.2319 898 29.9666
80.3491 929 30.4795
80.4664 921 30.348
80.5837 889 29.8161
80.701 889 29.8161
80.8183 837 28.931
80.9357 951 30.8383
81.053 980 31.305
81.1704 994 31.5278
81.2877 910 30.1662
81.4051 888 29.7993
81.5225 815 28.5482
81.6399 737 27.1477
81.7573 739 27.1846
81.8747 650 25.4951
81.9922 624 24.98
82.1096 695 26.3629
82.227 820 28.6356
82.3444 826 28.7402
82.4619 935 30.5778
82.5793 916 30.2655
82.6967 907 30.1164
82.8142 982 31.3369
82.9316 998 31.5911
83.049 949 30.8058
83.1664 912 30.1993
83.2838 972 31.1769
83.4012 869 29.4788
83.5186 809 28.4429
83.636 836 28.9137
83.7534 784 28
83.8708 789 28.0891
83.9881 765 27.6586
84.1055 728 26.9815
84.2228 750 27.3861
84.3401 833 28.8617
84.4575 809 28.4429
84.5747 859 29.3087
84.692 855 29.2404
84.8093 842 29.0172
84.9265 845 29.0689
85.0437 779 27.9106
85.1609 698 26.4197
85.2781 622 24.9399
85.3952 602 24.5357
85.5123 579 24.0624
85.6294 624 24.98
85.7465 740 27.2029
85.8636 808 28.4253
85.9806 842 29.0172
86.0976 988 31.4325
86.2145 1003 31.6702
86.3315 1074 32.7719
86.4484 1029 32.078
86.5652 1077 32.8177
86.682 1098 33.1361
86.7988 1028 32.0624
86.9156 1013 31.8277
87.0323 1022 31.9687
87.149 972 31.1769
87.2657 924 30.3974
87.3823 979 31.289
87.4988 825 28.7228
87.6154 952 30.8545
87.7318 1015 31.8591
87.8483 993 31.5119
87.9647 956 30.9192
88.081 996 31.5595
88.1973 1138 33.7343
88.3136 1073 32.7567
88.4298 1087 32.9697
88.546 970 31.1448
88.6621 916 30.2655
88.7781 774 27.8209
88.8942 0 1
89.0101 0 1
89.126 0 1
89.2419 0 1
89.3577 0 1
89.4734 0 1
89.5891 0 1
89.7047 0 1
89.8203 0 1
89.9358 0 1
92.3269 0 1
92.4424 0 1
92.558 0 1
92.6736 0 1
92.7893 0 1
92.905 0 1
93.0208 0 1
93.1366 0 1
93.2525 0 1
93.3685 0 1
93.4845 0 1
93.6005 1030 32.0936
93.7167 1152 33.9411
93.8328 1044 32.311
93.949 1013 31.8277
94.0653 985 31.3847
94.1816 911 30.1828
94.2979 822 28.6705
94.4143 768 27.7128
94.5307 742 27.2397
94.6472 761 27.5862
94.7637 812 28.4956
94.8803 871 29.5127
94.9969 1013 31.8277
95.1135 1069 32.6956
95.2302 1159 34.0441
95.3469 1133 33.6601
95.4637 1202 34.6699
95.5805 1119 33.4515
95.6973 1234 35.1283
95.8142 1214 34.8425
95.9311 1143 33.8083
96.048 1193 34.5398
96.1649 1092 33.0454
96.2819 1093 33.0606
96.3989 1043 32.2955
96.516 1023 31.9844
96.633 993 31.5119
96.7501 1030 32.0936
96.8673 1010 31.7805
96.9844 1011 31.7962
97.1016 1055 32.4808
97.2188 1065 32.6343
97.336 1098 33.1361
97.4532 1064 32.619
97.5704 1080 32.8634
97.6877 1032 32.1248
97.805 895 29.9166
97.9223 899 29.9833
98.0396 769 27.7308
98.1569 747 27.3313
98.2743 755 27.4773
98.3916 800 28.2843
98.509 865 29.4109
98.6264 1004 31.686
98.7438 1065 32.6343
98.8612 1115 33.3916
98.9786 1203 34.6843
99.096 1242 35.242
99.2134 1221 34.9428
99.3308 1188 34.4674
99.4482 1212 34.8138
99.5656 1177 34.3074
99.6831 1148 33.8821
99.8005 1190 34.4964
99.9179 1121 33.4813
100.035 1086 32.9545
100.153 1048 32.3728
100.27 1071 32.7261
100.388 1027 32.0468
100.505 1051 32.4191
100.622 1015 31.8591
100.74 1119 33.4515
100.857 1129 33.6006
100.975 1120 33.4664
101.092 1165 34.1321
101.209 1101 33.1813
101.327 991 31.4802
101.444 946 30.7571
101.561 851 29.1719
101.679 807 28.4077
101.796 807 28.4077
101.913 833 28.8617
102.03 929 30.4795
102.148 1028 32.0624
102.265 1011 31.7962
102.382 1229 35.0571
102.499 1210 34.7851
102.616 1261 35.5106
102.733 1278 35.7491
102.851 1380 37.1484
102.968 1318 36.3043
103.085 1314 36.2491
103.202 1216 34.8712
103.319 1243 35.2562
103.436 1156 34
103.552 1176 34.2929
103.669 1162 34.0881
103.786 1134 33.6749
103.903 1069 32.6956
104.02 1133 33.6601
104.137 1109 33.3017
104.253 1157 34.0147
104.37 1262 35.5246
104.487 1307 36.1525
104.603 1243 35.2562
104.72 1216 34.8712
104.836 1074 32.7719
104.953 998 31.5911
105.069 875 29.5804
105.186 901 30.0167
105.302 909 30.1496
105.418 927 30.4467
105.535 1071 32.7261
105.651 1137 33.7194
105.767 1311 36.2077
105.883 1350 36.7423
105.999 1444 38
106.115 0 1
106.231 0 1
106.347 0 1
106.463 0 1
106.579 0 1
106.694 0 1
106.81 0 1
106.926 0 1
107.041 0 1
107.157 0 1
109.576 0 1
109.692 0 1
109.807 0 1
109.923 0 1
110.039 0 1
110.155 0 1
110.27 0 1
110.386 0 1
110.502 0 1
110.618 968 31.1127
110.735 1085 32.9393
110.851 1210 34.7851
110.967 1292 35.9444
111.083 1249 35.3412
111.199 1325 36.4005
111.316 1295 35.9861
111.432 1287 35.8748
111.549 1315 36.2629
111.665 1265 35.5668
111.782 1236 35.1568
111.898 1212 34.8138
112.015 1304 36.1109
112.132 1114 33.3766
112.248 1116 33.4066
112.365 1093 33.0606
112.482 1012 31.8119
112.599 1105 33.2415
112.716 1161 34.0735
112.832 1158 34.0294
112.949 1120 33.4664
113.066 1175 34.2783
113.183 1141 33.7787
113.3 1093 33.0606
113.417 991 31.4802
113.534 873 29.5466
113.652 860 29.3258
113.769 851 29.1719
113.886 786 28.0357
114.003 856 29.2575
114.12 913 30.2159
114.238 1060 32.5576
114.355 1149 33.8969
114.472 1189 34.4819
114.589 1266 35.5809
114.707 1248 35.327
114.824 1298 36.0278
114.942 1284 35.8329
115.059 1218 34.8999
115.176 1269 35.623
115.294 1284 35.8329
115.411 1186 34.4384
115.529 1321 36.3456
115.646 1145 33.8378
115.764 1033 32.1403
115.881 1032 32.1248
115.999 1083 32.909
116.116 1100 33.1662
116.234 1131 33.6303
116.351 1194 34.5543
116.469 1188 34.4674
116.586 1212 34.8138
116.704 1193 34.5398
116.821 1083 32.909
116.939 1086 32.9545
117.056 1024 32
117.174 949 30.8058
117.291 912 30.1993
117.409 855 29.2404
117.526 953 30.8707
117.644 981 31.3209
117.761 1053 32.45
117.879 1182 34.3802
117.996 1225 35
118.114 1307 36.1525
118.231 1290 35.9166
118.349 1292 35.9444
118.466 1323 36.3731
118.584 1352 36.7696
118.701 1300 36.0555
118.819 1296 36
118.936 1285 35.8469
119.053 1310 36.1939
119.171 1272 35.6651
119.288 1111 33.3317
119.405 1068 32.6803
119.523 1142 33.7935
119.64 1158 34.0294
119.757 1131 33.6303
119.875 1141 33.7787
119.992 1177 34.3074
120.109 1175 34.2783
120.226 1191 34.5109
120.343 1181 34.3657
120.46 1132 33.6452
120.578 1097 33.121
120.695 986 31.4006
120.812 918 30.2985
120.929 952 30.8545
121.046 878 29.6311
121.163 960 30.9839
121.279 941 30.6757
121.396 1062 32.5883
121.513 1157 34.0147
121.63 1194 34.5543
121.747 1211 34.7994
121.863 1226 35.0143
121.98 1247 35.3129
122.097 1320 36.3318
122.213 1288 35.8887
122.33 1261 35.5106
122.446 1256 35.4401
122.563 1278 35.7491
122.679 1213 34.8281
122.795 1200 34.641
122.912 1206 34.7275
123.028 1191 34.5109
123.144 1053 32.45
123.26 1039 32.2335
123.377 0 1
123.493 0 1
123.609 0 1
123.725 0 1
123.84 0 1
123.956 0 1
124.072 0 1
124.188 0 1
124.303 0 1
124.419 0 1
126.852 0 1
126.968 0 1
127.083 0 1
127.199 0 1
127.315 0 1
127.431 0 1
127.547 0 1
127.663 0 1
127.779 0 1
127.895 0 1
128.011 0 1
128.127 0 1
128.243 0 1
128.359 1256 35.4401
128.476 1236 35.1568
128.592 1161 34.0735
128.708 1192 34.5254
128.825 1300 36.0555
128.941 1333 36.5103
129.058 1273 35.6791
129.174 1317 36.2905
129.291 1305 36.1248
129.408 1220 34.9285
129.524 1232 35.0999
129.641 1134 33.6749
129.758 1057 32.5115
129.875 1047 32.3574
129.992 1032 32.1248
130.108 965 31.0644
130.225 1127 33.5708
130.342 1212 34.8138
130.459 1261 35.5106
130.576 1327 36.428
130.693 1316 36.2767
130.81 1382 37.1753
130.928 1399 37.4032
131.045 1377 37.108
131.162 1395 37.3497
131.279 1443 37.9868
131.396 1354 36.7967
131.513 1464 38.2623
131.631 1413 37.5899
131.748 1322 36.3593
131.865 1263 35.5387
131.983 1166 34.1467
132.1 1269 35.623
132.217 1197 34.5977
132.335 1217 34.8855
132.452 1343 36.647
132.57 1289 35.9026
132.687 1317 36.2905
132.804 1305 36.1248
132.922 1324 36.3868
133.039 1285 35.8469
133.157 1203 34.6843
133.274 1127 33.5708
133.392 1068 32.6803
133.509 1113 33.3617
133.627 1043 32.2955
133.744 1023 31.9844
133.862 1184 34.4093
133.979 1271 35.6511
134.097 1274 35.6931
134.214 1353 36.7831
134.332 1394 37.3363
134.449 1383 37.1887
134.567 1413 37.5899
134.684 1452 38.1051
134.802 1452 38.1051
134.919 1393 37.3229
135.037 1382 37.1753
135.154 1335 36.5377
135.272 1386 37.229
135.389 1279 35.7631
135.507 1261 35.5106
135.624 1230 35.0714
135.742 1237 35.171
135.859 1295 35.9861
135.977 1337 36.565
136.094 1344 36.6606
136.211 1335 36.5377
136.329 1302 36.0832
136.446 1325 36.4005
136.564 1292 35.9444
136.681 1268 35.609
136.798 1197 34.5977
136.915 1110 33.3167
137.033 1079 32.8481
137.15 1103 33.2114
137.267 1043 32.2955
137.384 1102 33.1964
137.502 1187 34.4529
137.619 1291 35.9305
137.736 1304 36.1109
137.853 1258 35.4683
137.97 1311 36.2077
138.087 1381 37.1618
138.204 1331 36.4829
138.321 1452 38.1051
138.438 1353 36.7831
138.555 1393 37.3229
138.672 1365 36.9459
138.788 1376 37.0945
138.905 1342 36.6333
139.022 1314 36.2491
139.139 1240 35.2136
139.255 1224 34.9857
139.372 1233 35.1141
139.488 1250 35.3553
139.605 1365 36.9459
139.721 1344 36.6606
139.838 1351 36.756
139.954 1349 36.7287
140.071 1324 36.3868
140.187 1256 35.4401
140.303 1212 34.8138
140.419 1224 34.9857
140.535 1129 33.6006
140.652 1064 32.619
140.768 0 1
140.884 0 1
141 0 1
141.115 0 1
141.231 0 1
141.347 0 1
141.463 0 1
141.578 0 1
141.694 0 1
144.104 0 1
144.219 0 1
144.335 0 1
144.45 0 1
144.566 0 1
144.682 0 1
144.798 0 1
144.914 0 1
145.03 0 1
145.146 841 29
145.262 912 30.1993
145.378 997 31.5753
145.494 953 30.8707
145.61 901 30.0167
145.726 867 29.4449
145.842 858 29.2916
145.959 842 29.0172
146.075 870 29.4958
146.192 869 29.4788
146.308 929 30.4795
146.425 928 30.4631
146.541 1041 32.2645
146.658 1031 32.1092
146.774 965 31.0644
146.891 1093 33.0606
147.008 1110 33.3167
147.125 1061 32.573
147.241 1103 33.2114
147.358 1091 33.0303
147.475 1130 33.6155
147.592 1067 32.665
147.709 1066 32.6497
147.826 1071 32.7261
147.943 988 31.4325
148.06 948 30.7896
148.177 965 31.0644
148.294 931 30.5123
148.411 984 31.3688
148.528 1054 32.4654
148.645 1041 32.2645
148.762 1030 32.0936
148.88 1045 32.3265
148.997 1018 31.9061
149.114 1034 32.1559
149.231 998 31.5911
149.349 1002 31.6544
149.466 991 31.4802
149.583 946 30.7571
149.701 893 29.8831
149.818 876 29.5973
149.935 943 30.7083
150.053 954 30.8869
150.17 938 30.6268
150.287 993 31.5119
150.405 1024 32
150.522 1064 32.619
150.64 1068 32.6803
150.757 1093 33.0606
150.875 1127 33.5708
150.992 1086 32.9545
151.11 1160 34.0588
151.227 1080 32.8634
151.344 1113 33.3617
151.462 1081 32.8786
151.579 1081 32.8786
151.697 1085 32.9393
151.814 1011 31.7962
151.932 968 31.1127
152.049 1021 31.9531
152.167 1052 32.4345
152.284 1075 32.7872
152.402 1071 32.7261
152.519 1135 33.6898
152.636 1129 33.6006
152.754 1081 32.8786
152.871 1047 32.3574
152.989 1038 32.218
153.106 1035 32.1714
153.223 951 30.8383
153.341 943 30.7083
153.458 933 30.545
153.575 947 30.7734
153.693 996 31.5595
153.81 1013 31.8277
153.927 1129 33.6006
154.044 1088 32.9848
154.162 1144 33.8231
154.279 1129 33.6006
154.396 1175 34.2783
154.513 1215 34.8569
154.63 1200 34.641
154.747 1253 35.3977
154.864 1180 34.3511
154.981 1229 35.0571
155.098 1204 34.6987
155.215 1130 33.6155
155.332 1210 34.7851
155.449 1098 33.1361
155.566 1095 33.0908
155.683 1164 34.1174
155.8 1179 34.3366
155.917 1242 35.242
156.033 1179 34.3366
156.15 0 1
156.267 0 1
156.383 0 1
156.5 0 1
156.617 0 1
156.733 0 1
156.85 0 1
156.966 0 1
157.082 0 1
157.199 0 1
157.315 0 1
157.431 0 1
157.547 0 1
157.664 0 1
157.78 0 1
157.896 0 1
158.012 0 1
158.128 0 1
158.244 0 1
158.359 0 1
158.475 0 1
158.591 0 1
158.706 0 1
