
6.15755 0 1
6.2731 0 1
6.3887 0 1
6.50437 0 1
6.62009 0 1
6.73587 0 1
6.8517 0 1
6.96759 0 1
7.08353 0 1
7.19952 0 1
7.31557 0 1
7.43166 0 1
7.54781 0 1
7.664 0 1
7.78024 0 1
7.89653 0 1
8.01286 0 1
8.12924 0 1
8.24567 0 1
8.36213 0 1
8.47864 0 1
8.59519 0 1
8.71178 0 1
8.82841 0 1
8.94508 0 1
9.06179 0 1
9.17853 0 1
9.29531 0 1
9.41212 0 1
9.52897 0 1
9.64584 0 1
9.76276 0 1
9.8797 0 1
9.99667 0 1
10.1137 0 1
10.2307 0 1
10.3478 0 1
10.4648 0 1
10.5819 0 1
10.6991 0 1
10.8162 0 1
10.9334 0 1
11.0506 0 1
11.1678 0 1
11.285 0 1
11.4023 0 1
11.5196 0 1
11.6369 0 1
11.7542 0 1
11.8715 0 1
11.9888 0 1
12.1062 0 1
12.2235 0 1
12.3409 0 1
12.4582 0 1
12.5756 0 1
12.693 0 1
12.8104 0 1
12.9278 0 1
13.0452 0 1
13.1626 0 1
13.28 0 1
13.3974 0 1
13.5149 0 1
13.6323 0 1
13.7497 0 1
13.8671 0 1
13.9845 0 1
14.1019 0 1
14.2193 0 1
14.3367 0 1
14.4541 0 1
14.5714 0 1
14.6888 0 1
14.8062 0 1
14.9235 0 1
15.0408 0 0
15.1581 0 0
15.2755 0 0
15.3927 0 0
15.51 0 0
15.6273 0 0
15.7445 0 0
15.8617 0 0
15.9789 0 0
16.0961 0 0
16.2132 0 0
16.3304 0 0
16.4475 0 0
16.5646 0 0
16.6816 0 0
16.7986 0 0
16.9156 0 0
17.0326 0 0
17.1496 0 0
17.2665 0 0
17.3833 0 0
17.5002 0 0
17.617 0 0
17.7338 0 0
17.8505 0 0
17.9672 0 0
18.0839 0 0
18.2005 0 0
18.3171 0 0
18.4337 0 0
18.5502 0 0
18.6666 0 0
18.7831 0 0
18.8994 0 0
19.0158 0 0
19.1321 0 0
19.2483 0 0
19.3645 0 0
19.4806 0 0
19.5967 0 0
19.7128 0 0
19.8288 0 0
19.9447 0 0
20.0606 0 1
20.1764 0 1
20.2922 0 1
20.4079 0 1
20.5236 0 1
20.6392 0 1
20.7548 0 1
20.8702 0 1
23.3078 0 1
23.4233 0 1
23.539 0 1
23.6547 0 1
23.7704 0 1
23.8862 0 1
24.0021 0 1
24.118 0 1
24.234 0 1
24.35 0 1
24.4661 1038 32.218
24.5822 1058 32.5269
24.6984 1111 33.3317
24.8146 1054 32.4654
24.9309 1111 33.3317
25.0472 1071 32.7261
25.1636 1129 33.6006
25.28 1048 32.3728
25.3965 1151 33.9264
25.513 1149 33.8969
25.6296 1098 33.1361
25.7462 1176 34.2929
25.8628 1169 34.1906
25.9795 1208 34.7563
26.0962 1180 34.3511
26.213 1192 34.5254
26.3298 1185 34.4238
26.4466 1198 34.6121
26.5635 1195 34.5688
26.6804 1163 34.1028
26.7973 1066 32.6497
26.9143 1061 32.573
27.0313 1005 31.7017
27.1483 1097 33.121
27.2653 980 31.305
27.3824 991 31.4802
27.4996 1045 32.3265
27.6167 1074 32.7719
27.7339 1052 32.4345
27.8511 1006 31.7175
27.9683 1067 32.665
28.0855 948 30.7896
28.2028 1006 31.7175
28.3201 1050 32.4037
28.4374 1028 32.0624
28.5547 1054 32.4654
28.6721 1110 33.3167
28.7894 1150 33.9116
28.9068 1109 33.3017
29.0242 1106 33.2566
29.1416 1094 33.0757
29.259 1124 33.5261
29.3764 1106 33.2566
29.4939 1079 32.8481
29.6113 1085 32.9393
29.7288 1099 33.1512
29.8463 1151 33.9264
29.9638 1089 33
30.0812 1141 33.7787
30.1987 1155 33.9853
30.3162 1047 32.3574
30.4337 947 30.7734
30.5512 893 29.8831
30.6687 952 30.8545
30.7862 987 31.4166
30.9037 1004 31.686
31.0212 1059 32.5423
31.1387 1044 32.311
31.2562 1055 32.4808
31.3737 993 31.5119
31.4912 994 31.5278
31.6087 975 31.225
31.7262 925 30.4138
31.8436 982 31.3369
31.9611 1002 31.6544
32.0785 978 31.273
32.1959 1065 32.6343
32.3134 1061 32.573
32.4308 1080 32.8634
32.5482 1083 32.909
32.6655 1104 33.2265
32.7829 1025 32.0156
32.9002 1069 32.6956
33.0176 1070 32.7109
33.1349 1063 32.6037
33.2522 1106 33.2566
33.3694 1067 32.665
33.4867 1095 33.0908
33.6039 993 31.5119
33.7211 1107 33.2716
33.8383 1064 32.619
33.9554 1048 32.3728
34.0725 972 31.1769
34.1896 914 30.2324
34.3067 869 29.4788
34.4237 922 30.3645
34.5407 935 30.5778
34.6577 907 30.1164
34.7746 964 31.0483
34.8915 971 31.1609
35.0084 865 29.4109
35.1252 914 30.2324
35.242 908 30.133
35.3587 961 31
35.4755 926 30.4302
35.5921 988 31.4325
35.7088 972 31.1769
35.8254 1030 32.0936
35.9419 1083 32.909
36.0584 1099 33.1512
36.1749 996 31.5595
36.2913 1089 33
36.4077 1095 33.0908
36.524 1038 32.218
36.6403 1092 33.0454
36.7565 1042 32.28
36.8727 1062 32.5883
36.9889 1093 33.0606
37.1049 996 31.5595
37.221 0 1
37.3369 0 1
37.4529 0 1
37.5687 0 1
37.6845 0 1
37.8003 0 1
37.916 0 1
38.0316 0 1
38.1472 0 1
40.5851 0 1
40.7008 0 1
40.8164 0 1
40.9322 0 1
41.048 0 1
41.1639 0 1
41.2798 0 1
41.3958 0 1
41.5118 0 1
41.6279 0 1
41.744 885 29.7489
41.8602 901 30.0167
41.9765 832 28.8444
42.0928 895 29.9166
42.2091 863 29.3769
42.3255 833 28.8617
42.4419 885 29.7489
42.5584 897 29.95
42.675 899 29.9833
42.7915 859 29.3087
42.9081 835 28.8964
43.0248 794 28.178
43.1415 774 27.8209
43.2582 754 27.4591
43.375 788 28.0713
43.4918 825 28.7228
43.6087 812 28.4956
43.7256 782 27.9643
43.8425 732 27.0555
43.9595 707 26.5895
44.0765 706 26.5707
44.1935 716 26.7582
44.3106 791 28.1247
44.4277 755 27.4773
44.5448 769 27.7308
44.6619 792 28.1425
44.7791 758 27.5318
44.8963 806 28.3901
45.0136 767 27.6948
45.1308 798 28.2489
45.2481 777 27.8747
45.3654 781 27.9464
45.4827 768 27.7128
45.6001 749 27.3679
45.7174 680 26.0768
45.8348 724 26.9072
45.9522 714 26.7208
46.0697 751 27.4044
46.1871 713 26.7021
46.3046 735 27.1109
46.422 655 25.593
46.5395 665 25.7876
46.657 647 25.4362
46.7745 589 24.2693
46.892 596 24.4131
47.0096 579 24.0624
47.1271 635 25.1992
47.2446 621 24.9199
47.3622 623 24.96
47.4797 572 23.9165
47.5973 631 25.1197
47.7149 546 23.3666
47.8324 581 24.1039
47.95 573 23.9374
48.0675 580 24.0832
48.1851 614 24.779
48.3027 561 23.6854
48.4202 610 24.6982
48.5378 627 25.04
48.6554 597 24.4336
48.7729 599 24.4745
48.8904 583 24.1454
49.008 620 24.8998
49.1255 635 25.1992
49.243 620 24.8998
49.3605 598 24.454
49.478 648 25.4558
49.5955 670 25.8844
49.713 621 24.9199
49.8304 647 25.4362
49.9479 642 25.3377
50.0653 596 24.4131
50.1827 600 24.4949
50.3001 542 23.2809
50.4175 558 23.622
50.5348 555 23.5584
50.6521 629 25.0799
50.7694 625 25
50.8867 603 24.5561
51.004 603 24.5561
51.1212 659 25.671
51.2384 663 25.7488
51.3556 713 26.7021
51.4727 726 26.9444
51.5899 701 26.4764
51.707 807 28.4077
51.824 791 28.1247
51.9411 788 28.0713
52.0581 836 28.9137
52.175 762 27.6043
52.2919 792 28.1425
52.4088 806 28.3901
52.5257 760 27.5681
52.6425 830 28.8097
52.7593 772 27.7849
52.876 864 29.3939
52.9927 807 28.4077
53.1094 786 28.0357
53.226 790 28.1069
53.3426 842 29.0172
53.4591 868 29.4618
53.5756 869 29.4788
53.692 823 28.688
53.8084 774 27.8209
53.9248 692 26.3059
54.0411 660 25.6905
54.1573 665 25.7876
54.2735 0 1
54.3896 0 1
54.5057 0 1
54.6217 0 1
54.7377 0 1
54.8537 0 1
54.9695 0 1
55.0853 0 1
55.2011 0 1
55.3168 0 1
55.4324 0 1
57.824 0 1
57.9396 0 1
58.0553 0 1
58.1711 0 1
58.2869 0 1
58.4028 0 1
58.5187 0 1
58.6347 0 1
58.7508 0 1
58.8669 0 1
58.983 864 29.3939
59.0992 805 28.3725
59.2155 822 28.6705
59.3318 775 27.8388
59.4482 819 28.6182
59.5646 877 29.6142
59.681 857 29.2746
59.7975 851 29.1719
59.9141 895 29.9166
60.0306 840 28.9828
60.1473 890 29.8329
60.2639 888 29.7993
60.3807 923 30.3809
60.4974 910 30.1662
60.6142 863 29.3769
60.731 855 29.2404
60.8479 858 29.2916
60.9648 865 29.4109
61.0818 887 29.7825
61.1987 919 30.315
61.3158 887 29.7825
61.4328 839 28.9655
61.5499 897 29.95
61.667 822 28.6705
61.7841 881 29.6816
61.9013 848 29.1204
62.0185 847 29.1033
62.1357 791 28.1247
62.253 839 28.9655
62.3702 802 28.3196
62.4875 750 27.3861
62.6049 742 27.2397
62.7222 726 26.9444
62.8396 693 26.3249
62.9569 783 27.9821
63.0743 742 27.2397
63.1918 736 27.1293
63.3092 771 27.7669
63.4267 781 27.9464
63.5441 777 27.8747
63.6616 751 27.4044
63.7791 837 28.931
63.8966 768 27.7128
64.0142 760 27.5681
64.1317 760 27.5681
64.2492 787 28.0535
64.3668 770 27.7489
64.4843 745 27.2947
64.6019 782 27.9643
64.7195 735 27.1109
64.837 744 27.2764
64.9546 711 26.6646
65.0722 717 26.7769
65.1898 772 27.7849
65.3074 719 26.8142
65.4249 739 27.1846
65.5425 760 27.5681
65.6601 755 27.4773
65.7777 730 27.0185
65.8952 718 26.7955
66.0128 703 26.5141
66.1304 664 25.7682
66.2479 640 25.2982
66.3655 601 24.5153
66.483 643 25.3574
66.6005 641 25.318
66.718 608 24.6577
66.8355 659 25.671
66.953 645 25.3969
67.0705 724 26.9072
67.1879 651 25.5147
67.3054 664 25.7682
67.4228 676 26
67.5402 674 25.9615
67.6576 647 25.4362
67.7749 636 25.219
67.8923 712 26.6833
68.0096 660 25.6905
68.1269 627 25.04
68.2442 690 26.2679
68.3614 654 25.5734
68.4787 674 25.9615
68.5958 710 26.6458
68.713 656 25.6125
68.8302 691 26.2869
68.9473 673 25.9422
69.0643 679 26.0576
69.1814 644 25.3772
69.2984 593 24.3516
69.4154 632 25.1396
69.5323 672 25.923
69.6492 653 25.5539
69.7661 679 26.0576
69.8829 623 24.96
69.9997 535 23.1301
70.1165 528 22.9783
70.2332 539 23.2164
70.3499 577 24.0208
70.4665 591 24.3105
70.5831 548 23.4094
70.6996 645 25.3969
70.8161 582 24.1247
70.9326 667 25.8263
71.049 630 25.0998
71.1653 659 25.671
71.2817 577 24.0208
71.3979 617 24.8395
71.5141 586 24.2074
71.6303 561 23.6854
71.7464 571 23.8956
71.8624 0 1
71.9784 0 1
72.0944 0 1
72.2102 0 1
72.3261 0 1
72.4418 0 1
72.5575 0 1
72.6732 0 1
75.1054 0 1
75.2209 0 1
75.3365 0 1
75.4521 0 1
75.5678 0 1
75.6835 0 1
75.7993 0 1
75.9151 0 1
76.031 0 1
76.147 441 21
76.263 485 22.0227
76.3791 502 22.4054
76.4952 504 22.4499
76.6113 507 22.5167
76.7276 509 22.561
76.8438 471 21.7025
76.9601 477 21.8403
77.0765 448 21.166
77.1929 437 20.9045
77.3093 505 22.4722
77.4258 448 21.166
77.5423 435 20.8567
77.6589 476 21.8174
77.7755 448 21.166
77.8921 404 20.0998
78.0088 419 20.4695
78.1256 455 21.3307
78.2423 444 21.0713
78.3591 425 20.6155
78.4759 372 19.2873
78.5928 410 20.2485
78.7097 411 20.2731
78.8266 417 20.4206
78.9436 382 19.5448
79.0606 316 17.7764
79.1776 281 16.7631
79.2946 281 16.7631
79.4117 320 17.8885
79.5288 361 19
79.6459 379 19.4679
79.7631 335 18.303
79.8802 359 18.9473
79.9974 300 17.3205
80.1147 299 17.2916
80.2319 327 18.0831
80.3491 294 17.1464
80.4664 305 17.4642
80.5837 313 17.6918
80.701 288 16.9706
80.8183 292 17.088
80.9357 284 16.8523
81.053 254 15.9374
81.1704 253 15.906
81.2877 260 16.1245
81.4051 252 15.8745
81.5225 248 15.748
81.6399 239 15.4596
81.7573 244 15.6205
81.8747 200 14.1421
81.9922 236 15.3623
82.1096 194 13.9284
82.227 212 14.5602
82.3444 190 13.784
82.4619 203 14.2478
82.5793 202 14.2127
82.6967 191 13.8203
82.8142 174 13.1909
82.9316 140 11.8322
83.049 161 12.6886
83.1664 154 12.4097
83.2838 161 12.6886
83.4012 129 11.3578
83.5186 134 11.5758
83.636 127 11.2694
83.7534 139 11.7898
83.8708 120 10.9545
83.9881 121 11
84.1055 120 10.9545
84.2228 114 10.6771
84.3401 116 10.7703
84.4575 100 10
84.5747 122 11.0454
84.692 100 10
84.8093 99 9.94987
84.9265 100 10
85.0437 102 10.0995
85.1609 102 10.0995
85.2781 90 9.48683
85.3952 85 9.21954
85.5123 89 9.43398
85.6294 88 9.38083
85.7465 97 9.84886
85.8636 96 9.79796
85.9806 89 9.43398
86.0976 95 9.74679
86.2145 70 8.3666
86.3315 96 9.79796
86.4484 110 10.4881
86.5652 102 10.0995
86.682 107 10.3441
86.7988 139 11.7898
86.9156 97 9.84886
87.0323 130 11.4018
87.149 121 11
87.2657 123 11.0905
87.3823 129 11.3578
87.4988 141 11.8743
87.6154 122 11.0454
87.7318 156 12.49
87.8483 146 12.083
87.9647 161 12.6886
88.081 178 13.3417
88.1973 186 13.6382
88.3136 204 14.2829
88.4298 220 14.8324
88.546 200 14.1421
88.6621 193 13.8924
88.7781 202 14.2127
88.8942 0 1
89.0101 0 1
89.126 0 1
89.2419 0 1
89.3577 0 1
89.4734 0 1
89.5891 0 1
89.7047 0 1
89.8203 0 1
89.9358 0 1
92.3269 0 1
92.4424 0 1
92.558 0 1
92.6736 0 1
92.7893 0 1
92.905 0 1
93.0208 0 1
93.1366 0 1
93.2525 0 1
93.3685 0 1
93.4845 0 1
93.6005 345 18.5742
93.7167 315 17.7482
93.8328 322 17.9444
93.949 342 18.4932
94.0653 269 16.4012
94.1816 323 17.9722
94.2979 329 18.1384
94.4143 273 16.5227
94.5307 272 16.4924
94.6472 282 16.7929
94.7637 249 15.7797
94.8803 269 16.4012
94.9969 273 16.5227
95.1135 250 15.8114
95.2302 277 16.6433
95.3469 233 15.2643
95.4637 209 14.4568
95.5805 209 14.4568
95.6973 244 15.6205
95.8142 279 16.7033
95.9311 297 17.2337
96.048 293 17.1172
96.1649 315 17.7482
96.2819 326 18.0555
96.3989 348 18.6548
96.516 341 18.4662
96.633 363 19.0526
96.7501 303 17.4069
96.8673 339 18.412
96.9844 361 19
97.1016 380 19.4936
97.2188 417 20.4206
97.336 373 19.3132
97.4532 412 20.2978
97.5704 449 21.1896
97.6877 461 21.4709
97.805 417 20.4206
97.9223 415 20.3715
98.0396 455 21.3307
98.1569 453 21.2838
98.2743 426 20.6398
98.3916 454 21.3073
98.509 469 21.6564
98.6264 470 21.6795
98.7438 499 22.3383
98.8612 487 22.0681
98.9786 444 21.0713
99.096 350 18.7083
99.2134 313 17.6918
99.3308 437 20.9045
99.4482 518 22.7596
99.5656 531 23.0434
99.6831 555 23.5584
99.8005 593 24.3516
99.9179 546 23.3666
100.035 623 24.96
100.153 534 23.1084
100.27 603 24.5561
100.388 548 23.4094
100.505 608 24.6577
100.622 617 24.8395
100.74 617 24.8395
100.857 677 26.0192
100.975 588 24.2487
101.092 632 25.1396
101.209 665 25.7876
101.327 656 25.6125
101.444 664 25.7682
101.561 654 25.5734
101.679 659 25.671
101.796 703 26.5141
101.913 687 26.2107
102.03 676 26
102.148 702 26.4953
102.265 650 25.4951
102.382 644 25.3772
102.499 602 24.5357
102.616 545 23.3452
102.733 444 21.0713
102.851 520 22.8035
102.968 696 26.3818
103.085 706 26.5707
103.202 722 26.8701
103.319 694 26.3439
103.436 694 26.3439
103.552 748 27.3496
103.669 676 26
103.786 697 26.4008
103.903 674 25.9615
104.02 693 26.3249
104.137 708 26.6083
104.253 705 26.5518
104.37 713 26.7021
104.487 703 26.5141
104.603 755 27.4773
104.72 756 27.4955
104.836 759 27.55
104.953 729 27
105.069 727 26.9629
105.186 752 27.4226
105.302 728 26.9815
105.418 725 26.9258
105.535 683 26.1343
105.651 759 27.55
105.767 798 28.2489
105.883 690 26.2679
105.999 610 24.6982
106.115 0 1
106.231 0 1
106.347 0 1
106.463 0 1
106.579 0 1
106.694 0 1
106.81 0 1
106.926 0 1
107.041 0 1
107.157 0 1
109.576 0 1
109.692 0 1
109.807 0 1
109.923 0 1
110.039 0 1
110.155 0 1
110.27 0 1
110.386 0 1
110.502 0 1
110.618 604 24.5764
110.735 573 23.9374
110.851 572 23.9165
110.967 541 23.2594
111.083 494 22.2261
111.199 447 21.1424
111.316 438 20.9284
111.432 492 22.1811
111.549 529 23
111.665 543 23.3024
111.782 558 23.622
111.898 530 23.0217
112.015 501 22.383
112.132 533 23.0868
112.248 503 22.4277
112.365 481 21.9317
112.482 490 22.1359
112.599 508 22.5389
112.716 483 21.9773
112.832 472 21.7256
112.949 439 20.9523
113.066 468 21.6333
113.183 497 22.2935
113.3 470 21.6795
113.417 458 21.4009
113.534 474 21.7715
113.652 456 21.3542
113.769 445 21.095
113.886 442 21.0238
114.003 448 21.166
114.12 471 21.7025
114.238 447 21.1424
114.355 456 21.3542
114.472 429 20.7123
114.589 386 19.6469
114.707 341 18.4662
114.824 389 19.7231
114.942 337 18.3576
115.059 394 19.8494
115.176 416 20.3961
115.294 406 20.1494
115.411 414 20.347
115.529 421 20.5183
115.646 452 21.2603
115.764 452 21.2603
115.881 389 19.7231
115.999 396 19.8997
116.116 403 20.0749
116.234 435 20.8567
116.351 404 20.0998
116.469 416 20.3961
116.586 409 20.2237
116.704 422 20.5426
116.821 401 20.025
116.939 419 20.4695
117.056 391 19.7737
117.174 438 20.9284
117.291 385 19.6214
117.409 409 20.2237
117.526 419 20.4695
117.644 386 19.6469
117.761 417 20.4206
117.879 362 19.0263
117.996 358 18.9209
118.114 324 18
118.231 367 19.1572
118.349 392 19.799
118.466 405 20.1246
118.584 410 20.2485
118.701 428 20.6882
118.819 419 20.4695
118.936 380 19.4936
119.053 422 20.5426
119.171 438 20.9284
119.288 447 21.1424
119.405 403 20.0749
119.523 428 20.6882
119.64 388 19.6977
119.757 443 21.0476
119.875 421 20.5183
119.992 393 19.8242
120.109 419 20.4695
120.226 444 21.0713
120.343 401 20.025
120.46 421 20.5183
120.578 442 21.0238
120.695 436 20.8806
120.812 425 20.6155
120.929 453 21.2838
121.046 420 20.4939
121.163 474 21.7715
121.279 451 21.2368
121.396 436 20.8806
121.513 372 19.2873
121.63 389 19.7231
121.747 330 18.1659
121.863 293 17.1172
121.98 352 18.7617
122.097 385 19.6214
122.213 374 19.3391
122.33 435 20.8567
122.446 453 21.2838
122.563 409 20.2237
122.679 496 22.2711
122.795 426 20.6398
122.912 434 20.8327
123.028 421 20.5183
123.144 483 21.9773
123.26 474 21.7715
123.377 0 1
123.493 0 1
123.609 0 1
123.725 0 1
123.84 0 1
123.956 0 1
124.072 0 1
124.188 0 1
124.303 0 1
124.419 0 1
126.852 0 1
126.968 0 1
127.083 0 1
127.199 0 1
127.315 0 1
127.431 0 1
127.547 0 1
127.663 0 1
127.779 0 1
127.895 0 1
128.011 0 1
128.127 0 1
128.243 0 1
128.359 567 23.8118
128.476 565 23.7697
128.592 582 24.1247
128.708 548 23.4094
128.825 549 23.4307
128.941 620 24.8998
129.058 574 23.9583
129.174 615 24.7992
129.291 587 24.2281
129.408 542 23.2809
129.524 613 24.7588
129.641 554 23.5372
129.758 584 24.1661
129.875 592 24.3311
129.992 572 23.9165
130.108 603 24.5561
130.225 547 23.388
130.342 511 22.6053
130.459 496 22.2711
130.576 445 21.095
130.693 465 21.5639
130.81 395 19.8746
130.928 414 20.347
131.045 487 22.0681
131.162 584 24.1661
131.279 585 24.1868
131.396 599 24.4745
131.513 633 25.1595
131.631 628 25.0599
131.748 656 25.6125
131.865 680 26.0768
131.983 612 24.7386
132.1 577 24.0208
132.217 652 25.5343
132.335 618 24.8596
132.452 590 24.2899
132.57 655 25.593
132.687 599 24.4745
132.804 697 26.4008
132.922 646 25.4165
133.039 621 24.9199
133.157 680 26.0768
133.274 623 24.96
133.392 610 24.6982
133.509 631 25.1197
133.627 614 24.779
133.744 662 25.7294
133.862 592 24.3311
133.979 556 23.5797
134.097 497 22.2935
134.214 520 22.8035
134.332 436 20.8806
134.449 455 21.3307
134.567 496 22.2711
134.684 537 23.1733
134.802 681 26.096
134.919 695 26.3629
135.037 655 25.593
135.154 616 24.8193
135.272 683 26.1343
135.389 707 26.5895
135.507 739 27.1846
135.624 714 26.7208
135.742 728 26.9815
135.859 692 26.3059
135.977 722 26.8701
136.094 682 26.1151
136.211 702 26.4953
136.329 742 27.2397
136.446 730 27.0185
136.564 701 26.4764
136.681 644 25.3772
136.798 722 26.8701
136.915 707 26.5895
137.033 713 26.7021
137.15 710 26.6458
137.267 667 25.8263
137.384 673 25.9422
137.502 653 25.5539
137.619 583 24.1454
137.736 607 24.6374
137.853 558 23.622
137.97 525 22.9129
138.087 544 23.3238
138.204 560 23.6643
138.321 605 24.5967
138.438 665 25.7876
138.555 742 27.2397
138.672 752 27.4226
138.788 740 27.2029
138.905 750 27.3861
139.022 798 28.2489
139.139 797 28.2312
139.255 759 27.55
139.372 769 27.7308
139.488 781 27.9464
139.605 774 27.8209
139.721 819 28.6182
139.838 748 27.3496
139.954 748 27.3496
140.071 765 27.6586
140.187 759 27.55
140.303 740 27.2029
140.419 753 27.4408
140.535 739 27.1846
140.652 705 26.5518
140.768 0 1
140.884 0 1
141 0 1
141.115 0 1
141.231 0 1
141.347 0 1
141.463 0 1
141.578 0 1
141.694 0 1
144.104 0 1
144.219 0 1
144.335 0 1
144.45 0 1
144.566 0 1
144.682 0 1
144.798 0 1
144.914 0 1
145.03 0 1
145.146 743 27.258
145.262 751 27.4044
145.378 716 26.7582
145.494 795 28.1957
145.61 729 27
145.726 746 27.313
145.842 710 26.6458
145.959 743 27.258
146.075 653 25.5539
146.192 636 25.219
146.308 629 25.0799
146.425 641 25.318
146.541 577 24.0208
146.658 622 24.9399
146.774 597 24.4336
146.891 616 24.8193
147.008 647 25.4362
147.125 700 26.4575
147.241 718 26.7955
147.358 745 27.2947
147.475 739 27.1846
147.592 827 28.7576
147.709 771 27.7669
147.826 719 26.8142
147.943 780 27.9285
148.06 701 26.4764
148.177 758 27.5318
148.294 723 26.8887
148.411 760 27.5681
148.528 753 27.4408
148.645 722 26.8701
148.762 732 27.0555
148.88 759 27.55
148.997 696 26.3818
149.114 739 27.1846
149.231 755 27.4773
149.349 747 27.3313
149.466 673 25.9422
149.583 721 26.8514
149.701 688 26.2298
149.818 627 25.04
149.935 639 25.2784
150.053 612 24.7386
150.17 619 24.8797
150.287 598 24.454
150.405 590 24.2899
150.522 604 24.5764
150.64 645 25.3969
150.757 650 25.4951
150.875 681 26.096
150.992 721 26.8514
151.11 717 26.7769
151.227 760 27.5681
151.344 738 27.1662
151.462 774 27.8209
151.579 739 27.1846
151.697 775 27.8388
151.814 785 28.0179
151.932 737 27.1477
152.049 762 27.6043
152.167 691 26.2869
152.284 778 27.8927
152.402 772 27.7849
152.519 789 28.0891
152.636 762 27.6043
152.754 813 28.5132
152.871 688 26.2298
152.989 753 27.4408
153.106 711 26.6646
153.223 707 26.5895
153.341 662 25.7294
153.458 691 26.2869
153.575 727 26.9629
153.693 631 25.1197
153.81 626 25.02
153.927 669 25.865
154.044 647 25.4362
154.162 655 25.593
154.279 713 26.7021
154.396 721 26.8514
154.513 771 27.7669
154.63 797 28.2312
154.747 770 27.7489
154.864 804 28.3549
154.981 799 28.2666
155.098 805 28.3725
155.215 810 28.4605
155.332 807 28.4077
155.449 806 28.3901
155.566 759 27.55
155.683 810 28.4605
155.8 765 27.6586
155.917 747 27.3313
156.033 799 28.2666
156.15 0 1
156.267 0 1
156.383 0 1
156.5 0 1
156.617 0 1
156.733 0 1
156.85 0 1
156.966 0 1
157.082 0 1
157.199 0 1
157.315 0 1
157.431 0 1
157.547 0 1
157.664 0 1
157.78 0 1
157.896 0 1
158.012 0 1
158.128 0 1
158.244 0 1
158.359 0 1
158.475 0 1
158.591 0 1
158.706 0 1
