
6.15755 0 1
6.2731 0 1
6.3887 0 1
6.50437 0 1
6.62009 0 1
6.73587 0 1
6.8517 0 1
6.96759 0 1
7.08353 0 1
7.19952 0 1
7.31557 0 1
7.43166 0 1
7.54781 0 1
7.664 0 1
7.78024 0 1
7.89653 0 1
8.01286 0 1
8.12924 0 1
8.24567 0 1
8.36213 0 1
8.47864 0 1
8.59519 0 1
8.71178 0 1
8.82841 0 1
8.94508 0 1
9.06179 0 1
9.17853 0 1
9.29531 0 1
9.41212 0 1
9.52897 0 1
9.64584 0 1
9.76276 0 1
9.8797 0 1
9.99667 0 1
10.1137 0 1
10.2307 0 1
10.3478 0 1
10.4648 0 1
10.5819 0 1
10.6991 0 1
10.8162 0 1
10.9334 0 1
11.0506 0 1
11.1678 0 1
11.285 0 1
11.4023 0 1
11.5196 0 1
11.6369 0 1
11.7542 0 1
11.8715 0 1
11.9888 0 1
12.1062 0 1
12.2235 0 1
12.3409 0 1
12.4582 0 1
12.5756 0 1
12.693 0 1
12.8104 0 1
12.9278 0 1
13.0452 0 1
13.1626 0 1
13.28 0 1
13.3974 0 1
13.5149 0 1
13.6323 0 1
13.7497 0 1
13.8671 0 1
13.9845 0 1
14.1019 0 1
14.2193 0 1
14.3367 0 1
14.4541 0 1
14.5714 0 1
14.6888 0 1
14.8062 0 1
14.9235 0 1
15.0408 0 0
15.1581 0 0
15.2755 0 0
15.3927 0 0
15.51 0 0
15.6273 0 0
15.7445 0 0
15.8617 0 0
15.9789 0 0
16.0961 0 0
16.2132 0 0
16.3304 0 0
16.4475 0 0
16.5646 0 0
16.6816 0 0
16.7986 0 0
16.9156 0 0
17.0326 0 0
17.1496 0 0
17.2665 0 0
17.3833 0 0
17.5002 0 0
17.617 0 0
17.7338 0 0
17.8505 0 0
17.9672 0 0
18.0839 0 0
18.2005 0 0
18.3171 0 0
18.4337 0 0
18.5502 0 0
18.6666 0 0
18.7831 0 0
18.8994 0 0
19.0158 0 0
19.1321 0 0
19.2483 0 0
19.3645 0 0
19.4806 0 0
19.5967 0 0
19.7128 0 0
19.8288 0 0
19.9447 0 0
20.0606 0 1
20.1764 0 1
20.2922 0 1
20.4079 0 1
20.5236 0 1
20.6392 0 1
20.7548 0 1
20.8702 0 1
23.3078 0 1
23.4233 0 1
23.539 0 1
23.6547 0 1
23.7704 0 1
23.8862 0 1
24.0021 0 1
24.118 0 1
24.234 0 1
24.35 0 1
24.4661 9340 96.6437
24.5822 9553 97.7394
24.6984 9455 97.2368
24.8146 9172 95.7706
24.9309 9047 95.1157
25.0472 8947 94.5886
25.1636 9043 95.0947
25.28 9150 95.6556
25.3965 9407 96.9897
25.513 9593 97.9439
25.6296 9675 98.3616
25.7462 9795 98.9697
25.8628 9953 99.7647
25.9795 9705 98.514
26.0962 9802 99.0051
26.213 9840 99.1968
26.3298 9291 96.3898
26.4466 9340 96.6437
26.5635 8939 94.5463
26.6804 8928 94.4881
26.7973 9169 95.7549
26.9143 9547 97.7088
27.0313 9740 98.6914
27.1483 9749 98.737
27.2653 9938 99.6895
27.3824 9969 99.8449
27.4996 10124 100.618
27.6167 10229 101.139
27.7339 9795 98.9697
27.8511 9644 98.2039
27.9683 9491 97.4218
28.0855 9380 96.8504
28.2028 9188 95.8541
28.3201 8824 93.9361
28.4374 8594 92.7038
28.5547 8170 90.3881
28.6721 8232 90.7304
28.7894 8233 90.7359
28.9068 8226 90.6973
29.0242 8509 92.2442
29.1416 8616 92.8224
29.259 8580 92.6283
29.3764 8620 92.844
29.4939 8688 93.2094
29.6113 8624 92.8655
29.7288 8417 91.7442
29.8463 8265 90.912
29.9638 8194 90.5207
30.0812 7911 88.9438
30.1987 8060 89.7775
30.3162 8349 91.3729
30.4337 8584 92.6499
30.5512 8817 93.8989
30.6687 9050 95.1315
30.7862 9169 95.7549
30.9037 9339 96.6385
31.0212 9370 96.7988
31.1387 9766 98.8231
31.2562 9187 95.8488
31.3737 9135 95.5772
31.4912 9085 95.3153
31.6087 8876 94.2125
31.7262 8712 93.3381
31.8436 8733 93.4505
31.9611 8225 90.6918
32.0785 7966 89.2525
32.1959 8048 89.7106
32.3134 7836 88.5212
32.4308 8028 89.5991
32.5482 7966 89.2525
32.6655 8294 91.0714
32.7829 8306 91.1373
32.9002 8311 91.1647
33.0176 8268 90.9285
33.1349 8190 90.4986
33.2522 8292 91.0604
33.3694 8293 91.0659
33.4867 7872 88.7243
33.6039 7871 88.7187
33.7211 7922 89.0056
33.8383 7849 88.5946
33.9554 8050 89.7218
34.0725 8487 92.1249
34.1896 8566 92.5527
34.3067 8695 93.247
34.4237 8941 94.5569
34.5407 9131 95.5563
34.6577 8910 94.3928
34.7746 9071 95.2418
34.8915 9195 95.8906
35.0084 9098 95.3834
35.1252 8893 94.3027
35.242 8710 93.3274
35.3587 8643 92.9677
35.4755 8480 92.0869
35.5921 8307 91.1427
35.7088 7922 89.0056
35.8254 7554 86.9138
35.9419 7721 87.8692
36.0584 7665 87.55
36.1749 7751 88.0398
36.2913 7755 88.0625
36.4077 7665 87.55
36.524 7683 87.6527
36.6403 7921 89
36.7565 8008 89.4874
36.8727 7865 88.6848
36.9889 7736 87.9545
37.1049 7762 88.1022
37.221 0 1
37.3369 0 1
37.4529 0 1
37.5687 0 1
37.6845 0 1
37.8003 0 1
37.916 0 1
38.0316 0 1
38.1472 0 1
40.5851 0 1
40.7008 0 1
40.8164 0 1
40.9322 0 1
41.048 0 1
41.1639 0 1
41.2798 0 1
41.3958 0 1
41.5118 0 1
41.6279 0 1
41.744 6273 79.2023
41.8602 6496 80.5978
41.9765 6565 81.0247
42.0928 6668 81.6578
42.2091 6612 81.3142
42.3255 6660 81.6088
42.4419 6475 80.4674
42.5584 6282 79.2591
42.675 6484 80.5233
42.7915 6582 81.1295
42.9081 6905 83.0963
43.0248 7068 84.0714
43.1415 7153 84.5754
43.2582 7423 86.1568
43.375 7517 86.7006
43.4918 7600 87.178
43.6087 7466 86.406
43.7256 7322 85.5687
43.8425 7360 85.7904
43.9595 7305 85.4693
44.0765 7189 84.788
44.1935 6980 83.5464
44.3106 6721 81.9817
44.4277 6476 80.4736
44.5448 6053 77.801
44.6619 5831 76.361
44.7791 5945 77.1038
44.8963 5845 76.4526
45.0136 5903 76.831
45.1308 5957 77.1816
45.2481 5960 77.201
45.3654 5801 76.1643
45.4827 6010 77.5242
45.6001 5815 76.2561
45.7174 6003 77.479
45.8348 5734 75.7232
45.9522 5477 74.0068
46.0697 5274 72.6223
46.1871 5383 73.3689
46.3046 5437 73.736
46.422 5714 75.591
46.5395 5695 75.4652
46.657 6114 78.1921
46.7745 6241 79
46.892 6217 78.848
47.0096 6407 80.0437
47.1271 6207 78.7845
47.2446 6241 79
47.3622 6071 77.9166
47.4797 6147 78.4028
47.5973 6019 77.5822
47.7149 5644 75.1266
47.8324 5563 74.5855
47.95 5163 71.854
48.0675 4987 70.6187
48.1851 4697 68.5347
48.3027 4618 67.9559
48.4202 4662 68.2788
48.5378 4759 68.9855
48.6554 4789 69.2026
48.7729 4838 69.5557
48.8904 4974 70.5266
49.008 5051 71.0704
49.1255 5132 71.638
49.243 5066 71.1758
49.3605 4943 70.3065
49.478 4656 68.2349
49.5955 4654 68.2202
49.713 4810 69.3542
49.8304 4992 70.6541
49.9479 5389 73.4098
50.0653 5625 75
50.1827 6049 77.7753
50.3001 6027 77.6338
50.4175 6420 80.1249
50.5348 6613 81.3204
50.6521 6919 83.1805
50.7694 6893 83.0241
50.8867 6994 83.6301
51.004 7117 84.3623
51.1212 6979 83.5404
51.2384 7177 84.7172
51.3556 7219 84.9647
51.4727 6806 82.4985
51.5899 6390 79.9375
51.707 6255 79.0886
51.824 6477 80.4798
51.9411 6228 78.9177
52.0581 6487 80.5419
52.175 6665 81.6395
52.2919 6670 81.6701
52.4088 6762 82.2314
52.5257 6983 83.5643
52.6425 7051 83.9702
52.7593 7026 83.8212
52.876 7180 84.7349
52.9927 6775 82.3104
53.1094 6770 82.28
53.226 6678 81.719
53.3426 6846 82.7406
53.4591 7076 84.119
53.5756 7524 86.741
53.692 8071 89.8387
53.8084 8267 90.923
53.9248 8680 93.1665
54.0411 8781 93.707
54.1573 9203 95.9323
54.2735 0 1
54.3896 0 1
54.5057 0 1
54.6217 0 1
54.7377 0 1
54.8537 0 1
54.9695 0 1
55.0853 0 1
55.2011 0 1
55.3168 0 1
55.4324 0 1
57.824 0 1
57.9396 0 1
58.0553 0 1
58.1711 0 1
58.2869 0 1
58.4028 0 1
58.5187 0 1
58.6347 0 1
58.7508 0 1
58.8669 0 1
58.983 9807 99.0303
59.0992 10141 100.703
59.2155 10595 102.932
59.3318 10863 104.226
59.4482 11076 105.243
59.5646 11043 105.086
59.681 10939 104.59
59.7975 10862 104.221
59.9141 10420 102.078
60.0306 9936 99.6795
60.1473 9537 97.6576
60.2639 8733 93.4505
60.3807 8233 90.7359
60.4974 8143 90.2386
60.6142 8122 90.1221
60.731 8162 90.3438
60.8479 8267 90.923
60.9648 8356 91.4112
61.0818 8644 92.9731
61.1987 8607 92.7739
61.3158 8835 93.9947
61.4328 8292 91.0604
61.5499 8119 90.1055
61.667 7980 89.3308
61.7841 7653 87.4814
61.9013 7851 88.6059
62.0185 8168 90.377
62.1357 8249 90.824
62.253 8994 94.8367
62.3702 9248 96.1665
62.4875 9526 97.6012
62.6049 9777 98.8787
62.7222 10366 101.814
62.8396 10325 101.612
62.9569 10647 103.184
63.0743 10451 102.23
63.1918 10372 101.843
63.3092 10059 100.295
63.4267 9903 99.5138
63.5441 9257 96.2133
63.6616 8526 92.3363
63.7791 8010 89.4986
63.8966 7867 88.6961
64.0142 7491 86.5506
64.1317 7488 86.5332
64.2492 7520 86.7179
64.3668 7692 87.704
64.4843 7849 88.5946
64.6019 7859 88.651
64.7195 7998 89.4315
64.837 8185 90.471
64.9546 8118 90.0999
65.0722 7661 87.5271
65.1898 7285 85.3522
65.3074 7262 85.2174
65.4249 7205 84.8823
65.5425 7181 84.7408
65.6601 7497 86.5852
65.7777 7993 89.4036
65.8952 8478 92.0761
66.0128 8905 94.3663
66.1304 9312 96.4987
66.2479 9831 99.1514
66.3655 10143 100.712
66.483 10220 101.094
66.6005 10177 100.881
66.718 10157 100.782
66.8355 10028 100.14
66.953 9768 98.8332
67.0705 9189 95.8593
67.1879 8674 93.1343
67.3054 8120 90.111
67.4228 7419 86.1336
67.5402 6917 83.1685
67.6576 7064 84.0476
67.7749 7055 83.994
67.8923 7362 85.8021
68.0096 7425 86.1684
68.1269 7670 87.5785
68.2442 8189 90.4931
68.3614 8264 90.9065
68.4787 8338 91.3126
68.5958 8174 90.4102
68.713 7907 88.9213
68.8302 7621 87.2983
68.9473 7376 85.8836
69.0643 7174 84.6995
69.1814 7401 86.0291
69.2984 7918 88.9831
69.4154 8269 90.934
69.5323 8970 94.7101
69.6492 9196 95.8958
69.7661 9781 98.8989
69.8829 10012 100.06
69.9997 10473 102.338
70.1165 10540 102.665
70.2332 10733 103.6
70.3499 10768 103.769
70.4665 10477 102.357
70.5831 10236 101.173
70.6996 9569 97.8213
70.8161 9088 95.331
70.9326 8405 91.6788
71.049 7787 88.244
71.1653 7281 85.3288
71.2817 7069 84.0773
71.3979 6999 83.66
71.5141 7075 84.113
71.6303 7376 85.8836
71.7464 7049 83.9583
71.8624 0 1
71.9784 0 1
72.0944 0 1
72.2102 0 1
72.3261 0 1
72.4418 0 1
72.5575 0 1
72.6732 0 1
75.1054 0 1
75.2209 0 1
75.3365 0 1
75.4521 0 1
75.5678 0 1
75.6835 0 1
75.7993 0 1
75.9151 0 1
76.031 0 1
76.147 8382 91.5533
76.263 8674 93.1343
76.3791 8140 90.2219
76.4952 7648 87.4528
76.6113 7516 86.6949
76.7276 7541 86.8389
76.8438 7855 88.6284
76.9601 8135 90.1942
77.0765 8379 91.5369
77.1929 8700 93.2738
77.3093 9168 95.7497
77.4258 9285 96.3587
77.5423 9237 96.1093
77.6589 8807 93.8456
77.7755 8100 90
77.8921 7793 88.278
78.0088 7647 87.4471
78.1256 7394 85.9884
78.2423 7561 86.954
78.3591 7962 89.23
78.4759 8594 92.7038
78.5928 8978 94.7523
78.7097 9603 97.9949
78.8266 10575 102.835
78.9436 10301 101.494
79.0606 10908 104.441
79.1776 10855 104.187
79.2946 10920 104.499
79.4117 10880 104.307
79.5288 10795 103.899
79.6459 10347 101.72
79.7631 9657 98.27
79.8802 9081 95.2943
79.9974 8318 91.2031
80.1147 7566 86.9828
80.2319 7326 85.5921
80.3491 7271 85.2702
80.4664 7304 85.4634
80.5837 7762 88.1022
80.701 7949 89.1572
80.8183 7906 88.9157
80.9357 8401 91.657
81.053 8716 93.3595
81.1704 8759 93.5895
81.2877 8334 91.2907
81.4051 7777 88.1873
81.5225 7416 86.1162
81.6399 7011 83.7317
81.7573 6974 83.5105
81.8747 6821 82.5893
81.9922 7271 85.2702
82.1096 8011 89.5042
82.227 8309 91.1537
82.3444 9006 94.8999
82.4619 9538 97.6627
82.5793 9662 98.2955
82.6967 10203 101.01
82.8142 9953 99.7647
82.9316 10080 100.399
83.049 10112 100.558
83.1664 9599 97.9745
83.2838 9126 95.5301
83.4012 8570 92.5743
83.5186 8106 90.0333
83.636 7328 85.6037
83.7534 6898 83.0542
83.8708 6515 80.7155
83.9881 6449 80.3057
84.1055 6466 80.4114
84.2228 6723 81.9939
84.3401 7189 84.788
84.4575 7590 87.1206
84.5747 7960 89.2188
84.692 8565 92.5473
84.8093 8232 90.7304
84.9265 7822 88.4421
85.0437 7318 85.5453
85.1609 7001 83.672
85.2781 6774 82.3043
85.3952 6576 81.0925
85.5123 6858 82.813
85.6294 7312 85.5102
85.7465 7968 89.2637
85.8636 8470 92.0326
85.9806 9244 96.1457
86.0976 9746 98.7218
86.2145 10042 100.21
86.3315 10418 102.069
86.4484 10929 104.542
86.5652 10981 104.79
86.682 10710 103.489
86.7988 10369 101.828
86.9156 9920 99.5992
87.0323 9250 96.1769
87.149 8767 93.6323
87.2657 8153 90.294
87.3823 7696 87.7268
87.4988 7581 87.0689
87.6154 7657 87.5043
87.7318 7987 89.37
87.8483 8378 91.5314
87.9647 8813 93.8776
88.081 9297 96.421
88.1973 9757 98.7775
88.3136 9954 99.7697
88.4298 9580 97.8775
88.546 8660 93.0591
88.6621 7994 89.4092
88.7781 7432 86.209
88.8942 0 1
89.0101 0 1
89.126 0 1
89.2419 0 1
89.3577 0 1
89.4734 0 1
89.5891 0 1
89.7047 0 1
89.8203 0 1
89.9358 0 1
92.3269 0 1
92.4424 0 1
92.558 0 1
92.6736 0 1
92.7893 0 1
92.905 0 1
93.0208 0 1
93.1366 0 1
93.2525 0 1
93.3685 0 1
93.4845 0 1
93.6005 13968 118.186
93.7167 14854 121.877
93.8328 15509 124.535
93.949 15693 125.272
94.0653 15279 123.608
94.1816 15047 122.666
94.2979 15123 122.976
94.4143 15501 124.503
94.5307 16259 127.511
94.6472 17191 131.114
94.7637 18880 137.405
94.8803 21153 145.441
94.9969 22989 151.621
95.1135 24544 156.665
95.2302 25751 160.471
95.3469 27180 164.864
95.4637 28240 168.048
95.5805 29597 172.038
95.6973 30622 174.991
95.8142 31215 176.678
95.9311 31558 177.646
96.048 31380 177.144
96.1649 30666 175.117
96.2819 29977 173.139
96.3989 29200 170.88
96.516 27620 166.193
96.633 26168 161.765
96.7501 26305 162.188
96.8673 27859 166.91
96.9844 29403 171.473
97.1016 32180 179.388
97.2188 33439 182.863
97.336 34793 186.529
97.4532 35045 187.203
97.5704 34652 186.15
97.6877 33043 181.777
97.805 30840 175.613
97.9223 28132 167.726
98.0396 26742 163.53
98.1569 26144 161.691
98.2743 26031 161.341
98.3916 27282 165.173
98.509 29305 171.187
98.6264 31014 176.108
98.7438 32585 180.513
98.8612 34071 184.583
98.9786 34988 187.051
99.096 35618 188.727
99.2134 36041 189.845
99.3308 36554 191.191
99.4482 35883 189.428
99.5656 35892 189.452
99.6831 34922 186.874
99.8005 33966 184.299
99.9179 32806 181.124
100.035 31301 176.921
100.153 28965 170.191
100.27 27459 165.708
100.388 28026 167.41
100.505 29952 173.066
100.622 31728 178.124
100.74 32988 181.626
100.857 33437 182.858
100.975 34164 184.835
101.092 34208 184.954
101.209 33392 182.735
101.327 31704 178.056
101.444 29083 170.537
101.561 26601 163.098
101.679 24994 158.095
101.796 24076 155.164
101.913 24587 156.802
102.03 26216 161.914
102.148 28251 168.08
102.265 30600 174.929
102.382 28915 170.044
102.499 30462 174.534
102.616 30640 175.043
102.733 30421 174.416
102.851 30307 174.089
102.968 29694 172.319
103.085 28152 167.786
103.202 26972 164.232
103.319 25158 158.613
103.436 23575 153.542
103.552 21808 147.675
103.669 19399 139.28
103.786 17604 132.68
103.903 16830 129.73
104.02 17067 130.641
104.137 17473 132.185
104.253 17669 132.925
104.37 16508 128.483
104.487 17019 130.457
104.603 16335 127.808
104.72 15039 122.634
104.836 13473 116.073
104.953 11850 108.858
105.069 11041 105.076
105.186 10495 102.445
105.302 10180 100.896
105.418 10368 101.823
105.535 11367 106.616
105.651 11752 108.407
105.767 12438 111.526
105.883 13054 114.254
105.999 13165 114.739
106.115 0 1
106.231 0 1
106.347 0 1
106.463 0 1
106.579 0 1
106.694 0 1
106.81 0 1
106.926 0 1
107.041 0 1
107.157 0 1
109.576 0 1
109.692 0 1
109.807 0 1
109.923 0 1
110.039 0 1
110.155 0 1
110.27 0 1
110.386 0 1
110.502 0 1
110.618 9334 96.6126
110.735 10170 100.846
110.851 11055 105.143
110.967 11934 109.243
111.083 12063 109.832
111.199 12051 109.777
111.316 12319 110.991
111.432 12527 111.924
111.549 12195 110.431
111.665 11907 109.119
111.782 11209 105.873
111.898 10836 104.096
112.015 10160 100.797
112.132 9468 97.3036
112.248 8689 93.2148
112.365 8585 92.6553
112.482 8557 92.5041
112.599 8557 92.5041
112.716 9059 95.1788
112.832 9030 95.0263
112.949 9294 96.4054
113.066 9465 97.2882
113.183 9410 97.0052
113.3 8816 93.8936
113.417 8214 90.6311
113.534 7885 88.7975
113.652 7445 86.2844
113.769 7614 87.2582
113.886 7559 86.9425
114.003 8036 89.6437
114.12 8714 93.3488
114.238 9360 96.7471
114.355 10282 101.4
114.472 10705 103.465
114.589 10784 103.846
114.707 10937 104.58
114.824 11096 105.338
114.942 11337 106.475
115.059 11410 106.818
115.176 11070 105.214
115.294 10667 103.281
115.411 10277 101.376
115.529 9688 98.4276
115.646 9134 95.572
115.764 8736 93.4666
115.881 8397 91.6351
115.999 8403 91.6679
116.116 8613 92.8062
116.234 8704 93.2952
116.351 8864 94.1488
116.469 9151 95.6609
116.586 9235 96.0989
116.704 9398 96.9433
116.821 9113 95.462
116.939 8792 93.7657
117.056 8252 90.8405
117.174 8021 89.56
117.291 7994 89.4092
117.409 8141 90.2275
117.526 8525 92.3309
117.644 8890 94.2868
117.761 9780 98.8939
117.879 10442 102.186
117.996 10748 103.673
118.114 11348 106.527
118.231 11562 107.527
118.349 11650 107.935
118.466 11820 108.72
118.584 11835 108.789
118.701 11980 109.453
118.819 11468 107.089
118.936 11326 106.424
119.053 10831 104.072
119.171 10345 101.71
119.288 9771 98.8484
119.405 9292 96.395
119.523 8811 93.8669
119.64 9027 95.0105
119.757 9157 95.6922
119.875 9230 96.0729
119.992 9407 96.9897
120.109 9259 96.2237
120.226 9421 97.0618
120.343 9401 96.9588
120.46 9125 95.5249
120.578 8907 94.3769
120.695 8435 91.8423
120.812 8428 91.8041
120.929 8309 91.1537
121.046 8287 91.033
121.163 8516 92.2822
121.279 8810 93.8616
121.396 9434 97.1288
121.513 10105 100.524
121.63 10697 103.426
121.747 11232 105.981
121.863 11549 107.466
121.98 11724 108.277
122.097 11637 107.875
122.213 11752 108.407
122.33 11714 108.231
122.446 11445 106.981
122.563 11282 106.217
122.679 10851 104.168
122.795 10664 103.267
122.912 10283 101.405
123.028 10014 100.07
123.144 9167 95.7445
123.26 8876 94.2125
123.377 0 1
123.493 0 1
123.609 0 1
123.725 0 1
123.84 0 1
123.956 0 1
124.072 0 1
124.188 0 1
124.303 0 1
124.419 0 1
126.852 0 1
126.968 0 1
127.083 0 1
127.199 0 1
127.315 0 1
127.431 0 1
127.547 0 1
127.663 0 1
127.779 0 1
127.895 0 1
128.011 0 1
128.127 0 1
128.243 0 1
128.359 10644 103.17
128.476 10266 101.321
128.592 9926 99.6293
128.708 10433 102.142
128.825 10456 102.255
128.941 10997 104.867
129.058 10886 104.336
129.174 11087 105.295
129.291 10856 104.192
129.408 10640 103.15
129.524 10356 101.764
129.641 10061 100.305
129.758 9743 98.7066
129.875 9796 98.9747
129.992 9677 98.3717
130.108 9575 97.8519
130.225 10321 101.592
130.342 10738 103.624
130.459 10981 104.79
130.576 12102 110.009
130.693 12132 110.145
130.81 12402 111.364
130.928 12259 110.72
131.045 12199 110.449
131.162 12497 111.79
131.279 12429 111.485
131.396 12507 111.835
131.513 12037 109.713
131.631 11666 108.009
131.748 11410 106.818
131.865 10935 104.571
131.983 10333 101.651
132.1 10075 100.374
132.217 9939 99.6945
132.335 10365 101.809
132.452 10360 101.784
132.57 10556 102.742
132.687 10129 100.643
132.804 10699 103.436
132.922 10414 102.049
133.039 10313 101.553
133.157 9761 98.7978
133.274 9675 98.3616
133.392 9526 97.6012
133.509 9427 97.0927
133.627 9486 97.3961
133.744 9915 99.5741
133.862 10346 101.715
133.979 10787 103.86
134.097 11618 107.787
134.214 11783 108.55
134.332 11538 107.415
134.449 12118 110.082
134.567 11947 109.302
134.684 12335 111.063
134.802 12398 111.346
134.919 12303 110.919
135.037 12216 110.526
135.154 11979 109.449
135.272 11693 108.134
135.389 11101 105.361
135.507 10791 103.88
135.624 10279 101.385
135.742 10385 101.907
135.859 10549 102.708
135.977 10745 103.658
136.094 10981 104.79
136.211 11035 105.048
136.329 11294 106.273
136.446 10895 104.379
136.564 10842 104.125
136.681 10797 103.909
136.798 10165 100.822
136.915 10074 100.369
137.033 10002 100.01
137.15 10136 100.678
137.267 9830 99.1464
137.384 10400 101.98
137.502 10711 103.494
137.619 11054 105.138
137.736 11608 107.74
137.853 11628 107.833
137.97 11990 109.499
138.087 12367 111.207
138.204 12351 111.135
138.321 12392 111.319
138.438 12611 112.299
138.555 12447 111.566
138.672 12503 111.817
138.788 12332 111.05
138.905 12019 109.631
139.022 11724 108.277
139.139 11332 106.452
139.255 10830 104.067
139.372 10603 102.971
139.488 10885 104.331
139.605 11101 105.361
139.721 11237 106.005
139.838 11417 106.85
139.954 11381 106.682
140.071 10966 104.719
140.187 11037 105.057
140.303 10592 102.917
140.419 10282 101.4
140.535 10074 100.369
140.652 9687 98.4226
140.768 0 1
140.884 0 1
141 0 1
141.115 0 1
141.231 0 1
141.347 0 1
141.463 0 1
141.578 0 1
141.694 0 1
144.104 0 1
144.219 0 1
144.335 0 1
144.45 0 1
144.566 0 1
144.682 0 1
144.798 0 1
144.914 0 1
145.03 0 1
145.146 10518 102.557
145.262 10433 102.142
145.378 10263 101.306
145.494 10002 100.01
145.61 9900 99.4987
145.726 9793 98.9596
145.842 9756 98.7725
145.959 9574 97.8468
146.075 9925 99.6243
146.192 10280 101.39
146.308 10465 102.299
146.425 10839 104.111
146.541 11112 105.413
146.658 11096 105.338
146.774 11423 106.878
146.891 11583 107.624
147.008 11584 107.629
147.125 11581 107.615
147.241 11849 108.853
147.358 11520 107.331
147.475 11360 106.583
147.592 10899 104.398
147.709 10829 104.062
147.826 10273 101.356
147.943 10089 100.444
148.06 10056 100.28
148.177 10257 101.277
148.294 10600 102.956
148.411 10583 102.874
148.528 10525 102.591
148.645 10381 101.887
148.762 10498 102.46
148.88 10370 101.833
148.997 9913 99.564
149.114 10334 101.656
149.231 9756 98.7725
149.349 9674 98.3565
149.466 9339 96.6385
149.583 9605 98.0051
149.701 9580 97.8775
149.818 9859 99.2925
149.935 10120 100.598
150.053 10410 102.029
150.17 10726 103.566
150.287 11082 105.271
150.405 11201 105.835
150.522 11173 105.702
150.64 11370 106.63
150.757 11499 107.233
150.875 11505 107.261
150.992 11355 106.56
151.11 10987 104.819
151.227 10824 104.038
151.344 10733 103.6
151.462 10433 102.142
151.579 10086 100.429
151.697 10172 100.856
151.814 10294 101.459
151.932 10532 102.626
152.049 10853 104.178
152.167 10869 104.254
152.284 10774 103.798
152.402 10706 103.47
152.519 10547 102.699
152.636 10081 100.404
152.754 10092 100.459
152.871 10269 101.336
152.989 10040 100.2
153.106 9971 99.8549
153.223 9895 99.4736
153.341 10423 102.093
153.458 10387 101.917
153.575 10831 104.072
153.693 11159 105.636
153.81 11441 106.963
153.927 11470 107.098
154.044 11687 108.106
154.162 12237 110.621
154.279 12401 111.36
154.396 12344 111.104
154.513 12451 111.584
154.63 12290 110.86
154.747 12174 110.336
154.864 12041 109.731
154.981 11870 108.95
155.098 11343 106.504
155.215 11108 105.394
155.332 11148 105.584
155.449 11204 105.849
155.566 11552 107.48
155.683 11495 107.215
155.8 11479 107.14
155.917 11460 107.051
156.033 11232 105.981
156.15 0 1
156.267 0 1
156.383 0 1
156.5 0 1
156.617 0 1
156.733 0 1
156.85 0 1
156.966 0 1
157.082 0 1
157.199 0 1
157.315 0 1
157.431 0 1
157.547 0 1
157.664 0 1
157.78 0 1
157.896 0 1
158.012 0 1
158.128 0 1
158.244 0 1
158.359 0 1
158.475 0 1
158.591 0 1
158.706 0 1
