
6.15755 0 1
6.2731 0 1
6.3887 0 1
6.50437 0 1
6.62009 0 1
6.73587 0 1
6.8517 0 1
6.96759 0 1
7.08353 0 1
7.19952 0 1
7.31557 0 1
7.43166 0 1
7.54781 0 1
7.664 0 1
7.78024 0 1
7.89653 0 1
8.01286 0 1
8.12924 0 1
8.24567 0 1
8.36213 0 1
8.47864 0 1
8.59519 0 1
8.71178 0 1
8.82841 0 1
8.94508 0 1
9.06179 0 1
9.17853 0 1
9.29531 0 1
9.41212 0 1
9.52897 0 1
9.64584 0 1
9.76276 0 1
9.8797 0 1
9.99667 0 1
10.1137 0 1
10.2307 0 1
10.3478 0 1
10.4648 0 1
10.5819 0 1
10.6991 0 1
10.8162 0 1
10.9334 0 1
11.0506 0 1
11.1678 0 1
11.285 0 1
11.4023 0 1
11.5196 0 1
11.6369 0 1
11.7542 0 1
11.8715 0 1
11.9888 0 1
12.1062 0 1
12.2235 0 1
12.3409 0 1
12.4582 0 1
12.5756 0 1
12.693 0 1
12.8104 0 1
12.9278 0 1
13.0452 0 1
13.1626 0 1
13.28 0 1
13.3974 0 1
13.5149 0 1
13.6323 0 1
13.7497 0 1
13.8671 0 1
13.9845 0 1
14.1019 0 1
14.2193 0 1
14.3367 0 1
14.4541 0 1
14.5714 0 1
14.6888 0 1
14.8062 0 1
14.9235 0 1
15.0408 994 31.5278
15.1581 1132 33.6452
15.2755 1148 33.8821
15.3927 1213 34.8281
15.51 1278 35.7491
15.6273 1200 34.641
15.7445 1200 34.641
15.8617 1162 34.0881
15.9789 1135 33.6898
16.0961 1148 33.8821
16.2132 1114 33.3766
16.3304 1085 32.9393
16.4475 1068 32.6803
16.5646 1042 32.28
16.6816 1034 32.1559
16.7986 1016 31.8748
16.9156 1035 32.1714
17.0326 1010 31.7805
17.1496 893 29.8831
17.2665 968 31.1127
17.3833 964 31.0483
17.5002 931 30.5123
17.617 930 30.4959
17.7338 960 30.9839
17.8505 900 30
17.9672 958 30.9516
18.0839 906 30.0998
18.2005 1004 31.686
18.3171 914 30.2324
18.4337 914 30.2324
18.5502 914 30.2324
18.6666 960 30.9839
18.7831 1003 31.6702
18.8994 940 30.6594
19.0158 894 29.8998
19.1321 881 29.6816
19.2483 933 30.545
19.3645 806 28.3901
19.4806 754 27.4591
19.5967 710 26.6458
19.7128 715 26.7395
19.8288 646 25.4165
19.9447 553 23.516
20.0606 0 1
20.1764 0 1
20.2922 0 1
20.4079 0 1
20.5236 0 1
20.6392 0 1
20.7548 0 1
20.8702 0 1
23.3078 0 1
23.4233 0 1
23.539 0 1
23.6547 0 1
23.7704 0 1
23.8862 0 1
24.0021 0 1
24.118 0 1
24.234 0 1
24.35 0 1
24.4661 415 20.3715
24.5822 469 21.6564
24.6984 533 23.0868
24.8146 613 24.7588
24.9309 691 26.2869
25.0472 812 28.4956
25.1636 813 28.5132
25.28 915 30.249
25.3965 954 30.8869
25.513 1011 31.7962
25.6296 992 31.496
25.7462 1091 33.0303
25.8628 997 31.5753
25.9795 963 31.0322
26.0962 931 30.5123
26.213 888 29.7993
26.3298 908 30.133
26.4466 799 28.2666
26.5635 816 28.5657
26.6804 803 28.3373
26.7973 895 29.9166
26.9143 822 28.6705
27.0313 724 26.9072
27.1483 785 28.0179
27.2653 786 28.0357
27.3824 868 29.4618
27.4996 872 29.5296
27.6167 839 28.9655
27.7339 845 29.0689
27.8511 831 28.8271
27.9683 869 29.4788
28.0855 831 28.8271
28.2028 828 28.775
28.3201 823 28.688
28.4374 901 30.0167
28.5547 849 29.1376
28.6721 862 29.3598
28.7894 883 29.7153
28.9068 928 30.4631
29.0242 872 29.5296
29.1416 888 29.7993
29.259 875 29.5804
29.3764 824 28.7054
29.4939 824 28.7054
29.6113 836 28.9137
29.7288 793 28.1603
29.8463 780 27.9285
29.9638 726 26.9444
30.0812 794 28.178
30.1987 788 28.0713
30.3162 821 28.6531
30.4337 809 28.4429
30.5512 738 27.1662
30.6687 763 27.6225
30.7862 793 28.1603
30.9037 873 29.5466
31.0212 887 29.7825
31.1387 827 28.7576
31.2562 880 29.6648
31.3737 887 29.7825
31.4912 868 29.4618
31.6087 905 30.0832
31.7262 854 29.2233
31.8436 885 29.7489
31.9611 870 29.4958
32.0785 922 30.3645
32.1959 872 29.5296
32.3134 790 28.1069
32.4308 827 28.7576
32.5482 828 28.775
32.6655 875 29.5804
32.7829 794 28.178
32.9002 752 27.4226
33.0176 763 27.6225
33.1349 750 27.3861
33.2522 685 26.1725
33.3694 669 25.865
33.4867 734 27.0924
33.6039 705 26.5518
33.7211 686 26.1916
33.8383 802 28.3196
33.9554 794 28.178
34.0725 770 27.7489
34.1896 725 26.9258
34.3067 749 27.3679
34.4237 709 26.6271
34.5407 787 28.0535
34.6577 811 28.4781
34.7746 855 29.2404
34.8915 737 27.1477
35.0084 742 27.2397
35.1252 724 26.9072
35.242 721 26.8514
35.3587 759 27.55
35.4755 700 26.4575
35.5921 789 28.0891
35.7088 762 27.6043
35.8254 807 28.4077
35.9419 796 28.2135
36.0584 740 27.2029
36.1749 702 26.4953
36.2913 691 26.2869
36.4077 670 25.8844
36.524 643 25.3574
36.6403 581 24.1039
36.7565 560 23.6643
36.8727 510 22.5832
36.9889 463 21.5174
37.1049 399 19.975
37.221 0 1
37.3369 0 1
37.4529 0 1
37.5687 0 1
37.6845 0 1
37.8003 0 1
37.916 0 1
38.0316 0 1
38.1472 0 1
40.5851 0 1
40.7008 0 1
40.8164 0 1
40.9322 0 1
41.048 0 1
41.1639 0 1
41.2798 0 1
41.3958 0 1
41.5118 0 1
41.6279 0 1
41.744 310 17.6068
41.8602 378 19.4422
41.9765 426 20.6398
42.0928 439 20.9523
42.2091 454 21.3073
42.3255 500 22.3607
42.4419 543 23.3024
42.5584 561 23.6854
42.675 582 24.1247
42.7915 593 24.3516
42.9081 543 23.3024
43.0248 580 24.0832
43.1415 608 24.6577
43.2582 581 24.1039
43.375 520 22.8035
43.4918 604 24.5764
43.6087 543 23.3024
43.7256 579 24.0624
43.8425 527 22.9565
43.9595 558 23.622
44.0765 567 23.8118
44.1935 566 23.7908
44.3106 537 23.1733
44.4277 608 24.6577
44.5448 583 24.1454
44.6619 614 24.779
44.7791 578 24.0416
44.8963 610 24.6982
45.0136 600 24.4949
45.1308 634 25.1794
45.2481 543 23.3024
45.3654 584 24.1661
45.4827 585 24.1868
45.6001 546 23.3666
45.7174 531 23.0434
45.8348 538 23.1948
45.9522 556 23.5797
46.0697 584 24.1661
46.1871 539 23.2164
46.3046 544 23.3238
46.422 535 23.1301
46.5395 509 22.561
46.657 545 23.3452
46.7745 557 23.6008
46.892 554 23.5372
47.0096 585 24.1868
47.1271 545 23.3452
47.2446 562 23.7065
47.3622 546 23.3666
47.4797 536 23.1517
47.5973 535 23.1301
47.7149 557 23.6008
47.8324 543 23.3024
47.95 582 24.1247
48.0675 506 22.4944
48.1851 595 24.3926
48.3027 565 23.7697
48.4202 599 24.4745
48.5378 585 24.1868
48.6554 555 23.5584
48.7729 621 24.9199
48.8904 570 23.8747
49.008 571 23.8956
49.1255 580 24.0832
49.243 596 24.4131
49.3605 531 23.0434
49.478 513 22.6495
49.5955 553 23.516
49.713 539 23.2164
49.8304 597 24.4336
49.9479 562 23.7065
50.0653 580 24.0832
50.1827 563 23.7276
50.3001 558 23.622
50.4175 484 22
50.5348 548 23.4094
50.6521 539 23.2164
50.7694 584 24.1661
50.8867 538 23.1948
51.004 548 23.4094
51.1212 550 23.4521
51.2384 564 23.7487
51.3556 526 22.9347
51.4727 603 24.5561
51.5899 626 25.02
51.707 556 23.5797
51.824 576 24
51.9411 572 23.9165
52.0581 548 23.4094
52.175 522 22.8473
52.2919 581 24.1039
52.4088 562 23.7065
52.5257 534 23.1084
52.6425 537 23.1733
52.7593 496 22.2711
52.876 502 22.4054
52.9927 472 21.7256
53.1094 471 21.7025
53.226 489 22.1133
53.3426 472 21.7256
53.4591 494 22.2261
53.5756 516 22.7156
53.692 584 24.1661
53.8084 619 24.8797
53.9248 645 25.3969
54.0411 667 25.8263
54.1573 585 24.1868
54.2735 0 1
54.3896 0 1
54.5057 0 1
54.6217 0 1
54.7377 0 1
54.8537 0 1
54.9695 0 1
55.0853 0 1
55.2011 0 1
55.3168 0 1
55.4324 0 1
57.824 0 1
57.9396 0 1
58.0553 0 1
58.1711 0 1
58.2869 0 1
58.4028 0 1
58.5187 0 1
58.6347 0 1
58.7508 0 1
58.8669 0 1
58.983 6252 79.0696
59.0992 8055 89.7497
59.2155 9457 97.2471
59.3318 10332 101.646
59.4482 11339 106.485
59.5646 12302 110.914
59.681 13103 114.468
59.7975 13521 116.28
59.9141 14802 121.663
60.0306 15925 126.194
60.1473 17361 131.761
60.2639 18469 135.901
60.3807 18574 136.286
60.4974 18130 134.648
60.6142 17144 130.935
60.731 16152 127.091
60.8479 14795 121.635
60.9648 13287 115.269
61.0818 11456 107.033
61.1987 9520 97.5705
61.3158 8095 89.9722
61.4328 6334 79.5864
61.5499 5351 73.1505
61.667 4461 66.7907
61.7841 3695 60.7865
61.9013 3037 55.109
62.0185 2653 51.5073
62.1357 2151 46.3789
62.253 1697 41.1947
62.3702 1319 36.318
62.4875 1106 33.2566
62.6049 938 30.6268
62.7222 813 28.5132
62.8396 736 27.1293
62.9569 767 27.6948
63.0743 725 26.9258
63.1918 683 26.1343
63.3092 694 26.3439
63.4267 668 25.8457
63.5441 670 25.8844
63.6616 711 26.6646
63.7791 691 26.2869
63.8966 695 26.3629
64.0142 711 26.6646
64.1317 688 26.2298
64.2492 662 25.7294
64.3668 729 27
64.4843 652 25.5343
64.6019 647 25.4362
64.7195 666 25.807
64.837 618 24.8596
64.9546 564 23.7487
65.0722 573 23.9374
65.1898 545 23.3452
65.3074 549 23.4307
65.4249 578 24.0416
65.5425 540 23.2379
65.6601 609 24.6779
65.7777 570 23.8747
65.8952 617 24.8395
66.0128 655 25.593
66.1304 640 25.2982
66.2479 641 25.318
66.3655 657 25.632
66.483 624 24.98
66.6005 679 26.0576
66.718 645 25.3969
66.8355 629 25.0799
66.953 562 23.7065
67.0705 587 24.2281
67.1879 644 25.3772
67.3054 632 25.1396
67.4228 655 25.593
67.5402 628 25.0599
67.6576 671 25.9037
67.7749 655 25.593
67.8923 676 26
68.0096 649 25.4755
68.1269 654 25.5734
68.2442 590 24.2899
68.3614 597 24.4336
68.4787 605 24.5967
68.5958 583 24.1454
68.713 592 24.3311
68.8302 556 23.5797
68.9473 587 24.2281
69.0643 526 22.9347
69.1814 526 22.9347
69.2984 566 23.7908
69.4154 588 24.2487
69.5323 580 24.0832
69.6492 607 24.6374
69.7661 621 24.9199
69.8829 567 23.8118
69.9997 537 23.1733
70.1165 589 24.2693
70.2332 620 24.8998
70.3499 580 24.0832
70.4665 528 22.9783
70.5831 494 22.2261
70.6996 435 20.8567
70.8161 443 21.0476
70.9326 457 21.3776
71.049 382 19.5448
71.1653 371 19.2614
71.2817 372 19.2873
71.3979 348 18.6548
71.5141 335 18.303
71.6303 262 16.1864
71.7464 259 16.0935
71.8624 0 1
71.9784 0 1
72.0944 0 1
72.2102 0 1
72.3261 0 1
72.4418 0 1
72.5575 0 1
72.6732 0 1
75.1054 0 1
75.2209 0 1
75.3365 0 1
75.4521 0 1
75.5678 0 1
75.6835 0 1
75.7993 0 1
75.9151 0 1
76.031 0 1
76.147 383 19.5704
76.263 441 21
76.3791 476 21.8174
76.4952 519 22.7816
76.6113 530 23.0217
76.7276 528 22.9783
76.8438 603 24.5561
76.9601 576 24
77.0765 578 24.0416
77.1929 585 24.1868
77.3093 561 23.6854
77.4258 536 23.1517
77.5423 510 22.5832
77.6589 550 23.4521
77.7755 467 21.6102
77.8921 464 21.5407
78.0088 454 21.3073
78.1256 506 22.4944
78.2423 481 21.9317
78.3591 516 22.7156
78.4759 559 23.6432
78.5928 571 23.8956
78.7097 585 24.1868
78.8266 519 22.7816
78.9436 567 23.8118
79.0606 562 23.7065
79.1776 569 23.8537
79.2946 561 23.6854
79.4117 562 23.7065
79.5288 564 23.7487
79.6459 533 23.0868
79.7631 507 22.5167
79.8802 561 23.6854
79.9974 563 23.7276
80.1147 591 24.3105
80.2319 571 23.8956
80.3491 594 24.3721
80.4664 591 24.3105
80.5837 573 23.9374
80.701 543 23.3024
80.8183 583 24.1454
80.9357 577 24.0208
81.053 595 24.3926
81.1704 576 24
81.2877 628 25.0599
81.4051 527 22.9565
81.5225 517 22.7376
81.6399 489 22.1133
81.7573 481 21.9317
81.8747 510 22.5832
81.9922 527 22.9565
82.1096 528 22.9783
82.227 547 23.388
82.3444 594 24.3721
82.4619 559 23.6432
82.5793 593 24.3516
82.6967 572 23.9165
82.8142 594 24.3721
82.9316 616 24.8193
83.049 596 24.4131
83.1664 571 23.8956
83.2838 575 23.9792
83.4012 543 23.3024
83.5186 553 23.516
83.636 537 23.1733
83.7534 626 25.02
83.8708 634 25.1794
83.9881 642 25.3377
84.1055 609 24.6779
84.2228 581 24.1039
84.3401 590 24.2899
84.4575 605 24.5967
84.5747 575 23.9792
84.692 590 24.2899
84.8093 606 24.6171
84.9265 568 23.8328
85.0437 587 24.2281
85.1609 538 23.1948
85.2781 508 22.5389
85.3952 491 22.1585
85.5123 516 22.7156
85.6294 561 23.6854
85.7465 562 23.7065
85.8636 603 24.5561
85.9806 579 24.0624
86.0976 624 24.98
86.2145 582 24.1247
86.3315 613 24.7588
86.4484 581 24.1039
86.5652 556 23.5797
86.682 606 24.6171
86.7988 615 24.7992
86.9156 587 24.2281
87.0323 585 24.1868
87.149 568 23.8328
87.2657 595 24.3926
87.3823 562 23.7065
87.4988 569 23.8537
87.6154 569 23.8537
87.7318 560 23.6643
87.8483 534 23.1084
87.9647 491 22.1585
88.081 470 21.6795
88.1973 423 20.567
88.3136 357 18.8944
88.4298 395 19.8746
88.546 349 18.6815
88.6621 290 17.0294
88.7781 324 18
88.8942 0 1
89.0101 0 1
89.126 0 1
89.2419 0 1
89.3577 0 1
89.4734 0 1
89.5891 0 1
89.7047 0 1
89.8203 0 1
89.9358 0 1
92.3269 0 1
92.4424 0 1
92.558 0 1
92.6736 0 1
92.7893 0 1
92.905 0 1
93.0208 0 1
93.1366 0 1
93.2525 0 1
93.3685 0 1
93.4845 0 1
93.6005 459 21.4243
93.7167 518 22.7596
93.8328 536 23.1517
93.949 568 23.8328
94.0653 592 24.3311
94.1816 612 24.7386
94.2979 568 23.8328
94.4143 580 24.0832
94.5307 513 22.6495
94.6472 518 22.7596
94.7637 520 22.8035
94.8803 567 23.8118
94.9969 542 23.2809
95.1135 604 24.5764
95.2302 548 23.4094
95.3469 596 24.4131
95.4637 582 24.1247
95.5805 651 25.5147
95.6973 617 24.8395
95.8142 608 24.6577
95.9311 612 24.7386
96.048 545 23.3452
96.1649 591 24.3105
96.2819 577 24.0208
96.3989 549 23.4307
96.516 566 23.7908
96.633 629 25.0799
96.7501 625 25
96.8673 607 24.6374
96.9844 647 25.4362
97.1016 585 24.1868
97.2188 597 24.4336
97.336 626 25.02
97.4532 609 24.6779
97.5704 603 24.5561
97.6877 603 24.5561
97.805 583 24.1454
97.9223 614 24.779
98.0396 585 24.1868
98.1569 557 23.6008
98.2743 586 24.2074
98.3916 532 23.0651
98.509 613 24.7588
98.6264 581 24.1039
98.7438 671 25.9037
98.8612 669 25.865
98.9786 597 24.4336
99.096 609 24.6779
99.2134 649 25.4755
99.3308 628 25.0599
99.4482 670 25.8844
99.5656 630 25.0998
99.6831 597 24.4336
99.8005 582 24.1247
99.9179 621 24.9199
100.035 646 25.4165
100.153 618 24.8596
100.27 635 25.1992
100.388 623 24.96
100.505 631 25.1197
100.622 606 24.6171
100.74 628 25.0599
100.857 643 25.3574
100.975 599 24.4745
101.092 611 24.7184
101.209 663 25.7488
101.327 599 24.4745
101.444 629 25.0799
101.561 650 25.4951
101.679 555 23.5584
101.796 578 24.0416
101.913 582 24.1247
102.03 634 25.1794
102.148 615 24.7992
102.265 633 25.1595
102.382 669 25.865
102.499 615 24.7992
102.616 713 26.7021
102.733 699 26.4386
102.851 722 26.8701
102.968 624 24.98
103.085 677 26.0192
103.202 658 25.6515
103.319 674 25.9615
103.436 631 25.1197
103.552 654 25.5734
103.669 681 26.096
103.786 683 26.1343
103.903 640 25.2982
104.02 685 26.1725
104.137 640 25.2982
104.253 738 27.1662
104.37 638 25.2587
104.487 611 24.7184
104.603 627 25.04
104.72 624 24.98
104.836 639 25.2784
104.953 644 25.3772
105.069 627 25.04
105.186 590 24.2899
105.302 498 22.3159
105.418 462 21.4942
105.535 438 20.9284
105.651 408 20.199
105.767 373 19.3132
105.883 372 19.2873
105.999 327 18.0831
106.115 0 1
106.231 0 1
106.347 0 1
106.463 0 1
106.579 0 1
106.694 0 1
106.81 0 1
106.926 0 1
107.041 0 1
107.157 0 1
109.576 0 1
109.692 0 1
109.807 0 1
109.923 0 1
110.039 0 1
110.155 0 1
110.27 0 1
110.386 0 1
110.502 0 1
110.618 303 17.4069
110.735 359 18.9473
110.851 420 20.4939
110.967 459 21.4243
111.083 495 22.2486
111.199 532 23.0651
111.316 585 24.1868
111.432 660 25.6905
111.549 592 24.3311
111.665 604 24.5764
111.782 609 24.6779
111.898 600 24.4949
112.015 593 24.3516
112.132 547 23.388
112.248 560 23.6643
112.365 569 23.8537
112.482 625 25
112.599 647 25.4362
112.716 623 24.96
112.832 591 24.3105
112.949 570 23.8747
113.066 570 23.8747
113.183 561 23.6854
113.3 536 23.1517
113.417 577 24.0208
113.534 590 24.2899
113.652 581 24.1039
113.769 596 24.4131
113.886 594 24.3721
114.003 530 23.0217
114.12 583 24.1454
114.238 533 23.0868
114.355 553 23.516
114.472 483 21.9773
114.589 478 21.8632
114.707 511 22.6053
114.824 595 24.3926
114.942 626 25.02
115.059 633 25.1595
115.176 646 25.4165
115.294 563 23.7276
115.411 601 24.5153
115.529 583 24.1454
115.646 549 23.4307
115.764 514 22.6716
115.881 545 23.3452
115.999 564 23.7487
116.116 542 23.2809
116.234 553 23.516
116.351 516 22.7156
116.469 528 22.9783
116.586 533 23.0868
116.704 524 22.891
116.821 517 22.7376
116.939 501 22.383
117.056 497 22.2935
117.174 547 23.388
117.291 535 23.1301
117.409 532 23.0651
117.526 552 23.4947
117.644 568 23.8328
117.761 551 23.4734
117.879 546 23.3666
117.996 513 22.6495
118.114 482 21.9545
118.231 475 21.7945
118.349 575 23.9792
118.466 563 23.7276
118.584 612 24.7386
118.701 610 24.6982
118.819 661 25.7099
118.936 643 25.3574
119.053 625 25
119.171 630 25.0998
119.288 569 23.8537
119.405 571 23.8956
119.523 561 23.6854
119.64 557 23.6008
119.757 572 23.9165
119.875 585 24.1868
119.992 537 23.1733
120.109 569 23.8537
120.226 502 22.4054
120.343 463 21.5174
120.46 507 22.5167
120.578 496 22.2711
120.695 477 21.8403
120.812 516 22.7156
120.929 492 22.1811
121.046 508 22.5389
121.163 471 21.7025
121.279 423 20.567
121.396 443 21.0476
121.513 436 20.8806
121.63 414 20.347
121.747 382 19.5448
121.863 374 19.3391
121.98 348 18.6548
122.097 390 19.7484
122.213 378 19.4422
122.33 372 19.2873
122.446 361 19
122.563 353 18.7883
122.679 346 18.6011
122.795 310 17.6068
122.912 255 15.9687
123.028 287 16.9411
123.144 256 16
123.26 266 16.3095
123.377 0 1
123.493 0 1
123.609 0 1
123.725 0 1
123.84 0 1
123.956 0 1
124.072 0 1
124.188 0 1
124.303 0 1
124.419 0 1
126.852 0 1
126.968 0 1
127.083 0 1
127.199 0 1
127.315 0 1
127.431 0 1
127.547 0 1
127.663 0 1
127.779 0 1
127.895 0 1
128.011 0 1
128.127 0 1
128.243 0 1
128.359 515 22.6936
128.476 476 21.8174
128.592 473 21.7486
128.708 503 22.4277
128.825 501 22.383
128.941 530 23.0217
129.058 506 22.4944
129.174 509 22.561
129.291 531 23.0434
129.408 537 23.1733
129.524 528 22.9783
129.641 590 24.2899
129.758 526 22.9347
129.875 527 22.9565
129.992 547 23.388
130.108 575 23.9792
130.225 575 23.9792
130.342 554 23.5372
130.459 543 23.3024
130.576 532 23.0651
130.693 574 23.9583
130.81 526 22.9347
130.928 596 24.4131
131.045 736 27.1293
131.162 832 28.8444
131.279 831 28.8271
131.396 903 30.05
131.513 954 30.8869
131.631 939 30.6431
131.748 1021 31.9531
131.865 1106 33.2566
131.983 1104 33.2265
132.1 1203 34.6843
132.217 1404 37.47
132.335 1590 39.8748
132.452 1974 44.4297
132.57 2403 49.0204
132.687 2636 51.342
132.804 3249 57
132.922 4078 63.8592
133.039 5003 70.7319
133.157 5907 76.857
133.274 6522 80.7589
133.392 7188 84.7821
133.509 8046 89.6995
133.627 8700 93.2738
133.744 9557 97.7599
133.862 10265 101.316
133.979 10681 103.349
134.097 10547 102.699
134.214 9284 96.3535
134.332 6381 79.8812
134.449 5156 71.8053
134.567 7794 88.2836
134.684 11032 105.033
134.802 12852 113.367
134.919 13564 116.465
135.037 14369 119.871
135.154 14461 120.254
135.272 14345 119.771
135.389 14550 120.623
135.507 14995 122.454
135.624 15840 125.857
135.742 16252 127.483
135.859 17187 131.099
135.977 18331 135.392
136.094 18992 137.811
136.211 19845 140.872
136.329 20081 141.707
136.446 21129 145.358
136.564 21907 148.01
136.681 23258 152.506
136.798 23889 154.561
136.915 24978 158.044
137.033 26096 161.543
137.15 27555 165.997
137.267 28507 168.84
137.384 29971 173.121
137.502 31548 177.618
137.619 32395 179.986
137.736 33682 183.527
137.853 31338 177.025
137.97 28783 169.656
138.087 25196 158.732
138.204 27746 166.571
138.321 35961 189.634
138.438 44541 211.047
138.555 50258 224.183
138.672 53206 230.664
138.788 56148 236.956
138.905 57570 239.937
139.022 58435 241.733
139.139 55830 236.284
139.255 52079 228.208
139.372 48799 220.905
139.488 47313 217.516
139.605 47218 217.297
139.721 46883 216.525
139.838 46287 215.144
139.954 46237 215.028
140.071 44374 210.651
140.187 43018 207.408
140.303 41226 203.042
140.419 39282 198.197
140.535 38201 195.451
140.652 35968 189.652
140.768 0 1
140.884 0 1
141 0 1
141.115 0 1
141.231 0 1
141.347 0 1
141.463 0 1
141.578 0 1
141.694 0 1
144.104 0 1
144.219 0 1
144.335 0 1
144.45 0 1
144.566 0 1
144.682 0 1
144.798 0 1
144.914 0 1
145.03 0 1
145.146 23513 153.339
145.262 26192 161.839
145.378 26897 164.003
145.494 26345 162.311
145.61 26052 161.406
145.726 25339 159.182
145.842 24647 156.994
145.959 24117 155.296
146.075 23005 151.674
146.192 22489 149.963
146.308 21428 146.383
146.425 20388 142.787
146.541 19165 138.438
146.658 17801 133.42
146.774 16794 129.592
146.891 16280 127.593
147.008 16518 128.522
147.125 15238 123.442
147.241 14830 121.778
147.358 13893 117.869
147.475 12856 113.384
147.592 11603 107.717
147.709 10739 103.629
147.826 10115 100.573
147.943 9861 99.3026
148.06 9394 96.9226
148.177 9045 95.1052
148.294 8584 92.6499
148.411 8565 92.5473
148.528 7921 89
148.645 7465 86.4002
148.762 7368 85.8371
148.88 7105 84.2912
148.997 6677 81.7129
149.114 6415 80.0937
149.231 6041 77.7239
149.349 5748 75.8156
149.466 5387 73.3962
149.583 5229 72.3118
149.701 4861 69.7209
149.818 4525 67.2681
149.935 4400 66.3325
150.053 3878 62.2736
150.17 3616 60.1332
150.287 3102 55.6956
150.405 3020 54.9545
150.522 3112 55.7853
150.64 3039 55.1271
150.757 2955 54.3599
150.875 3055 55.2721
150.992 3006 54.827
151.11 2827 53.1695
151.227 2560 50.5964
151.344 2383 48.816
151.462 2355 48.5283
151.579 2381 48.7955
151.697 2385 48.8365
151.814 2313 48.0937
151.932 2317 48.1352
152.049 2326 48.2286
152.167 2228 47.2017
152.284 2256 47.4974
152.402 2225 47.1699
152.519 2208 46.9894
152.636 2150 46.3681
152.754 2151 46.3789
152.871 2180 46.6905
152.989 2111 45.9456
153.106 2119 46.0326
153.223 2046 45.2327
153.341 2037 45.1331
153.458 1998 44.699
153.575 1999 44.7102
153.693 1806 42.4971
153.81 1693 41.1461
153.927 1465 38.2753
154.044 1492 38.6264
154.162 1618 40.2244
154.279 1742 41.7373
154.396 1843 42.9302
154.513 1824 42.7083
154.63 1890 43.4741
154.747 2009 44.8219
154.864 1900 43.589
154.981 1861 43.1393
155.098 1915 43.7607
155.215 1940 44.0454
155.332 1969 44.3734
155.449 1995 44.6654
155.566 1972 44.4072
155.683 2038 45.1442
155.8 2051 45.288
155.917 2084 45.6508
156.033 2122 46.0652
156.15 0 1
156.267 0 1
156.383 0 1
156.5 0 1
156.617 0 1
156.733 0 1
156.85 0 1
156.966 0 1
157.082 0 1
157.199 0 1
157.315 0 1
157.431 0 1
157.547 0 1
157.664 0 1
157.78 0 1
157.896 0 1
158.012 0 1
158.128 0 1
158.244 0 1
158.359 0 1
158.475 0 1
158.591 0 1
158.706 0 1
