
6.15755 0 1
6.2731 0 1
6.3887 0 1
6.50437 0 1
6.62009 0 1
6.73587 0 1
6.8517 0 1
6.96759 0 1
7.08353 0 1
7.19952 0 1
7.31557 0 1
7.43166 0 1
7.54781 0 1
7.664 0 1
7.78024 0 1
7.89653 0 1
8.01286 0 1
8.12924 0 1
8.24567 0 1
8.36213 0 1
8.47864 0 1
8.59519 0 1
8.71178 0 1
8.82841 0 1
8.94508 0 1
9.06179 0 1
9.17853 0 1
9.29531 0 1
9.41212 0 1
9.52897 0 1
9.64584 0 1
9.76276 0 1
9.8797 0 1
9.99667 0 1
10.1137 0 1
10.2307 0 1
10.3478 0 1
10.4648 0 1
10.5819 0 1
10.6991 0 1
10.8162 0 1
10.9334 0 1
11.0506 0 1
11.1678 0 1
11.285 0 1
11.4023 0 1
11.5196 0 1
11.6369 0 1
11.7542 0 1
11.8715 0 1
11.9888 0 1
12.1062 0 1
12.2235 0 1
12.3409 0 1
12.4582 0 1
12.5756 0 1
12.693 0 1
12.8104 0 1
12.9278 0 1
13.0452 0 1
13.1626 0 1
13.28 0 1
13.3974 0 1
13.5149 0 1
13.6323 0 1
13.7497 0 1
13.8671 0 1
13.9845 0 1
14.1019 0 1
14.2193 0 1
14.3367 0 1
14.4541 0 1
14.5714 0 1
14.6888 0 1
14.8062 0 1
14.9235 0 1
15.0408 0 0
15.1581 0 0
15.2755 0 0
15.3927 0 0
15.51 0 0
15.6273 0 0
15.7445 0 0
15.8617 0 0
15.9789 0 0
16.0961 0 0
16.2132 0 0
16.3304 0 0
16.4475 0 0
16.5646 0 0
16.6816 0 0
16.7986 0 0
16.9156 0 0
17.0326 0 0
17.1496 0 0
17.2665 0 0
17.3833 0 0
17.5002 0 0
17.617 0 0
17.7338 0 0
17.8505 0 0
17.9672 0 0
18.0839 0 0
18.2005 0 0
18.3171 0 0
18.4337 0 0
18.5502 0 0
18.6666 0 0
18.7831 0 0
18.8994 0 0
19.0158 0 0
19.1321 0 0
19.2483 0 0
19.3645 0 0
19.4806 0 0
19.5967 0 0
19.7128 0 0
19.8288 0 0
19.9447 0 0
20.0606 0 1
20.1764 0 1
20.2922 0 1
20.4079 0 1
20.5236 0 1
20.6392 0 1
20.7548 0 1
20.8702 0 1
23.3078 0 1
23.4233 0 1
23.539 0 1
23.6547 0 1
23.7704 0 1
23.8862 0 1
24.0021 0 1
24.118 0 1
24.234 0 1
24.35 0 1
24.4661 546 23.3666
24.5822 702 26.4953
24.6984 738 27.1662
24.8146 759 27.55
24.9309 778 27.8927
25.0472 900 30
25.1636 897 29.95
25.28 895 29.9166
25.3965 1006 31.7175
25.513 1063 32.6037
25.6296 1062 32.5883
25.7462 1171 34.2199
25.8628 1132 33.6452
25.9795 1183 34.3948
26.0962 1187 34.4529
26.213 1165 34.1321
26.3298 1204 34.6987
26.4466 1172 34.2345
26.5635 1129 33.6006
26.6804 1079 32.8481
26.7973 1065 32.6343
26.9143 1081 32.8786
27.0313 1038 32.218
27.1483 1058 32.5269
27.2653 1111 33.3317
27.3824 1117 33.4215
27.4996 1162 34.0881
27.6167 1158 34.0294
27.7339 1127 33.5708
27.8511 1070 32.7109
27.9683 1086 32.9545
28.0855 1043 32.2955
28.2028 1014 31.8434
28.3201 1070 32.7109
28.4374 1000 31.6228
28.5547 933 30.545
28.6721 924 30.3974
28.7894 887 29.7825
28.9068 955 30.9031
29.0242 987 31.4166
29.1416 977 31.257
29.259 1061 32.573
29.3764 1098 33.1361
29.4939 1091 33.0303
29.6113 1121 33.4813
29.7288 1083 32.909
29.8463 1134 33.6749
29.9638 1083 32.909
30.0812 1105 33.2415
30.1987 1030 32.0936
30.3162 999 31.607
30.4337 940 30.6594
30.5512 963 31.0322
30.6687 994 31.5278
30.7862 1046 32.3419
30.9037 1020 31.9374
31.0212 1092 33.0454
31.1387 1056 32.4962
31.2562 1066 32.6497
31.3737 1034 32.1559
31.4912 916 30.2655
31.6087 1017 31.8904
31.7262 1007 31.7333
31.8436 946 30.7571
31.9611 935 30.5778
32.0785 940 30.6594
32.1959 897 29.95
32.3134 913 30.2159
32.4308 884 29.7321
32.5482 957 30.9354
32.6655 951 30.8383
32.7829 986 31.4006
32.9002 994 31.5278
33.0176 1015 31.8591
33.1349 1088 32.9848
33.2522 1047 32.3574
33.3694 1062 32.5883
33.4867 1016 31.8748
33.6039 1084 32.9242
33.7211 1079 32.8481
33.8383 941 30.6757
33.9554 844 29.0517
34.0725 905 30.0832
34.1896 919 30.315
34.3067 880 29.6648
34.4237 1003 31.6702
34.5407 991 31.4802
34.6577 992 31.496
34.7746 997 31.5753
34.8915 1025 32.0156
35.0084 941 30.6757
35.1252 957 30.9354
35.242 933 30.545
35.3587 954 30.8869
35.4755 945 30.7409
35.5921 903 30.05
35.7088 800 28.2843
35.8254 841 29
35.9419 787 28.0535
36.0584 749 27.3679
36.1749 807 28.4077
36.2913 786 28.0357
36.4077 742 27.2397
36.524 809 28.4429
36.6403 751 27.4044
36.7565 788 28.0713
36.8727 741 27.2213
36.9889 708 26.6083
37.1049 609 24.6779
37.221 0 1
37.3369 0 1
37.4529 0 1
37.5687 0 1
37.6845 0 1
37.8003 0 1
37.916 0 1
38.0316 0 1
38.1472 0 1
40.5851 0 1
40.7008 0 1
40.8164 0 1
40.9322 0 1
41.048 0 1
41.1639 0 1
41.2798 0 1
41.3958 0 1
41.5118 0 1
41.6279 0 1
41.744 547 23.388
41.8602 603 24.5561
41.9765 679 26.0576
42.0928 663 25.7488
42.2091 713 26.7021
42.3255 780 27.9285
42.4419 727 26.9629
42.5584 727 26.9629
42.675 761 27.5862
42.7915 669 25.865
42.9081 753 27.4408
43.0248 736 27.1293
43.1415 831 28.8271
43.2582 836 28.9137
43.375 833 28.8617
43.4918 824 28.7054
43.6087 879 29.6479
43.7256 877 29.6142
43.8425 841 29
43.9595 841 29
44.0765 861 29.3428
44.1935 810 28.4605
44.3106 825 28.7228
44.4277 791 28.1247
44.5448 751 27.4044
44.6619 736 27.1293
44.7791 746 27.313
44.8963 733 27.074
45.0136 749 27.3679
45.1308 787 28.0535
45.2481 833 28.8617
45.3654 855 29.2404
45.4827 843 29.0345
45.6001 882 29.6985
45.7174 831 28.8271
45.8348 932 30.5287
45.9522 944 30.7246
46.0697 874 29.5635
46.1871 802 28.3196
46.3046 752 27.4226
46.422 683 26.1343
46.5395 737 27.1477
46.657 763 27.6225
46.7745 843 29.0345
46.892 809 28.4429
47.0096 863 29.3769
47.1271 946 30.7571
47.2446 915 30.249
47.3622 887 29.7825
47.4797 900 30
47.5973 847 29.1033
47.7149 861 29.3428
47.8324 858 29.2916
47.95 809 28.4429
48.0675 811 28.4781
48.1851 789 28.0891
48.3027 663 25.7488
48.4202 709 26.6271
48.5378 744 27.2764
48.6554 753 27.4408
48.7729 809 28.4429
48.8904 804 28.3549
49.008 900 30
49.1255 895 29.9166
49.243 829 28.7924
49.3605 849 29.1376
49.478 856 29.2575
49.5955 814 28.5307
49.713 739 27.1846
49.8304 751 27.4044
49.9479 692 26.3059
50.0653 667 25.8263
50.1827 743 27.258
50.3001 795 28.1957
50.4175 844 29.0517
50.5348 830 28.8097
50.6521 890 29.8329
50.7694 826 28.7402
50.8867 913 30.2159
51.004 871 29.5127
51.1212 804 28.3549
51.2384 839 28.9655
51.3556 844 29.0517
51.4727 856 29.2575
51.5899 771 27.7669
51.707 748 27.3496
51.824 674 25.9615
51.9411 723 26.8887
52.0581 743 27.258
52.175 727 26.9629
52.2919 812 28.4956
52.4088 839 28.9655
52.5257 849 29.1376
52.6425 801 28.3019
52.7593 852 29.189
52.876 865 29.4109
52.9927 865 29.4109
53.1094 825 28.7228
53.226 766 27.6767
53.3426 706 26.5707
53.4591 614 24.779
53.5756 595 24.3926
53.692 561 23.6854
53.8084 608 24.6577
53.9248 560 23.6643
54.0411 591 24.3105
54.1573 517 22.7376
54.2735 0 1
54.3896 0 1
54.5057 0 1
54.6217 0 1
54.7377 0 1
54.8537 0 1
54.9695 0 1
55.0853 0 1
55.2011 0 1
55.3168 0 1
55.4324 0 1
57.824 0 1
57.9396 0 1
58.0553 0 1
58.1711 0 1
58.2869 0 1
58.4028 0 1
58.5187 0 1
58.6347 0 1
58.7508 0 1
58.8669 0 1
58.983 602 24.5357
59.0992 685 26.1725
59.2155 791 28.1247
59.3318 844 29.0517
59.4482 891 29.8496
59.5646 900 30
59.681 940 30.6594
59.7975 993 31.5119
59.9141 989 31.4484
60.0306 940 30.6594
60.1473 895 29.9166
60.2639 914 30.2324
60.3807 828 28.775
60.4974 856 29.2575
60.6142 886 29.7658
60.731 853 29.2062
60.8479 972 31.1769
60.9648 946 30.7571
61.0818 964 31.0483
61.1987 1020 31.9374
61.3158 1011 31.7962
61.4328 1000 31.6228
61.5499 1057 32.5115
61.667 1025 32.0156
61.7841 946 30.7571
61.9013 927 30.4467
62.0185 909 30.1496
62.1357 838 28.9482
62.253 858 29.2916
62.3702 959 30.9677
62.4875 923 30.3809
62.6049 1018 31.9061
62.7222 1100 33.1662
62.8396 1064 32.619
62.9569 1065 32.6343
63.0743 1025 32.0156
63.1918 1041 32.2645
63.3092 1038 32.218
63.4267 971 31.1609
63.5441 931 30.5123
63.6616 944 30.7246
63.7791 905 30.0832
63.8966 930 30.4959
64.0142 830 28.8097
64.1317 847 29.1033
64.2492 866 29.4279
64.3668 943 30.7083
64.4843 996 31.5595
64.6019 977 31.257
64.7195 988 31.4325
64.837 968 31.1127
64.9546 1011 31.7962
65.0722 956 30.9192
65.1898 1023 31.9844
65.3074 979 31.289
65.4249 861 29.3428
65.5425 861 29.3428
65.6601 801 28.3019
65.7777 811 28.4781
65.8952 865 29.4109
66.0128 893 29.8831
66.1304 959 30.9677
66.2479 916 30.2655
66.3655 1016 31.8748
66.483 1052 32.4345
66.6005 1054 32.4654
66.718 1052 32.4345
66.8355 1016 31.8748
66.953 962 31.0161
67.0705 971 31.1609
67.1879 923 30.3809
67.3054 926 30.4302
67.4228 840 28.9828
67.5402 779 27.9106
67.6576 795 28.1957
67.7749 833 28.8617
67.8923 814 28.5307
68.0096 795 28.1957
68.1269 924 30.3974
68.2442 977 31.257
68.3614 977 31.257
68.4787 1006 31.7175
68.5958 948 30.7896
68.713 942 30.692
68.8302 949 30.8058
68.9473 906 30.0998
69.0643 927 30.4467
69.1814 783 27.9821
69.2984 753 27.4408
69.4154 706 26.5707
69.5323 821 28.6531
69.6492 861 29.3428
69.7661 910 30.1662
69.8829 878 29.6311
69.9997 940 30.6594
70.1165 913 30.2159
70.2332 813 28.5132
70.3499 779 27.9106
70.4665 827 28.7576
70.5831 772 27.7849
70.6996 691 26.2869
70.8161 656 25.6125
70.9326 611 24.7184
71.049 507 22.5167
71.1653 445 21.095
71.2817 414 20.347
71.3979 342 18.4932
71.5141 329 18.1384
71.6303 331 18.1934
71.7464 330 18.1659
71.8624 0 1
71.9784 0 1
72.0944 0 1
72.2102 0 1
72.3261 0 1
72.4418 0 1
72.5575 0 1
72.6732 0 1
75.1054 0 1
75.2209 0 1
75.3365 0 1
75.4521 0 1
75.5678 0 1
75.6835 0 1
75.7993 0 1
75.9151 0 1
76.031 0 1
76.147 612 24.7386
76.263 690 26.2679
76.3791 688 26.2298
76.4952 706 26.5707
76.6113 670 25.8844
76.7276 700 26.4575
76.8438 694 26.3439
76.9601 833 28.8617
77.0765 843 29.0345
77.1929 917 30.282
77.3093 910 30.1662
77.4258 931 30.5123
77.5423 966 31.0805
77.6589 896 29.9333
77.7755 928 30.4631
77.8921 913 30.2159
78.0088 865 29.4109
78.1256 803 28.3373
78.2423 780 27.9285
78.3591 674 25.9615
78.4759 728 26.9815
78.5928 789 28.0891
78.7097 833 28.8617
78.8266 915 30.249
78.9436 888 29.7993
79.0606 952 30.8545
79.1776 1033 32.1403
79.2946 1023 31.9844
79.4117 958 30.9516
79.5288 970 31.1448
79.6459 960 30.9839
79.7631 964 31.0483
79.8802 881 29.6816
79.9974 831 28.8271
80.1147 810 28.4605
80.2319 752 27.4226
80.3491 724 26.9072
80.4664 766 27.6767
80.5837 813 28.5132
80.701 827 28.7576
80.8183 937 30.6105
80.9357 957 30.9354
81.053 944 30.7246
81.1704 992 31.496
81.2877 978 31.273
81.4051 990 31.4643
81.5225 982 31.3369
81.6399 900 30
81.7573 883 29.7153
81.8747 797 28.2312
81.9922 799 28.2666
82.1096 796 28.2135
82.227 775 27.8388
82.3444 895 29.9166
82.4619 967 31.0966
82.5793 966 31.0805
82.6967 1004 31.686
82.8142 1101 33.1813
82.9316 1039 32.2335
83.049 1001 31.6386
83.1664 964 31.0483
83.2838 954 30.8869
83.4012 928 30.4631
83.5186 899 29.9833
83.636 872 29.5296
83.7534 877 29.6142
83.8708 774 27.8209
83.9881 724 26.9072
84.1055 758 27.5318
84.2228 790 28.1069
84.3401 838 28.9482
84.4575 920 30.3315
84.5747 977 31.257
84.692 1042 32.28
84.8093 1042 32.28
84.9265 1010 31.7805
85.0437 934 30.5614
85.1609 938 30.6268
85.2781 920 30.3315
85.3952 863 29.3769
85.5123 717 26.7769
85.6294 831 28.8271
85.7465 816 28.5657
85.8636 917 30.282
85.9806 848 29.1204
86.0976 974 31.209
86.2145 1018 31.9061
86.3315 922 30.3645
86.4484 1051 32.4191
86.5652 1095 33.0908
86.682 1076 32.8024
86.7988 1041 32.2645
86.9156 984 31.3688
87.0323 983 31.3528
87.149 905 30.0832
87.2657 755 27.4773
87.3823 726 26.9444
87.4988 690 26.2679
87.6154 678 26.0384
87.7318 693 26.3249
87.8483 698 26.4197
87.9647 715 26.7395
88.081 738 27.1662
88.1973 723 26.8887
88.3136 715 26.7395
88.4298 604 24.5764
88.546 560 23.6643
88.6621 485 22.0227
88.7781 410 20.2485
88.8942 0 1
89.0101 0 1
89.126 0 1
89.2419 0 1
89.3577 0 1
89.4734 0 1
89.5891 0 1
89.7047 0 1
89.8203 0 1
89.9358 0 1
92.3269 0 1
92.4424 0 1
92.558 0 1
92.6736 0 1
92.7893 0 1
92.905 0 1
93.0208 0 1
93.1366 0 1
93.2525 0 1
93.3685 0 1
93.4845 0 1
93.6005 902 30.0333
93.7167 963 31.0322
93.8328 1055 32.4808
93.949 996 31.5595
94.0653 1029 32.078
94.1816 938 30.6268
94.2979 864 29.3939
94.4143 896 29.9333
94.5307 987 31.4166
94.6472 989 31.4484
94.7637 1088 32.9848
94.8803 1021 31.9531
94.9969 1119 33.4515
95.1135 1112 33.3467
95.2302 1143 33.8083
95.3469 1169 34.1906
95.4637 1174 34.2637
95.5805 1098 33.1361
95.6973 1075 32.7872
95.8142 1036 32.187
95.9311 1045 32.3265
96.048 919 30.315
96.1649 841 29
96.2819 855 29.2404
96.3989 924 30.3974
96.516 918 30.2985
96.633 1006 31.7175
96.7501 1017 31.8904
96.8673 1051 32.4191
96.9844 1120 33.4664
97.1016 1080 32.8634
97.2188 1066 32.6497
97.336 1048 32.3728
97.4532 967 31.0966
97.5704 927 30.4467
97.6877 846 29.0861
97.805 845 29.0689
97.9223 877 29.6142
98.0396 884 29.7321
98.1569 946 30.7571
98.2743 1019 31.9218
98.3916 1072 32.7414
98.509 1061 32.573
98.6264 1082 32.8938
98.7438 1107 33.2716
98.8612 1101 33.1813
98.9786 1134 33.6749
99.096 1073 32.7567
99.2134 1034 32.1559
99.3308 1017 31.8904
99.4482 958 30.9516
99.5656 867 29.4449
99.6831 845 29.0689
99.8005 803 28.3373
99.9179 891 29.8496
100.035 928 30.4631
100.153 981 31.3209
100.27 1001 31.6386
100.388 1051 32.4191
100.505 1085 32.9393
100.622 1033 32.1403
100.74 1008 31.749
100.857 1022 31.9687
100.975 941 30.6757
101.092 902 30.0333
101.209 856 29.2575
101.327 806 28.3901
101.444 849 29.1376
101.561 853 29.2062
101.679 925 30.4138
101.796 989 31.4484
101.913 1050 32.4037
102.03 1080 32.8634
102.148 1070 32.7109
102.265 1030 32.0936
102.382 1117 33.4215
102.499 1113 33.3617
102.616 1054 32.4654
102.733 1056 32.4962
102.851 1056 32.4962
102.968 1037 32.2025
103.085 998 31.5911
103.202 993 31.5119
103.319 948 30.7896
103.436 926 30.4302
103.552 913 30.2159
103.669 1027 32.0468
103.786 1084 32.9242
103.903 1225 35
104.02 1229 35.0571
104.137 1300 36.0555
104.253 1320 36.3318
104.37 1281 35.7911
104.487 1188 34.4674
104.603 1169 34.1906
104.72 1180 34.3511
104.836 1172 34.2345
104.953 1133 33.6601
105.069 1107 33.2716
105.186 1097 33.121
105.302 1031 32.1092
105.418 1058 32.5269
105.535 1084 32.9242
105.651 1031 32.1092
105.767 984 31.3688
105.883 872 29.5296
105.999 767 27.6948
106.115 0 1
106.231 0 1
106.347 0 1
106.463 0 1
106.579 0 1
106.694 0 1
106.81 0 1
106.926 0 1
107.041 0 1
107.157 0 1
109.576 0 1
109.692 0 1
109.807 0 1
109.923 0 1
110.039 0 1
110.155 0 1
110.27 0 1
110.386 0 1
110.502 0 1
110.618 1269 35.623
110.735 1655 40.6817
110.851 1832 42.8019
110.967 2126 46.1086
111.083 2282 47.7703
111.199 2479 49.7896
111.316 2476 49.7594
111.432 2600 50.9902
111.549 2598 50.9706
111.665 2718 52.1344
111.782 2641 51.3907
111.898 2417 49.163
112.015 2581 50.8035
112.132 2324 48.2079
112.248 2154 46.4112
112.365 2104 45.8694
112.482 2177 46.6583
112.599 2388 48.8672
112.716 2598 50.9706
112.832 2748 52.4214
112.949 2632 51.303
113.066 2644 51.4198
113.183 2576 50.7543
113.3 2587 50.8626
113.417 2542 50.4183
113.534 2489 49.8899
113.652 2334 48.3115
113.769 2170 46.5833
113.886 2129 46.1411
114.003 1934 43.9773
114.12 1982 44.5197
114.238 2197 46.8722
114.355 2335 48.3218
114.472 2343 48.4045
114.589 2459 49.5883
114.707 2533 50.3289
114.824 2387 48.8569
114.942 2498 49.98
115.059 2582 50.8134
115.176 2460 49.5984
115.294 2375 48.734
115.411 2307 48.0312
115.529 2149 46.3573
115.646 2063 45.4203
115.764 1902 43.6119
115.881 1772 42.0951
115.999 1825 42.72
116.116 1912 43.7264
116.234 1940 44.0454
116.351 2083 45.6399
116.469 2030 45.0555
116.586 2026 45.0111
116.704 2017 44.911
116.821 1960 44.2719
116.939 1768 42.0476
117.056 1756 41.9047
117.174 1695 41.1704
117.291 1631 40.3856
117.409 1359 36.8646
117.526 1333 36.5103
117.644 1299 36.0416
117.761 1300 36.0555
117.879 1406 37.4967
117.996 1390 37.2827
118.114 1379 37.1349
118.231 1392 37.3095
118.349 1421 37.6962
118.466 1422 37.7094
118.584 1241 35.2278
118.701 1316 36.2767
118.819 1280 35.7771
118.936 1184 34.4093
119.053 1144 33.8231
119.171 1096 33.1059
119.288 1073 32.7567
119.405 1023 31.9844
119.523 959 30.9677
119.64 914 30.2324
119.757 912 30.1993
119.875 992 31.496
119.992 1045 32.3265
120.109 1046 32.3419
120.226 1063 32.6037
120.343 1063 32.6037
120.46 1074 32.7719
120.578 966 31.0805
120.695 991 31.4802
120.812 949 30.8058
120.929 845 29.0689
121.046 853 29.2062
121.163 807 28.4077
121.279 781 27.9464
121.396 740 27.2029
121.513 816 28.5657
121.63 868 29.4618
121.747 923 30.3809
121.863 830 28.8097
121.98 828 28.775
122.097 806 28.3901
122.213 823 28.688
122.33 760 27.5681
122.446 674 25.9615
122.563 682 26.1151
122.679 634 25.1794
122.795 560 23.6643
122.912 548 23.4094
123.028 457 21.3776
123.144 405 20.1246
123.26 347 18.6279
123.377 0 1
123.493 0 1
123.609 0 1
123.725 0 1
123.84 0 1
123.956 0 1
124.072 0 1
124.188 0 1
124.303 0 1
124.419 0 1
126.852 0 1
126.968 0 1
127.083 0 1
127.199 0 1
127.315 0 1
127.431 0 1
127.547 0 1
127.663 0 1
127.779 0 1
127.895 0 1
128.011 0 1
128.127 0 1
128.243 0 1
128.359 757 27.5136
128.476 806 28.3901
128.592 791 28.1247
128.708 842 29.0172
128.825 899 29.9833
128.941 990 31.4643
129.058 1018 31.9061
129.174 988 31.4325
129.291 1013 31.8277
129.408 997 31.5753
129.524 987 31.4166
129.641 1005 31.7017
129.758 963 31.0322
129.875 862 29.3598
129.992 861 29.3428
130.108 805 28.3725
130.225 839 28.9655
130.342 872 29.5296
130.459 852 29.189
130.576 934 30.5614
130.693 963 31.0322
130.81 937 30.6105
130.928 880 29.6648
131.045 981 31.3209
131.162 1011 31.7962
131.279 1003 31.6702
131.396 1041 32.2645
131.513 991 31.4802
131.631 904 30.0666
131.748 928 30.4631
131.865 898 29.9666
131.983 853 29.2062
132.1 850 29.1548
132.217 888 29.7993
132.335 971 31.1609
132.452 973 31.1929
132.57 960 30.9839
132.687 949 30.8058
132.804 1031 32.1092
132.922 969 31.1288
133.039 993 31.5119
133.157 986 31.4006
133.274 941 30.6757
133.392 910 30.1662
133.509 810 28.4605
133.627 839 28.9655
133.744 768 27.7128
133.862 794 28.178
133.979 856 29.2575
134.097 929 30.4795
134.214 965 31.0644
134.332 997 31.5753
134.449 948 30.7896
134.567 978 31.273
134.684 971 31.1609
134.802 969 31.1288
134.919 1011 31.7962
135.037 971 31.1609
135.154 912 30.1993
135.272 916 30.2655
135.389 908 30.133
135.507 846 29.0861
135.624 780 27.9285
135.742 867 29.4449
135.859 861 29.3428
135.977 914 30.2324
136.094 969 31.1288
136.211 1005 31.7017
136.329 1008 31.749
136.446 926 30.4302
136.564 1005 31.7017
136.681 965 31.0644
136.798 980 31.305
136.915 878 29.6311
137.033 873 29.5466
137.15 901 30.0167
137.267 842 29.0172
137.384 788 28.0713
137.502 839 28.9655
137.619 823 28.688
137.736 886 29.7658
137.853 880 29.6648
137.97 920 30.3315
138.087 920 30.3315
138.204 942 30.692
138.321 958 30.9516
138.438 993 31.5119
138.555 987 31.4166
138.672 968 31.1127
138.788 945 30.7409
138.905 814 28.5307
139.022 797 28.2312
139.139 777 27.8747
139.255 641 25.318
139.372 637 25.2389
139.488 654 25.5734
139.605 695 26.3629
139.721 681 26.096
139.838 692 26.3059
139.954 655 25.593
140.071 545 23.3452
140.187 512 22.6274
140.303 487 22.0681
140.419 402 20.0499
140.535 383 19.5704
140.652 351 18.735
140.768 0 1
140.884 0 1
141 0 1
141.115 0 1
141.231 0 1
141.347 0 1
141.463 0 1
141.578 0 1
141.694 0 1
144.104 0 1
144.219 0 1
144.335 0 1
144.45 0 1
144.566 0 1
144.682 0 1
144.798 0 1
144.914 0 1
145.03 0 1
145.146 783 27.9821
145.262 768 27.7128
145.378 758 27.5318
145.494 765 27.6586
145.61 748 27.3496
145.726 738 27.1662
145.842 692 26.3059
145.959 689 26.2488
146.075 693 26.3249
146.192 728 26.9815
146.308 741 27.2213
146.425 774 27.8209
146.541 781 27.9464
146.658 767 27.6948
146.774 780 27.9285
146.891 800 28.2843
147.008 808 28.4253
147.125 789 28.0891
147.241 760 27.5681
147.358 842 29.0172
147.475 868 29.4618
147.592 754 27.4591
147.709 771 27.7669
147.826 728 26.9815
147.943 713 26.7021
148.06 703 26.5141
148.177 707 26.5895
148.294 817 28.5832
148.411 777 27.8747
148.528 862 29.3598
148.645 752 27.4226
148.762 800 28.2843
148.88 783 27.9821
148.997 726 26.9444
149.114 819 28.6182
149.231 795 28.1957
149.349 768 27.7128
149.466 705 26.5518
149.583 719 26.8142
149.701 685 26.1725
149.818 723 26.8887
149.935 713 26.7021
150.053 702 26.4953
150.17 759 27.55
150.287 727 26.9629
150.405 776 27.8568
150.522 799 28.2666
150.64 783 27.9821
150.757 793 28.1603
150.875 881 29.6816
150.992 824 28.7054
151.11 776 27.8568
151.227 783 27.9821
151.344 710 26.6458
151.462 719 26.8142
151.579 714 26.7208
151.697 685 26.1725
151.814 684 26.1534
151.932 765 27.6586
152.049 759 27.55
152.167 788 28.0713
152.284 755 27.4773
152.402 780 27.9285
152.519 813 28.5132
152.636 811 28.4781
152.754 760 27.5681
152.871 713 26.7021
152.989 690 26.2679
153.106 713 26.7021
153.223 672 25.923
153.341 683 26.1343
153.458 665 25.7876
153.575 656 25.6125
153.693 687 26.2107
153.81 725 26.9258
153.927 710 26.6458
154.044 736 27.1293
154.162 734 27.0924
154.279 753 27.4408
154.396 755 27.4773
154.513 820 28.6356
154.63 764 27.6405
154.747 795 28.1957
154.864 765 27.6586
154.981 744 27.2764
155.098 669 25.865
155.215 703 26.5141
155.332 719 26.8142
155.449 687 26.2107
155.566 724 26.9072
155.683 791 28.1247
155.8 759 27.55
155.917 776 27.8568
156.033 729 27
156.15 0 1
156.267 0 1
156.383 0 1
156.5 0 1
156.617 0 1
156.733 0 1
156.85 0 1
156.966 0 1
157.082 0 1
157.199 0 1
157.315 0 1
157.431 0 1
157.547 0 1
157.664 0 1
157.78 0 1
157.896 0 1
158.012 0 1
158.128 0 1
158.244 0 1
158.359 0 1
158.475 0 1
158.591 0 1
158.706 0 1
