
6.15755 0 1
6.2731 0 1
6.3887 0 1
6.50437 0 1
6.62009 0 1
6.73587 0 1
6.8517 0 1
6.96759 0 1
7.08353 0 1
7.19952 0 1
7.31557 0 1
7.43166 0 1
7.54781 0 1
7.664 0 1
7.78024 0 1
7.89653 0 1
8.01286 0 1
8.12924 0 1
8.24567 0 1
8.36213 0 1
8.47864 0 1
8.59519 0 1
8.71178 0 1
8.82841 0 1
8.94508 0 1
9.06179 0 1
9.17853 0 1
9.29531 0 1
9.41212 0 1
9.52897 0 1
9.64584 0 1
9.76276 0 1
9.8797 0 1
9.99667 0 1
10.1137 0 1
10.2307 0 1
10.3478 0 1
10.4648 0 1
10.5819 0 1
10.6991 0 1
10.8162 0 1
10.9334 0 1
11.0506 0 1
11.1678 0 1
11.285 0 1
11.4023 0 1
11.5196 0 1
11.6369 0 1
11.7542 0 1
11.8715 0 1
11.9888 0 1
12.1062 0 1
12.2235 0 1
12.3409 0 1
12.4582 0 1
12.5756 0 1
12.693 0 1
12.8104 0 1
12.9278 0 1
13.0452 0 1
13.1626 0 1
13.28 0 1
13.3974 0 1
13.5149 0 1
13.6323 0 1
13.7497 0 1
13.8671 0 1
13.9845 0 1
14.1019 0 1
14.2193 0 1
14.3367 0 1
14.4541 0 1
14.5714 0 1
14.6888 0 1
14.8062 0 1
14.9235 0 1
15.0408 0 0
15.1581 0 0
15.2755 0 0
15.3927 0 0
15.51 0 0
15.6273 0 0
15.7445 0 0
15.8617 0 0
15.9789 0 0
16.0961 0 0
16.2132 0 0
16.3304 0 0
16.4475 0 0
16.5646 0 0
16.6816 0 0
16.7986 0 0
16.9156 0 0
17.0326 0 0
17.1496 0 0
17.2665 0 0
17.3833 0 0
17.5002 0 0
17.617 0 0
17.7338 0 0
17.8505 0 0
17.9672 0 0
18.0839 0 0
18.2005 0 0
18.3171 0 0
18.4337 0 0
18.5502 0 0
18.6666 0 0
18.7831 0 0
18.8994 0 0
19.0158 0 0
19.1321 0 0
19.2483 0 0
19.3645 0 0
19.4806 0 0
19.5967 0 0
19.7128 0 0
19.8288 0 0
19.9447 0 0
20.0606 0 1
20.1764 0 1
20.2922 0 1
20.4079 0 1
20.5236 0 1
20.6392 0 1
20.7548 0 1
20.8702 0 1
23.3078 0 1
23.4233 0 1
23.539 0 1
23.6547 0 1
23.7704 0 1
23.8862 0 1
24.0021 0 1
24.118 0 1
24.234 0 1
24.35 0 1
24.4661 1169 34.1906
24.5822 1120 33.4664
24.6984 1125 33.541
24.8146 1119 33.4515
24.9309 1125 33.541
25.0472 1120 33.4664
25.1636 1069 32.6956
25.28 1117 33.4215
25.3965 1154 33.9706
25.513 1156 34
25.6296 1229 35.0571
25.7462 1302 36.0832
25.8628 1247 35.3129
25.9795 1331 36.4829
26.0962 1359 36.8646
26.213 1336 36.5513
26.3298 1328 36.4417
26.4466 1304 36.1109
26.5635 1242 35.242
26.6804 1241 35.2278
26.7973 1220 34.9285
26.9143 1190 34.4964
27.0313 1264 35.5528
27.1483 1261 35.5106
27.2653 1321 36.3456
27.3824 1279 35.7631
27.4996 1269 35.623
27.6167 1298 36.0278
27.7339 1320 36.3318
27.8511 1228 35.0428
27.9683 1270 35.6371
28.0855 1227 35.0286
28.2028 1231 35.0856
28.3201 1107 33.2716
28.4374 1140 33.7639
28.5547 1055 32.4808
28.6721 1044 32.311
28.7894 1046 32.3419
28.9068 1096 33.1059
29.0242 1069 32.6956
29.1416 1112 33.3467
29.259 1187 34.4529
29.3764 1150 33.9116
29.4939 1187 34.4529
29.6113 1240 35.2136
29.7288 1201 34.6554
29.8463 1223 34.9714
29.9638 1212 34.8138
30.0812 1132 33.6452
30.1987 1151 33.9264
30.3162 1061 32.573
30.4337 1120 33.4664
30.5512 1121 33.4813
30.6687 1214 34.8425
30.7862 1277 35.7351
30.9037 1242 35.242
31.0212 1324 36.3868
31.1387 1226 35.0143
31.2562 1212 34.8138
31.3737 1204 34.6987
31.4912 1230 35.0714
31.6087 1176 34.2929
31.7262 1183 34.3948
31.8436 1140 33.7639
31.9611 1102 33.1964
32.0785 1071 32.7261
32.1959 1062 32.5883
32.3134 1023 31.9844
32.4308 1028 32.0624
32.5482 1062 32.5883
32.6655 1077 32.8177
32.7829 1116 33.4066
32.9002 1172 34.2345
33.0176 1214 34.8425
33.1349 1188 34.4674
33.2522 1212 34.8138
33.3694 1186 34.4384
33.4867 1170 34.2053
33.6039 1132 33.6452
33.7211 1128 33.5857
33.8383 1106 33.2566
33.9554 1083 32.909
34.0725 1076 32.8024
34.1896 1153 33.9559
34.3067 1164 34.1174
34.4237 1167 34.1614
34.5407 1225 35
34.6577 1120 33.4664
34.7746 1216 34.8712
34.8915 1197 34.5977
35.0084 1227 35.0286
35.1252 1264 35.5528
35.242 1068 32.6803
35.3587 1168 34.176
35.4755 1070 32.7109
35.5921 1090 33.0151
35.7088 1034 32.1559
35.8254 1053 32.45
35.9419 1050 32.4037
36.0584 958 30.9516
36.1749 984 31.3688
36.2913 1008 31.749
36.4077 1068 32.6803
36.524 1008 31.749
36.6403 1074 32.7719
36.7565 1117 33.4215
36.8727 1150 33.9116
36.9889 1110 33.3167
37.1049 1244 35.2704
37.221 0 1
37.3369 0 1
37.4529 0 1
37.5687 0 1
37.6845 0 1
37.8003 0 1
37.916 0 1
38.0316 0 1
38.1472 0 1
40.5851 0 1
40.7008 0 1
40.8164 0 1
40.9322 0 1
41.048 0 1
41.1639 0 1
41.2798 0 1
41.3958 0 1
41.5118 0 1
41.6279 0 1
41.744 929 30.4795
41.8602 943 30.7083
41.9765 999 31.607
42.0928 933 30.545
42.2091 954 30.8869
42.3255 949 30.8058
42.4419 914 30.2324
42.5584 838 28.9482
42.675 849 29.1376
42.7915 820 28.6356
42.9081 795 28.1957
43.0248 948 30.7896
43.1415 880 29.6648
43.2582 955 30.9031
43.375 937 30.6105
43.4918 963 31.0322
43.6087 937 30.6105
43.7256 930 30.4959
43.8425 964 31.0483
43.9595 902 30.0333
44.0765 892 29.8664
44.1935 857 29.2746
44.3106 820 28.6356
44.4277 759 27.55
44.5448 736 27.1293
44.6619 684 26.1534
44.7791 658 25.6515
44.8963 670 25.8844
45.0136 662 25.7294
45.1308 694 26.3439
45.2481 708 26.6083
45.3654 735 27.1109
45.4827 740 27.2029
45.6001 715 26.7395
45.7174 734 27.0924
45.8348 729 27
45.9522 696 26.3818
46.0697 698 26.4197
46.1871 597 24.4336
46.3046 579 24.0624
46.422 584 24.1661
46.5395 611 24.7184
46.657 634 25.1794
46.7745 665 25.7876
46.892 728 26.9815
47.0096 701 26.4764
47.1271 720 26.8328
47.2446 724 26.9072
47.3622 735 27.1109
47.4797 689 26.2488
47.5973 695 26.3629
47.7149 635 25.1992
47.8324 598 24.454
47.95 604 24.5764
48.0675 576 24
48.1851 514 22.6716
48.3027 485 22.0227
48.4202 464 21.5407
48.5378 524 22.891
48.6554 518 22.7596
48.7729 515 22.6936
48.8904 529 23
49.008 545 23.3452
49.1255 594 24.3721
49.243 578 24.0416
49.3605 612 24.7386
49.478 551 23.4734
49.5955 477 21.8403
49.713 461 21.4709
49.8304 487 22.0681
49.9479 470 21.6795
50.0653 534 23.1084
50.1827 556 23.5797
50.3001 609 24.6779
50.4175 709 26.6271
50.5348 717 26.7769
50.6521 644 25.3772
50.7694 677 26.0192
50.8867 677 26.0192
51.004 708 26.6083
51.1212 733 27.074
51.2384 742 27.2397
51.3556 744 27.2764
51.4727 689 26.2488
51.5899 661 25.7099
51.707 685 26.1725
51.824 654 25.5734
51.9411 657 25.632
52.0581 699 26.4386
52.175 704 26.533
52.2919 735 27.1109
52.4088 746 27.313
52.5257 850 29.1548
52.6425 880 29.6648
52.7593 919 30.315
52.876 922 30.3645
52.9927 851 29.1719
53.1094 890 29.8329
53.226 837 28.931
53.3426 798 28.2489
53.4591 767 27.6948
53.5756 779 27.9106
53.692 863 29.3769
53.8084 969 31.1288
53.9248 1020 31.9374
54.0411 1024 32
54.1573 1083 32.909
54.2735 0 1
54.3896 0 1
54.5057 0 1
54.6217 0 1
54.7377 0 1
54.8537 0 1
54.9695 0 1
55.0853 0 1
55.2011 0 1
55.3168 0 1
55.4324 0 1
57.824 0 1
57.9396 0 1
58.0553 0 1
58.1711 0 1
58.2869 0 1
58.4028 0 1
58.5187 0 1
58.6347 0 1
58.7508 0 1
58.8669 0 1
58.983 1151 33.9264
59.0992 1251 35.3695
59.2155 1349 36.7287
59.3318 1310 36.1939
59.4482 1379 37.1349
59.5646 1385 37.2156
59.681 1401 37.4299
59.7975 1305 36.1248
59.9141 1319 36.318
60.0306 1236 35.1568
60.1473 1217 34.8855
60.2639 1165 34.1321
60.3807 1090 33.0151
60.4974 997 31.5753
60.6142 1022 31.9687
60.731 998 31.5911
60.8479 1085 32.9393
60.9648 1157 34.0147
61.0818 1161 34.0735
61.1987 1159 34.0441
61.3158 1211 34.7994
61.4328 1169 34.1906
61.5499 1126 33.5559
61.667 1111 33.3317
61.7841 992 31.496
61.9013 985 31.3847
62.0185 973 31.1929
62.1357 987 31.4166
62.253 1033 32.1403
62.3702 1107 33.2716
62.4875 1193 34.5398
62.6049 1219 34.9142
62.7222 1232 35.0999
62.8396 1263 35.5387
62.9569 1283 35.819
63.0743 1245 35.2846
63.1918 1291 35.9305
63.3092 1253 35.3977
63.4267 1215 34.8569
63.5441 1134 33.6749
63.6616 1091 33.0303
63.7791 993 31.5119
63.8966 965 31.0644
64.0142 892 29.8664
64.1317 910 30.1662
64.2492 888 29.7993
64.3668 930 30.4959
64.4843 970 31.1448
64.6019 1021 31.9531
64.7195 1021 31.9531
64.837 1063 32.6037
64.9546 1058 32.5269
65.0722 1004 31.686
65.1898 970 31.1448
65.3074 930 30.4959
65.4249 826 28.7402
65.5425 834 28.8791
65.6601 902 30.0333
65.7777 881 29.6816
65.8952 892 29.8664
66.0128 1015 31.8591
66.1304 1005 31.7017
66.2479 1087 32.9697
66.3655 1138 33.7343
66.483 1098 33.1361
66.6005 1095 33.0908
66.718 1133 33.6601
66.8355 1095 33.0908
66.953 1083 32.909
67.0705 1082 32.8938
67.1879 1021 31.9531
67.3054 961 31
67.4228 886 29.7658
67.5402 790 28.1069
67.6576 792 28.1425
67.7749 745 27.2947
67.8923 835 28.8964
68.0096 860 29.3258
68.1269 950 30.8221
68.2442 911 30.1828
68.3614 936 30.5941
68.4787 969 31.1288
68.5958 1011 31.7962
68.713 975 31.225
68.8302 898 29.9666
68.9473 881 29.6816
69.0643 779 27.9106
69.1814 757 27.5136
69.2984 753 27.4408
69.4154 921 30.348
69.5323 959 30.9677
69.6492 1022 31.9687
69.7661 1101 33.1813
69.8829 1173 34.2491
69.9997 1181 34.3657
70.1165 1213 34.8281
70.2332 1219 34.9142
70.3499 1193 34.5398
70.4665 1222 34.9571
70.5831 1233 35.1141
70.6996 1114 33.3766
70.8161 1103 33.2114
70.9326 1038 32.218
71.049 1001 31.6386
71.1653 892 29.8664
71.2817 887 29.7825
71.3979 857 29.2746
71.5141 869 29.4788
71.6303 863 29.3769
71.7464 857 29.2746
71.8624 0 1
71.9784 0 1
72.0944 0 1
72.2102 0 1
72.3261 0 1
72.4418 0 1
72.5575 0 1
72.6732 0 1
75.1054 0 1
75.2209 0 1
75.3365 0 1
75.4521 0 1
75.5678 0 1
75.6835 0 1
75.7993 0 1
75.9151 0 1
76.031 0 1
76.147 1016 31.8748
76.263 1008 31.749
76.3791 1019 31.9218
76.4952 884 29.7321
76.6113 837 28.931
76.7276 853 29.2062
76.8438 839 28.9655
76.9601 954 30.8869
77.0765 1016 31.8748
77.1929 1016 31.8748
77.3093 1071 32.7261
77.4258 1090 33.0151
77.5423 1080 32.8634
77.6589 1019 31.9218
77.7755 970 31.1448
77.8921 848 29.1204
78.0088 766 27.6767
78.1256 791 28.1247
78.2423 768 27.7128
78.3591 835 28.8964
78.4759 907 30.1164
78.5928 916 30.2655
78.7097 1041 32.2645
78.8266 1053 32.45
78.9436 1150 33.9116
79.0606 1195 34.5688
79.1776 1229 35.0571
79.2946 1178 34.322
79.4117 1124 33.5261
79.5288 1162 34.0881
79.6459 1157 34.0147
79.7631 1042 32.28
79.8802 1026 32.0312
79.9974 987 31.4166
80.1147 862 29.3598
80.2319 817 28.5832
80.3491 805 28.3725
80.4664 767 27.6948
80.5837 869 29.4788
80.701 885 29.7489
80.8183 921 30.348
80.9357 990 31.4643
81.053 975 31.225
81.1704 948 30.7896
81.2877 925 30.4138
81.4051 962 31.0161
81.5225 851 29.1719
81.6399 771 27.7669
81.7573 709 26.6271
81.8747 619 24.8797
81.9922 707 26.5895
82.1096 790 28.1069
82.227 943 30.7083
82.3444 937 30.6105
82.4619 1001 31.6386
82.5793 1038 32.218
82.6967 1077 32.8177
82.8142 1001 31.6386
82.9316 1034 32.1559
83.049 1056 32.4962
83.1664 1010 31.7805
83.2838 971 31.1609
83.4012 875 29.5804
83.5186 904 30.0666
83.636 853 29.2062
83.7534 777 27.8747
83.8708 717 26.7769
83.9881 713 26.7021
84.1055 684 26.1534
84.2228 758 27.5318
84.3401 804 28.3549
84.4575 732 27.0555
84.5747 905 30.0832
84.692 965 31.0644
84.8093 875 29.5804
84.9265 842 29.0172
85.0437 806 28.3901
85.1609 708 26.6083
85.2781 690 26.2679
85.3952 641 25.318
85.5123 652 25.5343
85.6294 751 27.4044
85.7465 773 27.8029
85.8636 902 30.0333
85.9806 964 31.0483
86.0976 1049 32.3883
86.2145 1072 32.7414
86.3315 1161 34.0735
86.4484 1088 32.9848
86.5652 1153 33.9559
86.682 1207 34.7419
86.7988 1174 34.2637
86.9156 1037 32.2025
87.0323 1061 32.573
87.149 970 31.1448
87.2657 993 31.5119
87.3823 908 30.133
87.4988 861 29.3428
87.6154 870 29.4958
87.7318 915 30.249
87.8483 959 30.9677
87.9647 1033 32.1403
88.081 1089 33
88.1973 1142 33.7935
88.3136 1149 33.8969
88.4298 1140 33.7639
88.546 1018 31.9061
88.6621 936 30.5941
88.7781 876 29.5973
88.8942 0 1
89.0101 0 1
89.126 0 1
89.2419 0 1
89.3577 0 1
89.4734 0 1
89.5891 0 1
89.7047 0 1
89.8203 0 1
89.9358 0 1
92.3269 0 1
92.4424 0 1
92.558 0 1
92.6736 0 1
92.7893 0 1
92.905 0 1
93.0208 0 1
93.1366 0 1
93.2525 0 1
93.3685 0 1
93.4845 0 1
93.6005 1044 32.311
93.7167 1074 32.7719
93.8328 1111 33.3317
93.949 1101 33.1813
94.0653 986 31.4006
94.1816 883 29.7153
94.2979 829 28.7924
94.4143 862 29.3598
94.5307 765 27.6586
94.6472 880 29.6648
94.7637 933 30.545
94.8803 1027 32.0468
94.9969 1055 32.4808
95.1135 1188 34.4674
95.2302 1174 34.2637
95.3469 1217 34.8855
95.4637 1317 36.2905
95.5805 1256 35.4401
95.6973 1291 35.9305
95.8142 1255 35.426
95.9311 1254 35.4119
96.048 1147 33.8674
96.1649 1138 33.7343
96.2819 1130 33.6155
96.3989 1070 32.7109
96.516 1008 31.749
96.633 958 30.9516
96.7501 985 31.3847
96.8673 963 31.0322
96.9844 957 30.9354
97.1016 1045 32.3265
97.2188 1144 33.8231
97.336 1148 33.8821
97.4532 1085 32.9393
97.5704 1056 32.4962
97.6877 1035 32.1714
97.805 1019 31.9218
97.9223 829 28.7924
98.0396 783 27.9821
98.1569 806 28.3901
98.2743 785 28.0179
98.3916 870 29.4958
98.509 907 30.1164
98.6264 1089 33
98.7438 1123 33.5112
98.8612 1193 34.5398
98.9786 1218 34.8999
99.096 1225 35
99.2134 1282 35.805
99.3308 1292 35.9444
99.4482 1276 35.7211
99.5656 1185 34.4238
99.6831 1204 34.6987
99.8005 1103 33.2114
99.9179 1107 33.2716
100.035 1045 32.3265
100.153 930 30.4959
100.27 1025 32.0156
100.388 993 31.5119
100.505 966 31.0805
100.622 1008 31.749
100.74 1166 34.1467
100.857 1119 33.4515
100.975 1208 34.7563
101.092 1135 33.6898
101.209 1093 33.0606
101.327 981 31.3209
101.444 898 29.9666
101.561 808 28.4253
101.679 772 27.7849
101.796 826 28.7402
101.913 845 29.0689
102.03 985 31.3847
102.148 1083 32.909
102.265 1090 33.0151
102.382 1209 34.7707
102.499 1248 35.327
102.616 1329 36.4555
102.733 1284 35.8329
102.851 1309 36.1801
102.968 1319 36.318
103.085 1248 35.327
103.202 1250 35.3553
103.319 1178 34.322
103.436 1183 34.3948
103.552 1089 33
103.669 1090 33.0151
103.786 1047 32.3574
103.903 979 31.289
104.02 1067 32.665
104.137 1137 33.7194
104.253 1114 33.3766
104.37 1142 33.7935
104.487 1238 35.1852
104.603 1153 33.9559
104.72 1121 33.4813
104.836 1026 32.0312
104.953 987 31.4166
105.069 934 30.5614
105.186 883 29.7153
105.302 912 30.1993
105.418 984 31.3688
105.535 1151 33.9264
105.651 1234 35.1283
105.767 1323 36.3731
105.883 1430 37.8153
105.999 1458 38.1838
106.115 0 1
106.231 0 1
106.347 0 1
106.463 0 1
106.579 0 1
106.694 0 1
106.81 0 1
106.926 0 1
107.041 0 1
107.157 0 1
109.576 0 1
109.692 0 1
109.807 0 1
109.923 0 1
110.039 0 1
110.155 0 1
110.27 0 1
110.386 0 1
110.502 0 1
110.618 1059 32.5423
110.735 1249 35.3412
110.851 1369 37
110.967 1376 37.0945
111.083 1335 36.5377
111.199 1366 36.9594
111.316 1384 37.2022
111.432 1473 38.3797
111.549 1390 37.2827
111.665 1328 36.4417
111.782 1341 36.6197
111.898 1297 36.0139
112.015 1233 35.1141
112.132 1148 33.8821
112.248 1101 33.1813
112.365 1031 32.1092
112.482 1028 32.0624
112.599 1090 33.0151
112.716 1099 33.1512
112.832 1191 34.5109
112.949 1204 34.6987
113.066 1201 34.6554
113.183 1182 34.3802
113.3 1115 33.3916
113.417 1048 32.3728
113.534 998 31.5911
113.652 864 29.3939
113.769 864 29.3939
113.886 859 29.3087
114.003 919 30.315
114.12 1051 32.4191
114.238 1215 34.8569
114.355 1232 35.0999
114.472 1283 35.819
114.589 1309 36.1801
114.707 1341 36.6197
114.824 1361 36.8917
114.942 1425 37.7492
115.059 1378 37.1214
115.176 1391 37.2961
115.294 1341 36.6197
115.411 1246 35.2987
115.529 1252 35.3836
115.646 1165 34.1321
115.764 1149 33.8969
115.881 1141 33.7787
115.999 1156 34
116.116 1130 33.6155
116.234 1198 34.6121
116.351 1197 34.5977
116.469 1275 35.7071
116.586 1256 35.4401
116.704 1195 34.5688
116.821 1213 34.8281
116.939 1159 34.0441
117.056 977 31.257
117.174 914 30.2324
117.291 940 30.6594
117.409 965 31.0644
117.526 914 30.2324
117.644 1030 32.0936
117.761 1192 34.5254
117.879 1261 35.5106
117.996 1289 35.9026
118.114 1354 36.7967
118.231 1428 37.7889
118.349 1406 37.4967
118.466 1333 36.5103
118.584 1430 37.8153
118.701 1431 37.8286
118.819 1396 37.3631
118.936 1317 36.2905
119.053 1317 36.2905
119.171 1289 35.9026
119.288 1223 34.9714
119.405 1119 33.4515
119.523 1159 34.0441
119.64 1164 34.1174
119.757 1139 33.7491
119.875 1288 35.8887
119.992 1228 35.0428
120.109 1210 34.7851
120.226 1208 34.7563
120.343 1228 35.0428
120.46 1199 34.6266
120.578 1204 34.6987
120.695 1096 33.1059
120.812 999 31.607
120.929 966 31.0805
121.046 920 30.3315
121.163 967 31.0966
121.279 1008 31.749
121.396 1150 33.9116
121.513 1268 35.609
121.63 1379 37.1349
121.747 1305 36.1248
121.863 1348 36.7151
121.98 1392 37.3095
122.097 1336 36.5513
122.213 1390 37.2827
122.33 1375 37.081
122.446 1295 35.9861
122.563 1285 35.8469
122.679 1262 35.5246
122.795 1267 35.5949
122.912 1247 35.3129
123.028 1243 35.2562
123.144 1074 32.7719
123.26 1140 33.7639
123.377 0 1
123.493 0 1
123.609 0 1
123.725 0 1
123.84 0 1
123.956 0 1
124.072 0 1
124.188 0 1
124.303 0 1
124.419 0 1
126.852 0 1
126.968 0 1
127.083 0 1
127.199 0 1
127.315 0 1
127.431 0 1
127.547 0 1
127.663 0 1
127.779 0 1
127.895 0 1
128.011 0 1
128.127 0 1
128.243 0 1
128.359 1231 35.0856
128.476 1177 34.3074
128.592 1256 35.4401
128.708 1247 35.3129
128.825 1348 36.7151
128.941 1300 36.0555
129.058 1349 36.7287
129.174 1321 36.3456
129.291 1281 35.7911
129.408 1211 34.7994
129.524 1166 34.1467
129.641 1120 33.4664
129.758 1097 33.121
129.875 1000 31.6228
129.992 1067 32.665
130.108 1008 31.749
130.225 1097 33.121
130.342 1242 35.242
130.459 1321 36.3456
130.576 1420 37.6829
130.693 1382 37.1753
130.81 1359 36.8646
130.928 1457 38.1707
131.045 1369 37
131.162 1489 38.5876
131.279 1446 38.0263
131.396 1471 38.3536
131.513 1521 39
131.631 1412 37.5766
131.748 1373 37.054
131.865 1272 35.6651
131.983 1349 36.7287
132.1 1348 36.7151
132.217 1361 36.8917
132.335 1366 36.9594
132.452 1309 36.1801
132.57 1385 37.2156
132.687 1321 36.3456
132.804 1384 37.2022
132.922 1405 37.4833
133.039 1291 35.9305
133.157 1158 34.0294
133.274 1144 33.8231
133.392 1107 33.2716
133.509 1090 33.0151
133.627 1094 33.0757
133.744 1157 34.0147
133.862 1200 34.641
133.979 1367 36.973
134.097 1423 37.7227
134.214 1397 37.3765
134.332 1509 38.8458
134.449 1448 38.0526
134.567 1553 39.4081
134.684 1466 38.2884
134.802 1526 39.064
134.919 1517 38.9487
135.037 1485 38.5357
135.154 1485 38.5357
135.272 1378 37.1214
135.389 1373 37.054
135.507 1325 36.4005
135.624 1400 37.4166
135.742 1421 37.6962
135.859 1442 37.9737
135.977 1348 36.7151
136.094 1330 36.4692
136.211 1373 37.054
136.329 1329 36.4555
136.446 1344 36.6606
136.564 1343 36.647
136.681 1315 36.2629
136.798 1254 35.4119
136.915 1153 33.9559
137.033 1201 34.6554
137.15 1068 32.6803
137.267 1123 33.5112
137.384 1200 34.641
137.502 1235 35.1426
137.619 1356 36.8239
137.736 1414 37.6032
137.853 1388 37.2559
137.97 1466 38.2884
138.087 1392 37.3095
138.204 1401 37.4299
138.321 1507 38.8201
138.438 1465 38.2753
138.555 1457 38.1707
138.672 1532 39.1408
138.788 1481 38.4838
138.905 1341 36.6197
139.022 1414 37.6032
139.139 1370 37.0135
139.255 1318 36.3043
139.372 1385 37.2156
139.488 1384 37.2022
139.605 1386 37.229
139.721 1436 37.8946
139.838 1435 37.8814
139.954 1367 36.973
140.071 1371 37.027
140.187 1338 36.5787
140.303 1225 35
140.419 1249 35.3412
140.535 1177 34.3074
140.652 1114 33.3766
140.768 0 1
140.884 0 1
141 0 1
141.115 0 1
141.231 0 1
141.347 0 1
141.463 0 1
141.578 0 1
141.694 0 1
144.104 0 1
144.219 0 1
144.335 0 1
144.45 0 1
144.566 0 1
144.682 0 1
144.798 0 1
144.914 0 1
145.03 0 1
145.146 923 30.3809
145.262 1042 32.28
145.378 1038 32.218
145.494 943 30.7083
145.61 974 31.209
145.726 942 30.692
145.842 847 29.1033
145.959 931 30.5123
146.075 915 30.249
146.192 955 30.9031
146.308 1054 32.4654
146.425 1057 32.5115
146.541 1051 32.4191
146.658 1093 33.0606
146.774 1104 33.2265
146.891 1112 33.3467
147.008 1214 34.8425
147.125 1189 34.4819
147.241 1170 34.2053
147.358 1184 34.4093
147.475 1164 34.1174
147.592 1135 33.6898
147.709 1202 34.6699
147.826 1132 33.6452
147.943 1131 33.6303
148.06 1069 32.6956
148.177 1105 33.2415
148.294 1137 33.7194
148.411 1058 32.5269
148.528 1141 33.7787
148.645 1148 33.8821
148.762 1130 33.6155
148.88 1114 33.3766
148.997 1085 32.9393
149.114 1119 33.4515
149.231 975 31.225
149.349 975 31.225
149.466 1030 32.0936
149.583 968 31.1127
149.701 927 30.4467
149.818 870 29.4958
149.935 917 30.282
150.053 992 31.496
150.17 996 31.5595
150.287 1029 32.078
150.405 1122 33.4963
150.522 1166 34.1467
150.64 1104 33.2265
150.757 1126 33.5559
150.875 1216 34.8712
150.992 1212 34.8138
151.11 1206 34.7275
151.227 1136 33.7046
151.344 1219 34.9142
151.462 1127 33.5708
151.579 1160 34.0588
151.697 1211 34.7994
151.814 1155 33.9853
151.932 1129 33.6006
152.049 1162 34.0881
152.167 1089 33
152.284 1192 34.5254
152.402 1176 34.2929
152.519 1090 33.0151
152.636 1104 33.2265
152.754 1121 33.4813
152.871 1087 32.9697
152.989 1017 31.8904
153.106 993 31.5119
153.223 996 31.5595
153.341 998 31.5911
153.458 943 30.7083
153.575 913 30.2159
153.693 1010 31.7805
153.81 996 31.5595
153.927 1126 33.5559
154.044 1135 33.6898
154.162 1096 33.1059
154.279 1178 34.322
154.396 1166 34.1467
154.513 1216 34.8712
154.63 1244 35.2704
154.747 1248 35.327
154.864 1277 35.7351
154.981 1251 35.3695
155.098 1199 34.6266
155.215 1240 35.2136
155.332 1233 35.1141
155.449 1253 35.3977
155.566 1178 34.322
155.683 1221 34.9428
155.8 1229 35.0571
155.917 1192 34.5254
156.033 1272 35.6651
156.15 0 1
156.267 0 1
156.383 0 1
156.5 0 1
156.617 0 1
156.733 0 1
156.85 0 1
156.966 0 1
157.082 0 1
157.199 0 1
157.315 0 1
157.431 0 1
157.547 0 1
157.664 0 1
157.78 0 1
157.896 0 1
158.012 0 1
158.128 0 1
158.244 0 1
158.359 0 1
158.475 0 1
158.591 0 1
158.706 0 1
