
6.15755 0 1
6.2731 0 1
6.3887 0 1
6.50437 0 1
6.62009 0 1
6.73587 0 1
6.8517 0 1
6.96759 0 1
7.08353 0 1
7.19952 0 1
7.31557 0 1
7.43166 0 1
7.54781 0 1
7.664 0 1
7.78024 0 1
7.89653 0 1
8.01286 0 1
8.12924 0 1
8.24567 0 1
8.36213 0 1
8.47864 0 1
8.59519 0 1
8.71178 0 1
8.82841 0 1
8.94508 0 1
9.06179 0 1
9.17853 0 1
9.29531 0 1
9.41212 0 1
9.52897 0 1
9.64584 0 1
9.76276 0 1
9.8797 0 1
9.99667 0 1
10.1137 0 1
10.2307 0 1
10.3478 0 1
10.4648 0 1
10.5819 0 1
10.6991 0 1
10.8162 0 1
10.9334 0 1
11.0506 0 1
11.1678 0 1
11.285 0 1
11.4023 0 1
11.5196 0 1
11.6369 0 1
11.7542 0 1
11.8715 0 1
11.9888 0 1
12.1062 0 1
12.2235 0 1
12.3409 0 1
12.4582 0 1
12.5756 0 1
12.693 0 1
12.8104 0 1
12.9278 0 1
13.0452 0 1
13.1626 0 1
13.28 0 1
13.3974 0 1
13.5149 0 1
13.6323 0 1
13.7497 0 1
13.8671 0 1
13.9845 0 1
14.1019 0 1
14.2193 0 1
14.3367 0 1
14.4541 0 1
14.5714 0 1
14.6888 0 1
14.8062 0 1
14.9235 0 1
15.0408 1036 32.187
15.1581 1042 32.28
15.2755 1131 33.6303
15.3927 1083 32.909
15.51 1020 31.9374
15.6273 995 31.5436
15.7445 936 30.5941
15.8617 990 31.4643
15.9789 945 30.7409
16.0961 913 30.2159
16.2132 965 31.0644
16.3304 959 30.9677
16.4475 944 30.7246
16.5646 916 30.2655
16.6816 902 30.0333
16.7986 948 30.7896
16.9156 902 30.0333
17.0326 875 29.5804
17.1496 837 28.931
17.2665 888 29.7993
17.3833 869 29.4788
17.5002 876 29.5973
17.617 914 30.2324
17.7338 848 29.1204
17.8505 820 28.6356
17.9672 877 29.6142
18.0839 822 28.6705
18.2005 853 29.2062
18.3171 874 29.5635
18.4337 836 28.9137
18.5502 867 29.4449
18.6666 918 30.2985
18.7831 881 29.6816
18.8994 868 29.4618
19.0158 831 28.8271
19.1321 739 27.1846
19.2483 706 26.5707
19.3645 699 26.4386
19.4806 719 26.8142
19.5967 650 25.4951
19.7128 690 26.2679
19.8288 629 25.0799
19.9447 600 24.4949
20.0606 0 1
20.1764 0 1
20.2922 0 1
20.4079 0 1
20.5236 0 1
20.6392 0 1
20.7548 0 1
20.8702 0 1
23.3078 0 1
23.4233 0 1
23.539 0 1
23.6547 0 1
23.7704 0 1
23.8862 0 1
24.0021 0 1
24.118 0 1
24.234 0 1
24.35 0 1
24.4661 364 19.0788
24.5822 389 19.7231
24.6984 534 23.1084
24.8146 608 24.6577
24.9309 687 26.2107
25.0472 735 27.1109
25.1636 795 28.1957
25.28 857 29.2746
25.3965 854 29.2233
25.513 929 30.4795
25.6296 1033 32.1403
25.7462 1024 32
25.8628 986 31.4006
25.9795 973 31.1929
26.0962 938 30.6268
26.213 941 30.6757
26.3298 903 30.05
26.4466 913 30.2159
26.5635 799 28.2666
26.6804 810 28.4605
26.7973 754 27.4591
26.9143 796 28.2135
27.0313 808 28.4253
27.1483 771 27.7669
27.2653 821 28.6531
27.3824 870 29.4958
27.4996 891 29.8496
27.6167 860 29.3258
27.7339 864 29.3939
27.8511 821 28.6531
27.9683 825 28.7228
28.0855 793 28.1603
28.2028 842 29.0172
28.3201 948 30.7896
28.4374 949 30.8058
28.5547 941 30.6757
28.6721 954 30.8869
28.7894 909 30.1496
28.9068 947 30.7734
29.0242 923 30.3809
29.1416 882 29.6985
29.259 911 30.1828
29.3764 904 30.0666
29.4939 931 30.5123
29.6113 903 30.05
29.7288 928 30.4631
29.8463 919 30.315
29.9638 954 30.8869
30.0812 937 30.6105
30.1987 911 30.1828
30.3162 958 30.9516
30.4337 922 30.3645
30.5512 941 30.6757
30.6687 1016 31.8748
30.7862 1064 32.619
30.9037 1157 34.0147
31.0212 1068 32.6803
31.1387 956 30.9192
31.2562 1118 33.4365
31.3737 1028 32.0624
31.4912 1017 31.8904
31.6087 892 29.8664
31.7262 914 30.2324
31.8436 954 30.8869
31.9611 966 31.0805
32.0785 989 31.4484
32.1959 1031 32.1092
32.3134 1015 31.8591
32.4308 934 30.5614
32.5482 953 30.8707
32.6655 944 30.7246
32.7829 991 31.4802
32.9002 948 30.7896
33.0176 997 31.5753
33.1349 937 30.6105
33.2522 950 30.8221
33.3694 927 30.4467
33.4867 994 31.5278
33.6039 1001 31.6386
33.7211 981 31.3209
33.8383 955 30.9031
33.9554 833 28.8617
34.0725 867 29.4449
34.1896 812 28.4956
34.3067 839 28.9655
34.4237 868 29.4618
34.5407 884 29.7321
34.6577 872 29.5296
34.7746 886 29.7658
34.8915 869 29.4788
35.0084 793 28.1603
35.1252 804 28.3549
35.242 768 27.7128
35.3587 721 26.8514
35.4755 773 27.8029
35.5921 869 29.4788
35.7088 798 28.2489
35.8254 864 29.3939
35.9419 825 28.7228
36.0584 792 28.1425
36.1749 751 27.4044
36.2913 742 27.2397
36.4077 746 27.313
36.524 696 26.3818
36.6403 646 25.4165
36.7565 686 26.1916
36.8727 628 25.0599
36.9889 534 23.1084
37.1049 479 21.8861
37.221 0 1
37.3369 0 1
37.4529 0 1
37.5687 0 1
37.6845 0 1
37.8003 0 1
37.916 0 1
38.0316 0 1
38.1472 0 1
40.5851 0 1
40.7008 0 1
40.8164 0 1
40.9322 0 1
41.048 0 1
41.1639 0 1
41.2798 0 1
41.3958 0 1
41.5118 0 1
41.6279 0 1
41.744 316 17.7764
41.8602 420 20.4939
41.9765 471 21.7025
42.0928 501 22.383
42.2091 490 22.1359
42.3255 555 23.5584
42.4419 560 23.6643
42.5584 632 25.1396
42.675 630 25.0998
42.7915 641 25.318
42.9081 598 24.454
43.0248 569 23.8537
43.1415 603 24.5561
43.2582 584 24.1661
43.375 550 23.4521
43.4918 636 25.219
43.6087 600 24.4949
43.7256 559 23.6432
43.8425 572 23.9165
43.9595 577 24.0208
44.0765 539 23.2164
44.1935 515 22.6936
44.3106 567 23.8118
44.4277 613 24.7588
44.5448 623 24.96
44.6619 564 23.7487
44.7791 571 23.8956
44.8963 649 25.4755
45.0136 628 25.0599
45.1308 606 24.6171
45.2481 575 23.9792
45.3654 595 24.3926
45.4827 638 25.2587
45.6001 624 24.98
45.7174 572 23.9165
45.8348 628 25.0599
45.9522 620 24.8998
46.0697 618 24.8596
46.1871 596 24.4131
46.3046 580 24.0832
46.422 528 22.9783
46.5395 534 23.1084
46.657 498 22.3159
46.7745 553 23.516
46.892 577 24.0208
47.0096 585 24.1868
47.1271 557 23.6008
47.2446 553 23.516
47.3622 582 24.1247
47.4797 559 23.6432
47.5973 572 23.9165
47.7149 526 22.9347
47.8324 502 22.4054
47.95 525 22.9129
48.0675 550 23.4521
48.1851 549 23.4307
48.3027 584 24.1661
48.4202 570 23.8747
48.5378 611 24.7184
48.6554 572 23.9165
48.7729 637 25.2389
48.8904 581 24.1039
49.008 605 24.5967
49.1255 574 23.9583
49.243 601 24.5153
49.3605 564 23.7487
49.478 571 23.8956
49.5955 521 22.8254
49.713 484 22
49.8304 504 22.4499
49.9479 504 22.4499
50.0653 493 22.2036
50.1827 527 22.9565
50.3001 514 22.6716
50.4175 501 22.383
50.5348 583 24.1454
50.6521 552 23.4947
50.7694 547 23.388
50.8867 544 23.3238
51.004 493 22.2036
51.1212 483 21.9773
51.2384 476 21.8174
51.3556 493 22.2036
51.4727 526 22.9347
51.5899 540 23.2379
51.707 541 23.2594
51.824 560 23.6643
51.9411 570 23.8747
52.0581 552 23.4947
52.175 558 23.622
52.2919 518 22.7596
52.4088 551 23.4734
52.5257 542 23.2809
52.6425 519 22.7816
52.7593 554 23.5372
52.876 563 23.7276
52.9927 513 22.6495
53.1094 523 22.8692
53.226 509 22.561
53.3426 501 22.383
53.4591 496 22.2711
53.5756 446 21.1187
53.692 406 20.1494
53.8084 404 20.0998
53.9248 418 20.445
54.0411 364 19.0788
54.1573 367 19.1572
54.2735 0 1
54.3896 0 1
54.5057 0 1
54.6217 0 1
54.7377 0 1
54.8537 0 1
54.9695 0 1
55.0853 0 1
55.2011 0 1
55.3168 0 1
55.4324 0 1
57.824 0 1
57.9396 0 1
58.0553 0 1
58.1711 0 1
58.2869 0 1
58.4028 0 1
58.5187 0 1
58.6347 0 1
58.7508 0 1
58.8669 0 1
58.983 600 24.4949
59.0992 818 28.6007
59.2155 918 30.2985
59.3318 1037 32.2025
59.4482 1300 36.0555
59.5646 1383 37.1887
59.681 1383 37.1887
59.7975 1347 36.7015
59.9141 1467 38.3014
60.0306 1417 37.6431
60.1473 1352 36.7696
60.2639 1375 37.081
60.3807 1468 38.3145
60.4974 1452 38.1051
60.6142 1431 37.8286
60.731 1433 37.855
60.8479 1404 37.47
60.9648 1401 37.4299
61.0818 1362 36.9053
61.1987 1421 37.6962
61.3158 1335 36.5377
61.4328 1260 35.4965
61.5499 1314 36.2491
61.667 1249 35.3412
61.7841 1162 34.0881
61.9013 1039 32.2335
62.0185 1017 31.8904
62.1357 1000 31.6228
62.253 966 31.0805
62.3702 952 30.8545
62.4875 807 28.4077
62.6049 846 29.0861
62.7222 868 29.4618
62.8396 835 28.8964
62.9569 906 30.0998
63.0743 860 29.3258
63.1918 829 28.7924
63.3092 821 28.6531
63.4267 761 27.5862
63.5441 726 26.9444
63.6616 694 26.3439
63.7791 653 25.5539
63.8966 669 25.865
64.0142 732 27.0555
64.1317 691 26.2869
64.2492 727 26.9629
64.3668 654 25.5734
64.4843 605 24.5967
64.6019 619 24.8797
64.7195 649 25.4755
64.837 715 26.7395
64.9546 665 25.7876
65.0722 675 25.9808
65.1898 660 25.6905
65.3074 642 25.3377
65.4249 622 24.9399
65.5425 650 25.4951
65.6601 587 24.2281
65.7777 555 23.5584
65.8952 577 24.0208
66.0128 600 24.4949
66.1304 628 25.0599
66.2479 652 25.5343
66.3655 663 25.7488
66.483 658 25.6515
66.6005 671 25.9037
66.718 652 25.5343
66.8355 659 25.671
66.953 650 25.4951
67.0705 603 24.5561
67.1879 615 24.7992
67.3054 604 24.5764
67.4228 659 25.671
67.5402 654 25.5734
67.6576 685 26.1725
67.7749 646 25.4165
67.8923 666 25.807
68.0096 635 25.1992
68.1269 583 24.1454
68.2442 617 24.8395
68.3614 622 24.9399
68.4787 635 25.1992
68.5958 640 25.2982
68.713 624 24.98
68.8302 692 26.3059
68.9473 614 24.779
69.0643 614 24.779
69.1814 600 24.4949
69.2984 587 24.2281
69.4154 541 23.2594
69.5323 576 24
69.6492 570 23.8747
69.7661 611 24.7184
69.8829 605 24.5967
69.9997 604 24.5764
70.1165 613 24.7588
70.2332 593 24.3516
70.3499 597 24.4336
70.4665 561 23.6854
70.5831 563 23.7276
70.6996 480 21.9089
70.8161 450 21.2132
70.9326 409 20.2237
71.049 384 19.5959
71.1653 356 18.868
71.2817 350 18.7083
71.3979 356 18.868
71.5141 312 17.6635
71.6303 289 17
71.7464 251 15.843
71.8624 0 1
71.9784 0 1
72.0944 0 1
72.2102 0 1
72.3261 0 1
72.4418 0 1
72.5575 0 1
72.6732 0 1
75.1054 0 1
75.2209 0 1
75.3365 0 1
75.4521 0 1
75.5678 0 1
75.6835 0 1
75.7993 0 1
75.9151 0 1
76.031 0 1
76.147 441 21
76.263 427 20.664
76.3791 488 22.0907
76.4952 495 22.2486
76.6113 545 23.3452
76.7276 501 22.383
76.8438 563 23.7276
76.9601 568 23.8328
77.0765 548 23.4094
77.1929 568 23.8328
77.3093 543 23.3024
77.4258 563 23.7276
77.5423 596 24.4131
77.6589 582 24.1247
77.7755 564 23.7487
77.8921 539 23.2164
78.0088 589 24.2693
78.1256 574 23.9583
78.2423 502 22.4054
78.3591 471 21.7025
78.4759 494 22.2261
78.5928 494 22.2261
78.7097 487 22.0681
78.8266 484 22
78.9436 549 23.4307
79.0606 503 22.4277
79.1776 468 21.6333
79.2946 579 24.0624
79.4117 606 24.6171
79.5288 574 23.9583
79.6459 532 23.0651
79.7631 579 24.0624
79.8802 584 24.1661
79.9974 549 23.4307
80.1147 544 23.3238
80.2319 587 24.2281
80.3491 564 23.7487
80.4664 580 24.0832
80.5837 570 23.8747
80.701 586 24.2074
80.8183 582 24.1247
80.9357 588 24.2487
81.053 558 23.622
81.1704 583 24.1454
81.2877 601 24.5153
81.4051 595 24.3926
81.5225 593 24.3516
81.6399 591 24.3105
81.7573 536 23.1517
81.8747 514 22.6716
81.9922 538 23.1948
82.1096 529 23
82.227 484 22
82.3444 535 23.1301
82.4619 536 23.1517
82.5793 499 22.3383
82.6967 519 22.7816
82.8142 575 23.9792
82.9316 614 24.779
83.049 572 23.9165
83.1664 593 24.3516
83.2838 581 24.1039
83.4012 587 24.2281
83.5186 630 25.0998
83.636 593 24.3516
83.7534 586 24.2074
83.8708 562 23.7065
83.9881 601 24.5153
84.1055 603 24.5561
84.2228 554 23.5372
84.3401 592 24.3311
84.4575 587 24.2281
84.5747 574 23.9583
84.692 586 24.2074
84.8093 574 23.9583
84.9265 581 24.1039
85.0437 593 24.3516
85.1609 547 23.388
85.2781 534 23.1084
85.3952 561 23.6854
85.5123 533 23.0868
85.6294 557 23.6008
85.7465 554 23.5372
85.8636 565 23.7697
85.9806 551 23.4734
86.0976 562 23.7065
86.2145 565 23.7697
86.3315 560 23.6643
86.4484 586 24.2074
86.5652 626 25.02
86.682 642 25.3377
86.7988 619 24.8797
86.9156 623 24.96
87.0323 609 24.6779
87.149 614 24.779
87.2657 557 23.6008
87.3823 552 23.4947
87.4988 527 22.9565
87.6154 574 23.9583
87.7318 571 23.8956
87.8483 534 23.1084
87.9647 491 22.1585
88.081 466 21.587
88.1973 414 20.347
88.3136 400 20
88.4298 359 18.9473
88.546 317 17.8045
88.6621 328 18.1108
88.7781 335 18.303
88.8942 0 1
89.0101 0 1
89.126 0 1
89.2419 0 1
89.3577 0 1
89.4734 0 1
89.5891 0 1
89.7047 0 1
89.8203 0 1
89.9358 0 1
92.3269 0 1
92.4424 0 1
92.558 0 1
92.6736 0 1
92.7893 0 1
92.905 0 1
93.0208 0 1
93.1366 0 1
93.2525 0 1
93.3685 0 1
93.4845 0 1
93.6005 520 22.8035
93.7167 548 23.4094
93.8328 560 23.6643
93.949 596 24.4131
94.0653 557 23.6008
94.1816 574 23.9583
94.2979 597 24.4336
94.4143 517 22.7376
94.5307 580 24.0832
94.6472 576 24
94.7637 620 24.8998
94.8803 589 24.2693
94.9969 592 24.3311
95.1135 599 24.4745
95.2302 622 24.9399
95.3469 592 24.3311
95.4637 602 24.5357
95.5805 619 24.8797
95.6973 642 25.3377
95.8142 632 25.1396
95.9311 618 24.8596
96.048 600 24.4949
96.1649 654 25.5734
96.2819 575 23.9792
96.3989 639 25.2784
96.516 643 25.3574
96.633 598 24.454
96.7501 619 24.8797
96.8673 620 24.8998
96.9844 667 25.8263
97.1016 638 25.2587
97.2188 640 25.2982
97.336 605 24.5967
97.4532 600 24.4949
97.5704 587 24.2281
97.6877 569 23.8537
97.805 607 24.6374
97.9223 608 24.6577
98.0396 530 23.0217
98.1569 571 23.8956
98.2743 573 23.9374
98.3916 584 24.1661
98.509 621 24.9199
98.6264 623 24.96
98.7438 559 23.6432
98.8612 604 24.5764
98.9786 554 23.5372
99.096 579 24.0624
99.2134 628 25.0599
99.3308 617 24.8395
99.4482 613 24.7588
99.5656 637 25.2389
99.6831 617 24.8395
99.8005 642 25.3377
99.9179 660 25.6905
100.035 662 25.7294
100.153 628 25.0599
100.27 671 25.9037
100.388 647 25.4362
100.505 670 25.8844
100.622 661 25.7099
100.74 580 24.0832
100.857 610 24.6982
100.975 590 24.2899
101.092 598 24.454
101.209 610 24.6982
101.327 547 23.388
101.444 552 23.4947
101.561 576 24
101.679 606 24.6171
101.796 569 23.8537
101.913 618 24.8596
102.03 596 24.4131
102.148 585 24.1868
102.265 651 25.5147
102.382 571 23.8956
102.499 637 25.2389
102.616 653 25.5539
102.733 612 24.7386
102.851 645 25.3969
102.968 649 25.4755
103.085 699 26.4386
103.202 658 25.6515
103.319 628 25.0599
103.436 655 25.593
103.552 632 25.1396
103.669 683 26.1343
103.786 691 26.2869
103.903 727 26.9629
104.02 680 26.0768
104.137 676 26
104.253 628 25.0599
104.37 630 25.0998
104.487 634 25.1794
104.603 592 24.3311
104.72 554 23.5372
104.836 580 24.0832
104.953 584 24.1661
105.069 555 23.5584
105.186 523 22.8692
105.302 501 22.383
105.418 495 22.2486
105.535 476 21.8174
105.651 387 19.6723
105.767 409 20.2237
105.883 342 18.4932
105.999 304 17.4356
106.115 0 1
106.231 0 1
106.347 0 1
106.463 0 1
106.579 0 1
106.694 0 1
106.81 0 1
106.926 0 1
107.041 0 1
107.157 0 1
109.576 0 1
109.692 0 1
109.807 0 1
109.923 0 1
110.039 0 1
110.155 0 1
110.27 0 1
110.386 0 1
110.502 0 1
110.618 337 18.3576
110.735 430 20.7364
110.851 474 21.7715
110.967 472 21.7256
111.083 507 22.5167
111.199 518 22.7596
111.316 536 23.1517
111.432 611 24.7184
111.549 622 24.9399
111.665 584 24.1661
111.782 568 23.8328
111.898 608 24.6577
112.015 578 24.0416
112.132 549 23.4307
112.248 566 23.7908
112.365 575 23.9792
112.482 519 22.7816
112.599 603 24.5561
112.716 606 24.6171
112.832 538 23.1948
112.949 552 23.4947
113.066 506 22.4944
113.183 504 22.4499
113.3 524 22.891
113.417 535 23.1301
113.534 483 21.9773
113.652 499 22.3383
113.769 463 21.5174
113.886 517 22.7376
114.003 493 22.2036
114.12 519 22.7816
114.238 551 23.4734
114.355 500 22.3607
114.472 534 23.1084
114.589 518 22.7596
114.707 542 23.2809
114.824 524 22.891
114.942 516 22.7156
115.059 576 24
115.176 565 23.7697
115.294 577 24.0208
115.411 525 22.9129
115.529 546 23.3666
115.646 490 22.1359
115.764 546 23.3666
115.881 495 22.2486
115.999 526 22.9347
116.116 530 23.0217
116.234 527 22.9565
116.351 518 22.7596
116.469 471 21.7025
116.586 485 22.0227
116.704 482 21.9545
116.821 461 21.4709
116.939 470 21.6795
117.056 439 20.9523
117.174 442 21.0238
117.291 412 20.2978
117.409 452 21.2603
117.526 453 21.2838
117.644 441 21
117.761 515 22.6936
117.879 524 22.891
117.996 506 22.4944
118.114 479 21.8861
118.231 469 21.6564
118.349 493 22.2036
118.466 460 21.4476
118.584 512 22.6274
118.701 493 22.2036
118.819 490 22.1359
118.936 487 22.0681
119.053 478 21.8632
119.171 470 21.6795
119.288 517 22.7376
119.405 479 21.8861
119.523 462 21.4942
119.64 515 22.6936
119.757 490 22.1359
119.875 429 20.7123
119.992 431 20.7605
120.109 450 21.2132
120.226 459 21.4243
120.343 467 21.6102
120.46 437 20.9045
120.578 468 21.6333
120.695 463 21.5174
120.812 379 19.4679
120.929 372 19.2873
121.046 396 19.8997
121.163 397 19.9249
121.279 422 20.5426
121.396 424 20.5913
121.513 435 20.8567
121.63 451 21.2368
121.747 430 20.7364
121.863 388 19.6977
121.98 425 20.6155
122.097 412 20.2978
122.213 364 19.0788
122.33 394 19.8494
122.446 363 19.0526
122.563 341 18.4662
122.679 306 17.4929
122.795 295 17.1756
122.912 288 16.9706
123.028 294 17.1464
123.144 243 15.5885
123.26 240 15.4919
123.377 0 1
123.493 0 1
123.609 0 1
123.725 0 1
123.84 0 1
123.956 0 1
124.072 0 1
124.188 0 1
124.303 0 1
124.419 0 1
126.852 0 1
126.968 0 1
127.083 0 1
127.199 0 1
127.315 0 1
127.431 0 1
127.547 0 1
127.663 0 1
127.779 0 1
127.895 0 1
128.011 0 1
128.127 0 1
128.243 0 1
128.359 517 22.7376
128.476 568 23.8328
128.592 495 22.2486
128.708 471 21.7025
128.825 553 23.516
128.941 514 22.6716
129.058 526 22.9347
129.174 537 23.1733
129.291 536 23.1517
129.408 540 23.2379
129.524 556 23.5797
129.641 495 22.2486
129.758 486 22.0454
129.875 519 22.7816
129.992 479 21.8861
130.108 485 22.0227
130.225 499 22.3383
130.342 501 22.383
130.459 564 23.7487
130.576 609 24.6779
130.693 575 23.9792
130.81 620 24.8998
130.928 663 25.7488
131.045 607 24.6374
131.162 683 26.1343
131.279 641 25.318
131.396 701 26.4764
131.513 720 26.8328
131.631 698 26.4197
131.748 649 25.4755
131.865 721 26.8514
131.983 826 28.7402
132.1 887 29.7825
132.217 912 30.1993
132.335 938 30.6268
132.452 941 30.6757
132.57 1034 32.1559
132.687 1055 32.4808
132.804 1068 32.6803
132.922 1136 33.7046
133.039 1154 33.9706
133.157 1216 34.8712
133.274 1114 33.3766
133.392 1131 33.6303
133.509 1172 34.2345
133.627 1167 34.1614
133.744 1008 31.749
133.862 1112 33.3467
133.979 1094 33.0757
134.097 1171 34.2199
134.214 1124 33.5261
134.332 1106 33.2566
134.449 1109 33.3017
134.567 1083 32.909
134.684 1103 33.2114
134.802 1073 32.7567
134.919 1128 33.5857
135.037 1099 33.1512
135.154 972 31.1769
135.272 939 30.6431
135.389 974 31.209
135.507 1018 31.9061
135.624 1029 32.078
135.742 1099 33.1512
135.859 1122 33.4963
135.977 1076 32.8024
136.094 1015 31.8591
136.211 1063 32.6037
136.329 1152 33.9411
136.446 1098 33.1361
136.564 1078 32.8329
136.681 1057 32.5115
136.798 1075 32.7872
136.915 992 31.496
137.033 956 30.9192
137.15 952 30.8545
137.267 951 30.8383
137.384 965 31.0644
137.502 982 31.3369
137.619 928 30.4631
137.736 1028 32.0624
137.853 1010 31.7805
137.97 983 31.3528
138.087 1047 32.3574
138.204 1048 32.3728
138.321 952 30.8545
138.438 996 31.5595
138.555 1075 32.7872
138.672 1023 31.9844
138.788 983 31.3528
138.905 879 29.6479
139.022 919 30.315
139.139 871 29.5127
139.255 951 30.8383
139.372 945 30.7409
139.488 873 29.5466
139.605 863 29.3769
139.721 814 28.5307
139.838 751 27.4044
139.954 700 26.4575
140.071 705 26.5518
140.187 593 24.3516
140.303 583 24.1454
140.419 605 24.5967
140.535 565 23.7697
140.652 532 23.0651
140.768 0 1
140.884 0 1
141 0 1
141.115 0 1
141.231 0 1
141.347 0 1
141.463 0 1
141.578 0 1
141.694 0 1
144.104 0 1
144.219 0 1
144.335 0 1
144.45 0 1
144.566 0 1
144.682 0 1
144.798 0 1
144.914 0 1
145.03 0 1
145.146 1028 32.0624
145.262 1041 32.2645
145.378 1054 32.4654
145.494 1126 33.5559
145.61 1134 33.6749
145.726 1072 32.7414
145.842 1102 33.1964
145.959 1106 33.2566
146.075 1124 33.5261
146.192 1148 33.8821
146.308 1112 33.3467
146.425 1204 34.6987
146.541 1268 35.609
146.658 1332 36.4966
146.774 1237 35.171
146.891 1401 37.4299
147.008 1339 36.5923
147.125 1283 35.819
147.241 1321 36.3456
147.358 1376 37.0945
147.475 1325 36.4005
147.592 1188 34.4674
147.709 1275 35.7071
147.826 1243 35.2562
147.943 1328 36.4417
148.06 1399 37.4032
148.177 1429 37.8021
148.294 1476 38.4187
148.411 1399 37.4032
148.528 1421 37.6962
148.645 1551 39.3827
148.762 1407 37.51
148.88 1473 38.3797
148.997 1484 38.5227
149.114 1433 37.855
149.231 1469 38.3275
149.349 1537 39.2046
149.466 1491 38.6135
149.583 1527 39.0768
149.701 1448 38.0526
149.818 1405 37.4833
149.935 1462 38.2361
150.053 1425 37.7492
150.17 1500 38.7298
150.287 1443 37.9868
150.405 1517 38.9487
150.522 1530 39.1152
150.64 1560 39.4968
150.757 1329 36.4555
150.875 1383 37.1887
150.992 1425 37.7492
151.11 1387 37.2424
151.227 1276 35.7211
151.344 1222 34.9571
151.462 1269 35.623
151.579 1239 35.1994
151.697 1366 36.9594
151.814 1400 37.4166
151.932 1416 37.6298
152.049 1456 38.1576
152.167 1497 38.6911
152.284 1466 38.2884
152.402 1473 38.3797
152.519 1402 37.4433
152.636 1422 37.7094
152.754 1414 37.6032
152.871 1383 37.1887
152.989 1365 36.9459
153.106 1449 38.0657
153.223 1439 37.9342
153.341 1343 36.647
153.458 1332 36.4966
153.575 1309 36.1801
153.693 1275 35.7071
153.81 1248 35.327
153.927 1290 35.9166
154.044 1365 36.9459
154.162 1344 36.6606
154.279 1179 34.3366
154.396 1283 35.819
154.513 1210 34.7851
154.63 1190 34.4964
154.747 1148 33.8821
154.864 1097 33.121
154.981 1066 32.6497
155.098 1088 32.9848
155.215 1132 33.6452
155.332 1119 33.4515
155.449 1184 34.4093
155.566 1226 35.0143
155.683 1161 34.0735
155.8 1190 34.4964
155.917 1132 33.6452
156.033 1141 33.7787
156.15 0 1
156.267 0 1
156.383 0 1
156.5 0 1
156.617 0 1
156.733 0 1
156.85 0 1
156.966 0 1
157.082 0 1
157.199 0 1
157.315 0 1
157.431 0 1
157.547 0 1
157.664 0 1
157.78 0 1
157.896 0 1
158.012 0 1
158.128 0 1
158.244 0 1
158.359 0 1
158.475 0 1
158.591 0 1
158.706 0 1
