
6.15755 0 1
6.2731 0 1
6.3887 0 1
6.50437 0 1
6.62009 0 1
6.73587 0 1
6.8517 0 1
6.96759 0 1
7.08353 0 1
7.19952 0 1
7.31557 0 1
7.43166 0 1
7.54781 0 1
7.664 0 1
7.78024 0 1
7.89653 0 1
8.01286 0 1
8.12924 0 1
8.24567 0 1
8.36213 0 1
8.47864 0 1
8.59519 0 1
8.71178 0 1
8.82841 0 1
8.94508 0 1
9.06179 0 1
9.17853 0 1
9.29531 0 1
9.41212 0 1
9.52897 0 1
9.64584 0 1
9.76276 0 1
9.8797 0 1
9.99667 0 1
10.1137 0 1
10.2307 0 1
10.3478 0 1
10.4648 0 1
10.5819 0 1
10.6991 0 1
10.8162 0 1
10.9334 0 1
11.0506 0 1
11.1678 0 1
11.285 0 1
11.4023 0 1
11.5196 0 1
11.6369 0 1
11.7542 0 1
11.8715 0 1
11.9888 0 1
12.1062 0 1
12.2235 0 1
12.3409 0 1
12.4582 0 1
12.5756 0 1
12.693 0 1
12.8104 0 1
12.9278 0 1
13.0452 0 1
13.1626 0 1
13.28 0 1
13.3974 0 1
13.5149 0 1
13.6323 0 1
13.7497 0 1
13.8671 0 1
13.9845 0 1
14.1019 0 1
14.2193 0 1
14.3367 0 1
14.4541 0 1
14.5714 0 1
14.6888 0 1
14.8062 0 1
14.9235 0 1
15.0408 902 30.0333
15.1581 880 29.6648
15.2755 940 30.6594
15.3927 991 31.4802
15.51 914 30.2324
15.6273 961 31
15.7445 910 30.1662
15.8617 877 29.6142
15.9789 832 28.8444
16.0961 844 29.0517
16.2132 890 29.8329
16.3304 871 29.5127
16.4475 867 29.4449
16.5646 824 28.7054
16.6816 785 28.0179
16.7986 744 27.2764
16.9156 710 26.6458
17.0326 805 28.3725
17.1496 709 26.6271
17.2665 760 27.5681
17.3833 738 27.1662
17.5002 717 26.7769
17.617 751 27.4044
17.7338 681 26.096
17.8505 690 26.2679
17.9672 779 27.9106
18.0839 729 27
18.2005 755 27.4773
18.3171 680 26.0768
18.4337 685 26.1725
18.5502 743 27.258
18.6666 755 27.4773
18.7831 776 27.8568
18.8994 786 28.0357
19.0158 713 26.7021
19.1321 686 26.1916
19.2483 614 24.779
19.3645 646 25.4165
19.4806 622 24.9399
19.5967 603 24.5561
19.7128 568 23.8328
19.8288 567 23.8118
19.9447 477 21.8403
20.0606 0 1
20.1764 0 1
20.2922 0 1
20.4079 0 1
20.5236 0 1
20.6392 0 1
20.7548 0 1
20.8702 0 1
23.3078 0 1
23.4233 0 1
23.539 0 1
23.6547 0 1
23.7704 0 1
23.8862 0 1
24.0021 0 1
24.118 0 1
24.234 0 1
24.35 0 1
24.4661 363 19.0526
24.5822 355 18.8414
24.6984 436 20.8806
24.8146 531 23.0434
24.9309 576 24
25.0472 667 25.8263
25.1636 662 25.7294
25.28 763 27.6225
25.3965 798 28.2489
25.513 811 28.4781
25.6296 868 29.4618
25.7462 837 28.931
25.8628 850 29.1548
25.9795 773 27.8029
26.0962 746 27.313
26.213 724 26.9072
26.3298 729 27
26.4466 721 26.8514
26.5635 724 26.9072
26.6804 704 26.533
26.7973 678 26.0384
26.9143 749 27.3679
27.0313 623 24.96
27.1483 616 24.8193
27.2653 680 26.0768
27.3824 651 25.5147
27.4996 742 27.2397
27.6167 714 26.7208
27.7339 679 26.0576
27.8511 709 26.6271
27.9683 694 26.3439
28.0855 696 26.3818
28.2028 759 27.55
28.3201 802 28.3196
28.4374 756 27.4955
28.5547 729 27
28.6721 715 26.7395
28.7894 731 27.037
28.9068 701 26.4764
29.0242 809 28.4429
29.1416 736 27.1293
29.259 686 26.1916
29.3764 706 26.5707
29.4939 692 26.3059
29.6113 656 25.6125
29.7288 614 24.779
29.8463 618 24.8596
29.9638 636 25.219
30.0812 634 25.1794
30.1987 659 25.671
30.3162 666 25.807
30.4337 632 25.1396
30.5512 624 24.98
30.6687 583 24.1454
30.7862 646 25.4165
30.9037 705 26.5518
31.0212 772 27.7849
31.1387 715 26.7395
31.2562 698 26.4197
31.3737 742 27.2397
31.4912 761 27.5862
31.6087 714 26.7208
31.7262 718 26.7955
31.8436 737 27.1477
31.9611 693 26.3249
32.0785 672 25.923
32.1959 708 26.6083
32.3134 659 25.671
32.4308 685 26.1725
32.5482 663 25.7488
32.6655 650 25.4951
32.7829 639 25.2784
32.9002 606 24.6171
33.0176 585 24.1868
33.1349 591 24.3105
33.2522 586 24.2074
33.3694 558 23.622
33.4867 558 23.622
33.6039 615 24.7992
33.7211 590 24.2899
33.8383 645 25.3969
33.9554 614 24.779
34.0725 591 24.3105
34.1896 601 24.5153
34.3067 585 24.1868
34.4237 619 24.8797
34.5407 617 24.8395
34.6577 669 25.865
34.7746 645 25.3969
34.8915 618 24.8596
35.0084 572 23.9165
35.1252 598 24.454
35.242 607 24.6374
35.3587 602 24.5357
35.4755 645 25.3969
35.5921 679 26.0576
35.7088 654 25.5734
35.8254 640 25.2982
35.9419 599 24.4745
36.0584 610 24.6982
36.1749 584 24.1661
36.2913 597 24.4336
36.4077 539 23.2164
36.524 517 22.7376
36.6403 505 22.4722
36.7565 466 21.587
36.8727 432 20.7846
36.9889 396 19.8997
37.1049 318 17.8326
37.221 0 1
37.3369 0 1
37.4529 0 1
37.5687 0 1
37.6845 0 1
37.8003 0 1
37.916 0 1
38.0316 0 1
38.1472 0 1
40.5851 0 1
40.7008 0 1
40.8164 0 1
40.9322 0 1
41.048 0 1
41.1639 0 1
41.2798 0 1
41.3958 0 1
41.5118 0 1
41.6279 0 1
41.744 275 16.5831
41.8602 302 17.3781
41.9765 393 19.8242
42.0928 389 19.7231
42.2091 396 19.8997
42.3255 444 21.0713
42.4419 473 21.7486
42.5584 482 21.9545
42.675 485 22.0227
42.7915 492 22.1811
42.9081 511 22.6053
43.0248 485 22.0227
43.1415 494 22.2261
43.2582 480 21.9089
43.375 457 21.3776
43.4918 493 22.2036
43.6087 468 21.6333
43.7256 445 21.095
43.8425 483 21.9773
43.9595 469 21.6564
44.0765 446 21.1187
44.1935 468 21.6333
44.3106 493 22.2036
44.4277 478 21.8632
44.5448 543 23.3024
44.6619 455 21.3307
44.7791 500 22.3607
44.8963 469 21.6564
45.0136 529 23
45.1308 501 22.383
45.2481 500 22.3607
45.3654 495 22.2486
45.4827 483 21.9773
45.6001 492 22.1811
45.7174 470 21.6795
45.8348 483 21.9773
45.9522 436 20.8806
46.0697 448 21.166
46.1871 473 21.7486
46.3046 478 21.8632
46.422 538 23.1948
46.5395 437 20.9045
46.657 476 21.8174
46.7745 472 21.7256
46.892 475 21.7945
47.0096 479 21.8861
47.1271 514 22.6716
47.2446 457 21.3776
47.3622 441 21
47.4797 418 20.445
47.5973 469 21.6564
47.7149 491 22.1585
47.8324 468 21.6333
47.95 495 22.2486
48.0675 499 22.3383
48.1851 478 21.8632
48.3027 519 22.7816
48.4202 499 22.3383
48.5378 461 21.4709
48.6554 495 22.2486
48.7729 449 21.1896
48.8904 429 20.7123
49.008 485 22.0227
49.1255 421 20.5183
49.243 447 21.1424
49.3605 418 20.445
49.478 433 20.8087
49.5955 379 19.4679
49.713 407 20.1742
49.8304 465 21.5639
49.9479 440 20.9762
50.0653 468 21.6333
50.1827 468 21.6333
50.3001 421 20.5183
50.4175 425 20.6155
50.5348 431 20.7605
50.6521 454 21.3073
50.7694 441 21
50.8867 432 20.7846
51.004 432 20.7846
51.1212 400 20
51.2384 470 21.6795
51.3556 489 22.1133
51.4727 499 22.3383
51.5899 485 22.0227
51.707 494 22.2261
51.824 466 21.587
51.9411 476 21.8174
52.0581 492 22.1811
52.175 466 21.587
52.2919 440 20.9762
52.4088 440 20.9762
52.5257 438 20.9284
52.6425 427 20.664
52.7593 407 20.1742
52.876 409 20.2237
52.9927 398 19.9499
53.1094 405 20.1246
53.226 409 20.2237
53.3426 408 20.199
53.4591 388 19.6977
53.5756 404 20.0998
53.692 381 19.5192
53.8084 390 19.7484
53.9248 349 18.6815
54.0411 303 17.4069
54.1573 298 17.2627
54.2735 0 1
54.3896 0 1
54.5057 0 1
54.6217 0 1
54.7377 0 1
54.8537 0 1
54.9695 0 1
55.0853 0 1
55.2011 0 1
55.3168 0 1
55.4324 0 1
57.824 0 1
57.9396 0 1
58.0553 0 1
58.1711 0 1
58.2869 0 1
58.4028 0 1
58.5187 0 1
58.6347 0 1
58.7508 0 1
58.8669 0 1
58.983 10298 101.479
59.0992 11843 108.826
59.2155 13150 114.673
59.3318 14685 121.182
59.4482 15412 124.145
59.5646 16554 128.662
59.681 17788 133.372
59.7975 19563 139.868
59.9141 20722 143.951
60.0306 22031 148.428
60.1473 22398 149.66
60.2639 22602 150.34
60.3807 23025 151.74
60.4974 22698 150.659
60.6142 22846 151.149
60.731 22355 149.516
60.8479 22165 148.879
60.9648 22256 149.184
61.0818 21510 146.663
61.1987 19477 139.56
61.3158 15965 126.353
61.4328 12293 110.874
61.5499 9218 96.0104
61.667 7914 88.9607
61.7841 8797 93.7923
61.9013 11803 108.642
62.0185 16089 126.842
62.1357 19827 140.808
62.253 22222 149.07
62.3702 23084 151.934
62.4875 23390 152.938
62.6049 23377 152.895
62.7222 23279 152.575
62.8396 22818 151.056
62.9569 22160 148.862
63.0743 20752 144.056
63.1918 19760 140.57
63.3092 18347 135.451
63.4267 17349 131.716
63.5441 16879 129.919
63.6616 16596 128.825
63.7791 15784 125.634
63.8966 14055 118.554
64.0142 11870 108.95
64.1317 8784 93.723
64.2492 6292 79.3221
64.3668 3964 62.9603
64.4843 2665 51.6236
64.6019 1782 42.2137
64.7195 1335 36.5377
64.837 986 31.4006
64.9546 824 28.7054
65.0722 647 25.4362
65.1898 572 23.9165
65.3074 559 23.6432
65.4249 603 24.5561
65.5425 597 24.4336
65.6601 659 25.671
65.7777 697 26.4008
65.8952 684 26.1534
66.0128 718 26.7955
66.1304 687 26.2107
66.2479 702 26.4953
66.3655 639 25.2784
66.483 655 25.593
66.6005 638 25.2587
66.718 634 25.1794
66.8355 645 25.3969
66.953 619 24.8797
67.0705 608 24.6577
67.1879 617 24.8395
67.3054 681 26.096
67.4228 698 26.4197
67.5402 634 25.1794
67.6576 602 24.5357
67.7749 645 25.3969
67.8923 553 23.516
68.0096 587 24.2281
68.1269 569 23.8537
68.2442 550 23.4521
68.3614 570 23.8747
68.4787 537 23.1733
68.5958 506 22.4944
68.713 558 23.622
68.8302 517 22.7376
68.9473 466 21.587
69.0643 463 21.5174
69.1814 510 22.5832
69.2984 548 23.4094
69.4154 533 23.0868
69.5323 560 23.6643
69.6492 554 23.5372
69.7661 556 23.5797
69.8829 559 23.6432
69.9997 542 23.2809
70.1165 594 24.3721
70.2332 537 23.1733
70.3499 510 22.5832
70.4665 470 21.6795
70.5831 445 21.095
70.6996 424 20.5913
70.8161 372 19.2873
70.9326 348 18.6548
71.049 322 17.9444
71.1653 332 18.2209
71.2817 346 18.6011
71.3979 295 17.1756
71.5141 277 16.6433
71.6303 236 15.3623
71.7464 204 14.2829
71.8624 0 1
71.9784 0 1
72.0944 0 1
72.2102 0 1
72.3261 0 1
72.4418 0 1
72.5575 0 1
72.6732 0 1
75.1054 0 1
75.2209 0 1
75.3365 0 1
75.4521 0 1
75.5678 0 1
75.6835 0 1
75.7993 0 1
75.9151 0 1
76.031 0 1
76.147 334 18.2757
76.263 378 19.4422
76.3791 395 19.8746
76.4952 440 20.9762
76.6113 476 21.8174
76.7276 475 21.7945
76.8438 440 20.9762
76.9601 464 21.5407
77.0765 438 20.9284
77.1929 446 21.1187
77.3093 463 21.5174
77.4258 468 21.6333
77.5423 485 22.0227
77.6589 425 20.6155
77.7755 394 19.8494
77.8921 442 21.0238
78.0088 432 20.7846
78.1256 377 19.4165
78.2423 400 20
78.3591 436 20.8806
78.4759 500 22.3607
78.5928 464 21.5407
78.7097 492 22.1811
78.8266 418 20.445
78.9436 434 20.8327
79.0606 438 20.9284
79.1776 438 20.9284
79.2946 430 20.7364
79.4117 445 21.095
79.5288 438 20.9284
79.6459 448 21.166
79.7631 452 21.2603
79.8802 465 21.5639
79.9974 447 21.1424
80.1147 474 21.7715
80.2319 454 21.3073
80.3491 527 22.9565
80.4664 501 22.383
80.5837 541 23.2594
80.701 454 21.3073
80.8183 447 21.1424
80.9357 461 21.4709
81.053 427 20.664
81.1704 472 21.7256
81.2877 442 21.0238
81.4051 474 21.7715
81.5225 441 21
81.6399 396 19.8997
81.7573 400 20
81.8747 383 19.5704
81.9922 391 19.7737
82.1096 433 20.8087
82.227 449 21.1896
82.3444 469 21.6564
82.4619 467 21.6102
82.5793 473 21.7486
82.6967 476 21.8174
82.8142 458 21.4009
82.9316 483 21.9773
83.049 486 22.0454
83.1664 450 21.2132
83.2838 482 21.9545
83.4012 426 20.6398
83.5186 494 22.2261
83.636 468 21.6333
83.7534 496 22.2711
83.8708 474 21.7715
83.9881 508 22.5389
84.1055 503 22.4277
84.2228 503 22.4277
84.3401 485 22.0227
84.4575 446 21.1187
84.5747 500 22.3607
84.692 521 22.8254
84.8093 452 21.2603
84.9265 467 21.6102
85.0437 449 21.1896
85.1609 458 21.4009
85.2781 434 20.8327
85.3952 408 20.199
85.5123 438 20.9284
85.6294 453 21.2838
85.7465 433 20.8087
85.8636 454 21.3073
85.9806 456 21.3542
86.0976 472 21.7256
86.2145 448 21.166
86.3315 477 21.8403
86.4484 477 21.8403
86.5652 492 22.1811
86.682 511 22.6053
86.7988 512 22.6274
86.9156 458 21.4009
87.0323 464 21.5407
87.149 479 21.8861
87.2657 478 21.8632
87.3823 491 22.1585
87.4988 442 21.0238
87.6154 429 20.7123
87.7318 437 20.9045
87.8483 406 20.1494
87.9647 370 19.2354
88.081 387 19.6723
88.1973 385 19.6214
88.3136 306 17.4929
88.4298 299 17.2916
88.546 281 16.7631
88.6621 280 16.7332
88.7781 237 15.3948
88.8942 0 1
89.0101 0 1
89.126 0 1
89.2419 0 1
89.3577 0 1
89.4734 0 1
89.5891 0 1
89.7047 0 1
89.8203 0 1
89.9358 0 1
92.3269 0 1
92.4424 0 1
92.558 0 1
92.6736 0 1
92.7893 0 1
92.905 0 1
93.0208 0 1
93.1366 0 1
93.2525 0 1
93.3685 0 1
93.4845 0 1
93.6005 406 20.1494
93.7167 415 20.3715
93.8328 389 19.7231
93.949 438 20.9284
94.0653 475 21.7945
94.1816 492 22.1811
94.2979 470 21.6795
94.4143 461 21.4709
94.5307 483 21.9773
94.6472 418 20.445
94.7637 431 20.7605
94.8803 465 21.5639
94.9969 399 19.975
95.1135 417 20.4206
95.2302 477 21.8403
95.3469 475 21.7945
95.4637 474 21.7715
95.5805 485 22.0227
95.6973 530 23.0217
95.8142 485 22.0227
95.9311 491 22.1585
96.048 494 22.2261
96.1649 510 22.5832
96.2819 475 21.7945
96.3989 441 21
96.516 454 21.3073
96.633 461 21.4709
96.7501 478 21.8632
96.8673 500 22.3607
96.9844 509 22.561
97.1016 508 22.5389
97.2188 470 21.6795
97.336 553 23.516
97.4532 522 22.8473
97.5704 482 21.9545
97.6877 497 22.2935
97.805 476 21.8174
97.9223 478 21.8632
98.0396 480 21.9089
98.1569 431 20.7605
98.2743 446 21.1187
98.3916 448 21.166
98.509 439 20.9523
98.6264 503 22.4277
98.7438 444 21.0713
98.8612 473 21.7486
98.9786 507 22.5167
99.096 541 23.2594
99.2134 548 23.4094
99.3308 492 22.1811
99.4482 548 23.4094
99.5656 492 22.1811
99.6831 512 22.6274
99.8005 528 22.9783
99.9179 518 22.7596
100.035 516 22.7156
100.153 528 22.9783
100.27 544 23.3238
100.388 536 23.1517
100.505 539 23.2164
100.622 515 22.6936
100.74 463 21.5174
100.857 488 22.0907
100.975 466 21.587
101.092 500 22.3607
101.209 496 22.2711
101.327 514 22.6716
101.444 487 22.0681
101.561 522 22.8473
101.679 485 22.0227
101.796 491 22.1585
101.913 455 21.3307
102.03 446 21.1187
102.148 502 22.4054
102.265 512 22.6274
102.382 480 21.9089
102.499 526 22.9347
102.616 524 22.891
102.733 568 23.8328
102.851 536 23.1517
102.968 556 23.5797
103.085 540 23.2379
103.202 573 23.9374
103.319 572 23.9165
103.436 520 22.8035
103.552 527 22.9565
103.669 513 22.6495
103.786 525 22.9129
103.903 541 23.2594
104.02 505 22.4722
104.137 586 24.2074
104.253 600 24.4949
104.37 514 22.6716
104.487 546 23.3666
104.603 518 22.7596
104.72 549 23.4307
104.836 495 22.2486
104.953 530 23.0217
105.069 481 21.9317
105.186 450 21.2132
105.302 448 21.166
105.418 425 20.6155
105.535 373 19.3132
105.651 358 18.9209
105.767 320 17.8885
105.883 301 17.3494
105.999 257 16.0312
106.115 0 1
106.231 0 1
106.347 0 1
106.463 0 1
106.579 0 1
106.694 0 1
106.81 0 1
106.926 0 1
107.041 0 1
107.157 0 1
109.576 0 1
109.692 0 1
109.807 0 1
109.923 0 1
110.039 0 1
110.155 0 1
110.27 0 1
110.386 0 1
110.502 0 1
110.618 250 15.8114
110.735 271 16.4621
110.851 338 18.3848
110.967 320 17.8885
111.083 394 19.8494
111.199 405 20.1246
111.316 453 21.2838
111.432 476 21.8174
111.549 463 21.5174
111.665 492 22.1811
111.782 482 21.9545
111.898 511 22.6053
112.015 468 21.6333
112.132 470 21.6795
112.248 441 21
112.365 495 22.2486
112.482 479 21.8861
112.599 478 21.8632
112.716 429 20.7123
112.832 505 22.4722
112.949 451 21.2368
113.066 436 20.8806
113.183 474 21.7715
113.3 456 21.3542
113.417 416 20.3961
113.534 401 20.025
113.652 455 21.3307
113.769 427 20.664
113.886 444 21.0713
114.003 424 20.5913
114.12 435 20.8567
114.238 415 20.3715
114.355 393 19.8242
114.472 412 20.2978
114.589 387 19.6723
114.707 440 20.9762
114.824 469 21.6564
114.942 477 21.8403
115.059 441 21
115.176 461 21.4709
115.294 452 21.2603
115.411 446 21.1187
115.529 376 19.3907
115.646 443 21.0476
115.764 421 20.5183
115.881 425 20.6155
115.999 404 20.0998
116.116 395 19.8746
116.234 401 20.025
116.351 429 20.7123
116.469 374 19.3391
116.586 403 20.0749
116.704 396 19.8997
116.821 412 20.2978
116.939 404 20.0998
117.056 416 20.3961
117.174 450 21.2132
117.291 420 20.4939
117.409 467 21.6102
117.526 433 20.8087
117.644 458 21.4009
117.761 420 20.4939
117.879 375 19.3649
117.996 341 18.4662
118.114 369 19.2094
118.231 362 19.0263
118.349 380 19.4936
118.466 413 20.3224
118.584 444 21.0713
118.701 420 20.4939
118.819 458 21.4009
118.936 417 20.4206
119.053 429 20.7123
119.171 415 20.3715
119.288 395 19.8746
119.405 391 19.7737
119.523 400 20
119.64 392 19.799
119.757 376 19.3907
119.875 403 20.0749
119.992 394 19.8494
120.109 393 19.8242
120.226 363 19.0526
120.343 384 19.5959
120.46 374 19.3391
120.578 419 20.4695
120.695 386 19.6469
120.812 387 19.6723
120.929 443 21.0476
121.046 389 19.7231
121.163 446 21.1187
121.279 427 20.664
121.396 370 19.2354
121.513 367 19.1572
121.63 329 18.1384
121.747 299 17.2916
121.863 317 17.8045
121.98 340 18.4391
122.097 302 17.3781
122.213 351 18.735
122.33 318 17.8326
122.446 330 18.1659
122.563 285 16.8819
122.679 273 16.5227
122.795 284 16.8523
122.912 240 15.4919
123.028 239 15.4596
123.144 225 15
123.26 217 14.7309
123.377 0 1
123.493 0 1
123.609 0 1
123.725 0 1
123.84 0 1
123.956 0 1
124.072 0 1
124.188 0 1
124.303 0 1
124.419 0 1
126.852 0 1
126.968 0 1
127.083 0 1
127.199 0 1
127.315 0 1
127.431 0 1
127.547 0 1
127.663 0 1
127.779 0 1
127.895 0 1
128.011 0 1
128.127 0 1
128.243 0 1
128.359 473 21.7486
128.476 441 21
128.592 458 21.4009
128.708 528 22.9783
128.825 517 22.7376
128.941 545 23.3452
129.058 576 24
129.174 638 25.2587
129.291 637 25.2389
129.408 701 26.4764
129.524 724 26.9072
129.641 842 29.0172
129.758 1015 31.8591
129.875 1046 32.3419
129.992 1259 35.4824
130.108 1289 35.9026
130.225 1315 36.2629
130.342 1314 36.2491
130.459 1305 36.1248
130.576 1275 35.7071
130.693 1422 37.7094
130.81 1825 42.72
130.928 2418 49.1732
131.045 3023 54.9818
131.162 3754 61.2699
131.279 4722 68.7168
131.396 5251 72.4638
131.513 5889 76.7398
131.631 6853 82.7828
131.748 7088 84.1903
131.865 7310 85.4985
131.983 7462 86.3829
132.1 7555 86.9195
132.217 7543 86.8504
132.335 7607 87.2181
132.452 7592 87.1321
132.57 7321 85.5628
132.687 7156 84.5931
132.804 7266 85.2408
132.922 6964 83.4506
133.039 6917 83.1685
133.157 6687 81.7741
133.274 6418 80.1124
133.392 6068 77.8974
133.509 5918 76.9285
133.627 5535 74.3976
133.744 5254 72.4845
133.862 4803 69.3037
133.979 4517 67.2086
134.097 3875 62.2495
134.214 3407 58.3695
134.332 3090 55.5878
134.449 3116 55.8211
134.567 3365 58.0086
134.684 3170 56.3028
134.802 2955 54.3599
134.919 2872 53.591
135.037 2827 53.1695
135.154 2671 51.6817
135.272 2508 50.0799
135.389 2355 48.5283
135.507 2285 47.8017
135.624 2200 46.9042
135.742 2052 45.299
135.859 2062 45.4093
135.977 2054 45.3211
136.094 1999 44.7102
136.211 1979 44.486
136.329 1968 44.3621
136.446 1852 43.0349
136.564 1891 43.4856
136.681 1862 43.1509
136.798 1762 41.9762
136.915 1772 42.0951
137.033 1730 41.5933
137.15 1643 40.5339
137.267 1663 40.7799
137.384 1650 40.6202
137.502 1591 39.8873
137.619 1449 38.0657
137.736 1385 37.2156
137.853 1231 35.0856
137.97 1269 35.623
138.087 1272 35.6651
138.204 1402 37.4433
138.321 1437 37.9078
138.438 1476 38.4187
138.555 1534 39.1663
138.672 1505 38.7943
138.788 1592 39.8999
138.905 1560 39.4968
139.022 1572 39.6485
139.139 1407 37.51
139.255 1392 37.3095
139.372 1384 37.2022
139.488 1351 36.756
139.605 1393 37.3229
139.721 1418 37.6563
139.838 1419 37.6696
139.954 1369 37
140.071 1352 36.7696
140.187 1256 35.4401
140.303 1259 35.4824
140.419 1287 35.8748
140.535 1294 35.9722
140.652 1158 34.0294
140.768 0 1
140.884 0 1
141 0 1
141.115 0 1
141.231 0 1
141.347 0 1
141.463 0 1
141.578 0 1
141.694 0 1
144.104 0 1
144.219 0 1
144.335 0 1
144.45 0 1
144.566 0 1
144.682 0 1
144.798 0 1
144.914 0 1
145.03 0 1
145.146 1739 41.7013
145.262 1818 42.638
145.378 1905 43.6463
145.494 2038 45.1442
145.61 1923 43.852
145.726 1958 44.2493
145.842 2032 45.0777
145.959 1995 44.6654
146.075 2041 45.1774
146.192 1989 44.5982
146.308 1973 44.4185
146.425 1676 40.939
146.541 1589 39.8623
146.658 1381 37.1618
146.774 1331 36.4829
146.891 1524 39.0384
147.008 1691 41.1218
147.125 1821 42.6732
147.241 1871 43.2551
147.358 1985 44.5533
147.475 2018 44.9222
147.592 1944 44.0908
147.709 1898 43.566
147.826 1848 42.9884
147.943 1762 41.9762
148.06 1682 41.0122
148.177 1743 41.7493
148.294 1795 42.3674
148.411 1770 42.0714
148.528 1858 43.1045
148.645 1878 43.3359
148.762 1802 42.45
148.88 1779 42.1782
148.997 1828 42.7551
149.114 1787 42.2729
149.231 1807 42.5088
149.349 1829 42.7668
149.466 1806 42.4971
149.583 1838 42.8719
149.701 1764 42
149.818 1734 41.6413
149.935 1645 40.5586
150.053 1565 39.5601
150.17 1534 39.1663
150.287 1385 37.2156
150.405 1416 37.6298
150.522 1482 38.4968
150.64 1530 39.1152
150.757 1563 39.5348
150.875 1616 40.1995
150.992 1633 40.4104
151.11 1639 40.4846
151.227 1665 40.8044
151.344 1510 38.8587
151.462 1532 39.1408
151.579 1436 37.8946
151.697 1499 38.7169
151.814 1527 39.0768
151.932 1516 38.9358
152.049 1578 39.724
152.167 1550 39.37
152.284 1500 38.7298
152.402 1530 39.1152
152.519 1524 39.0384
152.636 1507 38.8201
152.754 1538 39.2173
152.871 1523 39.0256
152.989 1492 38.6264
153.106 1528 39.0896
153.223 1471 38.3536
153.341 1490 38.6005
153.458 1492 38.6264
153.575 1405 37.4833
153.693 1303 36.0971
153.81 1245 35.2846
153.927 1128 33.5857
154.044 1239 35.1994
154.162 1269 35.623
154.279 1313 36.2353
154.396 1314 36.2491
154.513 1329 36.4555
154.63 1272 35.6651
154.747 1319 36.318
154.864 1260 35.4965
154.981 1201 34.6554
155.098 1198 34.6121
155.215 1167 34.1614
155.332 1268 35.609
155.449 1252 35.3836
155.566 1241 35.2278
155.683 1199 34.6266
155.8 1278 35.7491
155.917 1337 36.565
156.033 1337 36.565
156.15 0 1
156.267 0 1
156.383 0 1
156.5 0 1
156.617 0 1
156.733 0 1
156.85 0 1
156.966 0 1
157.082 0 1
157.199 0 1
157.315 0 1
157.431 0 1
157.547 0 1
157.664 0 1
157.78 0 1
157.896 0 1
158.012 0 1
158.128 0 1
158.244 0 1
158.359 0 1
158.475 0 1
158.591 0 1
158.706 0 1
