
6.15755 0 1
6.2731 0 1
6.3887 0 1
6.50437 0 1
6.62009 0 1
6.73587 0 1
6.8517 0 1
6.96759 0 1
7.08353 0 1
7.19952 0 1
7.31557 0 1
7.43166 0 1
7.54781 0 1
7.664 0 1
7.78024 0 1
7.89653 0 1
8.01286 0 1
8.12924 0 1
8.24567 0 1
8.36213 0 1
8.47864 0 1
8.59519 0 1
8.71178 0 1
8.82841 0 1
8.94508 0 1
9.06179 0 1
9.17853 0 1
9.29531 0 1
9.41212 0 1
9.52897 0 1
9.64584 0 1
9.76276 0 1
9.8797 0 1
9.99667 0 1
10.1137 0 1
10.2307 0 1
10.3478 0 1
10.4648 0 1
10.5819 0 1
10.6991 0 1
10.8162 0 1
10.9334 0 1
11.0506 0 1
11.1678 0 1
11.285 0 1
11.4023 0 1
11.5196 0 1
11.6369 0 1
11.7542 0 1
11.8715 0 1
11.9888 0 1
12.1062 0 1
12.2235 0 1
12.3409 0 1
12.4582 0 1
12.5756 0 1
12.693 0 1
12.8104 0 1
12.9278 0 1
13.0452 0 1
13.1626 0 1
13.28 0 1
13.3974 0 1
13.5149 0 1
13.6323 0 1
13.7497 0 1
13.8671 0 1
13.9845 0 1
14.1019 0 1
14.2193 0 1
14.3367 0 1
14.4541 0 1
14.5714 0 1
14.6888 0 1
14.8062 0 1
14.9235 0 1
15.0408 1097 33.121
15.1581 1163 34.1028
15.2755 1194 34.5543
15.3927 1152 33.9411
15.51 1138 33.7343
15.6273 1100 33.1662
15.7445 1081 32.8786
15.8617 1049 32.3883
15.9789 1115 33.3916
16.0961 1072 32.7414
16.2132 1048 32.3728
16.3304 1034 32.1559
16.4475 1007 31.7333
16.5646 1035 32.1714
16.6816 1038 32.218
16.7986 1063 32.6037
16.9156 984 31.3688
17.0326 1001 31.6386
17.1496 1015 31.8591
17.2665 1035 32.1714
17.3833 1002 31.6544
17.5002 1103 33.2114
17.617 1035 32.1714
17.7338 1075 32.7872
17.8505 1110 33.3167
17.9672 1252 35.3836
18.0839 1276 35.7211
18.2005 1212 34.8138
18.3171 1309 36.1801
18.4337 1367 36.973
18.5502 1348 36.7151
18.6666 1355 36.8103
18.7831 1318 36.3043
18.8994 1277 35.7351
19.0158 1334 36.524
19.1321 1183 34.3948
19.2483 1144 33.8231
19.3645 1174 34.2637
19.4806 1111 33.3317
19.5967 1082 32.8938
19.7128 1132 33.6452
19.8288 1035 32.1714
19.9447 908 30.133
20.0606 0 1
20.1764 0 1
20.2922 0 1
20.4079 0 1
20.5236 0 1
20.6392 0 1
20.7548 0 1
20.8702 0 1
23.3078 0 1
23.4233 0 1
23.539 0 1
23.6547 0 1
23.7704 0 1
23.8862 0 1
24.0021 0 1
24.118 0 1
24.234 0 1
24.35 0 1
24.4661 1001 31.6386
24.5822 1065 32.6343
24.6984 997 31.5753
24.8146 1040 32.249
24.9309 1064 32.619
25.0472 1060 32.5576
25.1636 1014 31.8434
25.28 1049 32.3883
25.3965 1057 32.5115
25.513 1100 33.1662
25.6296 1124 33.5261
25.7462 1169 34.1906
25.8628 1155 33.9853
25.9795 1170 34.2053
26.0962 1217 34.8855
26.213 1156 34
26.3298 1197 34.5977
26.4466 1191 34.5109
26.5635 1237 35.171
26.6804 1252 35.3836
26.7973 1286 35.8608
26.9143 1269 35.623
27.0313 1236 35.1568
27.1483 1226 35.0143
27.2653 1298 36.0278
27.3824 1271 35.6511
27.4996 1281 35.7911
27.6167 1156 34
27.7339 1097 33.121
27.8511 1095 33.0908
27.9683 1051 32.4191
28.0855 1007 31.7333
28.2028 999 31.607
28.3201 1053 32.45
28.4374 1015 31.8591
28.5547 1036 32.187
28.6721 1030 32.0936
28.7894 1048 32.3728
28.9068 1061 32.573
29.0242 1009 31.7648
29.1416 1032 32.1248
29.259 1049 32.3883
29.3764 1111 33.3317
29.4939 1092 33.0454
29.6113 1100 33.1662
29.7288 1079 32.8481
29.8463 1124 33.5261
29.9638 1085 32.9393
30.0812 1130 33.6155
30.1987 1178 34.322
30.3162 1226 35.0143
30.4337 1220 34.9285
30.5512 1310 36.1939
30.6687 1217 34.8855
30.7862 1265 35.5668
30.9037 1158 34.0294
31.0212 1195 34.5688
31.1387 1061 32.573
31.2562 1066 32.6497
31.3737 1071 32.7261
31.4912 1020 31.9374
31.6087 996 31.5595
31.7262 1023 31.9844
31.8436 1023 31.9844
31.9611 988 31.4325
32.0785 1014 31.8434
32.1959 995 31.5436
32.3134 993 31.5119
32.4308 1071 32.7261
32.5482 1074 32.7719
32.6655 1041 32.2645
32.7829 1013 31.8277
32.9002 983 31.3528
33.0176 1042 32.28
33.1349 983 31.3528
33.2522 1035 32.1714
33.3694 1008 31.749
33.4867 1064 32.619
33.6039 1069 32.6956
33.7211 1088 32.9848
33.8383 1179 34.3366
33.9554 1157 34.0147
34.0725 1145 33.8378
34.1896 1168 34.176
34.3067 1123 33.5112
34.4237 1095 33.0908
34.5407 1200 34.641
34.6577 1069 32.6956
34.7746 1003 31.6702
34.8915 1043 32.2955
35.0084 1052 32.4345
35.1252 902 30.0333
35.242 915 30.249
35.3587 937 30.6105
35.4755 949 30.8058
35.5921 986 31.4006
35.7088 1026 32.0312
35.8254 1009 31.7648
35.9419 1047 32.3574
36.0584 1024 32
36.1749 1027 32.0468
36.2913 1035 32.1714
36.4077 1001 31.6386
36.524 996 31.5595
36.6403 980 31.305
36.7565 998 31.5911
36.8727 922 30.3645
36.9889 999 31.607
37.1049 880 29.6648
37.221 0 1
37.3369 0 1
37.4529 0 1
37.5687 0 1
37.6845 0 1
37.8003 0 1
37.916 0 1
38.0316 0 1
38.1472 0 1
40.5851 0 1
40.7008 0 1
40.8164 0 1
40.9322 0 1
41.048 0 1
41.1639 0 1
41.2798 0 1
41.3958 0 1
41.5118 0 1
41.6279 0 1
41.744 785 28.0179
41.8602 859 29.3087
41.9765 858 29.2916
42.0928 865 29.4109
42.2091 873 29.5466
42.3255 858 29.2916
42.4419 840 28.9828
42.5584 871 29.5127
42.675 950 30.8221
42.7915 973 31.1929
42.9081 999 31.607
43.0248 954 30.8869
43.1415 982 31.3369
43.2582 988 31.4325
43.375 954 30.8869
43.4918 932 30.5287
43.6087 917 30.282
43.7256 987 31.4166
43.8425 903 30.05
43.9595 899 29.9833
44.0765 892 29.8664
44.1935 931 30.5123
44.3106 920 30.3315
44.4277 890 29.8329
44.5448 863 29.3769
44.6619 884 29.7321
44.7791 885 29.7489
44.8963 821 28.6531
45.0136 837 28.931
45.1308 841 29
45.2481 773 27.8029
45.3654 831 28.8271
45.4827 753 27.4408
45.6001 711 26.6646
45.7174 773 27.8029
45.8348 700 26.4575
45.9522 721 26.8514
46.0697 685 26.1725
46.1871 631 25.1197
46.3046 670 25.8844
46.422 692 26.3059
46.5395 707 26.5895
46.657 623 24.96
46.7745 639 25.2784
46.892 708 26.6083
47.0096 693 26.3249
47.1271 670 25.8844
47.2446 682 26.1151
47.3622 668 25.8457
47.4797 647 25.4362
47.5973 649 25.4755
47.7149 670 25.8844
47.8324 616 24.8193
47.95 608 24.6577
48.0675 629 25.0799
48.1851 638 25.2587
48.3027 620 24.8998
48.4202 568 23.8328
48.5378 601 24.5153
48.6554 593 24.3516
48.7729 524 22.891
48.8904 557 23.6008
49.008 557 23.6008
49.1255 566 23.7908
49.243 567 23.8118
49.3605 559 23.6432
49.478 562 23.7065
49.5955 529 23
49.713 552 23.4947
49.8304 546 23.3666
49.9479 592 24.3311
50.0653 618 24.8596
50.1827 623 24.96
50.3001 605 24.5967
50.4175 642 25.3377
50.5348 653 25.5539
50.6521 626 25.02
50.7694 669 25.865
50.8867 686 26.1916
51.004 692 26.3059
51.1212 743 27.258
51.2384 764 27.6405
51.3556 808 28.4253
51.4727 794 28.178
51.5899 768 27.7128
51.707 809 28.4429
51.824 762 27.6043
51.9411 755 27.4773
52.0581 771 27.7669
52.175 781 27.9464
52.2919 761 27.5862
52.4088 679 26.0576
52.5257 748 27.3496
52.6425 721 26.8514
52.7593 703 26.5141
52.876 728 26.9815
52.9927 740 27.2029
53.1094 719 26.8142
53.226 795 28.1957
53.3426 773 27.8029
53.4591 817 28.5832
53.5756 796 28.2135
53.692 823 28.688
53.8084 873 29.5466
53.9248 897 29.95
54.0411 901 30.0167
54.1573 958 30.9516
54.2735 0 1
54.3896 0 1
54.5057 0 1
54.6217 0 1
54.7377 0 1
54.8537 0 1
54.9695 0 1
55.0853 0 1
55.2011 0 1
55.3168 0 1
55.4324 0 1
57.824 0 1
57.9396 0 1
58.0553 0 1
58.1711 0 1
58.2869 0 1
58.4028 0 1
58.5187 0 1
58.6347 0 1
58.7508 0 1
58.8669 0 1
58.983 1019 31.9218
59.0992 1001 31.6386
59.2155 1074 32.7719
59.3318 1142 33.7935
59.4482 1153 33.9559
59.5646 1193 34.5398
59.681 1245 35.2846
59.7975 1291 35.9305
59.9141 1227 35.0286
60.0306 1208 34.7563
60.1473 1182 34.3802
60.2639 1166 34.1467
60.3807 1118 33.4365
60.4974 1103 33.2114
60.6142 1000 31.6228
60.731 984 31.3688
60.8479 944 30.7246
60.9648 864 29.3939
61.0818 881 29.6816
61.1987 842 29.0172
61.3158 908 30.133
61.4328 890 29.8329
61.5499 935 30.5778
61.667 895 29.9166
61.7841 920 30.3315
61.9013 891 29.8496
62.0185 959 30.9677
62.1357 957 30.9354
62.253 955 30.9031
62.3702 984 31.3688
62.4875 1013 31.8277
62.6049 1049 32.3883
62.7222 969 31.1288
62.8396 1085 32.9393
62.9569 1133 33.6601
63.0743 1069 32.6956
63.1918 1175 34.2783
63.3092 1181 34.3657
63.4267 1148 33.8821
63.5441 1117 33.4215
63.6616 1148 33.8821
63.7791 1120 33.4664
63.8966 1068 32.6803
64.0142 1015 31.8591
64.1317 980 31.305
64.2492 819 28.6182
64.3668 794 28.178
64.4843 818 28.6007
64.6019 768 27.7128
64.7195 771 27.7669
64.837 799 28.2666
64.9546 799 28.2666
65.0722 813 28.5132
65.1898 846 29.0861
65.3074 912 30.1993
65.4249 839 28.9655
65.5425 799 28.2666
65.6601 894 29.8998
65.7777 948 30.7896
65.8952 860 29.3258
66.0128 975 31.225
66.1304 989 31.4484
66.2479 992 31.496
66.3655 1004 31.686
66.483 1136 33.7046
66.6005 1170 34.2053
66.718 1152 33.9411
66.8355 1107 33.2716
66.953 1078 32.8329
67.0705 1175 34.2783
67.1879 1120 33.4664
67.3054 1108 33.2866
67.4228 1052 32.4345
67.5402 966 31.0805
67.6576 883 29.7153
67.7749 863 29.3769
67.8923 806 28.3901
68.0096 741 27.2213
68.1269 786 28.0357
68.2442 781 27.9464
68.3614 808 28.4253
68.4787 782 27.9643
68.5958 882 29.6985
68.713 879 29.6479
68.8302 889 29.8161
68.9473 891 29.8496
69.0643 901 30.0167
69.1814 899 29.9833
69.2984 872 29.5296
69.4154 915 30.249
69.5323 980 31.305
69.6492 997 31.5753
69.7661 1007 31.7333
69.8829 1150 33.9116
69.9997 1130 33.6155
70.1165 1152 33.9411
70.2332 1178 34.322
70.3499 1205 34.7131
70.4665 1222 34.9571
70.5831 1206 34.7275
70.6996 1107 33.2716
70.8161 1171 34.2199
70.9326 1117 33.4215
71.049 1035 32.1714
71.1653 919 30.315
71.2817 880 29.6648
71.3979 811 28.4781
71.5141 786 28.0357
71.6303 778 27.8927
71.7464 713 26.7021
71.8624 0 1
71.9784 0 1
72.0944 0 1
72.2102 0 1
72.3261 0 1
72.4418 0 1
72.5575 0 1
72.6732 0 1
75.1054 0 1
75.2209 0 1
75.3365 0 1
75.4521 0 1
75.5678 0 1
75.6835 0 1
75.7993 0 1
75.9151 0 1
76.031 0 1
76.147 1100 33.1662
76.263 993 31.5119
76.3791 917 30.282
76.4952 956 30.9192
76.6113 857 29.2746
76.7276 861 29.3428
76.8438 857 29.2746
76.9601 855 29.2404
77.0765 838 28.9482
77.1929 821 28.6531
77.3093 763 27.6225
77.4258 818 28.6007
77.5423 932 30.5287
77.6589 966 31.0805
77.7755 907 30.1164
77.8921 866 29.4279
78.0088 829 28.7924
78.1256 924 30.3974
78.2423 907 30.1164
78.3591 922 30.3645
78.4759 1002 31.6544
78.5928 1036 32.187
78.7097 1009 31.7648
78.8266 1035 32.1714
78.9436 1200 34.641
79.0606 1125 33.541
79.1776 1199 34.6266
79.2946 1223 34.9714
79.4117 1240 35.2136
79.5288 1231 35.0856
79.6459 1167 34.1614
79.7631 1122 33.4963
79.8802 1087 32.9697
79.9974 1024 32
80.1147 944 30.7246
80.2319 936 30.5941
80.3491 929 30.4795
80.4664 878 29.6311
80.5837 831 28.8271
80.701 852 29.189
80.8183 822 28.6705
80.9357 865 29.4109
81.053 910 30.1662
81.1704 887 29.7825
81.2877 923 30.3809
81.4051 891 29.8496
81.5225 879 29.6479
81.6399 836 28.9137
81.7573 871 29.5127
81.8747 870 29.4958
81.9922 953 30.8707
82.1096 1084 32.9242
82.227 1125 33.541
82.3444 1139 33.7491
82.4619 1104 33.2265
82.5793 1241 35.2278
82.6967 1195 34.5688
82.8142 1220 34.9285
82.9316 1340 36.606
83.049 1284 35.8329
83.1664 1317 36.2905
83.2838 1198 34.6121
83.4012 1164 34.1174
83.5186 1033 32.1403
83.636 958 30.9516
83.7534 909 30.1496
83.8708 926 30.4302
83.9881 871 29.5127
84.1055 884 29.7321
84.2228 906 30.0998
84.3401 897 29.95
84.4575 885 29.7489
84.5747 956 30.9192
84.692 925 30.4138
84.8093 1014 31.8434
84.9265 1034 32.1559
85.0437 968 31.1127
85.1609 869 29.4788
85.2781 919 30.315
85.3952 925 30.4138
85.5123 1007 31.7333
85.6294 979 31.289
85.7465 1082 32.8938
85.8636 1227 35.0286
85.9806 1238 35.1852
86.0976 1346 36.6879
86.2145 1244 35.2704
86.3315 1296 36
86.4484 1350 36.7423
86.5652 1375 37.081
86.682 1338 36.5787
86.7988 1346 36.6879
86.9156 1303 36.0971
87.0323 1151 33.9264
87.149 1043 32.2955
87.2657 1016 31.8748
87.3823 1001 31.6386
87.4988 1039 32.2335
87.6154 1031 32.1092
87.7318 926 30.4302
87.8483 943 30.7083
87.9647 984 31.3688
88.081 994 31.5278
88.1973 1003 31.6702
88.3136 1080 32.8634
88.4298 1058 32.5269
88.546 1004 31.686
88.6621 954 30.8869
88.7781 952 30.8545
88.8942 0 1
89.0101 0 1
89.126 0 1
89.2419 0 1
89.3577 0 1
89.4734 0 1
89.5891 0 1
89.7047 0 1
89.8203 0 1
89.9358 0 1
92.3269 0 1
92.4424 0 1
92.558 0 1
92.6736 0 1
92.7893 0 1
92.905 0 1
93.0208 0 1
93.1366 0 1
93.2525 0 1
93.3685 0 1
93.4845 0 1
93.6005 940 30.6594
93.7167 1003 31.6702
93.8328 920 30.3315
93.949 926 30.4302
94.0653 942 30.692
94.1816 921 30.348
94.2979 985 31.3847
94.4143 1001 31.6386
94.5307 1081 32.8786
94.6472 1039 32.2335
94.7637 1127 33.5708
94.8803 1162 34.0881
94.9969 1220 34.9285
95.1135 1299 36.0416
95.2302 1298 36.0278
95.3469 1261 35.5106
95.4637 1303 36.0971
95.5805 1299 36.0416
95.6973 1368 36.9865
95.8142 1199 34.6266
95.9311 1187 34.4529
96.048 1117 33.4215
96.1649 1073 32.7567
96.2819 1057 32.5115
96.3989 1041 32.2645
96.516 984 31.3688
96.633 1012 31.8119
96.7501 1006 31.7175
96.8673 968 31.1127
96.9844 995 31.5436
97.1016 959 30.9677
97.2188 1006 31.7175
97.336 1040 32.249
97.4532 1047 32.3574
97.5704 981 31.3209
97.6877 969 31.1288
97.805 937 30.6105
97.9223 902 30.0333
98.0396 912 30.1993
98.1569 924 30.3974
98.2743 1047 32.3574
98.3916 975 31.225
98.509 1084 32.9242
98.6264 1132 33.6452
98.7438 1169 34.1906
98.8612 1195 34.5688
98.9786 1239 35.1994
99.096 1218 34.8999
99.2134 1244 35.2704
99.3308 1345 36.6742
99.4482 1223 34.9714
99.5656 1211 34.7994
99.6831 1147 33.8674
99.8005 1131 33.6303
99.9179 1022 31.9687
100.035 970 31.1448
100.153 898 29.9666
100.27 946 30.7571
100.388 959 30.9677
100.505 877 29.6142
100.622 973 31.1929
100.74 991 31.4802
100.857 995 31.5436
100.975 979 31.289
101.092 1008 31.749
101.209 907 30.1164
101.327 886 29.7658
101.444 908 30.133
101.561 903 30.05
101.679 942 30.692
101.796 999 31.607
101.913 1014 31.8434
102.03 1065 32.6343
102.148 1266 35.5809
102.265 1112 33.3467
102.382 1315 36.2629
102.499 1305 36.1248
102.616 1217 34.8855
102.733 1351 36.756
102.851 1394 37.3363
102.968 1343 36.647
103.085 1232 35.0999
103.202 1259 35.4824
103.319 1137 33.7194
103.436 1161 34.0735
103.552 1079 32.8481
103.669 1048 32.3728
103.786 1013 31.8277
103.903 1004 31.686
104.02 1055 32.4808
104.137 1056 32.4962
104.253 994 31.5278
104.37 1011 31.7962
104.487 1056 32.4962
104.603 1002 31.6544
104.72 983 31.3528
104.836 991 31.4802
104.953 947 30.7734
105.069 1031 32.1092
105.186 1032 32.1248
105.302 1052 32.4345
105.418 1183 34.3948
105.535 1207 34.7419
105.651 1309 36.1801
105.767 1343 36.647
105.883 1280 35.7771
105.999 1297 36.0139
106.115 0 1
106.231 0 1
106.347 0 1
106.463 0 1
106.579 0 1
106.694 0 1
106.81 0 1
106.926 0 1
107.041 0 1
107.157 0 1
109.576 0 1
109.692 0 1
109.807 0 1
109.923 0 1
110.039 0 1
110.155 0 1
110.27 0 1
110.386 0 1
110.502 0 1
110.618 1069 32.6956
110.735 1128 33.5857
110.851 1146 33.8526
110.967 1149 33.8969
111.083 1138 33.7343
111.199 1200 34.641
111.316 1180 34.3511
111.432 1181 34.3657
111.549 1198 34.6121
111.665 1188 34.4674
111.782 1076 32.8024
111.898 1004 31.686
112.015 1006 31.7175
112.132 986 31.4006
112.248 929 30.4795
112.365 912 30.1993
112.482 929 30.4795
112.599 871 29.5127
112.716 846 29.0861
112.832 833 28.8617
112.949 885 29.7489
113.066 824 28.7054
113.183 840 28.9828
113.3 792 28.1425
113.417 831 28.8271
113.534 750 27.3861
113.652 831 28.8271
113.769 805 28.3725
113.886 859 29.3087
114.003 906 30.0998
114.12 945 30.7409
114.238 982 31.3369
114.355 985 31.3847
114.472 901 30.0167
114.589 915 30.249
114.707 970 31.1448
114.824 932 30.5287
114.942 1025 32.0156
115.059 988 31.4325
115.176 996 31.5595
115.294 897 29.95
115.411 945 30.7409
115.529 873 29.5466
115.646 834 28.8791
115.764 805 28.3725
115.881 724 26.9072
115.999 748 27.3496
116.116 780 27.9285
116.234 689 26.2488
116.351 704 26.533
116.469 711 26.6646
116.586 683 26.1343
116.704 668 25.8457
116.821 662 25.7294
116.939 635 25.1992
117.056 612 24.7386
117.174 654 25.5734
117.291 700 26.4575
117.409 689 26.2488
117.526 719 26.8142
117.644 713 26.7021
117.761 725 26.9258
117.879 777 27.8747
117.996 752 27.4226
118.114 763 27.6225
118.231 756 27.4955
118.349 807 28.4077
118.466 774 27.8209
118.584 914 30.2324
118.701 816 28.5657
118.819 867 29.4449
118.936 856 29.2575
119.053 880 29.6648
119.171 858 29.2916
119.288 835 28.8964
119.405 748 27.3496
119.523 742 27.2397
119.64 738 27.1662
119.757 715 26.7395
119.875 729 27
119.992 684 26.1534
120.109 705 26.5518
120.226 686 26.1916
120.343 697 26.4008
120.46 657 25.632
120.578 689 26.2488
120.695 749 27.3679
120.812 709 26.6271
120.929 734 27.0924
121.046 815 28.5482
121.163 797 28.2312
121.279 857 29.2746
121.396 871 29.5127
121.513 869 29.4788
121.63 820 28.6356
121.747 853 29.2062
121.863 753 27.4408
121.98 842 29.0172
122.097 915 30.249
122.213 923 30.3809
122.33 908 30.133
122.446 1009 31.7648
122.563 932 30.5287
122.679 1037 32.2025
122.795 994 31.5278
122.912 1025 32.0156
123.028 927 30.4467
123.144 945 30.7409
123.26 864 29.3939
123.377 0 1
123.493 0 1
123.609 0 1
123.725 0 1
123.84 0 1
123.956 0 1
124.072 0 1
124.188 0 1
124.303 0 1
124.419 0 1
126.852 0 1
126.968 0 1
127.083 0 1
127.199 0 1
127.315 0 1
127.431 0 1
127.547 0 1
127.663 0 1
127.779 0 1
127.895 0 1
128.011 0 1
128.127 0 1
128.243 0 1
128.359 1083 32.909
128.476 1057 32.5115
128.592 1051 32.4191
128.708 1050 32.4037
128.825 973 31.1929
128.941 1013 31.8277
129.058 982 31.3369
129.174 898 29.9666
129.291 906 30.0998
129.408 909 30.1496
129.524 874 29.5635
129.641 924 30.3974
129.758 925 30.4138
129.875 913 30.2159
129.992 969 31.1288
130.108 954 30.8869
130.225 912 30.1993
130.342 943 30.7083
130.459 949 30.8058
130.576 924 30.3974
130.693 824 28.7054
130.81 745 27.2947
130.928 727 26.9629
131.045 907 30.1164
131.162 923 30.3809
131.279 995 31.5436
131.396 931 30.5123
131.513 918 30.2985
131.631 904 30.0666
131.748 909 30.1496
131.865 960 30.9839
131.983 973 31.1929
132.1 932 30.5287
132.217 954 30.8869
132.335 934 30.5614
132.452 852 29.189
132.57 856 29.2575
132.687 763 27.6225
132.804 895 29.9166
132.922 816 28.5657
133.039 813 28.5132
133.157 790 28.1069
133.274 774 27.8209
133.392 843 29.0345
133.509 820 28.6356
133.627 801 28.3019
133.744 789 28.0891
133.862 795 28.1957
133.979 785 28.0179
134.097 787 28.0535
134.214 747 27.3313
134.332 567 23.8118
134.449 598 24.454
134.567 691 26.2869
134.684 815 28.5482
134.802 730 27.0185
134.919 726 26.9444
135.037 840 28.9828
135.154 756 27.4955
135.272 775 27.8388
135.389 787 28.0535
135.507 716 26.7582
135.624 784 28
135.742 701 26.4764
135.859 694 26.3439
135.977 676 26
136.094 691 26.2869
136.211 629 25.0799
136.329 683 26.1343
136.446 642 25.3377
136.564 662 25.7294
136.681 638 25.2587
136.798 632 25.1396
136.915 670 25.8844
137.033 636 25.219
137.15 645 25.3969
137.267 651 25.5147
137.384 680 26.0768
137.502 677 26.0192
137.619 637 25.2389
137.736 615 24.7992
137.853 563 23.7276
137.97 481 21.9317
138.087 518 22.7596
138.204 601 24.5153
138.321 687 26.2107
138.438 729 27
138.555 665 25.7876
138.672 695 26.3629
138.788 702 26.4953
138.905 716 26.7582
139.022 782 27.9643
139.139 716 26.7582
139.255 752 27.4226
139.372 730 27.0185
139.488 709 26.6271
139.605 741 27.2213
139.721 782 27.9643
139.838 756 27.4955
139.954 743 27.258
140.071 745 27.2947
140.187 773 27.8029
140.303 713 26.7021
140.419 782 27.9643
140.535 720 26.8328
140.652 707 26.5895
140.768 0 1
140.884 0 1
141 0 1
141.115 0 1
141.231 0 1
141.347 0 1
141.463 0 1
141.578 0 1
141.694 0 1
144.104 0 1
144.219 0 1
144.335 0 1
144.45 0 1
144.566 0 1
144.682 0 1
144.798 0 1
144.914 0 1
145.03 0 1
145.146 629 25.0799
145.262 618 24.8596
145.378 582 24.1247
145.494 576 24
145.61 567 23.8118
145.726 599 24.4745
145.842 587 24.2281
145.959 603 24.5561
146.075 609 24.6779
146.192 567 23.8118
146.308 550 23.4521
146.425 537 23.1733
146.541 499 22.3383
146.658 430 20.7364
146.774 470 21.6795
146.891 507 22.5167
147.008 528 22.9783
147.125 534 23.1084
147.241 519 22.7816
147.358 536 23.1517
147.475 531 23.0434
147.592 556 23.5797
147.709 543 23.3024
147.826 491 22.1585
147.943 484 22
148.06 516 22.7156
148.177 505 22.4722
148.294 471 21.7025
148.411 473 21.7486
148.528 482 21.9545
148.645 475 21.7945
148.762 496 22.2711
148.88 454 21.3073
148.997 414 20.347
149.114 438 20.9284
149.231 421 20.5183
149.349 462 21.4942
149.466 412 20.2978
149.583 432 20.7846
149.701 453 21.2838
149.818 428 20.6882
149.935 394 19.8494
150.053 426 20.6398
150.17 432 20.7846
150.287 430 20.7364
150.405 424 20.5913
150.522 427 20.664
150.64 462 21.4942
150.757 478 21.8632
150.875 442 21.0238
150.992 399 19.975
151.11 471 21.7025
151.227 409 20.2237
151.344 454 21.3073
151.462 461 21.4709
151.579 451 21.2368
151.697 405 20.1246
151.814 481 21.9317
151.932 464 21.5407
152.049 428 20.6882
152.167 423 20.567
152.284 444 21.0713
152.402 445 21.095
152.519 447 21.1424
152.636 440 20.9762
152.754 478 21.8632
152.871 494 22.2261
152.989 422 20.5426
153.106 466 21.587
153.223 468 21.6333
153.341 449 21.1896
153.458 452 21.2603
153.575 457 21.3776
153.693 449 21.1896
153.81 509 22.561
153.927 483 21.9773
154.044 476 21.8174
154.162 475 21.7945
154.279 515 22.6936
154.396 554 23.5372
154.513 577 24.0208
154.63 556 23.5797
154.747 568 23.8328
154.864 621 24.9199
154.981 580 24.0832
155.098 601 24.5153
155.215 617 24.8395
155.332 637 25.2389
155.449 588 24.2487
155.566 583 24.1454
155.683 545 23.3452
155.8 537 23.1733
155.917 519 22.7816
156.033 536 23.1517
156.15 0 1
156.267 0 1
156.383 0 1
156.5 0 1
156.617 0 1
156.733 0 1
156.85 0 1
156.966 0 1
157.082 0 1
157.199 0 1
157.315 0 1
157.431 0 1
157.547 0 1
157.664 0 1
157.78 0 1
157.896 0 1
158.012 0 1
158.128 0 1
158.244 0 1
158.359 0 1
158.475 0 1
158.591 0 1
158.706 0 1
