
6.15755 0 1
6.2731 0 1
6.3887 0 1
6.50437 0 1
6.62009 0 1
6.73587 0 1
6.8517 0 1
6.96759 0 1
7.08353 0 1
7.19952 0 1
7.31557 0 1
7.43166 0 1
7.54781 0 1
7.664 0 1
7.78024 0 1
7.89653 0 1
8.01286 0 1
8.12924 0 1
8.24567 0 1
8.36213 0 1
8.47864 0 1
8.59519 0 1
8.71178 0 1
8.82841 0 1
8.94508 0 1
9.06179 0 1
9.17853 0 1
9.29531 0 1
9.41212 0 1
9.52897 0 1
9.64584 0 1
9.76276 0 1
9.8797 0 1
9.99667 0 1
10.1137 0 1
10.2307 0 1
10.3478 0 1
10.4648 0 1
10.5819 0 1
10.6991 0 1
10.8162 0 1
10.9334 0 1
11.0506 0 1
11.1678 0 1
11.285 0 1
11.4023 0 1
11.5196 0 1
11.6369 0 1
11.7542 0 1
11.8715 0 1
11.9888 0 1
12.1062 0 1
12.2235 0 1
12.3409 0 1
12.4582 0 1
12.5756 0 1
12.693 0 1
12.8104 0 1
12.9278 0 1
13.0452 0 1
13.1626 0 1
13.28 0 1
13.3974 0 1
13.5149 0 1
13.6323 0 1
13.7497 0 1
13.8671 0 1
13.9845 0 1
14.1019 0 1
14.2193 0 1
14.3367 0 1
14.4541 0 1
14.5714 0 1
14.6888 0 1
14.8062 0 1
14.9235 0 1
15.0408 1802 42.45
15.1581 1839 42.8836
15.2755 1936 44
15.3927 1933 43.9659
15.51 1917 43.7836
15.6273 1918 43.795
15.7445 1795 42.3674
15.8617 1888 43.4511
15.9789 1762 41.9762
16.0961 1788 42.2847
16.2132 1862 43.1509
16.3304 1974 44.4297
16.4475 2012 44.8553
16.5646 2001 44.7325
16.6816 2118 46.0217
16.7986 2394 48.9285
16.9156 2403 49.0204
17.0326 2523 50.2295
17.1496 2615 51.1371
17.2665 2523 50.2295
17.3833 2596 50.951
17.5002 2622 51.2055
17.617 2543 50.4282
17.7338 2497 49.97
17.8505 2621 51.1957
17.9672 2648 51.4587
18.0839 2622 51.2055
18.2005 2761 52.5452
18.3171 2807 52.9811
18.4337 2679 51.7591
18.5502 2754 52.4786
18.6666 2833 53.2259
18.7831 2891 53.768
18.8994 2687 51.8363
19.0158 2682 51.788
19.1321 2600 50.9902
19.2483 2553 50.5272
19.3645 2454 49.5379
19.4806 2421 49.2037
19.5967 2373 48.7134
19.7128 2195 46.8508
19.8288 1955 44.2154
19.9447 1712 41.3763
20.0606 0 1
20.1764 0 1
20.2922 0 1
20.4079 0 1
20.5236 0 1
20.6392 0 1
20.7548 0 1
20.8702 0 1
23.3078 0 1
23.4233 0 1
23.539 0 1
23.6547 0 1
23.7704 0 1
23.8862 0 1
24.0021 0 1
24.118 0 1
24.234 0 1
24.35 0 1
24.4661 2490 49.8999
24.5822 2347 48.4458
24.6984 2514 50.1398
24.8146 2443 49.4267
24.9309 2401 49
25.0472 2201 46.9148
25.1636 2018 44.9222
25.28 2002 44.7437
25.3965 2085 45.6618
25.513 2275 47.697
25.6296 2410 49.0918
25.7462 2634 51.3225
25.8628 2824 53.1413
25.9795 2909 53.9351
26.0962 2876 53.6284
26.213 2887 53.7308
26.3298 2987 54.6535
26.4466 2963 54.4334
26.5635 2907 53.9166
26.6804 2994 54.7175
26.7973 2962 54.4243
26.9143 2844 53.3292
27.0313 2818 53.0848
27.1483 2874 53.6097
27.2653 2860 53.479
27.3824 2828 53.1789
27.4996 2813 53.0377
27.6167 2876 53.6284
27.7339 2772 52.6498
27.8511 2706 52.0192
27.9683 2683 51.7977
28.0855 2620 51.1859
28.2028 2748 52.4214
28.3201 2564 50.636
28.4374 2494 49.94
28.5547 2340 48.3735
28.6721 2069 45.4863
28.7894 1865 43.1856
28.9068 2011 44.8442
29.0242 2067 45.4643
29.1416 2263 47.571
29.259 2438 49.3761
29.3764 2580 50.7937
29.4939 2782 52.7447
29.6113 2855 53.4322
29.7288 2778 52.7067
29.8463 2797 52.8867
29.9638 2827 53.1695
30.0812 2775 52.6783
30.1987 2898 53.8331
30.3162 2859 53.4696
30.4337 2831 53.2071
30.5512 2737 52.3163
30.6687 2767 52.6023
30.7862 2728 52.2303
30.9037 2781 52.7352
31.0212 2830 53.1977
31.1387 2791 52.8299
31.2562 2838 53.2729
31.3737 2652 51.4976
31.4912 2702 51.9808
31.6087 2658 51.5558
31.7262 2731 52.259
31.8436 2707 52.0288
31.9611 2525 50.2494
32.0785 2382 48.8057
32.1959 2080 45.607
32.3134 1959 44.2606
32.4308 2011 44.8442
32.5482 2065 45.4423
32.6655 2193 46.8295
32.7829 2322 48.1871
32.9002 2609 51.0784
33.0176 2659 51.5655
33.1349 2750 52.4404
33.2522 2791 52.8299
33.3694 2675 51.7204
33.4867 2782 52.7447
33.6039 2795 52.8678
33.7211 2796 52.8772
33.8383 2717 52.1249
33.9554 2742 52.3641
34.0725 2765 52.5833
34.1896 2748 52.4214
34.3067 2658 51.5558
34.4237 2629 51.2738
34.5407 2683 51.7977
34.6577 2658 51.5558
34.7746 2717 52.1249
34.8915 2619 51.1762
35.0084 2626 51.2445
35.1252 2628 51.264
35.242 2586 50.8527
35.3587 2650 51.4782
35.4755 2724 52.192
35.5921 2590 50.892
35.7088 2469 49.689
35.8254 2284 47.7912
35.9419 1970 44.3847
36.0584 1841 42.9069
36.1749 1926 43.8862
36.2913 2033 45.0888
36.4077 2167 46.551
36.524 2255 47.4868
36.6403 2353 48.5077
36.7565 2495 49.95
36.8727 2692 51.8845
36.9889 2669 51.6624
37.1049 2738 52.3259
37.221 0 1
37.3369 0 1
37.4529 0 1
37.5687 0 1
37.6845 0 1
37.8003 0 1
37.916 0 1
38.0316 0 1
38.1472 0 1
40.5851 0 1
40.7008 0 1
40.8164 0 1
40.9322 0 1
41.048 0 1
41.1639 0 1
41.2798 0 1
41.3958 0 1
41.5118 0 1
41.6279 0 1
41.744 1715 41.4126
41.8602 2035 45.111
41.9765 2123 46.076
42.0928 2188 46.7761
42.2091 2322 48.1871
42.3255 2253 47.4658
42.4419 2218 47.0956
42.5584 2346 48.4355
42.675 2255 47.4868
42.7915 2250 47.4342
42.9081 2120 46.0435
43.0248 2157 46.4435
43.1415 2130 46.1519
43.2582 2104 45.8694
43.375 2285 47.8017
43.4918 2184 46.7333
43.6087 2170 46.5833
43.7256 2113 45.9674
43.8425 2087 45.6837
43.9595 2068 45.4753
44.0765 2108 45.913
44.1935 2012 44.8553
44.3106 2001 44.7325
44.4277 1857 43.0929
44.5448 1777 42.1545
44.6619 1585 39.8121
44.7791 1452 38.1051
44.8963 1350 36.7423
45.0136 1396 37.3631
45.1308 1336 36.5513
45.2481 1438 37.921
45.3654 1596 39.95
45.4827 1672 40.8901
45.6001 1746 41.7852
45.7174 1712 41.3763
45.8348 1690 41.1096
45.9522 1716 41.4246
46.0697 1576 39.6989
46.1871 1586 39.8246
46.3046 1645 40.5586
46.422 1637 40.4599
46.5395 1486 38.5487
46.657 1535 39.1791
46.7745 1526 39.064
46.892 1535 39.1791
47.0096 1601 40.0125
47.1271 1582 39.7744
47.2446 1638 40.4722
47.3622 1503 38.7685
47.4797 1536 39.1918
47.5973 1560 39.4968
47.7149 1509 38.8458
47.8324 1456 38.1576
47.95 1392 37.3095
48.0675 1326 36.4143
48.1851 1321 36.3456
48.3027 1111 33.3317
48.4202 1031 32.1092
48.5378 1070 32.7109
48.6554 1000 31.6228
48.7729 1133 33.6601
48.8904 1158 34.0294
49.008 1263 35.5387
49.1255 1250 35.3553
49.243 1341 36.6197
49.3605 1309 36.1801
49.478 1384 37.2022
49.5955 1384 37.2022
49.713 1367 36.973
49.8304 1374 37.0675
49.9479 1312 36.2215
50.0653 1341 36.6197
50.1827 1378 37.1214
50.3001 1380 37.1484
50.4175 1400 37.4166
50.5348 1540 39.2428
50.6521 1527 39.0768
50.7694 1584 39.7995
50.8867 1611 40.1373
51.004 1599 39.9875
51.1212 1619 40.2368
51.2384 1733 41.6293
51.3556 1733 41.6293
51.4727 1672 40.8901
51.5899 1624 40.2989
51.707 1568 39.598
51.824 1431 37.8286
51.9411 1456 38.1576
52.0581 1437 37.9078
52.175 1511 38.8716
52.2919 1582 39.7744
52.4088 1820 42.6615
52.5257 1871 43.2551
52.6425 1986 44.5646
52.7593 2041 45.1774
52.876 2111 45.9456
52.9927 2076 45.5631
53.1094 2206 46.9681
53.226 2232 47.244
53.3426 2214 47.0532
53.4591 2130 46.1519
53.5756 2029 45.0444
53.692 2078 45.5851
53.8084 2248 47.4131
53.9248 2209 47
54.0411 2360 48.5798
54.1573 2335 48.3218
54.2735 0 1
54.3896 0 1
54.5057 0 1
54.6217 0 1
54.7377 0 1
54.8537 0 1
54.9695 0 1
55.0853 0 1
55.2011 0 1
55.3168 0 1
55.4324 0 1
57.824 0 1
57.9396 0 1
58.0553 0 1
58.1711 0 1
58.2869 0 1
58.4028 0 1
58.5187 0 1
58.6347 0 1
58.7508 0 1
58.8669 0 1
58.983 2368 48.6621
59.0992 2552 50.5173
59.2155 2686 51.8266
59.3318 2679 51.7591
59.4482 2767 52.6023
59.5646 2826 53.1601
59.681 2801 52.9245
59.7975 2806 52.9717
59.9141 2779 52.7162
60.0306 2648 51.4587
60.1473 2505 50.05
60.2639 2562 50.6162
60.3807 2408 49.0714
60.4974 2283 47.7807
60.6142 2093 45.7493
60.731 2022 44.9667
60.8479 2051 45.288
60.9648 2219 47.1063
61.0818 2302 47.9792
61.1987 2322 48.1871
61.3158 2434 49.3356
61.4328 2480 49.7996
61.5499 2451 49.5076
61.667 2507 50.07
61.7841 2485 49.8498
61.9013 2479 49.7896
62.0185 2436 49.3559
62.1357 2337 48.3425
62.253 2326 48.2286
62.3702 2320 48.1664
62.4875 2413 49.1223
62.6049 2472 49.7192
62.7222 2504 50.04
62.8396 2574 50.7346
62.9569 2485 49.8498
63.0743 2631 51.2933
63.1918 2624 51.225
63.3092 2538 50.3786
63.4267 2448 49.4773
63.5441 2403 49.0204
63.6616 2338 48.3529
63.7791 2247 47.4025
63.8966 2105 45.8803
64.0142 1946 44.1135
64.1317 1975 44.441
64.2492 1846 42.9651
64.3668 1853 43.0465
64.4843 2061 45.3982
64.6019 2057 45.3542
64.7195 2156 46.4327
64.837 2110 45.9347
64.9546 2248 47.4131
65.0722 2284 47.7912
65.1898 2245 47.3814
65.3074 2261 47.55
65.4249 2163 46.5081
65.5425 2078 45.5851
65.6601 2042 45.1885
65.7777 2090 45.7165
65.8952 2088 45.6946
66.0128 2177 46.6583
66.1304 2230 47.2229
66.2479 2348 48.4562
66.3655 2320 48.1664
66.483 2374 48.7237
66.6005 2470 49.6991
66.718 2376 48.7442
66.8355 2407 49.0612
66.953 2451 49.5076
67.0705 2317 48.1352
67.1879 2388 48.8672
67.3054 2286 47.8121
67.4228 2160 46.4758
67.5402 2109 45.9239
67.6576 1930 43.9318
67.7749 1742 41.7373
67.8923 1807 42.5088
68.0096 1863 43.1625
68.1269 1977 44.4635
68.2442 2146 46.3249
68.3614 2241 47.3392
68.4787 2238 47.3075
68.5958 2352 48.4974
68.713 2395 48.9387
68.8302 2309 48.0521
68.9473 2317 48.1352
69.0643 2270 47.6445
69.1814 2223 47.1487
69.2984 2241 47.3392
69.4154 2068 45.4753
69.5323 2210 47.0106
69.6492 2310 48.0625
69.7661 2361 48.5901
69.8829 2450 49.4975
69.9997 2559 50.5866
70.1165 2712 52.0769
70.2332 2698 51.9423
70.3499 2692 51.8845
70.4665 2717 52.1249
70.5831 2594 50.9313
70.6996 2685 51.817
70.8161 2593 50.9215
70.9326 2486 49.8598
71.049 2372 48.7032
71.1653 2242 47.3498
71.2817 2098 45.8039
71.3979 2047 45.2438
71.5141 1952 44.1814
71.6303 1782 42.2137
71.7464 1656 40.694
71.8624 0 1
71.9784 0 1
72.0944 0 1
72.2102 0 1
72.3261 0 1
72.4418 0 1
72.5575 0 1
72.6732 0 1
75.1054 0 1
75.2209 0 1
75.3365 0 1
75.4521 0 1
75.5678 0 1
75.6835 0 1
75.7993 0 1
75.9151 0 1
76.031 0 1
76.147 2241 47.3392
76.263 2436 49.3559
76.3791 2382 48.8057
76.4952 2306 48.0208
76.6113 2282 47.7703
76.7276 2092 45.7384
76.8438 2021 44.9555
76.9601 2052 45.299
77.0765 2110 45.9347
77.1929 2299 47.9479
77.3093 2368 48.6621
77.4258 2568 50.6754
77.5423 2552 50.5173
77.6589 2514 50.1398
77.7755 2554 50.5371
77.8921 2426 49.2544
78.0088 2400 48.9898
78.1256 2198 46.8828
78.2423 2108 45.913
78.3591 1928 43.909
78.4759 1934 43.9773
78.5928 2076 45.5631
78.7097 2239 47.3181
78.8266 2313 48.0937
78.9436 2675 51.7204
79.0606 2602 51.0098
79.1776 2591 50.9019
79.2946 2704 52
79.4117 2756 52.4976
79.5288 2527 50.2693
79.6459 2633 51.3128
79.7631 2551 50.5074
79.8802 2525 50.2494
79.9974 2223 47.1487
80.1147 2137 46.2277
80.2319 2010 44.833
80.3491 1979 44.486
80.4664 1887 43.4396
80.5837 1871 43.2551
80.701 1977 44.4635
80.8183 2083 45.6399
80.9357 2157 46.4435
81.053 2257 47.5079
81.1704 2282 47.7703
81.2877 2298 47.9375
81.4051 2287 47.8226
81.5225 2174 46.6262
81.6399 2199 46.8935
81.7573 2023 44.9778
81.8747 1790 42.3084
81.9922 1770 42.0714
82.1096 1788 42.2847
82.227 1770 42.0714
82.3444 1962 44.2945
82.4619 2134 46.1952
82.5793 2290 47.8539
82.6967 2365 48.6313
82.8142 2405 49.0408
82.9316 2364 48.621
83.049 2331 48.2804
83.1664 2287 47.8226
83.2838 2233 47.2546
83.4012 2193 46.8295
83.5186 2067 45.4643
83.636 2025 45
83.7534 1902 43.6119
83.8708 1770 42.0714
83.9881 1701 41.2432
84.1055 1673 40.9023
84.2228 1679 40.9756
84.3401 1687 41.0731
84.4575 1833 42.8135
84.5747 1983 44.5309
84.692 2168 46.5618
84.8093 2108 45.913
84.9265 2218 47.0956
85.0437 2057 45.3542
85.1609 2006 44.7884
85.2781 1877 43.3244
85.3952 1826 42.7317
85.5123 1687 41.0731
85.6294 1701 41.2432
85.7465 1636 40.4475
85.8636 1902 43.6119
85.9806 2086 45.6727
86.0976 2294 47.8957
86.2145 2437 49.366
86.3315 2564 50.636
86.4484 2466 49.6588
86.5652 2540 50.3984
86.682 2545 50.448
86.7988 2576 50.7543
86.9156 2492 49.9199
87.0323 2496 49.96
87.149 2311 48.0729
87.2657 2263 47.571
87.3823 2163 46.5081
87.4988 2098 45.8039
87.6154 1971 44.3959
87.7318 1949 44.1475
87.8483 2135 46.2061
87.9647 2271 47.655
88.081 2342 48.3942
88.1973 2461 49.6085
88.3136 2513 50.1298
88.4298 2517 50.1697
88.546 2485 49.8498
88.6621 2460 49.5984
88.7781 2484 49.8397
88.8942 0 1
89.0101 0 1
89.126 0 1
89.2419 0 1
89.3577 0 1
89.4734 0 1
89.5891 0 1
89.7047 0 1
89.8203 0 1
89.9358 0 1
92.3269 0 1
92.4424 0 1
92.558 0 1
92.6736 0 1
92.7893 0 1
92.905 0 1
93.0208 0 1
93.1366 0 1
93.2525 0 1
93.3685 0 1
93.4845 0 1
93.6005 2343 48.4045
93.7167 2525 50.2494
93.8328 2503 50.03
93.949 2520 50.1996
94.0653 2346 48.4355
94.1816 2344 48.4149
94.2979 2258 47.5184
94.4143 2058 45.3652
94.5307 1956 44.2267
94.6472 1837 42.8602
94.7637 1767 42.0357
94.8803 2011 44.8442
94.9969 2276 47.7074
95.1135 2450 49.4975
95.2302 2662 51.5946
95.3469 2754 52.4786
95.4637 2786 52.7826
95.5805 2745 52.3927
95.6973 2715 52.1057
95.8142 2816 53.066
95.9311 2801 52.9245
96.048 2793 52.8488
96.1649 2643 51.4101
96.2819 2647 51.449
96.3989 2440 49.3964
96.516 2356 48.5386
96.633 2294 47.8957
96.7501 2193 46.8295
96.8673 2162 46.4973
96.9844 2212 47.0319
97.1016 2270 47.6445
97.2188 2353 48.5077
97.336 2462 49.6185
97.4532 2473 49.7293
97.5704 2529 50.2892
97.6877 2558 50.5767
97.805 2389 48.8774
97.9223 2306 48.0208
98.0396 2103 45.8585
98.1569 1856 43.0813
98.2743 1664 40.7922
98.3916 1866 43.1972
98.509 1867 43.2088
98.6264 2316 48.1248
98.7438 2469 49.689
98.8612 2568 50.6754
98.9786 2681 51.7784
99.096 2747 52.4118
99.2134 2746 52.4023
99.3308 2726 52.2111
99.4482 2694 51.9038
99.5656 2766 52.5928
99.6831 2662 51.5946
99.8005 2579 50.7839
99.9179 2560 50.5964
100.035 2394 48.9285
100.153 2350 48.4768
100.27 2257 47.5079
100.388 2187 46.7654
100.505 2270 47.6445
100.622 2311 48.0729
100.74 2313 48.0937
100.857 2414 49.1325
100.975 2604 51.0294
101.092 2514 50.1398
101.209 2522 50.2195
101.327 2424 49.2341
101.444 2483 49.8297
101.561 2269 47.634
101.679 1990 44.6094
101.796 1853 43.0465
101.913 1820 42.6615
102.03 1952 44.1814
102.148 2215 47.0638
102.265 2503 50.03
102.382 2714 52.0961
102.499 2773 52.6593
102.616 2862 53.4977
102.733 2856 53.4416
102.851 2841 53.301
102.968 2924 54.074
103.085 2792 52.8394
103.202 2731 52.259
103.319 2689 51.8556
103.436 2599 50.9804
103.552 2450 49.4975
103.669 2531 50.309
103.786 2461 49.6085
103.903 2370 48.6826
104.02 2440 49.3964
104.137 2444 49.4368
104.253 2636 51.342
104.37 2703 51.9904
104.487 2762 52.5547
104.603 2824 53.1413
104.72 2740 52.345
104.836 2657 51.5461
104.953 2594 50.9313
105.069 2359 48.5695
105.186 2088 45.6946
105.302 1932 43.9545
105.418 2002 44.7437
105.535 2293 47.8853
105.651 2588 50.8724
105.767 2867 53.5444
105.883 3156 56.1783
105.999 3099 55.6687
106.115 0 1
106.231 0 1
106.347 0 1
106.463 0 1
106.579 0 1
106.694 0 1
106.81 0 1
106.926 0 1
107.041 0 1
107.157 0 1
109.576 0 1
109.692 0 1
109.807 0 1
109.923 0 1
110.039 0 1
110.155 0 1
110.27 0 1
110.386 0 1
110.502 0 1
110.618 2145 46.3141
110.735 2551 50.5074
110.851 2857 53.4509
110.967 2914 53.9815
111.083 3044 55.1725
111.199 2941 54.231
111.316 3112 55.7853
111.432 3157 56.1872
111.549 3032 55.0636
111.665 3029 55.0364
111.782 2913 53.9722
111.898 2849 53.376
112.015 2712 52.0769
112.132 2584 50.8331
112.248 2573 50.7247
112.365 2584 50.8331
112.482 2469 49.689
112.599 2622 51.2055
112.716 2651 51.4879
112.832 2661 51.5849
112.949 2815 53.0566
113.066 2819 53.0943
113.183 2752 52.4595
113.3 2671 51.6817
113.417 2599 50.9804
113.534 2655 51.5267
113.652 2271 47.655
113.769 2031 45.0666
113.886 1971 44.3959
114.003 1814 42.5911
114.12 2033 45.0888
114.238 2505 50.05
114.355 2888 53.7401
114.472 2956 54.3691
114.589 3106 55.7315
114.707 3104 55.7136
114.824 3096 55.6417
114.942 3064 55.3534
115.059 3106 55.7315
115.176 3061 55.3263
115.294 3029 55.0364
115.411 2976 54.5527
115.529 2899 53.8424
115.646 2934 54.1664
115.764 2787 52.792
115.881 2705 52.0096
115.999 2700 51.9615
116.116 2553 50.5272
116.234 2713 52.0865
116.351 2840 53.2917
116.469 2872 53.591
116.586 2816 53.066
116.704 2815 53.0566
116.821 2739 52.3355
116.939 2802 52.9339
117.056 2749 52.4309
117.174 2482 49.8197
117.291 2218 47.0956
117.409 2081 45.618
117.526 1932 43.9545
117.644 2051 45.288
117.761 2415 49.1426
117.879 2717 52.1249
117.996 2935 54.1756
118.114 2877 53.6377
118.231 3158 56.1961
118.349 3164 56.2494
118.466 3171 56.3116
118.584 3101 55.6866
118.701 3160 56.2139
118.819 3119 55.848
118.936 3019 54.9454
119.053 3056 55.2811
119.171 2859 53.4696
119.288 2807 52.9811
119.405 2849 53.376
119.523 2701 51.9711
119.64 2704 52
119.757 2806 52.9717
119.875 2733 52.2781
119.992 2673 51.7011
120.109 2832 53.2165
120.226 2884 53.7029
120.343 2911 53.9537
120.46 2852 53.4041
120.578 2717 52.1249
120.695 2610 51.0882
120.812 2577 50.7642
120.929 2272 47.6655
121.046 2099 45.8148
121.163 1928 43.909
121.279 1967 44.3509
121.396 2088 45.6946
121.513 2466 49.6588
121.63 2708 52.0384
121.747 2819 53.0943
121.863 3000 54.7723
121.98 3006 54.827
122.097 3056 55.2811
122.213 2979 54.5802
122.33 3107 55.7405
122.446 2969 54.4885
122.563 3027 55.0182
122.679 2877 53.6377
122.795 2824 53.1413
122.912 2823 53.1319
123.028 2779 52.7162
123.144 2670 51.672
123.26 2617 51.1566
123.377 0 1
123.493 0 1
123.609 0 1
123.725 0 1
123.84 0 1
123.956 0 1
124.072 0 1
124.188 0 1
124.303 0 1
124.419 0 1
126.852 0 1
126.968 0 1
127.083 0 1
127.199 0 1
127.315 0 1
127.431 0 1
127.547 0 1
127.663 0 1
127.779 0 1
127.895 0 1
128.011 0 1
128.127 0 1
128.243 0 1
128.359 2974 54.5344
128.476 2982 54.6077
128.592 2992 54.6992
128.708 2965 54.4518
128.825 2999 54.7631
128.941 3045 55.1815
129.058 3033 55.0727
129.174 3091 55.5968
129.291 3191 56.4889
129.408 3094 55.6237
129.524 2979 54.5802
129.641 2974 54.5344
129.758 2785 52.7731
129.875 2522 50.2195
129.992 2351 48.4871
130.108 2186 46.7547
130.225 2069 45.4863
130.342 2358 48.5592
130.459 2589 50.8822
130.576 3057 55.2901
130.693 3245 56.9649
130.81 3245 56.9649
130.928 3425 58.5235
131.045 3326 57.6715
131.162 3311 57.5413
131.279 3421 58.4893
131.396 3414 58.4294
131.513 3249 57
131.631 3268 57.1664
131.748 3223 56.7715
131.865 3240 56.921
131.983 3316 57.5847
132.1 3249 57
132.217 3222 56.7627
132.335 3294 57.3934
132.452 3240 56.921
132.57 3154 56.1605
132.687 3130 55.9464
132.804 3408 58.3781
132.922 3217 56.7186
133.039 3249 57
133.157 3211 56.6657
133.274 3064 55.3534
133.392 2675 51.7204
133.509 2556 50.5569
133.627 2227 47.1911
133.744 2153 46.4004
133.862 2232 47.244
133.979 2647 51.449
134.097 3037 55.109
134.214 3111 55.7763
134.332 3335 57.7495
134.449 3257 57.0701
134.567 3328 57.6888
134.684 3360 57.9655
134.802 3362 57.9828
134.919 3388 58.2065
135.037 3348 57.8619
135.154 3369 58.0431
135.272 3274 57.2189
135.389 3282 57.2887
135.507 3283 57.2975
135.624 3251 57.0175
135.742 3243 56.9473
135.859 3324 57.6541
135.977 3239 56.9122
136.094 3200 56.5685
136.211 3278 57.2538
136.329 3252 57.0263
136.446 3328 57.6888
136.564 3233 56.8595
136.681 3172 56.3205
136.798 3134 55.9821
136.915 3024 54.9909
137.033 2625 51.2348
137.15 2364 48.621
137.267 2354 48.518
137.384 2219 47.1063
137.502 2276 47.7074
137.619 2548 50.4777
137.736 2959 54.3967
137.853 3067 55.3805
137.97 3274 57.2189
138.087 3221 56.7539
138.204 3288 57.3411
138.321 3454 58.7707
138.438 3455 58.7792
138.555 3432 58.5833
138.672 3400 58.3095
138.788 3247 56.9825
138.905 3433 58.5918
139.022 3332 57.7235
139.139 3345 57.836
139.255 3333 57.7321
139.372 3366 58.0172
139.488 3292 57.376
139.605 3264 57.1314
139.721 3293 57.3847
139.838 3223 56.7715
139.954 3390 58.2237
140.071 3269 57.1752
140.187 3307 57.5065
140.303 3243 56.9473
140.419 3203 56.5951
140.535 2926 54.0925
140.652 2764 52.5738
140.768 0 1
140.884 0 1
141 0 1
141.115 0 1
141.231 0 1
141.347 0 1
141.463 0 1
141.578 0 1
141.694 0 1
144.104 0 1
144.219 0 1
144.335 0 1
144.45 0 1
144.566 0 1
144.682 0 1
144.798 0 1
144.914 0 1
145.03 0 1
145.146 2364 48.621
145.262 2585 50.8429
145.378 2673 51.7011
145.494 2703 51.9904
145.61 2524 50.2394
145.726 2442 49.4166
145.842 2188 46.7761
145.959 2034 45.0999
146.075 1960 44.2719
146.192 1903 43.6234
146.308 1862 43.1509
146.425 2106 45.8912
146.541 2144 46.3033
146.658 2311 48.0729
146.774 2564 50.636
146.891 2676 51.7301
147.008 2671 51.6817
147.125 2727 52.2207
147.241 2843 53.3198
147.358 2797 52.8867
147.475 2845 53.3385
147.592 2846 53.3479
147.709 2938 54.2033
147.826 2972 54.5161
147.943 2872 53.591
148.06 2830 53.1977
148.177 2938 54.2033
148.294 2854 53.4228
148.411 2806 52.9717
148.528 2842 53.3104
148.645 2883 53.6936
148.762 2822 53.1225
148.88 2826 53.1601
148.997 2850 53.3854
149.114 2943 54.2494
149.231 2827 53.1695
149.349 2851 53.3948
149.466 2742 52.3641
149.583 2508 50.0799
149.701 2271 47.655
149.818 2171 46.594
149.935 2025 45
150.053 2045 45.2217
150.17 2073 45.5302
150.287 2225 47.1699
150.405 2402 49.0102
150.522 2572 50.7149
150.64 2723 52.1824
150.757 2842 53.3104
150.875 2865 53.5257
150.992 2978 54.5711
151.11 3022 54.9727
151.227 3022 54.9727
151.344 3058 55.2992
151.462 3093 55.6147
151.579 3054 55.263
151.697 3059 55.3082
151.814 3085 55.5428
151.932 2994 54.7175
152.049 2936 54.1849
152.167 2940 54.2218
152.284 2875 53.619
152.402 2946 54.2771
152.519 2927 54.1018
152.636 2943 54.2494
152.754 2962 54.4243
152.871 2989 54.6717
152.989 2954 54.3507
153.106 2743 52.3737
153.223 2713 52.0865
153.341 2500 50
153.458 2260 47.5395
153.575 2154 46.4112
153.693 2118 46.0217
153.81 2195 46.8508
153.927 2356 48.5386
154.044 2468 49.679
154.162 2701 51.9711
154.279 2910 53.9444
154.396 2949 54.3047
154.513 2990 54.6809
154.63 3050 55.2268
154.747 3149 56.116
154.864 3063 55.3444
154.981 3211 56.6657
155.098 3155 56.1694
155.215 3124 55.8928
155.332 3086 55.5518
155.449 3139 56.0268
155.566 3038 55.1181
155.683 3019 54.9454
155.8 3127 55.9196
155.917 3075 55.4527
156.033 3041 55.1453
156.15 0 1
156.267 0 1
156.383 0 1
156.5 0 1
156.617 0 1
156.733 0 1
156.85 0 1
156.966 0 1
157.082 0 1
157.199 0 1
157.315 0 1
157.431 0 1
157.547 0 1
157.664 0 1
157.78 0 1
157.896 0 1
158.012 0 1
158.128 0 1
158.244 0 1
158.359 0 1
158.475 0 1
158.591 0 1
158.706 0 1
