
6.15755 0 1
6.2731 0 1
6.3887 0 1
6.50437 0 1
6.62009 0 1
6.73587 0 1
6.8517 0 1
6.96759 0 1
7.08353 0 1
7.19952 0 1
7.31557 0 1
7.43166 0 1
7.54781 0 1
7.664 0 1
7.78024 0 1
7.89653 0 1
8.01286 0 1
8.12924 0 1
8.24567 0 1
8.36213 0 1
8.47864 0 1
8.59519 0 1
8.71178 0 1
8.82841 0 1
8.94508 0 1
9.06179 0 1
9.17853 0 1
9.29531 0 1
9.41212 0 1
9.52897 0 1
9.64584 0 1
9.76276 0 1
9.8797 0 1
9.99667 0 1
10.1137 0 1
10.2307 0 1
10.3478 0 1
10.4648 0 1
10.5819 0 1
10.6991 0 1
10.8162 0 1
10.9334 0 1
11.0506 0 1
11.1678 0 1
11.285 0 1
11.4023 0 1
11.5196 0 1
11.6369 0 1
11.7542 0 1
11.8715 0 1
11.9888 0 1
12.1062 0 1
12.2235 0 1
12.3409 0 1
12.4582 0 1
12.5756 0 1
12.693 0 1
12.8104 0 1
12.9278 0 1
13.0452 0 1
13.1626 0 1
13.28 0 1
13.3974 0 1
13.5149 0 1
13.6323 0 1
13.7497 0 1
13.8671 0 1
13.9845 0 1
14.1019 0 1
14.2193 0 1
14.3367 0 1
14.4541 0 1
14.5714 0 1
14.6888 0 1
14.8062 0 1
14.9235 0 1
15.0408 0 0
15.1581 0 0
15.2755 0 0
15.3927 0 0
15.51 0 0
15.6273 0 0
15.7445 0 0
15.8617 0 0
15.9789 0 0
16.0961 0 0
16.2132 0 0
16.3304 0 0
16.4475 0 0
16.5646 0 0
16.6816 0 0
16.7986 0 0
16.9156 0 0
17.0326 0 0
17.1496 0 0
17.2665 0 0
17.3833 0 0
17.5002 0 0
17.617 0 0
17.7338 0 0
17.8505 0 0
17.9672 0 0
18.0839 0 0
18.2005 0 0
18.3171 0 0
18.4337 0 0
18.5502 0 0
18.6666 0 0
18.7831 0 0
18.8994 0 0
19.0158 0 0
19.1321 0 0
19.2483 0 0
19.3645 0 0
19.4806 0 0
19.5967 0 0
19.7128 0 0
19.8288 0 0
19.9447 0 0
20.0606 0 1
20.1764 0 1
20.2922 0 1
20.4079 0 1
20.5236 0 1
20.6392 0 1
20.7548 0 1
20.8702 0 1
23.3078 0 1
23.4233 0 1
23.539 0 1
23.6547 0 1
23.7704 0 1
23.8862 0 1
24.0021 0 1
24.118 0 1
24.234 0 1
24.35 0 1
24.4661 16771 129.503
24.5822 16872 129.892
24.6984 16897 129.988
24.8146 16295 127.652
24.9309 16042 126.657
25.0472 15677 125.208
25.1636 15896 126.079
25.28 15720 125.379
25.3965 16152 127.091
25.513 16468 128.328
25.6296 16952 130.2
25.7462 17438 132.053
25.8628 17461 132.14
25.9795 17629 132.774
26.0962 17735 133.173
26.213 17488 132.242
26.3298 17742 133.199
26.4466 17199 131.145
26.5635 16542 128.616
26.6804 16091 126.85
26.7973 16164 127.138
26.9143 17028 130.491
27.0313 17081 130.694
27.1483 17477 132.201
27.2653 17857 133.63
27.3824 17907 133.817
27.4996 17889 133.75
27.6167 18102 134.544
27.7339 17698 133.034
27.8511 17269 131.412
27.9683 16900 130
28.0855 16668 129.105
28.2028 16542 128.616
28.3201 15953 126.305
28.4374 15752 125.507
28.5547 15295 123.673
28.6721 14773 121.544
28.7894 14589 120.785
28.9068 14845 121.84
29.0242 15173 123.179
29.1416 15193 123.26
29.259 15832 125.825
29.3764 15724 125.395
29.4939 16124 126.98
29.6113 16162 127.13
29.7288 16225 127.377
29.8463 16053 126.7
29.9638 15552 124.708
30.0812 15203 123.3
30.1987 15101 122.886
30.3162 14854 121.877
30.4337 15491 124.463
30.5512 15947 126.281
30.6687 16329 127.785
30.7862 16678 129.143
30.9037 16873 129.896
31.0212 17137 130.908
31.1387 17156 130.981
31.2562 16855 129.827
31.3737 16646 129.019
31.4912 16505 128.472
31.6087 16413 128.113
31.7262 16016 126.554
31.8436 15513 124.551
31.9611 15452 124.306
32.0785 14838 121.811
32.1959 14880 121.984
32.3134 14380 119.917
32.4308 14532 120.549
32.5482 14815 121.717
32.6655 14962 122.319
32.7829 15211 123.333
32.9002 15219 123.365
33.0176 15515 124.559
33.1349 15530 124.619
33.2522 15616 124.964
33.3694 16033 126.621
33.4867 15761 125.543
33.6039 15335 123.835
33.7211 15099 122.878
33.8383 15001 122.479
33.9554 14793 121.626
34.0725 15315 123.754
34.1896 15856 125.921
34.3067 16160 127.122
34.4237 16655 129.054
34.5407 16899 129.996
34.6577 17019 130.457
34.7746 17198 131.141
34.8915 17079 130.687
35.0084 16577 128.752
35.1252 16395 128.043
35.242 16386 128.008
35.3587 16243 127.448
35.4755 15977 126.4
35.5921 15499 124.495
35.7088 14904 122.082
35.8254 14588 120.781
35.9419 14432 120.133
36.0584 14132 118.878
36.1749 14240 119.331
36.2913 14248 119.365
36.4077 14336 119.733
36.524 14746 121.433
36.6403 14977 122.381
36.7565 15208 123.321
36.8727 15360 123.935
36.9889 15166 123.15
37.1049 15443 124.27
37.221 0 1
37.3369 0 1
37.4529 0 1
37.5687 0 1
37.6845 0 1
37.8003 0 1
37.916 0 1
38.0316 0 1
38.1472 0 1
40.5851 0 1
40.7008 0 1
40.8164 0 1
40.9322 0 1
41.048 0 1
41.1639 0 1
41.2798 0 1
41.3958 0 1
41.5118 0 1
41.6279 0 1
41.744 12335 111.063
41.8602 12571 112.12
41.9765 13062 114.289
42.0928 13227 115.009
42.2091 13415 115.823
42.3255 13336 115.482
42.4419 12992 113.982
42.5584 12694 112.668
42.675 12208 110.49
42.7915 12602 112.259
42.9081 13142 114.639
43.0248 13534 116.336
43.1415 13873 117.784
43.2582 14241 119.336
43.375 14468 120.283
43.4918 14723 121.338
43.6087 14556 120.648
43.7256 14222 119.256
43.8425 14253 119.386
43.9595 13875 117.792
44.0765 13842 117.652
44.1935 13348 115.534
44.3106 13159 114.713
44.4277 12708 112.73
44.5448 11882 109.005
44.6619 11300 106.301
44.7791 11282 106.217
44.8963 11115 105.428
45.0136 11068 105.205
45.1308 11241 106.024
45.2481 11244 106.038
45.3654 11698 108.157
45.4827 11536 107.406
45.6001 11708 108.204
45.7174 11655 107.958
45.8348 11772 108.499
45.9522 11659 107.977
46.0697 11084 105.281
46.1871 10585 102.883
46.3046 10594 102.927
46.422 10738 103.624
46.5395 11321 106.4
46.657 11596 107.685
46.7745 11712 108.222
46.892 11706 108.194
47.0096 12222 110.553
47.1271 12103 110.014
47.2446 11971 109.412
47.3622 11769 108.485
47.4797 11519 107.327
47.5973 11292 106.264
47.7149 11137 105.532
47.8324 10616 103.034
47.95 10470 102.323
48.0675 9737 98.6762
48.1851 9442 97.17
48.3027 8959 94.652
48.4202 8939 94.5463
48.5378 8962 94.6678
48.6554 9334 96.6126
48.7729 9221 96.026
48.8904 9517 97.5551
49.008 9680 98.387
49.1255 10072 100.359
49.243 9862 99.3076
49.3605 10043 100.215
49.478 9720 98.5901
49.5955 9529 97.6166
49.713 9457 97.2471
49.8304 9316 96.5194
49.9479 9791 98.9495
50.0653 10671 103.301
50.1827 11248 106.057
50.3001 11759 108.439
50.4175 12370 111.221
50.5348 12564 112.089
50.6521 13072 114.333
50.7694 13378 115.663
50.8867 13280 115.239
51.004 13416 115.827
51.1212 13922 117.992
51.2384 14018 118.398
51.3556 13641 116.795
51.4727 13343 115.512
51.5899 12907 113.609
51.707 12191 110.413
51.824 12177 110.349
51.9411 11888 109.032
52.0581 12111 110.05
52.175 12734 112.845
52.2919 12920 113.666
52.4088 13217 114.965
52.5257 13405 115.78
52.6425 13368 115.62
52.7593 13520 116.276
52.876 14152 118.962
52.9927 14140 118.912
53.1094 13887 117.843
53.226 13578 116.525
53.3426 13538 116.353
53.4591 13679 116.957
53.5756 14176 119.063
53.692 15342 123.863
53.8084 15866 125.96
53.9248 16653 129.047
54.0411 16979 130.303
54.1573 17412 131.955
54.2735 0 1
54.3896 0 1
54.5057 0 1
54.6217 0 1
54.7377 0 1
54.8537 0 1
54.9695 0 1
55.0853 0 1
55.2011 0 1
55.3168 0 1
55.4324 0 1
57.824 0 1
57.9396 0 1
58.0553 0 1
58.1711 0 1
58.2869 0 1
58.4028 0 1
58.5187 0 1
58.6347 0 1
58.7508 0 1
58.8669 0 1
58.983 18922 137.557
59.0992 19986 141.372
59.2155 20410 142.864
59.3318 20688 143.833
59.4482 21056 145.107
59.5646 21021 144.986
59.681 21053 145.097
59.7975 20851 144.399
59.9141 19996 141.407
60.0306 19392 139.255
60.1473 18493 135.989
60.2639 17667 132.917
60.3807 16458 128.289
60.4974 15926 126.198
60.6142 15550 124.7
60.731 15187 123.236
60.8479 15494 124.475
60.9648 16098 126.878
61.0818 16442 128.226
61.1987 16815 129.673
61.3158 17020 130.461
61.4328 16880 129.923
61.5499 16810 129.653
61.667 16147 127.071
61.7841 16104 126.902
61.9013 15929 126.21
62.0185 16071 126.771
62.1357 16258 127.507
62.253 17153 130.969
62.3702 18069 134.421
62.4875 18701 136.752
62.6049 18836 137.244
62.7222 19992 141.393
62.8396 19848 140.883
62.9569 20076 141.69
63.0743 20050 141.598
63.1918 19736 140.485
63.3092 19711 140.396
63.4267 19125 138.293
63.5441 18203 134.918
63.6616 17640 132.816
63.7791 16003 126.503
63.8966 15089 122.837
64.0142 14458 120.241
64.1317 14333 119.721
64.2492 14003 118.334
64.3668 14417 120.071
64.4843 14696 121.227
64.6019 15483 124.431
64.7195 15437 124.246
64.837 15656 125.124
64.9546 15725 125.399
65.0722 15612 124.948
65.1898 15404 124.113
65.3074 15038 122.63
65.4249 14524 120.516
65.5425 14479 120.329
65.6601 14785 121.594
65.7777 15759 125.535
65.8952 16308 127.703
66.0128 17341 131.685
66.1304 17862 133.649
66.2479 18686 136.697
66.3655 18710 136.785
66.483 19322 139.004
66.6005 19457 139.488
66.718 19167 138.445
66.8355 19004 137.855
66.953 18739 136.89
67.0705 18144 134.7
67.1879 17356 131.742
67.3054 16612 128.888
67.4228 15561 124.744
67.5402 14101 118.748
67.6576 13841 117.648
67.7749 13488 116.138
67.8923 13747 117.248
68.0096 14052 118.541
68.1269 15061 122.723
68.2442 15393 124.069
68.3614 15881 126.02
68.4787 16229 127.393
68.5958 16315 127.73
68.713 16013 126.542
68.8302 15833 125.829
68.9473 15313 123.746
69.0643 14662 121.087
69.1814 14573 120.719
69.2984 15145 123.065
69.4154 16228 127.389
69.5323 17436 132.045
69.6492 18249 135.089
69.7661 19355 139.122
69.8829 19869 140.957
69.9997 20351 142.657
70.1165 20683 143.816
70.2332 20806 144.243
70.3499 20853 144.406
70.4665 20489 143.14
70.5831 20461 143.042
70.6996 19376 139.198
70.8161 18427 135.746
70.9326 17652 132.861
71.049 16205 127.299
71.1653 15336 123.839
71.2817 14176 119.063
71.3979 13725 117.154
71.5141 13828 117.593
71.6303 13995 118.3
71.7464 13462 116.026
71.8624 0 1
71.9784 0 1
72.0944 0 1
72.2102 0 1
72.3261 0 1
72.4418 0 1
72.5575 0 1
72.6732 0 1
75.1054 0 1
75.2209 0 1
75.3365 0 1
75.4521 0 1
75.5678 0 1
75.6835 0 1
75.7993 0 1
75.9151 0 1
76.031 0 1
76.147 17809 133.45
76.263 18306 135.3
76.3791 17508 132.318
76.4952 16176 127.185
76.6113 15396 124.081
76.7276 15036 122.621
76.8438 14980 122.393
76.9601 15259 123.527
77.0765 16064 126.744
77.1929 16632 128.965
77.3093 17437 132.049
77.4258 17761 133.27
77.5423 18065 134.406
77.6589 17948 133.97
77.7755 17306 131.552
77.8921 16859 129.842
78.0088 16128 126.996
78.1256 15426 124.201
78.2423 15346 123.879
78.3591 15963 126.345
78.4759 16946 130.177
78.5928 18149 134.718
78.7097 19306 138.946
78.8266 21007 144.938
78.9436 19830 140.819
79.0606 21296 145.931
79.1776 21181 145.537
79.2946 21115 145.31
79.4117 21040 145.052
79.5288 20952 144.748
79.6459 20188 142.084
79.7631 19434 139.406
79.8802 18553 136.209
79.9974 17429 132.019
80.1147 16275 127.574
80.2319 14774 121.548
80.3491 14112 118.794
80.4664 14207 119.193
80.5837 14489 120.37
80.701 14998 122.466
80.8183 15684 125.236
80.9357 16030 126.61
81.053 16432 128.187
81.1704 16513 128.503
81.2877 16539 128.604
81.4051 15812 125.746
81.5225 15656 125.124
81.6399 14606 120.855
81.7573 14357 119.821
81.8747 14010 118.364
81.9922 14513 120.47
82.1096 15322 123.782
82.227 16440 128.219
82.3444 17444 132.076
82.4619 18310 135.314
82.5793 18083 134.473
82.6967 19465 139.517
82.8142 19314 138.975
82.9316 19403 139.295
83.049 19365 139.158
83.1664 18933 137.597
83.2838 18330 135.388
83.4012 17201 131.153
83.5186 16383 127.996
83.636 15482 124.427
83.7534 14317 119.654
83.8708 13380 115.672
83.9881 12604 112.268
84.1055 12679 112.601
84.2228 12975 113.908
84.3401 13420 115.845
84.4575 14460 120.25
84.5747 15224 123.386
84.692 15947 126.281
84.8093 15817 125.766
84.9265 15589 124.856
85.0437 14720 121.326
85.1609 14081 118.663
85.2781 13723 117.145
85.3952 13446 115.957
85.5123 13447 115.961
85.6294 14120 118.828
85.7465 15536 124.643
85.8636 16611 128.884
85.9806 17769 133.3
86.0976 18468 135.897
86.2145 19558 139.85
86.3315 19386 139.234
86.4484 20674 143.785
86.5652 20342 142.625
86.682 20565 143.405
86.7988 20295 142.461
86.9156 19575 139.911
87.0323 18544 136.176
87.149 18149 134.718
87.2657 16752 129.43
87.3823 15752 125.507
87.4988 14705 121.264
87.6154 14442 120.175
87.7318 14589 120.785
87.8483 15450 124.298
87.9647 16513 128.503
88.081 17363 131.769
88.1973 18164 134.774
88.3136 18413 135.695
88.4298 17983 134.101
88.546 17692 133.011
88.6621 16084 126.823
88.7781 15252 123.499
88.8942 0 1
89.0101 0 1
89.126 0 1
89.2419 0 1
89.3577 0 1
89.4734 0 1
89.5891 0 1
89.7047 0 1
89.8203 0 1
89.9358 0 1
92.3269 0 1
92.4424 0 1
92.558 0 1
92.6736 0 1
92.7893 0 1
92.905 0 1
93.0208 0 1
93.1366 0 1
93.2525 0 1
93.3685 0 1
93.4845 0 1
93.6005 20378 142.752
93.7167 21700 147.309
93.8328 22125 148.745
93.949 22764 150.877
94.0653 22607 150.356
94.1816 22579 150.263
94.2979 22141 148.799
94.4143 22285 149.282
94.5307 22669 150.562
94.6472 23702 153.955
94.7637 25287 159.019
94.8803 28322 168.291
94.9969 29911 172.948
95.1135 32420 180.056
95.2302 33825 183.916
95.3469 36021 189.792
95.4637 36990 192.328
95.5805 38269 195.625
95.6973 39886 199.715
95.8142 40431 201.075
95.9311 40249 200.622
96.048 40344 200.858
96.1649 39678 199.193
96.2819 38675 196.66
96.3989 37370 193.313
96.516 35929 189.549
96.633 33669 183.491
96.7501 32421 180.058
96.8673 32911 181.414
96.9844 34372 185.397
97.1016 36829 191.909
97.2188 39846 199.615
97.336 42467 206.075
97.4532 42961 207.27
97.5704 43419 208.372
97.6877 42413 205.944
97.805 40738 201.837
97.9223 38066 195.105
98.0396 35829 189.285
98.1569 34546 185.866
98.2743 33747 183.704
98.3916 34540 185.849
98.509 37134 192.702
98.6264 40035 200.087
98.7438 41951 204.819
98.8612 43709 209.067
98.9786 45185 212.568
99.096 46152 214.83
99.2134 46649 215.984
99.3308 47281 217.442
99.4482 47311 217.511
99.5656 46495 215.627
99.6831 45608 213.56
99.8005 44052 209.886
99.9179 42564 206.31
100.035 41182 202.933
100.153 38231 195.527
100.27 35808 189.23
100.388 34845 186.668
100.505 35613 188.714
100.622 37445 193.507
100.74 40641 201.596
100.857 42174 205.363
100.975 43192 207.827
101.092 43031 207.439
101.209 43067 207.526
101.327 41719 204.252
101.444 39595 198.985
101.561 36472 190.976
101.679 34543 185.857
101.796 33667 183.486
101.913 32992 181.637
102.03 34571 185.933
102.148 37304 193.142
102.265 41564 203.873
102.382 39433 198.577
102.499 42045 205.049
102.616 43015 207.401
102.733 42773 206.816
102.851 42696 206.63
102.968 42010 204.963
103.085 41162 202.884
103.202 39531 198.824
103.319 37676 194.103
103.436 35819 189.259
103.552 33886 184.082
103.669 30440 174.471
103.786 27305 165.242
103.903 26104 161.567
104.02 26313 162.213
104.137 26580 163.034
104.253 28184 167.881
104.37 27492 165.807
104.487 27637 166.244
104.603 26838 163.823
104.72 25736 160.424
104.836 24545 156.668
104.953 22450 149.833
105.069 21155 145.448
105.186 20173 142.032
105.302 19561 139.861
105.418 19636 140.129
105.535 21013 144.959
105.651 22311 149.369
105.767 23494 153.278
105.883 24568 156.742
105.999 24995 158.098
106.115 0 1
106.231 0 1
106.347 0 1
106.463 0 1
106.579 0 1
106.694 0 1
106.81 0 1
106.926 0 1
107.041 0 1
107.157 0 1
109.576 0 1
109.692 0 1
109.807 0 1
109.923 0 1
110.039 0 1
110.155 0 1
110.27 0 1
110.386 0 1
110.502 0 1
110.618 18199 134.904
110.735 19729 140.46
110.851 21462 146.499
110.967 22186 148.95
111.083 22578 150.26
111.199 23302 152.65
111.316 23113 152.03
111.432 23436 153.088
111.549 23255 152.496
111.665 22486 149.953
111.782 21757 147.503
111.898 20848 144.388
112.015 19908 141.096
112.132 18455 135.849
112.248 17268 131.408
112.365 16407 128.09
112.482 16538 128.6
112.599 16392 128.031
112.716 17321 131.609
112.832 17760 133.267
112.949 17753 133.24
113.066 18222 134.989
113.183 17767 133.293
113.3 17385 131.852
113.417 16436 128.203
113.534 16105 126.905
113.652 15624 124.996
113.769 15678 125.212
113.886 15662 125.148
114.003 16467 128.324
114.12 17521 132.367
114.238 19074 138.109
114.355 20299 142.475
114.472 20908 144.596
114.589 21527 146.721
114.707 21990 148.29
114.824 22070 148.56
114.942 22289 149.295
115.059 22216 149.05
115.176 22152 148.835
115.294 21583 146.912
115.411 21040 145.052
115.529 20070 141.669
115.646 19380 139.212
115.764 18269 135.163
115.881 17221 131.229
115.999 16857 129.835
116.116 17001 130.388
116.234 17329 131.64
116.351 17966 134.037
116.469 18341 135.429
116.586 18326 135.374
116.704 18484 135.956
116.821 18309 135.311
116.939 17811 133.458
117.056 17056 130.599
117.174 16809 129.65
117.291 16743 129.395
117.409 16691 129.194
117.526 16960 130.231
117.644 18505 136.033
117.761 19628 140.1
117.879 20807 144.246
117.996 21447 146.448
118.114 22521 150.07
118.231 23044 151.803
118.349 22985 151.608
118.466 23291 152.614
118.584 23137 152.109
118.701 23392 152.944
118.819 22990 151.625
118.936 22580 150.266
119.053 22047 148.482
119.171 21158 145.458
119.288 20172 142.028
119.405 19032 137.957
119.523 17875 133.697
119.64 18050 134.35
119.757 17760 133.267
119.875 17943 133.951
119.992 18479 135.937
120.109 18510 136.051
120.226 18756 136.953
120.343 18630 136.492
120.46 17993 134.138
120.578 18055 134.369
120.695 17696 133.026
120.812 17146 130.943
120.929 17164 131.011
121.046 17184 131.088
121.163 17398 131.901
121.279 17925 133.884
121.396 19285 138.87
121.513 20488 143.136
121.63 21595 146.952
121.747 21962 148.196
121.863 22915 151.377
121.98 22970 151.559
122.097 23097 151.977
122.213 23288 152.604
122.33 23312 152.683
122.446 22939 151.456
122.563 22695 150.649
122.679 22021 148.395
122.795 21761 147.516
122.912 20859 144.426
123.028 20144 141.93
123.144 19061 138.062
123.26 18282 135.211
123.377 0 1
123.493 0 1
123.609 0 1
123.725 0 1
123.84 0 1
123.956 0 1
124.072 0 1
124.188 0 1
124.303 0 1
124.419 0 1
126.852 0 1
126.968 0 1
127.083 0 1
127.199 0 1
127.315 0 1
127.431 0 1
127.547 0 1
127.663 0 1
127.779 0 1
127.895 0 1
128.011 0 1
128.127 0 1
128.243 0 1
128.359 22019 148.388
128.476 20513 143.224
128.592 20083 141.715
128.708 20374 142.738
128.825 20564 143.402
128.941 20983 144.855
129.058 21346 146.103
129.174 21332 146.055
129.291 20815 144.274
129.408 20512 143.22
129.524 20174 142.035
129.641 19637 140.132
129.758 19333 139.043
129.875 19351 139.108
129.992 19068 138.087
130.108 19266 138.802
130.225 19798 140.705
130.342 20934 144.686
130.459 21331 146.051
130.576 23311 152.679
130.693 23138 152.112
130.81 23566 153.512
130.928 23815 154.321
131.045 23781 154.211
131.162 24178 155.493
131.279 24160 155.435
131.396 23867 154.489
131.513 23781 154.211
131.631 22833 151.106
131.748 22415 149.716
131.865 21672 147.214
131.983 20406 142.85
132.1 19715 140.41
132.217 19773 140.616
132.335 19862 140.933
132.452 20403 142.839
132.57 20748 144.042
132.687 19814 140.762
132.804 21201 145.606
132.922 20207 142.151
133.039 20109 141.806
133.157 19346 139.09
133.274 18939 137.619
133.392 19028 137.942
133.509 18792 137.084
133.627 19037 137.975
133.744 19271 138.82
133.862 20450 143.003
133.979 21377 146.209
134.097 22099 148.657
134.214 23105 152.003
134.332 22991 151.628
134.449 23605 153.639
134.567 23633 153.73
134.684 23620 153.688
134.802 24078 155.171
134.919 24344 156.026
135.037 23748 154.104
135.154 23451 153.137
135.272 23245 152.463
135.389 22210 149.03
135.507 21560 146.833
135.624 20298 142.471
135.742 19918 141.131
135.859 20110 141.81
135.977 20592 143.499
136.094 21330 146.048
136.211 21052 145.093
136.329 21413 146.332
136.446 20899 144.565
136.564 20542 143.325
136.681 20654 143.715
136.798 19625 140.089
136.915 19647 140.168
137.033 19848 140.883
137.15 19371 139.18
137.267 19565 139.875
137.384 19869 140.957
137.502 20821 144.295
137.619 21882 147.926
137.736 22894 151.308
137.853 22366 149.553
137.97 22913 151.37
138.087 23792 154.247
138.204 23464 153.18
138.321 24007 154.942
138.438 24275 155.804
138.555 24143 155.38
138.672 24412 156.243
138.788 24088 155.203
138.905 23382 152.912
139.022 22887 151.285
139.139 21944 148.135
139.255 21041 145.055
139.372 20534 143.297
139.488 21146 145.417
139.605 21174 145.513
139.721 21749 147.475
139.838 22002 148.331
139.954 21555 146.816
140.071 21002 144.921
140.187 20966 144.796
140.303 20377 142.748
140.419 20168 142.014
140.535 19549 139.818
140.652 19002 137.848
140.768 0 1
140.884 0 1
141 0 1
141.115 0 1
141.231 0 1
141.347 0 1
141.463 0 1
141.578 0 1
141.694 0 1
144.104 0 1
144.219 0 1
144.335 0 1
144.45 0 1
144.566 0 1
144.682 0 1
144.798 0 1
144.914 0 1
145.03 0 1
145.146 20241 142.271
145.262 19920 141.138
145.378 19595 139.982
145.494 19297 138.914
145.61 19121 138.279
145.726 18715 136.803
145.842 18528 136.118
145.959 19117 138.264
146.075 19395 139.266
146.192 19796 140.698
146.308 20550 143.353
146.425 20960 144.776
146.541 21377 146.209
146.658 21584 146.915
146.774 21689 147.272
146.891 22249 149.161
147.008 22758 150.858
147.125 23002 151.664
147.241 22815 151.046
147.358 22210 149.03
147.475 22220 149.064
147.592 21508 146.656
147.709 20846 144.381
147.826 20046 141.584
147.943 19587 139.954
148.06 19757 140.56
148.177 19984 141.365
148.294 20664 143.75
148.411 20893 144.544
148.528 20566 143.409
148.645 20337 142.608
148.762 20062 141.64
148.88 19799 140.709
148.997 19005 137.859
149.114 19807 140.737
149.231 18941 137.626
149.349 18915 137.532
149.466 18511 136.055
149.583 18396 135.632
149.701 19354 139.119
149.818 19831 140.823
149.935 20502 143.185
150.053 20392 142.801
150.17 20999 144.91
150.287 21812 147.689
150.405 22179 148.926
150.522 22704 150.678
150.64 22853 151.172
150.757 23080 151.921
150.875 23349 152.804
150.992 23130 152.086
151.11 22191 148.966
151.227 22123 148.738
151.344 21629 147.068
151.462 20932 144.679
151.579 20428 142.927
151.697 20745 144.031
151.814 21130 145.362
151.932 21405 146.304
152.049 22104 148.674
152.167 21988 148.284
152.284 21615 147.02
152.402 21580 146.901
152.519 21467 146.516
152.636 21312 145.986
152.754 20722 143.951
152.871 20329 142.58
152.989 20298 142.471
153.106 20281 142.411
153.223 19958 141.273
153.341 20585 143.475
153.458 21203 145.612
153.575 21953 148.165
153.693 22469 149.897
153.81 22820 151.063
153.927 23417 153.026
154.044 23873 154.509
154.162 24433 156.311
154.279 24728 157.251
154.396 24549 156.681
154.513 25258 158.928
154.63 24873 157.712
154.747 24404 156.218
154.864 23824 154.35
154.981 23627 153.711
155.098 22749 150.828
155.215 22225 149.081
155.332 22225 149.081
155.449 22456 149.853
155.566 23345 152.791
155.683 23239 152.443
155.8 22880 151.261
155.917 22653 150.509
156.033 22785 150.947
156.15 0 1
156.267 0 1
156.383 0 1
156.5 0 1
156.617 0 1
156.733 0 1
156.85 0 1
156.966 0 1
157.082 0 1
157.199 0 1
157.315 0 1
157.431 0 1
157.547 0 1
157.664 0 1
157.78 0 1
157.896 0 1
158.012 0 1
158.128 0 1
158.244 0 1
158.359 0 1
158.475 0 1
158.591 0 1
158.706 0 1
