
6.15755 0 1
6.2731 0 1
6.3887 0 1
6.50437 0 1
6.62009 0 1
6.73587 0 1
6.8517 0 1
6.96759 0 1
7.08353 0 1
7.19952 0 1
7.31557 0 1
7.43166 0 1
7.54781 0 1
7.664 0 1
7.78024 0 1
7.89653 0 1
8.01286 0 1
8.12924 0 1
8.24567 0 1
8.36213 0 1
8.47864 0 1
8.59519 0 1
8.71178 0 1
8.82841 0 1
8.94508 0 1
9.06179 0 1
9.17853 0 1
9.29531 0 1
9.41212 0 1
9.52897 0 1
9.64584 0 1
9.76276 0 1
9.8797 0 1
9.99667 0 1
10.1137 0 1
10.2307 0 1
10.3478 0 1
10.4648 0 1
10.5819 0 1
10.6991 0 1
10.8162 0 1
10.9334 0 1
11.0506 0 1
11.1678 0 1
11.285 0 1
11.4023 0 1
11.5196 0 1
11.6369 0 1
11.7542 0 1
11.8715 0 1
11.9888 0 1
12.1062 0 1
12.2235 0 1
12.3409 0 1
12.4582 0 1
12.5756 0 1
12.693 0 1
12.8104 0 1
12.9278 0 1
13.0452 0 1
13.1626 0 1
13.28 0 1
13.3974 0 1
13.5149 0 1
13.6323 0 1
13.7497 0 1
13.8671 0 1
13.9845 0 1
14.1019 0 1
14.2193 0 1
14.3367 0 1
14.4541 0 1
14.5714 0 1
14.6888 0 1
14.8062 0 1
14.9235 0 1
15.0408 1248 35.327
15.1581 1298 36.0278
15.2755 1333 36.5103
15.3927 1356 36.8239
15.51 1360 36.8782
15.6273 1261 35.5106
15.7445 1329 36.4555
15.8617 1270 35.6371
15.9789 1224 34.9857
16.0961 1285 35.8469
16.2132 1203 34.6843
16.3304 1267 35.5949
16.4475 1273 35.6791
16.5646 1291 35.9305
16.6816 1311 36.2077
16.7986 1292 35.9444
16.9156 1343 36.647
17.0326 1312 36.2215
17.1496 1274 35.6931
17.2665 1304 36.1109
17.3833 1328 36.4417
17.5002 1392 37.3095
17.617 1472 38.3667
17.7338 1446 38.0263
17.8505 1401 37.4299
17.9672 1497 38.6911
18.0839 1485 38.5357
18.2005 1601 40.0125
18.3171 1637 40.4599
18.4337 1600 40
18.5502 1681 41
18.6666 1703 41.2674
18.7831 1657 40.7063
18.8994 1661 40.7554
19.0158 1540 39.2428
19.1321 1431 37.8286
19.2483 1459 38.1969
19.3645 1340 36.606
19.4806 1269 35.623
19.5967 1264 35.5528
19.7128 1283 35.819
19.8288 1310 36.1939
19.9447 1114 33.3766
20.0606 0 1
20.1764 0 1
20.2922 0 1
20.4079 0 1
20.5236 0 1
20.6392 0 1
20.7548 0 1
20.8702 0 1
23.3078 0 1
23.4233 0 1
23.539 0 1
23.6547 0 1
23.7704 0 1
23.8862 0 1
24.0021 0 1
24.118 0 1
24.234 0 1
24.35 0 1
24.4661 1273 35.6791
24.5822 1337 36.565
24.6984 1257 35.4542
24.8146 1308 36.1663
24.9309 1226 35.0143
25.0472 1269 35.623
25.1636 1272 35.6651
25.28 1344 36.6606
25.3965 1367 36.973
25.513 1347 36.7015
25.6296 1469 38.3275
25.7462 1478 38.4448
25.8628 1441 37.9605
25.9795 1417 37.6431
26.0962 1514 38.9102
26.213 1493 38.6394
26.3298 1495 38.6652
26.4466 1472 38.3667
26.5635 1542 39.2683
26.6804 1615 40.1871
26.7973 1630 40.3733
26.9143 1623 40.2865
27.0313 1630 40.3733
27.1483 1633 40.4104
27.2653 1574 39.6737
27.3824 1572 39.6485
27.4996 1632 40.398
27.6167 1400 37.4166
27.7339 1413 37.5899
27.8511 1292 35.9444
27.9683 1319 36.318
28.0855 1251 35.3695
28.2028 1294 35.9722
28.3201 1248 35.327
28.4374 1265 35.5668
28.5547 1278 35.7491
28.6721 1292 35.9444
28.7894 1287 35.8748
28.9068 1293 35.9583
29.0242 1317 36.2905
29.1416 1324 36.3868
29.259 1302 36.0832
29.3764 1373 37.054
29.4939 1345 36.6742
29.6113 1433 37.855
29.7288 1410 37.55
29.8463 1473 38.3797
29.9638 1401 37.4299
30.0812 1470 38.3406
30.1987 1495 38.6652
30.3162 1464 38.2623
30.4337 1505 38.7943
30.5512 1512 38.8844
30.6687 1494 38.6523
30.7862 1544 39.2938
30.9037 1521 39
31.0212 1525 39.0512
31.1387 1458 38.1838
31.2562 1391 37.2961
31.3737 1312 36.2215
31.4912 1270 35.6371
31.6087 1202 34.6699
31.7262 1231 35.0856
31.8436 1227 35.0286
31.9611 1233 35.1141
32.0785 1196 34.5832
32.1959 1186 34.4384
32.3134 1221 34.9428
32.4308 1313 36.2353
32.5482 1279 35.7631
32.6655 1302 36.0832
32.7829 1280 35.7771
32.9002 1326 36.4143
33.0176 1295 35.9861
33.1349 1281 35.7911
33.2522 1316 36.2767
33.3694 1283 35.819
33.4867 1399 37.4032
33.6039 1406 37.4967
33.7211 1379 37.1349
33.8383 1412 37.5766
33.9554 1442 37.9737
34.0725 1479 38.4578
34.1896 1399 37.4032
34.3067 1448 38.0526
34.4237 1463 38.2492
34.5407 1376 37.0945
34.6577 1431 37.8286
34.7746 1350 36.7423
34.8915 1243 35.2562
35.0084 1294 35.9722
35.1252 1216 34.8712
35.242 1190 34.4964
35.3587 1136 33.7046
35.4755 1217 34.8855
35.5921 1151 33.9264
35.7088 1173 34.2491
35.8254 1195 34.5688
35.9419 1263 35.5387
36.0584 1259 35.4824
36.1749 1284 35.8329
36.2913 1275 35.7071
36.4077 1264 35.5528
36.524 1308 36.1663
36.6403 1267 35.5949
36.7565 1210 34.7851
36.8727 1286 35.8608
36.9889 1222 34.9571
37.1049 1261 35.5106
37.221 0 1
37.3369 0 1
37.4529 0 1
37.5687 0 1
37.6845 0 1
37.8003 0 1
37.916 0 1
38.0316 0 1
38.1472 0 1
40.5851 0 1
40.7008 0 1
40.8164 0 1
40.9322 0 1
41.048 0 1
41.1639 0 1
41.2798 0 1
41.3958 0 1
41.5118 0 1
41.6279 0 1
41.744 1023 31.9844
41.8602 1116 33.4066
41.9765 1158 34.0294
42.0928 1105 33.2415
42.2091 1105 33.2415
42.3255 1174 34.2637
42.4419 1117 33.4215
42.5584 1160 34.0588
42.675 1190 34.4964
42.7915 1166 34.1467
42.9081 1153 33.9559
43.0248 1238 35.1852
43.1415 1283 35.819
43.2582 1273 35.6791
43.375 1292 35.9444
43.4918 1266 35.5809
43.6087 1203 34.6843
43.7256 1319 36.318
43.8425 1191 34.5109
43.9595 1137 33.7194
44.0765 1091 33.0303
44.1935 1147 33.8674
44.3106 1122 33.4963
44.4277 1051 32.4191
44.5448 1092 33.0454
44.6619 1057 32.5115
44.7791 1026 32.0312
44.8963 1058 32.5269
45.0136 984 31.3688
45.1308 998 31.5911
45.2481 1070 32.7109
45.3654 952 30.8545
45.4827 986 31.4006
45.6001 910 30.1662
45.7174 896 29.9333
45.8348 905 30.0832
45.9522 885 29.7489
46.0697 898 29.9666
46.1871 857 29.2746
46.3046 836 28.9137
46.422 862 29.3598
46.5395 844 29.0517
46.657 831 28.8271
46.7745 838 28.9482
46.892 861 29.3428
47.0096 828 28.775
47.1271 906 30.0998
47.2446 781 27.9464
47.3622 765 27.6586
47.4797 776 27.8568
47.5973 749 27.3679
47.7149 775 27.8388
47.8324 767 27.6948
47.95 740 27.2029
48.0675 712 26.6833
48.1851 706 26.5707
48.3027 732 27.0555
48.4202 689 26.2488
48.5378 688 26.2298
48.6554 656 25.6125
48.7729 689 26.2488
48.8904 704 26.533
49.008 689 26.2488
49.1255 727 26.9629
49.243 659 25.671
49.3605 730 27.0185
49.478 722 26.8701
49.5955 675 25.9808
49.713 673 25.9422
49.8304 733 27.074
49.9479 707 26.5895
50.0653 750 27.3861
50.1827 748 27.3496
50.3001 762 27.6043
50.4175 833 28.8617
50.5348 756 27.4955
50.6521 809 28.4429
50.7694 803 28.3373
50.8867 791 28.1247
51.004 869 29.4788
51.1212 851 29.1719
51.2384 890 29.8329
51.3556 893 29.8831
51.4727 859 29.3087
51.5899 913 30.2159
51.707 914 30.2324
51.824 889 29.8161
51.9411 896 29.9333
52.0581 846 29.0861
52.175 842 29.0172
52.2919 918 30.2985
52.4088 900 30
52.5257 885 29.7489
52.6425 859 29.3087
52.7593 867 29.4449
52.876 898 29.9666
52.9927 895 29.9166
53.1094 935 30.5778
53.226 951 30.8383
53.3426 996 31.5595
53.4591 1022 31.9687
53.5756 1020 31.9374
53.692 1085 32.9393
53.8084 1108 33.2866
53.9248 1185 34.4238
54.0411 1116 33.4066
54.1573 1093 33.0606
54.2735 0 1
54.3896 0 1
54.5057 0 1
54.6217 0 1
54.7377 0 1
54.8537 0 1
54.9695 0 1
55.0853 0 1
55.2011 0 1
55.3168 0 1
55.4324 0 1
57.824 0 1
57.9396 0 1
58.0553 0 1
58.1711 0 1
58.2869 0 1
58.4028 0 1
58.5187 0 1
58.6347 0 1
58.7508 0 1
58.8669 0 1
58.983 1261 35.5106
59.0992 1361 36.8917
59.2155 1381 37.1618
59.3318 1427 37.7757
59.4482 1376 37.0945
59.5646 1459 38.1969
59.681 1515 38.923
59.7975 1443 37.9868
59.9141 1470 38.3406
60.0306 1428 37.7889
60.1473 1407 37.51
60.2639 1386 37.229
60.3807 1266 35.5809
60.4974 1305 36.1248
60.6142 1284 35.8329
60.731 1191 34.5109
60.8479 1107 33.2716
60.9648 1093 33.0606
61.0818 1114 33.3766
61.1987 1071 32.7261
61.3158 1108 33.2866
61.4328 1122 33.4963
61.5499 1230 35.0714
61.667 1188 34.4674
61.7841 1179 34.3366
61.9013 1128 33.5857
62.0185 1200 34.641
62.1357 1213 34.8281
62.253 1180 34.3511
62.3702 1223 34.9714
62.4875 1231 35.0856
62.6049 1272 35.6651
62.7222 1282 35.805
62.8396 1304 36.1109
62.9569 1381 37.1618
63.0743 1413 37.5899
63.1918 1400 37.4166
63.3092 1388 37.2559
63.4267 1369 37
63.5441 1304 36.1109
63.6616 1349 36.7287
63.7791 1268 35.609
63.8966 1222 34.9571
64.0142 1116 33.4066
64.1317 1100 33.1662
64.2492 1010 31.7805
64.3668 981 31.3209
64.4843 1068 32.6803
64.6019 1013 31.8277
64.7195 1008 31.749
64.837 1006 31.7175
64.9546 1055 32.4808
65.0722 1068 32.6803
65.1898 1016 31.8748
65.3074 1152 33.9411
65.4249 1146 33.8526
65.5425 1030 32.0936
65.6601 1067 32.665
65.7777 1185 34.4238
65.8952 1224 34.9857
66.0128 1171 34.2199
66.1304 1152 33.9411
66.2479 1149 33.8969
66.3655 1260 35.4965
66.483 1276 35.7211
66.6005 1336 36.5513
66.718 1410 37.55
66.8355 1421 37.6962
66.953 1367 36.973
67.0705 1297 36.0139
67.1879 1311 36.2077
67.3054 1271 35.6511
67.4228 1295 35.9861
67.5402 1101 33.1813
67.6576 1068 32.6803
67.7749 976 31.241
67.8923 985 31.3847
68.0096 996 31.5595
68.1269 991 31.4802
68.2442 983 31.3528
68.3614 990 31.4643
68.4787 999 31.607
68.5958 1031 32.1092
68.713 1052 32.4345
68.8302 1036 32.187
68.9473 1072 32.7414
69.0643 1139 33.7491
69.1814 1047 32.3574
69.2984 1054 32.4654
69.4154 1160 34.0588
69.5323 1170 34.2053
69.6492 1161 34.0735
69.7661 1241 35.2278
69.8829 1224 34.9857
69.9997 1364 36.9324
70.1165 1441 37.9605
70.2332 1388 37.2559
70.3499 1376 37.0945
70.4665 1447 38.0395
70.5831 1461 38.223
70.6996 1389 37.2693
70.8161 1339 36.5923
70.9326 1343 36.647
71.049 1108 33.2866
71.1653 1174 34.2637
71.2817 995 31.5436
71.3979 978 31.273
71.5141 974 31.209
71.6303 969 31.1288
71.7464 900 30
71.8624 0 1
71.9784 0 1
72.0944 0 1
72.2102 0 1
72.3261 0 1
72.4418 0 1
72.5575 0 1
72.6732 0 1
75.1054 0 1
75.2209 0 1
75.3365 0 1
75.4521 0 1
75.5678 0 1
75.6835 0 1
75.7993 0 1
75.9151 0 1
76.031 0 1
76.147 1219 34.9142
76.263 1263 35.5387
76.3791 1161 34.0735
76.4952 1098 33.1361
76.6113 1083 32.909
76.7276 1036 32.187
76.8438 1043 32.2955
76.9601 1094 33.0757
77.0765 1040 32.249
77.1929 1056 32.4962
77.3093 1093 33.0606
77.4258 1092 33.0454
77.5423 1176 34.2929
77.6589 1151 33.9264
77.7755 1095 33.0908
77.8921 1109 33.3017
78.0088 1073 32.7567
78.1256 1100 33.1662
78.2423 1186 34.4384
78.3591 1162 34.0881
78.4759 1165 34.1321
78.5928 1223 34.9714
78.7097 1369 37
78.8266 1337 36.565
78.9436 1416 37.6298
79.0606 1425 37.7492
79.1776 1424 37.7359
79.2946 1354 36.7967
79.4117 1460 38.2099
79.5288 1482 38.4968
79.6459 1381 37.1618
79.7631 1337 36.565
79.8802 1268 35.609
79.9974 1171 34.2199
80.1147 1146 33.8526
80.2319 1076 32.8024
80.3491 1032 32.1248
80.4664 1126 33.5559
80.5837 1045 32.3265
80.701 1057 32.5115
80.8183 1100 33.1662
80.9357 1130 33.6155
81.053 1061 32.573
81.1704 1184 34.4093
81.2877 1146 33.8526
81.4051 1140 33.7639
81.5225 1123 33.5112
81.6399 1102 33.1964
81.7573 1137 33.7194
81.8747 1063 32.6037
81.9922 1195 34.5688
82.1096 1214 34.8425
82.227 1355 36.8103
82.3444 1332 36.4966
82.4619 1364 36.9324
82.5793 1470 38.3406
82.6967 1487 38.5616
82.8142 1488 38.5746
82.9316 1376 37.0945
83.049 1473 38.3797
83.1664 1390 37.2827
83.2838 1333 36.5103
83.4012 1297 36.0139
83.5186 1179 34.3366
83.636 1115 33.3916
83.7534 1091 33.0303
83.8708 1104 33.2265
83.9881 1052 32.4345
84.1055 1077 32.8177
84.2228 1121 33.4813
84.3401 1135 33.6898
84.4575 1112 33.3467
84.5747 1152 33.9411
84.692 1176 34.2929
84.8093 1157 34.0147
84.9265 1234 35.1283
85.0437 1184 34.4093
85.1609 1223 34.9714
85.2781 1121 33.4813
85.3952 1154 33.9706
85.5123 1192 34.5254
85.6294 1221 34.9428
85.7465 1385 37.2156
85.8636 1410 37.55
85.9806 1488 38.5746
86.0976 1523 39.0256
86.2145 1597 39.9625
86.3315 1486 38.5487
86.4484 1560 39.4968
86.5652 1538 39.2173
86.682 1583 39.7869
86.7988 1510 38.8587
86.9156 1445 38.0132
87.0323 1423 37.7227
87.149 1251 35.3695
87.2657 1225 35
87.3823 1201 34.6554
87.4988 1164 34.1174
87.6154 1228 35.0428
87.7318 1168 34.176
87.8483 1210 34.7851
87.9647 1183 34.3948
88.081 1229 35.0571
88.1973 1333 36.5103
88.3136 1277 35.7351
88.4298 1272 35.6651
88.546 1256 35.4401
88.6621 1162 34.0881
88.7781 1126 33.5559
88.8942 0 1
89.0101 0 1
89.126 0 1
89.2419 0 1
89.3577 0 1
89.4734 0 1
89.5891 0 1
89.7047 0 1
89.8203 0 1
89.9358 0 1
92.3269 0 1
92.4424 0 1
92.558 0 1
92.6736 0 1
92.7893 0 1
92.905 0 1
93.0208 0 1
93.1366 0 1
93.2525 0 1
93.3685 0 1
93.4845 0 1
93.6005 1161 34.0735
93.7167 1187 34.4529
93.8328 1184 34.4093
93.949 1167 34.1614
94.0653 1171 34.2199
94.1816 1183 34.3948
94.2979 1173 34.2491
94.4143 1172 34.2345
94.5307 1195 34.5688
94.6472 1308 36.1663
94.7637 1282 35.805
94.8803 1458 38.1838
94.9969 1461 38.223
95.1135 1534 39.1663
95.2302 1462 38.2361
95.3469 1379 37.1349
95.4637 1460 38.2099
95.5805 1541 39.2556
95.6973 1457 38.1707
95.8142 1443 37.9868
95.9311 1381 37.1618
96.048 1359 36.8646
96.1649 1257 35.4542
96.2819 1233 35.1141
96.3989 1190 34.4964
96.516 1258 35.4683
96.633 1219 34.9142
96.7501 1208 34.7563
96.8673 1213 34.8281
96.9844 1152 33.9411
97.1016 1177 34.3074
97.2188 1246 35.2987
97.336 1168 34.176
97.4532 1229 35.0571
97.5704 1142 33.7935
97.6877 1146 33.8526
97.805 1147 33.8674
97.9223 1123 33.5112
98.0396 1188 34.4674
98.1569 1190 34.4964
98.2743 1229 35.0571
98.3916 1241 35.2278
98.509 1405 37.4833
98.6264 1434 37.8682
98.7438 1484 38.5227
98.8612 1419 37.6696
98.9786 1426 37.7624
99.096 1483 38.5097
99.2134 1441 37.9605
99.3308 1438 37.921
99.4482 1514 38.9102
99.5656 1311 36.2077
99.6831 1312 36.2215
99.8005 1297 36.0139
99.9179 1226 35.0143
100.035 1151 33.9264
100.153 1183 34.3948
100.27 1207 34.7419
100.388 1182 34.3802
100.505 1157 34.0147
100.622 1189 34.4819
100.74 1134 33.6749
100.857 1223 34.9714
100.975 1188 34.4674
101.092 1151 33.9264
101.209 1155 33.9853
101.327 1089 33
101.444 1062 32.5883
101.561 1137 33.7194
101.679 1095 33.0908
101.796 1219 34.9142
101.913 1255 35.426
102.03 1372 37.0405
102.148 1437 37.9078
102.265 1444 38
102.382 1629 40.3609
102.499 1583 39.7869
102.616 1415 37.6165
102.733 1537 39.2046
102.851 1553 39.4081
102.968 1556 39.4462
103.085 1519 38.9744
103.202 1433 37.855
103.319 1427 37.7757
103.436 1323 36.3731
103.552 1282 35.805
103.669 1382 37.1753
103.786 1328 36.4417
103.903 1238 35.1852
104.02 1223 34.9714
104.137 1251 35.3695
104.253 1256 35.4401
104.37 1326 36.4143
104.487 1252 35.3836
104.603 1264 35.5528
104.72 1197 34.5977
104.836 1184 34.4093
104.953 1258 35.4683
105.069 1196 34.5832
105.186 1231 35.0856
105.302 1283 35.819
105.418 1331 36.4829
105.535 1451 38.092
105.651 1579 39.7366
105.767 1544 39.2938
105.883 1615 40.1871
105.999 1491 38.6135
106.115 0 1
106.231 0 1
106.347 0 1
106.463 0 1
106.579 0 1
106.694 0 1
106.81 0 1
106.926 0 1
107.041 0 1
107.157 0 1
109.576 0 1
109.692 0 1
109.807 0 1
109.923 0 1
110.039 0 1
110.155 0 1
110.27 0 1
110.386 0 1
110.502 0 1
110.618 1181 34.3657
110.735 1314 36.2491
110.851 1357 36.8375
110.967 1408 37.5233
111.083 1319 36.318
111.199 1363 36.9188
111.316 1325 36.4005
111.432 1345 36.6742
111.549 1429 37.8021
111.665 1374 37.0675
111.782 1303 36.0971
111.898 1291 35.9305
112.015 1198 34.6121
112.132 1238 35.1852
112.248 1148 33.8821
112.365 1182 34.3802
112.482 1168 34.176
112.599 1056 32.4962
112.716 1088 32.9848
112.832 986 31.4006
112.949 1035 32.1714
113.066 1038 32.218
113.183 959 30.9677
113.3 1027 32.0468
113.417 922 30.3645
113.534 929 30.4795
113.652 988 31.4325
113.769 1000 31.6228
113.886 1013 31.8277
114.003 1050 32.4037
114.12 1078 32.8329
114.238 1125 33.541
114.355 1196 34.5832
114.472 1098 33.1361
114.589 1061 32.573
114.707 1028 32.0624
114.824 1130 33.6155
114.942 1202 34.6699
115.059 1106 33.2566
115.176 1115 33.3916
115.294 1035 32.1714
115.411 1076 32.8024
115.529 1059 32.5423
115.646 1016 31.8748
115.764 949 30.8058
115.881 945 30.7409
115.999 903 30.05
116.116 844 29.0517
116.234 882 29.6985
116.351 847 29.1033
116.469 796 28.2135
116.586 803 28.3373
116.704 782 27.9643
116.821 747 27.3313
116.939 781 27.9464
117.056 746 27.313
117.174 806 28.3901
117.291 835 28.8964
117.409 876 29.5973
117.526 868 29.4618
117.644 850 29.1548
117.761 851 29.1719
117.879 956 30.9192
117.996 877 29.6142
118.114 900 30
118.231 863 29.3769
118.349 875 29.5804
118.466 928 30.4631
118.584 989 31.4484
118.701 981 31.3209
118.819 992 31.496
118.936 976 31.241
119.053 965 31.0644
119.171 975 31.225
119.288 936 30.5941
119.405 899 29.9833
119.523 926 30.4302
119.64 838 28.9482
119.757 845 29.0689
119.875 848 29.1204
119.992 824 28.7054
120.109 774 27.8209
120.226 870 29.4958
120.343 815 28.5482
120.46 779 27.9106
120.578 885 29.7489
120.695 882 29.6985
120.812 913 30.2159
120.929 896 29.9333
121.046 953 30.8707
121.163 953 30.8707
121.279 945 30.7409
121.396 940 30.6594
121.513 1011 31.7962
121.63 966 31.0805
121.747 1014 31.8434
121.863 961 31
121.98 938 30.6268
122.097 954 30.8869
122.213 1114 33.3766
122.33 1137 33.7194
122.446 1159 34.0441
122.563 1127 33.5708
122.679 1102 33.1964
122.795 1107 33.2716
122.912 1062 32.5883
123.028 1076 32.8024
123.144 1069 32.6956
123.26 1041 32.2645
123.377 0 1
123.493 0 1
123.609 0 1
123.725 0 1
123.84 0 1
123.956 0 1
124.072 0 1
124.188 0 1
124.303 0 1
124.419 0 1
126.852 0 1
126.968 0 1
127.083 0 1
127.199 0 1
127.315 0 1
127.431 0 1
127.547 0 1
127.663 0 1
127.779 0 1
127.895 0 1
128.011 0 1
128.127 0 1
128.243 0 1
128.359 1313 36.2353
128.476 1270 35.6371
128.592 1204 34.6987
128.708 1177 34.3074
128.825 1215 34.8569
128.941 1183 34.3948
129.058 1177 34.3074
129.174 1192 34.5254
129.291 1112 33.3467
129.408 1162 34.0881
129.524 1112 33.3467
129.641 1133 33.6601
129.758 1097 33.121
129.875 1123 33.5112
129.992 1154 33.9706
130.108 1104 33.2265
130.225 1089 33
130.342 1135 33.6898
130.459 1147 33.8674
130.576 1071 32.7261
130.693 998 31.5911
130.81 939 30.6431
130.928 863 29.3769
131.045 952 30.8545
131.162 1082 32.8938
131.279 1101 33.1813
131.396 1120 33.4664
131.513 1214 34.8425
131.631 1146 33.8526
131.748 1119 33.4515
131.865 1179 34.3366
131.983 1126 33.5559
132.1 1084 32.9242
132.217 1102 33.1964
132.335 1074 32.7719
132.452 1019 31.9218
132.57 1017 31.8904
132.687 1011 31.7962
132.804 1061 32.573
132.922 981 31.3209
133.039 989 31.4484
133.157 980 31.305
133.274 954 30.8869
133.392 1002 31.6544
133.509 926 30.4302
133.627 948 30.7896
133.744 923 30.3809
133.862 930 30.4959
133.979 936 30.5941
134.097 908 30.133
134.214 807 28.4077
134.332 641 25.318
134.449 616 24.8193
134.567 735 27.1109
134.684 926 30.4302
134.802 906 30.0998
134.919 892 29.8664
135.037 901 30.0167
135.154 883 29.7153
135.272 854 29.2233
135.389 870 29.4958
135.507 892 29.8664
135.624 813 28.5132
135.742 852 29.189
135.859 780 27.9285
135.977 800 28.2843
136.094 834 28.8791
136.211 835 28.8964
136.329 808 28.4253
136.446 778 27.8927
136.564 829 28.7924
136.681 747 27.3313
136.798 752 27.4226
136.915 703 26.5141
137.033 709 26.6271
137.15 731 27.037
137.267 751 27.4044
137.384 704 26.533
137.502 747 27.3313
137.619 737 27.1477
137.736 691 26.2869
137.853 568 23.8328
137.97 527 22.9565
138.087 540 23.2379
138.204 698 26.4197
138.321 785 28.0179
138.438 803 28.3373
138.555 804 28.3549
138.672 820 28.6356
138.788 832 28.8444
138.905 869 29.4788
139.022 840 28.9828
139.139 841 29
139.255 857 29.2746
139.372 851 29.1719
139.488 857 29.2746
139.605 883 29.7153
139.721 889 29.8161
139.838 889 29.8161
139.954 842 29.0172
140.071 869 29.4788
140.187 902 30.0333
140.303 848 29.1204
140.419 843 29.0345
140.535 921 30.348
140.652 806 28.3901
140.768 0 1
140.884 0 1
141 0 1
141.115 0 1
141.231 0 1
141.347 0 1
141.463 0 1
141.578 0 1
141.694 0 1
144.104 0 1
144.219 0 1
144.335 0 1
144.45 0 1
144.566 0 1
144.682 0 1
144.798 0 1
144.914 0 1
145.03 0 1
145.146 759 27.55
145.262 752 27.4226
145.378 725 26.9258
145.494 703 26.5141
145.61 727 26.9629
145.726 711 26.6646
145.842 711 26.6646
145.959 617 24.8395
146.075 668 25.8457
146.192 636 25.219
146.308 658 25.6515
146.425 644 25.3772
146.541 590 24.2899
146.658 475 21.7945
146.774 512 22.6274
146.891 554 23.5372
147.008 606 24.6171
147.125 645 25.3969
147.241 626 25.02
147.358 644 25.3772
147.475 603 24.5561
147.592 611 24.7184
147.709 637 25.2389
147.826 629 25.0799
147.943 607 24.6374
148.06 579 24.0624
148.177 602 24.5357
148.294 569 23.8537
148.411 554 23.5372
148.528 583 24.1454
148.645 600 24.4949
148.762 529 23
148.88 538 23.1948
148.997 530 23.0217
149.114 513 22.6495
149.231 504 22.4499
149.349 486 22.0454
149.466 502 22.4054
149.583 499 22.3383
149.701 519 22.7816
149.818 504 22.4499
149.935 502 22.4054
150.053 459 21.4243
150.17 421 20.5183
150.287 396 19.8997
150.405 442 21.0238
150.522 476 21.8174
150.64 490 22.1359
150.757 523 22.8692
150.875 513 22.6495
150.992 528 22.9783
151.11 532 23.0651
151.227 499 22.3383
151.344 489 22.1133
151.462 480 21.9089
151.579 505 22.4722
151.697 499 22.3383
151.814 468 21.6333
151.932 566 23.7908
152.049 494 22.2261
152.167 518 22.7596
152.284 457 21.3776
152.402 483 21.9773
152.519 540 23.2379
152.636 494 22.2261
152.754 468 21.6333
152.871 533 23.0868
152.989 479 21.8861
153.106 494 22.2261
153.223 545 23.3452
153.341 475 21.7945
153.458 480 21.9089
153.575 513 22.6495
153.693 475 21.7945
153.81 460 21.4476
153.927 470 21.6795
154.044 488 22.0907
154.162 487 22.0681
154.279 570 23.8747
154.396 585 24.1868
154.513 562 23.7065
154.63 607 24.6374
154.747 590 24.2899
154.864 639 25.2784
154.981 622 24.9399
155.098 622 24.9399
155.215 564 23.7487
155.332 600 24.4949
155.449 633 25.1595
155.566 562 23.7065
155.683 573 23.9374
155.8 580 24.0832
155.917 489 22.1133
156.033 545 23.3452
156.15 0 1
156.267 0 1
156.383 0 1
156.5 0 1
156.617 0 1
156.733 0 1
156.85 0 1
156.966 0 1
157.082 0 1
157.199 0 1
157.315 0 1
157.431 0 1
157.547 0 1
157.664 0 1
157.78 0 1
157.896 0 1
158.012 0 1
158.128 0 1
158.244 0 1
158.359 0 1
158.475 0 1
158.591 0 1
158.706 0 1
