
6.15755 0 1
6.2731 0 1
6.3887 0 1
6.50437 0 1
6.62009 0 1
6.73587 0 1
6.8517 0 1
6.96759 0 1
7.08353 0 1
7.19952 0 1
7.31557 0 1
7.43166 0 1
7.54781 0 1
7.664 0 1
7.78024 0 1
7.89653 0 1
8.01286 0 1
8.12924 0 1
8.24567 0 1
8.36213 0 1
8.47864 0 1
8.59519 0 1
8.71178 0 1
8.82841 0 1
8.94508 0 1
9.06179 0 1
9.17853 0 1
9.29531 0 1
9.41212 0 1
9.52897 0 1
9.64584 0 1
9.76276 0 1
9.8797 0 1
9.99667 0 1
10.1137 0 1
10.2307 0 1
10.3478 0 1
10.4648 0 1
10.5819 0 1
10.6991 0 1
10.8162 0 1
10.9334 0 1
11.0506 0 1
11.1678 0 1
11.285 0 1
11.4023 0 1
11.5196 0 1
11.6369 0 1
11.7542 0 1
11.8715 0 1
11.9888 0 1
12.1062 0 1
12.2235 0 1
12.3409 0 1
12.4582 0 1
12.5756 0 1
12.693 0 1
12.8104 0 1
12.9278 0 1
13.0452 0 1
13.1626 0 1
13.28 0 1
13.3974 0 1
13.5149 0 1
13.6323 0 1
13.7497 0 1
13.8671 0 1
13.9845 0 1
14.1019 0 1
14.2193 0 1
14.3367 0 1
14.4541 0 1
14.5714 0 1
14.6888 0 1
14.8062 0 1
14.9235 0 1
15.0408 162560 403.187
15.1581 170993 413.513
15.2755 177029 420.748
15.3927 180342 424.667
15.51 177590 421.414
15.6273 177022 420.74
15.7445 174783 418.071
15.8617 172243 415.022
15.9789 170790 413.267
16.0961 168435 410.408
16.2132 167446 409.202
16.3304 167554 409.334
16.4475 172277 415.063
16.5646 178610 422.623
16.6816 185552 430.757
16.7986 192825 439.118
16.9156 196051 442.776
17.0326 195555 442.216
17.1496 194231 440.716
17.2665 191294 437.372
17.3833 189239 435.016
17.5002 182698 427.432
17.617 176744 420.409
17.7338 171298 413.882
17.8505 166626 408.198
17.9672 165252 406.512
18.0839 167169 408.863
18.2005 169609 411.836
18.3171 171022 413.548
18.4337 173350 416.353
18.5502 174629 417.886
18.6666 177655 421.491
18.7831 178856 422.914
18.8994 179200 423.32
19.0158 174304 417.497
19.1321 169483 411.683
19.2483 162174 402.708
19.3645 151984 389.851
19.4806 142823 377.919
19.5967 132741 364.336
19.7128 121784 348.976
19.8288 111750 334.29
19.9447 101959 319.31
20.0606 0 1
20.1764 0 1
20.2922 0 1
20.4079 0 1
20.5236 0 1
20.6392 0 1
20.7548 0 1
20.8702 0 1
23.3078 0 1
23.4233 0 1
23.539 0 1
23.6547 0 1
23.7704 0 1
23.8862 0 1
24.0021 0 1
24.118 0 1
24.234 0 1
24.35 0 1
24.4661 59336 243.59
24.5822 69126 262.918
24.6984 77396 278.201
24.8146 84720 291.067
24.9309 91375 302.283
25.0472 99788 315.892
25.1636 109292 330.593
25.28 120720 347.448
25.3965 130977 361.907
25.513 140513 374.851
25.6296 149170 386.225
25.7462 154147 392.616
25.8628 158518 398.143
25.9795 160287 400.359
26.0962 160445 400.556
26.213 155802 394.718
26.3298 148216 384.988
26.4466 142274 377.192
26.5635 139508 373.508
26.6804 139031 372.869
26.7973 141481 376.14
26.9143 142818 377.913
27.0313 142509 377.504
27.1483 146174 382.327
27.2653 147868 384.536
27.3824 149521 386.679
27.4996 148855 385.817
27.6167 145654 381.646
27.7339 143244 378.476
27.8511 139557 373.573
27.9683 134901 367.289
28.0855 130813 361.681
28.2028 127506 357.08
28.3201 121044 347.914
28.4374 116641 341.527
28.5547 116252 340.957
28.6721 119939 346.322
28.7894 124726 353.166
28.9068 131642 362.825
29.0242 138106 371.626
29.1416 143695 379.071
29.259 145760 381.785
29.3764 144703 380.398
29.4939 143815 379.229
29.6113 142051 376.897
29.7288 137360 370.621
29.8463 132009 363.33
29.9638 128470 358.427
30.0812 125329 354.018
30.1987 126623 355.841
30.3162 127862 357.578
30.4337 128994 359.157
30.5512 130173 360.795
30.6687 132244 363.654
30.7862 132831 364.46
30.9037 134883 367.264
31.0212 136524 369.492
31.1387 134742 367.072
31.2562 132784 364.395
31.3737 130002 360.558
31.4912 125770 354.641
31.6087 121921 349.172
31.7262 117981 343.484
31.8436 112499 335.409
31.9611 108164 328.883
32.0785 106913 326.976
32.1959 109590 331.044
32.3134 114598 338.523
32.4308 121278 348.25
32.5482 127198 356.648
32.6655 132605 364.15
32.7829 133455 365.315
32.9002 134038 366.112
33.0176 133542 365.434
33.1349 133243 365.025
33.2522 131109 362.09
33.3694 126932 356.275
33.4867 122402 349.86
33.6039 118706 344.537
33.7211 115976 340.552
33.8383 115131 339.31
33.9554 117088 342.181
34.0725 118947 344.887
34.1896 121318 348.307
34.3067 122736 350.337
34.4237 124077 352.246
34.5407 125941 354.882
34.6577 127372 356.892
34.7746 126464 355.618
34.8915 124447 352.77
35.0084 121570 348.669
35.1252 118249 343.874
35.242 116727 341.653
35.3587 111999 334.663
35.4755 108902 330.003
35.5921 103446 321.63
35.7088 99236 315.017
35.8254 98472 313.802
35.9419 101737 318.962
36.0584 105689 325.098
36.1749 109065 330.25
36.2913 113263 336.546
36.4077 115711 340.163
36.524 115738 340.203
36.6403 113003 336.159
36.7565 108917 330.026
36.8727 103931 322.383
36.9889 96986 311.426
37.1049 88756 297.919
37.221 0 1
37.3369 0 1
37.4529 0 1
37.5687 0 1
37.6845 0 1
37.8003 0 1
37.916 0 1
38.0316 0 1
38.1472 0 1
40.5851 0 1
40.7008 0 1
40.8164 0 1
40.9322 0 1
41.048 0 1
41.1639 0 1
41.2798 0 1
41.3958 0 1
41.5118 0 1
41.6279 0 1
41.744 54448 233.341
41.8602 61544 248.081
41.9765 67575 259.952
42.0928 71842 268.034
42.2091 73718 271.511
42.3255 73493 271.096
42.4419 74766 273.434
42.5584 76447 276.491
42.675 80607 283.914
42.7915 86747 294.528
42.9081 94090 306.741
43.0248 98039 313.112
43.1415 101168 318.069
43.2582 102079 319.498
43.375 103973 322.448
43.4918 104748 323.648
43.6087 105002 324.04
43.7256 103480 321.683
43.8425 101567 318.696
43.9595 99357 315.209
44.0765 97750 312.65
44.1935 95342 308.775
44.3106 91620 302.688
44.4277 87352 295.554
44.5448 80705 284.086
44.6619 78870 280.838
44.7791 83568 289.081
44.8963 87623 296.012
45.0136 94884 308.032
45.1308 102147 319.604
45.2481 105525 324.846
45.3654 106327 326.078
45.4827 105794 325.26
45.6001 106638 326.555
45.7174 105411 324.671
45.8348 101463 318.533
45.9522 97369 312.04
46.0697 94468 307.356
46.1871 91100 301.828
46.3046 93369 305.563
46.422 96770 311.079
46.5395 99109 314.816
46.657 101687 318.884
46.7745 103947 322.408
46.892 105367 324.603
47.0096 107316 327.591
47.1271 108817 329.874
47.2446 108364 329.187
47.3622 106983 327.083
47.4797 105555 324.892
47.5973 103120 321.123
47.7149 100374 316.819
47.8324 97272 311.885
47.95 93555 305.868
48.0675 87729 296.191
48.1851 81471 285.431
48.3027 82621 287.439
48.4202 86848 294.7
48.5378 93320 305.483
48.6554 100862 317.588
48.7729 107196 327.408
48.8904 109781 331.332
49.008 108293 329.079
49.1255 108638 329.603
49.243 105574 324.922
49.3605 100504 317.024
49.478 96374 310.442
49.5955 93327 305.495
49.713 90700 301.164
49.8304 91802 302.988
49.9479 95706 309.364
50.0653 98678 314.131
50.1827 101670 318.857
50.3001 104115 322.669
50.4175 105617 324.988
50.5348 107470 327.826
50.6521 108133 328.836
50.7694 108233 328.988
50.8867 107909 328.495
51.004 105240 324.407
51.1212 103746 322.096
51.2384 101072 317.918
51.3556 99143 314.87
51.4727 93180 305.254
51.5899 85762 292.851
51.707 81248 285.04
51.824 83720 289.344
51.9411 88510 297.506
52.0581 94953 308.144
52.175 103161 321.187
52.2919 109525 330.946
52.4088 111402 333.769
52.5257 112169 334.916
52.6425 112280 335.082
52.7593 111575 334.028
52.876 110080 331.783
52.9927 105389 324.637
53.1094 100351 316.782
53.226 96691 310.952
53.3426 93726 306.147
53.4591 92585 304.278
53.5756 93219 305.318
53.692 93102 305.126
53.8084 91647 302.733
53.9248 88661 297.76
54.0411 86971 294.908
54.1573 82419 287.087
54.2735 0 1
54.3896 0 1
54.5057 0 1
54.6217 0 1
54.7377 0 1
54.8537 0 1
54.9695 0 1
55.0853 0 1
55.2011 0 1
55.3168 0 1
55.4324 0 1
57.824 0 1
57.9396 0 1
58.0553 0 1
58.1711 0 1
58.2869 0 1
58.4028 0 1
58.5187 0 1
58.6347 0 1
58.7508 0 1
58.8669 0 1
58.983 69400 263.439
59.0992 82247 286.787
59.2155 92867 304.741
59.3318 101946 319.29
59.4482 110653 332.645
59.5646 118627 344.423
59.681 124685 353.108
59.7975 128335 358.239
59.9141 130305 360.978
60.0306 130474 361.212
60.1473 128075 357.876
60.2639 124519 352.872
60.3807 118300 343.948
60.4974 114892 338.957
60.6142 117337 342.545
60.731 123931 352.038
60.8479 132741 364.336
60.9648 143822 379.239
61.0818 150406 387.822
61.1987 152716 390.789
61.3158 154201 392.684
61.4328 152554 390.582
61.5499 148330 385.136
61.667 142444 377.418
61.7841 136441 369.379
61.9013 131860 363.125
62.0185 130340 361.026
62.1357 134159 366.277
62.253 140442 374.756
62.3702 146919 383.3
62.4875 150664 388.155
62.6049 153989 392.414
62.7222 157868 397.326
62.8396 159542 399.427
62.9569 161736 402.164
63.0743 161169 401.459
63.1918 160031 400.039
63.3092 158799 398.496
63.4267 155376 394.178
63.5441 151791 389.604
63.6616 144870 380.618
63.7791 136460 369.405
63.8966 124935 353.461
64.0142 119224 345.288
64.1317 121109 348.007
64.2492 127944 357.693
64.3668 138908 372.704
64.4843 151417 389.123
64.6019 160406 400.507
64.7195 164388 405.448
64.837 165152 406.389
64.9546 165426 406.726
65.0722 163694 404.591
65.1898 158212 397.759
65.3074 148418 385.251
65.4249 143826 379.244
65.5425 139631 373.672
65.6601 139687 373.747
65.7777 146986 383.388
65.8952 153460 391.74
66.0128 160232 400.29
66.1304 164832 405.995
66.2479 168630 410.646
66.3655 172061 414.802
66.483 175228 418.602
66.6005 176496 420.114
66.718 176063 419.599
66.8355 174040 417.181
66.953 172639 415.498
67.0705 169473 411.671
67.1879 164208 405.226
67.3054 158212 397.759
67.4228 146646 382.944
67.5402 133867 365.878
67.6576 126222 355.277
67.7749 129969 360.512
67.8923 136775 369.831
68.0096 147912 384.593
68.1269 165063 406.279
68.2442 175778 419.259
68.3614 181841 426.428
68.4787 183254 428.082
68.5958 182752 427.495
68.713 181787 426.365
68.8302 176150 419.702
68.9473 167570 409.353
69.0643 158310 397.882
69.1814 152952 391.091
69.2984 153323 391.565
69.4154 160657 400.82
69.5323 170873 413.368
69.6492 178103 422.023
69.7661 183134 427.942
69.8829 187348 432.837
69.9997 187576 433.1
70.1165 186017 431.297
70.2332 182937 427.711
70.3499 178441 422.423
70.4665 171396 414
70.5831 163803 404.726
70.6996 157427 396.771
70.8161 148998 386.003
70.9326 138678 372.395
71.049 122638 350.197
71.1653 102278 319.809
71.2817 79974 282.797
71.3979 67741 260.271
71.5141 63375 251.744
71.6303 61179 247.344
71.7464 56067 236.785
71.8624 0 1
71.9784 0 1
72.0944 0 1
72.2102 0 1
72.3261 0 1
72.4418 0 1
72.5575 0 1
72.6732 0 1
75.1054 0 1
75.2209 0 1
75.3365 0 1
75.4521 0 1
75.5678 0 1
75.6835 0 1
75.7993 0 1
75.9151 0 1
76.031 0 1
76.147 123189 350.983
76.263 131943 363.24
76.3791 134327 366.506
76.4952 132531 364.048
76.6113 128058 357.852
76.7276 130788 361.646
76.8438 140599 374.965
76.9601 153579 391.892
77.0765 169011 411.109
77.1929 188116 433.723
77.3093 199956 447.164
77.4258 202431 449.923
77.5423 201605 449.004
77.6589 202598 450.109
77.7755 197478 444.385
77.8921 183639 428.531
78.0088 172692 415.562
78.1256 163397 404.224
78.2423 158399 397.994
78.3591 158650 398.309
78.4759 170639 413.085
78.5928 181260 425.746
78.7097 189592 435.422
78.8266 194285 440.778
78.9436 200623 447.91
79.0606 202949 450.499
79.1776 205459 453.276
79.2946 207300 455.302
79.4117 207068 455.047
79.5288 205201 452.991
79.6459 203546 451.161
79.7631 198194 445.19
79.8802 192774 439.06
79.9974 185015 430.134
80.1147 172140 414.898
80.2319 154014 392.446
80.3491 143394 378.674
80.4664 145841 381.891
80.5837 155161 393.905
80.701 168477 410.459
80.8183 187150 432.608
80.9357 201396 448.772
81.053 205799 453.651
81.1704 204930 452.692
81.2877 206420 454.335
81.4051 204599 452.326
81.5225 195492 442.145
81.6399 186495 431.851
81.7573 168110 410.012
81.8747 161751 402.183
81.9922 154225 392.715
82.1096 160772 400.964
82.227 172889 415.799
82.3444 181690 426.251
82.4619 189136 434.898
82.5793 194405 440.914
82.6967 194308 440.804
82.8142 197145 444.01
82.9316 198460 445.488
83.049 198555 445.595
83.1664 194796 441.357
83.2838 192661 438.932
83.4012 187957 433.54
83.5186 182085 426.714
83.636 174522 417.758
83.7534 165067 406.284
83.8708 149688 386.895
83.9881 133193 364.956
84.1055 129996 360.55
84.2228 134484 366.721
84.3401 143560 378.893
84.4575 155864 394.796
84.5747 172704 415.577
84.692 181433 425.95
84.8093 185154 430.295
84.9265 182077 426.705
85.0437 179395 423.55
85.1609 170441 412.845
85.2781 154782 393.423
85.3952 145116 380.941
85.5123 137090 370.257
85.6294 134504 366.748
85.7465 143498 378.811
85.8636 153344 391.592
85.9806 159245 399.055
86.0976 165135 406.368
86.2145 168216 410.141
86.3315 169265 411.418
86.4484 172629 415.486
86.5652 171303 413.888
86.682 169951 412.251
86.7988 167969 409.84
86.9156 165314 406.588
87.0323 160886 401.106
87.149 156465 395.557
87.2657 147797 384.444
87.3823 134775 367.117
87.4988 115317 339.584
87.6154 98642 314.073
87.7318 95215 308.569
87.8483 97788 312.711
87.9647 102763 320.567
88.081 112902 336.009
88.1973 120691 347.406
88.3136 120377 346.954
88.4298 115322 339.591
88.546 107981 328.605
88.6621 98176 313.33
88.7781 80155 283.117
88.8942 0 1
89.0101 0 1
89.126 0 1
89.2419 0 1
89.3577 0 1
89.4734 0 1
89.5891 0 1
89.7047 0 1
89.8203 0 1
89.9358 0 1
92.3269 0 1
92.4424 0 1
92.558 0 1
92.6736 0 1
92.7893 0 1
92.905 0 1
93.0208 0 1
93.1366 0 1
93.2525 0 1
93.3685 0 1
93.4845 0 1
93.6005 89130 298.546
93.7167 97460 312.186
93.8328 103462 321.655
93.949 109595 331.051
94.0653 112766 335.806
94.1816 115265 339.507
94.2979 117830 343.264
94.4143 115680 340.118
94.5307 113591 337.033
94.6472 109876 331.475
94.7637 107091 327.248
94.8803 108240 328.998
94.9969 115824 340.329
95.1135 122514 350.02
95.2302 126416 355.55
95.3469 130767 361.617
95.4637 133060 364.774
95.5805 134958 367.366
95.6973 136142 368.974
95.8142 135167 367.651
95.9311 132773 364.38
96.048 132380 363.841
96.1649 130850 361.732
96.2819 127629 357.252
96.3989 122870 350.528
96.516 118861 344.762
96.633 112729 335.751
96.7501 102471 320.111
96.8673 93494 305.768
96.9844 91415 302.349
97.1016 94828 307.942
97.2188 100544 317.087
97.336 109851 331.438
97.4532 120775 347.527
97.5704 127345 356.854
97.6877 129736 360.189
97.805 128282 358.165
97.9223 126020 354.993
98.0396 118565 344.333
98.1569 110373 332.224
98.2743 102873 320.738
98.3916 97939 312.952
98.509 97549 312.328
98.6264 106266 325.985
98.7438 113436 336.803
98.8612 118793 344.664
98.9786 123145 350.92
99.096 125438 354.172
99.2134 127786 357.472
99.3308 130073 360.656
99.4482 130744 361.585
99.5656 129101 359.306
99.6831 129170 359.402
99.8005 126796 356.084
99.9179 123514 351.446
100.035 119810 346.136
100.153 114927 339.009
100.27 107752 328.256
100.388 97308 311.942
100.505 91874 303.107
100.622 93557 305.871
100.74 99166 314.906
100.857 108215 328.96
100.975 117420 342.666
101.092 125751 354.614
101.209 126165 355.197
101.327 125909 354.837
101.444 125066 353.647
101.561 120909 347.72
101.679 112368 335.213
101.796 103703 322.03
101.913 98307 313.539
102.03 95591 309.178
102.148 101047 317.879
102.265 107987 328.614
102.382 117818 343.246
102.499 120297 346.839
102.616 124388 352.687
102.733 126935 356.279
102.851 128435 358.378
102.968 128794 358.879
103.085 128434 358.377
103.202 127911 357.646
103.319 125800 354.683
103.436 123804 351.858
103.552 119111 345.125
103.669 113612 337.064
103.786 107612 328.043
103.903 97389 312.072
104.02 90862 301.433
104.137 93089 305.105
104.253 97396 312.083
104.37 109223 330.489
104.487 118848 344.743
104.603 124945 353.476
104.72 125577 354.368
104.836 122616 350.166
104.953 115853 340.372
105.069 107257 327.501
105.186 98948 314.56
105.302 91857 303.079
105.418 85843 292.99
105.535 81830 286.059
105.651 82191 286.69
105.767 82512 287.249
105.883 81548 285.566
105.999 78294 279.811
106.115 0 1
106.231 0 1
106.347 0 1
106.463 0 1
106.579 0 1
106.694 0 1
106.81 0 1
106.926 0 1
107.041 0 1
107.157 0 1
109.576 0 1
109.692 0 1
109.807 0 1
109.923 0 1
110.039 0 1
110.155 0 1
110.27 0 1
110.386 0 1
110.502 0 1
110.618 37542 193.758
110.735 51686 227.346
110.851 64638 254.24
110.967 73321 270.779
111.083 80612 283.923
111.199 89616 299.359
111.316 95933 309.731
111.432 100324 316.74
111.549 103519 321.744
111.665 104797 323.724
111.782 106648 326.57
111.898 106375 326.152
112.015 104546 323.336
112.132 100204 316.55
112.248 95069 308.333
112.365 87717 296.171
112.482 79638 282.202
112.599 79682 282.28
112.716 81707 285.844
112.832 86478 294.071
112.949 92527 304.183
113.066 100187 316.523
113.183 104880 323.852
113.3 105394 324.644
113.417 105108 324.204
113.534 104108 322.658
113.652 100551 317.098
113.769 93494 305.768
113.886 86270 293.718
114.003 81959 286.285
114.12 80235 283.258
114.238 85887 293.065
114.355 92343 303.88
114.472 93567 305.887
114.589 105092 324.179
114.707 104593 323.408
114.824 106696 326.644
114.942 108186 328.916
115.059 108605 329.553
115.176 108494 329.384
115.294 107476 327.835
115.411 105054 324.12
115.529 102527 320.198
115.646 99276 315.081
115.764 95372 308.824
115.881 89669 299.448
115.999 82586 287.378
116.116 77700 278.747
116.234 79878 282.627
116.351 83036 288.16
116.469 88465 297.431
116.586 94364 307.187
116.704 100497 317.013
116.821 102043 319.442
116.939 102254 319.772
117.056 101717 318.931
117.174 101066 317.909
117.291 94485 307.384
117.409 87037 295.02
117.526 82411 287.073
117.644 79110 281.265
117.761 81052 284.696
117.879 87223 295.335
117.996 92987 304.938
118.114 97535 312.306
118.231 101267 318.225
118.349 102050 319.453
118.466 103928 322.379
118.584 104484 323.24
118.701 104270 322.909
118.819 103860 322.273
118.936 101401 318.435
119.053 99756 315.842
119.171 96592 310.793
119.288 93903 306.436
119.405 89722 299.536
119.523 83550 289.05
119.64 78158 279.568
119.757 74808 273.511
119.875 76910 277.327
119.992 79895 282.657
120.109 83854 289.576
120.226 90558 300.929
120.343 94927 308.102
120.46 97343 311.998
120.578 97400 312.09
120.695 96496 310.638
120.812 96478 310.609
120.929 91968 303.262
121.046 85015 291.573
121.163 80086 282.995
121.279 76037 275.748
121.396 74724 273.357
121.513 78064 279.399
121.63 81245 285.035
121.747 83628 289.185
121.863 83958 289.755
121.98 85064 291.657
122.097 84034 289.886
122.213 83080 288.236
122.33 81094 284.77
122.446 78701 280.537
122.563 75804 275.325
122.679 70685 265.867
122.795 65918 256.745
122.912 60197 245.351
123.028 52712 229.591
123.144 44467 210.872
123.26 37880 194.628
123.377 0 1
123.493 0 1
123.609 0 1
123.725 0 1
123.84 0 1
123.956 0 1
124.072 0 1
124.188 0 1
124.303 0 1
124.419 0 1
126.852 0 1
126.968 0 1
127.083 0 1
127.199 0 1
127.315 0 1
127.431 0 1
127.547 0 1
127.663 0 1
127.779 0 1
127.895 0 1
128.011 0 1
128.127 0 1
128.243 0 1
128.359 88899 298.159
128.476 91283 302.131
128.592 92974 304.916
128.708 89915 299.858
128.825 86103 293.433
128.941 87369 295.582
129.058 89851 299.752
129.174 93611 305.959
129.291 100337 316.76
129.408 105944 325.49
129.524 108131 328.833
129.641 109061 330.244
129.758 108328 329.132
129.875 108072 328.743
129.992 102765 320.57
130.108 95675 309.314
130.225 90242 300.403
130.342 86196 293.592
130.459 85394 292.223
130.576 92666 304.411
130.693 98434 313.742
130.81 101338 318.336
130.928 104045 322.56
131.045 106564 326.441
131.162 107974 328.594
131.279 109067 330.253
131.396 109518 330.935
131.513 109731 331.257
131.631 108149 328.86
131.748 105464 324.752
131.865 103484 321.689
131.983 99244 315.03
132.1 96762 311.066
132.217 92669 304.416
132.335 87234 295.354
132.452 87500 295.804
132.57 90367 300.611
132.687 93922 306.467
132.804 97529 312.296
132.922 104173 322.758
133.039 107552 327.951
133.157 108557 329.48
133.274 108197 328.933
133.392 108341 329.152
133.509 105478 324.774
133.627 97971 313.003
133.744 93091 305.108
133.862 87595 295.965
133.979 85578 292.537
134.097 89725 299.541
134.214 96991 311.434
134.332 100066 316.332
134.449 102553 320.239
134.567 104866 323.83
134.684 106738 326.708
134.802 107750 328.253
134.919 108668 329.648
135.037 107818 328.357
135.154 106510 326.359
135.272 104918 323.91
135.389 103523 321.75
135.507 100485 316.994
135.624 97827 312.773
135.742 95033 308.274
135.859 89326 298.875
135.977 87166 295.239
136.094 89539 299.231
136.211 92057 303.409
136.329 96231 310.211
136.446 101966 319.321
136.564 105578 324.928
136.681 107886 328.46
136.798 106863 326.899
136.915 108728 329.739
137.033 107317 327.593
137.15 102592 320.3
137.267 96412 310.503
137.384 90610 301.015
137.502 86430 293.99
137.619 83971 289.778
137.736 89656 299.426
137.853 92008 303.328
137.97 98804 314.331
138.087 99564 315.538
138.204 102273 319.802
138.321 104379 323.077
138.438 104784 323.704
138.555 107113 327.281
138.672 105114 324.213
138.788 101740 318.967
138.905 96200 310.161
139.022 91694 302.81
139.139 85901 293.089
139.255 81982 286.325
139.372 76811 277.148
139.488 68761 262.223
139.605 63300 251.595
139.721 62308 249.616
139.838 61076 247.136
139.954 60354 245.671
140.071 61070 247.123
140.187 58818 242.524
140.303 54758 234.004
140.419 49889 223.358
140.535 46834 216.412
140.652 43823 209.339
140.768 0 1
140.884 0 1
141 0 1
141.115 0 1
141.231 0 1
141.347 0 1
141.463 0 1
141.578 0 1
141.694 0 1
144.104 0 1
144.219 0 1
144.335 0 1
144.45 0 1
144.566 0 1
144.682 0 1
144.798 0 1
144.914 0 1
145.03 0 1
145.146 67253 259.332
145.262 74103 272.219
145.378 77767 278.867
145.494 81389 285.288
145.61 83233 288.501
145.726 83169 288.39
145.842 82496 287.221
145.959 78332 279.879
146.075 73879 271.807
146.192 70432 265.39
146.308 67617 260.033
146.425 67095 259.027
146.541 69987 264.551
146.658 73064 270.304
146.774 75283 274.377
146.891 77256 277.95
147.008 79742 282.386
147.125 79664 282.248
147.241 81939 286.25
147.358 82147 286.613
147.475 82122 286.569
147.592 81242 285.03
147.709 79949 282.753
147.826 78278 279.782
147.943 76168 275.986
148.06 74910 273.697
148.177 72463 269.19
148.294 69983 264.543
148.411 69391 263.422
148.528 70441 265.407
148.645 72367 269.011
148.762 75271 274.356
148.88 78050 279.374
148.997 82312 286.901
149.114 80564 283.838
149.231 82611 287.421
149.349 82755 287.672
149.466 81596 285.65
149.583 80152 283.111
149.701 74436 272.83
149.818 70827 266.133
149.935 68012 260.791
150.053 66892 258.635
150.17 68099 260.958
150.287 71470 267.339
150.405 74106 272.224
150.522 76197 276.038
150.64 77185 277.822
150.757 78811 280.733
150.875 80168 283.14
150.992 79935 282.728
151.11 80314 283.397
151.227 79170 281.372
151.344 77905 279.115
151.462 76185 276.016
151.579 75788 275.296
151.697 73995 272.02
151.814 72046 268.414
151.932 69932 264.447
152.049 67976 260.722
152.167 69543 263.71
152.284 71801 267.957
152.402 73711 271.498
152.519 76260 276.152
152.636 79059 281.174
152.754 79525 282.002
152.871 79946 282.747
152.989 79305 281.611
153.106 78607 280.369
153.223 74526 272.995
153.341 70918 266.304
153.458 67402 259.619
153.575 64979 254.91
153.693 64632 254.228
153.81 67703 260.198
153.927 70509 265.535
154.044 72294 268.875
154.162 73751 271.571
154.279 74963 273.794
154.396 76414 276.431
154.513 77064 277.604
154.63 77659 278.674
154.747 77600 278.568
154.864 75810 275.336
154.981 74872 273.627
155.098 72745 269.713
155.215 71396 267.2
155.332 69980 264.537
155.449 67713 260.217
155.566 65641 256.205
155.683 65210 255.362
155.8 66115 257.128
155.917 65837 256.587
156.033 66094 257.088
156.15 0 1
156.267 0 1
156.383 0 1
156.5 0 1
156.617 0 1
156.733 0 1
156.85 0 1
156.966 0 1
157.082 0 1
157.199 0 1
157.315 0 1
157.431 0 1
157.547 0 1
157.664 0 1
157.78 0 1
157.896 0 1
158.012 0 1
158.128 0 1
158.244 0 1
158.359 0 1
158.475 0 1
158.591 0 1
158.706 0 1
