
6.15755 0 1
6.2731 0 1
6.3887 0 1
6.50437 0 1
6.62009 0 1
6.73587 0 1
6.8517 0 1
6.96759 0 1
7.08353 0 1
7.19952 0 1
7.31557 0 1
7.43166 0 1
7.54781 0 1
7.664 0 1
7.78024 0 1
7.89653 0 1
8.01286 0 1
8.12924 0 1
8.24567 0 1
8.36213 0 1
8.47864 0 1
8.59519 0 1
8.71178 0 1
8.82841 0 1
8.94508 0 1
9.06179 0 1
9.17853 0 1
9.29531 0 1
9.41212 0 1
9.52897 0 1
9.64584 0 1
9.76276 0 1
9.8797 0 1
9.99667 0 1
10.1137 0 1
10.2307 0 1
10.3478 0 1
10.4648 0 1
10.5819 0 1
10.6991 0 1
10.8162 0 1
10.9334 0 1
11.0506 0 1
11.1678 0 1
11.285 0 1
11.4023 0 1
11.5196 0 1
11.6369 0 1
11.7542 0 1
11.8715 0 1
11.9888 0 1
12.1062 0 1
12.2235 0 1
12.3409 0 1
12.4582 0 1
12.5756 0 1
12.693 0 1
12.8104 0 1
12.9278 0 1
13.0452 0 1
13.1626 0 1
13.28 0 1
13.3974 0 1
13.5149 0 1
13.6323 0 1
13.7497 0 1
13.8671 0 1
13.9845 0 1
14.1019 0 1
14.2193 0 1
14.3367 0 1
14.4541 0 1
14.5714 0 1
14.6888 0 1
14.8062 0 1
14.9235 0 1
15.0408 0 0
15.1581 0 0
15.2755 0 0
15.3927 0 0
15.51 0 0
15.6273 0 0
15.7445 0 0
15.8617 0 0
15.9789 0 0
16.0961 0 0
16.2132 0 0
16.3304 0 0
16.4475 0 0
16.5646 0 0
16.6816 0 0
16.7986 0 0
16.9156 0 0
17.0326 0 0
17.1496 0 0
17.2665 0 0
17.3833 0 0
17.5002 0 0
17.617 0 0
17.7338 0 0
17.8505 0 0
17.9672 0 0
18.0839 0 0
18.2005 0 0
18.3171 0 0
18.4337 0 0
18.5502 0 0
18.6666 0 0
18.7831 0 0
18.8994 0 0
19.0158 0 0
19.1321 0 0
19.2483 0 0
19.3645 0 0
19.4806 0 0
19.5967 0 0
19.7128 0 0
19.8288 0 0
19.9447 0 0
20.0606 0 1
20.1764 0 1
20.2922 0 1
20.4079 0 1
20.5236 0 1
20.6392 0 1
20.7548 0 1
20.8702 0 1
23.3078 0 1
23.4233 0 1
23.539 0 1
23.6547 0 1
23.7704 0 1
23.8862 0 1
24.0021 0 1
24.118 0 1
24.234 0 1
24.35 0 1
24.4661 1041 32.2645
24.5822 1034 32.1559
24.6984 1051 32.4191
24.8146 1081 32.8786
24.9309 1165 34.1321
25.0472 1119 33.4515
25.1636 1106 33.2566
25.28 1176 34.2929
25.3965 1141 33.7787
25.513 1157 34.0147
25.6296 1116 33.4066
25.7462 1187 34.4529
25.8628 1130 33.6155
25.9795 1181 34.3657
26.0962 1248 35.327
26.213 1120 33.4664
26.3298 1145 33.8378
26.4466 1161 34.0735
26.5635 1143 33.8083
26.6804 1137 33.7194
26.7973 1081 32.8786
26.9143 1069 32.6956
27.0313 1008 31.749
27.1483 949 30.8058
27.2653 1001 31.6386
27.3824 991 31.4802
27.4996 1050 32.4037
27.6167 1019 31.9218
27.7339 1005 31.7017
27.8511 999 31.607
27.9683 1009 31.7648
28.0855 1006 31.7175
28.2028 1021 31.9531
28.3201 932 30.5287
28.4374 974 31.209
28.5547 997 31.5753
28.6721 1066 32.6497
28.7894 1055 32.4808
28.9068 1139 33.7491
29.0242 1061 32.573
29.1416 1154 33.9706
29.259 1054 32.4654
29.3764 1126 33.5559
29.4939 1142 33.7935
29.6113 1054 32.4654
29.7288 1048 32.3728
29.8463 1067 32.665
29.9638 1081 32.8786
30.0812 1039 32.2335
30.1987 1028 32.0624
30.3162 1059 32.5423
30.4337 953 30.8707
30.5512 933 30.545
30.6687 894 29.8998
30.7862 914 30.2324
30.9037 991 31.4802
31.0212 979 31.289
31.1387 995 31.5436
31.2562 978 31.273
31.3737 922 30.3645
31.4912 905 30.0832
31.6087 955 30.9031
31.7262 961 31
31.8436 1002 31.6544
31.9611 994 31.5278
32.0785 1007 31.7333
32.1959 1028 32.0624
32.3134 1016 31.8748
32.4308 1073 32.7567
32.5482 1046 32.3419
32.6655 1027 32.0468
32.7829 1113 33.3617
32.9002 1067 32.665
33.0176 1077 32.8177
33.1349 1093 33.0606
33.2522 1045 32.3265
33.3694 1101 33.1813
33.4867 1007 31.7333
33.6039 1041 32.2645
33.7211 1048 32.3728
33.8383 1026 32.0312
33.9554 1038 32.218
34.0725 953 30.8707
34.1896 953 30.8707
34.3067 931 30.5123
34.4237 912 30.1993
34.5407 903 30.05
34.6577 966 31.0805
34.7746 935 30.5778
34.8915 939 30.6431
35.0084 935 30.5778
35.1252 834 28.8791
35.242 908 30.133
35.3587 917 30.282
35.4755 871 29.5127
35.5921 898 29.9666
35.7088 950 30.8221
35.8254 1000 31.6228
35.9419 1014 31.8434
36.0584 966 31.0805
36.1749 1045 32.3265
36.2913 979 31.289
36.4077 1006 31.7175
36.524 1045 32.3265
36.6403 1008 31.749
36.7565 945 30.7409
36.8727 1018 31.9061
36.9889 980 31.305
37.1049 981 31.3209
37.221 0 1
37.3369 0 1
37.4529 0 1
37.5687 0 1
37.6845 0 1
37.8003 0 1
37.916 0 1
38.0316 0 1
38.1472 0 1
40.5851 0 1
40.7008 0 1
40.8164 0 1
40.9322 0 1
41.048 0 1
41.1639 0 1
41.2798 0 1
41.3958 0 1
41.5118 0 1
41.6279 0 1
41.744 785 28.0179
41.8602 839 28.9655
41.9765 818 28.6007
42.0928 802 28.3196
42.2091 804 28.3549
42.3255 856 29.2575
42.4419 867 29.4449
42.5584 866 29.4279
42.675 835 28.8964
42.7915 870 29.4958
42.9081 847 29.1033
43.0248 772 27.7849
43.1415 698 26.4197
43.2582 760 27.5681
43.375 794 28.178
43.4918 745 27.2947
43.6087 783 27.9821
43.7256 729 27
43.8425 723 26.8887
43.9595 803 28.3373
44.0765 754 27.4591
44.1935 713 26.7021
44.3106 727 26.9629
44.4277 771 27.7669
44.5448 800 28.2843
44.6619 771 27.7669
44.7791 763 27.6225
44.8963 800 28.2843
45.0136 803 28.3373
45.1308 758 27.5318
45.2481 756 27.4955
45.3654 716 26.7582
45.4827 703 26.5141
45.6001 743 27.258
45.7174 739 27.1846
45.8348 717 26.7769
45.9522 699 26.4386
46.0697 669 25.865
46.1871 663 25.7488
46.3046 668 25.8457
46.422 706 26.5707
46.5395 650 25.4951
46.657 614 24.779
46.7745 595 24.3926
46.892 585 24.1868
47.0096 536 23.1517
47.1271 600 24.4949
47.2446 620 24.8998
47.3622 566 23.7908
47.4797 563 23.7276
47.5973 583 24.1454
47.7149 554 23.5372
47.8324 537 23.1733
47.95 545 23.3452
48.0675 592 24.3311
48.1851 570 23.8747
48.3027 552 23.4947
48.4202 543 23.3024
48.5378 506 22.4944
48.6554 544 23.3238
48.7729 541 23.2594
48.8904 557 23.6008
49.008 540 23.2379
49.1255 582 24.1247
49.243 573 23.9374
49.3605 627 25.04
49.478 580 24.0832
49.5955 581 24.1039
49.713 611 24.7184
49.8304 544 23.3238
49.9479 619 24.8797
50.0653 584 24.1661
50.1827 545 23.3452
50.3001 535 23.1301
50.4175 483 21.9773
50.5348 485 22.0227
50.6521 599 24.4745
50.7694 557 23.6008
50.8867 582 24.1247
51.004 606 24.6171
51.1212 583 24.1454
51.2384 589 24.2693
51.3556 653 25.5539
51.4727 675 25.9808
51.5899 619 24.8797
51.707 734 27.0924
51.824 721 26.8514
51.9411 716 26.7582
52.0581 689 26.2488
52.175 707 26.5895
52.2919 768 27.7128
52.4088 728 26.9815
52.5257 775 27.8388
52.6425 731 27.037
52.7593 763 27.6225
52.876 722 26.8701
52.9927 805 28.3725
53.1094 719 26.8142
53.226 746 27.313
53.3426 806 28.3901
53.4591 796 28.2135
53.5756 793 28.1603
53.692 774 27.8209
53.8084 702 26.4953
53.9248 671 25.9037
54.0411 622 24.9399
54.1573 614 24.779
54.2735 0 1
54.3896 0 1
54.5057 0 1
54.6217 0 1
54.7377 0 1
54.8537 0 1
54.9695 0 1
55.0853 0 1
55.2011 0 1
55.3168 0 1
55.4324 0 1
57.824 0 1
57.9396 0 1
58.0553 0 1
58.1711 0 1
58.2869 0 1
58.4028 0 1
58.5187 0 1
58.6347 0 1
58.7508 0 1
58.8669 0 1
58.983 783 27.9821
59.0992 784 28
59.2155 797 28.2312
59.3318 743 27.258
59.4482 794 28.178
59.5646 745 27.2947
59.681 780 27.9285
59.7975 819 28.6182
59.9141 821 28.6531
60.0306 881 29.6816
60.1473 812 28.4956
60.2639 846 29.0861
60.3807 851 29.1719
60.4974 852 29.189
60.6142 831 28.8271
60.731 848 29.1204
60.8479 831 28.8271
60.9648 803 28.3373
61.0818 863 29.3769
61.1987 736 27.1293
61.3158 786 28.0357
61.4328 807 28.4077
61.5499 827 28.7576
61.667 794 28.178
61.7841 815 28.5482
61.9013 795 28.1957
62.0185 813 28.5132
62.1357 760 27.5681
62.253 783 27.9821
62.3702 761 27.5862
62.4875 731 27.037
62.6049 692 26.3059
62.7222 631 25.1197
62.8396 661 25.7099
62.9569 666 25.807
63.0743 652 25.5343
63.1918 683 26.1343
63.3092 698 26.4197
63.4267 713 26.7021
63.5441 742 27.2397
63.6616 778 27.8927
63.7791 736 27.1293
63.8966 709 26.6271
64.0142 690 26.2679
64.1317 744 27.2764
64.2492 732 27.0555
64.3668 723 26.8887
64.4843 721 26.8514
64.6019 698 26.4197
64.7195 659 25.671
64.837 704 26.533
64.9546 723 26.8887
65.0722 728 26.9815
65.1898 655 25.593
65.3074 737 27.1477
65.4249 653 25.5539
65.5425 686 26.1916
65.6601 681 26.096
65.7777 633 25.1595
65.8952 661 25.7099
66.0128 611 24.7184
66.1304 640 25.2982
66.2479 562 23.7065
66.3655 577 24.0208
66.483 611 24.7184
66.6005 569 23.8537
66.718 600 24.4949
66.8355 600 24.4949
66.953 597 24.4336
67.0705 650 25.4951
67.1879 657 25.632
67.3054 650 25.4951
67.4228 677 26.0192
67.5402 607 24.6374
67.6576 650 25.4951
67.7749 635 25.1992
67.8923 642 25.3377
68.0096 628 25.0599
68.1269 677 26.0192
68.2442 675 25.9808
68.3614 656 25.6125
68.4787 613 24.7588
68.5958 636 25.219
68.713 606 24.6171
68.8302 616 24.8193
68.9473 652 25.5343
69.0643 636 25.219
69.1814 621 24.9199
69.2984 603 24.5561
69.4154 652 25.5343
69.5323 601 24.5153
69.6492 611 24.7184
69.7661 590 24.2899
69.8829 597 24.4336
69.9997 530 23.0217
70.1165 541 23.2594
70.2332 532 23.0651
70.3499 552 23.4947
70.4665 587 24.2281
70.5831 606 24.6171
70.6996 573 23.9374
70.8161 590 24.2899
70.9326 574 23.9583
71.049 554 23.5372
71.1653 536 23.1517
71.2817 570 23.8747
71.3979 564 23.7487
71.5141 508 22.5389
71.6303 535 23.1301
71.7464 508 22.5389
71.8624 0 1
71.9784 0 1
72.0944 0 1
72.2102 0 1
72.3261 0 1
72.4418 0 1
72.5575 0 1
72.6732 0 1
75.1054 0 1
75.2209 0 1
75.3365 0 1
75.4521 0 1
75.5678 0 1
75.6835 0 1
75.7993 0 1
75.9151 0 1
76.031 0 1
76.147 426 20.6398
76.263 501 22.383
76.3791 448 21.166
76.4952 443 21.0476
76.6113 461 21.4709
76.7276 463 21.5174
76.8438 422 20.5426
76.9601 439 20.9523
77.0765 438 20.9284
77.1929 442 21.0238
77.3093 428 20.6882
77.4258 389 19.7231
77.5423 403 20.0749
77.6589 435 20.8567
77.7755 406 20.1494
77.8921 396 19.8997
78.0088 383 19.5704
78.1256 391 19.7737
78.2423 352 18.7617
78.3591 365 19.105
78.4759 366 19.1311
78.5928 370 19.2354
78.7097 358 18.9209
78.8266 393 19.8242
78.9436 346 18.6011
79.0606 307 17.5214
79.1776 257 16.0312
79.2946 274 16.5529
79.4117 311 17.6352
79.5288 298 17.2627
79.6459 314 17.72
79.7631 297 17.2337
79.8802 340 18.4391
79.9974 339 18.412
80.1147 300 17.3205
80.2319 300 17.3205
80.3491 314 17.72
80.4664 274 16.5529
80.5837 287 16.9411
80.701 285 16.8819
80.8183 297 17.2337
80.9357 267 16.3401
81.053 244 15.6205
81.1704 240 15.4919
81.2877 229 15.1327
81.4051 206 14.3527
81.5225 213 14.5945
81.6399 212 14.5602
81.7573 182 13.4907
81.8747 150 12.2474
81.9922 198 14.0712
82.1096 169 13
82.227 183 13.5277
82.3444 168 12.9615
82.4619 153 12.3693
82.5793 186 13.6382
82.6967 155 12.4499
82.8142 132 11.4891
82.9316 109 10.4403
83.049 128 11.3137
83.1664 143 11.9583
83.2838 145 12.0416
83.4012 143 11.9583
83.5186 112 10.583
83.636 109 10.4403
83.7534 108 10.3923
83.8708 117 10.8167
83.9881 116 10.7703
84.1055 103 10.1489
84.2228 105 10.247
84.3401 87 9.32738
84.4575 93 9.64365
84.5747 86 9.27362
84.692 65 8.06226
84.8093 74 8.60233
84.9265 82 9.05539
85.0437 82 9.05539
85.1609 64 8
85.2781 54 7.34847
85.3952 64 8
85.5123 57 7.54983
85.6294 54 7.34847
85.7465 68 8.24621
85.8636 87 9.32738
85.9806 63 7.93725
86.0976 66 8.12404
86.2145 68 8.24621
86.3315 62 7.87401
86.4484 92 9.59166
86.5652 84 9.16515
86.682 106 10.2956
86.7988 115 10.7238
86.9156 90 9.48683
87.0323 106 10.2956
87.149 120 10.9545
87.2657 121 11
87.3823 125 11.1803
87.4988 116 10.7703
87.6154 139 11.7898
87.7318 123 11.0905
87.8483 125 11.1803
87.9647 153 12.3693
88.081 159 12.6095
88.1973 204 14.2829
88.3136 170 13.0384
88.4298 180 13.4164
88.546 200 14.1421
88.6621 181 13.4536
88.7781 184 13.5647
88.8942 0 1
89.0101 0 1
89.126 0 1
89.2419 0 1
89.3577 0 1
89.4734 0 1
89.5891 0 1
89.7047 0 1
89.8203 0 1
89.9358 0 1
92.3269 0 1
92.4424 0 1
92.558 0 1
92.6736 0 1
92.7893 0 1
92.905 0 1
93.0208 0 1
93.1366 0 1
93.2525 0 1
93.3685 0 1
93.4845 0 1
93.6005 313 17.6918
93.7167 313 17.6918
93.8328 315 17.7482
93.949 321 17.9165
94.0653 277 16.6433
94.1816 298 17.2627
94.2979 294 17.1464
94.4143 262 16.1864
94.5307 256 16
94.6472 261 16.1555
94.7637 260 16.1245
94.8803 253 15.906
94.9969 243 15.5885
95.1135 245 15.6525
95.2302 234 15.2971
95.3469 218 14.7648
95.4637 171 13.0767
95.5805 197 14.0357
95.6973 238 15.4272
95.8142 238 15.4272
95.9311 265 16.2788
96.048 267 16.3401
96.1649 269 16.4012
96.2819 294 17.1464
96.3989 273 16.5227
96.516 304 17.4356
96.633 334 18.2757
96.7501 318 17.8326
96.8673 314 17.72
96.9844 312 17.6635
97.1016 330 18.1659
97.2188 348 18.6548
97.336 352 18.7617
97.4532 377 19.4165
97.5704 363 19.0526
97.6877 444 21.0713
97.805 408 20.199
97.9223 426 20.6398
98.0396 412 20.2978
98.1569 459 21.4243
98.2743 460 21.4476
98.3916 424 20.5913
98.509 436 20.8806
98.6264 456 21.3542
98.7438 433 20.8087
98.8612 449 21.1896
98.9786 399 19.975
99.096 317 17.8045
99.2134 324 18
99.3308 454 21.3073
99.4482 510 22.5832
99.5656 561 23.6854
99.6831 570 23.8747
99.8005 533 23.0868
99.9179 531 23.0434
100.035 565 23.7697
100.153 600 24.4949
100.27 538 23.1948
100.388 552 23.4947
100.505 614 24.779
100.622 533 23.0868
100.74 608 24.6577
100.857 587 24.2281
100.975 605 24.5967
101.092 621 24.9199
101.209 612 24.7386
101.327 635 25.1992
101.444 637 25.2389
101.561 629 25.0799
101.679 648 25.4558
101.796 598 24.454
101.913 666 25.807
102.03 684 26.1534
102.148 637 25.2389
102.265 679 26.0576
102.382 632 25.1396
102.499 633 25.1595
102.616 517 22.7376
102.733 455 21.3307
102.851 506 22.4944
102.968 614 24.779
103.085 697 26.4008
103.202 659 25.671
103.319 687 26.2107
103.436 690 26.2679
103.552 699 26.4386
103.669 676 26
103.786 672 25.923
103.903 684 26.1534
104.02 634 25.1794
104.137 641 25.318
104.253 666 25.807
104.37 677 26.0192
104.487 695 26.3629
104.603 696 26.3818
104.72 696 26.3818
104.836 666 25.807
104.953 696 26.3818
105.069 681 26.096
105.186 692 26.3059
105.302 726 26.9444
105.418 719 26.8142
105.535 686 26.1916
105.651 732 27.0555
105.767 668 25.8457
105.883 649 25.4755
105.999 567 23.8118
106.115 0 1
106.231 0 1
106.347 0 1
106.463 0 1
106.579 0 1
106.694 0 1
106.81 0 1
106.926 0 1
107.041 0 1
107.157 0 1
109.576 0 1
109.692 0 1
109.807 0 1
109.923 0 1
110.039 0 1
110.155 0 1
110.27 0 1
110.386 0 1
110.502 0 1
110.618 525 22.9129
110.735 556 23.5797
110.851 545 23.3452
110.967 516 22.7156
111.083 495 22.2486
111.199 474 21.7715
111.316 428 20.6882
111.432 449 21.1896
111.549 533 23.0868
111.665 493 22.2036
111.782 477 21.8403
111.898 482 21.9545
112.015 500 22.3607
112.132 485 22.0227
112.248 454 21.3073
112.365 484 22
112.482 511 22.6053
112.599 472 21.7256
112.716 440 20.9762
112.832 456 21.3542
112.949 440 20.9762
113.066 430 20.7364
113.183 448 21.166
113.3 447 21.1424
113.417 439 20.9523
113.534 426 20.6398
113.652 442 21.0238
113.769 438 20.9284
113.886 401 20.025
114.003 408 20.199
114.12 364 19.0788
114.238 391 19.7737
114.355 378 19.4422
114.472 360 18.9737
114.589 398 19.9499
114.707 335 18.303
114.824 353 18.7883
114.942 313 17.6918
115.059 349 18.6815
115.176 369 19.2094
115.294 383 19.5704
115.411 395 19.8746
115.529 365 19.105
115.646 370 19.2354
115.764 367 19.1572
115.881 337 18.3576
115.999 369 19.2094
116.116 343 18.5203
116.234 345 18.5742
116.351 354 18.8149
116.469 360 18.9737
116.586 391 19.7737
116.704 396 19.8997
116.821 385 19.6214
116.939 379 19.4679
117.056 398 19.9499
117.174 370 19.2354
117.291 378 19.4422
117.409 400 20
117.526 360 18.9737
117.644 387 19.6723
117.761 352 18.7617
117.879 340 18.4391
117.996 282 16.7929
118.114 291 17.0587
118.231 336 18.3303
118.349 349 18.6815
118.466 361 19
118.584 350 18.7083
118.701 373 19.3132
118.819 362 19.0263
118.936 375 19.3649
119.053 419 20.4695
119.171 385 19.6214
119.288 399 19.975
119.405 369 19.2094
119.523 428 20.6882
119.64 371 19.2614
119.757 372 19.2873
119.875 431 20.7605
119.992 355 18.8414
120.109 420 20.4939
120.226 366 19.1311
120.343 402 20.0499
120.46 396 19.8997
120.578 369 19.2094
120.695 360 18.9737
120.812 415 20.3715
120.929 381 19.5192
121.046 402 20.0499
121.163 386 19.6469
121.279 421 20.5183
121.396 399 19.975
121.513 379 19.4679
121.63 338 18.3848
121.747 264 16.2481
121.863 278 16.6733
121.98 328 18.1108
122.097 370 19.2354
122.213 392 19.799
122.33 416 20.3961
122.446 418 20.445
122.563 379 19.4679
122.679 392 19.799
122.795 422 20.5426
122.912 427 20.664
123.028 423 20.567
123.144 432 20.7846
123.26 458 21.4009
123.377 0 1
123.493 0 1
123.609 0 1
123.725 0 1
123.84 0 1
123.956 0 1
124.072 0 1
124.188 0 1
124.303 0 1
124.419 0 1
126.852 0 1
126.968 0 1
127.083 0 1
127.199 0 1
127.315 0 1
127.431 0 1
127.547 0 1
127.663 0 1
127.779 0 1
127.895 0 1
128.011 0 1
128.127 0 1
128.243 0 1
128.359 561 23.6854
128.476 534 23.1084
128.592 559 23.6432
128.708 569 23.8537
128.825 516 22.7156
128.941 517 22.7376
129.058 569 23.8537
129.174 534 23.1084
129.291 549 23.4307
129.408 529 23
129.524 532 23.0651
129.641 573 23.9374
129.758 547 23.388
129.875 548 23.4094
129.992 570 23.8747
130.108 544 23.3238
130.225 526 22.9347
130.342 498 22.3159
130.459 440 20.9762
130.576 419 20.4695
130.693 357 18.8944
130.81 375 19.3649
130.928 407 20.1742
131.045 489 22.1133
131.162 521 22.8254
131.279 535 23.1301
131.396 574 23.9583
131.513 582 24.1247
131.631 557 23.6008
131.748 591 24.3105
131.865 600 24.4949
131.983 575 23.9792
132.1 594 24.3721
132.217 621 24.9199
132.335 587 24.2281
132.452 623 24.96
132.57 603 24.5561
132.687 545 23.3452
132.804 630 25.0998
132.922 592 24.3311
133.039 572 23.9165
133.157 619 24.8797
133.274 619 24.8797
133.392 612 24.7386
133.509 627 25.04
133.627 601 24.5153
133.744 588 24.2487
133.862 565 23.7697
133.979 527 22.9565
134.097 470 21.6795
134.214 462 21.4942
134.332 432 20.7846
134.449 447 21.1424
134.567 452 21.2603
134.684 525 22.9129
134.802 554 23.5372
134.919 601 24.5153
135.037 602 24.5357
135.154 638 25.2587
135.272 638 25.2587
135.389 609 24.6779
135.507 702 26.4953
135.624 609 24.6779
135.742 645 25.3969
135.859 640 25.2982
135.977 664 25.7682
136.094 650 25.4951
136.211 645 25.3969
136.329 640 25.2982
136.446 722 26.8701
136.564 653 25.5539
136.681 718 26.7955
136.798 663 25.7488
136.915 670 25.8844
137.033 684 26.1534
137.15 719 26.8142
137.267 603 24.5561
137.384 619 24.8797
137.502 599 24.4745
137.619 582 24.1247
137.736 546 23.3666
137.853 524 22.891
137.97 465 21.5639
138.087 531 23.0434
138.204 519 22.7816
138.321 586 24.2074
138.438 621 24.9199
138.555 675 25.9808
138.672 662 25.7294
138.788 692 26.3059
138.905 720 26.8328
139.022 750 27.3861
139.139 723 26.8887
139.255 730 27.0185
139.372 757 27.5136
139.488 714 26.7208
139.605 706 26.5707
139.721 728 26.9815
139.838 709 26.6271
139.954 719 26.8142
140.071 681 26.096
140.187 684 26.1534
140.303 702 26.4953
140.419 730 27.0185
140.535 716 26.7582
140.652 728 26.9815
140.768 0 1
140.884 0 1
141 0 1
141.115 0 1
141.231 0 1
141.347 0 1
141.463 0 1
141.578 0 1
141.694 0 1
144.104 0 1
144.219 0 1
144.335 0 1
144.45 0 1
144.566 0 1
144.682 0 1
144.798 0 1
144.914 0 1
145.03 0 1
145.146 698 26.4197
145.262 676 26
145.378 716 26.7582
145.494 728 26.9815
145.61 692 26.3059
145.726 697 26.4008
145.842 678 26.0384
145.959 684 26.1534
146.075 623 24.96
146.192 634 25.1794
146.308 579 24.0624
146.425 570 23.8747
146.541 600 24.4949
146.658 541 23.2594
146.774 572 23.9165
146.891 560 23.6643
147.008 601 24.5153
147.125 601 24.5153
147.241 663 25.7488
147.358 707 26.5895
147.475 684 26.1534
147.592 687 26.2107
147.709 711 26.6646
147.826 684 26.1534
147.943 710 26.6458
148.06 686 26.1916
148.177 683 26.1343
148.294 744 27.2764
148.411 727 26.9629
148.528 726 26.9444
148.645 651 25.5147
148.762 705 26.5518
148.88 667 25.8263
148.997 657 25.632
149.114 705 26.5518
149.231 664 25.7682
149.349 676 26
149.466 655 25.593
149.583 682 26.1151
149.701 596 24.4131
149.818 589 24.2693
149.935 535 23.1301
150.053 555 23.5584
150.17 550 23.4521
150.287 554 23.5372
150.405 572 23.9165
150.522 585 24.1868
150.64 608 24.6577
150.757 657 25.632
150.875 627 25.04
150.992 656 25.6125
151.11 707 26.5895
151.227 681 26.096
151.344 717 26.7769
151.462 681 26.096
151.579 731 27.037
151.697 707 26.5895
151.814 677 26.0192
151.932 704 26.533
152.049 697 26.4008
152.167 713 26.7021
152.284 699 26.4386
152.402 677 26.0192
152.519 709 26.6271
152.636 710 26.6458
152.754 688 26.2298
152.871 712 26.6833
152.989 687 26.2107
153.106 645 25.3969
153.223 652 25.5343
153.341 647 25.4362
153.458 609 24.6779
153.575 599 24.4745
153.693 568 23.8328
153.81 601 24.5153
153.927 614 24.779
154.044 579 24.0624
154.162 665 25.7876
154.279 640 25.2982
154.396 625 25
154.513 715 26.7395
154.63 739 27.1846
154.747 759 27.55
154.864 752 27.4226
154.981 724 26.9072
155.098 737 27.1477
155.215 766 27.6767
155.332 766 27.6767
155.449 774 27.8209
155.566 773 27.8029
155.683 753 27.4408
155.8 749 27.3679
155.917 691 26.2869
156.033 763 27.6225
156.15 0 1
156.267 0 1
156.383 0 1
156.5 0 1
156.617 0 1
156.733 0 1
156.85 0 1
156.966 0 1
157.082 0 1
157.199 0 1
157.315 0 1
157.431 0 1
157.547 0 1
157.664 0 1
157.78 0 1
157.896 0 1
158.012 0 1
158.128 0 1
158.244 0 1
158.359 0 1
158.475 0 1
158.591 0 1
158.706 0 1
