
6.15755 0 1
6.2731 0 1
6.3887 0 1
6.50437 0 1
6.62009 0 1
6.73587 0 1
6.8517 0 1
6.96759 0 1
7.08353 0 1
7.19952 0 1
7.31557 0 1
7.43166 0 1
7.54781 0 1
7.664 0 1
7.78024 0 1
7.89653 0 1
8.01286 0 1
8.12924 0 1
8.24567 0 1
8.36213 0 1
8.47864 0 1
8.59519 0 1
8.71178 0 1
8.82841 0 1
8.94508 0 1
9.06179 0 1
9.17853 0 1
9.29531 0 1
9.41212 0 1
9.52897 0 1
9.64584 0 1
9.76276 0 1
9.8797 0 1
9.99667 0 1
10.1137 0 1
10.2307 0 1
10.3478 0 1
10.4648 0 1
10.5819 0 1
10.6991 0 1
10.8162 0 1
10.9334 0 1
11.0506 0 1
11.1678 0 1
11.285 0 1
11.4023 0 1
11.5196 0 1
11.6369 0 1
11.7542 0 1
11.8715 0 1
11.9888 0 1
12.1062 0 1
12.2235 0 1
12.3409 0 1
12.4582 0 1
12.5756 0 1
12.693 0 1
12.8104 0 1
12.9278 0 1
13.0452 0 1
13.1626 0 1
13.28 0 1
13.3974 0 1
13.5149 0 1
13.6323 0 1
13.7497 0 1
13.8671 0 1
13.9845 0 1
14.1019 0 1
14.2193 0 1
14.3367 0 1
14.4541 0 1
14.5714 0 1
14.6888 0 1
14.8062 0 1
14.9235 0 1
15.0408 11362 106.593
15.1581 11921 109.183
15.2755 12399 111.351
15.3927 12566 112.098
15.51 12114 110.064
15.6273 12263 110.738
15.7445 12265 110.747
15.8617 12293 110.874
15.9789 12265 110.747
16.0961 12469 111.665
16.2132 12659 112.512
16.3304 13079 114.363
16.4475 13474 116.078
16.5646 13946 118.093
16.6816 14320 119.666
16.7986 14779 121.569
16.9156 15176 123.191
17.0326 15581 124.824
17.1496 15856 125.921
17.2665 16151 127.087
17.3833 16347 127.855
17.5002 16592 128.81
17.617 16552 128.655
17.7338 16493 128.425
17.8505 16353 127.879
17.9672 15810 125.738
18.0839 14963 122.323
18.2005 14889 122.02
18.3171 15570 124.78
18.4337 15958 126.325
18.5502 16508 128.483
18.6666 17093 130.74
18.7831 17010 130.422
18.8994 17061 130.618
19.0158 16801 129.619
19.1321 16352 127.875
19.2483 16077 126.795
19.3645 15916 126.159
19.4806 15575 124.8
19.5967 15621 124.984
19.7128 15093 122.854
19.8288 14745 121.429
19.9447 13697 117.034
20.0606 0 1
20.1764 0 1
20.2922 0 1
20.4079 0 1
20.5236 0 1
20.6392 0 1
20.7548 0 1
20.8702 0 1
23.3078 0 1
23.4233 0 1
23.539 0 1
23.6547 0 1
23.7704 0 1
23.8862 0 1
24.0021 0 1
24.118 0 1
24.234 0 1
24.35 0 1
24.4661 15225 123.39
24.5822 15273 123.584
24.6984 15461 124.342
24.8146 15030 122.597
24.9309 14981 122.397
25.0472 15154 123.102
25.1636 15133 123.016
25.28 15465 124.358
25.3965 15868 125.968
25.513 16399 128.059
25.6296 17028 130.491
25.7462 17556 132.499
25.8628 17635 132.797
25.9795 18038 134.306
26.0962 17952 133.985
26.213 17873 133.69
26.3298 18197 134.896
26.4466 17623 132.752
26.5635 17105 130.786
26.6804 16325 127.769
26.7973 15935 126.234
26.9143 15870 125.976
27.0313 16589 128.798
27.1483 17459 132.133
27.2653 17738 133.184
27.3824 17559 132.51
27.4996 17587 132.616
27.6167 17207 131.175
27.7339 16860 129.846
27.8511 16777 129.526
27.9683 16114 126.941
28.0855 15887 126.044
28.2028 15834 125.833
28.3201 15677 125.208
28.4374 15240 123.45
28.5547 15258 123.523
28.6721 14824 121.754
28.7894 15180 123.207
28.9068 15727 125.407
29.0242 15876 126
29.1416 16068 126.76
29.259 16787 129.565
29.3764 16941 130.158
29.4939 17388 131.864
29.6113 17387 131.86
29.7288 17605 132.684
29.8463 17488 132.242
29.9638 17158 130.989
30.0812 16669 129.108
30.1987 15752 125.507
30.3162 14729 121.363
30.4337 14695 121.223
30.5512 15638 125.052
30.6687 16033 126.621
30.7862 16724 129.321
30.9037 16443 128.23
31.0212 16870 129.885
31.1387 16847 129.796
31.2562 16849 129.804
31.3737 16575 128.744
31.4912 16136 127.028
31.6087 15675 125.2
31.7262 15492 124.467
31.8436 15264 123.548
31.9611 15079 122.797
32.0785 14821 121.742
32.1959 14689 121.198
32.3134 14690 121.202
32.4308 14916 122.131
32.5482 15294 123.669
32.6655 15712 125.348
32.7829 16090 126.846
32.9002 16461 128.3
33.0176 16788 129.569
33.1349 17072 130.66
33.2522 17107 130.794
33.3694 16804 129.63
33.4867 17050 130.576
33.6039 16648 129.027
33.7211 16290 127.632
33.8383 15310 123.734
33.9554 14539 120.578
34.0725 14043 118.503
34.1896 14337 119.737
34.3067 15038 122.63
34.4237 15385 124.036
34.5407 15815 125.758
34.6577 16377 127.973
34.7746 15955 126.313
34.8915 15946 126.277
35.0084 15657 125.128
35.1252 15484 124.435
35.242 15224 123.386
35.3587 15042 122.646
35.4755 14830 121.778
35.5921 14824 121.754
35.7088 14050 118.533
35.8254 14288 119.532
35.9419 14211 119.21
36.0584 14109 118.781
36.1749 14229 119.285
36.2913 14432 120.133
36.4077 14744 121.425
36.524 15068 122.752
36.6403 15564 124.756
36.7565 15675 125.2
36.8727 16126 126.988
36.9889 16257 127.503
37.1049 15709 125.336
37.221 0 1
37.3369 0 1
37.4529 0 1
37.5687 0 1
37.6845 0 1
37.8003 0 1
37.916 0 1
38.0316 0 1
38.1472 0 1
40.5851 0 1
40.7008 0 1
40.8164 0 1
40.9322 0 1
41.048 0 1
41.1639 0 1
41.2798 0 1
41.3958 0 1
41.5118 0 1
41.6279 0 1
41.744 11889 109.037
41.8602 12829 113.265
41.9765 13510 116.233
42.0928 13444 115.948
42.2091 13765 117.324
42.3255 13554 116.422
42.4419 13476 116.086
42.5584 13149 114.669
42.675 12485 111.736
42.7915 11787 108.568
42.9081 11344 106.508
43.0248 11221 105.929
43.1415 11686 108.102
43.2582 12106 110.027
43.375 12335 111.063
43.4918 12653 112.486
43.6087 12867 113.433
43.7256 12553 112.04
43.8425 12440 111.535
43.9595 11997 109.531
44.0765 11905 109.11
44.1935 11488 107.182
44.3106 11465 107.075
44.4277 10940 104.594
44.5448 10695 103.417
44.6619 10423 102.093
44.7791 9889 99.4435
44.8963 9628 98.1224
45.0136 9763 98.8079
45.1308 9706 98.519
45.2481 10024 100.12
45.3654 10167 100.832
45.4827 10620 103.053
45.6001 10480 102.372
45.7174 10849 104.159
45.8348 10779 103.822
45.9522 10414 102.049
46.0697 10204 101.015
46.1871 10055 100.275
46.3046 9240 96.1249
46.422 8725 93.4077
46.5395 8225 90.6918
46.657 8551 92.4716
46.7745 8977 94.747
46.892 8997 94.8525
47.0096 9373 96.8143
47.1271 9333 96.6075
47.2446 9419 97.0515
47.3622 9290 96.3846
47.4797 9081 95.2943
47.5973 9161 95.7131
47.7149 8916 94.4246
47.8324 8978 94.7523
47.95 8611 92.7955
48.0675 8261 90.89
48.1851 8135 90.1942
48.3027 7847 88.5833
48.4202 7902 88.8932
48.5378 7652 87.4757
48.6554 7811 88.3799
48.7729 7997 89.4259
48.8904 8323 91.2305
49.008 8905 94.3663
49.1255 8794 93.7763
49.243 9177 95.7967
49.3605 9126 95.5301
49.478 9192 95.8749
49.5955 9033 95.0421
49.713 8819 93.9095
49.8304 8406 91.6842
49.9479 7724 87.8863
50.0653 7732 87.9318
50.1827 7916 88.9719
50.3001 8438 91.8586
50.4175 8818 93.9042
50.5348 9335 96.6178
50.6521 9703 98.5038
50.7694 9853 99.2623
50.8867 9895 99.4736
51.004 10254 101.262
51.1212 10318 101.578
51.2384 10226 101.124
51.3556 10398 101.971
51.4727 10225 101.119
51.5899 10014 100.07
51.707 10208 101.035
51.824 9913 99.564
51.9411 9763 98.8079
52.0581 9898 99.4887
52.175 10144 100.717
52.2919 10748 103.673
52.4088 11165 105.665
52.5257 11806 108.655
52.6425 12131 110.141
52.7593 12644 112.446
52.876 12491 111.763
52.9927 12535 111.96
53.1094 12733 112.841
53.226 12770 113.004
53.3426 12612 112.303
53.4591 11728 108.296
53.5756 10793 103.889
53.692 10356 101.764
53.8084 10725 103.562
53.9248 11455 107.028
54.0411 12127 110.123
54.1573 12625 112.361
54.2735 0 1
54.3896 0 1
54.5057 0 1
54.6217 0 1
54.7377 0 1
54.8537 0 1
54.9695 0 1
55.0853 0 1
55.2011 0 1
55.3168 0 1
55.4324 0 1
57.824 0 1
57.9396 0 1
58.0553 0 1
58.1711 0 1
58.2869 0 1
58.4028 0 1
58.5187 0 1
58.6347 0 1
58.7508 0 1
58.8669 0 1
58.983 12689 112.645
59.0992 13647 116.82
59.2155 14237 119.319
59.3318 15014 122.532
59.4482 15738 125.451
59.5646 15829 125.813
59.681 16262 127.523
59.7975 16226 127.381
59.9141 16056 126.712
60.0306 15604 124.916
60.1473 15549 124.696
60.2639 15254 123.507
60.3807 14882 121.992
60.4974 14251 119.378
60.6142 14007 118.351
60.731 13687 116.991
60.8479 13468 116.052
60.9648 13766 117.329
61.0818 14003 118.334
61.1987 14298 119.574
61.3158 15315 123.754
61.4328 15495 124.479
61.5499 15765 125.559
61.667 15533 124.631
61.7841 15528 124.611
61.9013 15074 122.776
62.0185 14007 118.351
62.1357 12984 113.947
62.253 12454 111.597
62.3702 12580 112.161
62.4875 12909 113.618
62.6049 13687 116.991
62.7222 14127 118.857
62.8396 14845 121.84
62.9569 14980 122.393
63.0743 15436 124.242
63.1918 15393 124.069
63.3092 15409 124.133
63.4267 15277 123.6
63.5441 14961 122.315
63.6616 14933 122.201
63.7791 14324 119.683
63.8966 14127 118.857
64.0142 13660 116.876
64.1317 13009 114.057
64.2492 12495 111.781
64.3668 12611 112.299
64.4843 12736 112.854
64.6019 13324 115.43
64.7195 13783 117.401
64.837 14382 119.925
64.9546 14741 121.413
65.0722 14836 121.803
65.1898 14790 121.614
65.3074 15033 122.609
65.4249 14605 120.851
65.5425 13945 118.089
65.6601 13180 114.804
65.7777 12258 110.716
65.8952 11577 107.596
66.0128 11762 108.453
66.1304 12361 111.18
66.2479 13196 114.874
66.3655 13780 117.388
66.483 14406 120.025
66.6005 14641 121
66.718 15048 122.67
66.8355 14906 122.09
66.953 15066 122.744
67.0705 14995 122.454
67.1879 14770 121.532
67.3054 14626 120.938
67.4228 14478 120.325
67.5402 13874 117.788
67.6576 13295 115.304
67.7749 12742 112.88
67.8923 12502 111.812
68.0096 12191 110.413
68.1269 12461 111.629
68.2442 12919 113.662
68.3614 13793 117.444
68.4787 14069 118.613
68.5958 15101 122.886
68.713 15027 122.585
68.8302 15320 123.774
68.9473 15407 124.125
69.0643 15305 123.713
69.1814 15005 122.495
69.2984 13654 116.85
69.4154 12982 113.939
69.5323 12371 111.225
69.6492 12230 110.589
69.7661 12935 113.732
69.8829 13868 117.762
69.9997 14486 120.358
70.1165 15119 122.959
70.2332 15768 125.571
70.3499 15960 126.333
70.4665 16099 126.882
70.5831 16215 127.338
70.6996 15970 126.372
70.8161 15926 126.198
70.9326 15558 124.732
71.049 15295 123.673
71.1653 14807 121.684
71.2817 14479 120.329
71.3979 13608 116.653
71.5141 12790 113.093
71.6303 11910 109.133
71.7464 11283 106.221
71.8624 0 1
71.9784 0 1
72.0944 0 1
72.2102 0 1
72.3261 0 1
72.4418 0 1
72.5575 0 1
72.6732 0 1
75.1054 0 1
75.2209 0 1
75.3365 0 1
75.4521 0 1
75.5678 0 1
75.6835 0 1
75.7993 0 1
75.9151 0 1
76.031 0 1
76.147 14348 119.783
76.263 15028 122.589
76.3791 14855 121.881
76.4952 14205 119.185
76.6113 13724 117.149
76.7276 12874 113.464
76.8438 12703 112.708
76.9601 13040 114.193
77.0765 13641 116.795
77.1929 14494 120.391
77.3093 15275 123.592
77.4258 15781 125.622
77.5423 15931 126.218
77.6589 16279 127.589
77.7755 16099 126.882
77.8921 16002 126.499
78.0088 14989 122.43
78.1256 13801 117.478
78.2423 12805 113.159
78.3591 11894 109.06
78.4759 11393 106.738
78.5928 12415 111.423
78.7097 13475 116.082
78.8266 14211 119.21
78.9436 15285 123.633
79.0606 15586 124.844
79.1776 15699 125.296
79.2946 15971 126.376
79.4117 16296 127.656
79.5288 16378 127.977
79.6459 16137 127.031
79.7631 15586 124.844
79.8802 15745 125.479
79.9974 15131 123.008
80.1147 14505 120.437
80.2319 14072 118.625
80.3491 13071 114.328
80.4664 12544 112
80.5837 12832 113.278
80.701 13305 115.347
80.8183 14233 119.302
80.9357 15024 122.572
81.053 15790 125.658
81.1704 16131 127.008
81.2877 15934 126.23
81.4051 15850 125.897
81.5225 15934 126.23
81.6399 15238 123.442
81.7573 14483 120.345
81.8747 12924 113.684
81.9922 12163 110.286
82.1096 11831 108.77
82.227 12312 110.959
82.3444 13348 115.534
82.4619 14497 120.403
82.5793 15231 123.414
82.6967 15412 124.145
82.8142 15808 125.73
82.9316 16352 127.875
83.049 15997 126.479
83.1664 16379 127.98
83.2838 16041 126.653
83.4012 16159 127.118
83.5186 15576 124.804
83.636 15519 124.575
83.7534 14975 122.372
83.8708 14209 119.202
83.9881 13123 114.556
84.1055 12495 111.781
84.2228 12921 113.671
84.3401 13327 115.443
84.4575 14161 119
84.5747 15174 123.183
84.692 16008 126.523
84.8093 16510 128.491
84.9265 16346 127.851
85.0437 16820 129.692
85.1609 16149 127.079
85.2781 15298 123.685
85.3952 13745 117.239
85.5123 13059 114.276
85.6294 12371 111.225
85.7465 12479 111.709
85.8636 13201 114.896
85.9806 14718 121.318
86.0976 15353 123.907
86.2145 15942 126.262
86.3315 16491 128.417
86.4484 16818 129.684
86.5652 16988 130.338
86.682 17228 131.255
86.7988 17474 132.189
86.9156 17204 131.164
87.0323 17232 131.271
87.149 16743 129.395
87.2657 16411 128.105
87.3823 15657 125.128
87.4988 14817 121.725
87.6154 13757 117.29
87.7318 13788 117.422
87.8483 13827 117.588
87.9647 14838 121.811
88.081 16051 126.693
88.1973 16768 129.491
88.3136 17387 131.86
88.4298 17507 132.314
88.546 16977 130.296
88.6621 17199 131.145
88.7781 15958 126.325
88.8942 0 1
89.0101 0 1
89.126 0 1
89.2419 0 1
89.3577 0 1
89.4734 0 1
89.5891 0 1
89.7047 0 1
89.8203 0 1
89.9358 0 1
92.3269 0 1
92.4424 0 1
92.558 0 1
92.6736 0 1
92.7893 0 1
92.905 0 1
93.0208 0 1
93.1366 0 1
93.2525 0 1
93.3685 0 1
93.4845 0 1
93.6005 16419 128.137
93.7167 16816 129.677
93.8328 16356 127.891
93.949 15618 124.972
94.0653 15202 123.296
94.1816 14162 119.004
94.2979 13544 116.379
94.4143 13100 114.455
94.5307 12914 113.64
94.6472 13416 115.827
94.7637 14275 119.478
94.8803 15165 123.146
94.9969 15641 125.064
95.1135 16287 127.621
95.2302 16583 128.775
95.3469 17034 130.514
95.4637 17035 130.518
95.5805 17567 132.541
95.6973 17527 132.39
95.8142 17552 132.484
95.9311 17082 130.698
96.048 16999 130.38
96.1649 16563 128.697
96.2819 16135 127.024
96.3989 15369 123.972
96.516 14537 120.569
96.633 13820 117.558
96.7501 13772 117.354
96.8673 14477 120.32
96.9844 15231 123.414
97.1016 16032 126.618
97.2188 17176 131.057
97.336 17439 132.057
97.4532 17263 131.389
97.5704 16942 130.161
97.6877 16434 128.195
97.805 15296 123.677
97.9223 14229 119.285
98.0396 13637 116.778
98.1569 12973 113.899
98.2743 13115 114.521
98.3916 13469 116.056
98.509 14527 120.528
98.6264 15273 123.584
98.7438 15822 125.786
98.8612 16483 128.386
98.9786 16825 129.711
99.096 16981 130.311
99.2134 17121 130.847
99.3308 17188 131.103
99.4482 16981 130.311
99.5656 17117 130.832
99.6831 16544 128.623
99.8005 16304 127.687
99.9179 15875 125.996
100.035 14867 121.93
100.153 14129 118.865
100.27 13549 116.4
100.388 13855 117.707
100.505 14728 121.359
100.622 15577 124.808
100.74 16478 128.367
100.857 16534 128.585
100.975 17194 131.126
101.092 16887 129.95
101.209 16989 130.342
101.327 16182 127.208
101.444 15384 124.032
101.561 14105 118.764
101.679 13482 116.112
101.796 13042 114.202
101.913 13303 115.339
102.03 14295 119.562
102.148 15170 123.167
102.265 15038 122.63
102.382 18014 134.216
102.499 17228 131.255
102.616 17610 132.703
102.733 17655 132.872
102.851 17822 133.499
102.968 18150 134.722
103.085 17981 134.093
103.202 17859 133.638
103.319 17482 132.22
103.436 17112 130.813
103.552 16330 127.789
103.669 15218 123.361
103.786 14530 120.54
103.903 14588 120.781
104.02 15281 123.616
104.137 17008 130.415
104.253 17811 133.458
104.37 18394 135.624
104.487 18462 135.875
104.603 18334 135.403
104.72 17907 133.817
104.836 17311 131.571
104.953 15953 126.305
105.069 15012 122.523
105.186 14171 119.042
105.302 14023 118.419
105.418 14497 120.403
105.535 15509 124.535
105.651 16334 127.805
105.767 17185 131.092
105.883 17791 133.383
105.999 17804 133.432
106.115 0 1
106.231 0 1
106.347 0 1
106.463 0 1
106.579 0 1
106.694 0 1
106.81 0 1
106.926 0 1
107.041 0 1
107.157 0 1
109.576 0 1
109.692 0 1
109.807 0 1
109.923 0 1
110.039 0 1
110.155 0 1
110.27 0 1
110.386 0 1
110.502 0 1
110.618 13791 117.435
110.735 14936 122.213
110.851 15206 123.313
110.967 15769 125.575
111.083 15888 126.048
111.199 16237 127.424
111.316 16021 126.574
111.432 16348 127.859
111.549 16284 127.609
111.665 15752 125.507
111.782 15374 123.992
111.898 15175 123.187
112.015 14027 118.436
112.132 13238 115.057
112.248 12549 112.022
112.365 12502 111.812
112.482 13539 116.357
112.599 14224 119.264
112.716 14952 122.278
112.832 14941 122.233
112.949 14914 122.123
113.066 14968 122.344
113.183 14609 120.868
113.3 13804 117.49
113.417 12963 113.855
113.534 12125 110.114
113.652 11307 106.334
113.769 11165 105.665
113.886 10834 104.087
114.003 11443 106.972
114.12 12191 110.413
114.238 12644 112.446
114.355 12958 113.833
114.472 13432 115.897
114.589 13209 114.93
114.707 13231 115.026
114.824 13372 115.637
114.942 13416 115.827
115.059 13377 115.659
115.176 12838 113.305
115.294 12533 111.951
115.411 12141 110.186
115.529 11896 109.069
115.646 10749 103.677
115.764 10096 100.479
115.881 9905 99.5239
115.999 10008 100.04
116.116 10809 103.966
116.234 11185 105.759
116.351 11354 106.555
116.469 11440 106.958
116.586 11454 107.023
116.704 11231 105.976
116.821 10907 104.437
116.939 10296 101.469
117.056 9810 99.0454
117.174 9043 95.0947
117.291 8833 93.984
117.409 8760 93.5949
117.526 8821 93.9202
117.644 9201 95.9218
117.761 9673 98.3514
117.879 10382 101.892
117.996 10374 101.853
118.114 10496 102.45
118.231 11028 105.014
118.349 10657 103.233
118.466 11127 105.485
118.584 10990 104.833
118.701 11103 105.371
118.819 10968 104.728
118.936 10682 103.354
119.053 10525 102.591
119.171 10177 100.881
119.288 9709 98.5343
119.405 9256 96.2081
119.523 9214 95.9896
119.64 9776 98.8737
119.757 10234 101.163
119.875 10933 104.561
119.992 11089 105.304
120.109 11328 106.433
120.226 11216 105.906
120.343 11403 106.785
120.46 11267 106.146
120.578 10662 103.257
120.695 10360 101.784
120.812 9837 99.1817
120.929 9501 97.4731
121.046 9478 97.355
121.163 9486 97.3961
121.279 10103 100.514
121.396 10568 102.801
121.513 11181 105.74
121.63 11452 107.014
121.747 12010 109.59
121.863 12074 109.882
121.98 12558 112.062
122.097 12516 111.875
122.213 12782 113.058
122.33 12814 113.199
122.446 12789 113.088
122.563 12594 112.223
122.679 12710 112.739
122.795 12629 112.379
122.912 12213 110.512
123.028 11449 107
123.144 10928 104.537
123.26 10853 104.178
123.377 0 1
123.493 0 1
123.609 0 1
123.725 0 1
123.84 0 1
123.956 0 1
124.072 0 1
124.188 0 1
124.303 0 1
124.419 0 1
126.852 0 1
126.968 0 1
127.083 0 1
127.199 0 1
127.315 0 1
127.431 0 1
127.547 0 1
127.663 0 1
127.779 0 1
127.895 0 1
128.011 0 1
128.127 0 1
128.243 0 1
128.359 13197 114.878
128.476 12967 113.873
128.592 13153 114.687
128.708 13910 117.941
128.825 14701 121.248
128.941 15329 123.81
129.058 15231 123.414
129.174 15307 123.721
129.291 15102 122.89
129.408 14944 122.246
129.524 14267 119.445
129.641 13506 116.215
129.758 13093 114.425
129.875 12383 111.279
129.992 11826 108.747
130.108 11798 108.619
130.225 12227 110.576
130.342 12810 113.181
130.459 13104 114.473
130.576 13149 114.669
130.693 13307 115.356
130.81 13780 117.388
130.928 13788 117.422
131.045 13904 117.915
131.162 13853 117.699
131.279 14231 119.294
131.396 13702 117.056
131.513 13856 117.712
131.631 13286 115.265
131.748 12989 113.969
131.865 12258 110.716
131.983 11723 108.273
132.1 11821 108.724
132.217 12441 111.539
132.335 12831 113.274
132.452 13148 114.665
132.57 13428 115.879
132.687 12952 113.807
132.804 13498 116.181
132.922 13048 114.228
133.039 12245 110.657
133.157 11789 108.577
133.274 11146 105.575
133.392 10707 103.475
133.509 10144 100.717
133.627 10226 101.124
133.744 10166 100.827
133.862 10467 102.308
133.979 10877 104.293
134.097 10892 104.365
134.214 11159 105.636
134.332 11059 105.162
134.449 11200 105.83
134.567 11211 105.882
134.684 11557 107.503
134.802 11283 106.221
134.919 11292 106.264
135.037 11085 105.285
135.154 10820 104.019
135.272 10198 100.985
135.389 9827 99.1312
135.507 9265 96.2549
135.624 9040 95.0789
135.742 9271 96.286
135.859 9644 98.2039
135.977 10011 100.055
136.094 10106 100.529
136.211 9927 99.6343
136.329 9965 99.8248
136.446 9944 99.7196
136.564 9727 98.6256
136.681 9210 95.9687
136.798 8919 94.4405
136.915 8415 91.7333
137.033 8295 91.0769
137.15 7851 88.6059
137.267 7880 88.7694
137.384 7948 89.1516
137.502 8346 91.3564
137.619 8411 91.7115
137.736 8814 93.8829
137.853 8749 93.5361
137.97 9214 95.9896
138.087 9296 96.4158
138.204 9689 98.4327
138.321 9558 97.765
138.438 9632 98.1428
138.555 10136 100.678
138.672 9953 99.7647
138.788 9864 99.3177
138.905 9798 98.9848
139.022 9442 97.17
139.139 9039 95.0737
139.255 9163 95.7236
139.372 9533 97.6371
139.488 10345 101.71
139.605 11065 105.19
139.721 10960 104.69
139.838 11279 106.203
139.954 11287 106.24
140.071 11131 105.504
140.187 11214 105.896
140.303 10743 103.648
140.419 10239 101.188
140.535 10115 100.573
140.652 9829 99.1413
140.768 0 1
140.884 0 1
141 0 1
141.115 0 1
141.231 0 1
141.347 0 1
141.463 0 1
141.578 0 1
141.694 0 1
144.104 0 1
144.219 0 1
144.335 0 1
144.45 0 1
144.566 0 1
144.682 0 1
144.798 0 1
144.914 0 1
145.03 0 1
145.146 9583 97.8928
145.262 9757 98.7775
145.378 9375 96.8246
145.494 8965 94.6837
145.61 8719 93.3756
145.726 8371 91.4932
145.842 8044 89.6883
145.959 7961 89.2244
146.075 7882 88.7806
146.192 7934 89.073
146.308 8280 90.9945
146.425 8214 90.6311
146.541 8339 91.3181
146.658 8248 90.8185
146.774 8201 90.5594
146.891 8377 91.526
147.008 8301 91.1098
147.125 8453 91.9402
147.241 8328 91.2579
147.358 8176 90.4212
147.475 8144 90.2441
147.592 7619 87.2869
147.709 7494 86.5679
147.826 7138 84.4867
147.943 7223 84.9882
148.06 7272 85.276
148.177 7639 87.4014
148.294 7851 88.6059
148.411 7804 88.3403
148.528 7787 88.244
148.645 7814 88.3968
148.762 7564 86.9713
148.88 7423 86.1568
148.997 7500 86.6025
149.114 6613 81.3204
149.231 6742 82.1097
149.349 6493 80.5792
149.466 6375 79.8436
149.583 6240 78.9937
149.701 6318 79.4858
149.818 6429 80.181
149.935 6575 81.0864
150.053 6648 81.5353
150.17 6776 82.3165
150.287 6783 82.359
150.405 6826 82.6196
150.522 6949 83.3607
150.64 7039 83.8987
150.757 7121 84.386
150.875 7217 84.9529
150.992 7202 84.8646
151.11 7375 85.8778
151.227 7191 84.7998
151.344 6793 82.4197
151.462 6606 81.2773
151.579 6699 81.8474
151.697 7028 83.8332
151.814 7319 85.5512
151.932 7606 87.2124
152.049 7637 87.3899
152.167 7862 88.6679
152.284 7756 88.0682
152.402 7620 87.2926
152.519 7470 86.4292
152.636 7551 86.8965
152.754 7320 85.557
152.871 7056 84
152.989 7026 83.8212
153.106 6640 81.4862
153.223 6831 82.6499
153.341 6942 83.3187
153.458 7254 85.1704
153.575 7338 85.6621
153.693 7443 86.2728
153.81 7572 87.0172
153.927 7846 88.5776
154.044 7869 88.7074
154.162 7903 88.8988
154.279 7981 89.3364
154.396 8498 92.1846
154.513 8514 92.2713
154.63 8706 93.3059
154.747 8522 92.3147
154.864 8570 92.5743
154.981 8406 91.6842
155.098 8273 90.956
155.215 7974 89.2973
155.332 8593 92.6984
155.449 9058 95.1735
155.566 9247 96.1613
155.683 9338 96.6333
155.8 9266 96.2601
155.917 9429 97.103
156.033 9502 97.4782
156.15 0 1
156.267 0 1
156.383 0 1
156.5 0 1
156.617 0 1
156.733 0 1
156.85 0 1
156.966 0 1
157.082 0 1
157.199 0 1
157.315 0 1
157.431 0 1
157.547 0 1
157.664 0 1
157.78 0 1
157.896 0 1
158.012 0 1
158.128 0 1
158.244 0 1
158.359 0 1
158.475 0 1
158.591 0 1
158.706 0 1
