
6.15755 0 1
6.2731 0 1
6.3887 0 1
6.50437 0 1
6.62009 0 1
6.73587 0 1
6.8517 0 1
6.96759 0 1
7.08353 0 1
7.19952 0 1
7.31557 0 1
7.43166 0 1
7.54781 0 1
7.664 0 1
7.78024 0 1
7.89653 0 1
8.01286 0 1
8.12924 0 1
8.24567 0 1
8.36213 0 1
8.47864 0 1
8.59519 0 1
8.71178 0 1
8.82841 0 1
8.94508 0 1
9.06179 0 1
9.17853 0 1
9.29531 0 1
9.41212 0 1
9.52897 0 1
9.64584 0 1
9.76276 0 1
9.8797 0 1
9.99667 0 1
10.1137 0 1
10.2307 0 1
10.3478 0 1
10.4648 0 1
10.5819 0 1
10.6991 0 1
10.8162 0 1
10.9334 0 1
11.0506 0 1
11.1678 0 1
11.285 0 1
11.4023 0 1
11.5196 0 1
11.6369 0 1
11.7542 0 1
11.8715 0 1
11.9888 0 1
12.1062 0 1
12.2235 0 1
12.3409 0 1
12.4582 0 1
12.5756 0 1
12.693 0 1
12.8104 0 1
12.9278 0 1
13.0452 0 1
13.1626 0 1
13.28 0 1
13.3974 0 1
13.5149 0 1
13.6323 0 1
13.7497 0 1
13.8671 0 1
13.9845 0 1
14.1019 0 1
14.2193 0 1
14.3367 0 1
14.4541 0 1
14.5714 0 1
14.6888 0 1
14.8062 0 1
14.9235 0 1
15.0408 0 0
15.1581 0 0
15.2755 0 0
15.3927 0 0
15.51 0 0
15.6273 0 0
15.7445 0 0
15.8617 0 0
15.9789 0 0
16.0961 0 0
16.2132 0 0
16.3304 0 0
16.4475 0 0
16.5646 0 0
16.6816 0 0
16.7986 0 0
16.9156 0 0
17.0326 0 0
17.1496 0 0
17.2665 0 0
17.3833 0 0
17.5002 0 0
17.617 0 0
17.7338 0 0
17.8505 0 0
17.9672 0 0
18.0839 0 0
18.2005 0 0
18.3171 0 0
18.4337 0 0
18.5502 0 0
18.6666 0 0
18.7831 0 0
18.8994 0 0
19.0158 0 0
19.1321 0 0
19.2483 0 0
19.3645 0 0
19.4806 0 0
19.5967 0 0
19.7128 0 0
19.8288 0 0
19.9447 0 0
20.0606 0 1
20.1764 0 1
20.2922 0 1
20.4079 0 1
20.5236 0 1
20.6392 0 1
20.7548 0 1
20.8702 0 1
23.3078 0 1
23.4233 0 1
23.539 0 1
23.6547 0 1
23.7704 0 1
23.8862 0 1
24.0021 0 1
24.118 0 1
24.234 0 1
24.35 0 1
24.4661 2130 46.1519
24.5822 2103 45.8585
24.6984 2080 45.607
24.8146 2193 46.8295
24.9309 2087 45.6837
25.0472 2178 46.669
25.1636 2148 46.3465
25.28 2113 45.9674
25.3965 2148 46.3465
25.513 2162 46.4973
25.6296 2191 46.8081
25.7462 2206 46.9681
25.8628 2205 46.9574
25.9795 2267 47.613
26.0962 2200 46.9042
26.213 2268 47.6235
26.3298 2219 47.1063
26.4466 2224 47.1593
26.5635 2053 45.31
26.6804 1852 43.0349
26.7973 1767 42.0357
26.9143 1877 43.3244
27.0313 1953 44.1928
27.1483 2074 45.5412
27.2653 2154 46.4112
27.3824 2187 46.7654
27.4996 2189 46.7868
27.6167 2161 46.4866
27.7339 2111 45.9456
27.8511 2155 46.422
27.9683 2100 45.8258
28.0855 2192 46.8188
28.2028 2149 46.3573
28.3201 2096 45.7821
28.4374 2052 45.299
28.5547 2138 46.2385
28.6721 2157 46.4435
28.7894 2180 46.6905
28.9068 2153 46.4004
29.0242 2193 46.8295
29.1416 2186 46.7547
29.259 2144 46.3033
29.3764 2190 46.7974
29.4939 2195 46.8508
29.6113 2159 46.465
29.7288 2142 46.2817
29.8463 2102 45.8476
29.9638 2044 45.2106
30.0812 1944 44.0908
30.1987 1859 43.1161
30.3162 1669 40.8534
30.4337 1708 41.328
30.5512 1877 43.3244
30.6687 2008 44.8107
30.7862 2106 45.8912
30.9037 1987 44.5758
31.0212 2264 47.5815
31.1387 2218 47.0956
31.2562 2232 47.244
31.3737 2200 46.9042
31.4912 2087 45.6837
31.6087 2132 46.1736
31.7262 2123 46.076
31.8436 2158 46.4543
31.9611 2229 47.2123
32.0785 2064 45.4313
32.1959 2184 46.7333
32.3134 2124 46.0869
32.4308 2153 46.4004
32.5482 2087 45.6837
32.6655 2198 46.8828
32.7829 2136 46.2169
32.9002 2212 47.0319
33.0176 2225 47.1699
33.1349 2183 46.7226
33.2522 2211 47.0213
33.3694 2238 47.3075
33.4867 2216 47.0744
33.6039 2145 46.3141
33.7211 2008 44.8107
33.8383 1915 43.7607
33.9554 1715 41.4126
34.0725 1757 41.9166
34.1896 1862 43.1509
34.3067 2011 44.8442
34.4237 2156 46.4327
34.5407 2196 46.8615
34.6577 2256 47.4974
34.7746 2302 47.9792
34.8915 2187 46.7654
35.0084 2080 45.607
35.1252 2156 46.4327
35.242 2112 45.9565
35.3587 2214 47.0532
35.4755 2168 46.5618
35.5921 2217 47.085
35.7088 2160 46.4758
35.8254 2215 47.0638
35.9419 2206 46.9681
36.0584 2226 47.1805
36.1749 2161 46.4866
36.2913 2326 48.2286
36.4077 2222 47.1381
36.524 2196 46.8615
36.6403 2097 45.793
36.7565 2200 46.9042
36.8727 2219 47.1063
36.9889 2230 47.2229
37.1049 2223 47.1487
37.221 0 1
37.3369 0 1
37.4529 0 1
37.5687 0 1
37.6845 0 1
37.8003 0 1
37.916 0 1
38.0316 0 1
38.1472 0 1
40.5851 0 1
40.7008 0 1
40.8164 0 1
40.9322 0 1
41.048 0 1
41.1639 0 1
41.2798 0 1
41.3958 0 1
41.5118 0 1
41.6279 0 1
41.744 1863 43.1625
41.8602 1893 43.5086
41.9765 1979 44.486
42.0928 1984 44.5421
42.2091 2007 44.7996
42.3255 1921 43.8292
42.4419 1868 43.2204
42.5584 1727 41.5572
42.675 1537 39.2046
42.7915 1466 38.2884
42.9081 1645 40.5586
43.0248 1795 42.3674
43.1415 1878 43.3359
43.2582 1862 43.1509
43.375 1972 44.4072
43.4918 2041 45.1774
43.6087 1946 44.1135
43.7256 1972 44.4072
43.8425 1952 44.1814
43.9595 1769 42.0595
44.0765 1885 43.4166
44.1935 1889 43.4626
44.3106 1819 42.6497
44.4277 1693 41.1461
44.5448 1763 41.9881
44.6619 1636 40.4475
44.7791 1675 40.9268
44.8963 1751 41.845
45.0136 1795 42.3674
45.1308 1760 41.9524
45.2481 1699 41.2189
45.3654 1672 40.8901
45.4827 1726 41.5452
45.6001 1713 41.3884
45.7174 1736 41.6653
45.8348 1680 40.9878
45.9522 1646 40.5709
46.0697 1523 39.0256
46.1871 1404 37.47
46.3046 1373 37.054
46.422 1266 35.5809
46.5395 1390 37.2827
46.657 1485 38.5357
46.7745 1554 39.4208
46.892 1605 40.0625
47.0096 1657 40.7063
47.1271 1605 40.0625
47.2446 1649 40.6079
47.3622 1589 39.8623
47.4797 1636 40.4475
47.5973 1550 39.37
47.7149 1483 38.5097
47.8324 1401 37.4299
47.95 1524 39.0384
48.0675 1352 36.7696
48.1851 1333 36.5103
48.3027 1406 37.4967
48.4202 1416 37.6298
48.5378 1432 37.8418
48.6554 1517 38.9487
48.7729 1517 38.9487
48.8904 1536 39.1918
49.008 1596 39.95
49.1255 1470 38.3406
49.243 1520 38.9872
49.3605 1555 39.4335
49.478 1460 38.2099
49.5955 1495 38.6652
49.713 1237 35.171
49.8304 1227 35.0286
49.9479 1249 35.3412
50.0653 1361 36.8917
50.1827 1538 39.2173
50.3001 1733 41.6293
50.4175 1735 41.6533
50.5348 1810 42.5441
50.6521 2003 44.7549
50.7694 1903 43.6234
50.8867 1964 44.317
51.004 2083 45.6399
51.1212 1955 44.2154
51.2384 1991 44.6206
51.3556 2027 45.0222
51.4727 1985 44.5533
51.5899 2137 46.2277
51.707 2008 44.8107
51.824 2120 46.0435
51.9411 2157 46.4435
52.0581 2236 47.2864
52.175 2316 48.1248
52.2919 2322 48.1871
52.4088 2341 48.3839
52.5257 2332 48.2908
52.6425 2353 48.5077
52.7593 2428 49.2747
52.876 2518 50.1797
52.9927 2506 50.06
53.1094 2399 48.9796
53.226 2308 48.0416
53.3426 2099 45.8148
53.4591 1948 44.1362
53.5756 1939 44.0341
53.692 2171 46.594
53.8084 2445 49.4469
53.9248 2609 51.0784
54.0411 2665 51.6236
54.1573 2845 53.3385
54.2735 0 1
54.3896 0 1
54.5057 0 1
54.6217 0 1
54.7377 0 1
54.8537 0 1
54.9695 0 1
55.0853 0 1
55.2011 0 1
55.3168 0 1
55.4324 0 1
57.824 0 1
57.9396 0 1
58.0553 0 1
58.1711 0 1
58.2869 0 1
58.4028 0 1
58.5187 0 1
58.6347 0 1
58.7508 0 1
58.8669 0 1
58.983 3365 58.0086
59.0992 3500 59.1608
59.2155 3657 60.4731
59.3318 3792 61.5792
59.4482 3852 62.0645
59.5646 3965 62.9682
59.681 3715 60.9508
59.7975 3720 60.9918
59.9141 3756 61.2862
60.0306 3561 59.6741
60.1473 3628 60.2329
60.2639 3426 58.532
60.3807 3419 58.4722
60.4974 3535 59.4559
60.6142 3526 59.3801
60.731 3793 61.5873
60.8479 3718 60.9754
60.9648 3647 60.3904
61.0818 3879 62.2816
61.1987 3895 62.4099
61.3158 3947 62.8252
61.4328 3904 62.482
61.5499 3753 61.2617
61.667 3614 60.1166
61.7841 3364 58
61.9013 3227 56.8067
62.0185 3077 55.4707
62.1357 3018 54.9363
62.253 3226 56.7979
62.3702 3461 58.8303
62.4875 3858 62.1128
62.6049 3919 62.6019
62.7222 4069 63.7887
62.8396 4133 64.2884
62.9569 4128 64.2495
63.0743 4150 64.4205
63.1918 4066 63.7652
63.3092 3994 63.1981
63.4267 3872 62.2254
63.5441 3731 61.0819
63.6616 3672 60.597
63.7791 3634 60.2827
63.8966 3596 59.9667
64.0142 3674 60.6135
64.1317 3815 61.7657
64.2492 3837 61.9435
64.3668 4137 64.3195
64.4843 4156 64.467
64.6019 4164 64.5291
64.7195 4144 64.3739
64.837 4183 64.6761
64.9546 4221 64.9692
65.0722 4090 63.9531
65.1898 3972 63.0238
65.3074 3951 62.857
65.4249 3463 58.8473
65.5425 3252 57.0263
65.6601 3054 55.263
65.7777 3218 56.7274
65.8952 3619 60.1581
66.0128 3891 62.3779
66.1304 4078 63.8592
66.2479 4367 66.0833
66.3655 4456 66.7533
66.483 4411 66.4154
66.6005 4523 67.2533
66.718 4539 67.3721
66.8355 4520 67.2309
66.953 4450 66.7083
67.0705 4328 65.7875
67.1879 4127 64.2417
67.3054 4016 63.3719
67.4228 4039 63.5531
67.5402 3910 62.53
67.6576 4013 63.3482
67.7749 4204 64.8383
67.8923 4356 66
68.0096 4546 67.424
68.1269 4542 67.3944
68.2442 4609 67.8896
68.3614 4691 68.4909
68.4787 4829 69.491
68.5958 4853 69.6635
68.713 4806 69.3253
68.8302 4597 67.8012
68.9473 4549 67.4463
69.0643 4253 65.215
69.1814 3730 61.0737
69.2984 3686 60.7124
69.4154 3635 60.291
69.5323 4044 63.5925
69.6492 4510 67.1565
69.7661 4895 69.9643
69.8829 5066 71.1758
69.9997 5231 72.3257
70.1165 5222 72.2634
70.2332 5435 73.7225
70.3499 5340 73.0753
70.4665 5157 71.8123
70.5831 5150 71.7635
70.6996 4993 70.6612
70.8161 4923 70.1641
70.9326 4766 69.0362
71.049 4505 67.1193
71.1653 4386 66.2269
71.2817 4331 65.8103
71.3979 4563 67.55
71.5141 4547 67.4314
71.6303 4616 67.9412
71.7464 4502 67.0969
71.8624 0 1
71.9784 0 1
72.0944 0 1
72.2102 0 1
72.3261 0 1
72.4418 0 1
72.5575 0 1
72.6732 0 1
75.1054 0 1
75.2209 0 1
75.3365 0 1
75.4521 0 1
75.5678 0 1
75.6835 0 1
75.7993 0 1
75.9151 0 1
76.031 0 1
76.147 4625 68.0074
76.263 4931 70.2211
76.3791 4709 68.6222
76.4952 4684 68.4398
76.6113 4623 67.9926
76.7276 4641 68.1249
76.8438 4828 69.4838
76.9601 5167 71.8818
77.0765 5342 73.089
77.1929 5604 74.8599
77.3093 5451 73.8309
77.4258 5727 75.6769
77.5423 5649 75.1598
77.6589 5593 74.7864
77.7755 5508 74.2159
77.8921 5174 71.9305
78.0088 4753 68.942
78.1256 4345 65.9166
78.2423 4093 63.9766
78.3591 3866 62.1772
78.4759 4055 63.6789
78.5928 4472 66.873
78.7097 4962 70.4415
78.8266 5580 74.6994
78.9436 5451 73.8309
79.0606 5656 75.2064
79.1776 5531 74.3707
79.2946 5757 75.8749
79.4117 5613 74.92
79.5288 5671 75.306
79.6459 5626 75.0067
79.7631 5271 72.6017
79.8802 5026 70.8943
79.9974 4775 69.1014
80.1147 4559 67.5204
80.2319 4575 67.6387
80.3491 4632 68.0588
80.4664 4823 69.4478
80.5837 5041 71
80.701 5217 72.2288
80.8183 5342 73.089
80.9357 5303 72.8217
81.053 5539 74.4245
81.1704 5445 73.7902
81.2877 5488 74.081
81.4051 5452 73.8377
81.5225 5363 73.2325
81.6399 4977 70.5479
81.7573 4597 67.8012
81.8747 4147 64.3972
81.9922 3991 63.1744
82.1096 4083 63.8984
82.227 4299 65.5668
82.3444 4544 67.4092
82.4619 5145 71.7287
82.5793 5093 71.3653
82.6967 5375 73.3144
82.8142 5317 72.9178
82.9316 5325 72.9726
83.049 5338 73.0616
83.1664 5228 72.3049
83.2838 5123 71.5751
83.4012 5017 70.8308
83.5186 4867 69.7639
83.636 4553 67.4759
83.7534 4297 65.5515
83.8708 4201 64.8151
83.9881 4288 65.4828
84.1055 4311 65.6582
84.2228 4633 68.0661
84.3401 4870 69.7854
84.4575 5125 71.5891
84.5747 5241 72.3948
84.692 5343 73.0958
84.8093 5307 72.8492
84.9265 5410 73.5527
85.0437 5273 72.6154
85.1609 4962 70.4415
85.2781 4550 67.4537
85.3952 4274 65.3758
85.5123 4149 64.4127
85.6294 3971 63.0159
85.7465 4160 64.4981
85.8636 4554 67.4833
85.9806 4850 69.6419
86.0976 5272 72.6085
86.2145 5643 75.1199
86.3315 5591 74.773
86.4484 5998 77.4468
86.5652 5933 77.026
86.682 5855 76.518
86.7988 5847 76.4657
86.9156 5816 76.2627
87.0323 5549 74.4916
87.149 5333 73.0274
87.2657 5244 72.4155
87.3823 4920 70.1427
87.4988 4531 67.3127
87.6154 4954 70.3847
87.7318 5089 71.3372
87.8483 5470 73.9594
87.9647 5807 76.2037
88.081 5997 77.4403
88.1973 6120 78.2304
88.3136 6239 78.9873
88.4298 6010 77.5242
88.546 6115 78.1985
88.6621 5895 76.7789
88.7781 5469 73.9527
88.8942 0 1
89.0101 0 1
89.126 0 1
89.2419 0 1
89.3577 0 1
89.4734 0 1
89.5891 0 1
89.7047 0 1
89.8203 0 1
89.9358 0 1
92.3269 0 1
92.4424 0 1
92.558 0 1
92.6736 0 1
92.7893 0 1
92.905 0 1
93.0208 0 1
93.1366 0 1
93.2525 0 1
93.3685 0 1
93.4845 0 1
93.6005 6133 78.3135
93.7167 6058 77.8332
93.8328 6031 77.6595
93.949 6059 77.8396
94.0653 6015 77.5564
94.1816 5796 76.1315
94.2979 5538 74.4177
94.4143 5173 71.9236
94.5307 4953 70.3776
94.6472 4736 68.8186
94.7637 4686 68.4544
94.8803 5021 70.859
94.9969 5328 72.9932
95.1135 5530 74.364
95.2302 5668 75.2861
95.3469 5894 76.7724
95.4637 6288 79.2969
95.5805 6149 78.4156
95.6973 6401 80.0062
95.8142 6423 80.1436
95.9311 6283 79.2654
96.048 6126 78.2688
96.1649 6073 77.9295
96.2819 6034 77.6788
96.3989 5573 74.6525
96.516 5365 73.2462
96.633 5047 71.0422
96.7501 4838 69.5557
96.8673 5216 72.2219
96.9844 5378 73.3348
97.1016 5707 75.5447
97.2188 6054 77.8075
97.336 6453 80.3306
97.4532 6490 80.5605
97.5704 6565 81.0247
97.6877 6487 80.5419
97.805 6259 79.1138
97.9223 6213 78.8226
98.0396 5660 75.233
98.1569 5311 72.8766
98.2743 5069 71.1969
98.3916 4964 70.4557
98.509 5082 71.2881
98.6264 5369 73.2735
98.7438 5722 75.6439
98.8612 5923 76.961
98.9786 6194 78.702
99.096 6410 80.0625
99.2134 6424 80.1499
99.3308 6574 81.0802
99.4482 6707 81.8963
99.5656 6681 81.7374
99.6831 6492 80.5729
99.8005 6313 79.4544
99.9179 6328 79.5487
100.035 5864 76.5768
100.153 5539 74.4245
100.27 5147 71.7426
100.388 5274 72.6223
100.505 5553 74.5185
100.622 6008 77.5113
100.74 6456 80.3492
100.857 6656 81.5843
100.975 6706 81.8902
101.092 6777 82.3225
101.209 6795 82.4318
101.327 6737 82.0792
101.444 6526 80.7837
101.561 6499 80.6164
101.679 5967 77.2464
101.796 5615 74.9333
101.913 5345 73.1095
102.03 5295 72.7668
102.148 5656 75.2064
102.265 6305 79.404
102.382 6141 78.3645
102.499 6503 80.6412
102.616 6877 82.9277
102.733 6875 82.9156
102.851 6939 83.3007
102.968 7057 84.006
103.085 7143 84.5163
103.202 6912 83.1384
103.319 6867 82.8674
103.436 6682 81.7435
103.552 6472 80.4487
103.669 5982 77.3434
103.786 5546 74.4715
103.903 5434 73.7157
104.02 5844 76.4461
104.137 6284 79.2717
104.253 7236 85.0647
104.37 6962 83.4386
104.487 7198 84.841
104.603 7244 85.1117
104.72 7191 84.7998
104.836 7247 85.1293
104.953 7131 84.4452
105.069 6873 82.9036
105.186 6448 80.2994
105.302 5970 77.2658
105.418 5936 77.0454
105.535 5925 76.974
105.651 6313 79.4544
105.767 6562 81.0062
105.883 6969 83.4805
105.999 7132 84.4512
106.115 0 1
106.231 0 1
106.347 0 1
106.463 0 1
106.579 0 1
106.694 0 1
106.81 0 1
106.926 0 1
107.041 0 1
107.157 0 1
109.576 0 1
109.692 0 1
109.807 0 1
109.923 0 1
110.039 0 1
110.155 0 1
110.27 0 1
110.386 0 1
110.502 0 1
110.618 5712 75.5778
110.735 6000 77.4597
110.851 6565 81.0247
110.967 6577 81.0987
111.083 6563 81.0123
111.199 6823 82.6015
111.316 7090 84.2021
111.432 7048 83.9524
111.549 7100 84.2615
111.665 7051 83.9702
111.782 6758 82.2071
111.898 6493 80.5792
112.015 6226 78.905
112.132 5849 76.4788
112.248 5176 71.9444
112.365 4909 70.0643
112.482 5392 73.4302
112.599 5685 75.3989
112.716 6285 79.278
112.832 6709 81.9085
112.949 6506 80.6598
113.066 6526 80.7837
113.183 6602 81.2527
113.3 6452 80.3243
113.417 6447 80.2932
113.534 6200 78.7401
113.652 5917 76.922
113.769 5663 75.2529
113.886 5257 72.5052
114.003 4993 70.6612
114.12 5152 71.7774
114.238 5440 73.7564
114.355 5564 74.5922
114.472 5674 75.326
114.589 6076 77.9487
114.707 5935 77.039
114.824 6050 77.7817
114.942 6240 78.9937
115.059 6274 79.2086
115.176 6315 79.467
115.294 6205 78.7718
115.411 6023 77.608
115.529 5966 77.2399
115.646 5514 74.2563
115.764 5061 71.1407
115.881 4590 67.7495
115.999 4739 68.8404
116.116 5285 72.698
116.234 5723 75.6505
116.351 5930 77.0065
116.469 6278 79.2338
116.586 6151 78.4283
116.704 6380 79.8749
116.821 6304 79.3977
116.939 6157 78.4666
117.056 6227 78.9113
117.174 5913 76.896
117.291 5867 76.5963
117.409 5652 75.1798
117.526 5325 72.9726
117.644 5239 72.3809
117.761 5276 72.6361
117.879 5652 75.1798
117.996 5636 75.0733
118.114 6020 77.5887
118.231 5881 76.6877
118.349 6040 77.7174
118.466 6229 78.924
118.584 6145 78.3901
118.701 6475 80.4674
118.819 6497 80.604
118.936 6495 80.5916
119.053 6075 77.9423
119.171 5983 77.3499
119.288 5514 74.2563
119.405 4984 70.5975
119.523 4662 68.2788
119.64 4743 68.8694
119.757 5125 71.5891
119.875 5689 75.4255
119.992 5804 76.184
120.109 6053 77.801
120.226 6291 79.3158
120.343 6225 78.8987
120.46 6226 78.905
120.578 6082 77.9872
120.695 6244 79.019
120.812 6100 78.1025
120.929 5946 77.1103
121.046 5802 76.1709
121.163 5495 74.1283
121.279 5450 73.8241
121.396 5161 71.8401
121.513 5239 72.3809
121.63 5523 74.3169
121.747 5474 73.9865
121.863 5764 75.921
121.98 6039 77.711
122.097 6129 78.2879
122.213 6259 79.1138
122.33 6029 77.6466
122.446 6122 78.2432
122.563 6215 78.8353
122.679 6180 78.613
122.795 5803 76.1774
122.912 5782 76.0395
123.028 5416 73.5935
123.144 4926 70.1855
123.26 4577 67.6535
123.377 0 1
123.493 0 1
123.609 0 1
123.725 0 1
123.84 0 1
123.956 0 1
124.072 0 1
124.188 0 1
124.303 0 1
124.419 0 1
126.852 0 1
126.968 0 1
127.083 0 1
127.199 0 1
127.315 0 1
127.431 0 1
127.547 0 1
127.663 0 1
127.779 0 1
127.895 0 1
128.011 0 1
128.127 0 1
128.243 0 1
128.359 5346 73.1163
128.476 4954 70.3847
128.592 5197 72.0902
128.708 5684 75.3923
128.825 6235 78.962
128.941 6647 81.5291
129.058 6823 82.6015
129.174 6937 83.2887
129.291 6920 83.1865
129.408 6769 82.2739
129.524 6903 83.0843
129.641 6828 82.6317
129.758 6708 81.9024
129.875 6627 81.4064
129.992 6307 79.4166
130.108 6100 78.1025
130.225 6079 77.9679
130.342 5804 76.184
130.459 5874 76.642
130.576 6092 78.0513
130.693 6502 80.635
130.81 6551 80.9382
130.928 6664 81.6333
131.045 6406 80.0375
131.162 6648 81.5353
131.279 6851 82.7708
131.396 6749 82.1523
131.513 6632 81.4371
131.631 6495 80.5916
131.748 6287 79.2906
131.865 5593 74.7864
131.983 5262 72.5396
132.1 5032 70.9366
132.217 5393 73.437
132.335 5975 77.2981
132.452 6403 80.0187
132.57 6473 80.455
132.687 6426 80.1623
132.804 6746 82.134
132.922 6760 82.2192
133.039 6692 81.8046
133.157 6744 82.1219
133.274 6516 80.7217
133.392 6510 80.6846
133.509 6278 79.2338
133.627 6161 78.492
133.744 6225 78.8987
133.862 5912 76.8895
133.979 5956 77.1751
134.097 5949 77.1298
134.214 6243 79.0127
134.332 6186 78.6511
134.449 6254 79.0822
134.567 6517 80.7279
134.684 6472 80.4487
134.802 6665 81.6395
134.919 6559 80.9877
135.037 6423 80.1436
135.154 6437 80.2309
135.272 6434 80.2122
135.389 5717 75.6108
135.507 5234 72.3464
135.624 5044 71.0211
135.742 4972 70.5124
135.859 5454 73.8512
135.977 5924 76.9675
136.094 6292 79.3221
136.211 6483 80.5171
136.329 6646 81.523
136.446 6530 80.8084
136.564 6684 81.7557
136.681 6619 81.3572
136.798 6496 80.5978
136.915 6606 81.2773
137.033 6444 80.2745
137.15 6325 79.5299
137.267 6324 79.5236
137.384 5942 77.0844
137.502 5878 76.6681
137.619 5728 75.6836
137.736 5802 76.1709
137.853 5859 76.5441
137.97 5969 77.2593
138.087 6486 80.5357
138.204 6384 79.8999
138.321 6298 79.3599
138.438 6356 79.7245
138.555 6546 80.9074
138.672 6538 80.8579
138.788 6354 79.712
138.905 6321 79.5047
139.022 5882 76.6942
139.139 5410 73.5527
139.255 4897 69.9786
139.372 4942 70.2994
139.488 5522 74.3102
139.605 5789 76.0855
139.721 6197 78.721
139.838 6549 80.9259
139.954 6474 80.4612
140.071 6377 79.8561
140.187 6582 81.1295
140.303 6465 80.4052
140.419 6496 80.5978
140.535 6493 80.5792
140.652 6257 79.1012
140.768 0 1
140.884 0 1
141 0 1
141.115 0 1
141.231 0 1
141.347 0 1
141.463 0 1
141.578 0 1
141.694 0 1
144.104 0 1
144.219 0 1
144.335 0 1
144.45 0 1
144.566 0 1
144.682 0 1
144.798 0 1
144.914 0 1
145.03 0 1
145.146 5586 74.7395
145.262 5702 75.5116
145.378 5733 75.7166
145.494 5532 74.3774
145.61 5633 75.0533
145.726 5592 74.7797
145.842 5538 74.4177
145.959 5475 73.9932
146.075 5409 73.5459
146.192 5285 72.698
146.308 5160 71.8331
146.425 5262 72.5396
146.541 5316 72.9109
146.658 5266 72.5672
146.774 5369 73.2735
146.891 5470 73.9594
147.008 5555 74.5319
147.125 5562 74.5788
147.241 5485 74.0608
147.358 5446 73.797
147.475 5313 72.8903
147.592 5018 70.8378
147.709 4667 68.3154
147.826 4116 64.1561
147.943 4183 64.6761
148.06 4511 67.164
148.177 4823 69.4478
148.294 5148 71.7496
148.411 5354 73.171
148.528 5416 73.5935
148.645 5484 74.054
148.762 5398 73.4711
148.88 5281 72.6705
148.997 5145 71.7287
149.114 5563 74.5855
149.231 5409 73.5459
149.349 5287 72.7118
149.466 5278 72.6498
149.583 5051 71.0704
149.701 5057 71.1126
149.818 4932 70.2282
149.935 4834 69.527
150.053 4871 69.7925
150.17 4907 70.05
150.287 4983 70.5904
150.405 5046 71.0352
150.522 5181 71.9792
150.64 5237 72.3671
150.757 5209 72.1734
150.875 5129 71.617
150.992 5121 71.5612
151.11 4908 70.0571
151.227 4712 68.644
151.344 4426 66.5282
151.462 4109 64.1015
151.579 4028 63.4665
151.697 4364 66.0606
151.814 4749 68.913
151.932 4976 70.5408
152.049 5407 73.5323
152.167 5384 73.3757
152.284 5258 72.5121
152.402 5333 73.0274
152.519 5362 73.2257
152.636 5191 72.0486
152.754 5221 72.2565
152.871 5142 71.7077
152.989 5145 71.7287
153.106 5144 71.7217
153.223 5157 71.8123
153.341 4879 69.8498
153.458 4848 69.6276
153.575 4980 70.5691
153.693 4825 69.4622
153.81 5004 70.739
153.927 4944 70.3136
154.044 5089 71.3372
154.162 5242 72.4017
154.279 5338 73.0616
154.396 5262 72.5396
154.513 5203 72.1318
154.63 5150 71.7635
154.747 5058 71.1196
154.864 4889 69.9214
154.981 4662 68.2788
155.098 4156 64.467
155.215 4447 66.6858
155.332 4445 66.6708
155.449 4849 69.6348
155.566 5052 71.0774
155.683 5442 73.7699
155.8 5402 73.4983
155.917 5370 73.2803
156.033 5388 73.403
156.15 0 1
156.267 0 1
156.383 0 1
156.5 0 1
156.617 0 1
156.733 0 1
156.85 0 1
156.966 0 1
157.082 0 1
157.199 0 1
157.315 0 1
157.431 0 1
157.547 0 1
157.664 0 1
157.78 0 1
157.896 0 1
158.012 0 1
158.128 0 1
158.244 0 1
158.359 0 1
158.475 0 1
158.591 0 1
158.706 0 1
