
6.15755 0 1
6.2731 0 1
6.3887 0 1
6.50437 0 1
6.62009 0 1
6.73587 0 1
6.8517 0 1
6.96759 0 1
7.08353 0 1
7.19952 0 1
7.31557 0 1
7.43166 0 1
7.54781 0 1
7.664 0 1
7.78024 0 1
7.89653 0 1
8.01286 0 1
8.12924 0 1
8.24567 0 1
8.36213 0 1
8.47864 0 1
8.59519 0 1
8.71178 0 1
8.82841 0 1
8.94508 0 1
9.06179 0 1
9.17853 0 1
9.29531 0 1
9.41212 0 1
9.52897 0 1
9.64584 0 1
9.76276 0 1
9.8797 0 1
9.99667 0 1
10.1137 0 1
10.2307 0 1
10.3478 0 1
10.4648 0 1
10.5819 0 1
10.6991 0 1
10.8162 0 1
10.9334 0 1
11.0506 0 1
11.1678 0 1
11.285 0 1
11.4023 0 1
11.5196 0 1
11.6369 0 1
11.7542 0 1
11.8715 0 1
11.9888 0 1
12.1062 0 1
12.2235 0 1
12.3409 0 1
12.4582 0 1
12.5756 0 1
12.693 0 1
12.8104 0 1
12.9278 0 1
13.0452 0 1
13.1626 0 1
13.28 0 1
13.3974 0 1
13.5149 0 1
13.6323 0 1
13.7497 0 1
13.8671 0 1
13.9845 0 1
14.1019 0 1
14.2193 0 1
14.3367 0 1
14.4541 0 1
14.5714 0 1
14.6888 0 1
14.8062 0 1
14.9235 0 1
15.0408 0 0
15.1581 0 0
15.2755 0 0
15.3927 0 0
15.51 0 0
15.6273 0 0
15.7445 0 0
15.8617 0 0
15.9789 0 0
16.0961 0 0
16.2132 0 0
16.3304 0 0
16.4475 0 0
16.5646 0 0
16.6816 0 0
16.7986 0 0
16.9156 0 0
17.0326 0 0
17.1496 0 0
17.2665 0 0
17.3833 0 0
17.5002 0 0
17.617 0 0
17.7338 0 0
17.8505 0 0
17.9672 0 0
18.0839 0 0
18.2005 0 0
18.3171 0 0
18.4337 0 0
18.5502 0 0
18.6666 0 0
18.7831 0 0
18.8994 0 0
19.0158 0 0
19.1321 0 0
19.2483 0 0
19.3645 0 0
19.4806 0 0
19.5967 0 0
19.7128 0 0
19.8288 0 0
19.9447 0 0
20.0606 0 1
20.1764 0 1
20.2922 0 1
20.4079 0 1
20.5236 0 1
20.6392 0 1
20.7548 0 1
20.8702 0 1
23.3078 0 1
23.4233 0 1
23.539 0 1
23.6547 0 1
23.7704 0 1
23.8862 0 1
24.0021 0 1
24.118 0 1
24.234 0 1
24.35 0 1
24.4661 1262 35.5246
24.5822 1363 36.9188
24.6984 1472 38.3667
24.8146 1645 40.5586
24.9309 1871 43.2551
25.0472 2229 47.2123
25.1636 2323 48.1975
25.28 2513 50.1298
25.3965 2667 51.643
25.513 2554 50.5371
25.6296 2626 51.2445
25.7462 2561 50.6063
25.8628 2624 51.225
25.9795 2633 51.3128
26.0962 2655 51.5267
26.213 2650 51.4782
26.3298 2709 52.0481
26.4466 2660 51.5752
26.5635 2669 51.6624
26.6804 2688 51.8459
26.7973 2548 50.4777
26.9143 2459 49.5883
27.0313 2472 49.7192
27.1483 2413 49.1223
27.2653 2411 49.1019
27.3824 2348 48.4562
27.4996 2225 47.1699
27.6167 2180 46.6905
27.7339 2108 45.913
27.8511 2284 47.7912
27.9683 2382 48.8057
28.0855 2465 49.6488
28.2028 2382 48.8057
28.3201 2427 49.2646
28.4374 2442 49.4166
28.5547 2491 49.9099
28.6721 2464 49.6387
28.7894 2379 48.775
28.9068 2461 49.6085
29.0242 2467 49.6689
29.1416 2432 49.3153
29.259 2596 50.951
29.3764 2495 49.95
29.4939 2510 50.0999
29.6113 2399 48.9796
29.7288 2363 48.6107
29.8463 2276 47.7074
29.9638 2267 47.613
30.0812 2333 48.3011
30.1987 2430 49.295
30.3162 2337 48.3425
30.4337 2372 48.7032
30.5512 2359 48.5695
30.6687 2423 49.224
30.7862 2354 48.518
30.9037 2327 48.239
31.0212 2231 47.2335
31.1387 2171 46.594
31.2562 2240 47.3286
31.3737 2330 48.2701
31.4912 2515 50.1498
31.6087 2411 49.1019
31.7262 2479 49.7896
31.8436 2558 50.5767
31.9611 2423 49.224
32.0785 2414 49.1325
32.1959 2385 48.8365
32.3134 2441 49.4065
32.4308 2313 48.0937
32.5482 2291 47.8644
32.6655 2274 47.6865
32.7829 2213 47.0425
32.9002 2163 46.5081
33.0176 2176 46.6476
33.1349 2175 46.6369
33.2522 2135 46.2061
33.3694 2092 45.7384
33.4867 2105 45.8803
33.6039 2182 46.7119
33.7211 2293 47.8853
33.8383 2186 46.7547
33.9554 2308 48.0416
34.0725 2221 47.1275
34.1896 2351 48.4871
34.3067 2351 48.4871
34.4237 2387 48.8569
34.5407 2308 48.0416
34.6577 2205 46.9574
34.7746 2175 46.6369
34.8915 2247 47.4025
35.0084 2306 48.0208
35.1252 2456 49.558
35.242 2510 50.0999
35.3587 2479 49.7896
35.4755 2395 48.9387
35.5921 2378 48.7647
35.7088 2340 48.3735
35.8254 2238 47.3075
35.9419 2167 46.551
36.0584 2052 45.299
36.1749 2077 45.5741
36.2913 1943 44.0795
36.4077 1940 44.0454
36.524 1847 42.9767
36.6403 1628 40.3485
36.7565 1425 37.7492
36.8727 1410 37.55
36.9889 1391 37.2961
37.1049 1330 36.4692
37.221 0 1
37.3369 0 1
37.4529 0 1
37.5687 0 1
37.6845 0 1
37.8003 0 1
37.916 0 1
38.0316 0 1
38.1472 0 1
40.5851 0 1
40.7008 0 1
40.8164 0 1
40.9322 0 1
41.048 0 1
41.1639 0 1
41.2798 0 1
41.3958 0 1
41.5118 0 1
41.6279 0 1
41.744 1810 42.5441
41.8602 2292 47.8748
41.9765 2937 54.1941
42.0928 3095 55.6327
42.2091 3056 55.2811
42.3255 3130 55.9464
42.4419 3099 55.6687
42.5584 3173 56.3294
42.675 3256 57.0614
42.7915 3438 58.6345
42.9081 3477 58.9661
43.0248 3478 58.9746
43.1415 3512 59.2621
43.2582 3281 57.28
43.375 3107 55.7405
43.4918 3068 55.3895
43.6087 3132 55.9643
43.7256 3099 55.6687
43.8425 3276 57.2364
43.9595 3170 56.3028
44.0765 3116 55.8211
44.1935 3088 55.5698
44.3106 3059 55.3082
44.4277 2986 54.6443
44.5448 2795 52.8678
44.6619 2630 51.2835
44.7791 2659 51.5655
44.8963 2380 48.7852
45.0136 2268 47.6235
45.1308 2162 46.4973
45.2481 2073 45.5302
45.3654 2050 45.2769
45.4827 1992 44.6318
45.6001 1833 42.8135
45.7174 1940 44.0454
45.8348 1865 43.1856
45.9522 1821 42.6732
46.0697 1872 43.2666
46.1871 1995 44.6654
46.3046 1991 44.6206
46.422 2030 45.0555
46.5395 2063 45.4203
46.657 2045 45.2217
46.7745 2084 45.6508
46.892 1894 43.5201
47.0096 1753 41.8688
47.1271 1981 44.5084
47.2446 1993 44.643
47.3622 1991 44.6206
47.4797 2019 44.9333
47.5973 2014 44.8776
47.7149 1998 44.699
47.8324 2062 45.4093
47.95 1987 44.5758
48.0675 1965 44.3283
48.1851 1930 43.9318
48.3027 1914 43.7493
48.4202 1815 42.6028
48.5378 1867 43.2088
48.6554 1825 42.72
48.7729 1782 42.2137
48.8904 1779 42.1782
49.008 1756 41.9047
49.1255 1767 42.0357
49.243 1844 42.9418
49.3605 1837 42.8602
49.478 1778 42.1663
49.5955 1879 43.3474
49.713 1851 43.0232
49.8304 1974 44.4297
49.9479 1913 43.7379
50.0653 2001 44.7325
50.1827 1864 43.1741
50.3001 1873 43.2782
50.4175 1655 40.6817
50.5348 1569 39.6106
50.6521 1647 40.5832
50.7694 1775 42.1307
50.8867 1962 44.2945
51.004 2020 44.9444
51.1212 2084 45.6508
51.2384 2080 45.607
51.3556 2001 44.7325
51.4727 1943 44.0795
51.5899 1957 44.238
51.707 2028 45.0333
51.824 1935 43.9886
51.9411 1928 43.909
52.0581 1828 42.7551
52.175 1904 43.6348
52.2919 1809 42.5323
52.4088 1888 43.4511
52.5257 1870 43.2435
52.6425 1746 41.7852
52.7593 1709 41.3401
52.876 1767 42.0357
52.9927 1727 41.5572
53.1094 1806 42.4971
53.226 1759 41.9404
53.3426 1784 42.2374
53.4591 1750 41.833
53.5756 1589 39.8623
53.692 1376 37.0945
53.8084 1287 35.8748
53.9248 1151 33.9264
54.0411 1029 32.078
54.1573 959 30.9677
54.2735 0 1
54.3896 0 1
54.5057 0 1
54.6217 0 1
54.7377 0 1
54.8537 0 1
54.9695 0 1
55.0853 0 1
55.2011 0 1
55.3168 0 1
55.4324 0 1
57.824 0 1
57.9396 0 1
58.0553 0 1
58.1711 0 1
58.2869 0 1
58.4028 0 1
58.5187 0 1
58.6347 0 1
58.7508 0 1
58.8669 0 1
58.983 1541 39.2556
59.0992 1678 40.9634
59.2155 1642 40.5216
59.3318 1766 42.0238
59.4482 1983 44.5309
59.5646 2089 45.7056
59.681 2321 48.1768
59.7975 2314 48.1041
59.9141 2301 47.9687
60.0306 2340 48.3735
60.1473 2376 48.7442
60.2639 2281 47.7598
60.3807 2262 47.5605
60.4974 2317 48.1352
60.6142 2372 48.7032
60.731 2302 47.9792
60.8479 2468 49.679
60.9648 2432 49.3153
61.0818 2315 48.1144
61.1987 2324 48.2079
61.3158 2244 47.3709
61.4328 2260 47.5395
61.5499 2160 46.4758
61.667 2214 47.0532
61.7841 2168 46.5618
61.9013 2290 47.8539
62.0185 2356 48.5386
62.1357 2338 48.3529
62.253 2375 48.734
62.3702 2227 47.1911
62.4875 2183 46.7226
62.6049 1972 44.4072
62.7222 2015 44.8888
62.8396 2194 46.8402
62.9569 2379 48.775
63.0743 2355 48.5283
63.1918 2496 49.96
63.3092 2352 48.4974
63.4267 2370 48.6826
63.5441 2363 48.6107
63.6616 2412 49.1121
63.7791 2398 48.9694
63.8966 2403 49.0204
64.0142 2386 48.8467
64.1317 2360 48.5798
64.2492 2372 48.7032
64.3668 2403 49.0204
64.4843 2391 48.8979
64.6019 2317 48.1352
64.7195 2277 47.7179
64.837 2279 47.7389
64.9546 2173 46.6154
65.0722 2188 46.7761
65.1898 2166 46.5403
65.3074 2293 47.8853
65.4249 2148 46.3465
65.5425 2299 47.9479
65.6601 2304 48
65.7777 2242 47.3498
65.8952 2277 47.7179
66.0128 2135 46.2061
66.1304 1885 43.4166
66.2479 1851 43.0232
66.3655 1966 44.3396
66.483 2184 46.7333
66.6005 2239 47.3181
66.718 2346 48.4355
66.8355 2320 48.1664
66.953 2356 48.5386
67.0705 2353 48.5077
67.1879 2335 48.3218
67.3054 2316 48.1248
67.4228 2318 48.1456
67.5402 2230 47.2229
67.6576 2283 47.7807
67.7749 2263 47.571
67.8923 2378 48.7647
68.0096 2274 47.6865
68.1269 2339 48.3632
68.2442 2255 47.4868
68.3614 2243 47.3603
68.4787 2195 46.8508
68.5958 2219 47.1063
68.713 2163 46.5081
68.8302 2052 45.299
68.9473 2119 46.0326
69.0643 2169 46.5725
69.1814 2189 46.7868
69.2984 2246 47.392
69.4154 2162 46.4973
69.5323 2226 47.1805
69.6492 2006 44.7884
69.7661 1821 42.6732
69.8829 1696 41.1825
69.9997 1809 42.5323
70.1165 1961 44.2832
70.2332 1968 44.3621
70.3499 1843 42.9302
70.4665 1829 42.7668
70.5831 1579 39.7366
70.6996 1494 38.6523
70.8161 1443 37.9868
70.9326 1436 37.8946
71.049 1398 37.3898
71.1653 1386 37.229
71.2817 1238 35.1852
71.3979 1193 34.5398
71.5141 1154 33.9706
71.6303 1124 33.5261
71.7464 1053 32.45
71.8624 0 1
71.9784 0 1
72.0944 0 1
72.2102 0 1
72.3261 0 1
72.4418 0 1
72.5575 0 1
72.6732 0 1
75.1054 0 1
75.2209 0 1
75.3365 0 1
75.4521 0 1
75.5678 0 1
75.6835 0 1
75.7993 0 1
75.9151 0 1
76.031 0 1
76.147 1705 41.2916
76.263 1901 43.6005
76.3791 1970 44.3847
76.4952 2007 44.7996
76.6113 2050 45.2769
76.7276 2041 45.1774
76.8438 2066 45.4533
76.9601 2010 44.833
77.0765 2174 46.6262
77.1929 2098 45.8039
77.3093 2107 45.9021
77.4258 2102 45.8476
77.5423 2177 46.6583
77.6589 1997 44.6878
77.7755 1975 44.441
77.8921 1937 44.0114
78.0088 2020 44.9444
78.1256 2075 45.5522
78.2423 2086 45.6727
78.3591 2137 46.2277
78.4759 2193 46.8295
78.5928 2036 45.1221
78.7097 1881 43.3705
78.8266 1605 40.0625
78.9436 1410 37.55
79.0606 1557 39.4588
79.1776 1834 42.8252
79.2946 1932 43.9545
79.4117 2094 45.7602
79.5288 2124 46.0869
79.6459 2161 46.4866
79.7631 2105 45.8803
79.8802 2174 46.6262
79.9974 2152 46.3897
80.1147 2146 46.3249
80.2319 2209 47
80.3491 2110 45.9347
80.4664 2307 48.0312
80.5837 2206 46.9681
80.701 2227 47.1911
80.8183 2348 48.4562
80.9357 2287 47.8226
81.053 2231 47.2335
81.1704 2261 47.55
81.2877 2185 46.744
81.4051 2180 46.6905
81.5225 2190 46.7974
81.6399 2216 47.0744
81.7573 2310 48.0625
81.8747 2293 47.8853
81.9922 2365 48.6313
82.1096 2438 49.3761
82.227 2559 50.5866
82.3444 2394 48.9285
82.4619 2161 46.4866
82.5793 1963 44.3058
82.6967 2094 45.7602
82.8142 2570 50.6952
82.9316 2934 54.1664
83.049 3252 57.0263
83.1664 3573 59.7746
83.2838 3753 61.2617
83.4012 3832 61.9032
83.5186 3838 61.9516
83.636 3933 62.7136
83.7534 3910 62.53
83.8708 4028 63.4665
83.9881 4149 64.4127
84.1055 4223 64.9846
84.2228 4188 64.7148
84.3401 4165 64.5368
84.4575 4224 64.9923
84.5747 4166 64.5446
84.692 4141 64.3506
84.8093 4193 64.7534
84.9265 4141 64.3506
85.0437 4207 64.8614
85.1609 4084 63.9062
85.2781 4117 64.1639
85.3952 4076 63.8436
85.5123 4146 64.3894
85.6294 4024 63.435
85.7465 3869 62.2013
85.8636 3760 61.3188
85.9806 3178 56.3738
86.0976 2672 51.6914
86.2145 2647 51.449
86.3315 2893 53.7866
86.4484 3629 60.2412
86.5652 3862 62.145
86.682 3929 62.6817
86.7988 4076 63.8436
86.9156 3934 62.7216
87.0323 3842 61.9839
87.149 3877 62.2656
87.2657 3951 62.857
87.3823 4067 63.773
87.4988 3721 61
87.6154 3481 59
87.7318 3115 55.8122
87.8483 3002 54.7905
87.9647 2895 53.8052
88.081 2766 52.5928
88.1973 2827 53.1695
88.3136 2659 51.5655
88.4298 2481 49.8096
88.546 2488 49.8799
88.6621 2272 47.6655
88.7781 2328 48.2494
88.8942 0 1
89.0101 0 1
89.126 0 1
89.2419 0 1
89.3577 0 1
89.4734 0 1
89.5891 0 1
89.7047 0 1
89.8203 0 1
89.9358 0 1
92.3269 0 1
92.4424 0 1
92.558 0 1
92.6736 0 1
92.7893 0 1
92.905 0 1
93.0208 0 1
93.1366 0 1
93.2525 0 1
93.3685 0 1
93.4845 0 1
93.6005 4250 65.192
93.7167 4164 64.5291
93.8328 4141 64.3506
93.949 4190 64.7302
94.0653 4162 64.5136
94.1816 4173 64.5988
94.2979 4091 63.9609
94.4143 4132 64.2806
94.5307 4172 64.591
94.6472 4055 63.6789
94.7637 3980 63.0872
94.8803 3684 60.696
94.9969 3311 57.5413
95.1135 2895 53.8052
95.2302 2983 54.6168
95.3469 3526 59.3801
95.4637 3982 63.1031
95.5805 4215 64.923
95.6973 4215 64.923
95.8142 4293 65.521
95.9311 4378 66.1665
96.048 4287 65.4752
96.1649 4349 65.9469
96.2819 4233 65.0615
96.3989 4405 66.3702
96.516 4278 65.4064
96.633 4318 65.7115
96.7501 4366 66.0757
96.8673 4306 65.6201
96.9844 4411 66.4154
97.1016 4297 65.5515
97.2188 4360 66.0303
97.336 4248 65.1767
97.4532 4205 64.846
97.5704 4235 65.0769
97.6877 4110 64.1093
97.805 4178 64.6375
97.9223 4122 64.2028
98.0396 4112 64.1249
98.1569 3987 63.1427
98.2743 3828 61.8708
98.3916 3478 58.9746
98.509 2963 54.4334
98.6264 2732 52.2685
98.7438 2741 52.3546
98.8612 2907 53.9166
98.9786 3168 56.285
99.096 3258 57.0789
99.2134 3190 56.4801
99.3308 3053 55.254
99.4482 3020 54.9545
99.5656 2905 53.8981
99.6831 2938 54.2033
99.8005 2879 53.6563
99.9179 2805 52.9623
100.035 2701 51.9711
100.153 2788 52.8015
100.27 2866 53.535
100.388 2869 53.563
100.505 2949 54.3047
100.622 3087 55.5608
100.74 2961 54.4151
100.857 2880 53.6656
100.975 2855 53.4322
101.092 2982 54.6077
101.209 2856 53.4416
101.327 2882 53.6843
101.444 2845 53.3385
101.561 2790 52.8205
101.679 2855 53.4322
101.796 2709 52.0481
101.913 2802 52.9339
102.03 2578 50.774
102.148 2252 47.4552
102.265 2017 44.911
102.382 2356 48.5386
102.499 2515 50.1498
102.616 2628 51.264
102.733 2712 52.0769
102.851 2737 52.3163
102.968 2696 51.923
103.085 2621 51.1957
103.202 2606 51.049
103.319 2547 50.4678
103.436 2577 50.7642
103.552 2578 50.774
103.669 2581 50.8035
103.786 2572 50.7149
103.903 2617 51.1566
104.02 2547 50.4678
104.137 2629 51.2738
104.253 2733 52.2781
104.37 2679 51.7591
104.487 2529 50.2892
104.603 2608 51.0686
104.72 2394 48.9285
104.836 2253 47.4658
104.953 2085 45.6618
105.069 1804 42.4735
105.186 1687 41.0731
105.302 1549 39.3573
105.418 1433 37.855
105.535 1299 36.0416
105.651 1154 33.9706
105.767 986 31.4006
105.883 847 29.1033
105.999 824 28.7054
106.115 0 1
106.231 0 1
106.347 0 1
106.463 0 1
106.579 0 1
106.694 0 1
106.81 0 1
106.926 0 1
107.041 0 1
107.157 0 1
109.576 0 1
109.692 0 1
109.807 0 1
109.923 0 1
110.039 0 1
110.155 0 1
110.27 0 1
110.386 0 1
110.502 0 1
110.618 2633 51.3128
110.735 2715 52.1057
110.851 2527 50.2693
110.967 2343 48.4045
111.083 2187 46.7654
111.199 2409 49.0816
111.316 2666 51.6333
111.432 2805 52.9623
111.549 2902 53.8702
111.665 2897 53.8238
111.782 2917 54.0093
111.898 2857 53.4509
112.015 2751 52.45
112.132 2776 52.6878
112.248 2894 53.7959
112.365 2897 53.8238
112.482 2919 54.0278
112.599 3049 55.2178
112.716 3001 54.7814
112.832 3132 55.9643
112.949 3129 55.9375
113.066 3281 57.28
113.183 3243 56.9473
113.3 3082 55.5158
113.417 3257 57.0701
113.534 3077 55.4707
113.652 3087 55.5608
113.769 3012 54.8817
113.886 3191 56.4889
114.003 3034 55.0818
114.12 3070 55.4076
114.238 3009 54.8544
114.355 2741 52.3546
114.472 2492 49.9199
114.589 2470 49.6991
114.707 2497 49.97
114.824 2682 51.788
114.942 3003 54.7996
115.059 3056 55.2811
115.176 2995 54.7266
115.294 2912 53.963
115.411 2979 54.5802
115.529 3021 54.9636
115.646 2863 53.507
115.764 2876 53.6284
115.881 2919 54.0278
115.999 2918 54.0185
116.116 2978 54.5711
116.234 3022 54.9727
116.351 3126 55.9106
116.469 3034 55.0818
116.586 3196 56.5332
116.704 3275 57.2276
116.821 3311 57.5413
116.939 3225 56.7891
117.056 3246 56.9737
117.174 3200 56.5685
117.291 3158 56.1961
117.409 3175 56.3471
117.526 3188 56.4624
117.644 3203 56.5951
117.761 3080 55.4977
117.879 3077 55.4707
117.996 2733 52.2781
118.114 2563 50.6261
118.231 2516 50.1597
118.349 2639 51.3712
118.466 2847 53.3573
118.584 2869 53.563
118.701 3006 54.827
118.819 2888 53.7401
118.936 2975 54.5436
119.053 2972 54.5161
119.171 2879 53.6563
119.288 2782 52.7447
119.405 2877 53.6377
119.523 2853 53.4135
119.64 2823 53.1319
119.757 2910 53.9444
119.875 2956 54.3691
119.992 2852 53.4041
120.109 2966 54.461
120.226 3050 55.2268
120.343 2960 54.4059
120.46 3019 54.9454
120.578 2997 54.7449
120.695 3102 55.6956
120.812 2930 54.1295
120.929 2987 54.6535
121.046 3036 55.0999
121.163 2978 54.5711
121.279 2948 54.2955
121.396 2931 54.1387
121.513 2770 52.6308
121.63 2527 50.2693
121.747 2380 48.7852
121.863 2111 45.9456
121.98 2085 45.6618
122.097 2000 44.7214
122.213 2051 45.288
122.33 2125 46.0977
122.446 2141 46.2709
122.563 2047 45.2438
122.679 1860 43.1277
122.795 1847 42.9767
122.912 1772 42.0951
123.028 1740 41.7133
123.144 1761 41.9643
123.26 1702 41.2553
123.377 0 1
123.493 0 1
123.609 0 1
123.725 0 1
123.84 0 1
123.956 0 1
124.072 0 1
124.188 0 1
124.303 0 1
124.419 0 1
126.852 0 1
126.968 0 1
127.083 0 1
127.199 0 1
127.315 0 1
127.431 0 1
127.547 0 1
127.663 0 1
127.779 0 1
127.895 0 1
128.011 0 1
128.127 0 1
128.243 0 1
128.359 3368 58.0345
128.476 3395 58.2666
128.592 3452 58.7537
128.708 3306 57.4978
128.825 3422 58.4979
128.941 3417 58.4551
129.058 3414 58.4294
129.174 3540 59.4979
129.291 3586 59.8832
129.408 3591 59.925
129.524 3764 61.3514
129.641 3749 61.2291
129.758 3831 61.8951
129.875 3940 62.7694
129.992 4083 63.8984
130.108 3975 63.0476
130.225 4135 64.304
130.342 4016 63.3719
130.459 3814 61.7576
130.576 3845 62.0081
130.693 3634 60.2827
130.81 3589 59.9083
130.928 3543 59.5231
131.045 3594 59.95
131.162 3776 61.4492
131.279 3944 62.8013
131.396 3847 62.0242
131.513 3930 62.6897
131.631 3840 61.9677
131.748 3960 62.9285
131.865 3829 61.8789
131.983 3701 60.8358
132.1 3792 61.5792
132.217 3709 60.9016
132.335 3740 61.1555
132.452 3709 60.9016
132.57 3726 61.041
132.687 3539 59.4895
132.804 3823 61.8304
132.922 3813 61.7495
133.039 3872 62.2254
133.157 4001 63.2535
133.274 3981 63.0952
133.392 4149 64.4127
133.509 4117 64.1639
133.627 4128 64.2495
133.744 4219 64.9538
133.862 4232 65.0538
133.979 4358 66.0151
134.097 4253 65.215
134.214 4117 64.1639
134.332 3955 62.8888
134.449 3957 62.9047
134.567 3870 62.2093
134.684 4020 63.4035
134.802 4175 64.6142
134.919 4276 65.3911
135.037 4053 63.6632
135.154 4147 64.3972
135.272 4071 63.8044
135.389 4141 64.3506
135.507 4032 63.498
135.624 3965 62.9682
135.742 3935 62.7296
135.859 3912 62.546
135.977 3778 61.4654
136.094 3877 62.2656
136.211 3828 61.8708
136.329 3915 62.57
136.446 3951 62.857
136.564 3975 63.0476
136.681 4101 64.0391
136.798 4072 63.8122
136.915 4086 63.9218
137.033 4081 63.8827
137.15 4005 63.2851
137.267 4243 65.1383
137.384 4179 64.6452
137.502 4204 64.8383
137.619 4158 64.4826
137.736 3999 63.2376
137.853 3821 61.8142
137.97 3801 61.6523
138.087 3625 60.208
138.204 3769 61.3922
138.321 3806 61.6928
138.438 3821 61.8142
138.555 3914 62.562
138.672 3958 62.9126
138.788 3871 62.2174
138.905 3879 62.2816
139.022 3694 60.7783
139.139 3623 60.1914
139.255 3524 59.3633
139.372 3149 56.116
139.488 3068 55.3895
139.605 3042 55.1543
139.721 2860 53.479
139.838 2906 53.9073
139.954 2881 53.6749
140.071 2785 52.7731
140.187 2863 53.507
140.303 2747 52.4118
140.419 2850 53.3854
140.535 2760 52.5357
140.652 2839 53.2823
140.768 0 1
140.884 0 1
141 0 1
141.115 0 1
141.231 0 1
141.347 0 1
141.463 0 1
141.578 0 1
141.694 0 1
144.104 0 1
144.219 0 1
144.335 0 1
144.45 0 1
144.566 0 1
144.682 0 1
144.798 0 1
144.914 0 1
145.03 0 1
145.146 8188 90.4876
145.262 8338 91.3126
145.378 8593 92.6984
145.494 8594 92.7038
145.61 8537 92.3959
145.726 8687 93.2041
145.842 8524 92.3255
145.959 8746 93.5201
146.075 8857 94.1116
146.192 8694 93.2416
146.308 8698 93.2631
146.425 8587 92.6661
146.541 7744 88
146.658 6672 81.6823
146.774 5848 76.4722
146.891 5552 74.5117
147.008 6262 79.1328
147.125 7397 86.0058
147.241 8051 89.7274
147.358 8469 92.0272
147.475 8329 91.2634
147.592 8602 92.747
147.709 8545 92.4392
147.826 8523 92.3201
147.943 8536 92.3905
148.06 8629 92.8924
148.177 8433 91.8314
148.294 8533 92.3742
148.411 8610 92.7901
148.528 8808 93.8509
148.645 8628 92.887
148.762 8698 93.2631
148.88 8704 93.2952
148.997 8566 92.5527
149.114 9320 96.5401
149.231 8751 93.5468
149.349 8887 94.2709
149.466 8674 93.1343
149.583 8869 94.1754
149.701 8880 94.2338
149.818 8826 93.9468
149.935 8865 94.1541
150.053 8811 93.8669
150.17 8481 92.0923
150.287 7661 87.5271
150.405 6599 81.2342
150.522 5867 76.5963
150.64 6117 78.2113
150.757 7384 85.9302
150.875 8199 90.5483
150.992 8558 92.5095
151.11 8564 92.5419
151.227 8589 92.6769
151.344 8354 91.4002
151.462 8381 91.5478
151.579 8524 92.3255
151.697 8736 93.4666
151.814 8685 93.1933
151.932 8642 92.9624
152.049 8695 93.247
152.167 8755 93.5682
152.284 8761 93.6002
152.402 8837 94.0053
152.519 8735 93.4612
152.636 8977 94.747
152.754 8909 94.3875
152.871 8952 94.615
152.989 9033 95.0421
153.106 8999 94.8631
153.223 8961 94.6626
153.341 9140 95.6033
153.458 9288 96.3743
153.575 9198 95.9062
153.693 9126 95.5301
153.81 8730 93.4345
153.927 8038 89.6549
154.044 6871 82.8915
154.162 6229 78.924
154.279 6667 81.6517
154.396 7740 87.9773
154.513 8578 92.6175
154.63 9022 94.9842
154.747 8943 94.5674
154.864 8844 94.0425
154.981 8956 94.6361
155.098 8668 93.1021
155.215 8589 92.6769
155.332 8418 91.7497
155.449 8265 90.912
155.566 8343 91.34
155.683 8000 89.4427
155.8 7711 87.8123
155.917 7774 88.1703
156.033 7305 85.4693
156.15 0 1
156.267 0 1
156.383 0 1
156.5 0 1
156.617 0 1
156.733 0 1
156.85 0 1
156.966 0 1
157.082 0 1
157.199 0 1
157.315 0 1
157.431 0 1
157.547 0 1
157.664 0 1
157.78 0 1
157.896 0 1
158.012 0 1
158.128 0 1
158.244 0 1
158.359 0 1
158.475 0 1
158.591 0 1
158.706 0 1
