
6.15755 0 1
6.2731 0 1
6.3887 0 1
6.50437 0 1
6.62009 0 1
6.73587 0 1
6.8517 0 1
6.96759 0 1
7.08353 0 1
7.19952 0 1
7.31557 0 1
7.43166 0 1
7.54781 0 1
7.664 0 1
7.78024 0 1
7.89653 0 1
8.01286 0 1
8.12924 0 1
8.24567 0 1
8.36213 0 1
8.47864 0 1
8.59519 0 1
8.71178 0 1
8.82841 0 1
8.94508 0 1
9.06179 0 1
9.17853 0 1
9.29531 0 1
9.41212 0 1
9.52897 0 1
9.64584 0 1
9.76276 0 1
9.8797 0 1
9.99667 0 1
10.1137 0 1
10.2307 0 1
10.3478 0 1
10.4648 0 1
10.5819 0 1
10.6991 0 1
10.8162 0 1
10.9334 0 1
11.0506 0 1
11.1678 0 1
11.285 0 1
11.4023 0 1
11.5196 0 1
11.6369 0 1
11.7542 0 1
11.8715 0 1
11.9888 0 1
12.1062 0 1
12.2235 0 1
12.3409 0 1
12.4582 0 1
12.5756 0 1
12.693 0 1
12.8104 0 1
12.9278 0 1
13.0452 0 1
13.1626 0 1
13.28 0 1
13.3974 0 1
13.5149 0 1
13.6323 0 1
13.7497 0 1
13.8671 0 1
13.9845 0 1
14.1019 0 1
14.2193 0 1
14.3367 0 1
14.4541 0 1
14.5714 0 1
14.6888 0 1
14.8062 0 1
14.9235 0 1
15.0408 2496 49.96
15.1581 2433 49.3254
15.2755 2549 50.4876
15.3927 2627 51.2543
15.51 2667 51.643
15.6273 2497 49.97
15.7445 2534 50.3389
15.8617 2579 50.7839
15.9789 2450 49.4975
16.0961 2433 49.3254
16.2132 2329 48.2597
16.3304 2410 49.0918
16.4475 2356 48.5386
16.5646 2401 49
16.6816 2499 49.99
16.7986 2584 50.8331
16.9156 2437 49.366
17.0326 2475 49.7494
17.1496 2345 48.4252
17.2665 2452 49.5177
17.3833 2389 48.8774
17.5002 2235 47.2758
17.617 2366 48.6415
17.7338 2260 47.5395
17.8505 2359 48.5695
17.9672 2438 49.3761
18.0839 2492 49.9199
18.2005 2496 49.96
18.3171 2602 51.0098
18.4337 2655 51.5267
18.5502 2777 52.6972
18.6666 2784 52.7636
18.7831 2804 52.9528
18.8994 2718 52.1344
19.0158 2632 51.303
19.1321 2450 49.4975
19.2483 2453 49.5278
19.3645 2390 48.8876
19.4806 2401 49
19.5967 2253 47.4658
19.7128 2212 47.0319
19.8288 2161 46.4866
19.9447 1896 43.5431
20.0606 0 1
20.1764 0 1
20.2922 0 1
20.4079 0 1
20.5236 0 1
20.6392 0 1
20.7548 0 1
20.8702 0 1
23.3078 0 1
23.4233 0 1
23.539 0 1
23.6547 0 1
23.7704 0 1
23.8862 0 1
24.0021 0 1
24.118 0 1
24.234 0 1
24.35 0 1
24.4661 2354 48.518
24.5822 2271 47.655
24.6984 2149 46.3573
24.8146 2222 47.1381
24.9309 2120 46.0435
25.0472 2261 47.55
25.1636 2335 48.3218
25.28 2312 48.0833
25.3965 2508 50.0799
25.513 2457 49.5681
25.6296 2523 50.2295
25.7462 2547 50.4678
25.8628 2517 50.1697
25.9795 2497 49.97
26.0962 2479 49.7896
26.213 2422 49.2138
26.3298 2286 47.8121
26.4466 2279 47.7389
26.5635 2183 46.7226
26.6804 2200 46.9042
26.7973 2352 48.4974
26.9143 2419 49.1833
27.0313 2436 49.3559
27.1483 2485 49.8498
27.2653 2464 49.6387
27.3824 2548 50.4777
27.4996 2607 51.0588
27.6167 2480 49.7996
27.7339 2498 49.98
27.8511 2362 48.6004
27.9683 2353 48.5077
28.0855 2181 46.7012
28.2028 2312 48.0833
28.3201 2141 46.2709
28.4374 2146 46.3249
28.5547 2171 46.594
28.6721 2178 46.669
28.7894 2223 47.1487
28.9068 2214 47.0532
29.0242 2362 48.6004
29.1416 2287 47.8226
29.259 2382 48.8057
29.3764 2310 48.0625
29.4939 2212 47.0319
29.6113 2159 46.465
29.7288 2133 46.1844
29.8463 2039 45.1553
29.9638 1994 44.6542
30.0812 2046 45.2327
30.1987 2088 45.6946
30.3162 2257 47.5079
30.4337 2265 47.592
30.5512 2264 47.5815
30.6687 2355 48.5283
30.7862 2382 48.8057
30.9037 2374 48.7237
31.0212 2429 49.2849
31.1387 2414 49.1325
31.2562 2381 48.7955
31.3737 2374 48.7237
31.4912 2325 48.2183
31.6087 2272 47.6655
31.7262 2206 46.9681
31.8436 2155 46.422
31.9611 2065 45.4423
32.0785 2032 45.0777
32.1959 2084 45.6508
32.3134 2155 46.422
32.4308 2150 46.3681
32.5482 2203 46.9361
32.6655 2193 46.8295
32.7829 2187 46.7654
32.9002 2193 46.8295
33.0176 2170 46.5833
33.1349 2211 47.0213
33.2522 2222 47.1381
33.3694 2097 45.793
33.4867 1994 44.6542
33.6039 1975 44.441
33.7211 1968 44.3621
33.8383 2033 45.0888
33.9554 2064 45.4313
34.0725 2174 46.6262
34.1896 2135 46.2061
34.3067 2232 47.244
34.4237 2335 48.3218
34.5407 2298 47.9375
34.6577 2319 48.156
34.7746 2337 48.3425
34.8915 2265 47.592
35.0084 2313 48.0937
35.1252 2236 47.2864
35.242 2273 47.676
35.3587 2117 46.0109
35.4755 2081 45.618
35.5921 2074 45.5412
35.7088 1964 44.317
35.8254 1985 44.5533
35.9419 2021 44.9555
36.0584 2002 44.7437
36.1749 2096 45.7821
36.2913 2108 45.913
36.4077 2140 46.2601
36.524 2150 46.3681
36.6403 2152 46.3897
36.7565 2077 45.5741
36.8727 2102 45.8476
36.9889 2083 45.6399
37.1049 1976 44.4522
37.221 0 1
37.3369 0 1
37.4529 0 1
37.5687 0 1
37.6845 0 1
37.8003 0 1
37.916 0 1
38.0316 0 1
38.1472 0 1
40.5851 0 1
40.7008 0 1
40.8164 0 1
40.9322 0 1
41.048 0 1
41.1639 0 1
41.2798 0 1
41.3958 0 1
41.5118 0 1
41.6279 0 1
41.744 1615 40.1871
41.8602 1772 42.0951
41.9765 1795 42.3674
42.0928 1886 43.4281
42.2091 1779 42.1782
42.3255 1731 41.6053
42.4419 1660 40.7431
42.5584 1663 40.7799
42.675 1572 39.6485
42.7915 1571 39.6358
42.9081 1719 41.4608
43.0248 1687 41.0731
43.1415 1691 41.1218
43.2582 1715 41.4126
43.375 1735 41.6533
43.4918 1730 41.5933
43.6087 1795 42.3674
43.7256 1696 41.1825
43.8425 1692 41.1339
43.9595 1739 41.7013
44.0765 1624 40.2989
44.1935 1632 40.398
44.3106 1549 39.3573
44.4277 1465 38.2753
44.5448 1452 38.1051
44.6619 1366 36.9594
44.7791 1297 36.0139
44.8963 1266 35.5809
45.0136 1348 36.7151
45.1308 1351 36.756
45.2481 1362 36.9053
45.3654 1437 37.9078
45.4827 1350 36.7423
45.6001 1296 36
45.7174 1356 36.8239
45.8348 1343 36.647
45.9522 1285 35.8469
46.0697 1287 35.8748
46.1871 1217 34.8855
46.3046 1202 34.6699
46.422 1165 34.1321
46.5395 1185 34.4238
46.657 1269 35.623
46.7745 1282 35.805
46.892 1283 35.819
47.0096 1288 35.8887
47.1271 1274 35.6931
47.2446 1293 35.9583
47.3622 1309 36.1801
47.4797 1312 36.2215
47.5973 1216 34.8712
47.7149 1280 35.7771
47.8324 1227 35.0286
47.95 1176 34.2929
48.0675 1139 33.7491
48.1851 1099 33.1512
48.3027 1072 32.7414
48.4202 1006 31.7175
48.5378 1040 32.249
48.6554 1068 32.6803
48.7729 1080 32.8634
48.8904 1122 33.4963
49.008 1126 33.5559
49.1255 1165 34.1321
49.243 1284 35.8329
49.3605 1149 33.8969
49.478 1195 34.5688
49.5955 1099 33.1512
49.713 1129 33.6006
49.8304 1063 32.6037
49.9479 1080 32.8634
50.0653 1084 32.9242
50.1827 1182 34.3802
50.3001 1209 34.7707
50.4175 1291 35.9305
50.5348 1332 36.4966
50.6521 1422 37.7094
50.7694 1378 37.1214
50.8867 1384 37.2022
51.004 1359 36.8646
51.1212 1415 37.6165
51.2384 1489 38.5876
51.3556 1439 37.9342
51.4727 1460 38.2099
51.5899 1439 37.9342
51.707 1395 37.3497
51.824 1389 37.2693
51.9411 1367 36.973
52.0581 1459 38.1969
52.175 1528 39.0896
52.2919 1587 39.8372
52.4088 1730 41.5933
52.5257 1769 42.0595
52.6425 1732 41.6173
52.7593 1792 42.332
52.876 1812 42.5676
52.9927 1921 43.8292
53.1094 1785 42.2493
53.226 1709 41.3401
53.3426 1723 41.509
53.4591 1664 40.7922
53.5756 1685 41.0488
53.692 1683 41.0244
53.8084 1873 43.2782
53.9248 1901 43.6005
54.0411 2003 44.7549
54.1573 2017 44.911
54.2735 0 1
54.3896 0 1
54.5057 0 1
54.6217 0 1
54.7377 0 1
54.8537 0 1
54.9695 0 1
55.0853 0 1
55.2011 0 1
55.3168 0 1
55.4324 0 1
57.824 0 1
57.9396 0 1
58.0553 0 1
58.1711 0 1
58.2869 0 1
58.4028 0 1
58.5187 0 1
58.6347 0 1
58.7508 0 1
58.8669 0 1
58.983 2219 47.1063
59.0992 2394 48.9285
59.2155 2538 50.3786
59.3318 2517 50.1697
59.4482 2573 50.7247
59.5646 2657 51.5461
59.681 2630 51.2835
59.7975 2565 50.6458
59.9141 2561 50.6063
60.0306 2506 50.06
60.1473 2428 49.2747
60.2639 2418 49.1732
60.3807 2281 47.7598
60.4974 2255 47.4868
60.6142 2195 46.8508
60.731 2126 46.1086
60.8479 2161 46.4866
60.9648 2201 46.9148
61.0818 2385 48.8365
61.1987 2377 48.7545
61.3158 2501 50.01
61.4328 2499 49.99
61.5499 2450 49.4975
61.667 2479 49.7896
61.7841 2378 48.7647
61.9013 2227 47.1911
62.0185 2089 45.7056
62.1357 2078 45.5851
62.253 2058 45.3652
62.3702 2083 45.6399
62.4875 2148 46.3465
62.6049 2309 48.0521
62.7222 2275 47.697
62.8396 2357 48.5489
62.9569 2287 47.8226
63.0743 2413 49.1223
63.1918 2248 47.4131
63.3092 2318 48.1456
63.4267 2228 47.2017
63.5441 2221 47.1275
63.6616 2192 46.8188
63.7791 2160 46.4758
63.8966 2170 46.5833
64.0142 2073 45.5302
64.1317 1958 44.2493
64.2492 1930 43.9318
64.3668 1937 44.0114
64.4843 1972 44.4072
64.6019 2107 45.9021
64.7195 2108 45.913
64.837 2193 46.8295
64.9546 2204 46.9468
65.0722 2105 45.8803
65.1898 2270 47.6445
65.3074 2284 47.7912
65.4249 2144 46.3033
65.5425 2034 45.0999
65.6601 1931 43.9431
65.7777 1871 43.2551
65.8952 1885 43.4166
66.0128 2000 44.7214
66.1304 2066 45.4533
66.2479 2149 46.3573
66.3655 2198 46.8828
66.483 2256 47.4974
66.6005 2222 47.1381
66.718 2250 47.4342
66.8355 2282 47.7703
66.953 2322 48.1871
67.0705 2361 48.5901
67.1879 2180 46.6905
67.3054 2142 46.2817
67.4228 2202 46.9255
67.5402 2159 46.465
67.6576 2089 45.7056
67.7749 1967 44.3509
67.8923 1986 44.5646
68.0096 1974 44.4297
68.1269 1983 44.5309
68.2442 2121 46.0543
68.3614 2235 47.2758
68.4787 2285 47.8017
68.5958 2261 47.55
68.713 2355 48.5283
68.8302 2550 50.4975
68.9473 2404 49.0306
69.0643 2308 48.0416
69.1814 2227 47.1911
69.2984 2182 46.7119
69.4154 2117 46.0109
69.5323 2045 45.2217
69.6492 2135 46.2061
69.7661 2326 48.2286
69.8829 2247 47.4025
69.9997 2465 49.6488
70.1165 2333 48.3011
70.2332 2524 50.2394
70.3499 2437 49.366
70.4665 2392 48.9081
70.5831 2529 50.2892
70.6996 2586 50.8527
70.8161 2485 49.8498
70.9326 2546 50.4579
71.049 2565 50.6458
71.1653 2393 48.9183
71.2817 2316 48.1248
71.3979 2202 46.9255
71.5141 2014 44.8776
71.6303 2005 44.7772
71.7464 1876 43.3128
71.8624 0 1
71.9784 0 1
72.0944 0 1
72.2102 0 1
72.3261 0 1
72.4418 0 1
72.5575 0 1
72.6732 0 1
75.1054 0 1
75.2209 0 1
75.3365 0 1
75.4521 0 1
75.5678 0 1
75.6835 0 1
75.7993 0 1
75.9151 0 1
76.031 0 1
76.147 2154 46.4112
76.263 2350 48.4768
76.3791 2374 48.7237
76.4952 2358 48.5592
76.6113 2270 47.6445
76.7276 2110 45.9347
76.8438 1972 44.4072
76.9601 2079 45.5961
77.0765 2200 46.9042
77.1929 2243 47.3603
77.3093 2297 47.927
77.4258 2349 48.4665
77.5423 2365 48.6313
77.6589 2510 50.0999
77.7755 2438 49.3761
77.8921 2482 49.8197
78.0088 2431 49.3052
78.1256 2350 48.4768
78.2423 2179 46.6798
78.3591 2066 45.4533
78.4759 1934 43.9773
78.5928 1971 44.3959
78.7097 2155 46.422
78.8266 2159 46.465
78.9436 2385 48.8365
79.0606 2368 48.6621
79.1776 2341 48.3839
79.2946 2448 49.4773
79.4117 2399 48.9796
79.5288 2466 49.6588
79.6459 2340 48.3735
79.7631 2412 49.1121
79.8802 2398 48.9694
79.9974 2424 49.2341
80.1147 2388 48.8672
80.2319 2268 47.6235
80.3491 2143 46.2925
80.4664 2115 45.9891
80.5837 2080 45.607
80.701 2102 45.8476
80.8183 2145 46.3141
80.9357 2306 48.0208
81.053 2360 48.5798
81.1704 2429 49.2849
81.2877 2452 49.5177
81.4051 2503 50.03
81.5225 2569 50.6853
81.6399 2384 48.8262
81.7573 2418 49.1732
81.8747 2197 46.8722
81.9922 2065 45.4423
82.1096 1978 44.4747
82.227 2050 45.2769
82.3444 2017 44.911
82.4619 2249 47.4236
82.5793 2367 48.6518
82.6967 2319 48.156
82.8142 2339 48.3632
82.9316 2419 49.1833
83.049 2471 49.7092
83.1664 2473 49.7293
83.2838 2455 49.548
83.4012 2444 49.4368
83.5186 2426 49.2544
83.636 2445 49.4469
83.7534 2355 48.5283
83.8708 2266 47.6025
83.9881 2234 47.2652
84.1055 2179 46.6798
84.2228 2117 46.0109
84.3401 2189 46.7868
84.4575 2206 46.9681
84.5747 2277 47.7179
84.692 2509 50.0899
84.8093 2458 49.5782
84.9265 2482 49.8197
85.0437 2586 50.8527
85.1609 2672 51.6914
85.2781 2539 50.3885
85.3952 2417 49.163
85.5123 2216 47.0744
85.6294 2143 46.2925
85.7465 1942 44.0681
85.8636 2098 45.8039
85.9806 2345 48.4252
86.0976 2463 49.6286
86.2145 2418 49.1732
86.3315 2569 50.6853
86.4484 2574 50.7346
86.5652 2619 51.1762
86.682 2565 50.6458
86.7988 2560 50.5964
86.9156 2625 51.2348
87.0323 2623 51.2152
87.149 2653 51.5073
87.2657 2617 51.1566
87.3823 2580 50.7937
87.4988 2517 50.1697
87.6154 2349 48.4665
87.7318 2247 47.4025
87.8483 2193 46.8295
87.9647 2328 48.2494
88.081 2355 48.5283
88.1973 2591 50.9019
88.3136 2528 50.2792
88.4298 2641 51.3907
88.546 2698 51.9423
88.6621 2719 52.144
88.7781 2766 52.5928
88.8942 0 1
89.0101 0 1
89.126 0 1
89.2419 0 1
89.3577 0 1
89.4734 0 1
89.5891 0 1
89.7047 0 1
89.8203 0 1
89.9358 0 1
92.3269 0 1
92.4424 0 1
92.558 0 1
92.6736 0 1
92.7893 0 1
92.905 0 1
93.0208 0 1
93.1366 0 1
93.2525 0 1
93.3685 0 1
93.4845 0 1
93.6005 2433 49.3254
93.7167 2449 49.4874
93.8328 2577 50.7642
93.949 2598 50.9706
94.0653 2667 51.643
94.1816 2474 49.7393
94.2979 2333 48.3011
94.4143 2304 48
94.5307 2152 46.3897
94.6472 2005 44.7772
94.7637 2058 45.3652
94.8803 2204 46.9468
94.9969 2351 48.4871
95.1135 2375 48.734
95.2302 2377 48.7545
95.3469 2405 49.0408
95.4637 2540 50.3984
95.5805 2534 50.3389
95.6973 2520 50.1996
95.8142 2533 50.3289
95.9311 2471 49.7092
96.048 2502 50.02
96.1649 2544 50.4381
96.2819 2481 49.8096
96.3989 2477 49.7695
96.516 2506 50.06
96.633 2216 47.0744
96.7501 2221 47.1275
96.8673 2091 45.7275
96.9844 2168 46.5618
97.1016 2215 47.0638
97.2188 2192 46.8188
97.336 2469 49.689
97.4532 2457 49.5681
97.5704 2584 50.8331
97.6877 2576 50.7543
97.805 2541 50.4083
97.9223 2425 49.2443
98.0396 2349 48.4665
98.1569 2161 46.4866
98.2743 1997 44.6878
98.3916 2032 45.0777
98.509 2051 45.288
98.6264 2137 46.2277
98.7438 2222 47.1381
98.8612 2301 47.9687
98.9786 2339 48.3632
99.096 2471 49.7092
99.2134 2380 48.7852
99.3308 2511 50.1099
99.4482 2285 47.8017
99.5656 2505 50.05
99.6831 2497 49.97
99.8005 2403 49.0204
99.9179 2360 48.5798
100.035 2260 47.5395
100.153 2262 47.5605
100.27 2130 46.1519
100.388 2069 45.4863
100.505 2093 45.7493
100.622 2077 45.5741
100.74 2275 47.697
100.857 2366 48.6415
100.975 2383 48.816
101.092 2454 49.5379
101.209 2468 49.679
101.327 2582 50.8134
101.444 2496 49.96
101.561 2403 49.0204
101.679 2306 48.0208
101.796 2138 46.2385
101.913 1958 44.2493
102.03 2021 44.9555
102.148 2037 45.1331
102.265 2093 45.7493
102.382 2528 50.2792
102.499 2385 48.8365
102.616 2498 49.98
102.733 2542 50.4183
102.851 2594 50.9313
102.968 2581 50.8035
103.085 2582 50.8134
103.202 2549 50.4876
103.319 2568 50.6754
103.436 2590 50.892
103.552 2412 49.1121
103.669 2375 48.734
103.786 2317 48.1352
103.903 2254 47.4763
104.02 2247 47.4025
104.137 2264 47.5815
104.253 2380 48.7852
104.37 2356 48.5386
104.487 2502 50.02
104.603 2652 51.4976
104.72 2555 50.547
104.836 2654 51.517
104.953 2638 51.3615
105.069 2526 50.2593
105.186 2393 48.9183
105.302 2213 47.0425
105.418 2124 46.0869
105.535 2101 45.8367
105.651 2324 48.2079
105.767 2414 49.1325
105.883 2511 50.1099
105.999 2507 50.07
106.115 0 1
106.231 0 1
106.347 0 1
106.463 0 1
106.579 0 1
106.694 0 1
106.81 0 1
106.926 0 1
107.041 0 1
107.157 0 1
109.576 0 1
109.692 0 1
109.807 0 1
109.923 0 1
110.039 0 1
110.155 0 1
110.27 0 1
110.386 0 1
110.502 0 1
110.618 1923 43.852
110.735 1990 44.6094
110.851 2102 45.8476
110.967 2118 46.0217
111.083 2292 47.8748
111.199 2212 47.0319
111.316 2354 48.518
111.432 2355 48.5283
111.549 2285 47.8017
111.665 2266 47.6025
111.782 2324 48.2079
111.898 2255 47.4868
112.015 2292 47.8748
112.132 2258 47.5184
112.248 2245 47.3814
112.365 2062 45.4093
112.482 1983 44.5309
112.599 1828 42.7551
112.716 1962 44.2945
112.832 1928 43.909
112.949 2033 45.0888
113.066 2123 46.076
113.183 2172 46.6047
113.3 2095 45.7712
113.417 2181 46.7012
113.534 2169 46.5725
113.652 2171 46.594
113.769 1957 44.238
113.886 1794 42.3556
114.003 1746 41.7852
114.12 1705 41.2916
114.238 1755 41.8927
114.355 1788 42.2847
114.472 1891 43.4856
114.589 1932 43.9545
114.707 1995 44.6654
114.824 1917 43.7836
114.942 1877 43.3244
115.059 1900 43.589
115.176 1920 43.8178
115.294 1825 42.72
115.411 1781 42.2019
115.529 1844 42.9418
115.646 1796 42.3792
115.764 1766 42.0238
115.881 1657 40.7063
115.999 1544 39.2938
116.116 1574 39.6737
116.234 1578 39.724
116.351 1620 40.2492
116.469 1525 39.0512
116.586 1613 40.1622
116.704 1615 40.1871
116.821 1651 40.6325
116.939 1688 41.0853
117.056 1796 42.3792
117.174 1737 41.6773
117.291 1639 40.4846
117.409 1520 38.9872
117.526 1302 36.0832
117.644 1451 38.092
117.761 1467 38.3014
117.879 1557 39.4588
117.996 1560 39.4968
118.114 1584 39.7995
118.231 1647 40.5832
118.349 1690 41.1096
118.466 1650 40.6202
118.584 1668 40.8412
118.701 1650 40.6202
118.819 1683 41.0244
118.936 1680 40.9878
119.053 1662 40.7676
119.171 1699 41.2189
119.288 1656 40.694
119.405 1643 40.5339
119.523 1609 40.1123
119.64 1523 39.0256
119.757 1459 38.1969
119.875 1526 39.064
119.992 1602 40.025
120.109 1640 40.4969
120.226 1675 40.9268
120.343 1717 41.4367
120.46 1759 41.9404
120.578 1846 42.9651
120.695 1828 42.7551
120.812 1848 42.9884
120.929 1811 42.5558
121.046 1791 42.3202
121.163 1670 40.8656
121.279 1591 39.8873
121.396 1662 40.7676
121.513 1716 41.4246
121.63 1769 42.0595
121.747 1827 42.7434
121.863 1881 43.3705
121.98 1976 44.4522
122.097 2029 45.0444
122.213 2011 44.8442
122.33 1966 44.3396
122.446 2062 45.4093
122.563 1924 43.8634
122.679 2029 45.0444
122.795 1877 43.3244
122.912 2014 44.8776
123.028 1873 43.2782
123.144 1819 42.6497
123.26 1831 42.7902
123.377 0 1
123.493 0 1
123.609 0 1
123.725 0 1
123.84 0 1
123.956 0 1
124.072 0 1
124.188 0 1
124.303 0 1
124.419 0 1
126.852 0 1
126.968 0 1
127.083 0 1
127.199 0 1
127.315 0 1
127.431 0 1
127.547 0 1
127.663 0 1
127.779 0 1
127.895 0 1
128.011 0 1
128.127 0 1
128.243 0 1
128.359 2305 48.0104
128.476 2336 48.3322
128.592 2271 47.655
128.708 2094 45.7602
128.825 2131 46.1628
128.941 2100 45.8258
129.058 2189 46.7868
129.174 2182 46.7119
129.291 2306 48.0208
129.408 2229 47.2123
129.524 2346 48.4355
129.641 2432 49.3153
129.758 2368 48.6621
129.875 2412 49.1121
129.992 2200 46.9042
130.108 2095 45.7712
130.225 2083 45.6399
130.342 1998 44.699
130.459 1922 43.8406
130.576 2056 45.3431
130.693 2108 45.913
130.81 2126 46.1086
130.928 2189 46.7868
131.045 2220 47.1169
131.162 2307 48.0312
131.279 2396 48.949
131.396 2323 48.1975
131.513 2297 47.927
131.631 2337 48.3425
131.748 2217 47.085
131.865 2219 47.1063
131.983 2085 45.6618
132.1 2131 46.1628
132.217 2052 45.299
132.335 1929 43.9204
132.452 1905 43.6463
132.57 2031 45.0666
132.687 2040 45.1664
132.804 2144 46.3033
132.922 2275 47.697
133.039 2162 46.4973
133.157 2324 48.2079
133.274 2277 47.7179
133.392 2254 47.4763
133.509 2205 46.9574
133.627 2099 45.8148
133.744 1970 44.3847
133.862 1870 43.2435
133.979 1894 43.5201
134.097 1938 44.0227
134.214 2007 44.7996
134.332 2074 45.5412
134.449 2108 45.913
134.567 2119 46.0326
134.684 2132 46.1736
134.802 2193 46.8295
134.919 2274 47.6865
135.037 2148 46.3465
135.154 2137 46.2277
135.272 2039 45.1553
135.389 2013 44.8665
135.507 1925 43.8748
135.624 1959 44.2606
135.742 1763 41.9881
135.859 1761 41.9643
135.977 1734 41.6413
136.094 1807 42.5088
136.211 1784 42.2374
136.329 1800 42.4264
136.446 1824 42.7083
136.564 1881 43.3705
136.681 1869 43.2319
136.798 1878 43.3359
136.915 1950 44.1588
137.033 1887 43.4396
137.15 1768 42.0476
137.267 1704 41.2795
137.384 1681 41
137.502 1605 40.0625
137.619 1653 40.6571
137.736 1639 40.4846
137.853 1749 41.821
137.97 1769 42.0595
138.087 1985 44.5533
138.204 1887 43.4396
138.321 2049 45.2659
138.438 1964 44.317
138.555 2146 46.3249
138.672 2129 46.1411
138.788 2091 45.7275
138.905 2085 45.6618
139.022 1983 44.5309
139.139 2084 45.6508
139.255 2010 44.833
139.372 1855 43.0697
139.488 1859 43.1161
139.605 1929 43.9204
139.721 2009 44.8219
139.838 2010 44.833
139.954 2092 45.7384
140.071 2043 45.1996
140.187 2201 46.9148
140.303 2244 47.3709
140.419 2286 47.8121
140.535 2294 47.8957
140.652 2304 48
140.768 0 1
140.884 0 1
141 0 1
141.115 0 1
141.231 0 1
141.347 0 1
141.463 0 1
141.578 0 1
141.694 0 1
144.104 0 1
144.219 0 1
144.335 0 1
144.45 0 1
144.566 0 1
144.682 0 1
144.798 0 1
144.914 0 1
145.03 0 1
145.146 2707 52.0288
145.262 3193 56.5066
145.378 3376 58.1034
145.494 3565 59.7076
145.61 3659 60.4897
145.726 3939 62.7615
145.842 4043 63.5846
145.959 3954 62.8808
146.075 3987 63.1427
146.192 3872 62.2254
146.308 3928 62.6738
146.425 4156 64.467
146.541 4558 67.513
146.658 5027 70.9013
146.774 5303 72.8217
146.891 5669 75.2928
147.008 6089 78.032
147.125 6564 81.0185
147.241 6808 82.5106
147.358 6775 82.3104
147.475 7145 84.5281
147.592 7422 86.151
147.709 7520 86.7179
147.826 7259 85.1998
147.943 7461 86.3771
148.06 7384 85.9302
148.177 7126 84.4156
148.294 7096 84.2378
148.411 7214 84.9353
148.528 7471 86.4349
148.645 7820 88.4308
148.762 8062 89.7886
148.88 8158 90.3216
148.997 8744 93.5094
149.114 7959 89.2132
149.231 8275 90.967
149.349 8249 90.824
149.466 8129 90.161
149.583 7749 88.0284
149.701 7105 84.2912
149.818 6749 82.1523
149.935 6504 80.6474
150.053 6648 81.5353
150.17 6988 83.5943
150.287 7152 84.5695
150.405 7513 86.6776
150.522 7885 88.7975
150.64 8067 89.8165
150.757 7970 89.2749
150.875 8224 90.6863
150.992 7888 88.8144
151.11 8114 90.0777
151.227 8061 89.7831
151.344 7939 89.1011
151.462 7904 88.9044
151.579 7524 86.741
151.697 7827 88.4703
151.814 7403 86.0407
151.932 7222 84.9824
152.049 7557 86.931
152.167 7707 87.7895
152.284 8084 89.9111
152.402 8341 91.3291
152.519 8905 94.3663
152.636 8806 93.8403
152.754 8951 94.6097
152.871 8937 94.5357
152.989 8753 93.5575
153.106 8483 92.1032
153.223 8113 90.0722
153.341 7739 87.9716
153.458 7388 85.9535
153.575 7313 85.5161
153.693 7605 87.2067
153.81 7789 88.2553
153.927 8384 91.5642
154.044 8366 91.4658
154.162 8844 94.0425
154.279 9023 94.9895
154.396 9237 96.1093
154.513 9606 98.0102
154.63 9771 98.8484
154.747 9950 99.7497
154.864 9671 98.3412
154.981 9306 96.4676
155.098 9443 97.1751
155.215 9179 95.8071
155.332 9043 95.0947
155.449 8932 94.5093
155.566 8908 94.3822
155.683 9165 95.734
155.8 9501 97.4731
155.917 10018 100.09
156.033 10347 101.72
156.15 0 1
156.267 0 1
156.383 0 1
156.5 0 1
156.617 0 1
156.733 0 1
156.85 0 1
156.966 0 1
157.082 0 1
157.199 0 1
157.315 0 1
157.431 0 1
157.547 0 1
157.664 0 1
157.78 0 1
157.896 0 1
158.012 0 1
158.128 0 1
158.244 0 1
158.359 0 1
158.475 0 1
158.591 0 1
158.706 0 1
