
6.15755 0 1
6.2731 0 1
6.3887 0 1
6.50437 0 1
6.62009 0 1
6.73587 0 1
6.8517 0 1
6.96759 0 1
7.08353 0 1
7.19952 0 1
7.31557 0 1
7.43166 0 1
7.54781 0 1
7.664 0 1
7.78024 0 1
7.89653 0 1
8.01286 0 1
8.12924 0 1
8.24567 0 1
8.36213 0 1
8.47864 0 1
8.59519 0 1
8.71178 0 1
8.82841 0 1
8.94508 0 1
9.06179 0 1
9.17853 0 1
9.29531 0 1
9.41212 0 1
9.52897 0 1
9.64584 0 1
9.76276 0 1
9.8797 0 1
9.99667 0 1
10.1137 0 1
10.2307 0 1
10.3478 0 1
10.4648 0 1
10.5819 0 1
10.6991 0 1
10.8162 0 1
10.9334 0 1
11.0506 0 1
11.1678 0 1
11.285 0 1
11.4023 0 1
11.5196 0 1
11.6369 0 1
11.7542 0 1
11.8715 0 1
11.9888 0 1
12.1062 0 1
12.2235 0 1
12.3409 0 1
12.4582 0 1
12.5756 0 1
12.693 0 1
12.8104 0 1
12.9278 0 1
13.0452 0 1
13.1626 0 1
13.28 0 1
13.3974 0 1
13.5149 0 1
13.6323 0 1
13.7497 0 1
13.8671 0 1
13.9845 0 1
14.1019 0 1
14.2193 0 1
14.3367 0 1
14.4541 0 1
14.5714 0 1
14.6888 0 1
14.8062 0 1
14.9235 0 1
15.0408 0 0
15.1581 0 0
15.2755 0 0
15.3927 0 0
15.51 0 0
15.6273 0 0
15.7445 0 0
15.8617 0 0
15.9789 0 0
16.0961 0 0
16.2132 0 0
16.3304 0 0
16.4475 0 0
16.5646 0 0
16.6816 0 0
16.7986 0 0
16.9156 0 0
17.0326 0 0
17.1496 0 0
17.2665 0 0
17.3833 0 0
17.5002 0 0
17.617 0 0
17.7338 0 0
17.8505 0 0
17.9672 0 0
18.0839 0 0
18.2005 0 0
18.3171 0 0
18.4337 0 0
18.5502 0 0
18.6666 0 0
18.7831 0 0
18.8994 0 0
19.0158 0 0
19.1321 0 0
19.2483 0 0
19.3645 0 0
19.4806 0 0
19.5967 0 0
19.7128 0 0
19.8288 0 0
19.9447 0 0
20.0606 0 1
20.1764 0 1
20.2922 0 1
20.4079 0 1
20.5236 0 1
20.6392 0 1
20.7548 0 1
20.8702 0 1
23.3078 0 1
23.4233 0 1
23.539 0 1
23.6547 0 1
23.7704 0 1
23.8862 0 1
24.0021 0 1
24.118 0 1
24.234 0 1
24.35 0 1
24.4661 1278 35.7491
24.5822 1270 35.6371
24.6984 1257 35.4542
24.8146 1290 35.9166
24.9309 1238 35.1852
25.0472 1227 35.0286
25.1636 1176 34.2929
25.28 1223 34.9714
25.3965 1272 35.6651
25.513 1164 34.1174
25.6296 1244 35.2704
25.7462 1309 36.1801
25.8628 1290 35.9166
25.9795 1356 36.8239
26.0962 1324 36.3868
26.213 1271 35.6511
26.3298 1314 36.2491
26.4466 1243 35.2562
26.5635 1217 34.8855
26.6804 1212 34.8138
26.7973 1191 34.5109
26.9143 1241 35.2278
27.0313 1289 35.9026
27.1483 1315 36.2629
27.2653 1430 37.8153
27.3824 1388 37.2559
27.4996 1383 37.1887
27.6167 1397 37.3765
27.7339 1308 36.1663
27.8511 1359 36.8646
27.9683 1317 36.2905
28.0855 1344 36.6606
28.2028 1286 35.8608
28.3201 1166 34.1467
28.4374 1277 35.7351
28.5547 1175 34.2783
28.6721 1138 33.7343
28.7894 1123 33.5112
28.9068 1170 34.2053
29.0242 1150 33.9116
29.1416 1161 34.0735
29.259 1140 33.7639
29.3764 1154 33.9706
29.4939 1124 33.5261
29.6113 1143 33.8083
29.7288 1213 34.8281
29.8463 1152 33.9411
29.9638 1137 33.7194
30.0812 1107 33.2716
30.1987 1082 32.8938
30.3162 1087 32.9697
30.4337 1130 33.6155
30.5512 1232 35.0999
30.6687 1167 34.1614
30.7862 1257 35.4542
30.9037 1205 34.7131
31.0212 1294 35.9722
31.1387 1302 36.0832
31.2562 1218 34.8999
31.3737 1171 34.2199
31.4912 1226 35.0143
31.6087 1213 34.8281
31.7262 1225 35
31.8436 1204 34.6987
31.9611 1260 35.4965
32.0785 1154 33.9706
32.1959 1083 32.909
32.3134 1047 32.3574
32.4308 1160 34.0588
32.5482 1084 32.9242
32.6655 1107 33.2716
32.7829 1140 33.7639
32.9002 1213 34.8281
33.0176 1083 32.909
33.1349 1142 33.7935
33.2522 1134 33.6749
33.3694 1147 33.8674
33.4867 1185 34.4238
33.6039 1125 33.541
33.7211 1059 32.5423
33.8383 1087 32.9697
33.9554 1083 32.909
34.0725 1135 33.6898
34.1896 1130 33.6155
34.3067 1179 34.3366
34.4237 1242 35.242
34.5407 1280 35.7771
34.6577 1279 35.7631
34.7746 1241 35.2278
34.8915 1217 34.8855
35.0084 1236 35.1568
35.1252 1221 34.9428
35.242 1159 34.0441
35.3587 1178 34.322
35.4755 1086 32.9545
35.5921 1173 34.2491
35.7088 1114 33.3766
35.8254 1086 32.9545
35.9419 1049 32.3883
36.0584 1059 32.5423
36.1749 1000 31.6228
36.2913 1021 31.9531
36.4077 1015 31.8591
36.524 1072 32.7414
36.6403 1061 32.573
36.7565 1080 32.8634
36.8727 1131 33.6303
36.9889 1160 34.0588
37.1049 1134 33.6749
37.221 0 1
37.3369 0 1
37.4529 0 1
37.5687 0 1
37.6845 0 1
37.8003 0 1
37.916 0 1
38.0316 0 1
38.1472 0 1
40.5851 0 1
40.7008 0 1
40.8164 0 1
40.9322 0 1
41.048 0 1
41.1639 0 1
41.2798 0 1
41.3958 0 1
41.5118 0 1
41.6279 0 1
41.744 833 28.8617
41.8602 789 28.0891
41.9765 844 29.0517
42.0928 890 29.8329
42.2091 854 29.2233
42.3255 880 29.6648
42.4419 913 30.2159
42.5584 793 28.1603
42.675 785 28.0179
42.7915 799 28.2666
42.9081 857 29.2746
43.0248 871 29.5127
43.1415 925 30.4138
43.2582 903 30.05
43.375 923 30.3809
43.4918 951 30.8383
43.6087 863 29.3769
43.7256 892 29.8664
43.8425 822 28.6705
43.9595 837 28.931
44.0765 875 29.5804
44.1935 876 29.5973
44.3106 788 28.0713
44.4277 780 27.9285
44.5448 754 27.4591
44.6619 687 26.2107
44.7791 636 25.219
44.8963 678 26.0384
45.0136 621 24.9199
45.1308 620 24.8998
45.2481 582 24.1247
45.3654 649 25.4755
45.4827 615 24.7992
45.6001 661 25.7099
45.7174 655 25.593
45.8348 661 25.7099
45.9522 667 25.8263
46.0697 600 24.4949
46.1871 539 23.2164
46.3046 544 23.3238
46.422 633 25.1595
46.5395 645 25.3969
46.657 656 25.6125
46.7745 652 25.5343
46.892 638 25.2587
47.0096 630 25.0998
47.1271 636 25.219
47.2446 681 26.096
47.3622 616 24.8193
47.4797 625 25
47.5973 590 24.2899
47.7149 608 24.6577
47.8324 602 24.5357
47.95 568 23.8328
48.0675 517 22.7376
48.1851 507 22.5167
48.3027 428 20.6882
48.4202 424 20.5913
48.5378 430 20.7364
48.6554 423 20.567
48.7729 413 20.3224
48.8904 408 20.199
49.008 485 22.0227
49.1255 485 22.0227
49.243 477 21.8403
49.3605 482 21.9545
49.478 477 21.8403
49.5955 458 21.4009
49.713 438 20.9284
49.8304 454 21.3073
49.9479 482 21.9545
50.0653 537 23.1733
50.1827 544 23.3238
50.3001 574 23.9583
50.4175 566 23.7908
50.5348 589 24.2693
50.6521 614 24.779
50.7694 636 25.219
50.8867 657 25.632
51.004 666 25.807
51.1212 694 26.3439
51.2384 698 26.4197
51.3556 659 25.671
51.4727 642 25.3377
51.5899 607 24.6374
51.707 563 23.7276
51.824 553 23.516
51.9411 594 24.3721
52.0581 613 24.7588
52.175 627 25.04
52.2919 618 24.8596
52.4088 679 26.0576
52.5257 735 27.1109
52.6425 745 27.2947
52.7593 816 28.5657
52.876 763 27.6225
52.9927 769 27.7308
53.1094 790 28.1069
53.226 771 27.7669
53.3426 791 28.1247
53.4591 778 27.8927
53.5756 830 28.8097
53.692 860 29.3258
53.8084 942 30.692
53.9248 962 31.0161
54.0411 1046 32.3419
54.1573 1066 32.6497
54.2735 0 1
54.3896 0 1
54.5057 0 1
54.6217 0 1
54.7377 0 1
54.8537 0 1
54.9695 0 1
55.0853 0 1
55.2011 0 1
55.3168 0 1
55.4324 0 1
57.824 0 1
57.9396 0 1
58.0553 0 1
58.1711 0 1
58.2869 0 1
58.4028 0 1
58.5187 0 1
58.6347 0 1
58.7508 0 1
58.8669 0 1
58.983 1077 32.8177
59.0992 1155 33.9853
59.2155 1160 34.0588
59.3318 1165 34.1321
59.4482 1132 33.6452
59.5646 1211 34.7994
59.681 1209 34.7707
59.7975 1118 33.4365
59.9141 1160 34.0588
60.0306 1066 32.6497
60.1473 1015 31.8591
60.2639 954 30.8869
60.3807 869 29.4788
60.4974 856 29.2575
60.6142 732 27.0555
60.731 794 28.178
60.8479 824 28.7054
60.9648 849 29.1376
61.0818 917 30.282
61.1987 928 30.4631
61.3158 995 31.5436
61.4328 927 30.4467
61.5499 953 30.8707
61.667 985 31.3847
61.7841 954 30.8869
61.9013 877 29.6142
62.0185 878 29.6311
62.1357 958 30.9516
62.253 1010 31.7805
62.3702 1002 31.6544
62.4875 1009 31.7648
62.6049 1091 33.0303
62.7222 1125 33.541
62.8396 1125 33.541
62.9569 1106 33.2566
63.0743 1179 34.3366
63.1918 1165 34.1321
63.3092 1105 33.2415
63.4267 1083 32.909
63.5441 1056 32.4962
63.6616 961 31
63.7791 943 30.7083
63.8966 861 29.3428
64.0142 815 28.5482
64.1317 778 27.8927
64.2492 799 28.2666
64.3668 811 28.4781
64.4843 874 29.5635
64.6019 884 29.7321
64.7195 944 30.7246
64.837 1008 31.749
64.9546 1050 32.4037
65.0722 1002 31.6544
65.1898 982 31.3369
65.3074 1021 31.9531
65.4249 949 30.8058
65.5425 974 31.209
65.6601 932 30.5287
65.7777 1026 32.0312
65.8952 979 31.289
66.0128 1010 31.7805
66.1304 1037 32.2025
66.2479 1133 33.6601
66.3655 1096 33.1059
66.483 1149 33.8969
66.6005 1129 33.6006
66.718 1176 34.2929
66.8355 1172 34.2345
66.953 1115 33.3916
67.0705 987 31.4166
67.1879 938 30.6268
67.3054 923 30.3809
67.4228 866 29.4279
67.5402 781 27.9464
67.6576 754 27.4591
67.7749 760 27.5681
67.8923 779 27.9106
68.0096 801 28.3019
68.1269 819 28.6182
68.2442 911 30.1828
68.3614 864 29.3939
68.4787 957 30.9354
68.5958 998 31.5911
68.713 994 31.5278
68.8302 908 30.133
68.9473 860 29.3258
69.0643 846 29.0861
69.1814 915 30.249
69.2984 886 29.7658
69.4154 961 31
69.5323 968 31.1127
69.6492 1030 32.0936
69.7661 1117 33.4215
69.8829 1115 33.3916
69.9997 1150 33.9116
70.1165 1088 32.9848
70.2332 1160 34.0588
70.3499 1157 34.0147
70.4665 1150 33.9116
70.5831 1113 33.3617
70.6996 1055 32.4808
70.8161 944 30.7246
70.9326 919 30.315
71.049 870 29.4958
71.1653 795 28.1957
71.2817 673 25.9422
71.3979 678 26.0384
71.5141 712 26.6833
71.6303 667 25.8263
71.7464 678 26.0384
71.8624 0 1
71.9784 0 1
72.0944 0 1
72.2102 0 1
72.3261 0 1
72.4418 0 1
72.5575 0 1
72.6732 0 1
75.1054 0 1
75.2209 0 1
75.3365 0 1
75.4521 0 1
75.5678 0 1
75.6835 0 1
75.7993 0 1
75.9151 0 1
76.031 0 1
76.147 922 30.3645
76.263 910 30.1662
76.3791 850 29.1548
76.4952 835 28.8964
76.6113 739 27.1846
76.7276 739 27.1846
76.8438 740 27.2029
76.9601 747 27.3313
77.0765 797 28.2312
77.1929 842 29.0172
77.3093 967 31.0966
77.4258 984 31.3688
77.5423 987 31.4166
77.6589 1004 31.686
77.7755 1049 32.3883
77.8921 951 30.8383
78.0088 884 29.7321
78.1256 872 29.5296
78.2423 851 29.1719
78.3591 915 30.249
78.4759 954 30.8869
78.5928 972 31.1769
78.7097 983 31.3528
78.8266 996 31.5595
78.9436 1176 34.2929
79.0606 1082 32.8938
79.1776 1076 32.8024
79.2946 1132 33.6452
79.4117 1106 33.2566
79.5288 1046 32.3419
79.6459 1088 32.9848
79.7631 929 30.4795
79.8802 869 29.4788
79.9974 836 28.9137
80.1147 756 27.4955
80.2319 677 26.0192
80.3491 640 25.2982
80.4664 671 25.9037
80.5837 649 25.4755
80.701 708 26.6083
80.8183 727 26.9629
80.9357 735 27.1109
81.053 835 28.8964
81.1704 820 28.6356
81.2877 827 28.7576
81.4051 906 30.0998
81.5225 778 27.8927
81.6399 751 27.4044
81.7573 771 27.7669
81.8747 736 27.1293
81.9922 760 27.5681
82.1096 789 28.0891
82.227 895 29.9166
82.3444 824 28.7054
82.4619 908 30.133
82.5793 934 30.5614
82.6967 927 30.4467
82.8142 932 30.5287
82.9316 920 30.3315
83.049 969 31.1288
83.1664 923 30.3809
83.2838 899 29.9833
83.4012 771 27.7669
83.5186 736 27.1293
83.636 643 25.3574
83.7534 618 24.8596
83.8708 580 24.0832
83.9881 525 22.9129
84.1055 543 23.3024
84.2228 550 23.4521
84.3401 609 24.6779
84.4575 631 25.1197
84.5747 729 27
84.692 791 28.1247
84.8093 765 27.6586
84.9265 734 27.0924
85.0437 765 27.6586
85.1609 744 27.2764
85.2781 746 27.313
85.3952 742 27.2397
85.5123 744 27.2764
85.6294 798 28.2489
85.7465 819 28.6182
85.8636 844 29.0517
85.9806 911 30.1828
86.0976 923 30.3809
86.2145 983 31.3528
86.3315 1069 32.6956
86.4484 958 30.9516
86.5652 1010 31.7805
86.682 1048 32.3728
86.7988 1019 31.9218
86.9156 900 30
87.0323 868 29.4618
87.149 827 28.7576
87.2657 778 27.8927
87.3823 685 26.1725
87.4988 634 25.1794
87.6154 671 25.9037
87.7318 661 25.7099
87.8483 726 26.9444
87.9647 787 28.0535
88.081 908 30.133
88.1973 982 31.3369
88.3136 972 31.1769
88.4298 1042 32.28
88.546 1000 31.6228
88.6621 908 30.133
88.7781 939 30.6431
88.8942 0 1
89.0101 0 1
89.126 0 1
89.2419 0 1
89.3577 0 1
89.4734 0 1
89.5891 0 1
89.7047 0 1
89.8203 0 1
89.9358 0 1
92.3269 0 1
92.4424 0 1
92.558 0 1
92.6736 0 1
92.7893 0 1
92.905 0 1
93.0208 0 1
93.1366 0 1
93.2525 0 1
93.3685 0 1
93.4845 0 1
93.6005 973 31.1929
93.7167 948 30.7896
93.8328 984 31.3688
93.949 939 30.6431
94.0653 905 30.0832
94.1816 924 30.3974
94.2979 924 30.3974
94.4143 852 29.189
94.5307 890 29.8329
94.6472 928 30.4631
94.7637 941 30.6757
94.8803 971 31.1609
94.9969 1046 32.3419
95.1135 1085 32.9393
95.2302 1115 33.3916
95.3469 1128 33.5857
95.4637 1155 33.9853
95.5805 1162 34.0881
95.6973 1229 35.0571
95.8142 1115 33.3916
95.9311 1125 33.541
96.048 1018 31.9061
96.1649 1004 31.686
96.2819 902 30.0333
96.3989 857 29.2746
96.516 768 27.7128
96.633 679 26.0576
96.7501 692 26.3059
96.8673 703 26.5141
96.9844 756 27.4955
97.1016 837 28.931
97.2188 886 29.7658
97.336 1032 32.1248
97.4532 998 31.5911
97.5704 956 30.9192
97.6877 954 30.8869
97.805 870 29.4958
97.9223 929 30.4795
98.0396 887 29.7825
98.1569 928 30.4631
98.2743 892 29.8664
98.3916 966 31.0805
98.509 975 31.225
98.6264 1036 32.187
98.7438 1060 32.5576
98.8612 1167 34.1614
98.9786 1161 34.0735
99.096 1195 34.5688
99.2134 1176 34.2929
99.3308 1195 34.5688
99.4482 1136 33.7046
99.5656 1172 34.2345
99.6831 1082 32.8938
99.8005 1011 31.7962
99.9179 951 30.8383
100.035 830 28.8097
100.153 747 27.3313
100.27 724 26.9072
100.388 733 27.074
100.505 823 28.688
100.622 866 29.4279
100.74 897 29.95
100.857 981 31.3209
100.975 925 30.4138
101.092 1008 31.749
101.209 1018 31.9061
101.327 987 31.4166
101.444 995 31.5436
101.561 948 30.7896
101.679 956 30.9192
101.796 965 31.0644
101.913 911 30.1828
102.03 985 31.3847
102.148 1069 32.6956
102.265 1132 33.6452
102.382 1186 34.4384
102.499 1180 34.3511
102.616 1267 35.5949
102.733 1250 35.3553
102.851 1265 35.5668
102.968 1203 34.6843
103.085 1173 34.2491
103.202 1161 34.0735
103.319 1079 32.8481
103.436 1031 32.1092
103.552 943 30.7083
103.669 865 29.4109
103.786 774 27.8209
103.903 766 27.6767
104.02 819 28.6182
104.137 896 29.9333
104.253 1052 32.4345
104.37 998 31.5911
104.487 1052 32.4345
104.603 1074 32.7719
104.72 1090 33.0151
104.836 1043 32.2955
104.953 1039 32.2335
105.069 977 31.257
105.186 1030 32.0936
105.302 1026 32.0312
105.418 1113 33.3617
105.535 1172 34.2345
105.651 1242 35.242
105.767 1302 36.0832
105.883 1367 36.973
105.999 1351 36.756
106.115 0 1
106.231 0 1
106.347 0 1
106.463 0 1
106.579 0 1
106.694 0 1
106.81 0 1
106.926 0 1
107.041 0 1
107.157 0 1
109.576 0 1
109.692 0 1
109.807 0 1
109.923 0 1
110.039 0 1
110.155 0 1
110.27 0 1
110.386 0 1
110.502 0 1
110.618 1066 32.6497
110.735 1185 34.4238
110.851 1253 35.3977
110.967 1261 35.5106
111.083 1250 35.3553
111.199 1289 35.9026
111.316 1302 36.0832
111.432 1191 34.5109
111.549 1313 36.2353
111.665 1209 34.7707
111.782 1132 33.6452
111.898 1117 33.4215
112.015 1075 32.7872
112.132 999 31.607
112.248 850 29.1548
112.365 766 27.6767
112.482 767 27.6948
112.599 856 29.2575
112.716 899 29.9833
112.832 928 30.4631
112.949 986 31.4006
113.066 925 30.4138
113.183 998 31.5911
113.3 940 30.6594
113.417 911 30.1828
113.534 927 30.4467
113.652 981 31.3209
113.769 932 30.5287
113.886 926 30.4302
114.003 970 31.1448
114.12 1025 32.0156
114.238 1046 32.3419
114.355 1110 33.3167
114.472 1241 35.2278
114.589 1259 35.4824
114.707 1259 35.4824
114.824 1261 35.5106
114.942 1282 35.805
115.059 1197 34.5977
115.176 1222 34.9571
115.294 1176 34.2929
115.411 1129 33.6006
115.529 1022 31.9687
115.646 1037 32.2025
115.764 931 30.5123
115.881 859 29.3087
115.999 745 27.2947
116.116 861 29.3428
116.234 982 31.3369
116.351 980 31.305
116.469 981 31.3209
116.586 996 31.5595
116.704 1095 33.0908
116.821 1048 32.3728
116.939 921 30.348
117.056 993 31.5119
117.174 1051 32.4191
117.291 1012 31.8119
117.409 1081 32.8786
117.526 1072 32.7414
117.644 1120 33.4664
117.761 1160 34.0588
117.879 1244 35.2704
117.996 1230 35.0714
118.114 1309 36.1801
118.231 1270 35.6371
118.349 1286 35.8608
118.466 1347 36.7015
118.584 1381 37.1618
118.701 1255 35.426
118.819 1278 35.7491
118.936 1236 35.1568
119.053 1183 34.3948
119.171 1105 33.2415
119.288 1110 33.3167
119.405 1006 31.7175
119.523 932 30.5287
119.64 835 28.8964
119.757 891 29.8496
119.875 970 31.1448
119.992 1007 31.7333
120.109 1043 32.2955
120.226 1018 31.9061
120.343 983 31.3528
120.46 961 31
120.578 1003 31.6702
120.695 991 31.4802
120.812 1072 32.7414
120.929 1052 32.4345
121.046 1104 33.2265
121.163 1128 33.5857
121.279 1164 34.1174
121.396 1208 34.7563
121.513 1223 34.9714
121.63 1306 36.1386
121.747 1274 35.6931
121.863 1241 35.2278
121.98 1310 36.1939
122.097 1427 37.7757
122.213 1333 36.5103
122.33 1278 35.7491
122.446 1241 35.2278
122.563 1116 33.4066
122.679 1198 34.6121
122.795 1125 33.541
122.912 1134 33.6749
123.028 1036 32.187
123.144 996 31.5595
123.26 953 30.8707
123.377 0 1
123.493 0 1
123.609 0 1
123.725 0 1
123.84 0 1
123.956 0 1
124.072 0 1
124.188 0 1
124.303 0 1
124.419 0 1
126.852 0 1
126.968 0 1
127.083 0 1
127.199 0 1
127.315 0 1
127.431 0 1
127.547 0 1
127.663 0 1
127.779 0 1
127.895 0 1
128.011 0 1
128.127 0 1
128.243 0 1
128.359 1144 33.8231
128.476 1047 32.3574
128.592 995 31.5436
128.708 1072 32.7414
128.825 1078 32.8329
128.941 1181 34.3657
129.058 1130 33.6155
129.174 1101 33.1813
129.291 1113 33.3617
129.408 1123 33.5112
129.524 1118 33.4365
129.641 1047 32.3574
129.758 1063 32.6037
129.875 1125 33.541
129.992 1104 33.2265
130.108 1175 34.2783
130.225 1207 34.7419
130.342 1273 35.6791
130.459 1284 35.8329
130.576 1372 37.0405
130.693 1344 36.6606
130.81 1321 36.3456
130.928 1306 36.1386
131.045 1363 36.9188
131.162 1337 36.565
131.279 1299 36.0416
131.396 1277 35.7351
131.513 1241 35.2278
131.631 1230 35.0714
131.748 1150 33.9116
131.865 1126 33.5559
131.983 1028 32.0624
132.1 964 31.0483
132.217 1070 32.7109
132.335 1087 32.9697
132.452 1032 32.1248
132.57 1107 33.2716
132.687 1146 33.8526
132.804 1105 33.2415
132.922 1157 34.0147
133.039 1135 33.6898
133.157 1076 32.8024
133.274 1106 33.2566
133.392 1100 33.1662
133.509 1153 33.9559
133.627 1088 32.9848
133.744 1165 34.1321
133.862 1214 34.8425
133.979 1283 35.819
134.097 1295 35.9861
134.214 1256 35.4401
134.332 1277 35.7351
134.449 1364 36.9324
134.567 1245 35.2846
134.684 1263 35.5387
134.802 1281 35.7911
134.919 1341 36.6197
135.037 1272 35.6651
135.154 1210 34.7851
135.272 1184 34.4093
135.389 1140 33.7639
135.507 1123 33.5112
135.624 994 31.5278
135.742 972 31.1769
135.859 1099 33.1512
135.977 1063 32.6037
136.094 1159 34.0441
136.211 1215 34.8569
136.329 1152 33.9411
136.446 1186 34.4384
136.564 1115 33.3916
136.681 1071 32.7261
136.798 1147 33.8674
136.915 1176 34.2929
137.033 1096 33.1059
137.15 1174 34.2637
137.267 1111 33.3317
137.384 1163 34.1028
137.502 1264 35.5528
137.619 1280 35.7771
137.736 1238 35.1852
137.853 1270 35.6371
137.97 1273 35.6791
138.087 1263 35.5387
138.204 1282 35.805
138.321 1333 36.5103
138.438 1287 35.8748
138.555 1323 36.3731
138.672 1159 34.0441
138.788 1293 35.9583
138.905 1221 34.9428
139.022 1174 34.2637
139.139 1115 33.3916
139.255 1093 33.0606
139.372 1067 32.665
139.488 1074 32.7719
139.605 1131 33.6303
139.721 1162 34.0881
139.838 1168 34.176
139.954 1122 33.4963
140.071 1169 34.1906
140.187 1136 33.7046
140.303 1072 32.7414
140.419 1115 33.3916
140.535 1076 32.8024
140.652 1105 33.2415
140.768 0 1
140.884 0 1
141 0 1
141.115 0 1
141.231 0 1
141.347 0 1
141.463 0 1
141.578 0 1
141.694 0 1
144.104 0 1
144.219 0 1
144.335 0 1
144.45 0 1
144.566 0 1
144.682 0 1
144.798 0 1
144.914 0 1
145.03 0 1
145.146 773 27.8029
145.262 837 28.931
145.378 825 28.7228
145.494 907 30.1164
145.61 896 29.9333
145.726 806 28.3901
145.842 902 30.0333
145.959 883 29.7153
146.075 902 30.0333
146.192 904 30.0666
146.308 937 30.6105
146.425 957 30.9354
146.541 951 30.8383
146.658 1022 31.9687
146.774 966 31.0805
146.891 1011 31.7962
147.008 1022 31.9687
147.125 947 30.7734
147.241 1000 31.6228
147.358 1078 32.8329
147.475 1061 32.573
147.592 994 31.5278
147.709 1031 32.1092
147.826 941 30.6757
147.943 904 30.0666
148.06 844 29.0517
148.177 812 28.4956
148.294 792 28.1425
148.411 850 29.1548
148.528 929 30.4795
148.645 966 31.0805
148.762 994 31.5278
148.88 976 31.241
148.997 925 30.4138
149.114 960 30.9839
149.231 945 30.7409
149.349 900 30
149.466 923 30.3809
149.583 901 30.0167
149.701 922 30.3645
149.818 900 30
149.935 879 29.6479
150.053 926 30.4302
150.17 1000 31.6228
150.287 1011 31.7962
150.405 1038 32.218
150.522 1012 31.8119
150.64 942 30.692
150.757 1028 32.0624
150.875 1063 32.6037
150.992 1064 32.619
151.11 1050 32.4037
151.227 1069 32.6956
151.344 1020 31.9374
151.462 1024 32
151.579 992 31.496
151.697 989 31.4484
151.814 926 30.4302
151.932 852 29.189
152.049 923 30.3809
152.167 952 30.8545
152.284 959 30.9677
152.402 914 30.2324
152.519 1010 31.7805
152.636 997 31.5753
152.754 963 31.0322
152.871 1027 32.0468
152.989 987 31.4166
153.106 952 30.8545
153.223 948 30.7896
153.341 1020 31.9374
153.458 972 31.1769
153.575 954 30.8869
153.693 1007 31.7333
153.81 1042 32.28
153.927 1086 32.9545
154.044 1073 32.7567
154.162 1089 33
154.279 1080 32.8634
154.396 1113 33.3617
154.513 1198 34.6121
154.63 1163 34.1028
154.747 1218 34.8999
154.864 1160 34.0588
154.981 1197 34.5977
155.098 1119 33.4515
155.215 1151 33.9264
155.332 1054 32.4654
155.449 992 31.496
155.566 989 31.4484
155.683 1055 32.4808
155.8 1144 33.8231
155.917 1139 33.7491
156.033 1088 32.9848
156.15 0 1
156.267 0 1
156.383 0 1
156.5 0 1
156.617 0 1
156.733 0 1
156.85 0 1
156.966 0 1
157.082 0 1
157.199 0 1
157.315 0 1
157.431 0 1
157.547 0 1
157.664 0 1
157.78 0 1
157.896 0 1
158.012 0 1
158.128 0 1
158.244 0 1
158.359 0 1
158.475 0 1
158.591 0 1
158.706 0 1
