
6.15755 0 1
6.2731 0 1
6.3887 0 1
6.50437 0 1
6.62009 0 1
6.73587 0 1
6.8517 0 1
6.96759 0 1
7.08353 0 1
7.19952 0 1
7.31557 0 1
7.43166 0 1
7.54781 0 1
7.664 0 1
7.78024 0 1
7.89653 0 1
8.01286 0 1
8.12924 0 1
8.24567 0 1
8.36213 0 1
8.47864 0 1
8.59519 0 1
8.71178 0 1
8.82841 0 1
8.94508 0 1
9.06179 0 1
9.17853 0 1
9.29531 0 1
9.41212 0 1
9.52897 0 1
9.64584 0 1
9.76276 0 1
9.8797 0 1
9.99667 0 1
10.1137 0 1
10.2307 0 1
10.3478 0 1
10.4648 0 1
10.5819 0 1
10.6991 0 1
10.8162 0 1
10.9334 0 1
11.0506 0 1
11.1678 0 1
11.285 0 1
11.4023 0 1
11.5196 0 1
11.6369 0 1
11.7542 0 1
11.8715 0 1
11.9888 0 1
12.1062 0 1
12.2235 0 1
12.3409 0 1
12.4582 0 1
12.5756 0 1
12.693 0 1
12.8104 0 1
12.9278 0 1
13.0452 0 1
13.1626 0 1
13.28 0 1
13.3974 0 1
13.5149 0 1
13.6323 0 1
13.7497 0 1
13.8671 0 1
13.9845 0 1
14.1019 0 1
14.2193 0 1
14.3367 0 1
14.4541 0 1
14.5714 0 1
14.6888 0 1
14.8062 0 1
14.9235 0 1
15.0408 793 28.1603
15.1581 824 28.7054
15.2755 862 29.3598
15.3927 858 29.2916
15.51 868 29.4618
15.6273 854 29.2233
15.7445 873 29.5466
15.8617 858 29.2916
15.9789 835 28.8964
16.0961 886 29.7658
16.2132 814 28.5307
16.3304 830 28.8097
16.4475 869 29.4788
16.5646 888 29.7993
16.6816 944 30.7246
16.7986 991 31.4802
16.9156 990 31.4643
17.0326 972 31.1769
17.1496 1015 31.8591
17.2665 956 30.9192
17.3833 1006 31.7175
17.5002 986 31.4006
17.617 908 30.133
17.7338 902 30.0333
17.8505 807 28.4077
17.9672 823 28.688
18.0839 849 29.1376
18.2005 897 29.95
18.3171 881 29.6816
18.4337 925 30.4138
18.5502 973 31.1929
18.6666 954 30.8869
18.7831 986 31.4006
18.8994 953 30.8707
19.0158 956 30.9192
19.1321 995 31.5436
19.2483 900 30
19.3645 813 28.5132
19.4806 739 27.1846
19.5967 737 27.1477
19.7128 720 26.8328
19.8288 579 24.0624
19.9447 543 23.3024
20.0606 0 1
20.1764 0 1
20.2922 0 1
20.4079 0 1
20.5236 0 1
20.6392 0 1
20.7548 0 1
20.8702 0 1
23.3078 0 1
23.4233 0 1
23.539 0 1
23.6547 0 1
23.7704 0 1
23.8862 0 1
24.0021 0 1
24.118 0 1
24.234 0 1
24.35 0 1
24.4661 390 19.7484
24.5822 439 20.9523
24.6984 518 22.7596
24.8146 576 24
24.9309 615 24.7992
25.0472 668 25.8457
25.1636 719 26.8142
25.28 812 28.4956
25.3965 841 29
25.513 917 30.282
25.6296 973 31.1929
25.7462 971 31.1609
25.8628 968 31.1127
25.9795 1009 31.7648
26.0962 998 31.5911
26.213 965 31.0644
26.3298 969 31.1288
26.4466 877 29.6142
26.5635 832 28.8444
26.6804 862 29.3598
26.7973 840 28.9828
26.9143 884 29.7321
27.0313 968 31.1127
27.1483 917 30.282
27.2653 974 31.209
27.3824 1007 31.7333
27.4996 971 31.1609
27.6167 950 30.8221
27.7339 931 30.5123
27.8511 937 30.6105
27.9683 925 30.4138
28.0855 836 28.9137
28.2028 848 29.1204
28.3201 838 28.9482
28.4374 816 28.5657
28.5547 767 27.6948
28.6721 802 28.3196
28.7894 825 28.7228
28.9068 913 30.2159
29.0242 894 29.8998
29.1416 1006 31.7175
29.259 978 31.273
29.3764 1002 31.6544
29.4939 981 31.3209
29.6113 974 31.209
29.7288 903 30.05
29.8463 817 28.5832
29.9638 823 28.688
30.0812 801 28.3019
30.1987 790 28.1069
30.3162 833 28.8617
30.4337 845 29.0689
30.5512 902 30.0333
30.6687 892 29.8664
30.7862 897 29.95
30.9037 912 30.1993
31.0212 918 30.2985
31.1387 943 30.7083
31.2562 867 29.4449
31.3737 933 30.545
31.4912 895 29.9166
31.6087 852 29.189
31.7262 787 28.0535
31.8436 845 29.0689
31.9611 751 27.4044
32.0785 791 28.1247
32.1959 754 27.4591
32.3134 799 28.2666
32.4308 821 28.6531
32.5482 900 30
32.6655 949 30.8058
32.7829 975 31.225
32.9002 937 30.6105
33.0176 931 30.5123
33.1349 874 29.5635
33.2522 903 30.05
33.3694 888 29.7993
33.4867 788 28.0713
33.6039 797 28.2312
33.7211 776 27.8568
33.8383 738 27.1662
33.9554 785 28.0179
34.0725 855 29.2404
34.1896 825 28.7228
34.3067 817 28.5832
34.4237 817 28.5832
34.5407 879 29.6479
34.6577 954 30.8869
34.7746 865 29.4109
34.8915 853 29.2062
35.0084 876 29.5973
35.1252 819 28.6182
35.242 848 29.1204
35.3587 836 28.9137
35.4755 746 27.313
35.5921 772 27.7849
35.7088 752 27.4226
35.8254 726 26.9444
35.9419 784 28
36.0584 791 28.1247
36.1749 721 26.8514
36.2913 750 27.3861
36.4077 796 28.2135
36.524 781 27.9464
36.6403 862 29.3598
36.7565 761 27.5862
36.8727 699 26.4386
36.9889 673 25.9422
37.1049 554 23.5372
37.221 0 1
37.3369 0 1
37.4529 0 1
37.5687 0 1
37.6845 0 1
37.8003 0 1
37.916 0 1
38.0316 0 1
38.1472 0 1
40.5851 0 1
40.7008 0 1
40.8164 0 1
40.9322 0 1
41.048 0 1
41.1639 0 1
41.2798 0 1
41.3958 0 1
41.5118 0 1
41.6279 0 1
41.744 408 20.199
41.8602 459 21.4243
41.9765 483 21.9773
42.0928 553 23.516
42.2091 557 23.6008
42.3255 542 23.2809
42.4419 486 22.0454
42.5584 519 22.7816
42.675 551 23.4734
42.7915 600 24.4949
42.9081 651 25.5147
43.0248 701 26.4764
43.1415 738 27.1662
43.2582 671 25.9037
43.375 684 26.1534
43.4918 741 27.2213
43.6087 728 26.9815
43.7256 703 26.5141
43.8425 704 26.533
43.9595 669 25.865
44.0765 712 26.6833
44.1935 639 25.2784
44.3106 582 24.1247
44.4277 629 25.0799
44.5448 564 23.7487
44.6619 592 24.3311
44.7791 628 25.0599
44.8963 641 25.318
45.0136 616 24.8193
45.1308 779 27.9106
45.2481 753 27.4408
45.3654 779 27.9106
45.4827 749 27.3679
45.6001 782 27.9643
45.7174 715 26.7395
45.8348 671 25.9037
45.9522 656 25.6125
46.0697 591 24.3105
46.1871 593 24.3516
46.3046 606 24.6171
46.422 663 25.7488
46.5395 662 25.7294
46.657 673 25.9422
46.7745 712 26.6833
46.892 756 27.4955
47.0096 734 27.0924
47.1271 734 27.0924
47.2446 745 27.2947
47.3622 726 26.9444
47.4797 711 26.6646
47.5973 747 27.3313
47.7149 677 26.0192
47.8324 660 25.6905
47.95 656 25.6125
48.0675 655 25.593
48.1851 620 24.8998
48.3027 630 25.0998
48.4202 615 24.7992
48.5378 628 25.0599
48.6554 721 26.8514
48.7729 786 28.0357
48.8904 732 27.0555
49.008 767 27.6948
49.1255 742 27.2397
49.243 705 26.5518
49.3605 635 25.1992
49.478 586 24.2074
49.5955 593 24.3516
49.713 616 24.8193
49.8304 587 24.2281
49.9479 603 24.5561
50.0653 638 25.2587
50.1827 688 26.2298
50.3001 674 25.9615
50.4175 683 26.1343
50.5348 678 26.0384
50.6521 745 27.2947
50.7694 738 27.1662
50.8867 700 26.4575
51.004 737 27.1477
51.1212 746 27.313
51.2384 649 25.4755
51.3556 635 25.1992
51.4727 653 25.5539
51.5899 624 24.98
51.707 591 24.3105
51.824 602 24.5357
51.9411 637 25.2389
52.0581 681 26.096
52.175 710 26.6458
52.2919 702 26.4953
52.4088 724 26.9072
52.5257 762 27.6043
52.6425 771 27.7669
52.7593 749 27.3679
52.876 688 26.2298
52.9927 673 25.9422
53.1094 631 25.1197
53.226 575 23.9792
53.3426 560 23.6643
53.4591 557 23.6008
53.5756 557 23.6008
53.692 593 24.3516
53.8084 591 24.3105
53.9248 581 24.1039
54.0411 594 24.3721
54.1573 533 23.0868
54.2735 0 1
54.3896 0 1
54.5057 0 1
54.6217 0 1
54.7377 0 1
54.8537 0 1
54.9695 0 1
55.0853 0 1
55.2011 0 1
55.3168 0 1
55.4324 0 1
57.824 0 1
57.9396 0 1
58.0553 0 1
58.1711 0 1
58.2869 0 1
58.4028 0 1
58.5187 0 1
58.6347 0 1
58.7508 0 1
58.8669 0 1
58.983 532 23.0651
59.0992 577 24.0208
59.2155 640 25.2982
59.3318 656 25.6125
59.4482 689 26.2488
59.5646 723 26.8887
59.681 784 28
59.7975 810 28.4605
59.9141 801 28.3019
60.0306 820 28.6356
60.1473 773 27.8029
60.2639 772 27.7849
60.3807 732 27.0555
60.4974 731 27.037
60.6142 746 27.313
60.731 823 28.688
60.8479 898 29.9666
60.9648 863 29.3769
61.0818 955 30.9031
61.1987 909 30.1496
61.3158 874 29.5635
61.4328 888 29.7993
61.5499 857 29.2746
61.667 841 29
61.7841 791 28.1247
61.9013 622 24.9399
62.0185 725 26.9258
62.1357 750 27.3861
62.253 821 28.6531
62.3702 831 28.8271
62.4875 879 29.6479
62.6049 851 29.1719
62.7222 901 30.0167
62.8396 907 30.1164
62.9569 970 31.1448
63.0743 902 30.0333
63.1918 916 30.2655
63.3092 898 29.9666
63.4267 939 30.6431
63.5441 847 29.1033
63.6616 810 28.4605
63.7791 747 27.3313
63.8966 739 27.1846
64.0142 699 26.4386
64.1317 747 27.3313
64.2492 740 27.2029
64.3668 846 29.0861
64.4843 873 29.5466
64.6019 911 30.1828
64.7195 978 31.273
64.837 968 31.1127
64.9546 904 30.0666
65.0722 902 30.0333
65.1898 829 28.7924
65.3074 809 28.4429
65.4249 705 26.5518
65.5425 748 27.3496
65.6601 670 25.8844
65.7777 750 27.3861
65.8952 859 29.3087
66.0128 866 29.4279
66.1304 879 29.6479
66.2479 913 30.2159
66.3655 914 30.2324
66.483 978 31.273
66.6005 898 29.9666
66.718 910 30.1662
66.8355 987 31.4166
66.953 916 30.2655
67.0705 884 29.7321
67.1879 894 29.8998
67.3054 841 29
67.4228 764 27.6405
67.5402 637 25.2389
67.6576 720 26.8328
67.7749 816 28.5657
67.8923 837 28.931
68.0096 875 29.5804
68.1269 938 30.6268
68.2442 973 31.1929
68.3614 898 29.9666
68.4787 955 30.9031
68.5958 980 31.305
68.713 883 29.7153
68.8302 886 29.7658
68.9473 884 29.7321
69.0643 778 27.8927
69.1814 798 28.2489
69.2984 820 28.6356
69.4154 828 28.775
69.5323 929 30.4795
69.6492 955 30.9031
69.7661 1066 32.6497
69.8829 1018 31.9061
69.9997 997 31.5753
70.1165 1073 32.7567
70.2332 978 31.273
70.3499 966 31.0805
70.4665 948 30.7896
70.5831 920 30.3315
70.6996 825 28.7228
70.8161 798 28.2489
70.9326 743 27.258
71.049 641 25.318
71.1653 518 22.7596
71.2817 419 20.4695
71.3979 415 20.3715
71.5141 398 19.9499
71.6303 396 19.8997
71.7464 390 19.7484
71.8624 0 1
71.9784 0 1
72.0944 0 1
72.2102 0 1
72.3261 0 1
72.4418 0 1
72.5575 0 1
72.6732 0 1
75.1054 0 1
75.2209 0 1
75.3365 0 1
75.4521 0 1
75.5678 0 1
75.6835 0 1
75.7993 0 1
75.9151 0 1
76.031 0 1
76.147 687 26.2107
76.263 706 26.5707
76.3791 671 25.9037
76.4952 699 26.4386
76.6113 719 26.8142
76.7276 720 26.8328
76.8438 789 28.0891
76.9601 830 28.8097
77.0765 876 29.5973
77.1929 942 30.692
77.3093 934 30.5614
77.4258 886 29.7658
77.5423 932 30.5287
77.6589 813 28.5132
77.7755 812 28.4956
77.8921 710 26.6458
78.0088 626 25.02
78.1256 654 25.5734
78.2423 597 24.4336
78.3591 649 25.4755
78.4759 692 26.3059
78.5928 766 27.6767
78.7097 789 28.0891
78.8266 818 28.6007
78.9436 812 28.4956
79.0606 774 27.8209
79.1776 835 28.8964
79.2946 822 28.6705
79.4117 813 28.5132
79.5288 819 28.6182
79.6459 789 28.0891
79.7631 814 28.5307
79.8802 788 28.0713
79.9974 743 27.258
80.1147 675 25.9808
80.2319 614 24.779
80.3491 611 24.7184
80.4664 712 26.6833
80.5837 684 26.1534
80.701 743 27.258
80.8183 817 28.5832
80.9357 828 28.775
81.053 813 28.5132
81.1704 838 28.9482
81.2877 860 29.3258
81.4051 740 27.2029
81.5225 706 26.5707
81.6399 683 26.1343
81.7573 648 25.4558
81.8747 650 25.4951
81.9922 616 24.8193
82.1096 654 25.5734
82.227 704 26.533
82.3444 749 27.3679
82.4619 759 27.55
82.5793 821 28.6531
82.6967 815 28.5482
82.8142 871 29.5127
82.9316 883 29.7153
83.049 845 29.0689
83.1664 856 29.2575
83.2838 839 28.9655
83.4012 759 27.55
83.5186 775 27.8388
83.636 739 27.1846
83.7534 706 26.5707
83.8708 634 25.1794
83.9881 589 24.2693
84.1055 594 24.3721
84.2228 699 26.4386
84.3401 731 27.037
84.4575 850 29.1548
84.5747 843 29.0345
84.692 854 29.2233
84.8093 882 29.6985
84.9265 824 28.7054
85.0437 819 28.6182
85.1609 729 27
85.2781 680 26.0768
85.3952 687 26.2107
85.5123 642 25.3377
85.6294 586 24.2074
85.7465 728 26.9815
85.8636 828 28.775
85.9806 791 28.1247
86.0976 818 28.6007
86.2145 823 28.688
86.3315 882 29.6985
86.4484 851 29.1719
86.5652 836 28.9137
86.682 874 29.5635
86.7988 862 29.3598
86.9156 823 28.688
87.0323 866 29.4279
87.149 856 29.2575
87.2657 714 26.7208
87.3823 627 25.04
87.4988 643 25.3574
87.6154 569 23.8537
87.7318 582 24.1247
87.8483 650 25.4951
87.9647 631 25.1197
88.081 703 26.5141
88.1973 688 26.2298
88.3136 624 24.98
88.4298 630 25.0998
88.546 595 24.3926
88.6621 535 23.1301
88.7781 393 19.8242
88.8942 0 1
89.0101 0 1
89.126 0 1
89.2419 0 1
89.3577 0 1
89.4734 0 1
89.5891 0 1
89.7047 0 1
89.8203 0 1
89.9358 0 1
92.3269 0 1
92.4424 0 1
92.558 0 1
92.6736 0 1
92.7893 0 1
92.905 0 1
93.0208 0 1
93.1366 0 1
93.2525 0 1
93.3685 0 1
93.4845 0 1
93.6005 577 24.0208
93.7167 664 25.7682
93.8328 613 24.7588
93.949 668 25.8457
94.0653 725 26.9258
94.1816 741 27.2213
94.2979 723 26.8887
94.4143 650 25.4951
94.5307 631 25.1197
94.6472 609 24.6779
94.7637 601 24.5153
94.8803 639 25.2784
94.9969 697 26.4008
95.1135 766 27.6767
95.2302 797 28.2312
95.3469 823 28.688
95.4637 837 28.931
95.5805 832 28.8444
95.6973 862 29.3598
95.8142 852 29.189
95.9311 794 28.178
96.048 797 28.2312
96.1649 842 29.0172
96.2819 751 27.4044
96.3989 791 28.1247
96.516 802 28.3196
96.633 647 25.4362
96.7501 697 26.4008
96.8673 627 25.04
96.9844 637 25.2389
97.1016 726 26.9444
97.2188 755 27.4773
97.336 807 28.4077
97.4532 852 29.189
97.5704 873 29.5466
97.6877 840 28.9828
97.805 878 29.6311
97.9223 738 27.1662
98.0396 720 26.8328
98.1569 653 25.5539
98.2743 613 24.7588
98.3916 616 24.8193
98.509 619 24.8797
98.6264 695 26.3629
98.7438 755 27.4773
98.8612 796 28.2135
98.9786 848 29.1204
99.096 869 29.4788
99.2134 864 29.3939
99.3308 846 29.0861
99.4482 843 29.0345
99.5656 856 29.2575
99.6831 852 29.189
99.8005 875 29.5804
99.9179 852 29.189
100.035 831 28.8271
100.153 736 27.1293
100.27 695 26.3629
100.388 666 25.807
100.505 730 27.0185
100.622 771 27.7669
100.74 780 27.9285
100.857 861 29.3428
100.975 889 29.8161
101.092 949 30.8058
101.209 887 29.7825
101.327 891 29.8496
101.444 828 28.775
101.561 794 28.178
101.679 711 26.6646
101.796 675 25.9808
101.913 636 25.219
102.03 637 25.2389
102.148 702 26.4953
102.265 760 27.5681
102.382 881 29.6816
102.499 854 29.2233
102.616 862 29.3598
102.733 884 29.7321
102.851 913 30.2159
102.968 945 30.7409
103.085 912 30.1993
103.202 929 30.4795
103.319 907 30.1164
103.436 894 29.8998
103.552 894 29.8998
103.669 812 28.4956
103.786 761 27.5862
103.903 720 26.8328
104.02 752 27.4226
104.137 768 27.7128
104.253 821 28.6531
104.37 920 30.3315
104.487 972 31.1769
104.603 921 30.348
104.72 933 30.545
104.836 906 30.0998
104.953 763 27.6225
105.069 732 27.0555
105.186 676 26
105.302 636 25.219
105.418 619 24.8797
105.535 598 24.454
105.651 656 25.6125
105.767 638 25.2587
105.883 658 25.6515
105.999 595 24.3926
106.115 0 1
106.231 0 1
106.347 0 1
106.463 0 1
106.579 0 1
106.694 0 1
106.81 0 1
106.926 0 1
107.041 0 1
107.157 0 1
109.576 0 1
109.692 0 1
109.807 0 1
109.923 0 1
110.039 0 1
110.155 0 1
110.27 0 1
110.386 0 1
110.502 0 1
110.618 354 18.8149
110.735 472 21.7256
110.851 588 24.2487
110.967 566 23.7908
111.083 722 26.8701
111.199 735 27.1109
111.316 786 28.0357
111.432 802 28.3196
111.549 811 28.4781
111.665 883 29.7153
111.782 800 28.2843
111.898 811 28.4781
112.015 807 28.4077
112.132 780 27.9285
112.248 783 27.9821
112.365 680 26.0768
112.482 683 26.1343
112.599 699 26.4386
112.716 762 27.6043
112.832 820 28.6356
112.949 820 28.6356
113.066 817 28.5832
113.183 860 29.3258
113.3 825 28.7228
113.417 810 28.4605
113.534 756 27.4955
113.652 724 26.9072
113.769 667 25.8263
113.886 618 24.8596
114.003 616 24.8193
114.12 635 25.1992
114.238 695 26.3629
114.355 716 26.7582
114.472 738 27.1662
114.589 806 28.3901
114.707 814 28.5307
114.824 884 29.7321
114.942 799 28.2666
115.059 839 28.9655
115.176 855 29.2404
115.294 853 29.2062
115.411 860 29.3258
115.529 862 29.3598
115.646 761 27.5862
115.764 732 27.0555
115.881 683 26.1343
115.999 612 24.7386
116.116 684 26.1534
116.234 762 27.6043
116.351 788 28.0713
116.469 857 29.2746
116.586 814 28.5307
116.704 841 29
116.821 875 29.5804
116.939 809 28.4429
117.056 846 29.0861
117.174 809 28.4429
117.291 721 26.8514
117.409 621 24.9199
117.526 606 24.6171
117.644 579 24.0624
117.761 658 25.6515
117.879 769 27.7308
117.996 750 27.3861
118.114 802 28.3196
118.231 841 29
118.349 815 28.5482
118.466 835 28.8964
118.584 840 28.9828
118.701 764 27.6405
118.819 779 27.9106
118.936 760 27.5681
119.053 860 29.3258
119.171 781 27.9464
119.288 748 27.3496
119.405 729 27
119.523 693 26.3249
119.64 668 25.8457
119.757 687 26.2107
119.875 713 26.7021
119.992 752 27.4226
120.109 815 28.5482
120.226 796 28.2135
120.343 774 27.8209
120.46 814 28.5307
120.578 849 29.1376
120.695 797 28.2312
120.812 807 28.4077
120.929 705 26.5518
121.046 694 26.3439
121.163 628 25.0599
121.279 630 25.0998
121.396 581 24.1039
121.513 715 26.7395
121.63 669 25.865
121.747 739 27.1846
121.863 676 26
121.98 699 26.4386
122.097 724 26.9072
122.213 673 25.9422
122.33 666 25.807
122.446 617 24.8395
122.563 613 24.7588
122.679 592 24.3311
122.795 590 24.2899
122.912 496 22.2711
123.028 448 21.166
123.144 360 18.9737
123.26 369 19.2094
123.377 0 1
123.493 0 1
123.609 0 1
123.725 0 1
123.84 0 1
123.956 0 1
124.072 0 1
124.188 0 1
124.303 0 1
124.419 0 1
126.852 0 1
126.968 0 1
127.083 0 1
127.199 0 1
127.315 0 1
127.431 0 1
127.547 0 1
127.663 0 1
127.779 0 1
127.895 0 1
128.011 0 1
128.127 0 1
128.243 0 1
128.359 902 30.0333
128.476 930 30.4959
128.592 866 29.4279
128.708 888 29.7993
128.825 826 28.7402
128.941 904 30.0666
129.058 967 31.0966
129.174 954 30.8869
129.291 984 31.3688
129.408 1084 32.9242
129.524 1025 32.0156
129.641 1032 32.1248
129.758 1007 31.7333
129.875 964 31.0483
129.992 865 29.4109
130.108 784 28
130.225 797 28.2312
130.342 761 27.5862
130.459 808 28.4253
130.576 885 29.7489
130.693 971 31.1609
130.81 918 30.2985
130.928 974 31.209
131.045 1029 32.078
131.162 1007 31.7333
131.279 1011 31.7962
131.396 1042 32.28
131.513 1046 32.3419
131.631 1001 31.6386
131.748 1003 31.6702
131.865 926 30.4302
131.983 899 29.9833
132.1 892 29.8664
132.217 826 28.7402
132.335 886 29.7658
132.452 899 29.9833
132.57 959 30.9677
132.687 944 30.7246
132.804 1088 32.9848
132.922 1029 32.078
133.039 1050 32.4037
133.157 1091 33.0303
133.274 1007 31.7333
133.392 1001 31.6386
133.509 896 29.9333
133.627 870 29.4958
133.744 861 29.3428
133.862 839 28.9655
133.979 819 28.6182
134.097 867 29.4449
134.214 879 29.6479
134.332 944 30.7246
134.449 1005 31.7017
134.567 917 30.282
134.684 1025 32.0156
134.802 974 31.209
134.919 1025 32.0156
135.037 1065 32.6343
135.154 993 31.5119
135.272 1003 31.6702
135.389 1011 31.7962
135.507 952 30.8545
135.624 923 30.3809
135.742 857 29.2746
135.859 889 29.8161
135.977 891 29.8496
136.094 921 30.348
136.211 987 31.4166
136.329 1036 32.187
136.446 1038 32.218
136.564 1054 32.4654
136.681 1022 31.9687
136.798 1032 32.1248
136.915 1021 31.9531
137.033 1031 32.1092
137.15 881 29.6816
137.267 853 29.2062
137.384 794 28.178
137.502 801 28.3019
137.619 795 28.1957
137.736 888 29.7993
137.853 888 29.7993
137.97 893 29.8831
138.087 964 31.0483
138.204 935 30.5778
138.321 920 30.3315
138.438 959 30.9677
138.555 1005 31.7017
138.672 999 31.607
138.788 928 30.4631
138.905 878 29.6311
139.022 859 29.3087
139.139 812 28.4956
139.255 724 26.9072
139.372 682 26.1151
139.488 626 25.02
139.605 643 25.3574
139.721 625 25
139.838 656 25.6125
139.954 674 25.9615
140.071 638 25.2587
140.187 599 24.4745
140.303 526 22.9347
140.419 512 22.6274
140.535 472 21.7256
140.652 414 20.347
140.768 0 1
140.884 0 1
141 0 1
141.115 0 1
141.231 0 1
141.347 0 1
141.463 0 1
141.578 0 1
141.694 0 1
144.104 0 1
144.219 0 1
144.335 0 1
144.45 0 1
144.566 0 1
144.682 0 1
144.798 0 1
144.914 0 1
145.03 0 1
145.146 604 24.5764
145.262 680 26.0768
145.378 681 26.096
145.494 762 27.6043
145.61 733 27.074
145.726 677 26.0192
145.842 668 25.8457
145.959 624 24.98
146.075 600 24.4949
146.192 563 23.7276
146.308 605 24.5967
146.425 578 24.0416
146.541 573 23.9374
146.658 556 23.5797
146.774 597 24.4336
146.891 630 25.0998
147.008 649 25.4755
147.125 633 25.1595
147.241 693 26.3249
147.358 682 26.1151
147.475 676 26
147.592 637 25.2389
147.709 629 25.0799
147.826 620 24.8998
147.943 639 25.2784
148.06 593 24.3516
148.177 573 23.9374
148.294 578 24.0416
148.411 559 23.6432
148.528 620 24.8998
148.645 620 24.8998
148.762 617 24.8395
148.88 658 25.6515
148.997 669 25.865
149.114 620 24.8998
149.231 704 26.533
149.349 678 26.0384
149.466 646 25.4165
149.583 583 24.1454
149.701 595 24.3926
149.818 528 22.9783
149.935 553 23.516
150.053 512 22.6274
150.17 541 23.2594
150.287 561 23.6854
150.405 614 24.779
150.522 551 23.4734
150.64 626 25.02
150.757 615 24.7992
150.875 627 25.04
150.992 561 23.6854
151.11 680 26.0768
151.227 659 25.671
151.344 600 24.4949
151.462 614 24.779
151.579 586 24.2074
151.697 520 22.8035
151.814 516 22.7156
151.932 549 23.4307
152.049 573 23.9374
152.167 574 23.9583
152.284 606 24.6171
152.402 594 24.3721
152.519 621 24.9199
152.636 610 24.6982
152.754 632 25.1396
152.871 618 24.8596
152.989 615 24.7992
153.106 611 24.7184
153.223 567 23.8118
153.341 530 23.0217
153.458 464 21.5407
153.575 499 22.3383
153.693 486 22.0454
153.81 525 22.9129
153.927 538 23.1948
154.044 532 23.0651
154.162 575 23.9792
154.279 618 24.8596
154.396 576 24
154.513 564 23.7487
154.63 600 24.4949
154.747 600 24.4949
154.864 560 23.6643
154.981 575 23.9792
155.098 507 22.5167
155.215 532 23.0651
155.332 523 22.8692
155.449 533 23.0868
155.566 514 22.6716
155.683 571 23.8956
155.8 531 23.0434
155.917 562 23.7065
156.033 506 22.4944
156.15 0 1
156.267 0 1
156.383 0 1
156.5 0 1
156.617 0 1
156.733 0 1
156.85 0 1
156.966 0 1
157.082 0 1
157.199 0 1
157.315 0 1
157.431 0 1
157.547 0 1
157.664 0 1
157.78 0 1
157.896 0 1
158.012 0 1
158.128 0 1
158.244 0 1
158.359 0 1
158.475 0 1
158.591 0 1
158.706 0 1
