
6.15755 0 1
6.2731 0 1
6.3887 0 1
6.50437 0 1
6.62009 0 1
6.73587 0 1
6.8517 0 1
6.96759 0 1
7.08353 0 1
7.19952 0 1
7.31557 0 1
7.43166 0 1
7.54781 0 1
7.664 0 1
7.78024 0 1
7.89653 0 1
8.01286 0 1
8.12924 0 1
8.24567 0 1
8.36213 0 1
8.47864 0 1
8.59519 0 1
8.71178 0 1
8.82841 0 1
8.94508 0 1
9.06179 0 1
9.17853 0 1
9.29531 0 1
9.41212 0 1
9.52897 0 1
9.64584 0 1
9.76276 0 1
9.8797 0 1
9.99667 0 1
10.1137 0 1
10.2307 0 1
10.3478 0 1
10.4648 0 1
10.5819 0 1
10.6991 0 1
10.8162 0 1
10.9334 0 1
11.0506 0 1
11.1678 0 1
11.285 0 1
11.4023 0 1
11.5196 0 1
11.6369 0 1
11.7542 0 1
11.8715 0 1
11.9888 0 1
12.1062 0 1
12.2235 0 1
12.3409 0 1
12.4582 0 1
12.5756 0 1
12.693 0 1
12.8104 0 1
12.9278 0 1
13.0452 0 1
13.1626 0 1
13.28 0 1
13.3974 0 1
13.5149 0 1
13.6323 0 1
13.7497 0 1
13.8671 0 1
13.9845 0 1
14.1019 0 1
14.2193 0 1
14.3367 0 1
14.4541 0 1
14.5714 0 1
14.6888 0 1
14.8062 0 1
14.9235 0 1
15.0408 2047 45.2438
15.1581 2081 45.618
15.2755 2045 45.2217
15.3927 1995 44.6654
15.51 2060 45.3872
15.6273 2135 46.2061
15.7445 2089 45.7056
15.8617 1920 43.8178
15.9789 1867 43.2088
16.0961 1940 44.0454
16.2132 1791 42.3202
16.3304 1847 42.9767
16.4475 1848 42.9884
16.5646 1693 41.1461
16.6816 1836 42.8486
16.7986 1818 42.638
16.9156 1812 42.5676
17.0326 1798 42.4028
17.1496 1750 41.833
17.2665 1781 42.2019
17.3833 1789 42.2966
17.5002 1673 40.9023
17.617 1731 41.6053
17.7338 1678 40.9634
17.8505 1710 41.3521
17.9672 1835 42.8369
18.0839 1926 43.8862
18.2005 1968 44.3621
18.3171 2024 44.9889
18.4337 1998 44.699
18.5502 2068 45.4753
18.6666 2050 45.2769
18.7831 2030 45.0555
18.8994 2017 44.911
19.0158 1969 44.3734
19.1321 1890 43.4741
19.2483 1810 42.5441
19.3645 1715 41.4126
19.4806 1690 41.1096
19.5967 1701 41.2432
19.7128 1657 40.7063
19.8288 1529 39.1024
19.9447 1378 37.1214
20.0606 0 1
20.1764 0 1
20.2922 0 1
20.4079 0 1
20.5236 0 1
20.6392 0 1
20.7548 0 1
20.8702 0 1
23.3078 0 1
23.4233 0 1
23.539 0 1
23.6547 0 1
23.7704 0 1
23.8862 0 1
24.0021 0 1
24.118 0 1
24.234 0 1
24.35 0 1
24.4661 1625 40.3113
24.5822 1562 39.5221
24.6984 1567 39.5854
24.8146 1484 38.5227
24.9309 1529 39.1024
25.0472 1536 39.1918
25.1636 1601 40.0125
25.28 1658 40.7185
25.3965 1639 40.4846
25.513 1684 41.0366
25.6296 1797 42.391
25.7462 1725 41.5331
25.8628 1805 42.4853
25.9795 1783 42.2256
26.0962 1764 42
26.213 1598 39.975
26.3298 1598 39.975
26.4466 1529 39.1024
26.5635 1496 38.6782
26.6804 1550 39.37
26.7973 1690 41.1096
26.9143 1599 39.9875
27.0313 1677 40.9512
27.1483 1762 41.9762
27.2653 1778 42.1663
27.3824 1821 42.6732
27.4996 1760 41.9524
27.6167 1738 41.6893
27.7339 1668 40.8412
27.8511 1654 40.6694
27.9683 1619 40.2368
28.0855 1622 40.2741
28.2028 1636 40.4475
28.3201 1479 38.4578
28.4374 1593 39.9124
28.5547 1460 38.2099
28.6721 1482 38.4968
28.7894 1435 37.8814
28.9068 1493 38.6394
29.0242 1521 39
29.1416 1528 39.0896
29.259 1533 39.1535
29.3764 1485 38.5357
29.4939 1558 39.4715
29.6113 1510 38.8587
29.7288 1497 38.6911
29.8463 1416 37.6298
29.9638 1416 37.6298
30.0812 1410 37.55
30.1987 1345 36.6742
30.3162 1485 38.5357
30.4337 1536 39.1918
30.5512 1543 39.281
30.6687 1609 40.1123
30.7862 1634 40.4228
30.9037 1686 41.0609
31.0212 1611 40.1373
31.1387 1624 40.2989
31.2562 1690 41.1096
31.3737 1560 39.4968
31.4912 1514 38.9102
31.6087 1531 39.128
31.7262 1582 39.7744
31.8436 1462 38.2361
31.9611 1510 38.8587
32.0785 1402 37.4433
32.1959 1436 37.8946
32.3134 1401 37.4299
32.4308 1429 37.8021
32.5482 1439 37.9342
32.6655 1482 38.4968
32.7829 1450 38.0789
32.9002 1464 38.2623
33.0176 1466 38.2884
33.1349 1462 38.2361
33.2522 1447 38.0395
33.3694 1444 38
33.4867 1418 37.6563
33.6039 1359 36.8646
33.7211 1297 36.0139
33.8383 1307 36.1525
33.9554 1324 36.3868
34.0725 1476 38.4187
34.1896 1454 38.1314
34.3067 1480 38.4708
34.4237 1504 38.7814
34.5407 1462 38.2361
34.6577 1468 38.3145
34.7746 1575 39.6863
34.8915 1544 39.2938
35.0084 1539 39.2301
35.1252 1527 39.0768
35.242 1518 38.9615
35.3587 1409 37.5366
35.4755 1460 38.2099
35.5921 1334 36.524
35.7088 1372 37.0405
35.8254 1339 36.5923
35.9419 1337 36.565
36.0584 1289 35.9026
36.1749 1325 36.4005
36.2913 1325 36.4005
36.4077 1401 37.4299
36.524 1341 36.6197
36.6403 1394 37.3363
36.7565 1404 37.47
36.8727 1405 37.4833
36.9889 1399 37.4032
37.1049 1313 36.2353
37.221 0 1
37.3369 0 1
37.4529 0 1
37.5687 0 1
37.6845 0 1
37.8003 0 1
37.916 0 1
38.0316 0 1
38.1472 0 1
40.5851 0 1
40.7008 0 1
40.8164 0 1
40.9322 0 1
41.048 0 1
41.1639 0 1
41.2798 0 1
41.3958 0 1
41.5118 0 1
41.6279 0 1
41.744 953 30.8707
41.8602 1100 33.1662
41.9765 1149 33.8969
42.0928 1128 33.5857
42.2091 1137 33.7194
42.3255 1160 34.0588
42.4419 1133 33.6601
42.5584 1035 32.1714
42.675 1035 32.1714
42.7915 982 31.3369
42.9081 1014 31.8434
43.0248 1112 33.3467
43.1415 1066 32.6497
43.2582 1151 33.9264
43.375 1138 33.7343
43.4918 1182 34.3802
43.6087 1121 33.4813
43.7256 1092 33.0454
43.8425 1206 34.7275
43.9595 1070 32.7109
44.0765 1055 32.4808
44.1935 1031 32.1092
44.3106 988 31.4325
44.4277 998 31.5911
44.5448 958 30.9516
44.6619 861 29.3428
44.7791 848 29.1204
44.8963 857 29.2746
45.0136 866 29.4279
45.1308 816 28.5657
45.2481 834 28.8791
45.3654 815 28.5482
45.4827 838 28.9482
45.6001 864 29.3939
45.7174 840 28.9828
45.8348 862 29.3598
45.9522 812 28.4956
46.0697 764 27.6405
46.1871 707 26.5895
46.3046 665 25.7876
46.422 751 27.4044
46.5395 749 27.3679
46.657 805 28.3725
46.7745 812 28.4956
46.892 787 28.0535
47.0096 788 28.0713
47.1271 820 28.6356
47.2446 824 28.7054
47.3622 831 28.8271
47.4797 808 28.4253
47.5973 826 28.7402
47.7149 717 26.7769
47.8324 733 27.074
47.95 740 27.2029
48.0675 677 26.0192
48.1851 670 25.8844
48.3027 659 25.671
48.4202 709 26.6271
48.5378 614 24.779
48.6554 652 25.5343
48.7729 676 26
48.8904 722 26.8701
49.008 723 26.8887
49.1255 718 26.7955
49.243 757 27.5136
49.3605 709 26.6271
49.478 748 27.3496
49.5955 667 25.8263
49.713 660 25.6905
49.8304 690 26.2679
49.9479 692 26.3059
50.0653 725 26.9258
50.1827 783 27.9821
50.3001 799 28.2666
50.4175 816 28.5657
50.5348 826 28.7402
50.6521 821 28.6531
50.7694 811 28.4781
50.8867 847 29.1033
51.004 887 29.7825
51.1212 840 28.9828
51.2384 888 29.7993
51.3556 921 30.348
51.4727 894 29.8998
51.5899 896 29.9333
51.707 830 28.8097
51.824 864 29.3939
51.9411 812 28.4956
52.0581 854 29.2233
52.175 975 31.225
52.2919 914 30.2324
52.4088 1058 32.5269
52.5257 1053 32.45
52.6425 1118 33.4365
52.7593 1115 33.3916
52.876 1128 33.5857
52.9927 1167 34.1614
53.1094 1146 33.8526
53.226 1136 33.7046
53.3426 1006 31.7175
53.4591 1052 32.4345
53.5756 1027 32.0468
53.692 1055 32.4808
53.8084 1159 34.0441
53.9248 1250 35.3553
54.0411 1248 35.327
54.1573 1204 34.6987
54.2735 0 1
54.3896 0 1
54.5057 0 1
54.6217 0 1
54.7377 0 1
54.8537 0 1
54.9695 0 1
55.0853 0 1
55.2011 0 1
55.3168 0 1
55.4324 0 1
57.824 0 1
57.9396 0 1
58.0553 0 1
58.1711 0 1
58.2869 0 1
58.4028 0 1
58.5187 0 1
58.6347 0 1
58.7508 0 1
58.8669 0 1
58.983 1342 36.6333
59.0992 1481 38.4838
59.2155 1490 38.6005
59.3318 1561 39.5095
59.4482 1590 39.8748
59.5646 1637 40.4599
59.681 1573 39.6611
59.7975 1526 39.064
59.9141 1548 39.3446
60.0306 1546 39.3192
60.1473 1485 38.5357
60.2639 1533 39.1535
60.3807 1505 38.7943
60.4974 1503 38.7685
60.6142 1446 38.0263
60.731 1474 38.3927
60.8479 1415 37.6165
60.9648 1543 39.281
61.0818 1518 38.9615
61.1987 1550 39.37
61.3158 1526 39.064
61.4328 1545 39.3065
61.5499 1608 40.0999
61.667 1488 38.5746
61.7841 1477 38.4318
61.9013 1430 37.8153
62.0185 1368 36.9865
62.1357 1246 35.2987
62.253 1283 35.819
62.3702 1300 36.0555
62.4875 1320 36.3318
62.6049 1411 37.5633
62.7222 1361 36.8917
62.8396 1362 36.9053
62.9569 1365 36.9459
63.0743 1394 37.3363
63.1918 1413 37.5899
63.3092 1390 37.2827
63.4267 1363 36.9188
63.5441 1300 36.0555
63.6616 1346 36.6879
63.7791 1359 36.8646
63.8966 1319 36.318
64.0142 1238 35.1852
64.1317 1241 35.2278
64.2492 1211 34.7994
64.3668 1300 36.0555
64.4843 1246 35.2987
64.6019 1334 36.524
64.7195 1339 36.5923
64.837 1380 37.1484
64.9546 1325 36.4005
65.0722 1442 37.9737
65.1898 1392 37.3095
65.3074 1436 37.8946
65.4249 1310 36.1939
65.5425 1332 36.4966
65.6601 1205 34.7131
65.7777 1161 34.0735
65.8952 1232 35.0999
66.0128 1199 34.6266
66.1304 1295 35.9861
66.2479 1264 35.5528
66.3655 1320 36.3318
66.483 1272 35.6651
66.6005 1290 35.9166
66.718 1320 36.3318
66.8355 1309 36.1801
66.953 1357 36.8375
67.0705 1366 36.9594
67.1879 1420 37.6829
67.3054 1301 36.0694
67.4228 1365 36.9459
67.5402 1357 36.8375
67.6576 1317 36.2905
67.7749 1270 35.6371
67.8923 1376 37.0945
68.0096 1321 36.3456
68.1269 1393 37.3229
68.2442 1446 38.0263
68.3614 1421 37.6962
68.4787 1447 38.0395
68.5958 1472 38.3667
68.713 1561 39.5095
68.8302 1543 39.281
68.9473 1571 39.6358
69.0643 1474 38.3927
69.1814 1381 37.1618
69.2984 1375 37.081
69.4154 1318 36.3043
69.5323 1279 35.7631
69.6492 1308 36.1663
69.7661 1320 36.3318
69.8829 1377 37.108
69.9997 1466 38.2884
70.1165 1432 37.8418
70.2332 1488 38.5746
70.3499 1507 38.8201
70.4665 1514 38.9102
70.5831 1517 38.9487
70.6996 1544 39.2938
70.8161 1520 38.9872
70.9326 1536 39.1918
71.049 1538 39.2173
71.1653 1496 38.6782
71.2817 1547 39.3319
71.3979 1441 37.9605
71.5141 1315 36.2629
71.6303 1399 37.4032
71.7464 1264 35.5528
71.8624 0 1
71.9784 0 1
72.0944 0 1
72.2102 0 1
72.3261 0 1
72.4418 0 1
72.5575 0 1
72.6732 0 1
75.1054 0 1
75.2209 0 1
75.3365 0 1
75.4521 0 1
75.5678 0 1
75.6835 0 1
75.7993 0 1
75.9151 0 1
76.031 0 1
76.147 1278 35.7491
76.263 1380 37.1484
76.3791 1425 37.7492
76.4952 1450 38.0789
76.6113 1448 38.0526
76.7276 1401 37.4299
76.8438 1426 37.7624
76.9601 1365 36.9459
77.0765 1486 38.5487
77.1929 1510 38.8587
77.3093 1539 39.2301
77.4258 1552 39.3954
77.5423 1553 39.4081
77.6589 1644 40.5463
77.7755 1645 40.5586
77.8921 1574 39.6737
78.0088 1558 39.4715
78.1256 1465 38.2753
78.2423 1319 36.318
78.3591 1258 35.4683
78.4759 1186 34.4384
78.5928 1236 35.1568
78.7097 1346 36.6879
78.8266 1326 36.4143
78.9436 1334 36.524
79.0606 1379 37.1349
79.1776 1407 37.51
79.2946 1478 38.4448
79.4117 1407 37.51
79.5288 1458 38.1838
79.6459 1464 38.2623
79.7631 1499 38.7169
79.8802 1486 38.5487
79.9974 1471 38.3536
80.1147 1510 38.8587
80.2319 1474 38.3927
80.3491 1386 37.229
80.4664 1394 37.3363
80.5837 1390 37.2827
80.701 1440 37.9473
80.8183 1528 39.0896
80.9357 1411 37.5633
81.053 1509 38.8458
81.1704 1535 39.1791
81.2877 1514 38.9102
81.4051 1613 40.1622
81.5225 1638 40.4722
81.6399 1627 40.3361
81.7573 1555 39.4335
81.8747 1383 37.1887
81.9922 1308 36.1663
82.1096 1127 33.5708
82.227 1236 35.1568
82.3444 1268 35.609
82.4619 1363 36.9188
82.5793 1458 38.1838
82.6967 1422 37.7094
82.8142 1377 37.108
82.9316 1469 38.3275
83.049 1368 36.9865
83.1664 1512 38.8844
83.2838 1514 38.9102
83.4012 1459 38.1969
83.5186 1544 39.2938
83.636 1529 39.1024
83.7534 1468 38.3145
83.8708 1478 38.4448
83.9881 1420 37.6829
84.1055 1423 37.7227
84.2228 1397 37.3765
84.3401 1429 37.8021
84.4575 1529 39.1024
84.5747 1549 39.3573
84.692 1628 40.3485
84.8093 1604 40.05
84.9265 1647 40.5832
85.0437 1654 40.6694
85.1609 1648 40.5956
85.2781 1535 39.1791
85.3952 1621 40.2616
85.5123 1431 37.8286
85.6294 1280 35.7771
85.7465 1257 35.4542
85.8636 1368 36.9865
85.9806 1478 38.4448
86.0976 1415 37.6165
86.2145 1468 38.3145
86.3315 1511 38.8716
86.4484 1565 39.5601
86.5652 1562 39.5221
86.682 1571 39.6358
86.7988 1613 40.1622
86.9156 1564 39.5474
87.0323 1540 39.2428
87.149 1554 39.4208
87.2657 1692 41.1339
87.3823 1719 41.4608
87.4988 1686 41.0609
87.6154 1522 39.0128
87.7318 1550 39.37
87.8483 1553 39.4081
87.9647 1651 40.6325
88.081 1689 41.0974
88.1973 1693 41.1461
88.3136 1692 41.1339
88.4298 1749 41.821
88.546 1746 41.7852
88.6621 1810 42.5441
88.7781 1673 40.9023
88.8942 0 1
89.0101 0 1
89.126 0 1
89.2419 0 1
89.3577 0 1
89.4734 0 1
89.5891 0 1
89.7047 0 1
89.8203 0 1
89.9358 0 1
92.3269 0 1
92.4424 0 1
92.558 0 1
92.6736 0 1
92.7893 0 1
92.905 0 1
93.0208 0 1
93.1366 0 1
93.2525 0 1
93.3685 0 1
93.4845 0 1
93.6005 1583 39.7869
93.7167 1728 41.5692
93.8328 1632 40.398
93.949 1620 40.2492
94.0653 1667 40.8289
94.1816 1618 40.2244
94.2979 1466 38.2884
94.4143 1380 37.1484
94.5307 1258 35.4683
94.6472 1254 35.4119
94.7637 1342 36.6333
94.8803 1398 37.3898
94.9969 1431 37.8286
95.1135 1431 37.8286
95.2302 1376 37.0945
95.3469 1489 38.5876
95.4637 1417 37.6431
95.5805 1514 38.9102
95.6973 1511 38.8716
95.8142 1511 38.8716
95.9311 1542 39.2683
96.048 1590 39.8748
96.1649 1622 40.2741
96.2819 1573 39.6611
96.3989 1682 41.0122
96.516 1558 39.4715
96.633 1535 39.1791
96.7501 1485 38.5357
96.8673 1521 39
96.9844 1527 39.0768
97.1016 1545 39.3065
97.2188 1580 39.7492
97.336 1586 39.8246
97.4532 1591 39.8873
97.5704 1609 40.1123
97.6877 1559 39.4842
97.805 1564 39.5474
97.9223 1493 38.6394
98.0396 1466 38.2884
98.1569 1444 38
98.2743 1271 35.6511
98.3916 1263 35.5387
98.509 1265 35.5668
98.6264 1329 36.4555
98.7438 1422 37.7094
98.8612 1403 37.4566
98.9786 1422 37.7094
99.096 1417 37.6431
99.2134 1489 38.5876
99.3308 1412 37.5766
99.4482 1495 38.6652
99.5656 1503 38.7685
99.6831 1392 37.3095
99.8005 1454 38.1314
99.9179 1498 38.704
100.035 1502 38.7556
100.153 1438 37.921
100.27 1487 38.5616
100.388 1431 37.8286
100.505 1447 38.0395
100.622 1473 38.3797
100.74 1549 39.3573
100.857 1516 38.9358
100.975 1475 38.4057
101.092 1564 39.5474
101.209 1581 39.7618
101.327 1594 39.9249
101.444 1609 40.1123
101.561 1528 39.0896
101.679 1493 38.6394
101.796 1287 35.8748
101.913 1301 36.0694
102.03 1348 36.7151
102.148 1331 36.4829
102.265 1318 36.3043
102.382 1520 38.9872
102.499 1524 39.0384
102.616 1527 39.0768
102.733 1522 39.0128
102.851 1551 39.3827
102.968 1560 39.4968
103.085 1600 40
103.202 1524 39.0384
103.319 1668 40.8412
103.436 1567 39.5854
103.552 1690 41.1096
103.669 1554 39.4208
103.786 1627 40.3361
103.903 1546 39.3192
104.02 1604 40.05
104.137 1720 41.4729
104.253 1659 40.7308
104.37 1656 40.694
104.487 1665 40.8044
104.603 1735 41.6533
104.72 1802 42.45
104.836 1743 41.7493
104.953 1643 40.5339
105.069 1619 40.2368
105.186 1516 38.9358
105.302 1393 37.3229
105.418 1409 37.5366
105.535 1462 38.2361
105.651 1415 37.6165
105.767 1504 38.7814
105.883 1578 39.724
105.999 1541 39.2556
106.115 0 1
106.231 0 1
106.347 0 1
106.463 0 1
106.579 0 1
106.694 0 1
106.81 0 1
106.926 0 1
107.041 0 1
107.157 0 1
109.576 0 1
109.692 0 1
109.807 0 1
109.923 0 1
110.039 0 1
110.155 0 1
110.27 0 1
110.386 0 1
110.502 0 1
110.618 1171 34.2199
110.735 1334 36.524
110.851 1310 36.1939
110.967 1338 36.5787
111.083 1414 37.6032
111.199 1416 37.6298
111.316 1401 37.4299
111.432 1427 37.7757
111.549 1458 38.1838
111.665 1357 36.8375
111.782 1430 37.8153
111.898 1436 37.8946
112.015 1389 37.2693
112.132 1385 37.2156
112.248 1350 36.7423
112.365 1271 35.6511
112.482 1350 36.7423
112.599 1286 35.8608
112.716 1404 37.47
112.832 1320 36.3318
112.949 1385 37.2156
113.066 1332 36.4966
113.183 1413 37.5899
113.3 1392 37.3095
113.417 1336 36.5513
113.534 1354 36.7967
113.652 1291 35.9305
113.769 1149 33.8969
113.886 1132 33.6452
114.003 1094 33.0757
114.12 1116 33.4066
114.238 1149 33.8969
114.355 1152 33.9411
114.472 1189 34.4819
114.589 1156 34
114.707 1126 33.5559
114.824 1195 34.5688
114.942 1187 34.4529
115.059 1191 34.5109
115.176 1227 35.0286
115.294 1147 33.8674
115.411 1140 33.7639
115.529 1089 33
115.646 1120 33.4664
115.764 1011 31.7962
115.881 1055 32.4808
115.999 993 31.5119
116.116 1033 32.1403
116.234 1036 32.187
116.351 1041 32.2645
116.469 1107 33.2716
116.586 1085 32.9393
116.704 1038 32.218
116.821 1109 33.3017
116.939 1060 32.5576
117.056 1030 32.0936
117.174 1044 32.311
117.291 978 31.273
117.409 925 30.4138
117.526 899 29.9833
117.644 915 30.249
117.761 887 29.7825
117.879 957 30.9354
117.996 984 31.3688
118.114 982 31.3369
118.231 1047 32.3574
118.349 976 31.241
118.466 961 31
118.584 1034 32.1559
118.701 1028 32.0624
118.819 1031 32.1092
118.936 1037 32.2025
119.053 961 31
119.171 1005 31.7017
119.288 973 31.1929
119.405 959 30.9677
119.523 933 30.545
119.64 935 30.5778
119.757 1021 31.9531
119.875 1040 32.249
119.992 1068 32.6803
120.109 1079 32.8481
120.226 1087 32.9697
120.343 1055 32.4808
120.46 1059 32.5423
120.578 1155 33.9853
120.695 1153 33.9559
120.812 1052 32.4345
120.929 1118 33.4365
121.046 1149 33.8969
121.163 981 31.3209
121.279 993 31.5119
121.396 1070 32.7109
121.513 1067 32.665
121.63 1179 34.3366
121.747 1186 34.4384
121.863 1177 34.3074
121.98 1219 34.9142
122.097 1173 34.2491
122.213 1290 35.9166
122.33 1173 34.2491
122.446 1214 34.8425
122.563 1165 34.1321
122.679 1158 34.0294
122.795 1135 33.6898
122.912 1225 35
123.028 1162 34.0881
123.144 1112 33.3467
123.26 1093 33.0606
123.377 0 1
123.493 0 1
123.609 0 1
123.725 0 1
123.84 0 1
123.956 0 1
124.072 0 1
124.188 0 1
124.303 0 1
124.419 0 1
126.852 0 1
126.968 0 1
127.083 0 1
127.199 0 1
127.315 0 1
127.431 0 1
127.547 0 1
127.663 0 1
127.779 0 1
127.895 0 1
128.011 0 1
128.127 0 1
128.243 0 1
128.359 1400 37.4166
128.476 1349 36.7287
128.592 1254 35.4119
128.708 1296 36
128.825 1302 36.0832
128.941 1348 36.7151
129.058 1440 37.9473
129.174 1442 37.9737
129.291 1472 38.3667
129.408 1481 38.4838
129.524 1485 38.5357
129.641 1403 37.4566
129.758 1407 37.51
129.875 1322 36.3593
129.992 1297 36.0139
130.108 1210 34.7851
130.225 1219 34.9142
130.342 1225 35
130.459 1281 35.7911
130.576 1288 35.8887
130.693 1347 36.7015
130.81 1416 37.6298
130.928 1350 36.7423
131.045 1326 36.4143
131.162 1342 36.6333
131.279 1393 37.3229
131.396 1347 36.7015
131.513 1327 36.428
131.631 1305 36.1248
131.748 1309 36.1801
131.865 1330 36.4692
131.983 1241 35.2278
132.1 1234 35.1283
132.217 1158 34.0294
132.335 1165 34.1321
132.452 1311 36.2077
132.57 1325 36.4005
132.687 1313 36.2353
132.804 1326 36.4143
132.922 1320 36.3318
133.039 1319 36.318
133.157 1369 37
133.274 1419 37.6696
133.392 1343 36.647
133.509 1284 35.8329
133.627 1220 34.9285
133.744 1275 35.7071
133.862 1163 34.1028
133.979 1167 34.1614
134.097 1294 35.9722
134.214 1329 36.4555
134.332 1377 37.108
134.449 1437 37.9078
134.567 1420 37.6829
134.684 1428 37.7889
134.802 1409 37.5366
134.919 1385 37.2156
135.037 1443 37.9868
135.154 1310 36.1939
135.272 1354 36.7967
135.389 1329 36.4555
135.507 1282 35.805
135.624 1177 34.3074
135.742 1167 34.1614
135.859 1117 33.4215
135.977 1093 33.0606
136.094 1238 35.1852
136.211 1291 35.9305
136.329 1217 34.8855
136.446 1267 35.5949
136.564 1216 34.8712
136.681 1224 34.9857
136.798 1133 33.6601
136.915 1199 34.6266
137.033 1184 34.4093
137.15 1097 33.121
137.267 1056 32.4962
137.384 1036 32.187
137.502 1113 33.3617
137.619 1103 33.2114
137.736 1205 34.7131
137.853 1193 34.5398
137.97 1204 34.6987
138.087 1292 35.9444
138.204 1255 35.426
138.321 1337 36.565
138.438 1435 37.8814
138.555 1367 36.973
138.672 1343 36.647
138.788 1331 36.4829
138.905 1331 36.4829
139.022 1269 35.623
139.139 1336 36.5513
139.255 1215 34.8569
139.372 1163 34.1028
139.488 1228 35.0428
139.605 1339 36.5923
139.721 1347 36.7015
139.838 1312 36.2215
139.954 1463 38.2492
140.071 1410 37.55
140.187 1499 38.7169
140.303 1449 38.0657
140.419 1446 38.0263
140.535 1427 37.7757
140.652 1394 37.3363
140.768 0 1
140.884 0 1
141 0 1
141.115 0 1
141.231 0 1
141.347 0 1
141.463 0 1
141.578 0 1
141.694 0 1
144.104 0 1
144.219 0 1
144.335 0 1
144.45 0 1
144.566 0 1
144.682 0 1
144.798 0 1
144.914 0 1
145.03 0 1
145.146 1612 40.1497
145.262 1773 42.107
145.378 1887 43.4396
145.494 2139 46.2493
145.61 2118 46.0217
145.726 2120 46.0435
145.842 2254 47.4763
145.959 2278 47.7284
146.075 2277 47.7179
146.192 2449 49.4874
146.308 2513 50.1298
146.425 2844 53.3292
146.541 3149 56.116
146.658 3370 58.0517
146.774 3574 59.7829
146.891 3953 62.8729
147.008 4298 65.5591
147.125 4549 67.4463
147.241 4830 69.4982
147.358 5041 71
147.475 5216 72.2219
147.592 5268 72.581
147.709 5473 73.9797
147.826 5648 75.1532
147.943 5631 75.04
148.06 5368 73.2666
148.177 5410 73.5527
148.294 5700 75.4983
148.411 6002 77.4726
148.528 6430 80.1873
148.645 6729 82.0305
148.762 6960 83.4266
148.88 6828 82.6317
148.997 7238 85.0764
149.114 6578 81.1049
149.231 6876 82.9216
149.349 6646 81.523
149.466 6397 79.9812
149.583 6119 78.224
149.701 5754 75.8551
149.818 5712 75.5778
149.935 5790 76.092
150.053 6149 78.4156
150.17 6293 79.3284
150.287 6458 80.3617
150.405 6644 81.5107
150.522 6681 81.7374
150.64 6930 83.2466
150.757 6965 83.4566
150.875 7108 84.309
150.992 7008 83.7138
151.11 7170 84.6759
151.227 7047 83.9464
151.344 6850 82.7647
151.462 6678 81.719
151.579 6590 81.1788
151.697 6208 78.7909
151.814 6333 79.5801
151.932 6395 79.9687
152.049 6790 82.4015
152.167 7115 84.3505
152.284 7538 86.8217
152.402 7467 86.4118
152.519 7521 86.7237
152.636 7595 87.1493
152.754 7771 88.1533
152.871 7460 86.3713
152.989 7187 84.7762
153.106 6822 82.5954
153.223 6523 80.7651
153.341 6407 80.0437
153.458 6428 80.1748
153.575 6503 80.6412
153.693 6695 81.823
153.81 7031 83.8511
153.927 7157 84.5991
154.044 7357 85.773
154.162 7807 88.3572
154.279 7789 88.2553
154.396 8203 90.5704
154.513 8142 90.233
154.63 8328 91.2579
154.747 8281 91
154.864 8185 90.471
154.981 8125 90.1388
155.098 8191 90.5041
155.215 7987 89.37
155.332 7597 87.1608
155.449 7609 87.2296
155.566 8078 89.8777
155.683 8505 92.2226
155.8 8892 94.2974
155.917 9142 95.6138
156.033 9203 95.9323
156.15 0 1
156.267 0 1
156.383 0 1
156.5 0 1
156.617 0 1
156.733 0 1
156.85 0 1
156.966 0 1
157.082 0 1
157.199 0 1
157.315 0 1
157.431 0 1
157.547 0 1
157.664 0 1
157.78 0 1
157.896 0 1
158.012 0 1
158.128 0 1
158.244 0 1
158.359 0 1
158.475 0 1
158.591 0 1
158.706 0 1
