
6.15755 0 1
6.2731 0 1
6.3887 0 1
6.50437 0 1
6.62009 0 1
6.73587 0 1
6.8517 0 1
6.96759 0 1
7.08353 0 1
7.19952 0 1
7.31557 0 1
7.43166 0 1
7.54781 0 1
7.664 0 1
7.78024 0 1
7.89653 0 1
8.01286 0 1
8.12924 0 1
8.24567 0 1
8.36213 0 1
8.47864 0 1
8.59519 0 1
8.71178 0 1
8.82841 0 1
8.94508 0 1
9.06179 0 1
9.17853 0 1
9.29531 0 1
9.41212 0 1
9.52897 0 1
9.64584 0 1
9.76276 0 1
9.8797 0 1
9.99667 0 1
10.1137 0 1
10.2307 0 1
10.3478 0 1
10.4648 0 1
10.5819 0 1
10.6991 0 1
10.8162 0 1
10.9334 0 1
11.0506 0 1
11.1678 0 1
11.285 0 1
11.4023 0 1
11.5196 0 1
11.6369 0 1
11.7542 0 1
11.8715 0 1
11.9888 0 1
12.1062 0 1
12.2235 0 1
12.3409 0 1
12.4582 0 1
12.5756 0 1
12.693 0 1
12.8104 0 1
12.9278 0 1
13.0452 0 1
13.1626 0 1
13.28 0 1
13.3974 0 1
13.5149 0 1
13.6323 0 1
13.7497 0 1
13.8671 0 1
13.9845 0 1
14.1019 0 1
14.2193 0 1
14.3367 0 1
14.4541 0 1
14.5714 0 1
14.6888 0 1
14.8062 0 1
14.9235 0 1
15.0408 1585 39.8121
15.1581 1654 40.6694
15.2755 1771 42.0833
15.3927 1734 41.6413
15.51 1763 41.9881
15.6273 1745 41.7732
15.7445 1697 41.1947
15.8617 1675 40.9268
15.9789 1697 41.1947
16.0961 1688 41.0853
16.2132 1635 40.4351
16.3304 1625 40.3113
16.4475 1555 39.4335
16.5646 1589 39.8623
16.6816 1429 37.8021
16.7986 1462 38.2361
16.9156 1469 38.3275
17.0326 1418 37.6563
17.1496 1405 37.4833
17.2665 1365 36.9459
17.3833 1333 36.5103
17.5002 1357 36.8375
17.617 1365 36.9459
17.7338 1402 37.4433
17.8505 1455 38.1445
17.9672 1474 38.3927
18.0839 1451 38.092
18.2005 1613 40.1622
18.3171 1521 39
18.4337 1602 40.025
18.5502 1536 39.1918
18.6666 1640 40.4969
18.7831 1648 40.5956
18.8994 1639 40.4846
19.0158 1596 39.95
19.1321 1467 38.3014
19.2483 1464 38.2623
19.3645 1354 36.7967
19.4806 1321 36.3456
19.5967 1266 35.5809
19.7128 1211 34.7994
19.8288 1077 32.8177
19.9447 1056 32.4962
20.0606 0 1
20.1764 0 1
20.2922 0 1
20.4079 0 1
20.5236 0 1
20.6392 0 1
20.7548 0 1
20.8702 0 1
23.3078 0 1
23.4233 0 1
23.539 0 1
23.6547 0 1
23.7704 0 1
23.8862 0 1
24.0021 0 1
24.118 0 1
24.234 0 1
24.35 0 1
24.4661 709 26.6271
24.5822 788 28.0713
24.6984 895 29.9166
24.8146 971 31.1609
24.9309 1140 33.7639
25.0472 1262 35.5246
25.1636 1308 36.1663
25.28 1454 38.1314
25.3965 1501 38.7427
25.513 1541 39.2556
25.6296 1635 40.4351
25.7462 1609 40.1123
25.8628 1632 40.398
25.9795 1566 39.5727
26.0962 1648 40.5956
26.213 1589 39.8623
26.3298 1523 39.0256
26.4466 1598 39.975
26.5635 1588 39.8497
26.6804 1662 40.7676
26.7973 1645 40.5586
26.9143 1586 39.8246
27.0313 1668 40.8412
27.1483 1604 40.05
27.2653 1738 41.6893
27.3824 1682 41.0122
27.4996 1656 40.694
27.6167 1702 41.2553
27.7339 1601 40.0125
27.8511 1674 40.9145
27.9683 1602 40.025
28.0855 1675 40.9268
28.2028 1651 40.6325
28.3201 1538 39.2173
28.4374 1646 40.5709
28.5547 1638 40.4722
28.6721 1703 41.2674
28.7894 1646 40.5709
28.9068 1689 41.0974
29.0242 1608 40.0999
29.1416 1593 39.9124
29.259 1600 40
29.3764 1655 40.6817
29.4939 1492 38.6264
29.6113 1539 39.2301
29.7288 1607 40.0874
29.8463 1541 39.2556
29.9638 1598 39.975
30.0812 1647 40.5832
30.1987 1652 40.6448
30.3162 1603 40.0375
30.4337 1640 40.4969
30.5512 1683 41.0244
30.6687 1661 40.7554
30.7862 1632 40.398
30.9037 1697 41.1947
31.0212 1818 42.638
31.1387 1708 41.328
31.2562 1739 41.7013
31.3737 1639 40.4846
31.4912 1680 40.9878
31.6087 1647 40.5832
31.7262 1655 40.6817
31.8436 1639 40.4846
31.9611 1663 40.7799
32.0785 1655 40.6817
32.1959 1709 41.3401
32.3134 1618 40.2244
32.4308 1714 41.4005
32.5482 1690 41.1096
32.6655 1765 42.0119
32.7829 1609 40.1123
32.9002 1621 40.2616
33.0176 1612 40.1497
33.1349 1576 39.6989
33.2522 1606 40.0749
33.3694 1619 40.2368
33.4867 1640 40.4969
33.6039 1582 39.7744
33.7211 1600 40
33.8383 1692 41.1339
33.9554 1665 40.8044
34.0725 1774 42.1189
34.1896 1675 40.9268
34.3067 1643 40.5339
34.4237 1680 40.9878
34.5407 1748 41.8091
34.6577 1747 41.7971
34.7746 1771 42.0833
34.8915 1777 42.1545
35.0084 1817 42.6263
35.1252 1781 42.2019
35.242 1664 40.7922
35.3587 1722 41.497
35.4755 1636 40.4475
35.5921 1709 41.3401
35.7088 1669 40.8534
35.8254 1726 41.5452
35.9419 1678 40.9634
36.0584 1686 41.0609
36.1749 1708 41.328
36.2913 1615 40.1871
36.4077 1527 39.0768
36.524 1523 39.0256
36.6403 1367 36.973
36.7565 1250 35.3553
36.8727 1206 34.7275
36.9889 1023 31.9844
37.1049 1003 31.6702
37.221 0 1
37.3369 0 1
37.4529 0 1
37.5687 0 1
37.6845 0 1
37.8003 0 1
37.916 0 1
38.0316 0 1
38.1472 0 1
40.5851 0 1
40.7008 0 1
40.8164 0 1
40.9322 0 1
41.048 0 1
41.1639 0 1
41.2798 0 1
41.3958 0 1
41.5118 0 1
41.6279 0 1
41.744 879 29.6479
41.8602 1065 32.6343
41.9765 1127 33.5708
42.0928 1374 37.0675
42.2091 1532 39.1408
42.3255 1518 38.9615
42.4419 1657 40.7063
42.5584 1730 41.5933
42.675 1874 43.2897
42.7915 1867 43.2088
42.9081 1837 42.8602
43.0248 1867 43.2088
43.1415 1873 43.2782
43.2582 2050 45.2769
43.375 2125 46.0977
43.4918 2318 48.1456
43.6087 2202 46.9255
43.7256 2325 48.2183
43.8425 2289 47.8435
43.9595 2387 48.8569
44.0765 2442 49.4166
44.1935 2437 49.366
44.3106 2517 50.1697
44.4277 2349 48.4665
44.5448 2571 50.705
44.6619 2412 49.1121
44.7791 2461 49.6085
44.8963 2408 49.0714
45.0136 2472 49.7192
45.1308 2549 50.4876
45.2481 2558 50.5767
45.3654 2509 50.0899
45.4827 2513 50.1298
45.6001 2431 49.3052
45.7174 2527 50.2693
45.8348 2472 49.7192
45.9522 2372 48.7032
46.0697 2296 47.9166
46.1871 2285 47.8017
46.3046 2227 47.1911
46.422 2135 46.2061
46.5395 2081 45.618
46.657 2172 46.6047
46.7745 2198 46.8828
46.892 2177 46.6583
47.0096 2400 48.9898
47.1271 2301 47.9687
47.2446 2276 47.7074
47.3622 2258 47.5184
47.4797 2228 47.2017
47.5973 2063 45.4203
47.7149 2152 46.3897
47.8324 2049 45.2659
47.95 1964 44.317
48.0675 2029 45.0444
48.1851 2015 44.8888
48.3027 1904 43.6348
48.4202 1938 44.0227
48.5378 1915 43.7607
48.6554 1801 42.4382
48.7729 1815 42.6028
48.8904 1810 42.5441
49.008 1865 43.1856
49.1255 1798 42.4028
49.243 1748 41.8091
49.3605 1792 42.332
49.478 1757 41.9166
49.5955 1758 41.9285
49.713 1736 41.6653
49.8304 1747 41.7971
49.9479 1699 41.2189
50.0653 1690 41.1096
50.1827 1833 42.8135
50.3001 1820 42.6615
50.4175 1877 43.3244
50.5348 1991 44.6206
50.6521 2026 45.0111
50.7694 2049 45.2659
50.8867 2019 44.9333
51.004 2068 45.4753
51.1212 2005 44.7772
51.2384 2016 44.8999
51.3556 1991 44.6206
51.4727 2001 44.7325
51.5899 1973 44.4185
51.707 1909 43.6921
51.824 1990 44.6094
51.9411 1840 42.8952
52.0581 1971 44.3959
52.175 1864 43.1741
52.2919 1918 43.795
52.4088 1849 43
52.5257 1857 43.0929
52.6425 1868 43.2204
52.7593 1760 41.9524
52.876 1822 42.6849
52.9927 1760 41.9524
53.1094 1747 41.7971
53.226 1756 41.9047
53.3426 1661 40.7554
53.4591 1596 39.95
53.5756 1561 39.5095
53.692 1469 38.3275
53.8084 1436 37.8946
53.9248 1346 36.6879
54.0411 1265 35.5668
54.1573 1270 35.6371
54.2735 0 1
54.3896 0 1
54.5057 0 1
54.6217 0 1
54.7377 0 1
54.8537 0 1
54.9695 0 1
55.0853 0 1
55.2011 0 1
55.3168 0 1
55.4324 0 1
57.824 0 1
57.9396 0 1
58.0553 0 1
58.1711 0 1
58.2869 0 1
58.4028 0 1
58.5187 0 1
58.6347 0 1
58.7508 0 1
58.8669 0 1
58.983 1535 39.1791
59.0992 1858 43.1045
59.2155 1984 44.5421
59.3318 2201 46.9148
59.4482 2314 48.1041
59.5646 2584 50.8331
59.681 2711 52.0673
59.7975 2593 50.9215
59.9141 2663 51.6043
60.0306 2629 51.2738
60.1473 2603 51.0196
60.2639 2661 51.5849
60.3807 2577 50.7642
60.4974 2570 50.6952
60.6142 2636 51.342
60.731 2540 50.3984
60.8479 2541 50.4083
60.9648 2441 49.4065
61.0818 2572 50.7149
61.1987 2594 50.9313
61.3158 2480 49.7996
61.4328 2500 50
61.5499 2497 49.97
61.667 2539 50.3885
61.7841 2528 50.2792
61.9013 2525 50.2494
62.0185 2528 50.2792
62.1357 2533 50.3289
62.253 2512 50.1199
62.3702 2675 51.7204
62.4875 2636 51.342
62.6049 2836 53.2541
62.7222 3007 54.8361
62.8396 2909 53.9351
62.9569 3099 55.6687
63.0743 3085 55.5428
63.1918 3165 56.2583
63.3092 3147 56.0981
63.4267 3064 55.3534
63.5441 2870 53.5724
63.6616 2884 53.7029
63.7791 2759 52.5262
63.8966 2851 53.3948
64.0142 2786 52.7826
64.1317 2753 52.469
64.2492 2588 50.8724
64.3668 2605 51.0392
64.4843 2676 51.7301
64.6019 2523 50.2295
64.7195 2534 50.3389
64.837 2597 50.9608
64.9546 2562 50.6162
65.0722 2637 51.3517
65.1898 2613 51.1175
65.3074 2528 50.2792
65.4249 2531 50.309
65.5425 2430 49.295
65.6601 2517 50.1697
65.7777 2439 49.3862
65.8952 2633 51.3128
66.0128 2791 52.8299
66.1304 2791 52.8299
66.2479 2915 53.9907
66.3655 3080 55.4977
66.483 3227 56.8067
66.6005 3157 56.1872
66.718 3259 57.0877
66.8355 3141 56.0446
66.953 3130 55.9464
67.0705 3026 55.0091
67.1879 3067 55.3805
67.3054 2889 53.7494
67.4228 2882 53.6843
67.5402 2802 52.9339
67.6576 2828 53.1789
67.7749 2785 52.7731
67.8923 2625 51.2348
68.0096 2615 51.1371
68.1269 2654 51.517
68.2442 2652 51.4976
68.3614 2672 51.6914
68.4787 2810 53.0094
68.5958 2779 52.7162
68.713 2701 51.9711
68.8302 2584 50.8331
68.9473 2537 50.3686
69.0643 2541 50.4083
69.1814 2418 49.1732
69.2984 2406 49.051
69.4154 2491 49.9099
69.5323 2549 50.4876
69.6492 2626 51.2445
69.7661 2765 52.5833
69.8829 2804 52.9528
69.9997 2774 52.6688
70.1165 2839 53.2823
70.2332 2759 52.5262
70.3499 2735 52.2972
70.4665 2609 51.0784
70.5831 2313 48.0937
70.6996 2110 45.9347
70.8161 1965 44.3283
70.9326 1746 41.7852
71.049 1576 39.6989
71.1653 1518 38.9615
71.2817 1397 37.3765
71.3979 1381 37.1618
71.5141 1274 35.6931
71.6303 1176 34.2929
71.7464 1015 31.8591
71.8624 0 1
71.9784 0 1
72.0944 0 1
72.2102 0 1
72.3261 0 1
72.4418 0 1
72.5575 0 1
72.6732 0 1
75.1054 0 1
75.2209 0 1
75.3365 0 1
75.4521 0 1
75.5678 0 1
75.6835 0 1
75.7993 0 1
75.9151 0 1
76.031 0 1
76.147 2149 46.3573
76.263 2346 48.4355
76.3791 2393 48.9183
76.4952 2379 48.775
76.6113 2393 48.9183
76.7276 2435 49.3457
76.8438 2546 50.4579
76.9601 2504 50.04
77.0765 2522 50.2195
77.1929 2513 50.1298
77.3093 2653 51.5073
77.4258 2663 51.6043
77.5423 2635 51.3323
77.6589 2718 52.1344
77.7755 2593 50.9215
77.8921 2625 51.2348
78.0088 2508 50.0799
78.1256 2400 48.9898
78.2423 2331 48.2804
78.3591 2334 48.3115
78.4759 2382 48.8057
78.5928 2686 51.8266
78.7097 2784 52.7636
78.8266 2915 53.9907
78.9436 3170 56.3028
79.0606 3158 56.1961
79.1776 3141 56.0446
79.2946 3169 56.2939
79.4117 3250 57.0088
79.5288 3371 58.0603
79.6459 3239 56.9122
79.7631 3148 56.107
79.8802 2988 54.6626
79.9974 3015 54.909
80.1147 2931 54.1387
80.2319 2934 54.1664
80.3491 2933 54.1572
80.4664 2942 54.2402
80.5837 2935 54.1756
80.701 2928 54.111
80.8183 2905 53.8981
80.9357 2918 54.0185
81.053 2996 54.7357
81.1704 2972 54.5161
81.2877 3097 55.6507
81.4051 2981 54.5985
81.5225 3009 54.8544
81.6399 2875 53.619
81.7573 2631 51.2933
81.8747 2579 50.7839
81.9922 2583 50.8232
82.1096 2743 52.3737
82.227 2919 54.0278
82.3444 3100 55.6776
82.4619 3254 57.0438
82.5793 3348 57.8619
82.6967 3385 58.1808
82.8142 3423 58.5064
82.9316 3696 60.7947
83.049 3760 61.3188
83.1664 3644 60.3656
83.2838 3491 59.0847
83.4012 3472 58.9237
83.5186 3426 58.532
83.636 3193 56.5066
83.7534 3169 56.2939
83.8708 3196 56.5332
83.9881 3163 56.2406
84.1055 3215 56.701
84.2228 3243 56.9473
84.3401 3189 56.4712
84.4575 3242 56.9386
84.5747 3260 57.0964
84.692 3342 57.81
84.8093 3485 59.0339
84.9265 3325 57.6628
85.0437 3224 56.7803
85.1609 3136 56
85.2781 3100 55.6776
85.3952 2809 53
85.5123 2813 53.0377
85.6294 2856 53.4416
85.7465 3003 54.7996
85.8636 3265 57.1402
85.9806 3304 57.4804
86.0976 3585 59.8749
86.2145 3653 60.4401
86.3315 3718 60.9754
86.4484 3732 61.0901
86.5652 3861 62.1369
86.682 3832 61.9032
86.7988 3778 61.4654
86.9156 3740 61.1555
87.0323 3612 60.0999
87.149 3640 60.3324
87.2657 3398 58.2924
87.3823 3388 58.2065
87.4988 3135 55.9911
87.6154 3178 56.3738
87.7318 2967 54.4702
87.8483 2776 52.6878
87.9647 2585 50.8429
88.081 2513 50.1298
88.1973 2364 48.621
88.3136 2190 46.7974
88.4298 1988 44.587
88.546 1955 44.2154
88.6621 1751 41.845
88.7781 1539 39.2301
88.8942 0 1
89.0101 0 1
89.126 0 1
89.2419 0 1
89.3577 0 1
89.4734 0 1
89.5891 0 1
89.7047 0 1
89.8203 0 1
89.9358 0 1
92.3269 0 1
92.4424 0 1
92.558 0 1
92.6736 0 1
92.7893 0 1
92.905 0 1
93.0208 0 1
93.1366 0 1
93.2525 0 1
93.3685 0 1
93.4845 0 1
93.6005 3070 55.4076
93.7167 3312 57.55
93.8328 3578 59.8164
93.949 3766 61.3677
94.0653 4042 63.5767
94.1816 3944 62.8013
94.2979 3931 62.6977
94.4143 3781 61.4898
94.5307 3511 59.2537
94.6472 3412 58.4123
94.7637 3374 58.0861
94.8803 3382 58.155
94.9969 3760 61.3188
95.1135 3906 62.498
95.2302 4174 64.6065
95.3469 4316 65.6963
95.4637 4523 67.2533
95.5805 4470 66.8581
95.6973 4617 67.9485
95.8142 4792 69.2243
95.9311 4655 68.2276
96.048 4534 67.335
96.1649 4682 68.4251
96.2819 4448 66.6933
96.3989 4348 65.9394
96.516 4326 65.7723
96.633 4346 65.9242
96.7501 4262 65.284
96.8673 4334 65.8331
96.9844 4213 64.9076
97.1016 4318 65.7115
97.2188 4248 65.1767
97.336 4415 66.4455
97.4532 4371 66.1135
97.5704 4553 67.4759
97.6877 4554 67.4833
97.805 4535 67.3424
97.9223 4434 66.5883
98.0396 4224 64.9923
98.1569 3943 62.7933
98.2743 3640 60.3324
98.3916 3451 58.7452
98.509 3595 59.9583
98.6264 3961 62.9365
98.7438 4173 64.5988
98.8612 4481 66.9403
98.9786 4794 69.2387
99.096 4891 69.9357
99.2134 4885 69.8928
99.3308 5069 71.1969
99.4482 5139 71.6868
99.5656 5101 71.4213
99.6831 5185 72.0069
99.8005 5032 70.9366
99.9179 4927 70.1926
100.035 4654 68.2202
100.153 4591 67.7569
100.27 4651 68.1982
100.388 4668 68.3228
100.505 4471 66.8655
100.622 4572 67.6166
100.74 4452 66.7233
100.857 4417 66.4605
100.975 4624 68
101.092 4826 69.4694
101.209 4756 68.9638
101.327 4787 69.1881
101.444 4765 69.029
101.561 4504 67.1118
101.679 4260 65.2687
101.796 4035 63.5216
101.913 3861 62.1369
102.03 3786 61.5305
102.148 3956 62.8967
102.265 4092 63.9687
102.382 4558 67.513
102.499 4776 69.1086
102.616 4895 69.9643
102.733 5026 70.8943
102.851 5022 70.8661
102.968 5229 72.3118
103.085 5170 71.9027
103.202 5115 71.5192
103.319 5189 72.0347
103.436 5027 70.9013
103.552 4807 69.3325
103.669 4586 67.72
103.786 4602 67.838
103.903 4645 68.1542
104.02 4503 67.1044
104.137 4445 66.6708
104.253 4473 66.8805
104.37 4410 66.4078
104.487 4460 66.7832
104.603 4516 67.2012
104.72 4510 67.1565
104.836 4498 67.0671
104.953 4015 63.364
105.069 3722 61.0082
105.186 3411 58.4038
105.302 2948 54.2955
105.418 2671 51.6817
105.535 2554 50.5371
105.651 2407 49.0612
105.767 2275 47.697
105.883 2221 47.1275
105.999 2118 46.0217
106.115 0 1
106.231 0 1
106.347 0 1
106.463 0 1
106.579 0 1
106.694 0 1
106.81 0 1
106.926 0 1
107.041 0 1
107.157 0 1
109.576 0 1
109.692 0 1
109.807 0 1
109.923 0 1
110.039 0 1
110.155 0 1
110.27 0 1
110.386 0 1
110.502 0 1
110.618 2128 46.1303
110.735 2540 50.3984
110.851 3089 55.5788
110.967 3372 58.0689
111.083 3862 62.145
111.199 4130 64.2651
111.316 4327 65.7799
111.432 4410 66.4078
111.549 4465 66.8207
111.665 4585 67.7126
111.782 4527 67.283
111.898 4439 66.6258
112.015 4390 66.2571
112.132 4402 66.3476
112.248 4178 64.6375
112.365 4258 65.2534
112.482 4047 63.616
112.599 4307 65.6277
112.716 4076 63.8436
112.832 4037 63.5374
112.949 4063 63.7417
113.066 3982 63.1031
113.183 4207 64.8614
113.3 4332 65.8179
113.417 4214 64.9153
113.534 4305 65.6125
113.652 4133 64.2884
113.769 3926 62.6578
113.886 3593 59.9416
114.003 3458 58.8048
114.12 3349 57.8705
114.238 3499 59.1523
114.355 3667 60.5558
114.472 3900 62.45
114.589 4541 67.3869
114.707 4552 67.4685
114.824 4592 67.7643
114.942 4628 68.0294
115.059 4792 69.2243
115.176 4689 68.4763
115.294 4635 68.0808
115.411 4638 68.1029
115.529 4573 67.624
115.646 4281 65.4294
115.764 4180 64.6529
115.881 4349 65.9469
115.999 4056 63.6867
116.116 4013 63.3482
116.234 3979 63.0793
116.351 3861 62.1369
116.469 3813 61.7495
116.586 3945 62.8092
116.704 3990 63.1664
116.821 4125 64.2262
116.939 4041 63.5689
117.056 4111 64.1171
117.174 3912 62.546
117.291 3702 60.8441
117.409 3681 60.6712
117.526 3445 58.6941
117.644 3220 56.745
117.761 3227 56.8067
117.879 3463 58.8473
117.996 3818 61.79
118.114 4038 63.5453
118.231 4339 65.8711
118.349 4318 65.7115
118.466 4321 65.7343
118.584 4445 66.6708
118.701 4381 66.1891
118.819 4337 65.8559
118.936 4293 65.521
119.053 4250 65.192
119.171 4264 65.2993
119.288 4122 64.2028
119.405 4005 63.2851
119.523 3787 61.5386
119.64 3945 62.8092
119.757 3793 61.5873
119.875 3762 61.3351
119.992 3712 60.9262
120.109 3581 59.8415
120.226 3747 61.2127
120.343 3671 60.5888
120.46 3697 60.803
120.578 3946 62.8172
120.695 3745 61.1964
120.812 3695 60.7865
120.929 3441 58.66
121.046 3276 57.2364
121.163 3140 56.0357
121.279 2983 54.6168
121.396 2837 53.2635
121.513 2793 52.8488
121.63 2834 53.2353
121.747 2971 54.5069
121.863 3159 56.205
121.98 3179 56.3826
122.097 3195 56.5243
122.213 3019 54.9454
122.33 2890 53.7587
122.446 2752 52.4595
122.563 2435 49.3457
122.679 2318 48.1456
122.795 2272 47.6655
122.912 2161 46.4866
123.028 1962 44.2945
123.144 1730 41.5933
123.26 1726 41.5452
123.377 0 1
123.493 0 1
123.609 0 1
123.725 0 1
123.84 0 1
123.956 0 1
124.072 0 1
124.188 0 1
124.303 0 1
124.419 0 1
126.852 0 1
126.968 0 1
127.083 0 1
127.199 0 1
127.315 0 1
127.431 0 1
127.547 0 1
127.663 0 1
127.779 0 1
127.895 0 1
128.011 0 1
128.127 0 1
128.243 0 1
128.359 3796 61.6117
128.476 3893 62.3939
128.592 3771 61.4085
128.708 3764 61.3514
128.825 3747 61.2127
128.941 3580 59.8331
129.058 3737 61.131
129.174 3661 60.5062
129.291 3563 59.6909
129.408 3575 59.7913
129.524 3707 60.8851
129.641 3790 61.563
129.758 3642 60.349
129.875 3591 59.925
129.992 3524 59.3633
130.108 3417 58.4551
130.225 3250 57.0088
130.342 3063 55.3444
130.459 2825 53.1507
130.576 3161 56.2228
130.693 3173 56.3294
130.81 3421 58.4893
130.928 3647 60.3904
131.045 3906 62.498
131.162 3855 62.0886
131.279 3885 62.3298
131.396 3824 61.8385
131.513 3835 61.9274
131.631 3816 61.7738
131.748 3782 61.498
131.865 3773 61.4248
131.983 3793 61.5873
132.1 3718 60.9754
132.217 3712 60.9262
132.335 3551 59.5903
132.452 3693 60.7701
132.57 3498 59.1439
132.687 3564 59.6992
132.804 3614 60.1166
132.922 3549 59.5735
133.039 3610 60.0833
133.157 3687 60.7207
133.274 3639 60.3241
133.392 3635 60.291
133.509 3525 59.3717
133.627 3398 58.2924
133.744 3378 58.1206
133.862 3203 56.5951
133.979 3066 55.3715
134.097 3091 55.5968
134.214 3209 56.648
134.332 3308 57.5152
134.449 3580 59.8331
134.567 3997 63.2218
134.684 3973 63.0317
134.802 3996 63.2139
134.919 4000 63.2456
135.037 4160 64.4981
135.154 3893 62.3939
135.272 3982 63.1031
135.389 4174 64.6065
135.507 4163 64.5213
135.624 4184 64.6838
135.742 4115 64.1483
135.859 4020 63.4035
135.977 4111 64.1171
136.094 4121 64.195
136.211 4085 63.914
136.329 3944 62.8013
136.446 3977 63.0635
136.564 4083 63.8984
136.681 4129 64.2573
136.798 4038 63.5453
136.915 4141 64.3506
137.033 4115 64.1483
137.15 3948 62.8331
137.267 3932 62.7057
137.384 3723 61.0164
137.502 3591 59.925
137.619 3310 57.5326
137.736 3308 57.5152
137.853 3294 57.3934
137.97 3416 58.4466
138.087 3784 61.5142
138.204 3917 62.5859
138.321 4072 63.8122
138.438 4106 64.0781
138.555 4158 64.4826
138.672 4029 63.4744
138.788 3993 63.1902
138.905 3733 61.0983
139.022 3654 60.4483
139.139 3409 58.3866
139.255 3305 57.4891
139.372 3352 57.8965
139.488 3046 55.1906
139.605 2877 53.6377
139.721 2690 51.8652
139.838 2464 49.6387
139.954 2349 48.4665
140.071 2364 48.621
140.187 2117 46.0109
140.303 2112 45.9565
140.419 1925 43.8748
140.535 1906 43.6578
140.652 1892 43.4971
140.768 0 1
140.884 0 1
141 0 1
141.115 0 1
141.231 0 1
141.347 0 1
141.463 0 1
141.578 0 1
141.694 0 1
144.104 0 1
144.219 0 1
144.335 0 1
144.45 0 1
144.566 0 1
144.682 0 1
144.798 0 1
144.914 0 1
145.03 0 1
145.146 3005 54.8179
145.262 2936 54.1849
145.378 3058 55.2992
145.494 3033 55.0727
145.61 3112 55.7853
145.726 3048 55.2087
145.842 3121 55.8659
145.959 3055 55.2721
146.075 3040 55.1362
146.192 2955 54.3599
146.308 2814 53.0471
146.425 2751 52.45
146.541 2643 51.4101
146.658 2551 50.5074
146.774 2733 52.2781
146.891 2816 53.066
147.008 3070 55.4076
147.125 3086 55.5518
147.241 3171 56.3116
147.358 3273 57.2101
147.475 3212 56.6745
147.592 3188 56.4624
147.709 3125 55.9017
147.826 3199 56.5597
147.943 3201 56.5774
148.06 3154 56.1605
148.177 3118 55.8391
148.294 3126 55.9106
148.411 3146 56.0892
148.528 3164 56.2494
148.645 3136 56
148.762 3143 56.0625
148.88 2945 54.2679
148.997 3151 56.1338
149.114 3012 54.8817
149.231 3106 55.7315
149.349 3012 54.8817
149.466 3071 55.4166
149.583 3063 55.3444
149.701 3107 55.7405
149.818 2984 54.626
149.935 2982 54.6077
150.053 2775 52.6783
150.17 2826 53.1601
150.287 2640 51.3809
150.405 2637 51.3517
150.522 2804 52.9528
150.64 2933 54.1572
150.757 3102 55.6956
150.875 3135 55.9911
150.992 3259 57.0877
151.11 3211 56.6657
151.227 3250 57.0088
151.344 3211 56.6657
151.462 3171 56.3116
151.579 3191 56.4889
151.697 3258 57.0789
151.814 3163 56.2406
151.932 3249 57
152.049 3173 56.3294
152.167 3196 56.5332
152.284 3186 56.4447
152.402 3134 55.9821
152.519 3078 55.4797
152.636 3049 55.2178
152.754 3078 55.4797
152.871 3009 54.8544
152.989 3059 55.3082
153.106 2991 54.69
153.223 3007 54.8361
153.341 2902 53.8702
153.458 2915 53.9907
153.575 2847 53.3573
153.693 2705 52.0096
153.81 2652 51.4976
153.927 2635 51.3323
154.044 2629 51.2738
154.162 2772 52.6498
154.279 2830 53.1977
154.396 3051 55.2359
154.513 3150 56.1249
154.63 3083 55.5248
154.747 3117 55.8301
154.864 3088 55.5698
154.981 3074 55.4437
155.098 3102 55.6956
155.215 2842 53.3104
155.332 3009 54.8544
155.449 3011 54.8726
155.566 2961 54.4151
155.683 2819 53.0943
155.8 2874 53.6097
155.917 2817 53.0754
156.033 2761 52.5452
156.15 0 1
156.267 0 1
156.383 0 1
156.5 0 1
156.617 0 1
156.733 0 1
156.85 0 1
156.966 0 1
157.082 0 1
157.199 0 1
157.315 0 1
157.431 0 1
157.547 0 1
157.664 0 1
157.78 0 1
157.896 0 1
158.012 0 1
158.128 0 1
158.244 0 1
158.359 0 1
158.475 0 1
158.591 0 1
158.706 0 1
