
6.15755 0 1
6.2731 0 1
6.3887 0 1
6.50437 0 1
6.62009 0 1
6.73587 0 1
6.8517 0 1
6.96759 0 1
7.08353 0 1
7.19952 0 1
7.31557 0 1
7.43166 0 1
7.54781 0 1
7.664 0 1
7.78024 0 1
7.89653 0 1
8.01286 0 1
8.12924 0 1
8.24567 0 1
8.36213 0 1
8.47864 0 1
8.59519 0 1
8.71178 0 1
8.82841 0 1
8.94508 0 1
9.06179 0 1
9.17853 0 1
9.29531 0 1
9.41212 0 1
9.52897 0 1
9.64584 0 1
9.76276 0 1
9.8797 0 1
9.99667 0 1
10.1137 0 1
10.2307 0 1
10.3478 0 1
10.4648 0 1
10.5819 0 1
10.6991 0 1
10.8162 0 1
10.9334 0 1
11.0506 0 1
11.1678 0 1
11.285 0 1
11.4023 0 1
11.5196 0 1
11.6369 0 1
11.7542 0 1
11.8715 0 1
11.9888 0 1
12.1062 0 1
12.2235 0 1
12.3409 0 1
12.4582 0 1
12.5756 0 1
12.693 0 1
12.8104 0 1
12.9278 0 1
13.0452 0 1
13.1626 0 1
13.28 0 1
13.3974 0 1
13.5149 0 1
13.6323 0 1
13.7497 0 1
13.8671 0 1
13.9845 0 1
14.1019 0 1
14.2193 0 1
14.3367 0 1
14.4541 0 1
14.5714 0 1
14.6888 0 1
14.8062 0 1
14.9235 0 1
15.0408 1733 41.6293
15.1581 1889 43.4626
15.2755 1946 44.1135
15.3927 2025 45
15.51 1948 44.1362
15.6273 1989 44.5982
15.7445 1937 44.0114
15.8617 1937 44.0114
15.9789 2022 44.9667
16.0961 1918 43.795
16.2132 1893 43.5086
16.3304 2011 44.8442
16.4475 2125 46.0977
16.5646 2181 46.7012
16.6816 2244 47.3709
16.7986 2280 47.7493
16.9156 2278 47.7284
17.0326 2356 48.5386
17.1496 2339 48.3632
17.2665 2358 48.5592
17.3833 2262 47.5605
17.5002 2179 46.6798
17.617 2068 45.4753
17.7338 2075 45.5522
17.8505 2018 44.9222
17.9672 1947 44.1248
18.0839 2068 45.4753
18.2005 2179 46.6798
18.3171 2137 46.2277
18.4337 2182 46.7119
18.5502 2275 47.697
18.6666 2256 47.4974
18.7831 2306 48.0208
18.8994 2270 47.6445
19.0158 2274 47.6865
19.1321 2233 47.2546
19.2483 2207 46.9787
19.3645 1911 43.715
19.4806 1832 42.8019
19.5967 1743 41.7493
19.7128 1574 39.6737
19.8288 1443 37.9868
19.9447 1387 37.2424
20.0606 0 1
20.1764 0 1
20.2922 0 1
20.4079 0 1
20.5236 0 1
20.6392 0 1
20.7548 0 1
20.8702 0 1
23.3078 0 1
23.4233 0 1
23.539 0 1
23.6547 0 1
23.7704 0 1
23.8862 0 1
24.0021 0 1
24.118 0 1
24.234 0 1
24.35 0 1
24.4661 966 31.0805
24.5822 1086 32.9545
24.6984 1255 35.426
24.8146 1361 36.8917
24.9309 1533 39.1535
25.0472 1708 41.328
25.1636 1837 42.8602
25.28 1965 44.3283
25.3965 2177 46.6583
25.513 2291 47.8644
25.6296 2333 48.3011
25.7462 2466 49.6588
25.8628 2515 50.1498
25.9795 2589 50.8822
26.0962 2504 50.04
26.213 2369 48.6724
26.3298 2297 47.927
26.4466 2149 46.3573
26.5635 2162 46.4973
26.6804 2127 46.1194
26.7973 2174 46.6262
26.9143 2193 46.8295
27.0313 2304 48
27.1483 2398 48.9694
27.2653 2385 48.8365
27.3824 2356 48.5386
27.4996 2325 48.2183
27.6167 2298 47.9375
27.7339 2283 47.7807
27.8511 2322 48.1871
27.9683 2230 47.2229
28.0855 1984 44.5421
28.2028 2073 45.5302
28.3201 1933 43.9659
28.4374 1978 44.4747
28.5547 2115 45.9891
28.6721 2079 45.5961
28.7894 2169 46.5725
28.9068 2305 48.0104
29.0242 2379 48.775
29.1416 2341 48.3839
29.259 2402 49.0102
29.3764 2347 48.4458
29.4939 2508 50.0799
29.6113 2357 48.5489
29.7288 2264 47.5815
29.8463 2122 46.0652
29.9638 2120 46.0435
30.0812 1933 43.9659
30.1987 1968 44.3621
30.3162 1989 44.5982
30.4337 2118 46.0217
30.5512 2254 47.4763
30.6687 2111 45.9456
30.7862 2278 47.7284
30.9037 2278 47.7284
31.0212 2295 47.9062
31.1387 2281 47.7598
31.2562 2211 47.0213
31.3737 2138 46.2385
31.4912 2203 46.9361
31.6087 2146 46.3249
31.7262 1962 44.2945
31.8436 1956 44.2267
31.9611 1983 44.5309
32.0785 1862 43.1509
32.1959 1989 44.5982
32.3134 2147 46.3357
32.4308 2105 45.8803
32.5482 2317 48.1352
32.6655 2390 48.8876
32.7829 2324 48.2079
32.9002 2370 48.6826
33.0176 2275 47.697
33.1349 2314 48.1041
33.2522 2357 48.5489
33.3694 2236 47.2864
33.4867 2056 45.3431
33.6039 1971 44.3959
33.7211 1943 44.0795
33.8383 1854 43.0581
33.9554 1895 43.5316
34.0725 2042 45.1885
34.1896 2012 44.8553
34.3067 2114 45.9783
34.4237 2092 45.7384
34.5407 2147 46.3357
34.6577 2143 46.2925
34.7746 2204 46.9468
34.8915 2165 46.5296
35.0084 2055 45.3321
35.1252 2127 46.1194
35.242 1978 44.4747
35.3587 1977 44.4635
35.4755 1932 43.9545
35.5921 1909 43.6921
35.7088 1771 42.0833
35.8254 1833 42.8135
35.9419 1964 44.317
36.0584 1948 44.1362
36.1749 2009 44.8219
36.2913 1963 44.3058
36.4077 2138 46.2385
36.524 1983 44.5309
36.6403 1948 44.1362
36.7565 1898 43.566
36.8727 1726 41.5452
36.9889 1774 42.1189
37.1049 1450 38.0789
37.221 0 1
37.3369 0 1
37.4529 0 1
37.5687 0 1
37.6845 0 1
37.8003 0 1
37.916 0 1
38.0316 0 1
38.1472 0 1
40.5851 0 1
40.7008 0 1
40.8164 0 1
40.9322 0 1
41.048 0 1
41.1639 0 1
41.2798 0 1
41.3958 0 1
41.5118 0 1
41.6279 0 1
41.744 1073 32.7567
41.8602 1186 34.4384
41.9765 1287 35.8748
42.0928 1285 35.8469
42.2091 1299 36.0416
42.3255 1286 35.8608
42.4419 1264 35.5528
42.5584 1315 36.2629
42.675 1488 38.5746
42.7915 1470 38.3406
42.9081 1547 39.3319
43.0248 1646 40.5709
43.1415 1700 41.2311
43.2582 1763 41.9881
43.375 1712 41.3763
43.4918 1766 42.0238
43.6087 1784 42.2374
43.7256 1812 42.5676
43.8425 1732 41.6173
43.9595 1679 40.9756
44.0765 1722 41.497
44.1935 1569 39.6106
44.3106 1565 39.5601
44.4277 1526 39.064
44.5448 1467 38.3014
44.6619 1493 38.6394
44.7791 1581 39.7618
44.8963 1690 41.1096
45.0136 1887 43.4396
45.1308 1846 42.9651
45.2481 1766 42.0238
45.3654 1852 43.0349
45.4827 1879 43.3474
45.6001 1885 43.4166
45.7174 1665 40.8044
45.8348 1724 41.5211
45.9522 1554 39.4208
46.0697 1420 37.6829
46.1871 1447 38.0395
46.3046 1534 39.1663
46.422 1562 39.5221
46.5395 1696 41.1825
46.657 1689 41.0974
46.7745 1673 40.9023
46.892 1769 42.0595
47.0096 1885 43.4166
47.1271 1934 43.9773
47.2446 1886 43.4281
47.3622 1825 42.72
47.4797 1770 42.0714
47.5973 1769 42.0595
47.7149 1756 41.9047
47.8324 1618 40.2244
47.95 1614 40.1746
48.0675 1563 39.5348
48.1851 1535 39.1791
48.3027 1589 39.8623
48.4202 1676 40.939
48.5378 1794 42.3556
48.6554 1733 41.6293
48.7729 1866 43.1972
48.8904 1848 42.9884
49.008 1795 42.3674
49.1255 1767 42.0357
49.243 1772 42.0951
49.3605 1622 40.2741
49.478 1589 39.8623
49.5955 1375 37.081
49.713 1460 38.2099
49.8304 1453 38.1182
49.9479 1587 39.8372
50.0653 1728 41.5692
50.1827 1728 41.5692
50.3001 1747 41.7971
50.4175 1781 42.2019
50.5348 1794 42.3556
50.6521 1794 42.3556
50.7694 1807 42.5088
50.8867 1861 43.1393
51.004 1757 41.9166
51.1212 1829 42.7668
51.2384 1688 41.0853
51.3556 1691 41.1218
51.4727 1651 40.6325
51.5899 1612 40.1497
51.707 1567 39.5854
51.824 1712 41.3763
51.9411 1795 42.3674
52.0581 1992 44.6318
52.175 2042 45.1885
52.2919 2104 45.8694
52.4088 2100 45.8258
52.5257 2271 47.655
52.6425 2344 48.4149
52.7593 2211 47.0213
52.876 2208 46.9894
52.9927 2148 46.3465
53.1094 2007 44.7996
53.226 1884 43.4051
53.3426 1864 43.1741
53.4591 1831 42.7902
53.5756 1868 43.2204
53.692 1841 42.9069
53.8084 1846 42.9651
53.9248 1856 43.0813
54.0411 1848 42.9884
54.1573 1703 41.2674
54.2735 0 1
54.3896 0 1
54.5057 0 1
54.6217 0 1
54.7377 0 1
54.8537 0 1
54.9695 0 1
55.0853 0 1
55.2011 0 1
55.3168 0 1
55.4324 0 1
57.824 0 1
57.9396 0 1
58.0553 0 1
58.1711 0 1
58.2869 0 1
58.4028 0 1
58.5187 0 1
58.6347 0 1
58.7508 0 1
58.8669 0 1
58.983 1521 39
59.0992 1724 41.5211
59.2155 1870 43.2435
59.3318 1886 43.4281
59.4482 2036 45.1221
59.5646 2199 46.8935
59.681 2186 46.7547
59.7975 2180 46.6905
59.9141 2247 47.4025
60.0306 2097 45.793
60.1473 2026 45.0111
60.2639 2041 45.1774
60.3807 1892 43.4971
60.4974 2029 45.0444
60.6142 2171 46.594
60.731 2238 47.3075
60.8479 2316 48.1248
60.9648 2342 48.3942
61.0818 2412 49.1121
61.1987 2301 47.9687
61.3158 2278 47.7284
61.4328 2162 46.4973
61.5499 2096 45.7821
61.667 1933 43.9659
61.7841 1819 42.6497
61.9013 1698 41.2068
62.0185 1710 41.3521
62.1357 1881 43.3705
62.253 1925 43.8748
62.3702 2030 45.0555
62.4875 2144 46.3033
62.6049 2188 46.7761
62.7222 2229 47.2123
62.8396 2213 47.0425
62.9569 2281 47.7598
63.0743 2296 47.9166
63.1918 2258 47.5184
63.3092 2239 47.3181
63.4267 2142 46.2817
63.5441 2013 44.8665
63.6616 2052 45.299
63.7791 1925 43.8748
63.8966 1867 43.2088
64.0142 1839 42.8836
64.1317 1987 44.5758
64.2492 2038 45.1442
64.3668 2249 47.4236
64.4843 2230 47.2229
64.6019 2233 47.2546
64.7195 2353 48.5077
64.837 2305 48.0104
64.9546 2216 47.0744
65.0722 2128 46.1303
65.1898 2030 45.0555
65.3074 1851 43.0232
65.4249 1700 41.2311
65.5425 1653 40.6571
65.6601 1687 41.0731
65.7777 1846 42.9651
65.8952 1943 44.0795
66.0128 2081 45.618
66.1304 2055 45.3321
66.2479 2146 46.3249
66.3655 2204 46.9468
66.483 2171 46.594
66.6005 2162 46.4973
66.718 2142 46.2817
66.8355 2222 47.1381
66.953 2155 46.422
67.0705 2077 45.5741
67.1879 2043 45.1996
67.3054 1886 43.4281
67.4228 1840 42.8952
67.5402 1830 42.7785
67.6576 1739 41.7013
67.7749 1931 43.9431
67.8923 1998 44.699
68.0096 2032 45.0777
68.1269 2179 46.6798
68.2442 2182 46.7119
68.3614 2127 46.1194
68.4787 2098 45.8039
68.5958 2247 47.4025
68.713 2013 44.8665
68.8302 1941 44.0568
68.9473 1716 41.4246
69.0643 1619 40.2368
69.1814 1594 39.9249
69.2984 1628 40.3485
69.4154 1759 41.9404
69.5323 1775 42.1307
69.6492 1904 43.6348
69.7661 2021 44.9555
69.8829 1980 44.4972
69.9997 2077 45.5741
70.1165 1981 44.5084
70.2332 1966 44.3396
70.3499 1835 42.8369
70.4665 1736 41.6653
70.5831 1726 41.5452
70.6996 1598 39.975
70.8161 1498 38.704
70.9326 1335 36.5377
71.049 1264 35.5528
71.1653 1011 31.7962
71.2817 865 29.4109
71.3979 860 29.3258
71.5141 814 28.5307
71.6303 813 28.5132
71.7464 732 27.0555
71.8624 0 1
71.9784 0 1
72.0944 0 1
72.2102 0 1
72.3261 0 1
72.4418 0 1
72.5575 0 1
72.6732 0 1
75.1054 0 1
75.2209 0 1
75.3365 0 1
75.4521 0 1
75.5678 0 1
75.6835 0 1
75.7993 0 1
75.9151 0 1
76.031 0 1
76.147 1348 36.7151
76.263 1333 36.5103
76.3791 1387 37.2424
76.4952 1325 36.4005
76.6113 1395 37.3497
76.7276 1530 39.1152
76.8438 1701 41.2432
76.9601 1804 42.4735
77.0765 1819 42.6497
77.1929 1899 43.5775
77.3093 1928 43.909
77.4258 1866 43.1972
77.5423 1884 43.4051
77.6589 1829 42.7668
77.7755 1606 40.0749
77.8921 1549 39.3573
78.0088 1451 38.092
78.1256 1345 36.6742
78.2423 1328 36.4417
78.3591 1470 38.3406
78.4759 1522 39.0128
78.5928 1637 40.4599
78.7097 1749 41.821
78.8266 1787 42.2729
78.9436 1870 43.2435
79.0606 1847 42.9767
79.1776 1861 43.1393
79.2946 1933 43.9659
79.4117 1882 43.382
79.5288 1857 43.0929
79.6459 1878 43.3359
79.7631 1775 42.1307
79.8802 1758 41.9285
79.9974 1629 40.3609
80.1147 1549 39.3573
80.2319 1528 39.0896
80.3491 1617 40.2119
80.4664 1637 40.4599
80.5837 1860 43.1277
80.701 1942 44.0681
80.8183 1928 43.909
80.9357 1970 44.3847
81.053 1858 43.1045
81.1704 2058 45.3652
81.2877 2007 44.7996
81.4051 1788 42.2847
81.5225 1803 42.4617
81.6399 1639 40.4846
81.7573 1394 37.3363
81.8747 1383 37.1887
81.9922 1319 36.318
82.1096 1540 39.2428
82.227 1689 41.0974
82.3444 1691 41.1218
82.4619 1722 41.497
82.5793 1878 43.3359
82.6967 1872 43.2666
82.8142 1939 44.0341
82.9316 2005 44.7772
83.049 1975 44.441
83.1664 1979 44.486
83.2838 1832 42.8019
83.4012 1821 42.6732
83.5186 1822 42.6849
83.636 1803 42.4617
83.7534 1644 40.5463
83.8708 1546 39.3192
83.9881 1499 38.7169
84.1055 1617 40.2119
84.2228 1791 42.3202
84.3401 1945 44.1022
84.4575 1893 43.5086
84.5747 2010 44.833
84.692 1977 44.4635
84.8093 1978 44.4747
84.9265 1936 44
85.0437 1791 42.3202
85.1609 1638 40.4722
85.2781 1595 39.9375
85.3952 1436 37.8946
85.5123 1348 36.7151
85.6294 1415 37.6165
85.7465 1565 39.5601
85.8636 1652 40.6448
85.9806 1809 42.5323
86.0976 1877 43.3244
86.2145 1901 43.6005
86.3315 1876 43.3128
86.4484 2067 45.4643
86.5652 1979 44.486
86.682 1974 44.4297
86.7988 1965 44.3283
86.9156 1934 43.9773
87.0323 1864 43.1741
87.149 1938 44.0227
87.2657 1808 42.5206
87.3823 1589 39.8623
87.4988 1435 37.8814
87.6154 1456 38.1576
87.7318 1343 36.647
87.8483 1504 38.7814
87.9647 1502 38.7556
88.081 1547 39.3319
88.1973 1523 39.0256
88.3136 1511 38.8716
88.4298 1465 38.2753
88.546 1375 37.081
88.6621 1099 33.1512
88.7781 922 30.3645
88.8942 0 1
89.0101 0 1
89.126 0 1
89.2419 0 1
89.3577 0 1
89.4734 0 1
89.5891 0 1
89.7047 0 1
89.8203 0 1
89.9358 0 1
92.3269 0 1
92.4424 0 1
92.558 0 1
92.6736 0 1
92.7893 0 1
92.905 0 1
93.0208 0 1
93.1366 0 1
93.2525 0 1
93.3685 0 1
93.4845 0 1
93.6005 1502 38.7556
93.7167 1663 40.7799
93.8328 1650 40.6202
93.949 1743 41.7493
94.0653 1853 43.0465
94.1816 1681 41
94.2979 1684 41.0366
94.4143 1528 39.0896
94.5307 1414 37.6032
94.6472 1404 37.47
94.7637 1464 38.2623
94.8803 1519 38.9744
94.9969 1715 41.4126
95.1135 1769 42.0595
95.2302 1910 43.7035
95.3469 1877 43.3244
95.4637 1993 44.643
95.5805 2003 44.7549
95.6973 2011 44.8442
95.8142 2048 45.2548
95.9311 2003 44.7549
96.048 2098 45.8039
96.1649 1871 43.2551
96.2819 1905 43.6463
96.3989 1895 43.5316
96.516 1754 41.8808
96.633 1761 41.9643
96.7501 1654 40.6694
96.8673 1620 40.2492
96.9844 1727 41.5572
97.1016 1855 43.0697
97.2188 1902 43.6119
97.336 2023 44.9778
97.4532 2019 44.9333
97.5704 2074 45.5412
97.6877 2050 45.2769
97.805 2012 44.8553
97.9223 1818 42.638
98.0396 1604 40.05
98.1569 1550 39.37
98.2743 1470 38.3406
98.3916 1386 37.229
98.509 1513 38.8973
98.6264 1754 41.8808
98.7438 1825 42.72
98.8612 1901 43.6005
98.9786 1972 44.4072
99.096 2010 44.833
99.2134 2117 46.0109
99.3308 2068 45.4753
99.4482 2098 45.8039
99.5656 2160 46.4758
99.6831 2068 45.4753
99.8005 2146 46.3249
99.9179 2022 44.9667
100.035 1946 44.1135
100.153 1854 43.0581
100.27 1710 41.3521
100.388 1795 42.3674
100.505 1890 43.4741
100.622 1929 43.9204
100.74 2053 45.31
100.857 2075 45.5522
100.975 2131 46.1628
101.092 2239 47.3181
101.209 2198 46.8828
101.327 2123 46.076
101.444 2097 45.793
101.561 1870 43.2435
101.679 1749 41.821
101.796 1572 39.6485
101.913 1513 38.8973
102.03 1522 39.0128
102.148 1714 41.4005
102.265 1831 42.7902
102.382 2075 45.5522
102.499 2078 45.5851
102.616 2177 46.6583
102.733 2219 47.1063
102.851 2152 46.3897
102.968 2239 47.3181
103.085 2125 46.0977
103.202 2183 46.7226
103.319 2150 46.3681
103.436 2171 46.594
103.552 2067 45.4643
103.669 2036 45.1221
103.786 1844 42.9418
103.903 1832 42.8019
104.02 1866 43.1972
104.137 1995 44.6654
104.253 2084 45.6508
104.37 2289 47.8435
104.487 2339 48.3632
104.603 2344 48.4149
104.72 2326 48.2286
104.836 2098 45.8039
104.953 1966 44.3396
105.069 1808 42.5206
105.186 1576 39.6989
105.302 1459 38.1969
105.418 1344 36.6606
105.535 1377 37.108
105.651 1479 38.4578
105.767 1401 37.4299
105.883 1389 37.2693
105.999 1378 37.1214
106.115 0 1
106.231 0 1
106.347 0 1
106.463 0 1
106.579 0 1
106.694 0 1
106.81 0 1
106.926 0 1
107.041 0 1
107.157 0 1
109.576 0 1
109.692 0 1
109.807 0 1
109.923 0 1
110.039 0 1
110.155 0 1
110.27 0 1
110.386 0 1
110.502 0 1
110.618 971 31.1609
110.735 1182 34.3802
110.851 1405 37.4833
110.967 1589 39.8623
111.083 1718 41.4488
111.199 1804 42.4735
111.316 2020 44.9444
111.432 2049 45.2659
111.549 1997 44.6878
111.665 1976 44.4522
111.782 2036 45.1221
111.898 2014 44.8776
112.015 1866 43.1972
112.132 1942 44.0681
112.248 1807 42.5088
112.365 1749 41.821
112.482 1682 41.0122
112.599 1884 43.4051
112.716 1850 43.0116
112.832 2051 45.288
112.949 2097 45.793
113.066 2109 45.9239
113.183 2141 46.2709
113.3 2177 46.6583
113.417 2067 45.4643
113.534 1987 44.5758
113.652 1727 41.5572
113.769 1574 39.6737
113.886 1497 38.6911
114.003 1429 37.8021
114.12 1541 39.2556
114.238 1708 41.328
114.355 1787 42.2729
114.472 1802 42.45
114.589 2061 45.3982
114.707 2139 46.2493
114.824 2005 44.7772
114.942 2117 46.0109
115.059 2088 45.6946
115.176 2078 45.5851
115.294 2064 45.4313
115.411 2049 45.2659
115.529 2047 45.2438
115.646 1952 44.1814
115.764 1895 43.5316
115.881 1777 42.1545
115.999 1760 41.9524
116.116 1766 42.0238
116.234 1874 43.2897
116.351 1932 43.9545
116.469 2102 45.8476
116.586 2117 46.0109
116.704 2087 45.6837
116.821 2144 46.3033
116.939 2092 45.7384
117.056 2078 45.5851
117.174 1819 42.6497
117.291 1660 40.7431
117.409 1577 39.7115
117.526 1480 38.4708
117.644 1501 38.7427
117.761 1598 39.975
117.879 1734 41.6413
117.996 1883 43.3935
118.114 1845 42.9535
118.231 2039 45.1553
118.349 2041 45.1774
118.466 2034 45.0999
118.584 2061 45.3982
118.701 2077 45.5741
118.819 2026 45.0111
118.936 1933 43.9659
119.053 1960 44.2719
119.171 1891 43.4856
119.288 1941 44.0568
119.405 1795 42.3674
119.523 1667 40.8289
119.64 1645 40.5586
119.757 1680 40.9878
119.875 1770 42.0714
119.992 1845 42.9535
120.109 1975 44.441
120.226 1980 44.4972
120.343 1994 44.6542
120.46 1910 43.7035
120.578 1953 44.1928
120.695 1946 44.1135
120.812 1850 43.0116
120.929 1637 40.4599
121.046 1574 39.6737
121.163 1389 37.2693
121.279 1399 37.4032
121.396 1385 37.2156
121.513 1505 38.7943
121.63 1520 38.9872
121.747 1576 39.6989
121.863 1646 40.5709
121.98 1619 40.2368
122.097 1520 38.9872
122.213 1611 40.1373
122.33 1588 39.8497
122.446 1519 38.9744
122.563 1434 37.8682
122.679 1323 36.3731
122.795 1184 34.4093
122.912 1137 33.7194
123.028 1051 32.4191
123.144 886 29.7658
123.26 820 28.6356
123.377 0 1
123.493 0 1
123.609 0 1
123.725 0 1
123.84 0 1
123.956 0 1
124.072 0 1
124.188 0 1
124.303 0 1
124.419 0 1
126.852 0 1
126.968 0 1
127.083 0 1
127.199 0 1
127.315 0 1
127.431 0 1
127.547 0 1
127.663 0 1
127.779 0 1
127.895 0 1
128.011 0 1
128.127 0 1
128.243 0 1
128.359 1915 43.7607
128.476 1871 43.2551
128.592 1914 43.7493
128.708 1891 43.4856
128.825 1893 43.5086
128.941 1908 43.6807
129.058 2114 45.9783
129.174 2040 45.1664
129.291 2116 46
129.408 2256 47.4974
129.524 2162 46.4973
129.641 2083 45.6399
129.758 2075 45.5522
129.875 1971 44.3959
129.992 1815 42.6028
130.108 1675 40.9268
130.225 1522 39.0128
130.342 1555 39.4335
130.459 1618 40.2244
130.576 1869 43.2319
130.693 1846 42.9651
130.81 1866 43.1972
130.928 1979 44.486
131.045 2093 45.7493
131.162 2060 45.3872
131.279 2138 46.2385
131.396 2114 45.9783
131.513 2106 45.8912
131.631 2073 45.5302
131.748 2032 45.0777
131.865 2003 44.7549
131.983 1911 43.715
132.1 1837 42.8602
132.217 1805 42.4853
132.335 1895 43.5316
132.452 2030 45.0555
132.57 2079 45.5961
132.687 2181 46.7012
132.804 2187 46.7654
132.922 2199 46.8935
133.039 2198 46.8828
133.157 2241 47.3392
133.274 2145 46.3141
133.392 2062 45.4093
133.509 1934 43.9773
133.627 1743 41.7493
133.744 1704 41.2795
133.862 1562 39.5221
133.979 1616 40.1995
134.097 1796 42.3792
134.214 1877 43.3244
134.332 1971 44.3959
134.449 2044 45.2106
134.567 2025 45
134.684 2113 45.9674
134.802 2093 45.7493
134.919 2157 46.4435
135.037 2213 47.0425
135.154 2112 45.9565
135.272 2045 45.2217
135.389 2021 44.9555
135.507 2035 45.111
135.624 2030 45.0555
135.742 1925 43.8748
135.859 1964 44.317
135.977 1988 44.587
136.094 2048 45.2548
136.211 2053 45.31
136.329 2137 46.2277
136.446 2254 47.4763
136.564 2311 48.0729
136.681 2191 46.8081
136.798 2154 46.4112
136.915 2201 46.9148
137.033 2042 45.1885
137.15 1894 43.5201
137.267 1761 41.9643
137.384 1670 40.8656
137.502 1537 39.2046
137.619 1600 40
137.736 1770 42.0714
137.853 1844 42.9418
137.97 1925 43.8748
138.087 2035 45.111
138.204 2023 44.9778
138.321 2111 45.9456
138.438 2087 45.6837
138.555 2178 46.669
138.672 2090 45.7165
138.788 2014 44.8776
138.905 1919 43.8064
139.022 1797 42.391
139.139 1803 42.4617
139.255 1679 40.9756
139.372 1517 38.9487
139.488 1479 38.4578
139.605 1396 37.3631
139.721 1475 38.4057
139.838 1410 37.55
139.954 1445 38.0132
140.071 1381 37.1618
140.187 1314 36.2491
140.303 1237 35.171
140.419 1226 35.0143
140.535 1097 33.121
140.652 1033 32.1403
140.768 0 1
140.884 0 1
141 0 1
141.115 0 1
141.231 0 1
141.347 0 1
141.463 0 1
141.578 0 1
141.694 0 1
144.104 0 1
144.219 0 1
144.335 0 1
144.45 0 1
144.566 0 1
144.682 0 1
144.798 0 1
144.914 0 1
145.03 0 1
145.146 1530 39.1152
145.262 1605 40.0625
145.378 1606 40.0749
145.494 1664 40.7922
145.61 1738 41.6893
145.726 1658 40.7185
145.842 1579 39.7366
145.959 1468 38.3145
146.075 1337 36.565
146.192 1337 36.565
146.308 1302 36.0832
146.425 1402 37.4433
146.541 1397 37.3765
146.658 1445 38.0132
146.774 1520 38.9872
146.891 1486 38.5487
147.008 1576 39.6989
147.125 1595 39.9375
147.241 1610 40.1248
147.358 1604 40.05
147.475 1594 39.9249
147.592 1665 40.8044
147.709 1569 39.6106
147.826 1542 39.2683
147.943 1490 38.6005
148.06 1528 39.0896
148.177 1479 38.4578
148.294 1505 38.7943
148.411 1544 39.2938
148.528 1533 39.1535
148.645 1603 40.0375
148.762 1627 40.3361
148.88 1722 41.497
148.997 1681 41
149.114 1641 40.5093
149.231 1728 41.5692
149.349 1649 40.6079
149.466 1560 39.4968
149.583 1585 39.8121
149.701 1434 37.8682
149.818 1395 37.3497
149.935 1305 36.1248
150.053 1299 36.0416
150.17 1319 36.318
150.287 1460 38.2099
150.405 1455 38.1445
150.522 1488 38.5746
150.64 1496 38.6782
150.757 1582 39.7744
150.875 1606 40.0749
150.992 1537 39.2046
151.11 1622 40.2741
151.227 1550 39.37
151.344 1505 38.7943
151.462 1481 38.4838
151.579 1465 38.2753
151.697 1438 37.921
151.814 1462 38.2361
151.932 1471 38.3536
152.049 1446 38.0263
152.167 1486 38.5487
152.284 1559 39.4842
152.402 1572 39.6485
152.519 1624 40.2989
152.636 1640 40.4969
152.754 1681 41
152.871 1616 40.1995
152.989 1605 40.0625
153.106 1545 39.3065
153.223 1502 38.7556
153.341 1327 36.428
153.458 1262 35.5246
153.575 1293 35.9583
153.693 1269 35.623
153.81 1343 36.647
153.927 1401 37.4299
154.044 1358 36.8511
154.162 1393 37.3229
154.279 1448 38.0526
154.396 1519 38.9744
154.513 1535 39.1791
154.63 1566 39.5727
154.747 1421 37.6962
154.864 1505 38.7943
154.981 1418 37.6563
155.098 1397 37.3765
155.215 1380 37.1484
155.332 1280 35.7771
155.449 1325 36.4005
155.566 1284 35.8329
155.683 1297 36.0139
155.8 1345 36.6742
155.917 1446 38.0263
156.033 1407 37.51
156.15 0 1
156.267 0 1
156.383 0 1
156.5 0 1
156.617 0 1
156.733 0 1
156.85 0 1
156.966 0 1
157.082 0 1
157.199 0 1
157.315 0 1
157.431 0 1
157.547 0 1
157.664 0 1
157.78 0 1
157.896 0 1
158.012 0 1
158.128 0 1
158.244 0 1
158.359 0 1
158.475 0 1
158.591 0 1
158.706 0 1
