
6.15755 0 1
6.2731 0 1
6.3887 0 1
6.50437 0 1
6.62009 0 1
6.73587 0 1
6.8517 0 1
6.96759 0 1
7.08353 0 1
7.19952 0 1
7.31557 0 1
7.43166 0 1
7.54781 0 1
7.664 0 1
7.78024 0 1
7.89653 0 1
8.01286 0 1
8.12924 0 1
8.24567 0 1
8.36213 0 1
8.47864 0 1
8.59519 0 1
8.71178 0 1
8.82841 0 1
8.94508 0 1
9.06179 0 1
9.17853 0 1
9.29531 0 1
9.41212 0 1
9.52897 0 1
9.64584 0 1
9.76276 0 1
9.8797 0 1
9.99667 0 1
10.1137 0 1
10.2307 0 1
10.3478 0 1
10.4648 0 1
10.5819 0 1
10.6991 0 1
10.8162 0 1
10.9334 0 1
11.0506 0 1
11.1678 0 1
11.285 0 1
11.4023 0 1
11.5196 0 1
11.6369 0 1
11.7542 0 1
11.8715 0 1
11.9888 0 1
12.1062 0 1
12.2235 0 1
12.3409 0 1
12.4582 0 1
12.5756 0 1
12.693 0 1
12.8104 0 1
12.9278 0 1
13.0452 0 1
13.1626 0 1
13.28 0 1
13.3974 0 1
13.5149 0 1
13.6323 0 1
13.7497 0 1
13.8671 0 1
13.9845 0 1
14.1019 0 1
14.2193 0 1
14.3367 0 1
14.4541 0 1
14.5714 0 1
14.6888 0 1
14.8062 0 1
14.9235 0 1
15.0408 1561 39.5095
15.1581 1605 40.0625
15.2755 1719 41.4608
15.3927 1753 41.8688
15.51 1686 41.0609
15.6273 1674 40.9145
15.7445 1707 41.3159
15.8617 1545 39.3065
15.9789 1561 39.5095
16.0961 1496 38.6782
16.2132 1558 39.4715
16.3304 1559 39.4842
16.4475 1442 37.9737
16.5646 1411 37.5633
16.6816 1430 37.8153
16.7986 1358 36.8511
16.9156 1405 37.4833
17.0326 1275 35.7071
17.1496 1296 36
17.2665 1305 36.1248
17.3833 1283 35.819
17.5002 1266 35.5809
17.617 1354 36.7967
17.7338 1367 36.973
17.8505 1371 37.027
17.9672 1426 37.7624
18.0839 1472 38.3667
18.2005 1428 37.7889
18.3171 1492 38.6264
18.4337 1535 39.1791
18.5502 1475 38.4057
18.6666 1500 38.7298
18.7831 1518 38.9615
18.8994 1602 40.025
19.0158 1501 38.7427
19.1321 1470 38.3406
19.2483 1384 37.2022
19.3645 1336 36.5513
19.4806 1313 36.2353
19.5967 1240 35.2136
19.7128 1192 34.5254
19.8288 1031 32.1092
19.9447 957 30.9354
20.0606 0 1
20.1764 0 1
20.2922 0 1
20.4079 0 1
20.5236 0 1
20.6392 0 1
20.7548 0 1
20.8702 0 1
23.3078 0 1
23.4233 0 1
23.539 0 1
23.6547 0 1
23.7704 0 1
23.8862 0 1
24.0021 0 1
24.118 0 1
24.234 0 1
24.35 0 1
24.4661 638 25.2587
24.5822 710 26.6458
24.6984 835 28.8964
24.8146 975 31.225
24.9309 1010 31.7805
25.0472 1130 33.6155
25.1636 1258 35.4683
25.28 1366 36.9594
25.3965 1434 37.8682
25.513 1468 38.3145
25.6296 1517 38.9487
25.7462 1531 39.128
25.8628 1587 39.8372
25.9795 1505 38.7943
26.0962 1501 38.7427
26.213 1486 38.5487
26.3298 1566 39.5727
26.4466 1458 38.1838
26.5635 1615 40.1871
26.6804 1527 39.0768
26.7973 1606 40.0749
26.9143 1563 39.5348
27.0313 1514 38.9102
27.1483 1553 39.4081
27.2653 1534 39.1663
27.3824 1614 40.1746
27.4996 1631 40.3856
27.6167 1591 39.8873
27.7339 1533 39.1535
27.8511 1568 39.598
27.9683 1518 38.9615
28.0855 1498 38.704
28.2028 1514 38.9102
28.3201 1433 37.855
28.4374 1489 38.5876
28.5547 1541 39.2556
28.6721 1497 38.6911
28.7894 1553 39.4081
28.9068 1596 39.95
29.0242 1536 39.1918
29.1416 1520 38.9872
29.259 1465 38.2753
29.3764 1500 38.7298
29.4939 1460 38.2099
29.6113 1464 38.2623
29.7288 1471 38.3536
29.8463 1463 38.2492
29.9638 1508 38.833
30.0812 1547 39.3319
30.1987 1514 38.9102
30.3162 1616 40.1995
30.4337 1552 39.3954
30.5512 1542 39.2683
30.6687 1523 39.0256
30.7862 1623 40.2865
30.9037 1643 40.5339
31.0212 1603 40.0375
31.1387 1634 40.4228
31.2562 1595 39.9375
31.3737 1623 40.2865
31.4912 1588 39.8497
31.6087 1577 39.7115
31.7262 1543 39.281
31.8436 1536 39.1918
31.9611 1593 39.9124
32.0785 1546 39.3192
32.1959 1559 39.4842
32.3134 1536 39.1918
32.4308 1610 40.1248
32.5482 1613 40.1622
32.6655 1525 39.0512
32.7829 1507 38.8201
32.9002 1488 38.5746
33.0176 1494 38.6523
33.1349 1515 38.923
33.2522 1523 39.0256
33.3694 1522 39.0128
33.4867 1472 38.3667
33.6039 1493 38.6394
33.7211 1577 39.7115
33.8383 1530 39.1152
33.9554 1580 39.7492
34.0725 1609 40.1123
34.1896 1547 39.3319
34.3067 1608 40.0999
34.4237 1630 40.3733
34.5407 1680 40.9878
34.6577 1652 40.6448
34.7746 1693 41.1461
34.8915 1714 41.4005
35.0084 1676 40.939
35.1252 1618 40.2244
35.242 1648 40.5956
35.3587 1568 39.598
35.4755 1569 39.6106
35.5921 1600 40
35.7088 1547 39.3319
35.8254 1568 39.598
35.9419 1514 38.9102
36.0584 1538 39.2173
36.1749 1620 40.2492
36.2913 1535 39.1791
36.4077 1456 38.1576
36.524 1408 37.5233
36.6403 1348 36.7151
36.7565 1214 34.8425
36.8727 1111 33.3317
36.9889 1036 32.187
37.1049 957 30.9354
37.221 0 1
37.3369 0 1
37.4529 0 1
37.5687 0 1
37.6845 0 1
37.8003 0 1
37.916 0 1
38.0316 0 1
38.1472 0 1
40.5851 0 1
40.7008 0 1
40.8164 0 1
40.9322 0 1
41.048 0 1
41.1639 0 1
41.2798 0 1
41.3958 0 1
41.5118 0 1
41.6279 0 1
41.744 828 28.775
41.8602 901 30.0167
41.9765 1103 33.2114
42.0928 1151 33.9264
42.2091 1147 33.8674
42.3255 1263 35.5387
42.4419 1338 36.5787
42.5584 1432 37.8418
42.675 1389 37.2693
42.7915 1406 37.4967
42.9081 1473 38.3797
43.0248 1495 38.6652
43.1415 1544 39.2938
43.2582 1527 39.0768
43.375 1666 40.8167
43.4918 1749 41.821
43.6087 1701 41.2432
43.7256 1800 42.4264
43.8425 1722 41.497
43.9595 1728 41.5692
44.0765 1797 42.391
44.1935 1761 41.9643
44.3106 1802 42.45
44.4277 1809 42.5323
44.5448 1853 43.0465
44.6619 1897 43.5546
44.7791 1911 43.715
44.8963 1929 43.9204
45.0136 1928 43.909
45.1308 2098 45.8039
45.2481 2133 46.1844
45.3654 2199 46.8935
45.4827 2067 45.4643
45.6001 2153 46.4004
45.7174 2171 46.594
45.8348 2205 46.9574
45.9522 2296 47.9166
46.0697 2305 48.0104
46.1871 2341 48.3839
46.3046 2335 48.3218
46.422 2286 47.8121
46.5395 2276 47.7074
46.657 2391 48.8979
46.7745 2421 49.2037
46.892 2478 49.7795
47.0096 2657 51.5461
47.1271 2830 53.1977
47.2446 2824 53.1413
47.3622 2840 53.2917
47.4797 2799 52.9056
47.5973 2681 51.7784
47.7149 2736 52.3068
47.8324 2718 52.1344
47.95 2745 52.3927
48.0675 2723 52.1824
48.1851 2631 51.2933
48.3027 2525 50.2494
48.4202 2464 49.6387
48.5378 2466 49.6588
48.6554 2542 50.4183
48.7729 2396 48.949
48.8904 2476 49.7594
49.008 2344 48.4149
49.1255 2292 47.8748
49.243 2163 46.5081
49.3605 2209 47
49.478 2178 46.669
49.5955 2155 46.422
49.713 2010 44.833
49.8304 1915 43.7607
49.9479 1923 43.852
50.0653 1886 43.4281
50.1827 1873 43.2782
50.3001 1943 44.0795
50.4175 1963 44.3058
50.5348 2029 45.0444
50.6521 2049 45.2659
50.7694 2004 44.7661
50.8867 1988 44.587
51.004 2066 45.4533
51.1212 2011 44.8442
51.2384 1940 44.0454
51.3556 1866 43.1972
51.4727 1907 43.6692
51.5899 1901 43.6005
51.707 1934 43.9773
51.824 1831 42.7902
51.9411 1854 43.0581
52.0581 1817 42.6263
52.175 1749 41.821
52.2919 1848 42.9884
52.4088 1769 42.0595
52.5257 1756 41.9047
52.6425 1696 41.1825
52.7593 1681 41
52.876 1628 40.3485
52.9927 1641 40.5093
53.1094 1633 40.4104
53.226 1638 40.4722
53.3426 1587 39.8372
53.4591 1491 38.6135
53.5756 1439 37.9342
53.692 1435 37.8814
53.8084 1402 37.4433
53.9248 1304 36.1109
54.0411 1187 34.4529
54.1573 1148 33.8821
54.2735 0 1
54.3896 0 1
54.5057 0 1
54.6217 0 1
54.7377 0 1
54.8537 0 1
54.9695 0 1
55.0853 0 1
55.2011 0 1
55.3168 0 1
55.4324 0 1
57.824 0 1
57.9396 0 1
58.0553 0 1
58.1711 0 1
58.2869 0 1
58.4028 0 1
58.5187 0 1
58.6347 0 1
58.7508 0 1
58.8669 0 1
58.983 1569 39.6106
59.0992 1615 40.1871
59.2155 1860 43.1277
59.3318 2000 44.7214
59.4482 2229 47.2123
59.5646 2426 49.2544
59.681 2478 49.7795
59.7975 2526 50.2593
59.9141 2523 50.2295
60.0306 2546 50.4579
60.1473 2422 49.2138
60.2639 2511 50.1099
60.3807 2487 49.8698
60.4974 2417 49.163
60.6142 2383 48.816
60.731 2358 48.5592
60.8479 2348 48.4562
60.9648 2322 48.1871
61.0818 2310 48.0625
61.1987 2363 48.6107
61.3158 2322 48.1871
61.4328 2337 48.3425
61.5499 2354 48.518
61.667 2272 47.6655
61.7841 2393 48.9183
61.9013 2259 47.5289
62.0185 2235 47.2758
62.1357 2269 47.634
62.253 2329 48.2597
62.3702 2402 49.0102
62.4875 2574 50.7346
62.6049 2599 50.9804
62.7222 2714 52.0961
62.8396 2912 53.963
62.9569 2838 53.2729
63.0743 2826 53.1601
63.1918 2888 53.7401
63.3092 2910 53.9444
63.4267 2833 53.2259
63.5441 2697 51.9326
63.6616 2676 51.7301
63.7791 2690 51.8652
63.8966 2582 50.8134
64.0142 2589 50.8822
64.1317 2540 50.3984
64.2492 2583 50.8232
64.3668 2421 49.2037
64.4843 2482 49.8197
64.6019 2406 49.051
64.7195 2479 49.7896
64.837 2473 49.7293
64.9546 2421 49.2037
65.0722 2429 49.2849
65.1898 2406 49.051
65.3074 2477 49.7695
65.4249 2431 49.3052
65.5425 2345 48.4252
65.6601 2320 48.1664
65.7777 2295 47.9062
65.8952 2473 49.7293
66.0128 2548 50.4777
66.1304 2663 51.6043
66.2479 2685 51.817
66.3655 2881 53.6749
66.483 3007 54.8361
66.6005 2910 53.9444
66.718 3044 55.1725
66.8355 3029 55.0364
66.953 3042 55.1543
67.0705 2851 53.3948
67.1879 2829 53.1883
67.3054 2734 52.2877
67.4228 2642 51.4004
67.5402 2586 50.8527
67.6576 2576 50.7543
67.7749 2566 50.6557
67.8923 2533 50.3289
68.0096 2534 50.3389
68.1269 2505 50.05
68.2442 2431 49.3052
68.3614 2495 49.95
68.4787 2459 49.5883
68.5958 2524 50.2394
68.713 2570 50.6952
68.8302 2461 49.6085
68.9473 2342 48.3942
69.0643 2444 49.4368
69.1814 2252 47.4552
69.2984 2303 47.9896
69.4154 2301 47.9687
69.5323 2276 47.7074
69.6492 2542 50.4183
69.7661 2592 50.9117
69.8829 2619 51.1762
69.9997 2683 51.7977
70.1165 2729 52.2398
70.2332 2624 51.225
70.3499 2590 50.892
70.4665 2406 49.051
70.5831 2224 47.1593
70.6996 2035 45.111
70.8161 1854 43.0581
70.9326 1692 41.1339
71.049 1548 39.3446
71.1653 1436 37.8946
71.2817 1320 36.3318
71.3979 1316 36.2767
71.5141 1233 35.1141
71.6303 1117 33.4215
71.7464 1010 31.7805
71.8624 0 1
71.9784 0 1
72.0944 0 1
72.2102 0 1
72.3261 0 1
72.4418 0 1
72.5575 0 1
72.6732 0 1
75.1054 0 1
75.2209 0 1
75.3365 0 1
75.4521 0 1
75.5678 0 1
75.6835 0 1
75.7993 0 1
75.9151 0 1
76.031 0 1
76.147 1929 43.9204
76.263 2227 47.1911
76.3791 2185 46.744
76.4952 2231 47.2335
76.6113 2265 47.592
76.7276 2264 47.5815
76.8438 2277 47.7179
76.9601 2378 48.7647
77.0765 2388 48.8672
77.1929 2316 48.1248
77.3093 2501 50.01
77.4258 2578 50.774
77.5423 2541 50.4083
77.6589 2517 50.1697
77.7755 2528 50.2792
77.8921 2494 49.94
78.0088 2381 48.7955
78.1256 2309 48.0521
78.2423 2287 47.8226
78.3591 2242 47.3498
78.4759 2372 48.7032
78.5928 2519 50.1896
78.7097 2740 52.345
78.8266 2739 52.3355
78.9436 2936 54.1849
79.0606 2878 53.647
79.1776 2969 54.4885
79.2946 3066 55.3715
79.4117 3208 56.6392
79.5288 3155 56.1694
79.6459 3099 55.6687
79.7631 2965 54.4518
79.8802 2914 53.9815
79.9974 2818 53.0848
80.1147 2654 51.517
80.2319 2744 52.3832
80.3491 2697 51.9326
80.4664 2767 52.6023
80.5837 2690 51.8652
80.701 2786 52.7826
80.8183 2780 52.7257
80.9357 2755 52.4881
81.053 2770 52.6308
81.1704 2863 53.507
81.2877 2781 52.7352
81.4051 2861 53.4883
81.5225 2759 52.5262
81.6399 2757 52.5071
81.7573 2592 50.9117
81.8747 2559 50.5866
81.9922 2448 49.4773
82.1096 2506 50.06
82.227 2753 52.469
82.3444 2917 54.0093
82.4619 3098 55.6597
82.5793 3217 56.7186
82.6967 3287 57.3324
82.8142 3334 57.7408
82.9316 3364 58
83.049 3423 58.5064
83.1664 3458 58.8048
83.2838 3399 58.3009
83.4012 3265 57.1402
83.5186 3156 56.1783
83.636 3116 55.8211
83.7534 2998 54.754
83.8708 3059 55.3082
83.9881 3039 55.1271
84.1055 3067 55.3805
84.2228 3026 55.0091
84.3401 3055 55.2721
84.4575 3017 54.9272
84.5747 3232 56.8507
84.692 3221 56.7539
84.8093 3322 57.6368
84.9265 3159 56.205
85.0437 3166 56.2672
85.1609 3206 56.6216
85.2781 2872 53.591
85.3952 2732 52.2685
85.5123 2704 52
85.6294 2695 51.9134
85.7465 2895 53.8052
85.8636 3109 55.7584
85.9806 3213 56.6833
86.0976 3381 58.1464
86.2145 3556 59.6322
86.3315 3574 59.7829
86.4484 3685 60.7042
86.5652 3771 61.4085
86.682 3745 61.1964
86.7988 3598 59.9833
86.9156 3666 60.5475
87.0323 3548 59.5651
87.149 3368 58.0345
87.2657 3380 58.1378
87.3823 3265 57.1402
87.4988 3134 55.9821
87.6154 3054 55.263
87.7318 2813 53.0377
87.8483 2739 52.3355
87.9647 2511 50.1099
88.081 2396 48.949
88.1973 2412 49.1121
88.3136 2217 47.085
88.4298 1993 44.643
88.546 1892 43.4971
88.6621 1804 42.4735
88.7781 1419 37.6696
88.8942 0 1
89.0101 0 1
89.126 0 1
89.2419 0 1
89.3577 0 1
89.4734 0 1
89.5891 0 1
89.7047 0 1
89.8203 0 1
89.9358 0 1
92.3269 0 1
92.4424 0 1
92.558 0 1
92.6736 0 1
92.7893 0 1
92.905 0 1
93.0208 0 1
93.1366 0 1
93.2525 0 1
93.3685 0 1
93.4845 0 1
93.6005 2818 53.0848
93.7167 3250 57.0088
93.8328 3491 59.0847
93.949 3650 60.4152
94.0653 3748 61.2209
94.1816 3694 60.7783
94.2979 3743 61.1801
94.4143 3632 60.2661
94.5307 3458 58.8048
94.6472 3282 57.2887
94.7637 3255 57.0526
94.8803 3361 57.9741
94.9969 3457 58.7963
95.1135 3781 61.4898
95.2302 3874 62.2415
95.3469 4150 64.4205
95.4637 4328 65.7875
95.5805 4237 65.0922
95.6973 4429 66.5507
95.8142 4406 66.3777
95.9311 4431 66.5658
96.048 4291 65.5057
96.1649 4274 65.3758
96.2819 4167 64.5523
96.3989 4141 64.3506
96.516 3901 62.458
96.633 4009 63.3167
96.7501 3976 63.0555
96.8673 4085 63.914
96.9844 3979 63.0793
97.1016 3923 62.6339
97.2188 3847 62.0242
97.336 4024 63.435
97.4532 4228 65.0231
97.5704 4261 65.2763
97.6877 4257 65.2457
97.805 4355 65.9924
97.9223 4107 64.0859
98.0396 4039 63.5531
98.1569 3657 60.4731
98.2743 3384 58.1722
98.3916 3417 58.4551
98.509 3454 58.7707
98.6264 3588 59.8999
98.7438 3889 62.3618
98.8612 4114 64.1405
98.9786 4325 65.7647
99.096 4626 68.0147
99.2134 4577 67.6535
99.3308 4732 68.7895
99.4482 4701 68.5638
99.5656 4793 69.2315
99.6831 4825 69.4622
99.8005 4621 67.9779
99.9179 4617 67.9485
100.035 4397 66.3099
100.153 4384 66.2118
100.27 4371 66.1135
100.388 4330 65.8027
100.505 4292 65.5134
100.622 4306 65.6201
100.74 4299 65.5668
100.857 4223 64.9846
100.975 4308 65.6354
101.092 4465 66.8207
101.209 4581 67.6831
101.327 4643 68.1396
101.444 4523 67.2533
101.561 4285 65.4599
101.679 4215 64.923
101.796 3836 61.9355
101.913 3736 61.1228
102.03 3611 60.0916
102.148 3743 61.1801
102.265 4000 63.2456
102.382 4402 66.3476
102.499 4693 68.5055
102.616 4809 69.347
102.733 5134 71.6519
102.851 4985 70.6045
102.968 4870 69.7854
103.085 5120 71.5542
103.202 5252 72.4707
103.319 4992 70.6541
103.436 4896 69.9714
103.552 4738 68.8331
103.669 4657 68.2422
103.786 4619 67.9632
103.903 4541 67.3869
104.02 4499 67.0746
104.137 4450 66.7083
104.253 4407 66.3852
104.37 4592 67.7643
104.487 4578 67.6609
104.603 4646 68.1616
104.72 4511 67.164
104.836 4496 67.0522
104.953 4083 63.8984
105.069 3796 61.6117
105.186 3405 58.3524
105.302 3190 56.4801
105.418 2837 53.2635
105.535 2515 50.1498
105.651 2396 48.949
105.767 2260 47.5395
105.883 2251 47.4447
105.999 2200 46.9042
106.115 0 1
106.231 0 1
106.347 0 1
106.463 0 1
106.579 0 1
106.694 0 1
106.81 0 1
106.926 0 1
107.041 0 1
107.157 0 1
109.576 0 1
109.692 0 1
109.807 0 1
109.923 0 1
110.039 0 1
110.155 0 1
110.27 0 1
110.386 0 1
110.502 0 1
110.618 1993 44.643
110.735 2418 49.1732
110.851 2844 53.3292
110.967 3137 56.0089
111.083 3641 60.3407
111.199 3913 62.554
111.316 4083 63.8984
111.432 4169 64.5678
111.549 4216 64.9307
111.665 4202 64.8228
111.782 4164 64.5291
111.898 4170 64.5755
112.015 4048 63.6239
112.132 3926 62.6578
112.248 3919 62.6019
112.365 3773 61.4248
112.482 3749 61.2291
112.599 3692 60.7618
112.716 3855 62.0886
112.832 3576 59.7997
112.949 3579 59.8247
113.066 3706 60.8769
113.183 3785 61.5224
113.3 3703 60.8523
113.417 3798 61.6279
113.534 3705 60.8687
113.652 3633 60.2744
113.769 3450 58.7367
113.886 3226 56.7979
114.003 2940 54.2218
114.12 2984 54.626
114.238 3021 54.9636
114.355 3196 56.5332
114.472 3400 58.3095
114.589 3888 62.3538
114.707 3965 62.9682
114.824 4139 64.3351
114.942 4028 63.4665
115.059 4072 63.8122
115.176 4196 64.7765
115.294 4041 63.5689
115.411 3972 63.0238
115.529 3881 62.2977
115.646 3736 61.1228
115.764 3703 60.8523
115.881 3651 60.4235
115.999 3502 59.1777
116.116 3512 59.2621
116.234 3482 59.0085
116.351 3463 58.8473
116.469 3468 58.8897
116.586 3443 58.6771
116.704 3533 59.439
116.821 3728 61.0574
116.939 3758 61.3025
117.056 3762 61.3351
117.174 3633 60.2744
117.291 3570 59.7495
117.409 3471 58.9152
117.526 3164 56.2494
117.644 3113 55.7943
117.761 2997 54.7449
117.879 3111 55.7763
117.996 3358 57.9483
118.114 3689 60.7371
118.231 3792 61.5792
118.349 4057 63.6946
118.466 4157 64.4748
118.584 4018 63.3877
118.701 4189 64.7225
118.819 4069 63.7887
118.936 3997 63.2218
119.053 3941 62.7774
119.171 3950 62.849
119.288 3817 61.7819
119.405 3854 62.0806
119.523 3605 60.0417
119.64 3553 59.607
119.757 3574 59.7829
119.875 3394 58.258
119.992 3423 58.5064
120.109 3458 58.8048
120.226 3494 59.1101
120.343 3333 57.7321
120.46 3512 59.2621
120.578 3522 59.3464
120.695 3606 60.05
120.812 3490 59.0762
120.929 3403 58.3352
121.046 3198 56.5509
121.163 3016 54.9181
121.279 2783 52.7541
121.396 2538 50.3786
121.513 2689 51.8556
121.63 2824 53.1413
121.747 2849 53.376
121.863 3060 55.3173
121.98 3253 57.0351
122.097 3013 54.8908
122.213 2997 54.7449
122.33 2729 52.2398
122.446 2677 51.7397
122.563 2455 49.548
122.679 2312 48.0833
122.795 2185 46.744
122.912 2017 44.911
123.028 1931 43.9431
123.144 1776 42.1426
123.26 1641 40.5093
123.377 0 1
123.493 0 1
123.609 0 1
123.725 0 1
123.84 0 1
123.956 0 1
124.072 0 1
124.188 0 1
124.303 0 1
124.419 0 1
126.852 0 1
126.968 0 1
127.083 0 1
127.199 0 1
127.315 0 1
127.431 0 1
127.547 0 1
127.663 0 1
127.779 0 1
127.895 0 1
128.011 0 1
128.127 0 1
128.243 0 1
128.359 3813 61.7495
128.476 3763 61.3433
128.592 3825 61.8466
128.708 3754 61.2699
128.825 3706 60.8769
128.941 3724 61.0246
129.058 3654 60.4483
129.174 3648 60.3987
129.291 3550 59.5819
129.408 3574 59.7829
129.524 3776 61.4492
129.641 3768 61.384
129.758 3737 61.131
129.875 3574 59.7829
129.992 3439 58.643
130.108 3336 57.7581
130.225 3434 58.6003
130.342 3321 57.6281
130.459 3046 55.1906
130.576 3064 55.3534
130.693 3029 55.0364
130.81 3331 57.7148
130.928 3500 59.1608
131.045 3779 61.4736
131.162 3865 62.1691
131.279 3797 61.6198
131.396 3864 62.1611
131.513 3880 62.2896
131.631 3684 60.696
131.748 3725 61.0328
131.865 3770 61.4003
131.983 3537 59.4727
132.1 3546 59.5483
132.217 3607 60.0583
132.335 3613 60.1082
132.452 3455 58.7792
132.57 3505 59.203
132.687 3549 59.5735
132.804 3332 57.7235
132.922 3481 59
133.039 3486 59.0424
133.157 3479 58.983
133.274 3493 59.1016
133.392 3371 58.0603
133.509 3329 57.6975
133.627 3347 57.8533
133.744 3221 56.7539
133.862 2932 54.1479
133.979 2896 53.8145
134.097 2835 53.2447
134.214 2944 54.2586
134.332 3059 55.3082
134.449 3205 56.6127
134.567 3466 58.8727
134.684 3624 60.1997
134.802 3558 59.649
134.919 3604 60.0333
135.037 3656 60.4649
135.154 3523 59.3549
135.272 3593 59.9416
135.389 3616 60.1332
135.507 3468 58.8897
135.624 3600 60
135.742 3583 59.8582
135.859 3460 58.8218
135.977 3454 58.7707
136.094 3464 58.8558
136.211 3324 57.6541
136.329 3386 58.1893
136.446 3316 57.5847
136.564 3337 57.7668
136.681 3384 58.1722
136.798 3335 57.7495
136.915 3375 58.0948
137.033 3342 57.81
137.15 3331 57.7148
137.267 3349 57.8705
137.384 3295 57.4021
137.502 2966 54.461
137.619 2913 53.9722
137.736 2702 51.9808
137.853 2669 51.6624
137.97 2975 54.5436
138.087 3138 56.0179
138.204 3343 57.8187
138.321 3448 58.7197
138.438 3328 57.6888
138.555 3488 59.0593
138.672 3444 58.6856
138.788 3200 56.5685
138.905 3100 55.6776
139.022 3023 54.9818
139.139 2935 54.1756
139.255 2887 53.7308
139.372 2684 51.8073
139.488 2500 50
139.605 2292 47.8748
139.721 2143 46.2925
139.838 2078 45.5851
139.954 2053 45.31
140.071 1943 44.0795
140.187 1735 41.6533
140.303 1661 40.7554
140.419 1587 39.8372
140.535 1481 38.4838
140.652 1485 38.5357
140.768 0 1
140.884 0 1
141 0 1
141.115 0 1
141.231 0 1
141.347 0 1
141.463 0 1
141.578 0 1
141.694 0 1
144.104 0 1
144.219 0 1
144.335 0 1
144.45 0 1
144.566 0 1
144.682 0 1
144.798 0 1
144.914 0 1
145.03 0 1
145.146 2425 49.2443
145.262 2670 51.672
145.378 2575 50.7445
145.494 2523 50.2295
145.61 2538 50.3786
145.726 2633 51.3128
145.842 2601 51
145.959 2660 51.5752
146.075 2629 51.2738
146.192 2592 50.9117
146.308 2482 49.8197
146.425 2320 48.1664
146.541 2264 47.5815
146.658 2356 48.5386
146.774 2237 47.2969
146.891 2507 50.07
147.008 2524 50.2394
147.125 2632 51.303
147.241 2794 52.8583
147.358 2860 53.479
147.475 2638 51.3615
147.592 2697 51.9326
147.709 2665 51.6236
147.826 2630 51.2835
147.943 2692 51.8845
148.06 2742 52.3641
148.177 2732 52.2685
148.294 2727 52.2207
148.411 2689 51.8556
148.528 2666 51.6333
148.645 2705 52.0096
148.762 2659 51.5655
148.88 2592 50.9117
148.997 2766 52.5928
149.114 2592 50.9117
149.231 2679 51.7591
149.349 2567 50.6656
149.466 2574 50.7346
149.583 2624 51.225
149.701 2502 50.02
149.818 2522 50.2195
149.935 2485 49.8498
150.053 2380 48.7852
150.17 2296 47.9166
150.287 2277 47.7179
150.405 2296 47.9166
150.522 2435 49.3457
150.64 2512 50.1199
150.757 2593 50.9215
150.875 2699 51.9519
150.992 2741 52.3546
151.11 2762 52.5547
151.227 2697 51.9326
151.344 2669 51.6624
151.462 2678 51.7494
151.579 2679 51.7591
151.697 2706 52.0192
151.814 2618 51.1664
151.932 2710 52.0577
152.049 2661 51.5849
152.167 2632 51.303
152.284 2600 50.9902
152.402 2682 51.788
152.519 2465 49.6488
152.636 2573 50.7247
152.754 2617 51.1566
152.871 2458 49.5782
152.989 2424 49.2341
153.106 2550 50.4975
153.223 2624 51.225
153.341 2549 50.4876
153.458 2482 49.8197
153.575 2360 48.5798
153.693 2268 47.6235
153.81 2278 47.7284
153.927 2208 46.9894
154.044 2290 47.8539
154.162 2371 48.6929
154.279 2427 49.2646
154.396 2623 51.2152
154.513 2526 50.2593
154.63 2690 51.8652
154.747 2725 52.2015
154.864 2640 51.3809
154.981 2501 50.01
155.098 2571 50.705
155.215 2590 50.892
155.332 2568 50.6754
155.449 2571 50.705
155.566 2511 50.1099
155.683 2546 50.4579
155.8 2447 49.4672
155.917 2281 47.7598
156.033 2314 48.1041
156.15 0 1
156.267 0 1
156.383 0 1
156.5 0 1
156.617 0 1
156.733 0 1
156.85 0 1
156.966 0 1
157.082 0 1
157.199 0 1
157.315 0 1
157.431 0 1
157.547 0 1
157.664 0 1
157.78 0 1
157.896 0 1
158.012 0 1
158.128 0 1
158.244 0 1
158.359 0 1
158.475 0 1
158.591 0 1
158.706 0 1
