
6.15755 0 1
6.2731 0 1
6.3887 0 1
6.50437 0 1
6.62009 0 1
6.73587 0 1
6.8517 0 1
6.96759 0 1
7.08353 0 1
7.19952 0 1
7.31557 0 1
7.43166 0 1
7.54781 0 1
7.664 0 1
7.78024 0 1
7.89653 0 1
8.01286 0 1
8.12924 0 1
8.24567 0 1
8.36213 0 1
8.47864 0 1
8.59519 0 1
8.71178 0 1
8.82841 0 1
8.94508 0 1
9.06179 0 1
9.17853 0 1
9.29531 0 1
9.41212 0 1
9.52897 0 1
9.64584 0 1
9.76276 0 1
9.8797 0 1
9.99667 0 1
10.1137 0 1
10.2307 0 1
10.3478 0 1
10.4648 0 1
10.5819 0 1
10.6991 0 1
10.8162 0 1
10.9334 0 1
11.0506 0 1
11.1678 0 1
11.285 0 1
11.4023 0 1
11.5196 0 1
11.6369 0 1
11.7542 0 1
11.8715 0 1
11.9888 0 1
12.1062 0 1
12.2235 0 1
12.3409 0 1
12.4582 0 1
12.5756 0 1
12.693 0 1
12.8104 0 1
12.9278 0 1
13.0452 0 1
13.1626 0 1
13.28 0 1
13.3974 0 1
13.5149 0 1
13.6323 0 1
13.7497 0 1
13.8671 0 1
13.9845 0 1
14.1019 0 1
14.2193 0 1
14.3367 0 1
14.4541 0 1
14.5714 0 1
14.6888 0 1
14.8062 0 1
14.9235 0 1
15.0408 0 0
15.1581 0 0
15.2755 0 0
15.3927 0 0
15.51 0 0
15.6273 0 0
15.7445 0 0
15.8617 0 0
15.9789 0 0
16.0961 0 0
16.2132 0 0
16.3304 0 0
16.4475 0 0
16.5646 0 0
16.6816 0 0
16.7986 0 0
16.9156 0 0
17.0326 0 0
17.1496 0 0
17.2665 0 0
17.3833 0 0
17.5002 0 0
17.617 0 0
17.7338 0 0
17.8505 0 0
17.9672 0 0
18.0839 0 0
18.2005 0 0
18.3171 0 0
18.4337 0 0
18.5502 0 0
18.6666 0 0
18.7831 0 0
18.8994 0 0
19.0158 0 0
19.1321 0 0
19.2483 0 0
19.3645 0 0
19.4806 0 0
19.5967 0 0
19.7128 0 0
19.8288 0 0
19.9447 0 0
20.0606 0 1
20.1764 0 1
20.2922 0 1
20.4079 0 1
20.5236 0 1
20.6392 0 1
20.7548 0 1
20.8702 0 1
23.3078 0 1
23.4233 0 1
23.539 0 1
23.6547 0 1
23.7704 0 1
23.8862 0 1
24.0021 0 1
24.118 0 1
24.234 0 1
24.35 0 1
24.4661 1596 39.95
24.5822 1554 39.4208
24.6984 1593 39.9124
24.8146 1479 38.4578
24.9309 1516 38.9358
25.0472 1454 38.1314
25.1636 1404 37.47
25.28 1510 38.8587
25.3965 1652 40.6448
25.513 1720 41.4729
25.6296 1746 41.7852
25.7462 1716 41.4246
25.8628 1724 41.5211
25.9795 1714 41.4005
26.0962 1752 41.8569
26.213 1760 41.9524
26.3298 1678 40.9634
26.4466 1677 40.9512
26.5635 1675 40.9268
26.6804 1583 39.7869
26.7973 1477 38.4318
26.9143 1599 39.9875
27.0313 1637 40.4599
27.1483 1632 40.398
27.2653 1788 42.2847
27.3824 1688 41.0853
27.4996 1669 40.8534
27.6167 1748 41.8091
27.7339 1706 41.3038
27.8511 1622 40.2741
27.9683 1658 40.7185
28.0855 1607 40.0874
28.2028 1572 39.6485
28.3201 1528 39.0896
28.4374 1371 37.027
28.5547 1393 37.3229
28.6721 1444 38
28.7894 1468 38.3145
28.9068 1458 38.1838
29.0242 1556 39.4462
29.1416 1579 39.7366
29.259 1677 40.9512
29.3764 1757 41.9166
29.4939 1622 40.2741
29.6113 1718 41.4488
29.7288 1673 40.9023
29.8463 1613 40.1622
29.9638 1581 39.7618
30.0812 1500 38.7298
30.1987 1580 39.7492
30.3162 1493 38.6394
30.4337 1473 38.3797
30.5512 1583 39.7869
30.6687 1632 40.398
30.7862 1698 41.2068
30.9037 1687 41.0731
31.0212 1692 41.1339
31.1387 1716 41.4246
31.2562 1680 40.9878
31.3737 1681 41
31.4912 1650 40.6202
31.6087 1576 39.6989
31.7262 1520 38.9872
31.8436 1495 38.6652
31.9611 1421 37.6962
32.0785 1348 36.7151
32.1959 1478 38.4448
32.3134 1465 38.2753
32.4308 1536 39.1918
32.5482 1535 39.1791
32.6655 1632 40.398
32.7829 1650 40.6202
32.9002 1766 42.0238
33.0176 1702 41.2553
33.1349 1642 40.5216
33.2522 1650 40.6202
33.3694 1665 40.8044
33.4867 1608 40.0999
33.6039 1637 40.4599
33.7211 1620 40.2492
33.8383 1520 38.9872
33.9554 1486 38.5487
34.0725 1506 38.8072
34.1896 1534 39.1663
34.3067 1602 40.025
34.4237 1676 40.939
34.5407 1734 41.6413
34.6577 1738 41.6893
34.7746 1693 41.1461
34.8915 1696 41.1825
35.0084 1689 41.0974
35.1252 1622 40.2741
35.242 1601 40.0125
35.3587 1587 39.8372
35.4755 1520 38.9872
35.5921 1481 38.4838
35.7088 1416 37.6298
35.8254 1442 37.9737
35.9419 1430 37.8153
36.0584 1413 37.5899
36.1749 1446 38.0263
36.2913 1563 39.5348
36.4077 1619 40.2368
36.524 1656 40.694
36.6403 1585 39.8121
36.7565 1647 40.5832
36.8727 1697 41.1947
36.9889 1593 39.9124
37.1049 1581 39.7618
37.221 0 1
37.3369 0 1
37.4529 0 1
37.5687 0 1
37.6845 0 1
37.8003 0 1
37.916 0 1
38.0316 0 1
38.1472 0 1
40.5851 0 1
40.7008 0 1
40.8164 0 1
40.9322 0 1
41.048 0 1
41.1639 0 1
41.2798 0 1
41.3958 0 1
41.5118 0 1
41.6279 0 1
41.744 1370 37.0135
41.8602 1389 37.2693
41.9765 1431 37.8286
42.0928 1354 36.7967
42.2091 1433 37.855
42.3255 1386 37.229
42.4419 1372 37.0405
42.5584 1239 35.1994
42.675 1296 36
42.7915 1291 35.9305
42.9081 1325 36.4005
43.0248 1351 36.756
43.1415 1372 37.0405
43.2582 1418 37.6563
43.375 1455 38.1445
43.4918 1504 38.7814
43.6087 1372 37.0405
43.7256 1463 38.2492
43.8425 1386 37.229
43.9595 1360 36.8782
44.0765 1302 36.0832
44.1935 1272 35.6651
44.3106 1237 35.171
44.4277 1185 34.4238
44.5448 1119 33.4515
44.6619 1039 32.2335
44.7791 1084 32.9242
44.8963 1092 33.0454
45.0136 1082 32.8938
45.1308 1198 34.6121
45.2481 1207 34.7419
45.3654 1240 35.2136
45.4827 1201 34.6554
45.6001 1211 34.7994
45.7174 1199 34.6266
45.8348 1216 34.8712
45.9522 1207 34.7419
46.0697 1117 33.4215
46.1871 1040 32.249
46.3046 1114 33.3766
46.422 1032 32.1248
46.5395 1016 31.8748
46.657 1185 34.4238
46.7745 1088 32.9848
46.892 1159 34.0441
47.0096 1167 34.1614
47.1271 1174 34.2637
47.2446 1125 33.541
47.3622 1090 33.0151
47.4797 1039 32.2335
47.5973 1056 32.4962
47.7149 986 31.4006
47.8324 1023 31.9844
47.95 907 30.1164
48.0675 849 29.1376
48.1851 768 27.7128
48.3027 807 28.4077
48.4202 865 29.4109
48.5378 948 30.7896
48.6554 990 31.4643
48.7729 1054 32.4654
48.8904 981 31.3209
49.008 1007 31.7333
49.1255 1038 32.218
49.243 1034 32.1559
49.3605 990 31.4643
49.478 1005 31.7017
49.5955 962 31.0161
49.713 947 30.7734
49.8304 905 30.0832
49.9479 916 30.2655
50.0653 1004 31.686
50.1827 1118 33.4365
50.3001 1080 32.8634
50.4175 1116 33.4066
50.5348 1120 33.4664
50.6521 1304 36.1109
50.7694 1255 35.426
50.8867 1252 35.3836
51.004 1264 35.5528
51.1212 1281 35.7911
51.2384 1302 36.0832
51.3556 1272 35.6651
51.4727 1203 34.6843
51.5899 1154 33.9706
51.707 1102 33.1964
51.824 1043 32.2955
51.9411 1176 34.2929
52.0581 1234 35.1283
52.175 1346 36.6879
52.2919 1437 37.9078
52.4088 1490 38.6005
52.5257 1475 38.4057
52.6425 1420 37.6829
52.7593 1468 38.3145
52.876 1509 38.8458
52.9927 1580 39.7492
53.1094 1493 38.6394
53.226 1554 39.4208
53.3426 1457 38.1707
53.4591 1418 37.6563
53.5756 1473 38.3797
53.692 1547 39.3319
53.8084 1657 40.7063
53.9248 1692 41.1339
54.0411 1720 41.4729
54.1573 1680 40.9878
54.2735 0 1
54.3896 0 1
54.5057 0 1
54.6217 0 1
54.7377 0 1
54.8537 0 1
54.9695 0 1
55.0853 0 1
55.2011 0 1
55.3168 0 1
55.4324 0 1
57.824 0 1
57.9396 0 1
58.0553 0 1
58.1711 0 1
58.2869 0 1
58.4028 0 1
58.5187 0 1
58.6347 0 1
58.7508 0 1
58.8669 0 1
58.983 2062 45.4093
59.0992 2068 45.4753
59.2155 2237 47.2969
59.3318 2136 46.2169
59.4482 2240 47.3286
59.5646 2233 47.2546
59.681 2137 46.2277
59.7975 2120 46.0435
59.9141 2059 45.3762
60.0306 1940 44.0454
60.1473 1851 43.0232
60.2639 1736 41.6653
60.3807 1627 40.3361
60.4974 1671 40.8779
60.6142 1616 40.1995
60.731 1840 42.8952
60.8479 1916 43.7721
60.9648 1929 43.9204
61.0818 2011 44.8442
61.1987 2143 46.2925
61.3158 2120 46.0435
61.4328 2082 45.6289
61.5499 1978 44.4747
61.667 1919 43.8064
61.7841 1898 43.566
61.9013 1865 43.1856
62.0185 1870 43.2435
62.1357 1916 43.7721
62.253 1965 44.3283
62.3702 2035 45.111
62.4875 2031 45.0666
62.6049 2085 45.6618
62.7222 2069 45.4863
62.8396 2186 46.7547
62.9569 2172 46.6047
63.0743 2191 46.8081
63.1918 2160 46.4758
63.3092 2159 46.465
63.4267 2008 44.8107
63.5441 1943 44.0795
63.6616 1833 42.8135
63.7791 1648 40.5956
63.8966 1569 39.6106
64.0142 1620 40.2492
64.1317 1681 41
64.2492 1777 42.1545
64.3668 1866 43.1972
64.4843 2015 44.8888
64.6019 2005 44.7772
64.7195 2088 45.6946
64.837 1975 44.441
64.9546 2111 45.9456
65.0722 2062 45.4093
65.1898 1991 44.6206
65.3074 1974 44.4297
65.4249 1755 41.8927
65.5425 1791 42.3202
65.6601 1852 43.0349
65.7777 1902 43.6119
65.8952 1932 43.9545
66.0128 2095 45.7712
66.1304 2049 45.2659
66.2479 2074 45.5412
66.3655 2178 46.669
66.483 2250 47.4342
66.6005 2212 47.0319
66.718 2220 47.1169
66.8355 2187 46.7654
66.953 2067 45.4643
67.0705 2120 46.0435
67.1879 1958 44.2493
67.3054 1794 42.3556
67.4228 1667 40.8289
67.5402 1568 39.598
67.6576 1657 40.7063
67.7749 1634 40.4228
67.8923 1847 42.9767
68.0096 2007 44.7996
68.1269 2179 46.6798
68.2442 2236 47.2864
68.3614 2217 47.085
68.4787 2260 47.5395
68.5958 2307 48.0312
68.713 2199 46.8935
68.8302 2206 46.9681
68.9473 2251 47.4447
69.0643 2064 45.4313
69.1814 2156 46.4327
69.2984 2083 45.6399
69.4154 2169 46.5725
69.5323 2173 46.6154
69.6492 2310 48.0625
69.7661 2481 49.8096
69.8829 2366 48.6415
69.9997 2399 48.9796
70.1165 2476 49.7594
70.2332 2576 50.7543
70.3499 2586 50.8527
70.4665 2524 50.2394
70.5831 2526 50.2593
70.6996 2614 51.1273
70.8161 2302 47.9792
70.9326 2139 46.2493
71.049 1975 44.441
71.1653 1726 41.5452
71.2817 1700 41.2311
71.3979 1689 41.0974
71.5141 1828 42.7551
71.6303 1965 44.3283
71.7464 1932 43.9545
71.8624 0 1
71.9784 0 1
72.0944 0 1
72.2102 0 1
72.3261 0 1
72.4418 0 1
72.5575 0 1
72.6732 0 1
75.1054 0 1
75.2209 0 1
75.3365 0 1
75.4521 0 1
75.5678 0 1
75.6835 0 1
75.7993 0 1
75.9151 0 1
76.031 0 1
76.147 2194 46.8402
76.263 2269 47.634
76.3791 2157 46.4435
76.4952 1923 43.852
76.6113 1853 43.0465
76.7276 2027 45.0222
76.8438 2122 46.0652
76.9601 2312 48.0833
77.0765 2604 51.0294
77.1929 2727 52.2207
77.3093 2829 53.1883
77.4258 2856 53.4416
77.5423 2896 53.8145
77.6589 2882 53.6843
77.7755 2709 52.0481
77.8921 2710 52.0577
78.0088 2733 52.2781
78.1256 2577 50.7642
78.2423 2467 49.6689
78.3591 2465 49.6488
78.4759 2529 50.2892
78.5928 2775 52.6783
78.7097 2888 53.7401
78.8266 3075 55.4527
78.9436 2887 53.7308
79.0606 3033 55.0727
79.1776 2979 54.5802
79.2946 3096 55.6417
79.4117 3077 55.4707
79.5288 3133 55.9732
79.6459 2934 54.1664
79.7631 2846 53.3479
79.8802 2727 52.2207
79.9974 2514 50.1398
80.1147 2252 47.4552
80.2319 2036 45.1221
80.3491 2099 45.8148
80.4664 2259 47.5289
80.5837 2600 50.9902
80.701 2797 52.8867
80.8183 2918 54.0185
80.9357 2940 54.2218
81.053 3072 55.4256
81.1704 2997 54.7449
81.2877 3192 56.4978
81.4051 3097 55.6507
81.5225 3144 56.0714
81.6399 2898 53.8331
81.7573 2820 53.1037
81.8747 2682 51.788
81.9922 2479 49.7896
82.1096 2679 51.7591
82.227 2782 52.7447
82.3444 2929 54.1202
82.4619 3081 55.5068
82.5793 2958 54.3875
82.6967 3198 56.5509
82.8142 3166 56.2672
82.9316 3177 56.3649
83.049 3114 55.8032
83.1664 3108 55.7494
83.2838 3102 55.6956
83.4012 2952 54.3323
83.5186 2768 52.6118
83.636 2656 51.5364
83.7534 2271 47.655
83.8708 2143 46.2925
83.9881 2093 45.7493
84.1055 2357 48.5489
84.2228 2528 50.2792
84.3401 2849 53.376
84.4575 3078 55.4797
84.5747 3241 56.9298
84.692 3247 56.9825
84.8093 3299 57.4369
84.9265 3354 57.9137
85.0437 3378 58.1206
85.1609 3215 56.701
85.2781 3174 56.3383
85.3952 2979 54.5802
85.5123 2954 54.3507
85.6294 2941 54.231
85.7465 3031 55.0545
85.8636 3304 57.4804
85.9806 3357 57.9396
86.0976 3677 60.6383
86.2145 3751 61.2454
86.3315 3627 60.2246
86.4484 3889 62.3618
86.5652 3963 62.9524
86.682 3868 62.1932
86.7988 3893 62.3939
86.9156 3871 62.2174
87.0323 3757 61.2944
87.149 3486 59.0424
87.2657 3200 56.5685
87.3823 2968 54.4794
87.4988 2813 53.0377
87.6154 2933 54.1572
87.7318 3345 57.836
87.8483 3692 60.7618
87.9647 3999 63.2376
88.081 4169 64.5678
88.1973 4315 65.6887
88.3136 4384 66.2118
88.4298 4347 65.9318
88.546 4464 66.8132
88.6621 4280 65.4217
88.7781 4183 64.6761
88.8942 0 1
89.0101 0 1
89.126 0 1
89.2419 0 1
89.3577 0 1
89.4734 0 1
89.5891 0 1
89.7047 0 1
89.8203 0 1
89.9358 0 1
92.3269 0 1
92.4424 0 1
92.558 0 1
92.6736 0 1
92.7893 0 1
92.905 0 1
93.0208 0 1
93.1366 0 1
93.2525 0 1
93.3685 0 1
93.4845 0 1
93.6005 4887 69.9071
93.7167 4919 70.1356
93.8328 4974 70.5266
93.949 5002 70.7248
94.0653 4852 69.6563
94.1816 4840 69.5701
94.2979 4793 69.2315
94.4143 4580 67.6757
94.5307 4536 67.3498
94.6472 4413 66.4304
94.7637 4501 67.0895
94.8803 4481 66.9403
94.9969 4753 68.942
95.1135 4953 70.3776
95.2302 5133 71.645
95.3469 5178 71.9583
95.4637 5287 72.7118
95.5805 5345 73.1095
95.6973 5430 73.6885
95.8142 5442 73.7699
95.9311 5368 73.2666
96.048 5190 72.0417
96.1649 5133 71.645
96.2819 4825 69.4622
96.3989 4540 67.3795
96.516 4215 64.923
96.633 3903 62.474
96.7501 3785 61.5224
96.8673 4038 63.5453
96.9844 4356 66
97.1016 4966 70.4699
97.2188 5296 72.7736
97.336 5658 75.2197
97.4532 5823 76.3086
97.5704 5711 75.5712
97.6877 5698 75.4851
97.805 5556 74.5386
97.9223 5414 73.5799
98.0396 5381 73.3553
98.1569 5095 71.3793
98.2743 5099 71.4073
98.3916 5062 71.1477
98.509 5192 72.0555
98.6264 5173 71.9236
98.7438 5480 74.027
98.8612 5798 76.1446
98.9786 5707 75.5447
99.096 5911 76.883
99.2134 6144 78.3837
99.3308 6061 77.8524
99.4482 6078 77.9615
99.5656 6129 78.2879
99.6831 5913 76.896
99.8005 5615 74.9333
99.9179 5530 74.364
100.035 5114 71.5122
100.153 4759 68.9855
100.27 4345 65.9166
100.388 4409 66.4003
100.505 4801 69.2892
100.622 5463 73.9121
100.74 5830 76.3544
100.857 6313 79.4544
100.975 6165 78.5175
101.092 6242 79.0063
101.209 6442 80.2621
101.327 6424 80.1499
101.444 6329 79.555
101.561 6082 77.9872
101.679 6297 79.3536
101.796 5831 76.361
101.913 5768 75.9474
102.03 5773 75.9803
102.148 5825 76.3217
102.265 6434 80.2122
102.382 6067 77.8909
102.499 6378 79.8624
102.616 6611 81.3081
102.733 6712 81.9268
102.851 6818 82.5712
102.968 7011 83.7317
103.085 6764 82.2435
103.202 6711 81.9207
103.319 6505 80.6536
103.436 6168 78.5366
103.552 5968 77.2528
103.669 5548 74.4849
103.786 4879 69.8498
103.903 5028 70.9084
104.02 5306 72.8423
104.137 5954 77.1622
104.253 6964 83.4506
104.37 6818 82.5712
104.487 7048 83.9524
104.603 7357 85.773
104.72 7216 84.947
104.836 7155 84.5872
104.953 7130 84.4393
105.069 6862 82.8372
105.186 6694 81.8169
105.302 6374 79.8373
105.418 6384 79.8999
105.535 6461 80.3803
105.651 6588 81.1665
105.767 6936 83.2827
105.883 6984 83.5703
105.999 7179 84.729
106.115 0 1
106.231 0 1
106.347 0 1
106.463 0 1
106.579 0 1
106.694 0 1
106.81 0 1
106.926 0 1
107.041 0 1
107.157 0 1
109.576 0 1
109.692 0 1
109.807 0 1
109.923 0 1
110.039 0 1
110.155 0 1
110.27 0 1
110.386 0 1
110.502 0 1
110.618 6010 77.5242
110.735 6257 79.1012
110.851 6488 80.5481
110.967 6555 80.963
111.083 6800 82.4621
111.199 6813 82.5409
111.316 6870 82.8855
111.432 6877 82.9277
111.549 6855 82.7949
111.665 6648 81.5353
111.782 6307 79.4166
111.898 6139 78.3518
112.015 5832 76.3675
112.132 5241 72.3948
112.248 4832 69.5126
112.365 4618 67.9559
112.482 4763 69.0145
112.599 5284 72.6911
112.716 5828 76.3413
112.832 6198 78.7274
112.949 6123 78.2496
113.066 6265 79.1518
113.183 6365 79.781
113.3 6161 78.492
113.417 6054 77.8075
113.534 5939 77.0649
113.652 5795 76.1249
113.769 5612 74.9133
113.886 5406 73.5255
114.003 5247 72.4362
114.12 5153 71.7844
114.238 5359 73.2052
114.355 5352 73.1574
114.472 5480 74.027
114.589 5633 75.0533
114.707 5647 75.1465
114.824 5676 75.3392
114.942 5839 76.4133
115.059 5887 76.7268
115.176 5714 75.591
115.294 5679 75.3591
115.411 5521 74.3034
115.529 5362 73.2257
115.646 4969 70.4911
115.764 4563 67.55
115.881 4036 63.5295
115.999 4010 63.3246
116.116 4606 67.8675
116.234 5020 70.852
116.351 5474 73.9865
116.469 5624 74.9933
116.586 5607 74.8799
116.704 5816 76.2627
116.821 5552 74.5117
116.939 5854 76.5114
117.056 5572 74.6458
117.174 5377 73.328
117.291 5388 73.403
117.409 5236 72.3602
117.526 4989 70.6329
117.644 5139 71.6868
117.761 5232 72.3326
117.879 5180 71.9722
117.996 5374 73.3076
118.114 5326 72.9794
118.231 5715 75.5976
118.349 5510 74.2294
118.466 5552 74.5117
118.584 5730 75.6968
118.701 5604 74.8599
118.819 5652 75.1798
118.936 5429 73.6817
119.053 5294 72.7599
119.171 5047 71.0422
119.288 4713 68.6513
119.405 4356 66
119.523 3985 63.1269
119.64 4050 63.6396
119.757 4320 65.7267
119.875 4836 69.5414
119.992 5150 71.7635
120.109 5364 73.2393
120.226 5457 73.8715
120.343 5487 74.0743
120.46 5305 72.8354
120.578 5561 74.5721
120.695 5199 72.1041
120.812 5311 72.8766
120.929 5204 72.1388
121.046 5022 70.8661
121.163 4946 70.3278
121.279 4686 68.4544
121.396 4900 70
121.513 4784 69.1665
121.63 5011 70.7884
121.747 5032 70.9366
121.863 5159 71.8262
121.98 5214 72.208
122.097 5240 72.3878
122.213 5212 72.1942
122.33 5370 73.2803
122.446 5183 71.9931
122.563 5229 72.3118
122.679 5209 72.1734
122.795 4905 70.0357
122.912 4648 68.1762
123.028 4511 67.164
123.144 4024 63.435
123.26 3766 61.3677
123.377 0 1
123.493 0 1
123.609 0 1
123.725 0 1
123.84 0 1
123.956 0 1
124.072 0 1
124.188 0 1
124.303 0 1
124.419 0 1
126.852 0 1
126.968 0 1
127.083 0 1
127.199 0 1
127.315 0 1
127.431 0 1
127.547 0 1
127.663 0 1
127.779 0 1
127.895 0 1
128.011 0 1
128.127 0 1
128.243 0 1
128.359 4468 66.8431
128.476 4117 64.1639
128.592 4147 64.3972
128.708 4482 66.9477
128.825 4954 70.3847
128.941 5360 73.212
129.058 5419 73.6139
129.174 5728 75.6836
129.291 5717 75.6108
129.408 5707 75.5447
129.524 5558 74.552
129.641 5394 73.4439
129.758 5314 72.8972
129.875 5261 72.5328
129.992 5162 71.8471
130.108 5151 71.7705
130.225 5123 71.5751
130.342 5115 71.5192
130.459 5012 70.7955
130.576 5295 72.7668
130.693 5239 72.3809
130.81 5276 72.6361
130.928 5362 73.2257
131.045 5412 73.5663
131.162 5382 73.3621
131.279 5485 74.0608
131.396 5400 73.4847
131.513 5352 73.1574
131.631 5146 71.7356
131.748 5027 70.9013
131.865 4590 67.7495
131.983 4186 64.6993
132.1 3982 63.1031
132.217 4135 64.304
132.335 4597 67.8012
132.452 4969 70.4911
132.57 5098 71.4003
132.687 5039 70.9859
132.804 5447 73.8038
132.922 5156 71.8053
133.039 5232 72.3326
133.157 5159 71.8262
133.274 5038 70.9789
133.392 4919 70.1356
133.509 4859 69.7065
133.627 4939 70.278
133.744 4803 69.3037
133.862 4713 68.6513
133.979 4728 68.7605
134.097 4802 69.2965
134.214 5066 71.1758
134.332 4838 69.5557
134.449 5094 71.3723
134.567 4997 70.6895
134.684 5004 70.739
134.802 4990 70.6399
134.919 5071 71.211
135.037 5031 70.9295
135.154 4956 70.3989
135.272 4809 69.347
135.389 4523 67.2533
135.507 4174 64.6065
135.624 3824 61.8385
135.742 3785 61.5224
135.859 3982 63.1031
135.977 4431 66.5658
136.094 4863 69.7352
136.211 4807 69.3325
136.329 5068 71.1899
136.446 5023 70.8731
136.564 5029 70.9154
136.681 5147 71.7426
136.798 5030 70.9225
136.915 4982 70.5833
137.033 4803 69.3037
137.15 4666 68.3081
137.267 4666 68.3081
137.384 4677 68.3886
137.502 4637 68.0955
137.619 4704 68.5857
137.736 4727 68.7532
137.853 4744 68.8767
137.97 4776 69.1086
138.087 4860 69.7137
138.204 4815 69.3902
138.321 4793 69.2315
138.438 4893 69.95
138.555 4869 69.7782
138.672 4856 69.685
138.788 4834 69.527
138.905 4792 69.2243
139.022 4483 66.9552
139.139 4142 64.3584
139.255 3899 62.442
139.372 3868 62.1932
139.488 4046 63.6082
139.605 4297 65.5515
139.721 4601 67.8307
139.838 4905 70.0357
139.954 4931 70.2211
140.071 4959 70.4202
140.187 4894 69.9571
140.303 4915 70.1071
140.419 4879 69.8498
140.535 4761 69
140.652 4668 68.3228
140.768 0 1
140.884 0 1
141 0 1
141.115 0 1
141.231 0 1
141.347 0 1
141.463 0 1
141.578 0 1
141.694 0 1
144.104 0 1
144.219 0 1
144.335 0 1
144.45 0 1
144.566 0 1
144.682 0 1
144.798 0 1
144.914 0 1
145.03 0 1
145.146 4258 65.2534
145.262 4273 65.3682
145.378 4134 64.2962
145.494 4147 64.3972
145.61 4033 63.5059
145.726 4047 63.616
145.842 3978 63.0714
145.959 3802 61.6604
146.075 3874 62.2415
146.192 3833 61.9112
146.308 3935 62.7296
146.425 4025 63.4429
146.541 3975 63.0476
146.658 3841 61.9758
146.774 4045 63.6003
146.891 3909 62.522
147.008 4000 63.2456
147.125 3966 62.9762
147.241 3999 63.2376
147.358 3965 62.9682
147.475 3839 61.9597
147.592 3567 59.7244
147.709 3414 58.4294
147.826 3194 56.5155
147.943 3012 54.8817
148.06 3300 57.4456
148.177 3557 59.6406
148.294 3658 60.4814
148.411 3770 61.4003
148.528 4001 63.2535
148.645 3852 62.0645
148.762 3869 62.2013
148.88 3867 62.1852
148.997 3766 61.3677
149.114 4064 63.7495
149.231 3808 61.709
149.349 3726 61.041
149.466 3603 60.025
149.583 3569 59.7411
149.701 3498 59.1439
149.818 3509 59.2368
149.935 3575 59.7913
150.053 3587 59.8916
150.17 3650 60.4152
150.287 3679 60.6548
150.405 3750 61.2372
150.522 3648 60.3987
150.64 3757 61.2944
150.757 3743 61.1801
150.875 3688 60.7289
150.992 3633 60.2744
151.11 3469 58.8982
151.227 3447 58.7112
151.344 3325 57.6628
151.462 2941 54.231
151.579 2913 53.9722
151.697 2977 54.5619
151.814 3309 57.5239
151.932 3520 59.3296
152.049 3734 61.1065
152.167 3804 61.6766
152.284 3742 61.1719
152.402 3716 60.959
152.519 3809 61.7171
152.636 3840 61.9677
152.754 3710 60.9098
152.871 3676 60.63
152.989 3583 59.8582
153.106 3433 58.5918
153.223 3635 60.291
153.341 3418 58.4637
153.458 3483 59.0169
153.575 3427 58.5406
153.693 3448 58.7197
153.81 3521 59.338
153.927 3660 60.4979
154.044 3629 60.2412
154.162 3717 60.9672
154.279 3693 60.7701
154.396 3783 61.5061
154.513 3779 61.4736
154.63 3635 60.291
154.747 3717 60.9672
154.864 3484 59.0254
154.981 3388 58.2065
155.098 3214 56.6922
155.215 3110 55.7674
155.332 3262 57.1139
155.449 3507 59.2199
155.566 3689 60.7371
155.683 3708 60.8933
155.8 3894 62.4019
155.917 3635 60.291
156.033 3791 61.5711
156.15 0 1
156.267 0 1
156.383 0 1
156.5 0 1
156.617 0 1
156.733 0 1
156.85 0 1
156.966 0 1
157.082 0 1
157.199 0 1
157.315 0 1
157.431 0 1
157.547 0 1
157.664 0 1
157.78 0 1
157.896 0 1
158.012 0 1
158.128 0 1
158.244 0 1
158.359 0 1
158.475 0 1
158.591 0 1
158.706 0 1
