
6.15755 0 1
6.2731 0 1
6.3887 0 1
6.50437 0 1
6.62009 0 1
6.73587 0 1
6.8517 0 1
6.96759 0 1
7.08353 0 1
7.19952 0 1
7.31557 0 1
7.43166 0 1
7.54781 0 1
7.664 0 1
7.78024 0 1
7.89653 0 1
8.01286 0 1
8.12924 0 1
8.24567 0 1
8.36213 0 1
8.47864 0 1
8.59519 0 1
8.71178 0 1
8.82841 0 1
8.94508 0 1
9.06179 0 1
9.17853 0 1
9.29531 0 1
9.41212 0 1
9.52897 0 1
9.64584 0 1
9.76276 0 1
9.8797 0 1
9.99667 0 1
10.1137 0 1
10.2307 0 1
10.3478 0 1
10.4648 0 1
10.5819 0 1
10.6991 0 1
10.8162 0 1
10.9334 0 1
11.0506 0 1
11.1678 0 1
11.285 0 1
11.4023 0 1
11.5196 0 1
11.6369 0 1
11.7542 0 1
11.8715 0 1
11.9888 0 1
12.1062 0 1
12.2235 0 1
12.3409 0 1
12.4582 0 1
12.5756 0 1
12.693 0 1
12.8104 0 1
12.9278 0 1
13.0452 0 1
13.1626 0 1
13.28 0 1
13.3974 0 1
13.5149 0 1
13.6323 0 1
13.7497 0 1
13.8671 0 1
13.9845 0 1
14.1019 0 1
14.2193 0 1
14.3367 0 1
14.4541 0 1
14.5714 0 1
14.6888 0 1
14.8062 0 1
14.9235 0 1
15.0408 0 0
15.1581 0 0
15.2755 0 0
15.3927 0 0
15.51 0 0
15.6273 0 0
15.7445 0 0
15.8617 0 0
15.9789 0 0
16.0961 0 0
16.2132 0 0
16.3304 0 0
16.4475 0 0
16.5646 0 0
16.6816 0 0
16.7986 0 0
16.9156 0 0
17.0326 0 0
17.1496 0 0
17.2665 0 0
17.3833 0 0
17.5002 0 0
17.617 0 0
17.7338 0 0
17.8505 0 0
17.9672 0 0
18.0839 0 0
18.2005 0 0
18.3171 0 0
18.4337 0 0
18.5502 0 0
18.6666 0 0
18.7831 0 0
18.8994 0 0
19.0158 0 0
19.1321 0 0
19.2483 0 0
19.3645 0 0
19.4806 0 0
19.5967 0 0
19.7128 0 0
19.8288 0 0
19.9447 0 0
20.0606 0 1
20.1764 0 1
20.2922 0 1
20.4079 0 1
20.5236 0 1
20.6392 0 1
20.7548 0 1
20.8702 0 1
23.3078 0 1
23.4233 0 1
23.539 0 1
23.6547 0 1
23.7704 0 1
23.8862 0 1
24.0021 0 1
24.118 0 1
24.234 0 1
24.35 0 1
24.4661 2373 48.7134
24.5822 2446 49.4571
24.6984 2597 50.9608
24.8146 2632 51.303
24.9309 2695 51.9134
25.0472 2672 51.6914
25.1636 2804 52.9528
25.28 2793 52.8488
25.3965 2749 52.4309
25.513 2723 52.1824
25.6296 2779 52.7162
25.7462 2672 51.6914
25.8628 2682 51.788
25.9795 2668 51.6527
26.0962 2503 50.03
26.213 2528 50.2792
26.3298 2514 50.1398
26.4466 2401 49
26.5635 2380 48.7852
26.6804 2410 49.0918
26.7973 2338 48.3529
26.9143 2353 48.5077
27.0313 2149 46.3573
27.1483 2137 46.2277
27.2653 2130 46.1519
27.3824 2095 45.7712
27.4996 2245 47.3814
27.6167 2120 46.0435
27.7339 2231 47.2335
27.8511 2287 47.8226
27.9683 2457 49.5681
28.0855 2523 50.2295
28.2028 2543 50.4282
28.3201 2540 50.3984
28.4374 2543 50.4282
28.5547 2393 48.9183
28.6721 2303 47.9896
28.7894 2343 48.4045
28.9068 2333 48.3011
29.0242 2276 47.7074
29.1416 2234 47.2652
29.259 2247 47.4025
29.3764 2084 45.6508
29.4939 2097 45.793
29.6113 2071 45.5082
29.7288 2129 46.1411
29.8463 2130 46.1519
29.9638 2134 46.1952
30.0812 2134 46.1952
30.1987 2144 46.3033
30.3162 2071 45.5082
30.4337 2138 46.2385
30.5512 1986 44.5646
30.6687 2077 45.5741
30.7862 2038 45.1442
30.9037 2118 46.0217
31.0212 2249 47.4236
31.1387 2276 47.7074
31.2562 2283 47.7807
31.3737 2352 48.4974
31.4912 2356 48.5386
31.6087 2368 48.6621
31.7262 2356 48.5386
31.8436 2312 48.0833
31.9611 2329 48.2597
32.0785 2269 47.634
32.1959 2123 46.076
32.3134 2012 44.8553
32.4308 1953 44.1928
32.5482 1861 43.1393
32.6655 1765 42.0119
32.7829 1915 43.7607
32.9002 1795 42.3674
33.0176 1757 41.9166
33.1349 1747 41.7971
33.2522 1625 40.3113
33.3694 1653 40.6571
33.4867 1816 42.6146
33.6039 1747 41.7971
33.7211 1762 41.9762
33.8383 1883 43.3935
33.9554 1904 43.6348
34.0725 1915 43.7607
34.1896 1985 44.5533
34.3067 1884 43.4051
34.4237 1882 43.382
34.5407 1918 43.795
34.6577 1865 43.1856
34.7746 1965 44.3283
34.8915 1755 41.8927
35.0084 1813 42.5793
35.1252 1906 43.6578
35.242 1862 43.1509
35.3587 1825 42.72
35.4755 1755 41.8927
35.5921 1776 42.1426
35.7088 1749 41.821
35.8254 1683 41.0244
35.9419 1667 40.8289
36.0584 1596 39.95
36.1749 1622 40.2741
36.2913 1589 39.8623
36.4077 1563 39.5348
36.524 1486 38.5487
36.6403 1471 38.3536
36.7565 1523 39.0256
36.8727 1556 39.4462
36.9889 1498 38.704
37.1049 1610 40.1248
37.221 0 1
37.3369 0 1
37.4529 0 1
37.5687 0 1
37.6845 0 1
37.8003 0 1
37.916 0 1
38.0316 0 1
38.1472 0 1
40.5851 0 1
40.7008 0 1
40.8164 0 1
40.9322 0 1
41.048 0 1
41.1639 0 1
41.2798 0 1
41.3958 0 1
41.5118 0 1
41.6279 0 1
41.744 1202 34.6699
41.8602 1257 35.4542
41.9765 1254 35.4119
42.0928 1234 35.1283
42.2091 1290 35.9166
42.3255 1254 35.4119
42.4419 1231 35.0856
42.5584 1183 34.3948
42.675 1218 34.8999
42.7915 1148 33.8821
42.9081 1154 33.9706
43.0248 1015 31.8591
43.1415 971 31.1609
43.2582 927 30.4467
43.375 994 31.5278
43.4918 988 31.4325
43.6087 958 30.9516
43.7256 912 30.1993
43.8425 913 30.2159
43.9595 999 31.607
44.0765 969 31.1288
44.1935 990 31.4643
44.3106 990 31.4643
44.4277 919 30.315
44.5448 952 30.8545
44.6619 909 30.1496
44.7791 941 30.6757
44.8963 956 30.9192
45.0136 910 30.1662
45.1308 937 30.6105
45.2481 1036 32.187
45.3654 936 30.5941
45.4827 1027 32.0468
45.6001 950 30.8221
45.7174 912 30.1993
45.8348 917 30.282
45.9522 821 28.6531
46.0697 840 28.9828
46.1871 810 28.4605
46.3046 782 27.9643
46.422 759 27.55
46.5395 665 25.7876
46.657 654 25.5734
46.7745 670 25.8844
46.892 643 25.3574
47.0096 668 25.8457
47.1271 683 26.1343
47.2446 697 26.4008
47.3622 660 25.6905
47.4797 617 24.8395
47.5973 622 24.9399
47.7149 644 25.3772
47.8324 614 24.779
47.95 662 25.7294
48.0675 645 25.3969
48.1851 638 25.2587
48.3027 681 26.096
48.4202 614 24.779
48.5378 678 26.0384
48.6554 698 26.4197
48.7729 686 26.1916
48.8904 686 26.1916
49.008 687 26.2107
49.1255 680 26.0768
49.243 715 26.7395
49.3605 636 25.219
49.478 655 25.593
49.5955 656 25.6125
49.713 672 25.923
49.8304 645 25.3969
49.9479 625 25
50.0653 597 24.4336
50.1827 609 24.6779
50.3001 584 24.1661
50.4175 537 23.1733
50.5348 591 24.3105
50.6521 627 25.04
50.7694 669 25.865
50.8867 687 26.2107
51.004 699 26.4386
51.1212 760 27.5681
51.2384 751 27.4044
51.3556 793 28.1603
51.4727 733 27.074
51.5899 805 28.3725
51.707 807 28.4077
51.824 797 28.2312
51.9411 856 29.2575
52.0581 793 28.1603
52.175 843 29.0345
52.2919 855 29.2404
52.4088 830 28.8097
52.5257 820 28.6356
52.6425 878 29.6311
52.7593 867 29.4449
52.876 857 29.2746
52.9927 842 29.0172
53.1094 871 29.5127
53.226 857 29.2746
53.3426 936 30.5941
53.4591 869 29.4788
53.5756 861 29.3428
53.692 852 29.189
53.8084 773 27.8029
53.9248 794 28.178
54.0411 740 27.2029
54.1573 758 27.5318
54.2735 0 1
54.3896 0 1
54.5057 0 1
54.6217 0 1
54.7377 0 1
54.8537 0 1
54.9695 0 1
55.0853 0 1
55.2011 0 1
55.3168 0 1
55.4324 0 1
57.824 0 1
57.9396 0 1
58.0553 0 1
58.1711 0 1
58.2869 0 1
58.4028 0 1
58.5187 0 1
58.6347 0 1
58.7508 0 1
58.8669 0 1
58.983 896 29.9333
59.0992 923 30.3809
59.2155 963 31.0322
59.3318 968 31.1127
59.4482 957 30.9354
59.5646 1017 31.8904
59.681 1013 31.8277
59.7975 1134 33.6749
59.9141 1098 33.1361
60.0306 1143 33.8083
60.1473 1185 34.4238
60.2639 1117 33.4215
60.3807 1091 33.0303
60.4974 1164 34.1174
60.6142 1227 35.0286
60.731 1250 35.3553
60.8479 1253 35.3977
60.9648 1285 35.8469
61.0818 1252 35.3836
61.1987 1286 35.8608
61.3158 1224 34.9857
61.4328 1224 34.9857
61.5499 1267 35.5949
61.667 1163 34.1028
61.7841 1231 35.0856
61.9013 1216 34.8712
62.0185 1279 35.7631
62.1357 1183 34.3948
62.253 1170 34.2053
62.3702 1173 34.2491
62.4875 1086 32.9545
62.6049 1102 33.1964
62.7222 1112 33.3467
62.8396 1183 34.3948
62.9569 1225 35
63.0743 1280 35.7771
63.1918 1237 35.171
63.3092 1303 36.0971
63.4267 1243 35.2562
63.5441 1332 36.4966
63.6616 1245 35.2846
63.7791 1373 37.054
63.8966 1286 35.8608
64.0142 1353 36.7831
64.1317 1349 36.7287
64.2492 1275 35.7071
64.3668 1342 36.6333
64.4843 1305 36.1248
64.6019 1355 36.8103
64.7195 1387 37.2424
64.837 1320 36.3318
64.9546 1279 35.7631
65.0722 1286 35.8608
65.1898 1304 36.1109
65.3074 1304 36.1109
65.4249 1247 35.3129
65.5425 1258 35.4683
65.6601 1224 34.9857
65.7777 1179 34.3366
65.8952 1156 34
66.0128 1102 33.1964
66.1304 1052 32.4345
66.2479 1029 32.078
66.3655 1006 31.7175
66.483 1042 32.28
66.6005 1098 33.1361
66.718 1048 32.3728
66.8355 1051 32.4191
66.953 1020 31.9374
67.0705 1137 33.7194
67.1879 1093 33.0606
67.3054 1135 33.6898
67.4228 1097 33.121
67.5402 1119 33.4515
67.6576 1134 33.6749
67.7749 1109 33.3017
67.8923 1126 33.5559
68.0096 1107 33.2716
68.1269 1150 33.9116
68.2442 1117 33.4215
68.3614 1123 33.5112
68.4787 1109 33.3017
68.5958 1084 32.9242
68.713 1029 32.078
68.8302 1032 32.1248
68.9473 1081 32.8786
69.0643 1110 33.3167
69.1814 1048 32.3728
69.2984 1004 31.686
69.4154 955 30.9031
69.5323 950 30.8221
69.6492 906 30.0998
69.7661 851 29.1719
69.8829 803 28.3373
69.9997 806 28.3901
70.1165 870 29.4958
70.2332 941 30.6757
70.3499 855 29.2404
70.4665 821 28.6531
70.5831 885 29.7489
70.6996 885 29.7489
70.8161 901 30.0167
70.9326 873 29.5466
71.049 874 29.5635
71.1653 856 29.2575
71.2817 867 29.4449
71.3979 853 29.2062
71.5141 887 29.7825
71.6303 852 29.189
71.7464 796 28.2135
71.8624 0 1
71.9784 0 1
72.0944 0 1
72.2102 0 1
72.3261 0 1
72.4418 0 1
72.5575 0 1
72.6732 0 1
75.1054 0 1
75.2209 0 1
75.3365 0 1
75.4521 0 1
75.5678 0 1
75.6835 0 1
75.7993 0 1
75.9151 0 1
76.031 0 1
76.147 740 27.2029
76.263 796 28.2135
76.3791 902 30.0333
76.4952 856 29.2575
76.6113 867 29.4449
76.7276 890 29.8329
76.8438 888 29.7993
76.9601 926 30.4302
77.0765 938 30.6268
77.1929 907 30.1164
77.3093 997 31.5753
77.4258 987 31.4166
77.5423 1047 32.3574
77.6589 961 31
77.7755 943 30.7083
77.8921 916 30.2655
78.0088 932 30.5287
78.1256 937 30.6105
78.2423 943 30.7083
78.3591 957 30.9354
78.4759 912 30.1993
78.5928 841 29
78.7097 806 28.3901
78.8266 860 29.3258
78.9436 726 26.9444
79.0606 763 27.6225
79.1776 867 29.4449
79.2946 793 28.1603
79.4117 838 28.9482
79.5288 894 29.8998
79.6459 865 29.4109
79.7631 922 30.3645
79.8802 934 30.5614
79.9974 843 29.0345
80.1147 942 30.692
80.2319 987 31.4166
80.3491 920 30.3315
80.4664 1017 31.8904
80.5837 959 30.9677
80.701 1002 31.6544
80.8183 1037 32.2025
80.9357 985 31.3847
81.053 1011 31.7962
81.1704 1034 32.1559
81.2877 986 31.4006
81.4051 989 31.4484
81.5225 992 31.496
81.6399 967 31.0966
81.7573 985 31.3847
81.8747 945 30.7409
81.9922 934 30.5614
82.1096 947 30.7734
82.227 895 29.9166
82.3444 854 29.2233
82.4619 870 29.4958
82.5793 823 28.688
82.6967 820 28.6356
82.8142 823 28.688
82.9316 827 28.7576
83.049 799 28.2666
83.1664 864 29.3939
83.2838 845 29.0689
83.4012 876 29.5973
83.5186 918 30.2985
83.636 902 30.0333
83.7534 995 31.5436
83.8708 960 30.9839
83.9881 903 30.05
84.1055 951 30.8383
84.2228 960 30.9839
84.3401 997 31.5753
84.4575 997 31.5753
84.5747 974 31.209
84.692 959 30.9677
84.8093 1023 31.9844
84.9265 1045 32.3265
85.0437 960 30.9839
85.1609 966 31.0805
85.2781 969 31.1288
85.3952 931 30.5123
85.5123 950 30.8221
85.6294 931 30.5123
85.7465 913 30.2159
85.8636 851 29.1719
85.9806 805 28.3725
86.0976 782 27.9643
86.2145 789 28.0891
86.3315 775 27.8388
86.4484 928 30.4631
86.5652 888 29.7993
86.682 897 29.95
86.7988 946 30.7571
86.9156 938 30.6268
87.0323 923 30.3809
87.149 977 31.257
87.2657 1010 31.7805
87.3823 1025 32.0156
87.4988 1023 31.9844
87.6154 1028 32.0624
87.7318 994 31.5278
87.8483 1106 33.2566
87.9647 1038 32.218
88.081 1090 33.0151
88.1973 1138 33.7343
88.3136 1126 33.5559
88.4298 1106 33.2566
88.546 1084 32.9242
88.6621 1096 33.1059
88.7781 1049 32.3883
88.8942 0 1
89.0101 0 1
89.126 0 1
89.2419 0 1
89.3577 0 1
89.4734 0 1
89.5891 0 1
89.7047 0 1
89.8203 0 1
89.9358 0 1
92.3269 0 1
92.4424 0 1
92.558 0 1
92.6736 0 1
92.7893 0 1
92.905 0 1
93.0208 0 1
93.1366 0 1
93.2525 0 1
93.3685 0 1
93.4845 0 1
93.6005 1062 32.5883
93.7167 1118 33.4365
93.8328 1123 33.5112
93.949 1140 33.7639
94.0653 1086 32.9545
94.1816 1125 33.541
94.2979 1027 32.0468
94.4143 1047 32.3574
94.5307 1076 32.8024
94.6472 1084 32.9242
94.7637 1101 33.1813
94.8803 978 31.273
94.9969 1002 31.6544
95.1135 1013 31.8277
95.2302 956 30.9192
95.3469 938 30.6268
95.4637 906 30.0998
95.5805 959 30.9677
95.6973 968 31.1127
95.8142 1015 31.8591
95.9311 1001 31.6386
96.048 1013 31.8277
96.1649 1042 32.28
96.2819 1073 32.7567
96.3989 1144 33.8231
96.516 1218 34.8999
96.633 1212 34.8138
96.7501 1170 34.2053
96.8673 1209 34.7707
96.9844 1127 33.5708
97.1016 1291 35.9305
97.2188 1319 36.318
97.336 1239 35.1994
97.4532 1189 34.4819
97.5704 1265 35.5668
97.6877 1330 36.4692
97.805 1254 35.4119
97.9223 1273 35.6791
98.0396 1194 34.5543
98.1569 1140 33.7639
98.2743 1172 34.2345
98.3916 1144 33.8231
98.509 1136 33.7046
98.6264 1003 31.6702
98.7438 1042 32.28
98.8612 1001 31.6386
98.9786 969 31.1288
99.096 959 30.9677
99.2134 958 30.9516
99.3308 1060 32.5576
99.4482 1060 32.5576
99.5656 1081 32.8786
99.6831 1016 31.8748
99.8005 1102 33.1964
99.9179 1096 33.1059
100.035 1117 33.4215
100.153 1170 34.2053
100.27 1179 34.3366
100.388 1177 34.3074
100.505 1213 34.8281
100.622 1197 34.5977
100.74 1265 35.5668
100.857 1316 36.2767
100.975 1260 35.4965
101.092 1268 35.609
101.209 1337 36.565
101.327 1346 36.6879
101.444 1305 36.1248
101.561 1289 35.9026
101.679 1263 35.5387
101.796 1286 35.8608
101.913 1223 34.9714
102.03 1233 35.1141
102.148 1220 34.9285
102.265 1227 35.0286
102.382 1070 32.7109
102.499 1129 33.6006
102.616 1077 32.8177
102.733 1104 33.2265
102.851 1087 32.9697
102.968 1203 34.6843
103.085 1193 34.5398
103.202 1128 33.5857
103.319 1157 34.0147
103.436 1225 35
103.552 1317 36.2905
103.669 1292 35.9444
103.786 1397 37.3765
103.903 1347 36.7015
104.02 1364 36.9324
104.137 1429 37.8021
104.253 1522 39.0128
104.37 1441 37.9605
104.487 1522 39.0128
104.603 1521 39
104.72 1517 38.9487
104.836 1543 39.281
104.953 1473 38.3797
105.069 1493 38.6394
105.186 1465 38.2753
105.302 1447 38.0395
105.418 1483 38.5097
105.535 1503 38.7685
105.651 1431 37.8286
105.767 1491 38.6135
105.883 1311 36.2077
105.999 1384 37.2022
106.115 0 1
106.231 0 1
106.347 0 1
106.463 0 1
106.579 0 1
106.694 0 1
106.81 0 1
106.926 0 1
107.041 0 1
107.157 0 1
109.576 0 1
109.692 0 1
109.807 0 1
109.923 0 1
110.039 0 1
110.155 0 1
110.27 0 1
110.386 0 1
110.502 0 1
110.618 2012 44.8553
110.735 2030 45.0555
110.851 2006 44.7884
110.967 1915 43.7607
111.083 1808 42.5206
111.199 1736 41.6653
111.316 1772 42.0951
111.432 1878 43.3359
111.549 1917 43.7836
111.665 1920 43.8178
111.782 1850 43.0116
111.898 1992 44.6318
112.015 2033 45.0888
112.132 2097 45.793
112.248 2088 45.6946
112.365 2088 45.6946
112.482 2124 46.0869
112.599 2028 45.0333
112.716 2114 45.9783
112.832 2064 45.4313
112.949 2133 46.1844
113.066 2176 46.6476
113.183 2112 45.9565
113.3 2087 45.6837
113.417 2030 45.0555
113.534 2002 44.7437
113.652 1941 44.0568
113.769 1997 44.6878
113.886 2013 44.8665
114.003 1991 44.6206
114.12 1838 42.8719
114.238 1952 44.1814
114.355 1831 42.7902
114.472 1696 41.1825
114.589 1605 40.0625
114.707 1599 39.9875
114.824 1654 40.6694
114.942 1682 41.0122
115.059 1705 41.2916
115.176 1737 41.6773
115.294 1728 41.5692
115.411 1806 42.4971
115.529 1824 42.7083
115.646 1831 42.7902
115.764 1890 43.4741
115.881 1895 43.5316
115.999 1938 44.0227
116.116 1884 43.4051
116.234 1972 44.4072
116.351 1954 44.2041
116.469 2068 45.4753
116.586 2072 45.5192
116.704 2013 44.8665
116.821 2140 46.2601
116.939 1957 44.238
117.056 1966 44.3396
117.174 2021 44.9555
117.291 2008 44.8107
117.409 1924 43.8634
117.526 1922 43.8406
117.644 1852 43.0349
117.761 1937 44.0114
117.879 1924 43.8634
117.996 1820 42.6615
118.114 1833 42.8135
118.231 1737 41.6773
118.349 1677 40.9512
118.466 1803 42.4617
118.584 1673 40.9023
118.701 1801 42.4382
118.819 1765 42.0119
118.936 1730 41.5933
119.053 1796 42.3792
119.171 1875 43.3013
119.288 1951 44.1701
119.405 2003 44.7549
119.523 1835 42.8369
119.64 1981 44.5084
119.757 1973 44.4185
119.875 2005 44.7772
119.992 2025 45
120.109 2028 45.0333
120.226 1977 44.4635
120.343 2124 46.0869
120.46 2000 44.7214
120.578 2021 44.9555
120.695 2024 44.9889
120.812 2001 44.7325
120.929 1928 43.909
121.046 1974 44.4297
121.163 1907 43.6692
121.279 1991 44.6206
121.396 1891 43.4856
121.513 1951 44.1701
121.63 1843 42.9302
121.747 1874 43.2897
121.863 1687 41.0731
121.98 1628 40.3485
122.097 1635 40.4351
122.213 1625 40.3113
122.33 1642 40.5216
122.446 1692 41.1339
122.563 1691 41.1218
122.679 1627 40.3361
122.795 1766 42.0238
122.912 1729 41.5812
123.028 1779 42.1782
123.144 1864 43.1741
123.26 1852 43.0349
123.377 0 1
123.493 0 1
123.609 0 1
123.725 0 1
123.84 0 1
123.956 0 1
124.072 0 1
124.188 0 1
124.303 0 1
124.419 0 1
126.852 0 1
126.968 0 1
127.083 0 1
127.199 0 1
127.315 0 1
127.431 0 1
127.547 0 1
127.663 0 1
127.779 0 1
127.895 0 1
128.011 0 1
128.127 0 1
128.243 0 1
128.359 1949 44.1475
128.476 1944 44.0908
128.592 1779 42.1782
128.708 1936 44
128.825 1895 43.5316
128.941 1889 43.4626
129.058 1984 44.5421
129.174 1821 42.6732
129.291 1886 43.4281
129.408 1869 43.2319
129.524 1782 42.2137
129.641 1737 41.6773
129.758 1773 42.107
129.875 1726 41.5452
129.992 1697 41.1947
130.108 1554 39.4208
130.225 1550 39.37
130.342 1510 38.8587
130.459 1433 37.855
130.576 1507 38.8201
130.693 1386 37.229
130.81 1245 35.2846
130.928 1290 35.9166
131.045 1228 35.0428
131.162 1254 35.4119
131.279 1232 35.0999
131.396 1288 35.8887
131.513 1306 36.1386
131.631 1247 35.3129
131.748 1450 38.0789
131.865 1402 37.4433
131.983 1442 37.9737
132.1 1468 38.3145
132.217 1452 38.1051
132.335 1466 38.2884
132.452 1494 38.6523
132.57 1590 39.8748
132.687 1540 39.2428
132.804 1601 40.0125
132.922 1471 38.3536
133.039 1533 39.1535
133.157 1480 38.4708
133.274 1502 38.7556
133.392 1518 38.9615
133.509 1455 38.1445
133.627 1531 39.128
133.744 1531 39.128
133.862 1460 38.2099
133.979 1489 38.5876
134.097 1504 38.7814
134.214 1482 38.4968
134.332 1344 36.6606
134.449 1326 36.4143
134.567 1295 35.9861
134.684 1364 36.9324
134.802 1365 36.9459
134.919 1384 37.2022
135.037 1380 37.1484
135.154 1490 38.6005
135.272 1475 38.4057
135.389 1485 38.5357
135.507 1584 39.7995
135.624 1664 40.7922
135.742 1650 40.6202
135.859 1674 40.9145
135.977 1697 41.1947
136.094 1645 40.5586
136.211 1652 40.6448
136.329 1699 41.2189
136.446 1769 42.0595
136.564 1747 41.7971
136.681 1718 41.4488
136.798 1701 41.2432
136.915 1726 41.5452
137.033 1646 40.5709
137.15 1630 40.3733
137.267 1606 40.0749
137.384 1480 38.4708
137.502 1549 39.3573
137.619 1646 40.5709
137.736 1589 39.8623
137.853 1555 39.4335
137.97 1561 39.5095
138.087 1452 38.1051
138.204 1545 39.3065
138.321 1577 39.7115
138.438 1586 39.8246
138.555 1603 40.0375
138.672 1717 41.4367
138.788 1849 43
138.905 1913 43.7379
139.022 1945 44.1022
139.139 2024 44.9889
139.255 2207 46.9787
139.372 2130 46.1519
139.488 2270 47.6445
139.605 2214 47.0532
139.721 2303 47.9896
139.838 2510 50.0999
139.954 2562 50.6162
140.071 2664 51.614
140.187 2788 52.8015
140.303 2765 52.5833
140.419 2967 54.4702
140.535 3042 55.1543
140.652 3286 57.3236
140.768 0 1
140.884 0 1
141 0 1
141.115 0 1
141.231 0 1
141.347 0 1
141.463 0 1
141.578 0 1
141.694 0 1
144.104 0 1
144.219 0 1
144.335 0 1
144.45 0 1
144.566 0 1
144.682 0 1
144.798 0 1
144.914 0 1
145.03 0 1
145.146 3124 55.8928
145.262 3223 56.7715
145.378 3060 55.3173
145.494 3170 56.3028
145.61 3095 55.6327
145.726 3185 56.4358
145.842 3246 56.9737
145.959 3305 57.4891
146.075 3391 58.2323
146.192 3553 59.607
146.308 3637 60.3075
146.425 3641 60.3407
146.541 3604 60.0333
146.658 3409 58.3866
146.774 3385 58.1808
146.891 3303 57.4717
147.008 3249 57
147.125 3432 58.5833
147.241 3386 58.1893
147.358 3265 57.1402
147.475 3371 58.0603
147.592 3410 58.3952
147.709 3428 58.5491
147.826 3439 58.643
147.943 3322 57.6368
148.06 3212 56.6745
148.177 3187 56.4535
148.294 3178 56.3738
148.411 3071 55.4166
148.528 3129 55.9375
148.645 3175 56.3471
148.762 3204 56.6039
148.88 3099 55.6687
148.997 3000 54.7723
149.114 3350 57.8792
149.231 3242 56.9386
149.349 3212 56.6745
149.466 3292 57.376
149.583 3362 57.9828
149.701 3388 58.2065
149.818 3410 58.3952
149.935 3396 58.2752
150.053 3370 58.0517
150.17 3169 56.2939
150.287 3291 57.3672
150.405 3123 55.8838
150.522 2881 53.6749
150.64 2985 54.6352
150.757 3084 55.5338
150.875 2913 53.9722
150.992 2900 53.8516
151.11 2855 53.4322
151.227 3112 55.7853
151.344 3206 56.6216
151.462 3069 55.3986
151.579 3140 56.0357
151.697 3194 56.5155
151.814 3164 56.2494
151.932 3204 56.6039
152.049 3199 56.5597
152.167 3277 57.2451
152.284 3170 56.3028
152.402 3309 57.5239
152.519 3312 57.55
152.636 3236 56.8859
152.754 3335 57.7495
152.871 3428 58.5491
152.989 3457 58.7963
153.106 3408 58.3781
153.223 3471 58.9152
153.341 3439 58.643
153.458 3579 59.8247
153.575 3414 58.4294
153.693 3436 58.6174
153.81 3465 58.8643
153.927 3212 56.6745
154.044 3127 55.9196
154.162 3082 55.5158
154.279 3074 55.4437
154.396 3146 56.0892
154.513 3166 56.2672
154.63 3194 56.5155
154.747 3292 57.376
154.864 3292 57.376
154.981 3401 58.3181
155.098 3478 58.9746
155.215 3636 60.2993
155.332 3510 59.2453
155.449 3627 60.2246
155.566 3555 59.6238
155.683 3720 60.9918
155.8 3899 62.442
155.917 3885 62.3298
156.033 4120 64.1872
156.15 0 1
156.267 0 1
156.383 0 1
156.5 0 1
156.617 0 1
156.733 0 1
156.85 0 1
156.966 0 1
157.082 0 1
157.199 0 1
157.315 0 1
157.431 0 1
157.547 0 1
157.664 0 1
157.78 0 1
157.896 0 1
158.012 0 1
158.128 0 1
158.244 0 1
158.359 0 1
158.475 0 1
158.591 0 1
158.706 0 1
