
6.15755 0 1
6.2731 0 1
6.3887 0 1
6.50437 0 1
6.62009 0 1
6.73587 0 1
6.8517 0 1
6.96759 0 1
7.08353 0 1
7.19952 0 1
7.31557 0 1
7.43166 0 1
7.54781 0 1
7.664 0 1
7.78024 0 1
7.89653 0 1
8.01286 0 1
8.12924 0 1
8.24567 0 1
8.36213 0 1
8.47864 0 1
8.59519 0 1
8.71178 0 1
8.82841 0 1
8.94508 0 1
9.06179 0 1
9.17853 0 1
9.29531 0 1
9.41212 0 1
9.52897 0 1
9.64584 0 1
9.76276 0 1
9.8797 0 1
9.99667 0 1
10.1137 0 1
10.2307 0 1
10.3478 0 1
10.4648 0 1
10.5819 0 1
10.6991 0 1
10.8162 0 1
10.9334 0 1
11.0506 0 1
11.1678 0 1
11.285 0 1
11.4023 0 1
11.5196 0 1
11.6369 0 1
11.7542 0 1
11.8715 0 1
11.9888 0 1
12.1062 0 1
12.2235 0 1
12.3409 0 1
12.4582 0 1
12.5756 0 1
12.693 0 1
12.8104 0 1
12.9278 0 1
13.0452 0 1
13.1626 0 1
13.28 0 1
13.3974 0 1
13.5149 0 1
13.6323 0 1
13.7497 0 1
13.8671 0 1
13.9845 0 1
14.1019 0 1
14.2193 0 1
14.3367 0 1
14.4541 0 1
14.5714 0 1
14.6888 0 1
14.8062 0 1
14.9235 0 1
15.0408 864 29.3939
15.1581 842 29.0172
15.2755 938 30.6268
15.3927 920 30.3315
15.51 877 29.6142
15.6273 861 29.3428
15.7445 827 28.7576
15.8617 853 29.2062
15.9789 730 27.0185
16.0961 747 27.3313
16.2132 775 27.8388
16.3304 786 28.0357
16.4475 766 27.6767
16.5646 762 27.6043
16.6816 738 27.1662
16.7986 745 27.2947
16.9156 758 27.5318
17.0326 727 26.9629
17.1496 719 26.8142
17.2665 695 26.3629
17.3833 707 26.5895
17.5002 750 27.3861
17.617 773 27.8029
17.7338 751 27.4044
17.8505 752 27.4226
17.9672 783 27.9821
18.0839 722 26.8701
18.2005 670 25.8844
18.3171 632 25.1396
18.4337 681 26.096
18.5502 675 25.9808
18.6666 688 26.2298
18.7831 780 27.9285
18.8994 721 26.8514
19.0158 702 26.4953
19.1321 686 26.1916
19.2483 594 24.3721
19.3645 644 25.3772
19.4806 627 25.04
19.5967 542 23.2809
19.7128 543 23.3024
19.8288 502 22.4054
19.9447 474 21.7715
20.0606 0 1
20.1764 0 1
20.2922 0 1
20.4079 0 1
20.5236 0 1
20.6392 0 1
20.7548 0 1
20.8702 0 1
23.3078 0 1
23.4233 0 1
23.539 0 1
23.6547 0 1
23.7704 0 1
23.8862 0 1
24.0021 0 1
24.118 0 1
24.234 0 1
24.35 0 1
24.4661 280 16.7332
24.5822 327 18.0831
24.6984 366 19.1311
24.8146 475 21.7945
24.9309 549 23.4307
25.0472 606 24.6171
25.1636 693 26.3249
25.28 774 27.8209
25.3965 864 29.3939
25.513 927 30.4467
25.6296 960 30.9839
25.7462 1005 31.7017
25.8628 913 30.2159
25.9795 977 31.257
26.0962 952 30.8545
26.213 985 31.3847
26.3298 1040 32.249
26.4466 1220 34.9285
26.5635 1253 35.3977
26.6804 1220 34.9285
26.7973 858 29.2916
26.9143 752 27.4226
27.0313 945 30.7409
27.1483 1398 37.3898
27.2653 1459 38.1969
27.3824 1513 38.8973
27.4996 1503 38.7685
27.6167 1523 39.0256
27.7339 1664 40.7922
27.8511 1696 41.1825
27.9683 1793 42.3438
28.0855 1689 41.0974
28.2028 1649 40.6079
28.3201 1746 41.7852
28.4374 1699 41.2189
28.5547 1579 39.7366
28.6721 1602 40.025
28.7894 1528 39.0896
28.9068 1571 39.6358
29.0242 1458 38.1838
29.1416 1337 36.565
29.259 1223 34.9714
29.3764 1014 31.8434
29.4939 917 30.282
29.6113 878 29.6311
29.7288 811 28.4781
29.8463 793 28.1603
29.9638 806 28.3901
30.0812 838 28.9482
30.1987 784 28
30.3162 723 26.8887
30.4337 558 23.622
30.5512 780 27.9285
30.6687 1023 31.9844
30.7862 1180 34.3511
30.9037 1049 32.3883
31.0212 980 31.305
31.1387 872 29.5296
31.2562 759 27.55
31.3737 745 27.2947
31.4912 695 26.3629
31.6087 685 26.1725
31.7262 717 26.7769
31.8436 745 27.2947
31.9611 685 26.1725
32.0785 704 26.533
32.1959 677 26.0192
32.3134 662 25.7294
32.4308 658 25.6515
32.5482 645 25.3969
32.6655 664 25.7682
32.7829 610 24.6982
32.9002 639 25.2784
33.0176 656 25.6125
33.1349 627 25.04
33.2522 608 24.6577
33.3694 615 24.7992
33.4867 595 24.3926
33.6039 630 25.0998
33.7211 666 25.807
33.8383 599 24.4745
33.9554 608 24.6577
34.0725 590 24.2899
34.1896 643 25.3574
34.3067 675 25.9808
34.4237 707 26.5895
34.5407 664 25.7682
34.6577 684 26.1534
34.7746 659 25.671
34.8915 624 24.98
35.0084 606 24.6171
35.1252 603 24.5561
35.242 595 24.3926
35.3587 642 25.3377
35.4755 631 25.1197
35.5921 595 24.3926
35.7088 565 23.7697
35.8254 629 25.0799
35.9419 615 24.7992
36.0584 634 25.1794
36.1749 605 24.5967
36.2913 614 24.779
36.4077 569 23.8537
36.524 531 23.0434
36.6403 566 23.7908
36.7565 530 23.0217
36.8727 494 22.2261
36.9889 439 20.9523
37.1049 447 21.1424
37.221 0 1
37.3369 0 1
37.4529 0 1
37.5687 0 1
37.6845 0 1
37.8003 0 1
37.916 0 1
38.0316 0 1
38.1472 0 1
40.5851 0 1
40.7008 0 1
40.8164 0 1
40.9322 0 1
41.048 0 1
41.1639 0 1
41.2798 0 1
41.3958 0 1
41.5118 0 1
41.6279 0 1
41.744 244 15.6205
41.8602 306 17.4929
41.9765 355 18.8414
42.0928 395 19.8746
42.2091 458 21.4009
42.3255 461 21.4709
42.4419 456 21.3542
42.5584 480 21.9089
42.675 483 21.9773
42.7915 470 21.6795
42.9081 414 20.347
43.0248 473 21.7486
43.1415 434 20.8327
43.2582 543 23.3024
43.375 482 21.9545
43.4918 492 22.1811
43.6087 448 21.166
43.7256 483 21.9773
43.8425 473 21.7486
43.9595 431 20.7605
44.0765 418 20.445
44.1935 450 21.2132
44.3106 455 21.3307
44.4277 436 20.8806
44.5448 465 21.5639
44.6619 478 21.8632
44.7791 483 21.9773
44.8963 434 20.8327
45.0136 495 22.2486
45.1308 530 23.0217
45.2481 481 21.9317
45.3654 509 22.561
45.4827 563 23.7276
45.6001 500 22.3607
45.7174 530 23.0217
45.8348 506 22.4944
45.9522 516 22.7156
46.0697 498 22.3159
46.1871 473 21.7486
46.3046 433 20.8087
46.422 457 21.3776
46.5395 460 21.4476
46.657 440 20.9762
46.7745 452 21.2603
46.892 491 22.1585
47.0096 469 21.6564
47.1271 508 22.5389
47.2446 457 21.3776
47.3622 449 21.1896
47.4797 470 21.6795
47.5973 437 20.9045
47.7149 417 20.4206
47.8324 428 20.6882
47.95 432 20.7846
48.0675 475 21.7945
48.1851 497 22.2935
48.3027 503 22.4277
48.4202 498 22.3159
48.5378 490 22.1359
48.6554 474 21.7715
48.7729 470 21.6795
48.8904 492 22.1811
49.008 522 22.8473
49.1255 522 22.8473
49.243 490 22.1359
49.3605 435 20.8567
49.478 450 21.2132
49.5955 448 21.166
49.713 402 20.0499
49.8304 378 19.4422
49.9479 394 19.8494
50.0653 444 21.0713
50.1827 436 20.8806
50.3001 443 21.0476
50.4175 419 20.4695
50.5348 475 21.7945
50.6521 470 21.6795
50.7694 461 21.4709
50.8867 433 20.8087
51.004 389 19.7231
51.1212 392 19.799
51.2384 392 19.799
51.3556 451 21.2368
51.4727 496 22.2711
51.5899 450 21.2132
51.707 436 20.8806
51.824 478 21.8632
51.9411 477 21.8403
52.0581 476 21.8174
52.175 417 20.4206
52.2919 442 21.0238
52.4088 449 21.1896
52.5257 463 21.5174
52.6425 417 20.4206
52.7593 446 21.1187
52.876 436 20.8806
52.9927 447 21.1424
53.1094 471 21.7025
53.226 452 21.2603
53.3426 411 20.2731
53.4591 414 20.347
53.5756 390 19.7484
53.692 428 20.6882
53.8084 438 20.9284
53.9248 380 19.4936
54.0411 341 18.4662
54.1573 310 17.6068
54.2735 0 1
54.3896 0 1
54.5057 0 1
54.6217 0 1
54.7377 0 1
54.8537 0 1
54.9695 0 1
55.0853 0 1
55.2011 0 1
55.3168 0 1
55.4324 0 1
57.824 0 1
57.9396 0 1
58.0553 0 1
58.1711 0 1
58.2869 0 1
58.4028 0 1
58.5187 0 1
58.6347 0 1
58.7508 0 1
58.8669 0 1
58.983 624 24.98
59.0992 818 28.6007
59.2155 1032 32.1248
59.3318 1045 32.3265
59.4482 1180 34.3511
59.5646 1208 34.7563
59.681 1196 34.5832
59.7975 1199 34.6266
59.9141 1160 34.0588
60.0306 1114 33.3766
60.1473 1156 34
60.2639 1177 34.3074
60.3807 1132 33.6452
60.4974 1176 34.2929
60.6142 1113 33.3617
60.731 1155 33.9853
60.8479 1136 33.7046
60.9648 1076 32.8024
61.0818 1064 32.619
61.1987 1058 32.5269
61.3158 1097 33.121
61.4328 1061 32.573
61.5499 1011 31.7962
61.667 948 30.7896
61.7841 956 30.9192
61.9013 1009 31.7648
62.0185 904 30.0666
62.1357 874 29.5635
62.253 890 29.8329
62.3702 857 29.2746
62.4875 856 29.2575
62.6049 798 28.2489
62.7222 798 28.2489
62.8396 838 28.9482
62.9569 750 27.3861
63.0743 706 26.5707
63.1918 635 25.1992
63.3092 596 24.4131
63.4267 584 24.1661
63.5441 605 24.5967
63.6616 557 23.6008
63.7791 578 24.0416
63.8966 568 23.8328
64.0142 597 24.4336
64.1317 538 23.1948
64.2492 562 23.7065
64.3668 561 23.6854
64.4843 559 23.6432
64.6019 527 22.9565
64.7195 611 24.7184
64.837 508 22.5389
64.9546 566 23.7908
65.0722 579 24.0624
65.1898 600 24.4949
65.3074 565 23.7697
65.4249 550 23.4521
65.5425 523 22.8692
65.6601 501 22.383
65.7777 539 23.2164
65.8952 494 22.2261
66.0128 503 22.4277
66.1304 546 23.3666
66.2479 524 22.891
66.3655 579 24.0624
66.483 547 23.388
66.6005 576 24
66.718 521 22.8254
66.8355 523 22.8692
66.953 547 23.388
67.0705 552 23.4947
67.1879 531 23.0434
67.3054 520 22.8035
67.4228 535 23.1301
67.5402 549 23.4307
67.6576 535 23.1301
67.7749 526 22.9347
67.8923 539 23.2164
68.0096 538 23.1948
68.1269 534 23.1084
68.2442 548 23.4094
68.3614 546 23.3666
68.4787 537 23.1733
68.5958 554 23.5372
68.713 553 23.516
68.8302 579 24.0624
68.9473 549 23.4307
69.0643 549 23.4307
69.1814 547 23.388
69.2984 512 22.6274
69.4154 486 22.0454
69.5323 519 22.7816
69.6492 533 23.0868
69.7661 523 22.8692
69.8829 567 23.8118
69.9997 547 23.388
70.1165 472 21.7256
70.2332 509 22.561
70.3499 479 21.8861
70.4665 502 22.4054
70.5831 480 21.9089
70.6996 421 20.5183
70.8161 386 19.6469
70.9326 345 18.5742
71.049 296 17.2047
71.1653 294 17.1464
71.2817 257 16.0312
71.3979 277 16.6433
71.5141 281 16.7631
71.6303 240 15.4919
71.7464 193 13.8924
71.8624 0 1
71.9784 0 1
72.0944 0 1
72.2102 0 1
72.3261 0 1
72.4418 0 1
72.5575 0 1
72.6732 0 1
75.1054 0 1
75.2209 0 1
75.3365 0 1
75.4521 0 1
75.5678 0 1
75.6835 0 1
75.7993 0 1
75.9151 0 1
76.031 0 1
76.147 278 16.6733
76.263 338 18.3848
76.3791 380 19.4936
76.4952 354 18.8149
76.6113 432 20.7846
76.7276 432 20.7846
76.8438 440 20.9762
76.9601 447 21.1424
77.0765 453 21.2838
77.1929 463 21.5174
77.3093 493 22.2036
77.4258 472 21.7256
77.5423 417 20.4206
77.6589 490 22.1359
77.7755 477 21.8403
77.8921 499 22.3383
78.0088 448 21.166
78.1256 425 20.6155
78.2423 470 21.6795
78.3591 420 20.4939
78.4759 456 21.3542
78.5928 450 21.2132
78.7097 484 22
78.8266 433 20.8087
78.9436 477 21.8403
79.0606 460 21.4476
79.1776 470 21.6795
79.2946 474 21.7715
79.4117 443 21.0476
79.5288 477 21.8403
79.6459 451 21.2368
79.7631 449 21.1896
79.8802 475 21.7945
79.9974 446 21.1187
80.1147 469 21.6564
80.2319 437 20.9045
80.3491 463 21.5174
80.4664 488 22.0907
80.5837 478 21.8632
80.701 451 21.2368
80.8183 475 21.7945
80.9357 478 21.8632
81.053 469 21.6564
81.1704 481 21.9317
81.2877 447 21.1424
81.4051 472 21.7256
81.5225 528 22.9783
81.6399 464 21.5407
81.7573 475 21.7945
81.8747 451 21.2368
81.9922 434 20.8327
82.1096 498 22.3159
82.227 451 21.2368
82.3444 435 20.8567
82.4619 494 22.2261
82.5793 486 22.0454
82.6967 448 21.166
82.8142 473 21.7486
82.9316 450 21.2132
83.049 473 21.7486
83.1664 479 21.8861
83.2838 446 21.1187
83.4012 483 21.9773
83.5186 476 21.8174
83.636 496 22.2711
83.7534 461 21.4709
83.8708 433 20.8087
83.9881 474 21.7715
84.1055 438 20.9284
84.2228 494 22.2261
84.3401 502 22.4054
84.4575 478 21.8632
84.5747 473 21.7486
84.692 476 21.8174
84.8093 473 21.7486
84.9265 467 21.6102
85.0437 465 21.5639
85.1609 520 22.8035
85.2781 510 22.5832
85.3952 450 21.2132
85.5123 481 21.9317
85.6294 493 22.2036
85.7465 437 20.9045
85.8636 462 21.4942
85.9806 501 22.383
86.0976 506 22.4944
86.2145 515 22.6936
86.3315 473 21.7486
86.4484 482 21.9545
86.5652 491 22.1585
86.682 497 22.2935
86.7988 492 22.1811
86.9156 442 21.0238
87.0323 448 21.166
87.149 460 21.4476
87.2657 467 21.6102
87.3823 480 21.9089
87.4988 455 21.3307
87.6154 422 20.5426
87.7318 428 20.6882
87.8483 394 19.8494
87.9647 418 20.445
88.081 366 19.1311
88.1973 367 19.1572
88.3136 348 18.6548
88.4298 321 17.9165
88.546 284 16.8523
88.6621 252 15.8745
88.7781 282 16.7929
88.8942 0 1
89.0101 0 1
89.126 0 1
89.2419 0 1
89.3577 0 1
89.4734 0 1
89.5891 0 1
89.7047 0 1
89.8203 0 1
89.9358 0 1
92.3269 0 1
92.4424 0 1
92.558 0 1
92.6736 0 1
92.7893 0 1
92.905 0 1
93.0208 0 1
93.1366 0 1
93.2525 0 1
93.3685 0 1
93.4845 0 1
93.6005 346 18.6011
93.7167 392 19.799
93.8328 404 20.0998
93.949 440 20.9762
94.0653 441 21
94.1816 440 20.9762
94.2979 486 22.0454
94.4143 454 21.3073
94.5307 476 21.8174
94.6472 464 21.5407
94.7637 477 21.8403
94.8803 467 21.6102
94.9969 494 22.2261
95.1135 493 22.2036
95.2302 496 22.2711
95.3469 484 22
95.4637 507 22.5167
95.5805 447 21.1424
95.6973 494 22.2261
95.8142 471 21.7025
95.9311 426 20.6398
96.048 454 21.3073
96.1649 504 22.4499
96.2819 446 21.1187
96.3989 442 21.0238
96.516 461 21.4709
96.633 416 20.3961
96.7501 494 22.2261
96.8673 489 22.1133
96.9844 461 21.4709
97.1016 456 21.3542
97.2188 443 21.0476
97.336 498 22.3159
97.4532 465 21.5639
97.5704 473 21.7486
97.6877 480 21.9089
97.805 505 22.4722
97.9223 504 22.4499
98.0396 477 21.8403
98.1569 474 21.7715
98.2743 490 22.1359
98.3916 489 22.1133
98.509 497 22.2935
98.6264 499 22.3383
98.7438 487 22.0681
98.8612 507 22.5167
98.9786 496 22.2711
99.096 502 22.4054
99.2134 522 22.8473
99.3308 489 22.1133
99.4482 540 23.2379
99.5656 538 23.1948
99.6831 538 23.1948
99.8005 529 23
99.9179 498 22.3159
100.035 527 22.9565
100.153 512 22.6274
100.27 464 21.5407
100.388 488 22.0907
100.505 496 22.2711
100.622 494 22.2261
100.74 475 21.7945
100.857 489 22.1133
100.975 485 22.0227
101.092 504 22.4499
101.209 518 22.7596
101.327 503 22.4277
101.444 523 22.8692
101.561 523 22.8692
101.679 502 22.4054
101.796 527 22.9565
101.913 537 23.1733
102.03 578 24.0416
102.148 517 22.7376
102.265 508 22.5389
102.382 513 22.6495
102.499 519 22.7816
102.616 533 23.0868
102.733 530 23.0217
102.851 575 23.9792
102.968 552 23.4947
103.085 575 23.9792
103.202 518 22.7596
103.319 572 23.9165
103.436 548 23.4094
103.552 533 23.0868
103.669 556 23.5797
103.786 503 22.4277
103.903 550 23.4521
104.02 512 22.6274
104.137 547 23.388
104.253 517 22.7376
104.37 545 23.3452
104.487 497 22.2935
104.603 556 23.5797
104.72 544 23.3238
104.836 519 22.7816
104.953 489 22.1133
105.069 484 22
105.186 484 22
105.302 464 21.5407
105.418 437 20.9045
105.535 380 19.4936
105.651 358 18.9209
105.767 361 19
105.883 336 18.3303
105.999 315 17.7482
106.115 0 1
106.231 0 1
106.347 0 1
106.463 0 1
106.579 0 1
106.694 0 1
106.81 0 1
106.926 0 1
107.041 0 1
107.157 0 1
109.576 0 1
109.692 0 1
109.807 0 1
109.923 0 1
110.039 0 1
110.155 0 1
110.27 0 1
110.386 0 1
110.502 0 1
110.618 269 16.4012
110.735 322 17.9444
110.851 336 18.3303
110.967 342 18.4932
111.083 402 20.0499
111.199 411 20.2731
111.316 441 21
111.432 464 21.5407
111.549 489 22.1133
111.665 495 22.2486
111.782 478 21.8632
111.898 517 22.7376
112.015 497 22.2935
112.132 520 22.8035
112.248 527 22.9565
112.365 519 22.7816
112.482 465 21.5639
112.599 424 20.5913
112.716 445 21.095
112.832 479 21.8861
112.949 451 21.2368
113.066 519 22.7816
113.183 472 21.7256
113.3 461 21.4709
113.417 483 21.9773
113.534 456 21.3542
113.652 436 20.8806
113.769 527 22.9565
113.886 520 22.8035
114.003 449 21.1896
114.12 485 22.0227
114.238 430 20.7364
114.355 444 21.0713
114.472 407 20.1742
114.589 394 19.8494
114.707 398 19.9499
114.824 455 21.3307
114.942 441 21
115.059 463 21.5174
115.176 437 20.9045
115.294 422 20.5426
115.411 447 21.1424
115.529 443 21.0476
115.646 442 21.0238
115.764 454 21.3073
115.881 449 21.1896
115.999 393 19.8242
116.116 384 19.5959
116.234 397 19.9249
116.351 381 19.5192
116.469 369 19.2094
116.586 412 20.2978
116.704 391 19.7737
116.821 437 20.9045
116.939 383 19.5704
117.056 399 19.975
117.174 397 19.9249
117.291 458 21.4009
117.409 444 21.0713
117.526 410 20.2485
117.644 460 21.4476
117.761 450 21.2132
117.879 406 20.1494
117.996 396 19.8997
118.114 362 19.0263
118.231 378 19.4422
118.349 395 19.8746
118.466 429 20.7123
118.584 433 20.8087
118.701 451 21.2368
118.819 430 20.7364
118.936 435 20.8567
119.053 454 21.3073
119.171 402 20.0499
119.288 397 19.9249
119.405 432 20.7846
119.523 397 19.9249
119.64 399 19.975
119.757 353 18.7883
119.875 369 19.2094
119.992 378 19.4422
120.109 368 19.1833
120.226 377 19.4165
120.343 359 18.9473
120.46 400 20
120.578 356 18.868
120.695 411 20.2731
120.812 409 20.2237
120.929 383 19.5704
121.046 415 20.3715
121.163 414 20.347
121.279 458 21.4009
121.396 434 20.8327
121.513 321 17.9165
121.63 395 19.8746
121.747 332 18.2209
121.863 329 18.1384
121.98 361 19
122.097 342 18.4932
122.213 344 18.5472
122.33 269 16.4012
122.446 322 17.9444
122.563 320 17.8885
122.679 327 18.0831
122.795 276 16.6132
122.912 263 16.2173
123.028 269 16.4012
123.144 218 14.7648
123.26 212 14.5602
123.377 0 1
123.493 0 1
123.609 0 1
123.725 0 1
123.84 0 1
123.956 0 1
124.072 0 1
124.188 0 1
124.303 0 1
124.419 0 1
126.852 0 1
126.968 0 1
127.083 0 1
127.199 0 1
127.315 0 1
127.431 0 1
127.547 0 1
127.663 0 1
127.779 0 1
127.895 0 1
128.011 0 1
128.127 0 1
128.243 0 1
128.359 384 19.5959
128.476 419 20.4695
128.592 483 21.9773
128.708 428 20.6882
128.825 403 20.0749
128.941 388 19.6977
129.058 407 20.1742
129.174 417 20.4206
129.291 430 20.7364
129.408 455 21.3307
129.524 453 21.2838
129.641 462 21.4942
129.758 470 21.6795
129.875 461 21.4709
129.992 493 22.2036
130.108 463 21.5174
130.225 488 22.0907
130.342 521 22.8254
130.459 504 22.4499
130.576 495 22.2486
130.693 458 21.4009
130.81 443 21.0476
130.928 505 22.4722
131.045 521 22.8254
131.162 503 22.4277
131.279 563 23.7276
131.396 562 23.7065
131.513 555 23.5584
131.631 619 24.8797
131.748 635 25.1992
131.865 674 25.9615
131.983 608 24.6577
132.1 697 26.4008
132.217 664 25.7682
132.335 650 25.4951
132.452 690 26.2679
132.57 736 27.1293
132.687 760 27.5681
132.804 770 27.7489
132.922 849 29.1376
133.039 834 28.8791
133.157 832 28.8444
133.274 911 30.1828
133.392 871 29.5127
133.509 905 30.0832
133.627 901 30.0167
133.744 917 30.282
133.862 890 29.8329
133.979 876 29.5973
134.097 899 29.9833
134.214 819 28.6182
134.332 776 27.8568
134.449 741 27.2213
134.567 803 28.3373
134.684 883 29.7153
134.802 865 29.4109
134.919 873 29.5466
135.037 897 29.95
135.154 960 30.9839
135.272 983 31.3528
135.389 965 31.0644
135.507 960 30.9839
135.624 950 30.8221
135.742 932 30.5287
135.859 969 31.1288
135.977 907 30.1164
136.094 907 30.1164
136.211 933 30.545
136.329 1034 32.1559
136.446 979 31.289
136.564 982 31.3369
136.681 1032 32.1248
136.798 1040 32.249
136.915 1011 31.7962
137.033 980 31.305
137.15 1090 33.0151
137.267 1065 32.6343
137.384 1056 32.4962
137.502 1121 33.4813
137.619 1036 32.187
137.736 979 31.289
137.853 978 31.273
137.97 917 30.282
138.087 875 29.5804
138.204 845 29.0689
138.321 930 30.4959
138.438 1054 32.4654
138.555 985 31.3847
138.672 1087 32.9697
138.788 1115 33.3916
138.905 1104 33.2265
139.022 1136 33.7046
139.139 1114 33.3766
139.255 1008 31.749
139.372 938 30.6268
139.488 869 29.4788
139.605 814 28.5307
139.721 699 26.4386
139.838 711 26.6646
139.954 731 27.037
140.071 736 27.1293
140.187 687 26.2107
140.303 666 25.807
140.419 608 24.6577
140.535 588 24.2487
140.652 563 23.7276
140.768 0 1
140.884 0 1
141 0 1
141.115 0 1
141.231 0 1
141.347 0 1
141.463 0 1
141.578 0 1
141.694 0 1
144.104 0 1
144.219 0 1
144.335 0 1
144.45 0 1
144.566 0 1
144.682 0 1
144.798 0 1
144.914 0 1
145.03 0 1
145.146 983 31.3528
145.262 1044 32.311
145.378 1027 32.0468
145.494 1041 32.2645
145.61 1089 33
145.726 1084 32.9242
145.842 1031 32.1092
145.959 1108 33.2866
146.075 1135 33.6898
146.192 1108 33.2866
146.308 1083 32.909
146.425 1051 32.4191
146.541 1077 32.8177
146.658 931 30.5123
146.774 924 30.3974
146.891 886 29.7658
147.008 936 30.5941
147.125 1001 31.6386
147.241 1074 32.7719
147.358 1058 32.5269
147.475 1020 31.9374
147.592 1075 32.7872
147.709 1105 33.2415
147.826 1096 33.1059
147.943 1079 32.8481
148.06 1064 32.619
148.177 1089 33
148.294 1062 32.5883
148.411 1035 32.1714
148.528 1077 32.8177
148.645 1095 33.0908
148.762 1042 32.28
148.88 1055 32.4808
148.997 1049 32.3883
149.114 1056 32.4962
149.231 1092 33.0454
149.349 1137 33.7194
149.466 1049 32.3883
149.583 1113 33.3617
149.701 1097 33.121
149.818 1022 31.9687
149.935 1086 32.9545
150.053 1080 32.8634
150.17 985 31.3847
150.287 1020 31.9374
150.405 933 30.545
150.522 891 29.8496
150.64 861 29.3428
150.757 939 30.6431
150.875 896 29.9333
150.992 956 30.9192
151.11 990 31.4643
151.227 920 30.3315
151.344 899 29.9833
151.462 921 30.348
151.579 969 31.1288
151.697 891 29.8496
151.814 907 30.1164
151.932 892 29.8664
152.049 876 29.5973
152.167 904 30.0666
152.284 931 30.5123
152.402 914 30.2324
152.519 928 30.4631
152.636 949 30.8058
152.754 880 29.6648
152.871 947 30.7734
152.989 954 30.8869
153.106 911 30.1828
153.223 951 30.8383
153.341 946 30.7571
153.458 925 30.4138
153.575 909 30.1496
153.693 912 30.1993
153.81 896 29.9333
153.927 832 28.8444
154.044 787 28.0535
154.162 820 28.6356
154.279 825 28.7228
154.396 870 29.4958
154.513 840 28.9828
154.63 860 29.3258
154.747 856 29.2575
154.864 868 29.4618
154.981 907 30.1164
155.098 864 29.3939
155.215 866 29.4279
155.332 851 29.1719
155.449 885 29.7489
155.566 817 28.5832
155.683 880 29.6648
155.8 837 28.931
155.917 903 30.05
156.033 832 28.8444
156.15 0 1
156.267 0 1
156.383 0 1
156.5 0 1
156.617 0 1
156.733 0 1
156.85 0 1
156.966 0 1
157.082 0 1
157.199 0 1
157.315 0 1
157.431 0 1
157.547 0 1
157.664 0 1
157.78 0 1
157.896 0 1
158.012 0 1
158.128 0 1
158.244 0 1
158.359 0 1
158.475 0 1
158.591 0 1
158.706 0 1
