
6.15755 0 1
6.2731 0 1
6.3887 0 1
6.50437 0 1
6.62009 0 1
6.73587 0 1
6.8517 0 1
6.96759 0 1
7.08353 0 1
7.19952 0 1
7.31557 0 1
7.43166 0 1
7.54781 0 1
7.664 0 1
7.78024 0 1
7.89653 0 1
8.01286 0 1
8.12924 0 1
8.24567 0 1
8.36213 0 1
8.47864 0 1
8.59519 0 1
8.71178 0 1
8.82841 0 1
8.94508 0 1
9.06179 0 1
9.17853 0 1
9.29531 0 1
9.41212 0 1
9.52897 0 1
9.64584 0 1
9.76276 0 1
9.8797 0 1
9.99667 0 1
10.1137 0 1
10.2307 0 1
10.3478 0 1
10.4648 0 1
10.5819 0 1
10.6991 0 1
10.8162 0 1
10.9334 0 1
11.0506 0 1
11.1678 0 1
11.285 0 1
11.4023 0 1
11.5196 0 1
11.6369 0 1
11.7542 0 1
11.8715 0 1
11.9888 0 1
12.1062 0 1
12.2235 0 1
12.3409 0 1
12.4582 0 1
12.5756 0 1
12.693 0 1
12.8104 0 1
12.9278 0 1
13.0452 0 1
13.1626 0 1
13.28 0 1
13.3974 0 1
13.5149 0 1
13.6323 0 1
13.7497 0 1
13.8671 0 1
13.9845 0 1
14.1019 0 1
14.2193 0 1
14.3367 0 1
14.4541 0 1
14.5714 0 1
14.6888 0 1
14.8062 0 1
14.9235 0 1
15.0408 0 0
15.1581 0 0
15.2755 0 0
15.3927 0 0
15.51 0 0
15.6273 0 0
15.7445 0 0
15.8617 0 0
15.9789 0 0
16.0961 0 0
16.2132 0 0
16.3304 0 0
16.4475 0 0
16.5646 0 0
16.6816 0 0
16.7986 0 0
16.9156 0 0
17.0326 0 0
17.1496 0 0
17.2665 0 0
17.3833 0 0
17.5002 0 0
17.617 0 0
17.7338 0 0
17.8505 0 0
17.9672 0 0
18.0839 0 0
18.2005 0 0
18.3171 0 0
18.4337 0 0
18.5502 0 0
18.6666 0 0
18.7831 0 0
18.8994 0 0
19.0158 0 0
19.1321 0 0
19.2483 0 0
19.3645 0 0
19.4806 0 0
19.5967 0 0
19.7128 0 0
19.8288 0 0
19.9447 0 0
20.0606 0 1
20.1764 0 1
20.2922 0 1
20.4079 0 1
20.5236 0 1
20.6392 0 1
20.7548 0 1
20.8702 0 1
23.3078 0 1
23.4233 0 1
23.539 0 1
23.6547 0 1
23.7704 0 1
23.8862 0 1
24.0021 0 1
24.118 0 1
24.234 0 1
24.35 0 1
24.4661 14211 119.21
24.5822 14223 119.26
24.6984 13676 116.944
24.8146 13372 115.637
24.9309 13123 114.556
25.0472 13205 114.913
25.1636 13245 115.087
25.28 13600 116.619
25.3965 13876 117.796
25.513 14414 120.058
25.6296 14886 122.008
25.7462 15256 123.515
25.8628 15179 123.203
25.9795 15049 122.674
26.0962 15209 123.325
26.213 14932 122.197
26.3298 14411 120.046
26.4466 14519 120.495
26.5635 13866 117.754
26.6804 13761 117.307
26.7973 14079 118.655
26.9143 14550 120.623
27.0313 14857 121.889
27.1483 15312 123.742
27.2653 15389 124.052
27.3824 15524 124.595
27.4996 15484 124.435
27.6167 15708 125.332
27.7339 15360 123.935
27.8511 14956 122.295
27.9683 14864 121.918
28.0855 14449 120.204
28.2028 14145 118.933
28.3201 13543 116.374
28.4374 13203 114.904
28.5547 12730 112.827
28.6721 12916 113.649
28.7894 13154 114.691
28.9068 13388 115.707
29.0242 13451 115.978
29.1416 13980 118.237
29.259 14050 118.533
29.3764 14118 118.819
29.4939 14214 119.222
29.6113 14122 118.836
29.7288 13986 118.262
29.8463 13638 116.782
29.9638 13497 116.177
30.0812 13093 114.425
30.1987 13222 114.987
30.3162 13637 116.778
30.4337 13992 118.288
30.5512 14464 120.266
30.6687 14573 120.719
30.7862 14952 122.278
30.9037 15156 123.11
31.0212 15400 124.097
31.1387 15316 123.758
31.2562 15146 123.069
31.3737 15076 122.784
31.4912 14818 121.729
31.6087 14439 120.162
31.7262 14108 118.777
31.8436 13874 117.788
31.9611 13431 115.892
32.0785 13160 114.717
32.1959 12983 113.943
32.3134 13162 114.726
32.4308 13226 115.004
32.5482 13582 116.542
32.6655 13930 118.025
32.7829 13935 118.047
32.9002 14100 118.743
33.0176 13930 118.025
33.1349 13938 118.059
33.2522 14140 118.912
33.3694 14059 118.571
33.4867 13917 117.97
33.6039 13524 116.293
33.7211 13145 114.652
33.8383 13180 114.804
33.9554 13697 117.034
34.0725 13867 117.758
34.1896 14221 119.252
34.3067 14727 121.355
34.4237 15052 122.687
34.5407 15175 123.187
34.6577 15513 124.551
34.7746 15324 123.79
34.8915 15392 124.064
35.0084 14941 122.233
35.1252 14984 122.409
35.242 14423 120.096
35.3587 14536 120.565
35.4755 14067 118.604
35.5921 13761 117.307
35.7088 13240 115.065
35.8254 13116 114.525
35.9419 13008 114.053
36.0584 13109 114.495
36.1749 13331 115.46
36.2913 13485 116.125
36.4077 13703 117.06
36.524 13744 117.235
36.6403 14087 118.689
36.7565 14044 118.507
36.8727 14162 119.004
36.9889 13982 118.246
37.1049 13339 115.495
37.221 0 1
37.3369 0 1
37.4529 0 1
37.5687 0 1
37.6845 0 1
37.8003 0 1
37.916 0 1
38.0316 0 1
38.1472 0 1
40.5851 0 1
40.7008 0 1
40.8164 0 1
40.9322 0 1
41.048 0 1
41.1639 0 1
41.2798 0 1
41.3958 0 1
41.5118 0 1
41.6279 0 1
41.744 11548 107.462
41.8602 12037 109.713
41.9765 12324 111.014
42.0928 12202 110.463
42.2091 12231 110.594
42.3255 11693 108.134
42.4419 11432 106.921
42.5584 11214 105.896
42.675 11502 107.247
42.7915 11936 109.252
42.9081 12431 111.494
43.0248 12784 113.066
43.1415 13077 114.355
43.2582 13173 114.774
43.375 13287 115.269
43.4918 13547 116.392
43.6087 13017 114.092
43.7256 13206 114.917
43.8425 13185 114.826
43.9595 12772 113.013
44.0765 12702 112.703
44.1935 12295 110.883
44.3106 11921 109.183
44.4277 11241 106.024
44.5448 10530 102.616
44.6619 10223 101.109
44.7791 10396 101.961
44.8963 10410 102.029
45.0136 10712 103.499
45.1308 10826 104.048
45.2481 10974 104.757
45.3654 10696 103.421
45.4827 10985 104.809
45.6001 10738 103.624
45.7174 10507 102.504
45.8348 10418 102.069
45.9522 10099 100.494
46.0697 9844 99.2169
46.1871 9682 98.3972
46.3046 9828 99.1363
46.422 10119 100.593
46.5395 10540 102.665
46.657 10903 104.417
46.7745 10827 104.053
46.892 10987 104.819
47.0096 11105 105.38
47.1271 11132 105.508
47.2446 10914 104.47
47.3622 10752 103.692
47.4797 10576 102.84
47.5973 10415 102.054
47.7149 10236 101.173
47.8324 9829 99.1413
47.95 9520 97.5705
48.0675 8777 93.6856
48.1851 8397 91.6351
48.3027 8376 91.5205
48.4202 8321 91.2195
48.5378 8616 92.8224
48.6554 8900 94.3398
48.7729 8977 94.747
48.8904 8959 94.652
49.008 9117 95.483
49.1255 9161 95.7131
49.243 9168 95.7497
49.3605 8942 94.5621
49.478 8662 93.0699
49.5955 8683 93.1826
49.713 8608 92.7793
49.8304 8886 94.2656
49.9479 9582 97.8877
50.0653 10223 101.109
50.1827 10600 102.956
50.3001 10994 104.852
50.4175 11416 106.846
50.5348 11609 107.745
50.6521 12576 112.143
50.7694 12298 110.896
50.8867 12363 111.189
51.004 12739 112.867
51.1212 12662 112.526
51.2384 12802 113.146
51.3556 12527 111.924
51.4727 12116 110.073
51.5899 11470 107.098
51.707 11245 106.042
51.824 11375 106.654
51.9411 11579 107.606
52.0581 11971 109.412
52.175 12431 111.494
52.2919 12280 110.815
52.4088 12694 112.668
52.5257 12436 111.517
52.6425 13036 114.175
52.7593 12999 114.013
52.876 12913 113.635
52.9927 12617 112.325
53.1094 12239 110.63
53.226 12297 110.892
53.3426 12297 110.892
53.4591 12806 113.164
53.5756 14088 118.693
53.692 14873 121.955
53.8084 15161 123.13
53.9248 15565 124.76
54.0411 15941 126.258
54.1573 16413 128.113
54.2735 0 1
54.3896 0 1
54.5057 0 1
54.6217 0 1
54.7377 0 1
54.8537 0 1
54.9695 0 1
55.0853 0 1
55.2011 0 1
55.3168 0 1
55.4324 0 1
57.824 0 1
57.9396 0 1
58.0553 0 1
58.1711 0 1
58.2869 0 1
58.4028 0 1
58.5187 0 1
58.6347 0 1
58.7508 0 1
58.8669 0 1
58.983 18728 136.85
59.0992 19410 139.32
59.2155 19837 140.844
59.3318 20573 143.433
59.4482 20450 143.003
59.5646 20489 143.14
59.681 20496 143.164
59.7975 20277 142.397
59.9141 19351 139.108
60.0306 18330 135.388
60.1473 17741 133.195
60.2639 16347 127.855
60.3807 16218 127.35
60.4974 15378 124.008
60.6142 15601 124.904
60.731 15641 125.064
60.8479 16261 127.519
60.9648 16185 127.22
61.0818 16546 128.631
61.1987 16502 128.46
61.3158 16337 127.816
61.4328 16309 127.707
61.5499 15592 124.868
61.667 15231 123.414
61.7841 14861 121.906
61.9013 14673 121.132
62.0185 15390 124.056
62.1357 16044 126.665
62.253 16816 129.677
62.3702 17635 132.797
62.4875 17900 133.791
62.6049 18184 134.848
62.7222 18958 137.688
62.8396 19079 138.127
62.9569 19047 138.011
63.0743 19169 138.452
63.1918 18845 137.277
63.3092 18249 135.089
63.4267 17739 133.188
63.5441 16734 129.36
63.6616 15841 125.861
63.7791 14755 121.47
63.8966 13989 118.275
64.0142 13752 117.269
64.1317 13983 118.25
64.2492 14089 118.697
64.3668 14472 120.3
64.4843 14441 120.171
64.6019 14884 122
64.7195 15200 123.288
64.837 15260 123.531
64.9546 15309 123.73
65.0722 14571 120.71
65.1898 14107 118.773
65.3074 14122 118.836
65.4249 13457 116.004
65.5425 13852 117.695
65.6601 14525 120.52
65.7777 15428 124.21
65.8952 16362 127.914
66.0128 17025 130.48
66.1304 17529 132.397
66.2479 18164 134.774
66.3655 18305 135.296
66.483 18662 136.609
66.6005 18691 136.715
66.718 18754 136.945
66.8355 18484 135.956
66.953 18345 135.444
67.0705 17718 133.109
67.1879 16704 129.244
67.3054 15545 124.68
67.4228 13970 118.195
67.5402 13506 116.215
67.6576 13314 115.386
67.7749 13640 116.79
67.8923 14287 119.528
68.0096 14836 121.803
68.1269 15101 122.886
68.2442 16011 126.535
68.3614 16078 126.799
68.4787 15924 126.19
68.5958 15865 125.956
68.713 15525 124.599
68.8302 14754 121.466
68.9473 14528 120.532
69.0643 14157 118.983
69.1814 14368 119.867
69.2984 15348 123.887
69.4154 16446 128.242
69.5323 17190 131.111
69.6492 18319 135.348
69.7661 18862 137.339
69.8829 19403 139.295
69.9997 19899 141.064
70.1165 19981 141.354
70.2332 20344 142.632
70.3499 20106 141.796
70.4665 19862 140.933
70.5831 19388 139.241
70.6996 18782 137.047
70.8161 17692 133.011
70.9326 16845 129.788
71.049 15419 124.173
71.1653 14429 120.121
71.2817 14106 118.769
71.3979 13707 117.077
71.5141 13952 118.119
71.6303 14167 119.025
71.7464 13993 118.292
71.8624 0 1
71.9784 0 1
72.0944 0 1
72.2102 0 1
72.3261 0 1
72.4418 0 1
72.5575 0 1
72.6732 0 1
75.1054 0 1
75.2209 0 1
75.3365 0 1
75.4521 0 1
75.5678 0 1
75.6835 0 1
75.7993 0 1
75.9151 0 1
76.031 0 1
76.147 16813 129.665
76.263 16927 130.104
76.3791 15788 125.65
76.4952 14573 120.719
76.6113 14114 118.802
76.7276 14495 120.395
76.8438 14810 121.696
76.9601 15555 124.72
77.0765 16070 126.768
77.1929 16295 127.652
77.3093 17029 130.495
77.4258 17206 131.172
77.5423 17389 131.867
77.6589 16901 130.004
77.7755 16085 126.827
77.8921 15233 123.422
78.0088 14921 122.152
78.1256 14711 121.289
78.2423 14865 121.922
78.3591 15784 125.634
78.4759 17143 130.931
78.5928 17891 133.757
78.7097 18798 137.106
78.8266 20163 141.996
78.9436 19382 139.219
79.0606 20317 142.538
79.1776 20212 142.169
79.2946 20238 142.26
79.4117 20203 142.137
79.5288 20327 142.573
79.6459 19719 140.424
79.7631 18601 136.385
79.8802 17512 132.333
79.9974 16205 127.299
80.1147 14808 121.688
80.2319 13884 117.83
80.3491 13651 116.837
80.4664 14041 118.495
80.5837 14541 120.586
80.701 15520 124.579
80.8183 15297 123.681
80.9357 15596 124.884
81.053 15972 126.38
81.1704 16129 127
81.2877 16071 126.771
81.4051 15286 123.637
81.5225 14763 121.503
81.6399 13726 117.158
81.7573 13618 116.696
81.8747 13349 115.538
81.9922 14006 118.347
82.1096 15423 124.189
82.227 16352 127.875
82.3444 16850 129.808
82.4619 17913 133.839
82.5793 17943 133.951
82.6967 18729 136.854
82.8142 18455 135.849
82.9316 18596 136.367
83.049 18355 135.481
83.1664 17934 133.918
83.2838 17194 131.126
83.4012 16463 128.308
83.5186 15553 124.712
83.636 14536 120.565
83.7534 13357 115.572
83.8708 12516 111.875
83.9881 12232 110.598
84.1055 12564 112.089
84.2228 12844 113.331
84.3401 13739 117.213
84.4575 14574 120.723
84.5747 14902 122.074
84.692 15505 124.519
84.8093 15450 124.298
84.9265 14798 121.647
85.0437 14087 118.689
85.1609 13383 115.685
85.2781 12598 112.241
85.3952 12481 111.718
85.5123 12987 113.961
85.6294 14314 119.641
85.7465 15364 123.952
85.8636 16584 128.779
85.9806 17307 131.556
86.0976 17950 133.978
86.2145 18661 136.605
86.3315 18899 137.474
86.4484 20115 141.827
86.5652 19717 140.417
86.682 19722 140.435
86.7988 19318 138.989
86.9156 18568 136.264
87.0323 17581 132.593
87.149 16658 129.066
87.2657 15583 124.832
87.3823 14603 120.843
87.4988 13717 117.12
87.6154 14165 119.017
87.7318 14651 121.041
87.8483 15782 125.626
87.9647 16482 128.382
88.081 16980 130.307
88.1973 17731 133.158
88.3136 17887 133.742
88.4298 17359 131.754
88.546 16430 128.18
88.6621 15291 123.657
88.7781 14158 118.987
88.8942 0 1
89.0101 0 1
89.126 0 1
89.2419 0 1
89.3577 0 1
89.4734 0 1
89.5891 0 1
89.7047 0 1
89.8203 0 1
89.9358 0 1
92.3269 0 1
92.4424 0 1
92.558 0 1
92.6736 0 1
92.7893 0 1
92.905 0 1
93.0208 0 1
93.1366 0 1
93.2525 0 1
93.3685 0 1
93.4845 0 1
93.6005 16433 128.191
93.7167 16497 128.441
93.8328 16572 128.732
93.949 16186 127.224
94.0653 15613 124.952
94.1816 15090 122.841
94.2979 14578 120.739
94.4143 14161 119
94.5307 14415 120.062
94.6472 14858 121.893
94.7637 15879 126.012
94.8803 17327 131.632
94.9969 17909 133.825
95.1135 18912 137.521
95.2302 19709 140.389
95.3469 20385 142.776
95.4637 20582 143.464
95.5805 20817 144.281
95.6973 21044 145.066
95.8142 20843 144.371
95.9311 20668 143.764
96.048 19943 141.22
96.1649 19147 138.373
96.2819 18197 134.896
96.3989 16822 129.7
96.516 16028 126.602
96.633 15017 122.544
96.7501 14366 119.858
96.8673 14704 121.26
96.9844 15273 123.584
97.1016 16358 127.898
97.2188 16844 129.784
97.336 17758 133.259
97.4532 17702 133.049
97.5704 17777 133.33
97.6877 17289 131.488
97.805 15998 126.483
97.9223 15084 122.817
98.0396 14439 120.162
98.1569 14544 120.599
98.2743 14743 121.421
98.3916 15227 123.398
98.509 16798 129.607
98.6264 17876 133.701
98.7438 18808 137.142
98.8612 19567 139.882
98.9786 20639 143.663
99.096 21116 145.313
99.2134 21329 146.045
99.3308 21407 146.311
99.4482 21437 146.414
99.5656 21142 145.403
99.6831 20546 143.339
99.8005 19542 139.793
99.9179 18781 137.044
100.035 17661 132.895
100.153 16493 128.425
100.27 15280 123.612
100.388 15024 122.572
100.505 15693 125.272
100.622 16362 127.914
100.74 17352 131.727
100.857 17287 131.48
100.975 17907 133.817
101.092 18202 134.915
101.209 18087 134.488
101.327 17266 131.4
101.444 16496 128.437
101.561 15497 124.487
101.679 15282 123.62
101.796 15147 123.073
101.913 15597 124.888
102.03 17247 131.328
102.148 18566 136.257
102.265 20667 143.76
102.382 20081 141.707
102.499 21779 147.577
102.616 22311 149.369
102.733 22658 150.526
102.851 22998 151.651
102.968 23205 152.332
103.085 22345 149.482
103.202 21859 147.848
103.319 21325 146.031
103.436 20363 142.699
103.552 19235 138.69
103.669 17795 133.398
103.786 16369 127.941
103.903 16211 127.322
104.02 16787 129.565
104.137 17588 132.62
104.253 18818 137.179
104.37 18522 136.096
104.487 19702 140.364
104.603 19420 139.356
104.72 19268 138.809
104.836 18310 135.314
104.953 17456 132.121
105.069 16738 129.375
105.186 16223 127.37
105.302 16492 128.421
105.418 17473 132.185
105.535 18995 137.822
105.651 20450 143.003
105.767 21313 145.99
105.883 22529 150.097
105.999 23008 151.684
106.115 0 1
106.231 0 1
106.347 0 1
106.463 0 1
106.579 0 1
106.694 0 1
106.81 0 1
106.926 0 1
107.041 0 1
107.157 0 1
109.576 0 1
109.692 0 1
109.807 0 1
109.923 0 1
110.039 0 1
110.155 0 1
110.27 0 1
110.386 0 1
110.502 0 1
110.618 18054 134.365
110.735 20100 141.774
110.851 21041 145.055
110.967 21652 147.146
111.083 22208 149.023
111.199 22625 150.416
111.316 22892 151.301
111.432 22872 151.235
111.549 22215 149.047
111.665 22190 148.963
111.782 21151 145.434
111.898 20356 142.674
112.015 19149 138.38
112.132 17996 134.149
112.248 16976 130.292
112.365 16414 128.117
112.482 16277 127.581
112.599 16523 128.542
112.716 17563 132.525
112.832 18120 134.611
112.949 17911 133.832
113.066 17574 132.567
113.183 17646 132.838
113.3 16997 130.373
113.417 16526 128.553
113.534 15661 125.144
113.652 15377 124.004
113.769 15187 123.236
113.886 15243 123.463
114.003 15776 125.603
114.12 17727 133.143
114.238 18910 137.514
114.355 19818 140.776
114.472 20140 141.915
114.589 20999 144.91
114.707 21248 145.767
114.824 21370 146.185
114.942 21727 147.401
115.059 21731 147.414
115.176 21600 146.969
115.294 20982 144.852
115.411 19983 141.361
115.529 19423 139.366
115.646 18394 135.624
115.764 17636 132.801
115.881 16584 128.779
115.999 16503 128.464
116.116 16690 129.19
116.234 17347 131.708
116.351 18257 135.118
116.469 18373 135.547
116.586 18274 135.181
116.704 18278 135.196
116.821 18029 134.272
116.939 17987 134.116
117.056 16915 130.058
117.174 16319 127.746
117.291 16158 127.114
117.409 16356 127.891
117.526 16703 129.24
117.644 17868 133.671
117.761 19185 138.51
117.879 20393 142.804
117.996 21085 145.207
118.114 22123 148.738
118.231 22600 150.333
118.349 22546 150.153
118.466 22860 151.195
118.584 22967 151.549
118.701 22948 151.486
118.819 22803 151.007
118.936 22223 149.074
119.053 21569 146.864
119.171 20832 144.333
119.288 19321 139
119.405 18775 137.022
119.523 17424 132
119.64 17539 132.435
119.757 17583 132.601
119.875 18052 134.358
119.992 18366 135.521
120.109 18617 136.444
120.226 18630 136.492
120.343 18667 136.627
120.46 18640 136.528
120.578 18009 134.198
120.695 17546 132.461
120.812 17432 132.03
120.929 16715 129.287
121.046 16755 129.441
121.163 16890 129.962
121.279 17835 133.548
121.396 18903 137.488
121.513 19915 141.121
121.63 20961 144.779
121.747 21419 146.352
121.863 22170 148.896
121.98 22721 150.735
122.097 22569 150.23
122.213 22562 150.207
122.33 22972 151.565
122.446 22446 149.82
122.563 22471 149.903
122.679 21684 147.255
122.795 21314 145.993
122.912 20470 143.073
123.028 19824 140.798
123.144 18435 135.776
123.26 17634 132.793
123.377 0 1
123.493 0 1
123.609 0 1
123.725 0 1
123.84 0 1
123.956 0 1
124.072 0 1
124.188 0 1
124.303 0 1
124.419 0 1
126.852 0 1
126.968 0 1
127.083 0 1
127.199 0 1
127.315 0 1
127.431 0 1
127.547 0 1
127.663 0 1
127.779 0 1
127.895 0 1
128.011 0 1
128.127 0 1
128.243 0 1
128.359 21348 146.11
128.476 20319 142.545
128.592 20090 141.739
128.708 20254 142.317
128.825 20640 143.666
128.941 21324 146.027
129.058 21367 146.175
129.174 21144 145.41
129.291 21021 144.986
129.408 20998 144.907
129.524 20479 143.105
129.641 19667 140.239
129.758 19396 139.27
129.875 19005 137.859
129.992 19031 137.953
130.108 18772 137.011
130.225 19125 138.293
130.342 21041 145.055
130.459 21524 146.711
130.576 23225 152.398
130.693 23325 152.725
130.81 23535 153.411
130.928 23714 153.994
131.045 23872 154.506
131.162 24178 155.493
131.279 24290 155.852
131.396 23928 154.687
131.513 23708 153.974
131.631 23226 152.401
131.748 23058 151.849
131.865 21833 147.76
131.983 20967 144.8
132.1 20305 142.496
132.217 20069 141.665
132.335 20692 143.847
132.452 21168 145.492
132.57 22179 148.926
132.687 21204 145.616
132.804 22377 149.589
132.922 21551 146.803
133.039 21776 147.567
133.157 21333 146.058
133.274 20618 143.59
133.392 20163 141.996
133.509 20115 141.827
133.627 19749 140.531
133.744 20051 141.602
133.862 21205 145.619
133.979 22421 149.736
134.097 22867 151.218
134.214 24025 155
134.332 23755 154.127
134.449 24673 157.076
134.567 24884 157.747
134.684 25283 159.006
134.802 25240 158.871
134.919 25429 159.465
135.037 25178 158.676
135.154 24843 157.617
135.272 24190 155.531
135.389 23613 153.665
135.507 22391 149.636
135.624 21743 147.455
135.742 21431 146.393
135.859 21604 146.983
135.977 22236 149.117
136.094 22745 150.814
136.211 22813 151.04
136.329 23088 151.947
136.446 22815 151.046
136.564 22721 150.735
136.681 22987 151.615
136.798 21945 148.138
136.915 21408 146.315
137.033 20777 144.142
137.15 20710 143.91
137.267 20589 143.489
137.384 20625 143.614
137.502 21358 146.144
137.619 22281 149.268
137.736 23603 153.633
137.853 23631 153.724
137.97 24034 155.029
138.087 25214 158.789
138.204 24997 158.104
138.321 25200 158.745
138.438 25730 160.406
138.555 25871 160.845
138.672 25713 160.353
138.788 25457 159.552
138.905 24721 157.229
139.022 24274 155.801
139.139 23572 153.532
139.255 22652 150.506
139.372 21939 148.118
139.488 22206 149.017
139.605 22670 150.566
139.721 23285 152.594
139.838 23450 153.134
139.954 23428 153.062
140.071 22948 151.486
140.187 23025 151.74
140.303 22619 150.396
140.419 22200 148.997
140.535 21254 145.788
140.652 20537 143.307
140.768 0 1
140.884 0 1
141 0 1
141.115 0 1
141.231 0 1
141.347 0 1
141.463 0 1
141.578 0 1
141.694 0 1
144.104 0 1
144.219 0 1
144.335 0 1
144.45 0 1
144.566 0 1
144.682 0 1
144.798 0 1
144.914 0 1
145.03 0 1
145.146 42845 206.99
145.262 44219 210.283
145.378 45854 214.135
145.494 44893 211.88
145.61 44492 210.931
145.726 43803 209.292
145.842 43932 209.6
145.959 43736 209.132
146.075 45223 212.657
146.192 48076 219.262
146.308 51159 226.184
146.425 53256 230.773
146.541 55298 235.155
146.658 56298 237.272
146.774 58014 240.861
146.891 59022 242.944
147.008 60240 245.438
147.125 61283 247.554
147.241 61872 248.741
147.358 61651 248.296
147.475 60724 246.422
147.592 59462 243.848
147.709 57504 239.8
147.826 54967 234.45
147.943 54028 232.439
148.06 53645 231.614
148.177 55420 235.415
148.294 57187 239.138
148.411 60060 245.071
148.528 60571 246.112
148.645 60131 245.216
148.762 60104 245.161
148.88 59956 244.859
148.997 56905 238.548
149.114 58804 242.495
149.231 54492 233.435
149.349 52355 228.812
149.466 50144 223.929
149.583 48990 221.337
149.701 48833 220.982
149.818 51128 226.115
149.935 52871 229.937
150.053 54016 232.413
150.17 55002 234.525
150.287 56987 238.72
150.405 57365 239.51
150.522 58206 241.259
150.64 59115 243.136
150.757 60172 245.3
150.875 60112 245.177
150.992 59915 244.775
151.11 57669 240.144
151.227 56946 238.634
151.344 55045 234.617
151.462 53368 231.015
151.579 52480 229.085
151.697 52611 229.371
151.814 53859 232.075
151.932 56510 237.718
152.049 58985 242.868
152.167 59505 243.936
152.284 60147 245.249
152.402 59731 244.399
152.519 59079 243.062
152.636 58045 240.925
152.754 55848 236.322
152.871 53336 230.946
152.989 51414 226.747
153.106 50478 224.673
153.223 49353 222.155
153.341 49769 223.09
153.458 51383 226.678
153.575 53544 231.396
153.693 54233 232.88
153.81 56073 236.797
153.927 57179 239.121
154.044 58368 241.595
154.162 59525 243.977
154.279 60714 246.402
154.396 60993 246.968
154.513 61563 248.119
154.63 60722 246.418
154.747 59751 244.44
154.864 58454 241.773
154.981 57206 239.178
155.098 55741 236.095
155.215 54573 233.609
155.332 54484 233.418
155.449 55846 236.318
155.566 58059 240.954
155.683 59380 243.68
155.8 60105 245.163
155.917 59955 244.857
156.033 60234 245.426
156.15 0 1
156.267 0 1
156.383 0 1
156.5 0 1
156.617 0 1
156.733 0 1
156.85 0 1
156.966 0 1
157.082 0 1
157.199 0 1
157.315 0 1
157.431 0 1
157.547 0 1
157.664 0 1
157.78 0 1
157.896 0 1
158.012 0 1
158.128 0 1
158.244 0 1
158.359 0 1
158.475 0 1
158.591 0 1
158.706 0 1
