
6.15755 0 1
6.2731 0 1
6.3887 0 1
6.50437 0 1
6.62009 0 1
6.73587 0 1
6.8517 0 1
6.96759 0 1
7.08353 0 1
7.19952 0 1
7.31557 0 1
7.43166 0 1
7.54781 0 1
7.664 0 1
7.78024 0 1
7.89653 0 1
8.01286 0 1
8.12924 0 1
8.24567 0 1
8.36213 0 1
8.47864 0 1
8.59519 0 1
8.71178 0 1
8.82841 0 1
8.94508 0 1
9.06179 0 1
9.17853 0 1
9.29531 0 1
9.41212 0 1
9.52897 0 1
9.64584 0 1
9.76276 0 1
9.8797 0 1
9.99667 0 1
10.1137 0 1
10.2307 0 1
10.3478 0 1
10.4648 0 1
10.5819 0 1
10.6991 0 1
10.8162 0 1
10.9334 0 1
11.0506 0 1
11.1678 0 1
11.285 0 1
11.4023 0 1
11.5196 0 1
11.6369 0 1
11.7542 0 1
11.8715 0 1
11.9888 0 1
12.1062 0 1
12.2235 0 1
12.3409 0 1
12.4582 0 1
12.5756 0 1
12.693 0 1
12.8104 0 1
12.9278 0 1
13.0452 0 1
13.1626 0 1
13.28 0 1
13.3974 0 1
13.5149 0 1
13.6323 0 1
13.7497 0 1
13.8671 0 1
13.9845 0 1
14.1019 0 1
14.2193 0 1
14.3367 0 1
14.4541 0 1
14.5714 0 1
14.6888 0 1
14.8062 0 1
14.9235 0 1
15.0408 811 28.4781
15.1581 843 29.0345
15.2755 913 30.2159
15.3927 887 29.7825
15.51 820 28.6356
15.6273 879 29.6479
15.7445 896 29.9333
15.8617 920 30.3315
15.9789 900 30
16.0961 821 28.6531
16.2132 876 29.5973
16.3304 843 29.0345
16.4475 823 28.688
16.5646 773 27.8029
16.6816 848 29.1204
16.7986 842 29.0172
16.9156 822 28.6705
17.0326 820 28.6356
17.1496 828 28.775
17.2665 865 29.4109
17.3833 791 28.1247
17.5002 861 29.3428
17.617 825 28.7228
17.7338 849 29.1376
17.8505 888 29.7993
17.9672 876 29.5973
18.0839 788 28.0713
18.2005 839 28.9655
18.3171 823 28.688
18.4337 811 28.4781
18.5502 779 27.9106
18.6666 807 28.4077
18.7831 819 28.6182
18.8994 795 28.1957
19.0158 747 27.3313
19.1321 699 26.4386
19.2483 725 26.9258
19.3645 679 26.0576
19.4806 750 27.3861
19.5967 682 26.1151
19.7128 640 25.2982
19.8288 532 23.0651
19.9447 455 21.3307
20.0606 0 1
20.1764 0 1
20.2922 0 1
20.4079 0 1
20.5236 0 1
20.6392 0 1
20.7548 0 1
20.8702 0 1
23.3078 0 1
23.4233 0 1
23.539 0 1
23.6547 0 1
23.7704 0 1
23.8862 0 1
24.0021 0 1
24.118 0 1
24.234 0 1
24.35 0 1
24.4661 347 18.6279
24.5822 415 20.3715
24.6984 420 20.4939
24.8146 501 22.383
24.9309 580 24.0832
25.0472 611 24.7184
25.1636 636 25.219
25.28 731 27.037
25.3965 740 27.2029
25.513 801 28.3019
25.6296 833 28.8617
25.7462 849 29.1376
25.8628 847 29.1033
25.9795 813 28.5132
26.0962 875 29.5804
26.213 894 29.8998
26.3298 823 28.688
26.4466 811 28.4781
26.5635 800 28.2843
26.6804 729 27
26.7973 751 27.4044
26.9143 673 25.9422
27.0313 701 26.4764
27.1483 649 25.4755
27.2653 734 27.0924
27.3824 735 27.1109
27.4996 777 27.8747
27.6167 765 27.6586
27.7339 713 26.7021
27.8511 766 27.6767
27.9683 766 27.6767
28.0855 785 28.0179
28.2028 778 27.8927
28.3201 789 28.0891
28.4374 715 26.7395
28.5547 765 27.6586
28.6721 791 28.1247
28.7894 719 26.8142
28.9068 778 27.8927
29.0242 787 28.0535
29.1416 716 26.7582
29.259 763 27.6225
29.3764 768 27.7128
29.4939 745 27.2947
29.6113 764 27.6405
29.7288 731 27.037
29.8463 737 27.1477
29.9638 707 26.5895
30.0812 763 27.6225
30.1987 726 26.9444
30.3162 692 26.3059
30.4337 715 26.7395
30.5512 652 25.5343
30.6687 685 26.1725
30.7862 725 26.9258
30.9037 755 27.4773
31.0212 744 27.2764
31.1387 753 27.4408
31.2562 769 27.7308
31.3737 795 28.1957
31.4912 743 27.258
31.6087 729 27
31.7262 772 27.7849
31.8436 686 26.1916
31.9611 721 26.8514
32.0785 665 25.7876
32.1959 628 25.0599
32.3134 664 25.7682
32.4308 706 26.5707
32.5482 660 25.6905
32.6655 688 26.2298
32.7829 651 25.5147
32.9002 746 27.313
33.0176 627 25.04
33.1349 685 26.1725
33.2522 643 25.3574
33.3694 673 25.9422
33.4867 657 25.632
33.6039 688 26.2298
33.7211 689 26.2488
33.8383 686 26.1916
33.9554 673 25.9422
34.0725 658 25.6515
34.1896 574 23.9583
34.3067 634 25.1794
34.4237 652 25.5343
34.5407 681 26.096
34.6577 736 27.1293
34.7746 713 26.7021
34.8915 692 26.3059
35.0084 666 25.807
35.1252 726 26.9444
35.242 703 26.5141
35.3587 673 25.9422
35.4755 689 26.2488
35.5921 668 25.8457
35.7088 628 25.0599
35.8254 585 24.1868
35.9419 579 24.0624
36.0584 566 23.7908
36.1749 601 24.5153
36.2913 622 24.9399
36.4077 614 24.779
36.524 590 24.2899
36.6403 559 23.6432
36.7565 484 22
36.8727 465 21.5639
36.9889 483 21.9773
37.1049 461 21.4709
37.221 0 1
37.3369 0 1
37.4529 0 1
37.5687 0 1
37.6845 0 1
37.8003 0 1
37.916 0 1
38.0316 0 1
38.1472 0 1
40.5851 0 1
40.7008 0 1
40.8164 0 1
40.9322 0 1
41.048 0 1
41.1639 0 1
41.2798 0 1
41.3958 0 1
41.5118 0 1
41.6279 0 1
41.744 275 16.5831
41.8602 335 18.303
41.9765 362 19.0263
42.0928 482 21.9545
42.2091 512 22.6274
42.3255 526 22.9347
42.4419 538 23.1948
42.5584 536 23.1517
42.675 525 22.9129
42.7915 537 23.1733
42.9081 529 23
43.0248 497 22.2935
43.1415 460 21.4476
43.2582 518 22.7596
43.375 517 22.7376
43.4918 568 23.8328
43.6087 610 24.6982
43.7256 588 24.2487
43.8425 570 23.8747
43.9595 582 24.1247
44.0765 562 23.7065
44.1935 600 24.4949
44.3106 543 23.3024
44.4277 549 23.4307
44.5448 474 21.7715
44.6619 450 21.2132
44.7791 524 22.891
44.8963 539 23.2164
45.0136 544 23.3238
45.1308 583 24.1454
45.2481 548 23.4094
45.3654 563 23.7276
45.4827 603 24.5561
45.6001 598 24.454
45.7174 541 23.2594
45.8348 587 24.2281
45.9522 576 24
46.0697 588 24.2487
46.1871 595 24.3926
46.3046 565 23.7697
46.422 505 22.4722
46.5395 485 22.0227
46.657 455 21.3307
46.7745 513 22.6495
46.892 523 22.8692
47.0096 528 22.9783
47.1271 549 23.4307
47.2446 532 23.0651
47.3622 493 22.2036
47.4797 545 23.3452
47.5973 596 24.4131
47.7149 528 22.9783
47.8324 475 21.7945
47.95 495 22.2486
48.0675 457 21.3776
48.1851 490 22.1359
48.3027 499 22.3383
48.4202 520 22.8035
48.5378 534 23.1084
48.6554 496 22.2711
48.7729 517 22.7376
48.8904 542 23.2809
49.008 526 22.9347
49.1255 606 24.6171
49.243 561 23.6854
49.3605 570 23.8747
49.478 564 23.7487
49.5955 575 23.9792
49.713 545 23.3452
49.8304 505 22.4722
49.9479 481 21.9317
50.0653 421 20.5183
50.1827 422 20.5426
50.3001 517 22.7376
50.4175 504 22.4499
50.5348 532 23.0651
50.6521 549 23.4307
50.7694 568 23.8328
50.8867 583 24.1454
51.004 546 23.3666
51.1212 529 23
51.2384 565 23.7697
51.3556 583 24.1454
51.4727 490 22.1359
51.5899 445 21.095
51.707 508 22.5389
51.824 537 23.1733
51.9411 551 23.4734
52.0581 570 23.8747
52.175 633 25.1595
52.2919 589 24.2693
52.4088 643 25.3574
52.5257 698 26.4197
52.6425 726 26.9444
52.7593 746 27.313
52.876 807 28.4077
52.9927 802 28.3196
53.1094 885 29.7489
53.226 879 29.6479
53.3426 904 30.0666
53.4591 900 30
53.5756 889 29.8161
53.692 754 27.4591
53.8084 760 27.5681
53.9248 771 27.7669
54.0411 801 28.3019
54.1573 805 28.3725
54.2735 0 1
54.3896 0 1
54.5057 0 1
54.6217 0 1
54.7377 0 1
54.8537 0 1
54.9695 0 1
55.0853 0 1
55.2011 0 1
55.3168 0 1
55.4324 0 1
57.824 0 1
57.9396 0 1
58.0553 0 1
58.1711 0 1
58.2869 0 1
58.4028 0 1
58.5187 0 1
58.6347 0 1
58.7508 0 1
58.8669 0 1
58.983 670 25.8844
59.0992 802 28.3196
59.2155 989 31.4484
59.3318 1109 33.3017
59.4482 1056 32.4962
59.5646 1154 33.9706
59.681 1194 34.5543
59.7975 1273 35.6791
59.9141 1210 34.7851
60.0306 1245 35.2846
60.1473 1138 33.7343
60.2639 1185 34.4238
60.3807 1148 33.8821
60.4974 1221 34.9428
60.6142 1287 35.8748
60.731 1239 35.1994
60.8479 1160 34.0588
60.9648 1216 34.8712
61.0818 1157 34.0147
61.1987 1196 34.5832
61.3158 1151 33.9264
61.4328 1141 33.7787
61.5499 1055 32.4808
61.667 1131 33.6303
61.7841 1040 32.249
61.9013 1020 31.9374
62.0185 1010 31.7805
62.1357 897 29.95
62.253 867 29.4449
62.3702 871 29.5127
62.4875 872 29.5296
62.6049 847 29.1033
62.7222 917 30.282
62.8396 902 30.0333
62.9569 942 30.692
63.0743 895 29.9166
63.1918 857 29.2746
63.3092 892 29.8664
63.4267 839 28.9655
63.5441 778 27.8927
63.6616 727 26.9629
63.7791 648 25.4558
63.8966 678 26.0384
64.0142 588 24.2487
64.1317 598 24.454
64.2492 583 24.1454
64.3668 583 24.1454
64.4843 585 24.1868
64.6019 546 23.3666
64.7195 600 24.4949
64.837 618 24.8596
64.9546 599 24.4745
65.0722 566 23.7908
65.1898 589 24.2693
65.3074 576 24
65.4249 590 24.2899
65.5425 540 23.2379
65.6601 524 22.891
65.7777 510 22.5832
65.8952 480 21.9089
66.0128 485 22.0227
66.1304 492 22.1811
66.2479 555 23.5584
66.3655 530 23.0217
66.483 573 23.9374
66.6005 541 23.2594
66.718 576 24
66.8355 567 23.8118
66.953 554 23.5372
67.0705 577 24.0208
67.1879 555 23.5584
67.3054 547 23.388
67.4228 512 22.6274
67.5402 505 22.4722
67.6576 539 23.2164
67.7749 512 22.6274
67.8923 530 23.0217
68.0096 536 23.1517
68.1269 563 23.7276
68.2442 521 22.8254
68.3614 516 22.7156
68.4787 555 23.5584
68.5958 564 23.7487
68.713 601 24.5153
68.8302 542 23.2809
68.9473 573 23.9374
69.0643 553 23.516
69.1814 516 22.7156
69.2984 488 22.0907
69.4154 478 21.8632
69.5323 493 22.2036
69.6492 516 22.7156
69.7661 515 22.6936
69.8829 535 23.1301
69.9997 552 23.4947
70.1165 565 23.7697
70.2332 544 23.3238
70.3499 503 22.4277
70.4665 488 22.0907
70.5831 482 21.9545
70.6996 418 20.445
70.8161 403 20.0749
70.9326 352 18.7617
71.049 318 17.8326
71.1653 300 17.3205
71.2817 273 16.5227
71.3979 294 17.1464
71.5141 255 15.9687
71.6303 246 15.6844
71.7464 179 13.3791
71.8624 0 1
71.9784 0 1
72.0944 0 1
72.2102 0 1
72.3261 0 1
72.4418 0 1
72.5575 0 1
72.6732 0 1
75.1054 0 1
75.2209 0 1
75.3365 0 1
75.4521 0 1
75.5678 0 1
75.6835 0 1
75.7993 0 1
75.9151 0 1
76.031 0 1
76.147 320 17.8885
76.263 345 18.5742
76.3791 359 18.9473
76.4952 431 20.7605
76.6113 418 20.445
76.7276 435 20.8567
76.8438 431 20.7605
76.9601 479 21.8861
77.0765 428 20.6882
77.1929 471 21.7025
77.3093 431 20.7605
77.4258 430 20.7364
77.5423 455 21.3307
77.6589 474 21.7715
77.7755 455 21.3307
77.8921 517 22.7376
78.0088 443 21.0476
78.1256 497 22.2935
78.2423 414 20.347
78.3591 446 21.1187
78.4759 383 19.5704
78.5928 395 19.8746
78.7097 443 21.0476
78.8266 436 20.8806
78.9436 443 21.0476
79.0606 444 21.0713
79.1776 477 21.8403
79.2946 455 21.3307
79.4117 447 21.1424
79.5288 465 21.5639
79.6459 524 22.891
79.7631 453 21.2838
79.8802 472 21.7256
79.9974 455 21.3307
80.1147 479 21.8861
80.2319 461 21.4709
80.3491 453 21.2838
80.4664 449 21.1896
80.5837 489 22.1133
80.701 452 21.2603
80.8183 463 21.5174
80.9357 450 21.2132
81.053 447 21.1424
81.1704 450 21.2132
81.2877 450 21.2132
81.4051 448 21.166
81.5225 456 21.3542
81.6399 461 21.4709
81.7573 496 22.2711
81.8747 448 21.166
81.9922 397 19.9249
82.1096 423 20.567
82.227 365 19.105
82.3444 434 20.8327
82.4619 467 21.6102
82.5793 453 21.2838
82.6967 458 21.4009
82.8142 486 22.0454
82.9316 523 22.8692
83.049 502 22.4054
83.1664 492 22.1811
83.2838 443 21.0476
83.4012 489 22.1133
83.5186 427 20.664
83.636 424 20.5913
83.7534 442 21.0238
83.8708 465 21.5639
83.9881 474 21.7715
84.1055 459 21.4243
84.2228 522 22.8473
84.3401 432 20.7846
84.4575 506 22.4944
84.5747 496 22.2711
84.692 441 21
84.8093 495 22.2486
84.9265 495 22.2486
85.0437 431 20.7605
85.1609 508 22.5389
85.2781 510 22.5832
85.3952 486 22.0454
85.5123 437 20.9045
85.6294 438 20.9284
85.7465 447 21.1424
85.8636 402 20.0499
85.9806 428 20.6882
86.0976 454 21.3073
86.2145 488 22.0907
86.3315 486 22.0454
86.4484 496 22.2711
86.5652 520 22.8035
86.682 494 22.2261
86.7988 503 22.4277
86.9156 488 22.0907
87.0323 447 21.1424
87.149 456 21.3542
87.2657 459 21.4243
87.3823 419 20.4695
87.4988 441 21
87.6154 429 20.7123
87.7318 431 20.7605
87.8483 429 20.7123
87.9647 402 20.0499
88.081 381 19.5192
88.1973 329 18.1384
88.3136 314 17.72
88.4298 320 17.8885
88.546 285 16.8819
88.6621 285 16.8819
88.7781 284 16.8523
88.8942 0 1
89.0101 0 1
89.126 0 1
89.2419 0 1
89.3577 0 1
89.4734 0 1
89.5891 0 1
89.7047 0 1
89.8203 0 1
89.9358 0 1
92.3269 0 1
92.4424 0 1
92.558 0 1
92.6736 0 1
92.7893 0 1
92.905 0 1
93.0208 0 1
93.1366 0 1
93.2525 0 1
93.3685 0 1
93.4845 0 1
93.6005 372 19.2873
93.7167 387 19.6723
93.8328 403 20.0749
93.949 445 21.095
94.0653 460 21.4476
94.1816 469 21.6564
94.2979 486 22.0454
94.4143 489 22.1133
94.5307 448 21.166
94.6472 481 21.9317
94.7637 446 21.1187
94.8803 425 20.6155
94.9969 468 21.6333
95.1135 447 21.1424
95.2302 490 22.1359
95.3469 492 22.1811
95.4637 459 21.4243
95.5805 492 22.1811
95.6973 510 22.5832
95.8142 509 22.561
95.9311 505 22.4722
96.048 439 20.9523
96.1649 462 21.4942
96.2819 461 21.4709
96.3989 460 21.4476
96.516 496 22.2711
96.633 491 22.1585
96.7501 497 22.2935
96.8673 458 21.4009
96.9844 516 22.7156
97.1016 498 22.3159
97.2188 510 22.5832
97.336 541 23.2594
97.4532 470 21.6795
97.5704 452 21.2603
97.6877 452 21.2603
97.805 492 22.1811
97.9223 486 22.0454
98.0396 530 23.0217
98.1569 481 21.9317
98.2743 514 22.6716
98.3916 478 21.8632
98.509 487 22.0681
98.6264 520 22.8035
98.7438 466 21.587
98.8612 492 22.1811
98.9786 527 22.9565
99.096 530 23.0217
99.2134 561 23.6854
99.3308 593 24.3516
99.4482 534 23.1084
99.5656 503 22.4277
99.6831 481 21.9317
99.8005 503 22.4277
99.9179 477 21.8403
100.035 522 22.8473
100.153 555 23.5584
100.27 512 22.6274
100.388 512 22.6274
100.505 520 22.8035
100.622 548 23.4094
100.74 529 23
100.857 536 23.1517
100.975 519 22.7816
101.092 488 22.0907
101.209 524 22.891
101.327 547 23.388
101.444 502 22.4054
101.561 536 23.1517
101.679 531 23.0434
101.796 509 22.561
101.913 461 21.4709
102.03 490 22.1359
102.148 482 21.9545
102.265 527 22.9565
102.382 530 23.0217
102.499 543 23.3024
102.616 522 22.8473
102.733 594 24.3721
102.851 517 22.7376
102.968 556 23.5797
103.085 498 22.3159
103.202 529 23
103.319 556 23.5797
103.436 576 24
103.552 505 22.4722
103.669 549 23.4307
103.786 576 24
103.903 555 23.5584
104.02 531 23.0434
104.137 559 23.6432
104.253 534 23.1084
104.37 594 24.3721
104.487 543 23.3024
104.603 500 22.3607
104.72 500 22.3607
104.836 502 22.4054
104.953 506 22.4944
105.069 495 22.2486
105.186 477 21.8403
105.302 464 21.5407
105.418 435 20.8567
105.535 373 19.3132
105.651 340 18.4391
105.767 309 17.5784
105.883 314 17.72
105.999 276 16.6132
106.115 0 1
106.231 0 1
106.347 0 1
106.463 0 1
106.579 0 1
106.694 0 1
106.81 0 1
106.926 0 1
107.041 0 1
107.157 0 1
109.576 0 1
109.692 0 1
109.807 0 1
109.923 0 1
110.039 0 1
110.155 0 1
110.27 0 1
110.386 0 1
110.502 0 1
110.618 267 16.3401
110.735 287 16.9411
110.851 349 18.6815
110.967 359 18.9473
111.083 466 21.587
111.199 501 22.383
111.316 525 22.9129
111.432 511 22.6053
111.549 520 22.8035
111.665 535 23.1301
111.782 501 22.383
111.898 500 22.3607
112.015 478 21.8632
112.132 549 23.4307
112.248 505 22.4722
112.365 541 23.2594
112.482 542 23.2809
112.599 472 21.7256
112.716 555 23.5584
112.832 497 22.2935
112.949 472 21.7256
113.066 455 21.3307
113.183 509 22.561
113.3 490 22.1359
113.417 484 22
113.534 515 22.6936
113.652 467 21.6102
113.769 507 22.5167
113.886 535 23.1301
114.003 461 21.4709
114.12 478 21.8632
114.238 443 21.0476
114.355 425 20.6155
114.472 445 21.095
114.589 491 22.1585
114.707 477 21.8403
114.824 516 22.7156
114.942 518 22.7596
115.059 467 21.6102
115.176 482 21.9545
115.294 437 20.9045
115.411 437 20.9045
115.529 463 21.5174
115.646 479 21.8861
115.764 475 21.7945
115.881 473 21.7486
115.999 523 22.8692
116.116 480 21.9089
116.234 516 22.7156
116.351 464 21.5407
116.469 472 21.7256
116.586 444 21.0713
116.704 457 21.3776
116.821 437 20.9045
116.939 449 21.1896
117.056 419 20.4695
117.174 454 21.3073
117.291 500 22.3607
117.409 496 22.2711
117.526 446 21.1187
117.644 474 21.7715
117.761 451 21.2368
117.879 416 20.3961
117.996 430 20.7364
118.114 430 20.7364
118.231 472 21.7256
118.349 483 21.9773
118.466 432 20.7846
118.584 474 21.7715
118.701 460 21.4476
118.819 448 21.166
118.936 474 21.7715
119.053 464 21.5407
119.171 394 19.8494
119.288 420 20.4939
119.405 458 21.4009
119.523 470 21.6795
119.64 486 22.0454
119.757 479 21.8861
119.875 436 20.8806
119.992 435 20.8567
120.109 463 21.5174
120.226 479 21.8861
120.343 429 20.7123
120.46 433 20.8087
120.578 464 21.5407
120.695 444 21.0713
120.812 487 22.0681
120.929 447 21.1424
121.046 426 20.6398
121.163 384 19.5959
121.279 415 20.3715
121.396 419 20.4695
121.513 399 19.975
121.63 389 19.7231
121.747 341 18.4662
121.863 371 19.2614
121.98 357 18.8944
122.097 382 19.5448
122.213 385 19.6214
122.33 331 18.1934
122.446 369 19.2094
122.563 319 17.8606
122.679 285 16.8819
122.795 245 15.6525
122.912 260 16.1245
123.028 267 16.3401
123.144 258 16.0624
123.26 246 15.6844
123.377 0 1
123.493 0 1
123.609 0 1
123.725 0 1
123.84 0 1
123.956 0 1
124.072 0 1
124.188 0 1
124.303 0 1
124.419 0 1
126.852 0 1
126.968 0 1
127.083 0 1
127.199 0 1
127.315 0 1
127.431 0 1
127.547 0 1
127.663 0 1
127.779 0 1
127.895 0 1
128.011 0 1
128.127 0 1
128.243 0 1
128.359 468 21.6333
128.476 477 21.8403
128.592 508 22.5389
128.708 485 22.0227
128.825 558 23.622
128.941 529 23
129.058 513 22.6495
129.174 561 23.6854
129.291 497 22.2935
129.408 519 22.7816
129.524 491 22.1585
129.641 515 22.6936
129.758 508 22.5389
129.875 519 22.7816
129.992 540 23.2379
130.108 541 23.2594
130.225 517 22.7376
130.342 532 23.0651
130.459 512 22.6274
130.576 515 22.6936
130.693 516 22.7156
130.81 547 23.388
130.928 586 24.2074
131.045 618 24.8596
131.162 597 24.4336
131.279 653 25.5539
131.396 662 25.7294
131.513 700 26.4575
131.631 680 26.0768
131.748 644 25.3772
131.865 672 25.923
131.983 667 25.8263
132.1 747 27.3313
132.217 813 28.5132
132.335 853 29.2062
132.452 853 29.2062
132.57 867 29.4449
132.687 883 29.7153
132.804 873 29.5466
132.922 914 30.2324
133.039 946 30.7571
133.157 934 30.5614
133.274 901 30.0167
133.392 956 30.9192
133.509 905 30.0832
133.627 969 31.1288
133.744 924 30.3974
133.862 919 30.315
133.979 926 30.4302
134.097 863 29.3769
134.214 872 29.5296
134.332 848 29.1204
134.449 843 29.0345
134.567 930 30.4959
134.684 968 31.1127
134.802 928 30.4631
134.919 1006 31.7175
135.037 1040 32.249
135.154 1002 31.6544
135.272 931 30.5123
135.389 927 30.4467
135.507 881 29.6816
135.624 977 31.257
135.742 958 30.9516
135.859 971 31.1609
135.977 1025 32.0156
136.094 1054 32.4654
136.211 1013 31.8277
136.329 994 31.5278
136.446 1043 32.2955
136.564 1023 31.9844
136.681 1012 31.8119
136.798 971 31.1609
136.915 997 31.5753
137.033 1006 31.7175
137.15 1065 32.6343
137.267 985 31.3847
137.384 937 30.6105
137.502 932 30.5287
137.619 958 30.9516
137.736 859 29.3087
137.853 840 28.9828
137.97 850 29.1548
138.087 811 28.4781
138.204 897 29.95
138.321 940 30.6594
138.438 928 30.4631
138.555 1007 31.7333
138.672 1032 32.1248
138.788 1003 31.6702
138.905 928 30.4631
139.022 930 30.4959
139.139 822 28.6705
139.255 822 28.6705
139.372 786 28.0357
139.488 764 27.6405
139.605 782 27.9643
139.721 798 28.2489
139.838 703 26.5141
139.954 654 25.5734
140.071 626 25.02
140.187 616 24.8193
140.303 569 23.8537
140.419 570 23.8747
140.535 517 22.7376
140.652 537 23.1733
140.768 0 1
140.884 0 1
141 0 1
141.115 0 1
141.231 0 1
141.347 0 1
141.463 0 1
141.578 0 1
141.694 0 1
144.104 0 1
144.219 0 1
144.335 0 1
144.45 0 1
144.566 0 1
144.682 0 1
144.798 0 1
144.914 0 1
145.03 0 1
145.146 1429 37.8021
145.262 1641 40.5093
145.378 1650 40.6202
145.494 1748 41.8091
145.61 1761 41.9643
145.726 1955 44.2154
145.842 1987 44.5758
145.959 1962 44.2945
146.075 2085 45.6618
146.192 2111 45.9456
146.308 2116 46
146.425 2170 46.5833
146.541 2198 46.8828
146.658 2124 46.0869
146.774 1953 44.1928
146.891 1807 42.5088
147.008 1945 44.1022
147.125 2322 48.1871
147.241 2743 52.3737
147.358 2923 54.0648
147.475 2946 54.2771
147.592 2965 54.4518
147.709 3074 55.4437
147.826 3136 56
147.943 3010 54.8635
148.06 3037 55.109
148.177 3027 55.0182
148.294 3158 56.1961
148.411 3140 56.0357
148.528 3229 56.8243
148.645 3107 55.7405
148.762 3154 56.1605
148.88 3183 56.4181
148.997 3308 57.5152
149.114 3166 56.2672
149.231 3126 55.9106
149.349 3284 57.3062
149.466 3057 55.2901
149.583 3177 56.3649
149.701 3083 55.5248
149.818 3050 55.2268
149.935 3167 56.2761
150.053 2972 54.5161
150.17 2932 54.1479
150.287 2801 52.9245
150.405 2461 49.6085
150.522 2256 47.4974
150.64 2024 44.9889
150.757 2358 48.5592
150.875 2797 52.8867
150.992 3118 55.8391
151.11 3089 55.5788
151.227 3272 57.2014
151.344 3328 57.6888
151.462 3374 58.0861
151.579 3474 58.9406
151.697 3425 58.5235
151.814 3576 59.7997
151.932 3644 60.3656
152.049 3792 61.5792
152.167 3859 62.1208
152.284 3936 62.7375
152.402 4063 63.7417
152.519 3991 63.1744
152.636 3972 63.0238
152.754 4020 63.4035
152.871 4135 64.304
152.989 4155 64.4593
153.106 4045 63.6003
153.223 4114 64.1405
153.341 4049 63.6318
153.458 4037 63.5374
153.575 3872 62.2254
153.693 3932 62.7057
153.81 3750 61.2372
153.927 3086 55.5518
154.044 2301 47.9687
154.162 2267 47.613
154.279 2836 53.2541
154.396 3361 57.9741
154.513 3491 59.0847
154.63 3522 59.3464
154.747 3439 58.643
154.864 3298 57.4282
154.981 3186 56.4447
155.098 3100 55.6776
155.215 2928 54.111
155.332 2931 54.1387
155.449 2675 51.7204
155.566 2715 52.1057
155.683 2577 50.7642
155.8 2472 49.7192
155.917 2342 48.3942
156.033 2262 47.5605
156.15 0 1
156.267 0 1
156.383 0 1
156.5 0 1
156.617 0 1
156.733 0 1
156.85 0 1
156.966 0 1
157.082 0 1
157.199 0 1
157.315 0 1
157.431 0 1
157.547 0 1
157.664 0 1
157.78 0 1
157.896 0 1
158.012 0 1
158.128 0 1
158.244 0 1
158.359 0 1
158.475 0 1
158.591 0 1
158.706 0 1
