
6.15755 0 1
6.2731 0 1
6.3887 0 1
6.50437 0 1
6.62009 0 1
6.73587 0 1
6.8517 0 1
6.96759 0 1
7.08353 0 1
7.19952 0 1
7.31557 0 1
7.43166 0 1
7.54781 0 1
7.664 0 1
7.78024 0 1
7.89653 0 1
8.01286 0 1
8.12924 0 1
8.24567 0 1
8.36213 0 1
8.47864 0 1
8.59519 0 1
8.71178 0 1
8.82841 0 1
8.94508 0 1
9.06179 0 1
9.17853 0 1
9.29531 0 1
9.41212 0 1
9.52897 0 1
9.64584 0 1
9.76276 0 1
9.8797 0 1
9.99667 0 1
10.1137 0 1
10.2307 0 1
10.3478 0 1
10.4648 0 1
10.5819 0 1
10.6991 0 1
10.8162 0 1
10.9334 0 1
11.0506 0 1
11.1678 0 1
11.285 0 1
11.4023 0 1
11.5196 0 1
11.6369 0 1
11.7542 0 1
11.8715 0 1
11.9888 0 1
12.1062 0 1
12.2235 0 1
12.3409 0 1
12.4582 0 1
12.5756 0 1
12.693 0 1
12.8104 0 1
12.9278 0 1
13.0452 0 1
13.1626 0 1
13.28 0 1
13.3974 0 1
13.5149 0 1
13.6323 0 1
13.7497 0 1
13.8671 0 1
13.9845 0 1
14.1019 0 1
14.2193 0 1
14.3367 0 1
14.4541 0 1
14.5714 0 1
14.6888 0 1
14.8062 0 1
14.9235 0 1
15.0408 2866 53.535
15.1581 3013 54.8908
15.2755 3025 55
15.3927 2991 54.69
15.51 3044 55.1725
15.6273 3023 54.9818
15.7445 2930 54.1295
15.8617 2774 52.6688
15.9789 2789 52.811
16.0961 2699 51.9519
16.2132 2723 52.1824
16.3304 2689 51.8556
16.4475 2701 51.9711
16.5646 2596 50.951
16.6816 2568 50.6754
16.7986 2566 50.6557
16.9156 2523 50.2295
17.0326 2542 50.4183
17.1496 2486 49.8598
17.2665 2539 50.3885
17.3833 2484 49.8397
17.5002 2570 50.6952
17.617 2589 50.8822
17.7338 2580 50.7937
17.8505 2699 51.9519
17.9672 2507 50.07
18.0839 2516 50.1597
18.2005 2322 48.1871
18.3171 2307 48.0312
18.4337 2395 48.9387
18.5502 2482 49.8197
18.6666 2534 50.3389
18.7831 2488 49.8799
18.8994 2633 51.3128
19.0158 2443 49.4267
19.1321 2269 47.634
19.2483 2230 47.2229
19.3645 2172 46.6047
19.4806 2078 45.5851
19.5967 1940 44.0454
19.7128 1870 43.2435
19.8288 1780 42.19
19.9447 1636 40.4475
20.0606 0 1
20.1764 0 1
20.2922 0 1
20.4079 0 1
20.5236 0 1
20.6392 0 1
20.7548 0 1
20.8702 0 1
23.3078 0 1
23.4233 0 1
23.539 0 1
23.6547 0 1
23.7704 0 1
23.8862 0 1
24.0021 0 1
24.118 0 1
24.234 0 1
24.35 0 1
24.4661 1039 32.2335
24.5822 1163 34.1028
24.6984 1382 37.1753
24.8146 1675 40.9268
24.9309 1941 44.0568
25.0472 2107 45.9021
25.1636 2241 47.3392
25.28 2332 48.2908
25.3965 2529 50.2892
25.513 2633 51.3128
25.6296 2656 51.5364
25.7462 2748 52.4214
25.8628 2753 52.469
25.9795 2753 52.469
26.0962 2744 52.3832
26.213 2562 50.6162
26.3298 2610 51.0882
26.4466 2448 49.4773
26.5635 2398 48.9694
26.6804 2364 48.621
26.7973 2180 46.6905
26.9143 1959 44.2606
27.0313 2092 45.7384
27.1483 2222 47.1381
27.2653 2279 47.7389
27.3824 2313 48.0937
27.4996 2400 48.9898
27.6167 2340 48.3735
27.7339 2273 47.676
27.8511 2312 48.0833
27.9683 2309 48.0521
28.0855 2242 47.3498
28.2028 2300 47.9583
28.3201 2368 48.6621
28.4374 2451 49.5076
28.5547 2384 48.8262
28.6721 2477 49.7695
28.7894 2387 48.8569
28.9068 2389 48.8774
29.0242 2430 49.295
29.1416 2427 49.2646
29.259 2386 48.8467
29.3764 2386 48.8467
29.4939 2342 48.3942
29.6113 2345 48.4252
29.7288 2344 48.4149
29.8463 2268 47.6235
29.9638 2300 47.9583
30.0812 2175 46.6369
30.1987 2101 45.8367
30.3162 1917 43.7836
30.4337 1930 43.9318
30.5512 2134 46.1952
30.6687 2327 48.239
30.7862 2338 48.3529
30.9037 2423 49.224
31.0212 2497 49.97
31.1387 2394 48.9285
31.2562 2406 49.051
31.3737 2384 48.8262
31.4912 2324 48.2079
31.6087 2256 47.4974
31.7262 2326 48.2286
31.8436 2275 47.697
31.9611 2290 47.8539
32.0785 2270 47.6445
32.1959 2214 47.0532
32.3134 2264 47.5815
32.4308 2162 46.4973
32.5482 2113 45.9674
32.6655 2163 46.5081
32.7829 2098 45.8039
32.9002 2039 45.1553
33.0176 2015 44.8888
33.1349 1951 44.1701
33.2522 2053 45.31
33.3694 2107 45.9021
33.4867 2042 45.1885
33.6039 2091 45.7275
33.7211 2033 45.0888
33.8383 2031 45.0666
33.9554 1941 44.0568
34.0725 1905 43.6463
34.1896 1975 44.441
34.3067 2119 46.0326
34.4237 2242 47.3498
34.5407 2255 47.4868
34.6577 2243 47.3603
34.7746 2140 46.2601
34.8915 2115 45.9891
35.0084 1968 44.3621
35.1252 1959 44.2606
35.242 1946 44.1135
35.3587 2004 44.7661
35.4755 1963 44.3058
35.5921 2096 45.7821
35.7088 2075 45.5522
35.8254 2042 45.1885
35.9419 1994 44.6542
36.0584 2082 45.6289
36.1749 1946 44.1135
36.2913 2004 44.7661
36.4077 1807 42.5088
36.524 1770 42.0714
36.6403 1852 43.0349
36.7565 1706 41.3038
36.8727 1604 40.05
36.9889 1519 38.9744
37.1049 1437 37.9078
37.221 0 1
37.3369 0 1
37.4529 0 1
37.5687 0 1
37.6845 0 1
37.8003 0 1
37.916 0 1
38.0316 0 1
38.1472 0 1
40.5851 0 1
40.7008 0 1
40.8164 0 1
40.9322 0 1
41.048 0 1
41.1639 0 1
41.2798 0 1
41.3958 0 1
41.5118 0 1
41.6279 0 1
41.744 870 29.4958
41.8602 1045 32.3265
41.9765 1183 34.3948
42.0928 1302 36.0832
42.2091 1437 37.9078
42.3255 1512 38.8844
42.4419 1632 40.398
42.5584 1593 39.9124
42.675 1623 40.2865
42.7915 1470 38.3406
42.9081 1512 38.8844
43.0248 1611 40.1373
43.1415 1635 40.4351
43.2582 1569 39.6106
43.375 1580 39.7492
43.4918 1662 40.7676
43.6087 1629 40.3609
43.7256 1532 39.1408
43.8425 1551 39.3827
43.9595 1458 38.1838
44.0765 1455 38.1445
44.1935 1472 38.3667
44.3106 1546 39.3192
44.4277 1480 38.4708
44.5448 1572 39.6485
44.6619 1541 39.2556
44.7791 1636 40.4475
44.8963 1611 40.1373
45.0136 1648 40.5956
45.1308 1640 40.4969
45.2481 1669 40.8534
45.3654 1639 40.4846
45.4827 1703 41.2674
45.6001 1691 41.1218
45.7174 1692 41.1339
45.8348 1781 42.2019
45.9522 1768 42.0476
46.0697 1620 40.2492
46.1871 1612 40.1497
46.3046 1507 38.8201
46.422 1490 38.6005
46.5395 1463 38.2492
46.657 1565 39.5601
46.7745 1592 39.8999
46.892 1615 40.1871
47.0096 1642 40.5216
47.1271 1669 40.8534
47.2446 1669 40.8534
47.3622 1650 40.6202
47.4797 1577 39.7115
47.5973 1497 38.6911
47.7149 1476 38.4187
47.8324 1558 39.4715
47.95 1524 39.0384
48.0675 1483 38.5097
48.1851 1596 39.95
48.3027 1587 39.8372
48.4202 1629 40.3609
48.5378 1694 41.1582
48.6554 1620 40.2492
48.7729 1641 40.5093
48.8904 1629 40.3609
49.008 1663 40.7799
49.1255 1696 41.1825
49.243 1709 41.3401
49.3605 1678 40.9634
49.478 1604 40.05
49.5955 1535 39.1791
49.713 1463 38.2492
49.8304 1405 37.4833
49.9479 1447 38.0395
50.0653 1488 38.5746
50.1827 1477 38.4318
50.3001 1557 39.4588
50.4175 1522 39.0128
50.5348 1591 39.8873
50.6521 1496 38.6782
50.7694 1577 39.7115
50.8867 1520 38.9872
51.004 1434 37.8682
51.1212 1531 39.128
51.2384 1461 38.223
51.3556 1568 39.598
51.4727 1512 38.8844
51.5899 1618 40.2244
51.707 1670 40.8656
51.824 1703 41.2674
51.9411 1576 39.6989
52.0581 1594 39.9249
52.175 1609 40.1123
52.2919 1545 39.3065
52.4088 1606 40.0749
52.5257 1631 40.3856
52.6425 1614 40.1746
52.7593 1569 39.6106
52.876 1559 39.4842
52.9927 1594 39.9249
53.1094 1590 39.8748
53.226 1511 38.8716
53.3426 1449 38.0657
53.4591 1467 38.3014
53.5756 1408 37.5233
53.692 1479 38.4578
53.8084 1364 36.9324
53.9248 1426 37.7624
54.0411 1293 35.9583
54.1573 1153 33.9559
54.2735 0 1
54.3896 0 1
54.5057 0 1
54.6217 0 1
54.7377 0 1
54.8537 0 1
54.9695 0 1
55.0853 0 1
55.2011 0 1
55.3168 0 1
55.4324 0 1
57.824 0 1
57.9396 0 1
58.0553 0 1
58.1711 0 1
58.2869 0 1
58.4028 0 1
58.5187 0 1
58.6347 0 1
58.7508 0 1
58.8669 0 1
58.983 3982 63.1031
59.0992 5256 72.4983
59.2155 6298 79.3599
59.3318 7901 88.8876
59.4482 9755 98.7674
59.5646 11648 107.926
59.681 13441 115.935
59.7975 14519 120.495
59.9141 15272 123.58
60.0306 17363 131.769
60.1473 21068 145.148
60.2639 26013 161.285
60.3807 30901 175.787
60.4974 36201 190.266
60.6142 40324 200.808
60.731 44221 210.288
60.8479 47343 217.584
60.9648 50766 225.313
61.0818 54219 232.85
61.1987 57366 239.512
61.3158 61767 248.53
61.4328 65579 256.084
61.5499 70315 265.17
61.667 74058 272.136
61.7841 77271 277.977
61.9013 79640 282.206
62.0185 81006 284.616
62.1357 81771 285.956
62.253 81710 285.85
62.3702 83862 289.589
62.4875 86081 293.396
62.6049 85925 293.13
62.7222 83742 289.382
62.8396 78635 280.419
62.9569 74478 272.907
63.0743 70779 266.043
63.1918 65291 255.521
63.3092 54670 233.816
63.4267 44197 210.231
63.5441 34828 186.623
63.6616 28588 169.08
63.7791 23550 153.46
63.8966 17694 133.019
64.0142 11989 109.494
64.1317 7734 87.9432
64.2492 4955 70.3918
64.3668 3667 60.5558
64.4843 3048 55.2087
64.6019 2777 52.6972
64.7195 2508 50.0799
64.837 2640 51.3809
64.9546 2638 51.3615
65.0722 2729 52.2398
65.1898 2629 51.2738
65.3074 2657 51.5461
65.4249 2429 49.2849
65.5425 2340 48.3735
65.6601 2252 47.4552
65.7777 2131 46.1628
65.8952 2042 45.1885
66.0128 2227 47.1911
66.1304 2158 46.4543
66.2479 2162 46.4973
66.3655 2145 46.3141
66.483 2124 46.0869
66.6005 2106 45.8912
66.718 2204 46.9468
66.8355 2003 44.7549
66.953 2041 45.1774
67.0705 1857 43.0929
67.1879 1875 43.3013
67.3054 1864 43.1741
67.4228 1786 42.2611
67.5402 1901 43.6005
67.6576 1926 43.8862
67.7749 1987 44.5758
67.8923 1903 43.6234
68.0096 1909 43.6921
68.1269 1937 44.0114
68.2442 1837 42.8602
68.3614 1842 42.9185
68.4787 1832 42.8019
68.5958 1990 44.6094
68.713 1977 44.4635
68.8302 1884 43.4051
68.9473 1931 43.9431
69.0643 1810 42.5441
69.1814 1850 43.0116
69.2984 1776 42.1426
69.4154 1797 42.391
69.5323 1821 42.6732
69.6492 1869 43.2319
69.7661 1877 43.3244
69.8829 1986 44.5646
69.9997 1913 43.7379
70.1165 1870 43.2435
70.2332 1746 41.7852
70.3499 1777 42.1545
70.4665 1720 41.4729
70.5831 1636 40.4475
70.6996 1474 38.3927
70.8161 1397 37.3765
70.9326 1250 35.3553
71.049 1207 34.7419
71.1653 1037 32.2025
71.2817 1027 32.0468
71.3979 1013 31.8277
71.5141 887 29.7825
71.6303 818 28.6007
71.7464 691 26.2869
71.8624 0 1
71.9784 0 1
72.0944 0 1
72.2102 0 1
72.3261 0 1
72.4418 0 1
72.5575 0 1
72.6732 0 1
75.1054 0 1
75.2209 0 1
75.3365 0 1
75.4521 0 1
75.5678 0 1
75.6835 0 1
75.7993 0 1
75.9151 0 1
76.031 0 1
76.147 1067 32.665
76.263 1200 34.641
76.3791 1318 36.3043
76.4952 1414 37.6032
76.6113 1488 38.5746
76.7276 1550 39.37
76.8438 1625 40.3113
76.9601 1652 40.6448
77.0765 1594 39.9249
77.1929 1620 40.2492
77.3093 1626 40.3237
77.4258 1647 40.5832
77.5423 1631 40.3856
77.6589 1611 40.1373
77.7755 1629 40.3609
77.8921 1642 40.5216
78.0088 1693 41.1461
78.1256 1642 40.5216
78.2423 1573 39.6611
78.3591 1548 39.3446
78.4759 1514 38.9102
78.5928 1634 40.4228
78.7097 1585 39.8121
78.8266 1621 40.2616
78.9436 1584 39.7995
79.0606 1580 39.7492
79.1776 1604 40.05
79.2946 1615 40.1871
79.4117 1569 39.6106
79.5288 1574 39.6737
79.6459 1626 40.3237
79.7631 1602 40.025
79.8802 1561 39.5095
79.9974 1607 40.0874
80.1147 1571 39.6358
80.2319 1577 39.7115
80.3491 1634 40.4228
80.4664 1664 40.7922
80.5837 1656 40.694
80.701 1600 40
80.8183 1602 40.025
80.9357 1658 40.7185
81.053 1653 40.6571
81.1704 1658 40.7185
81.2877 1667 40.8289
81.4051 1652 40.6448
81.5225 1744 41.7612
81.6399 1675 40.9268
81.7573 1730 41.5933
81.8747 1679 40.9756
81.9922 1628 40.3485
82.1096 1619 40.2368
82.227 1606 40.0749
82.3444 1498 38.704
82.4619 1570 39.6232
82.5793 1625 40.3113
82.6967 1595 39.9375
82.8142 1674 40.9145
82.9316 1754 41.8808
83.049 1663 40.7799
83.1664 1595 39.9375
83.2838 1650 40.6202
83.4012 1740 41.7133
83.5186 1664 40.7922
83.636 1712 41.3763
83.7534 1723 41.509
83.8708 1657 40.7063
83.9881 1674 40.9145
84.1055 1708 41.328
84.2228 1665 40.8044
84.3401 1588 39.8497
84.4575 1668 40.8412
84.5747 1625 40.3113
84.692 1651 40.6325
84.8093 1697 41.1947
84.9265 1688 41.0853
85.0437 1698 41.2068
85.1609 1803 42.4617
85.2781 1739 41.7013
85.3952 1786 42.2611
85.5123 1669 40.8534
85.6294 1657 40.7063
85.7465 1707 41.3159
85.8636 1670 40.8656
85.9806 1678 40.9634
86.0976 1702 41.2553
86.2145 1667 40.8289
86.3315 1747 41.7971
86.4484 1689 41.0974
86.5652 1740 41.7133
86.682 1725 41.5331
86.7988 1735 41.6533
86.9156 1702 41.2553
87.0323 1680 40.9878
87.149 1805 42.4853
87.2657 1741 41.7253
87.3823 1694 41.1582
87.4988 1653 40.6571
87.6154 1523 39.0256
87.7318 1531 39.128
87.8483 1486 38.5487
87.9647 1402 37.4433
88.081 1387 37.2424
88.1973 1248 35.327
88.3136 1152 33.9411
88.4298 1140 33.7639
88.546 1078 32.8329
88.6621 1108 33.2866
88.7781 928 30.4631
88.8942 0 1
89.0101 0 1
89.126 0 1
89.2419 0 1
89.3577 0 1
89.4734 0 1
89.5891 0 1
89.7047 0 1
89.8203 0 1
89.9358 0 1
92.3269 0 1
92.4424 0 1
92.558 0 1
92.6736 0 1
92.7893 0 1
92.905 0 1
93.0208 0 1
93.1366 0 1
93.2525 0 1
93.3685 0 1
93.4845 0 1
93.6005 1296 36
93.7167 1401 37.4299
93.8328 1544 39.2938
93.949 1597 39.9625
94.0653 1635 40.4351
94.1816 1687 41.0731
94.2979 1678 40.9634
94.4143 1772 42.0951
94.5307 1735 41.6533
94.6472 1762 41.9762
94.7637 1759 41.9404
94.8803 1728 41.5692
94.9969 1801 42.4382
95.1135 1730 41.5933
95.2302 1655 40.6817
95.3469 1728 41.5692
95.4637 1749 41.821
95.5805 1720 41.4729
95.6973 1792 42.332
95.8142 1702 41.2553
95.9311 1682 41.0122
96.048 1820 42.6615
96.1649 1801 42.4382
96.2819 1850 43.0116
96.3989 1854 43.0581
96.516 1766 42.0238
96.633 1786 42.2611
96.7501 1663 40.7799
96.8673 1720 41.4729
96.9844 1721 41.4849
97.1016 1679 40.9756
97.2188 1745 41.7732
97.336 1689 41.0974
97.4532 1777 42.1545
97.5704 1836 42.8486
97.6877 1864 43.1741
97.805 1791 42.3202
97.9223 1792 42.332
98.0396 1848 42.9884
98.1569 1840 42.8952
98.2743 1848 42.9884
98.3916 1770 42.0714
98.509 1799 42.4146
98.6264 1793 42.3438
98.7438 1770 42.0714
98.8612 1723 41.509
98.9786 1834 42.8252
99.096 1839 42.8836
99.2134 1958 44.2493
99.3308 1917 43.7836
99.4482 2032 45.0777
99.5656 1900 43.589
99.6831 1978 44.4747
99.8005 1977 44.4635
99.9179 1866 43.1972
100.035 1854 43.0581
100.153 1852 43.0349
100.27 1757 41.9166
100.388 1788 42.2847
100.505 1724 41.5211
100.622 1865 43.1856
100.74 1744 41.7612
100.857 1762 41.9762
100.975 1859 43.1161
101.092 1826 42.7317
101.209 1861 43.1393
101.327 1917 43.7836
101.444 1920 43.8178
101.561 1985 44.5533
101.679 1948 44.1362
101.796 1973 44.4185
101.913 1994 44.6542
102.03 1911 43.715
102.148 1900 43.589
102.265 1854 43.0581
102.382 1858 43.1045
102.499 1884 43.4051
102.616 1957 44.238
102.733 1997 44.6878
102.851 1965 44.3283
102.968 2118 46.0217
103.085 2012 44.8553
103.202 2027 45.0222
103.319 2055 45.3321
103.436 2012 44.8553
103.552 1959 44.2606
103.669 2058 45.3652
103.786 1979 44.486
103.903 2014 44.8776
104.02 1932 43.9545
104.137 1967 44.3509
104.253 2002 44.7437
104.37 1932 43.9545
104.487 2021 44.9555
104.603 2054 45.3211
104.72 2066 45.4533
104.836 2012 44.8553
104.953 2009 44.8219
105.069 1971 44.3959
105.186 1882 43.382
105.302 1775 42.1307
105.418 1680 40.9878
105.535 1552 39.3954
105.651 1367 36.973
105.767 1271 35.6511
105.883 1249 35.3412
105.999 1152 33.9411
106.115 0 1
106.231 0 1
106.347 0 1
106.463 0 1
106.579 0 1
106.694 0 1
106.81 0 1
106.926 0 1
107.041 0 1
107.157 0 1
109.576 0 1
109.692 0 1
109.807 0 1
109.923 0 1
110.039 0 1
110.155 0 1
110.27 0 1
110.386 0 1
110.502 0 1
110.618 1115 33.3916
110.735 1313 36.2353
110.851 1427 37.7757
110.967 1451 38.092
111.083 1507 38.8201
111.199 1606 40.0749
111.316 1842 42.9185
111.432 1987 44.5758
111.549 2049 45.2659
111.665 2157 46.4435
111.782 2157 46.4435
111.898 2110 45.9347
112.015 2172 46.6047
112.132 2092 45.7384
112.248 2126 46.1086
112.365 2123 46.076
112.482 2069 45.4863
112.599 1952 44.1814
112.716 1908 43.6807
112.832 1932 43.9545
112.949 1968 44.3621
113.066 1996 44.6766
113.183 2031 45.0666
113.3 2105 45.8803
113.417 2128 46.1303
113.534 2094 45.7602
113.652 2183 46.7226
113.769 2294 47.8957
113.886 2295 47.9062
114.003 2379 48.775
114.12 2415 49.1426
114.238 2464 49.6387
114.355 2466 49.6588
114.472 2437 49.366
114.589 2516 50.1597
114.707 2511 50.1099
114.824 2567 50.6656
114.942 2439 49.3862
115.059 2554 50.5371
115.176 2709 52.0481
115.294 2493 49.93
115.411 2405 49.0408
115.529 1989 44.5982
115.646 1957 44.238
115.764 1717 41.4367
115.881 1735 41.6533
115.999 1636 40.4475
116.116 1527 39.0768
116.234 1579 39.7366
116.351 1497 38.6911
116.469 1529 39.1024
116.586 1541 39.2556
116.704 1467 38.3014
116.821 1572 39.6485
116.939 1608 40.0999
117.056 1553 39.4081
117.174 1591 39.8873
117.291 1639 40.4846
117.409 1676 40.939
117.526 1633 40.4104
117.644 1638 40.4722
117.761 1663 40.7799
117.879 1631 40.3856
117.996 1419 37.6696
118.114 1439 37.9342
118.231 1450 38.0789
118.349 1579 39.7366
118.466 1589 39.8623
118.584 1531 39.128
118.701 1685 41.0488
118.819 1667 40.8289
118.936 1627 40.3361
119.053 1600 40
119.171 1643 40.5339
119.288 1586 39.8246
119.405 1577 39.7115
119.523 1474 38.3927
119.64 1410 37.55
119.757 1466 38.2884
119.875 1407 37.51
119.992 1502 38.7556
120.109 1408 37.5233
120.226 1445 38.0132
120.343 1512 38.8844
120.46 1428 37.7889
120.578 1521 39
120.695 1495 38.6652
120.812 1569 39.6106
120.929 1556 39.4462
121.046 1635 40.4351
121.163 1583 39.7869
121.279 1560 39.4968
121.396 1564 39.5474
121.513 1409 37.5366
121.63 1392 37.3095
121.747 1279 35.7631
121.863 1252 35.3836
121.98 1328 36.4417
122.097 1337 36.565
122.213 1252 35.3836
122.33 1287 35.8748
122.446 1281 35.7911
122.563 1222 34.9571
122.679 1141 33.7787
122.795 1117 33.4215
122.912 1021 31.9531
123.028 953 30.8707
123.144 837 28.931
123.26 765 27.6586
123.377 0 1
123.493 0 1
123.609 0 1
123.725 0 1
123.84 0 1
123.956 0 1
124.072 0 1
124.188 0 1
124.303 0 1
124.419 0 1
126.852 0 1
126.968 0 1
127.083 0 1
127.199 0 1
127.315 0 1
127.431 0 1
127.547 0 1
127.663 0 1
127.779 0 1
127.895 0 1
128.011 0 1
128.127 0 1
128.243 0 1
128.359 1636 40.4475
128.476 1628 40.3485
128.592 1617 40.2119
128.708 1492 38.6264
128.825 1573 39.6611
128.941 1535 39.1791
129.058 1601 40.0125
129.174 1605 40.0625
129.291 1721 41.4849
129.408 1732 41.6173
129.524 1806 42.4971
129.641 1766 42.0238
129.758 1777 42.1545
129.875 1831 42.7902
129.992 1956 44.2267
130.108 1935 43.9886
130.225 2058 45.3652
130.342 2062 45.4093
130.459 1951 44.1701
130.576 2054 45.3211
130.693 1945 44.1022
130.81 1892 43.4971
130.928 2024 44.9889
131.045 2191 46.8081
131.162 2286 47.8121
131.279 2474 49.7393
131.396 2564 50.636
131.513 2798 52.8961
131.631 2933 54.1572
131.748 3137 56.0089
131.865 3191 56.4889
131.983 3232 56.8507
132.1 3222 56.7627
132.217 3270 57.1839
132.335 3278 57.2538
132.452 3425 58.5235
132.57 3517 59.3043
132.687 3695 60.7865
132.804 3853 62.0725
132.922 3995 63.206
133.039 4039 63.5531
133.157 4155 64.4593
133.274 4224 64.9923
133.392 4196 64.7765
133.509 4181 64.6607
133.627 4300 65.5744
133.744 4322 65.7419
133.862 4319 65.7191
133.979 4195 64.7688
134.097 4100 64.0312
134.214 3806 61.6928
134.332 3487 59.0508
134.449 3439 58.643
134.567 3515 59.2874
134.684 3676 60.63
134.802 4002 63.2614
134.919 4070 63.7966
135.037 4117 64.1639
135.154 4238 65.0999
135.272 4093 63.9766
135.389 4212 64.8999
135.507 4109 64.1015
135.624 4122 64.2028
135.742 4173 64.5988
135.859 3935 62.7296
135.977 3921 62.6179
136.094 3926 62.6578
136.211 4158 64.4826
136.329 4190 64.7302
136.446 4203 64.8305
136.564 4249 65.1844
136.681 4143 64.3661
136.798 4155 64.4593
136.915 4158 64.4826
137.033 4168 64.56
137.15 4210 64.8845
137.267 4252 65.2074
137.384 4252 65.2074
137.502 4141 64.3506
137.619 3907 62.506
137.736 3802 61.6604
137.853 3161 56.2228
137.97 3249 57
138.087 3159 56.205
138.204 3282 57.2887
138.321 3664 60.531
138.438 3680 60.663
138.555 3919 62.6019
138.672 3766 61.3677
138.788 3802 61.6604
138.905 3753 61.2617
139.022 3823 61.8304
139.139 3549 59.5735
139.255 3520 59.3296
139.372 3093 55.6147
139.488 2859 53.4696
139.605 2519 50.1896
139.721 2540 50.3984
139.838 2393 48.9183
139.954 2378 48.7647
140.071 2360 48.5798
140.187 2259 47.5289
140.303 2125 46.0977
140.419 2042 45.1885
140.535 1986 44.5646
140.652 1830 42.7785
140.768 0 1
140.884 0 1
141 0 1
141.115 0 1
141.231 0 1
141.347 0 1
141.463 0 1
141.578 0 1
141.694 0 1
144.104 0 1
144.219 0 1
144.335 0 1
144.45 0 1
144.566 0 1
144.682 0 1
144.798 0 1
144.914 0 1
145.03 0 1
145.146 2909 53.9351
145.262 3071 55.4166
145.378 3213 56.6833
145.494 3141 56.0446
145.61 3420 58.4808
145.726 3503 59.1861
145.842 3623 60.1914
145.959 3551 59.5903
146.075 3529 59.4054
146.192 3629 60.2412
146.308 3670 60.5805
146.425 3587 59.8916
146.541 3664 60.531
146.658 3490 59.0762
146.774 3302 57.463
146.891 3237 56.8946
147.008 3374 58.0861
147.125 3524 59.3633
147.241 3729 61.0655
147.358 3688 60.7289
147.475 3719 60.9836
147.592 3713 60.9344
147.709 3661 60.5062
147.826 3784 61.5142
147.943 3718 60.9754
148.06 3567 59.7244
148.177 3321 57.6281
148.294 3433 58.5918
148.411 3502 59.1777
148.528 3459 58.8133
148.645 3550 59.5819
148.762 3585 59.8749
148.88 3720 60.9918
148.997 3707 60.8851
149.114 3664 60.531
149.231 3712 60.9262
149.349 3704 60.8605
149.466 3628 60.2329
149.583 3795 61.6036
149.701 3775 61.441
149.818 3829 61.8789
149.935 3705 60.8687
150.053 3774 61.4329
150.17 3683 60.6877
150.287 3311 57.5413
150.405 2995 54.7266
150.522 3002 54.7905
150.64 3151 56.1338
150.757 3300 57.4456
150.875 3422 58.4979
150.992 3349 57.8705
151.11 3320 57.6194
151.227 3248 56.9912
151.344 3392 58.2409
151.462 3408 58.3781
151.579 3394 58.258
151.697 3483 59.0169
151.814 3439 58.643
151.932 3388 58.2065
152.049 3345 57.836
152.167 3419 58.4722
152.284 3501 59.1692
152.402 3542 59.5147
152.519 3631 60.2578
152.636 3461 58.8303
152.754 3573 59.7746
152.871 3647 60.3904
152.989 3520 59.3296
153.106 3599 59.9917
153.223 3619 60.1581
153.341 3647 60.3904
153.458 3674 60.6135
153.575 3398 58.2924
153.693 3299 57.4369
153.81 2973 54.5252
153.927 2800 52.915
154.044 2816 53.066
154.162 2894 53.7959
154.279 3003 54.7996
154.396 3117 55.8301
154.513 3150 56.1249
154.63 3192 56.4978
154.747 3176 56.356
154.864 3079 55.4887
154.981 3069 55.3986
155.098 3007 54.8361
155.215 3018 54.9363
155.332 2916 54
155.449 3027 55.0182
155.566 2961 54.4151
155.683 2928 54.111
155.8 3075 55.4527
155.917 3096 55.6417
156.033 3021 54.9636
156.15 0 1
156.267 0 1
156.383 0 1
156.5 0 1
156.617 0 1
156.733 0 1
156.85 0 1
156.966 0 1
157.082 0 1
157.199 0 1
157.315 0 1
157.431 0 1
157.547 0 1
157.664 0 1
157.78 0 1
157.896 0 1
158.012 0 1
158.128 0 1
158.244 0 1
158.359 0 1
158.475 0 1
158.591 0 1
158.706 0 1
