
6.15755 0 1
6.2731 0 1
6.3887 0 1
6.50437 0 1
6.62009 0 1
6.73587 0 1
6.8517 0 1
6.96759 0 1
7.08353 0 1
7.19952 0 1
7.31557 0 1
7.43166 0 1
7.54781 0 1
7.664 0 1
7.78024 0 1
7.89653 0 1
8.01286 0 1
8.12924 0 1
8.24567 0 1
8.36213 0 1
8.47864 0 1
8.59519 0 1
8.71178 0 1
8.82841 0 1
8.94508 0 1
9.06179 0 1
9.17853 0 1
9.29531 0 1
9.41212 0 1
9.52897 0 1
9.64584 0 1
9.76276 0 1
9.8797 0 1
9.99667 0 1
10.1137 0 1
10.2307 0 1
10.3478 0 1
10.4648 0 1
10.5819 0 1
10.6991 0 1
10.8162 0 1
10.9334 0 1
11.0506 0 1
11.1678 0 1
11.285 0 1
11.4023 0 1
11.5196 0 1
11.6369 0 1
11.7542 0 1
11.8715 0 1
11.9888 0 1
12.1062 0 1
12.2235 0 1
12.3409 0 1
12.4582 0 1
12.5756 0 1
12.693 0 1
12.8104 0 1
12.9278 0 1
13.0452 0 1
13.1626 0 1
13.28 0 1
13.3974 0 1
13.5149 0 1
13.6323 0 1
13.7497 0 1
13.8671 0 1
13.9845 0 1
14.1019 0 1
14.2193 0 1
14.3367 0 1
14.4541 0 1
14.5714 0 1
14.6888 0 1
14.8062 0 1
14.9235 0 1
15.0408 0 0
15.1581 0 0
15.2755 0 0
15.3927 0 0
15.51 0 0
15.6273 0 0
15.7445 0 0
15.8617 0 0
15.9789 0 0
16.0961 0 0
16.2132 0 0
16.3304 0 0
16.4475 0 0
16.5646 0 0
16.6816 0 0
16.7986 0 0
16.9156 0 0
17.0326 0 0
17.1496 0 0
17.2665 0 0
17.3833 0 0
17.5002 0 0
17.617 0 0
17.7338 0 0
17.8505 0 0
17.9672 0 0
18.0839 0 0
18.2005 0 0
18.3171 0 0
18.4337 0 0
18.5502 0 0
18.6666 0 0
18.7831 0 0
18.8994 0 0
19.0158 0 0
19.1321 0 0
19.2483 0 0
19.3645 0 0
19.4806 0 0
19.5967 0 0
19.7128 0 0
19.8288 0 0
19.9447 0 0
20.0606 0 1
20.1764 0 1
20.2922 0 1
20.4079 0 1
20.5236 0 1
20.6392 0 1
20.7548 0 1
20.8702 0 1
23.3078 0 1
23.4233 0 1
23.539 0 1
23.6547 0 1
23.7704 0 1
23.8862 0 1
24.0021 0 1
24.118 0 1
24.234 0 1
24.35 0 1
24.4661 1437 37.9078
24.5822 1548 39.3446
24.6984 1650 40.6202
24.8146 1779 42.1782
24.9309 2072 45.5192
25.0472 2468 49.679
25.1636 2572 50.7149
25.28 2897 53.8238
25.3965 2892 53.7773
25.513 2778 52.7067
25.6296 2933 54.1572
25.7462 2936 54.1849
25.8628 2878 53.647
25.9795 2950 54.3139
26.0962 3009 54.8544
26.213 2975 54.5436
26.3298 2947 54.2863
26.4466 2932 54.1479
26.5635 3034 55.0818
26.6804 2892 53.7773
26.7973 3002 54.7905
26.9143 2806 52.9717
27.0313 2843 53.3198
27.1483 2746 52.4023
27.2653 2800 52.915
27.3824 2669 51.6624
27.4996 2579 50.7839
27.6167 2383 48.816
27.7339 2398 48.9694
27.8511 2552 50.5173
27.9683 2647 51.449
28.0855 2773 52.6593
28.2028 2780 52.7257
28.3201 2779 52.7162
28.4374 2764 52.5738
28.5547 2573 50.7247
28.6721 2774 52.6688
28.7894 2726 52.2111
28.9068 2734 52.2877
29.0242 2746 52.4023
29.1416 2812 53.0283
29.259 2720 52.1536
29.3764 2691 51.8748
29.4939 2786 52.7826
29.6113 2580 50.7937
29.7288 2583 50.8232
29.8463 2543 50.4282
29.9638 2566 50.6557
30.0812 2666 51.6333
30.1987 2749 52.4309
30.3162 2674 51.7107
30.4337 2666 51.6333
30.5512 2685 51.817
30.6687 2750 52.4404
30.7862 2700 51.9615
30.9037 2536 50.3587
31.0212 2530 50.2991
31.1387 2571 50.705
31.2562 2485 49.8498
31.3737 2637 51.3517
31.4912 2635 51.3323
31.6087 2736 52.3068
31.7262 2723 52.1824
31.8436 2726 52.2111
31.9611 2764 52.5738
32.0785 2644 51.4198
32.1959 2729 52.2398
32.3134 2659 51.5655
32.4308 2573 50.7247
32.5482 2537 50.3686
32.6655 2475 49.7494
32.7829 2407 49.0612
32.9002 2351 48.4871
33.0176 2367 48.6518
33.1349 2413 49.1223
33.2522 2426 49.2544
33.3694 2308 48.0416
33.4867 2385 48.8365
33.6039 2335 48.3218
33.7211 2405 49.0408
33.8383 2487 49.8698
33.9554 2414 49.1325
34.0725 2577 50.7642
34.1896 2630 51.2835
34.3067 2651 51.4879
34.4237 2652 51.4976
34.5407 2462 49.6185
34.6577 2419 49.1833
34.7746 2379 48.775
34.8915 2455 49.548
35.0084 2536 50.3587
35.1252 2656 51.5364
35.242 2660 51.5752
35.3587 2641 51.3907
35.4755 2612 51.1077
35.5921 2488 49.8799
35.7088 2514 50.1398
35.8254 2443 49.4267
35.9419 2317 48.1352
36.0584 2381 48.7955
36.1749 2176 46.6476
36.2913 2138 46.2385
36.4077 2060 45.3872
36.524 2045 45.2217
36.6403 1729 41.5812
36.7565 1530 39.1152
36.8727 1454 38.1314
36.9889 1373 37.054
37.1049 1321 36.3456
37.221 0 1
37.3369 0 1
37.4529 0 1
37.5687 0 1
37.6845 0 1
37.8003 0 1
37.916 0 1
38.0316 0 1
38.1472 0 1
40.5851 0 1
40.7008 0 1
40.8164 0 1
40.9322 0 1
41.048 0 1
41.1639 0 1
41.2798 0 1
41.3958 0 1
41.5118 0 1
41.6279 0 1
41.744 1098 33.1361
41.8602 1370 37.0135
41.9765 1568 39.598
42.0928 1652 40.6448
42.2091 1661 40.7554
42.3255 1793 42.3438
42.4419 1802 42.45
42.5584 1817 42.6263
42.675 1898 43.566
42.7915 1972 44.4072
42.9081 2093 45.7493
43.0248 2162 46.4973
43.1415 2237 47.2969
43.2582 2302 47.9792
43.375 2059 45.3762
43.4918 2093 45.7493
43.6087 2082 45.6289
43.7256 2060 45.3872
43.8425 2168 46.5618
43.9595 2153 46.4004
44.0765 2171 46.594
44.1935 2161 46.4866
44.3106 2159 46.465
44.4277 2147 46.3357
44.5448 2058 45.3652
44.6619 2049 45.2659
44.7791 2056 45.3431
44.8963 1952 44.1814
45.0136 1883 43.3935
45.1308 1866 43.1972
45.2481 1844 42.9418
45.3654 1728 41.5692
45.4827 1808 42.5206
45.6001 1829 42.7668
45.7174 1881 43.3705
45.8348 1884 43.4051
45.9522 1849 43
46.0697 2013 44.8665
46.1871 2088 45.6946
46.3046 2014 44.8776
46.422 2190 46.7974
46.5395 2101 45.8367
46.657 2136 46.2169
46.7745 2117 46.0109
46.892 2106 45.8912
47.0096 1966 44.3396
47.1271 1978 44.4747
47.2446 2047 45.2438
47.3622 2173 46.6154
47.4797 2079 45.5961
47.5973 2100 45.8258
47.7149 2099 45.8148
47.8324 2056 45.3431
47.95 2054 45.3211
48.0675 2113 45.9674
48.1851 2012 44.8553
48.3027 2020 44.9444
48.4202 1915 43.7607
48.5378 1850 43.0116
48.6554 1882 43.382
48.7729 1871 43.2551
48.8904 1870 43.2435
49.008 1834 42.8252
49.1255 1854 43.0581
49.243 1820 42.6615
49.3605 1818 42.638
49.478 1825 42.72
49.5955 1977 44.4635
49.713 1969 44.3734
49.8304 1946 44.1135
49.9479 2019 44.9333
50.0653 1950 44.1588
50.1827 1967 44.3509
50.3001 1956 44.2267
50.4175 1772 42.0951
50.5348 1687 41.0731
50.6521 1727 41.5572
50.7694 1920 43.8178
50.8867 2023 44.9778
51.004 2085 45.6618
51.1212 2111 45.9456
51.2384 2033 45.0888
51.3556 2075 45.5522
51.4727 2013 44.8665
51.5899 1978 44.4747
51.707 1973 44.4185
51.824 2006 44.7884
51.9411 1941 44.0568
52.0581 1890 43.4741
52.175 1872 43.2666
52.2919 1809 42.5323
52.4088 1811 42.5558
52.5257 1821 42.6732
52.6425 1792 42.332
52.7593 1698 41.2068
52.876 1720 41.4729
52.9927 1776 42.1426
53.1094 1703 41.2674
53.226 1724 41.5211
53.3426 1773 42.107
53.4591 1759 41.9404
53.5756 1622 40.2741
53.692 1364 36.9324
53.8084 1319 36.318
53.9248 1242 35.242
54.0411 1111 33.3317
54.1573 998 31.5911
54.2735 0 1
54.3896 0 1
54.5057 0 1
54.6217 0 1
54.7377 0 1
54.8537 0 1
54.9695 0 1
55.0853 0 1
55.2011 0 1
55.3168 0 1
55.4324 0 1
57.824 0 1
57.9396 0 1
58.0553 0 1
58.1711 0 1
58.2869 0 1
58.4028 0 1
58.5187 0 1
58.6347 0 1
58.7508 0 1
58.8669 0 1
58.983 1569 39.6106
59.0992 1620 40.2492
59.2155 1626 40.3237
59.3318 1642 40.5216
59.4482 1856 43.0813
59.5646 1985 44.5533
59.681 2123 46.076
59.7975 2198 46.8828
59.9141 2218 47.0956
60.0306 2165 46.5296
60.1473 2211 47.0213
60.2639 2223 47.1487
60.3807 2245 47.3814
60.4974 2300 47.9583
60.6142 2235 47.2758
60.731 2187 46.7654
60.8479 2226 47.1805
60.9648 2297 47.927
61.0818 2228 47.2017
61.1987 2204 46.9468
61.3158 2119 46.0326
61.4328 2076 45.5631
61.5499 2002 44.7437
61.667 2047 45.2438
61.7841 2089 45.7056
61.9013 2073 45.5302
62.0185 2167 46.551
62.1357 2089 45.7056
62.253 2180 46.6905
62.3702 2190 46.7974
62.4875 2035 45.111
62.6049 1982 44.5197
62.7222 2016 44.8999
62.8396 2087 45.6837
62.9569 2170 46.5833
63.0743 2184 46.7333
63.1918 2295 47.9062
63.3092 2292 47.8748
63.4267 2226 47.1805
63.5441 2350 48.4768
63.6616 2220 47.1169
63.7791 2316 48.1248
63.8966 2193 46.8295
64.0142 2161 46.4866
64.1317 2171 46.594
64.2492 2164 46.5188
64.3668 2279 47.7389
64.4843 2151 46.3789
64.6019 2244 47.3709
64.7195 2089 45.7056
64.837 2087 45.6837
64.9546 2061 45.3982
65.0722 2042 45.1885
65.1898 1968 44.3621
65.3074 2063 45.4203
65.4249 1955 44.2154
65.5425 2115 45.9891
65.6601 2138 46.2385
65.7777 2124 46.0869
65.8952 2098 45.8039
66.0128 2165 46.5296
66.1304 2014 44.8776
66.2479 1810 42.5441
66.3655 1780 42.19
66.483 2042 45.1885
66.6005 2103 45.8585
66.718 2173 46.6154
66.8355 2263 47.571
66.953 2147 46.3357
67.0705 2189 46.7868
67.1879 2264 47.5815
67.3054 2181 46.7012
67.4228 2144 46.3033
67.5402 2151 46.3789
67.6576 2161 46.4866
67.7749 2057 45.3542
67.8923 2123 46.076
68.0096 2131 46.1628
68.1269 2217 47.085
68.2442 2129 46.1411
68.3614 2057 45.3542
68.4787 2002 44.7437
68.5958 1985 44.5533
68.713 1937 44.0114
68.8302 1942 44.0681
68.9473 1895 43.5316
69.0643 1946 44.1135
69.1814 1980 44.4972
69.2984 2009 44.8219
69.4154 2007 44.7996
69.5323 1974 44.4297
69.6492 2012 44.8553
69.7661 1778 42.1663
69.8829 1671 40.8779
69.9997 1632 40.398
70.1165 1728 41.5692
70.2332 1893 43.5086
70.3499 1785 42.2493
70.4665 1642 40.5216
70.5831 1493 38.6394
70.6996 1457 38.1707
70.8161 1457 38.1707
70.9326 1382 37.1753
71.049 1322 36.3593
71.1653 1301 36.0694
71.2817 1164 34.1174
71.3979 1188 34.4674
71.5141 1133 33.6601
71.6303 1093 33.0606
71.7464 1043 32.2955
71.8624 0 1
71.9784 0 1
72.0944 0 1
72.2102 0 1
72.3261 0 1
72.4418 0 1
72.5575 0 1
72.6732 0 1
75.1054 0 1
75.2209 0 1
75.3365 0 1
75.4521 0 1
75.5678 0 1
75.6835 0 1
75.7993 0 1
75.9151 0 1
76.031 0 1
76.147 1638 40.4722
76.263 1830 42.7785
76.3791 1862 43.1509
76.4952 1736 41.6653
76.6113 1932 43.9545
76.7276 1877 43.3244
76.8438 1946 44.1135
76.9601 1950 44.1588
77.0765 2003 44.7549
77.1929 1997 44.6878
77.3093 1998 44.699
77.4258 1991 44.6206
77.5423 1953 44.1928
77.6589 1942 44.0681
77.7755 1871 43.2551
77.8921 1885 43.4166
78.0088 1814 42.5911
78.1256 1920 43.8178
78.2423 1970 44.3847
78.3591 1932 43.9545
78.4759 1958 44.2493
78.5928 1971 44.3959
78.7097 1866 43.1972
78.8266 1654 40.6694
78.9436 1516 38.9358
79.0606 1437 37.9078
79.1776 1650 40.6202
79.2946 1891 43.4856
79.4117 2007 44.7996
79.5288 2081 45.618
79.6459 2121 46.0543
79.7631 2070 45.4973
79.8802 2074 45.5412
79.9974 2086 45.6727
80.1147 1996 44.6766
80.2319 2018 44.9222
80.3491 2057 45.3542
80.4664 2023 44.9778
80.5837 2040 45.1664
80.701 2126 46.1086
80.8183 2163 46.5081
80.9357 2237 47.2969
81.053 2064 45.4313
81.1704 2051 45.288
81.2877 2110 45.9347
81.4051 2012 44.8553
81.5225 2098 45.8039
81.6399 1971 44.3959
81.7573 2020 44.9444
81.8747 2025 45
81.9922 2029 45.0444
82.1096 2106 45.8912
82.227 2123 46.076
82.3444 2079 45.5961
82.4619 1821 42.6732
82.5793 1731 41.6053
82.6967 1644 40.5463
82.8142 1761 41.9643
82.9316 2054 45.3211
83.049 2073 45.5302
83.1664 2196 46.8615
83.2838 2129 46.1411
83.4012 2238 47.3075
83.5186 2208 46.9894
83.636 2155 46.422
83.7534 2197 46.8722
83.8708 2160 46.4758
83.9881 2192 46.8188
84.1055 2203 46.9361
84.2228 2211 47.0213
84.3401 2188 46.7761
84.4575 2360 48.5798
84.5747 2202 46.9255
84.692 2219 47.1063
84.8093 2231 47.2335
84.9265 2226 47.1805
85.0437 2139 46.2493
85.1609 2134 46.1952
85.2781 2176 46.6476
85.3952 2157 46.4435
85.5123 2126 46.1086
85.6294 2208 46.9894
85.7465 2185 46.744
85.8636 2067 45.4643
85.9806 1953 44.1928
86.0976 1784 42.2374
86.2145 1617 40.2119
86.3315 1674 40.9145
86.4484 2032 45.0777
86.5652 2092 45.7384
86.682 2136 46.2169
86.7988 2207 46.9787
86.9156 2225 47.1699
87.0323 2158 46.4543
87.149 2095 45.7712
87.2657 2071 45.5082
87.3823 2104 45.8694
87.4988 2052 45.299
87.6154 1980 44.4972
87.7318 1816 42.6146
87.8483 1735 41.6533
87.9647 1694 41.1582
88.081 1804 42.4735
88.1973 1733 41.6293
88.3136 1580 39.7492
88.4298 1527 39.0768
88.546 1425 37.7492
88.6621 1371 37.027
88.7781 1343 36.647
88.8942 0 1
89.0101 0 1
89.126 0 1
89.2419 0 1
89.3577 0 1
89.4734 0 1
89.5891 0 1
89.7047 0 1
89.8203 0 1
89.9358 0 1
92.3269 0 1
92.4424 0 1
92.558 0 1
92.6736 0 1
92.7893 0 1
92.905 0 1
93.0208 0 1
93.1366 0 1
93.2525 0 1
93.3685 0 1
93.4845 0 1
93.6005 2535 50.3488
93.7167 2511 50.1099
93.8328 2465 49.6488
93.949 2434 49.3356
94.0653 2378 48.7647
94.1816 2483 49.8297
94.2979 2519 50.1896
94.4143 2384 48.8262
94.5307 2482 49.8197
94.6472 2467 49.6689
94.7637 2427 49.2646
94.8803 2318 48.1456
94.9969 2227 47.1911
95.1135 2064 45.4313
95.2302 2082 45.6289
95.3469 2070 45.4973
95.4637 2384 48.8262
95.5805 2457 49.5681
95.6973 2564 50.636
95.8142 2612 51.1077
95.9311 2599 50.9804
96.048 2541 50.4083
96.1649 2578 50.774
96.2819 2632 51.303
96.3989 2604 51.0294
96.516 2571 50.705
96.633 2581 50.8035
96.7501 2644 51.4198
96.8673 2708 52.0384
96.9844 2768 52.6118
97.1016 2774 52.6688
97.2188 2747 52.4118
97.336 2755 52.4881
97.4532 2704 52
97.5704 2565 50.6458
97.6877 2552 50.5173
97.805 2681 51.7784
97.9223 2651 51.4879
98.0396 2681 51.7784
98.1569 2640 51.3809
98.2743 2664 51.614
98.3916 2592 50.9117
98.509 2353 48.5077
98.6264 2299 47.9479
98.7438 2112 45.9565
98.8612 2284 47.7912
98.9786 2467 49.6689
99.096 2675 51.7204
99.2134 2640 51.3809
99.3308 2589 50.8822
99.4482 2666 51.6333
99.5656 2626 51.2445
99.6831 2719 52.144
99.8005 2650 51.4782
99.9179 2634 51.3225
100.035 2631 51.2933
100.153 2710 52.0577
100.27 2717 52.1249
100.388 2775 52.6783
100.505 2942 54.2402
100.622 2913 53.9722
100.74 2905 53.8981
100.857 2811 53.0189
100.975 2841 53.301
101.092 2807 52.9811
101.209 2687 51.8363
101.327 2734 52.2877
101.444 2633 51.3128
101.561 2727 52.2207
101.679 2828 53.1789
101.796 2784 52.7636
101.913 2622 51.2055
102.03 2639 51.3712
102.148 2377 48.7545
102.265 2184 46.7333
102.382 2335 48.3218
102.499 2382 48.8057
102.616 2581 50.8035
102.733 2599 50.9804
102.851 2707 52.0288
102.968 2655 51.5267
103.085 2562 50.6162
103.202 2604 51.0294
103.319 2484 49.8397
103.436 2548 50.4777
103.552 2553 50.5272
103.669 2514 50.1398
103.786 2512 50.1199
103.903 2568 50.6754
104.02 2565 50.6458
104.137 2503 50.03
104.253 2663 51.6043
104.37 2536 50.3587
104.487 2554 50.5371
104.603 2498 49.98
104.72 2469 49.689
104.836 2266 47.6025
104.953 2097 45.793
105.069 1907 43.6692
105.186 1631 40.3856
105.302 1564 39.5474
105.418 1444 38
105.535 1347 36.7015
105.651 1150 33.9116
105.767 1023 31.9844
105.883 859 29.3087
105.999 835 28.8964
106.115 0 1
106.231 0 1
106.347 0 1
106.463 0 1
106.579 0 1
106.694 0 1
106.81 0 1
106.926 0 1
107.041 0 1
107.157 0 1
109.576 0 1
109.692 0 1
109.807 0 1
109.923 0 1
110.039 0 1
110.155 0 1
110.27 0 1
110.386 0 1
110.502 0 1
110.618 2451 49.5076
110.735 2823 53.1319
110.851 2591 50.9019
110.967 2476 49.7594
111.083 2367 48.6518
111.199 2525 50.2494
111.316 2658 51.5558
111.432 2763 52.5642
111.549 2819 53.0943
111.665 2809 53
111.782 2926 54.0925
111.898 2749 52.4309
112.015 2815 53.0566
112.132 2746 52.4023
112.248 2754 52.4786
112.365 2764 52.5738
112.482 2844 53.3292
112.599 2927 54.1018
112.716 2995 54.7266
112.832 3143 56.0625
112.949 3161 56.2228
113.066 3235 56.8771
113.183 3180 56.3915
113.3 3239 56.9122
113.417 3145 56.0803
113.534 3142 56.0535
113.652 3217 56.7186
113.769 3092 55.6058
113.886 3049 55.2178
114.003 3154 56.1605
114.12 3097 55.6507
114.238 3092 55.6058
114.355 3003 54.7996
114.472 2764 52.5738
114.589 2699 51.9519
114.707 2662 51.5946
114.824 2636 51.342
114.942 2837 53.2635
115.059 3045 55.1815
115.176 2872 53.591
115.294 2966 54.461
115.411 2912 53.963
115.529 2909 53.9351
115.646 2961 54.4151
115.764 2883 53.6936
115.881 2930 54.1295
115.999 2878 53.647
116.116 2994 54.7175
116.234 2929 54.1202
116.351 3048 55.2087
116.469 3139 56.0268
116.586 3302 57.463
116.704 3261 57.1052
116.821 3261 57.1052
116.939 3254 57.0438
117.056 3263 57.1227
117.174 3224 56.7803
117.291 3247 56.9825
117.409 3124 55.8928
117.526 3173 56.3294
117.644 3287 57.3324
117.761 3215 56.701
117.879 3187 56.4535
117.996 2931 54.1387
118.114 2727 52.2207
118.231 2695 51.9134
118.349 2687 51.8363
118.466 2744 52.3832
118.584 2941 54.231
118.701 3069 55.3986
118.819 2962 54.4243
118.936 2888 53.7401
119.053 2868 53.5537
119.171 2874 53.6097
119.288 2911 53.9537
119.405 2824 53.1413
119.523 2879 53.6563
119.64 2870 53.5724
119.757 2822 53.1225
119.875 2916 54
119.992 2838 53.2729
120.109 2998 54.754
120.226 3106 55.7315
120.343 3043 55.1634
120.46 3099 55.6687
120.578 3086 55.5518
120.695 3050 55.2268
120.812 2981 54.5985
120.929 3026 55.0091
121.046 2903 53.8795
121.163 2922 54.0555
121.279 2945 54.2679
121.396 2846 53.3479
121.513 2913 53.9722
121.63 2743 52.3737
121.747 2513 50.1298
121.863 2261 47.55
121.98 2154 46.4112
122.097 2023 44.9778
122.213 2111 45.9456
122.33 2118 46.0217
122.446 2086 45.6727
122.563 2116 46
122.679 1942 44.0681
122.795 1873 43.2782
122.912 1823 42.6966
123.028 1803 42.4617
123.144 1708 41.328
123.26 1774 42.1189
123.377 0 1
123.493 0 1
123.609 0 1
123.725 0 1
123.84 0 1
123.956 0 1
124.072 0 1
124.188 0 1
124.303 0 1
124.419 0 1
126.852 0 1
126.968 0 1
127.083 0 1
127.199 0 1
127.315 0 1
127.431 0 1
127.547 0 1
127.663 0 1
127.779 0 1
127.895 0 1
128.011 0 1
128.127 0 1
128.243 0 1
128.359 3316 57.5847
128.476 3295 57.4021
128.592 3397 58.2838
128.708 3328 57.6888
128.825 3441 58.66
128.941 3538 59.4811
129.058 3479 58.983
129.174 3614 60.1166
129.291 3637 60.3075
129.408 3681 60.6712
129.524 3731 61.0819
129.641 3988 63.1506
129.758 3970 63.0079
129.875 4135 64.304
129.992 4088 63.9375
130.108 4136 64.3117
130.225 4111 64.1171
130.342 4049 63.6318
130.459 3891 62.3779
130.576 4153 64.4438
130.693 3825 61.8466
130.81 3773 61.4248
130.928 3716 60.959
131.045 3680 60.663
131.162 3921 62.6179
131.279 4014 63.3561
131.396 4022 63.4192
131.513 4094 63.9844
131.631 4024 63.435
131.748 4014 63.3561
131.865 3867 62.1852
131.983 3766 61.3677
132.1 3907 62.506
132.217 3876 62.2575
132.335 3859 62.1208
132.452 3732 61.0901
132.57 3722 61.0082
132.687 3648 60.3987
132.804 3962 62.9444
132.922 3931 62.6977
133.039 3833 61.9112
133.157 3920 62.6099
133.274 4041 63.5689
133.392 4179 64.6452
133.509 4175 64.6142
133.627 4362 66.0454
133.744 4392 66.2722
133.862 4400 66.3325
133.979 4481 66.9403
134.097 4450 66.7083
134.214 4326 65.7723
134.332 4210 64.8845
134.449 4181 64.6607
134.567 4171 64.5833
134.684 4230 65.0385
134.802 4356 66
134.919 4317 65.7039
135.037 4295 65.5362
135.154 4270 65.3452
135.272 4270 65.3452
135.389 4421 66.4906
135.507 4301 65.582
135.624 4019 63.3956
135.742 4100 64.0312
135.859 3977 63.0635
135.977 4109 64.1015
136.094 3959 62.9206
136.211 4036 63.5295
136.329 4095 63.9922
136.446 4054 63.671
136.564 4088 63.9375
136.681 4096 64
136.798 4045 63.6003
136.915 4083 63.8984
137.033 4150 64.4205
137.15 4192 64.7457
137.267 4154 64.4515
137.384 4222 64.9769
137.502 4295 65.5362
137.619 4355 65.9924
137.736 4210 64.8845
137.853 4075 63.8357
137.97 4167 64.5523
138.087 3844 62
138.204 3936 62.7375
138.321 4068 63.7809
138.438 4228 65.0231
138.555 4097 64.0078
138.672 4051 63.6475
138.788 4062 63.7338
138.905 3930 62.6897
139.022 3825 61.8466
139.139 3765 61.3596
139.255 3548 59.5651
139.372 3321 57.6281
139.488 3221 56.7539
139.605 3123 55.8838
139.721 2939 54.2125
139.838 2883 53.6936
139.954 2959 54.3967
140.071 2892 53.7773
140.187 2880 53.6656
140.303 2817 53.0754
140.419 2735 52.2972
140.535 2876 53.6284
140.652 2888 53.7401
140.768 0 1
140.884 0 1
141 0 1
141.115 0 1
141.231 0 1
141.347 0 1
141.463 0 1
141.578 0 1
141.694 0 1
144.104 0 1
144.219 0 1
144.335 0 1
144.45 0 1
144.566 0 1
144.682 0 1
144.798 0 1
144.914 0 1
145.03 0 1
145.146 3791 61.5711
145.262 4111 64.1171
145.378 4097 64.0078
145.494 4155 64.4593
145.61 4254 65.2227
145.726 4235 65.0769
145.842 4336 65.8483
145.959 4216 64.9307
146.075 4358 66.0151
146.192 4215 64.923
146.308 4251 65.1997
146.425 4120 64.1872
146.541 4175 64.6142
146.658 3805 61.6847
146.774 3655 60.4566
146.891 3580 59.8331
147.008 3652 60.4318
147.125 3843 61.9919
147.241 4011 63.3325
147.358 3974 63.0397
147.475 4076 63.8436
147.592 4091 63.9609
147.709 4176 64.622
147.826 4215 64.923
147.943 4212 64.8999
148.06 4243 65.1383
148.177 4147 64.3972
148.294 4204 64.8383
148.411 4414 66.4379
148.528 4367 66.0833
148.645 4263 65.2917
148.762 4306 65.6201
148.88 4357 66.0076
148.997 4194 64.7611
149.114 4590 67.7495
149.231 4380 66.1816
149.349 4471 66.8655
149.466 4323 65.7495
149.583 4439 66.6258
149.701 4416 66.453
149.818 4317 65.7039
149.935 4449 66.7008
150.053 4203 64.8305
150.17 4114 64.1405
150.287 4062 63.7338
150.405 3731 61.0819
150.522 3575 59.7913
150.64 3440 58.6515
150.757 3519 59.3212
150.875 3681 60.6712
150.992 3660 60.4979
151.11 3393 58.2495
151.227 3437 58.6259
151.344 3371 58.0603
151.462 3217 56.7186
151.579 3330 57.7062
151.697 3309 57.5239
151.814 3281 57.28
151.932 3405 58.3524
152.049 3379 58.1292
152.167 3458 58.8048
152.284 3421 58.4893
152.402 3507 59.2199
152.519 3611 60.0916
152.636 3512 59.2621
152.754 3647 60.3904
152.871 3760 61.3188
152.989 3766 61.3677
153.106 3835 61.9274
153.223 3972 63.0238
153.341 3942 62.7853
153.458 3935 62.7296
153.575 3969 63
153.693 3944 62.8013
153.81 4203 64.8305
153.927 3866 62.1772
154.044 3659 60.4897
154.162 3632 60.2661
154.279 3625 60.208
154.396 3769 61.3922
154.513 3827 61.8628
154.63 3887 62.3458
154.747 3798 61.6279
154.864 3882 62.3057
154.981 3798 61.6279
155.098 3585 59.8749
155.215 3422 58.4979
155.332 3276 57.2364
155.449 3282 57.2887
155.566 3023 54.9818
155.683 2913 53.9722
155.8 2825 53.1507
155.917 2570 50.6952
156.033 2422 49.2138
156.15 0 1
156.267 0 1
156.383 0 1
156.5 0 1
156.617 0 1
156.733 0 1
156.85 0 1
156.966 0 1
157.082 0 1
157.199 0 1
157.315 0 1
157.431 0 1
157.547 0 1
157.664 0 1
157.78 0 1
157.896 0 1
158.012 0 1
158.128 0 1
158.244 0 1
158.359 0 1
158.475 0 1
158.591 0 1
158.706 0 1
