
6.15755 0 1
6.2731 0 1
6.3887 0 1
6.50437 0 1
6.62009 0 1
6.73587 0 1
6.8517 0 1
6.96759 0 1
7.08353 0 1
7.19952 0 1
7.31557 0 1
7.43166 0 1
7.54781 0 1
7.664 0 1
7.78024 0 1
7.89653 0 1
8.01286 0 1
8.12924 0 1
8.24567 0 1
8.36213 0 1
8.47864 0 1
8.59519 0 1
8.71178 0 1
8.82841 0 1
8.94508 0 1
9.06179 0 1
9.17853 0 1
9.29531 0 1
9.41212 0 1
9.52897 0 1
9.64584 0 1
9.76276 0 1
9.8797 0 1
9.99667 0 1
10.1137 0 1
10.2307 0 1
10.3478 0 1
10.4648 0 1
10.5819 0 1
10.6991 0 1
10.8162 0 1
10.9334 0 1
11.0506 0 1
11.1678 0 1
11.285 0 1
11.4023 0 1
11.5196 0 1
11.6369 0 1
11.7542 0 1
11.8715 0 1
11.9888 0 1
12.1062 0 1
12.2235 0 1
12.3409 0 1
12.4582 0 1
12.5756 0 1
12.693 0 1
12.8104 0 1
12.9278 0 1
13.0452 0 1
13.1626 0 1
13.28 0 1
13.3974 0 1
13.5149 0 1
13.6323 0 1
13.7497 0 1
13.8671 0 1
13.9845 0 1
14.1019 0 1
14.2193 0 1
14.3367 0 1
14.4541 0 1
14.5714 0 1
14.6888 0 1
14.8062 0 1
14.9235 0 1
15.0408 1311 36.2077
15.1581 1405 37.4833
15.2755 1441 37.9605
15.3927 1450 38.0789
15.51 1471 38.3536
15.6273 1595 39.9375
15.7445 1533 39.1535
15.8617 1502 38.7556
15.9789 1419 37.6696
16.0961 1378 37.1214
16.2132 1465 38.2753
16.3304 1454 38.1314
16.4475 1471 38.3536
16.5646 1560 39.4968
16.6816 1654 40.6694
16.7986 1637 40.4599
16.9156 1689 41.0974
17.0326 1797 42.391
17.1496 1693 41.1461
17.2665 1768 42.0476
17.3833 1651 40.6325
17.5002 1676 40.939
17.617 1580 39.7492
17.7338 1473 38.3797
17.8505 1498 38.704
17.9672 1499 38.7169
18.0839 1568 39.598
18.2005 1511 38.8716
18.3171 1641 40.5093
18.4337 1642 40.5216
18.5502 1623 40.2865
18.6666 1738 41.6893
18.7831 1694 41.1582
18.8994 1651 40.6325
19.0158 1663 40.7799
19.1321 1614 40.1746
19.2483 1576 39.6989
19.3645 1490 38.6005
19.4806 1357 36.8375
19.5967 1273 35.6791
19.7128 1258 35.4683
19.8288 1096 33.1059
19.9447 997 31.5753
20.0606 0 1
20.1764 0 1
20.2922 0 1
20.4079 0 1
20.5236 0 1
20.6392 0 1
20.7548 0 1
20.8702 0 1
23.3078 0 1
23.4233 0 1
23.539 0 1
23.6547 0 1
23.7704 0 1
23.8862 0 1
24.0021 0 1
24.118 0 1
24.234 0 1
24.35 0 1
24.4661 670 25.8844
24.5822 838 28.9482
24.6984 983 31.3528
24.8146 980 31.305
24.9309 1081 32.8786
25.0472 1174 34.2637
25.1636 1322 36.3593
25.28 1399 37.4032
25.3965 1593 39.9124
25.513 1639 40.4846
25.6296 1759 41.9404
25.7462 1766 42.0238
25.8628 1782 42.2137
25.9795 1884 43.4051
26.0962 1789 42.2966
26.213 1734 41.6413
26.3298 1617 40.2119
26.4466 1608 40.0999
26.5635 1596 39.95
26.6804 1631 40.3856
26.7973 1530 39.1152
26.9143 1669 40.8534
27.0313 1640 40.4969
27.1483 1665 40.8044
27.2653 1797 42.391
27.3824 1663 40.7799
27.4996 1723 41.509
27.6167 1716 41.4246
27.7339 1677 40.9512
27.8511 1652 40.6448
27.9683 1617 40.2119
28.0855 1559 39.4842
28.2028 1514 38.9102
28.3201 1475 38.4057
28.4374 1462 38.2361
28.5547 1424 37.7359
28.6721 1537 39.2046
28.7894 1560 39.4968
28.9068 1693 41.1461
29.0242 1761 41.9643
29.1416 1739 41.7013
29.259 1744 41.7612
29.3764 1724 41.5211
29.4939 1713 41.3884
29.6113 1677 40.9512
29.7288 1682 41.0122
29.8463 1597 39.9625
29.9638 1525 39.0512
30.0812 1472 38.3667
30.1987 1411 37.5633
30.3162 1496 38.6782
30.4337 1623 40.2865
30.5512 1615 40.1871
30.6687 1601 40.0125
30.7862 1576 39.6989
30.9037 1642 40.5216
31.0212 1679 40.9756
31.1387 1749 41.821
31.2562 1665 40.8044
31.3737 1626 40.3237
31.4912 1479 38.4578
31.6087 1477 38.4318
31.7262 1527 39.0768
31.8436 1463 38.2492
31.9611 1343 36.647
32.0785 1397 37.3765
32.1959 1440 37.9473
32.3134 1448 38.0526
32.4308 1573 39.6611
32.5482 1621 40.2616
32.6655 1650 40.6202
32.7829 1614 40.1746
32.9002 1723 41.509
33.0176 1634 40.4228
33.1349 1692 41.1339
33.2522 1619 40.2368
33.3694 1573 39.6611
33.4867 1496 38.6782
33.6039 1473 38.3797
33.7211 1378 37.1214
33.8383 1413 37.5899
33.9554 1383 37.1887
34.0725 1542 39.2683
34.1896 1446 38.0263
34.3067 1520 38.9872
34.4237 1588 39.8497
34.5407 1572 39.6485
34.6577 1549 39.3573
34.7746 1664 40.7922
34.8915 1557 39.4588
35.0084 1547 39.3319
35.1252 1494 38.6523
35.242 1558 39.4715
35.3587 1481 38.4838
35.4755 1417 37.6431
35.5921 1317 36.2905
35.7088 1400 37.4166
35.8254 1299 36.0416
35.9419 1459 38.1969
36.0584 1420 37.6829
36.1749 1483 38.5097
36.2913 1491 38.6135
36.4077 1452 38.1051
36.524 1489 38.5876
36.6403 1468 38.3145
36.7565 1348 36.7151
36.8727 1258 35.4683
36.9889 1230 35.0714
37.1049 1024 32
37.221 0 1
37.3369 0 1
37.4529 0 1
37.5687 0 1
37.6845 0 1
37.8003 0 1
37.916 0 1
38.0316 0 1
38.1472 0 1
40.5851 0 1
40.7008 0 1
40.8164 0 1
40.9322 0 1
41.048 0 1
41.1639 0 1
41.2798 0 1
41.3958 0 1
41.5118 0 1
41.6279 0 1
41.744 752 27.4226
41.8602 910 30.1662
41.9765 975 31.225
42.0928 960 30.9839
42.2091 989 31.4484
42.3255 936 30.5941
42.4419 916 30.2655
42.5584 895 29.9166
42.675 966 31.0805
42.7915 1092 33.0454
42.9081 1193 34.5398
43.0248 1190 34.4964
43.1415 1290 35.9166
43.2582 1316 36.2767
43.375 1315 36.2629
43.4918 1304 36.1109
43.6087 1307 36.1525
43.7256 1254 35.4119
43.8425 1311 36.2077
43.9595 1254 35.4119
44.0765 1274 35.6931
44.1935 1168 34.176
44.3106 1158 34.0294
44.4277 1055 32.4808
44.5448 1091 33.0303
44.6619 1089 33
44.7791 1129 33.6006
44.8963 1208 34.7563
45.0136 1300 36.0555
45.1308 1335 36.5377
45.2481 1387 37.2424
45.3654 1335 36.5377
45.4827 1343 36.647
45.6001 1356 36.8239
45.7174 1328 36.4417
45.8348 1231 35.0856
45.9522 1141 33.7787
46.0697 1085 32.9393
46.1871 1045 32.3265
46.3046 1044 32.311
46.422 1154 33.9706
46.5395 1238 35.1852
46.657 1346 36.6879
46.7745 1305 36.1248
46.892 1223 34.9714
47.0096 1312 36.2215
47.1271 1303 36.0971
47.2446 1339 36.5923
47.3622 1337 36.565
47.4797 1349 36.7287
47.5973 1302 36.0832
47.7149 1349 36.7287
47.8324 1223 34.9714
47.95 1184 34.4093
48.0675 1115 33.3916
48.1851 1140 33.7639
48.3027 1148 33.8821
48.4202 1238 35.1852
48.5378 1278 35.7491
48.6554 1374 37.0675
48.7729 1306 36.1386
48.8904 1301 36.0694
49.008 1382 37.1753
49.1255 1303 36.0971
49.243 1275 35.7071
49.3605 1184 34.4093
49.478 1159 34.0441
49.5955 1097 33.121
49.713 1045 32.3265
49.8304 1062 32.5883
49.9479 1218 34.8999
50.0653 1239 35.1994
50.1827 1229 35.0571
50.3001 1303 36.0971
50.4175 1337 36.565
50.5348 1371 37.027
50.6521 1452 38.1051
50.7694 1417 37.6431
50.8867 1326 36.4143
51.004 1394 37.3363
51.1212 1314 36.2491
51.2384 1360 36.8782
51.3556 1315 36.2629
51.4727 1274 35.6931
51.5899 1229 35.0571
51.707 1196 34.5832
51.824 1301 36.0694
51.9411 1429 37.8021
52.0581 1551 39.3827
52.175 1593 39.9124
52.2919 1707 41.3159
52.4088 1751 41.845
52.5257 1749 41.821
52.6425 1811 42.5558
52.7593 1917 43.7836
52.876 1742 41.7373
52.9927 1743 41.7493
53.1094 1583 39.7869
53.226 1573 39.6611
53.3426 1616 40.1995
53.4591 1557 39.4588
53.5756 1586 39.8246
53.692 1622 40.2741
53.8084 1607 40.0874
53.9248 1607 40.0874
54.0411 1522 39.0128
54.1573 1490 38.6005
54.2735 0 1
54.3896 0 1
54.5057 0 1
54.6217 0 1
54.7377 0 1
54.8537 0 1
54.9695 0 1
55.0853 0 1
55.2011 0 1
55.3168 0 1
55.4324 0 1
57.824 0 1
57.9396 0 1
58.0553 0 1
58.1711 0 1
58.2869 0 1
58.4028 0 1
58.5187 0 1
58.6347 0 1
58.7508 0 1
58.8669 0 1
58.983 1108 33.2866
59.0992 1315 36.2629
59.2155 1426 37.7624
59.3318 1516 38.9358
59.4482 1549 39.3573
59.5646 1636 40.4475
59.681 1604 40.05
59.7975 1570 39.6232
59.9141 1628 40.3485
60.0306 1539 39.2301
60.1473 1543 39.281
60.2639 1492 38.6264
60.3807 1446 38.0263
60.4974 1440 37.9473
60.6142 1464 38.2623
60.731 1578 39.724
60.8479 1672 40.8901
60.9648 1716 41.4246
61.0818 1737 41.6773
61.1987 1725 41.5331
61.3158 1717 41.4367
61.4328 1671 40.8779
61.5499 1601 40.0125
61.667 1501 38.7427
61.7841 1441 37.9605
61.9013 1274 35.6931
62.0185 1296 36
62.1357 1362 36.9053
62.253 1459 38.1969
62.3702 1529 39.1024
62.4875 1542 39.2683
62.6049 1605 40.0625
62.7222 1659 40.7308
62.8396 1691 41.1218
62.9569 1640 40.4969
63.0743 1729 41.5812
63.1918 1666 40.8167
63.3092 1674 40.9145
63.4267 1553 39.4081
63.5441 1611 40.1373
63.6616 1466 38.2884
63.7791 1359 36.8646
63.8966 1387 37.2424
64.0142 1365 36.9459
64.1317 1467 38.3014
64.2492 1518 38.9615
64.3668 1689 41.0974
64.4843 1620 40.2492
64.6019 1635 40.4351
64.7195 1725 41.5331
64.837 1615 40.1871
64.9546 1711 41.3642
65.0722 1641 40.5093
65.1898 1470 38.3406
65.3074 1412 37.5766
65.4249 1330 36.4692
65.5425 1272 35.6651
65.6601 1290 35.9166
65.7777 1334 36.524
65.8952 1478 38.4448
66.0128 1519 38.9744
66.1304 1605 40.0625
66.2479 1673 40.9023
66.3655 1613 40.1622
66.483 1632 40.398
66.6005 1621 40.2616
66.718 1674 40.9145
66.8355 1581 39.7618
66.953 1612 40.1497
67.0705 1552 39.3954
67.1879 1454 38.1314
67.3054 1447 38.0395
67.4228 1366 36.9594
67.5402 1226 35.0143
67.6576 1339 36.5923
67.7749 1276 35.7211
67.8923 1484 38.5227
68.0096 1574 39.6737
68.1269 1581 39.7618
68.2442 1620 40.2492
68.3614 1622 40.2741
68.4787 1575 39.6863
68.5958 1625 40.3113
68.713 1534 39.1663
68.8302 1442 37.9737
68.9473 1364 36.9324
69.0643 1235 35.1426
69.1814 1228 35.0428
69.2984 1236 35.1568
69.4154 1232 35.0999
69.5323 1338 36.5787
69.6492 1433 37.855
69.7661 1548 39.3446
69.8829 1494 38.6523
69.9997 1541 39.2556
70.1165 1493 38.6394
70.2332 1467 38.3014
70.3499 1417 37.6431
70.4665 1327 36.428
70.5831 1256 35.4401
70.6996 1147 33.8674
70.8161 1113 33.3617
70.9326 1057 32.5115
71.049 948 30.7896
71.1653 732 27.0555
71.2817 663 25.7488
71.3979 615 24.7992
71.5141 574 23.9583
71.6303 533 23.0868
71.7464 547 23.388
71.8624 0 1
71.9784 0 1
72.0944 0 1
72.2102 0 1
72.3261 0 1
72.4418 0 1
72.5575 0 1
72.6732 0 1
75.1054 0 1
75.2209 0 1
75.3365 0 1
75.4521 0 1
75.5678 0 1
75.6835 0 1
75.7993 0 1
75.9151 0 1
76.031 0 1
76.147 914 30.2324
76.263 1016 31.8748
76.3791 972 31.1769
76.4952 994 31.5278
76.6113 1019 31.9218
76.7276 1126 33.5559
76.8438 1164 34.1174
76.9601 1383 37.1887
77.0765 1389 37.2693
77.1929 1370 37.0135
77.3093 1444 38
77.4258 1340 36.606
77.5423 1360 36.8782
77.6589 1378 37.1214
77.7755 1282 35.805
77.8921 1122 33.4963
78.0088 1126 33.5559
78.1256 1042 32.28
78.2423 934 30.5614
78.3591 966 31.0805
78.4759 1131 33.6303
78.5928 1204 34.6987
78.7097 1245 35.2846
78.8266 1315 36.2629
78.9436 1353 36.7831
79.0606 1419 37.6696
79.1776 1402 37.4433
79.2946 1382 37.1753
79.4117 1451 38.092
79.5288 1422 37.7094
79.6459 1387 37.2424
79.7631 1356 36.8239
79.8802 1292 35.9444
79.9974 1211 34.7994
80.1147 1137 33.7194
80.2319 1063 32.6037
80.3491 1111 33.3317
80.4664 1257 35.4542
80.5837 1253 35.3977
80.701 1371 37.027
80.8183 1374 37.0675
80.9357 1451 38.092
81.053 1487 38.5616
81.1704 1530 39.1152
81.2877 1333 36.5103
81.4051 1463 38.2492
81.5225 1289 35.9026
81.6399 1204 34.6987
81.7573 1068 32.6803
81.8747 1094 33.0757
81.9922 1078 32.8329
82.1096 1084 32.9242
82.227 1228 35.0428
82.3444 1323 36.3731
82.4619 1369 37
82.5793 1385 37.2156
82.6967 1458 38.1838
82.8142 1427 37.7757
82.9316 1512 38.8844
83.049 1448 38.0526
83.1664 1471 38.3536
83.2838 1400 37.4166
83.4012 1384 37.2022
83.5186 1344 36.6606
83.636 1366 36.9594
83.7534 1163 34.1028
83.8708 1156 34
83.9881 1153 33.9559
84.1055 1151 33.9264
84.2228 1289 35.9026
84.3401 1325 36.4005
84.4575 1424 37.7359
84.5747 1423 37.7227
84.692 1488 38.5746
84.8093 1639 40.4846
84.9265 1498 38.704
85.0437 1399 37.4032
85.1609 1297 36.0139
85.2781 1243 35.2562
85.3952 1070 32.7109
85.5123 992 31.496
85.6294 1060 32.5576
85.7465 1119 33.4515
85.8636 1289 35.9026
85.9806 1344 36.6606
86.0976 1423 37.7227
86.2145 1363 36.9188
86.3315 1488 38.5746
86.4484 1500 38.7298
86.5652 1527 39.0768
86.682 1515 38.923
86.7988 1487 38.5616
86.9156 1438 37.921
87.0323 1392 37.3095
87.149 1385 37.2156
87.2657 1352 36.7696
87.3823 1125 33.541
87.4988 1011 31.7962
87.6154 1061 32.573
87.7318 1058 32.5269
87.8483 1089 33
87.9647 1172 34.2345
88.081 1176 34.2929
88.1973 1216 34.8712
88.3136 1122 33.4963
88.4298 1044 32.311
88.546 1035 32.1714
88.6621 892 29.8664
88.7781 756 27.4955
88.8942 0 1
89.0101 0 1
89.126 0 1
89.2419 0 1
89.3577 0 1
89.4734 0 1
89.5891 0 1
89.7047 0 1
89.8203 0 1
89.9358 0 1
92.3269 0 1
92.4424 0 1
92.558 0 1
92.6736 0 1
92.7893 0 1
92.905 0 1
93.0208 0 1
93.1366 0 1
93.2525 0 1
93.3685 0 1
93.4845 0 1
93.6005 1067 32.665
93.7167 1080 32.8634
93.8328 1171 34.2199
93.949 1325 36.4005
94.0653 1311 36.2077
94.1816 1207 34.7419
94.2979 1264 35.5528
94.4143 1216 34.8712
94.5307 1108 33.2866
94.6472 1086 32.9545
94.7637 1127 33.5708
94.8803 1195 34.5688
94.9969 1275 35.7071
95.1135 1372 37.0405
95.2302 1396 37.3631
95.3469 1435 37.8814
95.4637 1480 38.4708
95.5805 1539 39.2301
95.6973 1514 38.9102
95.8142 1496 38.6782
95.9311 1472 38.3667
96.048 1434 37.8682
96.1649 1519 38.9744
96.2819 1492 38.6264
96.3989 1493 38.6394
96.516 1368 36.9865
96.633 1188 34.4674
96.7501 1202 34.6699
96.8673 1207 34.7419
96.9844 1226 35.0143
97.1016 1256 35.4401
97.2188 1399 37.4032
97.336 1538 39.2173
97.4532 1490 38.6005
97.5704 1640 40.4969
97.6877 1526 39.064
97.805 1511 38.8716
97.9223 1418 37.6563
98.0396 1292 35.9444
98.1569 1163 34.1028
98.2743 1109 33.3017
98.3916 1192 34.5254
98.509 1196 34.5832
98.6264 1243 35.2562
98.7438 1357 36.8375
98.8612 1390 37.2827
98.9786 1496 38.6782
99.096 1517 38.9487
99.2134 1544 39.2938
99.3308 1629 40.3609
99.4482 1546 39.3192
99.5656 1620 40.2492
99.6831 1575 39.6863
99.8005 1536 39.1918
99.9179 1451 38.092
100.035 1416 37.6298
100.153 1421 37.6962
100.27 1336 36.5513
100.388 1256 35.4401
100.505 1313 36.2353
100.622 1404 37.47
100.74 1517 38.9487
100.857 1558 39.4715
100.975 1629 40.3609
101.092 1613 40.1622
101.209 1582 39.7744
101.327 1652 40.6448
101.444 1549 39.3573
101.561 1497 38.6911
101.679 1354 36.7967
101.796 1146 33.8526
101.913 1210 34.7851
102.03 1156 34
102.148 1299 36.0416
102.265 1400 37.4166
102.382 1512 38.8844
102.499 1583 39.7869
102.616 1584 39.7995
102.733 1630 40.3733
102.851 1649 40.6079
102.968 1621 40.2616
103.085 1651 40.6325
103.202 1628 40.3485
103.319 1728 41.5692
103.436 1674 40.9145
103.552 1519 38.9744
103.669 1493 38.6394
103.786 1290 35.9166
103.903 1347 36.7015
104.02 1349 36.7287
104.137 1459 38.1969
104.253 1557 39.4588
104.37 1660 40.7431
104.487 1757 41.9166
104.603 1753 41.8688
104.72 1675 40.9268
104.836 1639 40.4846
104.953 1484 38.5227
105.069 1315 36.2629
105.186 1214 34.8425
105.302 1158 34.0294
105.418 1082 32.8938
105.535 1059 32.5423
105.651 1077 32.8177
105.767 1085 32.9393
105.883 1085 32.9393
105.999 1035 32.1714
106.115 0 1
106.231 0 1
106.347 0 1
106.463 0 1
106.579 0 1
106.694 0 1
106.81 0 1
106.926 0 1
107.041 0 1
107.157 0 1
109.576 0 1
109.692 0 1
109.807 0 1
109.923 0 1
110.039 0 1
110.155 0 1
110.27 0 1
110.386 0 1
110.502 0 1
110.618 702 26.4953
110.735 889 29.8161
110.851 1059 32.5423
110.967 1227 35.0286
111.083 1289 35.9026
111.199 1413 37.5899
111.316 1496 38.6782
111.432 1537 39.2046
111.549 1491 38.6135
111.665 1551 39.3827
111.782 1539 39.2301
111.898 1503 38.7685
112.015 1505 38.7943
112.132 1505 38.7943
112.248 1431 37.8286
112.365 1333 36.5103
112.482 1293 35.9583
112.599 1330 36.4692
112.716 1488 38.5746
112.832 1559 39.4842
112.949 1594 39.9249
113.066 1606 40.0749
113.183 1612 40.1497
113.3 1623 40.2865
113.417 1605 40.0625
113.534 1442 37.9737
113.652 1337 36.565
113.769 1307 36.1525
113.886 1134 33.6749
114.003 1091 33.0303
114.12 1196 34.5832
114.238 1334 36.524
114.355 1376 37.0945
114.472 1412 37.5766
114.589 1516 38.9358
114.707 1624 40.2989
114.824 1564 39.5474
114.942 1497 38.6911
115.059 1652 40.6448
115.176 1661 40.7554
115.294 1577 39.7115
115.411 1550 39.37
115.529 1627 40.3361
115.646 1484 38.5227
115.764 1442 37.9737
115.881 1324 36.3868
115.999 1278 35.7491
116.116 1368 36.9865
116.234 1404 37.47
116.351 1526 39.064
116.469 1530 39.1152
116.586 1640 40.4969
116.704 1582 39.7744
116.821 1663 40.7799
116.939 1631 40.3856
117.056 1537 39.2046
117.174 1518 38.9615
117.291 1324 36.3868
117.409 1249 35.3412
117.526 1159 34.0441
117.644 1119 33.4515
117.761 1245 35.2846
117.879 1381 37.1618
117.996 1402 37.4433
118.114 1447 38.0395
118.231 1528 39.0896
118.349 1478 38.4448
118.466 1504 38.7814
118.584 1590 39.8748
118.701 1618 40.2244
118.819 1584 39.7995
118.936 1605 40.0625
119.053 1491 38.6135
119.171 1506 38.8072
119.288 1437 37.9078
119.405 1372 37.0405
119.523 1278 35.7491
119.64 1310 36.1939
119.757 1312 36.2215
119.875 1310 36.1939
119.992 1366 36.9594
120.109 1482 38.4968
120.226 1525 39.0512
120.343 1595 39.9375
120.46 1459 38.1969
120.578 1479 38.4578
120.695 1513 38.8973
120.812 1411 37.5633
120.929 1291 35.9305
121.046 1218 34.8999
121.163 1081 32.8786
121.279 1069 32.6956
121.396 1022 31.9687
121.513 1130 33.6155
121.63 1236 35.1568
121.747 1221 34.9428
121.863 1248 35.327
121.98 1226 35.0143
122.097 1273 35.6791
122.213 1214 34.8425
122.33 1226 35.0143
122.446 1099 33.1512
122.563 1075 32.7872
122.679 1069 32.6956
122.795 955 30.9031
122.912 838 28.9482
123.028 813 28.5132
123.144 713 26.7021
123.26 651 25.5147
123.377 0 1
123.493 0 1
123.609 0 1
123.725 0 1
123.84 0 1
123.956 0 1
124.072 0 1
124.188 0 1
124.303 0 1
124.419 0 1
126.852 0 1
126.968 0 1
127.083 0 1
127.199 0 1
127.315 0 1
127.431 0 1
127.547 0 1
127.663 0 1
127.779 0 1
127.895 0 1
128.011 0 1
128.127 0 1
128.243 0 1
128.359 1362 36.9053
128.476 1420 37.6829
128.592 1386 37.229
128.708 1331 36.4829
128.825 1426 37.7624
128.941 1414 37.6032
129.058 1500 38.7298
129.174 1547 39.3319
129.291 1661 40.7554
129.408 1656 40.694
129.524 1654 40.6694
129.641 1676 40.939
129.758 1563 39.5348
129.875 1494 38.6523
129.992 1383 37.1887
130.108 1320 36.3318
130.225 1224 34.9857
130.342 1248 35.327
130.459 1203 34.6843
130.576 1302 36.0832
130.693 1425 37.7492
130.81 1472 38.3667
130.928 1444 38
131.045 1534 39.1663
131.162 1566 39.5727
131.279 1568 39.598
131.396 1596 39.95
131.513 1678 40.9634
131.631 1558 39.4715
131.748 1530 39.1152
131.865 1476 38.4187
131.983 1441 37.9605
132.1 1403 37.4566
132.217 1393 37.3229
132.335 1405 37.4833
132.452 1465 38.2753
132.57 1464 38.2623
132.687 1533 39.1535
132.804 1655 40.6817
132.922 1667 40.8289
133.039 1618 40.2244
133.157 1750 41.833
133.274 1699 41.2189
133.392 1579 39.7366
133.509 1492 38.6264
133.627 1382 37.1753
133.744 1343 36.647
133.862 1174 34.2637
133.979 1190 34.4964
134.097 1383 37.1887
134.214 1498 38.704
134.332 1472 38.3667
134.449 1522 39.0128
134.567 1557 39.4588
134.684 1539 39.2301
134.802 1587 39.8372
134.919 1628 40.3485
135.037 1542 39.2683
135.154 1628 40.3485
135.272 1565 39.5601
135.389 1589 39.8623
135.507 1510 38.8587
135.624 1482 38.4968
135.742 1366 36.9594
135.859 1427 37.7757
135.977 1467 38.3014
136.094 1485 38.5357
136.211 1562 39.5221
136.329 1516 38.9358
136.446 1701 41.2432
136.564 1648 40.5956
136.681 1657 40.7063
136.798 1700 41.2311
136.915 1658 40.7185
137.033 1587 39.8372
137.15 1475 38.4057
137.267 1434 37.8682
137.384 1249 35.3412
137.502 1285 35.8469
137.619 1227 35.0286
137.736 1319 36.318
137.853 1432 37.8418
137.97 1522 39.0128
138.087 1474 38.3927
138.204 1506 38.8072
138.321 1509 38.8458
138.438 1598 39.975
138.555 1703 41.2674
138.672 1567 39.5854
138.788 1542 39.2683
138.905 1478 38.4448
139.022 1400 37.4166
139.139 1357 36.8375
139.255 1259 35.4824
139.372 1140 33.7639
139.488 1103 33.2114
139.605 1044 32.311
139.721 1108 33.2866
139.838 1105 33.2415
139.954 1117 33.4215
140.071 1062 32.5883
140.187 954 30.8869
140.303 912 30.1993
140.419 888 29.7993
140.535 804 28.3549
140.652 797 28.2312
140.768 0 1
140.884 0 1
141 0 1
141.115 0 1
141.231 0 1
141.347 0 1
141.463 0 1
141.578 0 1
141.694 0 1
144.104 0 1
144.219 0 1
144.335 0 1
144.45 0 1
144.566 0 1
144.682 0 1
144.798 0 1
144.914 0 1
145.03 0 1
145.146 1151 33.9264
145.262 1223 34.9714
145.378 1265 35.5668
145.494 1324 36.3868
145.61 1303 36.0971
145.726 1274 35.6931
145.842 1223 34.9714
145.959 1177 34.3074
146.075 1122 33.4963
146.192 1092 33.0454
146.308 1006 31.7175
146.425 1001 31.6386
146.541 1074 32.7719
146.658 1090 33.0151
146.774 1132 33.6452
146.891 1146 33.8526
147.008 1252 35.3836
147.125 1281 35.7911
147.241 1202 34.6699
147.358 1292 35.9444
147.475 1199 34.6266
147.592 1304 36.1109
147.709 1199 34.6266
147.826 1184 34.4093
147.943 1120 33.4664
148.06 1058 32.5269
148.177 1130 33.6155
148.294 1094 33.0757
148.411 1123 33.5112
148.528 1158 34.0294
148.645 1101 33.1813
148.762 1224 34.9857
148.88 1233 35.1141
148.997 1255 35.426
149.114 1227 35.0286
149.231 1251 35.3695
149.349 1304 36.1109
149.466 1212 34.8138
149.583 1111 33.3317
149.701 1090 33.0151
149.818 1066 32.6497
149.935 1025 32.0156
150.053 958 30.9516
150.17 1010 31.7805
150.287 1069 32.6956
150.405 1078 32.8329
150.522 1102 33.1964
150.64 1150 33.9116
150.757 1193 34.5398
150.875 1211 34.7994
150.992 1168 34.176
151.11 1208 34.7563
151.227 1161 34.0735
151.344 1154 33.9706
151.462 1116 33.4066
151.579 1078 32.8329
151.697 1089 33
151.814 1087 32.9697
151.932 1039 32.2335
152.049 1072 32.7414
152.167 1080 32.8634
152.284 1107 33.2716
152.402 1151 33.9264
152.519 1233 35.1141
152.636 1169 34.1906
152.754 1153 33.9559
152.871 1208 34.7563
152.989 1151 33.9264
153.106 1192 34.5254
153.223 1127 33.5708
153.341 990 31.4643
153.458 946 30.7571
153.575 969 31.1288
153.693 951 30.8383
153.81 999 31.607
153.927 997 31.5753
154.044 978 31.273
154.162 1104 33.2265
154.279 1045 32.3265
154.396 1128 33.5857
154.513 1143 33.8083
154.63 1119 33.4515
154.747 1145 33.8378
154.864 1119 33.4515
154.981 994 31.5278
155.098 1053 32.45
155.215 1020 31.9374
155.332 942 30.692
155.449 940 30.6594
155.566 944 30.7246
155.683 1024 32
155.8 1030 32.0936
155.917 940 30.6594
156.033 1017 31.8904
156.15 0 1
156.267 0 1
156.383 0 1
156.5 0 1
156.617 0 1
156.733 0 1
156.85 0 1
156.966 0 1
157.082 0 1
157.199 0 1
157.315 0 1
157.431 0 1
157.547 0 1
157.664 0 1
157.78 0 1
157.896 0 1
158.012 0 1
158.128 0 1
158.244 0 1
158.359 0 1
158.475 0 1
158.591 0 1
158.706 0 1
