
6.15755 0 1
6.2731 0 1
6.3887 0 1
6.50437 0 1
6.62009 0 1
6.73587 0 1
6.8517 0 1
6.96759 0 1
7.08353 0 1
7.19952 0 1
7.31557 0 1
7.43166 0 1
7.54781 0 1
7.664 0 1
7.78024 0 1
7.89653 0 1
8.01286 0 1
8.12924 0 1
8.24567 0 1
8.36213 0 1
8.47864 0 1
8.59519 0 1
8.71178 0 1
8.82841 0 1
8.94508 0 1
9.06179 0 1
9.17853 0 1
9.29531 0 1
9.41212 0 1
9.52897 0 1
9.64584 0 1
9.76276 0 1
9.8797 0 1
9.99667 0 1
10.1137 0 1
10.2307 0 1
10.3478 0 1
10.4648 0 1
10.5819 0 1
10.6991 0 1
10.8162 0 1
10.9334 0 1
11.0506 0 1
11.1678 0 1
11.285 0 1
11.4023 0 1
11.5196 0 1
11.6369 0 1
11.7542 0 1
11.8715 0 1
11.9888 0 1
12.1062 0 1
12.2235 0 1
12.3409 0 1
12.4582 0 1
12.5756 0 1
12.693 0 1
12.8104 0 1
12.9278 0 1
13.0452 0 1
13.1626 0 1
13.28 0 1
13.3974 0 1
13.5149 0 1
13.6323 0 1
13.7497 0 1
13.8671 0 1
13.9845 0 1
14.1019 0 1
14.2193 0 1
14.3367 0 1
14.4541 0 1
14.5714 0 1
14.6888 0 1
14.8062 0 1
14.9235 0 1
15.0408 49294 222.023
15.1581 52082 228.215
15.2755 53001 230.219
15.3927 53525 231.355
15.51 52781 229.741
15.6273 52013 228.064
15.7445 51386 226.685
15.8617 50857 225.515
15.9789 51526 226.993
16.0961 52433 228.983
16.2132 53870 232.099
16.3304 55148 234.836
16.4475 56131 236.92
16.5646 56737 238.195
16.6816 57786 240.387
16.7986 58631 242.138
16.9156 59612 244.156
17.0326 59435 243.793
17.1496 60267 245.493
17.2665 60840 246.658
17.3833 60969 246.919
17.5002 60778 246.532
17.617 60644 246.26
17.7338 60352 245.666
17.8505 59993 244.935
17.9672 59847 244.636
18.0839 58873 242.638
18.2005 59541 244.01
18.3171 60435 245.835
18.4337 62362 249.724
18.5502 63599 252.188
18.6666 65163 255.27
18.7831 65637 256.197
18.8994 64950 254.853
19.0158 63622 252.234
19.1321 61482 247.956
19.2483 59273 243.46
19.3645 57579 239.956
19.4806 55809 236.239
19.5967 54453 233.352
19.7128 53027 230.276
19.8288 50354 224.397
19.9447 44158 210.138
20.0606 0 1
20.1764 0 1
20.2922 0 1
20.4079 0 1
20.5236 0 1
20.6392 0 1
20.7548 0 1
20.8702 0 1
23.3078 0 1
23.4233 0 1
23.539 0 1
23.6547 0 1
23.7704 0 1
23.8862 0 1
24.0021 0 1
24.118 0 1
24.234 0 1
24.35 0 1
24.4661 35108 187.371
24.5822 40939 202.334
24.6984 46650 215.986
24.8146 53316 230.903
24.9309 58995 242.889
25.0472 62824 250.647
25.1636 66535 257.944
25.28 71315 267.049
25.3965 75103 274.049
25.513 78378 279.961
25.6296 81821 286.044
25.7462 83238 288.51
25.8628 84162 290.107
25.9795 85581 292.542
26.0962 85591 292.559
26.213 85478 292.366
26.3298 85371 292.183
26.4466 85251 291.978
26.5635 85533 292.46
26.6804 85353 292.152
26.7973 86300 293.769
26.9143 86118 293.459
27.0313 89028 298.376
27.1483 92022 303.351
27.2653 94545 307.482
27.3824 95415 308.893
27.4996 96433 310.537
27.6167 95193 308.534
27.7339 92846 304.706
27.8511 90978 301.626
27.9683 88843 298.065
28.0855 87929 296.528
28.2028 87949 296.562
28.3201 88733 297.881
28.4374 88390 297.305
28.5547 88322 297.19
28.6721 87741 296.211
28.7894 87738 296.206
28.9068 87368 295.581
29.0242 88438 297.385
29.1416 88640 297.725
29.259 89154 298.587
29.3764 88717 297.854
29.4939 88895 298.153
29.6113 89422 299.035
29.7288 89932 299.887
29.8463 90012 300.02
29.9638 91367 302.27
30.0812 91499 302.488
30.1987 92097 303.475
30.3162 92730 304.516
30.4337 94600 307.571
30.5512 98248 313.445
30.6687 100442 316.926
30.7862 102297 319.839
30.9037 104649 323.495
31.0212 105448 324.728
31.1387 103259 321.339
31.2562 102352 319.925
31.3737 100913 317.668
31.4912 98403 313.693
31.6087 97802 312.733
31.7262 98692 314.153
31.8436 99056 314.732
31.9611 98952 314.566
32.0785 97749 312.648
32.1959 96810 311.143
32.3134 96741 311.032
32.4308 96946 311.362
32.5482 97757 312.661
32.6655 98293 313.517
32.7829 98917 314.511
32.9002 97956 312.979
33.0176 98590 313.99
33.1349 98382 313.659
33.2522 99809 315.926
33.3694 99769 315.862
33.4867 101687 318.884
33.6039 103852 322.261
33.7211 104355 323.04
33.8383 105257 324.433
33.9554 105161 324.285
34.0725 107261 327.507
34.1896 110218 331.991
34.3067 113560 336.987
34.4237 117142 342.26
34.5407 118834 344.723
34.6577 119879 346.235
34.7746 120482 347.105
34.8915 119209 345.267
35.0084 116899 341.905
35.1252 115084 339.24
35.242 114558 338.464
35.3587 114472 338.337
35.4755 115493 339.843
35.5921 115822 340.326
35.7088 113180 336.422
35.8254 109891 331.498
35.9419 106433 326.241
36.0584 104091 322.631
36.1749 100778 317.456
36.2913 98996 314.636
36.4077 96804 311.133
36.524 95051 308.303
36.6403 93250 305.369
36.7565 92624 304.342
36.8727 90727 301.209
36.9889 88685 297.8
37.1049 83767 289.425
37.221 0 1
37.3369 0 1
37.4529 0 1
37.5687 0 1
37.6845 0 1
37.8003 0 1
37.916 0 1
38.0316 0 1
38.1472 0 1
40.5851 0 1
40.7008 0 1
40.8164 0 1
40.9322 0 1
41.048 0 1
41.1639 0 1
41.2798 0 1
41.3958 0 1
41.5118 0 1
41.6279 0 1
41.744 67043 258.927
41.8602 74103 272.219
41.9765 80946 284.51
42.0928 89136 298.557
42.2091 99309 315.133
42.3255 109557 330.994
42.4419 119181 345.226
42.5584 125776 354.649
42.675 129752 360.211
42.7915 134728 367.053
42.9081 142405 377.366
43.0248 152655 390.711
43.1415 161186 401.48
43.2582 167893 409.747
43.375 171730 414.403
43.4918 176205 419.768
43.6087 176353 419.944
43.7256 176539 420.165
43.8425 175322 418.715
43.9595 171358 413.954
44.0765 170135 412.474
44.1935 172314 415.107
44.3106 175313 418.704
44.4277 174347 417.549
44.5448 170392 412.786
44.6619 162535 403.156
44.7791 156610 395.74
44.8963 148815 385.765
45.0136 143935 379.388
45.1308 142867 377.978
45.2481 142988 378.138
45.3654 143345 378.609
45.4827 146367 382.579
45.6001 152101 390.001
45.7174 161511 401.884
45.8348 171336 413.928
45.9522 179384 423.537
46.0697 184988 430.102
46.1871 184727 429.799
46.3046 184638 429.695
46.422 186883 432.3
46.5395 191369 437.457
46.657 199752 446.936
46.7745 204163 451.844
46.892 209416 457.62
47.0096 211170 459.532
47.1271 213894 462.487
47.2446 213731 462.311
47.3622 211449 459.836
47.4797 208929 457.088
47.5973 203249 450.831
47.7149 202522 450.024
47.8324 206396 454.308
47.95 206742 454.689
48.0675 197951 444.917
48.1851 192376 438.607
48.3027 178732 422.767
48.4202 164436 405.507
48.5378 151872 389.708
48.6554 145171 381.013
48.7729 144089 379.591
48.8904 144229 379.775
49.008 147702 384.32
49.1255 155333 394.123
49.243 167056 408.725
49.3605 180755 425.153
49.478 190720 436.715
49.5955 192968 439.281
49.713 191500 437.607
49.8304 190486 436.447
49.9479 190057 435.955
50.0653 194163 440.639
50.1827 200320 447.571
50.3001 203741 451.377
50.4175 207252 455.249
50.5348 209052 457.222
50.6521 209521 457.735
50.7694 210343 458.632
50.8867 206034 453.91
51.004 201813 449.236
51.1212 196900 443.734
51.2384 195592 442.258
51.3556 197698 444.632
51.4727 197190 444.061
51.5899 191794 437.943
51.707 182234 426.889
51.824 169017 411.117
51.9411 153850 392.237
52.0581 140015 374.186
52.175 132474 363.97
52.2919 129291 359.571
52.4088 129184 359.422
52.5257 131000 361.939
52.6425 136738 369.781
52.7593 142866 377.976
52.876 150861 388.408
52.9927 156416 395.495
53.1094 157998 397.49
53.226 156247 395.281
53.3426 149687 386.894
53.4591 144484 380.111
53.5756 138208 371.763
53.692 133992 366.049
53.8084 131560 362.712
53.9248 127591 357.199
54.0411 122314 349.734
54.1573 115467 339.804
54.2735 0 1
54.3896 0 1
54.5057 0 1
54.6217 0 1
54.7377 0 1
54.8537 0 1
54.9695 0 1
55.0853 0 1
55.2011 0 1
55.3168 0 1
55.4324 0 1
57.824 0 1
57.9396 0 1
58.0553 0 1
58.1711 0 1
58.2869 0 1
58.4028 0 1
58.5187 0 1
58.6347 0 1
58.7508 0 1
58.8669 0 1
58.983 106518 326.371
59.0992 120763 347.51
59.2155 130563 361.335
59.3318 138073 371.582
59.4482 144480 380.105
59.5646 149619 386.806
59.681 152560 390.589
59.7975 155103 393.831
59.9141 158722 398.399
60.0306 162928 403.643
60.1473 164688 405.818
60.2639 162187 402.724
60.3807 155833 394.757
60.4974 145150 380.986
60.6142 132028 363.357
60.731 118376 344.058
60.8479 107105 327.269
60.9648 100376 316.822
61.0818 99818 315.94
61.1987 103597 321.865
61.3158 113595 337.039
61.4328 127996 357.765
61.5499 141800 376.563
61.667 153319 391.56
61.7841 157363 396.69
61.9013 157034 396.275
62.0185 155673 394.554
62.1357 153707 392.055
62.253 154052 392.495
62.3702 156758 395.927
62.4875 159449 399.311
62.6049 161517 401.892
62.7222 162979 403.707
62.8396 161866 402.326
62.9569 161657 402.066
63.0743 160243 400.304
63.1918 158677 398.343
63.3092 154843 393.501
63.4267 153659 391.994
63.5441 154750 393.383
63.6616 154177 392.654
63.7791 150129 387.465
63.8966 141575 376.265
64.0142 129903 360.421
64.1317 116314 341.048
64.2492 101214 318.141
64.3668 90861 301.432
64.4843 83897 289.65
64.6019 82034 286.416
64.7195 84610 290.878
64.837 92308 303.822
64.9546 106288 326.018
65.0722 120823 347.596
65.1898 131378 362.461
65.3074 139068 372.918
65.4249 139124 372.993
65.5425 137082 370.246
65.6601 134439 366.659
65.7777 133530 365.418
65.8952 135441 368.023
66.0128 138200 371.753
66.1304 139656 373.706
66.2479 141587 376.28
66.3655 142620 377.651
66.483 143351 378.617
66.6005 142616 377.645
66.718 141609 376.31
66.8355 138396 372.016
66.953 135542 368.16
67.0705 135086 367.54
67.1879 136336 369.237
67.3054 135768 368.467
67.4228 130843 361.722
67.5402 123217 351.023
67.6576 112264 335.058
67.7749 100454 316.945
67.8923 86391 293.923
68.0096 76574 276.72
68.1269 70582 265.673
68.2442 69261 263.175
68.3614 72229 268.755
68.4787 81059 284.709
68.5958 93374 305.572
68.713 107076 327.225
68.8302 119289 345.382
68.9473 125995 354.958
69.0643 125523 354.292
69.1814 122907 350.581
69.2984 117408 342.649
69.4154 113436 336.803
69.5323 111300 333.617
69.6492 112607 335.57
69.7661 112788 335.839
69.8829 112619 335.588
69.9997 112481 335.382
70.1165 110870 332.971
70.2332 107957 328.568
70.3499 103880 322.304
70.4665 98739 314.228
70.5831 92901 304.797
70.6996 88637 297.72
70.8161 87000 294.958
70.9326 84150 290.086
71.049 78209 279.659
71.1653 70967 266.396
71.2817 64093 253.166
71.3979 56168 236.998
71.5141 46520 215.685
71.6303 34975 187.016
71.7464 24373 156.119
71.8624 0 1
71.9784 0 1
72.0944 0 1
72.2102 0 1
72.3261 0 1
72.4418 0 1
72.5575 0 1
72.6732 0 1
75.1054 0 1
75.2209 0 1
75.3365 0 1
75.4521 0 1
75.5678 0 1
75.6835 0 1
75.7993 0 1
75.9151 0 1
76.031 0 1
76.147 75198 274.223
76.263 81837 286.072
76.3791 81464 285.419
76.4952 77596 278.561
76.6113 73302 270.743
76.7276 68873 262.437
76.8438 63436 251.865
76.9601 57018 238.784
77.0765 53388 231.058
77.1929 52632 229.417
77.3093 53880 232.121
77.4258 60121 245.196
77.5423 72062 268.444
77.6589 86774 294.574
77.7755 98919 314.514
77.8921 106224 325.92
78.0088 107115 327.284
78.1256 103978 322.456
78.2423 101779 319.028
78.3591 99558 315.528
78.4759 99598 315.592
78.5928 102275 319.805
78.7097 104614 323.441
78.8266 104440 323.172
78.9436 109640 331.119
79.0606 108602 329.548
79.1776 109263 330.55
79.2946 109507 330.918
79.4117 109204 330.46
79.5288 107020 327.139
79.6459 106035 325.63
79.7631 106801 326.804
79.8802 108829 329.892
79.9974 108892 329.988
80.1147 104762 323.67
80.2319 95797 309.511
80.3491 86761 294.552
80.4664 77721 278.785
80.5837 66470 257.818
80.701 56757 238.237
80.8183 52845 229.88
80.9357 52489 229.105
81.053 55961 236.561
81.1704 64850 254.657
81.2877 80916 284.457
81.4051 95666 309.299
81.5225 106902 326.959
81.6399 108037 328.69
81.7573 108208 328.95
81.8747 102687 320.448
81.9922 101118 317.991
82.1096 99845 315.983
82.227 101258 318.211
82.3444 104346 323.026
82.4619 107375 327.681
82.5793 107994 328.624
82.6967 109726 331.249
82.8142 110394 332.256
82.9316 110860 332.956
83.049 109657 331.145
83.1664 106852 326.882
83.2838 105548 324.882
83.4012 107029 327.153
83.5186 107999 328.632
83.636 106754 326.732
83.7534 99794 315.902
83.8708 91089 301.81
83.9881 84628 290.909
84.1055 79559 282.062
84.2228 72170 268.645
84.3401 62312 249.624
84.4575 56544 237.79
84.5747 56495 237.687
84.692 60308 245.577
84.8093 73601 271.295
84.9265 88609 297.673
85.0437 101729 318.95
85.1609 112853 335.936
85.2781 117213 342.364
85.3952 114054 337.719
85.5123 111189 333.45
85.6294 108824 329.885
85.7465 109175 330.416
85.8636 113760 337.283
85.9806 118286 343.927
86.0976 121167 348.091
86.2145 122494 349.991
86.3315 126043 355.025
86.4484 120339 346.899
86.5652 118955 344.899
86.682 115209 339.425
86.7988 111148 333.389
86.9156 108404 329.248
87.0323 108762 329.791
87.149 107981 328.605
87.2657 103633 321.921
87.3823 95317 308.735
87.4988 87036 295.019
87.6154 80914 284.454
87.7318 74744 273.393
87.8483 63989 252.96
87.9647 54347 233.124
88.081 48797 220.9
88.1973 46432 215.481
88.3136 46930 216.633
88.4298 54076 232.542
88.546 65303 255.545
88.6621 75233 274.286
88.7781 81038 284.672
88.8942 0 1
89.0101 0 1
89.126 0 1
89.2419 0 1
89.3577 0 1
89.4734 0 1
89.5891 0 1
89.7047 0 1
89.8203 0 1
89.9358 0 1
92.3269 0 1
92.4424 0 1
92.558 0 1
92.6736 0 1
92.7893 0 1
92.905 0 1
93.0208 0 1
93.1366 0 1
93.2525 0 1
93.3685 0 1
93.4845 0 1
93.6005 66827 258.509
93.7167 76867 277.249
93.8328 91860 303.084
93.949 108597 329.541
94.0653 123972 352.097
94.1816 135632 368.283
94.2979 145788 381.822
94.4143 152923 391.054
94.5307 159424 399.279
94.6472 166762 408.365
94.7637 174336 417.536
94.8803 179888 424.132
94.9969 183545 428.422
95.1135 184536 429.577
95.2302 187759 433.312
95.3469 189506 435.323
95.4637 189480 435.293
95.5805 188290 433.924
95.6973 184409 429.429
95.8142 180047 424.319
95.9311 176746 420.412
96.048 173543 416.585
96.1649 170390 412.783
96.2819 166081 407.53
96.3989 158413 398.011
96.516 147300 383.797
96.633 137034 370.181
96.7501 127378 356.901
96.8673 118286 343.927
96.9844 109013 330.171
97.1016 101311 318.294
97.2188 97510 312.266
97.336 99270 315.071
97.4532 110939 333.075
97.5704 129224 359.477
97.6877 149321 386.421
97.805 168402 410.368
97.9223 185780 431.022
98.0396 198440 445.466
98.1569 206196 454.088
98.2743 212709 461.204
98.3916 220521 469.597
98.509 232318 481.994
98.6264 233557 483.277
98.7438 234691 484.449
98.8612 231575 481.222
98.9786 231045 480.671
99.096 229348 478.903
99.2134 224705 474.031
99.3308 215625 464.354
99.4482 209307 457.501
99.5656 201919 449.354
99.6831 195464 442.113
99.8005 192475 438.72
99.9179 187137 432.593
100.035 176741 420.406
100.153 162147 402.675
100.27 145922 381.997
100.388 130890 361.787
100.505 116748 341.684
100.622 105305 324.507
100.74 101339 318.338
100.857 102545 320.226
100.975 109162 330.397
101.092 127064 356.46
101.209 149946 387.229
101.327 172808 415.702
101.444 192080 438.269
101.561 205536 453.361
101.679 213099 461.626
101.796 215644 464.375
101.913 219524 468.534
102.03 224418 473.728
102.148 228938 478.475
102.265 231129 480.759
102.382 221645 470.792
102.499 220027 469.07
102.616 216755 465.57
102.733 212891 461.401
102.851 208856 457.008
102.968 203039 450.598
103.085 195691 442.37
103.202 191724 437.863
103.319 190417 436.368
103.436 188115 433.722
103.552 180953 425.386
103.669 168703 410.735
103.786 153321 391.562
103.903 136980 370.108
104.02 123259 351.083
104.137 109311 330.622
104.253 99351 315.2
104.37 94179 306.886
104.487 98339 313.59
104.603 105736 325.171
104.72 119360 345.485
104.836 133151 364.899
104.953 142976 378.122
105.069 145849 381.902
105.186 143080 378.259
105.302 136951 370.069
105.418 129113 359.323
105.535 121731 348.9
105.651 114197 337.93
105.767 105832 325.318
105.883 99770 315.864
105.999 93856 306.359
106.115 0 1
106.231 0 1
106.347 0 1
106.463 0 1
106.579 0 1
106.694 0 1
106.81 0 1
106.926 0 1
107.041 0 1
107.157 0 1
109.576 0 1
109.692 0 1
109.807 0 1
109.923 0 1
110.039 0 1
110.155 0 1
110.27 0 1
110.386 0 1
110.502 0 1
110.618 100416 316.885
110.735 115046 339.184
110.851 128844 358.948
110.967 139567 373.587
111.083 149004 386.01
111.199 157476 396.832
111.316 165537 406.862
111.432 170925 413.431
111.549 175044 418.383
111.665 176097 419.639
111.782 174980 418.306
111.898 177674 421.514
112.015 182946 427.722
112.132 186030 431.312
112.248 179437 423.6
112.365 164231 405.254
112.482 147530 384.096
112.599 129556 359.939
112.716 114106 337.796
112.832 99757 315.843
112.949 93374 305.572
113.066 94397 307.241
113.183 98488 313.828
113.3 111668 334.168
113.417 134534 366.789
113.534 155810 394.728
113.652 171644 414.299
113.769 177846 421.718
113.886 175459 418.878
114.003 171299 413.883
114.12 168113 410.016
114.238 167723 409.54
114.355 172298 415.088
114.472 177090 420.821
114.589 178442 422.424
114.707 182108 426.741
114.824 183314 428.152
114.942 184492 429.525
115.059 183855 428.783
115.176 183621 428.51
115.294 179574 423.762
115.411 176486 420.102
115.529 178813 422.863
115.646 180764 425.163
115.764 178087 422.004
115.881 167698 409.509
115.999 153472 391.755
116.116 136906 370.008
116.234 122422 349.889
116.351 108713 329.717
116.469 98704 314.172
116.586 95097 308.378
116.704 95433 308.922
116.821 102386 319.978
116.939 118665 344.478
117.056 138202 371.755
117.174 154468 393.024
117.291 166051 407.494
117.409 167767 409.594
117.526 165802 407.188
117.644 160003 400.004
117.761 159715 399.644
117.879 160529 400.661
117.996 164596 405.704
118.114 168561 410.562
118.231 169612 411.84
118.349 174044 417.186
118.466 173416 416.432
118.584 173181 416.15
118.701 173585 416.635
118.819 171579 414.221
118.936 166648 408.225
119.053 165124 406.355
119.171 167056 408.725
119.288 168194 410.115
119.405 165332 406.61
119.523 158560 398.196
119.64 144779 380.498
119.757 131244 362.276
119.875 117709 343.087
119.992 104936 323.938
120.109 97529 312.296
120.226 94092 306.744
120.343 94727 307.778
120.46 97153 311.694
120.578 106759 326.74
120.695 119473 345.649
120.812 133741 365.706
120.929 142046 376.89
121.046 144273 379.833
121.163 140436 374.748
121.279 135886 368.627
121.396 132129 363.496
121.513 130663 361.473
121.63 131970 363.277
121.747 130922 361.831
121.863 131645 362.829
121.98 130948 361.867
122.097 130454 361.184
122.213 127521 357.101
122.33 123428 351.323
122.446 119980 346.381
122.563 112679 335.677
122.679 106135 325.784
122.795 101426 318.474
122.912 98052 313.133
123.028 93871 306.384
123.144 86213 293.621
123.26 76334 276.286
123.377 0 1
123.493 0 1
123.609 0 1
123.725 0 1
123.84 0 1
123.956 0 1
124.072 0 1
124.188 0 1
124.303 0 1
124.419 0 1
126.852 0 1
126.968 0 1
127.083 0 1
127.199 0 1
127.315 0 1
127.431 0 1
127.547 0 1
127.663 0 1
127.779 0 1
127.895 0 1
128.011 0 1
128.127 0 1
128.243 0 1
128.359 155584 394.441
128.476 159228 399.034
128.592 159451 399.313
128.708 153957 392.374
128.825 145852 381.906
128.941 135839 368.563
129.058 125854 354.759
129.174 119888 346.248
129.291 116194 340.872
129.408 115937 340.495
129.524 116836 341.813
129.641 121845 349.063
129.758 132645 364.205
129.875 143333 378.593
129.992 153105 391.286
130.108 156936 396.151
130.225 157123 396.387
130.342 158319 397.893
130.459 155876 394.811
130.576 164250 405.278
130.693 165728 407.097
130.81 169160 411.291
130.928 171237 413.808
131.045 173401 416.414
131.162 175222 418.595
131.279 176827 420.508
131.396 176295 419.875
131.513 173990 417.121
131.631 171147 413.699
131.748 170103 412.435
131.865 171567 414.206
131.983 171722 414.394
132.1 168163 410.077
132.217 161936 402.413
132.335 153592 391.908
132.452 142789 377.874
132.57 133643 365.572
132.687 125253 353.911
132.804 125107 353.705
132.922 121168 348.092
133.039 120887 347.688
133.157 123046 350.779
133.274 127995 357.764
133.392 136476 369.427
133.509 145140 380.972
133.627 149545 386.71
133.744 151821 389.642
133.862 153545 391.848
133.979 152091 389.988
134.097 155097 393.824
134.214 159944 399.93
134.332 164288 405.325
134.449 167014 408.673
134.567 169387 411.567
134.684 171373 413.972
134.802 172817 415.713
134.919 174056 417.2
135.037 172500 415.331
135.154 169262 411.415
135.272 165472 406.782
135.389 167440 409.194
135.507 168282 410.222
135.624 166501 408.045
135.742 163423 404.256
135.859 157927 397.4
135.977 150349 387.749
136.094 143382 378.658
136.211 136674 369.694
136.329 133208 364.977
136.446 130224 360.866
136.564 129025 359.201
136.681 128304 358.195
136.798 127905 357.638
136.915 130975 361.905
137.033 135864 368.597
137.15 141194 375.758
137.267 144281 379.843
137.384 145939 382.02
137.502 146662 382.965
137.619 146037 382.148
137.736 149841 387.093
137.853 149465 386.607
137.97 159276 399.094
138.087 158553 398.187
138.204 160316 400.395
138.321 159759 399.699
138.438 158134 397.661
138.555 157353 396.677
138.672 153010 391.165
138.788 147822 384.476
138.905 138908 372.704
139.022 134587 366.861
139.139 132595 364.136
139.255 129194 359.436
139.372 123420 351.312
139.488 115436 339.759
139.605 107752 328.256
139.721 98065 313.153
139.838 90894 301.486
139.954 84071 289.95
140.071 78956 280.991
140.187 74443 272.842
140.303 67505 259.817
140.419 62892 250.783
140.535 58422 241.706
140.652 55090 234.713
140.768 0 1
140.884 0 1
141 0 1
141.115 0 1
141.231 0 1
141.347 0 1
141.463 0 1
141.578 0 1
141.694 0 1
144.104 0 1
144.219 0 1
144.335 0 1
144.45 0 1
144.566 0 1
144.682 0 1
144.798 0 1
144.914 0 1
145.03 0 1
145.146 100457 316.95
145.262 103499 321.713
145.378 104437 323.167
145.494 105306 324.509
145.61 105686 325.094
145.726 105723 325.151
145.842 107519 327.901
145.959 108541 329.456
146.075 109288 330.587
146.192 109899 331.51
146.308 109196 330.448
146.425 108966 330.1
146.541 111109 333.33
146.658 114141 337.848
146.774 118725 344.565
146.891 122023 349.318
147.008 125757 354.622
147.125 124381 352.677
147.241 126525 355.704
147.358 127901 357.632
147.475 127663 357.3
147.592 125942 354.883
147.709 123708 351.721
147.826 122009 349.298
147.943 122565 350.093
148.06 122850 350.5
148.177 120974 347.813
148.294 120434 347.036
148.411 119825 346.157
148.528 119133 345.156
148.645 118209 343.815
148.762 117741 343.134
148.88 117501 342.784
148.997 119095 345.101
149.114 113973 337.599
149.231 113553 336.976
149.349 114318 338.109
149.466 109893 331.501
149.583 111064 333.263
149.701 111548 333.988
149.818 110692 332.704
149.935 111233 333.516
150.053 109308 330.618
150.17 110655 332.648
150.287 112043 334.728
150.405 116458 341.259
150.522 120382 346.961
150.64 122873 350.532
150.757 124937 353.464
150.875 127150 356.581
150.992 128314 358.209
151.11 128266 358.142
151.227 126387 355.509
151.344 124108 352.29
151.462 121905 349.149
151.579 119518 345.714
151.697 119636 345.884
151.814 120542 347.192
151.932 118451 344.167
152.049 117586 342.908
152.167 117024 342.088
152.284 116583 341.443
152.402 117055 342.133
152.519 116782 341.734
152.636 116371 341.132
152.754 114956 339.052
152.871 114261 338.025
152.989 111345 333.684
153.106 111177 333.432
153.223 109361 330.698
153.341 109441 330.819
153.458 108417 329.267
153.575 107397 327.715
153.693 105704 325.122
153.81 106125 325.768
153.927 108678 329.663
154.044 112061 334.755
154.162 115550 339.926
154.279 116874 341.868
154.396 119148 345.178
154.513 120269 346.798
154.63 121545 348.633
154.747 121707 348.865
154.864 119518 345.714
154.981 115661 340.09
155.098 113262 336.544
155.215 112835 335.909
155.332 113369 336.703
155.449 110871 332.973
155.566 109859 331.45
155.683 108511 329.41
155.8 106965 327.055
155.917 105731 325.163
156.033 104165 322.746
156.15 0 1
156.267 0 1
156.383 0 1
156.5 0 1
156.617 0 1
156.733 0 1
156.85 0 1
156.966 0 1
157.082 0 1
157.199 0 1
157.315 0 1
157.431 0 1
157.547 0 1
157.664 0 1
157.78 0 1
157.896 0 1
158.012 0 1
158.128 0 1
158.244 0 1
158.359 0 1
158.475 0 1
158.591 0 1
158.706 0 1
