
6.15755 0 1
6.2731 0 1
6.3887 0 1
6.50437 0 1
6.62009 0 1
6.73587 0 1
6.8517 0 1
6.96759 0 1
7.08353 0 1
7.19952 0 1
7.31557 0 1
7.43166 0 1
7.54781 0 1
7.664 0 1
7.78024 0 1
7.89653 0 1
8.01286 0 1
8.12924 0 1
8.24567 0 1
8.36213 0 1
8.47864 0 1
8.59519 0 1
8.71178 0 1
8.82841 0 1
8.94508 0 1
9.06179 0 1
9.17853 0 1
9.29531 0 1
9.41212 0 1
9.52897 0 1
9.64584 0 1
9.76276 0 1
9.8797 0 1
9.99667 0 1
10.1137 0 1
10.2307 0 1
10.3478 0 1
10.4648 0 1
10.5819 0 1
10.6991 0 1
10.8162 0 1
10.9334 0 1
11.0506 0 1
11.1678 0 1
11.285 0 1
11.4023 0 1
11.5196 0 1
11.6369 0 1
11.7542 0 1
11.8715 0 1
11.9888 0 1
12.1062 0 1
12.2235 0 1
12.3409 0 1
12.4582 0 1
12.5756 0 1
12.693 0 1
12.8104 0 1
12.9278 0 1
13.0452 0 1
13.1626 0 1
13.28 0 1
13.3974 0 1
13.5149 0 1
13.6323 0 1
13.7497 0 1
13.8671 0 1
13.9845 0 1
14.1019 0 1
14.2193 0 1
14.3367 0 1
14.4541 0 1
14.5714 0 1
14.6888 0 1
14.8062 0 1
14.9235 0 1
15.0408 3225 56.7891
15.1581 3515 59.2874
15.2755 3455 58.7792
15.3927 3574 59.7829
15.51 3507 59.2199
15.6273 3440 58.6515
15.7445 3428 58.5491
15.8617 3476 58.9576
15.9789 3541 59.5063
16.0961 3492 59.0931
16.2132 3393 58.2495
16.3304 3555 59.6238
16.4475 3342 57.81
16.5646 3470 58.9067
16.6816 3655 60.4566
16.7986 3666 60.5475
16.9156 3625 60.208
17.0326 3512 59.2621
17.1496 3633 60.2744
17.2665 3732 61.0901
17.3833 3721 61
17.5002 3592 59.9333
17.617 3609 60.075
17.7338 3626 60.2163
17.8505 3658 60.4814
17.9672 3547 59.5567
18.0839 3612 60.0999
18.2005 3614 60.1166
18.3171 3697 60.803
18.4337 3748 61.2209
18.5502 3824 61.8385
18.6666 3924 62.6418
18.7831 3952 62.8649
18.8994 4022 63.4192
19.0158 3848 62.0322
19.1321 3684 60.696
19.2483 3664 60.531
19.3645 3425 58.5235
19.4806 3316 57.5847
19.5967 3193 56.5066
19.7128 2990 54.6809
19.8288 2811 53.0189
19.9447 2395 48.9387
20.0606 0 1
20.1764 0 1
20.2922 0 1
20.4079 0 1
20.5236 0 1
20.6392 0 1
20.7548 0 1
20.8702 0 1
23.3078 0 1
23.4233 0 1
23.539 0 1
23.6547 0 1
23.7704 0 1
23.8862 0 1
24.0021 0 1
24.118 0 1
24.234 0 1
24.35 0 1
24.4661 1964 44.317
24.5822 2237 47.2969
24.6984 2497 49.97
24.8146 2866 53.535
24.9309 3060 55.3173
25.0472 3180 56.3915
25.1636 3410 58.3952
25.28 3600 60
25.3965 3608 60.0666
25.513 3856 62.0967
25.6296 3828 61.8708
25.7462 3982 63.1031
25.8628 3957 62.9047
25.9795 4191 64.7379
26.0962 4199 64.7997
26.213 4133 64.2884
26.3298 4110 64.1093
26.4466 4258 65.2534
26.5635 4074 63.8279
26.6804 4197 64.7843
26.7973 4119 64.1794
26.9143 4045 63.6003
27.0313 4191 64.7379
27.1483 4434 66.5883
27.2653 4519 67.2235
27.3824 4411 66.4154
27.4996 4618 67.9559
27.6167 4393 66.2797
27.7339 4424 66.5132
27.8511 4252 65.2074
27.9683 4244 65.146
28.0855 4350 65.9545
28.2028 4228 65.0231
28.3201 4303 65.5973
28.4374 4138 64.3273
28.5547 4118 64.1716
28.6721 3918 62.5939
28.7894 3818 61.79
28.9068 3813 61.7495
29.0242 3807 61.7009
29.1416 3794 61.5955
29.259 3733 61.0983
29.3764 3974 63.0397
29.4939 3987 63.1427
29.6113 4061 63.726
29.7288 4088 63.9375
29.8463 4207 64.8614
29.9638 4118 64.1716
30.0812 4053 63.6632
30.1987 4029 63.4744
30.3162 4197 64.7843
30.4337 4204 64.8383
30.5512 4375 66.1438
30.6687 4507 67.1342
30.7862 4535 67.3424
30.9037 4559 67.5204
31.0212 4470 66.8581
31.1387 4452 66.7233
31.2562 4378 66.1665
31.3737 4309 65.643
31.4912 4370 66.106
31.6087 4451 66.7158
31.7262 4350 65.9545
31.8436 4293 65.521
31.9611 4248 65.1767
32.0785 4101 64.0391
32.1959 3968 62.9921
32.3134 3931 62.6977
32.4308 3835 61.9274
32.5482 3877 62.2656
32.6655 3951 62.857
32.7829 3899 62.442
32.9002 3969 63
33.0176 3994 63.1981
33.1349 4080 63.8749
33.2522 4166 64.5446
33.3694 4153 64.4438
33.4867 4126 64.2339
33.6039 4162 64.5136
33.7211 4189 64.7225
33.8383 4254 65.2227
33.9554 4114 64.1405
34.0725 4383 66.2042
34.1896 4348 65.9394
34.3067 4461 66.7907
34.4237 4567 67.5796
34.5407 4631 68.0515
34.6577 4597 67.8012
34.7746 4608 67.8823
34.8915 4457 66.7608
35.0084 4425 66.5207
35.1252 4359 66.0227
35.242 4385 66.2193
35.3587 4310 65.6506
35.4755 4503 67.1044
35.5921 4411 66.4154
35.7088 4239 65.1076
35.8254 4045 63.6003
35.9419 4027 63.4586
36.0584 3692 60.7618
36.1749 3538 59.4811
36.2913 3524 59.3633
36.4077 3368 58.0345
36.524 3367 58.0259
36.6403 3293 57.3847
36.7565 3290 57.3585
36.8727 3229 56.8243
36.9889 3094 55.6237
37.1049 2953 54.3415
37.221 0 1
37.3369 0 1
37.4529 0 1
37.5687 0 1
37.6845 0 1
37.8003 0 1
37.916 0 1
38.0316 0 1
38.1472 0 1
40.5851 0 1
40.7008 0 1
40.8164 0 1
40.9322 0 1
41.048 0 1
41.1639 0 1
41.2798 0 1
41.3958 0 1
41.5118 0 1
41.6279 0 1
41.744 1992 44.6318
41.8602 2264 47.5815
41.9765 2393 48.9183
42.0928 2627 51.2543
42.2091 2971 54.5069
42.3255 3229 56.8243
42.4419 3444 58.6856
42.5584 3564 59.6992
42.675 3709 60.9016
42.7915 3761 61.327
42.9081 3934 62.7216
43.0248 4133 64.2884
43.1415 4230 65.0385
43.2582 4389 66.2495
43.375 4548 67.4389
43.4918 4620 67.9706
43.6087 4662 68.2788
43.7256 4559 67.5204
43.8425 4475 66.8954
43.9595 4539 67.3721
44.0765 4499 67.0746
44.1935 4413 66.4304
44.3106 4454 66.7383
44.4277 4489 67
44.5448 4394 66.2873
44.6619 4251 65.1997
44.7791 4157 64.4748
44.8963 3845 62.0081
45.0136 3582 59.8498
45.1308 3520 59.3296
45.2481 3439 58.643
45.3654 3413 58.4209
45.4827 3488 59.0593
45.6001 3761 61.327
45.7174 4006 63.293
45.8348 4267 65.3223
45.9522 4245 65.1537
46.0697 4579 67.6683
46.1871 4466 66.8281
46.3046 4511 67.164
46.422 4597 67.8012
46.5395 4600 67.8233
46.657 4845 69.606
46.7745 4897 69.9786
46.892 4975 70.5337
47.0096 5033 70.9436
47.1271 5208 72.1665
47.2446 5068 71.1899
47.3622 5071 71.211
47.4797 4903 70.0214
47.5973 4853 69.6635
47.7149 4799 69.2748
47.8324 4926 70.1855
47.95 4993 70.6612
48.0675 4750 68.9202
48.1851 4594 67.7791
48.3027 4480 66.9328
48.4202 4195 64.7688
48.5378 3773 61.4248
48.6554 3487 59.0508
48.7729 3538 59.4811
48.8904 3588 59.8999
49.008 3747 61.2127
49.1255 3754 61.2699
49.243 4111 64.1171
49.3605 4528 67.2904
49.478 4578 67.6609
49.5955 4756 68.9638
49.713 4759 68.9855
49.8304 4857 69.6922
49.9479 4798 69.2676
50.0653 4884 69.8856
50.1827 4845 69.606
50.3001 5109 71.4773
50.4175 5194 72.0694
50.5348 5244 72.4155
50.6521 5440 73.7564
50.7694 5319 72.9315
50.8867 5454 73.8512
51.004 5164 71.861
51.1212 5076 71.2461
51.2384 5071 71.211
51.3556 5203 72.1318
51.4727 5153 71.7844
51.5899 5081 71.2811
51.707 4971 70.5053
51.824 4787 69.1881
51.9411 4436 66.6033
52.0581 3791 61.5711
52.175 3944 62.8013
52.2919 3791 61.5711
52.4088 3735 61.1146
52.5257 3841 61.9758
52.6425 4052 63.6553
52.7593 4262 65.284
52.876 4607 67.8749
52.9927 4621 67.9779
53.1094 4624 68
53.226 4583 67.6979
53.3426 4697 68.5347
53.4591 4578 67.6609
53.5756 4431 66.5658
53.692 4246 65.1613
53.8084 4045 63.6003
53.9248 4087 63.9296
54.0411 3875 62.2495
54.1573 3677 60.6383
54.2735 0 1
54.3896 0 1
54.5057 0 1
54.6217 0 1
54.7377 0 1
54.8537 0 1
54.9695 0 1
55.0853 0 1
55.2011 0 1
55.3168 0 1
55.4324 0 1
57.824 0 1
57.9396 0 1
58.0553 0 1
58.1711 0 1
58.2869 0 1
58.4028 0 1
58.5187 0 1
58.6347 0 1
58.7508 0 1
58.8669 0 1
58.983 4259 65.261
59.0992 4934 70.2424
59.2155 5340 73.0753
59.3318 5650 75.1665
59.4482 5966 77.2399
59.5646 6243 79.0127
59.681 6386 79.9125
59.7975 6567 81.037
59.9141 6653 81.5659
60.0306 6814 82.547
60.1473 7105 84.2912
60.2639 7049 83.9583
60.3807 6976 83.5225
60.4974 6700 81.8535
60.6142 6214 78.8289
60.731 5777 76.0066
60.8479 5188 72.0278
60.9648 4778 69.1231
61.0818 4676 68.3813
61.1987 4776 69.1086
61.3158 4988 70.6258
61.4328 5481 74.0338
61.5499 6069 77.9038
61.667 6768 82.2679
61.7841 6991 83.6122
61.9013 7321 85.5628
62.0185 7436 86.2322
62.1357 7439 86.2496
62.253 7397 86.0058
62.3702 7574 87.0287
62.4875 7777 88.1873
62.6049 7742 87.9886
62.7222 7892 88.8369
62.8396 7939 89.1011
62.9569 8157 90.3161
63.0743 8208 90.598
63.1918 7813 88.3912
63.3092 7959 89.2132
63.4267 7802 88.3289
63.5441 7902 88.8932
63.6616 7831 88.4929
63.7791 7864 88.6792
63.8966 7590 87.1206
64.0142 7217 84.9529
64.1317 6753 82.1766
64.2492 5888 76.7333
64.3668 5426 73.6614
64.4843 5045 71.0282
64.6019 4809 69.347
64.7195 4631 68.0515
64.837 4977 70.5479
64.9546 5556 74.5386
65.0722 6244 79.019
65.1898 6957 83.4086
65.3074 7539 86.8274
65.4249 7875 88.7412
65.5425 7973 89.2917
65.6601 7934 89.073
65.7777 7960 89.2188
65.8952 7905 88.9101
66.0128 7844 88.5664
66.1304 8132 90.1776
66.2479 8249 90.824
66.3655 8497 92.1792
66.483 8523 92.3201
66.6005 8506 92.228
66.718 8721 93.3863
66.8355 8598 92.7254
66.953 8357 91.4166
67.0705 8476 92.0652
67.1879 8215 90.6366
67.3054 8452 91.9348
67.4228 8369 91.4822
67.5402 8103 90.0167
67.6576 7729 87.9147
67.7749 7272 85.276
67.8923 6253 79.0759
68.0096 5433 73.7089
68.1269 5051 71.0704
68.2442 4617 67.9485
68.3614 4857 69.6922
68.4787 5122 71.5681
68.5958 5741 75.7694
68.713 6600 81.2404
68.8302 7435 86.2264
68.9473 8183 90.4599
69.0643 8481 92.0923
69.1814 8688 93.2094
69.2984 8634 92.9193
69.4154 8408 91.6951
69.5323 8132 90.1776
69.6492 8054 89.7441
69.7661 8112 90.0666
69.8829 8185 90.471
69.9997 8214 90.6311
70.1165 8288 91.0385
70.2332 8183 90.4599
70.3499 8078 89.8777
70.4665 7723 87.8806
70.5831 7242 85.0999
70.6996 7117 84.3623
70.8161 6696 81.8291
70.9326 6452 80.3243
71.049 6323 79.5173
71.1653 5897 76.7919
71.2817 5525 74.3303
71.3979 4783 69.1592
71.5141 4122 64.2028
71.6303 3059 55.3082
71.7464 2286 47.8121
71.8624 0 1
71.9784 0 1
72.0944 0 1
72.2102 0 1
72.3261 0 1
72.4418 0 1
72.5575 0 1
72.6732 0 1
75.1054 0 1
75.2209 0 1
75.3365 0 1
75.4521 0 1
75.5678 0 1
75.6835 0 1
75.7993 0 1
75.9151 0 1
76.031 0 1
76.147 6488 80.5481
76.263 6878 82.9337
76.3791 7236 85.0647
76.4952 7167 84.6581
76.6113 6903 83.0843
76.7276 6563 81.0123
76.8438 6012 77.5371
76.9601 5494 74.1215
77.0765 4872 69.7997
77.1929 4518 67.2161
77.3093 4531 67.3127
77.4258 4802 69.2965
77.5423 5350 73.1437
77.6589 6393 79.9562
77.7755 7603 87.1952
77.8921 8520 92.3038
78.0088 9055 95.1578
78.1256 9749 98.737
78.2423 9520 97.5705
78.3591 9677 98.3717
78.4759 9569 97.8213
78.5928 9560 97.7753
78.7097 9532 97.632
78.8266 9519 97.5654
78.9436 10250 101.242
79.0606 10308 101.528
79.1776 10362 101.794
79.2946 10277 101.376
79.4117 10647 103.184
79.5288 10468 102.313
79.6459 10426 102.108
79.7631 10363 101.799
79.8802 10180 100.896
79.9974 10623 103.068
80.1147 10738 103.624
80.2319 10207 101.03
80.3491 9602 97.9898
80.4664 8491 92.1466
80.5837 7361 85.7963
80.701 6269 79.177
80.8183 5473 73.9797
80.9357 5401 73.4915
81.053 5359 73.2052
81.1704 5790 76.092
81.2877 6636 81.4616
81.4051 8370 91.4877
81.5225 9782 98.904
81.6399 10597 102.942
81.7573 11684 108.093
81.8747 11455 107.028
81.9922 11479 107.14
82.1096 11450 107.005
82.227 11274 106.179
82.3444 11211 105.882
82.4619 11409 106.813
82.5793 11809 108.669
82.6967 12079 109.905
82.8142 12356 111.158
82.9316 12506 111.83
83.049 12359 111.171
83.1664 12602 112.259
83.2838 12442 111.544
83.4012 12547 112.013
83.5186 12033 109.695
83.636 12234 110.607
83.7534 12320 110.995
83.8708 11681 108.079
83.9881 10840 104.115
84.1055 9524 97.591
84.2228 8622 92.8547
84.3401 7424 86.1626
84.4575 6249 79.0506
84.5747 6008 77.5113
84.692 5919 76.935
84.8093 6630 81.4248
84.9265 8067 89.8165
85.0437 9818 99.0858
85.1609 11149 105.589
85.2781 12546 112.009
85.3952 13228 115.013
85.5123 13472 116.069
85.6294 13646 116.816
85.7465 13151 114.678
85.8636 12796 113.119
85.9806 13149 114.669
86.0976 13461 116.022
86.2145 13647 116.82
86.3315 14394 119.975
86.4484 13896 117.881
86.5652 14240 119.331
86.682 13839 117.639
86.7988 13609 116.658
86.9156 13167 114.748
87.0323 12657 112.503
87.149 12316 110.977
87.2657 12598 112.241
87.3823 12287 110.847
87.4988 11811 108.678
87.6154 10632 103.112
87.7318 9165 95.734
87.8483 7738 87.9659
87.9647 6313 79.4544
88.081 5425 73.6546
88.1973 4952 70.3704
88.3136 4922 70.157
88.4298 5472 73.973
88.546 6337 79.6053
88.6621 7532 86.7871
88.7781 8283 91.011
88.8942 0 1
89.0101 0 1
89.126 0 1
89.2419 0 1
89.3577 0 1
89.4734 0 1
89.5891 0 1
89.7047 0 1
89.8203 0 1
89.9358 0 1
92.3269 0 1
92.4424 0 1
92.558 0 1
92.6736 0 1
92.7893 0 1
92.905 0 1
93.0208 0 1
93.1366 0 1
93.2525 0 1
93.3685 0 1
93.4845 0 1
93.6005 5780 76.0263
93.7167 6196 78.7147
93.8328 7118 84.3682
93.949 8472 92.0435
94.0653 10739 103.629
94.1816 12557 112.058
94.2979 13827 117.588
94.4143 15003 122.487
94.5307 15635 125.04
94.6472 16296 127.656
94.7637 16434 128.195
94.8803 16278 127.585
94.9969 16126 126.988
95.1135 16270 127.554
95.2302 16799 129.611
95.3469 17209 131.183
95.4637 17338 131.674
95.5805 17631 132.782
95.6973 17352 131.727
95.8142 17271 131.419
95.9311 17050 130.576
96.048 16805 129.634
96.1649 16528 128.561
96.2819 16733 129.356
96.3989 16372 127.953
96.516 15851 125.901
96.633 14953 122.282
96.7501 13557 116.435
96.8673 12087 109.941
96.9844 10481 102.377
97.1016 9317 96.5246
97.2188 8368 91.4768
97.336 7879 88.7637
97.4532 8321 91.2195
97.5704 9376 96.8297
97.6877 11607 107.736
97.805 13197 114.878
97.9223 15111 122.927
98.0396 16482 128.382
98.1569 17389 131.867
98.2743 17933 133.914
98.3916 17381 131.837
98.509 17285 131.472
98.6264 16741 129.387
98.7438 16820 129.692
98.8612 17452 132.106
98.9786 18070 134.425
99.096 18162 134.766
99.2134 18469 135.901
99.3308 18340 135.425
99.4482 18349 135.458
99.5656 18184 134.848
99.6831 17869 133.675
99.8005 17856 133.626
99.9179 17631 132.782
100.035 17591 132.631
100.153 17370 131.795
100.27 15836 125.841
100.388 13876 117.796
100.505 12321 111
100.622 10465 102.299
100.74 9471 97.3191
100.857 8701 93.2792
100.975 8688 93.2094
101.092 9396 96.933
101.209 11100 105.357
101.327 13573 116.503
101.444 15472 124.386
101.561 17176 131.057
101.679 18102 134.544
101.796 18326 135.374
101.913 18492 135.985
102.03 18146 134.707
102.148 17697 133.03
102.265 17775 133.323
102.382 17749 133.225
102.499 18160 134.759
102.616 18645 136.547
102.733 18818 137.179
102.851 18708 136.777
102.968 19043 137.996
103.085 18699 136.744
103.202 18450 135.831
103.319 18084 134.477
103.436 17788 133.372
103.552 17631 132.782
103.669 17436 132.045
103.786 16986 130.33
103.903 15394 124.073
104.02 13257 115.139
104.137 11591 107.662
104.253 10469 102.318
104.37 9174 95.781
104.487 9009 94.9158
104.603 9099 95.3887
104.72 9982 99.91
104.836 11352 106.546
104.953 12576 112.143
105.069 13771 117.35
105.186 14390 119.958
105.302 14824 121.754
105.418 14188 119.113
105.535 13874 117.788
105.651 13036 114.175
105.767 12116 110.073
105.883 11452 107.014
105.999 10453 102.24
106.115 0 1
106.231 0 1
106.347 0 1
106.463 0 1
106.579 0 1
106.694 0 1
106.81 0 1
106.926 0 1
107.041 0 1
107.157 0 1
109.576 0 1
109.692 0 1
109.807 0 1
109.923 0 1
110.039 0 1
110.155 0 1
110.27 0 1
110.386 0 1
110.502 0 1
110.618 10185 100.921
110.735 11344 106.508
110.851 11926 109.206
110.967 12146 110.209
111.083 13147 114.66
111.199 13985 118.258
111.316 14856 121.885
111.432 15577 124.808
111.549 16251 127.479
111.665 15973 126.384
111.782 16402 128.07
111.898 16300 127.671
112.015 16075 126.787
112.132 15884 126.032
112.248 16000 126.491
112.365 15846 125.881
112.482 15441 124.262
112.599 13530 116.319
112.716 11916 109.16
112.832 10421 102.083
112.949 9308 96.478
113.066 8475 92.0598
113.183 8289 91.0439
113.3 8444 91.8912
113.417 9041 95.0842
113.534 10784 103.846
113.652 12606 112.276
113.769 14534 120.557
113.886 15416 124.161
114.003 15964 126.349
114.12 16100 126.886
114.238 15650 125.1
114.355 15131 123.008
114.472 14898 122.057
114.589 14823 121.75
114.707 15392 124.064
114.824 15717 125.367
114.942 15834 125.833
115.059 16058 126.72
115.176 16010 126.531
115.294 15590 124.86
115.411 15390 124.056
115.529 15001 122.479
115.646 14864 121.918
115.764 14712 121.293
115.881 14451 120.212
115.999 14382 119.925
116.116 13905 117.919
116.234 12334 111.059
116.351 10639 103.146
116.469 9439 97.1545
116.586 8463 91.9946
116.704 7857 88.6397
116.821 7890 88.8257
116.939 7934 89.073
117.056 9186 95.8436
117.174 10755 103.706
117.291 12316 110.977
117.409 13478 116.095
117.526 14124 118.844
117.644 14386 119.942
117.761 14299 119.578
117.879 14076 118.642
117.996 13434 115.905
118.114 13570 116.49
118.231 13519 116.271
118.349 13810 117.516
118.466 14226 119.273
118.584 14016 118.389
118.701 14221 119.252
118.819 13959 118.148
118.936 13913 117.953
119.053 13541 116.366
119.171 13334 115.473
119.288 13110 114.499
119.405 12652 112.481
119.523 13056 114.263
119.64 12681 112.61
119.757 12262 110.734
119.875 11148 105.584
119.992 10051 100.255
120.109 8862 94.1382
120.226 8084 89.9111
120.343 7601 87.1837
120.46 7431 86.2032
120.578 7582 87.0747
120.695 7832 88.4986
120.812 8957 94.6414
120.929 10111 100.553
121.046 10765 103.755
121.163 11260 106.113
121.279 11611 107.754
121.396 11791 108.586
121.513 11428 106.902
121.63 11142 105.556
121.747 10602 102.966
121.863 10389 101.926
121.98 10616 103.034
122.097 10598 102.947
122.213 10583 102.874
122.33 10198 100.985
122.446 10055 100.275
122.563 9569 97.8213
122.679 9008 94.9105
122.795 8535 92.3851
122.912 7940 89.1067
123.028 7549 86.885
123.144 7086 84.1784
123.26 6712 81.9268
123.377 0 1
123.493 0 1
123.609 0 1
123.725 0 1
123.84 0 1
123.956 0 1
124.072 0 1
124.188 0 1
124.303 0 1
124.419 0 1
126.852 0 1
126.968 0 1
127.083 0 1
127.199 0 1
127.315 0 1
127.431 0 1
127.547 0 1
127.663 0 1
127.779 0 1
127.895 0 1
128.011 0 1
128.127 0 1
128.243 0 1
128.359 11857 108.89
128.476 11665 108.005
128.592 11973 109.421
128.708 12086 109.936
128.825 12111 110.05
128.941 11831 108.77
129.058 11166 105.669
129.174 10099 100.494
129.291 9147 95.6399
129.408 8721 93.3863
129.524 8600 92.7362
129.641 8456 91.9565
129.758 8502 92.2063
129.875 9268 96.2705
129.992 10225 101.119
130.108 11249 106.061
130.225 11937 109.257
130.342 12333 111.054
130.459 12528 111.929
130.576 12946 113.78
130.693 12476 111.696
130.81 12293 110.874
130.928 12652 112.481
131.045 12938 113.745
131.162 13102 114.464
131.279 13342 115.508
131.396 13345 115.521
131.513 13187 114.835
131.631 13156 114.7
131.748 12773 113.018
131.865 12551 112.031
131.983 12247 110.666
132.1 12113 110.059
132.217 12223 110.558
132.335 12097 109.986
132.452 11852 108.867
132.57 11201 105.835
132.687 10282 101.4
132.804 9938 99.6895
132.922 9283 96.3483
133.039 8831 93.9734
133.157 8615 92.817
133.274 8725 93.4077
133.392 8903 94.3557
133.509 9443 97.1751
133.627 10511 102.523
133.744 11203 105.844
133.862 11693 108.134
133.979 12159 110.268
134.097 12124 110.109
134.214 11968 109.398
134.332 11984 109.471
134.449 11868 108.94
134.567 12241 110.639
134.684 12361 111.18
134.802 12664 112.534
134.919 12808 113.172
135.037 12832 113.278
135.154 12592 112.214
135.272 12273 110.784
135.389 12102 110.009
135.507 11837 108.798
135.624 11677 108.06
135.742 11644 107.907
135.859 11656 107.963
135.977 11846 108.839
136.094 11247 106.052
136.211 10931 104.551
136.329 10205 101.02
136.446 9581 97.8826
136.564 9256 96.2081
136.681 8920 94.4458
136.798 8839 94.016
136.915 8473 92.0489
137.033 8930 94.4987
137.15 9171 95.7653
137.267 9962 99.8098
137.384 10552 102.723
137.502 10907 104.437
137.619 11348 106.527
137.736 11590 107.657
137.853 10914 104.47
137.97 11268 106.151
138.087 10988 104.824
138.204 11410 106.818
138.321 11623 107.81
138.438 11541 107.429
138.555 11555 107.494
138.672 11258 106.104
138.788 11100 105.357
138.905 10572 102.82
139.022 10266 101.321
139.139 9809 99.0404
139.255 9467 97.2985
139.372 9012 94.9316
139.488 8539 92.4067
139.605 8404 91.6733
139.721 7991 89.3924
139.838 7552 86.9022
139.954 6799 82.456
140.071 6019 77.5822
140.187 5507 74.2092
140.303 4887 69.9071
140.419 4662 68.2788
140.535 4267 65.3223
140.652 3940 62.7694
140.768 0 1
140.884 0 1
141 0 1
141.115 0 1
141.231 0 1
141.347 0 1
141.463 0 1
141.578 0 1
141.694 0 1
144.104 0 1
144.219 0 1
144.335 0 1
144.45 0 1
144.566 0 1
144.682 0 1
144.798 0 1
144.914 0 1
145.03 0 1
145.146 6737 82.0792
145.262 6888 82.994
145.378 6901 83.0723
145.494 6905 83.0963
145.61 6638 81.4739
145.726 6520 80.7465
145.842 6659 81.6027
145.959 6698 81.8413
146.075 7043 83.9226
146.192 7283 85.3405
146.308 7400 86.0233
146.425 7626 87.327
146.541 7737 87.9602
146.658 7719 87.8578
146.774 7475 86.4581
146.891 7454 86.3366
147.008 7782 88.2156
147.125 7918 88.9831
147.241 8070 89.8332
147.358 8486 92.1195
147.475 8293 91.0659
147.592 8359 91.4276
147.709 8160 90.3327
147.826 7869 88.7074
147.943 7821 88.4364
148.06 7630 87.3499
148.177 7504 86.6256
148.294 7596 87.155
148.411 7721 87.8692
148.528 7768 88.1363
148.645 7572 87.0172
148.762 7464 86.3944
148.88 7366 85.8254
148.997 7452 86.325
149.114 7020 83.7854
149.231 7056 84
149.349 6840 82.7043
149.466 6615 81.3327
149.583 6582 81.1295
149.701 6690 81.7924
149.818 6771 82.2861
149.935 6881 82.9518
150.053 7170 84.6759
150.17 7344 85.6971
150.287 7267 85.2467
150.405 7276 85.2995
150.522 7053 83.9821
150.64 7447 86.296
150.757 7486 86.5217
150.875 7636 87.3842
150.992 7807 88.3572
151.11 8028 89.5991
151.227 7661 87.5271
151.344 7740 87.9773
151.462 7417 86.122
151.579 7305 85.4693
151.697 7268 85.2526
151.814 7345 85.703
151.932 7183 84.7526
152.049 7428 86.1858
152.167 7226 85.0059
152.284 7113 84.3386
152.402 6956 83.4026
152.519 6830 82.6438
152.636 6719 81.9695
152.754 6679 81.7251
152.871 6474 80.4612
152.989 6438 80.2371
153.106 6461 80.3803
153.223 6396 79.975
153.341 6266 79.1581
153.458 6323 79.5173
153.575 6519 80.7403
153.693 6658 81.5966
153.81 6804 82.4864
153.927 6754 82.1827
154.044 6722 81.9878
154.162 6571 81.0617
154.279 6784 82.365
154.396 7120 84.3801
154.513 7100 84.2615
154.63 7091 84.2081
154.747 7157 84.5991
154.864 7106 84.2971
154.981 6909 83.1204
155.098 6867 82.8674
155.215 6621 81.3695
155.332 6587 81.1603
155.449 6303 79.3914
155.566 6419 80.1187
155.683 6416 80.0999
155.8 6487 80.5419
155.917 6204 78.7655
156.033 5956 77.1751
156.15 0 1
156.267 0 1
156.383 0 1
156.5 0 1
156.617 0 1
156.733 0 1
156.85 0 1
156.966 0 1
157.082 0 1
157.199 0 1
157.315 0 1
157.431 0 1
157.547 0 1
157.664 0 1
157.78 0 1
157.896 0 1
158.012 0 1
158.128 0 1
158.244 0 1
158.359 0 1
158.475 0 1
158.591 0 1
158.706 0 1
