
6.15755 0 1
6.2731 0 1
6.3887 0 1
6.50437 0 1
6.62009 0 1
6.73587 0 1
6.8517 0 1
6.96759 0 1
7.08353 0 1
7.19952 0 1
7.31557 0 1
7.43166 0 1
7.54781 0 1
7.664 0 1
7.78024 0 1
7.89653 0 1
8.01286 0 1
8.12924 0 1
8.24567 0 1
8.36213 0 1
8.47864 0 1
8.59519 0 1
8.71178 0 1
8.82841 0 1
8.94508 0 1
9.06179 0 1
9.17853 0 1
9.29531 0 1
9.41212 0 1
9.52897 0 1
9.64584 0 1
9.76276 0 1
9.8797 0 1
9.99667 0 1
10.1137 0 1
10.2307 0 1
10.3478 0 1
10.4648 0 1
10.5819 0 1
10.6991 0 1
10.8162 0 1
10.9334 0 1
11.0506 0 1
11.1678 0 1
11.285 0 1
11.4023 0 1
11.5196 0 1
11.6369 0 1
11.7542 0 1
11.8715 0 1
11.9888 0 1
12.1062 0 1
12.2235 0 1
12.3409 0 1
12.4582 0 1
12.5756 0 1
12.693 0 1
12.8104 0 1
12.9278 0 1
13.0452 0 1
13.1626 0 1
13.28 0 1
13.3974 0 1
13.5149 0 1
13.6323 0 1
13.7497 0 1
13.8671 0 1
13.9845 0 1
14.1019 0 1
14.2193 0 1
14.3367 0 1
14.4541 0 1
14.5714 0 1
14.6888 0 1
14.8062 0 1
14.9235 0 1
15.0408 0 0
15.1581 0 0
15.2755 0 0
15.3927 0 0
15.51 0 0
15.6273 0 0
15.7445 0 0
15.8617 0 0
15.9789 0 0
16.0961 0 0
16.2132 0 0
16.3304 0 0
16.4475 0 0
16.5646 0 0
16.6816 0 0
16.7986 0 0
16.9156 0 0
17.0326 0 0
17.1496 0 0
17.2665 0 0
17.3833 0 0
17.5002 0 0
17.617 0 0
17.7338 0 0
17.8505 0 0
17.9672 0 0
18.0839 0 0
18.2005 0 0
18.3171 0 0
18.4337 0 0
18.5502 0 0
18.6666 0 0
18.7831 0 0
18.8994 0 0
19.0158 0 0
19.1321 0 0
19.2483 0 0
19.3645 0 0
19.4806 0 0
19.5967 0 0
19.7128 0 0
19.8288 0 0
19.9447 0 0
20.0606 0 1
20.1764 0 1
20.2922 0 1
20.4079 0 1
20.5236 0 1
20.6392 0 1
20.7548 0 1
20.8702 0 1
23.3078 0 1
23.4233 0 1
23.539 0 1
23.6547 0 1
23.7704 0 1
23.8862 0 1
24.0021 0 1
24.118 0 1
24.234 0 1
24.35 0 1
24.4661 2674 51.7107
24.5822 2668 51.6527
24.6984 2565 50.6458
24.8146 2638 51.3615
24.9309 2510 50.0999
25.0472 2540 50.3984
25.1636 2524 50.2394
25.28 2521 50.2096
25.3965 2670 51.672
25.513 2719 52.144
25.6296 2678 51.7494
25.7462 2717 52.1249
25.8628 2850 53.3854
25.9795 2766 52.5928
26.0962 2730 52.2494
26.213 2668 51.6527
26.3298 2632 51.303
26.4466 2616 51.1468
26.5635 2494 49.94
26.6804 2535 50.3488
26.7973 2535 50.3488
26.9143 2673 51.7011
27.0313 2823 53.1319
27.1483 2711 52.0673
27.2653 2767 52.6023
27.3824 2764 52.5738
27.4996 2819 53.0943
27.6167 2828 53.1789
27.7339 2776 52.6878
27.8511 2702 51.9808
27.9683 2642 51.4004
28.0855 2535 50.3488
28.2028 2507 50.07
28.3201 2426 49.2544
28.4374 2407 49.0612
28.5547 2257 47.5079
28.6721 2313 48.0937
28.7894 2247 47.4025
28.9068 2257 47.5079
29.0242 2351 48.4871
29.1416 2561 50.6063
29.259 2422 49.2138
29.3764 2444 49.4368
29.4939 2504 50.04
29.6113 2507 50.07
29.7288 2402 49.0102
29.8463 2362 48.6004
29.9638 2401 49
30.0812 2263 47.571
30.1987 2202 46.9255
30.3162 2302 47.9792
30.4337 2329 48.2597
30.5512 2389 48.8774
30.6687 2469 49.689
30.7862 2529 50.2892
30.9037 2651 51.4879
31.0212 2619 51.1762
31.1387 2630 51.2835
31.2562 2517 50.1697
31.3737 2436 49.3559
31.4912 2551 50.5074
31.6087 2446 49.4571
31.7262 2480 49.7996
31.8436 2378 48.7647
31.9611 2335 48.3218
32.0785 2243 47.3603
32.1959 2149 46.3573
32.3134 2194 46.8402
32.4308 2259 47.5289
32.5482 2335 48.3218
32.6655 2373 48.7134
32.7829 2351 48.4871
32.9002 2350 48.4768
33.0176 2375 48.734
33.1349 2407 49.0612
33.2522 2322 48.1871
33.3694 2292 47.8748
33.4867 2374 48.7237
33.6039 2229 47.2123
33.7211 2179 46.6798
33.8383 2153 46.4004
33.9554 2201 46.9148
34.0725 2306 48.0208
34.1896 2370 48.6826
34.3067 2460 49.5984
34.4237 2473 49.7293
34.5407 2523 50.2295
34.6577 2615 51.1371
34.7746 2450 49.4975
34.8915 2632 51.303
35.0084 2446 49.4571
35.1252 2421 49.2037
35.242 2379 48.775
35.3587 2427 49.2646
35.4755 2287 47.8226
35.5921 2249 47.4236
35.7088 2135 46.2061
35.8254 2119 46.0326
35.9419 2066 45.4533
36.0584 2014 44.8776
36.1749 2083 45.6399
36.2913 2257 47.5079
36.4077 2101 45.8367
36.524 2179 46.6798
36.6403 2263 47.571
36.7565 2256 47.4974
36.8727 2241 47.3392
36.9889 2250 47.4342
37.1049 2246 47.392
37.221 0 1
37.3369 0 1
37.4529 0 1
37.5687 0 1
37.6845 0 1
37.8003 0 1
37.916 0 1
38.0316 0 1
38.1472 0 1
40.5851 0 1
40.7008 0 1
40.8164 0 1
40.9322 0 1
41.048 0 1
41.1639 0 1
41.2798 0 1
41.3958 0 1
41.5118 0 1
41.6279 0 1
41.744 1714 41.4005
41.8602 1786 42.2611
41.9765 1752 41.8569
42.0928 1877 43.3244
42.2091 1861 43.1393
42.3255 1838 42.8719
42.4419 1744 41.7612
42.5584 1693 41.1461
42.675 1724 41.5211
42.7915 1763 41.9881
42.9081 1813 42.5793
43.0248 1880 43.359
43.1415 1955 44.2154
43.2582 1973 44.4185
43.375 1967 44.3509
43.4918 2100 45.8258
43.6087 1980 44.4972
43.7256 1994 44.6542
43.8425 1983 44.5309
43.9595 1904 43.6348
44.0765 1812 42.5676
44.1935 1908 43.6807
44.3106 1769 42.0595
44.4277 1612 40.1497
44.5448 1561 39.5095
44.6619 1531 39.128
44.7791 1512 38.8844
44.8963 1505 38.7943
45.0136 1544 39.2938
45.1308 1643 40.5339
45.2481 1646 40.5709
45.3654 1522 39.0128
45.4827 1584 39.7995
45.6001 1593 39.9124
45.7174 1527 39.0768
45.8348 1551 39.3827
45.9522 1450 38.0789
46.0697 1404 37.47
46.1871 1376 37.0945
46.3046 1473 38.3797
46.422 1483 38.5097
46.5395 1463 38.2492
46.657 1538 39.2173
46.7745 1616 40.1995
46.892 1596 39.95
47.0096 1589 39.8623
47.1271 1616 40.1995
47.2446 1608 40.0999
47.3622 1510 38.8587
47.4797 1542 39.2683
47.5973 1515 38.923
47.7149 1446 38.0263
47.8324 1449 38.0657
47.95 1235 35.1426
48.0675 1261 35.5106
48.1851 1174 34.2637
48.3027 1175 34.2783
48.4202 1102 33.1964
48.5378 1145 33.8378
48.6554 1179 34.3366
48.7729 1346 36.6879
48.8904 1249 35.3412
49.008 1368 36.9865
49.1255 1398 37.3898
49.243 1339 36.5923
49.3605 1274 35.6931
49.478 1193 34.5398
49.5955 1155 33.9853
49.713 1209 34.7707
49.8304 1272 35.6651
49.9479 1345 36.6742
50.0653 1462 38.2361
50.1827 1422 37.7094
50.3001 1502 38.7556
50.4175 1570 39.6232
50.5348 1688 41.0853
50.6521 1712 41.3763
50.7694 1718 41.4488
50.8867 1770 42.0714
51.004 1810 42.5441
51.1212 1765 42.0119
51.2384 1810 42.5441
51.3556 1789 42.2966
51.4727 1701 41.2432
51.5899 1621 40.2616
51.707 1599 39.9875
51.824 1602 40.025
51.9411 1568 39.598
52.0581 1638 40.4722
52.175 1713 41.3884
52.2919 1675 40.9268
52.4088 1678 40.9634
52.5257 1805 42.4853
52.6425 1866 43.1972
52.7593 1885 43.4166
52.876 1894 43.5201
52.9927 1767 42.0357
53.1094 1745 41.7732
53.226 1727 41.5572
53.3426 1785 42.2493
53.4591 1812 42.5676
53.5756 1860 43.1277
53.692 2064 45.4313
53.8084 2160 46.4758
53.9248 2246 47.392
54.0411 2231 47.2335
54.1573 2299 47.9479
54.2735 0 1
54.3896 0 1
54.5057 0 1
54.6217 0 1
54.7377 0 1
54.8537 0 1
54.9695 0 1
55.0853 0 1
55.2011 0 1
55.3168 0 1
55.4324 0 1
57.824 0 1
57.9396 0 1
58.0553 0 1
58.1711 0 1
58.2869 0 1
58.4028 0 1
58.5187 0 1
58.6347 0 1
58.7508 0 1
58.8669 0 1
58.983 2531 50.309
59.0992 2569 50.6853
59.2155 2732 52.2685
59.3318 2763 52.5642
59.4482 2764 52.5738
59.5646 2748 52.4214
59.681 2852 53.4041
59.7975 2699 51.9519
59.9141 2608 51.0686
60.0306 2473 49.7293
60.1473 2332 48.2908
60.2639 2186 46.7547
60.3807 2159 46.465
60.4974 2083 45.6399
60.6142 1974 44.4297
60.731 2080 45.607
60.8479 2182 46.7119
60.9648 2356 48.5386
61.0818 2260 47.5395
61.1987 2254 47.4763
61.3158 2317 48.1352
61.4328 2348 48.4562
61.5499 2132 46.1736
61.667 2089 45.7056
61.7841 1996 44.6766
61.9013 2071 45.5082
62.0185 2087 45.6837
62.1357 2194 46.8402
62.253 2227 47.1911
62.3702 2425 49.2443
62.4875 2501 50.01
62.6049 2511 50.1099
62.7222 2583 50.8232
62.8396 2561 50.6063
62.9569 2611 51.0979
63.0743 2565 50.6458
63.1918 2676 51.7301
63.3092 2510 50.0999
63.4267 2369 48.6724
63.5441 2259 47.5289
63.6616 2220 47.1169
63.7791 2097 45.793
63.8966 1932 43.9545
64.0142 1900 43.589
64.1317 1873 43.2782
64.2492 1970 44.3847
64.3668 1957 44.238
64.4843 2122 46.0652
64.6019 2209 47
64.7195 2258 47.5184
64.837 2174 46.6262
64.9546 2112 45.9565
65.0722 2108 45.913
65.1898 2018 44.9222
65.3074 2018 44.9222
65.4249 1902 43.6119
65.5425 1918 43.795
65.6601 1995 44.6654
65.7777 2081 45.618
65.8952 2147 46.3357
66.0128 2335 48.3218
66.1304 2384 48.8262
66.2479 2456 49.558
66.3655 2386 48.8467
66.483 2512 50.1199
66.6005 2515 50.1498
66.718 2501 50.01
66.8355 2520 50.1996
66.953 2402 49.0102
67.0705 2351 48.4871
67.1879 2123 46.076
67.3054 2028 45.0333
67.4228 1849 43
67.5402 1769 42.0595
67.6576 1780 42.19
67.7749 1797 42.391
67.8923 1905 43.6463
68.0096 2009 44.8219
68.1269 2081 45.618
68.2442 2104 45.8694
68.3614 2189 46.7868
68.4787 2239 47.3181
68.5958 2164 46.5188
68.713 2109 45.9239
68.8302 1972 44.4072
68.9473 1934 43.9773
69.0643 1890 43.4741
69.1814 1859 43.1161
69.2984 2010 44.833
69.4154 2120 46.0435
69.5323 2257 47.5079
69.6492 2367 48.6518
69.7661 2453 49.5278
69.8829 2467 49.6689
69.9997 2587 50.8626
70.1165 2497 49.97
70.2332 2714 52.0961
70.3499 2640 51.3809
70.4665 2471 49.7092
70.5831 2530 50.2991
70.6996 2326 48.2286
70.8161 2297 47.927
70.9326 2116 46
71.049 2004 44.7661
71.1653 1788 42.2847
71.2817 1767 42.0357
71.3979 1825 42.72
71.5141 1854 43.0581
71.6303 1877 43.3244
71.7464 1848 42.9884
71.8624 0 1
71.9784 0 1
72.0944 0 1
72.2102 0 1
72.3261 0 1
72.4418 0 1
72.5575 0 1
72.6732 0 1
75.1054 0 1
75.2209 0 1
75.3365 0 1
75.4521 0 1
75.5678 0 1
75.6835 0 1
75.7993 0 1
75.9151 0 1
76.031 0 1
76.147 2047 45.2438
76.263 2195 46.8508
76.3791 2062 45.4093
76.4952 1938 44.0227
76.6113 1880 43.359
76.7276 1907 43.6692
76.8438 1954 44.2041
76.9601 2050 45.2769
77.0765 2140 46.2601
77.1929 2317 48.1352
77.3093 2351 48.4871
77.4258 2408 49.0714
77.5423 2344 48.4149
77.6589 2345 48.4252
77.7755 2085 45.6618
77.8921 2031 45.0666
78.0088 2054 45.3211
78.1256 1898 43.566
78.2423 1910 43.7035
78.3591 1981 44.5084
78.4759 2123 46.076
78.5928 2227 47.1911
78.7097 2348 48.4562
78.8266 2611 51.0979
78.9436 2438 49.3761
79.0606 2653 51.5073
79.1776 2607 51.0588
79.2946 2765 52.5833
79.4117 2525 50.2494
79.5288 2731 52.259
79.6459 2490 49.8999
79.7631 2398 48.9694
79.8802 2248 47.4131
79.9974 2155 46.422
80.1147 1910 43.7035
80.2319 1840 42.8952
80.3491 1773 42.107
80.4664 1872 43.2666
80.5837 1867 43.2088
80.701 2021 44.9555
80.8183 2029 45.0444
80.9357 2250 47.4342
81.053 2222 47.1381
81.1704 2232 47.244
81.2877 2229 47.2123
81.4051 2010 44.833
81.5225 2015 44.8888
81.6399 1893 43.5086
81.7573 1781 42.2019
81.8747 1756 41.9047
81.9922 1788 42.2847
82.1096 2046 45.2327
82.227 2114 45.9783
82.3444 2262 47.5605
82.4619 2291 47.8644
82.5793 2357 48.5489
82.6967 2468 49.679
82.8142 2454 49.5379
82.9316 2452 49.5177
83.049 2398 48.9694
83.1664 2361 48.5901
83.2838 2351 48.4871
83.4012 2133 46.1844
83.5186 1936 44
83.636 1758 41.9285
83.7534 1725 41.5331
83.8708 1621 40.2616
83.9881 1679 40.9756
84.1055 1652 40.6448
84.2228 1811 42.5558
84.3401 1955 44.2154
84.4575 2026 45.0111
84.5747 2114 45.9783
84.692 2157 46.4435
84.8093 2120 46.0435
84.9265 2083 45.6399
85.0437 1992 44.6318
85.1609 1826 42.7317
85.2781 1723 41.509
85.3952 1762 41.9762
85.5123 1731 41.6053
85.6294 1867 43.2088
85.7465 2012 44.8553
85.8636 2170 46.5833
85.9806 2254 47.4763
86.0976 2509 50.0899
86.2145 2550 50.4975
86.3315 2523 50.2295
86.4484 2700 51.9615
86.5652 2699 51.9519
86.682 2687 51.8363
86.7988 2545 50.448
86.9156 2545 50.448
87.0323 2378 48.7647
87.149 2181 46.7012
87.2657 2080 45.607
87.3823 1975 44.441
87.4988 1933 43.9659
87.6154 1936 44
87.7318 2057 45.3542
87.8483 2128 46.1303
87.9647 2339 48.3632
88.081 2517 50.1697
88.1973 2598 50.9706
88.3136 2651 51.4879
88.4298 2567 50.6656
88.546 2421 49.2037
88.6621 2189 46.7868
88.7781 2123 46.076
88.8942 0 1
89.0101 0 1
89.126 0 1
89.2419 0 1
89.3577 0 1
89.4734 0 1
89.5891 0 1
89.7047 0 1
89.8203 0 1
89.9358 0 1
92.3269 0 1
92.4424 0 1
92.558 0 1
92.6736 0 1
92.7893 0 1
92.905 0 1
93.0208 0 1
93.1366 0 1
93.2525 0 1
93.3685 0 1
93.4845 0 1
93.6005 3612 60.0999
93.7167 3898 62.434
93.8328 4098 64.0156
93.949 4029 63.4744
94.0653 4095 63.9922
94.1816 4055 63.6789
94.2979 4039 63.5531
94.4143 4038 63.5453
94.5307 4143 64.3661
94.6472 4405 66.3702
94.7637 4947 70.3349
94.8803 5480 74.027
94.9969 5833 76.3741
95.1135 6277 79.2275
95.2302 6701 81.8596
95.3469 6923 83.2046
95.4637 7267 85.2467
95.5805 7698 87.7382
95.6973 7754 88.0568
95.8142 8152 90.2884
95.9311 8240 90.7744
96.048 8082 89.8999
96.1649 7901 88.8876
96.2819 7896 88.8594
96.3989 7596 87.155
96.516 7119 84.3742
96.633 6847 82.7466
96.7501 6888 82.994
96.8673 7244 85.1117
96.9844 7750 88.0341
97.1016 8540 92.4121
97.2188 9108 95.4358
97.336 9293 96.4002
97.4532 9300 96.4365
97.5704 9301 96.4417
97.6877 9005 94.8947
97.805 8500 92.1954
97.9223 7686 87.6698
98.0396 7352 85.7438
98.1569 7071 84.0892
98.2743 6938 83.2947
98.3916 7289 85.3756
98.509 7855 88.6284
98.6264 8363 91.4494
98.7438 8807 93.8456
98.8612 9076 95.268
98.9786 9301 96.4417
99.096 9445 97.1854
99.2134 9677 98.3717
99.3308 9554 97.7446
99.4482 9569 97.8213
99.5656 9488 97.4064
99.6831 9422 97.067
99.8005 8985 94.7892
99.9179 8327 91.2524
100.035 8420 91.7606
100.153 7678 87.6242
100.27 7233 85.047
100.388 7439 86.2496
100.505 7886 88.8032
100.622 8553 92.4824
100.74 8873 94.1966
100.857 9075 95.2628
100.975 9237 96.1093
101.092 9238 96.1145
101.209 9083 95.3048
101.327 8562 92.5311
101.444 7852 88.6115
101.561 7285 85.3522
101.679 6834 82.668
101.796 6597 81.2219
101.913 6544 80.895
102.03 6992 83.6182
102.148 7468 86.4176
102.265 8249 90.824
102.382 7910 88.9382
102.499 8172 90.3991
102.616 8180 90.4434
102.733 7977 89.3141
102.851 8087 89.9277
102.968 7884 88.7919
103.085 7685 87.6641
103.202 7464 86.3944
103.319 6849 82.7587
103.436 6326 79.5362
103.552 5933 77.026
103.669 5397 73.4643
103.786 4758 68.9783
103.903 4566 67.5722
104.02 4638 68.1029
104.137 4759 68.9855
104.253 4963 70.4486
104.37 4703 68.5784
104.487 4660 68.2642
104.603 4507 67.1342
104.72 4109 64.1015
104.836 3731 61.0819
104.953 3305 57.4891
105.069 3080 55.4977
105.186 2818 53.0848
105.302 2800 52.915
105.418 2694 51.9038
105.535 2948 54.2955
105.651 3106 55.7315
105.767 3187 56.4535
105.883 3235 56.8771
105.999 3357 57.9396
106.115 0 1
106.231 0 1
106.347 0 1
106.463 0 1
106.579 0 1
106.694 0 1
106.81 0 1
106.926 0 1
107.041 0 1
107.157 0 1
109.576 0 1
109.692 0 1
109.807 0 1
109.923 0 1
110.039 0 1
110.155 0 1
110.27 0 1
110.386 0 1
110.502 0 1
110.618 2265 47.592
110.735 2415 49.1426
110.851 2698 51.9423
110.967 2836 53.2541
111.083 2912 53.963
111.199 2883 53.6936
111.316 2906 53.9073
111.432 2992 54.6992
111.549 2880 53.6656
111.665 2759 52.5262
111.782 2689 51.8556
111.898 2515 50.1498
112.015 2444 49.4368
112.132 2261 47.55
112.248 2152 46.3897
112.365 2101 45.8367
112.482 2053 45.31
112.599 2084 45.6508
112.716 2238 47.3075
112.832 2284 47.7912
112.949 2304 48
113.066 2355 48.5283
113.183 2351 48.4871
113.3 2219 47.1063
113.417 2085 45.6618
113.534 2090 45.7165
113.652 1939 44.0341
113.769 1843 42.9302
113.886 1893 43.5086
114.003 1966 44.3396
114.12 2108 45.913
114.238 2251 47.4447
114.355 2452 49.5177
114.472 2513 50.1298
114.589 2523 50.2295
114.707 2569 50.6853
114.824 2601 51
114.942 2611 51.0979
115.059 2568 50.6754
115.176 2516 50.1597
115.294 2520 50.1996
115.411 2444 49.4368
115.529 2413 49.1223
115.646 2189 46.7868
115.764 2170 46.5833
115.881 2061 45.3982
115.999 1952 44.1814
116.116 2045 45.2217
116.234 2084 45.6508
116.351 2207 46.9787
116.469 2275 47.697
116.586 2405 49.0408
116.704 2262 47.5605
116.821 2262 47.5605
116.939 2220 47.1169
117.056 2000 44.7214
117.174 2037 45.1331
117.291 1883 43.3935
117.409 2017 44.911
117.526 1980 44.4972
117.644 2160 46.4758
117.761 2303 47.9896
117.879 2393 48.9183
117.996 2628 51.264
118.114 2521 50.2096
118.231 2758 52.5167
118.349 2676 51.7301
118.466 2787 52.792
118.584 2771 52.6403
118.701 2702 51.9808
118.819 2640 51.3809
118.936 2640 51.3809
119.053 2494 49.94
119.171 2428 49.2747
119.288 2396 48.949
119.405 2180 46.6905
119.523 2103 45.8585
119.64 2200 46.9042
119.757 2075 45.5522
119.875 2249 47.4236
119.992 2269 47.634
120.109 2383 48.816
120.226 2307 48.0312
120.343 2396 48.949
120.46 2337 48.3425
120.578 2198 46.8828
120.695 2168 46.5618
120.812 2073 45.5302
120.929 2071 45.5082
121.046 2007 44.7996
121.163 2045 45.2217
121.279 2056 45.3431
121.396 2291 47.8644
121.513 2354 48.518
121.63 2466 49.6588
121.747 2696 51.923
121.863 2744 52.3832
121.98 2702 51.9808
122.097 2684 51.8073
122.213 2718 52.1344
122.33 2687 51.8363
122.446 2768 52.6118
122.563 2664 51.614
122.679 2587 50.8626
122.795 2493 49.93
122.912 2521 50.2096
123.028 2435 49.3457
123.144 2211 47.0213
123.26 2114 45.9783
123.377 0 1
123.493 0 1
123.609 0 1
123.725 0 1
123.84 0 1
123.956 0 1
124.072 0 1
124.188 0 1
124.303 0 1
124.419 0 1
126.852 0 1
126.968 0 1
127.083 0 1
127.199 0 1
127.315 0 1
127.431 0 1
127.547 0 1
127.663 0 1
127.779 0 1
127.895 0 1
128.011 0 1
128.127 0 1
128.243 0 1
128.359 2562 50.6162
128.476 2471 49.7092
128.592 2353 48.5077
128.708 2449 49.4874
128.825 2534 50.3389
128.941 2572 50.7149
129.058 2625 51.2348
129.174 2646 51.4393
129.291 2637 51.3517
129.408 2588 50.8724
129.524 2533 50.3289
129.641 2466 49.6588
129.758 2366 48.6415
129.875 2306 48.0208
129.992 2343 48.4045
130.108 2384 48.8262
130.225 2396 48.949
130.342 2571 50.705
130.459 2575 50.7445
130.576 2846 53.3479
130.693 2862 53.4977
130.81 2828 53.1789
130.928 2893 53.7866
131.045 2907 53.9166
131.162 2878 53.647
131.279 2827 53.1695
131.396 2927 54.1018
131.513 2842 53.3104
131.631 2780 52.7257
131.748 2725 52.2015
131.865 2636 51.342
131.983 2384 48.8262
132.1 2308 48.0416
132.217 2377 48.7545
132.335 2456 49.558
132.452 2572 50.7149
132.57 2468 49.679
132.687 2381 48.7955
132.804 2609 51.0784
132.922 2498 49.98
133.039 2529 50.2892
133.157 2469 49.689
133.274 2459 49.5883
133.392 2330 48.2701
133.509 2229 47.2123
133.627 2247 47.4025
133.744 2266 47.6025
133.862 2371 48.6929
133.979 2590 50.892
134.097 2685 51.817
134.214 2740 52.345
134.332 2681 51.7784
134.449 2744 52.3832
134.567 2827 53.1695
134.684 2770 52.6308
134.802 2880 53.6656
134.919 2730 52.2494
135.037 2840 53.2917
135.154 2742 52.3641
135.272 2678 51.7494
135.389 2563 50.6261
135.507 2530 50.2991
135.624 2319 48.156
135.742 2292 47.8748
135.859 2472 49.7192
135.977 2455 49.548
136.094 2601 51
136.211 2592 50.9117
136.329 2624 51.225
136.446 2563 50.6261
136.564 2607 51.0588
136.681 2501 50.01
136.798 2489 49.8899
136.915 2375 48.734
137.033 2248 47.4131
137.15 2346 48.4355
137.267 2361 48.5901
137.384 2270 47.6445
137.502 2436 49.3559
137.619 2591 50.9019
137.736 2715 52.1057
137.853 2594 50.9313
137.97 2715 52.1057
138.087 2742 52.3641
138.204 2819 53.0943
138.321 2748 52.4214
138.438 2902 53.8702
138.555 2885 53.7122
138.672 2830 53.1977
138.788 2932 54.1479
138.905 2808 52.9906
139.022 2727 52.2207
139.139 2580 50.7937
139.255 2439 49.3862
139.372 2448 49.4773
139.488 2459 49.5883
139.605 2437 49.366
139.721 2584 50.8331
139.838 2721 52.1632
139.954 2715 52.1057
140.071 2515 50.1498
140.187 2638 51.3615
140.303 2499 49.99
140.419 2425 49.2443
140.535 2391 48.8979
140.652 2376 48.7442
140.768 0 1
140.884 0 1
141 0 1
141.115 0 1
141.231 0 1
141.347 0 1
141.463 0 1
141.578 0 1
141.694 0 1
144.104 0 1
144.219 0 1
144.335 0 1
144.45 0 1
144.566 0 1
144.682 0 1
144.798 0 1
144.914 0 1
145.03 0 1
145.146 2375 48.734
145.262 2292 47.8748
145.378 2298 47.9375
145.494 2204 46.9468
145.61 2202 46.9255
145.726 2138 46.2385
145.842 2109 45.9239
145.959 2083 45.6399
146.075 2140 46.2601
146.192 2250 47.4342
146.308 2348 48.4562
146.425 2396 48.949
146.541 2513 50.1298
146.658 2482 49.8197
146.774 2511 50.1099
146.891 2526 50.2593
147.008 2574 50.7346
147.125 2543 50.4282
147.241 2508 50.0799
147.358 2590 50.892
147.475 2532 50.319
147.592 2407 49.0612
147.709 2312 48.0833
147.826 2164 46.5188
147.943 2188 46.7761
148.06 2173 46.6154
148.177 2289 47.8435
148.294 2251 47.4447
148.411 2393 48.9183
148.528 2394 48.9285
148.645 2254 47.4763
148.762 2154 46.4112
148.88 2315 48.1144
148.997 2189 46.7868
149.114 2268 47.6235
149.231 2109 45.9239
149.349 2059 45.3762
149.466 2030 45.0555
149.583 2000 44.7214
149.701 2023 44.9778
149.818 2088 45.6946
149.935 2201 46.9148
150.053 2268 47.6235
150.17 2211 47.0213
150.287 2365 48.6313
150.405 2383 48.816
150.522 2385 48.8365
150.64 2383 48.816
150.757 2535 50.3488
150.875 2442 49.4166
150.992 2457 49.5681
151.11 2339 48.3632
151.227 2317 48.1352
151.344 2252 47.4552
151.462 2177 46.6583
151.579 2088 45.6946
151.697 2126 46.1086
151.814 2305 48.0104
151.932 2304 48
152.049 2369 48.6724
152.167 2234 47.2652
152.284 2286 47.8121
152.402 2315 48.1144
152.519 2316 48.1248
152.636 2174 46.6262
152.754 2167 46.551
152.871 2198 46.8828
152.989 2135 46.2061
153.106 2198 46.8828
153.223 2084 45.6508
153.341 2136 46.2169
153.458 2227 47.1911
153.575 2342 48.3942
153.693 2317 48.1352
153.81 2447 49.4672
153.927 2478 49.7795
154.044 2465 49.6488
154.162 2562 50.6162
154.279 2673 51.7011
154.396 2591 50.9019
154.513 2597 50.9608
154.63 2682 51.788
154.747 2594 50.9313
154.864 2521 50.2096
154.981 2506 50.06
155.098 2419 49.1833
155.215 2308 48.0416
155.332 2425 49.2443
155.449 2354 48.518
155.566 2472 49.7192
155.683 2411 49.1019
155.8 2497 49.97
155.917 2478 49.7795
156.033 2497 49.97
156.15 0 1
156.267 0 1
156.383 0 1
156.5 0 1
156.617 0 1
156.733 0 1
156.85 0 1
156.966 0 1
157.082 0 1
157.199 0 1
157.315 0 1
157.431 0 1
157.547 0 1
157.664 0 1
157.78 0 1
157.896 0 1
158.012 0 1
158.128 0 1
158.244 0 1
158.359 0 1
158.475 0 1
158.591 0 1
158.706 0 1
