
6.15755 0 1
6.2731 0 1
6.3887 0 1
6.50437 0 1
6.62009 0 1
6.73587 0 1
6.8517 0 1
6.96759 0 1
7.08353 0 1
7.19952 0 1
7.31557 0 1
7.43166 0 1
7.54781 0 1
7.664 0 1
7.78024 0 1
7.89653 0 1
8.01286 0 1
8.12924 0 1
8.24567 0 1
8.36213 0 1
8.47864 0 1
8.59519 0 1
8.71178 0 1
8.82841 0 1
8.94508 0 1
9.06179 0 1
9.17853 0 1
9.29531 0 1
9.41212 0 1
9.52897 0 1
9.64584 0 1
9.76276 0 1
9.8797 0 1
9.99667 0 1
10.1137 0 1
10.2307 0 1
10.3478 0 1
10.4648 0 1
10.5819 0 1
10.6991 0 1
10.8162 0 1
10.9334 0 1
11.0506 0 1
11.1678 0 1
11.285 0 1
11.4023 0 1
11.5196 0 1
11.6369 0 1
11.7542 0 1
11.8715 0 1
11.9888 0 1
12.1062 0 1
12.2235 0 1
12.3409 0 1
12.4582 0 1
12.5756 0 1
12.693 0 1
12.8104 0 1
12.9278 0 1
13.0452 0 1
13.1626 0 1
13.28 0 1
13.3974 0 1
13.5149 0 1
13.6323 0 1
13.7497 0 1
13.8671 0 1
13.9845 0 1
14.1019 0 1
14.2193 0 1
14.3367 0 1
14.4541 0 1
14.5714 0 1
14.6888 0 1
14.8062 0 1
14.9235 0 1
15.0408 0 0
15.1581 0 0
15.2755 0 0
15.3927 0 0
15.51 0 0
15.6273 0 0
15.7445 0 0
15.8617 0 0
15.9789 0 0
16.0961 0 0
16.2132 0 0
16.3304 0 0
16.4475 0 0
16.5646 0 0
16.6816 0 0
16.7986 0 0
16.9156 0 0
17.0326 0 0
17.1496 0 0
17.2665 0 0
17.3833 0 0
17.5002 0 0
17.617 0 0
17.7338 0 0
17.8505 0 0
17.9672 0 0
18.0839 0 0
18.2005 0 0
18.3171 0 0
18.4337 0 0
18.5502 0 0
18.6666 0 0
18.7831 0 0
18.8994 0 0
19.0158 0 0
19.1321 0 0
19.2483 0 0
19.3645 0 0
19.4806 0 0
19.5967 0 0
19.7128 0 0
19.8288 0 0
19.9447 0 0
20.0606 0 1
20.1764 0 1
20.2922 0 1
20.4079 0 1
20.5236 0 1
20.6392 0 1
20.7548 0 1
20.8702 0 1
23.3078 0 1
23.4233 0 1
23.539 0 1
23.6547 0 1
23.7704 0 1
23.8862 0 1
24.0021 0 1
24.118 0 1
24.234 0 1
24.35 0 1
24.4661 1560 39.4968
24.5822 1497 38.6911
24.6984 1504 38.7814
24.8146 1423 37.7227
24.9309 1372 37.0405
25.0472 1348 36.7151
25.1636 1392 37.3095
25.28 1426 37.7624
25.3965 1480 38.4708
25.513 1618 40.2244
25.6296 1764 42
25.7462 1714 41.4005
25.8628 1765 42.0119
25.9795 1706 41.3038
26.0962 1773 42.107
26.213 1803 42.4617
26.3298 1684 41.0366
26.4466 1752 41.8569
26.5635 1672 40.8901
26.6804 1611 40.1373
26.7973 1549 39.3573
26.9143 1640 40.4969
27.0313 1654 40.6694
27.1483 1681 41
27.2653 1684 41.0366
27.3824 1745 41.7732
27.4996 1746 41.7852
27.6167 1679 40.9756
27.7339 1696 41.1825
27.8511 1673 40.9023
27.9683 1610 40.1248
28.0855 1506 38.8072
28.2028 1516 38.9358
28.3201 1367 36.973
28.4374 1346 36.6879
28.5547 1321 36.3456
28.6721 1342 36.6333
28.7894 1399 37.4032
28.9068 1448 38.0526
29.0242 1546 39.3192
29.1416 1595 39.9375
29.259 1649 40.6079
29.3764 1661 40.7554
29.4939 1693 41.1461
29.6113 1693 41.1461
29.7288 1595 39.9375
29.8463 1624 40.2989
29.9638 1667 40.8289
30.0812 1646 40.5709
30.1987 1538 39.2173
30.3162 1527 39.0768
30.4337 1539 39.2301
30.5512 1634 40.4228
30.6687 1708 41.328
30.7862 1711 41.3642
30.9037 1703 41.2674
31.0212 1776 42.1426
31.1387 1708 41.328
31.2562 1727 41.5572
31.3737 1678 40.9634
31.4912 1694 41.1582
31.6087 1605 40.0625
31.7262 1487 38.5616
31.8436 1471 38.3536
31.9611 1375 37.081
32.0785 1290 35.9166
32.1959 1328 36.4417
32.3134 1404 37.47
32.4308 1503 38.7685
32.5482 1512 38.8844
32.6655 1633 40.4104
32.7829 1675 40.9268
32.9002 1726 41.5452
33.0176 1716 41.4246
33.1349 1677 40.9512
33.2522 1596 39.95
33.3694 1674 40.9145
33.4867 1715 41.4126
33.6039 1707 41.3159
33.7211 1639 40.4846
33.8383 1607 40.0874
33.9554 1600 40
34.0725 1526 39.064
34.1896 1597 39.9625
34.3067 1742 41.7373
34.4237 1751 41.845
34.5407 1785 42.2493
34.6577 1726 41.5452
34.7746 1707 41.3159
34.8915 1774 42.1189
35.0084 1701 41.2432
35.1252 1734 41.6413
35.242 1679 40.9756
35.3587 1592 39.8999
35.4755 1550 39.37
35.5921 1463 38.2492
35.7088 1348 36.7151
35.8254 1279 35.7631
35.9419 1272 35.6651
36.0584 1382 37.1753
36.1749 1431 37.8286
36.2913 1488 38.5746
36.4077 1611 40.1373
36.524 1713 41.3884
36.6403 1711 41.3642
36.7565 1774 42.1189
36.8727 1739 41.7013
36.9889 1723 41.509
37.1049 1728 41.5692
37.221 0 1
37.3369 0 1
37.4529 0 1
37.5687 0 1
37.6845 0 1
37.8003 0 1
37.916 0 1
38.0316 0 1
38.1472 0 1
40.5851 0 1
40.7008 0 1
40.8164 0 1
40.9322 0 1
41.048 0 1
41.1639 0 1
41.2798 0 1
41.3958 0 1
41.5118 0 1
41.6279 0 1
41.744 1504 38.7814
41.8602 1554 39.4208
41.9765 1498 38.704
42.0928 1474 38.3927
42.2091 1553 39.4081
42.3255 1568 39.598
42.4419 1459 38.1969
42.5584 1467 38.3014
42.675 1412 37.5766
42.7915 1395 37.3497
42.9081 1451 38.092
43.0248 1456 38.1576
43.1415 1484 38.5227
43.2582 1536 39.1918
43.375 1488 38.5746
43.4918 1536 39.1918
43.6087 1536 39.1918
43.7256 1484 38.5227
43.8425 1450 38.0789
43.9595 1513 38.8973
44.0765 1543 39.281
44.1935 1370 37.0135
44.3106 1303 36.0971
44.4277 1197 34.5977
44.5448 953 30.8707
44.6619 989 31.4484
44.7791 1023 31.9844
44.8963 1097 33.121
45.0136 1228 35.0428
45.1308 1307 36.1525
45.2481 1282 35.805
45.3654 1332 36.4966
45.4827 1339 36.5923
45.6001 1367 36.973
45.7174 1356 36.8239
45.8348 1340 36.606
45.9522 1285 35.8469
46.0697 1262 35.5246
46.1871 1280 35.7771
46.3046 1285 35.8469
46.422 1210 34.7851
46.5395 1220 34.9285
46.657 1245 35.2846
46.7745 1290 35.9166
46.892 1319 36.318
47.0096 1348 36.7151
47.1271 1303 36.0971
47.2446 1299 36.0416
47.3622 1247 35.3129
47.4797 1246 35.2987
47.5973 1199 34.6266
47.7149 1187 34.4529
47.8324 1097 33.121
47.95 1040 32.249
48.0675 872 29.5296
48.1851 787 28.0535
48.3027 833 28.8617
48.4202 878 29.6311
48.5378 971 31.1609
48.6554 1138 33.7343
48.7729 1112 33.3467
48.8904 1149 33.8969
49.008 1089 33
49.1255 1208 34.7563
49.243 1215 34.8569
49.3605 1193 34.5398
49.478 1194 34.5543
49.5955 1192 34.5254
49.713 1194 34.5543
49.8304 1192 34.5254
49.9479 1205 34.7131
50.0653 1312 36.2215
50.1827 1362 36.9053
50.3001 1359 36.8646
50.4175 1391 37.2961
50.5348 1404 37.47
50.6521 1411 37.5633
50.7694 1503 38.7685
50.8867 1463 38.2492
51.004 1498 38.704
51.1212 1490 38.6005
51.2384 1462 38.2361
51.3556 1524 39.0384
51.4727 1397 37.3765
51.5899 1252 35.3836
51.707 1173 34.2491
51.824 1246 35.2987
51.9411 1336 36.5513
52.0581 1513 38.8973
52.175 1643 40.5339
52.2919 1784 42.2374
52.4088 1806 42.4971
52.5257 1895 43.5316
52.6425 1964 44.317
52.7593 1956 44.2267
52.876 1961 44.2832
52.9927 1920 43.8178
53.1094 1888 43.4511
53.226 2036 45.1221
53.3426 2036 45.1221
53.4591 1945 44.1022
53.5756 1971 44.3959
53.692 2002 44.7437
53.8084 2062 45.4093
53.9248 2073 45.5302
54.0411 2243 47.3603
54.1573 2217 47.085
54.2735 0 1
54.3896 0 1
54.5057 0 1
54.6217 0 1
54.7377 0 1
54.8537 0 1
54.9695 0 1
55.0853 0 1
55.2011 0 1
55.3168 0 1
55.4324 0 1
57.824 0 1
57.9396 0 1
58.0553 0 1
58.1711 0 1
58.2869 0 1
58.4028 0 1
58.5187 0 1
58.6347 0 1
58.7508 0 1
58.8669 0 1
58.983 2905 53.8981
59.0992 2912 53.963
59.2155 3119 55.848
59.3318 3082 55.5158
59.4482 3199 56.5597
59.5646 3129 55.9375
59.681 3044 55.1725
59.7975 3043 55.1634
59.9141 2856 53.4416
60.0306 2731 52.259
60.1473 2541 50.4083
60.2639 2247 47.4025
60.3807 2153 46.4004
60.4974 2172 46.6047
60.6142 2303 47.9896
60.731 2571 50.705
60.8479 2786 52.7826
60.9648 2980 54.5894
61.0818 3075 55.4527
61.1987 3173 56.3294
61.3158 3223 56.7715
61.4328 3236 56.8859
61.5499 3220 56.745
61.667 3197 56.542
61.7841 3167 56.2761
61.9013 3207 56.6304
62.0185 3111 55.7763
62.1357 3136 56
62.253 3224 56.7803
62.3702 3127 55.9196
62.4875 3125 55.9017
62.6049 3250 57.0088
62.7222 3378 58.1206
62.8396 3406 58.3609
62.9569 3277 57.2451
63.0743 3337 57.7668
63.1918 3284 57.3062
63.3092 3230 56.8331
63.4267 3126 55.9106
63.5441 2950 54.3139
63.6616 2662 51.5946
63.7791 2375 48.734
63.8966 2225 47.1699
64.0142 2348 48.4562
64.1317 2478 49.7795
64.2492 2833 53.2259
64.3668 3166 56.2672
64.4843 3345 57.836
64.6019 3268 57.1664
64.7195 3404 58.3438
64.837 3426 58.532
64.9546 3472 58.9237
65.0722 3507 59.2199
65.1898 3401 58.3181
65.3074 3502 59.1777
65.4249 3373 58.0775
65.5425 3425 58.5235
65.6601 3362 57.9828
65.7777 3339 57.7841
65.8952 3386 58.1893
66.0128 3452 58.7537
66.1304 3576 59.7997
66.2479 3496 59.127
66.3655 3649 60.407
66.483 3765 61.3596
66.6005 3666 60.5475
66.718 3608 60.0666
66.8355 3617 60.1415
66.953 3383 58.1636
67.0705 3418 58.4637
67.1879 3239 56.9122
67.3054 2963 54.4334
67.4228 2496 49.96
67.5402 2456 49.558
67.6576 2415 49.1426
67.7749 2514 50.1398
67.8923 3183 56.4181
68.0096 3502 59.1777
68.1269 3760 61.3188
68.2442 3826 61.8547
68.3614 3962 62.9444
68.4787 3847 62.0242
68.5958 4018 63.3877
68.713 3879 62.2816
68.8302 3899 62.442
68.9473 3877 62.2656
69.0643 3968 62.9921
69.1814 3999 63.2376
69.2984 3917 62.5859
69.4154 3934 62.7216
69.5323 4043 63.5846
69.6492 4038 63.5453
69.7661 4077 63.8514
69.8829 4038 63.5453
69.9997 4221 64.9692
70.1165 4294 65.5286
70.2332 4301 65.582
70.3499 4323 65.7495
70.4665 4306 65.6201
70.5831 3989 63.1585
70.6996 3875 62.2495
70.8161 3895 62.4099
70.9326 3481 59
71.049 3074 55.4437
71.1653 2819 53.0943
71.2817 2634 51.3225
71.3979 2775 52.6783
71.5141 2881 53.6749
71.6303 3367 58.0259
71.7464 3384 58.1722
71.8624 0 1
71.9784 0 1
72.0944 0 1
72.2102 0 1
72.3261 0 1
72.4418 0 1
72.5575 0 1
72.6732 0 1
75.1054 0 1
75.2209 0 1
75.3365 0 1
75.4521 0 1
75.5678 0 1
75.6835 0 1
75.7993 0 1
75.9151 0 1
76.031 0 1
76.147 3449 58.7282
76.263 3635 60.291
76.3791 3311 57.5413
76.4952 2999 54.7631
76.6113 2884 53.7029
76.7276 3026 55.0091
76.8438 3386 58.1893
76.9601 3818 61.79
77.0765 4222 64.9769
77.1929 4465 66.8207
77.3093 4604 67.8528
77.4258 4592 67.7643
77.5423 4673 68.3593
77.6589 4606 67.8675
77.7755 4646 68.1616
77.8921 4674 68.3667
78.0088 4569 67.5944
78.1256 4467 66.8356
78.2423 4552 67.4685
78.3591 4437 66.6108
78.4759 4482 66.9477
78.5928 4430 66.5582
78.7097 4399 66.325
78.8266 4786 69.1809
78.9436 4386 66.2269
79.0606 4460 66.7832
79.1776 4541 67.3869
79.2946 4551 67.4611
79.4117 4519 67.2235
79.5288 4392 66.2722
79.6459 4309 65.643
79.7631 4072 63.8122
79.8802 3840 61.9677
79.9974 3564 59.6992
80.1147 3173 56.3294
80.2319 2863 53.507
80.3491 3002 54.7905
80.4664 3385 58.1808
80.5837 3873 62.2334
80.701 4277 65.3988
80.8183 4265 65.307
80.9357 4415 66.4455
81.053 4483 66.9552
81.1704 4461 66.7907
81.2877 4357 66.0076
81.4051 4393 66.2797
81.5225 4435 66.5958
81.6399 4396 66.3023
81.7573 4374 66.1362
81.8747 4228 65.0231
81.9922 4295 65.5362
82.1096 4384 66.2118
82.227 4207 64.8614
82.3444 4243 65.1383
82.4619 4444 66.6633
82.5793 4254 65.2227
82.6967 4339 65.8711
82.8142 4278 65.4064
82.9316 4335 65.8407
83.049 4336 65.8483
83.1664 4219 64.9538
83.2838 3968 62.9921
83.4012 3818 61.79
83.5186 3646 60.3821
83.636 3404 58.3438
83.7534 2907 53.9166
83.8708 2706 52.0192
83.9881 2747 52.4118
84.1055 2947 54.2863
84.2228 3359 57.9569
84.3401 3790 61.563
84.4575 4180 64.6529
84.5747 4093 63.9766
84.692 4291 65.5057
84.8093 4348 65.9394
84.9265 4401 66.34
85.0437 4376 66.1513
85.1609 4302 65.5896
85.2781 4326 65.7723
85.3952 4347 65.9318
85.5123 4320 65.7267
85.6294 4370 66.106
85.7465 4380 66.1816
85.8636 4348 65.9394
85.9806 4332 65.8179
86.0976 4359 66.0227
86.2145 4486 66.9776
86.3315 4355 65.9924
86.4484 4790 69.2098
86.5652 4657 68.2422
86.682 4567 67.5796
86.7988 4577 67.6535
86.9156 4271 65.3529
87.0323 4225 65
87.149 4041 63.5689
87.2657 3596 59.9667
87.3823 3255 57.0526
87.4988 3144 56.0714
87.6154 3438 58.6345
87.7318 3776 61.4492
87.8483 4413 66.4304
87.9647 4773 69.0869
88.081 4795 69.2459
88.1973 5014 70.8096
88.3136 5004 70.739
88.4298 4939 70.278
88.546 4934 70.2424
88.6621 5012 70.7955
88.7781 4902 70.0143
88.8942 0 1
89.0101 0 1
89.126 0 1
89.2419 0 1
89.3577 0 1
89.4734 0 1
89.5891 0 1
89.7047 0 1
89.8203 0 1
89.9358 0 1
92.3269 0 1
92.4424 0 1
92.558 0 1
92.6736 0 1
92.7893 0 1
92.905 0 1
93.0208 0 1
93.1366 0 1
93.2525 0 1
93.3685 0 1
93.4845 0 1
93.6005 4917 70.1213
93.7167 4927 70.1926
93.8328 5030 70.9225
93.949 5013 70.8025
94.0653 4933 70.2353
94.1816 4811 69.3614
94.2979 4962 70.4415
94.4143 5015 70.8167
94.5307 4886 69.8999
94.6472 5058 71.1196
94.7637 4857 69.6922
94.8803 4928 70.1997
94.9969 5076 71.2461
95.1135 4921 70.1498
95.2302 5033 70.9436
95.3469 4982 70.5833
95.4637 5178 71.9583
95.5805 5081 71.2811
95.6973 5030 70.9225
95.8142 5164 71.861
95.9311 5011 70.7884
96.048 4847 69.6204
96.1649 4676 68.3813
96.2819 4347 65.9318
96.3989 4010 63.3246
96.516 3586 59.8832
96.633 3471 58.9152
96.7501 3476 58.9576
96.8673 3760 61.3188
96.9844 4190 64.7302
97.1016 4701 68.5638
97.2188 5110 71.4843
97.336 5292 72.7461
97.4532 5328 72.9932
97.5704 5184 72
97.6877 5198 72.0972
97.805 5260 72.5259
97.9223 5218 72.2357
98.0396 5226 72.2911
98.1569 5164 71.861
98.2743 5151 71.7705
98.3916 5203 72.1318
98.509 5222 72.2634
98.6264 5070 71.2039
98.7438 5159 71.8262
98.8612 5181 71.9792
98.9786 5252 72.4707
99.096 5185 72.0069
99.2134 5324 72.9657
99.3308 5404 73.5119
99.4482 5284 72.6911
99.5656 5397 73.4643
99.6831 5210 72.1803
99.8005 4998 70.6965
99.9179 4615 67.9338
100.035 4263 65.2917
100.153 3909 62.522
100.27 3740 61.1555
100.388 4012 63.3404
100.505 4400 66.3325
100.622 4917 70.1213
100.74 5208 72.1665
100.857 5413 73.5731
100.975 5543 74.4513
101.092 5497 74.1418
101.209 5610 74.8999
101.327 5543 74.4513
101.444 5520 74.2967
101.561 5459 73.885
101.679 5658 75.2197
101.796 5567 74.6123
101.913 5489 74.0878
102.03 5479 74.0203
102.148 5477 74.0068
102.265 5779 76.0197
102.382 5322 72.952
102.499 5595 74.7997
102.616 5706 75.5381
102.733 5827 76.3348
102.851 5780 76.0263
102.968 5891 76.7529
103.085 5637 75.08
103.202 5716 75.6042
103.319 5477 74.0068
103.436 5192 72.0555
103.552 4562 67.5426
103.669 4070 63.7966
103.786 3852 62.0645
103.903 4125 64.2262
104.02 4669 68.3301
104.137 5352 73.1574
104.253 5737 75.743
104.37 5826 76.3282
104.487 6000 77.4597
104.603 5967 77.2464
104.72 6057 77.8267
104.836 6107 78.1473
104.953 6129 78.2879
105.069 6078 77.9615
105.186 6140 78.3582
105.302 5963 77.2205
105.418 5950 77.1362
105.535 6163 78.5048
105.651 6051 77.7882
105.767 6087 78.0192
105.883 6131 78.3007
105.999 6113 78.1857
106.115 0 1
106.231 0 1
106.347 0 1
106.463 0 1
106.579 0 1
106.694 0 1
106.81 0 1
106.926 0 1
107.041 0 1
107.157 0 1
109.576 0 1
109.692 0 1
109.807 0 1
109.923 0 1
110.039 0 1
110.155 0 1
110.27 0 1
110.386 0 1
110.502 0 1
110.618 5630 75.0333
110.735 5726 75.6703
110.851 5709 75.5579
110.967 5825 76.3217
111.083 5871 76.6225
111.199 5715 75.5976
111.316 5914 76.9025
111.432 5815 76.2561
111.549 5745 75.7958
111.665 5623 74.9867
111.782 5334 73.0342
111.898 5076 71.2461
112.015 4530 67.3053
112.132 4093 63.9766
112.248 3763 61.3433
112.365 3989 63.1585
112.482 4363 66.053
112.599 4784 69.1665
112.716 5198 72.0972
112.832 5371 73.2871
112.949 5363 73.2325
113.066 5510 74.2294
113.183 5303 72.8217
113.3 5372 73.2939
113.417 5370 73.2803
113.534 5161 71.8401
113.652 5298 72.7874
113.769 5169 71.8958
113.886 5304 72.8286
114.003 5113 71.5052
114.12 5213 72.2011
114.238 5121 71.5612
114.355 5127 71.6031
114.472 5021 70.859
114.589 4992 70.6541
114.707 4975 70.5337
114.824 5053 71.0845
114.942 5077 71.2531
115.059 4883 69.8785
115.176 5106 71.4563
115.294 4852 69.6563
115.411 4811 69.3614
115.529 4429 66.5507
115.646 3905 62.49
115.764 3616 60.1332
115.881 3495 59.1185
115.999 3950 62.849
116.116 4412 66.4229
116.234 4806 69.3253
116.351 5058 71.1196
116.469 5047 71.0422
116.586 5171 71.9097
116.704 5023 70.8731
116.821 5142 71.7077
116.939 5100 71.4143
117.056 5159 71.8262
117.174 5057 71.1126
117.291 5116 71.5262
117.409 5066 71.1758
117.526 5127 71.6031
117.644 5218 72.2357
117.761 5156 71.8053
117.879 5200 72.111
117.996 5141 71.7008
118.114 5132 71.638
118.231 5150 71.7635
118.349 5196 72.0833
118.466 5028 70.9084
118.584 5185 72.0069
118.701 5128 71.6101
118.819 5200 72.111
118.936 4903 70.0214
119.053 4740 68.8477
119.171 4481 66.9403
119.288 3988 63.1506
119.405 3681 60.6712
119.523 3496 59.127
119.64 3856 62.0967
119.757 4359 66.0227
119.875 4672 68.352
119.992 4900 70
120.109 4924 70.1712
120.226 5111 71.4913
120.343 5142 71.7077
120.46 5171 71.9097
120.578 5125 71.5891
120.695 5152 71.7774
120.812 5150 71.7635
120.929 5144 71.7217
121.046 5118 71.5402
121.163 5052 71.0774
121.279 4934 70.2424
121.396 4933 70.2353
121.513 4979 70.562
121.63 5196 72.0833
121.747 5070 71.2039
121.863 5098 71.4003
121.98 5068 71.1899
122.097 5032 70.9366
122.213 5106 71.4563
122.33 5049 71.0563
122.446 5093 71.3653
122.563 4822 69.4406
122.679 4882 69.8713
122.795 4579 67.6683
122.912 4259 65.261
123.028 3897 62.426
123.144 3624 60.1997
123.26 3450 58.7367
123.377 0 1
123.493 0 1
123.609 0 1
123.725 0 1
123.84 0 1
123.956 0 1
124.072 0 1
124.188 0 1
124.303 0 1
124.419 0 1
126.852 0 1
126.968 0 1
127.083 0 1
127.199 0 1
127.315 0 1
127.431 0 1
127.547 0 1
127.663 0 1
127.779 0 1
127.895 0 1
128.011 0 1
128.127 0 1
128.243 0 1
128.359 4052 63.6553
128.476 3869 62.2013
128.592 4257 65.2457
128.708 4773 69.0869
128.825 5222 72.2634
128.941 5427 73.6682
129.058 5616 74.94
129.174 5696 75.4718
129.291 5700 75.4983
129.408 5664 75.2596
129.524 5458 73.8783
129.641 5629 75.0267
129.758 5632 75.0467
129.875 5684 75.3923
129.992 5536 74.4043
130.108 5461 73.8986
130.225 5617 74.9466
130.342 5479 74.0203
130.459 5255 72.4914
130.576 5632 75.0467
130.693 5460 73.8918
130.81 5316 72.9109
130.928 5379 73.3417
131.045 5328 72.9932
131.162 5547 74.4782
131.279 5440 73.7564
131.396 5511 74.2361
131.513 5123 71.5751
131.631 4984 70.5975
131.748 4763 69.0145
131.865 4246 65.1613
131.983 4003 63.2693
132.1 3949 62.8411
132.217 4278 65.4064
132.335 5036 70.9648
132.452 5057 71.1126
132.57 5422 73.6342
132.687 5188 72.0278
132.804 5703 75.5182
132.922 5314 72.8972
133.039 5380 73.3485
133.157 5414 73.5799
133.274 5341 73.0821
133.392 5365 73.2462
133.509 5353 73.1642
133.627 5468 73.9459
133.744 5355 73.1779
133.862 5196 72.0833
133.979 5210 72.1803
134.097 5345 73.1095
134.214 5374 73.3076
134.332 5161 71.8401
134.449 5255 72.4914
134.567 5249 72.45
134.684 5285 72.698
134.802 5276 72.6361
134.919 5373 73.3008
135.037 5169 71.8958
135.154 5032 70.9366
135.272 4871 69.7925
135.389 4426 66.5282
135.507 4047 63.616
135.624 3837 61.9435
135.742 4280 65.4217
135.859 4424 66.5132
135.977 4872 69.7997
136.094 5161 71.8401
136.211 5216 72.2219
136.329 5396 73.4575
136.446 5433 73.7089
136.564 5477 74.0068
136.681 5646 75.1399
136.798 5427 73.6682
136.915 5270 72.5948
137.033 5268 72.581
137.15 5387 73.3962
137.267 5126 71.5961
137.384 5027 70.9013
137.502 5054 71.0915
137.619 5178 71.9583
137.736 5162 71.8471
137.853 4993 70.6612
137.97 5034 70.9507
138.087 5231 72.3257
138.204 5098 71.4003
138.321 5160 71.8331
138.438 5214 72.208
138.555 5287 72.7118
138.672 5217 72.2288
138.788 5076 71.2461
138.905 4911 70.0785
139.022 4599 67.8159
139.139 4181 64.6607
139.255 3959 62.9206
139.372 4119 64.1794
139.488 4481 66.9403
139.605 4915 70.1071
139.721 5164 71.861
139.838 5416 73.5935
139.954 5412 73.5663
140.071 5320 72.9383
140.187 5349 73.1369
140.303 5369 73.2735
140.419 5159 71.8262
140.535 5191 72.0486
140.652 5061 71.1407
140.768 0 1
140.884 0 1
141 0 1
141.115 0 1
141.231 0 1
141.347 0 1
141.463 0 1
141.578 0 1
141.694 0 1
144.104 0 1
144.219 0 1
144.335 0 1
144.45 0 1
144.566 0 1
144.682 0 1
144.798 0 1
144.914 0 1
145.03 0 1
145.146 4632 68.0588
145.262 4778 69.1231
145.378 4618 67.9559
145.494 4622 67.9853
145.61 4440 66.6333
145.726 4488 66.9925
145.842 4490 67.0075
145.959 4414 66.4379
146.075 4266 65.3146
146.192 4279 65.4141
146.308 4298 65.5591
146.425 4353 65.9773
146.541 4375 66.1438
146.658 4306 65.6201
146.774 4447 66.6858
146.891 4323 65.7495
147.008 4522 67.2458
147.125 4353 65.9773
147.241 4429 66.5507
147.358 4300 65.5744
147.475 4140 64.3428
147.592 3919 62.6019
147.709 3557 59.6406
147.826 3232 56.8507
147.943 3318 57.6021
148.06 3545 59.5399
148.177 3969 63
148.294 4269 65.3376
148.411 4356 66
148.528 4361 66.0379
148.645 4297 65.5515
148.762 4316 65.6963
148.88 4407 66.3852
148.997 4267 65.3223
149.114 4516 67.2012
149.231 4267 65.3223
149.349 4101 64.0391
149.466 4137 64.3195
149.583 4061 63.726
149.701 3986 63.1348
149.818 3952 62.8649
149.935 3982 63.1031
150.053 3973 63.0317
150.17 3985 63.1269
150.287 3975 63.0476
150.405 4146 64.3894
150.522 4088 63.9375
150.64 4115 64.1483
150.757 4142 64.3584
150.875 4185 64.6916
150.992 4026 63.4508
151.11 3943 62.7933
151.227 3647 60.3904
151.344 3371 58.0603
151.462 3106 55.7315
151.579 3138 56.0179
151.697 3461 58.8303
151.814 3831 61.8951
151.932 4109 64.1015
152.049 4290 65.4981
152.167 4148 64.405
152.284 4259 65.261
152.402 4250 65.192
152.519 4246 65.1613
152.636 4270 65.3452
152.754 4173 64.5988
152.871 4237 65.0922
152.989 4084 63.9062
153.106 4073 63.8201
153.223 3944 62.8013
153.341 3911 62.538
153.458 3821 61.8142
153.575 3840 61.9677
153.693 4087 63.9296
153.81 3948 62.8331
153.927 3999 63.2376
154.044 4089 63.9453
154.162 4157 64.4748
154.279 4167 64.5523
154.396 4176 64.622
154.513 4286 65.4675
154.63 4243 65.1383
154.747 4068 63.7809
154.864 3953 62.8729
154.981 3666 60.5475
155.098 3447 58.7112
155.215 3414 58.4294
155.332 3624 60.1997
155.449 3960 62.9285
155.566 4164 64.5291
155.683 4247 65.169
155.8 4257 65.2457
155.917 4320 65.7267
156.033 4346 65.9242
156.15 0 1
156.267 0 1
156.383 0 1
156.5 0 1
156.617 0 1
156.733 0 1
156.85 0 1
156.966 0 1
157.082 0 1
157.199 0 1
157.315 0 1
157.431 0 1
157.547 0 1
157.664 0 1
157.78 0 1
157.896 0 1
158.012 0 1
158.128 0 1
158.244 0 1
158.359 0 1
158.475 0 1
158.591 0 1
158.706 0 1
