
6.15755 0 1
6.2731 0 1
6.3887 0 1
6.50437 0 1
6.62009 0 1
6.73587 0 1
6.8517 0 1
6.96759 0 1
7.08353 0 1
7.19952 0 1
7.31557 0 1
7.43166 0 1
7.54781 0 1
7.664 0 1
7.78024 0 1
7.89653 0 1
8.01286 0 1
8.12924 0 1
8.24567 0 1
8.36213 0 1
8.47864 0 1
8.59519 0 1
8.71178 0 1
8.82841 0 1
8.94508 0 1
9.06179 0 1
9.17853 0 1
9.29531 0 1
9.41212 0 1
9.52897 0 1
9.64584 0 1
9.76276 0 1
9.8797 0 1
9.99667 0 1
10.1137 0 1
10.2307 0 1
10.3478 0 1
10.4648 0 1
10.5819 0 1
10.6991 0 1
10.8162 0 1
10.9334 0 1
11.0506 0 1
11.1678 0 1
11.285 0 1
11.4023 0 1
11.5196 0 1
11.6369 0 1
11.7542 0 1
11.8715 0 1
11.9888 0 1
12.1062 0 1
12.2235 0 1
12.3409 0 1
12.4582 0 1
12.5756 0 1
12.693 0 1
12.8104 0 1
12.9278 0 1
13.0452 0 1
13.1626 0 1
13.28 0 1
13.3974 0 1
13.5149 0 1
13.6323 0 1
13.7497 0 1
13.8671 0 1
13.9845 0 1
14.1019 0 1
14.2193 0 1
14.3367 0 1
14.4541 0 1
14.5714 0 1
14.6888 0 1
14.8062 0 1
14.9235 0 1
15.0408 19518 139.707
15.1581 20508 143.206
15.2755 21209 145.633
15.3927 21283 145.887
15.51 21349 146.113
15.6273 21153 145.441
15.7445 20102 141.782
15.8617 20285 142.425
15.9789 19802 140.72
16.0961 19022 137.92
16.2132 18106 134.559
16.3304 17804 133.432
16.4475 17299 131.526
16.5646 16734 129.36
16.6816 16506 128.476
16.7986 15947 126.281
16.9156 15694 125.276
17.0326 15018 122.548
17.1496 14690 121.202
17.2665 14382 119.925
17.3833 14742 121.417
17.5002 14588 120.781
17.617 14711 121.289
17.7338 15504 124.515
17.8505 15598 124.892
17.9672 16209 127.315
18.0839 16279 127.589
18.2005 17112 130.813
18.3171 17675 132.947
18.4337 17979 134.086
18.5502 18106 134.559
18.6666 17999 134.16
18.7831 18157 134.748
18.8994 17578 132.582
19.0158 16956 130.215
19.1321 15981 126.416
19.2483 15158 123.118
19.3645 14283 119.512
19.4806 13638 116.782
19.5967 12649 112.468
19.7128 11637 107.875
19.8288 10604 102.976
19.9447 9271 96.286
20.0606 0 1
20.1764 0 1
20.2922 0 1
20.4079 0 1
20.5236 0 1
20.6392 0 1
20.7548 0 1
20.8702 0 1
23.3078 0 1
23.4233 0 1
23.539 0 1
23.6547 0 1
23.7704 0 1
23.8862 0 1
24.0021 0 1
24.118 0 1
24.234 0 1
24.35 0 1
24.4661 8128 90.1554
24.5822 8810 93.8616
24.6984 9290 96.3846
24.8146 10255 101.267
24.9309 10860 104.211
25.0472 11578 107.601
25.1636 12004 109.563
25.28 12780 113.049
25.3965 13134 114.604
25.513 13578 116.525
25.6296 14122 118.836
25.7462 14534 120.557
25.8628 14585 120.768
25.9795 15128 122.996
26.0962 15127 122.992
26.213 15129 123
26.3298 14958 122.303
26.4466 14817 121.725
26.5635 14725 121.347
26.6804 14628 120.946
26.7973 14988 122.425
26.9143 14919 122.143
27.0313 14950 122.27
27.1483 15367 123.964
27.2653 15646 125.084
27.3824 15853 125.909
27.4996 15711 125.344
27.6167 15548 124.692
27.7339 15560 124.74
27.8511 14987 122.421
27.9683 15087 122.829
28.0855 14359 119.829
28.2028 14291 119.545
28.3201 14110 118.786
28.4374 13762 117.312
28.5547 13224 114.996
28.6721 13108 114.49
28.7894 12895 113.556
28.9068 12879 113.486
29.0242 13080 114.368
29.1416 12502 111.812
29.259 12732 112.836
29.3764 12746 112.898
29.4939 12882 113.499
29.6113 13017 114.092
29.7288 13404 115.776
29.8463 13369 115.624
29.9638 13707 117.077
30.0812 13450 115.974
30.1987 13543 116.374
30.3162 13915 117.962
30.4337 14079 118.655
30.5512 14610 120.872
30.6687 14722 121.334
30.7862 14950 122.27
30.9037 15396 124.081
31.0212 15215 123.349
31.1387 15391 124.06
31.2562 14821 121.742
31.3737 14760 121.491
31.4912 14612 120.88
31.6087 14287 119.528
31.7262 14089 118.697
31.8436 13766 117.329
31.9611 13312 115.378
32.0785 12804 113.155
32.1959 12709 112.734
32.3134 12508 111.839
32.4308 12408 111.391
32.5482 12150 110.227
32.6655 12206 110.481
32.7829 12230 110.589
32.9002 11937 109.257
33.0176 12223 110.558
33.1349 12422 111.454
33.2522 13049 114.232
33.3694 12827 113.256
33.4867 13046 114.219
33.6039 12970 113.886
33.7211 13009 114.057
33.8383 13172 114.769
33.9554 13345 115.521
34.0725 14021 118.41
34.1896 14234 119.306
34.3067 14514 120.474
34.4237 14745 121.429
34.5407 14900 122.066
34.6577 14843 121.832
34.7746 14871 121.947
34.8915 14461 120.254
35.0084 14582 120.756
35.1252 14456 120.233
35.242 14113 118.798
35.3587 13942 118.076
35.4755 13156 114.7
35.5921 12894 113.552
35.7088 12123 110.104
35.8254 12114 110.064
35.9419 11661 107.986
36.0584 11094 105.328
36.1749 10834 104.087
36.2913 10157 100.782
36.4077 9872 99.3579
36.524 9983 99.915
36.6403 9458 97.2522
36.7565 9528 97.6115
36.8727 9430 97.1082
36.9889 9099 95.3887
37.1049 8873 94.1966
37.221 0 1
37.3369 0 1
37.4529 0 1
37.5687 0 1
37.6845 0 1
37.8003 0 1
37.916 0 1
38.0316 0 1
38.1472 0 1
40.5851 0 1
40.7008 0 1
40.8164 0 1
40.9322 0 1
41.048 0 1
41.1639 0 1
41.2798 0 1
41.3958 0 1
41.5118 0 1
41.6279 0 1
41.744 6342 79.6367
41.8602 6942 83.3187
41.9765 7541 86.8389
42.0928 8305 91.1318
42.2091 8358 91.4221
42.3255 8423 91.7769
42.4419 8787 93.739
42.5584 9192 95.8749
42.675 9766 98.8231
42.7915 10191 100.95
42.9081 11133 105.513
43.0248 11570 107.564
43.1415 11771 108.494
43.2582 12331 111.045
43.375 12693 112.663
43.4918 12682 112.614
43.6087 13040 114.193
43.7256 13008 114.053
43.8425 13156 114.7
43.9595 13119 114.538
44.0765 12970 113.886
44.1935 12568 112.107
44.3106 12677 112.592
44.4277 12334 111.059
44.5448 11689 108.116
44.6619 11125 105.475
44.7791 10721 103.542
44.8963 10378 101.872
45.0136 10499 102.465
45.1308 10063 100.315
45.2481 10042 100.21
45.3654 10323 101.602
45.4827 10321 101.592
45.6001 10410 102.029
45.7174 10700 103.441
45.8348 10576 102.84
45.9522 10644 103.17
46.0697 10973 104.752
46.1871 11341 106.494
46.3046 11762 108.453
46.422 12534 111.955
46.5395 12760 112.96
46.657 13319 115.408
46.7745 13750 117.26
46.892 14109 118.781
47.0096 14098 118.735
47.1271 14412 120.05
47.2446 14121 118.832
47.3622 14364 119.85
47.4797 14402 120.008
47.5973 14092 118.71
47.7149 13851 117.69
47.8324 13217 114.965
47.95 12993 113.987
48.0675 11921 109.183
48.1851 11631 107.847
48.3027 11165 105.665
48.4202 10832 104.077
48.5378 10695 103.417
48.6554 10519 102.562
48.7729 10559 102.757
48.8904 10527 102.601
49.008 10564 102.781
49.1255 10583 102.874
49.243 10378 101.872
49.3605 10572 102.82
49.478 10887 104.341
49.5955 11112 105.413
49.713 11700 108.167
49.8304 12306 110.932
49.9479 12959 113.838
50.0653 13372 115.637
50.1827 13838 117.635
50.3001 14433 120.137
50.4175 14773 121.544
50.5348 14856 121.885
50.6521 14816 121.721
50.7694 15101 122.886
50.8867 15070 122.76
51.004 14948 122.262
51.1212 14948 122.262
51.2384 14442 120.175
51.3556 13696 117.03
51.4727 13238 115.057
51.5899 12667 112.548
51.707 11963 109.375
51.824 11261 106.118
51.9411 10929 104.542
52.0581 10983 104.8
52.175 10381 101.887
52.2919 10203 101.01
52.4088 9848 99.2371
52.5257 9758 98.7826
52.6425 9816 99.0757
52.7593 9843 99.2119
52.876 9537 97.6576
52.9927 9799 98.9899
53.1094 10063 100.315
53.226 10049 100.245
53.3426 10398 101.971
53.4591 10812 103.981
53.5756 10873 104.274
53.692 11233 105.986
53.8084 11521 107.336
53.9248 10953 104.657
54.0411 10644 103.17
54.1573 10367 101.818
54.2735 0 1
54.3896 0 1
54.5057 0 1
54.6217 0 1
54.7377 0 1
54.8537 0 1
54.9695 0 1
55.0853 0 1
55.2011 0 1
55.3168 0 1
55.4324 0 1
57.824 0 1
57.9396 0 1
58.0553 0 1
58.1711 0 1
58.2869 0 1
58.4028 0 1
58.5187 0 1
58.6347 0 1
58.7508 0 1
58.8669 0 1
58.983 10453 102.24
59.0992 11811 108.678
59.2155 12509 111.844
59.3318 13635 116.769
59.4482 14283 119.512
59.5646 15175 123.187
59.681 15508 124.531
59.7975 15600 124.9
59.9141 15077 122.788
60.0306 15034 122.613
60.1473 14684 121.178
60.2639 14017 118.393
60.3807 13484 116.121
60.4974 13092 114.42
60.6142 12434 111.508
60.731 12420 111.445
60.8479 12346 111.113
60.9648 12390 111.31
61.0818 12838 113.305
61.1987 12986 113.956
61.3158 13006 114.044
61.4328 13001 114.022
61.5499 13020 114.105
61.667 13373 115.642
61.7841 13878 117.805
61.9013 14251 119.378
62.0185 14706 121.268
62.1357 15763 125.551
62.253 16480 128.374
62.3702 17698 133.034
62.4875 18319 135.348
62.6049 18786 137.062
62.7222 19507 139.667
62.8396 19713 140.403
62.9569 20116 141.831
63.0743 19890 141.032
63.1918 19409 139.316
63.3092 19272 138.824
63.4267 18299 135.274
63.5441 17534 132.416
63.6616 16823 129.704
63.7791 15643 125.072
63.8966 14387 119.946
64.0142 13462 116.026
64.1317 12817 113.212
64.2492 12255 110.702
64.3668 12026 109.663
64.4843 12273 110.784
64.6019 12665 112.539
64.7195 12509 111.844
64.837 12800 113.137
64.9546 12645 112.45
65.0722 12671 112.566
65.1898 13290 115.282
65.3074 13515 116.254
65.4249 13614 116.679
65.5425 14713 121.297
65.6601 15345 123.875
65.7777 16355 127.887
65.8952 17220 131.225
66.0128 17929 133.899
66.1304 18837 137.248
66.2479 19608 140.029
66.3655 19811 140.752
66.483 20336 142.604
66.6005 20214 142.176
66.718 19994 141.4
66.8355 19457 139.488
66.953 18823 137.197
67.0705 17409 131.943
67.1879 16745 129.402
67.3054 15462 124.346
67.4228 13937 118.055
67.5402 12823 113.239
67.6576 12090 109.955
67.7749 11848 108.849
67.8923 11872 108.959
68.0096 11908 109.124
68.1269 12488 111.75
68.2442 12973 113.899
68.3614 13187 114.835
68.4787 13052 114.245
68.5958 12858 113.393
68.713 12557 112.058
68.8302 12565 112.094
68.9473 12641 112.432
69.0643 12709 112.734
69.1814 13000 114.018
69.2984 13728 117.167
69.4154 14356 119.817
69.5323 15067 122.748
69.6492 16087 126.835
69.7661 16501 128.456
69.8829 16580 128.763
69.9997 16733 129.356
70.1165 16518 128.522
70.2332 15913 126.147
70.3499 15466 124.362
70.4665 14935 122.209
70.5831 13789 117.427
70.6996 13075 114.346
70.8161 12006 109.572
70.9326 10939 104.59
71.049 9773 98.8585
71.1653 8945 94.578
71.2817 7926 89.0281
71.3979 7571 87.0115
71.5141 7161 84.6227
71.6303 6870 82.8855
71.7464 6905 83.0963
71.8624 0 1
71.9784 0 1
72.0944 0 1
72.2102 0 1
72.3261 0 1
72.4418 0 1
72.5575 0 1
72.6732 0 1
75.1054 0 1
75.2209 0 1
75.3365 0 1
75.4521 0 1
75.5678 0 1
75.6835 0 1
75.7993 0 1
75.9151 0 1
76.031 0 1
76.147 9048 95.121
76.263 9087 95.3258
76.3791 8619 92.8386
76.4952 8282 91.0055
76.6113 8228 90.7083
76.7276 8251 90.835
76.8438 8340 91.3236
76.9601 8829 93.9628
77.0765 9631 98.1377
77.1929 10388 101.922
77.3093 11234 105.991
77.4258 11439 106.953
77.5423 11375 106.654
77.6589 11141 105.551
77.7755 11250 106.066
77.8921 11351 106.541
78.0088 11308 106.339
78.1256 11621 107.801
78.2423 12490 111.759
78.3591 13381 115.676
78.4759 14263 119.428
78.5928 15600 124.9
78.7097 16566 128.709
78.8266 17042 130.545
78.9436 18079 134.458
79.0606 18007 134.19
79.1776 17921 133.869
79.2946 18116 134.596
79.4117 17965 134.034
79.5288 17183 131.084
79.6459 16361 127.91
79.7631 14962 122.319
79.8802 13916 117.966
79.9974 12919 113.662
80.1147 12039 109.722
80.2319 10887 104.341
80.3491 10999 104.876
80.4664 11154 105.612
80.5837 11209 105.873
80.701 11471 107.103
80.8183 11896 109.069
80.9357 12450 111.58
81.053 12881 113.494
81.1704 12569 112.112
81.2877 12150 110.227
81.4051 11776 108.517
81.5225 12057 109.804
81.6399 11738 108.342
81.7573 12309 110.946
81.8747 12737 112.858
81.9922 13954 118.127
82.1096 15164 123.142
82.227 16502 128.46
82.3444 17489 132.246
82.4619 18574 136.286
82.5793 18625 136.473
82.6967 19166 138.441
82.8142 19078 138.123
82.9316 19123 138.286
83.049 18481 135.945
83.1664 17402 131.917
83.2838 16078 126.799
83.4012 15045 122.658
83.5186 13852 117.695
83.636 12743 112.885
83.7534 11874 108.968
83.8708 11076 105.243
83.9881 11060 105.167
84.1055 10977 104.771
84.2228 11517 107.317
84.3401 12029 109.677
84.4575 13203 114.904
84.5747 13933 118.038
84.692 14315 119.645
84.8093 13488 116.138
84.9265 12426 111.472
85.0437 12067 109.85
85.1609 11886 109.023
85.2781 12108 110.036
85.3952 12255 110.702
85.5123 13462 116.026
85.6294 14521 120.503
85.7465 15413 124.149
85.8636 16414 128.117
85.9806 17703 133.053
86.0976 18621 136.459
86.2145 18747 136.92
86.3315 18828 137.215
86.4484 17879 133.712
86.5652 18135 134.666
86.682 17422 131.992
86.7988 16513 128.503
86.9156 15521 124.583
87.0323 14254 119.39
87.149 13444 115.948
87.2657 11989 109.494
87.3823 11030 105.024
87.4988 10553 102.728
87.6154 10371 101.838
87.7318 10503 102.484
87.8483 10809 103.966
87.9647 10919 104.494
88.081 11098 105.347
88.1973 10875 104.283
88.3136 10059 100.295
88.4298 8498 92.1846
88.546 7400 86.0233
88.6621 6747 82.1401
88.7781 6341 79.6304
88.8942 0 1
89.0101 0 1
89.126 0 1
89.2419 0 1
89.3577 0 1
89.4734 0 1
89.5891 0 1
89.7047 0 1
89.8203 0 1
89.9358 0 1
92.3269 0 1
92.4424 0 1
92.558 0 1
92.6736 0 1
92.7893 0 1
92.905 0 1
93.0208 0 1
93.1366 0 1
93.2525 0 1
93.3685 0 1
93.4845 0 1
93.6005 9760 98.7927
93.7167 10824 104.038
93.8328 11472 107.107
93.949 11887 109.028
94.0653 11898 109.078
94.1816 12102 110.009
94.2979 12432 111.499
94.4143 13062 114.289
94.5307 13869 117.767
94.6472 14579 120.744
94.7637 15618 124.972
94.8803 16681 129.155
94.9969 17857 133.63
95.1135 18887 137.43
95.2302 19702 140.364
95.3469 19861 140.929
95.4637 20064 141.647
95.5805 20067 141.658
95.6973 19633 140.118
95.8142 18549 136.195
95.9311 17317 131.594
96.048 16622 128.926
96.1649 15705 125.32
96.2819 14698 121.235
96.3989 13516 116.258
96.516 12802 113.146
96.633 12306 110.932
96.7501 12104 110.018
96.8673 12617 112.325
96.9844 12866 113.428
97.1016 13534 116.336
97.2188 14223 119.26
97.336 14281 119.503
97.4532 14193 119.134
97.5704 13642 116.799
97.6877 13042 114.202
97.805 12963 113.855
97.9223 13051 114.241
98.0396 13377 115.659
98.1569 14283 119.512
98.2743 14930 122.188
98.3916 16326 127.773
98.509 17201 131.153
98.6264 18594 136.36
98.7438 19557 139.846
98.8612 20420 142.899
98.9786 21074 145.169
99.096 21029 145.014
99.2134 20959 144.772
99.3308 20593 143.503
99.4482 19866 140.947
99.5656 18589 136.341
99.6831 17048 130.568
99.8005 16202 127.287
99.9179 15236 123.434
100.035 14158 118.987
100.153 13634 116.765
100.27 13427 115.875
100.388 13399 115.754
100.505 13669 116.914
100.622 14003 118.334
100.74 14378 119.908
100.857 14892 122.033
100.975 14596 120.814
101.092 14259 119.411
101.209 13969 118.191
101.327 13762 117.312
101.444 13932 118.034
101.561 14138 118.903
101.679 14966 122.336
101.796 15945 126.274
101.913 17325 131.624
102.03 18369 135.532
102.148 19608 140.029
102.265 20365 142.706
102.382 20936 144.693
102.499 21380 146.219
102.616 21682 147.248
102.733 21653 147.15
102.851 21081 145.193
102.968 20151 141.954
103.085 19255 138.762
103.202 18092 134.507
103.319 17080 130.69
103.436 15867 125.964
103.552 14831 121.783
103.669 13946 118.093
103.786 13622 116.713
103.903 13782 117.397
104.02 13639 116.786
104.137 13875 117.792
104.253 14032 118.457
104.37 13674 116.936
104.487 13167 114.748
104.603 12636 112.41
104.72 11750 108.397
104.836 10991 104.838
104.953 10935 104.571
105.069 10969 104.733
105.186 11091 105.314
105.302 11506 107.266
105.418 11904 109.105
105.535 12084 109.927
105.651 12589 112.201
105.767 12549 112.022
105.883 12424 111.463
105.999 11447 106.991
106.115 0 1
106.231 0 1
106.347 0 1
106.463 0 1
106.579 0 1
106.694 0 1
106.81 0 1
106.926 0 1
107.041 0 1
107.157 0 1
109.576 0 1
109.692 0 1
109.807 0 1
109.923 0 1
110.039 0 1
110.155 0 1
110.27 0 1
110.386 0 1
110.502 0 1
110.618 10679 103.339
110.735 12022 109.645
110.851 13072 114.333
110.967 13931 118.03
111.083 14981 122.397
111.199 15963 126.345
111.316 16696 129.213
111.432 16824 129.707
111.549 17313 131.579
111.665 16886 129.946
111.782 16189 127.236
111.898 15729 125.415
112.015 15000 122.474
112.132 14284 119.516
112.248 13277 115.226
112.365 12927 113.697
112.482 13277 115.226
112.599 13206 114.917
112.716 13048 114.228
112.832 13038 114.184
112.949 13462 116.026
113.066 13682 116.97
113.183 13656 116.859
113.3 12825 113.248
113.417 12330 111.041
113.534 12514 111.866
113.652 12755 112.938
113.769 13476 116.086
113.886 14373 119.887
114.003 15559 124.736
114.12 16517 128.518
114.238 17696 133.026
114.355 18348 135.455
114.472 19524 139.728
114.589 19619 140.068
114.707 20055 141.616
114.824 20123 141.856
114.942 20066 141.655
115.059 20292 142.45
115.176 19042 137.993
115.294 17984 134.104
115.411 17214 131.202
115.529 16184 127.216
115.646 15286 123.637
115.764 14500 120.416
115.881 13716 117.115
115.999 13411 115.806
116.116 13334 115.473
116.234 13369 115.624
116.351 13211 114.939
116.469 13429 115.884
116.586 13505 116.211
116.704 13484 116.121
116.821 13002 114.026
116.939 12359 111.171
117.056 12285 110.838
117.174 12828 113.261
117.291 13401 115.763
117.409 14352 119.8
117.526 15444 124.274
117.644 16227 127.385
117.761 17103 130.778
117.879 17718 133.109
117.996 18478 135.934
118.114 19256 138.766
118.231 19006 137.862
118.349 19499 139.639
118.466 19321 139
118.584 19589 139.961
118.701 19265 138.798
118.819 18356 135.484
118.936 17376 131.818
119.053 16569 128.721
119.171 15760 125.539
119.288 15041 122.642
119.405 14264 119.432
119.523 13687 116.991
119.64 13573 116.503
119.757 13086 114.394
119.875 13388 115.707
119.992 12925 113.688
120.109 12895 113.556
120.226 12894 113.552
120.343 12800 113.137
120.46 12358 111.167
120.578 11922 109.188
120.695 12057 109.804
120.812 12378 111.256
120.929 12701 112.699
121.046 13188 114.839
121.163 13996 118.305
121.279 14461 120.254
121.396 14844 121.836
121.513 15419 124.173
121.63 16048 126.681
121.747 16026 126.594
121.863 16138 127.035
121.98 15997 126.479
122.097 16022 126.578
122.213 15527 124.607
122.33 14947 122.258
122.446 14378 119.908
122.563 13478 116.095
122.679 12599 112.245
122.795 11445 106.981
122.912 10648 103.189
123.028 9899 99.4937
123.144 8822 93.9255
123.26 8325 91.2414
123.377 0 1
123.493 0 1
123.609 0 1
123.725 0 1
123.84 0 1
123.956 0 1
124.072 0 1
124.188 0 1
124.303 0 1
124.419 0 1
126.852 0 1
126.968 0 1
127.083 0 1
127.199 0 1
127.315 0 1
127.431 0 1
127.547 0 1
127.663 0 1
127.779 0 1
127.895 0 1
128.011 0 1
128.127 0 1
128.243 0 1
128.359 15485 124.439
128.476 15131 123.008
128.592 15011 122.519
128.708 14736 121.392
128.825 15087 122.829
128.941 15450 124.298
129.058 15254 123.507
129.174 15546 124.684
129.291 15367 123.964
129.408 15345 123.875
129.524 14991 122.438
129.641 14983 122.405
129.758 15197 123.276
129.875 15697 125.288
129.992 15682 125.228
130.108 16601 128.845
130.225 17624 132.755
130.342 18783 137.051
130.459 18910 137.514
130.576 20306 142.499
130.693 20671 143.774
130.81 20627 143.621
130.928 21119 145.324
131.045 21205 145.619
131.162 21198 145.595
131.279 21401 146.291
131.396 21165 145.482
131.513 20877 144.489
131.631 20539 143.314
131.748 19645 140.161
131.865 18942 137.63
131.983 17869 133.675
132.1 17370 131.795
132.217 17199 131.145
132.335 17087 130.717
132.452 17159 130.992
132.57 16935 130.135
132.687 16367 127.934
132.804 16336 127.812
132.922 15982 126.42
133.039 15670 125.18
133.157 15822 125.786
133.274 15727 125.407
133.392 16137 127.031
133.509 16659 129.07
133.627 17008 130.415
133.744 17911 133.832
133.862 19133 138.322
133.979 19618 140.064
134.097 19934 141.188
134.214 20512 143.22
134.332 20612 143.569
134.449 20835 144.343
134.567 20973 144.821
134.684 21142 145.403
134.802 21383 146.229
134.919 21790 147.614
135.037 21710 147.343
135.154 21118 145.32
135.272 20563 143.398
135.389 20212 142.169
135.507 19126 138.297
135.624 18305 135.296
135.742 17796 133.402
135.859 17497 132.276
135.977 17792 133.387
136.094 17753 133.24
136.211 17332 131.651
136.329 17103 130.778
136.446 16723 129.317
136.564 16527 128.557
136.681 16224 127.373
136.798 16136 127.028
136.915 16286 127.617
137.033 16608 128.872
137.15 17014 130.438
137.267 17363 131.769
137.384 18383 135.584
137.502 19147 138.373
137.619 19092 138.174
137.736 19604 140.014
137.853 19240 138.708
137.97 19878 140.989
138.087 19419 139.352
138.204 19805 140.73
138.321 20055 141.616
138.438 19899 141.064
138.555 19643 140.153
138.672 19245 138.726
138.788 18526 136.11
138.905 17779 133.338
139.022 17148 130.95
139.139 16129 127
139.255 15169 123.162
139.372 14253 119.386
139.488 13794 117.448
139.605 13409 115.797
139.721 13090 114.412
139.838 12526 111.92
139.954 11310 106.348
140.071 10192 100.955
140.187 9296 96.4158
140.303 8538 92.4013
140.419 7964 89.2412
140.535 7824 88.4534
140.652 7639 87.4014
140.768 0 1
140.884 0 1
141 0 1
141.115 0 1
141.231 0 1
141.347 0 1
141.463 0 1
141.578 0 1
141.694 0 1
144.104 0 1
144.219 0 1
144.335 0 1
144.45 0 1
144.566 0 1
144.682 0 1
144.798 0 1
144.914 0 1
145.03 0 1
145.146 12088 109.945
145.262 12765 112.982
145.378 12794 113.111
145.494 13059 114.276
145.61 13230 115.022
145.726 13496 116.172
145.842 13716 117.115
145.959 13912 117.949
146.075 14148 118.945
146.192 14546 120.607
146.308 14896 122.049
146.425 15160 123.126
146.541 15917 126.163
146.658 15743 125.471
146.774 16115 126.945
146.891 16027 126.598
147.008 16793 129.588
147.125 16555 128.666
147.241 16746 129.406
147.358 17147 130.947
147.475 17341 131.685
147.592 16949 130.188
147.709 16748 129.414
147.826 16367 127.934
147.943 15793 125.67
148.06 15072 122.768
148.177 14816 121.721
148.294 14735 121.388
148.411 14714 121.301
148.528 14785 121.594
148.645 14570 120.706
148.762 14480 120.333
148.88 14306 119.608
148.997 14416 120.067
149.114 13555 116.426
149.231 13586 116.559
149.349 13829 117.597
149.466 13743 117.231
149.583 14067 118.604
149.701 14141 118.916
149.818 14146 118.937
149.935 14983 122.405
150.053 15141 123.049
150.17 15540 124.66
150.287 15639 125.056
150.405 15736 125.443
150.522 16360 127.906
150.64 16269 127.55
150.757 16532 128.577
150.875 16795 129.596
150.992 16443 128.23
151.11 16581 128.767
151.227 16660 129.074
151.344 16275 127.574
151.462 16099 126.882
151.579 15395 124.077
151.697 15018 122.548
151.814 14540 120.582
151.932 14354 119.808
152.049 14618 120.905
152.167 14692 121.211
152.284 14486 120.358
152.402 14210 119.206
152.519 13902 117.907
152.636 13661 116.88
152.754 13350 115.542
152.871 13246 115.091
152.989 13260 115.152
153.106 13427 115.875
153.223 13312 115.378
153.341 13854 117.703
153.458 13969 118.191
153.575 14237 119.319
153.693 14396 119.983
153.81 14700 121.244
153.927 14932 122.197
154.044 15305 123.713
154.162 15354 123.911
154.279 15593 124.872
154.396 15721 125.383
154.513 15827 125.805
154.63 15970 126.372
154.747 16169 127.157
154.864 15705 125.32
154.981 15565 124.76
155.098 14949 122.266
155.215 14730 121.367
155.332 13878 117.805
155.449 13713 117.103
155.566 13717 117.12
155.683 13587 116.563
155.8 13093 114.425
155.917 12696 112.677
156.033 12414 111.418
156.15 0 1
156.267 0 1
156.383 0 1
156.5 0 1
156.617 0 1
156.733 0 1
156.85 0 1
156.966 0 1
157.082 0 1
157.199 0 1
157.315 0 1
157.431 0 1
157.547 0 1
157.664 0 1
157.78 0 1
157.896 0 1
158.012 0 1
158.128 0 1
158.244 0 1
158.359 0 1
158.475 0 1
158.591 0 1
158.706 0 1
