
6.15755 0 1
6.2731 0 1
6.3887 0 1
6.50437 0 1
6.62009 0 1
6.73587 0 1
6.8517 0 1
6.96759 0 1
7.08353 0 1
7.19952 0 1
7.31557 0 1
7.43166 0 1
7.54781 0 1
7.664 0 1
7.78024 0 1
7.89653 0 1
8.01286 0 1
8.12924 0 1
8.24567 0 1
8.36213 0 1
8.47864 0 1
8.59519 0 1
8.71178 0 1
8.82841 0 1
8.94508 0 1
9.06179 0 1
9.17853 0 1
9.29531 0 1
9.41212 0 1
9.52897 0 1
9.64584 0 1
9.76276 0 1
9.8797 0 1
9.99667 0 1
10.1137 0 1
10.2307 0 1
10.3478 0 1
10.4648 0 1
10.5819 0 1
10.6991 0 1
10.8162 0 1
10.9334 0 1
11.0506 0 1
11.1678 0 1
11.285 0 1
11.4023 0 1
11.5196 0 1
11.6369 0 1
11.7542 0 1
11.8715 0 1
11.9888 0 1
12.1062 0 1
12.2235 0 1
12.3409 0 1
12.4582 0 1
12.5756 0 1
12.693 0 1
12.8104 0 1
12.9278 0 1
13.0452 0 1
13.1626 0 1
13.28 0 1
13.3974 0 1
13.5149 0 1
13.6323 0 1
13.7497 0 1
13.8671 0 1
13.9845 0 1
14.1019 0 1
14.2193 0 1
14.3367 0 1
14.4541 0 1
14.5714 0 1
14.6888 0 1
14.8062 0 1
14.9235 0 1
15.0408 982 31.3369
15.1581 924 30.3974
15.2755 1016 31.8748
15.3927 1025 32.0156
15.51 1030 32.0936
15.6273 938 30.6268
15.7445 955 30.9031
15.8617 956 30.9192
15.9789 943 30.7083
16.0961 927 30.4467
16.2132 868 29.4618
16.3304 759 27.55
16.4475 848 29.1204
16.5646 888 29.7993
16.6816 840 28.9828
16.7986 786 28.0357
16.9156 793 28.1603
17.0326 818 28.6007
17.1496 824 28.7054
17.2665 798 28.2489
17.3833 737 27.1477
17.5002 823 28.688
17.617 774 27.8209
17.7338 786 28.0357
17.8505 792 28.1425
17.9672 795 28.1957
18.0839 794 28.178
18.2005 777 27.8747
18.3171 790 28.1069
18.4337 776 27.8568
18.5502 821 28.6531
18.6666 818 28.6007
18.7831 814 28.5307
18.8994 841 29
19.0158 755 27.4773
19.1321 768 27.7128
19.2483 730 27.0185
19.3645 715 26.7395
19.4806 644 25.3772
19.5967 617 24.8395
19.7128 605 24.5967
19.8288 602 24.5357
19.9447 527 22.9565
20.0606 0 1
20.1764 0 1
20.2922 0 1
20.4079 0 1
20.5236 0 1
20.6392 0 1
20.7548 0 1
20.8702 0 1
23.3078 0 1
23.4233 0 1
23.539 0 1
23.6547 0 1
23.7704 0 1
23.8862 0 1
24.0021 0 1
24.118 0 1
24.234 0 1
24.35 0 1
24.4661 371 19.2614
24.5822 385 19.6214
24.6984 456 21.3542
24.8146 507 22.5167
24.9309 614 24.779
25.0472 643 25.3574
25.1636 754 27.4591
25.28 815 28.5482
25.3965 856 29.2575
25.513 906 30.0998
25.6296 953 30.8707
25.7462 889 29.8161
25.8628 845 29.0689
25.9795 883 29.7153
26.0962 917 30.282
26.213 827 28.7576
26.3298 807 28.4077
26.4466 734 27.0924
26.5635 717 26.7769
26.6804 731 27.037
26.7973 628 25.0599
26.9143 598 24.454
27.0313 631 25.1197
27.1483 690 26.2679
27.2653 769 27.7308
27.3824 754 27.4591
27.4996 723 26.8887
27.6167 719 26.8142
27.7339 763 27.6225
27.8511 777 27.8747
27.9683 800 28.2843
28.0855 712 26.6833
28.2028 779 27.9106
28.3201 749 27.3679
28.4374 792 28.1425
28.5547 799 28.2666
28.6721 842 29.0172
28.7894 801 28.3019
28.9068 747 27.3313
29.0242 787 28.0535
29.1416 754 27.4591
29.259 785 28.0179
29.3764 752 27.4226
29.4939 812 28.4956
29.6113 751 27.4044
29.7288 711 26.6646
29.8463 721 26.8514
29.9638 666 25.807
30.0812 712 26.6833
30.1987 653 25.5539
30.3162 671 25.9037
30.4337 611 24.7184
30.5512 619 24.8797
30.6687 717 26.7769
30.7862 704 26.533
30.9037 687 26.2107
31.0212 737 27.1477
31.1387 712 26.6833
31.2562 783 27.9821
31.3737 762 27.6043
31.4912 780 27.9285
31.6087 750 27.3861
31.7262 754 27.4591
31.8436 727 26.9629
31.9611 709 26.6271
32.0785 771 27.7669
32.1959 747 27.3313
32.3134 724 26.9072
32.4308 691 26.2869
32.5482 701 26.4764
32.6655 644 25.3772
32.7829 649 25.4755
32.9002 659 25.671
33.0176 647 25.4362
33.1349 615 24.7992
33.2522 697 26.4008
33.3694 698 26.4197
33.4867 659 25.671
33.6039 656 25.6125
33.7211 633 25.1595
33.8383 627 25.04
33.9554 617 24.8395
34.0725 592 24.3311
34.1896 655 25.593
34.3067 647 25.4362
34.4237 653 25.5539
34.5407 678 26.0384
34.6577 673 25.9422
34.7746 713 26.7021
34.8915 755 27.4773
35.0084 688 26.2298
35.1252 714 26.7208
35.242 634 25.1794
35.3587 678 26.0384
35.4755 680 26.0768
35.5921 742 27.2397
35.7088 743 27.258
35.8254 694 26.3439
35.9419 723 26.8887
36.0584 753 27.4408
36.1749 765 27.6586
36.2913 683 26.1343
36.4077 640 25.2982
36.524 595 24.3926
36.6403 568 23.8328
36.7565 494 22.2261
36.8727 445 21.095
36.9889 423 20.567
37.1049 422 20.5426
37.221 0 1
37.3369 0 1
37.4529 0 1
37.5687 0 1
37.6845 0 1
37.8003 0 1
37.916 0 1
38.0316 0 1
38.1472 0 1
40.5851 0 1
40.7008 0 1
40.8164 0 1
40.9322 0 1
41.048 0 1
41.1639 0 1
41.2798 0 1
41.3958 0 1
41.5118 0 1
41.6279 0 1
41.744 296 17.2047
41.8602 376 19.3907
41.9765 409 20.2237
42.0928 486 22.0454
42.2091 506 22.4944
42.3255 507 22.5167
42.4419 493 22.2036
42.5584 484 22
42.675 461 21.4709
42.7915 555 23.5584
42.9081 506 22.4944
43.0248 490 22.1359
43.1415 509 22.561
43.2582 502 22.4054
43.375 484 22
43.4918 541 23.2594
43.6087 534 23.1084
43.7256 517 22.7376
43.8425 547 23.388
43.9595 522 22.8473
44.0765 526 22.9347
44.1935 471 21.7025
44.3106 469 21.6564
44.4277 497 22.2935
44.5448 503 22.4277
44.6619 505 22.4722
44.7791 471 21.7025
44.8963 505 22.4722
45.0136 531 23.0434
45.1308 533 23.0868
45.2481 538 23.1948
45.3654 553 23.516
45.4827 530 23.0217
45.6001 548 23.4094
45.7174 514 22.6716
45.8348 488 22.0907
45.9522 553 23.516
46.0697 463 21.5174
46.1871 457 21.3776
46.3046 445 21.095
46.422 442 21.0238
46.5395 470 21.6795
46.657 459 21.4243
46.7745 464 21.5407
46.892 501 22.383
47.0096 490 22.1359
47.1271 519 22.7816
47.2446 521 22.8254
47.3622 577 24.0208
47.4797 519 22.7816
47.5973 500 22.3607
47.7149 491 22.1585
47.8324 496 22.2711
47.95 497 22.2935
48.0675 524 22.891
48.1851 533 23.0868
48.3027 554 23.5372
48.4202 475 21.7945
48.5378 537 23.1733
48.6554 476 21.8174
48.7729 497 22.2935
48.8904 512 22.6274
49.008 536 23.1517
49.1255 529 23
49.243 519 22.7816
49.3605 506 22.4944
49.478 450 21.2132
49.5955 429 20.7123
49.713 447 21.1424
49.8304 423 20.567
49.9479 437 20.9045
50.0653 398 19.9499
50.1827 456 21.3542
50.3001 466 21.587
50.4175 437 20.9045
50.5348 473 21.7486
50.6521 485 22.0227
50.7694 445 21.095
50.8867 518 22.7596
51.004 491 22.1585
51.1212 468 21.6333
51.2384 464 21.5407
51.3556 435 20.8567
51.4727 457 21.3776
51.5899 498 22.3159
51.707 509 22.561
51.824 525 22.9129
51.9411 502 22.4054
52.0581 474 21.7715
52.175 504 22.4499
52.2919 475 21.7945
52.4088 487 22.0681
52.5257 527 22.9565
52.6425 512 22.6274
52.7593 493 22.2036
52.876 453 21.2838
52.9927 506 22.4944
53.1094 435 20.8567
53.226 435 20.8567
53.3426 444 21.0713
53.4591 415 20.3715
53.5756 405 20.1246
53.692 398 19.9499
53.8084 339 18.412
53.9248 357 18.8944
54.0411 271 16.4621
54.1573 273 16.5227
54.2735 0 1
54.3896 0 1
54.5057 0 1
54.6217 0 1
54.7377 0 1
54.8537 0 1
54.9695 0 1
55.0853 0 1
55.2011 0 1
55.3168 0 1
55.4324 0 1
57.824 0 1
57.9396 0 1
58.0553 0 1
58.1711 0 1
58.2869 0 1
58.4028 0 1
58.5187 0 1
58.6347 0 1
58.7508 0 1
58.8669 0 1
58.983 373 19.3132
59.0992 478 21.8632
59.2155 498 22.3159
59.3318 589 24.2693
59.4482 650 25.4951
59.5646 677 26.0192
59.681 706 26.5707
59.7975 728 26.9815
59.9141 768 27.7128
60.0306 694 26.3439
60.1473 749 27.3679
60.2639 719 26.8142
60.3807 741 27.2213
60.4974 758 27.5318
60.6142 768 27.7128
60.731 756 27.4955
60.8479 761 27.5862
60.9648 703 26.5141
61.0818 737 27.1477
61.1987 682 26.1151
61.3158 635 25.1992
61.4328 608 24.6577
61.5499 630 25.0998
61.667 605 24.5967
61.7841 621 24.9199
61.9013 577 24.0208
62.0185 600 24.4949
62.1357 572 23.9165
62.253 596 24.4131
62.3702 571 23.8956
62.4875 542 23.2809
62.6049 561 23.6854
62.7222 613 24.7588
62.8396 577 24.0208
62.9569 600 24.4949
63.0743 609 24.6779
63.1918 579 24.0624
63.3092 573 23.9374
63.4267 576 24
63.5441 567 23.8118
63.6616 528 22.9783
63.7791 542 23.2809
63.8966 562 23.7065
64.0142 584 24.1661
64.1317 603 24.5561
64.2492 567 23.8118
64.3668 565 23.7697
64.4843 560 23.6643
64.6019 515 22.6936
64.7195 509 22.561
64.837 546 23.3666
64.9546 483 21.9773
65.0722 515 22.6936
65.1898 489 22.1133
65.3074 496 22.2711
65.4249 444 21.0713
65.5425 455 21.3307
65.6601 496 22.2711
65.7777 555 23.5584
65.8952 482 21.9545
66.0128 490 22.1359
66.1304 527 22.9565
66.2479 543 23.3024
66.3655 563 23.7276
66.483 517 22.7376
66.6005 547 23.388
66.718 541 23.2594
66.8355 570 23.8747
66.953 547 23.388
67.0705 520 22.8035
67.1879 520 22.8035
67.3054 541 23.2594
67.4228 532 23.0651
67.5402 541 23.2594
67.6576 567 23.8118
67.7749 562 23.7065
67.8923 504 22.4499
68.0096 519 22.7816
68.1269 514 22.6716
68.2442 474 21.7715
68.3614 510 22.5832
68.4787 488 22.0907
68.5958 438 20.9284
68.713 508 22.5389
68.8302 443 21.0476
68.9473 484 22
69.0643 462 21.4942
69.1814 499 22.3383
69.2984 506 22.4944
69.4154 524 22.891
69.5323 539 23.2164
69.6492 495 22.2486
69.7661 465 21.5639
69.8829 474 21.7715
69.9997 490 22.1359
70.1165 538 23.1948
70.2332 494 22.2261
70.3499 458 21.4009
70.4665 486 22.0454
70.5831 461 21.4709
70.6996 392 19.799
70.8161 367 19.1572
70.9326 334 18.2757
71.049 300 17.3205
71.1653 323 17.9722
71.2817 308 17.5499
71.3979 281 16.7631
71.5141 256 16
71.6303 220 14.8324
71.7464 200 14.1421
71.8624 0 1
71.9784 0 1
72.0944 0 1
72.2102 0 1
72.3261 0 1
72.4418 0 1
72.5575 0 1
72.6732 0 1
75.1054 0 1
75.2209 0 1
75.3365 0 1
75.4521 0 1
75.5678 0 1
75.6835 0 1
75.7993 0 1
75.9151 0 1
76.031 0 1
76.147 342 18.4932
76.263 376 19.3907
76.3791 408 20.199
76.4952 422 20.5426
76.6113 418 20.445
76.7276 428 20.6882
76.8438 453 21.2838
76.9601 458 21.4009
77.0765 455 21.3307
77.1929 397 19.9249
77.3093 425 20.6155
77.4258 469 21.6564
77.5423 403 20.0749
77.6589 373 19.3132
77.7755 445 21.095
77.8921 398 19.9499
78.0088 380 19.4936
78.1256 385 19.6214
78.2423 405 20.1246
78.3591 431 20.7605
78.4759 436 20.8806
78.5928 453 21.2838
78.7097 418 20.445
78.8266 401 20.025
78.9436 400 20
79.0606 440 20.9762
79.1776 464 21.5407
79.2946 446 21.1187
79.4117 443 21.0476
79.5288 463 21.5174
79.6459 427 20.664
79.7631 457 21.3776
79.8802 441 21
79.9974 483 21.9773
80.1147 475 21.7945
80.2319 436 20.8806
80.3491 480 21.9089
80.4664 492 22.1811
80.5837 427 20.664
80.701 449 21.1896
80.8183 443 21.0476
80.9357 403 20.0749
81.053 435 20.8567
81.1704 409 20.2237
81.2877 392 19.799
81.4051 447 21.1424
81.5225 384 19.5959
81.6399 390 19.7484
81.7573 359 18.9473
81.8747 406 20.1494
81.9922 406 20.1494
82.1096 455 21.3307
82.227 442 21.0238
82.3444 429 20.7123
82.4619 460 21.4476
82.5793 430 20.7364
82.6967 473 21.7486
82.8142 448 21.166
82.9316 444 21.0713
83.049 479 21.8861
83.1664 423 20.567
83.2838 469 21.6564
83.4012 429 20.7123
83.5186 456 21.3542
83.636 471 21.7025
83.7534 483 21.9773
83.8708 479 21.8861
83.9881 480 21.9089
84.1055 498 22.3159
84.2228 441 21
84.3401 482 21.9545
84.4575 473 21.7486
84.5747 463 21.5174
84.692 415 20.3715
84.8093 433 20.8087
84.9265 367 19.1572
85.0437 405 20.1246
85.1609 425 20.6155
85.2781 383 19.5704
85.3952 415 20.3715
85.5123 426 20.6398
85.6294 452 21.2603
85.7465 492 22.1811
85.8636 429 20.7123
85.9806 462 21.4942
86.0976 449 21.1896
86.2145 437 20.9045
86.3315 438 20.9284
86.4484 476 21.8174
86.5652 494 22.2261
86.682 468 21.6333
86.7988 493 22.2036
86.9156 463 21.5174
87.0323 434 20.8327
87.149 484 22
87.2657 464 21.5407
87.3823 439 20.9523
87.4988 480 21.9089
87.6154 428 20.6882
87.7318 429 20.7123
87.8483 379 19.4679
87.9647 388 19.6977
88.081 362 19.0263
88.1973 332 18.2209
88.3136 270 16.4317
88.4298 257 16.0312
88.546 225 15
88.6621 242 15.5563
88.7781 192 13.8564
88.8942 0 1
89.0101 0 1
89.126 0 1
89.2419 0 1
89.3577 0 1
89.4734 0 1
89.5891 0 1
89.7047 0 1
89.8203 0 1
89.9358 0 1
92.3269 0 1
92.4424 0 1
92.558 0 1
92.6736 0 1
92.7893 0 1
92.905 0 1
93.0208 0 1
93.1366 0 1
93.2525 0 1
93.3685 0 1
93.4845 0 1
93.6005 375 19.3649
93.7167 424 20.5913
93.8328 456 21.3542
93.949 450 21.2132
94.0653 461 21.4709
94.1816 479 21.8861
94.2979 423 20.567
94.4143 424 20.5913
94.5307 435 20.8567
94.6472 434 20.8327
94.7637 477 21.8403
94.8803 455 21.3307
94.9969 506 22.4944
95.1135 458 21.4009
95.2302 502 22.4054
95.3469 460 21.4476
95.4637 478 21.8632
95.5805 470 21.6795
95.6973 454 21.3073
95.8142 458 21.4009
95.9311 503 22.4277
96.048 441 21
96.1649 467 21.6102
96.2819 469 21.6564
96.3989 504 22.4499
96.516 494 22.2261
96.633 565 23.7697
96.7501 506 22.4944
96.8673 496 22.2711
96.9844 510 22.5832
97.1016 478 21.8632
97.2188 443 21.0476
97.336 484 22
97.4532 460 21.4476
97.5704 465 21.5639
97.6877 478 21.8632
97.805 458 21.4009
97.9223 433 20.8087
98.0396 424 20.5913
98.1569 450 21.2132
98.2743 426 20.6398
98.3916 474 21.7715
98.509 473 21.7486
98.6264 477 21.8403
98.7438 497 22.2935
98.8612 520 22.8035
98.9786 551 23.4734
99.096 481 21.9317
99.2134 519 22.7816
99.3308 527 22.9565
99.4482 507 22.5167
99.5656 483 21.9773
99.6831 473 21.7486
99.8005 547 23.388
99.9179 490 22.1359
100.035 530 23.0217
100.153 547 23.388
100.27 584 24.1661
100.388 553 23.516
100.505 535 23.1301
100.622 565 23.7697
100.74 542 23.2809
100.857 557 23.6008
100.975 576 24
101.092 548 23.4094
101.209 524 22.891
101.327 457 21.3776
101.444 515 22.6936
101.561 505 22.4722
101.679 469 21.6564
101.796 545 23.3452
101.913 562 23.7065
102.03 551 23.4734
102.148 575 23.9792
102.265 613 24.7588
102.382 599 24.4745
102.499 567 23.8118
102.616 614 24.779
102.733 593 24.3516
102.851 638 25.2587
102.968 686 26.1916
103.085 599 24.4745
103.202 607 24.6374
103.319 582 24.1247
103.436 608 24.6577
103.552 603 24.5561
103.669 688 26.2298
103.786 611 24.7184
103.903 662 25.7294
104.02 622 24.9399
104.137 622 24.9399
104.253 622 24.9399
104.37 584 24.1661
104.487 585 24.1868
104.603 566 23.7908
104.72 572 23.9165
104.836 567 23.8118
104.953 537 23.1733
105.069 486 22.0454
105.186 458 21.4009
105.302 490 22.1359
105.418 417 20.4206
105.535 426 20.6398
105.651 417 20.4206
105.767 356 18.868
105.883 312 17.6635
105.999 336 18.3303
106.115 0 1
106.231 0 1
106.347 0 1
106.463 0 1
106.579 0 1
106.694 0 1
106.81 0 1
106.926 0 1
107.041 0 1
107.157 0 1
109.576 0 1
109.692 0 1
109.807 0 1
109.923 0 1
110.039 0 1
110.155 0 1
110.27 0 1
110.386 0 1
110.502 0 1
110.618 289 17
110.735 403 20.0749
110.851 421 20.5183
110.967 467 21.6102
111.083 535 23.1301
111.199 506 22.4944
111.316 550 23.4521
111.432 631 25.1197
111.549 585 24.1868
111.665 545 23.3452
111.782 560 23.6643
111.898 522 22.8473
112.015 534 23.1084
112.132 582 24.1247
112.248 579 24.0624
112.365 565 23.7697
112.482 574 23.9583
112.599 559 23.6432
112.716 575 23.9792
112.832 546 23.3666
112.949 484 22
113.066 488 22.0907
113.183 511 22.6053
113.3 516 22.7156
113.417 520 22.8035
113.534 460 21.4476
113.652 468 21.6333
113.769 442 21.0238
113.886 412 20.2978
114.003 428 20.6882
114.12 424 20.5913
114.238 468 21.6333
114.355 439 20.9523
114.472 487 22.0681
114.589 507 22.5167
114.707 505 22.4722
114.824 491 22.1585
114.942 463 21.5174
115.059 462 21.4942
115.176 491 22.1585
115.294 459 21.4243
115.411 434 20.8327
115.529 429 20.7123
115.646 450 21.2132
115.764 467 21.6102
115.881 438 20.9284
115.999 443 21.0476
116.116 467 21.6102
116.234 472 21.7256
116.351 441 21
116.469 450 21.2132
116.586 407 20.1742
116.704 416 20.3961
116.821 476 21.8174
116.939 428 20.6882
117.056 417 20.4206
117.174 399 19.975
117.291 403 20.0749
117.409 371 19.2614
117.526 325 18.0278
117.644 345 18.5742
117.761 436 20.8806
117.879 454 21.3073
117.996 441 21
118.114 445 21.095
118.231 421 20.5183
118.349 432 20.7846
118.466 447 21.1424
118.584 458 21.4009
118.701 457 21.3776
118.819 454 21.3073
118.936 442 21.0238
119.053 415 20.3715
119.171 411 20.2731
119.288 462 21.4942
119.405 433 20.8087
119.523 432 20.7846
119.64 435 20.8567
119.757 443 21.0476
119.875 419 20.4695
119.992 431 20.7605
120.109 418 20.445
120.226 408 20.199
120.343 406 20.1494
120.46 433 20.8087
120.578 453 21.2838
120.695 417 20.4206
120.812 377 19.4165
120.929 379 19.4679
121.046 380 19.4936
121.163 315 17.7482
121.279 335 18.303
121.396 340 18.4391
121.513 384 19.5959
121.63 381 19.5192
121.747 381 19.5192
121.863 383 19.5704
121.98 371 19.2614
122.097 369 19.2094
122.213 354 18.8149
122.33 367 19.1572
122.446 363 19.0526
122.563 288 16.9706
122.679 261 16.1555
122.795 245 15.6525
122.912 248 15.748
123.028 237 15.3948
123.144 243 15.5885
123.26 233 15.2643
123.377 0 1
123.493 0 1
123.609 0 1
123.725 0 1
123.84 0 1
123.956 0 1
124.072 0 1
124.188 0 1
124.303 0 1
124.419 0 1
126.852 0 1
126.968 0 1
127.083 0 1
127.199 0 1
127.315 0 1
127.431 0 1
127.547 0 1
127.663 0 1
127.779 0 1
127.895 0 1
128.011 0 1
128.127 0 1
128.243 0 1
128.359 437 20.9045
128.476 466 21.587
128.592 491 22.1585
128.708 501 22.383
128.825 478 21.8632
128.941 495 22.2486
129.058 439 20.9523
129.174 490 22.1359
129.291 497 22.2935
129.408 514 22.6716
129.524 471 21.7025
129.641 458 21.4009
129.758 472 21.7256
129.875 477 21.8403
129.992 469 21.6564
130.108 492 22.1811
130.225 456 21.3542
130.342 431 20.7605
130.459 447 21.1424
130.576 471 21.7025
130.693 513 22.6495
130.81 615 24.7992
130.928 539 23.2164
131.045 590 24.2899
131.162 569 23.8537
131.279 614 24.779
131.396 666 25.807
131.513 681 26.096
131.631 698 26.4197
131.748 677 26.0192
131.865 697 26.4008
131.983 789 28.0891
132.1 786 28.0357
132.217 821 28.6531
132.335 903 30.05
132.452 907 30.1164
132.57 994 31.5278
132.687 1003 31.6702
132.804 1016 31.8748
132.922 1118 33.4365
133.039 1087 32.9697
133.157 1076 32.8024
133.274 1137 33.7194
133.392 1192 34.5254
133.509 1159 34.0441
133.627 1129 33.6006
133.744 1059 32.5423
133.862 1027 32.0468
133.979 1072 32.7414
134.097 1017 31.8904
134.214 1178 34.322
134.332 1202 34.6699
134.449 1077 32.8177
134.567 1071 32.7261
134.684 1085 32.9393
134.802 1138 33.7343
134.919 1161 34.0735
135.037 1099 33.1512
135.154 1115 33.3916
135.272 1038 32.218
135.389 947 30.7734
135.507 999 31.607
135.624 1029 32.078
135.742 1115 33.3916
135.859 1145 33.8378
135.977 1134 33.6749
136.094 1064 32.619
136.211 1121 33.4813
136.329 1049 32.3883
136.446 1085 32.9393
136.564 1085 32.9393
136.681 1087 32.9697
136.798 1112 33.3467
136.915 1147 33.8674
137.033 1046 32.3419
137.15 1106 33.2566
137.267 1130 33.6155
137.384 1079 32.8481
137.502 1122 33.4963
137.619 1104 33.2265
137.736 1155 33.9853
137.853 1053 32.45
137.97 1219 34.9142
138.087 1178 34.322
138.204 1167 34.1614
138.321 1179 34.3366
138.438 1239 35.1994
138.555 1238 35.1852
138.672 1183 34.3948
138.788 1251 35.3695
138.905 1233 35.1141
139.022 1130 33.6155
139.139 1224 34.9857
139.255 1228 35.0428
139.372 1207 34.7419
139.488 1158 34.0294
139.605 1098 33.1361
139.721 1046 32.3419
139.838 990 31.4643
139.954 914 30.2324
140.071 824 28.7054
140.187 856 29.2575
140.303 783 27.9821
140.419 761 27.5862
140.535 706 26.5707
140.652 691 26.2869
140.768 0 1
140.884 0 1
141 0 1
141.115 0 1
141.231 0 1
141.347 0 1
141.463 0 1
141.578 0 1
141.694 0 1
144.104 0 1
144.219 0 1
144.335 0 1
144.45 0 1
144.566 0 1
144.682 0 1
144.798 0 1
144.914 0 1
145.03 0 1
145.146 1100 33.1662
145.262 1333 36.5103
145.378 1461 38.223
145.494 1540 39.2428
145.61 1707 41.3159
145.726 1707 41.3159
145.842 1852 43.0349
145.959 2040 45.1664
146.075 1955 44.2154
146.192 2075 45.5522
146.308 1993 44.643
146.425 1836 42.8486
146.541 1862 43.1509
146.658 1851 43.0232
146.774 2185 46.744
146.891 2489 49.8899
147.008 2964 54.4426
147.125 3088 55.5698
147.241 3568 59.7327
147.358 3777 61.4573
147.475 4190 64.7302
147.592 4860 69.7137
147.709 5906 76.8505
147.826 7354 85.7555
147.943 9089 95.3362
148.06 10648 103.189
148.177 12212 110.508
148.294 13809 117.512
148.411 15157 123.114
148.528 16415 128.121
148.645 18469 135.901
148.762 20334 142.597
148.88 22099 148.657
148.997 24054 155.094
149.114 24782 157.423
149.231 26641 163.221
149.349 28522 168.885
149.466 29600 172.047
149.583 31081 176.298
149.701 32141 179.279
149.818 30433 174.451
149.935 25589 159.966
150.053 19108 138.232
150.17 15116 122.947
150.287 17541 132.442
150.405 27122 164.688
150.522 36677 191.512
150.64 41582 203.917
150.757 43613 208.837
150.875 44883 211.856
150.992 45082 212.325
151.11 45208 212.622
151.227 45220 212.65
151.344 46398 215.402
151.462 48293 219.757
151.579 49237 221.894
151.697 49204 221.82
151.814 49599 222.708
151.932 49799 223.157
152.049 50376 224.446
152.167 50942 225.703
152.284 51593 227.141
152.402 50955 225.732
152.519 51298 226.491
152.636 51538 227.02
152.754 51044 225.929
152.871 51135 226.13
152.989 51330 226.561
153.106 51678 227.328
153.223 51400 226.716
153.341 51641 227.247
153.458 50483 224.684
153.575 49186 221.779
153.693 49147 221.691
153.81 53476 231.249
153.927 60849 246.676
154.044 67190 259.21
154.162 73129 270.424
154.279 76256 276.145
154.396 79554 282.053
154.513 82390 287.037
154.63 85905 293.096
154.747 88687 297.804
154.864 91810 303.002
154.981 93643 306.011
155.098 95088 308.363
155.215 95166 308.49
155.332 93033 305.013
155.449 91356 302.252
155.566 88738 297.889
155.683 84616 290.888
155.8 80808 284.267
155.917 75908 275.514
156.033 71868 268.082
156.15 0 1
156.267 0 1
156.383 0 1
156.5 0 1
156.617 0 1
156.733 0 1
156.85 0 1
156.966 0 1
157.082 0 1
157.199 0 1
157.315 0 1
157.431 0 1
157.547 0 1
157.664 0 1
157.78 0 1
157.896 0 1
158.012 0 1
158.128 0 1
158.244 0 1
158.359 0 1
158.475 0 1
158.591 0 1
158.706 0 1
