
6.15755 0 1
6.2731 0 1
6.3887 0 1
6.50437 0 1
6.62009 0 1
6.73587 0 1
6.8517 0 1
6.96759 0 1
7.08353 0 1
7.19952 0 1
7.31557 0 1
7.43166 0 1
7.54781 0 1
7.664 0 1
7.78024 0 1
7.89653 0 1
8.01286 0 1
8.12924 0 1
8.24567 0 1
8.36213 0 1
8.47864 0 1
8.59519 0 1
8.71178 0 1
8.82841 0 1
8.94508 0 1
9.06179 0 1
9.17853 0 1
9.29531 0 1
9.41212 0 1
9.52897 0 1
9.64584 0 1
9.76276 0 1
9.8797 0 1
9.99667 0 1
10.1137 0 1
10.2307 0 1
10.3478 0 1
10.4648 0 1
10.5819 0 1
10.6991 0 1
10.8162 0 1
10.9334 0 1
11.0506 0 1
11.1678 0 1
11.285 0 1
11.4023 0 1
11.5196 0 1
11.6369 0 1
11.7542 0 1
11.8715 0 1
11.9888 0 1
12.1062 0 1
12.2235 0 1
12.3409 0 1
12.4582 0 1
12.5756 0 1
12.693 0 1
12.8104 0 1
12.9278 0 1
13.0452 0 1
13.1626 0 1
13.28 0 1
13.3974 0 1
13.5149 0 1
13.6323 0 1
13.7497 0 1
13.8671 0 1
13.9845 0 1
14.1019 0 1
14.2193 0 1
14.3367 0 1
14.4541 0 1
14.5714 0 1
14.6888 0 1
14.8062 0 1
14.9235 0 1
15.0408 875 29.5804
15.1581 938 30.6268
15.2755 932 30.5287
15.3927 1031 32.1092
15.51 1044 32.311
15.6273 951 30.8383
15.7445 973 31.1929
15.8617 898 29.9666
15.9789 927 30.4467
16.0961 963 31.0322
16.2132 918 30.2985
16.3304 916 30.2655
16.4475 990 31.4643
16.5646 1034 32.1559
16.6816 1026 32.0312
16.7986 1106 33.2566
16.9156 1101 33.1813
17.0326 1136 33.7046
17.1496 1138 33.7343
17.2665 1147 33.8674
17.3833 1073 32.7567
17.5002 1060 32.5576
17.617 962 31.0161
17.7338 975 31.225
17.8505 964 31.0483
17.9672 934 30.5614
18.0839 964 31.0483
18.2005 984 31.3688
18.3171 981 31.3209
18.4337 985 31.3847
18.5502 1072 32.7414
18.6666 1065 32.6343
18.7831 1066 32.6497
18.8994 1091 33.0303
19.0158 1075 32.7872
19.1321 1013 31.8277
19.2483 1024 32
19.3645 941 30.6757
19.4806 858 29.2916
19.5967 852 29.189
19.7128 784 28
19.8288 719 26.8142
19.9447 627 25.04
20.0606 0 1
20.1764 0 1
20.2922 0 1
20.4079 0 1
20.5236 0 1
20.6392 0 1
20.7548 0 1
20.8702 0 1
23.3078 0 1
23.4233 0 1
23.539 0 1
23.6547 0 1
23.7704 0 1
23.8862 0 1
24.0021 0 1
24.118 0 1
24.234 0 1
24.35 0 1
24.4661 404 20.0998
24.5822 491 22.1585
24.6984 576 24
24.8146 652 25.5343
24.9309 693 26.3249
25.0472 737 27.1477
25.1636 801 28.3019
25.28 886 29.7658
25.3965 949 30.8058
25.513 1058 32.5269
25.6296 1029 32.078
25.7462 1054 32.4654
25.8628 1140 33.7639
25.9795 1084 32.9242
26.0962 1148 33.8821
26.213 1246 35.2987
26.3298 1031 32.1092
26.4466 984 31.3688
26.5635 1001 31.6386
26.6804 1030 32.0936
26.7973 1000 31.6228
26.9143 1031 32.1092
27.0313 1030 32.0936
27.1483 1077 32.8177
27.2653 1023 31.9844
27.3824 1046 32.3419
27.4996 1138 33.7343
27.6167 1064 32.619
27.7339 1092 33.0454
27.8511 953 30.8707
27.9683 1038 32.218
28.0855 1017 31.8904
28.2028 961 31
28.3201 926 30.4302
28.4374 889 29.8161
28.5547 906 30.0998
28.6721 928 30.4631
28.7894 980 31.305
28.9068 977 31.257
29.0242 1047 32.3574
29.1416 1135 33.6898
29.259 1143 33.8083
29.3764 1053 32.45
29.4939 1099 33.1512
29.6113 1135 33.6898
29.7288 1068 32.6803
29.8463 1013 31.8277
29.9638 943 30.7083
30.0812 909 30.1496
30.1987 903 30.05
30.3162 970 31.1448
30.4337 951 30.8383
30.5512 946 30.7571
30.6687 1020 31.9374
30.7862 1014 31.8434
30.9037 1015 31.8591
31.0212 1051 32.4191
31.1387 1068 32.6803
31.2562 1024 32
31.3737 1005 31.7017
31.4912 1027 32.0468
31.6087 955 30.9031
31.7262 919 30.315
31.8436 930 30.4959
31.9611 856 29.2575
32.0785 860 29.3258
32.1959 923 30.3809
32.3134 917 30.282
32.4308 998 31.5911
32.5482 1003 31.6702
32.6655 1047 32.3574
32.7829 1033 32.1403
32.9002 1050 32.4037
33.0176 1037 32.2025
33.1349 1132 33.6452
33.2522 1052 32.4345
33.3694 969 31.1288
33.4867 955 30.9031
33.6039 915 30.249
33.7211 915 30.249
33.8383 865 29.4109
33.9554 881 29.6816
34.0725 911 30.1828
34.1896 923 30.3809
34.3067 960 30.9839
34.4237 983 31.3528
34.5407 1030 32.0936
34.6577 976 31.241
34.7746 1038 32.218
34.8915 985 31.3847
35.0084 973 31.1929
35.1252 962 31.0161
35.242 929 30.4795
35.3587 878 29.6311
35.4755 903 30.05
35.5921 856 29.2575
35.7088 843 29.0345
35.8254 831 28.8271
35.9419 858 29.2916
36.0584 889 29.8161
36.1749 904 30.0666
36.2913 934 30.5614
36.4077 917 30.282
36.524 941 30.6757
36.6403 891 29.8496
36.7565 819 28.6182
36.8727 824 28.7054
36.9889 758 27.5318
37.1049 651 25.5147
37.221 0 1
37.3369 0 1
37.4529 0 1
37.5687 0 1
37.6845 0 1
37.8003 0 1
37.916 0 1
38.0316 0 1
38.1472 0 1
40.5851 0 1
40.7008 0 1
40.8164 0 1
40.9322 0 1
41.048 0 1
41.1639 0 1
41.2798 0 1
41.3958 0 1
41.5118 0 1
41.6279 0 1
41.744 462 21.4942
41.8602 510 22.5832
41.9765 579 24.0624
42.0928 621 24.9199
42.2091 582 24.1247
42.3255 566 23.7908
42.4419 577 24.0208
42.5584 563 23.7276
42.675 614 24.779
42.7915 692 26.3059
42.9081 731 27.037
43.0248 735 27.1109
43.1415 852 29.189
43.2582 797 28.2312
43.375 857 29.2746
43.4918 854 29.2233
43.6087 871 29.5127
43.7256 815 28.5482
43.8425 797 28.2312
43.9595 798 28.2489
44.0765 743 27.258
44.1935 787 28.0535
44.3106 753 27.4408
44.4277 683 26.1343
44.5448 640 25.2982
44.6619 671 25.9037
44.7791 760 27.5681
44.8963 711 26.6646
45.0136 804 28.3549
45.1308 863 29.3769
45.2481 803 28.3373
45.3654 830 28.8097
45.4827 849 29.1376
45.6001 808 28.4253
45.7174 823 28.688
45.8348 797 28.2312
45.9522 757 27.5136
46.0697 659 25.671
46.1871 694 26.3439
46.3046 717 26.7769
46.422 739 27.1846
46.5395 782 27.9643
46.657 768 27.7128
46.7745 824 28.7054
46.892 805 28.3725
47.0096 806 28.3901
47.1271 832 28.8444
47.2446 868 29.4618
47.3622 852 29.189
47.4797 802 28.3196
47.5973 802 28.3196
47.7149 764 27.6405
47.8324 762 27.6043
47.95 687 26.2107
48.0675 677 26.0192
48.1851 685 26.1725
48.3027 662 25.7294
48.4202 710 26.6458
48.5378 801 28.3019
48.6554 824 28.7054
48.7729 866 29.4279
48.8904 824 28.7054
49.008 876 29.5973
49.1255 779 27.9106
49.243 823 28.688
49.3605 755 27.4773
49.478 676 26
49.5955 687 26.2107
49.713 646 25.4165
49.8304 684 26.1534
49.9479 682 26.1151
50.0653 798 28.2489
50.1827 786 28.0357
50.3001 819 28.6182
50.4175 806 28.3901
50.5348 894 29.8998
50.6521 821 28.6531
50.7694 806 28.3901
50.8867 788 28.0713
51.004 789 28.0891
51.1212 823 28.688
51.2384 791 28.1247
51.3556 803 28.3373
51.4727 773 27.8029
51.5899 674 25.9615
51.707 708 26.6083
51.824 738 27.1662
51.9411 737 27.1477
52.0581 810 28.4605
52.175 849 29.1376
52.2919 836 28.9137
52.4088 874 29.5635
52.5257 838 28.9482
52.6425 862 29.3598
52.7593 832 28.8444
52.876 854 29.2233
52.9927 696 26.3818
53.1094 733 27.074
53.226 680 26.0768
53.3426 620 24.8998
53.4591 596 24.4131
53.5756 718 26.7955
53.692 695 26.3629
53.8084 663 25.7488
53.9248 643 25.3574
54.0411 604 24.5764
54.1573 592 24.3311
54.2735 0 1
54.3896 0 1
54.5057 0 1
54.6217 0 1
54.7377 0 1
54.8537 0 1
54.9695 0 1
55.0853 0 1
55.2011 0 1
55.3168 0 1
55.4324 0 1
57.824 0 1
57.9396 0 1
58.0553 0 1
58.1711 0 1
58.2869 0 1
58.4028 0 1
58.5187 0 1
58.6347 0 1
58.7508 0 1
58.8669 0 1
58.983 585 24.1868
59.0992 661 25.7099
59.2155 744 27.2764
59.3318 811 28.4781
59.4482 846 29.0861
59.5646 875 29.5804
59.681 939 30.6431
59.7975 945 30.7409
59.9141 984 31.3688
60.0306 975 31.225
60.1473 988 31.4325
60.2639 909 30.1496
60.3807 868 29.4618
60.4974 848 29.1204
60.6142 949 30.8058
60.731 967 31.0966
60.8479 1036 32.187
60.9648 1009 31.7648
61.0818 1085 32.9393
61.1987 1097 33.121
61.3158 1070 32.7109
61.4328 1032 32.1248
61.5499 1035 32.1714
61.667 935 30.5778
61.7841 908 30.133
61.9013 905 30.0832
62.0185 839 28.9655
62.1357 887 29.7825
62.253 970 31.1448
62.3702 963 31.0322
62.4875 1062 32.5883
62.6049 1024 32
62.7222 1135 33.6898
62.8396 1054 32.4654
62.9569 1106 33.2566
63.0743 1120 33.4664
63.1918 1023 31.9844
63.3092 1063 32.6037
63.4267 1049 32.3883
63.5441 1007 31.7333
63.6616 1000 31.6228
63.7791 912 30.1993
63.8966 842 29.0172
64.0142 859 29.3087
64.1317 890 29.8329
64.2492 943 30.7083
64.3668 975 31.225
64.4843 1046 32.3419
64.6019 1063 32.6037
64.7195 1075 32.7872
64.837 1095 33.0908
64.9546 1013 31.8277
65.0722 948 30.7896
65.1898 958 30.9516
65.3074 936 30.5941
65.4249 850 29.1548
65.5425 787 28.0535
65.6601 848 29.1204
65.7777 873 29.5466
65.8952 959 30.9677
66.0128 1007 31.7333
66.1304 1040 32.249
66.2479 1088 32.9848
66.3655 1101 33.1813
66.483 1126 33.5559
66.6005 1054 32.4654
66.718 1085 32.9393
66.8355 1051 32.4191
66.953 1042 32.28
67.0705 1012 31.8119
67.1879 963 31.0322
67.3054 935 30.5778
67.4228 889 29.8161
67.5402 815 28.5482
67.6576 869 29.4788
67.7749 947 30.7734
67.8923 922 30.3645
68.0096 982 31.3369
68.1269 1020 31.9374
68.2442 1128 33.5857
68.3614 1073 32.7567
68.4787 1099 33.1512
68.5958 1162 34.0881
68.713 1119 33.4515
68.8302 1077 32.8177
68.9473 966 31.0805
69.0643 917 30.282
69.1814 890 29.8329
69.2984 932 30.5287
69.4154 1029 32.078
69.5323 1094 33.0757
69.6492 1113 33.3617
69.7661 1109 33.3017
69.8829 1155 33.9853
69.9997 1188 34.4674
70.1165 1155 33.9853
70.2332 1109 33.3017
70.3499 1137 33.7194
70.4665 1095 33.0908
70.5831 996 31.5595
70.6996 1014 31.8434
70.8161 912 30.1993
70.9326 875 29.5804
71.049 718 26.7955
71.1653 679 26.0576
71.2817 571 23.8956
71.3979 478 21.8632
71.5141 467 21.6102
71.6303 451 21.2368
71.7464 427 20.664
71.8624 0 1
71.9784 0 1
72.0944 0 1
72.2102 0 1
72.3261 0 1
72.4418 0 1
72.5575 0 1
72.6732 0 1
75.1054 0 1
75.2209 0 1
75.3365 0 1
75.4521 0 1
75.5678 0 1
75.6835 0 1
75.7993 0 1
75.9151 0 1
76.031 0 1
76.147 754 27.4591
76.263 819 28.6182
76.3791 872 29.5296
76.4952 762 27.6043
76.6113 810 28.4605
76.7276 808 28.4253
76.8438 865 29.4109
76.9601 994 31.5278
77.0765 1026 32.0312
77.1929 1000 31.6228
77.3093 1050 32.4037
77.4258 1067 32.665
77.5423 1007 31.7333
77.6589 1010 31.7805
77.7755 928 30.4631
77.8921 857 29.2746
78.0088 786 28.0357
78.1256 747 27.3313
78.2423 647 25.4362
78.3591 730 27.0185
78.4759 808 28.4253
78.5928 848 29.1204
78.7097 915 30.249
78.8266 921 30.348
78.9436 950 30.8221
79.0606 944 30.7246
79.1776 974 31.209
79.2946 949 30.8058
79.4117 950 30.8221
79.5288 943 30.7083
79.6459 946 30.7571
79.7631 913 30.2159
79.8802 885 29.7489
79.9974 832 28.8444
80.1147 774 27.8209
80.2319 755 27.4773
80.3491 715 26.7395
80.4664 714 26.7208
80.5837 812 28.4956
80.701 966 31.0805
80.8183 941 30.6757
80.9357 933 30.545
81.053 941 30.6757
81.1704 949 30.8058
81.2877 977 31.257
81.4051 934 30.5614
81.5225 813 28.5132
81.6399 789 28.0891
81.7573 756 27.4955
81.8747 715 26.7395
81.9922 692 26.3059
82.1096 829 28.7924
82.227 826 28.7402
82.3444 884 29.7321
82.4619 889 29.8161
82.5793 979 31.289
82.6967 979 31.289
82.8142 987 31.4166
82.9316 983 31.3528
83.049 904 30.0666
83.1664 975 31.225
83.2838 912 30.1993
83.4012 937 30.6105
83.5186 922 30.3645
83.636 876 29.5973
83.7534 819 28.6182
83.8708 793 28.1603
83.9881 722 26.8701
84.1055 754 27.4591
84.2228 810 28.4605
84.3401 906 30.0998
84.4575 895 29.9166
84.5747 942 30.692
84.692 1031 32.1092
84.8093 990 31.4643
84.9265 936 30.5941
85.0437 939 30.6431
85.1609 907 30.1164
85.2781 827 28.7576
85.3952 709 26.6271
85.5123 740 27.2029
85.6294 681 26.096
85.7465 795 28.1957
85.8636 871 29.5127
85.9806 865 29.4109
86.0976 930 30.4959
86.2145 950 30.8221
86.3315 984 31.3688
86.4484 974 31.209
86.5652 1018 31.9061
86.682 970 31.1448
86.7988 991 31.4802
86.9156 970 31.1448
87.0323 978 31.273
87.149 917 30.282
87.2657 853 29.2062
87.3823 778 27.8927
87.4988 721 26.8514
87.6154 640 25.2982
87.7318 665 25.7876
87.8483 706 26.5707
87.9647 748 27.3496
88.081 753 27.4408
88.1973 787 28.0535
88.3136 696 26.3818
88.4298 697 26.4008
88.546 632 25.1396
88.6621 558 23.622
88.7781 460 21.4476
88.8942 0 1
89.0101 0 1
89.126 0 1
89.2419 0 1
89.3577 0 1
89.4734 0 1
89.5891 0 1
89.7047 0 1
89.8203 0 1
89.9358 0 1
92.3269 0 1
92.4424 0 1
92.558 0 1
92.6736 0 1
92.7893 0 1
92.905 0 1
93.0208 0 1
93.1366 0 1
93.2525 0 1
93.3685 0 1
93.4845 0 1
93.6005 686 26.1916
93.7167 697 26.4008
93.8328 747 27.3313
93.949 876 29.5973
94.0653 815 28.5482
94.1816 859 29.3087
94.2979 807 28.4077
94.4143 799 28.2666
94.5307 699 26.4386
94.6472 741 27.2213
94.7637 721 26.8514
94.8803 775 27.8388
94.9969 849 29.1376
95.1135 843 29.0345
95.2302 863 29.3769
95.3469 970 31.1448
95.4637 926 30.4302
95.5805 942 30.692
95.6973 944 30.7246
95.8142 1012 31.8119
95.9311 974 31.209
96.048 965 31.0644
96.1649 925 30.4138
96.2819 922 30.3645
96.3989 870 29.4958
96.516 856 29.2575
96.633 762 27.6043
96.7501 732 27.0555
96.8673 725 26.9258
96.9844 767 27.6948
97.1016 811 28.4781
97.2188 864 29.3939
97.336 999 31.607
97.4532 996 31.5595
97.5704 999 31.607
97.6877 992 31.496
97.805 990 31.4643
97.9223 913 30.2159
98.0396 831 28.8271
98.1569 722 26.8701
98.2743 716 26.7582
98.3916 683 26.1343
98.509 750 27.3861
98.6264 848 29.1204
98.7438 927 30.4467
98.8612 981 31.3209
98.9786 974 31.209
99.096 963 31.0322
99.2134 1076 32.8024
99.3308 1006 31.7175
99.4482 1051 32.4191
99.5656 993 31.5119
99.6831 1021 31.9531
99.8005 1015 31.8591
99.9179 1023 31.9844
100.035 915 30.249
100.153 944 30.7246
100.27 821 28.6531
100.388 799 28.2666
100.505 816 28.5657
100.622 918 30.2985
100.74 942 30.692
100.857 991 31.4802
100.975 958 30.9516
101.092 1100 33.1662
101.209 1122 33.4963
101.327 1063 32.6037
101.444 1026 32.0312
101.561 887 29.7825
101.679 865 29.4109
101.796 811 28.4781
101.913 759 27.55
102.03 826 28.7402
102.148 854 29.2233
102.265 849 29.1376
102.382 971 31.1609
102.499 968 31.1127
102.616 990 31.4643
102.733 1005 31.7017
102.851 1063 32.6037
102.968 1049 32.3883
103.085 1070 32.7109
103.202 1062 32.5883
103.319 1019 31.9218
103.436 995 31.5436
103.552 1022 31.9687
103.669 928 30.4631
103.786 875 29.5804
103.903 817 28.5832
104.02 875 29.5804
104.137 869 29.4788
104.253 960 30.9839
104.37 1078 32.8329
104.487 1112 33.3467
104.603 1111 33.3317
104.72 1139 33.7491
104.836 1022 31.9687
104.953 938 30.6268
105.069 841 29
105.186 727 26.9629
105.302 732 27.0555
105.418 664 25.7682
105.535 684 26.1534
105.651 703 26.5141
105.767 703 26.5141
105.883 700 26.4575
105.999 696 26.3818
106.115 0 1
106.231 0 1
106.347 0 1
106.463 0 1
106.579 0 1
106.694 0 1
106.81 0 1
106.926 0 1
107.041 0 1
107.157 0 1
109.576 0 1
109.692 0 1
109.807 0 1
109.923 0 1
110.039 0 1
110.155 0 1
110.27 0 1
110.386 0 1
110.502 0 1
110.618 355 18.8414
110.735 534 23.1084
110.851 679 26.0576
110.967 700 26.4575
111.083 761 27.5862
111.199 892 29.8664
111.316 945 30.7409
111.432 946 30.7571
111.549 959 30.9677
111.665 1043 32.2955
111.782 977 31.257
111.898 955 30.9031
112.015 967 31.0966
112.132 906 30.0998
112.248 803 28.3373
112.365 811 28.4781
112.482 781 27.9464
112.599 792 28.1425
112.716 889 29.8161
112.832 929 30.4795
112.949 934 30.5614
113.066 996 31.5595
113.183 915 30.249
113.3 1003 31.6702
113.417 1011 31.7962
113.534 896 29.9333
113.652 832 28.8444
113.769 764 27.6405
113.886 731 27.037
114.003 664 25.7682
114.12 704 26.533
114.238 789 28.0891
114.355 876 29.5973
114.472 900 30
114.589 920 30.3315
114.707 954 30.8869
114.824 1002 31.6544
114.942 994 31.5278
115.059 983 31.3528
115.176 996 31.5595
115.294 944 30.7246
115.411 964 31.0483
115.529 951 30.8383
115.646 886 29.7658
115.764 877 29.6142
115.881 817 28.5832
115.999 787 28.0535
116.116 786 28.0357
116.234 825 28.7228
116.351 912 30.1993
116.469 917 30.282
116.586 951 30.8383
116.704 960 30.9839
116.821 1001 31.6386
116.939 964 31.0483
117.056 971 31.1609
117.174 845 29.0689
117.291 818 28.6007
117.409 807 28.4077
117.526 726 26.9444
117.644 694 26.3439
117.761 755 27.4773
117.879 825 28.7228
117.996 877 29.6142
118.114 909 30.1496
118.231 950 30.8221
118.349 935 30.5778
118.466 997 31.5753
118.584 979 31.289
118.701 995 31.5436
118.819 1005 31.7017
118.936 980 31.305
119.053 900 30
119.171 908 30.133
119.288 904 30.0666
119.405 806 28.3901
119.523 757 27.5136
119.64 839 28.9655
119.757 803 28.3373
119.875 854 29.2233
119.992 861 29.3428
120.109 922 30.3645
120.226 940 30.6594
120.343 929 30.4795
120.46 937 30.6105
120.578 945 30.7409
120.695 926 30.4302
120.812 867 29.4449
120.929 821 28.6531
121.046 780 27.9285
121.163 779 27.9106
121.279 723 26.8887
121.396 733 27.074
121.513 738 27.1662
121.63 801 28.3019
121.747 764 27.6405
121.863 784 28
121.98 770 27.7489
122.097 849 29.1376
122.213 793 28.1603
122.33 724 26.9072
122.446 737 27.1477
122.563 706 26.5707
122.679 696 26.3818
122.795 666 25.807
122.912 574 23.9583
123.028 513 22.6495
123.144 441 21
123.26 397 19.9249
123.377 0 1
123.493 0 1
123.609 0 1
123.725 0 1
123.84 0 1
123.956 0 1
124.072 0 1
124.188 0 1
124.303 0 1
124.419 0 1
126.852 0 1
126.968 0 1
127.083 0 1
127.199 0 1
127.315 0 1
127.431 0 1
127.547 0 1
127.663 0 1
127.779 0 1
127.895 0 1
128.011 0 1
128.127 0 1
128.243 0 1
128.359 980 31.305
128.476 1004 31.686
128.592 959 30.9677
128.708 968 31.1127
128.825 1039 32.2335
128.941 1030 32.0936
129.058 1088 32.9848
129.174 1125 33.541
129.291 1155 33.9853
129.408 1234 35.1283
129.524 1135 33.6898
129.641 1214 34.8425
129.758 1170 34.2053
129.875 1092 33.0454
129.992 1003 31.6702
130.108 967 31.0966
130.225 918 30.2985
130.342 899 29.9833
130.459 904 30.0666
130.576 1054 32.4654
130.693 1050 32.4037
130.81 1009 31.7648
130.928 1081 32.8786
131.045 1172 34.2345
131.162 1174 34.2637
131.279 1214 34.8425
131.396 1149 33.8969
131.513 1140 33.7639
131.631 1170 34.2053
131.748 1161 34.0735
131.865 1070 32.7109
131.983 1133 33.6601
132.1 1073 32.7567
132.217 990 31.4643
132.335 951 30.8383
132.452 1039 32.2335
132.57 1030 32.0936
132.687 1137 33.7194
132.804 1198 34.6121
132.922 1155 33.9853
133.039 1139 33.7491
133.157 1184 34.4093
133.274 1167 34.1614
133.392 1075 32.7872
133.509 1069 32.6956
133.627 999 31.607
133.744 921 30.348
133.862 890 29.8329
133.979 901 30.0167
134.097 1009 31.7648
134.214 996 31.5595
134.332 1048 32.3728
134.449 1140 33.7639
134.567 1185 34.4238
134.684 1118 33.4365
134.802 1153 33.9559
134.919 1188 34.4674
135.037 1108 33.2866
135.154 1123 33.5112
135.272 1066 32.6497
135.389 1097 33.121
135.507 1109 33.3017
135.624 1021 31.9531
135.742 958 30.9516
135.859 990 31.4643
135.977 994 31.5278
136.094 990 31.4643
136.211 1190 34.4964
136.329 1190 34.4964
136.446 1201 34.6554
136.564 1178 34.322
136.681 1197 34.5977
136.798 1195 34.5688
136.915 1133 33.6601
137.033 1097 33.121
137.15 1013 31.8277
137.267 973 31.1929
137.384 899 29.9833
137.502 889 29.8161
137.619 863 29.3769
137.736 966 31.0805
137.853 959 30.9677
137.97 1067 32.665
138.087 1091 33.0303
138.204 1112 33.3467
138.321 1010 31.7805
138.438 1130 33.6155
138.555 1129 33.6006
138.672 1105 33.2415
138.788 1068 32.6803
138.905 1034 32.1559
139.022 955 30.9031
139.139 889 29.8161
139.255 806 28.3901
139.372 848 29.1204
139.488 695 26.3629
139.605 807 28.4077
139.721 749 27.3679
139.838 723 26.8887
139.954 752 27.4226
140.071 751 27.4044
140.187 667 25.8263
140.303 638 25.2587
140.419 561 23.6854
140.535 569 23.8537
140.652 506 22.4944
140.768 0 1
140.884 0 1
141 0 1
141.115 0 1
141.231 0 1
141.347 0 1
141.463 0 1
141.578 0 1
141.694 0 1
144.104 0 1
144.219 0 1
144.335 0 1
144.45 0 1
144.566 0 1
144.682 0 1
144.798 0 1
144.914 0 1
145.03 0 1
145.146 693 26.3249
145.262 749 27.3679
145.378 772 27.7849
145.494 794 28.178
145.61 810 28.4605
145.726 775 27.8388
145.842 785 28.0179
145.959 804 28.3549
146.075 733 27.074
146.192 593 24.3516
146.308 666 25.807
146.425 648 25.4558
146.541 673 25.9422
146.658 665 25.7876
146.774 719 26.8142
146.891 708 26.6083
147.008 762 27.6043
147.125 755 27.4773
147.241 729 27
147.358 794 28.178
147.475 742 27.2397
147.592 767 27.6948
147.709 782 27.9643
147.826 733 27.074
147.943 725 26.9258
148.06 694 26.3439
148.177 688 26.2298
148.294 615 24.7992
148.411 683 26.1343
148.528 600 24.4949
148.645 756 27.4955
148.762 721 26.8514
148.88 794 28.178
148.997 762 27.6043
149.114 744 27.2764
149.231 774 27.8209
149.349 754 27.4591
149.466 721 26.8514
149.583 755 27.4773
149.701 660 25.6905
149.818 651 25.5147
149.935 609 24.6779
150.053 629 25.0799
150.17 671 25.9037
150.287 620 24.8998
150.405 697 26.4008
150.522 705 26.5518
150.64 703 26.5141
150.757 773 27.8029
150.875 726 26.9444
150.992 745 27.2947
151.11 733 27.074
151.227 754 27.4591
151.344 727 26.9629
151.462 693 26.3249
151.579 670 25.8844
151.697 681 26.096
151.814 652 25.5343
151.932 640 25.2982
152.049 594 24.3721
152.167 688 26.2298
152.284 702 26.4953
152.402 763 27.6225
152.519 766 27.6767
152.636 780 27.9285
152.754 777 27.8747
152.871 764 27.6405
152.989 729 27
153.106 719 26.8142
153.223 675 25.9808
153.341 621 24.9199
153.458 558 23.622
153.575 596 24.4131
153.693 570 23.8747
153.81 655 25.593
153.927 650 25.4951
154.044 638 25.2587
154.162 686 26.1916
154.279 700 26.4575
154.396 647 25.4362
154.513 675 25.9808
154.63 709 26.6271
154.747 657 25.632
154.864 692 26.3059
154.981 734 27.0924
155.098 648 25.4558
155.215 707 26.5895
155.332 652 25.5343
155.449 587 24.2281
155.566 597 24.4336
155.683 636 25.219
155.8 647 25.4362
155.917 628 25.0599
156.033 628 25.0599
156.15 0 1
156.267 0 1
156.383 0 1
156.5 0 1
156.617 0 1
156.733 0 1
156.85 0 1
156.966 0 1
157.082 0 1
157.199 0 1
157.315 0 1
157.431 0 1
157.547 0 1
157.664 0 1
157.78 0 1
157.896 0 1
158.012 0 1
158.128 0 1
158.244 0 1
158.359 0 1
158.475 0 1
158.591 0 1
158.706 0 1
