
6.15755 0 1
6.2731 0 1
6.3887 0 1
6.50437 0 1
6.62009 0 1
6.73587 0 1
6.8517 0 1
6.96759 0 1
7.08353 0 1
7.19952 0 1
7.31557 0 1
7.43166 0 1
7.54781 0 1
7.664 0 1
7.78024 0 1
7.89653 0 1
8.01286 0 1
8.12924 0 1
8.24567 0 1
8.36213 0 1
8.47864 0 1
8.59519 0 1
8.71178 0 1
8.82841 0 1
8.94508 0 1
9.06179 0 1
9.17853 0 1
9.29531 0 1
9.41212 0 1
9.52897 0 1
9.64584 0 1
9.76276 0 1
9.8797 0 1
9.99667 0 1
10.1137 0 1
10.2307 0 1
10.3478 0 1
10.4648 0 1
10.5819 0 1
10.6991 0 1
10.8162 0 1
10.9334 0 1
11.0506 0 1
11.1678 0 1
11.285 0 1
11.4023 0 1
11.5196 0 1
11.6369 0 1
11.7542 0 1
11.8715 0 1
11.9888 0 1
12.1062 0 1
12.2235 0 1
12.3409 0 1
12.4582 0 1
12.5756 0 1
12.693 0 1
12.8104 0 1
12.9278 0 1
13.0452 0 1
13.1626 0 1
13.28 0 1
13.3974 0 1
13.5149 0 1
13.6323 0 1
13.7497 0 1
13.8671 0 1
13.9845 0 1
14.1019 0 1
14.2193 0 1
14.3367 0 1
14.4541 0 1
14.5714 0 1
14.6888 0 1
14.8062 0 1
14.9235 0 1
15.0408 0 0
15.1581 0 0
15.2755 0 0
15.3927 0 0
15.51 0 0
15.6273 0 0
15.7445 0 0
15.8617 0 0
15.9789 0 0
16.0961 0 0
16.2132 0 0
16.3304 0 0
16.4475 0 0
16.5646 0 0
16.6816 0 0
16.7986 0 0
16.9156 0 0
17.0326 0 0
17.1496 0 0
17.2665 0 0
17.3833 0 0
17.5002 0 0
17.617 0 0
17.7338 0 0
17.8505 0 0
17.9672 0 0
18.0839 0 0
18.2005 0 0
18.3171 0 0
18.4337 0 0
18.5502 0 0
18.6666 0 0
18.7831 0 0
18.8994 0 0
19.0158 0 0
19.1321 0 0
19.2483 0 0
19.3645 0 0
19.4806 0 0
19.5967 0 0
19.7128 0 0
19.8288 0 0
19.9447 0 0
20.0606 0 1
20.1764 0 1
20.2922 0 1
20.4079 0 1
20.5236 0 1
20.6392 0 1
20.7548 0 1
20.8702 0 1
23.3078 0 1
23.4233 0 1
23.539 0 1
23.6547 0 1
23.7704 0 1
23.8862 0 1
24.0021 0 1
24.118 0 1
24.234 0 1
24.35 0 1
24.4661 1419 37.6696
24.5822 1542 39.2683
24.6984 1724 41.5211
24.8146 1785 42.2493
24.9309 2069 45.4863
25.0472 2393 48.9183
25.1636 2832 53.2165
25.28 2877 53.6377
25.3965 2993 54.7083
25.513 2866 53.535
25.6296 2952 54.3323
25.7462 2937 54.1941
25.8628 2962 54.4243
25.9795 3056 55.2811
26.0962 3049 55.2178
26.213 3125 55.9017
26.3298 3092 55.6058
26.4466 3147 56.0981
26.5635 2993 54.7083
26.6804 2995 54.7266
26.7973 3057 55.2901
26.9143 2874 53.6097
27.0313 2919 54.0278
27.1483 2859 53.4696
27.2653 2863 53.507
27.3824 2721 52.1632
27.4996 2624 51.225
27.6167 2415 49.1426
27.7339 2355 48.5283
27.8511 2593 50.9215
27.9683 2774 52.6688
28.0855 2757 52.5071
28.2028 2837 53.2635
28.3201 2737 52.3163
28.4374 2849 53.376
28.5547 2838 53.2729
28.6721 2828 53.1789
28.7894 2843 53.3198
28.9068 2702 51.9808
29.0242 2833 53.2259
29.1416 2800 52.915
29.259 2804 52.9528
29.3764 2824 53.1413
29.4939 2865 53.5257
29.6113 2790 52.8205
29.7288 2693 51.8941
29.8463 2675 51.7204
29.9638 2653 51.5073
30.0812 2586 50.8527
30.1987 2655 51.5267
30.3162 2872 53.591
30.4337 2834 53.2353
30.5512 2779 52.7162
30.6687 2796 52.8772
30.7862 2768 52.6118
30.9037 2735 52.2972
31.0212 2466 49.6588
31.1387 2661 51.5849
31.2562 2663 51.6043
31.3737 2776 52.6878
31.4912 2855 53.4322
31.6087 2741 52.3546
31.7262 2898 53.8331
31.8436 2814 53.0471
31.9611 2793 52.8488
32.0785 2820 53.1037
32.1959 2686 51.8266
32.3134 2651 51.4879
32.4308 2609 51.0784
32.5482 2583 50.8232
32.6655 2561 50.6063
32.7829 2569 50.6853
32.9002 2529 50.2892
33.0176 2415 49.1426
33.1349 2545 50.448
33.2522 2394 48.9285
33.3694 2378 48.7647
33.4867 2387 48.8569
33.6039 2474 49.7393
33.7211 2430 49.295
33.8383 2600 50.9902
33.9554 2666 51.6333
34.0725 2605 51.0392
34.1896 2670 51.672
34.3067 2696 51.923
34.4237 2668 51.6527
34.5407 2620 51.1859
34.6577 2515 50.1498
34.7746 2415 49.1426
34.8915 2446 49.4571
35.0084 2626 51.2445
35.1252 2665 51.6236
35.242 2827 53.1695
35.3587 2741 52.3546
35.4755 2744 52.3832
35.5921 2626 51.2445
35.7088 2620 51.1859
35.8254 2518 50.1797
35.9419 2447 49.4672
36.0584 2384 48.8262
36.1749 2229 47.2123
36.2913 2322 48.1871
36.4077 2149 46.3573
36.524 2001 44.7325
36.6403 1773 42.107
36.7565 1500 38.7298
36.8727 1428 37.7889
36.9889 1446 38.0263
37.1049 1325 36.4005
37.221 0 1
37.3369 0 1
37.4529 0 1
37.5687 0 1
37.6845 0 1
37.8003 0 1
37.916 0 1
38.0316 0 1
38.1472 0 1
40.5851 0 1
40.7008 0 1
40.8164 0 1
40.9322 0 1
41.048 0 1
41.1639 0 1
41.2798 0 1
41.3958 0 1
41.5118 0 1
41.6279 0 1
41.744 1118 33.4365
41.8602 1395 37.3497
41.9765 1652 40.6448
42.0928 1723 41.509
42.2091 1770 42.0714
42.3255 1831 42.7902
42.4419 1924 43.8634
42.5584 1808 42.5206
42.675 1989 44.5982
42.7915 2023 44.9778
42.9081 2094 45.7602
43.0248 2184 46.7333
43.1415 2254 47.4763
43.2582 2287 47.8226
43.375 2130 46.1519
43.4918 2162 46.4973
43.6087 2130 46.1519
43.7256 2100 45.8258
43.8425 2354 48.518
43.9595 2275 47.697
44.0765 2311 48.0729
44.1935 2215 47.0638
44.3106 2146 46.3249
44.4277 2159 46.465
44.5448 2145 46.3141
44.6619 2078 45.5851
44.7791 2120 46.0435
44.8963 1984 44.5421
45.0136 1960 44.2719
45.1308 2038 45.1442
45.2481 1935 43.9886
45.3654 1792 42.332
45.4827 1824 42.7083
45.6001 1820 42.6615
45.7174 1867 43.2088
45.8348 1879 43.3474
45.9522 1909 43.6921
46.0697 1982 44.5197
46.1871 2093 45.7493
46.3046 2238 47.3075
46.422 2174 46.6262
46.5395 2238 47.3075
46.657 2260 47.5395
46.7745 2171 46.594
46.892 2156 46.4327
47.0096 2055 45.3321
47.1271 2094 45.7602
47.2446 2118 46.0217
47.3622 2164 46.5188
47.4797 2208 46.9894
47.5973 2168 46.5618
47.7149 2136 46.2169
47.8324 2130 46.1519
47.95 2091 45.7275
48.0675 2156 46.4327
48.1851 2187 46.7654
48.3027 2089 45.7056
48.4202 1949 44.1475
48.5378 1927 43.8976
48.6554 2026 45.0111
48.7729 1872 43.2666
48.8904 1860 43.1277
49.008 1868 43.2204
49.1255 1786 42.2611
49.243 1791 42.3202
49.3605 1813 42.5793
49.478 1803 42.4617
49.5955 1922 43.8406
49.713 2004 44.7661
49.8304 1988 44.587
49.9479 2142 46.2817
50.0653 2030 45.0555
50.1827 2122 46.0652
50.3001 1987 44.5758
50.4175 1794 42.3556
50.5348 1669 40.8534
50.6521 1702 41.2553
50.7694 1897 43.5546
50.8867 2061 45.3982
51.004 2068 45.4753
51.1212 2115 45.9891
51.2384 2075 45.5522
51.3556 2040 45.1664
51.4727 2006 44.7884
51.5899 2058 45.3652
51.707 2023 44.9778
51.824 2018 44.9222
51.9411 2035 45.111
52.0581 1960 44.2719
52.175 1924 43.8634
52.2919 1913 43.7379
52.4088 1917 43.7836
52.5257 1844 42.9418
52.6425 1858 43.1045
52.7593 1800 42.4264
52.876 1857 43.0929
52.9927 1764 42
53.1094 1845 42.9535
53.226 1849 43
53.3426 1892 43.4971
53.4591 1815 42.6028
53.5756 1653 40.6571
53.692 1431 37.8286
53.8084 1366 36.9594
53.9248 1296 36
54.0411 1162 34.0881
54.1573 1032 32.1248
54.2735 0 1
54.3896 0 1
54.5057 0 1
54.6217 0 1
54.7377 0 1
54.8537 0 1
54.9695 0 1
55.0853 0 1
55.2011 0 1
55.3168 0 1
55.4324 0 1
57.824 0 1
57.9396 0 1
58.0553 0 1
58.1711 0 1
58.2869 0 1
58.4028 0 1
58.5187 0 1
58.6347 0 1
58.7508 0 1
58.8669 0 1
58.983 1556 39.4462
59.0992 1621 40.2616
59.2155 1635 40.4351
59.3318 1702 41.2553
59.4482 1950 44.1588
59.5646 2107 45.9021
59.681 2229 47.2123
59.7975 2248 47.4131
59.9141 2254 47.4763
60.0306 2233 47.2546
60.1473 2333 48.3011
60.2639 2293 47.8853
60.3807 2225 47.1699
60.4974 2341 48.3839
60.6142 2261 47.55
60.731 2225 47.1699
60.8479 2336 48.3322
60.9648 2320 48.1664
61.0818 2329 48.2597
61.1987 2274 47.6865
61.3158 2170 46.5833
61.4328 2170 46.5833
61.5499 2126 46.1086
61.667 2119 46.0326
61.7841 2213 47.0425
61.9013 2203 46.9361
62.0185 2245 47.3814
62.1357 2279 47.7389
62.253 2242 47.3498
62.3702 2298 47.9375
62.4875 2235 47.2758
62.6049 2129 46.1411
62.7222 2110 45.9347
62.8396 2065 45.4423
62.9569 2362 48.6004
63.0743 2361 48.5901
63.1918 2355 48.5283
63.3092 2396 48.949
63.4267 2413 49.1223
63.5441 2341 48.3839
63.6616 2339 48.3632
63.7791 2233 47.2546
63.8966 2309 48.0521
64.0142 2297 47.927
64.1317 2242 47.3498
64.2492 2273 47.676
64.3668 2253 47.4658
64.4843 2157 46.4435
64.6019 2228 47.2017
64.7195 2180 46.6905
64.837 2155 46.422
64.9546 2031 45.0666
65.0722 2001 44.7325
65.1898 2074 45.5412
65.3074 2162 46.4973
65.4249 2048 45.2548
65.5425 2121 46.0543
65.6601 2181 46.7012
65.7777 2254 47.4763
65.8952 2161 46.4866
66.0128 2186 46.7547
66.1304 2003 44.7549
66.2479 1830 42.7785
66.3655 1860 43.1277
66.483 1982 44.5197
66.6005 2268 47.6235
66.718 2229 47.2123
66.8355 2187 46.7654
66.953 2313 48.0937
67.0705 2291 47.8644
67.1879 2218 47.0956
67.3054 2208 46.9894
67.4228 2220 47.1169
67.5402 2188 46.7761
67.6576 2173 46.6154
67.7749 2107 45.9021
67.8923 2121 46.0543
68.0096 2244 47.3709
68.1269 2133 46.1844
68.2442 2194 46.8402
68.3614 2191 46.8081
68.4787 2002 44.7437
68.5958 2006 44.7884
68.713 2068 45.4753
68.8302 1983 44.5309
68.9473 1911 43.715
69.0643 1988 44.587
69.1814 1931 43.9431
69.2984 2043 45.1996
69.4154 1996 44.6766
69.5323 2090 45.7165
69.6492 1969 44.3734
69.7661 1870 43.2435
69.8829 1692 41.1339
69.9997 1693 41.1461
70.1165 1753 41.8688
70.2332 1840 42.8952
70.3499 1855 43.0697
70.4665 1656 40.694
70.5831 1589 39.8623
70.6996 1511 38.8716
70.8161 1390 37.2827
70.9326 1400 37.4166
71.049 1320 36.3318
71.1653 1314 36.2491
71.2817 1218 34.8999
71.3979 1237 35.171
71.5141 1165 34.1321
71.6303 1139 33.7491
71.7464 1033 32.1403
71.8624 0 1
71.9784 0 1
72.0944 0 1
72.2102 0 1
72.3261 0 1
72.4418 0 1
72.5575 0 1
72.6732 0 1
75.1054 0 1
75.2209 0 1
75.3365 0 1
75.4521 0 1
75.5678 0 1
75.6835 0 1
75.7993 0 1
75.9151 0 1
76.031 0 1
76.147 1661 40.7554
76.263 1855 43.0697
76.3791 1898 43.566
76.4952 1921 43.8292
76.6113 1892 43.4971
76.7276 1927 43.8976
76.8438 1972 44.4072
76.9601 2063 45.4203
77.0765 2102 45.8476
77.1929 2031 45.0666
77.3093 2044 45.2106
77.4258 2067 45.4643
77.5423 1964 44.317
77.6589 1978 44.4747
77.7755 1958 44.2493
77.8921 1913 43.7379
78.0088 1916 43.7721
78.1256 2014 44.8776
78.2423 2059 45.3762
78.3591 2042 45.1885
78.4759 2045 45.2217
78.5928 1994 44.6542
78.7097 1923 43.852
78.8266 1729 41.5812
78.9436 1569 39.6106
79.0606 1558 39.4715
79.1776 1714 41.4005
79.2946 1902 43.6119
79.4117 2056 45.3431
79.5288 2179 46.6798
79.6459 2125 46.0977
79.7631 2174 46.6262
79.8802 2099 45.8148
79.9974 2167 46.551
80.1147 2075 45.5522
80.2319 2098 45.8039
80.3491 2136 46.2169
80.4664 2211 47.0213
80.5837 2085 45.6618
80.701 2188 46.7761
80.8183 2233 47.2546
80.9357 2263 47.571
81.053 2237 47.2969
81.1704 2142 46.2817
81.2877 2074 45.5412
81.4051 2151 46.3789
81.5225 2054 45.3211
81.6399 2062 45.4093
81.7573 2053 45.31
81.8747 2074 45.5412
81.9922 2155 46.422
82.1096 2130 46.1519
82.227 2273 47.676
82.3444 2079 45.5961
82.4619 1921 43.8292
82.5793 1767 42.0357
82.6967 1594 39.9249
82.8142 1836 42.8486
82.9316 2019 44.9333
83.049 2248 47.4131
83.1664 2151 46.3789
83.2838 2130 46.1519
83.4012 2243 47.3603
83.5186 2202 46.9255
83.636 2300 47.9583
83.7534 2252 47.4552
83.8708 2214 47.0532
83.9881 2239 47.3181
84.1055 2244 47.3709
84.2228 2302 47.9792
84.3401 2422 49.2138
84.4575 2400 48.9898
84.5747 2366 48.6415
84.692 2293 47.8853
84.8093 2305 48.0104
84.9265 2224 47.1593
85.0437 2235 47.2758
85.1609 2224 47.1593
85.2781 2285 47.8017
85.3952 2217 47.085
85.5123 2205 46.9574
85.6294 2280 47.7493
85.7465 2211 47.0213
85.8636 2138 46.2385
85.9806 1965 44.3283
86.0976 1725 41.5331
86.2145 1697 41.1947
86.3315 1733 41.6293
86.4484 2027 45.0222
86.5652 2238 47.3075
86.682 2254 47.4763
86.7988 2162 46.4973
86.9156 2221 47.1275
87.0323 2212 47.0319
87.149 2188 46.7761
87.2657 2234 47.2652
87.3823 2170 46.5833
87.4988 2066 45.4533
87.6154 2019 44.9333
87.7318 1913 43.7379
87.8483 1823 42.6966
87.9647 1784 42.2374
88.081 1755 41.8927
88.1973 1688 41.0853
88.3136 1625 40.3113
88.4298 1553 39.4081
88.546 1481 38.4838
88.6621 1402 37.4433
88.7781 1408 37.5233
88.8942 0 1
89.0101 0 1
89.126 0 1
89.2419 0 1
89.3577 0 1
89.4734 0 1
89.5891 0 1
89.7047 0 1
89.8203 0 1
89.9358 0 1
92.3269 0 1
92.4424 0 1
92.558 0 1
92.6736 0 1
92.7893 0 1
92.905 0 1
93.0208 0 1
93.1366 0 1
93.2525 0 1
93.3685 0 1
93.4845 0 1
93.6005 2558 50.5767
93.7167 2510 50.0999
93.8328 2489 49.8899
93.949 2539 50.3885
94.0653 2558 50.5767
94.1816 2469 49.689
94.2979 2521 50.2096
94.4143 2543 50.4282
94.5307 2532 50.319
94.6472 2588 50.8724
94.7637 2464 49.6387
94.8803 2449 49.4874
94.9969 2271 47.655
95.1135 2078 45.5851
95.2302 2128 46.1303
95.3469 2221 47.1275
95.4637 2408 49.0714
95.5805 2644 51.4198
95.6973 2593 50.9215
95.8142 2618 51.1664
95.9311 2579 50.7839
96.048 2649 51.4684
96.1649 2674 51.7107
96.2819 2623 51.2152
96.3989 2571 50.705
96.516 2684 51.8073
96.633 2615 51.1371
96.7501 2704 52
96.8673 2744 52.3832
96.9844 2784 52.7636
97.1016 2810 53.0094
97.2188 2808 52.9906
97.336 2810 53.0094
97.4532 2763 52.5642
97.5704 2653 51.5073
97.6877 2725 52.2015
97.805 2584 50.8331
97.9223 2713 52.0865
98.0396 2792 52.8394
98.1569 2824 53.1413
98.2743 2680 51.7687
98.3916 2644 51.4198
98.509 2499 49.99
98.6264 2352 48.4974
98.7438 2266 47.6025
98.8612 2406 49.051
98.9786 2557 50.5668
99.096 2663 51.6043
99.2134 2720 52.1536
99.3308 2735 52.2972
99.4482 2739 52.3355
99.5656 2654 51.517
99.6831 2728 52.2303
99.8005 2681 51.7784
99.9179 2721 52.1632
100.035 2683 51.7977
100.153 2711 52.0673
100.27 2874 53.6097
100.388 2861 53.4883
100.505 2982 54.6077
100.622 3028 55.0273
100.74 2907 53.9166
100.857 2868 53.5537
100.975 2856 53.4416
101.092 2820 53.1037
101.209 2856 53.4416
101.327 2836 53.2541
101.444 2796 52.8772
101.561 2955 54.3599
101.679 2840 53.2917
101.796 2926 54.0925
101.913 2825 53.1507
102.03 2693 51.8941
102.148 2494 49.94
102.265 2174 46.6262
102.382 2401 49
102.499 2367 48.6518
102.616 2646 51.4393
102.733 2793 52.8488
102.851 2771 52.6403
102.968 2650 51.4782
103.085 2562 50.6162
103.202 2677 51.7397
103.319 2638 51.3615
103.436 2608 51.0686
103.552 2584 50.8331
103.669 2600 50.9902
103.786 2532 50.319
103.903 2615 51.1371
104.02 2716 52.1153
104.137 2757 52.5071
104.253 2826 53.1601
104.37 2559 50.5866
104.487 2601 51
104.603 2533 50.3289
104.72 2422 49.2138
104.836 2310 48.0625
104.953 2227 47.1911
105.069 1947 44.1248
105.186 1730 41.5933
105.302 1643 40.5339
105.418 1534 39.1663
105.535 1389 37.2693
105.651 1264 35.5528
105.767 1121 33.4813
105.883 896 29.9333
105.999 800 28.2843
106.115 0 1
106.231 0 1
106.347 0 1
106.463 0 1
106.579 0 1
106.694 0 1
106.81 0 1
106.926 0 1
107.041 0 1
107.157 0 1
109.576 0 1
109.692 0 1
109.807 0 1
109.923 0 1
110.039 0 1
110.155 0 1
110.27 0 1
110.386 0 1
110.502 0 1
110.618 2565 50.6458
110.735 2768 52.6118
110.851 2852 53.4041
110.967 2568 50.6754
111.083 2407 49.0612
111.199 2515 50.1498
111.316 2674 51.7107
111.432 2937 54.1941
111.549 2892 53.7773
111.665 2964 54.4426
111.782 2941 54.231
111.898 2977 54.5619
112.015 2995 54.7266
112.132 2843 53.3198
112.248 2924 54.074
112.365 2900 53.8516
112.482 2829 53.1883
112.599 3033 55.0727
112.716 3124 55.8928
112.832 3131 55.9553
112.949 3256 57.0614
113.066 3229 56.8243
113.183 3384 58.1722
113.3 3196 56.5332
113.417 3252 57.0263
113.534 3248 56.9912
113.652 3159 56.205
113.769 3275 57.2276
113.886 3168 56.285
114.003 3254 57.0438
114.12 3231 56.8419
114.238 3202 56.5862
114.355 2999 54.7631
114.472 2756 52.4976
114.589 2711 52.0673
114.707 2671 51.6817
114.824 2741 52.3546
114.942 3005 54.8179
115.059 3091 55.5968
115.176 3056 55.2811
115.294 3008 54.8452
115.411 2994 54.7175
115.529 2909 53.9351
115.646 3084 55.5338
115.764 2995 54.7266
115.881 2986 54.6443
115.999 3003 54.7996
116.116 2882 53.6843
116.234 3079 55.4887
116.351 3159 56.205
116.469 3243 56.9473
116.586 3420 58.4808
116.704 3363 57.9914
116.821 3346 57.8446
116.939 3355 57.9224
117.056 3359 57.9569
117.174 3250 57.0088
117.291 3390 58.2237
117.409 3411 58.4038
117.526 3314 57.5674
117.644 3254 57.0438
117.761 3371 58.0603
117.879 3343 57.8187
117.996 2993 54.7083
118.114 2851 53.3948
118.231 2655 51.5267
118.349 2779 52.7162
118.466 2893 53.7866
118.584 2885 53.7122
118.701 2990 54.6809
118.819 3053 55.254
118.936 2962 54.4243
119.053 3029 55.0364
119.171 3046 55.1906
119.288 2918 54.0185
119.405 2888 53.7401
119.523 2982 54.6077
119.64 2888 53.7401
119.757 2868 53.5537
119.875 2971 54.5069
119.992 3117 55.8301
120.109 3178 56.3738
120.226 3131 55.9553
120.343 3246 56.9737
120.46 3188 56.4624
120.578 3232 56.8507
120.695 3182 56.4092
120.812 3029 55.0364
120.929 2978 54.5711
121.046 3046 55.1906
121.163 2994 54.7175
121.279 3031 55.0545
121.396 3053 55.254
121.513 2908 53.9259
121.63 2828 53.1789
121.747 2636 51.342
121.863 2462 49.6185
121.98 2204 46.9468
122.097 2169 46.5725
122.213 2234 47.2652
122.33 2189 46.7868
122.446 2128 46.1303
122.563 2055 45.3321
122.679 2072 45.5192
122.795 1991 44.6206
122.912 1806 42.4971
123.028 1844 42.9418
123.144 1761 41.9643
123.26 1765 42.0119
123.377 0 1
123.493 0 1
123.609 0 1
123.725 0 1
123.84 0 1
123.956 0 1
124.072 0 1
124.188 0 1
124.303 0 1
124.419 0 1
126.852 0 1
126.968 0 1
127.083 0 1
127.199 0 1
127.315 0 1
127.431 0 1
127.547 0 1
127.663 0 1
127.779 0 1
127.895 0 1
128.011 0 1
128.127 0 1
128.243 0 1
128.359 3488 59.0593
128.476 3469 58.8982
128.592 3518 59.3127
128.708 3465 58.8643
128.825 3580 59.8331
128.941 3656 60.4649
129.058 3709 60.9016
129.174 3674 60.6135
129.291 3694 60.7783
129.408 3784 61.5142
129.524 3942 62.7853
129.641 3847 62.0242
129.758 4175 64.6142
129.875 4248 65.1767
129.992 4193 64.7534
130.108 4288 65.4828
130.225 4263 65.2917
130.342 4367 66.0833
130.459 4069 63.7887
130.576 4229 65.0308
130.693 3836 61.9355
130.81 3858 62.1128
130.928 3746 61.2046
131.045 3780 61.4817
131.162 3889 62.3618
131.279 4077 63.8514
131.396 4048 63.6239
131.513 4169 64.5678
131.631 4227 65.0154
131.748 4137 64.3195
131.865 4052 63.6553
131.983 4042 63.5767
132.1 3871 62.2174
132.217 3902 62.466
132.335 3940 62.7694
132.452 3928 62.6738
132.57 3967 62.9841
132.687 3822 61.8223
132.804 4164 64.5291
132.922 4086 63.9218
133.039 4036 63.5295
133.157 4159 64.4903
133.274 4109 64.1015
133.392 4221 64.9692
133.509 4295 65.5362
133.627 4538 67.3647
133.744 4492 67.0224
133.862 4538 67.3647
133.979 4712 68.644
134.097 4396 66.3023
134.214 4402 66.3476
134.332 4293 65.521
134.449 4269 65.3376
134.567 4235 65.0769
134.684 4255 65.2304
134.802 4333 65.8255
134.919 4410 66.4078
135.037 4399 66.325
135.154 4459 66.7757
135.272 4201 64.8151
135.389 4343 65.9014
135.507 4260 65.2687
135.624 4118 64.1716
135.742 4134 64.2962
135.859 4082 63.8905
135.977 4070 63.7966
136.094 4182 64.6684
136.211 4054 63.671
136.329 4223 64.9846
136.446 4150 64.4205
136.564 4179 64.6452
136.681 4169 64.5678
136.798 4293 65.521
136.915 4178 64.6375
137.033 4340 65.8787
137.15 4368 66.0908
137.267 4430 66.5582
137.384 4383 66.2042
137.502 4279 65.4141
137.619 4377 66.1589
137.736 4341 65.8863
137.853 4091 63.9609
137.97 4148 64.405
138.087 3903 62.474
138.204 4118 64.1716
138.321 4131 64.2729
138.438 4148 64.405
138.555 4215 64.923
138.672 4115 64.1483
138.788 4251 65.1997
138.905 4182 64.6684
139.022 3978 63.0714
139.139 3874 62.2415
139.255 3734 61.1065
139.372 3385 58.1808
139.488 3248 56.9912
139.605 3250 57.0088
139.721 3141 56.0446
139.838 3068 55.3895
139.954 2880 53.6656
140.071 2822 53.1225
140.187 2921 54.0463
140.303 2825 53.1507
140.419 2871 53.5817
140.535 3018 54.9363
140.652 2858 53.4603
140.768 0 1
140.884 0 1
141 0 1
141.115 0 1
141.231 0 1
141.347 0 1
141.463 0 1
141.578 0 1
141.694 0 1
144.104 0 1
144.219 0 1
144.335 0 1
144.45 0 1
144.566 0 1
144.682 0 1
144.798 0 1
144.914 0 1
145.03 0 1
145.146 4096 64
145.262 4155 64.4593
145.378 4340 65.8787
145.494 4314 65.681
145.61 4317 65.7039
145.726 4334 65.8331
145.842 4435 66.5958
145.959 4432 66.5733
146.075 4486 66.9776
146.192 4494 67.0373
146.308 4346 65.9242
146.425 4302 65.5896
146.541 4295 65.5362
146.658 3925 62.6498
146.774 3780 61.4817
146.891 3703 60.8523
147.008 3614 60.1166
147.125 3966 62.9762
147.241 4105 64.0703
147.358 4084 63.9062
147.475 4110 64.1093
147.592 4232 65.0538
147.709 4234 65.0692
147.826 4316 65.6963
147.943 4210 64.8845
148.06 4277 65.3988
148.177 4294 65.5286
148.294 4379 66.174
148.411 4322 65.7419
148.528 4392 66.2722
148.645 4519 67.2235
148.762 4400 66.3325
148.88 4428 66.5432
148.997 4239 65.1076
149.114 4471 66.8655
149.231 4524 67.2607
149.349 4552 67.4685
149.466 4551 67.4611
149.583 4510 67.1565
149.701 4568 67.587
149.818 4429 66.5507
149.935 4582 67.6905
150.053 4547 67.4314
150.17 4361 66.0379
150.287 4086 63.9218
150.405 3836 61.9355
150.522 3714 60.9426
150.64 3570 59.7495
150.757 3683 60.6877
150.875 3785 61.5224
150.992 3728 61.0574
151.11 3539 59.4895
151.227 3536 59.4643
151.344 3495 59.1185
151.462 3313 57.5587
151.579 3402 58.3267
151.697 3346 57.8446
151.814 3484 59.0254
151.932 3389 58.2151
152.049 3507 59.2199
152.167 3455 58.7792
152.284 3744 61.1882
152.402 3485 59.0339
152.519 3721 61
152.636 3558 59.649
152.754 3731 61.0819
152.871 3804 61.6766
152.989 3917 62.5859
153.106 3978 63.0714
153.223 4072 63.8122
153.341 3964 62.9603
153.458 4042 63.5767
153.575 4154 64.4515
153.693 4061 63.726
153.81 4057 63.6946
153.927 4029 63.4744
154.044 3723 61.0164
154.162 3797 61.6198
154.279 3793 61.5873
154.396 3915 62.57
154.513 4008 63.3088
154.63 3970 63.0079
154.747 3938 62.7535
154.864 3924 62.6418
154.981 3811 61.7333
155.098 3764 61.3514
155.215 3578 59.8164
155.332 3399 58.3009
155.449 3248 56.9912
155.566 3133 55.9732
155.683 3005 54.8179
155.8 2753 52.469
155.917 2623 51.2152
156.033 2592 50.9117
156.15 0 1
156.267 0 1
156.383 0 1
156.5 0 1
156.617 0 1
156.733 0 1
156.85 0 1
156.966 0 1
157.082 0 1
157.199 0 1
157.315 0 1
157.431 0 1
157.547 0 1
157.664 0 1
157.78 0 1
157.896 0 1
158.012 0 1
158.128 0 1
158.244 0 1
158.359 0 1
158.475 0 1
158.591 0 1
158.706 0 1
