
6.15755 0 1
6.2731 0 1
6.3887 0 1
6.50437 0 1
6.62009 0 1
6.73587 0 1
6.8517 0 1
6.96759 0 1
7.08353 0 1
7.19952 0 1
7.31557 0 1
7.43166 0 1
7.54781 0 1
7.664 0 1
7.78024 0 1
7.89653 0 1
8.01286 0 1
8.12924 0 1
8.24567 0 1
8.36213 0 1
8.47864 0 1
8.59519 0 1
8.71178 0 1
8.82841 0 1
8.94508 0 1
9.06179 0 1
9.17853 0 1
9.29531 0 1
9.41212 0 1
9.52897 0 1
9.64584 0 1
9.76276 0 1
9.8797 0 1
9.99667 0 1
10.1137 0 1
10.2307 0 1
10.3478 0 1
10.4648 0 1
10.5819 0 1
10.6991 0 1
10.8162 0 1
10.9334 0 1
11.0506 0 1
11.1678 0 1
11.285 0 1
11.4023 0 1
11.5196 0 1
11.6369 0 1
11.7542 0 1
11.8715 0 1
11.9888 0 1
12.1062 0 1
12.2235 0 1
12.3409 0 1
12.4582 0 1
12.5756 0 1
12.693 0 1
12.8104 0 1
12.9278 0 1
13.0452 0 1
13.1626 0 1
13.28 0 1
13.3974 0 1
13.5149 0 1
13.6323 0 1
13.7497 0 1
13.8671 0 1
13.9845 0 1
14.1019 0 1
14.2193 0 1
14.3367 0 1
14.4541 0 1
14.5714 0 1
14.6888 0 1
14.8062 0 1
14.9235 0 1
15.0408 0 0
15.1581 0 0
15.2755 0 0
15.3927 0 0
15.51 0 0
15.6273 0 0
15.7445 0 0
15.8617 0 0
15.9789 0 0
16.0961 0 0
16.2132 0 0
16.3304 0 0
16.4475 0 0
16.5646 0 0
16.6816 0 0
16.7986 0 0
16.9156 0 0
17.0326 0 0
17.1496 0 0
17.2665 0 0
17.3833 0 0
17.5002 0 0
17.617 0 0
17.7338 0 0
17.8505 0 0
17.9672 0 0
18.0839 0 0
18.2005 0 0
18.3171 0 0
18.4337 0 0
18.5502 0 0
18.6666 0 0
18.7831 0 0
18.8994 0 0
19.0158 0 0
19.1321 0 0
19.2483 0 0
19.3645 0 0
19.4806 0 0
19.5967 0 0
19.7128 0 0
19.8288 0 0
19.9447 0 0
20.0606 0 1
20.1764 0 1
20.2922 0 1
20.4079 0 1
20.5236 0 1
20.6392 0 1
20.7548 0 1
20.8702 0 1
23.3078 0 1
23.4233 0 1
23.539 0 1
23.6547 0 1
23.7704 0 1
23.8862 0 1
24.0021 0 1
24.118 0 1
24.234 0 1
24.35 0 1
24.4661 1152 33.9411
24.5822 1163 34.1028
24.6984 1071 32.7261
24.8146 1170 34.2053
24.9309 1163 34.1028
25.0472 1154 33.9706
25.1636 1142 33.7935
25.28 1154 33.9706
25.3965 1243 35.2562
25.513 1192 34.5254
25.6296 1246 35.2987
25.7462 1354 36.7967
25.8628 1347 36.7015
25.9795 1392 37.3095
26.0962 1417 37.6431
26.213 1423 37.7227
26.3298 1366 36.9594
26.4466 1341 36.6197
26.5635 1325 36.4005
26.6804 1276 35.7211
26.7973 1265 35.5668
26.9143 1280 35.7771
27.0313 1217 34.8855
27.1483 1328 36.4417
27.2653 1349 36.7287
27.3824 1359 36.8646
27.4996 1397 37.3765
27.6167 1308 36.1663
27.7339 1264 35.5528
27.8511 1337 36.565
27.9683 1349 36.7287
28.0855 1364 36.9324
28.2028 1412 37.5766
28.3201 1360 36.8782
28.4374 1380 37.1484
28.5547 1341 36.6197
28.6721 1326 36.4143
28.7894 1314 36.2491
28.9068 1322 36.3593
29.0242 1344 36.6606
29.1416 1377 37.108
29.259 1407 37.51
29.3764 1455 38.1445
29.4939 1416 37.6298
29.6113 1475 38.4057
29.7288 1467 38.3014
29.8463 1445 38.0132
29.9638 1421 37.6962
30.0812 1422 37.7094
30.1987 1388 37.2559
30.3162 1162 34.0881
30.4337 1213 34.8281
30.5512 1271 35.6511
30.6687 1292 35.9444
30.7862 1334 36.524
30.9037 1272 35.6651
31.0212 1303 36.0971
31.1387 1287 35.8748
31.2562 1361 36.8917
31.3737 1345 36.6742
31.4912 1263 35.5387
31.6087 1273 35.6791
31.7262 1279 35.7631
31.8436 1246 35.2987
31.9611 1294 35.9722
32.0785 1209 34.7707
32.1959 1185 34.4238
32.3134 1220 34.9285
32.4308 1213 34.8281
32.5482 1175 34.2783
32.6655 1226 35.0143
32.7829 1279 35.7631
32.9002 1274 35.6931
33.0176 1242 35.242
33.1349 1289 35.9026
33.2522 1272 35.6651
33.3694 1248 35.327
33.4867 1343 36.647
33.6039 1277 35.7351
33.7211 1261 35.5106
33.8383 1178 34.322
33.9554 1176 34.2929
34.0725 1134 33.6749
34.1896 1089 33
34.3067 1161 34.0735
34.4237 1165 34.1321
34.5407 1148 33.8821
34.6577 1208 34.7563
34.7746 1164 34.1174
34.8915 1160 34.0588
35.0084 1152 33.9411
35.1252 1148 33.8821
35.242 1178 34.322
35.3587 1175 34.2783
35.4755 1168 34.176
35.5921 1180 34.3511
35.7088 1164 34.1174
35.8254 1110 33.3167
35.9419 1109 33.3017
36.0584 1099 33.1512
36.1749 1129 33.6006
36.2913 1101 33.1813
36.4077 1121 33.4813
36.524 1150 33.9116
36.6403 1146 33.8526
36.7565 1230 35.0714
36.8727 1201 34.6554
36.9889 1191 34.5109
37.1049 1195 34.5688
37.221 0 1
37.3369 0 1
37.4529 0 1
37.5687 0 1
37.6845 0 1
37.8003 0 1
37.916 0 1
38.0316 0 1
38.1472 0 1
40.5851 0 1
40.7008 0 1
40.8164 0 1
40.9322 0 1
41.048 0 1
41.1639 0 1
41.2798 0 1
41.3958 0 1
41.5118 0 1
41.6279 0 1
41.744 924 30.3974
41.8602 1037 32.2025
41.9765 1037 32.2025
42.0928 1059 32.5423
42.2091 969 31.1288
42.3255 1036 32.187
42.4419 973 31.1929
42.5584 1001 31.6386
42.675 997 31.5753
42.7915 907 30.1164
42.9081 894 29.8998
43.0248 858 29.2916
43.1415 885 29.7489
43.2582 925 30.4138
43.375 858 29.2916
43.4918 938 30.6268
43.6087 919 30.315
43.7256 862 29.3598
43.8425 866 29.4279
43.9595 845 29.0689
44.0765 888 29.7993
44.1935 868 29.4618
44.3106 862 29.3598
44.4277 838 28.9482
44.5448 815 28.5482
44.6619 755 27.4773
44.7791 771 27.7669
44.8963 783 27.9821
45.0136 698 26.4197
45.1308 758 27.5318
45.2481 847 29.1033
45.3654 804 28.3549
45.4827 813 28.5132
45.6001 808 28.4253
45.7174 795 28.1957
45.8348 745 27.2947
45.9522 805 28.3725
46.0697 722 26.8701
46.1871 762 27.6043
46.3046 725 26.9258
46.422 703 26.5141
46.5395 626 25.02
46.657 675 25.9808
46.7745 701 26.4764
46.892 703 26.5141
47.0096 748 27.3496
47.1271 723 26.8887
47.2446 701 26.4764
47.3622 637 25.2389
47.4797 632 25.1396
47.5973 637 25.2389
47.7149 668 25.8457
47.8324 669 25.865
47.95 643 25.3574
48.0675 589 24.2693
48.1851 586 24.2074
48.3027 613 24.7588
48.4202 581 24.1039
48.5378 575 23.9792
48.6554 599 24.4745
48.7729 630 25.0998
48.8904 632 25.1396
49.008 670 25.8844
49.1255 609 24.6779
49.243 686 26.1916
49.3605 646 25.4165
49.478 593 24.3516
49.5955 635 25.1992
49.713 633 25.1595
49.8304 618 24.8596
49.9479 561 23.6854
50.0653 528 22.9783
50.1827 550 23.4521
50.3001 654 25.5734
50.4175 628 25.0599
50.5348 737 27.1477
50.6521 682 26.1151
50.7694 685 26.1725
50.8867 651 25.5147
51.004 698 26.4197
51.1212 656 25.6125
51.2384 697 26.4008
51.3556 722 26.8701
51.4727 794 28.178
51.5899 766 27.6767
51.707 724 26.9072
51.824 750 27.3861
51.9411 803 28.3373
52.0581 740 27.2029
52.175 809 28.4429
52.2919 863 29.3769
52.4088 858 29.2916
52.5257 936 30.5941
52.6425 918 30.2985
52.7593 966 31.0805
52.876 966 31.0805
52.9927 944 30.7246
53.1094 968 31.1127
53.226 986 31.4006
53.3426 862 29.3598
53.4591 969 31.1288
53.5756 833 28.8617
53.692 857 29.2746
53.8084 830 28.8097
53.9248 884 29.7321
54.0411 1038 32.218
54.1573 919 30.315
54.2735 0 1
54.3896 0 1
54.5057 0 1
54.6217 0 1
54.7377 0 1
54.8537 0 1
54.9695 0 1
55.0853 0 1
55.2011 0 1
55.3168 0 1
55.4324 0 1
57.824 0 1
57.9396 0 1
58.0553 0 1
58.1711 0 1
58.2869 0 1
58.4028 0 1
58.5187 0 1
58.6347 0 1
58.7508 0 1
58.8669 0 1
58.983 925 30.4138
59.0992 982 31.3369
59.2155 1073 32.7567
59.3318 1131 33.6303
59.4482 1145 33.8378
59.5646 1196 34.5832
59.681 1049 32.3883
59.7975 997 31.5753
59.9141 1105 33.2415
60.0306 1110 33.3167
60.1473 1009 31.7648
60.2639 1074 32.7719
60.3807 1034 32.1559
60.4974 975 31.225
60.6142 1008 31.749
60.731 1041 32.2645
60.8479 1024 32
60.9648 1021 31.9531
61.0818 1086 32.9545
61.1987 1046 32.3419
61.3158 1039 32.2335
61.4328 1023 31.9844
61.5499 1057 32.5115
61.667 1056 32.4962
61.7841 970 31.1448
61.9013 1026 32.0312
62.0185 968 31.1127
62.1357 976 31.241
62.253 855 29.2404
62.3702 859 29.3087
62.4875 928 30.4631
62.6049 949 30.8058
62.7222 1044 32.311
62.8396 1084 32.9242
62.9569 1082 32.8938
63.0743 1025 32.0156
63.1918 935 30.5778
63.3092 936 30.5941
63.4267 961 31
63.5441 962 31.0161
63.6616 918 30.2985
63.7791 932 30.5287
63.8966 922 30.3645
64.0142 958 30.9516
64.1317 909 30.1496
64.2492 916 30.2655
64.3668 912 30.1993
64.4843 931 30.5123
64.6019 946 30.7571
64.7195 956 30.9192
64.837 983 31.3528
64.9546 971 31.1609
65.0722 988 31.4325
65.1898 947 30.7734
65.3074 967 31.0966
65.4249 951 30.8383
65.5425 945 30.7409
65.6601 848 29.1204
65.7777 825 28.7228
65.8952 855 29.2404
66.0128 839 28.9655
66.1304 822 28.6705
66.2479 970 31.1448
66.3655 992 31.496
66.483 975 31.225
66.6005 1030 32.0936
66.718 1002 31.6544
66.8355 918 30.2985
66.953 941 30.6757
67.0705 846 29.0861
67.1879 880 29.6648
67.3054 858 29.2916
67.4228 882 29.6985
67.5402 853 29.2062
67.6576 860 29.3258
67.7749 874 29.5635
67.8923 946 30.7571
68.0096 935 30.5778
68.1269 941 30.6757
68.2442 1037 32.2025
68.3614 907 30.1164
68.4787 978 31.273
68.5958 999 31.607
68.713 1005 31.7017
68.8302 1030 32.0936
68.9473 975 31.225
69.0643 975 31.225
69.1814 974 31.209
69.2984 929 30.4795
69.4154 902 30.0333
69.5323 876 29.5973
69.6492 905 30.0832
69.7661 979 31.289
69.8829 1044 32.311
69.9997 1058 32.5269
70.1165 1150 33.9116
70.2332 1101 33.1813
70.3499 1052 32.4345
70.4665 1095 33.0908
70.5831 1023 31.9844
70.6996 1013 31.8277
70.8161 952 30.8545
70.9326 899 29.9833
71.049 965 31.0644
71.1653 935 30.5778
71.2817 953 30.8707
71.3979 957 30.9354
71.5141 947 30.7734
71.6303 913 30.2159
71.7464 891 29.8496
71.8624 0 1
71.9784 0 1
72.0944 0 1
72.2102 0 1
72.3261 0 1
72.4418 0 1
72.5575 0 1
72.6732 0 1
75.1054 0 1
75.2209 0 1
75.3365 0 1
75.4521 0 1
75.5678 0 1
75.6835 0 1
75.7993 0 1
75.9151 0 1
76.031 0 1
76.147 792 28.1425
76.263 823 28.688
76.3791 867 29.4449
76.4952 903 30.05
76.6113 987 31.4166
76.7276 910 30.1662
76.8438 956 30.9192
76.9601 1012 31.8119
77.0765 1041 32.2645
77.1929 1004 31.686
77.3093 995 31.5436
77.4258 1086 32.9545
77.5423 1048 32.3728
77.6589 991 31.4802
77.7755 1043 32.2955
77.8921 1033 32.1403
78.0088 972 31.1769
78.1256 984 31.3688
78.2423 901 30.0167
78.3591 894 29.8998
78.4759 829 28.7924
78.5928 837 28.931
78.7097 889 29.8161
78.8266 951 30.8383
78.9436 1002 31.6544
79.0606 1012 31.8119
79.1776 1058 32.5269
79.2946 1074 32.7719
79.4117 1097 33.121
79.5288 1023 31.9844
79.6459 956 30.9192
79.7631 894 29.8998
79.8802 807 28.4077
79.9974 802 28.3196
80.1147 854 29.2233
80.2319 883 29.7153
80.3491 898 29.9666
80.4664 972 31.1769
80.5837 915 30.249
80.701 956 30.9192
80.8183 827 28.7576
80.9357 986 31.4006
81.053 914 30.2324
81.1704 973 31.1929
81.2877 943 30.7083
81.4051 929 30.4795
81.5225 939 30.6431
81.6399 952 30.8545
81.7573 859 29.3087
81.8747 840 28.9828
81.9922 840 28.9828
82.1096 782 27.9643
82.227 794 28.178
82.3444 852 29.189
82.4619 904 30.0666
82.5793 976 31.241
82.6967 989 31.4484
82.8142 904 30.0666
82.9316 955 30.9031
83.049 1003 31.6702
83.1664 908 30.133
83.2838 857 29.2746
83.4012 771 27.7669
83.5186 723 26.8887
83.636 690 26.2679
83.7534 733 27.074
83.8708 760 27.5681
83.9881 841 29
84.1055 846 29.0861
84.2228 876 29.5973
84.3401 929 30.4795
84.4575 872 29.5296
84.5747 897 29.95
84.692 979 31.289
84.8093 905 30.0832
84.9265 921 30.348
85.0437 923 30.3809
85.1609 910 30.1662
85.2781 903 30.05
85.3952 859 29.3087
85.5123 812 28.4956
85.6294 800 28.2843
85.7465 768 27.7128
85.8636 905 30.0832
85.9806 847 29.1033
86.0976 975 31.225
86.2145 987 31.4166
86.3315 1073 32.7567
86.4484 1056 32.4962
86.5652 1035 32.1714
86.682 1072 32.7414
86.7988 1119 33.4515
86.9156 991 31.4802
87.0323 896 29.9333
87.149 853 29.2062
87.2657 815 28.5482
87.3823 902 30.0333
87.4988 919 30.315
87.6154 1006 31.7175
87.7318 968 31.1127
87.8483 1019 31.9218
87.9647 1070 32.7109
88.081 1043 32.2955
88.1973 1194 34.5543
88.3136 1118 33.4365
88.4298 1079 32.8481
88.546 1057 32.5115
88.6621 1077 32.8177
88.7781 1072 32.7414
88.8942 0 1
89.0101 0 1
89.126 0 1
89.2419 0 1
89.3577 0 1
89.4734 0 1
89.5891 0 1
89.7047 0 1
89.8203 0 1
89.9358 0 1
92.3269 0 1
92.4424 0 1
92.558 0 1
92.6736 0 1
92.7893 0 1
92.905 0 1
93.0208 0 1
93.1366 0 1
93.2525 0 1
93.3685 0 1
93.4845 0 1
93.6005 1101 33.1813
93.7167 1121 33.4813
93.8328 1067 32.665
93.949 1114 33.3766
94.0653 1040 32.249
94.1816 1067 32.665
94.2979 1125 33.541
94.4143 971 31.1609
94.5307 975 31.225
94.6472 959 30.9677
94.7637 918 30.2985
94.8803 961 31
94.9969 1076 32.8024
95.1135 1076 32.8024
95.2302 1078 32.8329
95.3469 1103 33.2114
95.4637 1109 33.3017
95.5805 1118 33.4365
95.6973 1204 34.6987
95.8142 1193 34.5398
95.9311 1084 32.9242
96.048 1119 33.4515
96.1649 1046 32.3419
96.2819 982 31.3369
96.3989 867 29.4449
96.516 859 29.3087
96.633 945 30.7409
96.7501 996 31.5595
96.8673 1115 33.3916
96.9844 1094 33.0757
97.1016 1220 34.9285
97.2188 1090 33.0151
97.336 1165 34.1321
97.4532 1199 34.6266
97.5704 1178 34.322
97.6877 1115 33.3916
97.805 1125 33.541
97.9223 1066 32.6497
98.0396 995 31.5436
98.1569 904 30.0666
98.2743 940 30.6594
98.3916 919 30.315
98.509 971 31.1609
98.6264 1049 32.3883
98.7438 1077 32.8177
98.8612 1068 32.6803
98.9786 1046 32.3419
99.096 1177 34.3074
99.2134 1112 33.3467
99.3308 1155 33.9853
99.4482 1183 34.3948
99.5656 1092 33.0454
99.6831 1131 33.6303
99.8005 1093 33.0606
99.9179 971 31.1609
100.035 907 30.1164
100.153 876 29.5973
100.27 994 31.5278
100.388 1019 31.9218
100.505 1105 33.2415
100.622 1092 33.0454
100.74 1159 34.0441
100.857 1174 34.2637
100.975 1194 34.5543
101.092 1167 34.1614
101.209 1128 33.5857
101.327 1117 33.4215
101.444 1099 33.1512
101.561 1090 33.0151
101.679 1040 32.249
101.796 946 30.7571
101.913 996 31.5595
102.03 964 31.0483
102.148 1097 33.121
102.265 1107 33.2716
102.382 1202 34.6699
102.499 1168 34.176
102.616 1207 34.7419
102.733 1272 35.6651
102.851 1269 35.623
102.968 1231 35.0856
103.085 1204 34.6987
103.202 1192 34.5254
103.319 1199 34.6266
103.436 998 31.5911
103.552 924 30.3974
103.669 872 29.5296
103.786 1088 32.9848
103.903 1183 34.3948
104.02 1160 34.0588
104.137 1168 34.176
104.253 1177 34.3074
104.37 1251 35.3695
104.487 1211 34.7994
104.603 1213 34.8281
104.72 1181 34.3657
104.836 1124 33.5261
104.953 1132 33.6452
105.069 1039 32.2335
105.186 1050 32.4037
105.302 1018 31.9061
105.418 1020 31.9374
105.535 1080 32.8634
105.651 1166 34.1467
105.767 1174 34.2637
105.883 1309 36.1801
105.999 1269 35.623
106.115 0 1
106.231 0 1
106.347 0 1
106.463 0 1
106.579 0 1
106.694 0 1
106.81 0 1
106.926 0 1
107.041 0 1
107.157 0 1
109.576 0 1
109.692 0 1
109.807 0 1
109.923 0 1
110.039 0 1
110.155 0 1
110.27 0 1
110.386 0 1
110.502 0 1
110.618 1045 32.3265
110.735 1158 34.0294
110.851 1180 34.3511
110.967 1255 35.426
111.083 1271 35.6511
111.199 1264 35.5528
111.316 1296 36
111.432 1242 35.242
111.549 1283 35.819
111.665 1247 35.3129
111.782 1147 33.8674
111.898 1117 33.4215
112.015 992 31.496
112.132 891 29.8496
112.248 967 31.0966
112.365 1076 32.8024
112.482 1138 33.7343
112.599 1178 34.322
112.716 1146 33.8526
112.832 1158 34.0294
112.949 1196 34.5832
113.066 1203 34.6843
113.183 1101 33.1813
113.3 1160 34.0588
113.417 1126 33.5559
113.534 1061 32.573
113.652 931 30.5123
113.769 947 30.7734
113.886 933 30.545
114.003 964 31.0483
114.12 994 31.5278
114.238 1076 32.8024
114.355 1145 33.8378
114.472 1140 33.7639
114.589 1155 33.9853
114.707 1194 34.5543
114.824 1200 34.641
114.942 1214 34.8425
115.059 1194 34.5543
115.176 1168 34.176
115.294 1212 34.8138
115.411 1096 33.1059
115.529 1077 32.8177
115.646 949 30.8058
115.764 843 29.0345
115.881 954 30.8869
115.999 1062 32.5883
116.116 1102 33.1964
116.234 1078 32.8329
116.351 1182 34.3802
116.469 1119 33.4515
116.586 1131 33.6303
116.704 1142 33.7935
116.821 1087 32.9697
116.939 1135 33.6898
117.056 1103 33.2114
117.174 1061 32.573
117.291 945 30.7409
117.409 899 29.9833
117.526 940 30.6594
117.644 1020 31.9374
117.761 1093 33.0606
117.879 1169 34.1906
117.996 1112 33.3467
118.114 1216 34.8712
118.231 1168 34.176
118.349 1119 33.4515
118.466 1191 34.5109
118.584 1243 35.2562
118.701 1209 34.7707
118.819 1247 35.3129
118.936 1167 34.1614
119.053 1049 32.3883
119.171 1066 32.6497
119.288 993 31.5119
119.405 852 29.189
119.523 938 30.6268
119.64 1058 32.5269
119.757 1071 32.7261
119.875 1079 32.8481
119.992 1111 33.3317
120.109 1176 34.2929
120.226 1164 34.1174
120.343 1143 33.8083
120.46 1142 33.7935
120.578 1071 32.7261
120.695 1104 33.2265
120.812 1067 32.665
120.929 1002 31.6544
121.046 965 31.0644
121.163 921 30.348
121.279 896 29.9333
121.396 1017 31.8904
121.513 1091 33.0303
121.63 1190 34.4964
121.747 1133 33.6601
121.863 1124 33.5261
121.98 1112 33.3467
122.097 1213 34.8281
122.213 1118 33.4365
122.33 1181 34.3657
122.446 1183 34.3948
122.563 1152 33.9411
122.679 1083 32.909
122.795 1139 33.7491
122.912 997 31.5753
123.028 867 29.4449
123.144 841 29
123.26 893 29.8831
123.377 0 1
123.493 0 1
123.609 0 1
123.725 0 1
123.84 0 1
123.956 0 1
124.072 0 1
124.188 0 1
124.303 0 1
124.419 0 1
126.852 0 1
126.968 0 1
127.083 0 1
127.199 0 1
127.315 0 1
127.431 0 1
127.547 0 1
127.663 0 1
127.779 0 1
127.895 0 1
128.011 0 1
128.127 0 1
128.243 0 1
128.359 942 30.692
128.476 932 30.5287
128.592 1069 32.6956
128.708 1090 33.0151
128.825 1237 35.171
128.941 1242 35.242
129.058 1217 34.8855
129.174 1230 35.0714
129.291 1219 34.9142
129.408 1135 33.6898
129.524 1120 33.4664
129.641 1162 34.0881
129.758 1087 32.9697
129.875 1094 33.0757
129.992 1000 31.6228
130.108 1034 32.1559
130.225 1060 32.5576
130.342 1116 33.4066
130.459 1122 33.4963
130.576 1293 35.9583
130.693 1175 34.2783
130.81 1204 34.6987
130.928 1210 34.7851
131.045 1238 35.1852
131.162 1239 35.1994
131.279 1272 35.6651
131.396 1238 35.1852
131.513 1214 34.8425
131.631 1177 34.3074
131.748 1138 33.7343
131.865 1069 32.6956
131.983 968 31.1127
132.1 1039 32.2335
132.217 1157 34.0147
132.335 1195 34.5688
132.452 1187 34.4529
132.57 1234 35.1283
132.687 1151 33.9264
132.804 1233 35.1141
132.922 1140 33.7639
133.039 1114 33.3766
133.157 1222 34.9571
133.274 1134 33.6749
133.392 1067 32.665
133.509 1094 33.0757
133.627 1021 31.9531
133.744 1062 32.5883
133.862 1090 33.0151
133.979 1175 34.2783
134.097 1165 34.1321
134.214 1175 34.2783
134.332 1278 35.7491
134.449 1272 35.6651
134.567 1237 35.171
134.684 1257 35.4542
134.802 1260 35.4965
134.919 1275 35.7071
135.037 1252 35.3836
135.154 1272 35.6651
135.272 1154 33.9706
135.389 1066 32.6497
135.507 923 30.3809
135.624 974 31.209
135.742 1085 32.9393
135.859 1180 34.3511
135.977 1268 35.609
136.094 1232 35.0999
136.211 1221 34.9428
136.329 1171 34.2199
136.446 1250 35.3553
136.564 1230 35.0714
136.681 1220 34.9285
136.798 1204 34.6987
136.915 1088 32.9848
137.033 1148 33.8821
137.15 1027 32.0468
137.267 1011 31.7962
137.384 1017 31.8904
137.502 1096 33.1059
137.619 1122 33.4963
137.736 1146 33.8526
137.853 1209 34.7707
137.97 1240 35.2136
138.087 1232 35.0999
138.204 1213 34.8281
138.321 1220 34.9285
138.438 1231 35.0856
138.555 1140 33.7639
138.672 1282 35.805
138.788 1210 34.7851
138.905 1152 33.9411
139.022 1118 33.4365
139.139 991 31.4802
139.255 992 31.496
139.372 1051 32.4191
139.488 1180 34.3511
139.605 1199 34.6266
139.721 1176 34.2929
139.838 1316 36.2767
139.954 1245 35.2846
140.071 1219 34.9142
140.187 1243 35.2562
140.303 1212 34.8138
140.419 1119 33.4515
140.535 1117 33.4215
140.652 1047 32.3574
140.768 0 1
140.884 0 1
141 0 1
141.115 0 1
141.231 0 1
141.347 0 1
141.463 0 1
141.578 0 1
141.694 0 1
144.104 0 1
144.219 0 1
144.335 0 1
144.45 0 1
144.566 0 1
144.682 0 1
144.798 0 1
144.914 0 1
145.03 0 1
145.146 867 29.4449
145.262 935 30.5778
145.378 983 31.3528
145.494 930 30.4959
145.61 885 29.7489
145.726 869 29.4788
145.842 883 29.7153
145.959 812 28.4956
146.075 814 28.5307
146.192 830 28.8097
146.308 844 29.0517
146.425 956 30.9192
146.541 930 30.4959
146.658 956 30.9192
146.774 1009 31.7648
146.891 1018 31.9061
147.008 999 31.607
147.125 983 31.3528
147.241 1049 32.3883
147.358 1004 31.686
147.475 992 31.496
147.592 1049 32.3883
147.709 960 30.9839
147.826 916 30.2655
147.943 848 29.1204
148.06 782 27.9643
148.177 760 27.5681
148.294 843 29.0345
148.411 889 29.8161
148.528 961 31
148.645 1048 32.3728
148.762 1021 31.9531
148.88 959 30.9677
148.997 976 31.241
149.114 1047 32.3574
149.231 987 31.4166
149.349 1000 31.6228
149.466 917 30.282
149.583 915 30.249
149.701 870 29.4958
149.818 908 30.133
149.935 878 29.6311
150.053 857 29.2746
150.17 878 29.6311
150.287 859 29.3087
150.405 937 30.6105
150.522 979 31.289
150.64 955 30.9031
150.757 1020 31.9374
150.875 996 31.5595
150.992 996 31.5595
151.11 989 31.4484
151.227 1018 31.9061
151.344 986 31.4006
151.462 1002 31.6544
151.579 950 30.8221
151.697 852 29.189
151.814 795 28.1957
151.932 803 28.3373
152.049 832 28.8444
152.167 994 31.5278
152.284 1062 32.5883
152.402 1000 31.6228
152.519 1009 31.7648
152.636 1104 33.2265
152.754 1021 31.9531
152.871 1067 32.665
152.989 934 30.5614
153.106 988 31.4325
153.223 841 29
153.341 889 29.8161
153.458 906 30.0998
153.575 937 30.6105
153.693 900 30
153.81 875 29.5804
153.927 950 30.8221
154.044 947 30.7734
154.162 1022 31.9687
154.279 1009 31.7648
154.396 1001 31.6386
154.513 1100 33.1662
154.63 1109 33.3017
154.747 1093 33.0606
154.864 1038 32.218
154.981 1053 32.45
155.098 1019 31.9218
155.215 919 30.315
155.332 946 30.7571
155.449 929 30.4795
155.566 1019 31.9218
155.683 997 31.5753
155.8 1100 33.1662
155.917 1054 32.4654
156.033 1140 33.7639
156.15 0 1
156.267 0 1
156.383 0 1
156.5 0 1
156.617 0 1
156.733 0 1
156.85 0 1
156.966 0 1
157.082 0 1
157.199 0 1
157.315 0 1
157.431 0 1
157.547 0 1
157.664 0 1
157.78 0 1
157.896 0 1
158.012 0 1
158.128 0 1
158.244 0 1
158.359 0 1
158.475 0 1
158.591 0 1
158.706 0 1
