
6.15755 0 1
6.2731 0 1
6.3887 0 1
6.50437 0 1
6.62009 0 1
6.73587 0 1
6.8517 0 1
6.96759 0 1
7.08353 0 1
7.19952 0 1
7.31557 0 1
7.43166 0 1
7.54781 0 1
7.664 0 1
7.78024 0 1
7.89653 0 1
8.01286 0 1
8.12924 0 1
8.24567 0 1
8.36213 0 1
8.47864 0 1
8.59519 0 1
8.71178 0 1
8.82841 0 1
8.94508 0 1
9.06179 0 1
9.17853 0 1
9.29531 0 1
9.41212 0 1
9.52897 0 1
9.64584 0 1
9.76276 0 1
9.8797 0 1
9.99667 0 1
10.1137 0 1
10.2307 0 1
10.3478 0 1
10.4648 0 1
10.5819 0 1
10.6991 0 1
10.8162 0 1
10.9334 0 1
11.0506 0 1
11.1678 0 1
11.285 0 1
11.4023 0 1
11.5196 0 1
11.6369 0 1
11.7542 0 1
11.8715 0 1
11.9888 0 1
12.1062 0 1
12.2235 0 1
12.3409 0 1
12.4582 0 1
12.5756 0 1
12.693 0 1
12.8104 0 1
12.9278 0 1
13.0452 0 1
13.1626 0 1
13.28 0 1
13.3974 0 1
13.5149 0 1
13.6323 0 1
13.7497 0 1
13.8671 0 1
13.9845 0 1
14.1019 0 1
14.2193 0 1
14.3367 0 1
14.4541 0 1
14.5714 0 1
14.6888 0 1
14.8062 0 1
14.9235 0 1
15.0408 8393 91.6133
15.1581 8719 93.3756
15.2755 9192 95.8749
15.3927 9139 95.5981
15.51 9264 96.2497
15.6273 8977 94.747
15.7445 9245 96.1509
15.8617 9024 94.9947
15.9789 9232 96.0833
16.0961 9208 95.9583
16.2132 9511 97.5244
16.3304 9785 98.9192
16.4475 9902 99.5088
16.5646 10288 101.43
16.6816 10675 103.32
16.7986 10991 104.838
16.9156 11065 105.19
17.0326 11619 107.791
17.1496 11751 108.402
17.2665 11877 108.982
17.3833 12189 110.404
17.5002 12094 109.973
17.617 12442 111.544
17.7338 12623 112.352
17.8505 12809 113.177
17.9672 12799 113.133
18.0839 12227 110.576
18.2005 11752 108.407
18.3171 11535 107.401
18.4337 11679 108.069
18.5502 12294 110.878
18.6666 12601 112.254
18.7831 13016 114.088
18.8994 12836 113.296
19.0158 12283 110.829
19.1321 12260 110.725
19.2483 12152 110.236
19.3645 11681 108.079
19.4806 11634 107.861
19.5967 11444 106.977
19.7128 11339 106.485
19.8288 10881 104.312
19.9447 10000 100
20.0606 0 1
20.1764 0 1
20.2922 0 1
20.4079 0 1
20.5236 0 1
20.6392 0 1
20.7548 0 1
20.8702 0 1
23.3078 0 1
23.4233 0 1
23.539 0 1
23.6547 0 1
23.7704 0 1
23.8862 0 1
24.0021 0 1
24.118 0 1
24.234 0 1
24.35 0 1
24.4661 11560 107.517
24.5822 11712 108.222
24.6984 11468 107.089
24.8146 11330 106.442
24.9309 11323 106.41
25.0472 11096 105.338
25.1636 11186 105.764
25.28 11244 106.038
25.3965 11736 108.333
25.513 12126 110.118
25.6296 12475 111.692
25.7462 12869 113.442
25.8628 13116 114.525
25.9795 13176 114.787
26.0962 13541 116.366
26.213 13453 115.987
26.3298 13617 116.692
26.4466 13491 116.151
26.5635 13357 115.572
26.6804 13130 114.586
26.7973 12370 111.221
26.9143 11923 109.192
27.0313 12199 110.449
27.1483 12622 112.348
27.2653 13062 114.289
27.3824 12877 113.477
27.4996 13053 114.25
27.6167 12652 112.481
27.7339 12429 111.485
27.8511 12269 110.766
27.9683 12073 109.877
28.0855 12018 109.627
28.2028 11830 108.766
28.3201 11425 106.888
28.4374 11329 106.438
28.5547 11195 105.806
28.6721 11065 105.19
28.7894 11283 106.221
28.9068 11298 106.292
29.0242 11468 107.089
29.1416 11833 108.78
29.259 12143 110.195
29.3764 12228 110.58
29.4939 12553 112.04
29.6113 12810 113.181
29.7288 12975 113.908
29.8463 12798 113.128
29.9638 12847 113.345
30.0812 12902 113.587
30.1987 12494 111.777
30.3162 11940 109.27
30.4337 11172 105.698
30.5512 11048 105.109
30.6687 11448 106.995
30.7862 12154 110.245
30.9037 12307 110.937
31.0212 12299 110.901
31.1387 12305 110.928
31.2562 12389 111.306
31.3737 12098 109.991
31.4912 12058 109.809
31.6087 11794 108.6
31.7262 11425 106.888
31.8436 11285 106.231
31.9611 11016 104.957
32.0785 11050 105.119
32.1959 10994 104.852
32.3134 10729 103.581
32.4308 10980 104.785
32.5482 11017 104.962
32.6655 11529 107.373
32.7829 11691 108.125
32.9002 11947 109.302
33.0176 12034 109.7
33.1349 12326 111.023
33.2522 12707 112.725
33.3694 12535 111.96
33.4867 12475 111.692
33.6039 12712 112.748
33.7211 12586 112.187
33.8383 12208 110.49
33.9554 11564 107.536
34.0725 10918 104.489
34.1896 10478 102.362
34.3067 10605 102.981
34.4237 11165 105.665
34.5407 11481 107.149
34.6577 11862 108.913
34.7746 11959 109.357
34.8915 11866 108.931
35.0084 11649 107.931
35.1252 11423 106.878
35.242 11518 107.322
35.3587 11057 105.152
35.4755 11006 104.909
35.5921 11030 105.024
35.7088 10670 103.296
35.8254 10680 103.344
35.9419 10456 102.255
36.0584 10187 100.931
36.1749 10293 101.454
36.2913 10640 103.15
36.4077 10769 103.774
36.524 11063 105.181
36.6403 11178 105.726
36.7565 11758 108.434
36.8727 11655 107.958
36.9889 11776 108.517
37.1049 11771 108.494
37.221 0 1
37.3369 0 1
37.4529 0 1
37.5687 0 1
37.6845 0 1
37.8003 0 1
37.916 0 1
38.0316 0 1
38.1472 0 1
40.5851 0 1
40.7008 0 1
40.8164 0 1
40.9322 0 1
41.048 0 1
41.1639 0 1
41.2798 0 1
41.3958 0 1
41.5118 0 1
41.6279 0 1
41.744 8290 91.0494
41.8602 9056 95.163
41.9765 9467 97.2985
42.0928 9933 99.6644
42.2091 9943 99.7146
42.3255 10024 100.12
42.4419 9995 99.975
42.5584 9911 99.554
42.675 9750 98.7421
42.7915 9277 96.3172
42.9081 8654 93.0269
43.0248 8064 89.7998
43.1415 8236 90.7524
43.2582 8550 92.4662
43.375 8871 94.186
43.4918 9085 95.3153
43.6087 9034 95.0474
43.7256 9263 96.2445
43.8425 8864 94.1488
43.9595 8800 93.8083
44.0765 8597 92.72
44.1935 8287 91.033
44.3106 8397 91.6351
44.4277 8070 89.8332
44.5448 7802 88.3289
44.6619 7687 87.6755
44.7791 7237 85.0706
44.8963 7072 84.0952
45.0136 6834 82.668
45.1308 7010 83.7257
45.2481 7108 84.309
45.3654 7240 85.0882
45.4827 7322 85.5687
45.6001 7397 86.0058
45.7174 7722 87.8749
45.8348 7670 87.5785
45.9522 7678 87.6242
46.0697 7664 87.5443
46.1871 7253 85.1645
46.3046 7200 84.8528
46.422 6635 81.4555
46.5395 6224 78.8923
46.657 5972 77.2787
46.7745 6166 78.5239
46.892 6469 80.4301
47.0096 6872 82.8975
47.1271 6712 81.9268
47.2446 6714 81.939
47.3622 6646 81.523
47.4797 6703 81.8719
47.5973 6510 80.6846
47.7149 6396 79.975
47.8324 6501 80.6288
47.95 6205 78.7718
48.0675 6008 77.5113
48.1851 5832 76.3675
48.3027 5702 75.5116
48.4202 5351 73.1505
48.5378 5355 73.1779
48.6554 5416 73.5935
48.7729 5609 74.8933
48.8904 5802 76.1709
49.008 6116 78.2049
49.1255 6090 78.0385
49.243 6222 78.8797
49.3605 6544 80.895
49.478 6560 80.9938
49.5955 6650 81.5475
49.713 6673 81.6884
49.8304 6087 78.0192
49.9479 5821 76.2955
50.0653 5505 74.1957
50.1827 5355 73.1779
50.3001 5680 75.3658
50.4175 6028 77.6402
50.5348 6439 80.2434
50.6521 6743 82.1158
50.7694 7101 84.2674
50.8867 7095 84.2318
51.004 7356 85.7671
51.1212 7277 85.3053
51.2384 7324 85.5804
51.3556 7381 85.9127
51.4727 7294 85.4049
51.5899 7129 84.4334
51.707 7285 85.3522
51.824 7314 85.5219
51.9411 7143 84.5163
52.0581 7015 83.7556
52.175 7093 84.22
52.2919 7415 86.1104
52.4088 7699 87.7439
52.5257 8260 90.8845
52.6425 8514 92.2713
52.7593 8843 94.0372
52.876 9030 95.0263
52.9927 9170 95.7601
53.1094 9050 95.1315
53.226 9427 97.0927
53.3426 9313 96.5039
53.4591 9029 95.0211
53.5756 8489 92.1358
53.692 7910 88.9382
53.8084 7606 87.2124
53.9248 7849 88.5946
54.0411 8454 91.9456
54.1573 8871 94.186
54.2735 0 1
54.3896 0 1
54.5057 0 1
54.6217 0 1
54.7377 0 1
54.8537 0 1
54.9695 0 1
55.0853 0 1
55.2011 0 1
55.3168 0 1
55.4324 0 1
57.824 0 1
57.9396 0 1
58.0553 0 1
58.1711 0 1
58.2869 0 1
58.4028 0 1
58.5187 0 1
58.6347 0 1
58.7508 0 1
58.8669 0 1
58.983 8958 94.6467
59.0992 9710 98.5393
59.2155 10285 101.415
59.3318 10913 104.465
59.4482 11340 106.489
59.5646 11628 107.833
59.681 11681 108.079
59.7975 11782 108.545
59.9141 11395 106.747
60.0306 11354 106.555
60.1473 11357 106.569
60.2639 11115 105.428
60.3807 10867 104.245
60.4974 10471 102.328
60.6142 10270 101.341
60.731 10062 100.31
60.8479 9295 96.4106
60.9648 9804 99.0152
61.0818 9988 99.94
61.1987 10206 101.025
61.3158 10650 103.199
61.4328 10940 104.594
61.5499 11315 106.372
61.667 11461 107.056
61.7841 11427 106.897
61.9013 11061 105.171
62.0185 10657 103.233
62.1357 10318 101.578
62.253 9590 97.9285
62.3702 9051 95.1367
62.4875 9204 95.9375
62.6049 9597 97.9643
62.7222 10101 100.504
62.8396 10611 103.01
62.9569 10875 104.283
63.0743 11001 104.886
63.1918 11156 105.622
63.3092 11084 105.281
63.4267 10989 104.828
63.5441 10688 103.383
63.6616 10764 103.75
63.7791 10418 102.069
63.8966 10158 100.787
64.0142 9970 99.8499
64.1317 9500 97.4679
64.2492 9006 94.8999
64.3668 8915 94.4193
64.4843 9024 94.9947
64.6019 9288 96.3743
64.7195 9682 98.3972
64.837 10249 101.237
64.9546 10508 102.509
65.0722 10598 102.947
65.1898 10790 103.875
65.3074 10766 103.759
65.4249 10482 102.382
65.5425 10554 102.733
65.6601 9940 99.6995
65.7777 9181 95.8175
65.8952 8585 92.6553
66.0128 8690 93.2202
66.1304 8557 92.5041
66.2479 9235 96.0989
66.3655 9779 98.8888
66.483 10292 101.449
66.6005 10453 102.24
66.718 10992 104.843
66.8355 10911 104.456
66.953 10703 103.455
67.0705 10644 103.17
67.1879 10654 103.218
67.3054 10240 101.193
67.4228 10252 101.252
67.5402 10033 100.165
67.6576 9650 98.2344
67.7749 9217 96.0052
67.8923 8832 93.9787
68.0096 8440 91.8695
68.1269 8777 93.6856
68.2442 9205 95.9427
68.3614 9400 96.9536
68.4787 9715 98.5647
68.5958 10327 101.622
68.713 10797 103.909
68.8302 10860 104.211
68.9473 10764 103.75
69.0643 10843 104.13
69.1814 10857 104.197
69.2984 10366 101.814
69.4154 9881 99.4032
69.5323 9182 95.8228
69.6492 8607 92.7739
69.7661 9083 95.3048
69.8829 9533 97.6371
69.9997 10206 101.025
70.1165 10711 103.494
70.2332 11246 106.047
70.3499 11416 106.846
70.4665 11399 106.766
70.5831 11500 107.238
70.6996 11575 107.587
70.8161 11412 106.827
70.9326 11110 105.404
71.049 10741 103.639
71.1653 10564 102.781
71.2817 10465 102.299
71.3979 10071 100.354
71.5141 9251 96.1821
71.6303 8621 92.8493
71.7464 8044 89.6883
71.8624 0 1
71.9784 0 1
72.0944 0 1
72.2102 0 1
72.3261 0 1
72.4418 0 1
72.5575 0 1
72.6732 0 1
75.1054 0 1
75.2209 0 1
75.3365 0 1
75.4521 0 1
75.5678 0 1
75.6835 0 1
75.7993 0 1
75.9151 0 1
76.031 0 1
76.147 10102 100.509
76.263 10639 103.146
76.3791 10714 103.508
76.4952 10380 101.882
76.6113 9903 99.5138
76.7276 9375 96.8246
76.8438 8832 93.9787
76.9601 8962 94.6678
77.0765 9419 97.0515
77.1929 9877 99.3831
77.3093 10577 102.845
77.4258 11106 105.385
77.5423 11508 107.275
77.6589 11437 106.944
77.7755 11538 107.415
77.8921 11449 107
78.0088 11149 105.589
78.1256 10504 102.489
78.2423 9578 97.8673
78.3591 8733 93.4505
78.4759 8313 91.1757
78.5928 8286 91.0275
78.7097 9049 95.1262
78.8266 9728 98.6306
78.9436 10740 103.634
79.0606 10802 103.933
79.1776 10941 104.599
79.2946 11139 105.541
79.4117 11117 105.437
79.5288 11153 105.608
79.6459 11370 106.63
79.7631 11065 105.19
79.8802 10873 104.274
79.9974 10714 103.508
80.1147 10448 102.215
80.2319 9912 99.559
80.3491 9275 96.3068
80.4664 8675 93.1397
80.5837 8696 93.2523
80.701 9120 95.4987
80.8183 9674 98.3565
80.9357 10478 102.362
81.053 10872 104.269
81.1704 11103 105.371
81.2877 11005 104.905
81.4051 11146 105.575
81.5225 11336 106.471
81.6399 10759 103.726
81.7573 10508 102.509
81.8747 9465 97.2882
81.9922 8839 94.016
82.1096 8426 91.7932
82.227 8593 92.6984
82.3444 9311 96.4935
82.4619 10038 100.19
82.5793 10742 103.644
82.6967 10639 103.146
82.8142 11133 105.513
82.9316 11187 105.769
83.049 11377 106.663
83.1664 11145 105.57
83.2838 11150 105.594
83.4012 11242 106.028
83.5186 11008 104.919
83.636 10763 103.745
83.7534 10469 102.318
83.8708 10041 100.205
83.9881 9311 96.4935
84.1055 8867 94.1647
84.2228 8920 94.4458
84.3401 9390 96.902
84.4575 9762 98.8028
84.5747 10498 102.46
84.692 11150 105.594
84.8093 11697 108.153
84.9265 11435 106.935
85.0437 11663 107.995
85.1609 11527 107.364
85.2781 11027 105.01
85.3952 10041 100.205
85.5123 9488 97.4064
85.6294 8968 94.6995
85.7465 8804 93.8296
85.8636 9314 96.5091
85.9806 9931 99.6544
86.0976 10831 104.072
86.2145 11172 105.698
86.3315 11511 107.289
86.4484 11979 109.449
86.5652 12173 110.331
86.682 12217 110.531
86.7988 12201 110.458
86.9156 12085 109.932
87.0323 12014 109.608
87.149 11850 108.858
87.2657 11495 107.215
87.3823 11063 105.181
87.4988 10259 101.287
87.6154 9786 98.9242
87.7318 9480 97.3653
87.8483 9813 99.0606
87.9647 10359 101.779
88.081 10982 104.795
88.1973 11897 109.073
88.3136 12285 110.838
88.4298 12250 110.68
88.546 12251 110.684
88.6621 12215 110.521
88.7781 11772 108.499
88.8942 0 1
89.0101 0 1
89.126 0 1
89.2419 0 1
89.3577 0 1
89.4734 0 1
89.5891 0 1
89.7047 0 1
89.8203 0 1
89.9358 0 1
92.3269 0 1
92.4424 0 1
92.558 0 1
92.6736 0 1
92.7893 0 1
92.905 0 1
93.0208 0 1
93.1366 0 1
93.2525 0 1
93.3685 0 1
93.4845 0 1
93.6005 11718 108.25
93.7167 11890 109.041
93.8328 11826 108.747
93.949 11620 107.796
94.0653 11108 105.394
94.1816 10430 102.127
94.2979 9932 99.6594
94.4143 9592 97.9388
94.5307 9365 96.7729
94.6472 9667 98.3209
94.7637 10197 100.98
94.8803 10822 104.029
94.9969 11150 105.594
95.1135 11506 107.266
95.2302 11787 108.568
95.3469 11884 109.014
95.4637 12098 109.991
95.5805 12136 110.164
95.6973 12495 111.781
95.8142 12427 111.476
95.9311 12269 110.766
96.048 12043 109.741
96.1649 11840 108.812
96.2819 11401 106.775
96.3989 10838 104.106
96.516 10242 101.203
96.633 9533 97.6371
96.7501 9658 98.2751
96.8673 10111 100.553
96.9844 10571 102.815
97.1016 11336 106.471
97.2188 12202 110.463
97.336 12307 110.937
97.4532 12184 110.381
97.5704 12158 110.263
97.6877 11715 108.236
97.805 11311 106.353
97.9223 10405 102.005
98.0396 9905 99.5239
98.1569 9640 98.1835
98.2743 9283 96.3483
98.3916 9561 97.7804
98.509 10239 101.188
98.6264 10884 104.326
98.7438 11196 105.811
98.8612 11543 107.438
98.9786 11597 107.689
99.096 11977 109.439
99.2134 12250 110.68
99.3308 12031 109.686
99.4482 12052 109.782
99.5656 12011 109.595
99.6831 11693 108.134
99.8005 11356 106.565
99.9179 11261 106.118
100.035 10417 102.064
100.153 9797 98.9798
100.27 9384 96.871
100.388 9442 97.17
100.505 10253 101.257
100.622 10786 103.856
100.74 11551 107.476
100.857 11761 108.448
100.975 11970 109.407
101.092 12126 110.118
101.209 12037 109.713
101.327 11698 108.157
101.444 10831 104.072
101.561 10269 101.336
101.679 9891 99.4535
101.796 9439 97.1545
101.913 9440 97.1597
102.03 10219 101.089
102.148 10855 104.187
102.265 10488 102.411
102.382 12614 112.312
102.499 12130 110.136
102.616 12427 111.476
102.733 12420 111.445
102.851 12623 112.352
102.968 12637 112.414
103.085 12865 113.424
103.202 12517 111.879
103.319 12362 111.185
103.436 11959 109.357
103.552 11456 107.033
103.669 10415 102.054
103.786 10071 100.354
103.903 10384 101.902
104.02 11401 106.775
104.137 12054 109.791
104.253 12494 111.777
104.37 12657 112.503
104.487 13072 114.333
104.603 13008 114.053
104.72 12833 113.283
104.836 12237 110.621
104.953 11537 107.41
105.069 10842 104.125
105.186 10320 101.587
105.302 10232 101.153
105.418 10539 102.66
105.535 11398 106.761
105.651 11807 108.66
105.767 12094 109.973
105.883 12559 112.067
105.999 12768 112.996
106.115 0 1
106.231 0 1
106.347 0 1
106.463 0 1
106.579 0 1
106.694 0 1
106.81 0 1
106.926 0 1
107.041 0 1
107.157 0 1
109.576 0 1
109.692 0 1
109.807 0 1
109.923 0 1
110.039 0 1
110.155 0 1
110.27 0 1
110.386 0 1
110.502 0 1
110.618 9647 98.2191
110.735 10434 102.147
110.851 10862 104.221
110.967 10942 104.604
111.083 11011 104.933
111.199 11530 107.378
111.316 11451 107.009
111.432 11405 106.794
111.549 11202 105.84
111.665 11210 105.877
111.782 10759 103.726
111.898 10481 102.377
112.015 9852 99.2572
112.132 9143 95.619
112.248 8713 93.3435
112.365 8661 93.0645
112.482 9730 98.6408
112.599 9884 99.4183
112.716 10512 102.528
112.832 10662 103.257
112.949 10354 101.755
113.066 10617 103.039
113.183 10139 100.693
113.3 9638 98.1733
113.417 9263 96.2445
113.534 8653 93.0215
113.652 8007 89.4818
113.769 7717 87.8465
113.886 7764 88.1136
114.003 8102 90.0111
114.12 8401 91.657
114.238 8928 94.4881
114.355 8955 94.6309
114.472 9211 95.974
114.589 9226 96.0521
114.707 9169 95.7549
114.824 9328 96.5816
114.942 9313 96.5039
115.059 9134 95.572
115.176 9015 94.9474
115.294 8881 94.2391
115.411 8432 91.8259
115.529 8106 90.0333
115.646 7340 85.6738
115.764 6920 83.1865
115.881 6825 82.6136
115.999 7103 84.2793
116.116 7503 86.6199
116.234 7839 88.5381
116.351 7882 88.7806
116.469 7897 88.8651
116.586 7750 88.0341
116.704 7757 88.0738
116.821 7453 86.3308
116.939 6988 83.5943
117.056 6633 81.4432
117.174 6361 79.7559
117.291 6125 78.2624
117.409 6078 77.9615
117.526 6102 78.1153
117.644 6393 79.9562
117.761 6617 81.3449
117.879 6899 83.0602
117.996 7091 84.2081
118.114 7254 85.1704
118.231 7443 86.2728
118.349 7578 87.0517
118.466 7432 86.209
118.584 7583 87.0804
118.701 7661 87.5271
118.819 7446 86.2902
118.936 7526 86.7525
119.053 7278 85.3112
119.171 6750 82.1584
119.288 6563 81.0123
119.405 6358 79.7371
119.523 6347 79.6681
119.64 6716 81.9512
119.757 7228 85.0176
119.875 7778 88.193
119.992 7878 88.7581
120.109 7864 88.6792
120.226 7814 88.3968
120.343 8050 89.7218
120.46 7603 87.1952
120.578 7408 86.0697
120.695 6978 83.5344
120.812 7028 83.8332
120.929 6517 80.7279
121.046 6594 81.2034
121.163 6496 80.5978
121.279 6954 83.3906
121.396 7455 86.3423
121.513 7902 88.8932
121.63 8100 90
121.747 8362 91.444
121.863 8473 92.0489
121.98 8746 93.5201
122.097 8618 92.8332
122.213 8688 93.2094
122.33 8844 94.0425
122.446 8861 94.1329
122.563 8754 93.5628
122.679 8754 93.5628
122.795 8761 93.6002
122.912 8121 90.1166
123.028 7805 88.3459
123.144 7455 86.3423
123.26 7718 87.8521
123.377 0 1
123.493 0 1
123.609 0 1
123.725 0 1
123.84 0 1
123.956 0 1
124.072 0 1
124.188 0 1
124.303 0 1
124.419 0 1
126.852 0 1
126.968 0 1
127.083 0 1
127.199 0 1
127.315 0 1
127.431 0 1
127.547 0 1
127.663 0 1
127.779 0 1
127.895 0 1
128.011 0 1
128.127 0 1
128.243 0 1
128.359 9061 95.1893
128.476 8815 93.8882
128.592 9280 96.3328
128.708 9886 99.4284
128.825 10672 103.305
128.941 10850 104.163
129.058 10749 103.677
129.174 10633 103.116
129.291 10752 103.692
129.408 10475 102.347
129.524 10084 100.419
129.641 9321 96.5453
129.758 9043 95.0947
129.875 8726 93.4131
129.992 8441 91.8749
130.108 8593 92.6984
130.225 8693 93.2363
130.342 8920 94.4458
130.459 9131 95.5563
130.576 9122 95.5092
130.693 9248 96.1665
130.81 9420 97.0567
130.928 9490 97.4166
131.045 9666 98.3158
131.162 9728 98.6306
131.279 9639 98.1784
131.396 9616 98.0612
131.513 9469 97.3088
131.631 9299 96.4313
131.748 8818 93.9042
131.865 8188 90.4876
131.983 7887 88.8088
132.1 7947 89.1459
132.217 8747 93.5254
132.335 9001 94.8736
132.452 9277 96.3172
132.57 9377 96.8349
132.687 9073 95.2523
132.804 9402 96.9639
132.922 8941 94.5569
133.039 8365 91.4604
133.157 8216 90.6422
133.274 7737 87.9602
133.392 7433 86.2148
133.509 7112 84.3327
133.627 6946 83.3427
133.744 7313 85.5161
133.862 7332 85.6271
133.979 7445 86.2844
134.097 7566 86.9828
134.214 7746 88.0114
134.332 7526 86.7525
134.449 7534 86.7986
134.567 7540 86.8332
134.684 7825 88.459
134.802 7668 87.5671
134.919 7632 87.3613
135.037 7435 86.2264
135.154 7195 84.8233
135.272 6996 83.6421
135.389 6688 81.7802
135.507 6279 79.2401
135.624 6200 78.7401
135.742 6491 80.5667
135.859 6870 82.8855
135.977 7104 84.2852
136.094 6844 82.7285
136.211 6953 83.3847
136.329 6896 83.0422
136.446 6746 82.134
136.564 6631 81.431
136.681 5916 76.9155
136.798 5901 76.818
136.915 5779 76.0197
137.033 5402 73.4983
137.15 5439 73.7496
137.267 5492 74.108
137.384 5592 74.7797
137.502 5570 74.6324
137.619 5796 76.1315
137.736 6042 77.7303
137.853 6006 77.4984
137.97 6147 78.4028
138.087 6294 79.3347
138.204 6393 79.9562
138.321 6598 81.2281
138.438 6652 81.5598
138.555 6706 81.8902
138.672 6753 82.1766
138.788 6708 81.9024
138.905 6611 81.3081
139.022 6382 79.8874
139.139 6167 78.5302
139.255 6305 79.404
139.372 6755 82.1888
139.488 7223 84.9882
139.605 7676 87.6128
139.721 7697 87.7325
139.838 7977 89.3141
139.954 7697 87.7325
140.071 7667 87.5614
140.187 7681 87.6413
140.303 7478 86.4754
140.419 7169 84.6699
140.535 7008 83.7138
140.652 6725 82.0061
140.768 0 1
140.884 0 1
141 0 1
141.115 0 1
141.231 0 1
141.347 0 1
141.463 0 1
141.578 0 1
141.694 0 1
144.104 0 1
144.219 0 1
144.335 0 1
144.45 0 1
144.566 0 1
144.682 0 1
144.798 0 1
144.914 0 1
145.03 0 1
145.146 6586 81.1542
145.262 6433 80.206
145.378 6305 79.404
145.494 6117 78.2113
145.61 5899 76.8049
145.726 5588 74.7529
145.842 5465 73.9256
145.959 5376 73.3212
146.075 5333 73.0274
146.192 5419 73.6139
146.308 5546 74.4715
146.425 5429 73.6817
146.541 5483 74.0473
146.658 5565 74.5989
146.774 5595 74.7997
146.891 5552 74.5117
147.008 5552 74.5117
147.125 5620 74.9667
147.241 5382 73.3621
147.358 5571 74.6391
147.475 5310 72.8697
147.592 5242 72.4017
147.709 4834 69.527
147.826 4645 68.1542
147.943 4703 68.5784
148.06 4942 70.2994
148.177 5213 72.2011
148.294 5323 72.9589
148.411 5150 71.7635
148.528 5120 71.5542
148.645 5042 71.007
148.762 5001 70.7177
148.88 4764 69.0217
148.997 4987 70.6187
149.114 4235 65.0769
149.231 4295 65.5362
149.349 4141 64.3506
149.466 4176 64.622
149.583 4076 63.8436
149.701 4108 64.0937
149.818 4297 65.5515
149.935 4326 65.7723
150.053 4337 65.8559
150.17 4224 64.9923
150.287 4407 66.3852
150.405 4563 67.55
150.522 4539 67.3721
150.64 4596 67.7938
150.757 4599 67.8159
150.875 4759 68.9855
150.992 4697 68.5347
151.11 4791 69.217
151.227 4429 66.5507
151.344 4362 66.0454
151.462 4380 66.1816
151.579 4387 66.2344
151.697 4802 69.2965
151.814 5025 70.8872
151.932 4995 70.6753
152.049 5150 71.7635
152.167 5062 71.1477
152.284 5070 71.2039
152.402 5029 70.9154
152.519 4912 70.0857
152.636 4815 69.3902
152.754 4742 68.8622
152.871 4751 68.9275
152.989 4502 67.0969
153.106 4592 67.7643
153.223 4542 67.3944
153.341 4698 68.542
153.458 4725 68.7386
153.575 4805 69.3181
153.693 4761 69
153.81 4961 70.4344
153.927 4883 69.8785
154.044 5120 71.5542
154.162 5399 73.4779
154.279 5412 73.5663
154.396 5572 74.6458
154.513 5699 75.4917
154.63 5644 75.1266
154.747 5702 75.5116
154.864 5458 73.8783
154.981 5408 73.5391
155.098 5352 73.1574
155.215 5710 75.5645
155.332 6113 78.1857
155.449 6102 78.1153
155.566 6152 78.4347
155.683 6258 79.1075
155.8 6203 78.7591
155.917 6399 79.9937
156.033 6290 79.3095
156.15 0 1
156.267 0 1
156.383 0 1
156.5 0 1
156.617 0 1
156.733 0 1
156.85 0 1
156.966 0 1
157.082 0 1
157.199 0 1
157.315 0 1
157.431 0 1
157.547 0 1
157.664 0 1
157.78 0 1
157.896 0 1
158.012 0 1
158.128 0 1
158.244 0 1
158.359 0 1
158.475 0 1
158.591 0 1
158.706 0 1
