
6.15755 0 1
6.2731 0 1
6.3887 0 1
6.50437 0 1
6.62009 0 1
6.73587 0 1
6.8517 0 1
6.96759 0 1
7.08353 0 1
7.19952 0 1
7.31557 0 1
7.43166 0 1
7.54781 0 1
7.664 0 1
7.78024 0 1
7.89653 0 1
8.01286 0 1
8.12924 0 1
8.24567 0 1
8.36213 0 1
8.47864 0 1
8.59519 0 1
8.71178 0 1
8.82841 0 1
8.94508 0 1
9.06179 0 1
9.17853 0 1
9.29531 0 1
9.41212 0 1
9.52897 0 1
9.64584 0 1
9.76276 0 1
9.8797 0 1
9.99667 0 1
10.1137 0 1
10.2307 0 1
10.3478 0 1
10.4648 0 1
10.5819 0 1
10.6991 0 1
10.8162 0 1
10.9334 0 1
11.0506 0 1
11.1678 0 1
11.285 0 1
11.4023 0 1
11.5196 0 1
11.6369 0 1
11.7542 0 1
11.8715 0 1
11.9888 0 1
12.1062 0 1
12.2235 0 1
12.3409 0 1
12.4582 0 1
12.5756 0 1
12.693 0 1
12.8104 0 1
12.9278 0 1
13.0452 0 1
13.1626 0 1
13.28 0 1
13.3974 0 1
13.5149 0 1
13.6323 0 1
13.7497 0 1
13.8671 0 1
13.9845 0 1
14.1019 0 1
14.2193 0 1
14.3367 0 1
14.4541 0 1
14.5714 0 1
14.6888 0 1
14.8062 0 1
14.9235 0 1
15.0408 872 29.5296
15.1581 936 30.5941
15.2755 935 30.5778
15.3927 974 31.209
15.51 900 30
15.6273 829 28.7924
15.7445 803 28.3373
15.8617 830 28.8097
15.9789 852 29.189
16.0961 794 28.178
16.2132 852 29.189
16.3304 884 29.7321
16.4475 791 28.1247
16.5646 819 28.6182
16.6816 795 28.1957
16.7986 781 27.9464
16.9156 739 27.1846
17.0326 753 27.4408
17.1496 718 26.7955
17.2665 735 27.1109
17.3833 729 27
17.5002 738 27.1662
17.617 715 26.7395
17.7338 773 27.8029
17.8505 732 27.0555
17.9672 718 26.7955
18.0839 717 26.7769
18.2005 710 26.6458
18.3171 772 27.7849
18.4337 718 26.7955
18.5502 723 26.8887
18.6666 809 28.4429
18.7831 752 27.4226
18.8994 766 27.6767
19.0158 648 25.4558
19.1321 647 25.4362
19.2483 592 24.3311
19.3645 639 25.2784
19.4806 650 25.4951
19.5967 623 24.96
19.7128 595 24.3926
19.8288 595 24.3926
19.9447 539 23.2164
20.0606 0 1
20.1764 0 1
20.2922 0 1
20.4079 0 1
20.5236 0 1
20.6392 0 1
20.7548 0 1
20.8702 0 1
23.3078 0 1
23.4233 0 1
23.539 0 1
23.6547 0 1
23.7704 0 1
23.8862 0 1
24.0021 0 1
24.118 0 1
24.234 0 1
24.35 0 1
24.4661 274 16.5529
24.5822 360 18.9737
24.6984 444 21.0713
24.8146 537 23.1733
24.9309 596 24.4131
25.0472 606 24.6171
25.1636 712 26.6833
25.28 725 26.9258
25.3965 821 28.6531
25.513 747 27.3313
25.6296 773 27.8029
25.7462 839 28.9655
25.8628 837 28.931
25.9795 807 28.4077
26.0962 765 27.6586
26.213 766 27.6767
26.3298 785 28.0179
26.4466 746 27.313
26.5635 726 26.9444
26.6804 714 26.7208
26.7973 702 26.4953
26.9143 645 25.3969
27.0313 647 25.4362
27.1483 686 26.1916
27.2653 687 26.2107
27.3824 696 26.3818
27.4996 746 27.313
27.6167 707 26.5895
27.7339 713 26.7021
27.8511 689 26.2488
27.9683 696 26.3818
28.0855 713 26.7021
28.2028 754 27.4591
28.3201 802 28.3196
28.4374 795 28.1957
28.5547 761 27.5862
28.6721 835 28.8964
28.7894 763 27.6225
28.9068 782 27.9643
29.0242 788 28.0713
29.1416 710 26.6458
29.259 735 27.1109
29.3764 778 27.8927
29.4939 840 28.9828
29.6113 787 28.0535
29.7288 798 28.2489
29.8463 798 28.2489
29.9638 817 28.5832
30.0812 784 28
30.1987 818 28.6007
30.3162 786 28.0357
30.4337 769 27.7308
30.5512 788 28.0713
30.6687 880 29.6648
30.7862 1006 31.7175
30.9037 927 30.4467
31.0212 911 30.1828
31.1387 914 30.2324
31.2562 945 30.7409
31.3737 902 30.0333
31.4912 837 28.931
31.6087 819 28.6182
31.7262 852 29.189
31.8436 910 30.1662
31.9611 840 28.9828
32.0785 880 29.6648
32.1959 835 28.8964
32.3134 853 29.2062
32.4308 848 29.1204
32.5482 841 29
32.6655 771 27.7669
32.7829 788 28.0713
32.9002 747 27.3313
33.0176 822 28.6705
33.1349 849 29.1376
33.2522 841 29
33.3694 866 29.4279
33.4867 828 28.775
33.6039 887 29.7825
33.7211 749 27.3679
33.8383 726 26.9444
33.9554 775 27.8388
34.0725 672 25.923
34.1896 694 26.3439
34.3067 745 27.2947
34.4237 733 27.074
34.5407 706 26.5707
34.6577 722 26.8701
34.7746 770 27.7489
34.8915 739 27.1846
35.0084 662 25.7294
35.1252 673 25.9422
35.242 620 24.8998
35.3587 651 25.5147
35.4755 696 26.3818
35.5921 693 26.3249
35.7088 724 26.9072
35.8254 727 26.9629
35.9419 716 26.7582
36.0584 687 26.2107
36.1749 620 24.8998
36.2913 633 25.1595
36.4077 593 24.3516
36.524 586 24.2074
36.6403 580 24.0832
36.7565 527 22.9565
36.8727 528 22.9783
36.9889 461 21.4709
37.1049 423 20.567
37.221 0 1
37.3369 0 1
37.4529 0 1
37.5687 0 1
37.6845 0 1
37.8003 0 1
37.916 0 1
38.0316 0 1
38.1472 0 1
40.5851 0 1
40.7008 0 1
40.8164 0 1
40.9322 0 1
41.048 0 1
41.1639 0 1
41.2798 0 1
41.3958 0 1
41.5118 0 1
41.6279 0 1
41.744 273 16.5227
41.8602 343 18.5203
41.9765 393 19.8242
42.0928 426 20.6398
42.2091 447 21.1424
42.3255 519 22.7816
42.4419 494 22.2261
42.5584 486 22.0454
42.675 511 22.6053
42.7915 526 22.9347
42.9081 502 22.4054
43.0248 478 21.8632
43.1415 442 21.0238
43.2582 476 21.8174
43.375 486 22.0454
43.4918 529 23
43.6087 534 23.1084
43.7256 537 23.1733
43.8425 504 22.4499
43.9595 500 22.3607
44.0765 415 20.3715
44.1935 470 21.6795
44.3106 458 21.4009
44.4277 485 22.0227
44.5448 548 23.4094
44.6619 543 23.3024
44.7791 545 23.3452
44.8963 544 23.3238
45.0136 516 22.7156
45.1308 510 22.5832
45.2481 523 22.8692
45.3654 510 22.5832
45.4827 527 22.9565
45.6001 526 22.9347
45.7174 512 22.6274
45.8348 518 22.7596
45.9522 539 23.2164
46.0697 514 22.6716
46.1871 514 22.6716
46.3046 523 22.8692
46.422 479 21.8861
46.5395 440 20.9762
46.657 448 21.166
46.7745 455 21.3307
46.892 484 22
47.0096 467 21.6102
47.1271 552 23.4947
47.2446 501 22.383
47.3622 535 23.1301
47.4797 476 21.8174
47.5973 462 21.4942
47.7149 460 21.4476
47.8324 461 21.4709
47.95 495 22.2486
48.0675 477 21.8403
48.1851 490 22.1359
48.3027 505 22.4722
48.4202 494 22.2261
48.5378 522 22.8473
48.6554 507 22.5167
48.7729 512 22.6274
48.8904 503 22.4277
49.008 501 22.383
49.1255 498 22.3159
49.243 502 22.4054
49.3605 476 21.8174
49.478 463 21.5174
49.5955 442 21.0238
49.713 457 21.3776
49.8304 461 21.4709
49.9479 432 20.7846
50.0653 419 20.4695
50.1827 403 20.0749
50.3001 436 20.8806
50.4175 403 20.0749
50.5348 454 21.3073
50.6521 475 21.7945
50.7694 448 21.166
50.8867 486 22.0454
51.004 459 21.4243
51.1212 445 21.095
51.2384 427 20.664
51.3556 428 20.6882
51.4727 442 21.0238
51.5899 488 22.0907
51.707 455 21.3307
51.824 505 22.4722
51.9411 515 22.6936
52.0581 459 21.4243
52.175 488 22.0907
52.2919 520 22.8035
52.4088 477 21.8403
52.5257 504 22.4499
52.6425 453 21.2838
52.7593 510 22.5832
52.876 447 21.1424
52.9927 434 20.8327
53.1094 474 21.7715
53.226 437 20.9045
53.3426 453 21.2838
53.4591 407 20.1742
53.5756 378 19.4422
53.692 366 19.1311
53.8084 365 19.105
53.9248 327 18.0831
54.0411 342 18.4932
54.1573 328 18.1108
54.2735 0 1
54.3896 0 1
54.5057 0 1
54.6217 0 1
54.7377 0 1
54.8537 0 1
54.9695 0 1
55.0853 0 1
55.2011 0 1
55.3168 0 1
55.4324 0 1
57.824 0 1
57.9396 0 1
58.0553 0 1
58.1711 0 1
58.2869 0 1
58.4028 0 1
58.5187 0 1
58.6347 0 1
58.7508 0 1
58.8669 0 1
58.983 539 23.2164
59.0992 645 25.3969
59.2155 828 28.775
59.3318 989 31.4484
59.4482 1111 33.3317
59.5646 1197 34.5977
59.681 1255 35.426
59.7975 1204 34.6987
59.9141 1170 34.2053
60.0306 1195 34.5688
60.1473 1217 34.8855
60.2639 1239 35.1994
60.3807 1253 35.3977
60.4974 1262 35.5246
60.6142 1278 35.7491
60.731 1242 35.242
60.8479 1221 34.9428
60.9648 1154 33.9706
61.0818 1153 33.9559
61.1987 1168 34.176
61.3158 1144 33.8231
61.4328 1093 33.0606
61.5499 1141 33.7787
61.667 1067 32.665
61.7841 981 31.3209
61.9013 939 30.6431
62.0185 886 29.7658
62.1357 825 28.7228
62.253 738 27.1662
62.3702 758 27.5318
62.4875 733 27.074
62.6049 757 27.5136
62.7222 762 27.6043
62.8396 744 27.2764
62.9569 752 27.4226
63.0743 713 26.7021
63.1918 702 26.4953
63.3092 667 25.8263
63.4267 590 24.2899
63.5441 571 23.8956
63.6616 599 24.4745
63.7791 602 24.5357
63.8966 564 23.7487
64.0142 607 24.6374
64.1317 553 23.516
64.2492 565 23.7697
64.3668 597 24.4336
64.4843 566 23.7908
64.6019 545 23.3452
64.7195 549 23.4307
64.837 575 23.9792
64.9546 560 23.6643
65.0722 604 24.5764
65.1898 574 23.9583
65.3074 559 23.6432
65.4249 515 22.6936
65.5425 549 23.4307
65.6601 508 22.5389
65.7777 507 22.5167
65.8952 500 22.3607
66.0128 545 23.3452
66.1304 561 23.6854
66.2479 593 24.3516
66.3655 537 23.1733
66.483 561 23.6854
66.6005 577 24.0208
66.718 592 24.3311
66.8355 610 24.6982
66.953 556 23.5797
67.0705 594 24.3721
67.1879 548 23.4094
67.3054 557 23.6008
67.4228 512 22.6274
67.5402 556 23.5797
67.6576 563 23.7276
67.7749 548 23.4094
67.8923 580 24.0832
68.0096 508 22.5389
68.1269 501 22.383
68.2442 538 23.1948
68.3614 549 23.4307
68.4787 565 23.7697
68.5958 503 22.4277
68.713 534 23.1084
68.8302 505 22.4722
68.9473 509 22.561
69.0643 526 22.9347
69.1814 519 22.7816
69.2984 502 22.4054
69.4154 510 22.5832
69.5323 483 21.9773
69.6492 472 21.7256
69.7661 530 23.0217
69.8829 524 22.891
69.9997 500 22.3607
70.1165 520 22.8035
70.2332 529 23
70.3499 536 23.1517
70.4665 483 21.9773
70.5831 470 21.6795
70.6996 412 20.2978
70.8161 372 19.2873
70.9326 350 18.7083
71.049 338 18.3848
71.1653 321 17.9165
71.2817 281 16.7631
71.3979 305 17.4642
71.5141 286 16.9115
71.6303 245 15.6525
71.7464 181 13.4536
71.8624 0 1
71.9784 0 1
72.0944 0 1
72.2102 0 1
72.3261 0 1
72.4418 0 1
72.5575 0 1
72.6732 0 1
75.1054 0 1
75.2209 0 1
75.3365 0 1
75.4521 0 1
75.5678 0 1
75.6835 0 1
75.7993 0 1
75.9151 0 1
76.031 0 1
76.147 353 18.7883
76.263 371 19.2614
76.3791 439 20.9523
76.4952 435 20.8567
76.6113 452 21.2603
76.7276 477 21.8403
76.8438 513 22.6495
76.9601 471 21.7025
77.0765 475 21.7945
77.1929 502 22.4054
77.3093 504 22.4499
77.4258 484 22
77.5423 495 22.2486
77.6589 488 22.0907
77.7755 486 22.0454
77.8921 490 22.1359
78.0088 465 21.5639
78.1256 444 21.0713
78.2423 437 20.9045
78.3591 417 20.4206
78.4759 409 20.2237
78.5928 391 19.7737
78.7097 459 21.4243
78.8266 478 21.8632
78.9436 455 21.3307
79.0606 461 21.4709
79.1776 446 21.1187
79.2946 472 21.7256
79.4117 461 21.4709
79.5288 457 21.3776
79.6459 480 21.9089
79.7631 469 21.6564
79.8802 453 21.2838
79.9974 455 21.3307
80.1147 463 21.5174
80.2319 465 21.5639
80.3491 477 21.8403
80.4664 503 22.4277
80.5837 493 22.2036
80.701 473 21.7486
80.8183 458 21.4009
80.9357 452 21.2603
81.053 510 22.5832
81.1704 456 21.3542
81.2877 505 22.4722
81.4051 489 22.1133
81.5225 473 21.7486
81.6399 502 22.4054
81.7573 420 20.4939
81.8747 452 21.2603
81.9922 447 21.1424
82.1096 453 21.2838
82.227 440 20.9762
82.3444 466 21.587
82.4619 457 21.3776
82.5793 487 22.0681
82.6967 476 21.8174
82.8142 445 21.095
82.9316 496 22.2711
83.049 547 23.388
83.1664 462 21.4942
83.2838 524 22.891
83.4012 531 23.0434
83.5186 474 21.7715
83.636 474 21.7715
83.7534 466 21.587
83.8708 478 21.8632
83.9881 484 22
84.1055 499 22.3383
84.2228 516 22.7156
84.3401 523 22.8692
84.4575 500 22.3607
84.5747 480 21.9089
84.692 519 22.7816
84.8093 491 22.1585
84.9265 525 22.9129
85.0437 500 22.3607
85.1609 524 22.891
85.2781 494 22.2261
85.3952 449 21.1896
85.5123 467 21.6102
85.6294 468 21.6333
85.7465 447 21.1424
85.8636 480 21.9089
85.9806 451 21.2368
86.0976 500 22.3607
86.2145 463 21.5174
86.3315 478 21.8632
86.4484 534 23.1084
86.5652 528 22.9783
86.682 560 23.6643
86.7988 555 23.5584
86.9156 532 23.0651
87.0323 532 23.0651
87.149 532 23.0651
87.2657 529 23
87.3823 554 23.5372
87.4988 539 23.2164
87.6154 499 22.3383
87.7318 482 21.9545
87.8483 464 21.5407
87.9647 432 20.7846
88.081 400 20
88.1973 390 19.7484
88.3136 314 17.72
88.4298 320 17.8885
88.546 298 17.2627
88.6621 279 16.7033
88.7781 246 15.6844
88.8942 0 1
89.0101 0 1
89.126 0 1
89.2419 0 1
89.3577 0 1
89.4734 0 1
89.5891 0 1
89.7047 0 1
89.8203 0 1
89.9358 0 1
92.3269 0 1
92.4424 0 1
92.558 0 1
92.6736 0 1
92.7893 0 1
92.905 0 1
93.0208 0 1
93.1366 0 1
93.2525 0 1
93.3685 0 1
93.4845 0 1
93.6005 425 20.6155
93.7167 472 21.7256
93.8328 482 21.9545
93.949 477 21.8403
94.0653 482 21.9545
94.1816 466 21.587
94.2979 474 21.7715
94.4143 467 21.6102
94.5307 480 21.9089
94.6472 468 21.6333
94.7637 481 21.9317
94.8803 516 22.7156
94.9969 494 22.2261
95.1135 515 22.6936
95.2302 496 22.2711
95.3469 481 21.9317
95.4637 536 23.1517
95.5805 526 22.9347
95.6973 506 22.4944
95.8142 536 23.1517
95.9311 505 22.4722
96.048 556 23.5797
96.1649 535 23.1301
96.2819 534 23.1084
96.3989 498 22.3159
96.516 498 22.3159
96.633 515 22.6936
96.7501 558 23.622
96.8673 512 22.6274
96.9844 554 23.5372
97.1016 535 23.1301
97.2188 541 23.2594
97.336 535 23.1301
97.4532 501 22.383
97.5704 460 21.4476
97.6877 495 22.2486
97.805 441 21
97.9223 466 21.587
98.0396 477 21.8403
98.1569 494 22.2261
98.2743 478 21.8632
98.3916 514 22.6716
98.509 529 23
98.6264 514 22.6716
98.7438 481 21.9317
98.8612 498 22.3159
98.9786 528 22.9783
99.096 533 23.0868
99.2134 558 23.622
99.3308 543 23.3024
99.4482 536 23.1517
99.5656 551 23.4734
99.6831 532 23.0651
99.8005 547 23.388
99.9179 550 23.4521
100.035 571 23.8956
100.153 532 23.0651
100.27 560 23.6643
100.388 595 24.3926
100.505 535 23.1301
100.622 525 22.9129
100.74 523 22.8692
100.857 552 23.4947
100.975 544 23.3238
101.092 515 22.6936
101.209 512 22.6274
101.327 488 22.0907
101.444 471 21.7025
101.561 508 22.5389
101.679 472 21.7256
101.796 547 23.388
101.913 542 23.2809
102.03 569 23.8537
102.148 552 23.4947
102.265 512 22.6274
102.382 558 23.622
102.499 564 23.7487
102.616 543 23.3024
102.733 513 22.6495
102.851 531 23.0434
102.968 586 24.2074
103.085 489 22.1133
103.202 601 24.5153
103.319 535 23.1301
103.436 550 23.4521
103.552 534 23.1084
103.669 586 24.2074
103.786 544 23.3238
103.903 607 24.6374
104.02 537 23.1733
104.137 581 24.1039
104.253 609 24.6779
104.37 553 23.516
104.487 583 24.1454
104.603 517 22.7376
104.72 499 22.3383
104.836 483 21.9773
104.953 469 21.6564
105.069 477 21.8403
105.186 453 21.2838
105.302 416 20.3961
105.418 437 20.9045
105.535 413 20.3224
105.651 341 18.4662
105.767 338 18.3848
105.883 301 17.3494
105.999 275 16.5831
106.115 0 1
106.231 0 1
106.347 0 1
106.463 0 1
106.579 0 1
106.694 0 1
106.81 0 1
106.926 0 1
107.041 0 1
107.157 0 1
109.576 0 1
109.692 0 1
109.807 0 1
109.923 0 1
110.039 0 1
110.155 0 1
110.27 0 1
110.386 0 1
110.502 0 1
110.618 304 17.4356
110.735 362 19.0263
110.851 415 20.3715
110.967 415 20.3715
111.083 395 19.8746
111.199 409 20.2237
111.316 485 22.0227
111.432 505 22.4722
111.549 486 22.0454
111.665 524 22.891
111.782 553 23.516
111.898 494 22.2261
112.015 509 22.561
112.132 504 22.4499
112.248 457 21.3776
112.365 498 22.3159
112.482 546 23.3666
112.599 478 21.8632
112.716 468 21.6333
112.832 487 22.0681
112.949 441 21
113.066 427 20.664
113.183 438 20.9284
113.3 417 20.4206
113.417 449 21.1896
113.534 445 21.095
113.652 416 20.3961
113.769 447 21.1424
113.886 423 20.567
114.003 495 22.2486
114.12 442 21.0238
114.238 460 21.4476
114.355 480 21.9089
114.472 462 21.4942
114.589 445 21.095
114.707 454 21.3073
114.824 478 21.8632
114.942 473 21.7486
115.059 443 21.0476
115.176 458 21.4009
115.294 480 21.9089
115.411 402 20.0499
115.529 438 20.9284
115.646 448 21.166
115.764 447 21.1424
115.881 416 20.3961
115.999 435 20.8567
116.116 431 20.7605
116.234 457 21.3776
116.351 472 21.7256
116.469 449 21.1896
116.586 411 20.2731
116.704 420 20.4939
116.821 428 20.6882
116.939 419 20.4695
117.056 445 21.095
117.174 397 19.9249
117.291 357 18.8944
117.409 407 20.1742
117.526 391 19.7737
117.644 429 20.7123
117.761 391 19.7737
117.879 421 20.5183
117.996 445 21.095
118.114 394 19.8494
118.231 421 20.5183
118.349 400 20
118.466 434 20.8327
118.584 440 20.9762
118.701 460 21.4476
118.819 456 21.3542
118.936 384 19.5959
119.053 400 20
119.171 419 20.4695
119.288 389 19.7231
119.405 411 20.2731
119.523 400 20
119.64 379 19.4679
119.757 465 21.5639
119.875 432 20.7846
119.992 410 20.2485
120.109 410 20.2485
120.226 378 19.4422
120.343 387 19.6723
120.46 376 19.3907
120.578 357 18.8944
120.695 384 19.5959
120.812 337 18.3576
120.929 361 19
121.046 355 18.8414
121.163 379 19.4679
121.279 361 19
121.396 371 19.2614
121.513 381 19.5192
121.63 380 19.4936
121.747 385 19.6214
121.863 366 19.1311
121.98 333 18.2483
122.097 365 19.105
122.213 347 18.6279
122.33 328 18.1108
122.446 307 17.5214
122.563 284 16.8523
122.679 257 16.0312
122.795 253 15.906
122.912 204 14.2829
123.028 240 15.4919
123.144 245 15.6525
123.26 210 14.4914
123.377 0 1
123.493 0 1
123.609 0 1
123.725 0 1
123.84 0 1
123.956 0 1
124.072 0 1
124.188 0 1
124.303 0 1
124.419 0 1
126.852 0 1
126.968 0 1
127.083 0 1
127.199 0 1
127.315 0 1
127.431 0 1
127.547 0 1
127.663 0 1
127.779 0 1
127.895 0 1
128.011 0 1
128.127 0 1
128.243 0 1
128.359 434 20.8327
128.476 465 21.5639
128.592 451 21.2368
128.708 456 21.3542
128.825 515 22.6936
128.941 504 22.4499
129.058 494 22.2261
129.174 462 21.4942
129.291 527 22.9565
129.408 465 21.5639
129.524 503 22.4277
129.641 456 21.3542
129.758 444 21.0713
129.875 422 20.5426
129.992 423 20.567
130.108 414 20.347
130.225 421 20.5183
130.342 467 21.6102
130.459 480 21.9089
130.576 523 22.8692
130.693 532 23.0651
130.81 508 22.5389
130.928 566 23.7908
131.045 536 23.1517
131.162 547 23.388
131.279 579 24.0624
131.396 657 25.632
131.513 618 24.8596
131.631 572 23.9165
131.748 572 23.9165
131.865 598 24.454
131.983 722 26.8701
132.1 722 26.8701
132.217 779 27.9106
132.335 810 28.4605
132.452 855 29.2404
132.57 875 29.5804
132.687 951 30.8383
132.804 952 30.8545
132.922 1032 32.1248
133.039 950 30.8221
133.157 1075 32.7872
133.274 995 31.5436
133.392 1001 31.6386
133.509 977 31.257
133.627 929 30.4795
133.744 948 30.7896
133.862 897 29.95
133.979 954 30.8869
134.097 1016 31.8748
134.214 1014 31.8434
134.332 997 31.5753
134.449 973 31.1929
134.567 972 31.1769
134.684 948 30.7896
134.802 910 30.1662
134.919 951 30.8383
135.037 922 30.3645
135.154 933 30.545
135.272 811 28.4781
135.389 850 29.1548
135.507 927 30.4467
135.624 882 29.6985
135.742 972 31.1769
135.859 983 31.3528
135.977 950 30.8221
136.094 954 30.8869
136.211 912 30.1993
136.329 968 31.1127
136.446 861 29.3428
136.564 928 30.4631
136.681 923 30.3809
136.798 926 30.4302
136.915 918 30.2985
137.033 887 29.7825
137.15 828 28.775
137.267 857 29.2746
137.384 865 29.4109
137.502 875 29.5804
137.619 873 29.5466
137.736 877 29.6142
137.853 855 29.2404
137.97 857 29.2746
138.087 904 30.0666
138.204 843 29.0345
138.321 877 29.6142
138.438 847 29.1033
138.555 946 30.7571
138.672 889 29.8161
138.788 883 29.7153
138.905 808 28.4253
139.022 766 27.6767
139.139 798 28.2489
139.255 834 28.8791
139.372 844 29.0517
139.488 809 28.4429
139.605 802 28.3196
139.721 711 26.6646
139.838 619 24.8797
139.954 588 24.2487
140.071 550 23.4521
140.187 563 23.7276
140.303 498 22.3159
140.419 479 21.8861
140.535 478 21.8632
140.652 483 21.9773
140.768 0 1
140.884 0 1
141 0 1
141.115 0 1
141.231 0 1
141.347 0 1
141.463 0 1
141.578 0 1
141.694 0 1
144.104 0 1
144.219 0 1
144.335 0 1
144.45 0 1
144.566 0 1
144.682 0 1
144.798 0 1
144.914 0 1
145.03 0 1
145.146 894 29.8998
145.262 945 30.7409
145.378 916 30.2655
145.494 967 31.0966
145.61 955 30.9031
145.726 935 30.5778
145.842 976 31.241
145.959 1001 31.6386
146.075 950 30.8221
146.192 1015 31.8591
146.308 1031 32.1092
146.425 1037 32.2025
146.541 1100 33.1662
146.658 1126 33.5559
146.774 1103 33.2114
146.891 1127 33.5708
147.008 1178 34.322
147.125 1164 34.1174
147.241 1144 33.8231
147.358 1205 34.7131
147.475 1110 33.3167
147.592 1072 32.7414
147.709 1097 33.121
147.826 1200 34.641
147.943 1236 35.1568
148.06 1255 35.426
148.177 1225 35
148.294 1313 36.2353
148.411 1287 35.8748
148.528 1278 35.7491
148.645 1248 35.327
148.762 1229 35.0571
148.88 1239 35.1994
148.997 1315 36.2629
149.114 1287 35.8748
149.231 1302 36.0832
149.349 1391 37.2961
149.466 1293 35.9583
149.583 1302 36.0832
149.701 1243 35.2562
149.818 1196 34.5832
149.935 1294 35.9722
150.053 1234 35.1283
150.17 1238 35.1852
150.287 1307 36.1525
150.405 1313 36.2353
150.522 1244 35.2704
150.64 1260 35.4965
150.757 1189 34.4819
150.875 1233 35.1141
150.992 1189 34.4819
151.11 1171 34.2199
151.227 1101 33.1813
151.344 1060 32.5576
151.462 1138 33.7343
151.579 1184 34.4093
151.697 1160 34.0588
151.814 1250 35.3553
151.932 1220 34.9285
152.049 1279 35.7631
152.167 1196 34.5832
152.284 1227 35.0286
152.402 1276 35.7211
152.519 1235 35.1426
152.636 1256 35.4401
152.754 1219 34.9142
152.871 1257 35.4542
152.989 1232 35.0999
153.106 1199 34.6266
153.223 1140 33.7639
153.341 1179 34.3366
153.458 1089 33
153.575 1159 34.0441
153.693 1132 33.6452
153.81 1104 33.2265
153.927 1102 33.1964
154.044 1169 34.1906
154.162 1115 33.3916
154.279 1097 33.121
154.396 1013 31.8277
154.513 1055 32.4808
154.63 1017 31.8904
154.747 1029 32.078
154.864 989 31.4484
154.981 974 31.209
155.098 958 30.9516
155.215 953 30.8707
155.332 1005 31.7017
155.449 981 31.3209
155.566 1049 32.3883
155.683 1039 32.2335
155.8 1001 31.6386
155.917 954 30.8869
156.033 970 31.1448
156.15 0 1
156.267 0 1
156.383 0 1
156.5 0 1
156.617 0 1
156.733 0 1
156.85 0 1
156.966 0 1
157.082 0 1
157.199 0 1
157.315 0 1
157.431 0 1
157.547 0 1
157.664 0 1
157.78 0 1
157.896 0 1
158.012 0 1
158.128 0 1
158.244 0 1
158.359 0 1
158.475 0 1
158.591 0 1
158.706 0 1
