
6.15755 0 1
6.2731 0 1
6.3887 0 1
6.50437 0 1
6.62009 0 1
6.73587 0 1
6.8517 0 1
6.96759 0 1
7.08353 0 1
7.19952 0 1
7.31557 0 1
7.43166 0 1
7.54781 0 1
7.664 0 1
7.78024 0 1
7.89653 0 1
8.01286 0 1
8.12924 0 1
8.24567 0 1
8.36213 0 1
8.47864 0 1
8.59519 0 1
8.71178 0 1
8.82841 0 1
8.94508 0 1
9.06179 0 1
9.17853 0 1
9.29531 0 1
9.41212 0 1
9.52897 0 1
9.64584 0 1
9.76276 0 1
9.8797 0 1
9.99667 0 1
10.1137 0 1
10.2307 0 1
10.3478 0 1
10.4648 0 1
10.5819 0 1
10.6991 0 1
10.8162 0 1
10.9334 0 1
11.0506 0 1
11.1678 0 1
11.285 0 1
11.4023 0 1
11.5196 0 1
11.6369 0 1
11.7542 0 1
11.8715 0 1
11.9888 0 1
12.1062 0 1
12.2235 0 1
12.3409 0 1
12.4582 0 1
12.5756 0 1
12.693 0 1
12.8104 0 1
12.9278 0 1
13.0452 0 1
13.1626 0 1
13.28 0 1
13.3974 0 1
13.5149 0 1
13.6323 0 1
13.7497 0 1
13.8671 0 1
13.9845 0 1
14.1019 0 1
14.2193 0 1
14.3367 0 1
14.4541 0 1
14.5714 0 1
14.6888 0 1
14.8062 0 1
14.9235 0 1
15.0408 0 0
15.1581 0 0
15.2755 0 0
15.3927 0 0
15.51 0 0
15.6273 0 0
15.7445 0 0
15.8617 0 0
15.9789 0 0
16.0961 0 0
16.2132 0 0
16.3304 0 0
16.4475 0 0
16.5646 0 0
16.6816 0 0
16.7986 0 0
16.9156 0 0
17.0326 0 0
17.1496 0 0
17.2665 0 0
17.3833 0 0
17.5002 0 0
17.617 0 0
17.7338 0 0
17.8505 0 0
17.9672 0 0
18.0839 0 0
18.2005 0 0
18.3171 0 0
18.4337 0 0
18.5502 0 0
18.6666 0 0
18.7831 0 0
18.8994 0 0
19.0158 0 0
19.1321 0 0
19.2483 0 0
19.3645 0 0
19.4806 0 0
19.5967 0 0
19.7128 0 0
19.8288 0 0
19.9447 0 0
20.0606 0 1
20.1764 0 1
20.2922 0 1
20.4079 0 1
20.5236 0 1
20.6392 0 1
20.7548 0 1
20.8702 0 1
23.3078 0 1
23.4233 0 1
23.539 0 1
23.6547 0 1
23.7704 0 1
23.8862 0 1
24.0021 0 1
24.118 0 1
24.234 0 1
24.35 0 1
24.4661 23138 152.112
24.5822 22687 150.622
24.6984 22306 149.352
24.8146 21959 148.186
24.9309 21650 147.139
25.0472 21226 145.691
25.1636 21408 146.315
25.28 22131 148.765
25.3965 22775 150.914
25.513 23233 152.424
25.6296 24414 156.25
25.7462 25165 158.635
25.8628 25366 159.267
25.9795 25669 160.215
26.0962 25528 159.775
26.213 25354 159.229
26.3298 24579 156.777
26.4466 23646 153.773
26.5635 22852 151.169
26.6804 22323 149.409
26.7973 22727 150.755
26.9143 23720 154.013
27.0313 23756 154.13
27.1483 24769 157.382
27.2653 25166 158.638
27.3824 25483 159.634
27.4996 25758 160.493
27.6167 25146 158.575
27.7339 25103 158.439
27.8511 24540 156.652
27.9683 24169 155.464
28.0855 23658 153.812
28.2028 23204 152.329
28.3201 22338 149.459
28.4374 21887 147.943
28.5547 20828 144.319
28.6721 20737 144.003
28.7894 21159 145.461
28.9068 21748 147.472
29.0242 22057 148.516
29.1416 22658 150.526
29.259 23440 153.101
29.3764 24123 155.316
29.4939 24236 155.679
29.6113 24308 155.91
29.7288 23896 154.583
29.8463 23244 152.46
29.9638 22466 149.887
30.0812 21583 146.912
30.1987 20988 144.872
30.3162 21399 146.284
30.4337 22265 149.215
30.5512 22914 151.374
30.6687 23703 153.958
30.7862 24181 155.502
30.9037 24269 155.785
31.0212 24403 156.215
31.1387 24867 157.693
31.2562 24655 157.019
31.3737 24567 156.739
31.4912 23675 153.867
31.6087 23440 153.101
31.7262 23022 151.73
31.8436 22509 150.03
31.9611 22035 148.442
32.0785 20917 144.627
32.1959 20873 144.475
32.3134 20976 144.831
32.4308 21413 146.332
32.5482 22013 148.368
32.6655 22825 151.079
32.7829 23238 152.44
32.9002 23757 154.133
33.0176 23801 154.276
33.1349 23723 154.023
33.2522 23775 154.191
33.3694 24208 155.589
33.4867 23542 153.434
33.6039 22587 150.29
33.7211 21551 146.803
33.8383 20848 144.388
33.9554 21195 145.585
34.0725 21708 147.336
34.1896 22698 150.659
34.3067 23267 152.535
34.4237 23708 153.974
34.5407 23997 154.91
34.6577 24410 156.237
34.7746 24547 156.675
34.8915 24267 155.779
35.0084 24269 155.785
35.1252 23462 153.173
35.242 23489 153.261
35.3587 22813 151.04
35.4755 22686 150.619
35.5921 22131 148.765
35.7088 21544 146.779
35.8254 20781 144.156
35.9419 20558 143.381
36.0584 20410 142.864
36.1749 20925 144.655
36.2913 21479 146.557
36.4077 21812 147.689
36.524 22869 151.225
36.6403 23025 151.74
36.7565 23318 152.702
36.8727 23341 152.778
36.9889 23371 152.876
37.1049 22754 150.844
37.221 0 1
37.3369 0 1
37.4529 0 1
37.5687 0 1
37.6845 0 1
37.8003 0 1
37.916 0 1
38.0316 0 1
38.1472 0 1
40.5851 0 1
40.7008 0 1
40.8164 0 1
40.9322 0 1
41.048 0 1
41.1639 0 1
41.2798 0 1
41.3958 0 1
41.5118 0 1
41.6279 0 1
41.744 18585 136.327
41.8602 19218 138.629
41.9765 20059 141.63
42.0928 20216 142.183
42.2091 20151 141.954
42.3255 19299 138.921
42.4419 18695 136.73
42.5584 18051 134.354
42.675 17664 132.906
42.7915 17892 133.761
42.9081 19005 137.859
43.0248 19382 139.219
43.1415 20060 141.633
43.2582 20151 141.954
43.375 20491 143.147
43.4918 20624 143.611
43.6087 20339 142.615
43.7256 20374 142.738
43.8425 19855 140.908
43.9595 19671 140.253
44.0765 19199 138.56
44.1935 18629 136.488
44.3106 17931 133.907
44.4277 17400 131.909
44.5448 16553 128.658
44.6619 15618 124.972
44.7791 15392 124.064
44.8963 15726 125.403
45.0136 16252 127.483
45.1308 16562 128.693
45.2481 16870 129.885
45.3654 17151 130.962
45.4827 17386 131.856
45.6001 16778 129.53
45.7174 17223 131.236
45.8348 16800 129.615
45.9522 15992 126.459
46.0697 15197 123.276
46.1871 14295 119.562
46.3046 14013 118.377
46.422 14761 121.495
46.5395 15412 124.145
46.657 15849 125.893
46.7745 16018 126.562
46.892 16247 127.464
47.0096 16380 127.984
47.1271 16465 128.316
47.2446 16193 127.252
47.3622 15901 126.099
47.4797 15480 124.419
47.5973 15064 122.735
47.7149 14642 121.004
47.8324 14465 120.271
47.95 13550 116.404
48.0675 13184 114.822
48.1851 12061 109.823
48.3027 11870 108.95
48.4202 12019 109.631
48.5378 12176 110.345
48.6554 12497 111.79
48.7729 13149 114.669
48.8904 13532 116.327
49.008 13742 117.226
49.1255 13585 116.555
49.243 13499 116.185
49.3605 13312 115.378
49.478 12651 112.477
49.5955 12248 110.671
49.713 11799 108.623
49.8304 11783 108.55
49.9479 12683 112.619
50.0653 13339 115.495
50.1827 13924 118
50.3001 14617 120.901
50.4175 15020 122.556
50.5348 15532 124.627
50.6521 15922 126.182
50.7694 16093 126.858
50.8867 16241 127.44
51.004 16466 128.32
51.1212 16555 128.666
51.2384 16673 129.124
51.3556 16434 128.195
51.4727 16145 127.063
51.5899 15612 124.948
51.707 15255 123.511
51.824 15112 122.931
51.9411 15568 124.772
52.0581 16314 127.726
52.175 17381 131.837
52.2919 17896 133.776
52.4088 18564 136.25
52.5257 18720 136.821
52.6425 18872 137.375
52.7593 19428 139.384
52.876 19688 140.314
52.9927 19354 139.119
53.1094 18265 135.148
53.226 17580 132.59
53.3426 17527 132.39
53.4591 17483 132.223
53.5756 18868 137.361
53.692 20446 142.99
53.8084 21322 146.021
53.9248 22143 148.805
54.0411 22438 149.793
54.1573 23268 152.539
54.2735 0 1
54.3896 0 1
54.5057 0 1
54.6217 0 1
54.7377 0 1
54.8537 0 1
54.9695 0 1
55.0853 0 1
55.2011 0 1
55.3168 0 1
55.4324 0 1
57.824 0 1
57.9396 0 1
58.0553 0 1
58.1711 0 1
58.2869 0 1
58.4028 0 1
58.5187 0 1
58.6347 0 1
58.7508 0 1
58.8669 0 1
58.983 24490 156.493
59.0992 25969 161.149
59.2155 26830 163.799
59.3318 27159 164.8
59.4482 27596 166.12
59.5646 27946 167.171
59.681 27442 165.656
59.7975 27388 165.493
59.9141 26718 163.456
60.0306 25693 160.29
60.1473 24515 156.573
60.2639 23274 152.558
60.3807 22026 148.412
60.4974 20939 144.703
60.6142 21437 146.414
60.731 21399 146.284
60.8479 22271 149.235
60.9648 23158 152.178
61.0818 23618 153.681
61.1987 23938 154.719
61.3158 24233 155.67
61.4328 24030 155.016
61.5499 23169 152.214
61.667 22023 148.401
61.7841 20918 144.631
61.9013 20705 143.892
62.0185 20240 142.267
62.1357 21396 146.274
62.253 22467 149.89
62.3702 23244 152.46
62.4875 23953 154.768
62.6049 24989 158.079
62.7222 25395 159.358
62.8396 25343 159.195
62.9569 25571 159.909
63.0743 25694 160.293
63.1918 25389 159.339
63.3092 24936 157.911
63.4267 24311 155.92
63.5441 23392 152.944
63.6616 22234 149.111
63.7791 20831 144.329
63.8966 19826 140.805
64.0142 19053 138.033
64.1317 18429 135.753
64.2492 19217 138.625
64.3668 20014 141.471
64.4843 20830 144.326
64.6019 21667 147.197
64.7195 21876 147.905
64.837 21853 147.828
64.9546 21882 147.926
65.0722 21017 144.972
65.1898 20267 142.362
65.3074 19897 141.057
65.4249 18718 136.814
65.5425 18340 135.425
65.6601 18998 137.833
65.7777 19697 140.346
65.8952 20957 144.765
66.0128 21763 147.523
66.1304 22601 150.336
66.2479 23267 152.535
66.3655 24092 155.216
66.483 23925 154.677
66.6005 24198 155.557
66.718 24063 155.123
66.8355 23502 153.304
66.953 23322 152.715
67.0705 22549 150.163
67.1879 21807 147.672
67.3054 20633 143.642
67.4228 19434 139.406
67.5402 18374 135.551
67.6576 17872 133.686
67.7749 18126 134.633
67.8923 18410 135.683
68.0096 19191 138.532
68.1269 20727 143.969
68.2442 21490 146.595
68.3614 21765 147.53
68.4787 22116 148.714
68.5958 22230 149.097
68.713 21627 147.061
68.8302 20779 144.149
68.9473 19934 141.188
69.0643 18997 137.83
69.1814 18618 136.448
69.2984 19302 138.932
69.4154 20621 143.6
69.5323 21805 147.665
69.6492 23101 151.99
69.7661 24228 155.653
69.8829 25516 159.737
69.9997 25743 160.446
70.1165 26365 162.373
70.2332 26245 162.003
70.3499 26106 161.574
70.4665 26318 162.228
70.5831 25665 160.203
70.6996 24927 157.883
70.8161 24102 155.248
70.9326 23078 151.914
71.049 21828 147.743
71.1653 19909 141.099
71.2817 19004 137.855
71.3979 18486 135.963
71.5141 18610 136.418
71.6303 19150 138.384
71.7464 18433 135.768
71.8624 0 1
71.9784 0 1
72.0944 0 1
72.2102 0 1
72.3261 0 1
72.4418 0 1
72.5575 0 1
72.6732 0 1
75.1054 0 1
75.2209 0 1
75.3365 0 1
75.4521 0 1
75.5678 0 1
75.6835 0 1
75.7993 0 1
75.9151 0 1
76.031 0 1
76.147 21869 147.882
76.263 22854 151.175
76.3791 22765 150.881
76.4952 21098 145.252
76.6113 19563 139.868
76.7276 19057 138.047
76.8438 19887 141.021
76.9601 20249 142.299
77.0765 21686 147.262
77.1929 23066 151.875
77.3093 24146 155.39
77.4258 24573 156.758
77.5423 24518 156.582
77.6589 24268 155.782
77.7755 23442 153.108
77.8921 21886 147.939
78.0088 20664 143.75
78.1256 19352 139.111
78.2423 19020 137.913
78.3591 19122 138.282
78.4759 20915 144.62
78.5928 22163 148.872
78.7097 23623 153.698
78.8266 24247 155.714
78.9436 25587 159.959
79.0606 25598 159.994
79.1776 26055 161.416
79.2946 25934 161.04
79.4117 25951 161.093
79.5288 25882 160.879
79.6459 25218 158.802
79.7631 23816 154.324
79.8802 23056 151.842
79.9974 21857 147.841
80.1147 20652 143.708
80.2319 18652 136.572
80.3491 17866 133.664
80.4664 18315 135.333
80.5837 18860 137.332
80.701 20118 141.838
80.8183 21294 145.925
80.9357 21862 147.858
81.053 21918 148.047
81.1704 21854 147.831
81.2877 22207 149.02
81.4051 21269 145.839
81.5225 20470 143.073
81.6399 18819 137.182
81.7573 17976 134.075
81.8747 16954 130.208
81.9922 17244 131.316
82.1096 18456 135.853
82.227 19813 140.759
82.3444 20720 143.944
82.4619 22100 148.661
82.5793 22630 150.433
82.6967 22672 150.572
82.8142 23013 151.7
82.9316 22742 150.805
83.049 22844 151.142
83.1664 22489 149.963
83.2838 21424 146.369
83.4012 20618 143.59
83.5186 20094 141.753
83.636 19186 138.514
83.7534 18035 134.294
83.8708 16549 128.643
83.9881 15633 125.032
84.1055 15738 125.451
84.2228 16311 127.715
84.3401 17191 131.114
84.4575 18251 135.096
84.5747 19739 140.496
84.692 20344 142.632
84.8093 20405 142.846
84.9265 20152 141.958
85.0437 19548 139.814
85.1609 18202 134.915
85.2781 17139 130.916
85.3952 16753 129.433
85.5123 16546 128.631
85.6294 17260 131.377
85.7465 18691 136.715
85.8636 20465 143.056
85.9806 21674 147.221
86.0976 22505 150.017
86.2145 23876 154.519
86.3315 24220 155.628
86.4484 25129 158.521
86.5652 25180 158.682
86.682 25126 158.512
86.7988 25102 158.436
86.9156 24072 155.152
87.0323 23782 154.214
87.149 22879 151.258
87.2657 22328 149.426
87.3823 20525 143.265
87.4988 19534 139.764
87.6154 19064 138.072
87.7318 19499 139.639
87.8483 20603 143.537
87.9647 22283 149.275
88.081 24076 155.164
88.1973 24898 157.791
88.3136 24982 158.057
88.4298 24980 158.051
88.546 24659 157.032
88.6621 23040 151.789
88.7781 22117 148.718
88.8942 0 1
89.0101 0 1
89.126 0 1
89.2419 0 1
89.3577 0 1
89.4734 0 1
89.5891 0 1
89.7047 0 1
89.8203 0 1
89.9358 0 1
92.3269 0 1
92.4424 0 1
92.558 0 1
92.6736 0 1
92.7893 0 1
92.905 0 1
93.0208 0 1
93.1366 0 1
93.2525 0 1
93.3685 0 1
93.4845 0 1
93.6005 35721 189
93.7167 37504 193.659
93.8328 38838 197.074
93.949 39155 197.876
94.0653 39198 197.985
94.1816 38095 195.179
94.2979 36715 191.612
94.4143 36045 189.855
94.5307 36011 189.766
94.6472 36684 191.531
94.7637 39320 198.293
94.8803 42872 207.056
94.9969 46138 214.798
95.1135 48092 219.299
95.2302 50674 225.109
95.3469 52585 229.314
95.4637 54313 233.051
95.5805 55012 234.546
95.6973 56478 237.651
95.8142 57241 239.251
95.9311 56536 237.773
96.048 56110 236.875
96.1649 54651 233.776
96.2819 53415 231.117
96.3989 51421 226.762
96.516 48854 221.029
96.633 45446 213.181
96.7501 44357 210.611
96.8673 45231 212.676
96.9844 47479 217.897
97.1016 50931 225.679
97.2188 54600 233.666
97.336 56546 237.794
97.4532 56264 237.2
97.5704 56187 237.038
97.6877 54850 234.201
97.805 52173 228.414
97.9223 47957 218.991
98.0396 44569 211.114
98.1569 43040 207.461
98.2743 42458 206.053
98.3916 43841 209.382
98.509 47609 218.195
98.6264 50739 225.253
98.7438 53441 231.173
98.8612 55122 234.781
98.9786 56433 237.556
99.096 57606 240.012
99.2134 57955 240.738
99.3308 58504 241.876
99.4482 57749 240.31
99.5656 57399 239.581
99.6831 56457 237.607
99.8005 54249 232.914
99.9179 53165 230.575
100.035 50108 223.848
100.153 47562 218.087
100.27 44128 210.067
100.388 43573 208.741
100.505 45704 213.785
100.622 48389 219.975
100.74 52323 228.742
100.857 53836 232.026
100.975 54687 233.853
101.092 53776 231.897
101.209 53144 230.53
101.327 51092 226.035
101.444 47501 217.947
101.561 43666 208.964
101.679 40690 201.718
101.796 39099 197.735
101.913 38880 197.18
102.03 40934 202.322
102.148 43475 208.507
102.265 48728 220.744
102.382 43996 209.752
102.499 47203 217.263
102.616 46953 216.686
102.733 47524 218
102.851 46840 216.426
102.968 45770 213.939
103.085 44524 211.007
103.202 42478 206.102
103.319 40598 201.489
103.436 38441 196.064
103.552 36087 189.966
103.669 32723 180.895
103.786 30114 173.534
103.903 28730 169.499
104.02 28801 169.709
104.137 29434 171.563
104.253 31580 177.708
104.37 31103 176.36
104.487 32207 179.463
104.603 31711 178.076
104.72 30738 175.323
104.836 29441 171.584
104.953 27355 165.393
105.069 25598 159.994
105.186 23841 154.405
105.302 23379 152.902
105.418 23601 153.626
105.535 25196 158.732
105.651 27481 165.774
105.767 28969 170.203
105.883 30493 174.622
105.999 31154 176.505
106.115 0 1
106.231 0 1
106.347 0 1
106.463 0 1
106.579 0 1
106.694 0 1
106.81 0 1
106.926 0 1
107.041 0 1
107.157 0 1
109.576 0 1
109.692 0 1
109.807 0 1
109.923 0 1
110.039 0 1
110.155 0 1
110.27 0 1
110.386 0 1
110.502 0 1
110.618 23806 154.292
110.735 26437 162.595
110.851 28135 167.735
110.967 29062 170.476
111.083 29521 171.817
111.199 29952 173.066
111.316 31029 176.151
111.432 31095 176.338
111.549 30994 176.051
111.665 30385 174.313
111.782 29658 172.215
111.898 28816 169.753
112.015 27912 167.069
112.132 26154 161.722
112.248 24230 155.66
112.365 22873 151.238
112.482 22893 151.304
112.599 23109 152.016
112.716 24724 157.239
112.832 26365 162.373
112.949 26987 164.277
113.066 27089 164.587
113.183 27052 164.475
113.3 26420 162.542
113.417 25677 160.24
113.534 24511 156.56
113.652 23468 153.193
113.769 22441 149.803
113.886 22264 149.211
114.003 22327 149.422
114.12 24085 155.193
114.238 26018 161.301
114.355 27633 166.232
114.472 30102 173.499
114.589 27889 167
114.707 30207 173.802
114.824 30483 174.594
114.942 30720 175.271
115.059 30706 175.231
115.176 30425 174.428
115.294 29793 172.606
115.411 28885 169.956
115.529 28375 168.449
115.646 27673 166.352
115.764 26019 161.304
115.881 24346 156.032
115.999 23551 153.463
116.116 23819 154.334
116.234 24838 157.601
116.351 26182 161.809
116.469 27202 164.93
116.586 27972 167.248
116.704 27682 166.379
116.821 27565 166.027
116.939 26948 164.158
117.056 26392 162.456
117.174 25127 158.515
117.291 23813 154.315
117.409 23353 152.817
117.526 23456 153.154
117.644 24536 156.64
117.761 25926 161.016
117.879 27816 166.781
117.996 28748 169.552
118.114 30085 173.45
118.231 30613 174.966
118.349 30877 175.719
118.466 31405 177.215
118.584 31516 177.527
118.701 31578 177.702
118.819 30757 175.377
118.936 30110 173.522
119.053 29662 172.227
119.171 28743 169.538
119.288 27868 166.937
119.405 26322 162.241
119.523 24791 157.452
119.64 23645 153.769
119.757 24217 155.618
119.875 25190 158.714
119.992 26315 162.219
120.109 27291 165.2
120.226 27940 167.153
120.343 27574 166.054
120.46 27216 164.973
120.578 27201 164.927
120.695 26551 162.945
120.812 25742 160.443
120.929 24614 156.888
121.046 24286 155.84
121.163 23610 153.655
121.279 23984 154.868
121.396 25264 158.947
121.513 27078 164.554
121.63 28275 168.152
121.747 29747 172.473
121.863 30437 174.462
121.98 30748 175.351
122.097 31041 176.185
122.213 30954 175.937
122.33 31256 176.794
122.446 30307 174.089
122.563 30003 173.214
122.679 29705 172.351
122.795 28983 170.244
122.912 28077 167.562
123.028 27189 164.891
123.144 25992 161.22
123.26 24211 155.599
123.377 0 1
123.493 0 1
123.609 0 1
123.725 0 1
123.84 0 1
123.956 0 1
124.072 0 1
124.188 0 1
124.303 0 1
124.419 0 1
126.852 0 1
126.968 0 1
127.083 0 1
127.199 0 1
127.315 0 1
127.431 0 1
127.547 0 1
127.663 0 1
127.779 0 1
127.895 0 1
128.011 0 1
128.127 0 1
128.243 0 1
128.359 28619 169.172
128.476 27246 165.064
128.592 26245 162.003
128.708 26668 163.303
128.825 27664 166.325
128.941 28779 169.644
129.058 30448 174.494
129.174 30806 175.516
129.291 30484 174.597
129.408 30493 174.622
129.524 29960 173.09
129.641 29398 171.458
129.758 27978 167.266
129.875 26994 164.299
129.992 26026 161.326
130.108 26018 161.301
130.225 25934 161.04
130.342 27483 165.78
130.459 28424 168.594
130.576 30771 175.417
130.693 30771 175.417
130.81 31542 177.601
130.928 32102 179.17
131.045 31992 178.863
131.162 32564 180.455
131.279 32900 181.384
131.396 32549 180.413
131.513 32023 178.95
131.631 31048 176.204
131.748 30369 174.267
131.865 29989 173.173
131.983 28376 168.452
132.1 26573 163.012
132.217 26567 162.994
132.335 27197 164.915
132.452 28081 167.574
132.57 29350 171.318
132.687 29143 170.713
132.804 31122 176.414
132.922 30236 173.885
133.039 30084 173.447
133.157 29671 172.253
133.274 28490 168.79
133.392 27644 166.265
133.509 26644 163.23
133.627 26138 161.673
133.744 25854 160.792
133.862 26885 163.966
133.979 28574 169.038
134.097 29765 172.525
134.214 30723 175.28
134.332 30514 174.683
134.449 31399 177.198
134.567 31509 177.508
134.684 31662 177.938
134.802 32068 179.075
134.919 32284 179.677
135.037 31951 178.748
135.154 31460 177.37
135.272 30701 175.217
135.389 30205 173.796
135.507 29081 170.532
135.624 27537 165.943
135.742 26540 162.911
135.859 26794 163.689
135.977 27680 166.373
136.094 29268 171.079
136.211 30469 174.554
136.329 30318 174.121
136.446 30249 173.922
136.564 30061 173.381
136.681 30013 173.243
136.798 29542 171.878
136.915 28181 167.872
137.033 27384 165.481
137.15 26398 162.475
137.267 26356 162.345
137.384 25843 160.758
137.502 27075 164.545
137.619 28402 168.529
137.736 28966 170.194
137.853 29483 171.706
137.97 30686 175.174
138.087 30343 174.192
138.204 31444 177.325
138.321 32016 178.93
138.438 31870 178.522
138.555 32583 180.508
138.672 32412 180.033
138.788 32070 179.081
138.905 31326 176.992
139.022 30438 174.465
139.139 29580 171.988
139.255 28385 168.478
139.372 27793 166.712
139.488 27596 166.12
139.605 28343 168.354
139.721 29303 171.181
139.838 30404 174.367
139.954 30812 175.533
140.071 30618 174.98
140.187 30386 174.316
140.303 30262 173.96
140.419 29485 171.712
140.535 28501 168.822
140.652 27182 164.87
140.768 0 1
140.884 0 1
141 0 1
141.115 0 1
141.231 0 1
141.347 0 1
141.463 0 1
141.578 0 1
141.694 0 1
144.104 0 1
144.219 0 1
144.335 0 1
144.45 0 1
144.566 0 1
144.682 0 1
144.798 0 1
144.914 0 1
145.03 0 1
145.146 27585 166.087
145.262 27910 167.063
145.378 27871 166.946
145.494 27121 164.685
145.61 26265 162.065
145.726 25435 159.484
145.842 24957 157.978
145.959 24442 156.339
146.075 24720 157.226
146.192 25720 160.375
146.308 26592 163.071
146.425 27281 165.17
146.541 28038 167.446
146.658 28415 168.567
146.774 28665 169.307
146.891 29103 170.596
147.008 29606 172.064
147.125 30122 173.557
147.241 29891 172.89
147.358 29653 172.2
147.475 29062 170.476
147.592 28535 168.923
147.709 27779 166.67
147.826 26800 163.707
147.943 26234 161.969
148.06 25191 158.717
148.177 26064 161.443
148.294 26730 163.493
148.411 28213 167.967
148.528 28682 169.358
148.645 28601 169.118
148.762 28511 168.852
148.88 28559 168.994
148.997 27889 167
149.114 28440 168.642
149.231 27090 164.59
149.349 26342 162.302
149.466 24917 157.851
149.583 25365 159.264
149.701 24956 157.975
149.818 25862 160.817
149.935 26449 162.631
150.053 27202 164.93
150.17 27855 166.898
150.287 28203 167.937
150.405 29067 170.49
150.522 29452 171.616
150.64 29923 172.983
150.757 30091 173.468
150.875 30371 174.273
150.992 30177 173.715
151.11 29897 172.907
151.227 29307 171.193
151.344 28542 168.944
151.462 27541 165.955
151.579 26714 163.444
151.697 25998 161.239
151.814 26504 162.8
151.932 27407 165.551
152.049 28355 168.389
152.167 29578 171.983
152.284 29146 170.722
152.402 29282 171.12
152.519 29174 170.804
152.636 29046 170.429
152.754 28194 167.911
152.871 27370 165.439
152.989 26692 163.377
153.106 25771 160.533
153.223 25401 159.377
153.341 25501 159.69
153.458 26341 162.299
153.575 27421 165.593
153.693 27757 166.604
153.81 28477 168.751
153.927 29303 171.181
154.044 29594 172.029
154.162 29932 173.009
154.279 30602 174.934
154.396 31225 176.706
154.513 31443 177.322
154.63 31020 176.125
154.747 30839 175.61
154.864 30037 173.312
154.981 29574 171.971
155.098 28564 169.009
155.215 27949 167.18
155.332 27486 165.789
155.449 27709 166.46
155.566 28488 168.784
155.683 29536 171.86
155.8 30257 173.945
155.917 29959 173.087
156.033 29920 172.974
156.15 0 1
156.267 0 1
156.383 0 1
156.5 0 1
156.617 0 1
156.733 0 1
156.85 0 1
156.966 0 1
157.082 0 1
157.199 0 1
157.315 0 1
157.431 0 1
157.547 0 1
157.664 0 1
157.78 0 1
157.896 0 1
158.012 0 1
158.128 0 1
158.244 0 1
158.359 0 1
158.475 0 1
158.591 0 1
158.706 0 1
