
6.15755 0 1
6.2731 0 1
6.3887 0 1
6.50437 0 1
6.62009 0 1
6.73587 0 1
6.8517 0 1
6.96759 0 1
7.08353 0 1
7.19952 0 1
7.31557 0 1
7.43166 0 1
7.54781 0 1
7.664 0 1
7.78024 0 1
7.89653 0 1
8.01286 0 1
8.12924 0 1
8.24567 0 1
8.36213 0 1
8.47864 0 1
8.59519 0 1
8.71178 0 1
8.82841 0 1
8.94508 0 1
9.06179 0 1
9.17853 0 1
9.29531 0 1
9.41212 0 1
9.52897 0 1
9.64584 0 1
9.76276 0 1
9.8797 0 1
9.99667 0 1
10.1137 0 1
10.2307 0 1
10.3478 0 1
10.4648 0 1
10.5819 0 1
10.6991 0 1
10.8162 0 1
10.9334 0 1
11.0506 0 1
11.1678 0 1
11.285 0 1
11.4023 0 1
11.5196 0 1
11.6369 0 1
11.7542 0 1
11.8715 0 1
11.9888 0 1
12.1062 0 1
12.2235 0 1
12.3409 0 1
12.4582 0 1
12.5756 0 1
12.693 0 1
12.8104 0 1
12.9278 0 1
13.0452 0 1
13.1626 0 1
13.28 0 1
13.3974 0 1
13.5149 0 1
13.6323 0 1
13.7497 0 1
13.8671 0 1
13.9845 0 1
14.1019 0 1
14.2193 0 1
14.3367 0 1
14.4541 0 1
14.5714 0 1
14.6888 0 1
14.8062 0 1
14.9235 0 1
15.0408 1504 38.7814
15.1581 1668 40.8412
15.2755 1693 41.1461
15.3927 1727 41.5572
15.51 1781 42.2019
15.6273 1748 41.8091
15.7445 1838 42.8719
15.8617 1672 40.8901
15.9789 1795 42.3674
16.0961 1696 41.1825
16.2132 1697 41.1947
16.3304 1749 41.821
16.4475 1730 41.5933
16.5646 1923 43.852
16.6816 1964 44.317
16.7986 2017 44.911
16.9156 2068 45.4753
17.0326 2117 46.0109
17.1496 2061 45.3982
17.2665 1992 44.6318
17.3833 2056 45.3431
17.5002 2058 45.3652
17.617 1956 44.2267
17.7338 1844 42.9418
17.8505 1762 41.9762
17.9672 1744 41.7612
18.0839 1803 42.4617
18.2005 1832 42.8019
18.3171 1934 43.9773
18.4337 1976 44.4522
18.5502 1970 44.3847
18.6666 1976 44.4522
18.7831 2062 45.4093
18.8994 2098 45.8039
19.0158 1940 44.0454
19.1321 2001 44.7325
19.2483 1872 43.2666
19.3645 1707 41.3159
19.4806 1654 40.6694
19.5967 1561 39.5095
19.7128 1491 38.6135
19.8288 1266 35.5809
19.9447 1224 34.9857
20.0606 0 1
20.1764 0 1
20.2922 0 1
20.4079 0 1
20.5236 0 1
20.6392 0 1
20.7548 0 1
20.8702 0 1
23.3078 0 1
23.4233 0 1
23.539 0 1
23.6547 0 1
23.7704 0 1
23.8862 0 1
24.0021 0 1
24.118 0 1
24.234 0 1
24.35 0 1
24.4661 802 28.3196
24.5822 1008 31.749
24.6984 1172 34.2345
24.8146 1209 34.7707
24.9309 1368 36.9865
25.0472 1469 38.3275
25.1636 1605 40.0625
25.28 1760 41.9524
25.3965 1881 43.3705
25.513 2021 44.9555
25.6296 2035 45.111
25.7462 2134 46.1952
25.8628 2262 47.5605
25.9795 2232 47.244
26.0962 2180 46.6905
26.213 2016 44.8999
26.3298 2065 45.4423
26.4466 1933 43.9659
26.5635 1905 43.6463
26.6804 1924 43.8634
26.7973 1946 44.1135
26.9143 2045 45.2217
27.0313 2012 44.8553
27.1483 2032 45.0777
27.2653 2044 45.2106
27.3824 2062 45.4093
27.4996 2118 46.0217
27.6167 2142 46.2817
27.7339 2036 45.1221
27.8511 1882 43.382
27.9683 1909 43.6921
28.0855 1872 43.2666
28.2028 1852 43.0349
28.3201 1743 41.7493
28.4374 1713 41.3884
28.5547 1818 42.638
28.6721 1818 42.638
28.7894 1996 44.6766
28.9068 1982 44.5197
29.0242 2100 45.8258
29.1416 2086 45.6727
29.259 2130 46.1519
29.3764 2075 45.5522
29.4939 2018 44.9222
29.6113 2076 45.5631
29.7288 1982 44.5197
29.8463 1902 43.6119
29.9638 1783 42.2256
30.0812 1812 42.5676
30.1987 1809 42.5323
30.3162 1814 42.5911
30.4337 1884 43.4051
30.5512 1998 44.699
30.6687 1970 44.3847
30.7862 1998 44.699
30.9037 1964 44.317
31.0212 1995 44.6654
31.1387 2003 44.7549
31.2562 1968 44.3621
31.3737 1894 43.5201
31.4912 1921 43.8292
31.6087 1858 43.1045
31.7262 1847 42.9767
31.8436 1708 41.328
31.9611 1706 41.3038
32.0785 1699 41.2189
32.1959 1778 42.1663
32.3134 1877 43.3244
32.4308 1973 44.4185
32.5482 2092 45.7384
32.6655 2052 45.299
32.7829 2028 45.0333
32.9002 2045 45.2217
33.0176 2025 45
33.1349 2027 45.0222
33.2522 2033 45.0888
33.3694 1898 43.566
33.4867 1816 42.6146
33.6039 1781 42.2019
33.7211 1674 40.9145
33.8383 1647 40.5832
33.9554 1763 41.9881
34.0725 1786 42.2611
34.1896 1812 42.5676
34.3067 1904 43.6348
34.4237 1910 43.7035
34.5407 1920 43.8178
34.6577 1930 43.9318
34.7746 1924 43.8634
34.8915 1833 42.8135
35.0084 1858 43.1045
35.1252 1842 42.9185
35.242 1814 42.5911
35.3587 1783 42.2256
35.4755 1735 41.6533
35.5921 1660 40.7431
35.7088 1612 40.1497
35.8254 1634 40.4228
35.9419 1683 41.0244
36.0584 1686 41.0609
36.1749 1763 41.9881
36.2913 1855 43.0697
36.4077 1846 42.9651
36.524 1767 42.0357
36.6403 1769 42.0595
36.7565 1683 41.0244
36.8727 1566 39.5727
36.9889 1409 37.5366
37.1049 1229 35.0571
37.221 0 1
37.3369 0 1
37.4529 0 1
37.5687 0 1
37.6845 0 1
37.8003 0 1
37.916 0 1
38.0316 0 1
38.1472 0 1
40.5851 0 1
40.7008 0 1
40.8164 0 1
40.9322 0 1
41.048 0 1
41.1639 0 1
41.2798 0 1
41.3958 0 1
41.5118 0 1
41.6279 0 1
41.744 982 31.3369
41.8602 944 30.7246
41.9765 1136 33.7046
42.0928 1152 33.9411
42.2091 1173 34.2491
42.3255 1187 34.4529
42.4419 1079 32.8481
42.5584 1167 34.1614
42.675 1305 36.1248
42.7915 1387 37.2424
42.9081 1408 37.5233
43.0248 1444 38
43.1415 1493 38.6394
43.2582 1539 39.2301
43.375 1623 40.2865
43.4918 1586 39.8246
43.6087 1614 40.1746
43.7256 1628 40.3485
43.8425 1567 39.5854
43.9595 1525 39.0512
44.0765 1445 38.0132
44.1935 1521 39
44.3106 1422 37.7094
44.4277 1319 36.318
44.5448 1348 36.7151
44.6619 1324 36.3868
44.7791 1496 38.6782
44.8963 1496 38.6782
45.0136 1581 39.7618
45.1308 1725 41.5331
45.2481 1624 40.2989
45.3654 1677 40.9512
45.4827 1622 40.2741
45.6001 1550 39.37
45.7174 1630 40.3733
45.8348 1569 39.6106
45.9522 1439 37.9342
46.0697 1363 36.9188
46.1871 1371 37.027
46.3046 1407 37.51
46.422 1450 38.0789
46.5395 1532 39.1408
46.657 1594 39.9249
46.7745 1633 40.4104
46.892 1676 40.939
47.0096 1655 40.6817
47.1271 1697 41.1947
47.2446 1696 41.1825
47.3622 1642 40.5216
47.4797 1543 39.281
47.5973 1624 40.2989
47.7149 1538 39.2173
47.8324 1474 38.3927
47.95 1437 37.9078
48.0675 1389 37.2693
48.1851 1370 37.0135
48.3027 1456 38.1576
48.4202 1576 39.6989
48.5378 1582 39.7744
48.6554 1606 40.0749
48.7729 1696 41.1825
48.8904 1713 41.3884
49.008 1741 41.7253
49.1255 1627 40.3361
49.243 1579 39.7366
49.3605 1468 38.3145
49.478 1286 35.8608
49.5955 1288 35.8887
49.713 1270 35.6371
49.8304 1321 36.3456
49.9479 1405 37.4833
50.0653 1536 39.1918
50.1827 1547 39.3319
50.3001 1553 39.4081
50.4175 1678 40.9634
50.5348 1719 41.4608
50.6521 1663 40.7799
50.7694 1658 40.7185
50.8867 1654 40.6694
51.004 1694 41.1582
51.1212 1625 40.3113
51.2384 1648 40.5956
51.3556 1631 40.3856
51.4727 1488 38.5746
51.5899 1440 37.9473
51.707 1415 37.6165
51.824 1606 40.0749
51.9411 1723 41.509
52.0581 1857 43.0929
52.175 1907 43.6692
52.2919 1984 44.5421
52.4088 2052 45.299
52.5257 2110 45.9347
52.6425 2095 45.7712
52.7593 2087 45.6837
52.876 2086 45.6727
52.9927 1941 44.0568
53.1094 1781 42.2019
53.226 1713 41.3884
53.3426 1590 39.8748
53.4591 1666 40.8167
53.5756 1702 41.2553
53.692 1656 40.694
53.8084 1679 40.9756
53.9248 1667 40.8289
54.0411 1515 38.923
54.1573 1473 38.3797
54.2735 0 1
54.3896 0 1
54.5057 0 1
54.6217 0 1
54.7377 0 1
54.8537 0 1
54.9695 0 1
55.0853 0 1
55.2011 0 1
55.3168 0 1
55.4324 0 1
57.824 0 1
57.9396 0 1
58.0553 0 1
58.1711 0 1
58.2869 0 1
58.4028 0 1
58.5187 0 1
58.6347 0 1
58.7508 0 1
58.8669 0 1
58.983 1295 35.9861
59.0992 1435 37.8814
59.2155 1578 39.724
59.3318 1698 41.2068
59.4482 1731 41.6053
59.5646 1876 43.3128
59.681 1770 42.0714
59.7975 1860 43.1277
59.9141 1884 43.4051
60.0306 1897 43.5546
60.1473 1857 43.0929
60.2639 1782 42.2137
60.3807 1731 41.6053
60.4974 1728 41.5692
60.6142 1833 42.8135
60.731 2006 44.7884
60.8479 2064 45.4313
60.9648 2120 46.0435
61.0818 2049 45.2659
61.1987 2027 45.0222
61.3158 2030 45.0555
61.4328 1968 44.3621
61.5499 1803 42.4617
61.667 1759 41.9404
61.7841 1606 40.0749
61.9013 1574 39.6737
62.0185 1583 39.7869
62.1357 1713 41.3884
62.253 1790 42.3084
62.3702 1832 42.8019
62.4875 1963 44.3058
62.6049 1938 44.0227
62.7222 1972 44.4072
62.8396 2081 45.618
62.9569 2066 45.4533
63.0743 1988 44.587
63.1918 2033 45.0888
63.3092 1954 44.2041
63.4267 1971 44.3959
63.5441 1835 42.8369
63.6616 1820 42.6615
63.7791 1697 41.1947
63.8966 1677 40.9512
64.0142 1638 40.4722
64.1317 1749 41.821
64.2492 1812 42.5676
64.3668 1997 44.6878
64.4843 2035 45.111
64.6019 2004 44.7661
64.7195 2055 45.3321
64.837 2015 44.8888
64.9546 2128 46.1303
65.0722 1904 43.6348
65.1898 1773 42.107
65.3074 1638 40.4722
65.4249 1556 39.4462
65.5425 1507 38.8201
65.6601 1504 38.7814
65.7777 1662 40.7676
65.8952 1738 41.6893
66.0128 1872 43.2666
66.1304 1856 43.0813
66.2479 1939 44.0341
66.3655 1930 43.9318
66.483 1996 44.6766
66.6005 2003 44.7549
66.718 2047 45.2438
66.8355 1997 44.6878
66.953 1903 43.6234
67.0705 1892 43.4971
67.1879 1740 41.7133
67.3054 1775 42.1307
67.4228 1631 40.3856
67.5402 1568 39.598
67.6576 1696 41.1825
67.7749 1718 41.4488
67.8923 1833 42.8135
68.0096 1882 43.382
68.1269 1978 44.4747
68.2442 1941 44.0568
68.3614 1960 44.2719
68.4787 1945 44.1022
68.5958 1925 43.8748
68.713 1778 42.1663
68.8302 1669 40.8534
68.9473 1626 40.3237
69.0643 1456 38.1576
69.1814 1379 37.1349
69.2984 1435 37.8814
69.4154 1588 39.8497
69.5323 1669 40.8534
69.6492 1762 41.9762
69.7661 1867 43.2088
69.8829 1846 42.9651
69.9997 1886 43.4281
70.1165 1763 41.9881
70.2332 1734 41.6413
70.3499 1685 41.0488
70.4665 1514 38.9102
70.5831 1512 38.8844
70.6996 1421 37.6962
70.8161 1347 36.7015
70.9326 1304 36.1109
71.049 1070 32.7109
71.1653 913 30.2159
71.2817 815 28.5482
71.3979 751 27.4044
71.5141 708 26.6083
71.6303 768 27.7128
71.7464 677 26.0192
71.8624 0 1
71.9784 0 1
72.0944 0 1
72.2102 0 1
72.3261 0 1
72.4418 0 1
72.5575 0 1
72.6732 0 1
75.1054 0 1
75.2209 0 1
75.3365 0 1
75.4521 0 1
75.5678 0 1
75.6835 0 1
75.7993 0 1
75.9151 0 1
76.031 0 1
76.147 1146 33.8526
76.263 1213 34.8281
76.3791 1187 34.4529
76.4952 1257 35.4542
76.6113 1273 35.6791
76.7276 1361 36.8917
76.8438 1542 39.2683
76.9601 1649 40.6079
77.0765 1658 40.7185
77.1929 1669 40.8534
77.3093 1732 41.6173
77.4258 1693 41.1461
77.5423 1648 40.5956
77.6589 1554 39.4208
77.7755 1507 38.8201
77.8921 1334 36.524
78.0088 1270 35.6371
78.1256 1151 33.9264
78.2423 1200 34.641
78.3591 1287 35.8748
78.4759 1413 37.5899
78.5928 1457 38.1707
78.7097 1548 39.3446
78.8266 1570 39.6232
78.9436 1660 40.7431
79.0606 1707 41.3159
79.1776 1729 41.5812
79.2946 1759 41.9404
79.4117 1721 41.4849
79.5288 1758 41.9285
79.6459 1701 41.2432
79.7631 1618 40.2244
79.8802 1575 39.6863
79.9974 1508 38.833
80.1147 1360 36.8782
80.2319 1440 37.9473
80.3491 1441 37.9605
80.4664 1468 38.3145
80.5837 1601 40.0125
80.701 1726 41.5452
80.8183 1793 42.3438
80.9357 1725 41.5331
81.053 1793 42.3438
81.1704 1809 42.5323
81.2877 1752 41.8569
81.4051 1675 40.9268
81.5225 1515 38.923
81.6399 1430 37.8153
81.7573 1294 35.9722
81.8747 1207 34.7419
81.9922 1175 34.2783
82.1096 1336 36.5513
82.227 1534 39.1663
82.3444 1609 40.1123
82.4619 1686 41.0609
82.5793 1696 41.1825
82.6967 1685 41.0488
82.8142 1760 41.9524
82.9316 1761 41.9643
83.049 1731 41.6053
83.1664 1766 42.0238
83.2838 1756 41.9047
83.4012 1710 41.3521
83.5186 1609 40.1123
83.636 1557 39.4588
83.7534 1501 38.7427
83.8708 1438 37.921
83.9881 1407 37.51
84.1055 1480 38.4708
84.2228 1554 39.4208
84.3401 1684 41.0366
84.4575 1807 42.5088
84.5747 1782 42.2137
84.692 1726 41.5452
84.8093 1715 41.4126
84.9265 1783 42.2256
85.0437 1623 40.2865
85.1609 1489 38.5876
85.2781 1324 36.3868
85.3952 1317 36.2905
85.5123 1175 34.2783
85.6294 1284 35.8329
85.7465 1421 37.6962
85.8636 1564 39.5474
85.9806 1590 39.8748
86.0976 1639 40.4846
86.2145 1768 42.0476
86.3315 1770 42.0714
86.4484 1829 42.7668
86.5652 1824 42.7083
86.682 1837 42.8602
86.7988 1745 41.7732
86.9156 1693 41.1461
87.0323 1755 41.8927
87.149 1716 41.4246
87.2657 1524 39.0384
87.3823 1367 36.973
87.4988 1238 35.1852
87.6154 1210 34.7851
87.7318 1228 35.0428
87.8483 1311 36.2077
87.9647 1364 36.9324
88.081 1365 36.9459
88.1973 1389 37.2693
88.3136 1394 37.3363
88.4298 1255 35.426
88.546 1165 34.1321
88.6621 1018 31.9061
88.7781 825 28.7228
88.8942 0 1
89.0101 0 1
89.126 0 1
89.2419 0 1
89.3577 0 1
89.4734 0 1
89.5891 0 1
89.7047 0 1
89.8203 0 1
89.9358 0 1
92.3269 0 1
92.4424 0 1
92.558 0 1
92.6736 0 1
92.7893 0 1
92.905 0 1
93.0208 0 1
93.1366 0 1
93.2525 0 1
93.3685 0 1
93.4845 0 1
93.6005 1291 35.9305
93.7167 1480 38.4708
93.8328 1500 38.7298
93.949 1544 39.2938
94.0653 1621 40.2616
94.1816 1563 39.5348
94.2979 1490 38.6005
94.4143 1359 36.8646
94.5307 1331 36.4829
94.6472 1298 36.0278
94.7637 1363 36.9188
94.8803 1453 38.1182
94.9969 1564 39.5474
95.1135 1616 40.1995
95.2302 1664 40.7922
95.3469 1727 41.5572
95.4637 1771 42.0833
95.5805 1888 43.4511
95.6973 1838 42.8719
95.8142 1867 43.2088
95.9311 1835 42.8369
96.048 1771 42.0833
96.1649 1851 43.0232
96.2819 1710 41.3521
96.3989 1764 42
96.516 1631 40.3856
96.633 1472 38.3667
96.7501 1475 38.4057
96.8673 1515 38.923
96.9844 1608 40.0999
97.1016 1625 40.3113
97.2188 1754 41.8808
97.336 1861 43.1393
97.4532 1804 42.4735
97.5704 1880 43.359
97.6877 1826 42.7317
97.805 1775 42.1307
97.9223 1614 40.1746
98.0396 1467 38.3014
98.1569 1394 37.3363
98.2743 1308 36.1663
98.3916 1264 35.5528
98.509 1440 37.9473
98.6264 1603 40.0375
98.7438 1630 40.3733
98.8612 1744 41.7612
98.9786 1744 41.7612
99.096 1885 43.4166
99.2134 1890 43.4741
99.3308 1946 44.1135
99.4482 1942 44.0681
99.5656 1897 43.5546
99.6831 1865 43.1856
99.8005 1859 43.1161
99.9179 1813 42.5793
100.035 1877 43.3244
100.153 1721 41.4849
100.27 1552 39.3954
100.388 1622 40.2741
100.505 1716 41.4246
100.622 1868 43.2204
100.74 1832 42.8019
100.857 1961 44.2832
100.975 1990 44.6094
101.092 2037 45.1331
101.209 1983 44.5309
101.327 1884 43.4051
101.444 1951 44.1701
101.561 1647 40.5832
101.679 1543 39.281
101.796 1450 38.0789
101.913 1360 36.8782
102.03 1434 37.8682
102.148 1555 39.4335
102.265 1690 41.1096
102.382 1909 43.6921
102.499 1873 43.2782
102.616 2050 45.2769
102.733 1930 43.9318
102.851 1944 44.0908
102.968 1987 44.5758
103.085 2025 45
103.202 1985 44.5533
103.319 2057 45.3542
103.436 2017 44.911
103.552 1876 43.3128
103.669 1778 42.1663
103.786 1691 41.1218
103.903 1649 40.6079
104.02 1769 42.0595
104.137 1800 42.4264
104.253 1909 43.6921
104.37 2094 45.7602
104.487 2019 44.9333
104.603 2124 46.0869
104.72 2059 45.3762
104.836 1942 44.0681
104.953 1767 42.0357
105.069 1636 40.4475
105.186 1418 37.6563
105.302 1317 36.2905
105.418 1261 35.5106
105.535 1203 34.6843
105.651 1246 35.2987
105.767 1313 36.2353
105.883 1233 35.1141
105.999 1185 34.4238
106.115 0 1
106.231 0 1
106.347 0 1
106.463 0 1
106.579 0 1
106.694 0 1
106.81 0 1
106.926 0 1
107.041 0 1
107.157 0 1
109.576 0 1
109.692 0 1
109.807 0 1
109.923 0 1
110.039 0 1
110.155 0 1
110.27 0 1
110.386 0 1
110.502 0 1
110.618 850 29.1548
110.735 1090 33.0151
110.851 1303 36.0971
110.967 1471 38.3536
111.083 1635 40.4351
111.199 1693 41.1461
111.316 1811 42.5558
111.432 1799 42.4146
111.549 1882 43.382
111.665 1844 42.9418
111.782 1852 43.0349
111.898 1831 42.7902
112.015 1843 42.9302
112.132 1786 42.2611
112.248 1728 41.5692
112.365 1583 39.7869
112.482 1605 40.0625
112.599 1701 41.2432
112.716 1844 42.9418
112.832 1907 43.6692
112.949 1920 43.8178
113.066 1859 43.1161
113.183 1903 43.6234
113.3 1991 44.6206
113.417 1813 42.5793
113.534 1740 41.7133
113.652 1646 40.5709
113.769 1455 38.1445
113.886 1378 37.1214
114.003 1293 35.9583
114.12 1372 37.0405
114.238 1656 40.694
114.355 1735 41.6533
114.472 1685 41.0488
114.589 1929 43.9204
114.707 1850 43.0116
114.824 1915 43.7607
114.942 1939 44.0341
115.059 2009 44.8219
115.176 1874 43.2897
115.294 1984 44.5421
115.411 1872 43.2666
115.529 1829 42.7668
115.646 1721 41.4849
115.764 1696 41.1825
115.881 1598 39.975
115.999 1583 39.7869
116.116 1651 40.6325
116.234 1757 41.9166
116.351 1881 43.3705
116.469 1951 44.1701
116.586 1961 44.2832
116.704 1978 44.4747
116.821 1943 44.0795
116.939 1890 43.4741
117.056 1815 42.6028
117.174 1791 42.3202
117.291 1543 39.281
117.409 1459 38.1969
117.526 1304 36.1109
117.644 1397 37.3765
117.761 1440 37.9473
117.879 1654 40.6694
117.996 1694 41.1582
118.114 1732 41.6173
118.231 1803 42.4617
118.349 1781 42.2019
118.466 1802 42.45
118.584 1815 42.6028
118.701 1880 43.359
118.819 1823 42.6966
118.936 1926 43.8862
119.053 1817 42.6263
119.171 1778 42.1663
119.288 1709 41.3401
119.405 1698 41.2068
119.523 1566 39.5727
119.64 1536 39.1918
119.757 1555 39.4335
119.875 1649 40.6079
119.992 1715 41.4126
120.109 1816 42.6146
120.226 1789 42.2966
120.343 1778 42.1663
120.46 1850 43.0116
120.578 1808 42.5206
120.695 1797 42.391
120.812 1708 41.328
120.929 1482 38.4968
121.046 1397 37.3765
121.163 1313 36.2353
121.279 1206 34.7275
121.396 1264 35.5528
121.513 1379 37.1349
121.63 1406 37.4967
121.747 1424 37.7359
121.863 1467 38.3014
121.98 1445 38.0132
122.097 1564 39.5474
122.213 1400 37.4166
122.33 1359 36.8646
122.446 1304 36.1109
122.563 1321 36.3456
122.679 1201 34.6554
122.795 1182 34.3802
122.912 1009 31.7648
123.028 836 28.9137
123.144 788 28.0713
123.26 699 26.4386
123.377 0 1
123.493 0 1
123.609 0 1
123.725 0 1
123.84 0 1
123.956 0 1
124.072 0 1
124.188 0 1
124.303 0 1
124.419 0 1
126.852 0 1
126.968 0 1
127.083 0 1
127.199 0 1
127.315 0 1
127.431 0 1
127.547 0 1
127.663 0 1
127.779 0 1
127.895 0 1
128.011 0 1
128.127 0 1
128.243 0 1
128.359 1636 40.4475
128.476 1755 41.8927
128.592 1684 41.0366
128.708 1655 40.6817
128.825 1759 41.9404
128.941 1790 42.3084
129.058 1939 44.0341
129.174 1906 43.6578
129.291 2016 44.8999
129.408 1960 44.2719
129.524 2009 44.8219
129.641 2028 45.0333
129.758 1897 43.5546
129.875 1718 41.4488
129.992 1622 40.2741
130.108 1532 39.1408
130.225 1487 38.5616
130.342 1392 37.3095
130.459 1508 38.833
130.576 1676 40.939
130.693 1691 41.1218
130.81 1739 41.7013
130.928 1781 42.2019
131.045 1860 43.1277
131.162 1915 43.7607
131.279 2025 45
131.396 1924 43.8634
131.513 1927 43.8976
131.631 1873 43.2782
131.748 1913 43.7379
131.865 1902 43.6119
131.983 1828 42.7551
132.1 1677 40.9512
132.217 1739 41.7013
132.335 1731 41.6053
132.452 1865 43.1856
132.57 1840 42.8952
132.687 2059 45.3762
132.804 2103 45.8585
132.922 1977 44.4635
133.039 2046 45.2327
133.157 1954 44.2041
133.274 2056 45.3431
133.392 1805 42.4853
133.509 1710 41.3521
133.627 1605 40.0625
133.744 1512 38.8844
133.862 1411 37.5633
133.979 1561 39.5095
134.097 1655 40.6817
134.214 1713 41.3884
134.332 1780 42.19
134.449 1872 43.2666
134.567 1908 43.6807
134.684 1896 43.5431
134.802 2011 44.8442
134.919 1971 44.3959
135.037 1934 43.9773
135.154 1961 44.2832
135.272 1924 43.8634
135.389 1847 42.9767
135.507 1837 42.8602
135.624 1794 42.3556
135.742 1850 43.0116
135.859 1666 40.8167
135.977 1776 42.1426
136.094 1901 43.6005
136.211 1903 43.6234
136.329 1962 44.2945
136.446 1979 44.486
136.564 2035 45.111
136.681 2046 45.2327
136.798 2018 44.9222
136.915 1950 44.1588
137.033 1912 43.7264
137.15 1748 41.8091
137.267 1633 40.4104
137.384 1548 39.3446
137.502 1475 38.4057
137.619 1517 38.9487
137.736 1688 41.0853
137.853 1735 41.6533
137.97 1799 42.4146
138.087 1766 42.0238
138.204 1983 44.5309
138.321 1893 43.5086
138.438 1957 44.238
138.555 1923 43.852
138.672 1978 44.4747
138.788 1866 43.1972
138.905 1714 41.4005
139.022 1708 41.328
139.139 1629 40.3609
139.255 1521 39
139.372 1420 37.6829
139.488 1330 36.4692
139.605 1268 35.609
139.721 1278 35.7491
139.838 1314 36.2491
139.954 1276 35.7211
140.071 1218 34.8999
140.187 1122 33.4963
140.303 1109 33.3017
140.419 970 31.1448
140.535 941 30.6757
140.652 927 30.4467
140.768 0 1
140.884 0 1
141 0 1
141.115 0 1
141.231 0 1
141.347 0 1
141.463 0 1
141.578 0 1
141.694 0 1
144.104 0 1
144.219 0 1
144.335 0 1
144.45 0 1
144.566 0 1
144.682 0 1
144.798 0 1
144.914 0 1
145.03 0 1
145.146 1372 37.0405
145.262 1548 39.3446
145.378 1501 38.7427
145.494 1646 40.5709
145.61 1624 40.2989
145.726 1558 39.4715
145.842 1398 37.3898
145.959 1301 36.0694
146.075 1250 35.3553
146.192 1162 34.0881
146.308 1255 35.426
146.425 1237 35.171
146.541 1332 36.4966
146.658 1377 37.108
146.774 1413 37.5899
146.891 1452 38.1051
147.008 1497 38.6911
147.125 1456 38.1576
147.241 1516 38.9358
147.358 1565 39.5601
147.475 1533 39.1535
147.592 1540 39.2428
147.709 1524 39.0384
147.826 1435 37.8814
147.943 1387 37.2424
148.06 1330 36.4692
148.177 1320 36.3318
148.294 1444 38
148.411 1334 36.524
148.528 1471 38.3536
148.645 1539 39.2301
148.762 1583 39.7869
148.88 1535 39.1791
148.997 1645 40.5586
149.114 1511 38.8716
149.231 1604 40.05
149.349 1581 39.7618
149.466 1526 39.064
149.583 1395 37.3497
149.701 1378 37.1214
149.818 1293 35.9583
149.935 1208 34.7563
150.053 1154 33.9706
150.17 1300 36.0555
150.287 1276 35.7211
150.405 1352 36.7696
150.522 1445 38.0132
150.64 1445 38.0132
150.757 1408 37.5233
150.875 1471 38.3536
150.992 1589 39.8623
151.11 1540 39.2428
151.227 1456 38.1576
151.344 1483 38.5097
151.462 1395 37.3497
151.579 1407 37.51
151.697 1412 37.5766
151.814 1240 35.2136
151.932 1275 35.7071
152.049 1360 36.8782
152.167 1404 37.47
152.284 1450 38.0789
152.402 1529 39.1024
152.519 1454 38.1314
152.636 1460 38.2099
152.754 1430 37.8153
152.871 1458 38.1838
152.989 1495 38.6652
153.106 1377 37.108
153.223 1326 36.4143
153.341 1301 36.0694
153.458 1208 34.7563
153.575 1206 34.7275
153.693 1207 34.7419
153.81 1192 34.5254
153.927 1277 35.7351
154.044 1288 35.8887
154.162 1314 36.2491
154.279 1362 36.9053
154.396 1425 37.7492
154.513 1353 36.7831
154.63 1331 36.4829
154.747 1362 36.9053
154.864 1339 36.5923
154.981 1340 36.606
155.098 1295 35.9861
155.215 1250 35.3553
155.332 1265 35.5668
155.449 1157 34.0147
155.566 1184 34.4093
155.683 1171 34.2199
155.8 1243 35.2562
155.917 1320 36.3318
156.033 1223 34.9714
156.15 0 1
156.267 0 1
156.383 0 1
156.5 0 1
156.617 0 1
156.733 0 1
156.85 0 1
156.966 0 1
157.082 0 1
157.199 0 1
157.315 0 1
157.431 0 1
157.547 0 1
157.664 0 1
157.78 0 1
157.896 0 1
158.012 0 1
158.128 0 1
158.244 0 1
158.359 0 1
158.475 0 1
158.591 0 1
158.706 0 1
