
6.15755 0 1
6.2731 0 1
6.3887 0 1
6.50437 0 1
6.62009 0 1
6.73587 0 1
6.8517 0 1
6.96759 0 1
7.08353 0 1
7.19952 0 1
7.31557 0 1
7.43166 0 1
7.54781 0 1
7.664 0 1
7.78024 0 1
7.89653 0 1
8.01286 0 1
8.12924 0 1
8.24567 0 1
8.36213 0 1
8.47864 0 1
8.59519 0 1
8.71178 0 1
8.82841 0 1
8.94508 0 1
9.06179 0 1
9.17853 0 1
9.29531 0 1
9.41212 0 1
9.52897 0 1
9.64584 0 1
9.76276 0 1
9.8797 0 1
9.99667 0 1
10.1137 0 1
10.2307 0 1
10.3478 0 1
10.4648 0 1
10.5819 0 1
10.6991 0 1
10.8162 0 1
10.9334 0 1
11.0506 0 1
11.1678 0 1
11.285 0 1
11.4023 0 1
11.5196 0 1
11.6369 0 1
11.7542 0 1
11.8715 0 1
11.9888 0 1
12.1062 0 1
12.2235 0 1
12.3409 0 1
12.4582 0 1
12.5756 0 1
12.693 0 1
12.8104 0 1
12.9278 0 1
13.0452 0 1
13.1626 0 1
13.28 0 1
13.3974 0 1
13.5149 0 1
13.6323 0 1
13.7497 0 1
13.8671 0 1
13.9845 0 1
14.1019 0 1
14.2193 0 1
14.3367 0 1
14.4541 0 1
14.5714 0 1
14.6888 0 1
14.8062 0 1
14.9235 0 1
15.0408 6487 80.5419
15.1581 6957 83.4086
15.2755 7012 83.7377
15.3927 6945 83.3367
15.51 6925 83.2166
15.6273 7048 83.9524
15.7445 6963 83.4446
15.8617 6831 82.6499
15.9789 6837 82.6862
16.0961 6641 81.4923
16.2132 6439 80.2434
16.3304 6609 81.2958
16.4475 6428 80.1748
16.5646 6670 81.6701
16.6816 6608 81.2896
16.7986 6600 81.2404
16.9156 6559 80.9877
17.0326 6277 79.2275
17.1496 6321 79.5047
17.2665 6421 80.1311
17.3833 6142 78.3709
17.5002 6215 78.8353
17.617 6061 77.8524
17.7338 6195 78.7083
17.8505 6366 79.7872
17.9672 6596 81.2158
18.0839 6833 82.662
18.2005 6872 82.8975
18.3171 7224 84.9941
18.4337 7201 84.8587
18.5502 7285 85.3522
18.6666 7327 85.5979
18.7831 7348 85.7205
18.8994 7295 85.4108
19.0158 6893 83.0241
19.1321 6858 82.813
19.2483 6594 81.2034
19.3645 6387 79.9187
19.4806 6129 78.2879
19.5967 5944 77.0973
19.7128 5628 75.02
19.8288 5556 74.5386
19.9447 5156 71.8053
20.0606 0 1
20.1764 0 1
20.2922 0 1
20.4079 0 1
20.5236 0 1
20.6392 0 1
20.7548 0 1
20.8702 0 1
23.3078 0 1
23.4233 0 1
23.539 0 1
23.6547 0 1
23.7704 0 1
23.8862 0 1
24.0021 0 1
24.118 0 1
24.234 0 1
24.35 0 1
24.4661 6019 77.5822
24.5822 5842 76.433
24.6984 5700 75.4983
24.8146 5604 74.8599
24.9309 5739 75.7562
25.0472 5727 75.6769
25.1636 5987 77.3757
25.28 6194 78.702
25.3965 6353 79.7057
25.513 6598 81.2281
25.6296 6664 81.6333
25.7462 6609 81.2958
25.8628 6704 81.878
25.9795 6362 79.7621
26.0962 6550 80.9321
26.213 6101 78.1089
26.3298 6076 77.9487
26.4466 5783 76.046
26.5635 5835 76.3872
26.6804 6037 77.6981
26.7973 6099 78.0961
26.9143 6085 78.0064
27.0313 6416 80.0999
27.1483 6370 79.8123
27.2653 6513 80.7032
27.3824 6604 81.265
27.4996 6582 81.1295
27.6167 6479 80.4922
27.7339 6303 79.3914
27.8511 6219 78.8606
27.9683 6102 78.1153
28.0855 5962 77.214
28.2028 5817 76.2693
28.3201 5535 74.3976
28.4374 5295 72.7668
28.5547 5428 73.675
28.6721 5620 74.9667
28.7894 5632 75.0467
28.9068 5880 76.6812
29.0242 5976 77.3046
29.1416 5928 76.9935
29.259 5883 76.7007
29.3764 5930 77.0065
29.4939 5752 75.8419
29.6113 5617 74.9466
29.7288 5637 75.08
29.8463 5370 73.2803
29.9638 5319 72.9315
30.0812 5262 72.5396
30.1987 5505 74.1957
30.3162 5691 75.4387
30.4337 5780 76.0263
30.5512 5929 77
30.6687 6064 77.8717
30.7862 6202 78.7528
30.9037 6120 78.2304
31.0212 6250 79.0569
31.1387 6267 79.1644
31.2562 6249 79.0506
31.3737 5869 76.6094
31.4912 5918 76.9285
31.6087 5708 75.5513
31.7262 5521 74.3034
31.8436 5432 73.7021
31.9611 5242 72.4017
32.0785 5341 73.0821
32.1959 5196 72.0833
32.3134 5591 74.773
32.4308 5627 75.0133
32.5482 5613 74.92
32.6655 5654 75.1931
32.7829 5739 75.7562
32.9002 5735 75.7298
33.0176 5743 75.7826
33.1349 5696 75.4718
33.2522 5562 74.5788
33.3694 5460 73.8918
33.4867 5097 71.3933
33.6039 5129 71.617
33.7211 5081 71.2811
33.8383 5192 72.0555
33.9554 5313 72.8903
34.0725 5530 74.364
34.1896 5522 74.3102
34.3067 5735 75.7298
34.4237 5694 75.4586
34.5407 5830 76.3544
34.6577 5853 76.5049
34.7746 5880 76.6812
34.8915 5876 76.6551
35.0084 5747 75.809
35.1252 5749 75.8222
35.242 5689 75.4255
35.3587 5482 74.0405
35.4755 5207 72.1595
35.5921 5145 71.7287
35.7088 4866 69.7567
35.8254 4847 69.6204
35.9419 4997 70.6895
36.0584 4955 70.3918
36.1749 5226 72.2911
36.2913 5391 73.4234
36.4077 5355 73.1779
36.524 5514 74.2563
36.6403 5428 73.675
36.7565 5434 73.7157
36.8727 5616 74.94
36.9889 5334 73.0342
37.1049 5081 71.2811
37.221 0 1
37.3369 0 1
37.4529 0 1
37.5687 0 1
37.6845 0 1
37.8003 0 1
37.916 0 1
38.0316 0 1
38.1472 0 1
40.5851 0 1
40.7008 0 1
40.8164 0 1
40.9322 0 1
41.048 0 1
41.1639 0 1
41.2798 0 1
41.3958 0 1
41.5118 0 1
41.6279 0 1
41.744 3997 63.2218
41.8602 4375 66.1438
41.9765 4448 66.6933
42.0928 4542 67.3944
42.2091 4408 66.3928
42.3255 4368 66.0908
42.4419 4071 63.8044
42.5584 3974 63.0397
42.675 3834 61.9193
42.7915 3905 62.49
42.9081 4068 63.7809
43.0248 4149 64.4127
43.1415 4279 65.4141
43.2582 4381 66.1891
43.375 4341 65.8863
43.4918 4323 65.7495
43.6087 4248 65.1767
43.7256 4346 65.9242
43.8425 4197 64.7843
43.9595 4127 64.2417
44.0765 4062 63.7338
44.1935 4008 63.3088
44.3106 3767 61.3759
44.4277 3492 59.0931
44.5448 3395 58.2666
44.6619 3289 57.3498
44.7791 3172 56.3205
44.8963 3283 57.2975
45.0136 3280 57.2713
45.1308 3276 57.2364
45.2481 3450 58.7367
45.3654 3369 58.0431
45.4827 3354 57.9137
45.6001 3342 57.81
45.7174 3411 58.4038
45.8348 3439 58.643
45.9522 3193 56.5066
46.0697 3082 55.5158
46.1871 2895 53.8052
46.3046 2856 53.4416
46.422 2898 53.8331
46.5395 2973 54.5252
46.657 3108 55.7494
46.7745 2983 54.6168
46.892 3048 55.2087
47.0096 3139 56.0268
47.1271 3108 55.7494
47.2446 3124 55.8928
47.3622 3067 55.3805
47.4797 2968 54.4794
47.5973 2911 53.9537
47.7149 2846 53.3479
47.8324 2821 53.1131
47.95 2766 52.5928
48.0675 2623 51.2152
48.1851 2452 49.5177
48.3027 2475 49.7494
48.4202 2471 49.7092
48.5378 2450 49.4975
48.6554 2644 51.4198
48.7729 2672 51.6914
48.8904 2760 52.5357
49.008 2738 52.3259
49.1255 2823 53.1319
49.243 2847 53.3573
49.3605 2880 53.6656
49.478 2737 52.3163
49.5955 2687 51.8363
49.713 2574 50.7346
49.8304 2552 50.5173
49.9479 2546 50.4579
50.0653 2696 51.923
50.1827 2840 53.2917
50.3001 2929 54.1202
50.4175 2985 54.6352
50.5348 3127 55.9196
50.6521 3110 55.7674
50.7694 3260 57.0964
50.8867 3337 57.7668
51.004 3408 58.3781
51.1212 3475 58.9491
51.2384 3380 58.1378
51.3556 3439 58.643
51.4727 3443 58.6771
51.5899 3356 57.931
51.707 3486 59.0424
51.824 3234 56.8683
51.9411 3303 57.4717
52.0581 3407 58.3695
52.175 3655 60.4566
52.2919 3904 62.482
52.4088 4105 64.0703
52.5257 4282 65.437
52.6425 4219 64.9538
52.7593 4302 65.5896
52.876 4471 66.8655
52.9927 4446 66.6783
53.1094 4339 65.8711
53.226 4245 65.1537
53.3426 4020 63.4035
53.4591 3986 63.1348
53.5756 4131 64.2729
53.692 4312 65.6658
53.8084 4521 67.2384
53.9248 4613 67.9191
54.0411 4923 70.1641
54.1573 4898 69.9857
54.2735 0 1
54.3896 0 1
54.5057 0 1
54.6217 0 1
54.7377 0 1
54.8537 0 1
54.9695 0 1
55.0853 0 1
55.2011 0 1
55.3168 0 1
55.4324 0 1
57.824 0 1
57.9396 0 1
58.0553 0 1
58.1711 0 1
58.2869 0 1
58.4028 0 1
58.5187 0 1
58.6347 0 1
58.7508 0 1
58.8669 0 1
58.983 5365 73.2462
59.0992 5992 77.408
59.2155 6041 77.7239
59.3318 6352 79.6994
59.4482 6408 80.05
59.5646 6271 79.1896
59.681 6448 80.2994
59.7975 6251 79.0633
59.9141 6100 78.1025
60.0306 6314 79.4607
60.1473 6072 77.923
60.2639 5863 76.5702
60.3807 5808 76.2102
60.4974 5632 75.0467
60.6142 5404 73.5119
60.731 5407 73.5323
60.8479 5368 73.2666
60.9648 5547 74.4782
61.0818 5833 76.3741
61.1987 6012 77.5371
61.3158 6078 77.9615
61.4328 6181 78.6193
61.5499 6052 77.7946
61.667 5907 76.857
61.7841 5814 76.2496
61.9013 5563 74.5855
62.0185 5256 72.4983
62.1357 5090 71.3442
62.253 4953 70.3776
62.3702 5084 71.3022
62.4875 5248 72.4431
62.6049 5465 73.9256
62.7222 5546 74.4715
62.8396 5607 74.8799
62.9569 5591 74.773
63.0743 5644 75.1266
63.1918 5660 75.233
63.3092 5505 74.1957
63.4267 5435 73.7225
63.5441 5521 74.3034
63.6616 5319 72.9315
63.7791 5296 72.7736
63.8966 5071 71.211
64.0142 4879 69.8498
64.1317 4731 68.7823
64.2492 4600 67.8233
64.3668 4669 68.3301
64.4843 4710 68.6294
64.6019 4936 70.2567
64.7195 5263 72.5465
64.837 5372 73.2939
64.9546 5279 72.6567
65.0722 5408 73.5391
65.1898 5447 73.8038
65.3074 5568 74.619
65.4249 5127 71.6031
65.5425 5153 71.7844
65.6601 4624 68
65.7777 4589 67.7422
65.8952 4598 67.8086
66.0128 4726 68.7459
66.1304 4824 69.455
66.2479 5039 70.9859
66.3655 5291 72.7393
66.483 5333 73.0274
66.6005 5180 71.9722
66.718 5366 73.253
66.8355 5320 72.9383
66.953 5508 74.2159
67.0705 5439 73.7496
67.1879 5280 72.6636
67.3054 5374 73.3076
67.4228 5268 72.581
67.5402 5235 72.3533
67.6576 5064 71.1618
67.7749 4808 69.3397
67.8923 4728 68.7605
68.0096 4773 69.0869
68.1269 5048 71.0493
68.2442 5313 72.8903
68.3614 5332 73.0205
68.4787 5710 75.5645
68.5958 5868 76.6029
68.713 5895 76.7789
68.8302 5936 77.0454
68.9473 5954 77.1622
69.0643 5952 77.1492
69.1814 5579 74.6927
69.2984 5459 73.885
69.4154 5033 70.9436
69.5323 4856 69.685
69.6492 5081 71.2811
69.7661 5267 72.5741
69.8829 5516 74.2698
69.9997 5765 75.9276
70.1165 5824 76.3151
70.2332 5978 77.3175
70.3499 6094 78.0641
70.4665 6075 77.9423
70.5831 6058 77.8332
70.6996 6101 78.1089
70.8161 6018 77.5758
70.9326 6042 77.7303
71.049 5909 76.87
71.1653 5928 76.9935
71.2817 5602 74.8465
71.3979 5269 72.5879
71.5141 5083 71.2952
71.6303 4914 70.0999
71.7464 4671 68.3447
71.8624 0 1
71.9784 0 1
72.0944 0 1
72.2102 0 1
72.3261 0 1
72.4418 0 1
72.5575 0 1
72.6732 0 1
75.1054 0 1
75.2209 0 1
75.3365 0 1
75.4521 0 1
75.5678 0 1
75.6835 0 1
75.7993 0 1
75.9151 0 1
76.031 0 1
76.147 5109 71.4773
76.263 5549 74.4916
76.3791 5719 75.6241
76.4952 5684 75.3923
76.6113 5451 73.8309
76.7276 5115 71.5192
76.8438 4986 70.6116
76.9601 5216 72.2219
77.0765 5257 72.5052
77.1929 5425 73.6546
77.3093 5645 75.1332
77.4258 5840 76.4199
77.5423 5930 77.0065
77.6589 6107 78.1473
77.7755 6229 78.924
77.8921 6152 78.4347
78.0088 5849 76.4788
78.1256 5701 75.505
78.2423 5207 72.1595
78.3591 4870 69.7854
78.4759 4696 68.5274
78.5928 4803 69.3037
78.7097 4968 70.484
78.8266 5095 71.3793
78.9436 5697 75.4785
79.0606 5538 74.4177
79.1776 5659 75.2263
79.2946 5693 75.452
79.4117 5898 76.7984
79.5288 5866 76.5898
79.6459 5796 76.1315
79.7631 5776 76
79.8802 5705 75.5315
79.9974 5786 76.0658
80.1147 5795 76.1249
80.2319 5644 75.1266
80.3491 5270 72.5948
80.4664 5056 71.1056
80.5837 5076 71.2461
80.701 5159 71.8262
80.8183 5273 72.6154
80.9357 5678 75.3525
81.053 5807 76.2037
81.1704 5838 76.4068
81.2877 6032 77.666
81.4051 6129 78.2879
81.5225 6120 78.2304
81.6399 6010 77.5242
81.7573 5763 75.9144
81.8747 5381 73.3553
81.9922 4978 70.5549
82.1096 4660 68.2642
82.227 4764 69.0217
82.3444 4934 70.2424
82.4619 5348 73.13
82.5793 5552 74.5117
82.6967 5447 73.8038
82.8142 5717 75.6108
82.9316 5844 76.4461
83.049 5851 76.4918
83.1664 5829 76.3479
83.2838 5989 77.3886
83.4012 5923 76.961
83.5186 5963 77.2205
83.636 5900 76.8115
83.7534 5913 76.896
83.8708 5667 75.2795
83.9881 5638 75.0866
84.1055 5076 71.2461
84.2228 5173 71.9236
84.3401 5223 72.2703
84.4575 5402 73.4983
84.5747 5776 76
84.692 6051 77.7882
84.8093 6224 78.8923
84.9265 6429 80.181
85.0437 6457 80.3555
85.1609 6503 80.6412
85.2781 6230 78.9303
85.3952 5956 77.1751
85.5123 5545 74.4648
85.6294 5052 71.0774
85.7465 4969 70.4911
85.8636 5074 71.232
85.9806 5364 73.2393
86.0976 5639 75.0933
86.2145 5938 77.0584
86.3315 6025 77.6209
86.4484 6293 79.3284
86.5652 6289 79.3032
86.682 6384 79.8999
86.7988 6231 78.9367
86.9156 6257 79.1012
87.0323 6395 79.9687
87.149 6209 78.7972
87.2657 6566 81.0309
87.3823 6306 79.4103
87.4988 5962 77.214
87.6154 5665 75.2662
87.7318 5427 73.6682
87.8483 5608 74.8866
87.9647 5757 75.8749
88.081 5956 77.1751
88.1973 6204 78.7655
88.3136 6438 80.2371
88.4298 6464 80.399
88.546 6704 81.878
88.6621 6897 83.0482
88.7781 6664 81.6333
88.8942 0 1
89.0101 0 1
89.126 0 1
89.2419 0 1
89.3577 0 1
89.4734 0 1
89.5891 0 1
89.7047 0 1
89.8203 0 1
89.9358 0 1
92.3269 0 1
92.4424 0 1
92.558 0 1
92.6736 0 1
92.7893 0 1
92.905 0 1
93.0208 0 1
93.1366 0 1
93.2525 0 1
93.3685 0 1
93.4845 0 1
93.6005 6032 77.666
93.7167 6035 77.6853
93.8328 6190 78.6766
93.949 6216 78.8416
94.0653 6189 78.6702
94.1816 6206 78.7782
94.2979 5866 76.5898
94.4143 5255 72.4914
94.5307 5097 71.3933
94.6472 4865 69.7496
94.7637 4888 69.9142
94.8803 5160 71.8331
94.9969 5461 73.8986
95.1135 5566 74.6056
95.2302 5677 75.3459
95.3469 5792 76.1052
95.4637 6053 77.801
95.5805 6056 77.8203
95.6973 5988 77.3822
95.8142 6047 77.7625
95.9311 5987 77.3757
96.048 5923 76.961
96.1649 6080 77.9744
96.2819 6184 78.6384
96.3989 5966 77.2399
96.516 5629 75.0267
96.633 5567 74.6123
96.7501 5402 73.4983
96.8673 5173 71.9236
96.9844 5194 72.0694
97.1016 5475 73.9932
97.2188 5459 73.885
97.336 5790 76.092
97.4532 6056 77.8203
97.5704 6126 78.2688
97.6877 6172 78.5621
97.805 6238 78.981
97.9223 6016 77.5629
98.0396 5719 75.6241
98.1569 5354 73.171
98.2743 4916 70.1142
98.3916 4657 68.2422
98.509 4856 69.685
98.6264 4994 70.6682
98.7438 5381 73.3553
98.8612 5485 74.0608
98.9786 5593 74.7864
99.096 5741 75.7694
99.2134 5699 75.4917
99.3308 5774 75.9868
99.4482 5748 75.8156
99.5656 5743 75.7826
99.6831 5590 74.7663
99.8005 5746 75.8024
99.9179 5815 76.2561
100.035 5564 74.5922
100.153 5420 73.6206
100.27 5192 72.0555
100.388 5046 71.0352
100.505 5062 71.1477
100.622 5097 71.3933
100.74 5316 72.9109
100.857 5506 74.2024
100.975 5658 75.2197
101.092 5776 76
101.209 5984 77.3563
101.327 6252 79.0696
101.444 5969 77.2593
101.561 5893 76.7659
101.679 5704 75.5248
101.796 5198 72.0972
101.913 4846 69.6132
102.03 4614 67.9264
102.148 4825 69.4622
102.265 4660 68.2642
102.382 5849 76.4788
102.499 5688 75.4188
102.616 5820 76.2889
102.733 5801 76.1643
102.851 5968 77.2528
102.968 6183 78.6321
103.085 5888 76.7333
103.202 6017 77.5693
103.319 6038 77.7046
103.436 5976 77.3046
103.552 6010 77.5242
103.669 6010 77.5242
103.786 5717 75.6108
103.903 5466 73.9324
104.02 5576 74.6726
104.137 5565 74.5989
104.253 5628 75.02
104.37 5783 76.046
104.487 6238 78.981
104.603 6206 78.7782
104.72 6437 80.2309
104.836 6593 81.1973
104.953 6524 80.7713
105.069 6282 79.2591
105.186 5752 75.8419
105.302 5387 73.3962
105.418 5113 71.5052
105.535 4943 70.3065
105.651 5290 72.7324
105.767 5533 74.3841
105.883 5862 76.5637
105.999 5959 77.1946
106.115 0 1
106.231 0 1
106.347 0 1
106.463 0 1
106.579 0 1
106.694 0 1
106.81 0 1
106.926 0 1
107.041 0 1
107.157 0 1
109.576 0 1
109.692 0 1
109.807 0 1
109.923 0 1
110.039 0 1
110.155 0 1
110.27 0 1
110.386 0 1
110.502 0 1
110.618 4276 65.3911
110.735 4663 68.2862
110.851 4935 70.2496
110.967 5121 71.5612
111.083 5137 71.6729
111.199 5458 73.8783
111.316 5438 73.7428
111.432 5461 73.8986
111.549 5536 74.4043
111.665 5440 73.7564
111.782 5304 72.8286
111.898 5302 72.8148
112.015 5370 73.2803
112.132 5306 72.8423
112.248 4944 70.3136
112.365 4711 68.6367
112.482 4719 68.695
112.599 4426 66.5282
112.716 4718 68.6877
112.832 4710 68.6294
112.949 4830 69.4982
113.066 5025 70.8872
113.183 5017 70.8308
113.3 5217 72.2288
113.417 5178 71.9583
113.534 5177 71.9514
113.652 5062 71.1477
113.769 4618 67.9559
113.886 4440 66.6333
114.003 4025 63.4429
114.12 4082 63.8905
114.238 4049 63.6318
114.355 4162 64.5136
114.472 4336 65.8483
114.589 4235 65.0769
114.707 4456 66.7533
114.824 4518 67.2161
114.942 4563 67.55
115.059 4440 66.6333
115.176 4391 66.2646
115.294 4326 65.7723
115.411 4357 66.0076
115.529 4155 64.4593
115.646 4051 63.6475
115.764 4067 63.773
115.881 3892 62.3859
115.999 3703 60.8523
116.116 3646 60.3821
116.234 3681 60.6712
116.351 3720 60.9918
116.469 3817 61.7819
116.586 3912 62.546
116.704 3890 62.3699
116.821 4010 63.3246
116.939 4069 63.7887
117.056 4077 63.8514
117.174 4000 63.2456
117.291 3845 62.0081
117.409 3625 60.208
117.526 3489 59.0678
117.644 3263 57.1227
117.761 3285 57.3149
117.879 3354 57.9137
117.996 3510 59.2453
118.114 3683 60.6877
118.231 3776 61.4492
118.349 3819 61.7981
118.466 3891 62.3779
118.584 4080 63.8749
118.701 4040 63.561
118.819 3944 62.8013
118.936 3790 61.563
119.053 3828 61.8708
119.171 3848 62.0322
119.288 3800 61.6441
119.405 3744 61.1882
119.523 3742 61.1719
119.64 3574 59.7829
119.757 3572 59.7662
119.875 3567 59.7244
119.992 3671 60.5888
120.109 3814 61.7576
120.226 3941 62.7774
120.343 4081 63.8827
120.46 4153 64.4438
120.578 4244 65.146
120.695 4257 65.2457
120.812 4432 66.5733
120.929 4279 65.4141
121.046 4039 63.5531
121.163 3953 62.8729
121.279 3646 60.3821
121.396 3711 60.918
121.513 3807 61.7009
121.63 3948 62.8331
121.747 4273 65.3682
121.863 4425 66.5207
121.98 4600 67.8233
122.097 4390 66.2571
122.213 4544 67.4092
122.33 4619 67.9632
122.446 4602 67.838
122.563 4584 67.7052
122.679 4588 67.7348
122.795 4697 68.5347
122.912 4643 68.1396
123.028 4374 66.1362
123.144 4323 65.7495
123.26 4218 64.9461
123.377 0 1
123.493 0 1
123.609 0 1
123.725 0 1
123.84 0 1
123.956 0 1
124.072 0 1
124.188 0 1
124.303 0 1
124.419 0 1
126.852 0 1
126.968 0 1
127.083 0 1
127.199 0 1
127.315 0 1
127.431 0 1
127.547 0 1
127.663 0 1
127.779 0 1
127.895 0 1
128.011 0 1
128.127 0 1
128.243 0 1
128.359 5326 72.9794
128.476 5175 71.9375
128.592 4982 70.5833
128.708 4810 69.3542
128.825 4912 70.0857
128.941 4951 70.3633
129.058 4871 69.7925
129.174 5063 71.1548
129.291 5279 72.6567
129.408 5482 74.0405
129.524 5497 74.1418
129.641 5424 73.6478
129.758 5627 75.0133
129.875 5475 73.9932
129.992 5209 72.1734
130.108 5058 71.1196
130.225 4813 69.3758
130.342 4587 67.7274
130.459 4401 66.34
130.576 4493 67.0298
130.693 4710 68.6294
130.81 4909 70.0643
130.928 5116 71.5262
131.045 5098 71.4003
131.162 5187 72.0208
131.279 5251 72.4638
131.396 5137 71.6729
131.513 5293 72.753
131.631 5092 71.3583
131.748 5039 70.9859
131.865 4933 70.2353
131.983 4969 70.4911
132.1 4669 68.3301
132.217 4552 67.4685
132.335 4421 66.4906
132.452 4413 66.4304
132.57 4579 67.6683
132.687 4639 68.1102
132.804 5037 70.9718
132.922 5052 71.0774
133.039 5216 72.2219
133.157 5199 72.1041
133.274 5210 72.1803
133.392 5341 73.0821
133.509 5206 72.1526
133.627 4934 70.2424
133.744 4696 68.5274
133.862 4498 67.0671
133.979 4369 66.0984
134.097 4542 67.3944
134.214 4788 69.1954
134.332 4745 68.884
134.449 5078 71.2601
134.567 5108 71.4703
134.684 5188 72.0278
134.802 5167 71.8818
134.919 5142 71.7077
135.037 5145 71.7287
135.154 5027 70.9013
135.272 4805 69.3181
135.389 4794 69.2387
135.507 4729 68.7677
135.624 4514 67.1863
135.742 4337 65.8559
135.859 4077 63.8514
135.977 4078 63.8592
136.094 4105 64.0703
136.211 4166 64.5446
136.329 4237 65.0922
136.446 4363 66.053
136.564 4440 66.6333
136.681 4478 66.9179
136.798 4558 67.513
136.915 4480 66.9328
137.033 4510 67.1565
137.15 4347 65.9318
137.267 4133 64.2884
137.384 3975 63.0476
137.502 3953 62.8729
137.619 3721 61
137.736 4081 63.8827
137.853 4073 63.8201
137.97 4464 66.8132
138.087 4509 67.1491
138.204 4737 68.8259
138.321 4897 69.9786
138.438 4815 69.3902
138.555 4808 69.3397
138.672 4985 70.6045
138.788 4938 70.2709
138.905 4972 70.5124
139.022 4726 68.7459
139.139 4713 68.6513
139.255 4880 69.857
139.372 4658 68.2495
139.488 4622 67.9853
139.605 4513 67.1789
139.721 4508 67.1416
139.838 4755 68.9565
139.954 4914 70.0999
140.071 5106 71.4563
140.187 5408 73.5391
140.303 5282 72.6774
140.419 5384 73.3757
140.535 5443 73.7767
140.652 5410 73.5527
140.768 0 1
140.884 0 1
141 0 1
141.115 0 1
141.231 0 1
141.347 0 1
141.463 0 1
141.578 0 1
141.694 0 1
144.104 0 1
144.219 0 1
144.335 0 1
144.45 0 1
144.566 0 1
144.682 0 1
144.798 0 1
144.914 0 1
145.03 0 1
145.146 6220 78.867
145.262 6912 83.1384
145.378 7245 85.1176
145.494 7770 88.1476
145.61 8178 90.4323
145.726 8574 92.5959
145.842 9107 95.4306
145.959 9106 95.4254
146.075 9171 95.7653
146.192 9079 95.2838
146.308 9102 95.4044
146.425 9655 98.2599
146.541 10665 103.271
146.658 11825 108.743
146.774 12732 112.836
146.891 14027 118.436
147.008 14746 121.433
147.125 15959 126.329
147.241 17043 130.549
147.358 17663 132.902
147.475 18196 134.893
147.592 18849 137.292
147.709 19167 138.445
147.826 19473 139.546
147.943 19516 139.7
148.06 19084 138.145
148.177 19286 138.874
148.294 19091 138.17
148.411 19563 139.868
148.528 20441 142.972
148.645 21399 146.284
148.762 22425 149.75
148.88 23004 151.671
148.997 24274 155.801
149.114 22390 149.633
149.231 23515 153.346
149.349 23404 152.984
149.466 23447 153.124
149.583 21691 147.279
149.701 20605 143.544
149.818 19514 139.693
149.935 18678 136.667
150.053 18914 137.528
150.17 19590 139.964
150.287 20640 143.666
150.405 21254 145.788
150.522 22200 148.997
150.64 22428 149.76
150.757 22854 151.175
150.875 23324 152.722
150.992 23001 151.661
151.11 23592 153.597
151.227 22800 150.997
151.344 22568 150.226
151.462 22168 148.889
151.579 21787 147.604
151.697 21862 147.858
151.814 21343 146.092
151.932 21156 145.451
152.049 21594 146.949
152.167 22043 148.469
152.284 22971 151.562
152.402 24143 155.38
152.519 24603 156.853
152.636 25499 159.684
152.754 25401 159.377
152.871 25673 160.228
152.989 25219 158.805
153.106 24814 157.525
153.223 23151 152.155
153.341 22055 148.509
153.458 21362 146.157
153.575 20938 144.7
153.693 21071 145.159
153.81 22309 149.362
153.927 23616 153.675
154.044 24306 155.904
154.162 25127 158.515
154.279 25866 160.829
154.396 26882 163.957
154.513 27073 164.539
154.63 27793 166.712
154.747 27520 165.892
154.864 27565 166.027
154.981 27012 164.353
155.098 27045 164.454
155.215 26453 162.644
155.332 26321 162.237
155.449 25481 159.628
155.566 25520 159.75
155.683 26306 162.191
155.8 27101 164.624
155.917 28190 167.899
156.033 29347 171.31
156.15 0 1
156.267 0 1
156.383 0 1
156.5 0 1
156.617 0 1
156.733 0 1
156.85 0 1
156.966 0 1
157.082 0 1
157.199 0 1
157.315 0 1
157.431 0 1
157.547 0 1
157.664 0 1
157.78 0 1
157.896 0 1
158.012 0 1
158.128 0 1
158.244 0 1
158.359 0 1
158.475 0 1
158.591 0 1
158.706 0 1
