
6.15755 0 1
6.2731 0 1
6.3887 0 1
6.50437 0 1
6.62009 0 1
6.73587 0 1
6.8517 0 1
6.96759 0 1
7.08353 0 1
7.19952 0 1
7.31557 0 1
7.43166 0 1
7.54781 0 1
7.664 0 1
7.78024 0 1
7.89653 0 1
8.01286 0 1
8.12924 0 1
8.24567 0 1
8.36213 0 1
8.47864 0 1
8.59519 0 1
8.71178 0 1
8.82841 0 1
8.94508 0 1
9.06179 0 1
9.17853 0 1
9.29531 0 1
9.41212 0 1
9.52897 0 1
9.64584 0 1
9.76276 0 1
9.8797 0 1
9.99667 0 1
10.1137 0 1
10.2307 0 1
10.3478 0 1
10.4648 0 1
10.5819 0 1
10.6991 0 1
10.8162 0 1
10.9334 0 1
11.0506 0 1
11.1678 0 1
11.285 0 1
11.4023 0 1
11.5196 0 1
11.6369 0 1
11.7542 0 1
11.8715 0 1
11.9888 0 1
12.1062 0 1
12.2235 0 1
12.3409 0 1
12.4582 0 1
12.5756 0 1
12.693 0 1
12.8104 0 1
12.9278 0 1
13.0452 0 1
13.1626 0 1
13.28 0 1
13.3974 0 1
13.5149 0 1
13.6323 0 1
13.7497 0 1
13.8671 0 1
13.9845 0 1
14.1019 0 1
14.2193 0 1
14.3367 0 1
14.4541 0 1
14.5714 0 1
14.6888 0 1
14.8062 0 1
14.9235 0 1
15.0408 0 0
15.1581 0 0
15.2755 0 0
15.3927 0 0
15.51 0 0
15.6273 0 0
15.7445 0 0
15.8617 0 0
15.9789 0 0
16.0961 0 0
16.2132 0 0
16.3304 0 0
16.4475 0 0
16.5646 0 0
16.6816 0 0
16.7986 0 0
16.9156 0 0
17.0326 0 0
17.1496 0 0
17.2665 0 0
17.3833 0 0
17.5002 0 0
17.617 0 0
17.7338 0 0
17.8505 0 0
17.9672 0 0
18.0839 0 0
18.2005 0 0
18.3171 0 0
18.4337 0 0
18.5502 0 0
18.6666 0 0
18.7831 0 0
18.8994 0 0
19.0158 0 0
19.1321 0 0
19.2483 0 0
19.3645 0 0
19.4806 0 0
19.5967 0 0
19.7128 0 0
19.8288 0 0
19.9447 0 0
20.0606 0 1
20.1764 0 1
20.2922 0 1
20.4079 0 1
20.5236 0 1
20.6392 0 1
20.7548 0 1
20.8702 0 1
23.3078 0 1
23.4233 0 1
23.539 0 1
23.6547 0 1
23.7704 0 1
23.8862 0 1
24.0021 0 1
24.118 0 1
24.234 0 1
24.35 0 1
24.4661 1334 36.524
24.5822 1384 37.2022
24.6984 1356 36.8239
24.8146 1305 36.1248
24.9309 1218 34.8999
25.0472 1344 36.6606
25.1636 1359 36.8646
25.28 1395 37.3497
25.3965 1380 37.1484
25.513 1366 36.9594
25.6296 1432 37.8418
25.7462 1430 37.8153
25.8628 1494 38.6523
25.9795 1448 38.0526
26.0962 1505 38.7943
26.213 1503 38.7685
26.3298 1547 39.3319
26.4466 1530 39.1152
26.5635 1569 39.6106
26.6804 1465 38.2753
26.7973 1432 37.8418
26.9143 1392 37.3095
27.0313 1438 37.921
27.1483 1529 39.1024
27.2653 1508 38.833
27.3824 1498 38.704
27.4996 1521 39
27.6167 1517 38.9487
27.7339 1487 38.5616
27.8511 1417 37.6431
27.9683 1435 37.8814
28.0855 1389 37.2693
28.2028 1348 36.7151
28.3201 1331 36.4829
28.4374 1299 36.0416
28.5547 1326 36.4143
28.6721 1298 36.0278
28.7894 1350 36.7423
28.9068 1345 36.6742
29.0242 1357 36.8375
29.1416 1353 36.7831
29.259 1335 36.5377
29.3764 1383 37.1887
29.4939 1377 37.108
29.6113 1407 37.51
29.7288 1442 37.9737
29.8463 1506 38.8072
29.9638 1387 37.2424
30.0812 1503 38.7685
30.1987 1511 38.8716
30.3162 1427 37.7757
30.4337 1425 37.7492
30.5512 1388 37.2559
30.6687 1480 38.4708
30.7862 1446 38.0263
30.9037 1479 38.4578
31.0212 1507 38.8201
31.1387 1455 38.1445
31.2562 1472 38.3667
31.3737 1382 37.1753
31.4912 1439 37.9342
31.6087 1416 37.6298
31.7262 1341 36.6197
31.8436 1329 36.4555
31.9611 1279 35.7631
32.0785 1239 35.1994
32.1959 1357 36.8375
32.3134 1316 36.2767
32.4308 1325 36.4005
32.5482 1286 35.8608
32.6655 1293 35.9583
32.7829 1283 35.819
32.9002 1348 36.7151
33.0176 1321 36.3456
33.1349 1378 37.1214
33.2522 1402 37.4433
33.3694 1473 38.3797
33.4867 1445 38.0132
33.6039 1440 37.9473
33.7211 1395 37.3497
33.8383 1420 37.6829
33.9554 1389 37.2693
34.0725 1393 37.3229
34.1896 1429 37.8021
34.3067 1345 36.6742
34.4237 1419 37.6696
34.5407 1415 37.6165
34.6577 1503 38.7685
34.7746 1432 37.8418
34.8915 1489 38.5876
35.0084 1392 37.3095
35.1252 1400 37.4166
35.242 1407 37.51
35.3587 1360 36.8782
35.4755 1372 37.0405
35.5921 1330 36.4692
35.7088 1296 36
35.8254 1311 36.2077
35.9419 1343 36.647
36.0584 1296 36
36.1749 1261 35.5106
36.2913 1259 35.4824
36.4077 1253 35.3977
36.524 1367 36.973
36.6403 1346 36.6879
36.7565 1373 37.054
36.8727 1365 36.9459
36.9889 1350 36.7423
37.1049 1400 37.4166
37.221 0 1
37.3369 0 1
37.4529 0 1
37.5687 0 1
37.6845 0 1
37.8003 0 1
37.916 0 1
38.0316 0 1
38.1472 0 1
40.5851 0 1
40.7008 0 1
40.8164 0 1
40.9322 0 1
41.048 0 1
41.1639 0 1
41.2798 0 1
41.3958 0 1
41.5118 0 1
41.6279 0 1
41.744 1138 33.7343
41.8602 1143 33.8083
41.9765 1196 34.5832
42.0928 1149 33.8969
42.2091 1223 34.9714
42.3255 1285 35.8469
42.4419 1265 35.5668
42.5584 1212 34.8138
42.675 1190 34.4964
42.7915 1222 34.9571
42.9081 1184 34.4093
43.0248 1210 34.7851
43.1415 1267 35.5949
43.2582 1220 34.9285
43.375 1283 35.819
43.4918 1267 35.5949
43.6087 1159 34.0441
43.7256 1283 35.819
43.8425 1276 35.7211
43.9595 1262 35.5246
44.0765 1167 34.1614
44.1935 1218 34.8999
44.3106 1119 33.4515
44.4277 1056 32.4962
44.5448 1081 32.8786
44.6619 989 31.4484
44.7791 1019 31.9218
44.8963 1034 32.1559
45.0136 984 31.3688
45.1308 949 30.8058
45.2481 1026 32.0312
45.3654 978 31.273
45.4827 1017 31.8904
45.6001 1039 32.2335
45.7174 1048 32.3728
45.8348 1062 32.5883
45.9522 1031 32.1092
46.0697 1023 31.9844
46.1871 1063 32.6037
46.3046 975 31.225
46.422 920 30.3315
46.5395 956 30.9192
46.657 965 31.0644
46.7745 953 30.8707
46.892 1026 32.0312
47.0096 980 31.305
47.1271 1019 31.9218
47.2446 962 31.0161
47.3622 1003 31.6702
47.4797 931 30.5123
47.5973 958 30.9516
47.7149 919 30.315
47.8324 844 29.0517
47.95 864 29.3939
48.0675 860 29.3258
48.1851 812 28.4956
48.3027 761 27.5862
48.4202 774 27.8209
48.5378 778 27.8927
48.6554 797 28.2312
48.7729 760 27.5681
48.8904 764 27.6405
49.008 835 28.8964
49.1255 841 29
49.243 829 28.7924
49.3605 824 28.7054
49.478 882 29.6985
49.5955 825 28.7228
49.713 860 29.3258
49.8304 885 29.7489
49.9479 898 29.9666
50.0653 896 29.9333
50.1827 835 28.8964
50.3001 893 29.8831
50.4175 929 30.4795
50.5348 911 30.1828
50.6521 987 31.4166
50.7694 984 31.3688
50.8867 1022 31.9687
51.004 1080 32.8634
51.1212 1015 31.8591
51.2384 1013 31.8277
51.3556 1057 32.5115
51.4727 1035 32.1714
51.5899 1004 31.686
51.707 956 30.9192
51.824 1080 32.8634
51.9411 908 30.133
52.0581 1012 31.8119
52.175 1029 32.078
52.2919 1047 32.3574
52.4088 1114 33.3766
52.5257 1074 32.7719
52.6425 1063 32.6037
52.7593 1163 34.1028
52.876 1182 34.3802
52.9927 1174 34.2637
53.1094 1170 34.2053
53.226 1255 35.426
53.3426 1297 36.0139
53.4591 1252 35.3836
53.5756 1213 34.8281
53.692 1282 35.805
53.8084 1252 35.3836
53.9248 1356 36.8239
54.0411 1312 36.2215
54.1573 1487 38.5616
54.2735 0 1
54.3896 0 1
54.5057 0 1
54.6217 0 1
54.7377 0 1
54.8537 0 1
54.9695 0 1
55.0853 0 1
55.2011 0 1
55.3168 0 1
55.4324 0 1
57.824 0 1
57.9396 0 1
58.0553 0 1
58.1711 0 1
58.2869 0 1
58.4028 0 1
58.5187 0 1
58.6347 0 1
58.7508 0 1
58.8669 0 1
58.983 1482 38.4968
59.0992 1561 39.5095
59.2155 1534 39.1663
59.3318 1660 40.7431
59.4482 1686 41.0609
59.5646 1706 41.3038
59.681 1712 41.3763
59.7975 1616 40.1995
59.9141 1684 41.0366
60.0306 1550 39.37
60.1473 1540 39.2428
60.2639 1533 39.1535
60.3807 1464 38.2623
60.4974 1365 36.9459
60.6142 1312 36.2215
60.731 1321 36.3456
60.8479 1249 35.3412
60.9648 1292 35.9444
61.0818 1363 36.9188
61.1987 1351 36.756
61.3158 1439 37.9342
61.4328 1415 37.6165
61.5499 1493 38.6394
61.667 1386 37.229
61.7841 1380 37.1484
61.9013 1456 38.1576
62.0185 1368 36.9865
62.1357 1362 36.9053
62.253 1343 36.647
62.3702 1316 36.2767
62.4875 1454 38.1314
62.6049 1475 38.4057
62.7222 1514 38.9102
62.8396 1566 39.5727
62.9569 1538 39.2173
63.0743 1619 40.2368
63.1918 1523 39.0256
63.3092 1591 39.8873
63.4267 1497 38.6911
63.5441 1392 37.3095
63.6616 1363 36.9188
63.7791 1274 35.6931
63.8966 1267 35.5949
64.0142 1215 34.8569
64.1317 1117 33.4215
64.2492 1160 34.0588
64.3668 1054 32.4654
64.4843 1111 33.3317
64.6019 1127 33.5708
64.7195 1218 34.8999
64.837 1153 33.9559
64.9546 1293 35.9583
65.0722 1279 35.7631
65.1898 1210 34.7851
65.3074 1282 35.805
65.4249 1202 34.6699
65.5425 1218 34.8999
65.6601 1211 34.7994
65.7777 1208 34.7563
65.8952 1261 35.5106
66.0128 1247 35.3129
66.1304 1300 36.0555
66.2479 1334 36.524
66.3655 1486 38.5487
66.483 1519 38.9744
66.6005 1456 38.1576
66.718 1454 38.1314
66.8355 1430 37.8153
66.953 1429 37.8021
67.0705 1391 37.2961
67.1879 1256 35.4401
67.3054 1251 35.3695
67.4228 1194 34.5543
67.5402 1141 33.7787
67.6576 1098 33.1361
67.7749 1062 32.5883
67.8923 1047 32.3574
68.0096 1034 32.1559
68.1269 1150 33.9116
68.2442 1142 33.7935
68.3614 1225 35
68.4787 1268 35.609
68.5958 1267 35.5949
68.713 1251 35.3695
68.8302 1305 36.1248
68.9473 1322 36.3593
69.0643 1257 35.4542
69.1814 1213 34.8281
69.2984 1221 34.9428
69.4154 1208 34.7563
69.5323 1283 35.819
69.6492 1358 36.8511
69.7661 1460 38.2099
69.8829 1489 38.5876
69.9997 1613 40.1622
70.1165 1659 40.7308
70.2332 1683 41.0244
70.3499 1582 39.7744
70.4665 1660 40.7431
70.5831 1630 40.3733
70.6996 1471 38.3536
70.8161 1509 38.8458
70.9326 1377 37.108
71.049 1358 36.8511
71.1653 1345 36.6742
71.2817 1279 35.7631
71.3979 1195 34.5688
71.5141 1109 33.3017
71.6303 1121 33.4813
71.7464 1098 33.1361
71.8624 0 1
71.9784 0 1
72.0944 0 1
72.2102 0 1
72.3261 0 1
72.4418 0 1
72.5575 0 1
72.6732 0 1
75.1054 0 1
75.2209 0 1
75.3365 0 1
75.4521 0 1
75.5678 0 1
75.6835 0 1
75.7993 0 1
75.9151 0 1
76.031 0 1
76.147 1655 40.6817
76.263 1833 42.8135
76.3791 1868 43.2204
76.4952 1749 41.821
76.6113 1610 40.1248
76.7276 1546 39.3192
76.8438 1543 39.281
76.9601 1555 39.4335
77.0765 1534 39.1663
77.1929 1578 39.724
77.3093 1775 42.1307
77.4258 1843 42.9302
77.5423 1943 44.0795
77.6589 1869 43.2319
77.7755 1877 43.3244
77.8921 1975 44.441
78.0088 1775 42.1307
78.1256 1765 42.0119
78.2423 1602 40.025
78.3591 1606 40.0749
78.4759 1498 38.704
78.5928 1631 40.3856
78.7097 1775 42.1307
78.8266 1808 42.5206
78.9436 1913 43.7379
79.0606 1967 44.3509
79.1776 2014 44.8776
79.2946 2061 45.3982
79.4117 2012 44.8553
79.5288 1950 44.1588
79.6459 1913 43.7379
79.7631 1764 42
79.8802 1626 40.3237
79.9974 1653 40.6571
80.1147 1518 38.9615
80.2319 1393 37.3229
80.3491 1278 35.7491
80.4664 1205 34.7131
80.5837 1212 34.8138
80.701 1220 34.9285
80.8183 1228 35.0428
80.9357 1364 36.9324
81.053 1445 38.0132
81.1704 1380 37.1484
81.2877 1293 35.9583
81.4051 1302 36.0832
81.5225 1342 36.6333
81.6399 1253 35.3977
81.7573 1193 34.5398
81.8747 1190 34.4964
81.9922 1147 33.8674
82.1096 1152 33.9411
82.227 1180 34.3511
82.3444 1261 35.5106
82.4619 1384 37.2022
82.5793 1411 37.5633
82.6967 1341 36.6197
82.8142 1411 37.5633
82.9316 1343 36.647
83.049 1366 36.9594
83.1664 1376 37.0945
83.2838 1334 36.524
83.4012 1197 34.5977
83.5186 1114 33.3766
83.636 1081 32.8786
83.7534 1054 32.4654
83.8708 1062 32.5883
83.9881 955 30.9031
84.1055 895 29.9166
84.2228 910 30.1662
84.3401 907 30.1164
84.4575 1002 31.6544
84.5747 1093 33.0606
84.692 1141 33.7787
84.8093 1144 33.8231
84.9265 1123 33.5112
85.0437 1079 32.8481
85.1609 1054 32.4654
85.2781 1063 32.6037
85.3952 1074 32.7719
85.5123 1069 32.6956
85.6294 1080 32.8634
85.7465 1108 33.2866
85.8636 1163 34.1028
85.9806 1239 35.1994
86.0976 1351 36.756
86.2145 1387 37.2424
86.3315 1484 38.5227
86.4484 1545 39.3065
86.5652 1540 39.2428
86.682 1551 39.3827
86.7988 1578 39.724
86.9156 1430 37.8153
87.0323 1398 37.3898
87.149 1384 37.2022
87.2657 1252 35.3836
87.3823 1275 35.7071
87.4988 1215 34.8569
87.6154 1138 33.7343
87.7318 1055 32.4808
87.8483 1126 33.5559
87.9647 1192 34.5254
88.081 1308 36.1663
88.1973 1411 37.5633
88.3136 1442 37.9737
88.4298 1388 37.2559
88.546 1365 36.9459
88.6621 1329 36.4555
88.7781 1387 37.2424
88.8942 0 1
89.0101 0 1
89.126 0 1
89.2419 0 1
89.3577 0 1
89.4734 0 1
89.5891 0 1
89.7047 0 1
89.8203 0 1
89.9358 0 1
92.3269 0 1
92.4424 0 1
92.558 0 1
92.6736 0 1
92.7893 0 1
92.905 0 1
93.0208 0 1
93.1366 0 1
93.2525 0 1
93.3685 0 1
93.4845 0 1
93.6005 1306 36.1386
93.7167 1408 37.5233
93.8328 1421 37.6962
93.949 1377 37.108
94.0653 1387 37.2424
94.1816 1385 37.2156
94.2979 1337 36.565
94.4143 1370 37.0135
94.5307 1270 35.6371
94.6472 1293 35.9583
94.7637 1256 35.4401
94.8803 1378 37.1214
94.9969 1478 38.4448
95.1135 1559 39.4842
95.2302 1631 40.3856
95.3469 1649 40.6079
95.4637 1731 41.6053
95.5805 1761 41.9643
95.6973 1833 42.8135
95.8142 1815 42.6028
95.9311 1700 41.2311
96.048 1559 39.4842
96.1649 1588 39.8497
96.2819 1516 38.9358
96.3989 1376 37.0945
96.516 1368 36.9865
96.633 1294 35.9722
96.7501 1230 35.0714
96.8673 1279 35.7631
96.9844 1260 35.4965
97.1016 1233 35.1141
97.2188 1376 37.0945
97.336 1434 37.8682
97.4532 1453 38.1182
97.5704 1436 37.8946
97.6877 1418 37.6563
97.805 1411 37.5633
97.9223 1355 36.8103
98.0396 1323 36.3731
98.1569 1230 35.0714
98.2743 1182 34.3802
98.3916 1247 35.3129
98.509 1294 35.9722
98.6264 1402 37.4433
98.7438 1528 39.0896
98.8612 1518 38.9615
98.9786 1625 40.3113
99.096 1731 41.6053
99.2134 1744 41.7612
99.3308 1773 42.107
99.4482 1677 40.9512
99.5656 1670 40.8656
99.6831 1644 40.5463
99.8005 1505 38.7943
99.9179 1532 39.1408
100.035 1441 37.9605
100.153 1409 37.5366
100.27 1275 35.7071
100.388 1258 35.4683
100.505 1257 35.4542
100.622 1219 34.9142
100.74 1366 36.9594
100.857 1374 37.0675
100.975 1500 38.7298
101.092 1518 38.9615
101.209 1430 37.8153
101.327 1369 37
101.444 1376 37.0945
101.561 1319 36.318
101.679 1331 36.4829
101.796 1319 36.318
101.913 1339 36.5923
102.03 1419 37.6696
102.148 1470 38.3406
102.265 1687 41.0731
102.382 1588 39.8497
102.499 1721 41.4849
102.616 1786 42.2611
102.733 1862 43.1509
102.851 1849 43
102.968 1922 43.8406
103.085 1814 42.5911
103.202 1787 42.2729
103.319 1724 41.5211
103.436 1664 40.7922
103.552 1626 40.3237
103.669 1479 38.4578
103.786 1404 37.47
103.903 1435 37.8814
104.02 1354 36.7967
104.137 1389 37.2693
104.253 1495 38.6652
104.37 1517 38.9487
104.487 1590 39.8748
104.603 1649 40.6079
104.72 1702 41.2553
104.836 1569 39.6106
104.953 1629 40.3609
105.069 1578 39.724
105.186 1501 38.7427
105.302 1502 38.7556
105.418 1509 38.8458
105.535 1577 39.7115
105.651 1684 41.0366
105.767 1851 43.0232
105.883 1922 43.8406
105.999 1981 44.5084
106.115 0 1
106.231 0 1
106.347 0 1
106.463 0 1
106.579 0 1
106.694 0 1
106.81 0 1
106.926 0 1
107.041 0 1
107.157 0 1
109.576 0 1
109.692 0 1
109.807 0 1
109.923 0 1
110.039 0 1
110.155 0 1
110.27 0 1
110.386 0 1
110.502 0 1
110.618 1567 39.5854
110.735 1736 41.6653
110.851 1814 42.5911
110.967 1889 43.4626
111.083 2054 45.3211
111.199 1988 44.587
111.316 2008 44.8107
111.432 2160 46.4758
111.549 2086 45.6727
111.665 2076 45.5631
111.782 1964 44.317
111.898 1858 43.1045
112.015 1798 42.4028
112.132 1785 42.2493
112.248 1658 40.7185
112.365 1607 40.0874
112.482 1605 40.0625
112.599 1552 39.3954
112.716 1649 40.6079
112.832 1621 40.2616
112.949 1758 41.9285
113.066 1803 42.4617
113.183 1693 41.1461
113.3 1664 40.7922
113.417 1680 40.9878
113.534 1641 40.5093
113.652 1640 40.4969
113.769 1583 39.7869
113.886 1552 39.3954
114.003 1637 40.4599
114.12 1647 40.5832
114.238 1727 41.5572
114.355 1961 44.2832
114.472 2038 45.1442
114.589 1943 44.0795
114.707 2117 46.0109
114.824 2195 46.8508
114.942 2239 47.3181
115.059 2257 47.5079
115.176 2149 46.3573
115.294 2106 45.8912
115.411 1954 44.2041
115.529 2044 45.2106
115.646 1907 43.6692
115.764 1827 42.7434
115.881 1772 42.0951
115.999 1695 41.1704
116.116 1765 42.0119
116.234 1803 42.4617
116.351 1890 43.4741
116.469 1975 44.441
116.586 2015 44.8888
116.704 2024 44.9889
116.821 2018 44.9222
116.939 1867 43.2088
117.056 2013 44.8665
117.174 1932 43.9545
117.291 1889 43.4626
117.409 1864 43.1741
117.526 1846 42.9651
117.644 2030 45.0555
117.761 2044 45.2106
117.879 2235 47.2758
117.996 2338 48.3529
118.114 2366 48.6415
118.231 2465 49.6488
118.349 2408 49.0714
118.466 2513 50.1298
118.584 2506 50.06
118.701 2521 50.2096
118.819 2475 49.7494
118.936 2363 48.6107
119.053 2286 47.8121
119.171 2277 47.7179
119.288 2200 46.9042
119.405 2072 45.5192
119.523 1928 43.909
119.64 1937 44.0114
119.757 1923 43.852
119.875 1893 43.5086
119.992 1990 44.6094
120.109 2148 46.3465
120.226 2098 45.8039
120.343 2107 45.9021
120.46 2119 46.0326
120.578 2032 45.0777
120.695 2132 46.1736
120.812 2030 45.0555
120.929 2017 44.911
121.046 2080 45.607
121.163 1998 44.699
121.279 2022 44.9667
121.396 1980 44.4972
121.513 2228 47.2017
121.63 2245 47.3814
121.747 2271 47.655
121.863 2309 48.0521
121.98 2441 49.4065
122.097 2375 48.734
122.213 2424 49.2341
122.33 2517 50.1697
122.446 2402 49.0102
122.563 2363 48.6107
122.679 2230 47.2229
122.795 2229 47.2123
122.912 2148 46.3465
123.028 2044 45.2106
123.144 1918 43.795
123.26 1910 43.7035
123.377 0 1
123.493 0 1
123.609 0 1
123.725 0 1
123.84 0 1
123.956 0 1
124.072 0 1
124.188 0 1
124.303 0 1
124.419 0 1
126.852 0 1
126.968 0 1
127.083 0 1
127.199 0 1
127.315 0 1
127.431 0 1
127.547 0 1
127.663 0 1
127.779 0 1
127.895 0 1
128.011 0 1
128.127 0 1
128.243 0 1
128.359 2018 44.9222
128.476 2040 45.1664
128.592 1953 44.1928
128.708 1952 44.1814
128.825 2082 45.6289
128.941 2122 46.0652
129.058 2191 46.8081
129.174 2187 46.7654
129.291 2163 46.5081
129.408 2118 46.0217
129.524 2256 47.4974
129.641 2236 47.2864
129.758 2079 45.5961
129.875 2041 45.1774
129.992 1986 44.5646
130.108 1988 44.587
130.225 1964 44.317
130.342 2052 45.299
130.459 2155 46.422
130.576 2249 47.4236
130.693 2287 47.8226
130.81 2221 47.1275
130.928 2385 48.8365
131.045 2260 47.5395
131.162 2247 47.4025
131.279 2380 48.7852
131.396 2289 47.8435
131.513 2305 48.0104
131.631 2176 46.6476
131.748 2107 45.9021
131.865 2107 45.9021
131.983 2071 45.5082
132.1 1944 44.0908
132.217 1956 44.2267
132.335 1959 44.2606
132.452 1933 43.9659
132.57 2005 44.7772
132.687 1984 44.5421
132.804 2052 45.299
132.922 1897 43.5546
133.039 2029 45.0444
133.157 1899 43.5775
133.274 1813 42.5793
133.392 1819 42.6497
133.509 1930 43.9318
133.627 1766 42.0238
133.744 1791 42.3202
133.862 1859 43.1161
133.979 1903 43.6234
134.097 1928 43.909
134.214 2019 44.9333
134.332 1974 44.4297
134.449 2036 45.1221
134.567 2065 45.4423
134.684 2011 44.8442
134.802 2018 44.9222
134.919 2020 44.9444
135.037 1965 44.3283
135.154 1941 44.0568
135.272 1912 43.7264
135.389 1867 43.2088
135.507 1788 42.2847
135.624 1743 41.7493
135.742 1716 41.4246
135.859 1746 41.7852
135.977 1736 41.6653
136.094 1792 42.332
136.211 1860 43.1277
136.329 1831 42.7902
136.446 1788 42.2847
136.564 1791 42.3202
136.681 1808 42.5206
136.798 1714 41.4005
136.915 1783 42.2256
137.033 1776 42.1426
137.15 1626 40.3237
137.267 1715 41.4126
137.384 1684 41.0366
137.502 1827 42.7434
137.619 1846 42.9651
137.736 1839 42.8836
137.853 1900 43.589
137.97 1916 43.7721
138.087 1896 43.5431
138.204 1975 44.441
138.321 1982 44.5197
138.438 2082 45.6289
138.555 2081 45.618
138.672 1988 44.587
138.788 1939 44.0341
138.905 1921 43.8292
139.022 1868 43.2204
139.139 1877 43.3244
139.255 1739 41.7013
139.372 1857 43.0929
139.488 1823 42.6966
139.605 1911 43.715
139.721 1921 43.8292
139.838 1965 44.3283
139.954 1925 43.8748
140.071 1918 43.795
140.187 1912 43.7264
140.303 1906 43.6578
140.419 1823 42.6966
140.535 1735 41.6533
140.652 1751 41.845
140.768 0 1
140.884 0 1
141 0 1
141.115 0 1
141.231 0 1
141.347 0 1
141.463 0 1
141.578 0 1
141.694 0 1
144.104 0 1
144.219 0 1
144.335 0 1
144.45 0 1
144.566 0 1
144.682 0 1
144.798 0 1
144.914 0 1
145.03 0 1
145.146 1694 41.1582
145.262 1714 41.4005
145.378 1738 41.6893
145.494 1607 40.0874
145.61 1559 39.4842
145.726 1573 39.6611
145.842 1622 40.2741
145.959 1618 40.2244
146.075 1613 40.1622
146.192 1632 40.398
146.308 1755 41.8927
146.425 1793 42.3438
146.541 1768 42.0476
146.658 1718 41.4488
146.774 1793 42.3438
146.891 1801 42.4382
147.008 1839 42.8836
147.125 1924 43.8634
147.241 1908 43.6807
147.358 1881 43.3705
147.475 1952 44.1814
147.592 1723 41.509
147.709 1774 42.1189
147.826 1677 40.9512
147.943 1692 41.1339
148.06 1745 41.7732
148.177 1734 41.6413
148.294 1735 41.6533
148.411 1851 43.0232
148.528 1736 41.6653
148.645 1803 42.4617
148.762 1764 42
148.88 1783 42.2256
148.997 1754 41.8808
149.114 1789 42.2966
149.231 1708 41.328
149.349 1714 41.4005
149.466 1599 39.9875
149.583 1645 40.5586
149.701 1574 39.6737
149.818 1678 40.9634
149.935 1683 41.0244
150.053 1694 41.1582
150.17 1779 42.1782
150.287 1826 42.7317
150.405 1728 41.5692
150.522 1839 42.8836
150.64 1968 44.3621
150.757 2009 44.8219
150.875 1982 44.5197
150.992 1907 43.6692
151.11 1950 44.1588
151.227 1938 44.0227
151.344 1849 43
151.462 1804 42.4735
151.579 1851 43.0232
151.697 1868 43.2204
151.814 1874 43.2897
151.932 1833 42.8135
152.049 1866 43.1972
152.167 1858 43.1045
152.284 1880 43.359
152.402 1831 42.7902
152.519 1814 42.5911
152.636 1934 43.9773
152.754 1745 41.7732
152.871 1794 42.3556
152.989 1765 42.0119
153.106 1703 41.2674
153.223 1846 42.9651
153.341 1813 42.5793
153.458 1732 41.6173
153.575 1897 43.5546
153.693 1861 43.1393
153.81 1896 43.5431
153.927 1909 43.6921
154.044 2030 45.0555
154.162 1968 44.3621
154.279 2117 46.0109
154.396 2053 45.31
154.513 2137 46.2277
154.63 2058 45.3652
154.747 2065 45.4423
154.864 2048 45.2548
154.981 2040 45.1664
155.098 2010 44.833
155.215 1941 44.0568
155.332 1931 43.9431
155.449 2023 44.9778
155.566 1936 44
155.683 2038 45.1442
155.8 2038 45.1442
155.917 1982 44.5197
156.033 1983 44.5309
156.15 0 1
156.267 0 1
156.383 0 1
156.5 0 1
156.617 0 1
156.733 0 1
156.85 0 1
156.966 0 1
157.082 0 1
157.199 0 1
157.315 0 1
157.431 0 1
157.547 0 1
157.664 0 1
157.78 0 1
157.896 0 1
158.012 0 1
158.128 0 1
158.244 0 1
158.359 0 1
158.475 0 1
158.591 0 1
158.706 0 1
