
6.15755 0 1
6.2731 0 1
6.3887 0 1
6.50437 0 1
6.62009 0 1
6.73587 0 1
6.8517 0 1
6.96759 0 1
7.08353 0 1
7.19952 0 1
7.31557 0 1
7.43166 0 1
7.54781 0 1
7.664 0 1
7.78024 0 1
7.89653 0 1
8.01286 0 1
8.12924 0 1
8.24567 0 1
8.36213 0 1
8.47864 0 1
8.59519 0 1
8.71178 0 1
8.82841 0 1
8.94508 0 1
9.06179 0 1
9.17853 0 1
9.29531 0 1
9.41212 0 1
9.52897 0 1
9.64584 0 1
9.76276 0 1
9.8797 0 1
9.99667 0 1
10.1137 0 1
10.2307 0 1
10.3478 0 1
10.4648 0 1
10.5819 0 1
10.6991 0 1
10.8162 0 1
10.9334 0 1
11.0506 0 1
11.1678 0 1
11.285 0 1
11.4023 0 1
11.5196 0 1
11.6369 0 1
11.7542 0 1
11.8715 0 1
11.9888 0 1
12.1062 0 1
12.2235 0 1
12.3409 0 1
12.4582 0 1
12.5756 0 1
12.693 0 1
12.8104 0 1
12.9278 0 1
13.0452 0 1
13.1626 0 1
13.28 0 1
13.3974 0 1
13.5149 0 1
13.6323 0 1
13.7497 0 1
13.8671 0 1
13.9845 0 1
14.1019 0 1
14.2193 0 1
14.3367 0 1
14.4541 0 1
14.5714 0 1
14.6888 0 1
14.8062 0 1
14.9235 0 1
15.0408 458 21.4009
15.1581 529 23
15.2755 510 22.5832
15.3927 499 22.3383
15.51 513 22.6495
15.6273 511 22.6053
15.7445 456 21.3542
15.8617 453 21.2838
15.9789 510 22.5832
16.0961 504 22.4499
16.2132 514 22.6716
16.3304 515 22.6936
16.4475 542 23.2809
16.5646 522 22.8473
16.6816 535 23.1301
16.7986 550 23.4521
16.9156 527 22.9565
17.0326 531 23.0434
17.1496 531 23.0434
17.2665 500 22.3607
17.3833 529 23
17.5002 488 22.0907
17.617 454 21.3073
17.7338 515 22.6936
17.8505 495 22.2486
17.9672 495 22.2486
18.0839 517 22.7376
18.2005 502 22.4054
18.3171 465 21.5639
18.4337 475 21.7945
18.5502 510 22.5832
18.6666 499 22.3383
18.7831 558 23.622
18.8994 531 23.0434
19.0158 486 22.0454
19.1321 461 21.4709
19.2483 511 22.6053
19.3645 435 20.8567
19.4806 462 21.4942
19.5967 395 19.8746
19.7128 396 19.8997
19.8288 381 19.5192
19.9447 374 19.3391
20.0606 0 1
20.1764 0 1
20.2922 0 1
20.4079 0 1
20.5236 0 1
20.6392 0 1
20.7548 0 1
20.8702 0 1
23.3078 0 1
23.4233 0 1
23.539 0 1
23.6547 0 1
23.7704 0 1
23.8862 0 1
24.0021 0 1
24.118 0 1
24.234 0 1
24.35 0 1
24.4661 193 13.8924
24.5822 203 14.2478
24.6984 274 16.5529
24.8146 286 16.9115
24.9309 347 18.6279
25.0472 409 20.2237
25.1636 410 20.2485
25.28 484 22
25.3965 509 22.561
25.513 529 23
25.6296 564 23.7487
25.7462 621 24.9199
25.8628 574 23.9583
25.9795 578 24.0416
26.0962 577 24.0208
26.213 594 24.3721
26.3298 595 24.3926
26.4466 561 23.6854
26.5635 541 23.2594
26.6804 527 22.9565
26.7973 539 23.2164
26.9143 497 22.2935
27.0313 509 22.561
27.1483 540 23.2379
27.2653 541 23.2594
27.3824 535 23.1301
27.4996 570 23.8747
27.6167 559 23.6432
27.7339 511 22.6053
27.8511 512 22.6274
27.9683 527 22.9565
28.0855 507 22.5167
28.2028 494 22.2261
28.3201 488 22.0907
28.4374 513 22.6495
28.5547 527 22.9565
28.6721 508 22.5389
28.7894 560 23.6643
28.9068 571 23.8956
29.0242 567 23.8118
29.1416 588 24.2487
29.259 530 23.0217
29.3764 564 23.7487
29.4939 542 23.2809
29.6113 559 23.6432
29.7288 569 23.8537
29.8463 580 24.0832
29.9638 534 23.1084
30.0812 517 22.7376
30.1987 516 22.7156
30.3162 513 22.6495
30.4337 491 22.1585
30.5512 482 21.9545
30.6687 486 22.0454
30.7862 478 21.8632
30.9037 490 22.1359
31.0212 522 22.8473
31.1387 461 21.4709
31.2562 506 22.4944
31.3737 511 22.6053
31.4912 478 21.8632
31.6087 514 22.6716
31.7262 487 22.0681
31.8436 475 21.7945
31.9611 471 21.7025
32.0785 474 21.7715
32.1959 530 23.0217
32.3134 541 23.2594
32.4308 541 23.2594
32.5482 555 23.5584
32.6655 561 23.6854
32.7829 533 23.0868
32.9002 550 23.4521
33.0176 565 23.7697
33.1349 587 24.2281
33.2522 527 22.9565
33.3694 547 23.388
33.4867 546 23.3666
33.6039 540 23.2379
33.7211 494 22.2261
33.8383 527 22.9565
33.9554 491 22.1585
34.0725 464 21.5407
34.1896 486 22.0454
34.3067 483 21.9773
34.4237 504 22.4499
34.5407 476 21.8174
34.6577 521 22.8254
34.7746 473 21.7486
34.8915 504 22.4499
35.0084 475 21.7945
35.1252 479 21.8861
35.242 451 21.2368
35.3587 477 21.8403
35.4755 474 21.7715
35.5921 517 22.7376
35.7088 496 22.2711
35.8254 524 22.891
35.9419 571 23.8956
36.0584 543 23.3024
36.1749 518 22.7596
36.2913 530 23.0217
36.4077 509 22.561
36.524 466 21.587
36.6403 435 20.8567
36.7565 446 21.1187
36.8727 447 21.1424
36.9889 412 20.2978
37.1049 343 18.5203
37.221 0 1
37.3369 0 1
37.4529 0 1
37.5687 0 1
37.6845 0 1
37.8003 0 1
37.916 0 1
38.0316 0 1
38.1472 0 1
40.5851 0 1
40.7008 0 1
40.8164 0 1
40.9322 0 1
41.048 0 1
41.1639 0 1
41.2798 0 1
41.3958 0 1
41.5118 0 1
41.6279 0 1
41.744 217 14.7309
41.8602 240 15.4919
41.9765 275 16.5831
42.0928 324 18
42.2091 361 19
42.3255 368 19.1833
42.4419 367 19.1572
42.5584 396 19.8997
42.675 400 20
42.7915 401 20.025
42.9081 399 19.975
43.0248 384 19.5959
43.1415 412 20.2978
43.2582 391 19.7737
43.375 428 20.6882
43.4918 461 21.4709
43.6087 395 19.8746
43.7256 392 19.799
43.8425 396 19.8997
43.9595 426 20.6398
44.0765 380 19.4936
44.1935 406 20.1494
44.3106 377 19.4165
44.4277 453 21.2838
44.5448 419 20.4695
44.6619 442 21.0238
44.7791 476 21.8174
44.8963 410 20.2485
45.0136 435 20.8567
45.1308 460 21.4476
45.2481 462 21.4942
45.3654 470 21.6795
45.4827 436 20.8806
45.6001 446 21.1187
45.7174 445 21.095
45.8348 449 21.1896
45.9522 414 20.347
46.0697 464 21.5407
46.1871 407 20.1742
46.3046 435 20.8567
46.422 453 21.2838
46.5395 407 20.1742
46.657 432 20.7846
46.7745 435 20.8567
46.892 444 21.0713
47.0096 421 20.5183
47.1271 473 21.7486
47.2446 438 20.9284
47.3622 413 20.3224
47.4797 440 20.9762
47.5973 374 19.3391
47.7149 422 20.5426
47.8324 465 21.5639
47.95 468 21.6333
48.0675 477 21.8403
48.1851 448 21.166
48.3027 424 20.5913
48.4202 458 21.4009
48.5378 426 20.6398
48.6554 465 21.5639
48.7729 427 20.664
48.8904 447 21.1424
49.008 489 22.1133
49.1255 433 20.8087
49.243 483 21.9773
49.3605 427 20.664
49.478 433 20.8087
49.5955 461 21.4709
49.713 472 21.7256
49.8304 475 21.7945
49.9479 398 19.9499
50.0653 446 21.1187
50.1827 431 20.7605
50.3001 401 20.025
50.4175 411 20.2731
50.5348 445 21.095
50.6521 400 20
50.7694 470 21.6795
50.8867 434 20.8327
51.004 393 19.8242
51.1212 448 21.166
51.2384 436 20.8806
51.3556 446 21.1187
51.4727 428 20.6882
51.5899 468 21.6333
51.707 462 21.4942
51.824 470 21.6795
51.9411 456 21.3542
52.0581 428 20.6882
52.175 468 21.6333
52.2919 467 21.6102
52.4088 460 21.4476
52.5257 465 21.5639
52.6425 469 21.6564
52.7593 436 20.8806
52.876 478 21.8632
52.9927 436 20.8806
53.1094 411 20.2731
53.226 450 21.2132
53.3426 485 22.0227
53.4591 453 21.2838
53.5756 435 20.8567
53.692 401 20.025
53.8084 347 18.6279
53.9248 337 18.3576
54.0411 284 16.8523
54.1573 248 15.748
54.2735 0 1
54.3896 0 1
54.5057 0 1
54.6217 0 1
54.7377 0 1
54.8537 0 1
54.9695 0 1
55.0853 0 1
55.2011 0 1
55.3168 0 1
55.4324 0 1
57.824 0 1
57.9396 0 1
58.0553 0 1
58.1711 0 1
58.2869 0 1
58.4028 0 1
58.5187 0 1
58.6347 0 1
58.7508 0 1
58.8669 0 1
58.983 292 17.088
59.0992 345 18.5742
59.2155 367 19.1572
59.3318 415 20.3715
59.4482 496 22.2711
59.5646 502 22.4054
59.681 515 22.6936
59.7975 464 21.5407
59.9141 483 21.9773
60.0306 537 23.1733
60.1473 576 24
60.2639 589 24.2693
60.3807 555 23.5584
60.4974 582 24.1247
60.6142 587 24.2281
60.731 604 24.5764
60.8479 603 24.5561
60.9648 579 24.0624
61.0818 577 24.0208
61.1987 553 23.516
61.3158 556 23.5797
61.4328 571 23.8956
61.5499 564 23.7487
61.667 580 24.0832
61.7841 520 22.8035
61.9013 591 24.3105
62.0185 549 23.4307
62.1357 572 23.9165
62.253 547 23.388
62.3702 543 23.3024
62.4875 567 23.8118
62.6049 509 22.561
62.7222 544 23.3238
62.8396 554 23.5372
62.9569 567 23.8118
63.0743 535 23.1301
63.1918 555 23.5584
63.3092 560 23.6643
63.4267 527 22.9565
63.5441 550 23.4521
63.6616 569 23.8537
63.7791 600 24.4949
63.8966 573 23.9374
64.0142 578 24.0416
64.1317 587 24.2281
64.2492 578 24.0416
64.3668 582 24.1247
64.4843 574 23.9583
64.6019 583 24.1454
64.7195 588 24.2487
64.837 568 23.8328
64.9546 505 22.4722
65.0722 539 23.2164
65.1898 572 23.9165
65.3074 576 24
65.4249 624 24.98
65.5425 547 23.388
65.6601 546 23.3666
65.7777 567 23.8118
65.8952 558 23.622
66.0128 514 22.6716
66.1304 533 23.0868
66.2479 487 22.0681
66.3655 522 22.8473
66.483 546 23.3666
66.6005 529 23
66.718 534 23.1084
66.8355 497 22.2935
66.953 485 22.0227
67.0705 563 23.7276
67.1879 547 23.388
67.3054 544 23.3238
67.4228 566 23.7908
67.5402 540 23.2379
67.6576 551 23.4734
67.7749 538 23.1948
67.8923 493 22.2036
68.0096 550 23.4521
68.1269 510 22.5832
68.2442 549 23.4307
68.3614 538 23.1948
68.4787 549 23.4307
68.5958 514 22.6716
68.713 531 23.0434
68.8302 558 23.622
68.9473 566 23.7908
69.0643 550 23.4521
69.1814 544 23.3238
69.2984 515 22.6936
69.4154 565 23.7697
69.5323 568 23.8328
69.6492 519 22.7816
69.7661 536 23.1517
69.8829 515 22.6936
69.9997 523 22.8692
70.1165 522 22.8473
70.2332 548 23.4094
70.3499 537 23.1733
70.4665 467 21.6102
70.5831 428 20.6882
70.6996 439 20.9523
70.8161 356 18.868
70.9326 318 17.8326
71.049 313 17.6918
71.1653 306 17.4929
71.2817 261 16.1555
71.3979 249 15.7797
71.5141 243 15.5885
71.6303 215 14.6629
71.7464 169 13
71.8624 0 1
71.9784 0 1
72.0944 0 1
72.2102 0 1
72.3261 0 1
72.4418 0 1
72.5575 0 1
72.6732 0 1
75.1054 0 1
75.2209 0 1
75.3365 0 1
75.4521 0 1
75.5678 0 1
75.6835 0 1
75.7993 0 1
75.9151 0 1
76.031 0 1
76.147 297 17.2337
76.263 312 17.6635
76.3791 417 20.4206
76.4952 463 21.5174
76.6113 474 21.7715
76.7276 425 20.6155
76.8438 455 21.3307
76.9601 475 21.7945
77.0765 468 21.6333
77.1929 413 20.3224
77.3093 478 21.8632
77.4258 457 21.3776
77.5423 513 22.6495
77.6589 489 22.1133
77.7755 466 21.587
77.8921 469 21.6564
78.0088 469 21.6564
78.1256 449 21.1896
78.2423 521 22.8254
78.3591 483 21.9773
78.4759 521 22.8254
78.5928 493 22.2036
78.7097 455 21.3307
78.8266 498 22.3159
78.9436 460 21.4476
79.0606 457 21.3776
79.1776 469 21.6564
79.2946 433 20.8087
79.4117 498 22.3159
79.5288 455 21.3307
79.6459 494 22.2261
79.7631 507 22.5167
79.8802 499 22.3383
79.9974 512 22.6274
80.1147 543 23.3024
80.2319 499 22.3383
80.3491 479 21.8861
80.4664 514 22.6716
80.5837 508 22.5389
80.701 509 22.561
80.8183 469 21.6564
80.9357 544 23.3238
81.053 546 23.3666
81.1704 556 23.5797
81.2877 454 21.3073
81.4051 513 22.6495
81.5225 518 22.7596
81.6399 537 23.1733
81.7573 501 22.383
81.8747 502 22.4054
81.9922 485 22.0227
82.1096 485 22.0227
82.227 515 22.6936
82.3444 528 22.9783
82.4619 520 22.8035
82.5793 511 22.6053
82.6967 520 22.8035
82.8142 450 21.2132
82.9316 507 22.5167
83.049 483 21.9773
83.1664 467 21.6102
83.2838 480 21.9089
83.4012 485 22.0227
83.5186 452 21.2603
83.636 528 22.9783
83.7534 481 21.9317
83.8708 431 20.7605
83.9881 423 20.567
84.1055 398 19.9499
84.2228 479 21.8861
84.3401 432 20.7846
84.4575 454 21.3073
84.5747 463 21.5174
84.692 481 21.9317
84.8093 488 22.0907
84.9265 484 22
85.0437 424 20.5913
85.1609 412 20.2978
85.2781 376 19.3907
85.3952 391 19.7737
85.5123 387 19.6723
85.6294 417 20.4206
85.7465 404 20.0998
85.8636 408 20.199
85.9806 391 19.7737
86.0976 329 18.1384
86.2145 336 18.3303
86.3315 347 18.6279
86.4484 386 19.6469
86.5652 356 18.868
86.682 364 19.0788
86.7988 353 18.7883
86.9156 334 18.2757
87.0323 328 18.1108
87.149 363 19.0526
87.2657 347 18.6279
87.3823 319 17.8606
87.4988 337 18.3576
87.6154 308 17.5499
87.7318 280 16.7332
87.8483 304 17.4356
87.9647 267 16.3401
88.081 248 15.748
88.1973 180 13.4164
88.3136 162 12.7279
88.4298 156 12.49
88.546 134 11.5758
88.6621 149 12.2066
88.7781 123 11.0905
88.8942 0 1
89.0101 0 1
89.126 0 1
89.2419 0 1
89.3577 0 1
89.4734 0 1
89.5891 0 1
89.7047 0 1
89.8203 0 1
89.9358 0 1
92.3269 0 1
92.4424 0 1
92.558 0 1
92.6736 0 1
92.7893 0 1
92.905 0 1
93.0208 0 1
93.1366 0 1
93.2525 0 1
93.3685 0 1
93.4845 0 1
93.6005 213 14.5945
93.7167 235 15.3297
93.8328 261 16.1555
93.949 311 17.6352
94.0653 332 18.2209
94.1816 339 18.412
94.2979 322 17.9444
94.4143 330 18.1659
94.5307 355 18.8414
94.6472 355 18.8414
94.7637 355 18.8414
94.8803 380 19.4936
94.9969 375 19.3649
95.1135 369 19.2094
95.2302 367 19.1572
95.3469 349 18.6815
95.4637 359 18.9473
95.5805 360 18.9737
95.6973 369 19.2094
95.8142 364 19.0788
95.9311 385 19.6214
96.048 367 19.1572
96.1649 356 18.868
96.2819 359 18.9473
96.3989 396 19.8997
96.516 399 19.975
96.633 412 20.2978
96.7501 417 20.4206
96.8673 425 20.6155
96.9844 425 20.6155
97.1016 389 19.7231
97.2188 447 21.1424
97.336 416 20.3961
97.4532 425 20.6155
97.5704 466 21.587
97.6877 428 20.6882
97.805 453 21.2838
97.9223 446 21.1187
98.0396 442 21.0238
98.1569 450 21.2132
98.2743 437 20.9045
98.3916 448 21.166
98.509 454 21.3073
98.6264 442 21.0238
98.7438 452 21.2603
98.8612 461 21.4709
98.9786 479 21.8861
99.096 458 21.4009
99.2134 406 20.1494
99.3308 474 21.7715
99.4482 489 22.1133
99.5656 481 21.9317
99.6831 478 21.8632
99.8005 499 22.3383
99.9179 481 21.9317
100.035 488 22.0907
100.153 487 22.0681
100.27 480 21.9089
100.388 522 22.8473
100.505 438 20.9284
100.622 477 21.8403
100.74 473 21.7486
100.857 466 21.587
100.975 474 21.7715
101.092 485 22.0227
101.209 512 22.6274
101.327 482 21.9545
101.444 496 22.2711
101.561 503 22.4277
101.679 507 22.5167
101.796 500 22.3607
101.913 517 22.7376
102.03 476 21.8174
102.148 537 23.1733
102.265 501 22.383
102.382 544 23.3238
102.499 481 21.9317
102.616 468 21.6333
102.733 453 21.2838
102.851 490 22.1359
102.968 486 22.0454
103.085 536 23.1517
103.202 490 22.1359
103.319 521 22.8254
103.436 557 23.6008
103.552 541 23.2594
103.669 505 22.4722
103.786 529 23
103.903 565 23.7697
104.02 531 23.0434
104.137 542 23.2809
104.253 513 22.6495
104.37 549 23.4307
104.487 547 23.388
104.603 532 23.0651
104.72 538 23.1948
104.836 539 23.2164
104.953 574 23.9583
105.069 509 22.561
105.186 531 23.0434
105.302 549 23.4307
105.418 435 20.8567
105.535 388 19.6977
105.651 348 18.6548
105.767 306 17.4929
105.883 289 17
105.999 244 15.6205
106.115 0 1
106.231 0 1
106.347 0 1
106.463 0 1
106.579 0 1
106.694 0 1
106.81 0 1
106.926 0 1
107.041 0 1
107.157 0 1
109.576 0 1
109.692 0 1
109.807 0 1
109.923 0 1
110.039 0 1
110.155 0 1
110.27 0 1
110.386 0 1
110.502 0 1
110.618 305 17.4642
110.735 349 18.6815
110.851 385 19.6214
110.967 376 19.3907
111.083 397 19.9249
111.199 464 21.5407
111.316 429 20.7123
111.432 451 21.2368
111.549 460 21.4476
111.665 448 21.166
111.782 470 21.6795
111.898 480 21.9089
112.015 474 21.7715
112.132 533 23.0868
112.248 534 23.1084
112.365 460 21.4476
112.482 471 21.7025
112.599 487 22.0681
112.716 430 20.7364
112.832 513 22.6495
112.949 465 21.5639
113.066 471 21.7025
113.183 504 22.4499
113.3 460 21.4476
113.417 467 21.6102
113.534 487 22.0681
113.652 501 22.383
113.769 471 21.7025
113.886 471 21.7025
114.003 498 22.3159
114.12 441 21
114.238 480 21.9089
114.355 497 22.2935
114.472 415 20.3715
114.589 449 21.1896
114.707 449 21.1896
114.824 460 21.4476
114.942 450 21.2132
115.059 478 21.8632
115.176 452 21.2603
115.294 469 21.6564
115.411 457 21.3776
115.529 461 21.4709
115.646 454 21.3073
115.764 433 20.8087
115.881 475 21.7945
115.999 509 22.561
116.116 466 21.587
116.234 515 22.6936
116.351 490 22.1359
116.469 468 21.6333
116.586 477 21.8403
116.704 473 21.7486
116.821 524 22.891
116.939 500 22.3607
117.056 447 21.1424
117.174 482 21.9545
117.291 485 22.0227
117.409 506 22.4944
117.526 519 22.7816
117.644 471 21.7025
117.761 473 21.7486
117.879 437 20.9045
117.996 464 21.5407
118.114 445 21.095
118.231 443 21.0476
118.349 419 20.4695
118.466 404 20.0998
118.584 503 22.4277
118.701 498 22.3159
118.819 471 21.7025
118.936 466 21.587
119.053 474 21.7715
119.171 421 20.5183
119.288 446 21.1187
119.405 471 21.7025
119.523 482 21.9545
119.64 485 22.0227
119.757 450 21.2132
119.875 459 21.4243
119.992 455 21.3307
120.109 516 22.7156
120.226 438 20.9284
120.343 463 21.5174
120.46 461 21.4709
120.578 455 21.3307
120.695 458 21.4009
120.812 454 21.3073
120.929 441 21
121.046 474 21.7715
121.163 440 20.9762
121.279 458 21.4009
121.396 470 21.6795
121.513 457 21.3776
121.63 438 20.9284
121.747 440 20.9762
121.863 448 21.166
121.98 397 19.9249
122.097 395 19.8746
122.213 416 20.3961
122.33 349 18.6815
122.446 332 18.2209
122.563 287 16.9411
122.679 284 16.8523
122.795 259 16.0935
122.912 264 16.2481
123.028 252 15.8745
123.144 208 14.4222
123.26 226 15.0333
123.377 0 1
123.493 0 1
123.609 0 1
123.725 0 1
123.84 0 1
123.956 0 1
124.072 0 1
124.188 0 1
124.303 0 1
124.419 0 1
126.852 0 1
126.968 0 1
127.083 0 1
127.199 0 1
127.315 0 1
127.431 0 1
127.547 0 1
127.663 0 1
127.779 0 1
127.895 0 1
128.011 0 1
128.127 0 1
128.243 0 1
128.359 493 22.2036
128.476 475 21.7945
128.592 474 21.7715
128.708 543 23.3024
128.825 496 22.2711
128.941 505 22.4722
129.058 539 23.2164
129.174 504 22.4499
129.291 511 22.6053
129.408 527 22.9565
129.524 496 22.2711
129.641 493 22.2036
129.758 549 23.4307
129.875 526 22.9347
129.992 473 21.7486
130.108 536 23.1517
130.225 509 22.561
130.342 532 23.0651
130.459 507 22.5167
130.576 488 22.0907
130.693 499 22.3383
130.81 464 21.5407
130.928 439 20.9523
131.045 446 21.1187
131.162 513 22.6495
131.279 466 21.587
131.396 513 22.6495
131.513 488 22.0907
131.631 495 22.2486
131.748 449 21.1896
131.865 452 21.2603
131.983 515 22.6936
132.1 441 21
132.217 523 22.8692
132.335 531 23.0434
132.452 545 23.3452
132.57 514 22.6716
132.687 536 23.1517
132.804 533 23.0868
132.922 510 22.5832
133.039 505 22.4722
133.157 488 22.0907
133.274 555 23.5584
133.392 509 22.561
133.509 519 22.7816
133.627 499 22.3383
133.744 505 22.4722
133.862 511 22.6053
133.979 508 22.5389
134.097 505 22.4722
134.214 525 22.9129
134.332 482 21.9545
134.449 440 20.9762
134.567 465 21.5639
134.684 469 21.6564
134.802 474 21.7715
134.919 514 22.6716
135.037 470 21.6795
135.154 478 21.8632
135.272 430 20.7364
135.389 486 22.0454
135.507 509 22.561
135.624 485 22.0227
135.742 507 22.5167
135.859 480 21.9089
135.977 521 22.8254
136.094 466 21.587
136.211 479 21.8861
136.329 510 22.5832
136.446 520 22.8035
136.564 513 22.6495
136.681 489 22.1133
136.798 535 23.1301
136.915 549 23.4307
137.033 535 23.1301
137.15 528 22.9783
137.267 526 22.9347
137.384 501 22.383
137.502 521 22.8254
137.619 527 22.9565
137.736 500 22.3607
137.853 446 21.1187
137.97 436 20.8806
138.087 464 21.5407
138.204 486 22.0454
138.321 482 21.9545
138.438 499 22.3383
138.555 483 21.9773
138.672 484 22
138.788 491 22.1585
138.905 466 21.587
139.022 487 22.0681
139.139 432 20.7846
139.255 423 20.567
139.372 390 19.7484
139.488 382 19.5448
139.605 376 19.3907
139.721 349 18.6815
139.838 314 17.72
139.954 321 17.9165
140.071 281 16.7631
140.187 240 15.4919
140.303 260 16.1245
140.419 245 15.6525
140.535 254 15.9374
140.652 220 14.8324
140.768 0 1
140.884 0 1
141 0 1
141.115 0 1
141.231 0 1
141.347 0 1
141.463 0 1
141.578 0 1
141.694 0 1
144.104 0 1
144.219 0 1
144.335 0 1
144.45 0 1
144.566 0 1
144.682 0 1
144.798 0 1
144.914 0 1
145.03 0 1
145.146 384 19.5959
145.262 419 20.4695
145.378 365 19.105
145.494 370 19.2354
145.61 404 20.0998
145.726 400 20
145.842 368 19.1833
145.959 402 20.0499
146.075 438 20.9284
146.192 385 19.6214
146.308 393 19.8242
146.425 366 19.1311
146.541 373 19.3132
146.658 346 18.6011
146.774 376 19.3907
146.891 375 19.3649
147.008 374 19.3391
147.125 353 18.7883
147.241 378 19.4422
147.358 363 19.0526
147.475 392 19.799
147.592 402 20.0499
147.709 384 19.5959
147.826 352 18.7617
147.943 349 18.6815
148.06 352 18.7617
148.177 368 19.1833
148.294 403 20.0749
148.411 375 19.3649
148.528 413 20.3224
148.645 404 20.0998
148.762 383 19.5704
148.88 395 19.8746
148.997 393 19.8242
149.114 402 20.0499
149.231 458 21.4009
149.349 385 19.6214
149.466 359 18.9473
149.583 391 19.7737
149.701 381 19.5192
149.818 358 18.9209
149.935 355 18.8414
150.053 353 18.7883
150.17 328 18.1108
150.287 353 18.7883
150.405 353 18.7883
150.522 350 18.7083
150.64 350 18.7083
150.757 325 18.0278
150.875 383 19.5704
150.992 369 19.2094
151.11 376 19.3907
151.227 356 18.868
151.344 341 18.4662
151.462 349 18.6815
151.579 326 18.0555
151.697 320 17.8885
151.814 376 19.3907
151.932 366 19.1311
152.049 353 18.7883
152.167 368 19.1833
152.284 331 18.1934
152.402 379 19.4679
152.519 395 19.8746
152.636 353 18.7883
152.754 369 19.2094
152.871 391 19.7737
152.989 354 18.8149
153.106 335 18.303
153.223 402 20.0499
153.341 374 19.3391
153.458 343 18.5203
153.575 371 19.2614
153.693 346 18.6011
153.81 344 18.5472
153.927 334 18.2757
154.044 355 18.8414
154.162 362 19.0263
154.279 353 18.7883
154.396 331 18.1934
154.513 363 19.0526
154.63 371 19.2614
154.747 351 18.735
154.864 347 18.6279
154.981 347 18.6279
155.098 328 18.1108
155.215 323 17.9722
155.332 325 18.0278
155.449 334 18.2757
155.566 333 18.2483
155.683 380 19.4936
155.8 371 19.2614
155.917 350 18.7083
156.033 363 19.0526
156.15 0 1
156.267 0 1
156.383 0 1
156.5 0 1
156.617 0 1
156.733 0 1
156.85 0 1
156.966 0 1
157.082 0 1
157.199 0 1
157.315 0 1
157.431 0 1
157.547 0 1
157.664 0 1
157.78 0 1
157.896 0 1
158.012 0 1
158.128 0 1
158.244 0 1
158.359 0 1
158.475 0 1
158.591 0 1
158.706 0 1
