
6.15755 0 1
6.2731 0 1
6.3887 0 1
6.50437 0 1
6.62009 0 1
6.73587 0 1
6.8517 0 1
6.96759 0 1
7.08353 0 1
7.19952 0 1
7.31557 0 1
7.43166 0 1
7.54781 0 1
7.664 0 1
7.78024 0 1
7.89653 0 1
8.01286 0 1
8.12924 0 1
8.24567 0 1
8.36213 0 1
8.47864 0 1
8.59519 0 1
8.71178 0 1
8.82841 0 1
8.94508 0 1
9.06179 0 1
9.17853 0 1
9.29531 0 1
9.41212 0 1
9.52897 0 1
9.64584 0 1
9.76276 0 1
9.8797 0 1
9.99667 0 1
10.1137 0 1
10.2307 0 1
10.3478 0 1
10.4648 0 1
10.5819 0 1
10.6991 0 1
10.8162 0 1
10.9334 0 1
11.0506 0 1
11.1678 0 1
11.285 0 1
11.4023 0 1
11.5196 0 1
11.6369 0 1
11.7542 0 1
11.8715 0 1
11.9888 0 1
12.1062 0 1
12.2235 0 1
12.3409 0 1
12.4582 0 1
12.5756 0 1
12.693 0 1
12.8104 0 1
12.9278 0 1
13.0452 0 1
13.1626 0 1
13.28 0 1
13.3974 0 1
13.5149 0 1
13.6323 0 1
13.7497 0 1
13.8671 0 1
13.9845 0 1
14.1019 0 1
14.2193 0 1
14.3367 0 1
14.4541 0 1
14.5714 0 1
14.6888 0 1
14.8062 0 1
14.9235 0 1
15.0408 301 17.3494
15.1581 279 16.7033
15.2755 329 18.1384
15.3927 289 17
15.51 292 17.088
15.6273 294 17.1464
15.7445 304 17.4356
15.8617 306 17.4929
15.9789 299 17.2916
16.0961 302 17.3781
16.2132 276 16.6132
16.3304 270 16.4317
16.4475 292 17.088
16.5646 264 16.2481
16.6816 290 17.0294
16.7986 256 16
16.9156 248 15.748
17.0326 256 16
17.1496 262 16.1864
17.2665 281 16.7631
17.3833 217 14.7309
17.5002 273 16.5227
17.617 232 15.2315
17.7338 265 16.2788
17.8505 246 15.6844
17.9672 226 15.0333
18.0839 258 16.0624
18.2005 255 15.9687
18.3171 221 14.8661
18.4337 274 16.5529
18.5502 276 16.6132
18.6666 244 15.6205
18.7831 269 16.4012
18.8994 241 15.5242
19.0158 243 15.5885
19.1321 231 15.1987
19.2483 232 15.2315
19.3645 228 15.0997
19.4806 213 14.5945
19.5967 208 14.4222
19.7128 201 14.1774
19.8288 185 13.6015
19.9447 167 12.9228
20.0606 0 1
20.1764 0 1
20.2922 0 1
20.4079 0 1
20.5236 0 1
20.6392 0 1
20.7548 0 1
20.8702 0 1
23.3078 0 1
23.4233 0 1
23.539 0 1
23.6547 0 1
23.7704 0 1
23.8862 0 1
24.0021 0 1
24.118 0 1
24.234 0 1
24.35 0 1
24.4661 100 10
24.5822 106 10.2956
24.6984 132 11.4891
24.8146 149 12.2066
24.9309 201 14.1774
25.0472 255 15.9687
25.1636 236 15.3623
25.28 277 16.6433
25.3965 261 16.1555
25.513 296 17.2047
25.6296 284 16.8523
25.7462 279 16.7033
25.8628 290 17.0294
25.9795 295 17.1756
26.0962 263 16.2173
26.213 260 16.1245
26.3298 262 16.1864
26.4466 267 16.3401
26.5635 267 16.3401
26.6804 221 14.8661
26.7973 245 15.6525
26.9143 230 15.1658
27.0313 221 14.8661
27.1483 209 14.4568
27.2653 227 15.0665
27.3824 252 15.8745
27.4996 263 16.2173
27.6167 258 16.0624
27.7339 234 15.2971
27.8511 246 15.6844
27.9683 227 15.0665
28.0855 235 15.3297
28.2028 244 15.6205
28.3201 265 16.2788
28.4374 265 16.2788
28.5547 234 15.2971
28.6721 248 15.748
28.7894 283 16.8226
28.9068 246 15.6844
29.0242 265 16.2788
29.1416 233 15.2643
29.259 243 15.5885
29.3764 235 15.3297
29.4939 252 15.8745
29.6113 238 15.4272
29.7288 240 15.4919
29.8463 211 14.5258
29.9638 233 15.2643
30.0812 215 14.6629
30.1987 216 14.6969
30.3162 205 14.3178
30.4337 217 14.7309
30.5512 194 13.9284
30.6687 238 15.4272
30.7862 244 15.6205
30.9037 249 15.7797
31.0212 246 15.6844
31.1387 240 15.4919
31.2562 247 15.7162
31.3737 251 15.843
31.4912 224 14.9666
31.6087 242 15.5563
31.7262 233 15.2643
31.8436 241 15.5242
31.9611 259 16.0935
32.0785 244 15.6205
32.1959 237 15.3948
32.3134 214 14.6287
32.4308 231 15.1987
32.5482 230 15.1658
32.6655 209 14.4568
32.7829 230 15.1658
32.9002 220 14.8324
33.0176 229 15.1327
33.1349 230 15.1658
33.2522 208 14.4222
33.3694 209 14.4568
33.4867 221 14.8661
33.6039 220 14.8324
33.7211 227 15.0665
33.8383 209 14.4568
33.9554 205 14.3178
34.0725 201 14.1774
34.1896 191 13.8203
34.3067 187 13.6748
34.4237 231 15.1987
34.5407 216 14.6969
34.6577 207 14.3875
34.7746 217 14.7309
34.8915 212 14.5602
35.0084 230 15.1658
35.1252 269 16.4012
35.242 194 13.9284
35.3587 239 15.4596
35.4755 206 14.3527
35.5921 187 13.6748
35.7088 215 14.6629
35.8254 222 14.8997
35.9419 186 13.6382
36.0584 203 14.2478
36.1749 188 13.7113
36.2913 182 13.4907
36.4077 182 13.4907
36.524 189 13.7477
36.6403 184 13.5647
36.7565 187 13.6748
36.8727 166 12.8841
36.9889 135 11.619
37.1049 122 11.0454
37.221 0 1
37.3369 0 1
37.4529 0 1
37.5687 0 1
37.6845 0 1
37.8003 0 1
37.916 0 1
38.0316 0 1
38.1472 0 1
40.5851 0 1
40.7008 0 1
40.8164 0 1
40.9322 0 1
41.048 0 1
41.1639 0 1
41.2798 0 1
41.3958 0 1
41.5118 0 1
41.6279 0 1
41.744 86 9.27362
41.8602 100 10
41.9765 126 11.225
42.0928 150 12.2474
42.2091 152 12.3288
42.3255 173 13.1529
42.4419 185 13.6015
42.5584 145 12.0416
42.675 143 11.9583
42.7915 145 12.0416
42.9081 172 13.1149
43.0248 159 12.6095
43.1415 153 12.3693
43.2582 154 12.4097
43.375 147 12.1244
43.4918 168 12.9615
43.6087 160 12.6491
43.7256 174 13.1909
43.8425 174 13.1909
43.9595 178 13.3417
44.0765 159 12.6095
44.1935 172 13.1149
44.3106 175 13.2288
44.4277 156 12.49
44.5448 166 12.8841
44.6619 181 13.4536
44.7791 177 13.3041
44.8963 185 13.6015
45.0136 174 13.1909
45.1308 161 12.6886
45.2481 168 12.9615
45.3654 160 12.6491
45.4827 180 13.4164
45.6001 188 13.7113
45.7174 196 14
45.8348 174 13.1909
45.9522 157 12.53
46.0697 158 12.5698
46.1871 142 11.9164
46.3046 141 11.8743
46.422 147 12.1244
46.5395 146 12.083
46.657 157 12.53
46.7745 167 12.9228
46.892 155 12.4499
47.0096 172 13.1149
47.1271 164 12.8062
47.2446 169 13
47.3622 156 12.49
47.4797 161 12.6886
47.5973 164 12.8062
47.7149 147 12.1244
47.8324 148 12.1655
47.95 148 12.1655
48.0675 129 11.3578
48.1851 159 12.6095
48.3027 178 13.3417
48.4202 150 12.2474
48.5378 169 13
48.6554 185 13.6015
48.7729 181 13.4536
48.8904 134 11.5758
49.008 150 12.2474
49.1255 179 13.3791
49.243 182 13.4907
49.3605 155 12.4499
49.478 154 12.4097
49.5955 135 11.619
49.713 112 10.583
49.8304 145 12.0416
49.9479 132 11.4891
50.0653 139 11.7898
50.1827 110 10.4881
50.3001 134 11.5758
50.4175 134 11.5758
50.5348 130 11.4018
50.6521 139 11.7898
50.7694 156 12.49
50.8867 169 13
51.004 168 12.9615
51.1212 155 12.4499
51.2384 162 12.7279
51.3556 160 12.6491
51.4727 139 11.7898
51.5899 158 12.5698
51.707 154 12.4097
51.824 172 13.1149
51.9411 169 13
52.0581 161 12.6886
52.175 160 12.6491
52.2919 149 12.2066
52.4088 145 12.0416
52.5257 156 12.49
52.6425 163 12.7671
52.7593 171 13.0767
52.876 156 12.49
52.9927 140 11.8322
53.1094 142 11.9164
53.226 127 11.2694
53.3426 119 10.9087
53.4591 130 11.4018
53.5756 108 10.3923
53.692 129 11.3578
53.8084 107 10.3441
53.9248 115 10.7238
54.0411 94 9.69536
54.1573 94 9.69536
54.2735 0 1
54.3896 0 1
54.5057 0 1
54.6217 0 1
54.7377 0 1
54.8537 0 1
54.9695 0 1
55.0853 0 1
55.2011 0 1
55.3168 0 1
55.4324 0 1
57.824 0 1
57.9396 0 1
58.0553 0 1
58.1711 0 1
58.2869 0 1
58.4028 0 1
58.5187 0 1
58.6347 0 1
58.7508 0 1
58.8669 0 1
58.983 135 11.619
59.0992 176 13.2665
59.2155 192 13.8564
59.3318 235 15.3297
59.4482 230 15.1658
59.5646 268 16.3707
59.681 251 15.843
59.7975 275 16.5831
59.9141 262 16.1864
60.0306 274 16.5529
60.1473 289 17
60.2639 254 15.9374
60.3807 252 15.8745
60.4974 277 16.6433
60.6142 256 16
60.731 249 15.7797
60.8479 242 15.5563
60.9648 245 15.6525
61.0818 238 15.4272
61.1987 257 16.0312
61.3158 253 15.906
61.4328 231 15.1987
61.5499 219 14.7986
61.667 214 14.6287
61.7841 218 14.7648
61.9013 217 14.7309
62.0185 201 14.1774
62.1357 202 14.2127
62.253 226 15.0333
62.3702 203 14.2478
62.4875 191 13.8203
62.6049 186 13.6382
62.7222 185 13.6015
62.8396 185 13.6015
62.9569 185 13.6015
63.0743 196 14
63.1918 187 13.6748
63.3092 172 13.1149
63.4267 182 13.4907
63.5441 171 13.0767
63.6616 197 14.0357
63.7791 204 14.2829
63.8966 187 13.6748
64.0142 171 13.0767
64.1317 173 13.1529
64.2492 175 13.2288
64.3668 176 13.2665
64.4843 172 13.1149
64.6019 178 13.3417
64.7195 180 13.4164
64.837 158 12.5698
64.9546 162 12.7279
65.0722 179 13.3791
65.1898 172 13.1149
65.3074 149 12.2066
65.4249 151 12.2882
65.5425 147 12.1244
65.6601 162 12.7279
65.7777 172 13.1149
65.8952 148 12.1655
66.0128 145 12.0416
66.1304 140 11.8322
66.2479 156 12.49
66.3655 163 12.7671
66.483 167 12.9228
66.6005 179 13.3791
66.718 167 12.9228
66.8355 173 13.1529
66.953 174 13.1909
67.0705 180 13.4164
67.1879 153 12.3693
67.3054 169 13
67.4228 168 12.9615
67.5402 169 13
67.6576 167 12.9228
67.7749 187 13.6748
67.8923 173 13.1529
68.0096 156 12.49
68.1269 153 12.3693
68.2442 154 12.4097
68.3614 146 12.083
68.4787 155 12.4499
68.5958 165 12.8452
68.713 133 11.5326
68.8302 160 12.6491
68.9473 141 11.8743
69.0643 159 12.6095
69.1814 145 12.0416
69.2984 161 12.6886
69.4154 149 12.2066
69.5323 144 12
69.6492 163 12.7671
69.7661 163 12.7671
69.8829 163 12.7671
69.9997 135 11.619
70.1165 165 12.8452
70.2332 149 12.2066
70.3499 160 12.6491
70.4665 147 12.1244
70.5831 135 11.619
70.6996 136 11.6619
70.8161 111 10.5357
70.9326 108 10.3923
71.049 91 9.53939
71.1653 97 9.84886
71.2817 110 10.4881
71.3979 88 9.38083
71.5141 73 8.544
71.6303 83 9.11043
71.7464 66 8.12404
71.8624 0 1
71.9784 0 1
72.0944 0 1
72.2102 0 1
72.3261 0 1
72.4418 0 1
72.5575 0 1
72.6732 0 1
75.1054 0 1
75.2209 0 1
75.3365 0 1
75.4521 0 1
75.5678 0 1
75.6835 0 1
75.7993 0 1
75.9151 0 1
76.031 0 1
76.147 127 11.2694
76.263 128 11.3137
76.3791 143 11.9583
76.4952 139 11.7898
76.6113 147 12.1244
76.7276 140 11.8322
76.8438 140 11.8322
76.9601 144 12
77.0765 150 12.2474
77.1929 122 11.0454
77.3093 156 12.49
77.4258 128 11.3137
77.5423 137 11.7047
77.6589 142 11.9164
77.7755 129 11.3578
77.8921 103 10.1489
78.0088 142 11.9164
78.1256 122 11.0454
78.2423 118 10.8628
78.3591 130 11.4018
78.4759 145 12.0416
78.5928 137 11.7047
78.7097 114 10.6771
78.8266 128 11.3137
78.9436 148 12.1655
79.0606 128 11.3137
79.1776 136 11.6619
79.2946 143 11.9583
79.4117 138 11.7473
79.5288 125 11.1803
79.6459 157 12.53
79.7631 117 10.8167
79.8802 154 12.4097
79.9974 149 12.2066
80.1147 130 11.4018
80.2319 163 12.7671
80.3491 153 12.3693
80.4664 153 12.3693
80.5837 143 11.9583
80.701 144 12
80.8183 137 11.7047
80.9357 160 12.6491
81.053 129 11.3578
81.1704 133 11.5326
81.2877 136 11.6619
81.4051 124 11.1355
81.5225 116 10.7703
81.6399 123 11.0905
81.7573 129 11.3578
81.8747 126 11.225
81.9922 151 12.2882
82.1096 147 12.1244
82.227 167 12.9228
82.3444 160 12.6491
82.4619 159 12.6095
82.5793 137 11.7047
82.6967 158 12.5698
82.8142 153 12.3693
82.9316 170 13.0384
83.049 161 12.6886
83.1664 158 12.5698
83.2838 144 12
83.4012 143 11.9583
83.5186 148 12.1655
83.636 151 12.2882
83.7534 151 12.2882
83.8708 175 13.2288
83.9881 149 12.2066
84.1055 159 12.6095
84.2228 141 11.8743
84.3401 152 12.3288
84.4575 135 11.619
84.5747 138 11.7473
84.692 129 11.3578
84.8093 125 11.1803
84.9265 115 10.7238
85.0437 119 10.9087
85.1609 135 11.619
85.2781 109 10.4403
85.3952 160 12.6491
85.5123 136 11.6619
85.6294 168 12.9615
85.7465 115 10.7238
85.8636 147 12.1244
85.9806 141 11.8743
86.0976 143 11.9583
86.2145 140 11.8322
86.3315 136 11.6619
86.4484 134 11.5758
86.5652 142 11.9164
86.682 170 13.0384
86.7988 130 11.4018
86.9156 143 11.9583
87.0323 160 12.6491
87.149 159 12.6095
87.2657 168 12.9615
87.3823 152 12.3288
87.4988 154 12.4097
87.6154 142 11.9164
87.7318 143 11.9583
87.8483 126 11.225
87.9647 125 11.1803
88.081 108 10.3923
88.1973 103 10.1489
88.3136 102 10.0995
88.4298 84 9.16515
88.546 86 9.27362
88.6621 74 8.60233
88.7781 69 8.30662
88.8942 0 1
89.0101 0 1
89.126 0 1
89.2419 0 1
89.3577 0 1
89.4734 0 1
89.5891 0 1
89.7047 0 1
89.8203 0 1
89.9358 0 1
92.3269 0 1
92.4424 0 1
92.558 0 1
92.6736 0 1
92.7893 0 1
92.905 0 1
93.0208 0 1
93.1366 0 1
93.2525 0 1
93.3685 0 1
93.4845 0 1
93.6005 114 10.6771
93.7167 124 11.1355
93.8328 132 11.4891
93.949 123 11.0905
94.0653 141 11.8743
94.1816 127 11.2694
94.2979 121 11
94.4143 128 11.3137
94.5307 140 11.8322
94.6472 162 12.7279
94.7637 149 12.2066
94.8803 167 12.9228
94.9969 125 11.1803
95.1135 168 12.9615
95.2302 156 12.49
95.3469 142 11.9164
95.4637 157 12.53
95.5805 165 12.8452
95.6973 161 12.6886
95.8142 136 11.6619
95.9311 145 12.0416
96.048 156 12.49
96.1649 159 12.6095
96.2819 135 11.619
96.3989 162 12.7279
96.516 158 12.5698
96.633 160 12.6491
96.7501 185 13.6015
96.8673 153 12.3693
96.9844 162 12.7279
97.1016 161 12.6886
97.2188 124 11.1355
97.336 147 12.1244
97.4532 160 12.6491
97.5704 151 12.2882
97.6877 166 12.8841
97.805 169 13
97.9223 157 12.53
98.0396 179 13.3791
98.1569 151 12.2882
98.2743 185 13.6015
98.3916 179 13.3791
98.509 170 13.0384
98.6264 190 13.784
98.7438 141 11.8743
98.8612 164 12.8062
98.9786 139 11.7898
99.096 146 12.083
99.2134 176 13.2665
99.3308 155 12.4499
99.4482 160 12.6491
99.5656 169 13
99.6831 173 13.1529
99.8005 207 14.3875
99.9179 258 16.0624
100.035 342 18.4932
100.153 468 21.6333
100.27 515 22.6936
100.388 693 26.3249
100.505 898 29.9666
100.622 1146 33.8526
100.74 1292 35.9444
100.857 1480 38.4708
100.975 1493 38.6394
101.092 1372 37.0405
101.209 1284 35.8329
101.327 1156 34
101.444 1137 33.7194
101.561 1172 34.2345
101.679 1602 40.025
101.796 1978 44.4747
101.913 2550 50.4975
102.03 2891 53.768
102.148 2949 54.3047
102.265 3131 55.9553
102.382 3088 55.5698
102.499 2917 54.0093
102.616 3053 55.254
102.733 3039 55.1271
102.851 2840 53.2917
102.968 2765 52.5833
103.085 2623 51.2152
103.202 2442 49.4166
103.319 2324 48.2079
103.436 2336 48.3322
103.552 2126 46.1086
103.669 2152 46.3897
103.786 2048 45.2548
103.903 1891 43.4856
104.02 1790 42.3084
104.137 1657 40.7063
104.253 1538 39.2173
104.37 1466 38.2884
104.487 1355 36.8103
104.603 1198 34.6121
104.72 926 30.4302
104.836 736 27.1293
104.953 608 24.6577
105.069 525 22.9129
105.186 480 21.9089
105.302 509 22.561
105.418 610 24.6982
105.535 565 23.7697
105.651 542 23.2809
105.767 460 21.4476
105.883 381 19.5192
105.999 379 19.4679
106.115 0 1
106.231 0 1
106.347 0 1
106.463 0 1
106.579 0 1
106.694 0 1
106.81 0 1
106.926 0 1
107.041 0 1
107.157 0 1
109.576 0 1
109.692 0 1
109.807 0 1
109.923 0 1
110.039 0 1
110.155 0 1
110.27 0 1
110.386 0 1
110.502 0 1
110.618 127 11.2694
110.735 166 12.8841
110.851 147 12.1244
110.967 179 13.3791
111.083 160 12.6491
111.199 188 13.7113
111.316 180 13.4164
111.432 172 13.1149
111.549 201 14.1774
111.665 182 13.4907
111.782 194 13.9284
111.898 159 12.6095
112.015 172 13.1149
112.132 178 13.3417
112.248 160 12.6491
112.365 173 13.1529
112.482 186 13.6382
112.599 177 13.3041
112.716 166 12.8841
112.832 141 11.8743
112.949 179 13.3791
113.066 166 12.8841
113.183 139 11.7898
113.3 175 13.2288
113.417 153 12.3693
113.534 138 11.7473
113.652 131 11.4455
113.769 124 11.1355
113.886 130 11.4018
114.003 123 11.0905
114.12 134 11.5758
114.238 169 13
114.355 147 12.1244
114.472 154 12.4097
114.589 140 11.8322
114.707 179 13.3791
114.824 138 11.7473
114.942 145 12.0416
115.059 161 12.6886
115.176 145 12.0416
115.294 133 11.5326
115.411 139 11.7898
115.529 164 12.8062
115.646 159 12.6095
115.764 153 12.3693
115.881 141 11.8743
115.999 157 12.53
116.116 137 11.7047
116.234 150 12.2474
116.351 147 12.1244
116.469 128 11.3137
116.586 143 11.9583
116.704 143 11.9583
116.821 141 11.8743
116.939 131 11.4455
117.056 144 12
117.174 132 11.4891
117.291 118 10.8628
117.409 112 10.583
117.526 104 10.198
117.644 119 10.9087
117.761 135 11.619
117.879 142 11.9164
117.996 128 11.3137
118.114 157 12.53
118.231 152 12.3288
118.349 142 11.9164
118.466 168 12.9615
118.584 140 11.8322
118.701 152 12.3288
118.819 108 10.3923
118.936 138 11.7473
119.053 124 11.1355
119.171 127 11.2694
119.288 134 11.5758
119.405 126 11.225
119.523 131 11.4455
119.64 135 11.619
119.757 130 11.4018
119.875 128 11.3137
119.992 137 11.7047
120.109 123 11.0905
120.226 125 11.1803
120.343 122 11.0454
120.46 143 11.9583
120.578 113 10.6301
120.695 124 11.1355
120.812 121 11
120.929 110 10.4881
121.046 105 10.247
121.163 96 9.79796
121.279 112 10.583
121.396 120 10.9545
121.513 121 11
121.63 130 11.4018
121.747 106 10.2956
121.863 116 10.7703
121.98 125 11.1803
122.097 117 10.8167
122.213 123 11.0905
122.33 128 11.3137
122.446 113 10.6301
122.563 112 10.583
122.679 99 9.94987
122.795 70 8.3666
122.912 75 8.66025
123.028 76 8.7178
123.144 82 9.05539
123.26 69 8.30662
123.377 0 1
123.493 0 1
123.609 0 1
123.725 0 1
123.84 0 1
123.956 0 1
124.072 0 1
124.188 0 1
124.303 0 1
124.419 0 1
126.852 0 1
126.968 0 1
127.083 0 1
127.199 0 1
127.315 0 1
127.431 0 1
127.547 0 1
127.663 0 1
127.779 0 1
127.895 0 1
128.011 0 1
128.127 0 1
128.243 0 1
128.359 138 11.7473
128.476 157 12.53
128.592 160 12.6491
128.708 140 11.8322
128.825 148 12.1655
128.941 136 11.6619
129.058 155 12.4499
129.174 160 12.6491
129.291 195 13.9642
129.408 161 12.6886
129.524 146 12.083
129.641 156 12.49
129.758 138 11.7473
129.875 150 12.2474
129.992 147 12.1244
130.108 139 11.7898
130.225 163 12.7671
130.342 154 12.4097
130.459 163 12.7671
130.576 182 13.4907
130.693 179 13.3791
130.81 197 14.0357
130.928 160 12.6491
131.045 213 14.5945
131.162 209 14.4568
131.279 187 13.6748
131.396 214 14.6287
131.513 250 15.8114
131.631 221 14.8661
131.748 208 14.4222
131.865 259 16.0935
131.983 242 15.5563
132.1 253 15.906
132.217 257 16.0312
132.335 307 17.5214
132.452 287 16.9411
132.57 330 18.1659
132.687 301 17.3494
132.804 288 16.9706
132.922 337 18.3576
133.039 325 18.0278
133.157 303 17.4069
133.274 376 19.3907
133.392 292 17.088
133.509 329 18.1384
133.627 341 18.4662
133.744 301 17.3494
133.862 298 17.2627
133.979 312 17.6635
134.097 309 17.5784
134.214 333 18.2483
134.332 302 17.3781
134.449 318 17.8326
134.567 286 16.9115
134.684 342 18.4932
134.802 321 17.9165
134.919 331 18.1934
135.037 340 18.4391
135.154 336 18.3303
135.272 308 17.5499
135.389 305 17.4642
135.507 337 18.3576
135.624 330 18.1659
135.742 360 18.9737
135.859 334 18.2757
135.977 344 18.5472
136.094 353 18.7883
136.211 350 18.7083
136.329 357 18.8944
136.446 351 18.735
136.564 366 19.1311
136.681 320 17.8885
136.798 340 18.4391
136.915 343 18.5203
137.033 331 18.1934
137.15 373 19.3132
137.267 318 17.8326
137.384 311 17.6352
137.502 322 17.9444
137.619 272 16.4924
137.736 319 17.8606
137.853 321 17.9165
137.97 317 17.8045
138.087 341 18.4662
138.204 284 16.8523
138.321 298 17.2627
138.438 342 18.4932
138.555 357 18.8944
138.672 366 19.1311
138.788 352 18.7617
138.905 322 17.9444
139.022 287 16.9411
139.139 280 16.7332
139.255 311 17.6352
139.372 307 17.5214
139.488 275 16.5831
139.605 293 17.1172
139.721 255 15.9687
139.838 233 15.2643
139.954 258 16.0624
140.071 244 15.6205
140.187 233 15.2643
140.303 231 15.1987
140.419 216 14.6969
140.535 198 14.0712
140.652 220 14.8324
140.768 0 1
140.884 0 1
141 0 1
141.115 0 1
141.231 0 1
141.347 0 1
141.463 0 1
141.578 0 1
141.694 0 1
144.104 0 1
144.219 0 1
144.335 0 1
144.45 0 1
144.566 0 1
144.682 0 1
144.798 0 1
144.914 0 1
145.03 0 1
145.146 2377 48.7545
145.262 3431 58.5747
145.378 4563 67.55
145.494 5699 75.4917
145.61 6587 81.1603
145.726 7675 87.6071
145.842 8536 92.3905
145.959 9648 98.2242
146.075 10385 101.907
146.192 10962 104.7
146.308 11475 107.121
146.425 11718 108.25
146.541 11675 108.051
146.658 11014 104.948
146.774 10185 100.921
146.891 8505 92.2226
147.008 6852 82.7768
147.125 6299 79.3662
147.241 6768 82.2679
147.358 7361 85.7963
147.475 7245 85.1176
147.592 7082 84.1546
147.709 6554 80.9568
147.826 6002 77.4726
147.943 5326 72.9794
148.06 4777 69.1158
148.177 4333 65.8255
148.294 3681 60.6712
148.411 3281 57.28
148.528 2996 54.7357
148.645 2571 50.705
148.762 2399 48.9796
148.88 2028 45.0333
148.997 1877 43.3244
149.114 1471 38.3536
149.231 1372 37.0405
149.349 1177 34.3074
149.466 1073 32.7567
149.583 1046 32.3419
149.701 975 31.225
149.818 850 29.1548
149.935 770 27.7489
150.053 697 26.4008
150.17 618 24.8596
150.287 537 23.1733
150.405 524 22.891
150.522 521 22.8254
150.64 496 22.2711
150.757 509 22.561
150.875 501 22.383
150.992 546 23.3666
151.11 539 23.2164
151.227 505 22.4722
151.344 511 22.6053
151.462 540 23.2379
151.579 507 22.5167
151.697 527 22.9565
151.814 516 22.7156
151.932 550 23.4521
152.049 590 24.2899
152.167 591 24.3105
152.284 662 25.7294
152.402 615 24.7992
152.519 615 24.7992
152.636 601 24.5153
152.754 668 25.8457
152.871 649 25.4755
152.989 631 25.1197
153.106 639 25.2784
153.223 667 25.8263
153.341 639 25.2784
153.458 705 26.5518
153.575 671 25.9037
153.693 579 24.0624
153.81 563 23.7276
153.927 489 22.1133
154.044 588 24.2487
154.162 631 25.1197
154.279 718 26.7955
154.396 717 26.7769
154.513 744 27.2764
154.63 822 28.6705
154.747 812 28.4956
154.864 728 26.9815
154.981 820 28.6356
155.098 761 27.5862
155.215 777 27.8747
155.332 783 27.9821
155.449 875 29.5804
155.566 1009 31.7648
155.683 1190 34.4964
155.8 1389 37.2693
155.917 1524 39.0384
156.033 1706 41.3038
156.15 0 1
156.267 0 1
156.383 0 1
156.5 0 1
156.617 0 1
156.733 0 1
156.85 0 1
156.966 0 1
157.082 0 1
157.199 0 1
157.315 0 1
157.431 0 1
157.547 0 1
157.664 0 1
157.78 0 1
157.896 0 1
158.012 0 1
158.128 0 1
158.244 0 1
158.359 0 1
158.475 0 1
158.591 0 1
158.706 0 1
