
6.15755 0 1
6.2731 0 1
6.3887 0 1
6.50437 0 1
6.62009 0 1
6.73587 0 1
6.8517 0 1
6.96759 0 1
7.08353 0 1
7.19952 0 1
7.31557 0 1
7.43166 0 1
7.54781 0 1
7.664 0 1
7.78024 0 1
7.89653 0 1
8.01286 0 1
8.12924 0 1
8.24567 0 1
8.36213 0 1
8.47864 0 1
8.59519 0 1
8.71178 0 1
8.82841 0 1
8.94508 0 1
9.06179 0 1
9.17853 0 1
9.29531 0 1
9.41212 0 1
9.52897 0 1
9.64584 0 1
9.76276 0 1
9.8797 0 1
9.99667 0 1
10.1137 0 1
10.2307 0 1
10.3478 0 1
10.4648 0 1
10.5819 0 1
10.6991 0 1
10.8162 0 1
10.9334 0 1
11.0506 0 1
11.1678 0 1
11.285 0 1
11.4023 0 1
11.5196 0 1
11.6369 0 1
11.7542 0 1
11.8715 0 1
11.9888 0 1
12.1062 0 1
12.2235 0 1
12.3409 0 1
12.4582 0 1
12.5756 0 1
12.693 0 1
12.8104 0 1
12.9278 0 1
13.0452 0 1
13.1626 0 1
13.28 0 1
13.3974 0 1
13.5149 0 1
13.6323 0 1
13.7497 0 1
13.8671 0 1
13.9845 0 1
14.1019 0 1
14.2193 0 1
14.3367 0 1
14.4541 0 1
14.5714 0 1
14.6888 0 1
14.8062 0 1
14.9235 0 1
15.0408 8648 92.9946
15.1581 8935 94.5251
15.2755 9318 96.5298
15.3927 9321 96.5453
15.51 9257 96.2133
15.6273 9365 96.7729
15.7445 9106 95.4254
15.8617 9284 96.3535
15.9789 9189 95.8593
16.0961 9527 97.6064
16.2132 9555 97.7497
16.3304 9783 98.909
16.4475 10110 100.548
16.5646 10394 101.951
16.6816 10701 103.446
16.7986 11064 105.186
16.9156 11374 106.649
17.0326 11749 108.393
17.1496 11845 108.835
17.2665 12073 109.877
17.3833 12231 110.594
17.5002 12115 110.068
17.617 12322 111.005
17.7338 12588 112.196
17.8505 12431 111.494
17.9672 12265 110.747
18.0839 11464 107.07
18.2005 11201 105.835
18.3171 11480 107.145
18.4337 12031 109.686
18.5502 12369 111.216
18.6666 12935 113.732
18.7831 12922 113.675
18.8994 12930 113.71
19.0158 12521 111.897
19.1321 12290 110.86
19.2483 12191 110.413
19.3645 11685 108.097
19.4806 11709 108.208
19.5967 11552 107.48
19.7128 11311 106.353
19.8288 10969 104.733
19.9447 9806 99.0252
20.0606 0 1
20.1764 0 1
20.2922 0 1
20.4079 0 1
20.5236 0 1
20.6392 0 1
20.7548 0 1
20.8702 0 1
23.3078 0 1
23.4233 0 1
23.539 0 1
23.6547 0 1
23.7704 0 1
23.8862 0 1
24.0021 0 1
24.118 0 1
24.234 0 1
24.35 0 1
24.4661 11366 106.611
24.5822 11570 107.564
24.6984 11326 106.424
24.8146 11350 106.536
24.9309 11288 106.245
25.0472 11165 105.665
25.1636 11199 105.825
25.28 11479 107.14
25.3965 11588 107.648
25.513 12236 110.616
25.6296 12665 112.539
25.7462 12894 113.552
25.8628 12937 113.741
25.9795 13339 115.495
26.0962 13256 115.135
26.213 13230 115.022
26.3298 13420 115.845
26.4466 13258 115.143
26.5635 13075 114.346
26.6804 12260 110.725
26.7973 11913 109.147
26.9143 11752 108.407
27.0313 12235 110.612
27.1483 12761 112.965
27.2653 12875 113.468
27.3824 13218 114.97
27.4996 12968 113.877
27.6167 12648 112.463
27.7339 12496 111.786
27.8511 12329 111.036
27.9683 12051 109.777
28.0855 11779 108.531
28.2028 11703 108.18
28.3201 11517 107.317
28.4374 11394 106.743
28.5547 11399 106.766
28.6721 11166 105.669
28.7894 11094 105.328
28.9068 11443 106.972
29.0242 11772 108.499
29.1416 11819 108.715
29.259 12268 110.761
29.3764 12588 112.196
29.4939 12726 112.81
29.6113 12981 113.934
29.7288 13121 114.547
29.8463 12983 113.943
29.9638 13072 114.333
30.0812 12448 111.571
30.1987 12104 110.018
30.3162 11265 106.137
30.4337 11076 105.243
30.5512 11105 105.38
30.6687 11539 107.42
30.7862 12172 110.327
30.9037 12179 110.359
31.0212 12512 111.857
31.1387 12360 111.176
31.2562 12247 110.666
31.3737 12068 109.854
31.4912 11961 109.366
31.6087 11662 107.991
31.7262 11443 106.972
31.8436 11078 105.252
31.9611 11129 105.494
32.0785 10963 104.704
32.1959 10777 103.812
32.3134 10936 104.575
32.4308 10989 104.828
32.5482 11217 105.91
32.6655 11599 107.699
32.7829 11766 108.471
32.9002 12282 110.824
33.0176 12329 111.036
33.1349 12552 112.036
33.2522 12716 112.765
33.3694 12473 111.683
33.4867 12434 111.508
33.6039 12739 112.867
33.7211 12340 111.086
33.8383 11761 108.448
33.9554 11225 105.948
34.0725 10604 102.976
34.1896 10316 101.568
34.3067 10838 104.106
34.4237 11497 107.224
34.5407 11813 108.688
34.6577 11863 108.917
34.7746 11959 109.357
34.8915 11750 108.397
35.0084 11783 108.55
35.1252 11385 106.701
35.242 11286 106.236
35.3587 11068 105.205
35.4755 10990 104.833
35.5921 10899 104.398
35.7088 10720 103.537
35.8254 10486 102.401
35.9419 10390 101.931
36.0584 10187 100.931
36.1749 10476 102.352
36.2913 10645 103.175
36.4077 10791 103.88
36.524 11138 105.537
36.6403 11432 106.921
36.7565 11819 108.715
36.8727 12195 110.431
36.9889 12057 109.804
37.1049 11849 108.853
37.221 0 1
37.3369 0 1
37.4529 0 1
37.5687 0 1
37.6845 0 1
37.8003 0 1
37.916 0 1
38.0316 0 1
38.1472 0 1
40.5851 0 1
40.7008 0 1
40.8164 0 1
40.9322 0 1
41.048 0 1
41.1639 0 1
41.2798 0 1
41.3958 0 1
41.5118 0 1
41.6279 0 1
41.744 8430 91.815
41.8602 9189 95.8593
41.9765 9708 98.5292
42.0928 9918 99.5892
42.2091 9847 99.2321
42.3255 9840 99.1968
42.4419 9952 99.7597
42.5584 9794 98.9646
42.675 9212 95.9792
42.7915 8755 93.5682
42.9081 8106 90.0333
43.0248 8022 89.5656
43.1415 8555 92.4932
43.2582 8743 93.504
43.375 9093 95.3572
43.4918 9228 96.0625
43.6087 9291 96.3898
43.7256 9164 95.7288
43.8425 9082 95.2995
43.9595 8814 93.8829
44.0765 8832 93.9787
44.1935 8479 92.0815
44.3106 8362 91.444
44.4277 7911 88.9438
44.5448 7939 89.1011
44.6619 7421 86.1452
44.7791 7190 84.7939
44.8963 7007 83.7078
45.0136 6990 83.6062
45.1308 7128 84.4275
45.2481 7067 84.0655
45.3654 7156 84.5931
45.4827 7573 87.023
45.6001 7524 86.741
45.7174 7711 87.8123
45.8348 7541 86.8389
45.9522 7617 87.2754
46.0697 7546 86.8677
46.1871 7362 85.8021
46.3046 6941 83.3127
46.422 6427 80.1686
46.5395 6039 77.711
46.657 6007 77.5048
46.7745 6396 79.975
46.892 6521 80.7527
47.0096 6759 82.2131
47.1271 6895 83.0361
47.2446 6735 82.067
47.3622 6735 82.067
47.4797 6838 82.6922
47.5973 6528 80.796
47.7149 6607 81.2835
47.8324 6286 79.2843
47.95 6119 78.224
48.0675 6017 77.5693
48.1851 5985 77.3628
48.3027 5759 75.8881
48.4202 5608 74.8866
48.5378 5623 74.9867
48.6554 5664 75.2596
48.7729 5796 76.1315
48.8904 5898 76.7984
49.008 6175 78.5812
49.1255 6429 80.181
49.243 6539 80.8641
49.3605 6627 81.4064
49.478 6826 82.6196
49.5955 6406 80.0375
49.713 6420 80.1249
49.8304 6001 77.4661
49.9479 5669 75.2928
50.0653 5362 73.2257
50.1827 5366 73.253
50.3001 5963 77.2205
50.4175 6282 79.2591
50.5348 6418 80.1124
50.6521 7001 83.672
50.7694 6865 82.8553
50.8867 7248 85.1352
51.004 7269 85.2584
51.1212 7206 84.8882
51.2384 7292 85.3932
51.3556 7437 86.238
51.4727 7208 84.8999
51.5899 7267 85.2467
51.707 7451 86.3192
51.824 7057 84.006
51.9411 7236 85.0647
52.0581 7014 83.7496
52.175 7159 84.6109
52.2919 7654 87.4871
52.4088 8006 89.4763
52.5257 8425 91.7878
52.6425 8623 92.8601
52.7593 8974 94.7312
52.876 9010 94.921
52.9927 9193 95.8801
53.1094 9233 96.0885
53.226 9327 96.5764
53.3426 9289 96.3795
53.4591 8627 92.8816
53.5756 8195 90.5262
53.692 7712 87.818
53.8084 7402 86.0349
53.9248 8083 89.9055
54.0411 8717 93.3649
54.1573 9147 95.6399
54.2735 0 1
54.3896 0 1
54.5057 0 1
54.6217 0 1
54.7377 0 1
54.8537 0 1
54.9695 0 1
55.0853 0 1
55.2011 0 1
55.3168 0 1
55.4324 0 1
57.824 0 1
57.9396 0 1
58.0553 0 1
58.1711 0 1
58.2869 0 1
58.4028 0 1
58.5187 0 1
58.6347 0 1
58.7508 0 1
58.8669 0 1
58.983 9044 95.0999
59.0992 9728 98.6306
59.2155 10594 102.927
59.3318 10902 104.413
59.4482 11315 106.372
59.5646 11505 107.261
59.681 11902 109.096
59.7975 11698 108.157
59.9141 11653 107.949
60.0306 11648 107.926
60.1473 11320 106.395
60.2639 11003 104.895
60.3807 10734 103.605
60.4974 10495 102.445
60.6142 10141 100.703
60.731 9702 98.4987
60.8479 9774 98.8635
60.9648 9942 99.7096
61.0818 10228 101.134
61.1987 10615 103.029
61.3158 11004 104.9
61.4328 11252 106.075
61.5499 11178 105.726
61.667 11313 106.363
61.7841 11110 105.404
61.9013 11078 105.252
62.0185 10378 101.872
62.1357 9755 98.7674
62.253 9189 95.8593
62.3702 8993 94.8314
62.4875 9133 95.5667
62.6049 9742 98.7016
62.7222 10165 100.822
62.8396 10697 103.426
62.9569 10873 104.274
63.0743 11207 105.863
63.1918 11014 104.948
63.3092 11141 105.551
63.4267 11041 105.076
63.5441 10795 103.899
63.6616 10720 103.537
63.7791 10434 102.147
63.8966 10089 100.444
64.0142 9905 99.5239
64.1317 9468 97.3036
64.2492 8971 94.7154
64.3668 9108 95.4358
64.4843 9126 95.5301
64.6019 9403 96.9691
64.7195 9910 99.549
64.837 10308 101.528
64.9546 10555 102.738
65.0722 10570 102.811
65.1898 10714 103.508
65.3074 10908 104.441
65.4249 10432 102.137
65.5425 10164 100.817
65.6601 9548 97.7139
65.7777 8988 94.8051
65.8952 8527 92.3418
66.0128 8559 92.5149
66.1304 8744 93.5094
66.2479 9319 96.535
66.3655 9807 99.0303
66.483 10164 100.817
66.6005 10768 103.769
66.718 10851 104.168
66.8355 10812 103.981
66.953 10819 104.014
67.0705 10743 103.648
67.1879 10646 103.179
67.3054 10213 101.059
67.4228 10341 101.691
67.5402 9958 99.7898
67.6576 9775 98.8686
67.7749 9118 95.4882
67.8923 8996 94.8472
68.0096 8734 93.4559
68.1269 8862 94.1382
68.2442 9214 95.9896
68.3614 9649 98.2293
68.4787 10236 101.173
68.5958 10661 103.252
68.713 10908 104.441
68.8302 10890 104.355
68.9473 10893 104.37
69.0643 10804 103.942
69.1814 10676 103.325
69.2984 10017 100.085
69.4154 9243 96.1405
69.5323 8896 94.3186
69.6492 8768 93.6376
69.7661 9303 96.4521
69.8829 9773 98.8585
69.9997 10410 102.029
70.1165 10992 104.843
70.2332 11182 105.745
70.3499 11226 105.953
70.4665 11769 108.485
70.5831 11680 108.074
70.6996 11619 107.791
70.8161 11406 106.799
70.9326 11240 106.019
71.049 10926 104.528
71.1653 10788 103.865
71.2817 10604 102.976
71.3979 9911 99.554
71.5141 9121 95.5039
71.6303 8844 94.0425
71.7464 8145 90.2497
71.8624 0 1
71.9784 0 1
72.0944 0 1
72.2102 0 1
72.3261 0 1
72.4418 0 1
72.5575 0 1
72.6732 0 1
75.1054 0 1
75.2209 0 1
75.3365 0 1
75.4521 0 1
75.5678 0 1
75.6835 0 1
75.7993 0 1
75.9151 0 1
76.031 0 1
76.147 10178 100.886
76.263 10782 103.836
76.3791 10703 103.455
76.4952 10419 102.074
76.6113 9755 98.7674
76.7276 9376 96.8297
76.8438 9177 95.7967
76.9601 9228 96.0625
77.0765 9580 97.8775
77.1929 10155 100.772
77.3093 10661 103.252
77.4258 11277 106.193
77.5423 11561 107.522
77.6589 11515 107.308
77.7755 11883 109.009
77.8921 11346 106.518
78.0088 10952 104.652
78.1256 10003 100.015
78.2423 9314 96.5091
78.3591 8696 93.2523
78.4759 8295 91.0769
78.5928 8759 93.5895
78.7097 9467 97.2985
78.8266 9729 98.6357
78.9436 10978 104.776
79.0606 10954 104.661
79.1776 11168 105.679
79.2946 11251 106.071
79.4117 11352 106.546
79.5288 11463 107.065
79.6459 11574 107.583
79.7631 11168 105.679
79.8802 11140 105.546
79.9974 10748 103.673
80.1147 10321 101.592
80.2319 9869 99.3428
80.3491 9042 95.0894
80.4664 8699 93.2684
80.5837 8946 94.5833
80.701 9490 97.4166
80.8183 9995 99.975
80.9357 10617 103.039
81.053 11000 104.881
81.1704 11305 106.325
81.2877 11247 106.052
81.4051 11402 106.78
81.5225 11251 106.071
81.6399 10779 103.822
81.7573 10467 102.308
81.8747 9248 96.1665
81.9922 8831 93.9734
82.1096 8197 90.5373
82.227 8739 93.4826
82.3444 9409 97
82.4619 10161 100.802
82.5793 10756 103.711
82.6967 10680 103.344
82.8142 11070 105.214
82.9316 11127 105.485
83.049 11324 106.414
83.1664 11321 106.4
83.2838 11428 106.902
83.4012 11141 105.551
83.5186 10990 104.833
83.636 10569 102.806
83.7534 10465 102.299
83.8708 9968 99.8399
83.9881 9341 96.6488
84.1055 8866 94.1594
84.2228 9112 95.4568
84.3401 9327 96.5764
84.4575 10100 100.499
84.5747 10793 103.889
84.692 11274 106.179
84.8093 11542 107.434
84.9265 11661 107.986
85.0437 11864 108.922
85.1609 11378 106.668
85.2781 11022 104.986
85.3952 9981 99.905
85.5123 9269 96.2756
85.6294 8748 93.5307
85.7465 8610 92.7901
85.8636 9225 96.0469
85.9806 10182 100.906
86.0976 10994 104.852
86.2145 11517 107.317
86.3315 11401 106.775
86.4484 12083 109.923
86.5652 12134 110.154
86.682 12360 111.176
86.7988 12483 111.727
86.9156 12214 110.517
87.0323 11884 109.014
87.149 11634 107.861
87.2657 11630 107.842
87.3823 11145 105.57
87.4988 10606 102.985
87.6154 9762 98.8028
87.7318 9778 98.8838
87.8483 10099 100.494
87.9647 10652 103.209
88.081 11407 106.804
88.1973 11982 109.462
88.3136 12307 110.937
88.4298 12184 110.381
88.546 12293 110.874
88.6621 12278 110.806
88.7781 11855 108.881
88.8942 0 1
89.0101 0 1
89.126 0 1
89.2419 0 1
89.3577 0 1
89.4734 0 1
89.5891 0 1
89.7047 0 1
89.8203 0 1
89.9358 0 1
92.3269 0 1
92.4424 0 1
92.558 0 1
92.6736 0 1
92.7893 0 1
92.905 0 1
93.0208 0 1
93.1366 0 1
93.2525 0 1
93.3685 0 1
93.4845 0 1
93.6005 11878 108.986
93.7167 12032 109.69
93.8328 11756 108.425
93.949 11530 107.378
94.0653 11086 105.29
94.1816 10547 102.699
94.2979 9793 98.9596
94.4143 9634 98.1529
94.5307 9474 97.3345
94.6472 9736 98.6712
94.7637 10338 101.676
94.8803 10796 103.904
94.9969 11367 106.616
95.1135 11742 108.361
95.2302 11759 108.439
95.3469 12077 109.895
95.4637 12322 111.005
95.5805 12532 111.946
95.6973 12565 112.094
95.8142 12442 111.544
95.9311 12223 110.558
96.048 11929 109.22
96.1649 11978 109.444
96.2819 11354 106.555
96.3989 10881 104.312
96.516 10206 101.025
96.633 9793 98.9596
96.7501 9833 99.1615
96.8673 10362 101.794
96.9844 11054 105.138
97.1016 11573 107.578
97.2188 12066 109.845
97.336 12372 111.229
97.4532 12210 110.499
97.5704 12040 109.727
97.6877 11644 107.907
97.805 10848 104.154
97.9223 10376 101.863
98.0396 9643 98.1988
98.1569 9412 97.0155
98.2743 9376 96.8297
98.3916 9622 98.0918
98.509 10350 101.735
98.6264 10924 104.518
98.7438 11203 105.844
98.8612 11830 108.766
98.9786 12005 109.567
99.096 11902 109.096
99.2134 12177 110.349
99.3308 12376 111.247
99.4482 12060 109.818
99.5656 12038 109.718
99.6831 11708 108.204
99.8005 11595 107.68
99.9179 11251 106.071
100.035 10404 102
100.153 9905 99.5239
100.27 9435 97.1339
100.388 9776 98.8737
100.505 10564 102.781
100.622 11265 106.137
100.74 11726 108.287
100.857 12262 110.734
100.975 12160 110.272
101.092 12234 110.607
101.209 12009 109.586
101.327 11608 107.74
101.444 10842 104.125
101.561 10163 100.812
101.679 9779 98.8888
101.796 9346 96.6747
101.913 9593 97.9439
102.03 10043 100.215
102.148 11181 105.74
102.265 10483 102.387
102.382 12822 113.234
102.499 12245 110.657
102.616 12336 111.068
102.733 12495 111.781
102.851 12456 111.606
102.968 12977 113.917
103.085 12763 112.973
103.202 12640 112.428
103.319 12286 110.842
103.436 12177 110.349
103.552 11523 107.345
103.669 10652 103.209
103.786 10205 101.02
103.903 10529 102.611
104.02 11102 105.366
104.137 12208 110.49
104.253 12609 112.29
104.37 12781 113.053
104.487 13171 114.765
104.603 13127 114.573
104.72 12938 113.745
104.836 12102 110.009
104.953 11544 107.443
105.069 10937 104.58
105.186 10144 100.717
105.302 9967 99.8349
105.418 10503 102.484
105.535 11219 105.92
105.651 11947 109.302
105.767 12276 110.797
105.883 12524 111.911
105.999 12958 113.833
106.115 0 1
106.231 0 1
106.347 0 1
106.463 0 1
106.579 0 1
106.694 0 1
106.81 0 1
106.926 0 1
107.041 0 1
107.157 0 1
109.576 0 1
109.692 0 1
109.807 0 1
109.923 0 1
110.039 0 1
110.155 0 1
110.27 0 1
110.386 0 1
110.502 0 1
110.618 9927 99.6343
110.735 10656 103.228
110.851 10667 103.281
110.967 11207 105.863
111.083 11381 106.682
111.199 11487 107.177
111.316 11529 107.373
111.432 11499 107.233
111.549 11338 106.48
111.665 11313 106.363
111.782 10826 104.048
111.898 10620 103.053
112.015 10137 100.683
112.132 9101 95.3992
112.248 8709 93.322
112.365 8645 92.9785
112.482 9695 98.4632
112.599 10020 100.1
112.716 10571 102.815
112.832 10322 101.597
112.949 10587 102.893
113.066 10497 102.455
113.183 10149 100.742
113.3 9739 98.6864
113.417 9031 95.0316
113.534 8453 91.9402
113.652 8191 90.5041
113.769 7809 88.3685
113.886 7683 87.6527
114.003 8068 89.822
114.12 8489 92.1358
114.238 8886 94.2656
114.355 9274 96.3016
114.472 9046 95.1105
114.589 9131 95.5563
114.707 9429 97.103
114.824 9291 96.3898
114.942 9367 96.7833
115.059 9212 95.9792
115.176 9043 95.0947
115.294 8965 94.6837
115.411 8510 92.2497
115.529 8029 89.6047
115.646 7424 86.1626
115.764 6846 82.7406
115.881 6800 82.4621
115.999 7153 84.5754
116.116 7555 86.9195
116.234 7900 88.8819
116.351 8066 89.8109
116.469 8206 90.587
116.586 7860 88.6566
116.704 7865 88.6848
116.821 7638 87.3957
116.939 7074 84.1071
117.056 6738 82.0853
117.174 6425 80.1561
117.291 6079 77.9679
117.409 6054 77.8075
117.526 6272 79.196
117.644 6569 81.0494
117.761 6885 82.9759
117.879 7138 84.4867
117.996 7147 84.5399
118.114 7451 86.3192
118.231 7664 87.5443
118.349 7665 87.55
118.466 7561 86.954
118.584 7844 88.5664
118.701 7841 88.5494
118.819 7723 87.8806
118.936 7327 85.5979
119.053 7177 84.7172
119.171 7065 84.0536
119.288 6630 81.4248
119.405 6289 79.3032
119.523 6494 80.5854
119.64 6683 81.7496
119.757 7348 85.7205
119.875 7621 87.2983
119.992 7789 88.2553
120.109 7936 89.0842
120.226 8006 89.4763
120.343 8103 90.0167
120.46 7738 87.9659
120.578 7365 85.8196
120.695 7298 85.4283
120.812 7011 83.7317
120.929 6714 81.939
121.046 6532 80.8208
121.163 6592 81.1911
121.279 6904 83.0903
121.396 7505 86.6314
121.513 7776 88.1816
121.63 8258 90.8735
121.747 8417 91.7442
121.863 8490 92.1412
121.98 8869 94.1754
122.097 8761 93.6002
122.213 9069 95.2313
122.33 9124 95.5196
122.446 8906 94.3716
122.563 8865 94.1541
122.679 8870 94.1807
122.795 8840 94.0213
122.912 8512 92.2605
123.028 7926 89.0281
123.144 7577 87.046
123.26 7672 87.59
123.377 0 1
123.493 0 1
123.609 0 1
123.725 0 1
123.84 0 1
123.956 0 1
124.072 0 1
124.188 0 1
124.303 0 1
124.419 0 1
126.852 0 1
126.968 0 1
127.083 0 1
127.199 0 1
127.315 0 1
127.431 0 1
127.547 0 1
127.663 0 1
127.779 0 1
127.895 0 1
128.011 0 1
128.127 0 1
128.243 0 1
128.359 9245 96.1509
128.476 9135 95.5772
128.592 9300 96.4365
128.708 9886 99.4284
128.825 10336 101.666
128.941 11006 104.909
129.058 10843 104.13
129.174 10937 104.58
129.291 10809 103.966
129.408 10601 102.961
129.524 10229 101.139
129.641 9478 97.355
129.758 9125 95.5249
129.875 8760 93.5949
129.992 8614 92.8116
130.108 8395 91.6242
130.225 8563 92.5365
130.342 9037 95.0631
130.459 9157 95.6922
130.576 9418 97.0464
130.693 9472 97.3242
130.81 9559 97.7701
130.928 9603 97.9949
131.045 9779 98.8888
131.162 9683 98.4022
131.279 10002 100.01
131.396 9686 98.4175
131.513 9471 97.3191
131.631 9199 95.9114
131.748 9070 95.2365
131.865 8536 92.3905
131.983 8107 90.0389
132.1 8192 90.5097
132.217 8636 92.9301
132.335 9105 95.4201
132.452 9475 97.3396
132.57 9241 96.1301
132.687 9103 95.4096
132.804 9437 97.1442
132.922 9011 94.9263
133.039 8621 92.8493
133.157 8148 90.2663
133.274 7808 88.3629
133.392 7328 85.6037
133.509 7184 84.7585
133.627 7071 84.0892
133.744 7057 84.006
133.862 7333 85.6329
133.979 7310 85.4985
134.097 7477 86.4696
134.214 7970 89.2749
134.332 7649 87.4586
134.449 7855 88.6284
134.567 7761 88.0965
134.684 7761 88.0965
134.802 7738 87.9659
134.919 7450 86.3134
135.037 7677 87.6185
135.154 7353 85.7496
135.272 6984 83.5703
135.389 6805 82.4924
135.507 6316 79.4733
135.624 6159 78.4793
135.742 6555 80.963
135.859 6956 83.4026
135.977 6886 82.9819
136.094 6923 83.2046
136.211 7083 84.1606
136.329 6897 83.0482
136.446 6860 82.8251
136.564 6779 82.3347
136.681 6257 79.1012
136.798 6116 78.2049
136.915 5918 76.9285
137.033 5537 74.411
137.15 5598 74.8198
137.267 5207 72.1595
137.384 5612 74.9133
137.502 5808 76.2102
137.619 5838 76.4068
137.736 6040 77.7174
137.853 6024 77.6144
137.97 6166 78.5239
138.087 6492 80.5729
138.204 6548 80.9197
138.321 6747 82.1401
138.438 6855 82.7949
138.555 6802 82.4742
138.672 6996 83.6421
138.788 6975 83.5165
138.905 6832 82.6559
139.022 6460 80.3741
139.139 6370 79.8123
139.255 6431 80.1935
139.372 6862 82.8372
139.488 7314 85.5219
139.605 7667 87.5614
139.721 7688 87.6812
139.838 7871 88.7187
139.954 7916 88.9719
140.071 7932 89.0618
140.187 7988 89.3756
140.303 7573 87.023
140.419 7276 85.2995
140.535 7107 84.303
140.652 6853 82.7828
140.768 0 1
140.884 0 1
141 0 1
141.115 0 1
141.231 0 1
141.347 0 1
141.463 0 1
141.578 0 1
141.694 0 1
144.104 0 1
144.219 0 1
144.335 0 1
144.45 0 1
144.566 0 1
144.682 0 1
144.798 0 1
144.914 0 1
145.03 0 1
145.146 6560 80.9938
145.262 6705 81.8841
145.378 6350 79.6869
145.494 6199 78.7337
145.61 5721 75.6373
145.726 5720 75.6307
145.842 5543 74.4513
145.959 5438 73.7428
146.075 5502 74.1755
146.192 5546 74.4715
146.308 5567 74.6123
146.425 5546 74.4715
146.541 5652 75.1798
146.658 5719 75.6241
146.774 5684 75.3923
146.891 5790 76.092
147.008 5672 75.3127
147.125 5772 75.9737
147.241 5683 75.3857
147.358 5711 75.5712
147.475 5429 73.6817
147.592 5440 73.7564
147.709 5023 70.8731
147.826 4798 69.2676
147.943 4904 70.0286
148.06 5012 70.7955
148.177 5136 71.6659
148.294 5197 72.0902
148.411 5239 72.3809
148.528 5451 73.8309
148.645 5278 72.6498
148.762 5079 71.2671
148.88 5019 70.8449
148.997 4997 70.6895
149.114 4463 66.8057
149.231 4518 67.2161
149.349 4241 65.123
149.466 4260 65.2687
149.583 4155 64.4593
149.701 4256 65.238
149.818 4255 65.2304
149.935 4478 66.9179
150.053 4517 67.2086
150.17 4532 67.3201
150.287 4602 67.838
150.405 4679 68.4032
150.522 4807 69.3325
150.64 4759 68.9855
150.757 4691 68.4909
150.875 4851 69.6491
150.992 4760 68.9928
151.11 4822 69.4406
151.227 4637 68.0955
151.344 4566 67.5722
151.462 4306 65.6201
151.579 4380 66.1816
151.697 4684 68.4398
151.814 4944 70.3136
151.932 5070 71.2039
152.049 5262 72.5396
152.167 5135 71.6589
152.284 5193 72.0625
152.402 5123 71.5751
152.519 5172 71.9166
152.636 4930 70.214
152.754 4886 69.8999
152.871 4729 68.7677
152.989 4722 68.7168
153.106 4737 68.8259
153.223 4581 67.6831
153.341 4725 68.7386
153.458 4859 69.7065
153.575 4843 69.5917
153.693 5016 70.8237
153.81 5093 71.3653
153.927 5090 71.3442
154.044 5239 72.3809
154.162 5346 73.1163
154.279 5529 74.3572
154.396 5655 75.1997
154.513 5902 76.8245
154.63 6055 77.8139
154.747 5899 76.8049
154.864 5888 76.7333
154.981 5590 74.7663
155.098 5476 74
155.215 5581 74.7061
155.332 5848 76.4722
155.449 6133 78.3135
155.566 6275 79.2149
155.683 6323 79.5173
155.8 6394 79.9625
155.917 6448 80.2994
156.033 6376 79.8499
156.15 0 1
156.267 0 1
156.383 0 1
156.5 0 1
156.617 0 1
156.733 0 1
156.85 0 1
156.966 0 1
157.082 0 1
157.199 0 1
157.315 0 1
157.431 0 1
157.547 0 1
157.664 0 1
157.78 0 1
157.896 0 1
158.012 0 1
158.128 0 1
158.244 0 1
158.359 0 1
158.475 0 1
158.591 0 1
158.706 0 1
