
6.15755 0 1
6.2731 0 1
6.3887 0 1
6.50437 0 1
6.62009 0 1
6.73587 0 1
6.8517 0 1
6.96759 0 1
7.08353 0 1
7.19952 0 1
7.31557 0 1
7.43166 0 1
7.54781 0 1
7.664 0 1
7.78024 0 1
7.89653 0 1
8.01286 0 1
8.12924 0 1
8.24567 0 1
8.36213 0 1
8.47864 0 1
8.59519 0 1
8.71178 0 1
8.82841 0 1
8.94508 0 1
9.06179 0 1
9.17853 0 1
9.29531 0 1
9.41212 0 1
9.52897 0 1
9.64584 0 1
9.76276 0 1
9.8797 0 1
9.99667 0 1
10.1137 0 1
10.2307 0 1
10.3478 0 1
10.4648 0 1
10.5819 0 1
10.6991 0 1
10.8162 0 1
10.9334 0 1
11.0506 0 1
11.1678 0 1
11.285 0 1
11.4023 0 1
11.5196 0 1
11.6369 0 1
11.7542 0 1
11.8715 0 1
11.9888 0 1
12.1062 0 1
12.2235 0 1
12.3409 0 1
12.4582 0 1
12.5756 0 1
12.693 0 1
12.8104 0 1
12.9278 0 1
13.0452 0 1
13.1626 0 1
13.28 0 1
13.3974 0 1
13.5149 0 1
13.6323 0 1
13.7497 0 1
13.8671 0 1
13.9845 0 1
14.1019 0 1
14.2193 0 1
14.3367 0 1
14.4541 0 1
14.5714 0 1
14.6888 0 1
14.8062 0 1
14.9235 0 1
15.0408 0 0
15.1581 0 0
15.2755 0 0
15.3927 0 0
15.51 0 0
15.6273 0 0
15.7445 0 0
15.8617 0 0
15.9789 0 0
16.0961 0 0
16.2132 0 0
16.3304 0 0
16.4475 0 0
16.5646 0 0
16.6816 0 0
16.7986 0 0
16.9156 0 0
17.0326 0 0
17.1496 0 0
17.2665 0 0
17.3833 0 0
17.5002 0 0
17.617 0 0
17.7338 0 0
17.8505 0 0
17.9672 0 0
18.0839 0 0
18.2005 0 0
18.3171 0 0
18.4337 0 0
18.5502 0 0
18.6666 0 0
18.7831 0 0
18.8994 0 0
19.0158 0 0
19.1321 0 0
19.2483 0 0
19.3645 0 0
19.4806 0 0
19.5967 0 0
19.7128 0 0
19.8288 0 0
19.9447 0 0
20.0606 0 1
20.1764 0 1
20.2922 0 1
20.4079 0 1
20.5236 0 1
20.6392 0 1
20.7548 0 1
20.8702 0 1
23.3078 0 1
23.4233 0 1
23.539 0 1
23.6547 0 1
23.7704 0 1
23.8862 0 1
24.0021 0 1
24.118 0 1
24.234 0 1
24.35 0 1
24.4661 3647 60.3904
24.5822 4066 63.7652
24.6984 4603 67.8454
24.8146 5361 73.2189
24.9309 6558 80.9815
25.0472 7617 87.2754
25.1636 8124 90.1332
25.28 8130 90.1665
25.3965 8153 90.294
25.513 7951 89.1684
25.6296 7693 87.7097
25.7462 7307 85.481
25.8628 7096 84.2378
25.9795 6819 82.5772
26.0962 6776 82.3165
26.213 6597 81.2219
26.3298 6545 80.9012
26.4466 6323 79.5173
26.5635 5960 77.201
26.6804 5878 76.6681
26.7973 5645 75.1332
26.9143 5411 73.5595
27.0313 5226 72.2911
27.1483 5197 72.0902
27.2653 5032 70.9366
27.3824 4781 69.1448
27.4996 4601 67.8307
27.6167 4341 65.8863
27.7339 4404 66.3626
27.8511 4685 68.4471
27.9683 5070 71.2039
28.0855 5498 74.1485
28.2028 5392 73.4302
28.3201 5535 74.3976
28.4374 5762 75.9078
28.5547 5813 76.243
28.6721 5886 76.7203
28.7894 5891 76.7529
28.9068 5944 77.0973
29.0242 6148 78.4092
29.1416 6069 77.9038
29.259 5977 77.3111
29.3764 6065 77.8781
29.4939 5726 75.6703
29.6113 5856 76.5245
29.7288 5550 74.4983
29.8463 5519 74.29
29.9638 5507 74.2092
30.0812 5441 73.7631
30.1987 5252 72.4707
30.3162 5423 73.641
30.4337 5462 73.9053
30.5512 5355 73.1779
30.6687 5311 72.8766
30.7862 5359 73.2052
30.9037 4993 70.6612
31.0212 4839 69.5629
31.1387 4775 69.1014
31.2562 4945 70.3207
31.3737 5240 72.3878
31.4912 5429 73.6817
31.6087 5697 75.4785
31.7262 5758 75.8815
31.8436 5916 76.9155
31.9611 5775 75.9934
32.0785 5692 75.4453
32.1959 5554 74.5252
32.3134 5436 73.7292
32.4308 5584 74.7262
32.5482 5357 73.1915
32.6655 5155 71.7983
32.7829 4997 70.6895
32.9002 4924 70.1712
33.0176 4643 68.1396
33.1349 4608 67.8823
33.2522 4521 67.2384
33.3694 4485 66.9701
33.4867 4630 68.0441
33.6039 4548 67.4389
33.7211 4676 68.3813
33.8383 4711 68.6367
33.9554 4773 69.0869
34.0725 4984 70.5975
34.1896 5024 70.8802
34.3067 5140 71.6938
34.4237 5086 71.3162
34.5407 5042 71.007
34.6577 4946 70.3278
34.7746 4906 70.0428
34.8915 5036 70.9648
35.0084 5322 72.952
35.1252 5357 73.1915
35.242 5383 73.3689
35.3587 5420 73.6206
35.4755 5262 72.5396
35.5921 5123 71.5751
35.7088 4954 70.3847
35.8254 4747 68.8985
35.9419 4576 67.6461
36.0584 4466 66.8281
36.1749 4114 64.1405
36.2913 4098 64.0156
36.4077 3904 62.482
36.524 3566 59.716
36.6403 3151 56.1338
36.7565 2799 52.9056
36.8727 2539 50.3885
36.9889 2344 48.4149
37.1049 2227 47.1911
37.221 0 1
37.3369 0 1
37.4529 0 1
37.5687 0 1
37.6845 0 1
37.8003 0 1
37.916 0 1
38.0316 0 1
38.1472 0 1
40.5851 0 1
40.7008 0 1
40.8164 0 1
40.9322 0 1
41.048 0 1
41.1639 0 1
41.2798 0 1
41.3958 0 1
41.5118 0 1
41.6279 0 1
41.744 1909 43.6921
41.8602 2657 51.5461
41.9765 3087 55.5608
42.0928 3314 57.5674
42.2091 3523 59.3549
42.3255 3572 59.7662
42.4419 3553 59.607
42.5584 3704 60.8605
42.675 3802 61.6604
42.7915 4095 63.9922
42.9081 4335 65.8407
43.0248 4559 67.5204
43.1415 4683 68.4324
43.2582 4535 67.3424
43.375 4280 65.4217
43.4918 4289 65.4905
43.6087 4505 67.1193
43.7256 4266 65.3146
43.8425 4390 66.2571
43.9595 4331 65.8103
44.0765 4321 65.7343
44.1935 4307 65.6277
44.3106 4434 66.5883
44.4277 4194 64.7611
44.5448 4302 65.5896
44.6619 4313 65.6734
44.7791 4274 65.3758
44.8963 4374 66.1362
45.0136 4533 67.3276
45.1308 4593 67.7717
45.2481 4770 69.0652
45.3654 4884 69.8856
45.4827 5191 72.0486
45.6001 5230 72.3187
45.7174 5547 74.4782
45.8348 6033 77.6724
45.9522 6032 77.666
46.0697 6430 80.1873
46.1871 6677 81.7129
46.3046 6927 83.2286
46.422 7169 84.6699
46.5395 7224 84.9941
46.657 7303 85.4576
46.7745 6997 83.6481
46.892 6622 81.3757
47.0096 6095 78.0705
47.1271 6269 79.177
47.2446 6527 80.7899
47.3622 6532 80.8208
47.4797 6925 83.2166
47.5973 6612 81.3142
47.7149 6874 82.9096
47.8324 6889 83
47.95 7024 83.8093
48.0675 6939 83.3007
48.1851 6947 83.3487
48.3027 6837 82.6862
48.4202 6802 82.4742
48.5378 6661 81.6149
48.6554 6597 81.2219
48.7729 6579 81.111
48.8904 6531 80.8146
49.008 6556 80.9691
49.1255 6458 80.3617
49.243 6549 80.9259
49.3605 6601 81.2465
49.478 6660 81.6088
49.5955 6724 82
49.713 6817 82.5651
49.8304 6646 81.523
49.9479 6675 81.7007
50.0653 6519 80.7403
50.1827 6108 78.1537
50.3001 5415 73.5867
50.4175 4486 66.9776
50.5348 3979 63.0793
50.6521 4252 65.2074
50.7694 4500 67.082
50.8867 4709 68.6222
51.004 4712 68.644
51.1212 4480 66.9328
51.2384 4369 66.0984
51.3556 4153 64.4438
51.4727 4153 64.4438
51.5899 4023 63.4271
51.707 3962 62.9444
51.824 3744 61.1882
51.9411 3769 61.3922
52.0581 3923 62.6339
52.175 3885 62.3298
52.2919 3802 61.6604
52.4088 3751 61.2454
52.5257 3563 59.6909
52.6425 3447 58.7112
52.7593 3386 58.1893
52.876 3430 58.5662
52.9927 3331 57.7148
53.1094 3448 58.7197
53.226 3334 57.7408
53.3426 3408 58.3781
53.4591 3309 57.5239
53.5756 2859 53.4696
53.692 2400 48.9898
53.8084 2074 45.5412
53.9248 1793 42.3438
54.0411 1538 39.2173
54.1573 1487 38.5616
54.2735 0 1
54.3896 0 1
54.5057 0 1
54.6217 0 1
54.7377 0 1
54.8537 0 1
54.9695 0 1
55.0853 0 1
55.2011 0 1
55.3168 0 1
55.4324 0 1
57.824 0 1
57.9396 0 1
58.0553 0 1
58.1711 0 1
58.2869 0 1
58.4028 0 1
58.5187 0 1
58.6347 0 1
58.7508 0 1
58.8669 0 1
58.983 2932 54.1479
59.0992 2921 54.0463
59.2155 2938 54.2033
59.3318 3098 55.6597
59.4482 3583 59.8582
59.5646 3871 62.2174
59.681 4020 63.4035
59.7975 4055 63.6789
59.9141 4030 63.4823
60.0306 3987 63.1427
60.1473 3954 62.8808
60.2639 4007 63.3009
60.3807 3964 62.9603
60.4974 4062 63.7338
60.6142 4091 63.9609
60.731 4172 64.591
60.8479 4397 66.3099
60.9648 4409 66.4003
61.0818 4435 66.5958
61.1987 4234 65.0692
61.3158 4203 64.8305
61.4328 3952 62.8649
61.5499 3819 61.7981
61.667 3913 62.554
61.7841 3927 62.6658
61.9013 3917 62.5859
62.0185 4073 63.8201
62.1357 4114 64.1405
62.253 4132 64.2806
62.3702 4070 63.7966
62.4875 3751 61.2454
62.6049 3387 58.1979
62.7222 3693 60.7701
62.8396 3655 60.4566
62.9569 3982 63.1031
63.0743 4121 64.195
63.1918 4135 64.304
63.3092 4265 65.307
63.4267 4183 64.6761
63.5441 4036 63.5295
63.6616 4178 64.6375
63.7791 4069 63.7887
63.8966 4099 64.0234
64.0142 3966 62.9762
64.1317 4082 63.8905
64.2492 4166 64.5446
64.3668 4224 64.9923
64.4843 4202 64.8228
64.6019 4136 64.3117
64.7195 3890 62.3699
64.837 4174 64.6065
64.9546 4069 63.7887
65.0722 4304 65.6049
65.1898 4516 67.2012
65.3074 4865 69.7496
65.4249 5136 71.6659
65.5425 5836 76.3937
65.6601 6423 80.1436
65.7777 7253 85.1645
65.8952 7855 88.6284
66.0128 7909 88.9326
66.1304 7621 87.2983
66.2479 7548 86.8792
66.3655 8498 92.1846
66.483 10115 100.573
66.6005 11879 108.991
66.718 12966 113.868
66.8355 13596 116.602
66.953 14269 119.453
67.0705 14479 120.329
67.1879 14973 122.364
67.3054 15233 123.422
67.4228 15069 122.756
67.5402 15366 123.96
67.6576 15718 125.371
67.7749 16060 126.728
67.8923 15953 126.305
68.0096 16243 127.448
68.1269 16200 127.279
68.2442 16219 127.354
68.3614 16516 128.515
68.4787 16115 126.945
68.5958 16481 128.378
68.713 16671 129.116
68.8302 16369 127.941
68.9473 17068 130.645
69.0643 17047 130.564
69.1814 17066 130.637
69.2984 17634 132.793
69.4154 17480 132.212
69.5323 17535 132.42
69.6492 16676 129.136
69.7661 14766 121.515
69.8829 13187 114.835
69.9997 13849 117.682
70.1165 15377 124.004
70.2332 15932 126.222
70.3499 14952 122.278
70.4665 13106 114.481
70.5831 11691 108.125
70.6996 10891 104.36
70.8161 10463 102.289
70.9326 9893 99.4636
71.049 9229 96.0677
71.1653 8972 94.7206
71.2817 8434 91.8368
71.3979 7960 89.2188
71.5141 7553 86.908
71.6303 6977 83.5284
71.7464 6698 81.8413
71.8624 0 1
71.9784 0 1
72.0944 0 1
72.2102 0 1
72.3261 0 1
72.4418 0 1
72.5575 0 1
72.6732 0 1
75.1054 0 1
75.2209 0 1
75.3365 0 1
75.4521 0 1
75.5678 0 1
75.6835 0 1
75.7993 0 1
75.9151 0 1
76.031 0 1
76.147 18599 136.378
76.263 19842 140.862
76.3791 19666 140.236
76.4952 19265 138.798
76.6113 18593 136.356
76.7276 17826 133.514
76.8438 17364 131.773
76.9601 16545 128.627
77.0765 15992 126.459
77.1929 15280 123.612
77.3093 14532 120.549
77.4258 14181 119.084
77.5423 13567 116.477
77.6589 13272 115.204
77.7755 12962 113.851
77.8921 12698 112.685
78.0088 12401 111.36
78.1256 12398 111.346
78.2423 12504 111.821
78.3591 12147 110.213
78.4759 11937 109.257
78.5928 11696 108.148
78.7097 10076 100.379
78.8266 7993 89.4036
78.9436 6612 81.3142
79.0606 6966 83.4626
79.1776 8594 92.7038
79.2946 10471 102.328
79.4117 11262 106.123
79.5288 11511 107.289
79.6459 11325 106.419
79.7631 11251 106.071
79.8802 11196 105.811
79.9974 11383 106.691
80.1147 11302 106.311
80.2319 11126 105.48
80.3491 10808 103.962
80.4664 10875 104.283
80.5837 10535 102.64
80.701 10347 101.72
80.8183 10177 100.881
80.9357 9943 99.7146
81.053 9670 98.3362
81.1704 9352 96.7057
81.2877 9232 96.0833
81.4051 8969 94.7048
81.5225 9238 96.1145
81.6399 8669 93.1075
81.7573 8839 94.016
81.8747 8775 93.675
81.9922 8682 93.1773
82.1096 8976 94.7418
82.227 8745 93.5147
82.3444 7835 88.5155
82.4619 6572 81.0679
82.5793 5579 74.6927
82.6967 5516 74.2698
82.8142 6719 81.9695
82.9316 8121 90.1166
83.049 8490 92.1412
83.1664 8581 92.6337
83.2838 8790 93.755
83.4012 8833 93.984
83.5186 8806 93.8403
83.636 8702 93.2845
83.7534 8638 92.9408
83.8708 8611 92.7955
83.9881 8577 92.6121
84.1055 8460 91.9783
84.2228 8386 91.5751
84.3401 8211 90.6146
84.4575 7959 89.2132
84.5747 7733 87.9375
84.692 7367 85.8312
84.8093 7041 83.9107
84.9265 6691 81.7985
85.0437 6222 78.8797
85.1609 5920 76.9415
85.2781 5767 75.9408
85.3952 5687 75.4122
85.5123 5492 74.108
85.6294 5465 73.9256
85.7465 5214 72.208
85.8636 4844 69.5989
85.9806 4392 66.2722
86.0976 3779 61.4736
86.2145 3731 61.0819
86.3315 3926 62.6578
86.4484 5197 72.0902
86.5652 5483 74.0473
86.682 5881 76.6877
86.7988 5826 76.3282
86.9156 5911 76.883
87.0323 6016 77.5629
87.149 6061 77.8524
87.2657 6103 78.1217
87.3823 5991 77.4016
87.4988 5966 77.2399
87.6154 5612 74.9133
87.7318 5256 72.4983
87.8483 4889 69.9214
87.9647 4720 68.7023
88.081 4649 68.1836
88.1973 4477 66.9104
88.3136 4657 68.2422
88.4298 4685 68.4471
88.546 4371 66.1135
88.6621 4473 66.8805
88.7781 4530 67.3053
88.8942 0 1
89.0101 0 1
89.126 0 1
89.2419 0 1
89.3577 0 1
89.4734 0 1
89.5891 0 1
89.7047 0 1
89.8203 0 1
89.9358 0 1
92.3269 0 1
92.4424 0 1
92.558 0 1
92.6736 0 1
92.7893 0 1
92.905 0 1
93.0208 0 1
93.1366 0 1
93.2525 0 1
93.3685 0 1
93.4845 0 1
93.6005 9765 98.818
93.7167 10006 100.03
93.8328 10356 101.764
93.949 10904 104.422
94.0653 11128 105.489
94.1816 11369 106.626
94.2979 11865 108.927
94.4143 12083 109.923
94.5307 12086 109.936
94.6472 12081 109.914
94.7637 11982 109.462
94.8803 11118 105.442
94.9969 10188 100.936
95.1135 9608 98.0204
95.2302 9713 98.5546
95.3469 10944 104.614
95.4637 12061 109.823
95.5805 12622 112.348
95.6973 12742 112.88
95.8142 12876 113.472
95.9311 12896 113.561
96.048 12847 113.345
96.1649 12723 112.796
96.2819 12279 110.811
96.3989 11820 108.72
96.516 11595 107.68
96.633 11663 107.995
96.7501 12031 109.686
96.8673 12086 109.936
96.9844 11960 109.362
97.1016 12122 110.1
97.2188 12354 111.149
97.336 12874 113.464
97.4532 13430 115.888
97.5704 14108 118.777
97.6877 14503 120.428
97.805 14755 121.47
97.9223 15326 123.798
98.0396 15659 125.136
98.1569 15532 124.627
98.2743 15204 123.305
98.3916 14358 119.825
98.509 12819 113.221
98.6264 11670 108.028
98.7438 11854 108.876
98.8612 13101 114.46
98.9786 14996 122.458
99.096 15692 125.268
99.2134 15969 126.369
99.3308 15979 126.408
99.4482 16188 127.232
99.5656 16091 126.85
99.6831 16161 127.126
99.8005 15609 124.936
99.9179 15249 123.487
100.035 14905 122.086
100.153 14559 120.661
100.27 14585 120.768
100.388 14606 120.855
100.505 14991 122.438
100.622 14840 121.82
100.74 15028 122.589
100.857 14948 122.262
100.975 15690 125.26
101.092 16407 128.09
101.209 16389 128.02
101.327 16519 128.526
101.444 16820 129.692
101.561 16741 129.387
101.679 16805 129.634
101.796 16793 129.588
101.913 16487 128.402
102.03 15342 123.863
102.148 13357 115.572
102.265 11984 109.471
102.382 13428 115.879
102.499 14719 121.322
102.616 16439 128.215
102.733 16928 130.108
102.851 17227 131.252
102.968 17268 131.408
103.085 17362 131.765
103.202 17609 132.699
103.319 17542 132.446
103.436 17578 132.582
103.552 17754 133.244
103.669 17486 132.235
103.786 17616 132.725
103.903 17613 132.714
104.02 17646 132.838
104.137 17693 133.015
104.253 18045 134.332
104.37 17190 131.111
104.487 17022 130.468
104.603 16641 129
104.72 15906 126.119
104.836 15181 123.211
104.953 13695 117.026
105.069 12517 111.879
105.186 11308 106.339
105.302 10645 103.175
105.418 10041 100.205
105.535 9593 97.9439
105.651 8575 92.6013
105.767 7678 87.6242
105.883 6661 81.6149
105.999 5883 76.7007
106.115 0 1
106.231 0 1
106.347 0 1
106.463 0 1
106.579 0 1
106.694 0 1
106.81 0 1
106.926 0 1
107.041 0 1
107.157 0 1
109.576 0 1
109.692 0 1
109.807 0 1
109.923 0 1
110.039 0 1
110.155 0 1
110.27 0 1
110.386 0 1
110.502 0 1
110.618 23547 153.45
110.735 25137 158.547
110.851 24371 156.112
110.967 23632 153.727
111.083 23740 154.078
111.199 24339 156.01
111.316 25456 159.549
111.432 26439 162.601
111.549 26587 163.055
111.665 26855 163.875
111.782 26891 163.985
111.898 26268 162.074
112.015 25711 160.346
112.132 25456 159.549
112.248 25306 159.079
112.365 25448 159.524
112.482 25313 159.101
112.599 27012 164.353
112.716 27797 166.724
112.832 29236 170.985
112.949 30746 175.345
113.066 31606 177.781
113.183 31834 178.421
113.3 31186 176.596
113.417 31363 177.096
113.534 31986 178.846
113.652 31395 177.186
113.769 31174 176.562
113.886 30949 175.923
114.003 31422 177.263
114.12 32023 178.95
114.238 31567 177.671
114.355 30545 174.771
114.472 28748 169.552
114.589 28986 170.253
114.707 28463 168.71
114.824 30502 174.648
114.942 32493 180.258
115.059 32969 181.574
115.176 33223 182.272
115.294 33534 183.123
115.411 33226 182.28
115.529 32604 180.566
115.646 32138 179.271
115.764 31317 176.966
115.881 30310 174.098
115.999 29971 173.121
116.116 30285 174.026
116.234 31540 177.595
116.351 32896 181.373
116.469 33596 183.292
116.586 35391 188.125
116.704 35999 189.734
116.821 35918 189.52
116.939 35173 187.545
117.056 33601 183.306
117.174 32787 181.072
117.291 32022 178.947
117.409 31364 177.099
117.526 31948 178.74
117.644 32995 181.645
117.761 33286 182.445
117.879 32918 181.433
117.996 30485 174.6
118.114 29107 170.608
118.231 29133 170.684
118.349 30050 173.349
118.466 31515 177.525
118.584 31982 178.835
118.701 31692 178.022
118.819 30722 175.277
118.936 29559 171.927
119.053 28883 169.95
119.171 27867 166.934
119.288 26548 162.936
119.405 25791 160.596
119.523 25422 159.443
119.64 25371 159.283
119.757 26003 161.254
119.875 27160 164.803
119.992 28609 169.142
120.109 29707 172.357
120.226 30543 174.766
120.343 30587 174.891
120.46 29644 172.174
120.578 28449 168.668
120.695 27423 165.599
120.812 26109 161.583
120.929 25036 158.228
121.046 24729 157.255
121.163 24963 157.997
121.279 25032 158.215
121.396 24971 158.022
121.513 24390 156.173
121.63 22966 151.545
121.747 21312 145.986
121.863 19095 138.185
121.98 17780 133.342
122.097 17027 130.488
122.213 17006 130.407
122.33 16622 128.926
122.446 16203 127.291
122.563 15287 123.641
122.679 14544 120.599
122.795 13705 117.068
122.912 12591 112.21
123.028 11777 108.522
123.144 10746 103.663
123.26 10421 102.083
123.377 0 1
123.493 0 1
123.609 0 1
123.725 0 1
123.84 0 1
123.956 0 1
124.072 0 1
124.188 0 1
124.303 0 1
124.419 0 1
126.852 0 1
126.968 0 1
127.083 0 1
127.199 0 1
127.315 0 1
127.431 0 1
127.547 0 1
127.663 0 1
127.779 0 1
127.895 0 1
128.011 0 1
128.127 0 1
128.243 0 1
128.359 16543 128.62
128.476 16016 126.554
128.592 16059 126.724
128.708 16304 127.687
128.825 16301 127.675
128.941 16719 129.302
129.058 17024 130.476
129.174 17630 132.778
129.291 18701 136.752
129.408 19924 141.152
129.524 21220 145.671
129.641 22264 149.211
129.758 23098 151.98
129.875 23439 153.098
129.992 23883 154.541
130.108 24093 155.219
130.225 23791 154.243
130.342 23324 152.722
130.459 21778 147.574
130.576 21713 147.353
130.693 19836 140.84
130.81 18984 137.782
130.928 18891 137.445
131.045 18932 137.594
131.162 19803 140.723
131.279 20071 141.672
131.396 20448 142.997
131.513 20620 143.597
131.631 20188 142.084
131.748 20100 141.774
131.865 19937 141.198
131.983 20003 141.432
132.1 20163 141.996
132.217 20212 142.169
132.335 20247 142.292
132.452 20299 142.475
132.57 20419 142.895
132.687 20069 141.665
132.804 21381 146.222
132.922 20137 141.905
133.039 20159 141.982
133.157 20304 142.492
133.274 20460 143.038
133.392 20731 143.983
133.509 21178 145.527
133.627 21754 147.492
133.744 21795 147.631
133.862 21485 146.578
133.979 21914 148.034
134.097 21723 147.387
134.214 21619 147.034
134.332 20845 144.378
134.449 21186 145.554
134.567 21568 146.86
134.684 22059 148.523
134.802 22906 151.347
134.919 23364 152.853
135.037 23446 153.121
135.154 23217 152.371
135.272 22738 150.791
135.389 22671 150.569
135.507 22133 148.772
135.624 21860 147.851
135.742 21629 147.068
135.859 21184 145.547
135.977 20572 143.429
136.094 20589 143.489
136.211 20610 143.562
136.329 20246 142.288
136.446 20308 142.506
136.564 20227 142.222
136.681 20369 142.72
136.798 20208 142.155
136.915 20446 142.99
137.033 20466 143.059
137.15 20446 142.99
137.267 20546 143.339
137.384 20274 142.387
137.502 19943 141.22
137.619 19754 140.549
137.736 19263 138.791
137.853 18196 134.893
137.97 18032 134.283
138.087 16707 129.256
138.204 17203 131.16
138.321 18014 134.216
138.438 18075 134.443
138.555 18910 137.514
138.672 19014 137.891
138.788 18716 136.806
138.905 18526 136.11
139.022 18034 134.291
139.139 17386 131.856
139.255 16644 129.012
139.372 15739 125.455
139.488 15328 123.806
139.605 14366 119.858
139.721 13909 117.936
139.838 13539 116.357
139.954 12699 112.69
140.071 12490 111.759
140.187 12694 112.668
140.303 12402 111.364
140.419 12889 113.53
140.535 13314 115.386
140.652 13525 116.297
140.768 0 1
140.884 0 1
141 0 1
141.115 0 1
141.231 0 1
141.347 0 1
141.463 0 1
141.578 0 1
141.694 0 1
144.104 0 1
144.219 0 1
144.335 0 1
144.45 0 1
144.566 0 1
144.682 0 1
144.798 0 1
144.914 0 1
145.03 0 1
145.146 23168 152.21
145.262 23687 153.906
145.378 23490 153.264
145.494 23762 154.149
145.61 24090 155.21
145.726 24487 156.483
145.842 24468 156.423
145.959 24961 157.991
146.075 24602 156.85
146.192 24949 157.953
146.308 24225 155.644
146.425 23999 154.916
146.541 22972 151.565
146.658 20722 143.951
146.774 19163 138.43
146.891 18363 135.51
147.008 19302 138.932
147.125 22146 148.815
147.241 23937 154.716
147.358 25203 158.755
147.475 25235 158.855
147.592 25861 160.814
147.709 25963 161.13
147.826 26336 162.284
147.943 26761 163.588
148.06 26940 164.134
148.177 26757 163.576
148.294 26618 163.15
148.411 26695 163.386
148.528 26349 162.324
148.645 26830 163.799
148.762 26726 163.481
148.88 27001 164.32
148.997 26181 161.805
149.114 27943 167.162
149.231 26843 163.838
149.349 27536 165.94
149.466 26565 162.988
149.583 27188 164.888
149.701 26754 163.567
149.818 26789 163.673
149.935 26725 163.478
150.053 26705 163.417
150.17 25894 160.916
150.287 24646 156.99
150.405 22179 148.926
150.522 20594 143.506
150.64 20595 143.51
150.757 21980 148.257
150.875 23189 152.279
150.992 23939 154.722
151.11 23121 152.056
151.227 22566 150.22
151.344 22155 148.846
151.462 21751 147.482
151.579 22093 148.637
151.697 22576 150.253
151.814 23162 152.191
151.932 23792 154.247
152.049 24071 155.148
152.167 23887 154.554
152.284 24171 155.47
152.402 24033 155.026
152.519 24060 155.113
152.636 24303 155.894
152.754 24328 155.974
152.871 24346 156.032
152.989 24495 156.509
153.106 24774 157.398
153.223 24777 157.407
153.341 24976 158.038
153.458 25665 160.203
153.575 26076 161.481
153.693 26100 161.555
153.81 25740 160.437
153.927 24482 156.467
154.044 22281 149.268
154.162 21098 145.252
154.279 21484 146.574
154.396 23165 152.201
154.513 24431 156.304
154.63 24677 157.089
154.747 24448 156.359
154.864 23787 154.23
154.981 23413 153.013
155.098 22853 151.172
155.215 22439 149.797
155.332 20945 144.724
155.449 19590 139.964
155.566 19136 138.333
155.683 18340 135.425
155.8 17176 131.057
155.917 16423 128.152
156.033 15991 126.456
156.15 0 1
156.267 0 1
156.383 0 1
156.5 0 1
156.617 0 1
156.733 0 1
156.85 0 1
156.966 0 1
157.082 0 1
157.199 0 1
157.315 0 1
157.431 0 1
157.547 0 1
157.664 0 1
157.78 0 1
157.896 0 1
158.012 0 1
158.128 0 1
158.244 0 1
158.359 0 1
158.475 0 1
158.591 0 1
158.706 0 1
