
6.15755 0 1
6.2731 0 1
6.3887 0 1
6.50437 0 1
6.62009 0 1
6.73587 0 1
6.8517 0 1
6.96759 0 1
7.08353 0 1
7.19952 0 1
7.31557 0 1
7.43166 0 1
7.54781 0 1
7.664 0 1
7.78024 0 1
7.89653 0 1
8.01286 0 1
8.12924 0 1
8.24567 0 1
8.36213 0 1
8.47864 0 1
8.59519 0 1
8.71178 0 1
8.82841 0 1
8.94508 0 1
9.06179 0 1
9.17853 0 1
9.29531 0 1
9.41212 0 1
9.52897 0 1
9.64584 0 1
9.76276 0 1
9.8797 0 1
9.99667 0 1
10.1137 0 1
10.2307 0 1
10.3478 0 1
10.4648 0 1
10.5819 0 1
10.6991 0 1
10.8162 0 1
10.9334 0 1
11.0506 0 1
11.1678 0 1
11.285 0 1
11.4023 0 1
11.5196 0 1
11.6369 0 1
11.7542 0 1
11.8715 0 1
11.9888 0 1
12.1062 0 1
12.2235 0 1
12.3409 0 1
12.4582 0 1
12.5756 0 1
12.693 0 1
12.8104 0 1
12.9278 0 1
13.0452 0 1
13.1626 0 1
13.28 0 1
13.3974 0 1
13.5149 0 1
13.6323 0 1
13.7497 0 1
13.8671 0 1
13.9845 0 1
14.1019 0 1
14.2193 0 1
14.3367 0 1
14.4541 0 1
14.5714 0 1
14.6888 0 1
14.8062 0 1
14.9235 0 1
15.0408 0 0
15.1581 0 0
15.2755 0 0
15.3927 0 0
15.51 0 0
15.6273 0 0
15.7445 0 0
15.8617 0 0
15.9789 0 0
16.0961 0 0
16.2132 0 0
16.3304 0 0
16.4475 0 0
16.5646 0 0
16.6816 0 0
16.7986 0 0
16.9156 0 0
17.0326 0 0
17.1496 0 0
17.2665 0 0
17.3833 0 0
17.5002 0 0
17.617 0 0
17.7338 0 0
17.8505 0 0
17.9672 0 0
18.0839 0 0
18.2005 0 0
18.3171 0 0
18.4337 0 0
18.5502 0 0
18.6666 0 0
18.7831 0 0
18.8994 0 0
19.0158 0 0
19.1321 0 0
19.2483 0 0
19.3645 0 0
19.4806 0 0
19.5967 0 0
19.7128 0 0
19.8288 0 0
19.9447 0 0
20.0606 0 1
20.1764 0 1
20.2922 0 1
20.4079 0 1
20.5236 0 1
20.6392 0 1
20.7548 0 1
20.8702 0 1
23.3078 0 1
23.4233 0 1
23.539 0 1
23.6547 0 1
23.7704 0 1
23.8862 0 1
24.0021 0 1
24.118 0 1
24.234 0 1
24.35 0 1
24.4661 25718 160.368
24.5822 25441 159.502
24.6984 24991 158.085
24.8146 24225 155.644
24.9309 23683 153.893
25.0472 23383 152.915
25.1636 24000 154.919
25.28 24697 157.153
25.3965 26063 161.44
25.513 26715 163.447
25.6296 27849 166.88
25.7462 28795 169.691
25.8628 28441 168.645
25.9795 28708 169.434
26.0962 28695 169.396
26.213 28622 169.18
26.3298 27664 166.325
26.4466 27156 164.791
26.5635 26193 161.843
26.6804 25390 159.342
26.7973 25212 158.783
26.9143 25943 161.068
27.0313 26340 162.296
27.1483 27261 165.109
27.2653 28273 168.146
27.3824 28295 168.211
27.4996 28279 168.164
27.6167 28250 168.077
27.7339 27354 165.39
27.8511 26842 163.835
27.9683 26382 162.425
28.0855 25673 160.228
28.2028 25844 160.761
28.3201 24415 156.253
28.4374 23517 153.353
28.5547 22719 150.728
28.6721 22829 151.093
28.7894 23536 153.414
28.9068 24659 157.032
29.0242 25494 159.668
29.1416 26265 162.065
29.259 27150 164.773
29.3764 27248 165.07
29.4939 27160 164.803
29.6113 27324 165.3
29.7288 27103 164.63
29.8463 26653 163.257
29.9638 26540 162.911
30.0812 24718 157.22
30.1987 24257 155.747
30.3162 24262 155.763
30.4337 24989 158.079
30.5512 25614 160.044
30.6687 26310 162.204
30.7862 27385 165.484
30.9037 27287 165.188
31.0212 27792 166.709
31.1387 27800 166.733
31.2562 27790 166.703
31.3737 26513 162.828
31.4912 26207 161.886
31.6087 25911 160.969
31.7262 25880 160.873
31.8436 24738 157.283
31.9611 23445 153.118
32.0785 22824 151.076
32.1959 23080 151.921
32.3134 23844 154.415
32.4308 24351 156.048
32.5482 25791 160.596
32.6655 26627 163.178
32.7829 26920 164.073
32.9002 27232 165.021
33.0176 27215 164.97
33.1349 27384 165.481
33.2522 27326 165.306
33.3694 27277 165.158
33.4867 27036 164.426
33.6039 26260 162.049
33.7211 25659 160.184
33.8383 24709 157.191
33.9554 24523 156.598
34.0725 25218 158.802
34.1896 26086 161.512
34.3067 26443 162.613
34.4237 27288 165.191
34.5407 27447 165.671
34.6577 28048 167.475
34.7746 27808 166.757
34.8915 28068 167.535
35.0084 26796 163.695
35.1252 26613 163.135
35.242 26076 161.481
35.3587 26068 161.456
35.4755 25461 159.565
35.5921 24519 156.585
35.7088 23156 152.171
35.8254 22847 151.152
35.9419 22539 150.13
36.0584 23171 152.22
36.1749 24463 156.407
36.2913 25348 159.211
36.4077 26138 161.673
36.524 26961 164.198
36.6403 27432 165.626
36.7565 27436 165.638
36.8727 27438 165.644
36.9889 27259 165.103
37.1049 27101 164.624
37.221 0 1
37.3369 0 1
37.4529 0 1
37.5687 0 1
37.6845 0 1
37.8003 0 1
37.916 0 1
38.0316 0 1
38.1472 0 1
40.5851 0 1
40.7008 0 1
40.8164 0 1
40.9322 0 1
41.048 0 1
41.1639 0 1
41.2798 0 1
41.3958 0 1
41.5118 0 1
41.6279 0 1
41.744 22348 149.492
41.8602 23301 152.647
41.9765 23692 153.922
42.0928 23795 154.256
42.2091 23644 153.766
42.3255 23419 153.033
42.4419 22530 150.1
42.5584 21708 147.336
42.675 21023 144.993
42.7915 21380 146.219
42.9081 22346 149.486
43.0248 23034 151.77
43.1415 23214 152.361
43.2582 23479 153.229
43.375 23987 154.877
43.4918 24384 156.154
43.6087 23737 154.068
43.7256 23593 153.6
43.8425 22810 151.03
43.9595 22204 149.01
44.0765 21828 147.743
44.1935 21546 146.786
44.3106 20724 143.958
44.4277 19390 139.248
44.5448 17642 132.823
44.6619 17252 131.347
44.7791 17623 132.752
44.8963 18167 134.785
45.0136 19186 138.514
45.1308 20003 141.432
45.2481 20551 143.356
45.3654 20333 142.594
45.4827 20548 143.346
45.6001 20043 141.573
45.7174 20412 142.871
45.8348 20133 141.891
45.9522 19555 139.839
46.0697 18160 134.759
46.1871 17404 131.924
46.3046 17006 130.407
46.422 17348 131.712
46.5395 18203 134.918
46.657 18600 136.382
46.7745 18740 136.894
46.892 18957 137.684
47.0096 19187 138.517
47.1271 19134 138.326
47.2446 18659 136.598
47.3622 18372 135.543
47.4797 17984 134.104
47.5973 17684 132.981
47.7149 16971 130.273
47.8324 16569 128.721
47.95 15919 126.171
48.0675 14636 120.979
48.1851 13602 116.628
48.3027 13983 118.25
48.4202 14156 118.979
48.5378 14912 122.115
48.6554 15754 125.515
48.7729 16465 128.316
48.8904 16712 129.275
49.008 16871 129.888
49.1255 17001 130.388
49.243 17139 130.916
49.3605 16942 130.161
49.478 16721 129.31
49.5955 15845 125.877
49.713 15429 124.214
49.8304 15237 123.438
49.9479 15746 125.483
50.0653 17288 131.484
50.1827 18134 134.663
50.3001 18738 136.887
50.4175 19038 137.978
50.5348 19763 140.581
50.6521 20497 143.168
50.7694 21013 144.959
50.8867 21249 145.77
51.004 21113 145.303
51.1212 21443 146.434
51.2384 21442 146.431
51.3556 20942 144.714
51.4727 20261 142.341
51.5899 18942 137.63
51.707 18643 136.539
51.824 18670 136.638
51.9411 19678 140.278
52.0581 21091 145.227
52.175 23039 151.786
52.2919 23981 154.858
52.4088 24440 156.333
52.5257 24980 158.051
52.6425 25122 158.499
52.7593 25250 158.902
52.876 25642 160.131
52.9927 25763 160.509
53.1094 25388 159.336
53.226 24372 156.115
53.3426 24171 155.47
53.4591 24037 155.039
53.5756 24952 157.962
53.692 26379 162.416
53.8084 27313 165.266
53.9248 27850 166.883
54.0411 28484 168.772
54.1573 28273 168.146
54.2735 0 1
54.3896 0 1
54.5057 0 1
54.6217 0 1
54.7377 0 1
54.8537 0 1
54.9695 0 1
55.0853 0 1
55.2011 0 1
55.3168 0 1
55.4324 0 1
57.824 0 1
57.9396 0 1
58.0553 0 1
58.1711 0 1
58.2869 0 1
58.4028 0 1
58.5187 0 1
58.6347 0 1
58.7508 0 1
58.8669 0 1
58.983 33903 184.128
59.0992 34598 186.005
59.2155 35497 188.406
59.3318 35924 189.536
59.4482 36695 191.559
59.5646 36292 190.505
59.681 36219 190.313
59.7975 35098 187.345
59.9141 33763 183.747
60.0306 32499 180.275
60.1473 30461 174.531
60.2639 28344 168.357
60.3807 27013 164.356
60.4974 26817 163.759
60.6142 27567 166.033
60.731 28821 169.767
60.8479 31100 176.352
60.9648 32708 180.854
61.0818 33867 184.03
61.1987 33977 184.329
61.3158 34404 185.483
61.4328 34383 185.427
61.5499 33499 183.027
61.667 32781 181.055
61.7841 31544 177.606
61.9013 30827 175.576
62.0185 30573 174.851
62.1357 30856 175.659
62.253 32212 179.477
62.3702 33304 182.494
62.4875 34112 184.694
62.6049 34482 185.693
62.7222 35710 188.971
62.8396 35540 188.521
62.9569 36236 190.358
63.0743 36105 190.013
63.1918 35566 188.59
63.3092 34724 186.344
63.4267 33295 182.469
63.5441 31986 178.846
63.6616 30010 173.234
63.7791 27426 165.608
63.8966 25674 160.231
64.0142 25680 160.25
64.1317 26358 162.351
64.2492 28389 168.49
64.3668 30419 174.41
64.4843 32326 179.794
64.6019 33409 182.781
64.7195 33470 182.948
64.837 33988 184.358
64.9546 33680 183.521
65.0722 33704 183.586
65.1898 32437 180.103
65.3074 32082 179.114
65.4249 30488 174.608
65.5425 30070 173.407
65.6601 30083 173.445
65.7777 31407 177.22
65.8952 32556 180.433
66.0128 33859 184.008
66.1304 34467 185.653
66.2479 35465 188.322
66.3655 35911 189.502
66.483 36248 190.389
66.6005 36676 191.51
66.718 36505 191.063
66.8355 35984 189.694
66.953 35186 187.579
67.0705 34198 184.927
67.1879 32426 180.072
67.3054 29788 172.592
67.4228 27272 165.142
67.5402 25446 159.518
67.6576 25382 159.317
67.7749 26521 162.853
67.8923 29649 172.189
68.0096 31878 178.544
68.1269 34289 185.173
68.2442 35626 188.749
68.3614 36130 190.079
68.4787 36750 191.703
68.5958 37450 193.52
68.713 36659 191.465
68.8302 36215 190.302
68.9473 35503 188.422
69.0643 34093 184.643
69.1814 33310 182.51
69.2984 33327 182.557
69.4154 34663 186.18
69.5323 35839 189.312
69.6492 37654 194.046
69.7661 38994 197.469
69.8829 39625 199.06
69.9997 41313 203.256
70.1165 41211 203.005
70.2332 41719 204.252
70.3499 41632 204.039
70.4665 41214 203.012
70.5831 40704 201.752
70.6996 39287 198.209
70.8161 37192 192.852
70.9326 35090 187.323
71.049 31622 177.826
71.1653 28030 167.422
71.2817 26807 163.728
71.3979 27260 165.106
71.5141 29042 170.417
71.6303 31154 176.505
71.7464 31780 178.269
71.8624 0 1
71.9784 0 1
72.0944 0 1
72.2102 0 1
72.3261 0 1
72.4418 0 1
72.5575 0 1
72.6732 0 1
75.1054 0 1
75.2209 0 1
75.3365 0 1
75.4521 0 1
75.5678 0 1
75.6835 0 1
75.7993 0 1
75.9151 0 1
76.031 0 1
76.147 37110 192.64
76.263 37782 194.376
76.3791 35293 187.864
76.4952 31191 176.61
76.6113 29969 173.116
76.7276 31405 177.215
76.8438 33662 183.472
76.9601 37471 193.574
77.0765 41838 204.543
77.1929 44132 210.076
77.3093 45836 214.093
77.4258 46172 214.877
77.5423 46282 215.133
77.6589 46361 215.316
77.7755 45576 213.485
77.8921 44591 211.166
78.0088 43504 208.576
78.1256 40986 202.45
78.2423 40765 201.903
78.3591 40764 201.901
78.4759 41336 203.313
78.5928 43398 208.322
78.7097 45077 212.313
78.8266 49201 221.813
78.9436 46239 215.033
79.0606 49262 221.95
79.1776 48684 220.645
79.2946 49517 222.524
79.4117 48880 221.088
79.5288 49155 221.709
79.6459 47863 218.776
79.7631 46294 215.16
79.8802 43857 209.421
79.9974 40165 200.412
80.1147 35751 189.079
80.2319 32333 179.814
80.3491 33004 181.67
80.4664 35932 189.557
80.5837 39980 199.95
80.701 44300 210.476
80.8183 46793 216.317
80.9357 48453 220.12
81.053 49255 221.935
81.1704 49039 221.448
81.2877 49220 221.856
81.4051 48600 220.454
81.5225 48344 219.873
81.6399 46151 214.828
81.7573 45192 212.584
81.8747 43208 207.865
81.9922 42586 206.364
82.1096 43316 208.125
82.227 45420 213.12
82.3444 47328 217.55
82.4619 49233 221.885
82.5793 49710 222.957
82.6967 52044 228.132
82.8142 50963 225.75
82.9316 51744 227.473
83.049 51238 226.358
83.1664 50356 224.401
83.2838 49245 221.912
83.4012 48328 219.836
83.5186 45650 213.659
83.636 41788 204.421
83.7534 37435 193.481
83.8708 33410 182.784
83.9881 33482 182.981
84.1055 35909 189.497
84.2228 39500 198.746
84.3401 44171 210.169
84.4575 48876 221.079
84.5747 51898 227.811
84.692 52787 229.754
84.8093 53193 230.636
84.9265 52795 229.772
85.0437 52948 230.104
85.1609 51848 227.702
85.2781 50345 224.377
85.3952 48728 220.744
85.5123 47773 218.57
85.6294 47491 217.924
85.7465 49429 222.326
85.8636 51891 227.796
85.9806 54853 234.207
86.0976 57253 239.276
86.2145 59061 243.025
86.3315 58955 242.807
86.4484 62989 250.976
86.5652 62406 249.812
86.682 62866 250.731
86.7988 62020 249.038
86.9156 61222 247.431
87.0323 58699 242.279
87.149 55452 235.482
87.2657 51163 226.192
87.3823 46325 215.232
87.4988 43640 208.902
87.6154 45563 213.455
87.7318 50228 224.116
87.8483 56908 238.554
87.9647 62612 250.224
88.081 66321 257.529
88.1973 68206 261.163
88.3136 69008 262.694
88.4298 68918 262.522
88.546 69339 263.323
88.6621 67659 260.113
88.7781 66215 257.323
88.8942 0 1
89.0101 0 1
89.126 0 1
89.2419 0 1
89.3577 0 1
89.4734 0 1
89.5891 0 1
89.7047 0 1
89.8203 0 1
89.9358 0 1
92.3269 0 1
92.4424 0 1
92.558 0 1
92.6736 0 1
92.7893 0 1
92.905 0 1
93.0208 0 1
93.1366 0 1
93.2525 0 1
93.3685 0 1
93.4845 0 1
93.6005 74682 273.28
93.7167 76549 276.675
93.8328 76667 276.888
93.949 76276 276.181
94.0653 75476 274.729
94.1816 74744 273.393
94.2979 73830 271.717
94.4143 71651 267.677
94.5307 70627 265.757
94.6472 70039 264.649
94.7637 69231 263.118
94.8803 71957 268.248
94.9969 73511 271.129
95.1135 76962 277.42
95.2302 79189 281.405
95.3469 81029 284.656
95.4637 81625 285.701
95.5805 83381 288.758
95.6973 84243 290.246
95.8142 85085 291.693
95.9311 83080 288.236
96.048 81488 285.461
96.1649 78938 280.959
96.2819 75175 274.181
96.3989 70483 265.486
96.516 64654 254.272
96.633 58779 242.444
96.7501 56972 238.688
96.8673 60646 246.264
96.9844 66568 258.008
97.1016 74804 273.503
97.2188 81407 285.319
97.336 87221 295.332
97.4532 87613 295.995
97.5704 88590 297.641
97.6877 88577 297.619
97.805 87034 295.015
97.9223 85586 292.551
98.0396 82652 287.493
98.1569 81626 285.703
98.2743 78814 280.738
98.3916 77824 278.97
98.509 78652 280.45
98.6264 80840 284.324
98.7438 83942 289.727
98.8612 87727 296.187
98.9786 90745 301.239
99.096 91813 303.007
99.2134 93432 305.666
99.3308 94193 306.909
99.4482 94692 307.721
99.5656 93819 306.299
99.6831 91720 302.853
99.8005 89389 298.98
99.9179 85098 291.716
100.035 80164 283.132
100.153 72411 269.093
100.27 66469 257.816
100.388 66199 257.292
100.505 72604 269.451
100.622 81138 284.847
100.74 90211 300.351
100.857 95021 308.255
100.975 97122 311.644
101.092 97900 312.89
101.209 97473 312.207
101.327 97246 311.843
101.444 96569 310.756
101.561 95227 308.589
101.679 92601 304.304
101.796 90046 300.077
101.913 87704 296.149
102.03 87778 296.274
102.148 89628 299.379
102.265 97933 312.942
102.382 91324 302.199
102.499 99214 314.983
102.616 101691 318.89
102.733 104104 322.652
102.851 104595 323.412
102.968 104968 323.988
103.085 105305 324.507
103.202 102627 320.354
103.319 99826 315.953
103.436 95208 308.558
103.552 89613 299.354
103.669 81511 285.501
103.786 74230 272.452
103.903 72831 269.872
104.02 79878 282.627
104.137 89386 298.975
104.253 101960 319.312
104.37 103545 321.784
104.487 109074 330.264
104.603 109114 330.324
104.72 108773 329.808
104.836 108941 330.062
104.953 107028 327.151
105.069 105043 324.103
105.186 102507 320.167
105.302 99874 316.028
105.418 97806 312.74
105.535 98588 313.987
105.651 101059 317.898
105.767 104630 323.466
105.883 107386 327.698
105.999 109927 331.552
106.115 0 1
106.231 0 1
106.347 0 1
106.463 0 1
106.579 0 1
106.694 0 1
106.81 0 1
106.926 0 1
107.041 0 1
107.157 0 1
109.576 0 1
109.692 0 1
109.807 0 1
109.923 0 1
110.039 0 1
110.155 0 1
110.27 0 1
110.386 0 1
110.502 0 1
110.618 91385 302.3
110.735 96432 310.535
110.851 98652 314.089
110.967 101237 318.178
111.083 102358 319.934
111.199 103977 322.455
111.316 104542 323.33
111.432 104473 323.223
111.549 103242 321.313
111.665 101531 318.639
111.782 97575 312.37
111.898 93277 305.413
112.015 86983 294.929
112.132 80422 283.588
112.248 71731 267.826
112.365 69312 263.272
112.482 72238 268.771
112.599 77961 279.215
112.716 87104 295.134
112.832 93084 305.097
112.949 94056 306.686
113.066 95110 308.399
113.183 94624 307.61
113.3 92928 304.841
113.417 92762 304.569
113.534 90043 300.072
113.652 87055 295.051
113.769 84850 291.29
113.886 81918 286.213
114.003 80696 284.07
114.12 80572 283.852
114.238 82257 286.805
114.355 83890 289.638
114.472 84198 290.169
114.589 85718 292.776
114.707 87404 295.642
114.824 87957 296.575
114.942 88757 297.921
115.059 88477 297.451
115.176 87653 296.062
115.294 86252 293.687
115.411 83356 288.714
115.529 79758 282.415
115.646 74711 273.333
115.764 67941 260.655
115.881 62524 250.048
115.999 62410 249.82
116.116 66998 258.84
116.234 74472 272.896
116.351 81098 284.777
116.469 84755 291.127
116.586 86007 293.27
116.704 87052 295.046
116.821 87070 295.076
116.939 87359 295.566
117.056 84680 290.998
117.174 83377 288.751
117.291 81775 285.963
117.409 80208 283.21
117.526 77544 278.467
117.644 77929 279.158
117.761 79609 282.151
117.879 80877 284.389
117.996 81952 286.273
118.114 82903 287.929
118.231 85491 292.388
118.349 84518 290.72
118.466 86408 293.952
118.584 86864 294.727
118.701 86854 294.71
118.819 85893 293.075
118.936 84332 290.4
119.053 81347 285.214
119.171 77422 278.248
119.288 73045 270.268
119.405 66418 257.717
119.523 60308 245.577
119.64 60921 246.822
119.757 64904 254.763
119.875 71489 267.374
119.992 77200 277.849
120.109 80694 284.067
120.226 82381 287.021
120.343 82714 287.6
120.46 83264 288.555
120.578 82165 286.644
120.695 81711 285.851
120.812 80730 284.13
120.929 79339 281.672
121.046 77351 278.12
121.163 75437 274.658
121.279 74669 273.256
121.396 74155 272.314
121.513 75868 275.441
121.63 77294 278.018
121.747 77224 277.892
121.863 79280 281.567
121.98 79766 282.429
122.097 80179 283.159
122.213 80721 284.114
122.33 81174 284.911
122.446 80570 283.849
122.563 79478 281.918
122.679 77762 278.858
122.795 75605 274.964
122.912 73304 270.747
123.028 69425 263.486
123.144 62162 249.323
123.26 58018 240.869
123.377 0 1
123.493 0 1
123.609 0 1
123.725 0 1
123.84 0 1
123.956 0 1
124.072 0 1
124.188 0 1
124.303 0 1
124.419 0 1
126.852 0 1
126.968 0 1
127.083 0 1
127.199 0 1
127.315 0 1
127.431 0 1
127.547 0 1
127.663 0 1
127.779 0 1
127.895 0 1
128.011 0 1
128.127 0 1
128.243 0 1
128.359 68471 261.67
128.476 62435 249.87
128.592 62475 249.95
128.708 67722 260.235
128.825 74559 273.055
128.941 81558 285.584
129.058 85288 292.041
129.174 85450 292.318
129.291 86399 293.937
129.408 86002 293.261
129.524 85468 292.349
129.641 85040 291.616
129.758 83261 288.55
129.875 81742 285.906
129.992 79844 282.567
130.108 78698 280.532
130.225 77690 278.729
130.342 78337 279.887
130.459 77828 278.977
130.576 82356 286.977
130.693 81420 285.342
130.81 82372 287.005
130.928 81796 286
131.045 82082 286.5
131.162 83068 288.215
131.279 83730 289.361
131.396 83010 288.115
131.513 81084 284.753
131.631 79381 281.746
131.748 76675 276.903
131.865 70434 265.394
131.983 63869 252.723
132.1 60916 246.812
132.217 63188 251.372
132.335 69258 263.169
132.452 74962 273.792
132.57 79450 281.869
132.687 78614 280.382
132.804 84090 289.983
132.922 81120 284.816
133.039 80958 284.531
133.157 80337 283.438
133.274 79648 282.22
133.392 78757 280.637
133.509 76742 277.023
133.627 75180 274.19
133.744 74197 272.391
133.862 73592 271.278
133.979 75914 275.525
134.097 76484 276.557
134.214 78606 280.368
134.332 76214 276.069
134.449 77534 278.449
134.567 77503 278.394
134.684 78300 279.821
134.802 79170 281.372
134.919 79663 282.246
135.037 78296 279.814
135.154 77017 277.519
135.272 74532 273.005
135.389 70119 264.8
135.507 65084 255.116
135.624 59420 243.762
135.742 58856 242.603
135.859 63247 251.49
135.977 69209 263.076
136.094 74640 273.203
136.211 77349 278.117
136.329 78821 280.751
136.446 78531 280.234
136.564 79304 281.61
136.681 80034 282.903
136.798 77711 278.767
136.915 78004 279.292
137.033 76097 275.857
137.15 74737 273.381
137.267 73086 270.344
137.384 72081 268.479
137.502 71940 268.216
137.619 72787 269.791
137.736 74130 272.268
137.853 73564 271.227
137.97 73599 271.291
138.087 76846 277.211
138.204 75258 274.332
138.321 75661 275.065
138.438 76982 277.456
138.555 77491 278.372
138.672 77156 277.77
138.788 75496 274.765
138.905 73815 271.689
139.022 70185 264.925
139.139 65008 254.967
139.255 59807 244.555
139.372 58969 242.835
139.488 61497 247.986
139.605 67299 259.421
139.721 72311 268.907
139.838 76221 276.082
139.954 76950 277.399
140.071 76697 276.942
140.187 77461 278.318
140.303 75974 275.634
140.419 75938 275.569
140.535 74540 273.02
140.652 72789 269.794
140.768 0 1
140.884 0 1
141 0 1
141.115 0 1
141.231 0 1
141.347 0 1
141.463 0 1
141.578 0 1
141.694 0 1
144.104 0 1
144.219 0 1
144.335 0 1
144.45 0 1
144.566 0 1
144.682 0 1
144.798 0 1
144.914 0 1
145.03 0 1
145.146 65292 255.523
145.262 66613 258.095
145.378 66235 257.362
145.494 65264 255.468
145.61 64405 253.781
145.726 63118 251.233
145.842 61943 248.884
145.959 61233 247.453
146.075 61260 247.508
146.192 61235 247.457
146.308 61516 248.024
146.425 62286 249.572
146.541 62990 250.978
146.658 62604 250.208
146.774 62028 249.054
146.891 62681 250.362
147.008 63133 251.263
147.125 63734 252.456
147.241 63598 252.186
147.358 62309 249.618
147.475 60962 246.905
147.592 57620 240.042
147.709 54542 233.542
147.826 50106 223.844
147.943 48753 220.801
148.06 50269 224.207
148.177 54732 233.949
148.294 59357 243.633
148.411 61468 247.927
148.528 62522 250.044
148.645 62101 249.201
148.762 62149 249.297
148.88 61659 248.312
148.997 59353 243.625
149.114 62760 250.519
149.231 60642 246.256
149.349 59629 244.19
149.466 57432 239.65
149.583 56673 238.061
149.701 56497 237.691
149.818 56548 237.798
149.935 57264 239.299
150.053 58079 240.996
150.17 57835 240.489
150.287 58309 241.473
150.405 57893 240.61
150.522 58794 242.475
150.64 59625 244.182
150.757 60175 245.306
150.875 59424 243.77
150.992 59697 244.33
151.11 56421 237.531
151.227 54680 233.838
151.344 51897 227.809
151.462 47699 218.401
151.579 47090 217.002
151.697 49307 222.052
151.814 53410 231.106
151.932 57200 239.165
152.049 59666 244.266
152.167 60331 245.624
152.284 61016 247.014
152.402 60797 246.57
152.519 60416 245.797
152.636 60302 245.565
152.754 59440 243.803
152.871 59143 243.193
152.989 57575 239.948
153.106 57267 239.305
153.223 55709 236.028
153.341 55060 234.649
153.458 55953 236.544
153.575 56122 236.901
153.693 56877 238.489
153.81 57658 240.121
153.927 57576 239.95
154.044 58775 242.436
154.162 59529 243.986
154.279 60103 245.159
154.396 60977 246.935
154.513 61136 247.257
154.63 60530 246.028
154.747 58605 242.085
154.864 56998 238.743
154.981 54068 232.525
155.098 51461 226.85
155.215 49758 223.065
155.332 51265 226.418
155.449 55118 234.772
155.566 58907 242.708
155.683 59765 244.469
155.8 59993 244.935
155.917 60669 246.311
156.033 60739 246.453
156.15 0 1
156.267 0 1
156.383 0 1
156.5 0 1
156.617 0 1
156.733 0 1
156.85 0 1
156.966 0 1
157.082 0 1
157.199 0 1
157.315 0 1
157.431 0 1
157.547 0 1
157.664 0 1
157.78 0 1
157.896 0 1
158.012 0 1
158.128 0 1
158.244 0 1
158.359 0 1
158.475 0 1
158.591 0 1
158.706 0 1
