
6.15755 0 1
6.2731 0 1
6.3887 0 1
6.50437 0 1
6.62009 0 1
6.73587 0 1
6.8517 0 1
6.96759 0 1
7.08353 0 1
7.19952 0 1
7.31557 0 1
7.43166 0 1
7.54781 0 1
7.664 0 1
7.78024 0 1
7.89653 0 1
8.01286 0 1
8.12924 0 1
8.24567 0 1
8.36213 0 1
8.47864 0 1
8.59519 0 1
8.71178 0 1
8.82841 0 1
8.94508 0 1
9.06179 0 1
9.17853 0 1
9.29531 0 1
9.41212 0 1
9.52897 0 1
9.64584 0 1
9.76276 0 1
9.8797 0 1
9.99667 0 1
10.1137 0 1
10.2307 0 1
10.3478 0 1
10.4648 0 1
10.5819 0 1
10.6991 0 1
10.8162 0 1
10.9334 0 1
11.0506 0 1
11.1678 0 1
11.285 0 1
11.4023 0 1
11.5196 0 1
11.6369 0 1
11.7542 0 1
11.8715 0 1
11.9888 0 1
12.1062 0 1
12.2235 0 1
12.3409 0 1
12.4582 0 1
12.5756 0 1
12.693 0 1
12.8104 0 1
12.9278 0 1
13.0452 0 1
13.1626 0 1
13.28 0 1
13.3974 0 1
13.5149 0 1
13.6323 0 1
13.7497 0 1
13.8671 0 1
13.9845 0 1
14.1019 0 1
14.2193 0 1
14.3367 0 1
14.4541 0 1
14.5714 0 1
14.6888 0 1
14.8062 0 1
14.9235 0 1
15.0408 694 26.3439
15.1581 762 27.6043
15.2755 852 29.189
15.3927 856 29.2575
15.51 856 29.2575
15.6273 858 29.2916
15.7445 828 28.775
15.8617 816 28.5657
15.9789 776 27.8568
16.0961 741 27.2213
16.2132 757 27.5136
16.3304 776 27.8568
16.4475 685 26.1725
16.5646 690 26.2679
16.6816 671 25.9037
16.7986 700 26.4575
16.9156 715 26.7395
17.0326 703 26.5141
17.1496 691 26.2869
17.2665 658 25.6515
17.3833 651 25.5147
17.5002 676 26
17.617 603 24.5561
17.7338 612 24.7386
17.8505 641 25.318
17.9672 643 25.3574
18.0839 665 25.7876
18.2005 674 25.9615
18.3171 631 25.1197
18.4337 623 24.96
18.5502 621 24.9199
18.6666 650 25.4951
18.7831 715 26.7395
18.8994 649 25.4755
19.0158 662 25.7294
19.1321 597 24.4336
19.2483 588 24.2487
19.3645 588 24.2487
19.4806 513 22.6495
19.5967 482 21.9545
19.7128 510 22.5832
19.8288 458 21.4009
19.9447 393 19.8242
20.0606 0 1
20.1764 0 1
20.2922 0 1
20.4079 0 1
20.5236 0 1
20.6392 0 1
20.7548 0 1
20.8702 0 1
23.3078 0 1
23.4233 0 1
23.539 0 1
23.6547 0 1
23.7704 0 1
23.8862 0 1
24.0021 0 1
24.118 0 1
24.234 0 1
24.35 0 1
24.4661 269 16.4012
24.5822 297 17.2337
24.6984 324 18
24.8146 419 20.4695
24.9309 468 21.6333
25.0472 511 22.6053
25.1636 617 24.8395
25.28 607 24.6374
25.3965 656 25.6125
25.513 680 26.0768
25.6296 691 26.2869
25.7462 711 26.6646
25.8628 650 25.4951
25.9795 667 25.8263
26.0962 661 25.7099
26.213 636 25.219
26.3298 569 23.8537
26.4466 560 23.6643
26.5635 581 24.1039
26.6804 543 23.3024
26.7973 539 23.2164
26.9143 567 23.8118
27.0313 526 22.9347
27.1483 527 22.9565
27.2653 518 22.7596
27.3824 583 24.1454
27.4996 583 24.1454
27.6167 552 23.4947
27.7339 580 24.0832
27.8511 614 24.779
27.9683 587 24.2281
28.0855 591 24.3105
28.2028 613 24.7588
28.3201 640 25.2982
28.4374 621 24.9199
28.5547 658 25.6515
28.6721 604 24.5764
28.7894 574 23.9583
28.9068 617 24.8395
29.0242 612 24.7386
29.1416 590 24.2899
29.259 584 24.1661
29.3764 561 23.6854
29.4939 586 24.2074
29.6113 549 23.4307
29.7288 546 23.3666
29.8463 460 21.4476
29.9638 508 22.5389
30.0812 526 22.9347
30.1987 531 23.0434
30.3162 562 23.7065
30.4337 536 23.1517
30.5512 566 23.7908
30.6687 548 23.4094
30.7862 528 22.9783
30.9037 575 23.9792
31.0212 598 24.454
31.1387 554 23.5372
31.2562 599 24.4745
31.3737 570 23.8747
31.4912 597 24.4336
31.6087 590 24.2899
31.7262 621 24.9199
31.8436 603 24.5561
31.9611 569 23.8537
32.0785 563 23.7276
32.1959 569 23.8537
32.3134 584 24.1661
32.4308 527 22.9565
32.5482 529 23
32.6655 485 22.0227
32.7829 549 23.4307
32.9002 511 22.6053
33.0176 517 22.7376
33.1349 509 22.561
33.2522 472 21.7256
33.3694 460 21.4476
33.4867 464 21.5407
33.6039 465 21.5639
33.7211 513 22.6495
33.8383 513 22.6495
33.9554 516 22.7156
34.0725 511 22.6053
34.1896 475 21.7945
34.3067 488 22.0907
34.4237 524 22.891
34.5407 553 23.516
34.6577 565 23.7697
34.7746 545 23.3452
34.8915 508 22.5389
35.0084 526 22.9347
35.1252 533 23.0868
35.242 460 21.4476
35.3587 525 22.9129
35.4755 503 22.4277
35.5921 479 21.8861
35.7088 519 22.7816
35.8254 473 21.7486
35.9419 497 22.2935
36.0584 469 21.6564
36.1749 477 21.8403
36.2913 466 21.587
36.4077 475 21.7945
36.524 495 22.2486
36.6403 390 19.7484
36.7565 363 19.0526
36.8727 340 18.4391
36.9889 327 18.0831
37.1049 291 17.0587
37.221 0 1
37.3369 0 1
37.4529 0 1
37.5687 0 1
37.6845 0 1
37.8003 0 1
37.916 0 1
38.0316 0 1
38.1472 0 1
40.5851 0 1
40.7008 0 1
40.8164 0 1
40.9322 0 1
41.048 0 1
41.1639 0 1
41.2798 0 1
41.3958 0 1
41.5118 0 1
41.6279 0 1
41.744 239 15.4596
41.8602 237 15.3948
41.9765 283 16.8226
42.0928 312 17.6635
42.2091 318 17.8326
42.3255 349 18.6815
42.4419 330 18.1659
42.5584 388 19.6977
42.675 406 20.1494
42.7915 387 19.6723
42.9081 370 19.2354
43.0248 400 20
43.1415 374 19.3391
43.2582 370 19.2354
43.375 373 19.3132
43.4918 389 19.7231
43.6087 366 19.1311
43.7256 400 20
43.8425 359 18.9473
43.9595 348 18.6548
44.0765 356 18.868
44.1935 417 20.4206
44.3106 395 19.8746
44.4277 391 19.7737
44.5448 387 19.6723
44.6619 363 19.0526
44.7791 405 20.1246
44.8963 402 20.0499
45.0136 416 20.3961
45.1308 389 19.7231
45.2481 415 20.3715
45.3654 408 20.199
45.4827 415 20.3715
45.6001 391 19.7737
45.7174 437 20.9045
45.8348 378 19.4422
45.9522 373 19.3132
46.0697 406 20.1494
46.1871 391 19.7737
46.3046 367 19.1572
46.422 391 19.7737
46.5395 417 20.4206
46.657 382 19.5448
46.7745 379 19.4679
46.892 407 20.1742
47.0096 374 19.3391
47.1271 413 20.3224
47.2446 440 20.9762
47.3622 366 19.1311
47.4797 378 19.4422
47.5973 397 19.9249
47.7149 374 19.3391
47.8324 427 20.664
47.95 374 19.3391
48.0675 388 19.6977
48.1851 365 19.105
48.3027 392 19.799
48.4202 407 20.1742
48.5378 410 20.2485
48.6554 412 20.2978
48.7729 400 20
48.8904 385 19.6214
49.008 421 20.5183
49.1255 412 20.2978
49.243 393 19.8242
49.3605 384 19.5959
49.478 387 19.6723
49.5955 395 19.8746
49.713 422 20.5426
49.8304 404 20.0998
49.9479 410 20.2485
50.0653 388 19.6977
50.1827 405 20.1246
50.3001 372 19.2873
50.4175 392 19.799
50.5348 438 20.9284
50.6521 385 19.6214
50.7694 427 20.664
50.8867 360 18.9737
51.004 371 19.2614
51.1212 387 19.6723
51.2384 415 20.3715
51.3556 408 20.199
51.4727 415 20.3715
51.5899 409 20.2237
51.707 440 20.9762
51.824 424 20.5913
51.9411 398 19.9499
52.0581 362 19.0263
52.175 389 19.7231
52.2919 401 20.025
52.4088 375 19.3649
52.5257 369 19.2094
52.6425 384 19.5959
52.7593 334 18.2757
52.876 374 19.3391
52.9927 360 18.9737
53.1094 394 19.8494
53.226 349 18.6815
53.3426 363 19.0526
53.4591 346 18.6011
53.5756 376 19.3907
53.692 431 20.7605
53.8084 416 20.3961
53.9248 425 20.6155
54.0411 412 20.2978
54.1573 344 18.5472
54.2735 0 1
54.3896 0 1
54.5057 0 1
54.6217 0 1
54.7377 0 1
54.8537 0 1
54.9695 0 1
55.0853 0 1
55.2011 0 1
55.3168 0 1
55.4324 0 1
57.824 0 1
57.9396 0 1
58.0553 0 1
58.1711 0 1
58.2869 0 1
58.4028 0 1
58.5187 0 1
58.6347 0 1
58.7508 0 1
58.8669 0 1
58.983 5671 75.306
59.0992 7193 84.8116
59.2155 7980 89.3308
59.3318 8976 94.7418
59.4482 9360 96.7471
59.5646 9761 98.7978
59.681 10187 100.931
59.7975 10714 103.508
59.9141 11385 106.701
60.0306 12073 109.877
60.1473 12596 112.232
60.2639 12865 113.424
60.3807 12381 111.27
60.4974 11730 108.305
60.6142 10833 104.082
60.731 9518 97.5602
60.8479 8114 90.0777
60.9648 6729 82.0305
61.0818 5493 74.1148
61.1987 4608 67.8823
61.3158 3785 61.5224
61.4328 3071 55.4166
61.5499 2655 51.5267
61.667 2192 46.8188
61.7841 1786 42.2611
61.9013 1478 38.4448
62.0185 1127 33.5708
62.1357 944 30.7246
62.253 745 27.2947
62.3702 659 25.671
62.4875 640 25.2982
62.6049 591 24.3105
62.7222 548 23.4094
62.8396 571 23.8956
62.9569 543 23.3024
63.0743 494 22.2261
63.1918 480 21.9089
63.3092 496 22.2711
63.4267 462 21.4942
63.5441 452 21.2603
63.6616 479 21.8861
63.7791 507 22.5167
63.8966 508 22.5389
64.0142 481 21.9317
64.1317 469 21.6564
64.2492 495 22.2486
64.3668 486 22.0454
64.4843 495 22.2486
64.6019 487 22.0681
64.7195 472 21.7256
64.837 477 21.8403
64.9546 469 21.6564
65.0722 445 21.095
65.1898 417 20.4206
65.3074 380 19.4936
65.4249 410 20.2485
65.5425 442 21.0238
65.6601 421 20.5183
65.7777 459 21.4243
65.8952 464 21.5407
66.0128 431 20.7605
66.1304 461 21.4709
66.2479 412 20.2978
66.3655 480 21.9089
66.483 466 21.587
66.6005 479 21.8861
66.718 461 21.4709
66.8355 415 20.3715
66.953 430 20.7364
67.0705 415 20.3715
67.1879 467 21.6102
67.3054 458 21.4009
67.4228 487 22.0681
67.5402 474 21.7715
67.6576 438 20.9284
67.7749 503 22.4277
67.8923 455 21.3307
68.0096 470 21.6795
68.1269 425 20.6155
68.2442 461 21.4709
68.3614 404 20.0998
68.4787 422 20.5426
68.5958 450 21.2132
68.713 398 19.9499
68.8302 431 20.7605
68.9473 393 19.8242
69.0643 388 19.6977
69.1814 423 20.567
69.2984 455 21.3307
69.4154 405 20.1246
69.5323 478 21.8632
69.6492 467 21.6102
69.7661 440 20.9762
69.8829 418 20.445
69.9997 394 19.8494
70.1165 432 20.7846
70.2332 415 20.3715
70.3499 432 20.7846
70.4665 389 19.7231
70.5831 365 19.105
70.6996 331 18.1934
70.8161 321 17.9165
70.9326 290 17.0294
71.049 321 17.9165
71.1653 274 16.5529
71.2817 240 15.4919
71.3979 262 16.1864
71.5141 255 15.9687
71.6303 223 14.9332
71.7464 180 13.4164
71.8624 0 1
71.9784 0 1
72.0944 0 1
72.2102 0 1
72.3261 0 1
72.4418 0 1
72.5575 0 1
72.6732 0 1
75.1054 0 1
75.2209 0 1
75.3365 0 1
75.4521 0 1
75.5678 0 1
75.6835 0 1
75.7993 0 1
75.9151 0 1
76.031 0 1
76.147 292 17.088
76.263 341 18.4662
76.3791 385 19.6214
76.4952 414 20.347
76.6113 406 20.1494
76.7276 388 19.6977
76.8438 443 21.0476
76.9601 427 20.664
77.0765 383 19.5704
77.1929 392 19.799
77.3093 422 20.5426
77.4258 374 19.3391
77.5423 396 19.8997
77.6589 371 19.2614
77.7755 379 19.4679
77.8921 360 18.9737
78.0088 340 18.4391
78.1256 371 19.2614
78.2423 355 18.8414
78.3591 340 18.4391
78.4759 394 19.8494
78.5928 399 19.975
78.7097 369 19.2094
78.8266 374 19.3391
78.9436 382 19.5448
79.0606 412 20.2978
79.1776 390 19.7484
79.2946 387 19.6723
79.4117 372 19.2873
79.5288 391 19.7737
79.6459 404 20.0998
79.7631 380 19.4936
79.8802 391 19.7737
79.9974 402 20.0499
80.1147 381 19.5192
80.2319 419 20.4695
80.3491 423 20.567
80.4664 420 20.4939
80.5837 410 20.2485
80.701 380 19.4936
80.8183 399 19.975
80.9357 407 20.1742
81.053 364 19.0788
81.1704 379 19.4679
81.2877 424 20.5913
81.4051 361 19
81.5225 367 19.1572
81.6399 344 18.5472
81.7573 345 18.5742
81.8747 350 18.7083
81.9922 371 19.2614
82.1096 384 19.5959
82.227 400 20
82.3444 412 20.2978
82.4619 405 20.1246
82.5793 348 18.6548
82.6967 409 20.2237
82.8142 393 19.8242
82.9316 436 20.8806
83.049 426 20.6398
83.1664 431 20.7605
83.2838 407 20.1742
83.4012 427 20.664
83.5186 415 20.3715
83.636 424 20.5913
83.7534 437 20.9045
83.8708 411 20.2731
83.9881 479 21.8861
84.1055 424 20.5913
84.2228 403 20.0749
84.3401 441 21
84.4575 427 20.664
84.5747 418 20.445
84.692 443 21.0476
84.8093 414 20.347
84.9265 396 19.8997
85.0437 412 20.2978
85.1609 396 19.8997
85.2781 408 20.199
85.3952 336 18.3303
85.5123 387 19.6723
85.6294 396 19.8997
85.7465 412 20.2978
85.8636 435 20.8567
85.9806 418 20.445
86.0976 399 19.975
86.2145 421 20.5183
86.3315 442 21.0238
86.4484 384 19.5959
86.5652 378 19.4422
86.682 443 21.0476
86.7988 414 20.347
86.9156 434 20.8327
87.0323 409 20.2237
87.149 410 20.2485
87.2657 378 19.4422
87.3823 427 20.664
87.4988 407 20.1742
87.6154 415 20.3715
87.7318 382 19.5448
87.8483 348 18.6548
87.9647 318 17.8326
88.081 331 18.1934
88.1973 307 17.5214
88.3136 293 17.1172
88.4298 260 16.1245
88.546 232 15.2315
88.6621 214 14.6287
88.7781 183 13.5277
88.8942 0 1
89.0101 0 1
89.126 0 1
89.2419 0 1
89.3577 0 1
89.4734 0 1
89.5891 0 1
89.7047 0 1
89.8203 0 1
89.9358 0 1
92.3269 0 1
92.4424 0 1
92.558 0 1
92.6736 0 1
92.7893 0 1
92.905 0 1
93.0208 0 1
93.1366 0 1
93.2525 0 1
93.3685 0 1
93.4845 0 1
93.6005 317 17.8045
93.7167 358 18.9209
93.8328 388 19.6977
93.949 345 18.5742
94.0653 402 20.0499
94.1816 418 20.445
94.2979 409 20.2237
94.4143 424 20.5913
94.5307 393 19.8242
94.6472 376 19.3907
94.7637 375 19.3649
94.8803 382 19.5448
94.9969 442 21.0238
95.1135 394 19.8494
95.2302 416 20.3961
95.3469 404 20.0998
95.4637 455 21.3307
95.5805 435 20.8567
95.6973 411 20.2731
95.8142 419 20.4695
95.9311 423 20.567
96.048 406 20.1494
96.1649 417 20.4206
96.2819 437 20.9045
96.3989 434 20.8327
96.516 402 20.0499
96.633 466 21.587
96.7501 451 21.2368
96.8673 417 20.4206
96.9844 435 20.8567
97.1016 411 20.2731
97.2188 464 21.5407
97.336 454 21.3073
97.4532 439 20.9523
97.5704 397 19.9249
97.6877 448 21.166
97.805 393 19.8242
97.9223 413 20.3224
98.0396 415 20.3715
98.1569 442 21.0238
98.2743 393 19.8242
98.3916 387 19.6723
98.509 459 21.4243
98.6264 431 20.7605
98.7438 435 20.8567
98.8612 436 20.8806
98.9786 449 21.1896
99.096 449 21.1896
99.2134 454 21.3073
99.3308 514 22.6716
99.4482 488 22.0907
99.5656 493 22.2036
99.6831 406 20.1494
99.8005 467 21.6102
99.9179 472 21.7256
100.035 456 21.3542
100.153 438 20.9284
100.27 444 21.0713
100.388 469 21.6564
100.505 462 21.4942
100.622 426 20.6398
100.74 452 21.2603
100.857 427 20.664
100.975 458 21.4009
101.092 454 21.3073
101.209 478 21.8632
101.327 497 22.2935
101.444 432 20.7846
101.561 449 21.1896
101.679 439 20.9523
101.796 431 20.7605
101.913 410 20.2485
102.03 435 20.8567
102.148 461 21.4709
102.265 455 21.3307
102.382 436 20.8806
102.499 485 22.0227
102.616 464 21.5407
102.733 531 23.0434
102.851 506 22.4944
102.968 498 22.3159
103.085 501 22.383
103.202 506 22.4944
103.319 489 22.1133
103.436 497 22.2935
103.552 435 20.8567
103.669 469 21.6564
103.786 484 22
103.903 494 22.2261
104.02 526 22.9347
104.137 524 22.891
104.253 469 21.6564
104.37 487 22.0681
104.487 468 21.6333
104.603 457 21.3776
104.72 469 21.6564
104.836 500 22.3607
104.953 443 21.0476
105.069 416 20.3961
105.186 438 20.9284
105.302 393 19.8242
105.418 319 17.8606
105.535 332 18.2209
105.651 315 17.7482
105.767 280 16.7332
105.883 268 16.3707
105.999 243 15.5885
106.115 0 1
106.231 0 1
106.347 0 1
106.463 0 1
106.579 0 1
106.694 0 1
106.81 0 1
106.926 0 1
107.041 0 1
107.157 0 1
109.576 0 1
109.692 0 1
109.807 0 1
109.923 0 1
110.039 0 1
110.155 0 1
110.27 0 1
110.386 0 1
110.502 0 1
110.618 233 15.2643
110.735 260 16.1245
110.851 287 16.9411
110.967 328 18.1108
111.083 386 19.6469
111.199 393 19.8242
111.316 408 20.199
111.432 445 21.095
111.549 452 21.2603
111.665 446 21.1187
111.782 460 21.4476
111.898 403 20.0749
112.015 466 21.587
112.132 417 20.4206
112.248 419 20.4695
112.365 421 20.5183
112.482 434 20.8327
112.599 469 21.6564
112.716 425 20.6155
112.832 437 20.9045
112.949 399 19.975
113.066 399 19.975
113.183 416 20.3961
113.3 403 20.0749
113.417 409 20.2237
113.534 440 20.9762
113.652 465 21.5639
113.769 454 21.3073
113.886 392 19.799
114.003 457 21.3776
114.12 417 20.4206
114.238 398 19.9499
114.355 382 19.5448
114.472 412 20.2978
114.589 409 20.2237
114.707 394 19.8494
114.824 426 20.6398
114.942 436 20.8806
115.059 477 21.8403
115.176 400 20
115.294 434 20.8327
115.411 470 21.6795
115.529 418 20.445
115.646 431 20.7605
115.764 390 19.7484
115.881 436 20.8806
115.999 420 20.4939
116.116 437 20.9045
116.234 412 20.2978
116.351 407 20.1742
116.469 390 19.7484
116.586 376 19.3907
116.704 383 19.5704
116.821 405 20.1246
116.939 414 20.347
117.056 445 21.095
117.174 414 20.347
117.291 417 20.4206
117.409 468 21.6333
117.526 469 21.6564
117.644 464 21.5407
117.761 436 20.8806
117.879 391 19.7737
117.996 377 19.4165
118.114 371 19.2614
118.231 353 18.7883
118.349 403 20.0749
118.466 527 22.9565
118.584 484 22
118.701 545 23.3452
118.819 492 22.1811
118.936 485 22.0227
119.053 455 21.3307
119.171 437 20.9045
119.288 398 19.9499
119.405 451 21.2368
119.523 421 20.5183
119.64 423 20.567
119.757 399 19.975
119.875 378 19.4422
119.992 400 20
120.109 395 19.8746
120.226 352 18.7617
120.343 378 19.4422
120.46 375 19.3649
120.578 379 19.4679
120.695 356 18.868
120.812 372 19.2873
120.929 367 19.1572
121.046 356 18.868
121.163 361 19
121.279 380 19.4936
121.396 348 18.6548
121.513 332 18.2209
121.63 314 17.72
121.747 287 16.9411
121.863 274 16.5529
121.98 288 16.9706
122.097 299 17.2916
122.213 317 17.8045
122.33 321 17.9165
122.446 249 15.7797
122.563 283 16.8226
122.679 272 16.4924
122.795 241 15.5242
122.912 215 14.6629
123.028 199 14.1067
123.144 207 14.3875
123.26 189 13.7477
123.377 0 1
123.493 0 1
123.609 0 1
123.725 0 1
123.84 0 1
123.956 0 1
124.072 0 1
124.188 0 1
124.303 0 1
124.419 0 1
126.852 0 1
126.968 0 1
127.083 0 1
127.199 0 1
127.315 0 1
127.431 0 1
127.547 0 1
127.663 0 1
127.779 0 1
127.895 0 1
128.011 0 1
128.127 0 1
128.243 0 1
128.359 339 18.412
128.476 357 18.8944
128.592 397 19.9249
128.708 368 19.1833
128.825 372 19.2873
128.941 413 20.3224
129.058 454 21.3073
129.174 355 18.8414
129.291 411 20.2731
129.408 394 19.8494
129.524 378 19.4422
129.641 388 19.6977
129.758 419 20.4695
129.875 411 20.2731
129.992 444 21.0713
130.108 426 20.6398
130.225 422 20.5426
130.342 454 21.3073
130.459 441 21
130.576 466 21.587
130.693 465 21.5639
130.81 436 20.8806
130.928 512 22.6274
131.045 559 23.6432
131.162 589 24.2693
131.279 676 26
131.396 725 26.9258
131.513 679 26.0576
131.631 748 27.3496
131.748 824 28.7054
131.865 855 29.2404
131.983 937 30.6105
132.1 1123 33.5112
132.217 1359 36.8646
132.335 1644 40.5463
132.452 1956 44.2267
132.57 2345 48.4252
132.687 2841 53.301
132.804 3619 60.1581
132.922 4226 65.0077
133.039 4754 68.9493
133.157 5277 72.643
133.274 5791 76.0986
133.392 6686 81.768
133.509 7051 83.9702
133.627 7381 85.9127
133.744 7935 89.0786
133.862 8228 90.7083
133.979 8424 91.7824
134.097 8150 90.2774
134.214 6974 83.5105
134.332 4816 69.3974
134.449 4442 66.6483
134.567 6746 82.134
134.684 9148 95.6452
134.802 10092 100.459
134.919 10806 103.952
135.037 11119 105.447
135.154 11471 107.103
135.272 11852 108.867
135.389 12438 111.526
135.507 13132 114.595
135.624 13723 117.145
135.742 14049 118.528
135.859 14661 121.083
135.977 15297 123.681
136.094 16171 127.165
136.211 16592 128.81
136.329 17499 132.284
136.446 18310 135.314
136.564 18958 137.688
136.681 20395 142.811
136.798 20961 144.779
136.915 21972 148.23
137.033 23095 151.97
137.15 24496 156.512
137.267 25911 160.969
137.384 27624 166.205
137.502 29070 170.499
137.619 29813 172.664
137.736 29757 172.502
137.853 27052 164.475
137.97 24861 157.674
138.087 22946 151.479
138.204 27080 164.56
138.321 35023 187.144
138.438 41219 203.025
138.555 45112 212.396
138.672 46684 216.065
138.788 47936 218.943
138.905 47769 218.561
139.022 47640 218.266
139.139 45350 212.955
139.255 42679 206.589
139.372 39359 198.391
139.488 37949 194.805
139.605 37035 192.445
139.721 36251 190.397
139.838 35696 188.934
139.954 34517 185.788
140.071 32786 181.069
140.187 31921 178.664
140.303 30239 173.894
140.419 28797 169.697
140.535 28179 167.866
140.652 26324 162.247
140.768 0 1
140.884 0 1
141 0 1
141.115 0 1
141.231 0 1
141.347 0 1
141.463 0 1
141.578 0 1
141.694 0 1
144.104 0 1
144.219 0 1
144.335 0 1
144.45 0 1
144.566 0 1
144.682 0 1
144.798 0 1
144.914 0 1
145.03 0 1
145.146 15005 122.495
145.262 16627 128.946
145.378 17090 130.729
145.494 16739 129.379
145.61 16325 127.769
145.726 15977 126.4
145.842 15491 124.463
145.959 15334 123.831
146.075 15244 123.467
146.192 14531 120.545
146.308 14259 119.411
146.425 13344 115.516
146.541 12074 109.882
146.658 11026 105.005
146.774 10018 100.09
146.891 9687 98.4226
147.008 9570 97.8264
147.125 9121 95.5039
147.241 8265 90.912
147.358 7759 88.0852
147.475 7510 86.6603
147.592 6817 82.5651
147.709 6417 80.1062
147.826 6296 79.3473
147.943 5912 76.8895
148.06 5701 75.505
148.177 5453 73.8444
148.294 5370 73.2803
148.411 5244 72.4155
148.528 5083 71.2952
148.645 4664 68.2935
148.762 4391 66.2646
148.88 4320 65.7267
148.997 4119 64.1794
149.114 3808 61.709
149.231 3859 62.1208
149.349 3461 58.8303
149.466 3333 57.7321
149.583 3219 56.7362
149.701 3021 54.9636
149.818 2921 54.0463
149.935 2734 52.2877
150.053 2525 50.2494
150.17 2290 47.8539
150.287 2120 46.0435
150.405 1890 43.4741
150.522 2007 44.7996
150.64 2048 45.2548
150.757 2036 45.1221
150.875 1931 43.9431
150.992 1994 44.6542
151.11 1836 42.8486
151.227 1766 42.0238
151.344 1659 40.7308
151.462 1642 40.5216
151.579 1579 39.7366
151.697 1587 39.8372
151.814 1657 40.7063
151.932 1635 40.4351
152.049 1524 39.0384
152.167 1599 39.9875
152.284 1595 39.9375
152.402 1607 40.0874
152.519 1482 38.4968
152.636 1554 39.4208
152.754 1540 39.2428
152.871 1550 39.37
152.989 1581 39.7618
153.106 1410 37.55
153.223 1518 38.9615
153.341 1422 37.7094
153.458 1419 37.6696
153.575 1342 36.6333
153.693 1271 35.6511
153.81 1184 34.4093
153.927 1166 34.1467
154.044 1175 34.2783
154.162 1171 34.2199
154.279 1317 36.2905
154.396 1447 38.0395
154.513 1501 38.7427
154.63 1461 38.223
154.747 1459 38.1969
154.864 1516 38.9358
154.981 1464 38.2623
155.098 1497 38.6911
155.215 1449 38.0657
155.332 1522 39.0128
155.449 1481 38.4838
155.566 1440 37.9473
155.683 1502 38.7556
155.8 1623 40.2865
155.917 1608 40.0999
156.033 1559 39.4842
156.15 0 1
156.267 0 1
156.383 0 1
156.5 0 1
156.617 0 1
156.733 0 1
156.85 0 1
156.966 0 1
157.082 0 1
157.199 0 1
157.315 0 1
157.431 0 1
157.547 0 1
157.664 0 1
157.78 0 1
157.896 0 1
158.012 0 1
158.128 0 1
158.244 0 1
158.359 0 1
158.475 0 1
158.591 0 1
158.706 0 1
