
6.15755 0 1
6.2731 0 1
6.3887 0 1
6.50437 0 1
6.62009 0 1
6.73587 0 1
6.8517 0 1
6.96759 0 1
7.08353 0 1
7.19952 0 1
7.31557 0 1
7.43166 0 1
7.54781 0 1
7.664 0 1
7.78024 0 1
7.89653 0 1
8.01286 0 1
8.12924 0 1
8.24567 0 1
8.36213 0 1
8.47864 0 1
8.59519 0 1
8.71178 0 1
8.82841 0 1
8.94508 0 1
9.06179 0 1
9.17853 0 1
9.29531 0 1
9.41212 0 1
9.52897 0 1
9.64584 0 1
9.76276 0 1
9.8797 0 1
9.99667 0 1
10.1137 0 1
10.2307 0 1
10.3478 0 1
10.4648 0 1
10.5819 0 1
10.6991 0 1
10.8162 0 1
10.9334 0 1
11.0506 0 1
11.1678 0 1
11.285 0 1
11.4023 0 1
11.5196 0 1
11.6369 0 1
11.7542 0 1
11.8715 0 1
11.9888 0 1
12.1062 0 1
12.2235 0 1
12.3409 0 1
12.4582 0 1
12.5756 0 1
12.693 0 1
12.8104 0 1
12.9278 0 1
13.0452 0 1
13.1626 0 1
13.28 0 1
13.3974 0 1
13.5149 0 1
13.6323 0 1
13.7497 0 1
13.8671 0 1
13.9845 0 1
14.1019 0 1
14.2193 0 1
14.3367 0 1
14.4541 0 1
14.5714 0 1
14.6888 0 1
14.8062 0 1
14.9235 0 1
15.0408 7803 88.3346
15.1581 8079 89.8833
15.2755 8337 91.3072
15.3927 8108 90.0444
15.51 8116 90.0888
15.6273 8278 90.9835
15.7445 8169 90.3825
15.8617 8230 90.7193
15.9789 7791 88.2666
16.0961 7843 88.5607
16.2132 7757 88.0738
16.3304 7734 87.9432
16.4475 7944 89.1291
16.5646 8060 89.7775
16.6816 8059 89.7719
16.7986 7963 89.2356
16.9156 8121 90.1166
17.0326 7962 89.23
17.1496 7790 88.261
17.2665 7937 89.0898
17.3833 7631 87.3556
17.5002 7422 86.151
17.617 7408 86.0697
17.7338 7429 86.1916
17.8505 7504 86.6256
17.9672 7870 88.713
18.0839 8007 89.4818
18.2005 8521 92.3093
18.3171 8490 92.1412
18.4337 8818 93.9042
18.5502 8985 94.7892
18.6666 8822 93.9255
18.7831 9045 95.1052
18.8994 8705 93.3006
19.0158 8563 92.5365
19.1321 8442 91.8804
19.2483 8138 90.2109
19.3645 7669 87.5728
19.4806 7697 87.7325
19.5967 7323 85.5745
19.7128 7039 83.8987
19.8288 7048 83.9524
19.9447 6260 79.1202
20.0606 0 1
20.1764 0 1
20.2922 0 1
20.4079 0 1
20.5236 0 1
20.6392 0 1
20.7548 0 1
20.8702 0 1
23.3078 0 1
23.4233 0 1
23.539 0 1
23.6547 0 1
23.7704 0 1
23.8862 0 1
24.0021 0 1
24.118 0 1
24.234 0 1
24.35 0 1
24.4661 7433 86.2148
24.5822 7229 85.0235
24.6984 7009 83.7198
24.8146 7039 83.8987
24.9309 6939 83.3007
25.0472 7239 85.0823
25.1636 7475 86.4581
25.28 7643 87.4243
25.3965 7904 88.9044
25.513 8233 90.7359
25.6296 8097 89.9833
25.7462 8195 90.5262
25.8628 8239 90.7689
25.9795 8269 90.934
26.0962 7937 89.0898
26.213 7780 88.2043
26.3298 7613 87.2525
26.4466 7268 85.2526
26.5635 7417 86.122
26.6804 7734 87.9432
26.7973 7703 87.7667
26.9143 7851 88.6059
27.0313 7969 89.2693
27.1483 8347 91.3619
27.2653 8327 91.2524
27.3824 8271 90.945
27.4996 8414 91.7279
27.6167 8169 90.3825
27.7339 8042 89.6772
27.8511 7937 89.0898
27.9683 7548 86.8792
28.0855 7548 86.8792
28.2028 7341 85.6796
28.3201 7233 85.047
28.4374 6879 82.9397
28.5547 6851 82.7708
28.6721 7182 84.7467
28.7894 7307 85.481
28.9068 7541 86.8389
29.0242 7623 87.3098
29.1416 7463 86.3887
29.259 7575 87.0345
29.3764 7634 87.3728
29.4939 7551 86.8965
29.6113 7266 85.2408
29.7288 7058 84.0119
29.8463 7076 84.119
29.9638 6978 83.5344
30.0812 6833 82.662
30.1987 7047 83.9464
30.3162 7189 84.788
30.4337 7280 85.3229
30.5512 7479 86.4812
30.6687 7650 87.4643
30.7862 7802 88.3289
30.9037 7838 88.5325
31.0212 8057 89.7608
31.1387 7825 88.459
31.2562 7680 87.6356
31.3737 7876 88.7468
31.4912 7596 87.155
31.6087 7283 85.3405
31.7262 7169 84.6699
31.8436 7123 84.3979
31.9611 6860 82.8251
32.0785 6781 82.3468
32.1959 6840 82.7043
32.3134 7057 84.006
32.4308 7432 86.209
32.5482 7466 86.406
32.6655 7360 85.7904
32.7829 7456 86.3481
32.9002 7370 85.8487
33.0176 7500 86.6025
33.1349 7338 85.6621
33.2522 7245 85.1176
33.3694 6957 83.4086
33.4867 6901 83.0723
33.6039 6717 81.9573
33.7211 6585 81.148
33.8383 6663 81.6272
33.9554 6757 82.201
34.0725 7008 83.7138
34.1896 7145 84.5281
34.3067 7457 86.3539
34.4237 7436 86.2322
34.5407 7654 87.4871
34.6577 7627 87.3327
34.7746 7699 87.7439
34.8915 7591 87.1263
35.0084 7498 86.591
35.1252 7336 85.6505
35.242 7284 85.3464
35.3587 6970 83.4865
35.4755 6964 83.4506
35.5921 6665 81.6395
35.7088 6381 79.8812
35.8254 6304 79.3977
35.9419 6527 80.7899
36.0584 6520 80.7465
36.1749 6750 82.1584
36.2913 6965 83.4566
36.4077 7006 83.7019
36.524 7076 84.119
36.6403 7047 83.9464
36.7565 7127 84.4216
36.8727 7071 84.0892
36.9889 6849 82.7587
37.1049 6540 80.8703
37.221 0 1
37.3369 0 1
37.4529 0 1
37.5687 0 1
37.6845 0 1
37.8003 0 1
37.916 0 1
38.0316 0 1
38.1472 0 1
40.5851 0 1
40.7008 0 1
40.8164 0 1
40.9322 0 1
41.048 0 1
41.1639 0 1
41.2798 0 1
41.3958 0 1
41.5118 0 1
41.6279 0 1
41.744 5433 73.7089
41.8602 5803 76.1774
41.9765 5888 76.7333
42.0928 6003 77.479
42.2091 5933 77.026
42.3255 5755 75.8617
42.4419 5520 74.2967
42.5584 5372 73.2939
42.675 5233 72.3395
42.7915 5442 73.7699
42.9081 5505 74.1957
43.0248 5698 75.4851
43.1415 5757 75.8749
43.2582 5940 77.0714
43.375 5865 76.5833
43.4918 5976 77.3046
43.6087 5913 76.896
43.7256 6030 77.6531
43.8425 5876 76.6551
43.9595 5740 75.7628
44.0765 5608 74.8866
44.1935 5357 73.1915
44.3106 5309 72.8629
44.4277 5061 71.1407
44.5448 4855 69.6778
44.6619 4646 68.1616
44.7791 4467 66.8356
44.8963 4549 67.4463
45.0136 4481 66.9403
45.1308 4493 67.0298
45.2481 4638 68.1029
45.3654 4785 69.1737
45.4827 4557 67.5056
45.6001 4621 67.9779
45.7174 4653 68.2129
45.8348 4575 67.6387
45.9522 4409 66.4003
46.0697 4210 64.8845
46.1871 4106 64.0781
46.3046 4054 63.671
46.422 3941 62.7774
46.5395 4232 65.0538
46.657 4206 64.8537
46.7745 4265 65.307
46.892 4429 66.5507
47.0096 4418 66.468
47.1271 4467 66.8356
47.2446 4294 65.5286
47.3622 4353 65.9773
47.4797 4358 66.0151
47.5973 4254 65.2227
47.7149 4169 64.5678
47.8324 4130 64.2651
47.95 3875 62.2495
48.0675 3696 60.7947
48.1851 3565 59.7076
48.3027 3492 59.0931
48.4202 3546 59.5483
48.5378 3468 58.8897
48.6554 3712 60.9262
48.7729 3849 62.0403
48.8904 3941 62.7774
49.008 3964 62.9603
49.1255 3973 63.0317
49.243 4087 63.9296
49.3605 4053 63.6632
49.478 3949 62.8411
49.5955 3841 61.9758
49.713 3750 61.2372
49.8304 3692 60.7618
49.9479 3762 61.3351
50.0653 3902 62.466
50.1827 4205 64.846
50.3001 4351 65.9621
50.4175 4293 65.521
50.5348 4578 67.6609
50.6521 4612 67.9117
50.7694 4581 67.6831
50.8867 4785 69.1737
51.004 4898 69.9857
51.1212 4900 70
51.2384 4925 70.1783
51.3556 4895 69.9643
51.4727 5010 70.7814
51.5899 4870 69.7854
51.707 4765 69.029
51.824 4772 69.0797
51.9411 4739 68.8404
52.0581 4939 70.278
52.175 5216 72.2219
52.2919 5358 73.1984
52.4088 5663 75.2529
52.5257 5730 75.6968
52.6425 5894 76.7724
52.7593 5921 76.948
52.876 6214 78.8289
52.9927 6004 77.4855
53.1094 6064 77.8717
53.226 5710 75.5645
53.3426 5726 75.6703
53.4591 5554 74.5252
53.5756 5659 75.2263
53.692 6039 77.711
53.8084 6155 78.4538
53.9248 6480 80.4984
54.0411 6608 81.2896
54.1573 6727 82.0183
54.2735 0 1
54.3896 0 1
54.5057 0 1
54.6217 0 1
54.7377 0 1
54.8537 0 1
54.9695 0 1
55.0853 0 1
55.2011 0 1
55.3168 0 1
55.4324 0 1
57.824 0 1
57.9396 0 1
58.0553 0 1
58.1711 0 1
58.2869 0 1
58.4028 0 1
58.5187 0 1
58.6347 0 1
58.7508 0 1
58.8669 0 1
58.983 7370 85.8487
59.0992 8000 89.4427
59.2155 8350 91.3783
59.3318 8628 92.887
59.4482 8895 94.3133
59.5646 8515 92.2768
59.681 8794 93.7763
59.7975 8658 93.0484
59.9141 8677 93.1504
60.0306 8622 92.8547
60.1473 8259 90.879
60.2639 8271 90.945
60.3807 7950 89.1628
60.4974 7738 87.9659
60.6142 7266 85.2408
60.731 7394 85.9884
60.8479 7491 86.5506
60.9648 7561 86.954
61.0818 7662 87.5329
61.1987 7839 88.5381
61.3158 8177 90.4268
61.4328 8131 90.1721
61.5499 8112 90.0666
61.667 8231 90.7249
61.7841 7958 89.2076
61.9013 7710 87.8066
62.0185 7271 85.2702
62.1357 7035 83.8749
62.253 7043 83.9226
62.3702 7197 84.8351
62.4875 7340 85.6738
62.6049 7663 87.5386
62.7222 7677 87.6185
62.8396 7799 88.3119
62.9569 7774 88.1703
63.0743 7917 88.9775
63.1918 7940 89.1067
63.3092 7882 88.7806
63.4267 7567 86.9885
63.5441 7705 87.7781
63.6616 7615 87.264
63.7791 7383 85.9244
63.8966 7115 84.3505
64.0142 6875 82.9156
64.1317 6641 81.4923
64.2492 6601 81.2465
64.3668 6453 80.3306
64.4843 6747 82.1401
64.6019 6954 83.3906
64.7195 7069 84.0773
64.837 7262 85.2174
64.9546 7383 85.9244
65.0722 7553 86.908
65.1898 7516 86.6949
65.3074 7776 88.1816
65.4249 7193 84.8116
65.5425 6986 83.5823
65.6601 6528 80.796
65.7777 6454 80.3368
65.8952 6578 81.1049
66.0128 6830 82.6438
66.1304 7062 84.0357
66.2479 7285 85.3522
66.3655 7434 86.2206
66.483 7453 86.3308
66.6005 7647 87.4471
66.718 7665 87.55
66.8355 7869 88.7074
66.953 7660 87.5214
67.0705 7579 87.0575
67.1879 7678 87.6242
67.3054 7480 86.487
67.4228 7592 87.1321
67.5402 7375 85.8778
67.6576 7083 84.1606
67.7749 6742 82.1097
67.8923 6826 82.6196
68.0096 6562 81.0062
68.1269 6748 82.1462
68.2442 7135 84.4689
68.3614 7516 86.6949
68.4787 7587 87.1034
68.5958 7788 88.2496
68.713 7972 89.2861
68.8302 8099 89.9944
68.9473 8134 90.1887
69.0643 8008 89.4874
69.1814 7747 88.017
69.2984 7206 84.8882
69.4154 7119 84.3742
69.5323 6773 82.2982
69.6492 7050 83.9643
69.7661 7457 86.3539
69.8829 7920 88.9944
69.9997 7943 89.1235
70.1165 8038 89.6549
70.2332 8450 91.9239
70.3499 8297 91.0879
70.4665 8410 91.7061
70.5831 8443 91.8858
70.6996 8395 91.6242
70.8161 8433 91.8314
70.9326 8464 92
71.049 8153 90.294
71.1653 8051 89.7274
71.2817 7661 87.5271
71.3979 7407 86.0639
71.5141 6707 81.8963
71.6303 6450 80.3119
71.7464 6380 79.8749
71.8624 0 1
71.9784 0 1
72.0944 0 1
72.2102 0 1
72.3261 0 1
72.4418 0 1
72.5575 0 1
72.6732 0 1
75.1054 0 1
75.2209 0 1
75.3365 0 1
75.4521 0 1
75.5678 0 1
75.6835 0 1
75.7993 0 1
75.9151 0 1
76.031 0 1
76.147 7385 85.936
76.263 8029 89.6047
76.3791 7986 89.3644
76.4952 7904 88.9044
76.6113 7661 87.5271
76.7276 6955 83.3966
76.8438 6861 82.8312
76.9601 7024 83.8093
77.0765 7149 84.5518
77.1929 7405 86.0523
77.3093 7829 88.4816
77.4258 7941 89.1123
77.5423 7984 89.3532
77.6589 8440 91.8695
77.7755 8397 91.6351
77.8921 8365 91.4604
78.0088 8124 90.1332
78.1256 7846 88.5776
78.2423 7429 86.1916
78.3591 6784 82.365
78.4759 6606 81.2773
78.5928 6862 82.8372
78.7097 7112 84.3327
78.8266 7539 86.8274
78.9436 7991 89.3924
79.0606 7989 89.3812
79.1776 8078 89.8777
79.2946 8484 92.1086
79.4117 8263 90.901
79.5288 8194 90.5207
79.6459 8335 91.2962
79.7631 8019 89.5489
79.8802 8224 90.6863
79.9974 8055 89.7497
80.1147 7964 89.2412
80.2319 7783 88.2213
80.3491 7211 84.9176
80.4664 7010 83.7257
80.5837 6957 83.4086
80.701 7217 84.9529
80.8183 7353 85.7496
80.9357 7837 88.5268
81.053 8124 90.1332
81.1704 8010 89.4986
81.2877 8165 90.3604
81.4051 8464 92
81.5225 8761 93.6002
81.6399 8509 92.2442
81.7573 8151 90.2829
81.8747 7323 85.5745
81.9922 7099 84.2556
82.1096 6610 81.3019
82.227 6800 82.4621
82.3444 7015 83.7556
82.4619 7610 87.2353
82.5793 7967 89.2581
82.6967 8022 89.5656
82.8142 8132 90.1776
82.9316 8271 90.945
83.049 8313 91.1757
83.1664 8467 92.0163
83.2838 8363 91.4494
83.4012 8430 91.815
83.5186 8325 91.2414
83.636 8213 90.6256
83.7534 8190 90.4986
83.8708 7909 88.9326
83.9881 7436 86.2322
84.1055 6983 83.5643
84.2228 7263 85.2232
84.3401 7121 84.386
84.4575 7535 86.8044
84.5747 7815 88.4025
84.692 8073 89.8499
84.8093 8227 90.7028
84.9265 8577 92.6121
85.0437 8868 94.1701
85.1609 8715 93.3542
85.2781 8558 92.5095
85.3952 8096 89.9778
85.5123 7550 86.8907
85.6294 7008 83.7138
85.7465 6931 83.2526
85.8636 7256 85.1822
85.9806 7816 88.4081
86.0976 8212 90.6201
86.2145 8504 92.2171
86.3315 8724 93.4024
86.4484 8671 93.1182
86.5652 8934 94.5198
86.682 9028 95.0158
86.7988 8957 94.6414
86.9156 8986 94.7945
87.0323 9049 95.1262
87.149 8779 93.6963
87.2657 8949 94.5992
87.3823 8557 92.5041
87.4988 8425 91.7878
87.6154 7834 88.5099
87.7318 7604 87.2009
87.8483 7752 88.0454
87.9647 7866 88.6905
88.081 7974 89.2973
88.1973 8409 91.7006
88.3136 8631 92.9032
88.4298 8718 93.3702
88.546 9194 95.8853
88.6621 9215 95.9948
88.7781 9083 95.3048
88.8942 0 1
89.0101 0 1
89.126 0 1
89.2419 0 1
89.3577 0 1
89.4734 0 1
89.5891 0 1
89.7047 0 1
89.8203 0 1
89.9358 0 1
92.3269 0 1
92.4424 0 1
92.558 0 1
92.6736 0 1
92.7893 0 1
92.905 0 1
93.0208 0 1
93.1366 0 1
93.2525 0 1
93.3685 0 1
93.4845 0 1
93.6005 7974 89.2973
93.7167 8446 91.9021
93.8328 8548 92.4554
93.949 8567 92.5581
94.0653 8598 92.7254
94.1816 8360 91.433
94.2979 7879 88.7637
94.4143 7437 86.238
94.5307 7081 84.1487
94.6472 6852 82.7768
94.7637 6992 83.6182
94.8803 7341 85.6796
94.9969 7865 88.6848
95.1135 8056 89.7552
95.2302 8202 90.5649
95.3469 8334 91.2907
95.4637 8549 92.4608
95.5805 8410 91.7061
95.6973 8741 93.4933
95.8142 8834 93.9894
95.9311 8725 93.4077
96.048 8764 93.6162
96.1649 8511 92.2551
96.2819 8480 92.0869
96.3989 8348 91.3674
96.516 8003 89.4595
96.633 7660 87.5214
96.7501 7306 85.4751
96.8673 7177 84.7172
96.9844 7390 85.9651
97.1016 7415 86.1104
97.2188 7874 88.7356
97.336 8152 90.2884
97.4532 8394 91.6188
97.5704 8481 92.0923
97.6877 8536 92.3905
97.805 8721 93.3863
97.9223 8441 91.8749
98.0396 7821 88.4364
98.1569 7475 86.4581
98.2743 7227 85.0118
98.3916 6879 82.9397
98.509 6998 83.654
98.6264 7295 85.4108
98.7438 7656 87.4986
98.8612 7955 89.1908
98.9786 8140 90.2219
99.096 8178 90.4323
99.2134 8199 90.5483
99.3308 8407 91.6897
99.4482 8300 91.1043
99.5656 8303 91.1208
99.6831 8130 90.1665
99.8005 8076 89.8666
99.9179 8054 89.7441
100.035 7904 88.9044
100.153 7684 87.6584
100.27 7338 85.6621
100.388 6960 83.4266
100.505 7068 84.0714
100.622 7114 84.3445
100.74 7353 85.7496
100.857 7664 87.5443
100.975 7892 88.8369
101.092 8201 90.5594
101.209 8507 92.2334
101.327 8660 93.0591
101.444 8557 92.5041
101.561 8292 91.0604
101.679 7772 88.1589
101.796 7581 87.0689
101.913 6923 83.2046
102.03 6958 83.4146
102.148 7237 85.0706
102.265 6944 83.3307
102.382 8416 91.7388
102.499 8121 90.1166
102.616 8490 92.1412
102.733 8569 92.5689
102.851 8688 93.2094
102.968 8885 94.2603
103.085 8926 94.4775
103.202 8772 93.659
103.319 8680 93.1665
103.436 8717 93.3649
103.552 8534 92.3797
103.669 8308 91.1482
103.786 8050 89.7218
103.903 7811 88.3799
104.02 7520 86.7179
104.137 7731 87.9261
104.253 7953 89.1796
104.37 8085 89.9166
104.487 8552 92.477
104.603 8763 93.6109
104.72 8936 94.5304
104.836 9096 95.373
104.953 9018 94.9632
105.069 8765 93.6216
105.186 8007 89.4818
105.302 7628 87.3384
105.418 7350 85.7321
105.535 7327 85.5979
105.651 7771 88.1533
105.767 8351 91.3838
105.883 8418 91.7497
105.999 8650 93.0054
106.115 0 1
106.231 0 1
106.347 0 1
106.463 0 1
106.579 0 1
106.694 0 1
106.81 0 1
106.926 0 1
107.041 0 1
107.157 0 1
109.576 0 1
109.692 0 1
109.807 0 1
109.923 0 1
110.039 0 1
110.155 0 1
110.27 0 1
110.386 0 1
110.502 0 1
110.618 6426 80.1623
110.735 6755 82.1888
110.851 7247 85.1293
110.967 7565 86.977
111.083 7762 88.1022
111.199 7927 89.0337
111.316 8035 89.6382
111.432 7961 89.2244
111.549 7937 89.0898
111.665 8003 89.4595
111.782 7989 89.3812
111.898 7673 87.5957
112.015 7729 87.9147
112.132 7473 86.4465
112.248 7284 85.3464
112.365 6854 82.7889
112.482 6775 82.3104
112.599 6417 80.1062
112.716 6460 80.3741
112.832 6569 81.0494
112.949 6857 82.807
113.066 7042 83.9166
113.183 7189 84.788
113.3 7308 85.4868
113.417 7514 86.6833
113.534 7261 85.2115
113.652 6993 83.6242
113.769 6769 82.2739
113.886 6196 78.7147
114.003 5925 76.974
114.12 5728 75.6836
114.238 6042 77.7303
114.355 6256 79.0949
114.472 6570 81.0555
114.589 6501 80.6288
114.707 6715 81.9451
114.824 6660 81.6088
114.942 6835 82.6741
115.059 6582 81.1295
115.176 6525 80.7775
115.294 6624 81.388
115.411 6513 80.7032
115.529 6122 78.2432
115.646 6093 78.0577
115.764 5919 76.935
115.881 5703 75.5182
115.999 5383 73.3689
116.116 5149 71.7565
116.234 5269 72.5879
116.351 5435 73.7225
116.469 5337 73.0548
116.586 5548 74.4849
116.704 5633 75.0533
116.821 5896 76.7854
116.939 5851 76.4918
117.056 6023 77.608
117.174 5801 76.1643
117.291 5688 75.4188
117.409 5383 73.3689
117.526 5091 71.3512
117.644 4794 69.2387
117.761 4928 70.1997
117.879 5207 72.1595
117.996 5400 73.4847
118.114 5540 74.4312
118.231 5571 74.6391
118.349 5741 75.7694
118.466 5806 76.1971
118.584 5920 76.9415
118.701 5918 76.9285
118.819 5826 76.3282
118.936 5917 76.922
119.053 5839 76.4133
119.171 5749 75.8222
119.288 5649 75.1598
119.405 5548 74.4849
119.523 5366 73.253
119.64 5182 71.9861
119.757 5069 71.1969
119.875 5305 72.8354
119.992 5324 72.9657
120.109 5575 74.6659
120.226 5701 75.505
120.343 6005 77.4919
120.46 6240 78.9937
120.578 6335 79.5927
120.695 6421 80.1311
120.812 6304 79.3977
120.929 6288 79.2969
121.046 5987 77.3757
121.163 5724 75.6571
121.279 5635 75.0666
121.396 5377 73.328
121.513 5590 74.7663
121.63 6047 77.7625
121.747 6391 79.9437
121.863 6492 80.5729
121.98 6695 81.823
122.097 6779 82.3347
122.213 6768 82.2679
122.33 6981 83.5524
122.446 6890 83.006
122.563 6996 83.6421
122.679 6919 83.1805
122.795 6938 83.2947
122.912 6875 82.9156
123.028 6563 81.0123
123.144 6443 80.2683
123.26 6258 79.1075
123.377 0 1
123.493 0 1
123.609 0 1
123.725 0 1
123.84 0 1
123.956 0 1
124.072 0 1
124.188 0 1
124.303 0 1
124.419 0 1
126.852 0 1
126.968 0 1
127.083 0 1
127.199 0 1
127.315 0 1
127.431 0 1
127.547 0 1
127.663 0 1
127.779 0 1
127.895 0 1
128.011 0 1
128.127 0 1
128.243 0 1
128.359 8154 90.2995
128.476 7646 87.4414
128.592 7529 86.7698
128.708 7355 85.7613
128.825 7051 83.9702
128.941 7073 84.1011
129.058 7347 85.7146
129.174 7598 87.1665
129.291 7597 87.1608
129.408 7842 88.5551
129.524 7991 89.3924
129.641 8045 89.6939
129.758 8219 90.6587
129.875 8003 89.4595
129.992 7786 88.2383
130.108 7303 85.4576
130.225 6982 83.5584
130.342 6901 83.0723
130.459 6747 82.1401
130.576 6866 82.8613
130.693 7227 85.0118
130.81 7651 87.47
130.928 7768 88.1363
131.045 7671 87.5842
131.162 7895 88.8538
131.279 8006 89.4763
131.396 8020 89.5545
131.513 7842 88.5551
131.631 7888 88.8144
131.748 7582 87.0747
131.865 7503 86.6199
131.983 7420 86.1394
132.1 7031 83.8511
132.217 6925 83.2166
132.335 6644 81.5107
132.452 6748 82.1462
132.57 6895 83.0361
132.687 6883 82.9638
132.804 7543 86.8504
132.922 7342 85.6855
133.039 7466 86.406
133.157 7547 86.8735
133.274 7717 87.8465
133.392 7796 88.295
133.509 7648 87.4528
133.627 7140 84.4985
133.744 6799 82.456
133.862 6465 80.4052
133.979 6456 80.3492
134.097 6623 81.3818
134.214 7051 83.9702
134.332 6998 83.654
134.449 7423 86.1568
134.567 7431 86.2032
134.684 7442 86.267
134.802 7495 86.5737
134.919 7359 85.7846
135.037 7450 86.3134
135.154 7112 84.3327
135.272 7073 84.1011
135.389 6967 83.4686
135.507 6805 82.4924
135.624 6431 80.1935
135.742 6121 78.2368
135.859 6053 77.801
135.977 5826 76.3282
136.094 5890 76.7463
136.211 6070 77.9102
136.329 6135 78.3262
136.446 6437 80.2309
136.564 6397 79.9812
136.681 6351 79.6932
136.798 6527 80.7899
136.915 6368 79.7997
137.033 6419 80.1187
137.15 6235 78.962
137.267 6031 77.6595
137.384 5598 74.8198
137.502 5439 73.7496
137.619 5336 73.0479
137.736 5765 75.9276
137.853 5982 77.3434
137.97 6374 79.8373
138.087 6588 81.1665
138.204 6597 81.2219
138.321 6884 82.9699
138.438 6939 83.3007
138.555 6922 83.1986
138.672 6954 83.3906
138.788 7039 83.8987
138.905 6941 83.3127
139.022 6815 82.553
139.139 6734 82.061
139.255 6842 82.7164
139.372 6623 81.3818
139.488 6390 79.9375
139.605 6456 80.3492
139.721 6494 80.5854
139.838 6875 82.9156
139.954 6835 82.6741
140.071 7171 84.6818
140.187 7467 86.4118
140.303 7638 87.3957
140.419 7652 87.4757
140.535 7673 87.5957
140.652 7696 87.7268
140.768 0 1
140.884 0 1
141 0 1
141.115 0 1
141.231 0 1
141.347 0 1
141.463 0 1
141.578 0 1
141.694 0 1
144.104 0 1
144.219 0 1
144.335 0 1
144.45 0 1
144.566 0 1
144.682 0 1
144.798 0 1
144.914 0 1
145.03 0 1
145.146 10157 100.782
145.262 11117 105.437
145.378 11790 108.582
145.494 12367 111.207
145.61 13106 114.481
145.726 13704 117.064
145.842 13944 118.085
145.959 13809 117.512
146.075 13924 118
146.192 13740 117.218
146.308 14007 118.351
146.425 14369 119.871
146.541 15856 125.921
146.658 16981 130.311
146.774 18616 136.44
146.891 19640 140.143
147.008 20799 144.219
147.125 21930 148.088
147.241 22510 150.033
147.358 23544 153.441
147.475 23941 154.729
147.592 23673 153.86
147.709 23811 154.308
147.826 23685 153.899
147.943 23635 153.737
148.06 22829 151.093
148.177 22475 149.917
148.294 22357 149.523
148.411 22920 151.394
148.528 23448 153.127
148.645 24022 154.99
148.762 24726 157.245
148.88 25558 159.869
148.997 26678 163.334
149.114 24392 156.179
149.231 25664 160.2
149.349 25221 158.811
149.466 25151 158.591
149.583 23507 153.32
149.701 21764 147.526
149.818 21004 144.928
149.935 20334 142.597
150.053 20553 143.363
150.17 21536 146.751
150.287 22166 148.883
150.405 23053 151.832
150.522 23662 153.825
150.64 24493 156.502
150.757 24342 156.019
150.875 25148 158.581
150.992 24775 157.401
151.11 25204 158.758
151.227 24456 156.384
151.344 24198 155.557
151.462 24128 155.332
151.579 23566 153.512
151.697 23468 153.193
151.814 22646 150.486
151.932 22514 150.047
152.049 23286 152.598
152.167 23766 154.162
152.284 24614 156.888
152.402 25740 160.437
152.519 26654 163.261
152.636 26786 163.664
152.754 27303 165.236
152.871 27542 165.958
152.989 27288 165.191
153.106 26406 162.499
153.223 24938 157.918
153.341 23562 153.499
153.458 22540 150.133
153.575 22188 148.956
153.693 22910 151.36
153.81 24451 156.368
153.927 25400 159.374
154.044 26498 162.782
154.162 26891 163.985
154.279 27736 166.541
154.396 28803 169.714
154.513 29211 170.912
154.63 30018 173.257
154.747 29797 172.618
154.864 29971 173.121
154.981 28960 170.176
155.098 28948 170.141
155.215 28596 169.104
155.332 28054 167.493
155.449 27650 166.283
155.566 27525 165.907
155.683 28618 169.169
155.8 29066 170.488
155.917 30536 174.746
156.033 31698 178.039
156.15 0 1
156.267 0 1
156.383 0 1
156.5 0 1
156.617 0 1
156.733 0 1
156.85 0 1
156.966 0 1
157.082 0 1
157.199 0 1
157.315 0 1
157.431 0 1
157.547 0 1
157.664 0 1
157.78 0 1
157.896 0 1
158.012 0 1
158.128 0 1
158.244 0 1
158.359 0 1
158.475 0 1
158.591 0 1
158.706 0 1
