
6.15755 0 1
6.2731 0 1
6.3887 0 1
6.50437 0 1
6.62009 0 1
6.73587 0 1
6.8517 0 1
6.96759 0 1
7.08353 0 1
7.19952 0 1
7.31557 0 1
7.43166 0 1
7.54781 0 1
7.664 0 1
7.78024 0 1
7.89653 0 1
8.01286 0 1
8.12924 0 1
8.24567 0 1
8.36213 0 1
8.47864 0 1
8.59519 0 1
8.71178 0 1
8.82841 0 1
8.94508 0 1
9.06179 0 1
9.17853 0 1
9.29531 0 1
9.41212 0 1
9.52897 0 1
9.64584 0 1
9.76276 0 1
9.8797 0 1
9.99667 0 1
10.1137 0 1
10.2307 0 1
10.3478 0 1
10.4648 0 1
10.5819 0 1
10.6991 0 1
10.8162 0 1
10.9334 0 1
11.0506 0 1
11.1678 0 1
11.285 0 1
11.4023 0 1
11.5196 0 1
11.6369 0 1
11.7542 0 1
11.8715 0 1
11.9888 0 1
12.1062 0 1
12.2235 0 1
12.3409 0 1
12.4582 0 1
12.5756 0 1
12.693 0 1
12.8104 0 1
12.9278 0 1
13.0452 0 1
13.1626 0 1
13.28 0 1
13.3974 0 1
13.5149 0 1
13.6323 0 1
13.7497 0 1
13.8671 0 1
13.9845 0 1
14.1019 0 1
14.2193 0 1
14.3367 0 1
14.4541 0 1
14.5714 0 1
14.6888 0 1
14.8062 0 1
14.9235 0 1
15.0408 44512 210.979
15.1581 47098 217.021
15.2755 49232 221.883
15.3927 50820 225.433
15.51 51573 227.097
15.6273 51200 226.274
15.7445 50106 223.844
15.8617 47559 218.08
15.9789 44904 211.906
16.0961 45505 213.319
16.2132 46849 216.446
16.3304 49312 222.063
16.4475 52315 228.725
16.5646 53111 230.458
16.6816 53442 231.175
16.7986 52802 229.787
16.9156 52672 229.504
17.0326 52747 229.667
17.1496 52982 230.178
17.2665 52983 230.18
17.3833 52752 229.678
17.5002 52353 228.808
17.617 52879 229.954
17.7338 52533 229.201
17.8505 51747 227.48
17.9672 51021 225.878
18.0839 49914 223.414
18.2005 50939 225.697
18.3171 51880 227.772
18.4337 53999 232.377
18.5502 55336 235.236
18.6666 56481 237.657
18.7831 56450 237.592
18.8994 56194 237.053
19.0158 54729 233.942
19.1321 53247 230.753
19.2483 51400 226.716
19.3645 48489 220.202
19.4806 45732 213.85
19.5967 43995 209.75
19.7128 45119 212.412
19.8288 47246 217.361
19.9447 46085 214.674
20.0606 0 1
20.1764 0 1
20.2922 0 1
20.4079 0 1
20.5236 0 1
20.6392 0 1
20.7548 0 1
20.8702 0 1
23.3078 0 1
23.4233 0 1
23.539 0 1
23.6547 0 1
23.7704 0 1
23.8862 0 1
24.0021 0 1
24.118 0 1
24.234 0 1
24.35 0 1
24.4661 47215 217.29
24.5822 45347 212.948
24.6984 44983 212.092
24.8146 46682 216.06
24.9309 50191 224.033
25.0472 53740 231.819
25.1636 55375 235.319
25.28 55727 236.066
25.3965 56220 237.108
25.513 56481 237.657
25.6296 57535 239.865
25.7462 58166 241.176
25.8628 58548 241.967
25.9795 57534 239.862
26.0962 57727 240.264
26.213 56241 237.152
26.3298 55980 236.601
26.4466 53606 231.53
26.5635 52756 229.687
26.6804 52845 229.88
26.7973 52413 228.939
26.9143 53240 230.738
27.0313 53553 231.415
27.1483 55332 235.228
27.2653 56487 237.67
27.3824 56989 238.724
27.4996 56920 238.579
27.6167 55874 236.377
27.7339 54592 233.649
27.8511 52950 230.109
27.9683 50713 225.195
28.0855 47481 217.901
28.2028 45026 212.193
28.3201 44788 211.632
28.4374 46843 216.432
28.5547 50190 224.031
28.6721 53381 231.043
28.7894 55343 235.251
28.9068 55376 235.321
29.0242 54654 233.782
29.1416 54489 233.429
29.259 54522 233.499
29.3764 54352 233.135
29.4939 53474 231.244
29.6113 52760 229.695
29.7288 51901 227.818
29.8463 51141 226.144
29.9638 49863 223.3
30.0812 48691 220.66
30.1987 48718 220.722
30.3162 49318 222.077
30.4337 49485 222.452
30.5512 50040 223.696
30.6687 50610 224.967
30.7862 52658 229.473
30.9037 52704 229.574
31.0212 53359 230.996
31.1387 53127 230.493
31.2562 52682 229.526
31.3737 51385 226.683
31.4912 49603 222.717
31.6087 46358 215.309
31.7262 43715 209.081
31.8436 42898 207.118
31.9611 45181 212.558
32.0785 48286 219.741
32.1959 51555 227.057
32.3134 53037 230.298
32.4308 53060 230.348
32.5482 52939 230.085
32.6655 52577 229.297
32.7829 52085 228.221
32.9002 52421 228.956
33.0176 52285 228.659
33.1349 52141 228.344
33.2522 52377 228.86
33.3694 50108 223.848
33.4867 49581 222.668
33.6039 48513 220.257
33.7211 46813 216.363
33.8383 46759 216.238
33.9554 47182 217.214
34.0725 47730 218.472
34.1896 48318 219.814
34.3067 48686 220.649
34.4237 49305 222.047
34.5407 50109 223.85
34.6577 51047 225.936
34.7746 50532 224.793
34.8915 50148 223.937
35.0084 49737 223.018
35.1252 48003 219.096
35.242 46203 214.949
35.3587 42747 206.753
35.4755 40661 201.646
35.5921 41488 203.686
35.7088 42995 207.352
35.8254 46210 214.965
35.9419 49227 221.872
36.0584 50432 224.571
36.1749 51066 225.978
36.2913 50587 224.916
36.4077 50402 224.504
36.524 50346 224.379
36.6403 50218 224.094
36.7565 50045 223.707
36.8727 49977 223.555
36.9889 49097 221.578
37.1049 46988 216.767
37.221 0 1
37.3369 0 1
37.4529 0 1
37.5687 0 1
37.6845 0 1
37.8003 0 1
37.916 0 1
38.0316 0 1
38.1472 0 1
40.5851 0 1
40.7008 0 1
40.8164 0 1
40.9322 0 1
41.048 0 1
41.1639 0 1
41.2798 0 1
41.3958 0 1
41.5118 0 1
41.6279 0 1
41.744 38442 196.066
41.8602 40735 201.829
41.9765 41275 203.162
42.0928 41002 202.49
42.2091 39745 199.361
42.3255 38429 196.033
42.4419 37199 192.87
42.5584 36322 190.583
42.675 35901 189.476
42.7915 35741 189.053
42.9081 36282 190.478
43.0248 36563 191.215
43.1415 37111 192.642
43.2582 37162 192.774
43.375 37261 193.031
43.4918 37367 193.305
43.6087 37516 193.69
43.7256 37317 193.176
43.8425 36477 190.99
43.9595 35144 187.467
44.0765 33705 183.589
44.1935 31853 178.474
44.3106 28964 170.188
44.4277 27527 165.913
44.5448 27608 166.157
44.6619 28745 169.544
44.7791 30842 175.619
44.8963 31520 177.539
45.0136 31677 177.98
45.1308 30959 175.952
45.2481 30940 175.898
45.3654 29997 173.196
45.4827 29583 171.997
45.6001 29457 171.63
45.7174 29043 170.42
45.8348 28207 167.949
45.9522 27321 165.291
46.0697 26094 161.536
46.1871 25657 160.178
46.3046 25443 159.509
46.422 25683 160.259
46.5395 25755 160.484
46.657 26182 161.809
46.7745 26052 161.406
46.892 26466 162.684
47.0096 26071 161.465
47.1271 26168 161.765
47.2446 25583 159.947
47.3622 25528 159.775
47.4797 24817 157.534
47.5973 24066 155.132
47.7149 22750 150.831
47.8324 21809 147.679
47.95 19827 140.808
48.0675 19380 139.212
48.1851 20153 141.961
48.3027 21846 147.804
48.4202 23078 151.914
48.5378 23238 152.44
48.6554 23524 153.375
48.7729 23750 154.11
48.8904 23573 153.535
49.008 23582 153.564
49.1255 23468 153.193
49.243 23472 153.206
49.3605 23144 152.132
49.478 22847 151.152
49.5955 22311 149.369
49.713 22196 148.983
49.8304 22742 150.805
49.9479 23835 154.386
50.0653 24965 158.003
50.1827 25676 160.237
50.3001 26356 162.345
50.4175 27288 165.191
50.5348 27699 166.43
50.6521 28836 169.812
50.7694 29225 170.953
50.8867 29942 173.038
51.004 30342 174.19
51.1212 30498 174.637
51.2384 30814 175.539
51.3556 29838 172.737
51.4727 28917 170.05
51.5899 28897 169.991
51.707 31669 177.958
51.824 35311 187.912
51.9411 38283 195.66
52.0581 39979 199.947
52.175 41127 202.798
52.2919 42305 205.682
52.4088 43029 207.434
52.5257 44308 210.495
52.6425 44866 211.816
52.7593 45464 213.223
52.876 45063 212.28
52.9927 44207 210.255
53.1094 43752 209.17
53.226 43092 207.586
53.3426 43167 207.767
53.4591 44040 209.857
53.5756 45800 214.009
53.692 47327 217.548
53.8084 48501 220.229
53.9248 50437 224.582
54.0411 51567 227.084
54.1573 52362 228.827
54.2735 0 1
54.3896 0 1
54.5057 0 1
54.6217 0 1
54.7377 0 1
54.8537 0 1
54.9695 0 1
55.0853 0 1
55.2011 0 1
55.3168 0 1
55.4324 0 1
57.824 0 1
57.9396 0 1
58.0553 0 1
58.1711 0 1
58.2869 0 1
58.4028 0 1
58.5187 0 1
58.6347 0 1
58.7508 0 1
58.8669 0 1
58.983 52079 228.208
59.0992 54897 234.301
59.2155 56514 237.727
59.3318 57322 239.42
59.4482 57427 239.639
59.5646 57701 240.21
59.681 57380 239.541
59.7975 56738 238.197
59.9141 55315 235.191
60.0306 53722 231.78
60.1473 51274 226.438
60.2639 49120 221.63
60.3807 48550 220.341
60.4974 49614 222.742
60.6142 52745 229.663
60.731 55648 235.898
60.8479 56594 237.895
60.9648 57973 240.776
61.0818 57927 240.68
61.1987 57283 239.339
61.3158 57193 239.151
61.4328 56119 236.894
61.5499 54490 233.431
61.667 52984 230.183
61.7841 51504 226.945
61.9013 49967 223.533
62.0185 49607 222.726
62.1357 49972 223.544
62.253 50840 225.477
62.3702 51856 227.719
62.4875 52929 230.063
62.6049 53262 230.786
62.7222 53205 230.662
62.8396 54777 234.045
62.9569 53862 232.082
63.0743 53671 231.67
63.1918 53741 231.821
63.3092 52542 229.22
63.4267 51469 226.868
63.5441 49098 221.581
63.6616 47460 217.853
63.7791 44878 211.844
63.8966 43380 208.279
64.0142 44238 210.328
64.1317 47262 217.398
64.2492 49854 223.28
64.3668 51702 227.381
64.4843 51527 226.996
64.6019 51579 227.11
64.7195 51205 226.285
64.837 51121 226.1
64.9546 50382 224.459
65.0722 49233 221.885
65.1898 47093 217.009
65.3074 46842 216.43
65.4249 43954 209.652
65.5425 43599 208.804
65.6601 43477 208.511
65.7777 44772 211.594
65.8952 46501 215.641
66.0128 47743 218.502
66.1304 48976 221.305
66.2479 49544 222.585
66.3655 50943 225.706
66.483 51740 227.464
66.6005 52551 229.24
66.718 54086 232.564
66.8355 53994 232.366
66.953 53871 232.101
67.0705 52636 229.425
67.1879 51476 226.883
67.3054 49819 223.202
67.4228 48285 219.738
67.5402 47462 217.858
67.6576 49433 222.335
67.7749 52753 229.68
67.8923 58344 241.545
68.0096 61675 248.345
68.1269 63188 251.372
68.2442 64393 253.758
68.3614 64568 254.102
68.4787 65161 255.267
68.5958 66493 257.862
68.713 65521 255.971
68.8302 63871 252.727
68.9473 61240 247.467
69.0643 59798 244.536
69.1814 58284 241.421
69.2984 59213 243.337
69.4154 61072 247.127
69.5323 63516 252.024
69.6492 66349 257.583
69.7661 68419 261.57
69.8829 68358 261.454
69.9997 70248 265.043
70.1165 70561 265.633
70.2332 71482 267.361
70.3499 71548 267.485
70.4665 72864 269.933
70.5831 71852 268.052
70.6996 70089 264.743
70.8161 68098 260.956
70.9326 65279 255.498
71.049 62220 249.439
71.1653 57936 240.699
71.2817 56414 237.516
71.3979 57017 238.782
71.5141 59858 244.659
71.6303 63186 251.368
71.7464 62168 249.335
71.8624 0 1
71.9784 0 1
72.0944 0 1
72.2102 0 1
72.3261 0 1
72.4418 0 1
72.5575 0 1
72.6732 0 1
75.1054 0 1
75.2209 0 1
75.3365 0 1
75.4521 0 1
75.5678 0 1
75.6835 0 1
75.7993 0 1
75.9151 0 1
76.031 0 1
76.147 44630 211.258
76.263 46382 215.365
76.3791 44453 210.839
76.4952 42264 205.582
76.6113 43579 208.756
76.7276 46353 215.297
76.8438 50653 225.062
76.9601 52306 228.705
77.0765 52408 228.928
77.1929 51801 227.598
77.3093 51285 226.462
77.4258 51205 226.285
77.5423 50637 225.027
77.6589 48568 220.381
77.7755 46651 215.988
77.8921 44378 210.661
78.0088 43173 207.781
78.1256 42226 205.49
78.2423 42008 204.959
78.3591 43210 207.87
78.4759 44663 211.336
78.5928 46085 214.674
78.7097 46994 216.781
78.8266 46285 215.139
78.9436 48652 220.572
79.0606 47488 217.917
79.1776 47912 218.888
79.2946 48351 219.889
79.4117 48762 220.821
79.5288 48339 219.861
79.6459 47546 218.05
79.7631 45868 214.168
79.8802 44221 210.288
79.9974 41945 204.805
80.1147 39592 198.977
80.2319 39572 198.927
80.3491 42841 206.981
80.4664 46747 216.211
80.5837 48973 221.298
80.701 48837 220.991
80.8183 48765 220.828
80.9357 48930 221.201
81.053 48342 219.868
81.1704 48593 220.438
81.2877 48186 219.513
81.4051 46456 215.537
81.5225 43850 209.404
81.6399 41446 203.583
81.7573 41084 202.692
81.8747 39780 199.449
81.9922 40099 200.247
82.1096 43176 207.788
82.227 45074 212.306
82.3444 45324 212.894
82.4619 46567 215.794
82.5793 47291 217.465
82.6967 46520 215.685
82.8142 47469 217.874
82.9316 47823 218.685
83.049 48106 219.331
83.1664 48473 220.166
83.2838 47444 217.816
83.4012 46828 216.398
83.5186 45018 212.174
83.636 42444 206.019
83.7534 39456 198.635
83.8708 39581 198.95
83.9881 42347 205.784
84.1055 45876 214.187
84.2228 50473 224.662
84.3401 51317 226.533
84.4575 51725 227.431
84.5747 52213 228.502
84.692 51327 226.555
84.8093 51957 227.941
84.9265 50340 224.366
85.0437 47167 217.18
85.1609 44725 211.483
85.2781 44071 209.931
85.3952 42987 207.333
85.5123 43199 207.844
85.6294 45135 212.45
85.7465 48698 220.676
85.8636 50118 223.87
85.9806 50803 225.395
86.0976 51737 227.458
86.2145 52289 228.668
86.3315 53646 231.616
86.4484 54948 234.41
86.5652 55931 236.497
86.682 56595 237.897
86.7988 57310 239.395
86.9156 56650 238.013
87.0323 56064 236.778
87.149 53973 232.321
87.2657 51842 227.688
87.3823 49525 222.542
87.4988 51418 226.755
87.6154 56237 237.143
87.7318 62537 250.074
87.8483 66283 257.455
87.9647 68223 261.195
88.081 68955 262.593
88.1973 69886 264.36
88.3136 71200 266.833
88.4298 71044 266.541
88.546 69372 263.386
88.6621 65537 256.002
88.7781 62992 250.982
88.8942 0 1
89.0101 0 1
89.126 0 1
89.2419 0 1
89.3577 0 1
89.4734 0 1
89.5891 0 1
89.7047 0 1
89.8203 0 1
89.9358 0 1
92.3269 0 1
92.4424 0 1
92.558 0 1
92.6736 0 1
92.7893 0 1
92.905 0 1
93.0208 0 1
93.1366 0 1
93.2525 0 1
93.3685 0 1
93.4845 0 1
93.6005 84850 291.29
93.7167 84401 290.519
93.8328 82601 287.404
93.949 78661 280.466
94.0653 73834 271.724
94.1816 71642 267.66
94.2979 71179 266.794
94.4143 71090 266.627
94.5307 73344 270.821
94.6472 78245 279.723
94.7637 82290 286.862
94.8803 84392 290.503
94.9969 85130 291.77
95.1135 86583 294.25
95.2302 87224 295.337
95.3469 88624 297.698
95.4637 90149 300.248
95.5805 89776 299.626
95.6973 91480 302.457
95.8142 91742 302.889
95.9311 90271 300.451
96.048 87944 296.554
96.1649 85049 291.632
96.2819 80216 283.224
96.3989 74541 273.022
96.516 73406 270.935
96.633 76643 276.845
96.7501 82496 287.221
96.8673 89087 298.474
96.9844 91911 303.168
97.1016 92002 303.318
97.2188 91114 301.851
97.336 90345 300.574
97.4532 87993 296.636
97.5704 85381 292.2
97.6877 79173 281.377
97.805 72762 269.744
97.9223 68321 261.383
98.0396 66024 256.951
98.1569 65281 255.501
98.2743 66973 258.791
98.3916 70795 266.073
98.509 73739 271.549
98.6264 74628 273.181
98.7438 74782 273.463
98.8612 74870 273.624
98.9786 74506 272.958
99.096 74397 272.758
99.2134 73300 270.74
99.3308 73019 270.22
99.4482 71915 268.17
99.5656 70278 265.1
99.6831 68352 261.442
99.8005 65603 256.131
99.9179 62317 249.634
100.035 56218 237.103
100.153 55478 235.538
100.27 58051 240.938
100.388 62846 250.691
100.505 66637 258.141
100.622 67006 258.855
100.74 67162 259.156
100.857 66226 257.344
100.975 66359 257.602
101.092 64933 254.82
101.209 64138 253.255
101.327 60829 246.635
101.444 54737 233.959
101.561 51792 227.579
101.679 50434 224.575
101.796 50313 224.306
101.913 52702 229.569
102.03 56881 238.497
102.148 58942 242.78
102.265 55176 234.896
102.382 64833 254.623
102.499 60855 246.688
102.616 61411 247.812
102.733 60920 246.82
102.851 61406 247.802
102.968 62050 249.098
103.085 61132 247.249
103.202 59919 244.784
103.319 58142 241.127
103.436 55564 235.72
103.552 51401 226.718
103.669 48203 219.552
103.786 50109 223.85
103.903 53774 231.892
104.02 57288 239.349
104.137 59048 242.998
104.253 58698 242.277
104.37 57950 240.728
104.487 58199 241.245
104.603 57462 239.712
104.72 56000 236.643
104.836 52610 229.369
104.953 48125 219.374
105.069 45276 212.782
105.186 43303 208.094
105.302 43262 207.995
105.418 45769 213.937
105.535 48613 220.484
105.651 50629 225.009
105.767 50414 224.531
105.883 51246 226.376
105.999 51312 226.522
106.115 0 1
106.231 0 1
106.347 0 1
106.463 0 1
106.579 0 1
106.694 0 1
106.81 0 1
106.926 0 1
107.041 0 1
107.157 0 1
109.576 0 1
109.692 0 1
109.807 0 1
109.923 0 1
110.039 0 1
110.155 0 1
110.27 0 1
110.386 0 1
110.502 0 1
110.618 40062 200.155
110.735 43642 208.907
110.851 44977 212.078
110.967 45807 214.026
111.083 46583 215.831
111.199 47024 216.85
111.316 47686 218.371
111.432 48076 219.262
111.549 48376 219.945
111.665 48009 219.11
111.782 46988 216.767
111.898 45517 213.347
112.015 43881 209.478
112.132 40561 201.398
112.248 39023 197.542
112.365 39365 198.406
112.482 43433 208.406
112.599 44869 211.823
112.716 47239 217.345
112.832 47330 217.555
112.949 47083 216.986
113.066 47031 216.866
113.183 46697 216.095
113.3 46590 215.847
113.417 44350 210.594
113.534 41281 203.177
113.652 38414 195.995
113.769 36206 190.279
113.886 34916 186.858
114.003 35278 187.824
114.12 38293 195.686
114.238 41158 202.874
114.355 42439 206.007
114.472 43434 208.408
114.589 42573 206.332
114.707 43716 209.084
114.824 43175 207.786
114.942 43678 208.993
115.059 43144 207.711
115.176 42755 206.773
115.294 42212 205.456
115.411 40974 202.42
115.529 39241 198.093
115.646 37097 192.606
115.764 34368 185.386
115.881 33681 183.524
115.999 34572 185.935
116.116 36826 191.901
116.234 39280 198.192
116.351 40148 200.37
116.469 39442 198.6
116.586 39589 198.97
116.704 39542 198.852
116.821 39625 199.06
116.939 39382 198.449
117.056 37540 193.752
117.174 34837 186.647
117.291 32432 180.089
117.409 30295 174.055
117.526 29703 172.346
117.644 30393 174.336
117.761 33517 183.076
117.879 36309 190.549
117.996 37366 193.303
118.114 38444 196.071
118.231 39157 197.881
118.349 39257 198.134
118.466 39823 199.557
118.584 40451 201.124
118.701 40539 201.343
118.819 40148 200.37
118.936 39921 199.802
119.053 39219 198.038
119.171 37997 194.928
119.288 37089 192.585
119.405 34888 186.783
119.523 34464 185.645
119.64 35823 189.27
119.757 38050 195.064
119.875 40874 202.173
119.992 42712 206.669
120.109 43394 208.312
120.226 43843 209.387
120.343 44474 210.889
120.46 44922 211.948
120.578 45188 212.575
120.695 44882 211.854
120.812 41872 204.626
120.929 39217 198.033
121.046 37289 193.104
121.163 35178 187.558
121.279 34718 186.328
121.396 37577 193.848
121.513 41176 202.919
121.63 44816 211.698
121.747 47028 216.859
121.863 48355 219.898
121.98 49285 222.002
122.097 48906 221.147
122.213 49936 223.464
122.33 50522 224.771
122.446 50493 224.706
122.563 49811 223.184
122.679 49520 222.531
122.795 48885 221.1
122.912 47388 217.688
123.028 45847 214.119
123.144 43591 208.785
123.26 41434 203.553
123.377 0 1
123.493 0 1
123.609 0 1
123.725 0 1
123.84 0 1
123.956 0 1
124.072 0 1
124.188 0 1
124.303 0 1
124.419 0 1
126.852 0 1
126.968 0 1
127.083 0 1
127.199 0 1
127.315 0 1
127.431 0 1
127.547 0 1
127.663 0 1
127.779 0 1
127.895 0 1
128.011 0 1
128.127 0 1
128.243 0 1
128.359 52421 228.956
128.476 49687 222.906
128.592 46989 216.769
128.708 46686 216.069
128.825 48062 219.23
128.941 51317 226.533
129.058 54604 233.675
129.174 55698 236.004
129.291 55657 235.917
129.408 55565 235.722
129.524 55569 235.731
129.641 55091 234.715
129.758 54989 234.497
129.875 51610 227.178
129.992 47937 218.945
130.108 44660 211.329
130.225 41590 203.936
130.342 40166 200.415
130.459 41371 203.399
130.576 43881 209.478
130.693 46981 216.751
130.81 49176 221.757
130.928 50340 224.366
131.045 51044 225.929
131.162 51505 226.947
131.279 52402 228.915
131.396 51768 227.526
131.513 50912 225.637
131.631 50305 224.288
131.748 48408 220.018
131.865 47595 218.163
131.983 45958 214.378
132.1 42776 206.824
132.217 41079 202.68
132.335 41648 204.078
132.452 43142 207.707
132.57 45545 213.413
132.687 45608 213.56
132.804 48560 220.363
132.922 46854 216.458
133.039 46805 216.345
133.157 46263 215.088
133.274 45784 213.972
133.392 43959 209.664
133.509 40680 201.693
133.627 38135 195.282
133.744 35171 187.539
133.862 33605 183.317
133.979 32832 181.196
134.097 35031 187.166
134.214 37448 193.515
134.332 38133 195.277
134.449 39592 198.977
134.567 40473 201.179
134.684 41279 203.172
134.802 40937 202.329
134.919 40731 201.819
135.037 40448 201.117
135.154 38840 197.079
135.272 38244 195.561
135.389 38146 195.31
135.507 36548 191.175
135.624 34616 186.054
135.742 32757 180.989
135.859 31980 178.83
135.977 32257 179.602
136.094 33748 183.706
136.211 35224 187.681
136.329 36129 190.076
136.446 36526 191.118
136.564 36199 190.26
136.681 35802 189.214
136.798 36104 190.011
136.915 35420 188.202
137.033 34278 185.143
137.15 32150 179.304
137.267 30007 173.225
137.384 28327 168.306
137.502 26926 164.091
137.619 27465 165.726
137.736 29173 170.801
137.853 29974 173.13
137.97 32263 179.619
138.087 34562 185.909
138.204 36221 190.318
138.321 36876 192.031
138.438 37621 193.961
138.555 38066 195.105
138.672 37787 194.389
138.788 37823 194.481
138.905 37775 194.358
139.022 37076 192.551
139.139 36519 191.099
139.255 35102 187.355
139.372 34202 184.938
139.488 33983 184.345
139.605 35300 187.883
139.721 36773 191.763
139.838 39029 197.558
139.954 40536 201.336
140.071 40404 201.007
140.187 41766 204.367
140.303 41243 203.084
140.419 41589 203.934
140.535 41731 204.282
140.652 40928 202.307
140.768 0 1
140.884 0 1
141 0 1
141.115 0 1
141.231 0 1
141.347 0 1
141.463 0 1
141.578 0 1
141.694 0 1
144.104 0 1
144.219 0 1
144.335 0 1
144.45 0 1
144.566 0 1
144.682 0 1
144.798 0 1
144.914 0 1
145.03 0 1
145.146 34921 186.872
145.262 35811 189.238
145.378 36130 190.079
145.494 35868 189.388
145.61 35515 188.454
145.726 35126 187.419
145.842 33617 183.349
145.959 30999 176.065
146.075 29252 171.032
146.192 27708 166.457
146.308 26493 162.767
146.425 26263 162.059
146.541 27473 165.75
146.658 28158 167.803
146.774 28878 169.935
146.891 30070 173.407
147.008 30781 175.445
147.125 31475 177.412
147.241 31429 177.282
147.358 31328 176.997
147.475 31060 176.238
147.592 30030 173.292
147.709 29457 171.63
147.826 28870 169.912
147.943 27850 166.883
148.06 27008 164.341
148.177 25808 160.649
148.294 25208 158.77
148.411 25653 160.166
148.528 26974 164.238
148.645 27506 165.849
148.762 28208 167.952
148.88 27725 166.508
148.997 28759 169.585
149.114 26176 161.79
149.231 27263 165.115
149.349 26541 162.914
149.466 26557 162.963
149.583 24554 156.697
149.701 23143 152.128
149.818 22645 150.483
149.935 21340 146.082
150.053 21531 146.734
150.17 22542 150.14
150.287 23398 152.964
150.405 24334 155.994
150.522 25097 158.42
150.64 26033 161.347
150.757 26551 162.945
150.875 26969 164.222
150.992 26676 163.328
151.11 27445 165.665
151.227 26983 164.265
151.344 26986 164.274
151.462 26772 163.622
151.579 25955 161.106
151.697 24988 158.076
151.814 24428 156.295
151.932 24674 157.08
152.049 25405 159.389
152.167 26471 162.699
152.284 27396 165.517
152.402 27838 166.847
152.519 28482 168.766
152.636 28558 168.991
152.754 28988 170.259
152.871 28732 169.505
152.989 28764 169.6
153.106 27739 166.55
153.223 25868 160.835
153.341 24840 157.607
153.458 23886 154.551
153.575 23063 151.865
153.693 23722 154.019
153.81 25182 158.688
153.927 26673 163.319
154.044 27602 166.138
154.162 28715 169.455
154.279 29547 171.892
154.396 31100 176.352
154.513 31893 178.586
154.63 32811 181.138
154.747 32899 181.381
154.864 33212 182.242
154.981 32860 181.273
155.098 32986 181.62
155.215 32453 180.147
155.332 31388 177.167
155.449 31406 177.217
155.566 31198 176.63
155.683 32557 180.436
155.8 34371 185.394
155.917 35271 187.806
156.033 36478 190.992
156.15 0 1
156.267 0 1
156.383 0 1
156.5 0 1
156.617 0 1
156.733 0 1
156.85 0 1
156.966 0 1
157.082 0 1
157.199 0 1
157.315 0 1
157.431 0 1
157.547 0 1
157.664 0 1
157.78 0 1
157.896 0 1
158.012 0 1
158.128 0 1
158.244 0 1
158.359 0 1
158.475 0 1
158.591 0 1
158.706 0 1
