
6.15755 0 1
6.2731 0 1
6.3887 0 1
6.50437 0 1
6.62009 0 1
6.73587 0 1
6.8517 0 1
6.96759 0 1
7.08353 0 1
7.19952 0 1
7.31557 0 1
7.43166 0 1
7.54781 0 1
7.664 0 1
7.78024 0 1
7.89653 0 1
8.01286 0 1
8.12924 0 1
8.24567 0 1
8.36213 0 1
8.47864 0 1
8.59519 0 1
8.71178 0 1
8.82841 0 1
8.94508 0 1
9.06179 0 1
9.17853 0 1
9.29531 0 1
9.41212 0 1
9.52897 0 1
9.64584 0 1
9.76276 0 1
9.8797 0 1
9.99667 0 1
10.1137 0 1
10.2307 0 1
10.3478 0 1
10.4648 0 1
10.5819 0 1
10.6991 0 1
10.8162 0 1
10.9334 0 1
11.0506 0 1
11.1678 0 1
11.285 0 1
11.4023 0 1
11.5196 0 1
11.6369 0 1
11.7542 0 1
11.8715 0 1
11.9888 0 1
12.1062 0 1
12.2235 0 1
12.3409 0 1
12.4582 0 1
12.5756 0 1
12.693 0 1
12.8104 0 1
12.9278 0 1
13.0452 0 1
13.1626 0 1
13.28 0 1
13.3974 0 1
13.5149 0 1
13.6323 0 1
13.7497 0 1
13.8671 0 1
13.9845 0 1
14.1019 0 1
14.2193 0 1
14.3367 0 1
14.4541 0 1
14.5714 0 1
14.6888 0 1
14.8062 0 1
14.9235 0 1
15.0408 0 0
15.1581 0 0
15.2755 0 0
15.3927 0 0
15.51 0 0
15.6273 0 0
15.7445 0 0
15.8617 0 0
15.9789 0 0
16.0961 0 0
16.2132 0 0
16.3304 0 0
16.4475 0 0
16.5646 0 0
16.6816 0 0
16.7986 0 0
16.9156 0 0
17.0326 0 0
17.1496 0 0
17.2665 0 0
17.3833 0 0
17.5002 0 0
17.617 0 0
17.7338 0 0
17.8505 0 0
17.9672 0 0
18.0839 0 0
18.2005 0 0
18.3171 0 0
18.4337 0 0
18.5502 0 0
18.6666 0 0
18.7831 0 0
18.8994 0 0
19.0158 0 0
19.1321 0 0
19.2483 0 0
19.3645 0 0
19.4806 0 0
19.5967 0 0
19.7128 0 0
19.8288 0 0
19.9447 0 0
20.0606 0 1
20.1764 0 1
20.2922 0 1
20.4079 0 1
20.5236 0 1
20.6392 0 1
20.7548 0 1
20.8702 0 1
23.3078 0 1
23.4233 0 1
23.539 0 1
23.6547 0 1
23.7704 0 1
23.8862 0 1
24.0021 0 1
24.118 0 1
24.234 0 1
24.35 0 1
24.4661 94767 307.842
24.5822 95999 309.837
24.6984 97455 312.178
24.8146 99651 315.675
24.9309 101470 318.544
25.0472 101574 318.707
25.1636 101161 318.058
25.28 100803 317.495
25.3965 99508 315.449
25.513 97528 312.295
25.6296 96770 311.079
25.7462 94973 308.177
25.8628 92949 304.875
25.9795 91380 302.291
26.0962 90035 300.058
26.213 88388 297.301
26.3298 85421 292.269
26.4466 83871 289.605
26.5635 82497 287.223
26.6804 80571 283.85
26.7973 78816 280.742
26.9143 76688 276.926
27.0313 73164 270.488
27.1483 71085 266.618
27.2653 68656 262.023
27.3824 68004 260.776
27.4996 65349 255.635
27.6167 62989 250.976
27.7339 59894 244.733
27.8511 57261 239.293
27.9683 56083 236.818
28.0855 55084 234.7
28.2028 55757 236.129
28.3201 58440 241.744
28.4374 59436 243.795
28.5547 62003 249.004
28.6721 62849 250.697
28.7894 64110 253.2
28.9068 64108 253.196
29.0242 63857 252.699
29.1416 63512 252.016
29.259 63350 251.694
29.3764 63695 252.379
29.4939 62995 250.988
29.6113 63038 251.074
29.7288 62938 250.874
29.8463 62831 250.661
29.9638 62936 250.87
30.0812 62715 250.43
30.1987 62915 250.829
30.3162 62534 250.068
30.4337 61616 248.226
30.5512 60733 246.441
30.6687 59742 244.422
30.7862 57019 238.787
30.9037 57825 240.468
31.0212 56963 238.669
31.1387 55397 235.366
31.2562 53927 232.222
31.3737 52131 228.322
31.4912 51119 226.095
31.6087 51190 226.252
31.7262 51907 227.831
31.8436 53754 231.849
31.9611 56054 236.757
32.0785 58265 241.381
32.1959 59598 244.127
32.3134 60496 245.959
32.4308 60367 245.697
32.5482 61046 247.075
32.6655 60540 246.049
32.7829 60067 245.086
32.9002 60682 246.337
33.0176 60310 245.581
33.1349 60294 245.548
33.2522 59535 243.998
33.3694 60534 246.037
33.4867 60460 245.886
33.6039 60512 245.992
33.7211 59995 244.939
33.8383 60435 245.835
33.9554 60056 245.063
34.0725 59238 243.389
34.1896 58876 242.644
34.3067 58098 241.035
34.4237 56465 237.624
34.5407 54520 233.495
34.6577 53862 232.082
34.7746 52378 228.862
34.8915 50924 225.663
35.0084 49004 221.368
35.1252 47878 218.81
35.242 47858 218.765
35.3587 48810 220.93
35.4755 50928 225.672
35.5921 53174 230.595
35.7088 55112 234.759
35.8254 57036 238.822
35.9419 58201 241.249
36.0584 58051 240.938
36.1749 58425 241.713
36.2913 57854 240.529
36.4077 58225 241.299
36.524 57639 240.081
36.6403 57510 239.812
36.7565 57981 240.792
36.8727 57523 239.84
36.9889 57650 240.104
37.1049 56837 238.405
37.221 0 1
37.3369 0 1
37.4529 0 1
37.5687 0 1
37.6845 0 1
37.8003 0 1
37.916 0 1
38.0316 0 1
38.1472 0 1
40.5851 0 1
40.7008 0 1
40.8164 0 1
40.9322 0 1
41.048 0 1
41.1639 0 1
41.2798 0 1
41.3958 0 1
41.5118 0 1
41.6279 0 1
41.744 46248 215.053
41.8602 47746 218.509
41.9765 47795 218.621
42.0928 47539 218.034
42.2091 47791 218.612
42.3255 47056 216.924
42.4419 47800 218.632
42.5584 47260 217.394
42.675 46837 216.419
42.7915 46119 214.753
42.9081 46547 215.748
43.0248 46038 214.565
43.1415 44425 210.772
43.2582 43060 207.509
43.375 42334 205.752
43.4918 41998 204.934
43.6087 40509 201.268
43.7256 38582 196.423
43.8425 36552 191.186
43.9595 35519 188.465
44.0765 36362 190.688
44.1935 38440 196.061
44.3106 39219 198.038
44.4277 40334 200.833
44.5448 40272 200.679
44.6619 40274 200.684
44.7791 39645 199.111
44.8963 39078 197.682
45.0136 38399 195.957
45.1308 37858 194.571
45.2481 37120 192.666
45.3654 37026 192.421
45.4827 36953 192.232
45.6001 35708 188.966
45.7174 35785 189.169
45.8348 35796 189.198
45.9522 35277 187.822
46.0697 35142 187.462
46.1871 34360 185.365
46.3046 34047 184.518
46.422 33427 182.831
46.5395 33301 182.486
46.657 32561 180.447
46.7745 31353 177.068
46.892 30514 174.683
47.0096 29855 172.786
47.1271 29711 172.369
47.2446 28357 168.395
47.3622 26952 164.171
47.4797 25864 160.823
47.5973 25759 160.496
47.7149 26367 162.379
47.8324 27325 165.303
47.95 27798 166.727
48.0675 28417 168.573
48.1851 27688 166.397
48.3027 27579 166.069
48.4202 27287 165.188
48.5378 26971 164.228
48.6554 26775 163.631
48.7729 26600 163.095
48.8904 26626 163.175
49.008 26480 162.727
49.1255 26509 162.816
49.243 26793 163.686
49.3605 26676 163.328
49.478 26723 163.472
49.5955 26692 163.377
49.713 27091 164.593
49.8304 27390 165.499
49.9479 27752 166.589
50.0653 27692 166.409
50.1827 28084 167.583
50.3001 27960 167.212
50.4175 26913 164.052
50.5348 25908 160.96
50.6521 25961 161.124
50.7694 26491 162.761
50.8867 25861 160.814
51.004 26209 161.892
51.1212 28118 167.684
51.2384 30579 174.869
51.3556 32927 181.458
51.4727 33745 183.698
51.5899 34599 186.008
51.707 35008 187.104
51.824 35586 188.643
51.9411 36413 190.822
52.0581 36924 192.156
52.175 37456 193.536
52.2919 37635 193.997
52.4088 38787 196.944
52.5257 39491 198.723
52.6425 39953 199.882
52.7593 40305 200.761
52.876 40791 201.968
52.9927 41087 202.699
53.1094 41817 204.492
53.226 41978 204.885
53.3426 42170 205.353
53.4591 42531 206.23
53.5756 42747 206.753
53.692 43116 207.644
53.8084 42986 207.331
53.9248 42470 206.083
54.0411 41857 204.59
54.1573 39944 199.86
54.2735 0 1
54.3896 0 1
54.5057 0 1
54.6217 0 1
54.7377 0 1
54.8537 0 1
54.9695 0 1
55.0853 0 1
55.2011 0 1
55.3168 0 1
55.4324 0 1
57.824 0 1
57.9396 0 1
58.0553 0 1
58.1711 0 1
58.2869 0 1
58.4028 0 1
58.5187 0 1
58.6347 0 1
58.7508 0 1
58.8669 0 1
58.983 47576 218.119
59.0992 47225 217.313
59.2155 45330 212.908
59.3318 42446 206.024
59.4482 40758 201.886
59.5646 40897 202.23
59.681 42804 206.891
59.7975 44812 211.688
59.9141 45947 214.353
60.0306 46768 216.259
60.1473 46702 216.106
60.2639 46734 216.18
60.3807 46012 214.504
60.4974 45934 214.322
60.6142 45715 213.811
60.731 45575 213.483
60.8479 44343 210.578
60.9648 44380 210.666
61.0818 44539 211.043
61.1987 44129 210.069
61.3158 43530 208.638
61.4328 43274 208.024
61.5499 43049 207.483
61.667 43288 208.058
61.7841 42588 206.369
61.9013 42591 206.376
62.0185 42314 205.704
62.1357 41806 204.465
62.253 41915 204.732
62.3702 41279 203.172
62.4875 41107 202.749
62.6049 39735 199.336
62.7222 38581 196.42
62.8396 36305 190.539
62.9569 36109 190.024
63.0743 36455 190.932
63.1918 37429 193.466
63.3092 38978 197.428
63.4267 39829 199.572
63.5441 39875 199.687
63.6616 39388 198.464
63.7791 39107 197.755
63.8966 39004 197.494
64.0142 38408 195.98
64.1317 38019 194.985
64.2492 37954 194.818
64.3668 37915 194.718
64.4843 37451 193.523
64.6019 37042 192.463
64.7195 36911 192.122
64.837 36715 191.612
64.9546 36739 191.674
65.0722 36380 190.735
65.1898 35848 189.336
65.3074 36261 190.423
65.4249 35574 188.611
65.5425 36064 189.905
65.6601 35667 188.857
65.7777 35635 188.772
65.8952 35498 188.409
66.0128 35478 188.356
66.1304 34681 186.228
66.2479 33700 183.576
66.3655 31681 177.992
66.483 29579 171.985
66.6005 30228 173.862
66.718 31982 178.835
66.8355 34054 184.537
66.953 34610 186.038
67.0705 34561 185.906
67.1879 34338 185.305
67.3054 34038 184.494
67.4228 34093 184.643
67.5402 33904 184.13
67.6576 33524 183.096
67.7749 33817 183.894
67.8923 32756 180.986
68.0096 32750 180.97
68.1269 33194 182.192
68.2442 33118 181.984
68.3614 32754 180.981
68.4787 32961 181.552
68.5958 32785 181.066
68.713 32771 181.028
68.8302 32461 180.169
68.9473 32471 180.197
69.0643 32286 179.683
69.1814 31971 178.804
69.2984 32199 179.441
69.4154 32431 180.086
69.5323 31945 178.732
69.6492 32105 179.179
69.7661 31872 178.527
69.8829 32145 179.29
69.9997 30174 173.707
70.1165 27540 165.952
70.2332 26821 163.771
70.3499 28797 169.697
70.4665 30197 173.773
70.5831 30170 173.695
70.6996 30519 174.697
70.8161 29740 172.453
70.9326 29340 171.289
71.049 29101 170.59
71.1653 28486 168.778
71.2817 27939 167.15
71.3979 27221 164.988
71.5141 26774 163.628
71.6303 25617 160.053
71.7464 23469 153.196
71.8624 0 1
71.9784 0 1
72.0944 0 1
72.2102 0 1
72.3261 0 1
72.4418 0 1
72.5575 0 1
72.6732 0 1
75.1054 0 1
75.2209 0 1
75.3365 0 1
75.4521 0 1
75.5678 0 1
75.6835 0 1
75.7993 0 1
75.9151 0 1
76.031 0 1
76.147 14541 120.586
76.263 14956 122.295
76.3791 14566 120.69
76.4952 13912 117.949
76.6113 13509 116.228
76.7276 12814 113.199
76.8438 12323 111.009
76.9601 11927 109.211
77.0765 11454 107.023
77.1929 11122 105.461
77.3093 11285 106.231
77.4258 11165 105.665
77.5423 10887 104.341
77.6589 10790 103.875
77.7755 11000 104.881
77.8921 11213 105.891
78.0088 11181 105.74
78.1256 11403 106.785
78.2423 11549 107.466
78.3591 11810 108.674
78.4759 12325 111.018
78.5928 12580 112.161
78.7097 13451 115.978
78.8266 13685 116.983
78.9436 14302 119.591
79.0606 12873 113.459
79.1776 10132 100.658
79.2946 13353 115.555
79.4117 16213 127.33
79.5288 16851 129.811
79.6459 16423 128.152
79.7631 16802 129.623
79.8802 17850 133.604
79.9974 18299 135.274
80.1147 18496 136
80.2319 18970 137.732
80.3491 18700 136.748
80.4664 18730 136.858
80.5837 18904 137.492
80.701 19091 138.17
80.8183 19389 139.244
80.9357 19975 141.333
81.053 20060 141.633
81.1704 20165 142.004
81.2877 19897 141.057
81.4051 20261 142.341
81.5225 20795 144.205
81.6399 20037 141.552
81.7573 20544 143.332
81.8747 20141 141.919
81.9922 20508 143.206
82.1096 20834 144.34
82.227 20802 144.229
82.3444 21044 145.066
82.4619 21596 146.956
82.5793 21656 147.16
82.6967 19068 138.087
82.8142 16147 127.071
82.9316 17431 132.027
83.049 20921 144.641
83.1664 21721 147.38
83.2838 21498 146.622
83.4012 20543 143.328
83.5186 21108 145.286
83.636 21657 147.163
83.7534 22599 150.33
83.8708 22330 149.432
83.9881 22891 151.298
84.1055 23201 152.319
84.2228 23231 152.417
84.3401 23298 152.637
84.4575 23503 153.307
84.5747 24217 155.618
84.692 24345 156.029
84.8093 25196 158.732
84.9265 25231 158.843
85.0437 25631 160.097
85.1609 25729 160.403
85.2781 26182 161.809
85.3952 26452 162.641
85.5123 26829 163.796
85.6294 26948 164.158
85.7465 27356 165.396
85.8636 27830 166.823
85.9806 27905 167.048
86.0976 27859 166.91
86.2145 25045 158.256
86.3315 21441 146.427
86.4484 23085 151.937
86.5652 27034 164.42
86.682 29920 172.974
86.7988 30751 175.36
86.9156 30759 175.382
87.0323 30945 175.912
87.149 30750 175.357
87.2657 31378 177.138
87.3823 31978 178.824
87.4988 31697 178.037
87.6154 32025 178.955
87.7318 32132 179.254
87.8483 32476 180.211
87.9647 32593 180.535
88.081 33042 181.775
88.1973 33134 182.027
88.3136 33488 182.997
88.4298 33571 183.224
88.546 33631 183.388
88.6621 33763 183.747
88.7781 33198 182.203
88.8942 0 1
89.0101 0 1
89.126 0 1
89.2419 0 1
89.3577 0 1
89.4734 0 1
89.5891 0 1
89.7047 0 1
89.8203 0 1
89.9358 0 1
92.3269 0 1
92.4424 0 1
92.558 0 1
92.6736 0 1
92.7893 0 1
92.905 0 1
93.0208 0 1
93.1366 0 1
93.2525 0 1
93.3685 0 1
93.4845 0 1
93.6005 26527 162.871
93.7167 26212 161.901
93.8328 26336 162.284
93.949 25591 159.972
94.0653 25068 158.329
94.1816 25188 158.707
94.2979 24606 156.863
94.4143 24175 155.483
94.5307 23811 154.308
94.6472 23667 153.841
94.7637 23041 151.793
94.8803 22974 151.572
94.9969 22763 150.874
95.1135 22611 150.37
95.2302 22185 148.946
95.3469 21663 147.184
95.4637 20421 142.902
95.5805 18122 134.618
95.6973 17244 131.316
95.8142 18834 137.237
95.9311 19644 140.157
96.048 19941 141.213
96.1649 19364 139.155
96.2819 19260 138.78
96.3989 18354 135.477
96.516 18064 134.402
96.633 17616 132.725
96.7501 17419 131.981
96.8673 16853 129.819
96.9844 16512 128.499
97.1016 16343 127.84
97.2188 16255 127.495
97.336 15573 124.792
97.4532 15704 125.316
97.5704 15398 124.089
97.6877 14922 122.156
97.805 14782 121.581
97.9223 14351 119.796
98.0396 13926 118.008
98.1569 13868 117.762
98.2743 13763 117.316
98.3916 13212 114.943
98.509 13169 114.756
98.6264 12952 113.807
98.7438 12646 112.454
98.8612 12794 113.111
98.9786 12762 112.969
99.096 13149 114.669
99.2134 12651 112.477
99.3308 11853 108.871
99.4482 11797 108.614
99.5656 12054 109.791
99.6831 12099 109.995
99.8005 11759 108.439
99.9179 11400 106.771
100.035 11324 106.414
100.153 11127 105.485
100.27 11341 106.494
100.388 11146 105.575
100.505 11183 105.75
100.622 10827 104.053
100.74 11043 105.086
100.857 11193 105.797
100.975 11492 107.201
101.092 11318 106.386
101.209 11463 107.065
101.327 11096 105.338
101.444 11177 105.721
101.561 11187 105.769
101.679 11332 106.452
101.796 11463 107.065
101.913 11451 107.009
102.03 11192 105.792
102.148 10084 100.419
102.265 9664 98.3056
102.382 8045 89.6939
102.499 9917 99.5841
102.616 11742 108.361
102.733 12582 112.17
102.851 12654 112.49
102.968 12469 111.665
103.085 12241 110.639
103.202 12391 111.315
103.319 12548 112.018
103.436 12450 111.58
103.552 12232 110.598
103.669 12276 110.797
103.786 12148 110.218
103.903 12816 113.208
104.02 12663 112.53
104.137 13062 114.289
104.253 13482 116.112
104.37 13105 114.477
104.487 13823 117.571
104.603 13978 118.229
104.72 14408 120.033
104.836 14055 118.554
104.953 14514 120.474
105.069 14352 119.8
105.186 14653 121.05
105.302 14979 122.389
105.418 14954 122.287
105.535 14034 118.465
105.651 12339 111.081
105.767 9811 99.0505
105.883 9132 95.5615
105.999 11894 109.06
106.115 0 1
106.231 0 1
106.347 0 1
106.463 0 1
106.579 0 1
106.694 0 1
106.81 0 1
106.926 0 1
107.041 0 1
107.157 0 1
109.576 0 1
109.692 0 1
109.807 0 1
109.923 0 1
110.039 0 1
110.155 0 1
110.27 0 1
110.386 0 1
110.502 0 1
110.618 17640 132.816
110.735 15936 126.238
110.851 13851 117.69
110.967 12858 113.393
111.083 14496 120.399
111.199 19058 138.051
111.316 22214 149.044
111.432 23091 151.957
111.549 23508 153.323
111.665 23619 153.685
111.782 23543 153.437
111.898 23348 152.801
112.015 23746 154.097
112.132 23294 152.624
112.248 23314 152.689
112.365 23676 153.87
112.482 23781 154.211
112.599 23403 152.98
112.716 23834 154.383
112.832 24482 156.467
112.949 24692 157.137
113.066 24689 157.127
113.183 25120 158.493
113.3 24928 157.886
113.417 25054 158.285
113.534 25478 159.618
113.652 25894 160.916
113.769 25963 161.13
113.886 25945 161.075
114.003 24737 157.28
114.12 23451 153.137
114.238 21341 146.086
114.355 19031 137.953
114.472 17948 133.97
114.589 15927 126.202
114.707 19527 139.739
114.824 24298 155.878
114.942 27638 166.247
115.059 28512 168.855
115.176 29078 170.523
115.294 29204 170.892
115.411 28850 169.853
115.529 28987 170.256
115.646 29124 170.658
115.764 29313 171.21
115.881 28971 170.209
115.999 29599 172.044
116.116 29404 171.476
116.234 29501 171.759
116.351 30144 173.62
116.469 30207 173.802
116.586 30409 174.382
116.704 30758 175.38
116.821 30722 175.277
116.939 30778 175.437
117.056 30909 175.81
117.174 31407 177.22
117.291 31845 178.452
117.409 31498 177.477
117.526 30856 175.659
117.644 29375 171.391
117.761 27917 167.084
117.879 25497 159.678
117.996 23427 153.059
118.114 22847 151.152
118.231 23136 152.105
118.349 24512 156.563
118.466 28757 169.579
118.584 32035 178.983
118.701 33742 183.69
118.819 34277 185.14
118.936 34222 184.992
119.053 34287 185.167
119.171 34425 185.54
119.288 34343 185.319
119.405 34059 184.551
119.523 34164 184.835
119.64 33859 184.008
119.757 34057 184.545
119.875 34261 185.097
119.992 34513 185.777
120.109 34989 187.053
120.226 35077 187.289
120.343 34833 186.636
120.46 35255 187.763
120.578 35170 187.537
120.695 35363 188.051
120.812 36100 190
120.929 36169 190.181
121.046 35613 188.714
121.163 34926 186.885
121.279 33918 184.168
121.396 32009 178.911
121.513 30411 174.387
121.63 28322 168.291
121.747 27181 164.867
121.863 26522 162.856
121.98 27230 165.015
122.097 28615 169.16
122.213 31988 178.852
122.33 35811 189.238
122.446 37327 193.202
122.563 37351 193.264
122.679 37945 194.795
122.795 37956 194.823
122.912 38024 194.997
123.028 37617 193.951
123.144 37142 192.723
123.26 36952 192.229
123.377 0 1
123.493 0 1
123.609 0 1
123.725 0 1
123.84 0 1
123.956 0 1
124.072 0 1
124.188 0 1
124.303 0 1
124.419 0 1
126.852 0 1
126.968 0 1
127.083 0 1
127.199 0 1
127.315 0 1
127.431 0 1
127.547 0 1
127.663 0 1
127.779 0 1
127.895 0 1
128.011 0 1
128.127 0 1
128.243 0 1
128.359 45076 212.311
128.476 45153 212.492
128.592 45579 213.492
128.708 46343 215.274
128.825 46145 214.814
128.941 46589 215.845
129.058 46606 215.884
129.174 46600 215.87
129.291 46596 215.861
129.408 47018 216.836
129.524 47098 217.021
129.641 47503 217.952
129.758 47549 218.057
129.875 45976 214.42
129.992 45670 213.705
130.108 44452 210.836
130.225 42484 206.116
130.342 40385 200.96
130.459 38190 195.423
130.576 37886 194.643
130.693 37087 192.58
130.81 36667 191.486
130.928 37811 194.451
131.045 39893 199.732
131.162 43163 207.757
131.279 46353 215.297
131.396 48407 220.016
131.513 49708 222.953
131.631 49406 222.275
131.748 49882 223.343
131.865 49554 222.607
131.983 49685 222.901
132.1 49628 222.773
132.217 49927 223.444
132.335 49325 222.092
132.452 49341 222.128
132.57 50240 224.143
132.687 48601 220.456
132.804 51490 226.914
132.922 49989 223.582
133.039 50648 225.051
133.157 49967 223.533
133.274 50000 223.607
133.392 49915 223.417
133.509 49422 222.311
133.627 48017 219.128
133.744 46158 214.844
133.862 43805 209.296
133.979 41977 204.883
134.097 40733 201.824
134.214 40380 200.948
134.332 39925 199.812
134.449 40796 201.98
134.567 42507 206.172
134.684 44948 212.009
134.802 47287 217.456
134.919 49515 222.52
135.037 51536 227.015
135.154 51637 227.238
135.272 51728 227.438
135.389 52494 229.116
135.507 52409 228.93
135.624 52341 228.782
135.742 52402 228.915
135.859 52117 228.291
135.977 52032 228.105
136.094 51998 228.031
136.211 52058 228.162
136.329 52236 228.552
136.446 52270 228.626
136.564 52572 229.286
136.681 52297 228.685
136.798 52817 229.819
136.915 52051 228.147
137.033 51521 226.982
137.15 50844 225.486
137.267 48802 220.912
137.384 47530 218.014
137.502 45711 213.801
137.619 43973 209.697
137.736 42720 206.688
137.853 42038 205.032
137.97 43076 207.548
138.087 42488 206.126
138.204 44265 210.392
138.321 47293 217.47
138.438 49660 222.845
138.555 52371 228.847
138.672 53022 230.265
138.788 54489 233.429
138.905 55377 235.323
139.022 55514 235.614
139.139 55655 235.913
139.255 55814 236.25
139.372 55770 236.157
139.488 55630 235.86
139.605 55347 235.259
139.721 55624 235.847
139.838 55456 235.491
139.954 55808 236.237
140.071 55039 234.604
140.187 55422 235.419
140.303 54630 233.731
140.419 54763 234.015
140.535 54166 232.736
140.652 53180 230.608
140.768 0 1
140.884 0 1
141 0 1
141.115 0 1
141.231 0 1
141.347 0 1
141.463 0 1
141.578 0 1
141.694 0 1
144.104 0 1
144.219 0 1
144.335 0 1
144.45 0 1
144.566 0 1
144.682 0 1
144.798 0 1
144.914 0 1
145.03 0 1
145.146 48598 220.45
145.262 49781 223.117
145.378 49384 222.225
145.494 49094 221.572
145.61 48729 220.746
145.726 47999 219.087
145.842 47099 217.023
145.959 45144 212.471
146.075 43685 209.01
146.192 42069 205.107
146.308 41241 203.079
146.425 40433 201.08
146.541 40523 201.303
146.658 41050 202.608
146.774 42116 205.222
146.891 43275 208.026
147.008 44778 211.608
147.125 47222 217.306
147.241 48202 219.55
147.358 48281 219.729
147.475 49144 221.684
147.592 49932 223.455
147.709 49855 223.282
147.826 50591 224.924
147.943 50896 225.601
148.06 50117 223.868
148.177 50333 224.35
148.294 50068 223.759
148.411 50234 224.129
148.528 50383 224.462
148.645 49539 222.574
148.762 49829 223.224
148.88 49949 223.493
148.997 48539 220.316
149.114 50434 224.575
149.231 48989 221.335
149.349 48471 220.161
149.466 45807 214.026
149.583 45588 213.513
149.701 43591 208.785
149.818 42557 206.293
149.935 40890 202.213
150.053 40688 201.713
150.17 40548 201.365
150.287 41085 202.694
150.405 42052 205.066
150.522 42903 207.13
150.64 44631 211.261
150.757 46068 214.635
150.875 47293 217.47
150.992 47393 217.699
151.11 47323 217.539
151.227 49033 221.434
151.344 49408 222.279
151.462 49481 222.443
151.579 50275 224.221
151.697 49992 223.589
151.814 50033 223.681
151.932 49835 223.238
152.049 49709 222.955
152.167 49837 223.242
152.284 49749 223.045
152.402 49326 222.095
152.519 49509 222.506
152.636 49724 222.989
152.754 49603 222.717
152.871 48428 220.064
152.989 47465 217.865
153.106 45891 214.222
153.223 44713 211.454
153.341 43633 208.885
153.458 41810 204.475
153.575 41279 203.172
153.693 40554 201.38
153.81 40851 202.116
153.927 41411 203.497
154.044 42460 206.058
154.162 43517 208.607
154.279 45270 212.767
154.396 47252 217.375
154.513 48784 220.871
154.63 48535 220.307
154.747 48949 221.244
154.864 49053 221.479
154.981 49448 222.369
155.098 49610 222.733
155.215 50089 223.806
155.332 50360 224.41
155.449 50029 223.672
155.566 49975 223.551
155.683 50190 224.031
155.8 49830 223.226
155.917 50082 223.79
156.033 50164 223.973
156.15 0 1
156.267 0 1
156.383 0 1
156.5 0 1
156.617 0 1
156.733 0 1
156.85 0 1
156.966 0 1
157.082 0 1
157.199 0 1
157.315 0 1
157.431 0 1
157.547 0 1
157.664 0 1
157.78 0 1
157.896 0 1
158.012 0 1
158.128 0 1
158.244 0 1
158.359 0 1
158.475 0 1
158.591 0 1
158.706 0 1
