
6.15755 0 1
6.2731 0 1
6.3887 0 1
6.50437 0 1
6.62009 0 1
6.73587 0 1
6.8517 0 1
6.96759 0 1
7.08353 0 1
7.19952 0 1
7.31557 0 1
7.43166 0 1
7.54781 0 1
7.664 0 1
7.78024 0 1
7.89653 0 1
8.01286 0 1
8.12924 0 1
8.24567 0 1
8.36213 0 1
8.47864 0 1
8.59519 0 1
8.71178 0 1
8.82841 0 1
8.94508 0 1
9.06179 0 1
9.17853 0 1
9.29531 0 1
9.41212 0 1
9.52897 0 1
9.64584 0 1
9.76276 0 1
9.8797 0 1
9.99667 0 1
10.1137 0 1
10.2307 0 1
10.3478 0 1
10.4648 0 1
10.5819 0 1
10.6991 0 1
10.8162 0 1
10.9334 0 1
11.0506 0 1
11.1678 0 1
11.285 0 1
11.4023 0 1
11.5196 0 1
11.6369 0 1
11.7542 0 1
11.8715 0 1
11.9888 0 1
12.1062 0 1
12.2235 0 1
12.3409 0 1
12.4582 0 1
12.5756 0 1
12.693 0 1
12.8104 0 1
12.9278 0 1
13.0452 0 1
13.1626 0 1
13.28 0 1
13.3974 0 1
13.5149 0 1
13.6323 0 1
13.7497 0 1
13.8671 0 1
13.9845 0 1
14.1019 0 1
14.2193 0 1
14.3367 0 1
14.4541 0 1
14.5714 0 1
14.6888 0 1
14.8062 0 1
14.9235 0 1
15.0408 57111 238.979
15.1581 59713 244.362
15.2755 61004 246.99
15.3927 61056 247.095
15.51 59774 244.487
15.6273 59028 242.957
15.7445 58389 241.638
15.8617 59599 244.129
15.9789 60788 246.552
16.0961 61016 247.014
16.2132 62311 249.622
16.3304 62478 249.956
16.4475 64015 253.012
16.5646 64422 253.815
16.6816 66105 257.109
16.7986 67135 259.104
16.9156 68664 262.038
17.0326 68949 262.581
17.1496 69686 263.981
17.2665 70578 265.665
17.3833 71046 266.545
17.5002 70111 264.785
17.617 70329 265.196
17.7338 69323 263.293
17.8505 68851 262.395
17.9672 68398 261.53
18.0839 67244 259.314
18.2005 67582 259.965
18.3171 68522 261.767
18.4337 70316 265.172
18.5502 71285 266.993
18.6666 72898 269.996
18.7831 73770 271.606
18.8994 72945 270.083
19.0158 70734 265.959
19.1321 68896 262.48
19.2483 66203 257.299
19.3645 65813 256.54
19.4806 64860 254.676
19.5967 63540 252.071
19.7128 60418 245.801
19.8288 55658 235.919
19.9447 48660 220.59
20.0606 0 1
20.1764 0 1
20.2922 0 1
20.4079 0 1
20.5236 0 1
20.6392 0 1
20.7548 0 1
20.8702 0 1
23.3078 0 1
23.4233 0 1
23.539 0 1
23.6547 0 1
23.7704 0 1
23.8862 0 1
24.0021 0 1
24.118 0 1
24.234 0 1
24.35 0 1
24.4661 36416 190.83
24.5822 43173 207.781
24.6984 49534 222.562
24.8146 56232 237.133
24.9309 61289 247.566
25.0472 66615 258.099
25.1636 71336 267.088
25.28 76371 276.353
25.3965 80877 284.389
25.513 85337 292.125
25.6296 89379 298.963
25.7462 90977 301.624
25.8628 92646 304.378
25.9795 94850 307.977
26.0962 95223 308.582
26.213 95116 308.409
26.3298 94441 307.313
26.4466 93316 305.477
26.5635 92897 304.79
26.6804 92925 304.836
26.7973 93470 305.729
26.9143 94062 306.695
27.0313 96013 309.86
27.1483 98825 314.364
27.2653 101035 317.86
27.3824 102188 319.669
27.4996 103006 320.945
27.6167 101508 318.603
27.7339 99268 315.068
27.8511 96656 310.895
27.9683 95059 308.316
28.0855 95854 309.603
28.2028 96488 310.625
28.3201 96759 311.061
28.4374 95659 309.288
28.5547 94579 307.537
28.6721 93320 305.483
28.7894 93048 305.038
28.9068 93282 305.421
29.0242 94423 307.283
29.1416 95224 308.584
29.259 96990 311.432
29.3764 96960 311.384
29.4939 98061 313.147
29.6113 98700 314.166
29.7288 98368 313.637
29.8463 97569 312.36
29.9638 97842 312.797
30.0812 98850 314.404
30.1987 98956 314.573
30.3162 99548 315.512
30.4337 101265 318.222
30.5512 104365 323.056
30.6687 105813 325.289
30.7862 107673 328.136
30.9037 109947 331.583
31.0212 111356 333.7
31.1387 109806 331.37
31.2562 107793 328.318
31.3737 105622 324.995
31.4912 104806 323.738
31.6087 104546 323.336
31.7262 106084 325.705
31.8436 105884 325.398
31.9611 105307 324.51
32.0785 103337 321.461
32.1959 101358 318.368
32.3134 100447 316.934
32.4308 101161 318.058
32.5482 103076 321.055
32.6655 103560 321.807
32.7829 103875 322.296
32.9002 105463 324.751
33.0176 107365 327.666
33.1349 107440 327.78
33.2522 108387 329.222
33.3694 107039 327.168
33.4867 108964 330.097
33.6039 109267 330.556
33.7211 109633 331.109
33.8383 110765 332.814
33.9554 111124 333.353
34.0725 113322 336.633
34.1896 115242 339.473
34.3067 118305 343.955
34.4237 120511 347.147
34.5407 123185 350.977
34.6577 124651 353.059
34.7746 125020 353.582
34.8915 123094 350.848
35.0084 121980 349.256
35.1252 119017 344.988
35.242 119200 345.254
35.3587 120355 346.922
35.4755 122057 349.367
35.5921 121556 348.649
35.7088 118700 344.529
35.8254 115621 340.031
35.9419 112175 334.925
36.0584 107397 327.715
36.1749 104870 323.836
36.2913 102658 320.403
36.4077 101410 318.449
36.524 100413 316.88
36.6403 98993 314.632
36.7565 98151 313.291
36.8727 96363 310.424
36.9889 93884 306.405
37.1049 88135 296.875
37.221 0 1
37.3369 0 1
37.4529 0 1
37.5687 0 1
37.6845 0 1
37.8003 0 1
37.916 0 1
38.0316 0 1
38.1472 0 1
40.5851 0 1
40.7008 0 1
40.8164 0 1
40.9322 0 1
41.048 0 1
41.1639 0 1
41.2798 0 1
41.3958 0 1
41.5118 0 1
41.6279 0 1
41.744 66465 257.808
41.8602 74863 273.611
41.9765 83050 288.184
42.0928 90885 301.471
42.2091 100803 317.495
42.3255 108779 329.817
42.4419 118270 343.904
42.5584 125147 353.761
42.675 129882 360.391
42.7915 134093 366.187
42.9081 142555 377.565
43.0248 151217 388.866
43.1415 160012 400.015
43.2582 166140 407.603
43.375 171396 414
43.4918 173808 416.903
43.6087 174089 417.24
43.7256 175325 418.718
43.8425 172866 415.772
43.9595 169557 411.773
44.0765 169033 411.136
44.1935 170815 413.298
44.3106 174757 418.039
44.4277 175448 418.865
44.5448 169933 412.229
44.6619 162902 403.611
44.7791 155040 393.751
44.8963 145875 381.936
45.0136 142413 377.376
45.1308 141220 375.792
45.2481 140894 375.358
45.3654 144403 380.004
45.4827 146676 382.983
45.6001 154301 392.812
45.7174 163074 403.824
45.8348 170804 413.284
45.9522 176145 419.696
46.0697 181310 425.805
46.1871 182835 427.592
46.3046 184078 429.043
46.422 185558 430.764
46.5395 188887 434.611
46.657 195523 442.18
46.7745 200222 447.462
46.892 205120 452.902
47.0096 207354 455.361
47.1271 210165 458.438
47.2446 210642 458.958
47.3622 208952 457.113
47.4797 205478 453.297
47.5973 199663 446.837
47.7149 198244 445.246
47.8324 202372 449.858
47.95 205245 453.04
48.0675 198092 445.075
48.1851 193409 439.783
48.3027 179626 423.823
48.4202 164258 405.288
48.5378 150609 388.084
48.6554 145942 382.024
48.7729 144984 380.768
48.8904 145072 380.883
49.008 147531 384.098
49.1255 155276 394.051
49.243 167921 409.782
49.3605 178894 422.959
49.478 186762 432.16
49.5955 190716 436.71
49.713 190925 436.95
49.8304 190309 436.244
49.9479 190305 436.24
50.0653 192608 438.871
50.1827 197257 444.136
50.3001 201264 448.625
50.4175 204295 451.99
50.5348 207604 455.636
50.6521 208268 456.364
50.7694 207410 455.423
50.8867 204536 452.257
51.004 200321 447.572
51.1212 195443 442.089
51.2384 192934 439.243
51.3556 195510 442.165
51.4727 196965 443.807
51.5899 193495 439.881
51.707 185405 430.587
51.824 173807 416.902
51.9411 157271 396.574
52.0581 142505 377.498
52.175 134942 367.345
52.2919 132117 363.479
52.4088 131028 361.978
52.5257 133649 365.58
52.6425 139008 372.838
52.7593 145830 381.877
52.876 152353 390.324
52.9927 156421 395.501
53.1094 156975 396.201
53.226 157556 396.933
53.3426 153822 392.201
53.4591 148056 384.78
53.5756 141427 376.068
53.692 136609 369.607
53.8084 132034 363.365
53.9248 128405 358.336
54.0411 121940 349.199
54.1573 115154 339.343
54.2735 0 1
54.3896 0 1
54.5057 0 1
54.6217 0 1
54.7377 0 1
54.8537 0 1
54.9695 0 1
55.0853 0 1
55.2011 0 1
55.3168 0 1
55.4324 0 1
57.824 0 1
57.9396 0 1
58.0553 0 1
58.1711 0 1
58.2869 0 1
58.4028 0 1
58.5187 0 1
58.6347 0 1
58.7508 0 1
58.8669 0 1
58.983 105264 324.444
59.0992 120626 347.313
59.2155 130039 360.609
59.3318 138749 372.49
59.4482 145748 381.77
59.5646 150610 388.085
59.681 153844 392.23
59.7975 156207 395.23
59.9141 158760 398.447
60.0306 161848 402.303
60.1473 165821 407.211
60.2639 167627 409.423
60.3807 165478 406.79
60.4974 156990 396.22
60.6142 144862 380.607
60.731 128975 359.131
60.8479 116322 341.06
60.9648 108780 329.818
61.0818 105451 324.732
61.1987 107098 327.258
61.3158 114840 338.881
61.4328 126143 355.166
61.5499 140213 374.45
61.667 152438 390.433
61.7841 159708 399.635
61.9013 162292 402.855
62.0185 163111 403.87
62.1357 160814 401.016
62.253 158727 398.406
62.3702 160031 400.039
62.4875 161881 402.344
62.6049 163869 404.807
62.7222 165554 406.883
62.8396 166579 408.141
62.9569 167115 408.797
63.0743 166172 407.642
63.1918 163454 404.294
63.3092 158615 398.265
63.4267 156298 395.345
63.5441 155999 394.967
63.6616 156835 396.024
63.7791 156416 395.495
63.8966 153377 391.634
64.0142 144215 379.757
64.1317 132094 363.447
64.2492 116211 340.897
64.3668 101728 318.948
64.4843 93770 306.219
64.6019 90515 300.857
64.7195 89920 299.867
64.837 95205 308.553
64.9546 105817 325.295
65.0722 119697 345.973
65.1898 131431 362.534
65.3074 141591 376.286
65.4249 143752 379.146
65.5425 145255 381.123
65.6601 144341 379.922
65.7777 142597 377.62
65.8952 140079 374.271
66.0128 141703 376.435
66.1304 143819 379.235
66.2479 146674 382.98
66.3655 147612 384.203
66.483 148850 385.811
66.6005 148361 385.177
66.718 147650 384.253
66.8355 144952 380.726
66.953 141329 375.937
67.0705 138680 372.398
67.1879 137610 370.958
67.3054 139720 373.791
67.4228 140028 374.203
67.5402 136280 369.161
67.6576 128607 358.618
67.7749 118211 343.818
67.8923 102255 319.773
68.0096 89317 298.859
68.1269 82138 286.597
68.2442 78551 280.27
68.3614 78150 279.553
68.4787 82065 286.47
68.5958 91870 303.101
68.713 105683 325.089
68.8302 118966 344.914
68.9473 129026 359.202
69.0643 133301 365.104
69.1814 134057 366.138
69.2984 132177 363.562
69.4154 125398 354.116
69.5323 120607 347.285
69.6492 118053 343.588
69.7661 118191 343.789
69.8829 117979 343.481
69.9997 118760 344.616
70.1165 117603 342.933
70.2332 116130 340.779
70.3499 112804 335.863
70.4665 107421 327.751
70.5831 101168 318.069
70.6996 94027 306.638
70.8161 89138 298.56
70.9326 85348 292.144
71.049 82097 286.526
71.1653 77669 278.692
71.2817 71424 267.253
71.3979 63796 252.579
71.5141 54835 234.169
71.6303 42530 206.228
71.7464 29887 172.879
71.8624 0 1
71.9784 0 1
72.0944 0 1
72.2102 0 1
72.3261 0 1
72.4418 0 1
72.5575 0 1
72.6732 0 1
75.1054 0 1
75.2209 0 1
75.3365 0 1
75.4521 0 1
75.5678 0 1
75.6835 0 1
75.7993 0 1
75.9151 0 1
76.031 0 1
76.147 79313 281.626
76.263 87090 295.11
76.3791 91104 301.834
76.4952 91003 301.667
76.6113 89687 299.478
76.7276 85936 293.148
76.8438 80898 284.426
76.9601 72591 269.427
77.0765 67520 259.846
77.1929 65267 255.474
77.3093 64230 253.436
77.4258 66265 257.42
77.5423 74078 272.173
77.6589 86710 294.466
77.7755 100699 317.331
77.8921 111568 334.018
78.0088 118076 343.622
78.1256 119700 345.977
78.2423 119019 344.991
78.3591 115618 340.026
78.4759 112506 335.419
78.5928 109964 331.608
78.7097 111133 333.366
78.8266 111110 333.332
78.9436 118285 343.926
79.0606 117727 343.114
79.1776 117814 343.24
79.2946 119315 345.42
79.4117 119715 345.999
79.5288 117965 343.46
79.6459 116867 341.858
79.7631 113409 336.763
79.8802 113240 336.512
79.9974 116437 341.229
80.1147 117795 343.213
80.2319 113505 336.905
80.3491 106583 326.471
80.4664 98864 314.426
80.5837 87064 295.066
80.701 75375 274.545
80.8183 68802 262.301
80.9357 66624 258.116
81.053 65910 256.729
81.1704 70413 265.354
81.2877 80979 284.568
81.4051 94684 307.708
81.5225 109981 331.634
81.6399 115469 339.807
81.7573 121245 348.203
81.8747 119385 345.521
81.9922 119055 345.043
82.1096 115214 339.432
82.227 111870 334.47
82.3444 109676 331.174
82.4619 113021 336.186
82.5793 114823 338.855
82.6967 118030 343.555
82.8142 118186 343.782
82.9316 119592 345.821
83.049 120052 346.485
83.1664 117875 343.329
83.2838 117783 343.195
83.4012 115618 340.026
83.5186 113528 336.939
83.636 114581 338.498
83.7534 113810 337.357
83.8708 109683 331.184
83.9881 103806 322.189
84.1055 97228 311.814
84.2228 90439 300.731
84.3401 80407 283.561
84.4575 72185 268.673
84.5747 68670 262.05
84.692 69374 263.389
84.8093 76418 276.438
84.9265 89471 299.117
85.0437 103086 321.07
85.1609 113518 336.924
85.2781 123741 351.768
85.3952 127625 357.246
85.5123 128653 358.682
85.6294 125918 354.849
85.7465 123087 350.838
85.8636 121157 348.076
85.9806 122641 350.201
86.0976 125725 354.577
86.2145 127302 356.794
86.3315 132488 363.989
86.4484 127969 357.728
86.5652 128999 359.164
86.682 126166 355.199
86.7988 122281 349.687
86.9156 118971 344.922
87.0323 115042 339.178
87.149 110588 332.548
87.2657 109070 330.257
87.3823 108329 329.134
87.4988 103336 321.459
87.6154 97128 311.654
87.7318 89636 299.393
87.8483 81101 284.782
87.9647 69908 264.401
88.081 61665 248.324
88.1973 56676 238.067
88.3136 54391 233.219
88.4298 57231 239.23
88.546 64518 254.004
88.6621 71347 267.109
88.7781 78327 279.87
88.8942 0 1
89.0101 0 1
89.126 0 1
89.2419 0 1
89.3577 0 1
89.4734 0 1
89.5891 0 1
89.7047 0 1
89.8203 0 1
89.9358 0 1
92.3269 0 1
92.4424 0 1
92.558 0 1
92.6736 0 1
92.7893 0 1
92.905 0 1
93.0208 0 1
93.1366 0 1
93.2525 0 1
93.3685 0 1
93.4845 0 1
93.6005 78794 280.703
93.7167 84929 291.426
93.8328 96301 310.324
93.949 112201 334.964
94.0653 129967 360.509
94.1816 146266 382.447
94.2979 160763 400.953
94.4143 173462 416.488
94.5307 183574 428.455
94.6472 191940 438.11
94.7637 197418 444.317
94.8803 196909 443.744
94.9969 195405 442.046
95.1135 192552 438.807
95.2302 196138 442.875
95.3469 199034 446.132
95.4637 201310 448.676
95.5805 201188 448.54
95.6973 197942 444.907
95.8142 194259 440.748
95.9311 191229 437.297
96.048 188500 434.166
96.1649 182423 427.11
96.2819 178536 422.535
96.3989 176135 419.684
96.516 173013 415.948
96.633 165384 406.674
96.7501 154024 392.459
96.8673 142789 377.874
96.9844 132974 364.656
97.1016 125326 354.014
97.2188 118329 343.99
97.336 115602 340.003
97.4532 120214 346.719
97.5704 132786 364.398
97.6877 151289 388.959
97.805 171199 413.762
97.9223 193429 439.806
98.0396 214143 462.756
98.1569 228348 477.858
98.2743 237154 486.985
98.3916 242467 492.409
98.509 244857 494.83
98.6264 239714 489.606
98.7438 236953 486.778
98.8612 235307 485.085
98.9786 236814 486.635
99.096 237964 487.816
99.2134 234928 484.694
99.3308 228772 478.301
99.4482 221358 470.487
99.5656 213998 462.599
99.6831 205680 453.52
99.8005 201934 449.371
99.9179 197730 444.668
100.035 196920 443.757
100.153 192828 439.122
100.27 178869 422.929
100.388 159744 399.68
100.505 142709 377.768
100.622 131214 362.235
100.74 124464 352.795
100.857 121790 348.984
100.975 122308 349.726
101.092 129367 359.676
101.209 145478 381.416
101.327 170251 412.615
101.444 195238 441.857
101.561 217790 466.68
101.679 233698 483.423
101.796 243528 493.486
101.913 246439 496.426
102.03 244416 494.384
102.148 239552 489.44
102.265 234965 484.732
102.382 224908 474.245
102.499 224834 474.167
102.616 223694 472.963
102.733 222153 471.331
102.851 218245 467.167
102.968 214739 463.399
103.085 209358 457.557
103.202 203816 451.46
103.319 199115 446.223
103.436 195216 441.833
103.552 194992 441.579
103.669 192410 438.646
103.786 184203 429.189
103.903 169043 411.148
104.02 149349 386.457
104.137 133062 364.777
104.253 121293 348.271
104.37 111645 334.133
104.487 111302 333.62
104.603 113116 336.327
104.72 121123 348.027
104.836 133240 365.021
104.953 144341 379.922
105.069 150979 388.56
105.186 152985 391.133
105.302 151320 388.999
105.418 144505 380.138
105.535 135879 368.618
105.651 124865 353.362
105.767 114431 338.277
105.883 103424 321.596
105.999 94150 306.839
106.115 0 1
106.231 0 1
106.347 0 1
106.463 0 1
106.579 0 1
106.694 0 1
106.81 0 1
106.926 0 1
107.041 0 1
107.157 0 1
109.576 0 1
109.692 0 1
109.807 0 1
109.923 0 1
110.039 0 1
110.155 0 1
110.27 0 1
110.386 0 1
110.502 0 1
110.618 111526 333.955
110.735 120296 346.837
110.851 126392 355.517
110.967 135419 367.993
111.083 147008 383.416
111.199 160023 400.029
111.316 170334 412.715
111.432 178275 422.226
111.549 184074 429.038
111.665 186749 432.145
111.782 187650 433.186
111.898 188243 433.87
112.015 185858 431.113
112.132 185448 430.637
112.248 187522 433.038
112.365 187604 433.133
112.482 180573 424.939
112.599 160182 400.227
112.716 141521 376.193
112.832 125419 354.145
112.949 114165 337.883
113.066 110472 332.373
113.183 110837 332.922
113.3 115089 339.248
113.417 126513 355.687
113.534 148661 385.566
113.652 172596 415.447
113.769 186425 431.77
113.886 195679 442.356
114.003 198317 445.328
114.12 198233 445.234
114.238 192372 438.602
114.355 185558 430.764
114.472 181155 425.623
114.589 182813 427.566
114.707 188122 433.73
114.824 192053 438.239
114.942 194646 441.187
115.059 196508 443.292
115.176 196296 443.053
115.294 193061 439.387
115.411 190589 436.565
115.529 187688 433.23
115.646 182849 427.608
115.764 182450 427.142
115.881 183110 427.914
115.999 180903 425.327
116.116 171699 414.366
116.234 154530 393.103
116.351 136589 369.579
116.469 123932 352.04
116.586 114273 338.043
116.704 111041 333.228
116.821 112250 335.037
116.939 117116 342.222
117.056 131601 362.769
117.174 151059 388.663
117.291 170017 412.331
117.409 181612 426.16
117.526 188722 434.421
117.644 189066 434.817
117.761 187686 433.227
117.879 181367 425.872
117.996 175270 418.653
118.114 172932 415.851
118.231 174678 417.945
118.349 181804 426.385
118.466 183926 428.866
118.584 185891 431.151
118.701 186633 432.01
118.819 184305 429.308
118.936 181034 425.481
119.053 179041 423.132
119.171 174527 417.764
119.288 171819 414.511
119.405 170050 412.371
119.523 171052 413.584
119.64 169609 411.836
119.757 163910 404.858
119.875 150740 388.252
119.992 134790 367.138
120.109 122518 350.026
120.226 114314 338.104
120.343 110811 332.883
120.46 109936 331.566
120.578 111403 333.771
120.695 116888 341.889
120.812 131149 362.145
120.929 147253 383.736
121.046 156285 395.329
121.163 160512 400.639
121.279 162768 403.445
121.396 161011 401.262
121.513 156381 395.45
121.63 150630 388.111
121.747 142761 377.837
121.863 141112 375.649
121.98 141456 376.106
122.097 141254 375.838
122.213 138619 372.316
122.33 135014 367.443
122.446 131334 362.4
122.563 123855 351.93
122.679 117539 342.84
122.795 109521 330.94
122.912 102708 320.481
123.028 94521 307.443
123.144 88979 298.293
123.26 81991 286.341
123.377 0 1
123.493 0 1
123.609 0 1
123.725 0 1
123.84 0 1
123.956 0 1
124.072 0 1
124.188 0 1
124.303 0 1
124.419 0 1
126.852 0 1
126.968 0 1
127.083 0 1
127.199 0 1
127.315 0 1
127.431 0 1
127.547 0 1
127.663 0 1
127.779 0 1
127.895 0 1
128.011 0 1
128.127 0 1
128.243 0 1
128.359 162921 403.635
128.476 166000 407.431
128.592 170309 412.685
128.708 173592 416.644
128.825 174057 417.201
128.941 167134 408.82
129.058 155589 394.448
129.174 146232 382.403
129.291 138152 371.688
129.408 133630 365.554
129.524 130760 361.608
129.641 130071 360.654
129.758 132962 364.64
129.875 142954 378.093
129.992 156836 396.025
130.108 168234 410.163
130.225 177460 421.26
130.342 184637 429.694
130.459 183202 428.021
130.576 185554 430.76
130.693 176093 419.634
130.81 173878 416.987
130.928 175974 419.493
131.045 179608 423.802
131.162 183381 428.23
131.279 186146 431.446
131.396 185868 431.124
131.513 185406 430.588
131.631 182661 427.389
131.748 179518 423.696
131.865 175164 418.526
131.983 172013 414.744
132.1 170348 412.732
132.217 170544 412.97
132.335 169819 412.091
132.452 165398 406.692
132.57 157545 396.919
132.687 145465 381.399
132.804 140995 375.493
132.922 133751 365.72
133.039 130730 361.566
133.157 129143 359.365
133.274 127639 357.266
133.392 130908 361.812
133.509 140749 375.165
133.627 150705 388.207
133.744 161027 401.282
133.862 170223 412.581
133.979 173264 416.25
134.097 173983 417.113
134.214 171857 414.556
134.332 167059 408.729
134.449 168235 410.165
134.567 172361 415.164
134.684 175486 418.91
134.802 179341 423.487
134.919 180795 425.2
135.037 180185 424.482
135.154 178526 422.523
135.272 175375 418.778
135.389 173422 416.44
135.507 169361 411.535
135.624 167708 409.522
135.742 166948 408.593
135.859 167449 409.205
135.977 166134 407.595
136.094 161968 402.452
136.211 156917 396.128
136.329 149744 386.968
136.446 144043 379.53
136.564 139746 373.826
136.681 136870 369.959
136.798 134729 367.054
136.915 132518 364.03
137.033 133216 364.988
137.15 137762 371.163
137.267 145408 381.324
137.384 153541 391.843
137.502 159536 399.42
137.619 163490 404.339
137.736 167456 409.214
137.853 159633 399.541
137.97 161663 402.073
138.087 157802 397.243
138.204 162863 403.563
138.321 164788 405.941
138.438 163183 403.959
138.555 162027 402.526
138.672 159255 399.068
138.788 154304 392.815
138.905 148404 385.232
139.022 145052 380.857
139.139 137577 370.914
139.255 130479 361.219
139.372 125151 353.767
139.488 119562 345.777
139.605 115732 340.194
139.721 109610 331.074
139.838 102945 320.85
139.954 93590 305.925
140.071 85064 291.657
140.187 78305 279.83
140.303 71085 266.618
140.419 65178 255.3
140.535 59290 243.495
140.652 54643 233.758
140.768 0 1
140.884 0 1
141 0 1
141.115 0 1
141.231 0 1
141.347 0 1
141.463 0 1
141.578 0 1
141.694 0 1
144.104 0 1
144.219 0 1
144.335 0 1
144.45 0 1
144.566 0 1
144.682 0 1
144.798 0 1
144.914 0 1
145.03 0 1
145.146 108268 329.041
145.262 110200 331.964
145.378 110496 332.409
145.494 110571 332.522
145.61 108845 329.917
145.726 108195 328.93
145.842 107616 328.049
145.959 108875 329.962
146.075 110615 332.588
146.192 114468 338.331
146.308 117535 342.834
146.425 120473 347.092
146.541 121978 349.253
146.658 120517 347.156
146.774 119518 345.714
146.891 120913 347.725
147.008 125794 354.674
147.125 126585 355.788
147.241 129375 359.687
147.358 131503 362.633
147.475 131447 362.556
147.592 130388 361.093
147.709 128426 358.366
147.826 125890 354.81
147.943 125262 353.924
148.06 122825 350.464
148.177 122034 349.334
148.294 123008 350.725
148.411 124417 352.728
148.528 124842 353.33
148.645 125060 353.638
148.762 125250 353.907
148.88 124833 353.317
148.997 125667 354.495
149.114 120668 347.373
149.231 119413 345.562
149.349 118016 343.535
149.466 114228 337.976
149.583 113825 337.38
149.701 112544 335.476
149.818 112713 335.728
149.935 116454 341.254
150.053 118486 344.218
150.17 121787 348.98
150.287 122018 349.311
150.405 120598 347.272
150.522 120596 347.269
150.64 122858 350.511
150.757 126852 356.163
150.875 129578 359.969
150.992 131421 362.52
151.11 132003 363.322
151.227 130678 361.494
151.344 129388 359.705
151.462 128135 357.959
151.579 123618 351.594
151.697 120670 347.376
151.814 120421 347.017
151.932 120174 346.661
152.049 120717 347.444
152.167 121980 349.256
152.284 122734 350.334
152.402 122961 350.658
152.519 122421 349.887
152.636 122195 349.564
152.754 120777 347.53
152.871 118914 344.839
152.989 116501 341.322
153.106 115162 339.355
153.223 111614 334.087
153.341 112126 334.852
153.458 111761 334.307
153.575 113321 336.632
153.693 114732 338.721
153.81 116209 340.894
153.927 116132 340.781
154.044 114200 337.935
154.162 114454 338.311
154.279 117798 343.217
154.396 120596 347.269
154.513 122820 350.457
154.63 125369 354.075
154.747 124779 353.241
154.864 124228 352.46
154.981 120036 346.462
155.098 118003 343.516
155.215 115954 340.52
155.332 114248 338.006
155.449 113117 336.329
155.566 112369 335.215
155.683 112799 335.856
155.8 111689 334.199
155.917 109557 330.994
156.033 108619 329.574
156.15 0 1
156.267 0 1
156.383 0 1
156.5 0 1
156.617 0 1
156.733 0 1
156.85 0 1
156.966 0 1
157.082 0 1
157.199 0 1
157.315 0 1
157.431 0 1
157.547 0 1
157.664 0 1
157.78 0 1
157.896 0 1
158.012 0 1
158.128 0 1
158.244 0 1
158.359 0 1
158.475 0 1
158.591 0 1
158.706 0 1
