
6.15755 0 1
6.2731 0 1
6.3887 0 1
6.50437 0 1
6.62009 0 1
6.73587 0 1
6.8517 0 1
6.96759 0 1
7.08353 0 1
7.19952 0 1
7.31557 0 1
7.43166 0 1
7.54781 0 1
7.664 0 1
7.78024 0 1
7.89653 0 1
8.01286 0 1
8.12924 0 1
8.24567 0 1
8.36213 0 1
8.47864 0 1
8.59519 0 1
8.71178 0 1
8.82841 0 1
8.94508 0 1
9.06179 0 1
9.17853 0 1
9.29531 0 1
9.41212 0 1
9.52897 0 1
9.64584 0 1
9.76276 0 1
9.8797 0 1
9.99667 0 1
10.1137 0 1
10.2307 0 1
10.3478 0 1
10.4648 0 1
10.5819 0 1
10.6991 0 1
10.8162 0 1
10.9334 0 1
11.0506 0 1
11.1678 0 1
11.285 0 1
11.4023 0 1
11.5196 0 1
11.6369 0 1
11.7542 0 1
11.8715 0 1
11.9888 0 1
12.1062 0 1
12.2235 0 1
12.3409 0 1
12.4582 0 1
12.5756 0 1
12.693 0 1
12.8104 0 1
12.9278 0 1
13.0452 0 1
13.1626 0 1
13.28 0 1
13.3974 0 1
13.5149 0 1
13.6323 0 1
13.7497 0 1
13.8671 0 1
13.9845 0 1
14.1019 0 1
14.2193 0 1
14.3367 0 1
14.4541 0 1
14.5714 0 1
14.6888 0 1
14.8062 0 1
14.9235 0 1
15.0408 0 0
15.1581 0 0
15.2755 0 0
15.3927 0 0
15.51 0 0
15.6273 0 0
15.7445 0 0
15.8617 0 0
15.9789 0 0
16.0961 0 0
16.2132 0 0
16.3304 0 0
16.4475 0 0
16.5646 0 0
16.6816 0 0
16.7986 0 0
16.9156 0 0
17.0326 0 0
17.1496 0 0
17.2665 0 0
17.3833 0 0
17.5002 0 0
17.617 0 0
17.7338 0 0
17.8505 0 0
17.9672 0 0
18.0839 0 0
18.2005 0 0
18.3171 0 0
18.4337 0 0
18.5502 0 0
18.6666 0 0
18.7831 0 0
18.8994 0 0
19.0158 0 0
19.1321 0 0
19.2483 0 0
19.3645 0 0
19.4806 0 0
19.5967 0 0
19.7128 0 0
19.8288 0 0
19.9447 0 0
20.0606 0 1
20.1764 0 1
20.2922 0 1
20.4079 0 1
20.5236 0 1
20.6392 0 1
20.7548 0 1
20.8702 0 1
23.3078 0 1
23.4233 0 1
23.539 0 1
23.6547 0 1
23.7704 0 1
23.8862 0 1
24.0021 0 1
24.118 0 1
24.234 0 1
24.35 0 1
24.4661 3650 60.4152
24.5822 3787 61.5386
24.6984 3873 62.2334
24.8146 3965 62.9682
24.9309 3855 62.0886
25.0472 4018 63.3877
25.1636 4009 63.3167
25.28 4039 63.5531
25.3965 4071 63.8044
25.513 4148 64.405
25.6296 4110 64.1093
25.7462 4108 64.0937
25.8628 4029 63.4744
25.9795 3975 63.0476
26.0962 4026 63.4508
26.213 3795 61.6036
26.3298 3621 60.1747
26.4466 3667 60.5558
26.5635 3633 60.2744
26.6804 3659 60.4897
26.7973 3615 60.1249
26.9143 3627 60.2246
27.0313 3414 58.4294
27.1483 3213 56.6833
27.2653 3205 56.6127
27.3824 3159 56.205
27.4996 3404 58.3438
27.6167 3515 59.2874
27.7339 3537 59.4727
27.8511 3707 60.8851
27.9683 3940 62.7694
28.0855 3963 62.9524
28.2028 3926 62.6578
28.3201 3844 62
28.4374 3970 63.0079
28.5547 3862 62.145
28.6721 3974 63.0397
28.7894 3828 61.8708
28.9068 3818 61.79
29.0242 3734 61.1065
29.1416 3705 60.8687
29.259 3794 61.5955
29.3764 3609 60.075
29.4939 3583 59.8582
29.6113 3576 59.7997
29.7288 3599 59.9917
29.8463 3591 59.925
29.9638 3735 61.1146
30.0812 3496 59.127
30.1987 3598 59.9833
30.3162 3678 60.6465
30.4337 3558 59.649
30.5512 3493 59.1016
30.6687 3408 58.3781
30.7862 3166 56.2672
30.9037 3264 57.1314
31.0212 3483 59.0169
31.1387 3863 62.153
31.2562 3779 61.4736
31.3737 3853 62.0725
31.4912 3954 62.8808
31.6087 4042 63.5767
31.7262 4012 63.3404
31.8436 4027 63.4586
31.9611 3841 61.9758
32.0785 3779 61.4736
32.1959 3756 61.2862
32.3134 3684 60.696
32.4308 3610 60.0833
32.5482 3620 60.1664
32.6655 3559 59.6574
32.7829 3393 58.2495
32.9002 3367 58.0259
33.0176 3374 58.0861
33.1349 3438 58.6345
33.2522 3258 57.0789
33.3694 3393 58.2495
33.4867 3510 59.2453
33.6039 3525 59.3717
33.7211 3645 60.3738
33.8383 3607 60.0583
33.9554 3698 60.8112
34.0725 3664 60.531
34.1896 3602 60.0167
34.3067 3630 60.2495
34.4237 3341 57.8014
34.5407 3325 57.6628
34.6577 3371 58.0603
34.7746 3405 58.3524
34.8915 3661 60.5062
35.0084 3531 59.4222
35.1252 3672 60.597
35.242 3693 60.7701
35.3587 3691 60.7536
35.4755 3520 59.3296
35.5921 3620 60.1664
35.7088 3591 59.925
35.8254 3400 58.3095
35.9419 3428 58.5491
36.0584 3588 59.8999
36.1749 3395 58.2666
36.2913 3465 58.8643
36.4077 3324 57.6541
36.524 3273 57.2101
36.6403 3272 57.2014
36.7565 3379 58.1292
36.8727 3396 58.2752
36.9889 3387 58.1979
37.1049 3339 57.7841
37.221 0 1
37.3369 0 1
37.4529 0 1
37.5687 0 1
37.6845 0 1
37.8003 0 1
37.916 0 1
38.0316 0 1
38.1472 0 1
40.5851 0 1
40.7008 0 1
40.8164 0 1
40.9322 0 1
41.048 0 1
41.1639 0 1
41.2798 0 1
41.3958 0 1
41.5118 0 1
41.6279 0 1
41.744 2845 53.3385
41.8602 3053 55.254
41.9765 3075 55.4527
42.0928 3112 55.7853
42.2091 3017 54.9272
42.3255 3025 55
42.4419 2999 54.7631
42.5584 3080 55.4977
42.675 2996 54.7357
42.7915 2955 54.3599
42.9081 2891 53.768
43.0248 2718 52.1344
43.1415 2631 51.2933
43.2582 2397 48.9592
43.375 2406 49.051
43.4918 2521 50.2096
43.6087 2705 52.0096
43.7256 2725 52.2015
43.8425 2739 52.3355
43.9595 2742 52.3641
44.0765 2861 53.4883
44.1935 2756 52.4976
44.3106 2831 53.2071
44.4277 2773 52.6593
44.5448 2726 52.2111
44.6619 2722 52.1728
44.7791 2700 51.9615
44.8963 2805 52.9623
45.0136 2691 51.8748
45.1308 2677 51.7397
45.2481 2761 52.5452
45.3654 2614 51.1273
45.4827 2656 51.5364
45.6001 2598 50.9706
45.7174 2584 50.8331
45.8348 2614 51.1273
45.9522 2464 49.6387
46.0697 2396 48.949
46.1871 2417 49.163
46.3046 2299 47.9479
46.422 2303 47.9896
46.5395 2214 47.0532
46.657 2134 46.1952
46.7745 2040 45.1664
46.892 1771 42.0833
47.0096 1878 43.3359
47.1271 1972 44.4072
47.2446 2001 44.7325
47.3622 2008 44.8107
47.4797 1978 44.4747
47.5973 2010 44.833
47.7149 1976 44.4522
47.8324 2053 45.31
47.95 1983 44.5309
48.0675 1893 43.5086
48.1851 1857 43.0929
48.3027 1899 43.5775
48.4202 1918 43.795
48.5378 2032 45.0777
48.6554 1990 44.6094
48.7729 2005 44.7772
48.8904 2030 45.0555
49.008 2084 45.6508
49.1255 2015 44.8888
49.243 1951 44.1701
49.3605 2075 45.5522
49.478 2126 46.1086
49.5955 2009 44.8219
49.713 2147 46.3357
49.8304 2195 46.8508
49.9479 2220 47.1169
50.0653 2169 46.5725
50.1827 2117 46.0109
50.3001 1892 43.4971
50.4175 1805 42.4853
50.5348 1696 41.1825
50.6521 2041 45.1774
50.7694 2228 47.2017
50.8867 2295 47.9062
51.004 2483 49.8297
51.1212 2508 50.0799
51.2384 2538 50.3786
51.3556 2576 50.7543
51.4727 2680 51.7687
51.5899 2668 51.6527
51.707 2709 52.0481
51.824 2716 52.1153
51.9411 2661 51.5849
52.0581 2817 53.0754
52.175 2896 53.8145
52.2919 2815 53.0566
52.4088 2839 53.2823
52.5257 2845 53.3385
52.6425 2909 53.9351
52.7593 2919 54.0278
52.876 2948 54.2955
52.9927 2978 54.5711
53.1094 2864 53.5164
53.226 2904 53.8888
53.3426 2908 53.9259
53.4591 2951 54.3231
53.5756 2850 53.3854
53.692 2915 53.9907
53.8084 2783 52.7541
53.9248 2584 50.8331
54.0411 2446 49.4571
54.1573 2375 48.734
54.2735 0 1
54.3896 0 1
54.5057 0 1
54.6217 0 1
54.7377 0 1
54.8537 0 1
54.9695 0 1
55.0853 0 1
55.2011 0 1
55.3168 0 1
55.4324 0 1
57.824 0 1
57.9396 0 1
58.0553 0 1
58.1711 0 1
58.2869 0 1
58.4028 0 1
58.5187 0 1
58.6347 0 1
58.7508 0 1
58.8669 0 1
58.983 3107 55.7405
59.0992 3040 55.1362
59.2155 2932 54.1479
59.3318 2837 53.2635
59.4482 3084 55.5338
59.5646 3334 57.7408
59.681 3324 57.6541
59.7975 3450 58.7367
59.9141 3557 59.6406
60.0306 3519 59.3212
60.1473 3550 59.5819
60.2639 3545 59.5399
60.3807 3513 59.2706
60.4974 3535 59.4559
60.6142 3579 59.8247
60.731 3592 59.9333
60.8479 3551 59.5903
60.9648 3715 60.9508
61.0818 3650 60.4152
61.1987 3626 60.2163
61.3158 3609 60.075
61.4328 3674 60.6135
61.5499 3510 59.2453
61.667 3490 59.0762
61.7841 3415 58.438
61.9013 3515 59.2874
62.0185 3455 58.7792
62.1357 3405 58.3524
62.253 3492 59.0931
62.3702 3306 57.4978
62.4875 3062 55.3353
62.6049 2973 54.5252
62.7222 2894 53.7959
62.8396 2932 54.1479
62.9569 3157 56.1872
63.0743 3241 56.9298
63.1918 3339 57.7841
63.3092 3296 57.4108
63.4267 3354 57.9137
63.5441 3350 57.8792
63.6616 3440 58.6515
63.7791 3414 58.4294
63.8966 3556 59.6322
64.0142 3351 57.8878
64.1317 3356 57.931
64.2492 3442 58.6686
64.3668 3407 58.3695
64.4843 3353 57.9051
64.6019 3422 58.4979
64.7195 3545 59.5399
64.837 3461 58.8303
64.9546 3457 58.7963
65.0722 3387 58.1979
65.1898 3427 58.5406
65.3074 3529 59.4054
65.4249 3334 57.7408
65.5425 3498 59.1439
65.6601 3277 57.2451
65.7777 3332 57.7235
65.8952 3241 56.9298
66.0128 3226 56.7979
66.1304 2947 54.2863
66.2479 2605 51.0392
66.3655 2731 52.259
66.483 2912 53.963
66.6005 3005 54.8179
66.718 3231 56.8419
66.8355 3207 56.6304
66.953 3306 57.4978
67.0705 3301 57.4543
67.1879 3371 58.0603
67.3054 3289 57.3498
67.4228 3296 57.4108
67.5402 3376 58.1034
67.6576 3335 57.7495
67.7749 3323 57.6455
67.8923 3417 58.4551
68.0096 3408 58.3781
68.1269 3448 58.7197
68.2442 3496 59.127
68.3614 3328 57.6888
68.4787 3381 58.1464
68.5958 3321 57.6281
68.713 3423 58.5064
68.8302 3357 57.9396
68.9473 3429 58.5577
69.0643 3451 58.7452
69.1814 3369 58.0431
69.2984 3316 57.5847
69.4154 3283 57.2975
69.5323 3198 56.5509
69.6492 3284 57.3062
69.7661 3060 55.3173
69.8829 2792 52.8394
69.9997 2759 52.5262
70.1165 2890 53.7587
70.2332 3138 56.0179
70.3499 2998 54.754
70.4665 3139 56.0268
70.5831 3179 56.3826
70.6996 3203 56.5951
70.8161 3314 57.5674
70.9326 3289 57.3498
71.049 3187 56.4535
71.1653 3322 57.6368
71.2817 3223 56.7715
71.3979 3348 57.8619
71.5141 3279 57.2626
71.6303 3299 57.4369
71.7464 2931 54.1387
71.8624 0 1
71.9784 0 1
72.0944 0 1
72.2102 0 1
72.3261 0 1
72.4418 0 1
72.5575 0 1
72.6732 0 1
75.1054 0 1
75.2209 0 1
75.3365 0 1
75.4521 0 1
75.5678 0 1
75.6835 0 1
75.7993 0 1
75.9151 0 1
76.031 0 1
76.147 2940 54.2218
76.263 3035 55.0908
76.3791 3144 56.0714
76.4952 3223 56.7715
76.6113 3266 57.1489
76.7276 3317 57.5934
76.8438 3164 56.2494
76.9601 3339 57.7841
77.0765 3394 58.258
77.1929 3362 57.9828
77.3093 3302 57.463
77.4258 3384 58.1722
77.5423 3375 58.0948
77.6589 3302 57.463
77.7755 3361 57.9741
77.8921 3352 57.8965
78.0088 3294 57.3934
78.1256 3395 58.2666
78.2423 3337 57.7668
78.3591 3231 56.8419
78.4759 3385 58.1808
78.5928 3245 56.9649
78.7097 3249 57
78.8266 3114 55.8032
78.9436 2526 50.2593
79.0606 2449 49.4874
79.1776 2461 49.6085
79.2946 2825 53.1507
79.4117 2929 54.1202
79.5288 3072 55.4256
79.6459 3197 56.542
79.7631 3301 57.4543
79.8802 3203 56.5951
79.9974 3310 57.5326
80.1147 3309 57.5239
80.2319 3229 56.8243
80.3491 3337 57.7668
80.4664 3355 57.9224
80.5837 3375 58.0948
80.701 3432 58.5833
80.8183 3374 58.0861
80.9357 3386 58.1893
81.053 3422 58.4979
81.1704 3387 58.1979
81.2877 3410 58.3952
81.4051 3376 58.1034
81.5225 3413 58.4209
81.6399 3178 56.3738
81.7573 3266 57.1489
81.8747 3184 56.4269
81.9922 3206 56.6216
82.1096 3349 57.8705
82.227 3272 57.2014
82.3444 3135 55.9911
82.4619 3057 55.2901
82.5793 2720 52.1536
82.6967 2711 52.0673
82.8142 2566 50.6557
82.9316 2743 52.3737
83.049 2913 53.9722
83.1664 2778 52.7067
83.2838 3023 54.9818
83.4012 3025 55
83.5186 3004 54.8088
83.636 3158 56.1961
83.7534 3190 56.4801
83.8708 3200 56.5685
83.9881 3209 56.648
84.1055 3184 56.4269
84.2228 3059 55.3082
84.3401 3233 56.8595
84.4575 3251 57.0175
84.5747 3332 57.7235
84.692 3299 57.4369
84.8093 3233 56.8595
84.9265 3290 57.3585
85.0437 3186 56.4447
85.1609 3274 57.2189
85.2781 3381 58.1464
85.3952 3141 56.0446
85.5123 3213 56.6833
85.6294 3337 57.7668
85.7465 3270 57.1839
85.8636 3232 56.8507
85.9806 3063 55.3444
86.0976 2875 53.619
86.2145 2738 52.3259
86.3315 2637 51.3517
86.4484 2822 53.1225
86.5652 2996 54.7357
86.682 3161 56.2228
86.7988 3143 56.0625
86.9156 3165 56.2583
87.0323 3292 57.376
87.149 3350 57.8792
87.2657 3417 58.4551
87.3823 3409 58.3866
87.4988 3420 58.4808
87.6154 3401 58.3181
87.7318 3425 58.5235
87.8483 3552 59.5987
87.9647 3426 58.532
88.081 3598 59.9833
88.1973 3439 58.643
88.3136 3539 59.4895
88.4298 3453 58.7622
88.546 3405 58.3524
88.6621 3375 58.0948
88.7781 3505 59.203
88.8942 0 1
89.0101 0 1
89.126 0 1
89.2419 0 1
89.3577 0 1
89.4734 0 1
89.5891 0 1
89.7047 0 1
89.8203 0 1
89.9358 0 1
92.3269 0 1
92.4424 0 1
92.558 0 1
92.6736 0 1
92.7893 0 1
92.905 0 1
93.0208 0 1
93.1366 0 1
93.2525 0 1
93.3685 0 1
93.4845 0 1
93.6005 3319 57.6108
93.7167 3545 59.5399
93.8328 3518 59.3127
93.949 3424 58.515
94.0653 3468 58.8897
94.1816 3442 58.6686
94.2979 3399 58.3009
94.4143 3306 57.4978
94.5307 3315 57.576
94.6472 3401 58.3181
94.7637 3320 57.6194
94.8803 3459 58.8133
94.9969 3416 58.4466
95.1135 3424 58.515
95.2302 3162 56.2317
95.3469 2970 54.4977
95.4637 2883 53.6936
95.5805 2889 53.7494
95.6973 2782 52.7447
95.8142 3147 56.0981
95.9311 3158 56.1961
96.048 3314 57.5674
96.1649 3373 58.0775
96.2819 3585 59.8749
96.3989 3597 59.975
96.516 3558 59.649
96.633 3626 60.2163
96.7501 3681 60.6712
96.8673 3769 61.3922
96.9844 3661 60.5062
97.1016 3774 61.4329
97.2188 3669 60.5723
97.336 3761 61.327
97.4532 3766 61.3677
97.5704 3782 61.498
97.6877 3740 61.1555
97.805 3751 61.2454
97.9223 3731 61.0819
98.0396 3706 60.8769
98.1569 3677 60.6383
98.2743 3636 60.2993
98.3916 3753 61.2617
98.509 3612 60.0999
98.6264 3570 59.7495
98.7438 3572 59.7662
98.8612 3585 59.8749
98.9786 3372 58.0689
99.096 3186 56.4447
99.2134 3130 55.9464
99.3308 3000 54.7723
99.4482 3311 57.5413
99.5656 3524 59.3633
99.6831 3515 59.2874
99.8005 3530 59.4138
99.9179 3547 59.5567
100.035 3741 61.1637
100.153 3734 61.1065
100.27 3699 60.8194
100.388 3746 61.2046
100.505 3669 60.5723
100.622 3782 61.498
100.74 3817 61.7819
100.857 3880 62.2896
100.975 3780 61.4817
101.092 3824 61.8385
101.209 3953 62.8729
101.327 3966 62.9762
101.444 3873 62.2334
101.561 3770 61.4003
101.679 3811 61.7333
101.796 3788 61.5467
101.913 3819 61.7981
102.03 3793 61.5873
102.148 3821 61.8142
102.265 3853 62.0725
102.382 3473 58.9322
102.499 3599 59.9917
102.616 3476 58.9576
102.733 3219 56.7362
102.851 3233 56.8595
102.968 3443 58.6771
103.085 3594 59.95
103.202 3449 58.7282
103.319 3687 60.7207
103.436 3657 60.4731
103.552 3759 61.3107
103.669 3815 61.7657
103.786 3908 62.514
103.903 3789 61.5549
104.02 3905 62.49
104.137 3925 62.6498
104.253 4018 63.3877
104.37 3912 62.546
104.487 3986 63.1348
104.603 4059 63.7103
104.72 4129 64.2573
104.836 4044 63.5925
104.953 4013 63.3482
105.069 3975 63.0476
105.186 4019 63.3956
105.302 3914 62.562
105.418 3950 62.849
105.535 3872 62.2254
105.651 3968 62.9921
105.767 3852 62.0645
105.883 3771 61.4085
105.999 3635 60.291
106.115 0 1
106.231 0 1
106.347 0 1
106.463 0 1
106.579 0 1
106.694 0 1
106.81 0 1
106.926 0 1
107.041 0 1
107.157 0 1
109.576 0 1
109.692 0 1
109.807 0 1
109.923 0 1
110.039 0 1
110.155 0 1
110.27 0 1
110.386 0 1
110.502 0 1
110.618 3731 61.0819
110.735 3747 61.2127
110.851 3706 60.8769
110.967 3559 59.6574
111.083 3654 60.4483
111.199 3332 57.7235
111.316 3245 56.9649
111.432 3360 57.9655
111.549 3437 58.6259
111.665 3304 57.4804
111.782 3482 59.0085
111.898 3565 59.7076
112.015 3676 60.63
112.132 3601 60.0083
112.248 3660 60.4979
112.365 3815 61.7657
112.482 3705 60.8687
112.599 3645 60.3738
112.716 3758 61.3025
112.832 3825 61.8466
112.949 3789 61.5549
113.066 3657 60.4731
113.183 3817 61.7819
113.3 3774 61.4329
113.417 3604 60.0333
113.534 3627 60.2246
113.652 3552 59.5987
113.769 3505 59.203
113.886 3649 60.407
114.003 3499 59.1523
114.12 3599 59.9917
114.238 3508 59.2284
114.355 3473 58.9322
114.472 3573 59.7746
114.589 3268 57.1664
114.707 3204 56.6039
114.824 2961 54.4151
114.942 2984 54.626
115.059 3113 55.7943
115.176 3120 55.857
115.294 3126 55.9106
115.411 3200 56.5685
115.529 3308 57.5152
115.646 3377 58.112
115.764 3442 58.6686
115.881 3420 58.4808
115.999 3388 58.2065
116.116 3468 58.8897
116.234 3575 59.7913
116.351 3689 60.7371
116.469 3623 60.1914
116.586 3511 59.2537
116.704 3534 59.4475
116.821 3631 60.2578
116.939 3553 59.607
117.056 3570 59.7495
117.174 3568 59.7327
117.291 3545 59.5399
117.409 3442 58.6686
117.526 3445 58.6941
117.644 3563 59.6909
117.761 3525 59.3717
117.879 3403 58.3352
117.996 3446 58.7026
118.114 3407 58.3695
118.231 3417 58.4551
118.349 3154 56.1605
118.466 3071 55.4166
118.584 3022 54.9727
118.701 3038 55.1181
118.819 3214 56.6922
118.936 3205 56.6127
119.053 3332 57.7235
119.171 3336 57.7581
119.288 3313 57.5587
119.405 3438 58.6345
119.523 3477 58.9661
119.64 3577 59.808
119.757 3499 59.1523
119.875 3437 58.6259
119.992 3617 60.1415
120.109 3541 59.5063
120.226 3523 59.3549
120.343 3521 59.338
120.46 3685 60.7042
120.578 3599 59.9917
120.695 3625 60.208
120.812 3496 59.127
120.929 3488 59.0593
121.046 3454 58.7707
121.163 3490 59.0762
121.279 3463 58.8473
121.396 3495 59.1185
121.513 3507 59.2199
121.63 3474 58.9406
121.747 3531 59.4222
121.863 3336 57.7581
121.98 3233 56.8595
122.097 3045 55.1815
122.213 2988 54.6626
122.33 3006 54.827
122.446 3041 55.1453
122.563 2924 54.074
122.679 3080 55.4977
122.795 3220 56.745
122.912 3187 56.4535
123.028 3263 57.1227
123.144 3373 58.0775
123.26 3385 58.1808
123.377 0 1
123.493 0 1
123.609 0 1
123.725 0 1
123.84 0 1
123.956 0 1
124.072 0 1
124.188 0 1
124.303 0 1
124.419 0 1
126.852 0 1
126.968 0 1
127.083 0 1
127.199 0 1
127.315 0 1
127.431 0 1
127.547 0 1
127.663 0 1
127.779 0 1
127.895 0 1
128.011 0 1
128.127 0 1
128.243 0 1
128.359 3751 61.2454
128.476 3818 61.79
128.592 3821 61.8142
128.708 3737 61.131
128.825 3906 62.498
128.941 3784 61.5142
129.058 3934 62.7216
129.174 3975 63.0476
129.291 4104 64.0625
129.408 3968 62.9921
129.524 4003 63.2693
129.641 4177 64.6297
129.758 4030 63.4823
129.875 3943 62.7933
129.992 3956 62.8967
130.108 3995 63.206
130.225 3816 61.7738
130.342 3983 63.111
130.459 3795 61.6036
130.576 3985 63.1269
130.693 3836 61.9355
130.81 3831 61.8951
130.928 3610 60.0833
131.045 3441 58.66
131.162 3285 57.3149
131.279 3388 58.2065
131.396 3596 59.9667
131.513 3497 59.1354
131.631 3627 60.2246
131.748 3730 61.0737
131.865 3807 61.7009
131.983 3699 60.8194
132.1 3824 61.8385
132.217 3938 62.7535
132.335 3950 62.849
132.452 3952 62.8649
132.57 3929 62.6817
132.687 3743 61.1801
132.804 3973 63.0317
132.922 3976 63.0555
133.039 3893 62.3939
133.157 3892 62.3859
133.274 3921 62.6179
133.392 3916 62.578
133.509 3967 62.9841
133.627 3876 62.2575
133.744 3995 63.206
133.862 3901 62.458
133.979 3852 62.0645
134.097 3825 61.8466
134.214 3846 62.0161
134.332 3810 61.7252
134.449 3741 61.1637
134.567 3536 59.4643
134.684 3303 57.4717
134.802 3488 59.0593
134.919 3400 58.3095
135.037 3502 59.1777
135.154 3662 60.5145
135.272 3761 61.327
135.389 3918 62.5939
135.507 3797 61.6198
135.624 3942 62.7853
135.742 4037 63.5374
135.859 3958 62.9126
135.977 3994 63.1981
136.094 4010 63.3246
136.211 4100 64.0312
136.329 4064 63.7495
136.446 3987 63.1427
136.564 4016 63.3719
136.681 4142 64.3584
136.798 4033 63.5059
136.915 4045 63.6003
137.033 4076 63.8436
137.15 3977 63.0635
137.267 3865 62.1691
137.384 3877 62.2656
137.502 3918 62.5939
137.619 3907 62.506
137.736 3920 62.6099
137.853 3787 61.5386
137.97 3860 62.1289
138.087 3892 62.3859
138.204 3672 60.597
138.321 3519 59.3212
138.438 3394 58.258
138.555 3499 59.1523
138.672 3651 60.4235
138.788 3629 60.2412
138.905 3746 61.2046
139.022 3844 62
139.139 4002 63.2614
139.255 4119 64.1794
139.372 3905 62.49
139.488 3937 62.7455
139.605 3899 62.442
139.721 3810 61.7252
139.838 3825 61.8466
139.954 3903 62.474
140.071 3845 62.0081
140.187 3937 62.7455
140.303 3921 62.6179
140.419 3999 63.2376
140.535 4028 63.4665
140.652 3982 63.1031
140.768 0 1
140.884 0 1
141 0 1
141.115 0 1
141.231 0 1
141.347 0 1
141.463 0 1
141.578 0 1
141.694 0 1
144.104 0 1
144.219 0 1
144.335 0 1
144.45 0 1
144.566 0 1
144.682 0 1
144.798 0 1
144.914 0 1
145.03 0 1
145.146 3274 57.2189
145.262 3185 56.4358
145.378 3223 56.7715
145.494 3267 57.1577
145.61 3239 56.9122
145.726 3286 57.3236
145.842 3329 57.6975
145.959 3507 59.2199
146.075 3450 58.7367
146.192 3535 59.4559
146.308 3662 60.5145
146.425 3747 61.2127
146.541 3790 61.563
146.658 3781 61.4898
146.774 3776 61.4492
146.891 3449 58.7282
147.008 3492 59.0931
147.125 3392 58.2409
147.241 3314 57.5674
147.358 3244 56.9561
147.475 3264 57.1314
147.592 3344 57.8273
147.709 3388 58.2065
147.826 3336 57.7581
147.943 3396 58.2752
148.06 3252 57.0263
148.177 3233 56.8595
148.294 3144 56.0714
148.411 3173 56.3294
148.528 3210 56.6569
148.645 3170 56.3028
148.762 3165 56.2583
148.88 3193 56.5066
148.997 3099 55.6687
149.114 3348 57.8619
149.231 3261 57.1052
149.349 3262 57.1139
149.466 3314 57.5674
149.583 3304 57.4804
149.701 3440 58.6515
149.818 3384 58.1722
149.935 3360 57.9655
150.053 3461 58.8303
150.17 3395 58.2666
150.287 3345 57.836
150.405 3257 57.0701
150.522 3151 56.1338
150.64 3054 55.263
150.757 2893 53.7866
150.875 2900 53.8516
150.992 2857 53.4509
151.11 2910 53.9444
151.227 3002 54.7905
151.344 3028 55.0273
151.462 3127 55.9196
151.579 3147 56.0981
151.697 3206 56.6216
151.814 3121 55.8659
151.932 3126 55.9106
152.049 3253 57.0351
152.167 3269 57.1752
152.284 3186 56.4447
152.402 3252 57.0263
152.519 3196 56.5332
152.636 3221 56.7539
152.754 3434 58.6003
152.871 3336 57.7581
152.989 3317 57.5934
153.106 3327 57.6802
153.223 3408 58.3781
153.341 3304 57.4804
153.458 3373 58.0775
153.575 3484 59.0254
153.693 3401 58.3181
153.81 3278 57.2538
153.927 3397 58.2838
154.044 3255 57.0526
154.162 3155 56.1694
154.279 2963 54.4334
154.396 3026 55.0091
154.513 3026 55.0091
154.63 3021 54.9636
154.747 3055 55.2721
154.864 3070 55.4076
154.981 3197 56.542
155.098 3263 57.1227
155.215 3348 57.8619
155.332 3309 57.5239
155.449 3372 58.0689
155.566 3365 58.0086
155.683 3316 57.5847
155.8 3353 57.9051
155.917 3262 57.1139
156.033 3441 58.66
156.15 0 1
156.267 0 1
156.383 0 1
156.5 0 1
156.617 0 1
156.733 0 1
156.85 0 1
156.966 0 1
157.082 0 1
157.199 0 1
157.315 0 1
157.431 0 1
157.547 0 1
157.664 0 1
157.78 0 1
157.896 0 1
158.012 0 1
158.128 0 1
158.244 0 1
158.359 0 1
158.475 0 1
158.591 0 1
158.706 0 1
