
6.15755 0 1
6.2731 0 1
6.3887 0 1
6.50437 0 1
6.62009 0 1
6.73587 0 1
6.8517 0 1
6.96759 0 1
7.08353 0 1
7.19952 0 1
7.31557 0 1
7.43166 0 1
7.54781 0 1
7.664 0 1
7.78024 0 1
7.89653 0 1
8.01286 0 1
8.12924 0 1
8.24567 0 1
8.36213 0 1
8.47864 0 1
8.59519 0 1
8.71178 0 1
8.82841 0 1
8.94508 0 1
9.06179 0 1
9.17853 0 1
9.29531 0 1
9.41212 0 1
9.52897 0 1
9.64584 0 1
9.76276 0 1
9.8797 0 1
9.99667 0 1
10.1137 0 1
10.2307 0 1
10.3478 0 1
10.4648 0 1
10.5819 0 1
10.6991 0 1
10.8162 0 1
10.9334 0 1
11.0506 0 1
11.1678 0 1
11.285 0 1
11.4023 0 1
11.5196 0 1
11.6369 0 1
11.7542 0 1
11.8715 0 1
11.9888 0 1
12.1062 0 1
12.2235 0 1
12.3409 0 1
12.4582 0 1
12.5756 0 1
12.693 0 1
12.8104 0 1
12.9278 0 1
13.0452 0 1
13.1626 0 1
13.28 0 1
13.3974 0 1
13.5149 0 1
13.6323 0 1
13.7497 0 1
13.8671 0 1
13.9845 0 1
14.1019 0 1
14.2193 0 1
14.3367 0 1
14.4541 0 1
14.5714 0 1
14.6888 0 1
14.8062 0 1
14.9235 0 1
15.0408 0 0
15.1581 0 0
15.2755 0 0
15.3927 0 0
15.51 0 0
15.6273 0 0
15.7445 0 0
15.8617 0 0
15.9789 0 0
16.0961 0 0
16.2132 0 0
16.3304 0 0
16.4475 0 0
16.5646 0 0
16.6816 0 0
16.7986 0 0
16.9156 0 0
17.0326 0 0
17.1496 0 0
17.2665 0 0
17.3833 0 0
17.5002 0 0
17.617 0 0
17.7338 0 0
17.8505 0 0
17.9672 0 0
18.0839 0 0
18.2005 0 0
18.3171 0 0
18.4337 0 0
18.5502 0 0
18.6666 0 0
18.7831 0 0
18.8994 0 0
19.0158 0 0
19.1321 0 0
19.2483 0 0
19.3645 0 0
19.4806 0 0
19.5967 0 0
19.7128 0 0
19.8288 0 0
19.9447 0 0
20.0606 0 1
20.1764 0 1
20.2922 0 1
20.4079 0 1
20.5236 0 1
20.6392 0 1
20.7548 0 1
20.8702 0 1
23.3078 0 1
23.4233 0 1
23.539 0 1
23.6547 0 1
23.7704 0 1
23.8862 0 1
24.0021 0 1
24.118 0 1
24.234 0 1
24.35 0 1
24.4661 1552 39.3954
24.5822 1427 37.7757
24.6984 1458 38.1838
24.8146 1480 38.4708
24.9309 1375 37.081
25.0472 1453 38.1182
25.1636 1407 37.51
25.28 1515 38.923
25.3965 1467 38.3014
25.513 1489 38.5876
25.6296 1453 38.1182
25.7462 1537 39.2046
25.8628 1493 38.6394
25.9795 1589 39.8623
26.0962 1565 39.5601
26.213 1558 39.4715
26.3298 1551 39.3827
26.4466 1486 38.5487
26.5635 1359 36.8646
26.6804 1265 35.5668
26.7973 1279 35.7631
26.9143 1373 37.054
27.0313 1390 37.2827
27.1483 1439 37.9342
27.2653 1451 38.092
27.3824 1554 39.4208
27.4996 1588 39.8497
27.6167 1603 40.0375
27.7339 1497 38.6911
27.8511 1414 37.6032
27.9683 1464 38.2623
28.0855 1491 38.6135
28.2028 1525 39.0512
28.3201 1397 37.3765
28.4374 1409 37.5366
28.5547 1436 37.8946
28.6721 1377 37.108
28.7894 1435 37.8814
28.9068 1382 37.1753
29.0242 1364 36.9324
29.1416 1409 37.5366
29.259 1416 37.6298
29.3764 1449 38.0657
29.4939 1365 36.9459
29.6113 1439 37.9342
29.7288 1445 38.0132
29.8463 1405 37.4833
29.9638 1418 37.6563
30.0812 1270 35.6371
30.1987 1171 34.2199
30.3162 1145 33.8378
30.4337 1234 35.1283
30.5512 1266 35.5809
30.6687 1433 37.855
30.7862 1479 38.4578
30.9037 1449 38.0657
31.0212 1519 38.9744
31.1387 1513 38.8973
31.2562 1483 38.5097
31.3737 1433 37.855
31.4912 1455 38.1445
31.6087 1412 37.5766
31.7262 1379 37.1349
31.8436 1395 37.3497
31.9611 1385 37.2156
32.0785 1368 36.9865
32.1959 1358 36.8511
32.3134 1372 37.0405
32.4308 1416 37.6298
32.5482 1393 37.3229
32.6655 1431 37.8286
32.7829 1407 37.51
32.9002 1401 37.4299
33.0176 1421 37.6962
33.1349 1366 36.9594
33.2522 1375 37.081
33.3694 1439 37.9342
33.4867 1424 37.7359
33.6039 1392 37.3095
33.7211 1177 34.3074
33.8383 1173 34.2491
33.9554 1105 33.2415
34.0725 1149 33.8969
34.1896 1298 36.0278
34.3067 1320 36.3318
34.4237 1423 37.7227
34.5407 1413 37.5899
34.6577 1349 36.7287
34.7746 1411 37.5633
34.8915 1479 38.4578
35.0084 1402 37.4433
35.1252 1353 36.7831
35.242 1443 37.9868
35.3587 1370 37.0135
35.4755 1444 38
35.5921 1345 36.6742
35.7088 1395 37.3497
35.8254 1297 36.0139
35.9419 1328 36.4417
36.0584 1301 36.0694
36.1749 1331 36.4829
36.2913 1368 36.9865
36.4077 1404 37.47
36.524 1316 36.2767
36.6403 1364 36.9324
36.7565 1384 37.2022
36.8727 1335 36.5377
36.9889 1329 36.4555
37.1049 1316 36.2767
37.221 0 1
37.3369 0 1
37.4529 0 1
37.5687 0 1
37.6845 0 1
37.8003 0 1
37.916 0 1
38.0316 0 1
38.1472 0 1
40.5851 0 1
40.7008 0 1
40.8164 0 1
40.9322 0 1
41.048 0 1
41.1639 0 1
41.2798 0 1
41.3958 0 1
41.5118 0 1
41.6279 0 1
41.744 1033 32.1403
41.8602 1148 33.8821
41.9765 1108 33.2866
42.0928 1113 33.3617
42.2091 1100 33.1662
42.3255 1055 32.4808
42.4419 953 30.8707
42.5584 903 30.05
42.675 846 29.0861
42.7915 877 29.6142
42.9081 884 29.7321
43.0248 912 30.1993
43.1415 1012 31.8119
43.2582 1010 31.7805
43.375 1028 32.0624
43.4918 1096 33.1059
43.6087 1046 32.3419
43.7256 994 31.5278
43.8425 1030 32.0936
43.9595 991 31.4802
44.0765 926 30.4302
44.1935 941 30.6757
44.3106 952 30.8545
44.4277 857 29.2746
44.5448 853 29.2062
44.6619 858 29.2916
44.7791 880 29.6648
44.8963 798 28.2489
45.0136 818 28.6007
45.1308 780 27.9285
45.2481 708 26.6083
45.3654 788 28.0713
45.4827 761 27.5862
45.6001 777 27.8747
45.7174 818 28.6007
45.8348 783 27.9821
45.9522 858 29.2916
46.0697 722 26.8701
46.1871 651 25.5147
46.3046 596 24.4131
46.422 576 24
46.5395 593 24.3516
46.657 642 25.3377
46.7745 679 26.0576
46.892 723 26.8887
47.0096 769 27.7308
47.1271 735 27.1109
47.2446 749 27.3679
47.3622 683 26.1343
47.4797 666 25.807
47.5973 660 25.6905
47.7149 706 26.5707
47.8324 694 26.3439
47.95 661 25.7099
48.0675 633 25.1595
48.1851 598 24.454
48.3027 550 23.4521
48.4202 589 24.2693
48.5378 553 23.516
48.6554 603 24.5561
48.7729 551 23.4734
48.8904 544 23.3238
49.008 569 23.8537
49.1255 557 23.6008
49.243 561 23.6854
49.3605 563 23.7276
49.478 574 23.9583
49.5955 515 22.6936
49.713 457 21.3776
49.8304 464 21.5407
49.9479 444 21.0713
50.0653 524 22.891
50.1827 631 25.1197
50.3001 633 25.1595
50.4175 623 24.96
50.5348 656 25.6125
50.6521 681 26.096
50.7694 724 26.9072
50.8867 791 28.1247
51.004 789 28.0891
51.1212 740 27.2029
51.2384 740 27.2029
51.3556 756 27.4955
51.4727 765 27.6586
51.5899 830 28.8097
51.707 810 28.4605
51.824 823 28.688
51.9411 822 28.6705
52.0581 820 28.6356
52.175 872 29.5296
52.2919 827 28.7576
52.4088 906 30.0998
52.5257 933 30.545
52.6425 964 31.0483
52.7593 956 30.9192
52.876 965 31.0644
52.9927 972 31.1769
53.1094 925 30.4138
53.226 876 29.5973
53.3426 756 27.4955
53.4591 745 27.2947
53.5756 799 28.2666
53.692 936 30.5941
53.8084 1004 31.686
53.9248 1143 33.8083
54.0411 1065 32.6343
54.1573 1118 33.4365
54.2735 0 1
54.3896 0 1
54.5057 0 1
54.6217 0 1
54.7377 0 1
54.8537 0 1
54.9695 0 1
55.0853 0 1
55.2011 0 1
55.3168 0 1
55.4324 0 1
57.824 0 1
57.9396 0 1
58.0553 0 1
58.1711 0 1
58.2869 0 1
58.4028 0 1
58.5187 0 1
58.6347 0 1
58.7508 0 1
58.8669 0 1
58.983 1147 33.8674
59.0992 1183 34.3948
59.2155 1232 35.0999
59.3318 1354 36.7967
59.4482 1338 36.5787
59.5646 1256 35.4401
59.681 1271 35.6511
59.7975 1324 36.3868
59.9141 1409 37.5366
60.0306 1287 35.8748
60.1473 1249 35.3412
60.2639 1205 34.7131
60.3807 1245 35.2846
60.4974 1152 33.9411
60.6142 1208 34.7563
60.731 1163 34.1028
60.8479 1175 34.2783
60.9648 1136 33.7046
61.0818 1137 33.7194
61.1987 1170 34.2053
61.3158 1131 33.6303
61.4328 1168 34.176
61.5499 1102 33.1964
61.667 1082 32.8938
61.7841 988 31.4325
61.9013 881 29.6816
62.0185 892 29.8664
62.1357 950 30.8221
62.253 1045 32.3265
62.3702 1174 34.2637
62.4875 1188 34.4674
62.6049 1238 35.1852
62.7222 1331 36.4829
62.8396 1252 35.3836
62.9569 1289 35.9026
63.0743 1346 36.6879
63.1918 1321 36.3456
63.3092 1280 35.7771
63.4267 1320 36.3318
63.5441 1311 36.2077
63.6616 1259 35.4824
63.7791 1277 35.7351
63.8966 1284 35.8329
64.0142 1220 34.9285
64.1317 1247 35.3129
64.2492 1269 35.623
64.3668 1268 35.609
64.4843 1349 36.7287
64.6019 1292 35.9444
64.7195 1208 34.7563
64.837 1318 36.3043
64.9546 1274 35.6931
65.0722 1217 34.8855
65.1898 1225 35
65.3074 1070 32.7109
65.4249 1000 31.6228
65.5425 872 29.5296
65.6601 943 30.7083
65.7777 1048 32.3728
65.8952 1173 34.2491
66.0128 1268 35.609
66.1304 1282 35.805
66.2479 1298 36.0278
66.3655 1373 37.054
66.483 1334 36.524
66.6005 1394 37.3363
66.718 1324 36.3868
66.8355 1375 37.081
66.953 1354 36.7967
67.0705 1331 36.4829
67.1879 1297 36.0139
67.3054 1232 35.0999
67.4228 1222 34.9571
67.5402 1148 33.8821
67.6576 1139 33.7491
67.7749 1081 32.8786
67.8923 1181 34.3657
68.0096 1166 34.1467
68.1269 1185 34.4238
68.2442 1167 34.1614
68.3614 1103 33.2114
68.4787 1180 34.3511
68.5958 1171 34.2199
68.713 1090 33.0151
68.8302 1070 32.7109
68.9473 983 31.3528
69.0643 889 29.8161
69.1814 863 29.3769
69.2984 890 29.8329
69.4154 936 30.5941
69.5323 1022 31.9687
69.6492 1086 32.9545
69.7661 1191 34.5109
69.8829 1272 35.6651
69.9997 1279 35.7631
70.1165 1227 35.0286
70.2332 1291 35.9305
70.3499 1336 36.5513
70.4665 1251 35.3695
70.5831 1316 36.2767
70.6996 1227 35.0286
70.8161 1198 34.6121
70.9326 1190 34.4964
71.049 1054 32.4654
71.1653 1138 33.7343
71.2817 1097 33.121
71.3979 1103 33.2114
71.5141 1047 32.3574
71.6303 1036 32.187
71.7464 971 31.1609
71.8624 0 1
71.9784 0 1
72.0944 0 1
72.2102 0 1
72.3261 0 1
72.4418 0 1
72.5575 0 1
72.6732 0 1
75.1054 0 1
75.2209 0 1
75.3365 0 1
75.4521 0 1
75.5678 0 1
75.6835 0 1
75.7993 0 1
75.9151 0 1
76.031 0 1
76.147 1164 34.1174
76.263 1168 34.176
76.3791 1175 34.2783
76.4952 1195 34.5688
76.6113 1148 33.8821
76.7276 1114 33.3766
76.8438 1175 34.2783
76.9601 1160 34.0588
77.0765 1161 34.0735
77.1929 1135 33.6898
77.3093 1154 33.9706
77.4258 1208 34.7563
77.5423 1200 34.641
77.6589 1261 35.5106
77.7755 1113 33.3617
77.8921 974 31.209
78.0088 884 29.7321
78.1256 805 28.3725
78.2423 811 28.4781
78.3591 743 27.258
78.4759 854 29.2233
78.5928 971 31.1609
78.7097 1047 32.3574
78.8266 1111 33.3317
78.9436 1281 35.7911
79.0606 1189 34.4819
79.1776 1169 34.1906
79.2946 1268 35.609
79.4117 1244 35.2704
79.5288 1226 35.0143
79.6459 1178 34.322
79.7631 1123 33.5112
79.8802 1086 32.9545
79.9974 984 31.3688
80.1147 1006 31.7175
80.2319 978 31.273
80.3491 978 31.273
80.4664 996 31.5595
80.5837 984 31.3688
80.701 1017 31.8904
80.8183 1026 32.0312
80.9357 1012 31.8119
81.053 1080 32.8634
81.1704 1023 31.9844
81.2877 966 31.0805
81.4051 1001 31.6386
81.5225 886 29.7658
81.6399 867 29.4449
81.7573 806 28.3901
81.8747 703 26.5141
81.9922 731 27.037
82.1096 798 28.2489
82.227 859 29.3087
82.3444 961 31
82.4619 987 31.4166
82.5793 1027 32.0468
82.6967 967 31.0966
82.8142 1042 32.28
82.9316 1065 32.6343
83.049 1048 32.3728
83.1664 1046 32.3419
83.2838 1041 32.2645
83.4012 979 31.289
83.5186 964 31.0483
83.636 904 30.0666
83.7534 859 29.3087
83.8708 843 29.0345
83.9881 860 29.3258
84.1055 847 29.1033
84.2228 855 29.2404
84.3401 862 29.3598
84.4575 838 28.9482
84.5747 927 30.4467
84.692 1000 31.6228
84.8093 944 30.7246
84.9265 912 30.1993
85.0437 908 30.133
85.1609 818 28.6007
85.2781 739 27.1846
85.3952 686 26.1916
85.5123 662 25.7294
85.6294 712 26.6833
85.7465 826 28.7402
85.8636 874 29.5635
85.9806 979 31.289
86.0976 1120 33.4664
86.2145 1189 34.4819
86.3315 1145 33.8378
86.4484 1139 33.7491
86.5652 1178 34.322
86.682 1145 33.8378
86.7988 1175 34.2783
86.9156 1143 33.8083
87.0323 1102 33.1964
87.149 1038 32.218
87.2657 984 31.3688
87.3823 1021 31.9531
87.4988 969 31.1288
87.6154 1000 31.6228
87.7318 1085 32.9393
87.8483 1052 32.4345
87.9647 1108 33.2866
88.081 1135 33.6898
88.1973 1129 33.6006
88.3136 1128 33.5857
88.4298 1142 33.7935
88.546 1094 33.0757
88.6621 1033 32.1403
88.7781 858 29.2916
88.8942 0 1
89.0101 0 1
89.126 0 1
89.2419 0 1
89.3577 0 1
89.4734 0 1
89.5891 0 1
89.7047 0 1
89.8203 0 1
89.9358 0 1
92.3269 0 1
92.4424 0 1
92.558 0 1
92.6736 0 1
92.7893 0 1
92.905 0 1
93.0208 0 1
93.1366 0 1
93.2525 0 1
93.3685 0 1
93.4845 0 1
93.6005 1140 33.7639
93.7167 1155 33.9853
93.8328 1144 33.8231
93.949 1142 33.7935
94.0653 1050 32.4037
94.1816 992 31.496
94.2979 907 30.1164
94.4143 843 29.0345
94.5307 838 28.9482
94.6472 829 28.7924
94.7637 898 29.9666
94.8803 1007 31.7333
94.9969 1085 32.9393
95.1135 1151 33.9264
95.2302 1242 35.242
95.3469 1241 35.2278
95.4637 1273 35.6791
95.5805 1201 34.6554
95.6973 1300 36.0555
95.8142 1357 36.8375
95.9311 1286 35.8608
96.048 1162 34.0881
96.1649 1211 34.7994
96.2819 1168 34.176
96.3989 1188 34.4674
96.516 1144 33.8231
96.633 1088 32.9848
96.7501 1031 32.1092
96.8673 1139 33.7491
96.9844 1086 32.9545
97.1016 1148 33.8821
97.2188 1166 34.1467
97.336 1186 34.4384
97.4532 1243 35.2562
97.5704 1180 34.3511
97.6877 1146 33.8526
97.805 998 31.5911
97.9223 929 30.4795
98.0396 911 30.1828
98.1569 800 28.2843
98.2743 833 28.8617
98.3916 842 29.0172
98.509 952 30.8545
98.6264 1133 33.6601
98.7438 1124 33.5261
98.8612 1222 34.9571
98.9786 1300 36.0555
99.096 1367 36.973
99.2134 1302 36.0832
99.3308 1440 37.9473
99.4482 1347 36.7015
99.5656 1338 36.5787
99.6831 1279 35.7631
99.8005 1210 34.7851
99.9179 1160 34.0588
100.035 1144 33.8231
100.153 1123 33.5112
100.27 1156 34
100.388 1119 33.4515
100.505 1199 34.6266
100.622 1126 33.5559
100.74 1211 34.7994
100.857 1151 33.9264
100.975 1239 35.1994
101.092 1217 34.8855
101.209 1262 35.5246
101.327 1073 32.7567
101.444 1039 32.2335
101.561 986 31.4006
101.679 912 30.1993
101.796 834 28.8791
101.913 874 29.5635
102.03 940 30.6594
102.148 1103 33.2114
102.265 1145 33.8378
102.382 1292 35.9444
102.499 1368 36.9865
102.616 1381 37.1618
102.733 1417 37.6431
102.851 1514 38.9102
102.968 1495 38.6652
103.085 1401 37.4299
103.202 1388 37.2559
103.319 1301 36.0694
103.436 1290 35.9166
103.552 1307 36.1525
103.669 1158 34.0294
103.786 1277 35.7351
103.903 1172 34.2345
104.02 1192 34.5254
104.137 1271 35.6511
104.253 1298 36.0278
104.37 1272 35.6651
104.487 1352 36.7696
104.603 1366 36.9594
104.72 1262 35.5246
104.836 1151 33.9264
104.953 1096 33.1059
105.069 1016 31.8748
105.186 952 30.8545
105.302 929 30.4795
105.418 1023 31.9844
105.535 1114 33.3766
105.651 1218 34.8999
105.767 1323 36.3731
105.883 1520 38.9872
105.999 1569 39.6106
106.115 0 1
106.231 0 1
106.347 0 1
106.463 0 1
106.579 0 1
106.694 0 1
106.81 0 1
106.926 0 1
107.041 0 1
107.157 0 1
109.576 0 1
109.692 0 1
109.807 0 1
109.923 0 1
110.039 0 1
110.155 0 1
110.27 0 1
110.386 0 1
110.502 0 1
110.618 1087 32.9697
110.735 1213 34.8281
110.851 1348 36.7151
110.967 1304 36.1109
111.083 1390 37.2827
111.199 1491 38.6135
111.316 1487 38.5616
111.432 1484 38.5227
111.549 1411 37.5633
111.665 1430 37.8153
111.782 1382 37.1753
111.898 1322 36.3593
112.015 1299 36.0416
112.132 1339 36.5923
112.248 1207 34.7419
112.365 1189 34.4819
112.482 1177 34.3074
112.599 1239 35.1994
112.716 1193 34.5398
112.832 1259 35.4824
112.949 1208 34.7563
113.066 1207 34.7419
113.183 1215 34.8569
113.3 1189 34.4819
113.417 1058 32.5269
113.534 1034 32.1559
113.652 955 30.9031
113.769 941 30.6757
113.886 910 30.1662
114.003 933 30.545
114.12 1045 32.3265
114.238 1143 33.8083
114.355 1217 34.8855
114.472 1277 35.7351
114.589 1351 36.756
114.707 1395 37.3497
114.824 1355 36.8103
114.942 1373 37.054
115.059 1488 38.5746
115.176 1324 36.3868
115.294 1437 37.9078
115.411 1276 35.7211
115.529 1294 35.9722
115.646 1239 35.1994
115.764 1186 34.4384
115.881 1150 33.9116
115.999 1202 34.6699
116.116 1203 34.6843
116.234 1261 35.5106
116.351 1298 36.0278
116.469 1234 35.1283
116.586 1332 36.4966
116.704 1289 35.9026
116.821 1176 34.2929
116.939 1202 34.6699
117.056 1121 33.4813
117.174 1004 31.686
117.291 993 31.5119
117.409 958 30.9516
117.526 975 31.225
117.644 1153 33.9559
117.761 1179 34.3366
117.879 1367 36.973
117.996 1282 35.805
118.114 1378 37.1214
118.231 1487 38.5616
118.349 1472 38.3667
118.466 1551 39.3827
118.584 1493 38.6394
118.701 1490 38.6005
118.819 1447 38.0395
118.936 1388 37.2559
119.053 1419 37.6696
119.171 1296 36
119.288 1333 36.5103
119.405 1217 34.8855
119.523 1212 34.8138
119.64 1151 33.9264
119.757 1146 33.8526
119.875 1227 35.0286
119.992 1285 35.8469
120.109 1258 35.4683
120.226 1221 34.9428
120.343 1280 35.7771
120.46 1253 35.3977
120.578 1207 34.7419
120.695 1100 33.1662
120.812 1060 32.5576
120.929 1042 32.28
121.046 1004 31.686
121.163 912 30.1993
121.279 1010 31.7805
121.396 1141 33.7787
121.513 1256 35.4401
121.63 1375 37.081
121.747 1392 37.3095
121.863 1354 36.7967
121.98 1445 38.0132
122.097 1410 37.55
122.213 1442 37.9737
122.33 1389 37.2693
122.446 1423 37.7227
122.563 1368 36.9865
122.679 1360 36.8782
122.795 1351 36.756
122.912 1272 35.6651
123.028 1224 34.9857
123.144 1230 35.0714
123.26 1167 34.1614
123.377 0 1
123.493 0 1
123.609 0 1
123.725 0 1
123.84 0 1
123.956 0 1
124.072 0 1
124.188 0 1
124.303 0 1
124.419 0 1
126.852 0 1
126.968 0 1
127.083 0 1
127.199 0 1
127.315 0 1
127.431 0 1
127.547 0 1
127.663 0 1
127.779 0 1
127.895 0 1
128.011 0 1
128.127 0 1
128.243 0 1
128.359 1328 36.4417
128.476 1244 35.2704
128.592 1273 35.6791
128.708 1367 36.973
128.825 1385 37.2156
128.941 1399 37.4032
129.058 1480 38.4708
129.174 1418 37.6563
129.291 1359 36.8646
129.408 1392 37.3095
129.524 1256 35.4401
129.641 1251 35.3695
129.758 1245 35.2846
129.875 1170 34.2053
129.992 1127 33.5708
130.108 1093 33.0606
130.225 1125 33.541
130.342 1259 35.4824
130.459 1429 37.8021
130.576 1517 38.9487
130.693 1483 38.5097
130.81 1441 37.9605
130.928 1510 38.8587
131.045 1521 39
131.162 1510 38.8587
131.279 1565 39.5601
131.396 1558 39.4715
131.513 1490 38.6005
131.631 1504 38.7814
131.748 1496 38.6782
131.865 1463 38.2492
131.983 1372 37.0405
132.1 1322 36.3593
132.217 1318 36.3043
132.335 1378 37.1214
132.452 1450 38.0789
132.57 1411 37.5633
132.687 1423 37.7227
132.804 1482 38.4968
132.922 1344 36.6606
133.039 1375 37.081
133.157 1309 36.1801
133.274 1233 35.1141
133.392 1210 34.7851
133.509 1113 33.3617
133.627 1159 34.0441
133.744 1147 33.8674
133.862 1288 35.8887
133.979 1359 36.8646
134.097 1377 37.108
134.214 1449 38.0657
134.332 1430 37.8153
134.449 1498 38.704
134.567 1546 39.3192
134.684 1606 40.0749
134.802 1557 39.4588
134.919 1558 39.4715
135.037 1549 39.3573
135.154 1552 39.3954
135.272 1465 38.2753
135.389 1406 37.4967
135.507 1417 37.6431
135.624 1352 36.7696
135.742 1336 36.5513
135.859 1374 37.0675
135.977 1425 37.7492
136.094 1467 38.3014
136.211 1409 37.5366
136.329 1515 38.923
136.446 1474 38.3927
136.564 1448 38.0526
136.681 1353 36.7831
136.798 1274 35.6931
136.915 1240 35.2136
137.033 1178 34.322
137.15 1162 34.0881
137.267 1153 33.9559
137.384 1182 34.3802
137.502 1241 35.2278
137.619 1366 36.9594
137.736 1412 37.5766
137.853 1428 37.7889
137.97 1533 39.1535
138.087 1486 38.5487
138.204 1486 38.5487
138.321 1502 38.7556
138.438 1456 38.1576
138.555 1536 39.1918
138.672 1509 38.8458
138.788 1532 39.1408
138.905 1470 38.3406
139.022 1417 37.6431
139.139 1374 37.0675
139.255 1358 36.8511
139.372 1302 36.0832
139.488 1421 37.6962
139.605 1462 38.2361
139.721 1480 38.4708
139.838 1486 38.5487
139.954 1468 38.3145
140.071 1405 37.4833
140.187 1405 37.4833
140.303 1314 36.2491
140.419 1290 35.9166
140.535 1194 34.5543
140.652 1272 35.6651
140.768 0 1
140.884 0 1
141 0 1
141.115 0 1
141.231 0 1
141.347 0 1
141.463 0 1
141.578 0 1
141.694 0 1
144.104 0 1
144.219 0 1
144.335 0 1
144.45 0 1
144.566 0 1
144.682 0 1
144.798 0 1
144.914 0 1
145.03 0 1
145.146 958 30.9516
145.262 1085 32.9393
145.378 1035 32.1714
145.494 1003 31.6702
145.61 973 31.1929
145.726 947 30.7734
145.842 910 30.1662
145.959 939 30.6431
146.075 918 30.2985
146.192 964 31.0483
146.308 992 31.496
146.425 938 30.6268
146.541 1080 32.8634
146.658 1082 32.8938
146.774 1106 33.2566
146.891 1110 33.3167
147.008 1144 33.8231
147.125 1140 33.7639
147.241 1212 34.8138
147.358 1133 33.6601
147.475 1179 34.3366
147.592 1106 33.2566
147.709 1140 33.7639
147.826 1112 33.3467
147.943 1120 33.4664
148.06 1027 32.0468
148.177 988 31.4325
148.294 1012 31.8119
148.411 1037 32.2025
148.528 1101 33.1813
148.645 1085 32.9393
148.762 1147 33.8674
148.88 1112 33.3467
148.997 1093 33.0606
149.114 1098 33.1361
149.231 1126 33.5559
149.349 1063 32.6037
149.466 955 30.9031
149.583 1014 31.8434
149.701 994 31.5278
149.818 947 30.7734
149.935 951 30.8383
150.053 937 30.6105
150.17 1017 31.8904
150.287 1014 31.8434
150.405 1084 32.9242
150.522 1047 32.3574
150.64 1103 33.2114
150.757 1166 34.1467
150.875 1162 34.0881
150.992 1170 34.2053
151.11 1204 34.6987
151.227 1159 34.0441
151.344 1176 34.2929
151.462 1182 34.3802
151.579 1147 33.8674
151.697 1111 33.3317
151.814 1088 32.9848
151.932 1072 32.7414
152.049 1044 32.311
152.167 1197 34.5977
152.284 1157 34.0147
152.402 1166 34.1467
152.519 1195 34.5688
152.636 1150 33.9116
152.754 1154 33.9706
152.871 1091 33.0303
152.989 1079 32.8481
153.106 1016 31.8748
153.223 1090 33.0151
153.341 1030 32.0936
153.458 986 31.4006
153.575 1018 31.9061
153.693 1039 32.2335
153.81 1114 33.3766
153.927 1118 33.4365
154.044 1178 34.322
154.162 1169 34.1906
154.279 1270 35.6371
154.396 1198 34.6121
154.513 1286 35.8608
154.63 1366 36.9594
154.747 1309 36.1801
154.864 1294 35.9722
154.981 1289 35.9026
155.098 1298 36.0278
155.215 1264 35.5528
155.332 1220 34.9285
155.449 1131 33.6303
155.566 1175 34.2783
155.683 1237 35.171
155.8 1300 36.0555
155.917 1242 35.242
156.033 1235 35.1426
156.15 0 1
156.267 0 1
156.383 0 1
156.5 0 1
156.617 0 1
156.733 0 1
156.85 0 1
156.966 0 1
157.082 0 1
157.199 0 1
157.315 0 1
157.431 0 1
157.547 0 1
157.664 0 1
157.78 0 1
157.896 0 1
158.012 0 1
158.128 0 1
158.244 0 1
158.359 0 1
158.475 0 1
158.591 0 1
158.706 0 1
