
6.15755 0 1
6.2731 0 1
6.3887 0 1
6.50437 0 1
6.62009 0 1
6.73587 0 1
6.8517 0 1
6.96759 0 1
7.08353 0 1
7.19952 0 1
7.31557 0 1
7.43166 0 1
7.54781 0 1
7.664 0 1
7.78024 0 1
7.89653 0 1
8.01286 0 1
8.12924 0 1
8.24567 0 1
8.36213 0 1
8.47864 0 1
8.59519 0 1
8.71178 0 1
8.82841 0 1
8.94508 0 1
9.06179 0 1
9.17853 0 1
9.29531 0 1
9.41212 0 1
9.52897 0 1
9.64584 0 1
9.76276 0 1
9.8797 0 1
9.99667 0 1
10.1137 0 1
10.2307 0 1
10.3478 0 1
10.4648 0 1
10.5819 0 1
10.6991 0 1
10.8162 0 1
10.9334 0 1
11.0506 0 1
11.1678 0 1
11.285 0 1
11.4023 0 1
11.5196 0 1
11.6369 0 1
11.7542 0 1
11.8715 0 1
11.9888 0 1
12.1062 0 1
12.2235 0 1
12.3409 0 1
12.4582 0 1
12.5756 0 1
12.693 0 1
12.8104 0 1
12.9278 0 1
13.0452 0 1
13.1626 0 1
13.28 0 1
13.3974 0 1
13.5149 0 1
13.6323 0 1
13.7497 0 1
13.8671 0 1
13.9845 0 1
14.1019 0 1
14.2193 0 1
14.3367 0 1
14.4541 0 1
14.5714 0 1
14.6888 0 1
14.8062 0 1
14.9235 0 1
15.0408 1463 38.2492
15.1581 1500 38.7298
15.2755 1648 40.5956
15.3927 1636 40.4475
15.51 1696 41.1825
15.6273 1685 41.0488
15.7445 1668 40.8412
15.8617 1583 39.7869
15.9789 1672 40.8901
16.0961 1677 40.9512
16.2132 1595 39.9375
16.3304 1624 40.2989
16.4475 1726 41.5452
16.5646 1738 41.6893
16.6816 1801 42.4382
16.7986 1919 43.8064
16.9156 2005 44.7772
17.0326 1968 44.3621
17.1496 1919 43.8064
17.2665 1923 43.852
17.3833 1936 44
17.5002 1916 43.7721
17.617 1784 42.2374
17.7338 1735 41.6533
17.8505 1709 41.3401
17.9672 1777 42.1545
18.0839 1740 41.7133
18.2005 1721 41.4849
18.3171 1825 42.72
18.4337 1818 42.638
18.5502 1853 43.0465
18.6666 1843 42.9302
18.7831 1898 43.566
18.8994 1938 44.0227
19.0158 1890 43.4741
19.1321 1810 42.5441
19.2483 1794 42.3556
19.3645 1602 40.025
19.4806 1602 40.025
19.5967 1408 37.5233
19.7128 1360 36.8782
19.8288 1269 35.623
19.9447 1181 34.3657
20.0606 0 1
20.1764 0 1
20.2922 0 1
20.4079 0 1
20.5236 0 1
20.6392 0 1
20.7548 0 1
20.8702 0 1
23.3078 0 1
23.4233 0 1
23.539 0 1
23.6547 0 1
23.7704 0 1
23.8862 0 1
24.0021 0 1
24.118 0 1
24.234 0 1
24.35 0 1
24.4661 751 27.4044
24.5822 907 30.1164
24.6984 1039 32.2335
24.8146 1153 33.9559
24.9309 1232 35.0999
25.0472 1330 36.4692
25.1636 1488 38.5746
25.28 1627 40.3361
25.3965 1804 42.4735
25.513 1846 42.9651
25.6296 1952 44.1814
25.7462 2001 44.7325
25.8628 2085 45.6618
25.9795 2139 46.2493
26.0962 2061 45.3982
26.213 2076 45.5631
26.3298 1867 43.2088
26.4466 1821 42.6732
26.5635 1798 42.4028
26.6804 1894 43.5201
26.7973 1791 42.3202
26.9143 1937 44.0114
27.0313 1873 43.2782
27.1483 1880 43.359
27.2653 1994 44.6542
27.3824 1995 44.6654
27.4996 1972 44.4072
27.6167 1949 44.1475
27.7339 2014 44.8776
27.8511 1885 43.4166
27.9683 1921 43.8292
28.0855 1786 42.2611
28.2028 1802 42.45
28.3201 1661 40.7554
28.4374 1626 40.3237
28.5547 1634 40.4228
28.6721 1722 41.497
28.7894 1721 41.4849
28.9068 1918 43.795
29.0242 1943 44.0795
29.1416 2029 45.0444
29.259 2044 45.2106
29.3764 1926 43.8862
29.4939 1995 44.6654
29.6113 2006 44.7884
29.7288 1779 42.1782
29.8463 1814 42.5911
29.9638 1660 40.7431
30.0812 1729 41.5812
30.1987 1680 40.9878
30.3162 1730 41.5933
30.4337 1728 41.5692
30.5512 1818 42.638
30.6687 1813 42.5793
30.7862 1847 42.9767
30.9037 1851 43.0232
31.0212 1903 43.6234
31.1387 1992 44.6318
31.2562 1802 42.45
31.3737 1791 42.3202
31.4912 1850 43.0116
31.6087 1806 42.4971
31.7262 1736 41.6653
31.8436 1624 40.2989
31.9611 1704 41.2795
32.0785 1587 39.8372
32.1959 1664 40.7922
32.3134 1765 42.0119
32.4308 1852 43.0349
32.5482 1912 43.7264
32.6655 1983 44.5309
32.7829 1919 43.8064
32.9002 1968 44.3621
33.0176 1988 44.587
33.1349 1906 43.6578
33.2522 1969 44.3734
33.3694 1758 41.9285
33.4867 1759 41.9404
33.6039 1599 39.9875
33.7211 1593 39.9124
33.8383 1639 40.4846
33.9554 1608 40.0999
34.0725 1664 40.7922
34.1896 1700 41.2311
34.3067 1717 41.4367
34.4237 1753 41.8688
34.5407 1858 43.1045
34.6577 1878 43.3359
34.7746 1849 43
34.8915 1810 42.5441
35.0084 1769 42.0595
35.1252 1775 42.1307
35.242 1661 40.7554
35.3587 1747 41.7971
35.4755 1679 40.9756
35.5921 1597 39.9625
35.7088 1464 38.2623
35.8254 1504 38.7814
35.9419 1498 38.704
36.0584 1624 40.2989
36.1749 1681 41
36.2913 1655 40.6817
36.4077 1726 41.5452
36.524 1702 41.2553
36.6403 1604 40.05
36.7565 1571 39.6358
36.8727 1432 37.8418
36.9889 1336 36.5513
37.1049 1265 35.5668
37.221 0 1
37.3369 0 1
37.4529 0 1
37.5687 0 1
37.6845 0 1
37.8003 0 1
37.916 0 1
38.0316 0 1
38.1472 0 1
40.5851 0 1
40.7008 0 1
40.8164 0 1
40.9322 0 1
41.048 0 1
41.1639 0 1
41.2798 0 1
41.3958 0 1
41.5118 0 1
41.6279 0 1
41.744 867 29.4449
41.8602 992 31.496
41.9765 1006 31.7175
42.0928 1144 33.8231
42.2091 1118 33.4365
42.3255 1066 32.6497
42.4419 991 31.4802
42.5584 1079 32.8481
42.675 1186 34.4384
42.7915 1289 35.9026
42.9081 1364 36.9324
43.0248 1375 37.081
43.1415 1438 37.921
43.2582 1469 38.3275
43.375 1452 38.1051
43.4918 1516 38.9358
43.6087 1539 39.2301
43.7256 1586 39.8246
43.8425 1482 38.4968
43.9595 1422 37.7094
44.0765 1442 37.9737
44.1935 1349 36.7287
44.3106 1407 37.51
44.4277 1329 36.4555
44.5448 1197 34.5977
44.6619 1238 35.1852
44.7791 1274 35.6931
44.8963 1446 38.0263
45.0136 1499 38.7169
45.1308 1551 39.3827
45.2481 1550 39.37
45.3654 1518 38.9615
45.4827 1574 39.6737
45.6001 1546 39.3192
45.7174 1502 38.7556
45.8348 1401 37.4299
45.9522 1291 35.9305
46.0697 1287 35.8748
46.1871 1161 34.0735
46.3046 1284 35.8329
46.422 1407 37.51
46.5395 1420 37.6829
46.657 1522 39.0128
46.7745 1531 39.128
46.892 1519 38.9744
47.0096 1526 39.064
47.1271 1597 39.9625
47.2446 1563 39.5348
47.3622 1586 39.8246
47.4797 1514 38.9102
47.5973 1463 38.2492
47.7149 1426 37.7624
47.8324 1426 37.7624
47.95 1319 36.318
48.0675 1337 36.565
48.1851 1310 36.1939
48.3027 1361 36.8917
48.4202 1455 38.1445
48.5378 1509 38.8458
48.6554 1551 39.3827
48.7729 1598 39.975
48.8904 1661 40.7554
49.008 1560 39.4968
49.1255 1563 39.5348
49.243 1576 39.6989
49.3605 1431 37.8286
49.478 1328 36.4417
49.5955 1297 36.0139
49.713 1272 35.6651
49.8304 1282 35.805
49.9479 1470 38.3406
50.0653 1401 37.4299
50.1827 1474 38.3927
50.3001 1599 39.9875
50.4175 1662 40.7676
50.5348 1620 40.2492
50.6521 1668 40.8412
50.7694 1657 40.7063
50.8867 1653 40.6571
51.004 1717 41.4367
51.1212 1660 40.7431
51.2384 1564 39.5474
51.3556 1545 39.3065
51.4727 1534 39.1663
51.5899 1447 38.0395
51.707 1458 38.1838
51.824 1511 38.8716
51.9411 1724 41.5211
52.0581 1763 41.9881
52.175 1906 43.6578
52.2919 1986 44.5646
52.4088 2063 45.4203
52.5257 2126 46.1086
52.6425 2125 46.0977
52.7593 2116 46
52.876 2057 45.3542
52.9927 2014 44.8776
53.1094 1895 43.5316
53.226 1792 42.332
53.3426 1751 41.845
53.4591 1766 42.0238
53.5756 1773 42.107
53.692 1774 42.1189
53.8084 1680 40.9878
53.9248 1741 41.7253
54.0411 1654 40.6694
54.1573 1588 39.8497
54.2735 0 1
54.3896 0 1
54.5057 0 1
54.6217 0 1
54.7377 0 1
54.8537 0 1
54.9695 0 1
55.0853 0 1
55.2011 0 1
55.3168 0 1
55.4324 0 1
57.824 0 1
57.9396 0 1
58.0553 0 1
58.1711 0 1
58.2869 0 1
58.4028 0 1
58.5187 0 1
58.6347 0 1
58.7508 0 1
58.8669 0 1
58.983 1204 34.6987
59.0992 1428 37.7889
59.2155 1603 40.0375
59.3318 1662 40.7676
59.4482 1703 41.2674
59.5646 1770 42.0714
59.681 1826 42.7317
59.7975 1779 42.1782
59.9141 1869 43.2319
60.0306 1844 42.9418
60.1473 1752 41.8569
60.2639 1729 41.5812
60.3807 1600 40
60.4974 1654 40.6694
60.6142 1764 42
60.731 1899 43.5775
60.8479 1979 44.486
60.9648 2026 45.0111
61.0818 2038 45.1442
61.1987 2020 44.9444
61.3158 1969 44.3734
61.4328 1884 43.4051
61.5499 1834 42.8252
61.667 1681 41
61.7841 1569 39.6106
61.9013 1573 39.6611
62.0185 1566 39.5727
62.1357 1618 40.2244
62.253 1690 41.1096
62.3702 1820 42.6615
62.4875 1900 43.589
62.6049 1991 44.6206
62.7222 1943 44.0795
62.8396 1897 43.5546
62.9569 2055 45.3321
63.0743 1949 44.1475
63.1918 1933 43.9659
63.3092 1854 43.0581
63.4267 1940 44.0454
63.5441 1850 43.0116
63.6616 1737 41.6773
63.7791 1617 40.2119
63.8966 1544 39.2938
64.0142 1545 39.3065
64.1317 1616 40.1995
64.2492 1721 41.4849
64.3668 1920 43.8178
64.4843 1952 44.1814
64.6019 2020 44.9444
64.7195 1936 44
64.837 1941 44.0568
64.9546 1877 43.3244
65.0722 1902 43.6119
65.1898 1749 41.821
65.3074 1620 40.2492
65.4249 1558 39.4715
65.5425 1479 38.4578
65.6601 1406 37.4967
65.7777 1599 39.9875
65.8952 1678 40.9634
66.0128 1852 43.0349
66.1304 1849 43
66.2479 1802 42.45
66.3655 1921 43.8292
66.483 1917 43.7836
66.6005 1917 43.7836
66.718 1891 43.4856
66.8355 1854 43.0581
66.953 1798 42.4028
67.0705 1851 43.0232
67.1879 1786 42.2611
67.3054 1642 40.5216
67.4228 1605 40.0625
67.5402 1550 39.37
67.6576 1518 38.9615
67.7749 1563 39.5348
67.8923 1661 40.7554
68.0096 1778 42.1663
68.1269 1773 42.107
68.2442 1851 43.0232
68.3614 1963 44.3058
68.4787 1922 43.8406
68.5958 1874 43.2897
68.713 1813 42.5793
68.8302 1717 41.4367
68.9473 1658 40.7185
69.0643 1468 38.3145
69.1814 1397 37.3765
69.2984 1454 38.1314
69.4154 1541 39.2556
69.5323 1613 40.1622
69.6492 1704 41.2795
69.7661 1779 42.1782
69.8829 1812 42.5676
69.9997 1779 42.1782
70.1165 1827 42.7434
70.2332 1646 40.5709
70.3499 1639 40.4846
70.4665 1513 38.8973
70.5831 1420 37.6829
70.6996 1444 38
70.8161 1338 36.5787
70.9326 1222 34.9571
71.049 1043 32.2955
71.1653 891 29.8496
71.2817 794 28.178
71.3979 645 25.3969
71.5141 676 26
71.6303 628 25.0599
71.7464 619 24.8797
71.8624 0 1
71.9784 0 1
72.0944 0 1
72.2102 0 1
72.3261 0 1
72.4418 0 1
72.5575 0 1
72.6732 0 1
75.1054 0 1
75.2209 0 1
75.3365 0 1
75.4521 0 1
75.5678 0 1
75.6835 0 1
75.7993 0 1
75.9151 0 1
76.031 0 1
76.147 1132 33.6452
76.263 1195 34.5688
76.3791 1177 34.3074
76.4952 1170 34.2053
76.6113 1162 34.0881
76.7276 1306 36.1386
76.8438 1429 37.8021
76.9601 1491 38.6135
77.0765 1610 40.1248
77.1929 1662 40.7676
77.3093 1663 40.7799
77.4258 1653 40.6571
77.5423 1669 40.8534
77.6589 1610 40.1248
77.7755 1448 38.0526
77.8921 1414 37.6032
78.0088 1286 35.8608
78.1256 1254 35.4119
78.2423 1199 34.6266
78.3591 1225 35
78.4759 1378 37.1214
78.5928 1461 38.223
78.7097 1599 39.9875
78.8266 1598 39.975
78.9436 1542 39.2683
79.0606 1655 40.6817
79.1776 1622 40.2741
79.2946 1639 40.4846
79.4117 1669 40.8534
79.5288 1686 41.0609
79.6459 1696 41.1825
79.7631 1509 38.8458
79.8802 1482 38.4968
79.9974 1387 37.2424
80.1147 1327 36.428
80.2319 1293 35.9583
80.3491 1322 36.3593
80.4664 1376 37.0945
80.5837 1441 37.9605
80.701 1615 40.1871
80.8183 1687 41.0731
80.9357 1657 40.7063
81.053 1691 41.1218
81.1704 1673 40.9023
81.2877 1696 41.1825
81.4051 1688 41.0853
81.5225 1513 38.8973
81.6399 1409 37.5366
81.7573 1275 35.7071
81.8747 1216 34.8712
81.9922 1198 34.6121
82.1096 1321 36.3456
82.227 1516 38.9358
82.3444 1522 39.0128
82.4619 1622 40.2741
82.5793 1730 41.5933
82.6967 1700 41.2311
82.8142 1739 41.7013
82.9316 1730 41.5933
83.049 1767 42.0357
83.1664 1741 41.7253
83.2838 1670 40.8656
83.4012 1742 41.7373
83.5186 1639 40.4846
83.636 1517 38.9487
83.7534 1450 38.0789
83.8708 1418 37.6563
83.9881 1368 36.9865
84.1055 1315 36.2629
84.2228 1468 38.3145
84.3401 1589 39.8623
84.4575 1677 40.9512
84.5747 1709 41.3401
84.692 1742 41.7373
84.8093 1736 41.6653
84.9265 1677 40.9512
85.0437 1607 40.0874
85.1609 1495 38.6652
85.2781 1368 36.9865
85.3952 1301 36.0694
85.5123 1193 34.5398
85.6294 1264 35.5528
85.7465 1355 36.8103
85.8636 1595 39.9375
85.9806 1620 40.2492
86.0976 1627 40.3361
86.2145 1640 40.4969
86.3315 1713 41.3884
86.4484 1714 41.4005
86.5652 1784 42.2374
86.682 1825 42.72
86.7988 1789 42.2966
86.9156 1703 41.2674
87.0323 1600 40
87.149 1669 40.8534
87.2657 1496 38.6782
87.3823 1354 36.7967
87.4988 1242 35.242
87.6154 1220 34.9285
87.7318 1189 34.4819
87.8483 1230 35.0714
87.9647 1308 36.1663
88.081 1354 36.7967
88.1973 1372 37.0405
88.3136 1314 36.2491
88.4298 1272 35.6651
88.546 1189 34.4819
88.6621 1013 31.8277
88.7781 761 27.5862
88.8942 0 1
89.0101 0 1
89.126 0 1
89.2419 0 1
89.3577 0 1
89.4734 0 1
89.5891 0 1
89.7047 0 1
89.8203 0 1
89.9358 0 1
92.3269 0 1
92.4424 0 1
92.558 0 1
92.6736 0 1
92.7893 0 1
92.905 0 1
93.0208 0 1
93.1366 0 1
93.2525 0 1
93.3685 0 1
93.4845 0 1
93.6005 1248 35.327
93.7167 1257 35.4542
93.8328 1418 37.6563
93.949 1490 38.6005
94.0653 1514 38.9102
94.1816 1555 39.4335
94.2979 1412 37.5766
94.4143 1412 37.5766
94.5307 1305 36.1248
94.6472 1267 35.5949
94.7637 1245 35.2846
94.8803 1336 36.5513
94.9969 1521 39
95.1135 1627 40.3361
95.2302 1657 40.7063
95.3469 1752 41.8569
95.4637 1710 41.3521
95.5805 1795 42.3674
95.6973 1780 42.19
95.8142 1791 42.3202
95.9311 1700 41.2311
96.048 1735 41.6533
96.1649 1760 41.9524
96.2819 1616 40.1995
96.3989 1573 39.6611
96.516 1595 39.9375
96.633 1530 39.1152
96.7501 1369 37
96.8673 1444 38
96.9844 1448 38.0526
97.1016 1523 39.0256
97.2188 1665 40.8044
97.336 1734 41.6413
97.4532 1796 42.3792
97.5704 1822 42.6849
97.6877 1759 41.9404
97.805 1752 41.8569
97.9223 1633 40.4104
98.0396 1540 39.2428
98.1569 1406 37.4967
98.2743 1344 36.6606
98.3916 1209 34.7707
98.509 1403 37.4566
98.6264 1546 39.3192
98.7438 1587 39.8372
98.8612 1722 41.497
98.9786 1773 42.107
99.096 1791 42.3202
99.2134 1898 43.566
99.3308 1814 42.5911
99.4482 1832 42.8019
99.5656 1863 43.1625
99.6831 1828 42.7551
99.8005 1774 42.1189
99.9179 1792 42.332
100.035 1711 41.3642
100.153 1722 41.497
100.27 1459 38.1969
100.388 1495 38.6652
100.505 1530 39.1152
100.622 1638 40.4722
100.74 1790 42.3084
100.857 1891 43.4856
100.975 1849 43
101.092 1878 43.3359
101.209 1956 44.2267
101.327 1942 44.0681
101.444 1858 43.1045
101.561 1710 41.3521
101.679 1571 39.6358
101.796 1402 37.4433
101.913 1335 36.5377
102.03 1397 37.3765
102.148 1520 38.9872
102.265 1653 40.6571
102.382 1772 42.0951
102.499 1857 43.0929
102.616 1968 44.3621
102.733 1951 44.1701
102.851 1931 43.9431
102.968 1978 44.4747
103.085 1880 43.359
103.202 2121 46.0543
103.319 2017 44.911
103.436 1897 43.5546
103.552 1830 42.7785
103.669 1776 42.1426
103.786 1739 41.7013
103.903 1555 39.4335
104.02 1690 41.1096
104.137 1688 41.0853
104.253 1772 42.0951
104.37 1950 44.1588
104.487 2117 46.0109
104.603 2057 45.3542
104.72 2038 45.1442
104.836 1962 44.2945
104.953 1858 43.1045
105.069 1595 39.9375
105.186 1469 38.3275
105.302 1383 37.1887
105.418 1289 35.9026
105.535 1156 34
105.651 1295 35.9861
105.767 1222 34.9571
105.883 1304 36.1109
105.999 1205 34.7131
106.115 0 1
106.231 0 1
106.347 0 1
106.463 0 1
106.579 0 1
106.694 0 1
106.81 0 1
106.926 0 1
107.041 0 1
107.157 0 1
109.576 0 1
109.692 0 1
109.807 0 1
109.923 0 1
110.039 0 1
110.155 0 1
110.27 0 1
110.386 0 1
110.502 0 1
110.618 808 28.4253
110.735 1067 32.665
110.851 1245 35.2846
110.967 1358 36.8511
111.083 1528 39.0896
111.199 1552 39.3954
111.316 1675 40.9268
111.432 1766 42.0238
111.549 1849 43
111.665 1824 42.7083
111.782 1845 42.9535
111.898 1830 42.7785
112.015 1812 42.5676
112.132 1744 41.7612
112.248 1611 40.1373
112.365 1565 39.5601
112.482 1494 38.6523
112.599 1520 38.9872
112.716 1743 41.7493
112.832 1787 42.2729
112.949 1887 43.4396
113.066 1819 42.6497
113.183 1971 44.3959
113.3 1835 42.8369
113.417 1911 43.715
113.534 1769 42.0595
113.652 1595 39.9375
113.769 1502 38.7556
113.886 1377 37.108
114.003 1324 36.3868
114.12 1341 36.6197
114.238 1540 39.2428
114.355 1634 40.4228
114.472 1685 41.0488
114.589 1840 42.8952
114.707 1854 43.0581
114.824 1989 44.5982
114.942 1980 44.4972
115.059 1958 44.2493
115.176 1971 44.3959
115.294 1903 43.6234
115.411 1844 42.9418
115.529 1783 42.2256
115.646 1789 42.2966
115.764 1683 41.0244
115.881 1590 39.8748
115.999 1517 38.9487
116.116 1529 39.1024
116.234 1596 39.95
116.351 1827 42.7434
116.469 1854 43.0581
116.586 1869 43.2319
116.704 1869 43.2319
116.821 1867 43.2088
116.939 1991 44.6206
117.056 1927 43.8976
117.174 1747 41.7971
117.291 1571 39.6358
117.409 1560 39.4968
117.526 1455 38.1445
117.644 1353 36.7831
117.761 1400 37.4166
117.879 1595 39.9375
117.996 1676 40.939
118.114 1718 41.4488
118.231 1802 42.45
118.349 1841 42.9069
118.466 1823 42.6966
118.584 1752 41.8569
118.701 1892 43.4971
118.819 1776 42.1426
118.936 1782 42.2137
119.053 1726 41.5452
119.171 1755 41.8927
119.288 1690 41.1096
119.405 1613 40.1622
119.523 1500 38.7298
119.64 1530 39.1152
119.757 1507 38.8201
119.875 1518 38.9615
119.992 1555 39.4335
120.109 1791 42.3202
120.226 1791 42.3202
120.343 1810 42.5441
120.46 1776 42.1426
120.578 1808 42.5206
120.695 1726 41.5452
120.812 1683 41.0244
120.929 1581 39.7618
121.046 1444 38
121.163 1316 36.2767
121.279 1265 35.5668
121.396 1232 35.0999
121.513 1324 36.3868
121.63 1420 37.6829
121.747 1420 37.6829
121.863 1377 37.108
121.98 1423 37.7227
122.097 1440 37.9473
122.213 1455 38.1445
122.33 1401 37.4299
122.446 1341 36.6197
122.563 1220 34.9285
122.679 1239 35.1994
122.795 1160 34.0588
122.912 1029 32.078
123.028 902 30.0333
123.144 786 28.0357
123.26 681 26.096
123.377 0 1
123.493 0 1
123.609 0 1
123.725 0 1
123.84 0 1
123.956 0 1
124.072 0 1
124.188 0 1
124.303 0 1
124.419 0 1
126.852 0 1
126.968 0 1
127.083 0 1
127.199 0 1
127.315 0 1
127.431 0 1
127.547 0 1
127.663 0 1
127.779 0 1
127.895 0 1
128.011 0 1
128.127 0 1
128.243 0 1
128.359 1659 40.7308
128.476 1646 40.5709
128.592 1586 39.8246
128.708 1575 39.6863
128.825 1626 40.3237
128.941 1694 41.1582
129.058 1751 41.845
129.174 1863 43.1625
129.291 1837 42.8602
129.408 1867 43.2088
129.524 1922 43.8406
129.641 1937 44.0114
129.758 1914 43.7493
129.875 1812 42.5676
129.992 1640 40.4969
130.108 1531 39.128
130.225 1520 38.9872
130.342 1441 37.9605
130.459 1478 38.4448
130.576 1548 39.3446
130.693 1667 40.8289
130.81 1797 42.391
130.928 1773 42.107
131.045 1822 42.6849
131.162 1908 43.6807
131.279 1888 43.4511
131.396 1914 43.7493
131.513 1810 42.5441
131.631 1927 43.8976
131.748 1809 42.5323
131.865 1707 41.3159
131.983 1753 41.8688
132.1 1684 41.0366
132.217 1609 40.1123
132.335 1597 39.9625
132.452 1715 41.4126
132.57 1777 42.1545
132.687 1899 43.5775
132.804 1882 43.382
132.922 1922 43.8406
133.039 1925 43.8748
133.157 1987 44.5758
133.274 1923 43.852
133.392 1886 43.4281
133.509 1781 42.2019
133.627 1628 40.3485
133.744 1524 39.0384
133.862 1523 39.0256
133.979 1461 38.223
134.097 1637 40.4599
134.214 1657 40.7063
134.332 1753 41.8688
134.449 1785 42.2493
134.567 1790 42.3084
134.684 1885 43.4166
134.802 1990 44.6094
134.919 1899 43.5775
135.037 1860 43.1277
135.154 1852 43.0349
135.272 1944 44.0908
135.389 1882 43.382
135.507 1797 42.391
135.624 1779 42.1782
135.742 1687 41.0731
135.859 1665 40.8044
135.977 1755 41.8927
136.094 1711 41.3642
136.211 1783 42.2256
136.329 1908 43.6807
136.446 1862 43.1509
136.564 1972 44.4072
136.681 1952 44.1814
136.798 1982 44.5197
136.915 1929 43.9204
137.033 1857 43.0929
137.15 1664 40.7922
137.267 1625 40.3113
137.384 1554 39.4208
137.502 1471 38.3536
137.619 1433 37.855
137.736 1614 40.1746
137.853 1645 40.5586
137.97 1766 42.0238
138.087 1778 42.1663
138.204 1889 43.4626
138.321 1870 43.2435
138.438 1933 43.9659
138.555 1948 44.1362
138.672 1965 44.3283
138.788 1837 42.8602
138.905 1771 42.0833
139.022 1663 40.7799
139.139 1644 40.5463
139.255 1488 38.5746
139.372 1368 36.9865
139.488 1230 35.0714
139.605 1229 35.0571
139.721 1212 34.8138
139.838 1229 35.0571
139.954 1251 35.3695
140.071 1214 34.8425
140.187 1098 33.1361
140.303 1055 32.4808
140.419 1013 31.8277
140.535 919 30.315
140.652 867 29.4449
140.768 0 1
140.884 0 1
141 0 1
141.115 0 1
141.231 0 1
141.347 0 1
141.463 0 1
141.578 0 1
141.694 0 1
144.104 0 1
144.219 0 1
144.335 0 1
144.45 0 1
144.566 0 1
144.682 0 1
144.798 0 1
144.914 0 1
145.03 0 1
145.146 1358 36.8511
145.262 1518 38.9615
145.378 1578 39.724
145.494 1517 38.9487
145.61 1543 39.281
145.726 1514 38.9102
145.842 1352 36.7696
145.959 1414 37.6032
146.075 1266 35.5809
146.192 1245 35.2846
146.308 1184 34.4093
146.425 1280 35.7771
146.541 1312 36.2215
146.658 1370 37.0135
146.774 1324 36.3868
146.891 1369 37
147.008 1451 38.092
147.125 1498 38.704
147.241 1491 38.6135
147.358 1547 39.3319
147.475 1514 38.9102
147.592 1482 38.4968
147.709 1425 37.7492
147.826 1408 37.5233
147.943 1367 36.973
148.06 1342 36.6333
148.177 1278 35.7491
148.294 1299 36.0416
148.411 1293 35.9583
148.528 1363 36.9188
148.645 1415 37.6165
148.762 1431 37.8286
148.88 1523 39.0256
148.997 1485 38.5357
149.114 1519 38.9744
149.231 1541 39.2556
149.349 1521 39
149.466 1411 37.5633
149.583 1396 37.3631
149.701 1342 36.6333
149.818 1241 35.2278
149.935 1230 35.0714
150.053 1201 34.6554
150.17 1202 34.6699
150.287 1227 35.0286
150.405 1320 36.3318
150.522 1345 36.6742
150.64 1391 37.2961
150.757 1382 37.1753
150.875 1487 38.5616
150.992 1401 37.4299
151.11 1472 38.3667
151.227 1395 37.3497
151.344 1462 38.2361
151.462 1423 37.7227
151.579 1366 36.9594
151.697 1388 37.2559
151.814 1327 36.428
151.932 1330 36.4692
152.049 1318 36.3043
152.167 1326 36.4143
152.284 1382 37.1753
152.402 1371 37.027
152.519 1431 37.8286
152.636 1386 37.229
152.754 1459 38.1969
152.871 1396 37.3631
152.989 1429 37.8021
153.106 1379 37.1349
153.223 1332 36.4966
153.341 1185 34.4238
153.458 1205 34.7131
153.575 1132 33.6452
153.693 1117 33.4215
153.81 1204 34.6987
153.927 1249 35.3412
154.044 1251 35.3695
154.162 1265 35.5668
154.279 1251 35.3695
154.396 1321 36.3456
154.513 1363 36.9188
154.63 1351 36.756
154.747 1356 36.8239
154.864 1318 36.3043
154.981 1299 36.0416
155.098 1294 35.9722
155.215 1249 35.3412
155.332 1196 34.5832
155.449 1150 33.9116
155.566 1128 33.5857
155.683 1168 34.176
155.8 1215 34.8569
155.917 1152 33.9411
156.033 1244 35.2704
156.15 0 1
156.267 0 1
156.383 0 1
156.5 0 1
156.617 0 1
156.733 0 1
156.85 0 1
156.966 0 1
157.082 0 1
157.199 0 1
157.315 0 1
157.431 0 1
157.547 0 1
157.664 0 1
157.78 0 1
157.896 0 1
158.012 0 1
158.128 0 1
158.244 0 1
158.359 0 1
158.475 0 1
158.591 0 1
158.706 0 1
