
6.15755 0 1
6.2731 0 1
6.3887 0 1
6.50437 0 1
6.62009 0 1
6.73587 0 1
6.8517 0 1
6.96759 0 1
7.08353 0 1
7.19952 0 1
7.31557 0 1
7.43166 0 1
7.54781 0 1
7.664 0 1
7.78024 0 1
7.89653 0 1
8.01286 0 1
8.12924 0 1
8.24567 0 1
8.36213 0 1
8.47864 0 1
8.59519 0 1
8.71178 0 1
8.82841 0 1
8.94508 0 1
9.06179 0 1
9.17853 0 1
9.29531 0 1
9.41212 0 1
9.52897 0 1
9.64584 0 1
9.76276 0 1
9.8797 0 1
9.99667 0 1
10.1137 0 1
10.2307 0 1
10.3478 0 1
10.4648 0 1
10.5819 0 1
10.6991 0 1
10.8162 0 1
10.9334 0 1
11.0506 0 1
11.1678 0 1
11.285 0 1
11.4023 0 1
11.5196 0 1
11.6369 0 1
11.7542 0 1
11.8715 0 1
11.9888 0 1
12.1062 0 1
12.2235 0 1
12.3409 0 1
12.4582 0 1
12.5756 0 1
12.693 0 1
12.8104 0 1
12.9278 0 1
13.0452 0 1
13.1626 0 1
13.28 0 1
13.3974 0 1
13.5149 0 1
13.6323 0 1
13.7497 0 1
13.8671 0 1
13.9845 0 1
14.1019 0 1
14.2193 0 1
14.3367 0 1
14.4541 0 1
14.5714 0 1
14.6888 0 1
14.8062 0 1
14.9235 0 1
15.0408 0 0
15.1581 0 0
15.2755 0 0
15.3927 0 0
15.51 0 0
15.6273 0 0
15.7445 0 0
15.8617 0 0
15.9789 0 0
16.0961 0 0
16.2132 0 0
16.3304 0 0
16.4475 0 0
16.5646 0 0
16.6816 0 0
16.7986 0 0
16.9156 0 0
17.0326 0 0
17.1496 0 0
17.2665 0 0
17.3833 0 0
17.5002 0 0
17.617 0 0
17.7338 0 0
17.8505 0 0
17.9672 0 0
18.0839 0 0
18.2005 0 0
18.3171 0 0
18.4337 0 0
18.5502 0 0
18.6666 0 0
18.7831 0 0
18.8994 0 0
19.0158 0 0
19.1321 0 0
19.2483 0 0
19.3645 0 0
19.4806 0 0
19.5967 0 0
19.7128 0 0
19.8288 0 0
19.9447 0 0
20.0606 0 1
20.1764 0 1
20.2922 0 1
20.4079 0 1
20.5236 0 1
20.6392 0 1
20.7548 0 1
20.8702 0 1
23.3078 0 1
23.4233 0 1
23.539 0 1
23.6547 0 1
23.7704 0 1
23.8862 0 1
24.0021 0 1
24.118 0 1
24.234 0 1
24.35 0 1
24.4661 972 31.1769
24.5822 989 31.4484
24.6984 965 31.0644
24.8146 1001 31.6386
24.9309 933 30.545
25.0472 988 31.4325
25.1636 1059 32.5423
25.28 1031 32.1092
25.3965 1030 32.0936
25.513 1025 32.0156
25.6296 1102 33.1964
25.7462 1064 32.619
25.8628 1052 32.4345
25.9795 1077 32.8177
26.0962 1045 32.3265
26.213 1123 33.5112
26.3298 1051 32.4191
26.4466 1031 32.1092
26.5635 1058 32.5269
26.6804 1064 32.619
26.7973 1022 31.9687
26.9143 925 30.4138
27.0313 915 30.249
27.1483 918 30.2985
27.2653 962 31.0161
27.3824 951 30.8383
27.4996 1033 32.1403
27.6167 935 30.5778
27.7339 914 30.2324
27.8511 872 29.5296
27.9683 905 30.0832
28.0855 938 30.6268
28.2028 976 31.241
28.3201 896 29.9333
28.4374 964 31.0483
28.5547 950 30.8221
28.6721 948 30.7896
28.7894 994 31.5278
28.9068 1011 31.7962
29.0242 1019 31.9218
29.1416 995 31.5436
29.259 1001 31.6386
29.3764 991 31.4802
29.4939 1020 31.9374
29.6113 976 31.241
29.7288 996 31.5595
29.8463 988 31.4325
29.9638 1053 32.45
30.0812 960 30.9839
30.1987 980 31.305
30.3162 961 31
30.4337 924 30.3974
30.5512 845 29.0689
30.6687 851 29.1719
30.7862 826 28.7402
30.9037 897 29.95
31.0212 857 29.2746
31.1387 902 30.0333
31.2562 909 30.1496
31.3737 928 30.4631
31.4912 883 29.7153
31.6087 899 29.9833
31.7262 850 29.1548
31.8436 838 28.9482
31.9611 922 30.3645
32.0785 880 29.6648
32.1959 958 30.9516
32.3134 963 31.0322
32.4308 978 31.273
32.5482 979 31.289
32.6655 979 31.289
32.7829 975 31.225
32.9002 979 31.289
33.0176 1015 31.8591
33.1349 970 31.1448
33.2522 978 31.273
33.3694 947 30.7734
33.4867 909 30.1496
33.6039 984 31.3688
33.7211 972 31.1769
33.8383 944 30.7246
33.9554 903 30.05
34.0725 893 29.8831
34.1896 831 28.8271
34.3067 811 28.4781
34.4237 797 28.2312
34.5407 829 28.7924
34.6577 883 29.7153
34.7746 926 30.4302
34.8915 832 28.8444
35.0084 857 29.2746
35.1252 831 28.8271
35.242 865 29.4109
35.3587 812 28.4956
35.4755 889 29.8161
35.5921 876 29.5973
35.7088 893 29.8831
35.8254 948 30.7896
35.9419 941 30.6757
36.0584 942 30.692
36.1749 990 31.4643
36.2913 945 30.7409
36.4077 957 30.9354
36.524 968 31.1127
36.6403 950 30.8221
36.7565 916 30.2655
36.8727 938 30.6268
36.9889 944 30.7246
37.1049 915 30.249
37.221 0 1
37.3369 0 1
37.4529 0 1
37.5687 0 1
37.6845 0 1
37.8003 0 1
37.916 0 1
38.0316 0 1
38.1472 0 1
40.5851 0 1
40.7008 0 1
40.8164 0 1
40.9322 0 1
41.048 0 1
41.1639 0 1
41.2798 0 1
41.3958 0 1
41.5118 0 1
41.6279 0 1
41.744 726 26.9444
41.8602 784 28
41.9765 820 28.6356
42.0928 762 27.6043
42.2091 781 27.9464
42.3255 791 28.1247
42.4419 862 29.3598
42.5584 808 28.4253
42.675 791 28.1247
42.7915 809 28.4429
42.9081 731 27.037
43.0248 698 26.4197
43.1415 709 26.6271
43.2582 716 26.7582
43.375 716 26.7582
43.4918 761 27.5862
43.6087 729 27
43.7256 718 26.7955
43.8425 702 26.4953
43.9595 652 25.5343
44.0765 722 26.8701
44.1935 669 25.865
44.3106 675 25.9808
44.4277 767 27.6948
44.5448 762 27.6043
44.6619 749 27.3679
44.7791 693 26.3249
44.8963 763 27.6225
45.0136 735 27.1109
45.1308 681 26.096
45.2481 697 26.4008
45.3654 673 25.9422
45.4827 649 25.4755
45.6001 638 25.2587
45.7174 661 25.7099
45.8348 646 25.4165
45.9522 645 25.3969
46.0697 618 24.8596
46.1871 603 24.5561
46.3046 631 25.1197
46.422 632 25.1396
46.5395 569 23.8537
46.657 635 25.1992
46.7745 527 22.9565
46.892 509 22.561
47.0096 501 22.383
47.1271 559 23.6432
47.2446 562 23.7065
47.3622 531 23.0434
47.4797 545 23.3452
47.5973 484 22
47.7149 538 23.1948
47.8324 524 22.891
47.95 508 22.5389
48.0675 534 23.1084
48.1851 483 21.9773
48.3027 531 23.0434
48.4202 522 22.8473
48.5378 517 22.7376
48.6554 576 24
48.7729 560 23.6643
48.8904 532 23.0651
49.008 544 23.3238
49.1255 478 21.8632
49.243 514 22.6716
49.3605 515 22.6936
49.478 537 23.1733
49.5955 554 23.5372
49.713 512 22.6274
49.8304 554 23.5372
49.9479 545 23.3452
50.0653 566 23.7908
50.1827 516 22.7156
50.3001 484 22
50.4175 425 20.6155
50.5348 506 22.4944
50.6521 547 23.388
50.7694 525 22.9129
50.8867 499 22.3383
51.004 632 25.1396
51.1212 570 23.8747
51.2384 589 24.2693
51.3556 622 24.9399
51.4727 680 26.0768
51.5899 645 25.3969
51.707 691 26.2869
51.824 709 26.6271
51.9411 620 24.8998
52.0581 699 26.4386
52.175 655 25.593
52.2919 658 25.6515
52.4088 686 26.1916
52.5257 742 27.2397
52.6425 686 26.1916
52.7593 662 25.7294
52.876 705 26.5518
52.9927 712 26.6833
53.1094 761 27.5862
53.226 784 28
53.3426 684 26.1534
53.4591 780 27.9285
53.5756 695 26.3629
53.692 748 27.3496
53.8084 701 26.4764
53.9248 650 25.4951
54.0411 565 23.7697
54.1573 651 25.5147
54.2735 0 1
54.3896 0 1
54.5057 0 1
54.6217 0 1
54.7377 0 1
54.8537 0 1
54.9695 0 1
55.0853 0 1
55.2011 0 1
55.3168 0 1
55.4324 0 1
57.824 0 1
57.9396 0 1
58.0553 0 1
58.1711 0 1
58.2869 0 1
58.4028 0 1
58.5187 0 1
58.6347 0 1
58.7508 0 1
58.8669 0 1
58.983 777 27.8747
59.0992 740 27.2029
59.2155 729 27
59.3318 659 25.671
59.4482 702 26.4953
59.5646 671 25.9037
59.681 721 26.8514
59.7975 758 27.5318
59.9141 705 26.5518
60.0306 769 27.7308
60.1473 800 28.2843
60.2639 851 29.1719
60.3807 761 27.5862
60.4974 750 27.3861
60.6142 802 28.3196
60.731 800 28.2843
60.8479 778 27.8927
60.9648 766 27.6767
61.0818 776 27.8568
61.1987 748 27.3496
61.3158 782 27.9643
61.4328 781 27.9464
61.5499 762 27.6043
61.667 726 26.9444
61.7841 743 27.258
61.9013 743 27.258
62.0185 746 27.313
62.1357 774 27.8209
62.253 724 26.9072
62.3702 706 26.5707
62.4875 680 26.0768
62.6049 666 25.807
62.7222 672 25.923
62.8396 690 26.2679
62.9569 630 25.0998
63.0743 629 25.0799
63.1918 633 25.1595
63.3092 681 26.096
63.4267 697 26.4008
63.5441 689 26.2488
63.6616 664 25.7682
63.7791 689 26.2488
63.8966 724 26.9072
64.0142 723 26.8887
64.1317 655 25.593
64.2492 655 25.593
64.3668 675 25.9808
64.4843 692 26.3059
64.6019 601 24.5153
64.7195 643 25.3574
64.837 601 24.5153
64.9546 638 25.2587
65.0722 657 25.632
65.1898 631 25.1197
65.3074 612 24.7386
65.4249 642 25.3377
65.5425 656 25.6125
65.6601 607 24.6374
65.7777 647 25.4362
65.8952 625 25
66.0128 599 24.4745
66.1304 620 24.8998
66.2479 524 22.891
66.3655 505 22.4722
66.483 534 23.1084
66.6005 551 23.4734
66.718 572 23.9165
66.8355 620 24.8998
66.953 575 23.9792
67.0705 589 24.2693
67.1879 562 23.7065
67.3054 571 23.8956
67.4228 580 24.0832
67.5402 595 24.3926
67.6576 597 24.4336
67.7749 593 24.3516
67.8923 555 23.5584
68.0096 615 24.7992
68.1269 590 24.2899
68.2442 563 23.7276
68.3614 605 24.5967
68.4787 568 23.8328
68.5958 570 23.8747
68.713 554 23.5372
68.8302 597 24.4336
68.9473 643 25.3574
69.0643 564 23.7487
69.1814 590 24.2899
69.2984 572 23.9165
69.4154 555 23.5584
69.5323 611 24.7184
69.6492 569 23.8537
69.7661 574 23.9583
69.8829 550 23.4521
69.9997 490 22.1359
70.1165 454 21.3073
70.2332 516 22.7156
70.3499 564 23.7487
70.4665 516 22.7156
70.5831 516 22.7156
70.6996 544 23.3238
70.8161 537 23.1733
70.9326 566 23.7908
71.049 554 23.5372
71.1653 512 22.6274
71.2817 500 22.3607
71.3979 534 23.1084
71.5141 490 22.1359
71.6303 498 22.3159
71.7464 457 21.3776
71.8624 0 1
71.9784 0 1
72.0944 0 1
72.2102 0 1
72.3261 0 1
72.4418 0 1
72.5575 0 1
72.6732 0 1
75.1054 0 1
75.2209 0 1
75.3365 0 1
75.4521 0 1
75.5678 0 1
75.6835 0 1
75.7993 0 1
75.9151 0 1
76.031 0 1
76.147 405 20.1246
76.263 423 20.567
76.3791 449 21.1896
76.4952 430 20.7364
76.6113 429 20.7123
76.7276 430 20.7364
76.8438 401 20.025
76.9601 396 19.8997
77.0765 421 20.5183
77.1929 388 19.6977
77.3093 448 21.166
77.4258 404 20.0998
77.5423 402 20.0499
77.6589 387 19.6723
77.7755 387 19.6723
77.8921 347 18.6279
78.0088 369 19.2094
78.1256 387 19.6723
78.2423 384 19.5959
78.3591 359 18.9473
78.4759 366 19.1311
78.5928 370 19.2354
78.7097 393 19.8242
78.8266 361 19
78.9436 269 16.4012
79.0606 278 16.6733
79.1776 278 16.6733
79.2946 232 15.2315
79.4117 283 16.8226
79.5288 319 17.8606
79.6459 306 17.4929
79.7631 275 16.5831
79.8802 312 17.6635
79.9974 276 16.6132
80.1147 294 17.1464
80.2319 292 17.088
80.3491 256 16
80.4664 232 15.2315
80.5837 238 15.4272
80.701 264 16.2481
80.8183 212 14.5602
80.9357 231 15.1987
81.053 289 17
81.1704 258 16.0624
81.2877 241 15.5242
81.4051 214 14.6287
81.5225 211 14.5258
81.6399 193 13.8924
81.7573 206 14.3527
81.8747 192 13.8564
81.9922 186 13.6382
82.1096 190 13.784
82.227 184 13.5647
82.3444 188 13.7113
82.4619 144 12
82.5793 188 13.7113
82.6967 153 12.3693
82.8142 138 11.7473
82.9316 114 10.6771
83.049 124 11.1355
83.1664 139 11.7898
83.2838 127 11.2694
83.4012 111 10.5357
83.5186 135 11.619
83.636 126 11.225
83.7534 108 10.3923
83.8708 97 9.84886
83.9881 109 10.4403
84.1055 90 9.48683
84.2228 95 9.74679
84.3401 103 10.1489
84.4575 86 9.27362
84.5747 92 9.59166
84.692 86 9.27362
84.8093 68 8.24621
84.9265 58 7.61577
85.0437 87 9.32738
85.1609 76 8.7178
85.2781 66 8.12404
85.3952 72 8.48528
85.5123 72 8.48528
85.6294 78 8.83176
85.7465 58 7.61577
85.8636 72 8.48528
85.9806 86 9.27362
86.0976 65 8.06226
86.2145 46 6.78233
86.3315 57 7.54983
86.4484 94 9.69536
86.5652 88 9.38083
86.682 96 9.79796
86.7988 95 9.74679
86.9156 102 10.0995
87.0323 109 10.4403
87.149 127 11.2694
87.2657 104 10.198
87.3823 106 10.2956
87.4988 121 11
87.6154 117 10.8167
87.7318 127 11.2694
87.8483 136 11.6619
87.9647 155 12.4499
88.081 157 12.53
88.1973 141 11.8743
88.3136 156 12.49
88.4298 166 12.8841
88.546 168 12.9615
88.6621 176 13.2665
88.7781 219 14.7986
88.8942 0 1
89.0101 0 1
89.126 0 1
89.2419 0 1
89.3577 0 1
89.4734 0 1
89.5891 0 1
89.7047 0 1
89.8203 0 1
89.9358 0 1
92.3269 0 1
92.4424 0 1
92.558 0 1
92.6736 0 1
92.7893 0 1
92.905 0 1
93.0208 0 1
93.1366 0 1
93.2525 0 1
93.3685 0 1
93.4845 0 1
93.6005 279 16.7033
93.7167 314 17.72
93.8328 282 16.7929
93.949 294 17.1464
94.0653 262 16.1864
94.1816 283 16.8226
94.2979 295 17.1756
94.4143 238 15.4272
94.5307 248 15.748
94.6472 246 15.6844
94.7637 243 15.5885
94.8803 252 15.8745
94.9969 233 15.2643
95.1135 212 14.5602
95.2302 234 15.2971
95.3469 203 14.2478
95.4637 157 12.53
95.5805 174 13.1909
95.6973 209 14.4568
95.8142 262 16.1864
95.9311 252 15.8745
96.048 242 15.5563
96.1649 261 16.1555
96.2819 276 16.6132
96.3989 286 16.9115
96.516 292 17.088
96.633 267 16.3401
96.7501 299 17.2916
96.8673 327 18.0831
96.9844 306 17.4929
97.1016 317 17.8045
97.2188 329 18.1384
97.336 343 18.5203
97.4532 319 17.8606
97.5704 336 18.3303
97.6877 365 19.105
97.805 383 19.5704
97.9223 363 19.0526
98.0396 397 19.9249
98.1569 415 20.3715
98.2743 441 21
98.3916 424 20.5913
98.509 401 20.025
98.6264 432 20.7846
98.7438 438 20.9284
98.8612 385 19.6214
98.9786 389 19.7231
99.096 319 17.8606
99.2134 295 17.1756
99.3308 423 20.567
99.4482 484 22
99.5656 502 22.4054
99.6831 521 22.8254
99.8005 510 22.5832
99.9179 510 22.5832
100.035 493 22.2036
100.153 507 22.5167
100.27 497 22.2935
100.388 522 22.8473
100.505 546 23.3666
100.622 576 24
100.74 567 23.8118
100.857 600 24.4949
100.975 562 23.7065
101.092 594 24.3721
101.209 580 24.0832
101.327 575 23.9792
101.444 546 23.3666
101.561 537 23.1733
101.679 577 24.0208
101.796 588 24.2487
101.913 607 24.6374
102.03 559 23.6432
102.148 600 24.4949
102.265 600 24.4949
102.382 559 23.6432
102.499 568 23.8328
102.616 449 21.1896
102.733 392 19.799
102.851 537 23.1733
102.968 602 24.5357
103.085 606 24.6171
103.202 611 24.7184
103.319 604 24.5764
103.436 629 25.0799
103.552 658 25.6515
103.669 583 24.1454
103.786 644 25.3772
103.903 661 25.7099
104.02 612 24.7386
104.137 641 25.318
104.253 608 24.6577
104.37 629 25.0799
104.487 604 24.5764
104.603 651 25.5147
104.72 615 24.7992
104.836 651 25.5147
104.953 705 26.5518
105.069 568 23.8328
105.186 613 24.7588
105.302 669 25.865
105.418 653 25.5539
105.535 683 26.1343
105.651 645 25.3969
105.767 684 26.1534
105.883 606 24.6171
105.999 525 22.9129
106.115 0 1
106.231 0 1
106.347 0 1
106.463 0 1
106.579 0 1
106.694 0 1
106.81 0 1
106.926 0 1
107.041 0 1
107.157 0 1
109.576 0 1
109.692 0 1
109.807 0 1
109.923 0 1
110.039 0 1
110.155 0 1
110.27 0 1
110.386 0 1
110.502 0 1
110.618 490 22.1359
110.735 532 23.0651
110.851 502 22.4054
110.967 487 22.0681
111.083 501 22.383
111.199 410 20.2485
111.316 390 19.7484
111.432 429 20.7123
111.549 456 21.3542
111.665 470 21.6795
111.782 454 21.3073
111.898 461 21.4709
112.015 475 21.7945
112.132 473 21.7486
112.248 436 20.8806
112.365 443 21.0476
112.482 431 20.7605
112.599 412 20.2978
112.716 430 20.7364
112.832 432 20.7846
112.949 411 20.2731
113.066 389 19.7231
113.183 445 21.095
113.3 418 20.445
113.417 394 19.8494
113.534 388 19.6977
113.652 382 19.5448
113.769 347 18.6279
113.886 365 19.105
114.003 370 19.2354
114.12 392 19.799
114.238 346 18.6011
114.355 381 19.5192
114.472 368 19.1833
114.589 343 18.5203
114.707 312 17.6635
114.824 307 17.5214
114.942 314 17.72
115.059 350 18.7083
115.176 349 18.6815
115.294 351 18.735
115.411 373 19.3132
115.529 363 19.0526
115.646 360 18.9737
115.764 335 18.303
115.881 342 18.4932
115.999 343 18.5203
116.116 319 17.8606
116.234 360 18.9737
116.351 347 18.6279
116.469 357 18.8944
116.586 379 19.4679
116.704 347 18.6279
116.821 378 19.4422
116.939 336 18.3303
117.056 344 18.5472
117.174 353 18.7883
117.291 371 19.2614
117.409 385 19.6214
117.526 365 19.105
117.644 372 19.2873
117.761 355 18.8414
117.879 316 17.7764
117.996 282 16.7929
118.114 278 16.6733
118.231 314 17.72
118.349 329 18.1384
118.466 340 18.4391
118.584 334 18.2757
118.701 324 18
118.819 375 19.3649
118.936 364 19.0788
119.053 362 19.0263
119.171 364 19.0788
119.288 346 18.6011
119.405 372 19.2873
119.523 362 19.0263
119.64 351 18.735
119.757 386 19.6469
119.875 374 19.3391
119.992 410 20.2485
120.109 345 18.5742
120.226 369 19.2094
120.343 359 18.9473
120.46 395 19.8746
120.578 365 19.105
120.695 334 18.2757
120.812 390 19.7484
120.929 375 19.3649
121.046 417 20.4206
121.163 388 19.6977
121.279 386 19.6469
121.396 353 18.7883
121.513 347 18.6279
121.63 291 17.0587
121.747 270 16.4317
121.863 268 16.3707
121.98 310 17.6068
122.097 347 18.6279
122.213 391 19.7737
122.33 376 19.3907
122.446 367 19.1572
122.563 350 18.7083
122.679 369 19.2094
122.795 377 19.4165
122.912 393 19.8242
123.028 363 19.0526
123.144 389 19.7231
123.26 414 20.347
123.377 0 1
123.493 0 1
123.609 0 1
123.725 0 1
123.84 0 1
123.956 0 1
124.072 0 1
124.188 0 1
124.303 0 1
124.419 0 1
126.852 0 1
126.968 0 1
127.083 0 1
127.199 0 1
127.315 0 1
127.431 0 1
127.547 0 1
127.663 0 1
127.779 0 1
127.895 0 1
128.011 0 1
128.127 0 1
128.243 0 1
128.359 528 22.9783
128.476 478 21.8632
128.592 466 21.587
128.708 512 22.6274
128.825 500 22.3607
128.941 525 22.9129
129.058 502 22.4054
129.174 511 22.6053
129.291 554 23.5372
129.408 550 23.4521
129.524 514 22.6716
129.641 525 22.9129
129.758 507 22.5167
129.875 497 22.2935
129.992 541 23.2594
130.108 528 22.9783
130.225 474 21.7715
130.342 449 21.1896
130.459 422 20.5426
130.576 382 19.5448
130.693 374 19.3391
130.81 344 18.5472
130.928 371 19.2614
131.045 473 21.7486
131.162 517 22.7376
131.279 555 23.5584
131.396 508 22.5389
131.513 532 23.0651
131.631 558 23.622
131.748 569 23.8537
131.865 576 24
131.983 552 23.4947
132.1 591 24.3105
132.217 556 23.5797
132.335 565 23.7697
132.452 577 24.0208
132.57 604 24.5764
132.687 547 23.388
132.804 550 23.4521
132.922 521 22.8254
133.039 556 23.5797
133.157 590 24.2899
133.274 579 24.0624
133.392 561 23.6854
133.509 546 23.3666
133.627 547 23.388
133.744 588 24.2487
133.862 504 22.4499
133.979 467 21.6102
134.097 457 21.3776
134.214 438 20.9284
134.332 418 20.445
134.449 387 19.6723
134.567 419 20.4695
134.684 476 21.8174
134.802 577 24.0208
134.919 617 24.8395
135.037 579 24.0624
135.154 582 24.1247
135.272 611 24.7184
135.389 617 24.8395
135.507 652 25.5343
135.624 578 24.0416
135.742 609 24.6779
135.859 626 25.02
135.977 549 23.4307
136.094 585 24.1868
136.211 610 24.6982
136.329 652 25.5343
136.446 613 24.7588
136.564 650 25.4951
136.681 623 24.96
136.798 625 25
136.915 666 25.807
137.033 658 25.6515
137.15 587 24.2281
137.267 644 25.3772
137.384 603 24.5561
137.502 553 23.516
137.619 515 22.6936
137.736 516 22.7156
137.853 469 21.6564
137.97 442 21.0238
138.087 487 22.0681
138.204 505 22.4722
138.321 513 22.6495
138.438 632 25.1396
138.555 666 25.807
138.672 602 24.5357
138.788 655 25.593
138.905 654 25.5734
139.022 671 25.9037
139.139 666 25.807
139.255 716 26.7582
139.372 727 26.9629
139.488 689 26.2488
139.605 697 26.4008
139.721 706 26.5707
139.838 718 26.7955
139.954 694 26.3439
140.071 695 26.3629
140.187 692 26.3059
140.303 619 24.8797
140.419 695 26.3629
140.535 640 25.2982
140.652 677 26.0192
140.768 0 1
140.884 0 1
141 0 1
141.115 0 1
141.231 0 1
141.347 0 1
141.463 0 1
141.578 0 1
141.694 0 1
144.104 0 1
144.219 0 1
144.335 0 1
144.45 0 1
144.566 0 1
144.682 0 1
144.798 0 1
144.914 0 1
145.03 0 1
145.146 666 25.807
145.262 656 25.6125
145.378 651 25.5147
145.494 621 24.9199
145.61 635 25.1992
145.726 629 25.0799
145.842 637 25.2389
145.959 618 24.8596
146.075 612 24.7386
146.192 626 25.02
146.308 544 23.3238
146.425 536 23.1517
146.541 484 22
146.658 511 22.6053
146.774 553 23.516
146.891 559 23.6432
147.008 606 24.6171
147.125 553 23.516
147.241 626 25.02
147.358 674 25.9615
147.475 694 26.3439
147.592 652 25.5343
147.709 665 25.7876
147.826 674 25.9615
147.943 631 25.1197
148.06 673 25.9422
148.177 610 24.6982
148.294 693 26.3249
148.411 655 25.593
148.528 645 25.3969
148.645 632 25.1396
148.762 651 25.5147
148.88 662 25.7294
148.997 698 26.4197
149.114 616 24.8193
149.231 646 25.4165
149.349 634 25.1794
149.466 629 25.0799
149.583 637 25.2389
149.701 580 24.0832
149.818 544 23.3238
149.935 510 22.5832
150.053 532 23.0651
150.17 535 23.1301
150.287 558 23.622
150.405 536 23.1517
150.522 517 22.7376
150.64 611 24.7184
150.757 571 23.8956
150.875 553 23.516
150.992 634 25.1794
151.11 635 25.1992
151.227 649 25.4755
151.344 662 25.7294
151.462 636 25.219
151.579 668 25.8457
151.697 669 25.865
151.814 656 25.6125
151.932 659 25.671
152.049 654 25.5734
152.167 609 24.6779
152.284 625 25
152.402 618 24.8596
152.519 690 26.2679
152.636 674 25.9615
152.754 711 26.6646
152.871 639 25.2784
152.989 631 25.1197
153.106 661 25.7099
153.223 640 25.2982
153.341 618 24.8596
153.458 582 24.1247
153.575 622 24.9399
153.693 532 23.0651
153.81 548 23.4094
153.927 520 22.8035
154.044 580 24.0832
154.162 603 24.5561
154.279 629 25.0799
154.396 634 25.1794
154.513 682 26.1151
154.63 649 25.4755
154.747 677 26.0192
154.864 717 26.7769
154.981 685 26.1725
155.098 704 26.533
155.215 673 25.9422
155.332 723 26.8887
155.449 720 26.8328
155.566 723 26.8887
155.683 718 26.7955
155.8 676 26
155.917 763 27.6225
156.033 670 25.8844
156.15 0 1
156.267 0 1
156.383 0 1
156.5 0 1
156.617 0 1
156.733 0 1
156.85 0 1
156.966 0 1
157.082 0 1
157.199 0 1
157.315 0 1
157.431 0 1
157.547 0 1
157.664 0 1
157.78 0 1
157.896 0 1
158.012 0 1
158.128 0 1
158.244 0 1
158.359 0 1
158.475 0 1
158.591 0 1
158.706 0 1
