
6.15755 0 1
6.2731 0 1
6.3887 0 1
6.50437 0 1
6.62009 0 1
6.73587 0 1
6.8517 0 1
6.96759 0 1
7.08353 0 1
7.19952 0 1
7.31557 0 1
7.43166 0 1
7.54781 0 1
7.664 0 1
7.78024 0 1
7.89653 0 1
8.01286 0 1
8.12924 0 1
8.24567 0 1
8.36213 0 1
8.47864 0 1
8.59519 0 1
8.71178 0 1
8.82841 0 1
8.94508 0 1
9.06179 0 1
9.17853 0 1
9.29531 0 1
9.41212 0 1
9.52897 0 1
9.64584 0 1
9.76276 0 1
9.8797 0 1
9.99667 0 1
10.1137 0 1
10.2307 0 1
10.3478 0 1
10.4648 0 1
10.5819 0 1
10.6991 0 1
10.8162 0 1
10.9334 0 1
11.0506 0 1
11.1678 0 1
11.285 0 1
11.4023 0 1
11.5196 0 1
11.6369 0 1
11.7542 0 1
11.8715 0 1
11.9888 0 1
12.1062 0 1
12.2235 0 1
12.3409 0 1
12.4582 0 1
12.5756 0 1
12.693 0 1
12.8104 0 1
12.9278 0 1
13.0452 0 1
13.1626 0 1
13.28 0 1
13.3974 0 1
13.5149 0 1
13.6323 0 1
13.7497 0 1
13.8671 0 1
13.9845 0 1
14.1019 0 1
14.2193 0 1
14.3367 0 1
14.4541 0 1
14.5714 0 1
14.6888 0 1
14.8062 0 1
14.9235 0 1
15.0408 890 29.8329
15.1581 878 29.6311
15.2755 894 29.8998
15.3927 926 30.4302
15.51 900 30
15.6273 876 29.5973
15.7445 814 28.5307
15.8617 843 29.0345
15.9789 786 28.0357
16.0961 826 28.7402
16.2132 819 28.6182
16.3304 796 28.2135
16.4475 788 28.0713
16.5646 772 27.7849
16.6816 753 27.4408
16.7986 762 27.6043
16.9156 767 27.6948
17.0326 687 26.2107
17.1496 772 27.7849
17.2665 747 27.3313
17.3833 743 27.258
17.5002 748 27.3496
17.617 708 26.6083
17.7338 739 27.1846
17.8505 722 26.8701
17.9672 722 26.8701
18.0839 736 27.1293
18.2005 689 26.2488
18.3171 728 26.9815
18.4337 769 27.7308
18.5502 694 26.3439
18.6666 759 27.55
18.7831 773 27.8029
18.8994 739 27.1846
19.0158 675 25.9808
19.1321 651 25.5147
19.2483 642 25.3377
19.3645 638 25.2587
19.4806 580 24.0832
19.5967 557 23.6008
19.7128 563 23.7276
19.8288 551 23.4734
19.9447 482 21.9545
20.0606 0 1
20.1764 0 1
20.2922 0 1
20.4079 0 1
20.5236 0 1
20.6392 0 1
20.7548 0 1
20.8702 0 1
23.3078 0 1
23.4233 0 1
23.539 0 1
23.6547 0 1
23.7704 0 1
23.8862 0 1
24.0021 0 1
24.118 0 1
24.234 0 1
24.35 0 1
24.4661 284 16.8523
24.5822 354 18.8149
24.6984 404 20.0998
24.8146 499 22.3383
24.9309 564 23.7487
25.0472 654 25.5734
25.1636 618 24.8596
25.28 707 26.5895
25.3965 734 27.0924
25.513 766 27.6767
25.6296 836 28.9137
25.7462 857 29.2746
25.8628 824 28.7054
25.9795 780 27.9285
26.0962 758 27.5318
26.213 777 27.8747
26.3298 752 27.4226
26.4466 691 26.2869
26.5635 694 26.3439
26.6804 676 26
26.7973 672 25.923
26.9143 658 25.6515
27.0313 642 25.3377
27.1483 720 26.8328
27.2653 716 26.7582
27.3824 655 25.593
27.4996 726 26.9444
27.6167 724 26.9072
27.7339 632 25.1396
27.8511 608 24.6577
27.9683 608 24.6577
28.0855 651 25.5147
28.2028 652 25.5343
28.3201 700 26.4575
28.4374 736 27.1293
28.5547 720 26.8328
28.6721 770 27.7489
28.7894 714 26.7208
28.9068 700 26.4575
29.0242 717 26.7769
29.1416 696 26.3818
29.259 729 27
29.3764 701 26.4764
29.4939 696 26.3818
29.6113 681 26.096
29.7288 665 25.7876
29.8463 662 25.7294
29.9638 638 25.2587
30.0812 590 24.2899
30.1987 592 24.3311
30.3162 599 24.4745
30.4337 621 24.9199
30.5512 671 25.9037
30.6687 666 25.807
30.7862 722 26.8701
30.9037 735 27.1109
31.0212 702 26.4953
31.1387 696 26.3818
31.2562 700 26.4575
31.3737 631 25.1197
31.4912 628 25.0599
31.6087 668 25.8457
31.7262 668 25.8457
31.8436 707 26.5895
31.9611 667 25.8263
32.0785 666 25.807
32.1959 715 26.7395
32.3134 677 26.0192
32.4308 660 25.6905
32.5482 650 25.4951
32.6655 643 25.3574
32.7829 613 24.7588
32.9002 603 24.5561
33.0176 642 25.3377
33.1349 628 25.0599
33.2522 624 24.98
33.3694 589 24.2693
33.4867 563 23.7276
33.6039 620 24.8998
33.7211 633 25.1595
33.8383 600 24.4949
33.9554 567 23.8118
34.0725 593 24.3516
34.1896 629 25.0799
34.3067 629 25.0799
34.4237 651 25.5147
34.5407 645 25.3969
34.6577 634 25.1794
34.7746 646 25.4165
34.8915 659 25.671
35.0084 627 25.04
35.1252 498 22.3159
35.242 532 23.0651
35.3587 563 23.7276
35.4755 653 25.5539
35.5921 645 25.3969
35.7088 672 25.923
35.8254 604 24.5764
35.9419 626 25.02
36.0584 653 25.5539
36.1749 574 23.9583
36.2913 579 24.0624
36.4077 562 23.7065
36.524 574 23.9583
36.6403 539 23.2164
36.7565 507 22.5167
36.8727 456 21.3542
36.9889 413 20.3224
37.1049 426 20.6398
37.221 0 1
37.3369 0 1
37.4529 0 1
37.5687 0 1
37.6845 0 1
37.8003 0 1
37.916 0 1
38.0316 0 1
38.1472 0 1
40.5851 0 1
40.7008 0 1
40.8164 0 1
40.9322 0 1
41.048 0 1
41.1639 0 1
41.2798 0 1
41.3958 0 1
41.5118 0 1
41.6279 0 1
41.744 257 16.0312
41.8602 331 18.1934
41.9765 346 18.6011
42.0928 442 21.0238
42.2091 433 20.8087
42.3255 433 20.8087
42.4419 522 22.8473
42.5584 538 23.1948
42.675 489 22.1133
42.7915 481 21.9317
42.9081 486 22.0454
43.0248 458 21.4009
43.1415 491 22.1585
43.2582 511 22.6053
43.375 492 22.1811
43.4918 495 22.2486
43.6087 496 22.2711
43.7256 488 22.0907
43.8425 443 21.0476
43.9595 472 21.7256
44.0765 452 21.2603
44.1935 469 21.6564
44.3106 512 22.6274
44.4277 526 22.9347
44.5448 531 23.0434
44.6619 502 22.4054
44.7791 529 23
44.8963 517 22.7376
45.0136 516 22.7156
45.1308 513 22.6495
45.2481 533 23.0868
45.3654 546 23.3666
45.4827 521 22.8254
45.6001 507 22.5167
45.7174 495 22.2486
45.8348 493 22.2036
45.9522 506 22.4944
46.0697 512 22.6274
46.1871 516 22.7156
46.3046 491 22.1585
46.422 429 20.7123
46.5395 484 22
46.657 451 21.2368
46.7745 452 21.2603
46.892 497 22.2935
47.0096 508 22.5389
47.1271 499 22.3383
47.2446 507 22.5167
47.3622 489 22.1133
47.4797 505 22.4722
47.5973 453 21.2838
47.7149 445 21.095
47.8324 493 22.2036
47.95 514 22.6716
48.0675 516 22.7156
48.1851 514 22.6716
48.3027 517 22.7376
48.4202 519 22.7816
48.5378 491 22.1585
48.6554 497 22.2935
48.7729 473 21.7486
48.8904 483 21.9773
49.008 559 23.6432
49.1255 518 22.7596
49.243 472 21.7256
49.3605 484 22
49.478 457 21.3776
49.5955 460 21.4476
49.713 446 21.1187
49.8304 429 20.7123
49.9479 434 20.8327
50.0653 397 19.9249
50.1827 446 21.1187
50.3001 461 21.4709
50.4175 452 21.2603
50.5348 447 21.1424
50.6521 481 21.9317
50.7694 516 22.7156
50.8867 400 20
51.004 487 22.0681
51.1212 405 20.1246
51.2384 391 19.7737
51.3556 429 20.7123
51.4727 495 22.2486
51.5899 484 22
51.707 461 21.4709
51.824 498 22.3159
51.9411 524 22.891
52.0581 464 21.5407
52.175 478 21.8632
52.2919 511 22.6053
52.4088 489 22.1133
52.5257 476 21.8174
52.6425 535 23.1301
52.7593 487 22.0681
52.876 488 22.0907
52.9927 506 22.4944
53.1094 509 22.561
53.226 500 22.3607
53.3426 427 20.664
53.4591 423 20.567
53.5756 415 20.3715
53.692 384 19.5959
53.8084 347 18.6279
53.9248 319 17.8606
54.0411 339 18.412
54.1573 322 17.9444
54.2735 0 1
54.3896 0 1
54.5057 0 1
54.6217 0 1
54.7377 0 1
54.8537 0 1
54.9695 0 1
55.0853 0 1
55.2011 0 1
55.3168 0 1
55.4324 0 1
57.824 0 1
57.9396 0 1
58.0553 0 1
58.1711 0 1
58.2869 0 1
58.4028 0 1
58.5187 0 1
58.6347 0 1
58.7508 0 1
58.8669 0 1
58.983 922 30.3645
59.0992 1165 34.1321
59.2155 1587 39.8372
59.3318 2026 45.0111
59.4482 2242 47.3498
59.5646 2607 51.0588
59.681 2645 51.4296
59.7975 2781 52.7352
59.9141 2816 53.066
60.0306 2681 51.7784
60.1473 2827 53.1695
60.2639 2767 52.6023
60.3807 2681 51.7784
60.4974 2851 53.3948
60.6142 2710 52.0577
60.731 2559 50.5866
60.8479 2643 51.4101
60.9648 2431 49.3052
61.0818 2336 48.3322
61.1987 2198 46.8828
61.3158 2149 46.3573
61.4328 1983 44.5309
61.5499 1896 43.5431
61.667 1822 42.6849
61.7841 1611 40.1373
61.9013 1539 39.2301
62.0185 1455 38.1445
62.1357 1372 37.0405
62.253 1373 37.054
62.3702 1262 35.5246
62.4875 1197 34.5977
62.6049 1165 34.1321
62.7222 1214 34.8425
62.8396 1236 35.1568
62.9569 1213 34.8281
63.0743 1211 34.7994
63.1918 967 31.0966
63.3092 891 29.8496
63.4267 815 28.5482
63.5441 793 28.1603
63.6616 661 25.7099
63.7791 657 25.632
63.8966 668 25.8457
64.0142 672 25.923
64.1317 584 24.1661
64.2492 564 23.7487
64.3668 566 23.7908
64.4843 557 23.6008
64.6019 524 22.891
64.7195 529 23
64.837 533 23.0868
64.9546 569 23.8537
65.0722 540 23.2379
65.1898 501 22.383
65.3074 571 23.8956
65.4249 504 22.4499
65.5425 519 22.7816
65.6601 547 23.388
65.7777 502 22.4054
65.8952 480 21.9089
66.0128 513 22.6495
66.1304 478 21.8632
66.2479 500 22.3607
66.3655 531 23.0434
66.483 533 23.0868
66.6005 536 23.1517
66.718 535 23.1301
66.8355 560 23.6643
66.953 573 23.9374
67.0705 574 23.9583
67.1879 531 23.0434
67.3054 520 22.8035
67.4228 565 23.7697
67.5402 526 22.9347
67.6576 575 23.9792
67.7749 590 24.2899
67.8923 559 23.6432
68.0096 517 22.7376
68.1269 493 22.2036
68.2442 545 23.3452
68.3614 548 23.4094
68.4787 496 22.2711
68.5958 505 22.4722
68.713 529 23
68.8302 549 23.4307
68.9473 553 23.516
69.0643 568 23.8328
69.1814 516 22.7156
69.2984 500 22.3607
69.4154 526 22.9347
69.5323 476 21.8174
69.6492 450 21.2132
69.7661 486 22.0454
69.8829 502 22.4054
69.9997 493 22.2036
70.1165 516 22.7156
70.2332 539 23.2164
70.3499 489 22.1133
70.4665 472 21.7256
70.5831 427 20.664
70.6996 390 19.7484
70.8161 412 20.2978
70.9326 325 18.0278
71.049 330 18.1659
71.1653 340 18.4391
71.2817 300 17.3205
71.3979 309 17.5784
71.5141 257 16.0312
71.6303 256 16
71.7464 184 13.5647
71.8624 0 1
71.9784 0 1
72.0944 0 1
72.2102 0 1
72.3261 0 1
72.4418 0 1
72.5575 0 1
72.6732 0 1
75.1054 0 1
75.2209 0 1
75.3365 0 1
75.4521 0 1
75.5678 0 1
75.6835 0 1
75.7993 0 1
75.9151 0 1
76.031 0 1
76.147 348 18.6548
76.263 345 18.5742
76.3791 389 19.7231
76.4952 437 20.9045
76.6113 458 21.4009
76.7276 415 20.3715
76.8438 473 21.7486
76.9601 426 20.6398
77.0765 411 20.2731
77.1929 443 21.0476
77.3093 427 20.664
77.4258 447 21.1424
77.5423 446 21.1187
77.6589 457 21.3776
77.7755 448 21.166
77.8921 451 21.2368
78.0088 460 21.4476
78.1256 438 20.9284
78.2423 434 20.8327
78.3591 440 20.9762
78.4759 432 20.7846
78.5928 424 20.5913
78.7097 368 19.1833
78.8266 408 20.199
78.9436 438 20.9284
79.0606 423 20.567
79.1776 431 20.7605
79.2946 437 20.9045
79.4117 490 22.1359
79.5288 500 22.3607
79.6459 472 21.7256
79.7631 474 21.7715
79.8802 454 21.3073
79.9974 422 20.5426
80.1147 459 21.4243
80.2319 458 21.4009
80.3491 486 22.0454
80.4664 456 21.3542
80.5837 511 22.6053
80.701 474 21.7715
80.8183 449 21.1896
80.9357 493 22.2036
81.053 446 21.1187
81.1704 415 20.3715
81.2877 468 21.6333
81.4051 487 22.0681
81.5225 453 21.2838
81.6399 496 22.2711
81.7573 485 22.0227
81.8747 442 21.0238
81.9922 442 21.0238
82.1096 377 19.4165
82.227 414 20.347
82.3444 377 19.4165
82.4619 405 20.1246
82.5793 438 20.9284
82.6967 483 21.9773
82.8142 450 21.2132
82.9316 451 21.2368
83.049 460 21.4476
83.1664 538 23.1948
83.2838 464 21.5407
83.4012 494 22.2261
83.5186 470 21.6795
83.636 494 22.2261
83.7534 410 20.2485
83.8708 484 22
83.9881 476 21.8174
84.1055 503 22.4277
84.2228 501 22.383
84.3401 460 21.4476
84.4575 458 21.4009
84.5747 485 22.0227
84.692 431 20.7605
84.8093 525 22.9129
84.9265 483 21.9773
85.0437 505 22.4722
85.1609 467 21.6102
85.2781 477 21.8403
85.3952 482 21.9545
85.5123 406 20.1494
85.6294 468 21.6333
85.7465 420 20.4939
85.8636 427 20.664
85.9806 423 20.567
86.0976 436 20.8806
86.2145 461 21.4709
86.3315 463 21.5174
86.4484 436 20.8806
86.5652 511 22.6053
86.682 530 23.0217
86.7988 484 22
86.9156 447 21.1424
87.0323 502 22.4054
87.149 474 21.7715
87.2657 476 21.8174
87.3823 451 21.2368
87.4988 449 21.1896
87.6154 478 21.8632
87.7318 404 20.0998
87.8483 467 21.6102
87.9647 392 19.799
88.081 396 19.8997
88.1973 350 18.7083
88.3136 356 18.868
88.4298 310 17.6068
88.546 298 17.2627
88.6621 283 16.8226
88.7781 258 16.0624
88.8942 0 1
89.0101 0 1
89.126 0 1
89.2419 0 1
89.3577 0 1
89.4734 0 1
89.5891 0 1
89.7047 0 1
89.8203 0 1
89.9358 0 1
92.3269 0 1
92.4424 0 1
92.558 0 1
92.6736 0 1
92.7893 0 1
92.905 0 1
93.0208 0 1
93.1366 0 1
93.2525 0 1
93.3685 0 1
93.4845 0 1
93.6005 354 18.8149
93.7167 422 20.5426
93.8328 428 20.6882
93.949 458 21.4009
94.0653 524 22.891
94.1816 478 21.8632
94.2979 481 21.9317
94.4143 494 22.2261
94.5307 505 22.4722
94.6472 437 20.9045
94.7637 456 21.3542
94.8803 470 21.6795
94.9969 441 21
95.1135 463 21.5174
95.2302 482 21.9545
95.3469 498 22.3159
95.4637 491 22.1585
95.5805 491 22.1585
95.6973 535 23.1301
95.8142 487 22.0681
95.9311 501 22.383
96.048 546 23.3666
96.1649 556 23.5797
96.2819 496 22.2711
96.3989 505 22.4722
96.516 473 21.7486
96.633 520 22.8035
96.7501 485 22.0227
96.8673 531 23.0434
96.9844 549 23.4307
97.1016 579 24.0624
97.2188 514 22.6716
97.336 495 22.2486
97.4532 496 22.2711
97.5704 471 21.7025
97.6877 533 23.0868
97.805 534 23.1084
97.9223 495 22.2486
98.0396 505 22.4722
98.1569 528 22.9783
98.2743 484 22
98.3916 515 22.6936
98.509 494 22.2261
98.6264 481 21.9317
98.7438 510 22.5832
98.8612 484 22
98.9786 524 22.891
99.096 551 23.4734
99.2134 530 23.0217
99.3308 534 23.1084
99.4482 518 22.7596
99.5656 569 23.8537
99.6831 554 23.5372
99.8005 514 22.6716
99.9179 498 22.3159
100.035 563 23.7276
100.153 561 23.6854
100.27 549 23.4307
100.388 538 23.1948
100.505 536 23.1517
100.622 551 23.4734
100.74 544 23.3238
100.857 543 23.3024
100.975 511 22.6053
101.092 567 23.8118
101.209 517 22.7376
101.327 556 23.5797
101.444 538 23.1948
101.561 584 24.1661
101.679 543 23.3024
101.796 514 22.6716
101.913 523 22.8692
102.03 526 22.9347
102.148 541 23.2594
102.265 564 23.7487
102.382 549 23.4307
102.499 577 24.0208
102.616 556 23.5797
102.733 565 23.7697
102.851 573 23.9374
102.968 584 24.1661
103.085 602 24.5357
103.202 575 23.9792
103.319 562 23.7065
103.436 576 24
103.552 546 23.3666
103.669 548 23.4094
103.786 588 24.2487
103.903 578 24.0416
104.02 594 24.3721
104.137 581 24.1039
104.253 582 24.1247
104.37 548 23.4094
104.487 591 24.3105
104.603 563 23.7276
104.72 504 22.4499
104.836 545 23.3452
104.953 517 22.7376
105.069 494 22.2261
105.186 492 22.1811
105.302 487 22.0681
105.418 422 20.5426
105.535 396 19.8997
105.651 413 20.3224
105.767 381 19.5192
105.883 335 18.303
105.999 272 16.4924
106.115 0 1
106.231 0 1
106.347 0 1
106.463 0 1
106.579 0 1
106.694 0 1
106.81 0 1
106.926 0 1
107.041 0 1
107.157 0 1
109.576 0 1
109.692 0 1
109.807 0 1
109.923 0 1
110.039 0 1
110.155 0 1
110.27 0 1
110.386 0 1
110.502 0 1
110.618 267 16.3401
110.735 355 18.8414
110.851 402 20.0499
110.967 450 21.2132
111.083 435 20.8567
111.199 450 21.2132
111.316 466 21.587
111.432 540 23.2379
111.549 560 23.6643
111.665 536 23.1517
111.782 526 22.9347
111.898 493 22.2036
112.015 565 23.7697
112.132 545 23.3452
112.248 532 23.0651
112.365 521 22.8254
112.482 534 23.1084
112.599 546 23.3666
112.716 531 23.0434
112.832 525 22.9129
112.949 489 22.1133
113.066 473 21.7486
113.183 489 22.1133
113.3 503 22.4277
113.417 507 22.5167
113.534 487 22.0681
113.652 465 21.5639
113.769 472 21.7256
113.886 478 21.8632
114.003 485 22.0227
114.12 492 22.1811
114.238 529 23
114.355 508 22.5389
114.472 451 21.2368
114.589 466 21.587
114.707 482 21.9545
114.824 451 21.2368
114.942 490 22.1359
115.059 555 23.5584
115.176 485 22.0227
115.294 450 21.2132
115.411 483 21.9773
115.529 484 22
115.646 469 21.6564
115.764 494 22.2261
115.881 481 21.9317
115.999 508 22.5389
116.116 501 22.383
116.234 482 21.9545
116.351 501 22.383
116.469 482 21.9545
116.586 455 21.3307
116.704 454 21.3073
116.821 469 21.6564
116.939 466 21.587
117.056 430 20.7364
117.174 430 20.7364
117.291 440 20.9762
117.409 393 19.8242
117.526 427 20.664
117.644 463 21.5174
117.761 452 21.2603
117.879 460 21.4476
117.996 472 21.7256
118.114 477 21.8403
118.231 449 21.1896
118.349 425 20.6155
118.466 479 21.8861
118.584 499 22.3383
118.701 478 21.8632
118.819 465 21.5639
118.936 448 21.166
119.053 477 21.8403
119.171 425 20.6155
119.288 466 21.587
119.405 440 20.9762
119.523 466 21.587
119.64 431 20.7605
119.757 464 21.5407
119.875 448 21.166
119.992 425 20.6155
120.109 428 20.6882
120.226 432 20.7846
120.343 416 20.3961
120.46 441 21
120.578 451 21.2368
120.695 425 20.6155
120.812 404 20.0998
120.929 423 20.567
121.046 397 19.9249
121.163 400 20
121.279 420 20.4939
121.396 388 19.6977
121.513 432 20.7846
121.63 407 20.1742
121.747 377 19.4165
121.863 350 18.7083
121.98 366 19.1311
122.097 327 18.0831
122.213 401 20.025
122.33 355 18.8414
122.446 315 17.7482
122.563 300 17.3205
122.679 298 17.2627
122.795 269 16.4012
122.912 268 16.3707
123.028 243 15.5885
123.144 240 15.4919
123.26 240 15.4919
123.377 0 1
123.493 0 1
123.609 0 1
123.725 0 1
123.84 0 1
123.956 0 1
124.072 0 1
124.188 0 1
124.303 0 1
124.419 0 1
126.852 0 1
126.968 0 1
127.083 0 1
127.199 0 1
127.315 0 1
127.431 0 1
127.547 0 1
127.663 0 1
127.779 0 1
127.895 0 1
128.011 0 1
128.127 0 1
128.243 0 1
128.359 456 21.3542
128.476 443 21.0476
128.592 478 21.8632
128.708 480 21.9089
128.825 485 22.0227
128.941 455 21.3307
129.058 532 23.0651
129.174 473 21.7486
129.291 480 21.9089
129.408 476 21.8174
129.524 459 21.4243
129.641 506 22.4944
129.758 521 22.8254
129.875 485 22.0227
129.992 461 21.4709
130.108 475 21.7945
130.225 486 22.0454
130.342 487 22.0681
130.459 556 23.5797
130.576 557 23.6008
130.693 600 24.4949
130.81 551 23.4734
130.928 587 24.2281
131.045 576 24
131.162 580 24.0832
131.279 661 25.7099
131.396 687 26.2107
131.513 743 27.258
131.631 702 26.4953
131.748 673 25.9422
131.865 778 27.8927
131.983 817 28.5832
132.1 908 30.133
132.217 856 29.2575
132.335 973 31.1929
132.452 1011 31.7962
132.57 1014 31.8434
132.687 1017 31.8904
132.804 1035 32.1714
132.922 1113 33.3617
133.039 1127 33.5708
133.157 1126 33.5559
133.274 1147 33.8674
133.392 1111 33.3317
133.509 1091 33.0303
133.627 1067 32.665
133.744 1104 33.2265
133.862 1115 33.3916
133.979 1101 33.1813
134.097 1157 34.0147
134.214 1152 33.9411
134.332 1115 33.3916
134.449 1186 34.4384
134.567 1119 33.4515
134.684 1092 33.0454
134.802 1146 33.8526
134.919 1232 35.0999
135.037 1200 34.641
135.154 1091 33.0303
135.272 1068 32.6803
135.389 1027 32.0468
135.507 1196 34.5832
135.624 1291 35.9305
135.742 1251 35.3695
135.859 1211 34.7994
135.977 1261 35.5106
136.094 1282 35.805
136.211 1217 34.8855
136.329 1247 35.3129
136.446 1222 34.9571
136.564 1216 34.8712
136.681 1225 35
136.798 1243 35.2562
136.915 1116 33.4066
137.033 1208 34.7563
137.15 1182 34.3802
137.267 1063 32.6037
137.384 1069 32.6956
137.502 1110 33.3167
137.619 1083 32.909
137.736 1022 31.9687
137.853 1058 32.5269
137.97 1025 32.0156
138.087 1045 32.3265
138.204 1077 32.8177
138.321 1057 32.5115
138.438 1047 32.3574
138.555 1072 32.7414
138.672 1071 32.7261
138.788 1043 32.2955
138.905 902 30.0333
139.022 866 29.4279
139.139 999 31.607
139.255 991 31.4802
139.372 978 31.273
139.488 932 30.5287
139.605 932 30.5287
139.721 844 29.0517
139.838 728 26.9815
139.954 724 26.9072
140.071 657 25.632
140.187 627 25.04
140.303 627 25.04
140.419 605 24.5967
140.535 501 22.383
140.652 495 22.2486
140.768 0 1
140.884 0 1
141 0 1
141.115 0 1
141.231 0 1
141.347 0 1
141.463 0 1
141.578 0 1
141.694 0 1
144.104 0 1
144.219 0 1
144.335 0 1
144.45 0 1
144.566 0 1
144.682 0 1
144.798 0 1
144.914 0 1
145.03 0 1
145.146 1051 32.4191
145.262 1128 33.5857
145.378 1130 33.6155
145.494 1146 33.8526
145.61 1099 33.1512
145.726 1182 34.3802
145.842 1118 33.4365
145.959 1137 33.7194
146.075 1110 33.3167
146.192 1097 33.121
146.308 1119 33.4515
146.425 1029 32.078
146.541 1067 32.665
146.658 1129 33.6006
146.774 1153 33.9559
146.891 1194 34.5543
147.008 1198 34.6121
147.125 1181 34.3657
147.241 1233 35.1141
147.358 1258 35.4683
147.475 1239 35.1994
147.592 1214 34.8425
147.709 1104 33.2265
147.826 1084 32.9242
147.943 1068 32.6803
148.06 1133 33.6601
148.177 1140 33.7639
148.294 1144 33.8231
148.411 1239 35.1994
148.528 1086 32.9545
148.645 1185 34.4238
148.762 1186 34.4384
148.88 1109 33.3017
148.997 1194 34.5543
149.114 1094 33.0757
149.231 1160 34.0588
149.349 1087 32.9697
149.466 1139 33.7491
149.583 1104 33.2265
149.701 1085 32.9393
149.818 1054 32.4654
149.935 1049 32.3883
150.053 1025 32.0156
150.17 1061 32.573
150.287 999 31.607
150.405 1099 33.1512
150.522 1032 32.1248
150.64 1038 32.218
150.757 993 31.5119
150.875 1022 31.9687
150.992 1055 32.4808
151.11 986 31.4006
151.227 963 31.0322
151.344 923 30.3809
151.462 871 29.5127
151.579 861 29.3428
151.697 932 30.5287
151.814 986 31.4006
151.932 1008 31.749
152.049 1006 31.7175
152.167 961 31
152.284 981 31.3209
152.402 940 30.6594
152.519 944 30.7246
152.636 970 31.1448
152.754 1035 32.1714
152.871 1011 31.7962
152.989 914 30.2324
153.106 854 29.2233
153.223 876 29.5973
153.341 934 30.5614
153.458 822 28.6705
153.575 827 28.7576
153.693 821 28.6531
153.81 835 28.8964
153.927 873 29.5466
154.044 858 29.2916
154.162 842 29.0172
154.279 837 28.931
154.396 868 29.4618
154.513 826 28.7402
154.63 862 29.3598
154.747 835 28.8964
154.864 785 28.0179
154.981 782 27.9643
155.098 718 26.7955
155.215 786 28.0357
155.332 802 28.3196
155.449 864 29.3939
155.566 834 28.8791
155.683 903 30.05
155.8 884 29.7321
155.917 806 28.3901
156.033 826 28.7402
156.15 0 1
156.267 0 1
156.383 0 1
156.5 0 1
156.617 0 1
156.733 0 1
156.85 0 1
156.966 0 1
157.082 0 1
157.199 0 1
157.315 0 1
157.431 0 1
157.547 0 1
157.664 0 1
157.78 0 1
157.896 0 1
158.012 0 1
158.128 0 1
158.244 0 1
158.359 0 1
158.475 0 1
158.591 0 1
158.706 0 1
