
6.15755 0 1
6.2731 0 1
6.3887 0 1
6.50437 0 1
6.62009 0 1
6.73587 0 1
6.8517 0 1
6.96759 0 1
7.08353 0 1
7.19952 0 1
7.31557 0 1
7.43166 0 1
7.54781 0 1
7.664 0 1
7.78024 0 1
7.89653 0 1
8.01286 0 1
8.12924 0 1
8.24567 0 1
8.36213 0 1
8.47864 0 1
8.59519 0 1
8.71178 0 1
8.82841 0 1
8.94508 0 1
9.06179 0 1
9.17853 0 1
9.29531 0 1
9.41212 0 1
9.52897 0 1
9.64584 0 1
9.76276 0 1
9.8797 0 1
9.99667 0 1
10.1137 0 1
10.2307 0 1
10.3478 0 1
10.4648 0 1
10.5819 0 1
10.6991 0 1
10.8162 0 1
10.9334 0 1
11.0506 0 1
11.1678 0 1
11.285 0 1
11.4023 0 1
11.5196 0 1
11.6369 0 1
11.7542 0 1
11.8715 0 1
11.9888 0 1
12.1062 0 1
12.2235 0 1
12.3409 0 1
12.4582 0 1
12.5756 0 1
12.693 0 1
12.8104 0 1
12.9278 0 1
13.0452 0 1
13.1626 0 1
13.28 0 1
13.3974 0 1
13.5149 0 1
13.6323 0 1
13.7497 0 1
13.8671 0 1
13.9845 0 1
14.1019 0 1
14.2193 0 1
14.3367 0 1
14.4541 0 1
14.5714 0 1
14.6888 0 1
14.8062 0 1
14.9235 0 1
15.0408 5568 74.619
15.1581 5601 74.8398
15.2755 5715 75.5976
15.3927 5575 74.6659
15.51 5677 75.3459
15.6273 5653 75.1864
15.7445 5702 75.5116
15.8617 5630 75.0333
15.9789 5323 72.9589
16.0961 5292 72.7461
16.2132 5243 72.4086
16.3304 5228 72.3049
16.4475 4975 70.5337
16.5646 5083 71.2952
16.6816 5015 70.8167
16.7986 5041 71
16.9156 4951 70.3633
17.0326 5016 70.8237
17.1496 5044 71.0211
17.2665 5065 71.1688
17.3833 5145 71.7287
17.5002 5302 72.8148
17.617 5482 74.0405
17.7338 5486 74.0675
17.8505 5668 75.2861
17.9672 5923 76.961
18.0839 5833 76.3741
18.2005 6114 78.1921
18.3171 6200 78.7401
18.4337 6190 78.6766
18.5502 6307 79.4166
18.6666 6543 80.8888
18.7831 6332 79.5739
18.8994 6422 80.1374
19.0158 6250 79.0569
19.1321 6216 78.8416
19.2483 5952 77.1492
19.3645 5738 75.7496
19.4806 5681 75.3724
19.5967 5236 72.3602
19.7128 5261 72.5328
19.8288 5091 71.3512
19.9447 4472 66.873
20.0606 0 1
20.1764 0 1
20.2922 0 1
20.4079 0 1
20.5236 0 1
20.6392 0 1
20.7548 0 1
20.8702 0 1
23.3078 0 1
23.4233 0 1
23.539 0 1
23.6547 0 1
23.7704 0 1
23.8862 0 1
24.0021 0 1
24.118 0 1
24.234 0 1
24.35 0 1
24.4661 5174 71.9305
24.5822 5302 72.8148
24.6984 5103 71.4353
24.8146 4982 70.5833
24.9309 5031 70.9295
25.0472 4919 70.1356
25.1636 4925 70.1783
25.28 4821 69.4334
25.3965 4805 69.3181
25.513 4837 69.5485
25.6296 5021 70.859
25.7462 5055 71.0985
25.8628 5136 71.6659
25.9795 5068 71.1899
26.0962 5390 73.4166
26.213 5263 72.5465
26.3298 5255 72.4914
26.4466 5600 74.8331
26.5635 5568 74.619
26.6804 5467 73.9392
26.7973 5515 74.263
26.9143 5623 74.9867
27.0313 5673 75.3193
27.1483 5755 75.8617
27.2653 5842 76.433
27.3824 5783 76.046
27.4996 5658 75.2197
27.6167 5629 75.0267
27.7339 5420 73.6206
27.8511 5470 73.9594
27.9683 5090 71.3442
28.0855 5100 71.4143
28.2028 5143 71.7147
28.3201 4965 70.4628
28.4374 4801 69.2892
28.5547 4800 69.282
28.6721 4625 68.0074
28.7894 4558 67.513
28.9068 4431 66.5658
29.0242 4591 67.7569
29.1416 4592 67.7643
29.259 4643 68.1396
29.3764 4656 68.2349
29.4939 4833 69.5198
29.6113 4744 68.8767
29.7288 5008 70.7672
29.8463 5025 70.8872
29.9638 5121 71.5612
30.0812 5007 70.7602
30.1987 5076 71.2461
30.3162 5034 70.9507
30.4337 5206 72.1526
30.5512 5068 71.1899
30.6687 5143 71.7147
30.7862 5274 72.6223
30.9037 5157 71.8123
31.0212 5085 71.3092
31.1387 5287 72.7118
31.2562 5158 71.8192
31.3737 5001 70.7177
31.4912 4923 70.1641
31.6087 4871 69.7925
31.7262 4741 68.8549
31.8436 4609 67.8896
31.9611 4637 68.0955
32.0785 4498 67.0671
32.1959 4360 66.0303
32.3134 4353 65.9773
32.4308 4422 66.4981
32.5482 4420 66.4831
32.6655 4302 65.5896
32.7829 4353 65.9773
32.9002 4496 67.0522
33.0176 4453 66.7308
33.1349 4459 66.7757
33.2522 4680 68.4105
33.3694 4700 68.5565
33.4867 4867 69.7639
33.6039 4887 69.9071
33.7211 4800 69.282
33.8383 4635 68.0808
33.9554 4769 69.0579
34.0725 4674 68.3667
34.1896 4583 67.6979
34.3067 4805 69.3181
34.4237 4725 68.7386
34.5407 4759 68.9855
34.6577 4709 68.6222
34.7746 4601 67.8307
34.8915 4543 67.4018
35.0084 4542 67.3944
35.1252 4370 66.106
35.242 4335 65.8407
35.3587 4316 65.6963
35.4755 4437 66.6108
35.5921 4421 66.4906
35.7088 4293 65.521
35.8254 4296 65.5439
35.9419 4381 66.1891
36.0584 4347 65.9318
36.1749 4265 65.307
36.2913 4168 64.56
36.4077 4247 65.169
36.524 4206 64.8537
36.6403 4164 64.5291
36.7565 4134 64.2962
36.8727 4380 66.1816
36.9889 4281 65.4294
37.1049 4242 65.1306
37.221 0 1
37.3369 0 1
37.4529 0 1
37.5687 0 1
37.6845 0 1
37.8003 0 1
37.916 0 1
38.0316 0 1
38.1472 0 1
40.5851 0 1
40.7008 0 1
40.8164 0 1
40.9322 0 1
41.048 0 1
41.1639 0 1
41.2798 0 1
41.3958 0 1
41.5118 0 1
41.6279 0 1
41.744 3048 55.2087
41.8602 3284 57.3062
41.9765 3355 57.9224
42.0928 3474 58.9406
42.2091 3380 58.1378
42.3255 3527 59.3886
42.4419 3354 57.9137
42.5584 3355 57.9224
42.675 3258 57.0789
42.7915 3239 56.9122
42.9081 3228 56.8155
43.0248 3304 57.4804
43.1415 3239 56.9122
43.2582 3273 57.2101
43.375 3194 56.5155
43.4918 3366 58.0172
43.6087 3354 57.9137
43.7256 3400 58.3095
43.8425 3300 57.4456
43.9595 3263 57.1227
44.0765 3220 56.745
44.1935 3249 57
44.3106 3296 57.4108
44.4277 3225 56.7891
44.5448 3106 55.7315
44.6619 2956 54.3691
44.7791 2837 53.2635
44.8963 2825 53.1507
45.0136 2739 52.3355
45.1308 2667 51.643
45.2481 2606 51.049
45.3654 2560 50.5964
45.4827 2499 49.99
45.6001 2442 49.4166
45.7174 2523 50.2295
45.8348 2417 49.163
45.9522 2452 49.5177
46.0697 2374 48.7237
46.1871 2321 48.1768
46.3046 2319 48.156
46.422 2350 48.4768
46.5395 2232 47.244
46.657 2254 47.4763
46.7745 2370 48.6826
46.892 2497 49.97
47.0096 2462 49.6185
47.1271 2476 49.7594
47.2446 2442 49.4166
47.3622 2368 48.6621
47.4797 2485 49.8498
47.5973 2519 50.1896
47.7149 2588 50.8724
47.8324 2488 49.8799
47.95 2411 49.1019
48.0675 2425 49.2443
48.1851 2375 48.734
48.3027 2253 47.4658
48.4202 2180 46.6905
48.5378 2183 46.7226
48.6554 2151 46.3789
48.7729 2118 46.0217
48.8904 2138 46.2385
49.008 2158 46.4543
49.1255 2121 46.0543
49.243 2080 45.607
49.3605 2133 46.1844
49.478 2125 46.0977
49.5955 1975 44.441
49.713 2039 45.1553
49.8304 1988 44.587
49.9479 1991 44.6206
50.0653 2055 45.3321
50.1827 2128 46.1303
50.3001 2234 47.2652
50.4175 2249 47.4236
50.5348 2366 48.6415
50.6521 2435 49.3457
50.7694 2567 50.6656
50.8867 2499 49.99
51.004 2718 52.1344
51.1212 2805 52.9623
51.2384 2916 54
51.3556 3060 55.3173
51.4727 2948 54.2955
51.5899 2992 54.6992
51.707 2916 54
51.824 2794 52.8583
51.9411 2703 51.9904
52.0581 2700 51.9615
52.175 2683 51.7977
52.2919 2719 52.144
52.4088 2587 50.8626
52.5257 2533 50.3289
52.6425 2445 49.4469
52.7593 2522 50.2195
52.876 2559 50.5866
52.9927 2536 50.3587
53.1094 2624 51.225
53.226 2585 50.8429
53.3426 2608 51.0686
53.4591 2714 52.0961
53.5756 2660 51.5752
53.692 2804 52.9528
53.8084 2892 53.7773
53.9248 3027 55.0182
54.0411 3151 56.1338
54.1573 3273 57.2101
54.2735 0 1
54.3896 0 1
54.5057 0 1
54.6217 0 1
54.7377 0 1
54.8537 0 1
54.9695 0 1
55.0853 0 1
55.2011 0 1
55.3168 0 1
55.4324 0 1
57.824 0 1
57.9396 0 1
58.0553 0 1
58.1711 0 1
58.2869 0 1
58.4028 0 1
58.5187 0 1
58.6347 0 1
58.7508 0 1
58.8669 0 1
58.983 3589 59.9083
59.0992 3815 61.7657
59.2155 4008 63.3088
59.3318 4217 64.9384
59.4482 4386 66.2269
59.5646 4842 69.5845
59.681 4962 70.4415
59.7975 4975 70.5337
59.9141 5008 70.7672
60.0306 4878 69.8427
60.1473 4739 68.8404
60.2639 4475 66.8954
60.3807 4239 65.1076
60.4974 4022 63.4192
60.6142 3879 62.2816
60.731 3516 59.2959
60.8479 3194 56.5155
60.9648 3148 56.107
61.0818 2939 54.2125
61.1987 2956 54.3691
61.3158 3106 55.7315
61.4328 3117 55.8301
61.5499 3140 56.0357
61.667 3140 56.0357
61.7841 3189 56.4712
61.9013 3184 56.4269
62.0185 3171 56.3116
62.1357 3213 56.6833
62.253 3209 56.648
62.3702 3477 58.9661
62.4875 3390 58.2237
62.6049 3600 60
62.7222 3779 61.4736
62.8396 4121 64.195
62.9569 4467 66.8356
63.0743 4404 66.3626
63.1918 4609 67.8896
63.3092 4586 67.72
63.4267 4603 67.8454
63.5441 4461 66.7907
63.6616 4214 64.9153
63.7791 4172 64.591
63.8966 3805 61.6847
64.0142 3620 60.1664
64.1317 3186 56.4447
64.2492 2989 54.6717
64.3668 2691 51.8748
64.4843 2631 51.2933
64.6019 2611 51.0979
64.7195 2635 51.3323
64.837 2707 52.0288
64.9546 2746 52.4023
65.0722 2909 53.9351
65.1898 2825 53.1507
65.3074 2975 54.5436
65.4249 2863 53.507
65.5425 3050 55.2268
65.6601 2947 54.2863
65.7777 3001 54.7814
65.8952 3042 55.1543
66.0128 3238 56.9034
66.1304 3443 58.6771
66.2479 3529 59.4054
66.3655 4076 63.8436
66.483 4464 66.8132
66.6005 4556 67.4981
66.718 4589 67.7422
66.8355 4717 68.6804
66.953 4758 68.9783
67.0705 4472 66.873
67.1879 4609 67.8896
67.3054 4515 67.1937
67.4228 4062 63.7338
67.5402 3419 58.4722
67.6576 3098 55.6597
67.7749 2822 53.1225
67.8923 2730 52.2494
68.0096 2610 51.0882
68.1269 2693 51.8941
68.2442 2731 52.259
68.3614 2805 52.9623
68.4787 2914 53.9815
68.5958 3115 55.8122
68.713 3175 56.3471
68.8302 3296 57.4108
68.9473 3141 56.0446
69.0643 3161 56.2228
69.1814 3083 55.5248
69.2984 3215 56.701
69.4154 3067 55.3805
69.5323 3296 57.4108
69.6492 3418 58.4637
69.7661 3723 61.0164
69.8829 4100 64.0312
69.9997 4482 66.9477
70.1165 4802 69.2965
70.2332 5068 71.1899
70.3499 5036 70.9648
70.4665 5086 71.3162
70.5831 5033 70.9436
70.6996 5075 71.239
70.8161 4819 69.419
70.9326 4394 66.2873
71.049 3901 62.458
71.1653 3512 59.2621
71.2817 3185 56.4358
71.3979 2892 53.7773
71.5141 2763 52.5642
71.6303 2465 49.6488
71.7464 2349 48.4665
71.8624 0 1
71.9784 0 1
72.0944 0 1
72.2102 0 1
72.3261 0 1
72.4418 0 1
72.5575 0 1
72.6732 0 1
75.1054 0 1
75.2209 0 1
75.3365 0 1
75.4521 0 1
75.5678 0 1
75.6835 0 1
75.7993 0 1
75.9151 0 1
76.031 0 1
76.147 4275 65.3835
76.263 4111 64.1171
76.3791 3798 61.6279
76.4952 3350 57.8792
76.6113 3080 55.4977
76.7276 2862 53.4977
76.8438 2728 52.2303
76.9601 2740 52.345
77.0765 2780 52.7257
77.1929 2945 54.2679
77.3093 2971 54.5069
77.4258 3012 54.8817
77.5423 3243 56.9473
77.6589 3403 58.3352
77.7755 3293 57.3847
77.8921 3093 55.6147
78.0088 3003 54.7996
78.1256 3033 55.0727
78.2423 3121 55.8659
78.3591 3114 55.8032
78.4759 3144 56.0714
78.5928 3493 59.1016
78.7097 3862 62.145
78.8266 4206 64.8537
78.9436 4942 70.2994
79.0606 4817 69.4046
79.1776 5100 71.4143
79.2946 5126 71.5961
79.4117 5193 72.0625
79.5288 5033 70.9436
79.6459 4870 69.7854
79.7631 4552 67.4685
79.8802 4328 65.7875
79.9974 3868 62.1932
80.1147 3431 58.5747
80.2319 3056 55.2811
80.3491 2916 54
80.4664 2723 52.1824
80.5837 2747 52.4118
80.701 2934 54.1664
80.8183 2934 54.1664
80.9357 2982 54.6077
81.053 3063 55.3444
81.1704 3329 57.6975
81.2877 3345 57.836
81.4051 3288 57.3411
81.5225 3121 55.8659
81.6399 2868 53.5537
81.7573 3149 56.116
81.8747 2847 53.3573
81.9922 3103 55.7046
82.1096 3299 57.4369
82.227 3687 60.7207
82.3444 4037 63.5374
82.4619 4657 68.2422
82.5793 4976 70.5408
82.6967 5050 71.0634
82.8142 5142 71.7077
82.9316 5089 71.3372
83.049 5122 71.5681
83.1664 4869 69.7782
83.2838 4721 68.7095
83.4012 4389 66.2495
83.5186 3884 62.3217
83.636 3605 60.0417
83.7534 3169 56.2939
83.8708 2902 53.8702
83.9881 2826 53.1601
84.1055 2744 52.3832
84.2228 2890 53.7587
84.3401 2757 52.5071
84.4575 3035 55.0908
84.5747 3067 55.3805
84.692 3393 58.2495
84.8093 3548 59.5651
84.9265 3363 57.9914
85.0437 3204 56.6039
85.1609 2968 54.4794
85.2781 2967 54.4702
85.3952 3005 54.8179
85.5123 3085 55.5428
85.6294 3361 57.9741
85.7465 3703 60.8523
85.8636 4125 64.2262
85.9806 4409 66.4003
86.0976 4839 69.5629
86.2145 5184 72
86.3315 5291 72.7393
86.4484 5392 73.4302
86.5652 5346 73.1163
86.682 5267 72.5741
86.7988 5134 71.6519
86.9156 4671 68.3447
87.0323 4416 66.453
87.149 4032 63.498
87.2657 3731 61.0819
87.3823 3325 57.6628
87.4988 3024 54.9909
87.6154 2939 54.2125
87.7318 2957 54.3783
87.8483 3090 55.5878
87.9647 3098 55.6597
88.081 3215 56.701
88.1973 3405 58.3524
88.3136 3624 60.1997
88.4298 3530 59.4138
88.546 3292 57.376
88.6621 3003 54.7996
88.7781 2943 54.2494
88.8942 0 1
89.0101 0 1
89.126 0 1
89.2419 0 1
89.3577 0 1
89.4734 0 1
89.5891 0 1
89.7047 0 1
89.8203 0 1
89.9358 0 1
92.3269 0 1
92.4424 0 1
92.558 0 1
92.6736 0 1
92.7893 0 1
92.905 0 1
93.0208 0 1
93.1366 0 1
93.2525 0 1
93.3685 0 1
93.4845 0 1
93.6005 3260 57.0964
93.7167 3289 57.3498
93.8328 3065 55.3624
93.949 2917 54.0093
94.0653 2932 54.1479
94.1816 2903 53.8795
94.2979 2998 54.754
94.4143 3185 56.4358
94.5307 3434 58.6003
94.6472 3732 61.0901
94.7637 4112 64.1249
94.8803 4370 66.106
94.9969 4839 69.5629
95.1135 5003 70.7319
95.2302 5118 71.5402
95.3469 5052 71.0774
95.4637 5149 71.7565
95.5805 5197 72.0902
95.6973 5090 71.3442
95.8142 4943 70.3065
95.9311 4729 68.7677
96.048 4314 65.681
96.1649 3918 62.5939
96.2819 3682 60.6795
96.3989 3265 57.1402
96.516 3096 55.6417
96.633 3022 54.9727
96.7501 3014 54.8999
96.8673 3124 55.8928
96.9844 3134 55.9821
97.1016 3351 57.8878
97.2188 3288 57.3411
97.336 3437 58.6259
97.4532 3417 58.4551
97.5704 3196 56.5332
97.6877 2896 53.8145
97.805 2787 52.792
97.9223 2791 52.8299
98.0396 2879 53.6563
98.1569 3055 55.2721
98.2743 3296 57.4108
98.3916 3552 59.5987
98.509 3913 62.554
98.6264 4167 64.5523
98.7438 4654 68.2202
98.8612 4931 70.2211
98.9786 5026 70.8943
99.096 5120 71.5542
99.2134 4896 69.9714
99.3308 4845 69.606
99.4482 4861 69.7209
99.5656 4560 67.5278
99.6831 4305 65.6125
99.8005 3761 61.327
99.9179 3566 59.716
100.035 3141 56.0446
100.153 3005 54.8179
100.27 2963 54.4334
100.388 3079 55.4887
100.505 3096 55.6417
100.622 3058 55.2992
100.74 3105 55.7225
100.857 3173 56.3294
100.975 3251 57.0175
101.092 3196 56.5332
101.209 2950 54.3139
101.327 2758 52.5167
101.444 2790 52.8205
101.561 2808 52.9906
101.679 2996 54.7357
101.796 3243 56.9473
101.913 3516 59.2959
102.03 3969 63
102.148 4445 66.6708
102.265 4413 66.4304
102.382 5397 73.4643
102.499 5358 73.1984
102.616 5313 72.8903
102.733 5364 73.2393
102.851 5381 73.3553
102.968 5156 71.8053
103.085 5123 71.5751
103.202 4642 68.1322
103.319 4265 65.307
103.436 3974 63.0397
103.552 3470 58.9067
103.669 3499 59.1523
103.786 3368 58.0345
103.903 3489 59.0678
104.02 3654 60.4483
104.137 3477 58.9661
104.253 3523 59.3549
104.37 3758 61.3025
104.487 3752 61.2536
104.603 3504 59.1946
104.72 3247 56.9825
104.836 3044 55.1725
104.953 3066 55.3715
105.069 3312 57.55
105.186 3321 57.6281
105.302 3747 61.2127
105.418 4235 65.0769
105.535 4671 68.3447
105.651 5166 71.8749
105.767 5363 73.2325
105.883 5617 74.9466
105.999 5536 74.4043
106.115 0 1
106.231 0 1
106.347 0 1
106.463 0 1
106.579 0 1
106.694 0 1
106.81 0 1
106.926 0 1
107.041 0 1
107.157 0 1
109.576 0 1
109.692 0 1
109.807 0 1
109.923 0 1
110.039 0 1
110.155 0 1
110.27 0 1
110.386 0 1
110.502 0 1
110.618 4290 65.4981
110.735 4494 67.0373
110.851 4737 68.8259
110.967 4900 70
111.083 4814 69.383
111.199 4859 69.7065
111.316 4852 69.6563
111.432 4732 68.7895
111.549 4320 65.7267
111.665 4157 64.4748
111.782 3848 62.0322
111.898 3540 59.4979
112.015 3241 56.9298
112.132 3273 57.2101
112.248 3213 56.6833
112.365 3211 56.6657
112.482 3252 57.0263
112.599 3024 54.9909
112.716 3023 54.9818
112.832 3063 55.3444
112.949 2887 53.7308
113.066 2887 53.7308
113.183 2511 50.1099
113.3 2469 49.689
113.417 2455 49.548
113.534 2578 50.774
113.652 2669 51.6624
113.769 2946 54.2771
113.886 3113 55.7943
114.003 3422 58.4979
114.12 3562 59.6825
114.238 3840 61.9677
114.355 3858 62.1128
114.472 3977 63.0635
114.589 3827 61.8628
114.707 3868 62.1932
114.824 4000 63.2456
114.942 3758 61.3025
115.059 3660 60.4979
115.176 3230 56.8331
115.294 3111 55.7763
115.411 2909 53.9351
115.529 2747 52.4118
115.646 2648 51.4587
115.764 2558 50.5767
115.881 2515 50.1498
115.999 2576 50.7543
116.116 2459 49.5883
116.234 2377 48.7545
116.351 2400 48.9898
116.469 2362 48.6004
116.586 2281 47.7598
116.704 2063 45.4203
116.821 1906 43.6578
116.939 2008 44.8107
117.056 2121 46.0543
117.174 2210 47.0106
117.291 2352 48.4974
117.409 2527 50.2693
117.526 2641 51.3907
117.644 2782 52.7447
117.761 2936 54.1849
117.879 3272 57.2014
117.996 3239 56.9122
118.114 3385 58.1808
118.231 3349 57.8705
118.349 3304 57.4804
118.466 3261 57.1052
118.584 3226 56.7979
118.701 3058 55.2992
118.819 2895 53.8052
118.936 2927 54.1018
119.053 2699 51.9519
119.171 2616 51.1468
119.288 2561 50.6063
119.405 2537 50.3686
119.523 2535 50.3488
119.64 2628 51.264
119.757 2497 49.97
119.875 2432 49.3153
119.992 2405 49.0408
120.109 2414 49.1325
120.226 2301 47.9687
120.343 2246 47.392
120.46 2185 46.744
120.578 2285 47.8017
120.695 2450 49.4975
120.812 2466 49.6588
120.929 2594 50.9313
121.046 2747 52.4118
121.163 2904 53.8888
121.279 2995 54.7266
121.396 3146 56.0892
121.513 3413 58.4209
121.63 3654 60.4483
121.747 3617 60.1415
121.863 3544 59.5315
121.98 3665 60.5392
122.097 3675 60.6218
122.213 3599 59.9917
122.33 3567 59.7244
122.446 3553 59.607
122.563 3411 58.4038
122.679 3295 57.4021
122.795 3184 56.4269
122.912 3037 55.109
123.028 3037 55.109
123.144 3008 54.8452
123.26 3042 55.1543
123.377 0 1
123.493 0 1
123.609 0 1
123.725 0 1
123.84 0 1
123.956 0 1
124.072 0 1
124.188 0 1
124.303 0 1
124.419 0 1
126.852 0 1
126.968 0 1
127.083 0 1
127.199 0 1
127.315 0 1
127.431 0 1
127.547 0 1
127.663 0 1
127.779 0 1
127.895 0 1
128.011 0 1
128.127 0 1
128.243 0 1
128.359 3754 61.2699
128.476 3703 60.8523
128.592 3693 60.7701
128.708 3692 60.7618
128.825 3829 61.8789
128.941 3765 61.3596
129.058 3691 60.7536
129.174 3568 59.7327
129.291 3420 58.4808
129.408 3426 58.532
129.524 3432 58.5833
129.641 3310 57.5326
129.758 3357 57.9396
129.875 3446 58.7026
129.992 3440 58.6515
130.108 3647 60.3904
130.225 3668 60.564
130.342 3809 61.7171
130.459 4148 64.405
130.576 3973 63.0317
130.693 4026 63.4508
130.81 3931 62.6977
130.928 3978 63.0714
131.045 3830 61.887
131.162 3707 60.8851
131.279 3737 61.131
131.396 3732 61.0901
131.513 3731 61.0819
131.631 3662 60.5145
131.748 3515 59.2874
131.865 3356 57.931
131.983 3388 58.2065
132.1 3425 58.5235
132.217 3527 59.3886
132.335 3398 58.2924
132.452 3405 58.3524
132.57 3412 58.4123
132.687 3325 57.6628
132.804 3615 60.1249
132.922 3356 57.931
133.039 3214 56.6922
133.157 3182 56.4092
133.274 3112 55.7853
133.392 3223 56.7715
133.509 3295 57.4021
133.627 3391 58.2323
133.744 3487 59.0508
133.862 3560 59.6657
133.979 3486 59.0424
134.097 3642 60.349
134.214 3540 59.4979
134.332 3422 58.4979
134.449 3309 57.5239
134.567 3326 57.6715
134.684 3375 58.0948
134.802 3402 58.3267
134.919 3387 58.1979
135.037 3350 57.8792
135.154 3288 57.3411
135.272 3140 56.0357
135.389 3184 56.4269
135.507 3043 55.1634
135.624 2954 54.3507
135.742 3101 55.6866
135.859 3175 56.3471
135.977 3116 55.8211
136.094 3031 55.0545
136.211 2930 54.1295
136.329 2921 54.0463
136.446 2781 52.7352
136.564 2782 52.7447
136.681 2743 52.3737
136.798 2738 52.3259
136.915 2701 51.9711
137.033 2733 52.2781
137.15 2733 52.2781
137.267 2796 52.8772
137.384 2907 53.9166
137.502 2895 53.8052
137.619 2999 54.7631
137.736 3011 54.8726
137.853 2858 53.4603
137.97 3007 54.8361
138.087 2944 54.2586
138.204 3056 55.2811
138.321 3001 54.7814
138.438 3168 56.285
138.555 3154 56.1605
138.672 3101 55.6866
138.788 3032 55.0636
138.905 3189 56.4712
139.022 2955 54.3599
139.139 3172 56.3205
139.255 3116 55.8211
139.372 3352 57.8965
139.488 3366 58.0172
139.605 3478 58.9746
139.721 3355 57.9224
139.838 3426 58.532
139.954 3336 57.7581
140.071 3258 57.0789
140.187 3364 58
140.303 3205 56.6127
140.419 3267 57.1577
140.535 3154 56.1605
140.652 3207 56.6304
140.768 0 1
140.884 0 1
141 0 1
141.115 0 1
141.231 0 1
141.347 0 1
141.463 0 1
141.578 0 1
141.694 0 1
144.104 0 1
144.219 0 1
144.335 0 1
144.45 0 1
144.566 0 1
144.682 0 1
144.798 0 1
144.914 0 1
145.03 0 1
145.146 3649 60.407
145.262 3884 62.3217
145.378 3884 62.3217
145.494 4029 63.4744
145.61 4217 64.9384
145.726 4528 67.2904
145.842 4580 67.6757
145.959 4818 69.4118
146.075 5069 71.1969
146.192 5718 75.6175
146.308 5775 75.9934
146.425 6103 78.1217
146.541 6385 79.9062
146.658 6899 83.0602
146.774 7194 84.8175
146.891 7627 87.3327
147.008 7937 89.0898
147.125 8368 91.4768
147.241 8697 93.2577
147.358 8918 94.4352
147.475 8955 94.6309
147.592 8982 94.7734
147.709 8580 92.6283
147.826 8901 94.3451
147.943 9193 95.8801
148.06 9766 98.8231
148.177 10318 101.578
148.294 10492 102.43
148.411 10661 103.252
148.528 10852 104.173
148.645 10801 103.928
148.762 10813 103.986
148.88 10446 102.206
148.997 10833 104.082
149.114 9732 98.6509
149.231 9820 99.0959
149.349 9537 97.6576
149.466 9906 99.5289
149.583 9615 98.0561
149.701 10005 100.025
149.818 10036 100.18
149.935 10211 101.049
150.053 10169 100.841
150.17 10483 102.387
150.287 10514 102.538
150.405 10587 102.893
150.522 10739 103.629
150.64 10926 104.528
150.757 10855 104.187
150.875 10926 104.528
150.992 10919 104.494
151.11 11047 105.105
151.227 10480 102.372
151.344 9777 98.8787
151.462 9954 99.7697
151.579 10293 101.454
151.697 10943 104.609
151.814 11468 107.089
151.932 11777 108.522
152.049 11903 109.101
152.167 11887 109.028
152.284 11927 109.211
152.402 11709 108.208
152.519 11459 107.047
152.636 11464 107.07
152.754 11264 106.132
152.871 11136 105.527
152.989 11092 105.319
153.106 11173 105.702
153.223 11057 105.152
153.341 11396 106.752
153.458 11299 106.297
153.575 11501 107.243
153.693 11726 108.287
153.81 11863 108.917
153.927 12264 110.743
154.044 12335 111.063
154.162 12668 112.552
154.279 12748 112.907
154.396 13312 115.378
154.513 13320 115.412
154.63 13471 116.065
154.747 13464 116.034
154.864 13186 114.83
154.981 12560 112.071
155.098 12613 112.308
155.215 13412 115.81
155.332 13944 118.085
155.449 14480 120.333
155.566 14717 121.314
155.683 14547 120.611
155.8 14720 121.326
155.917 14557 120.652
156.033 14318 119.658
156.15 0 1
156.267 0 1
156.383 0 1
156.5 0 1
156.617 0 1
156.733 0 1
156.85 0 1
156.966 0 1
157.082 0 1
157.199 0 1
157.315 0 1
157.431 0 1
157.547 0 1
157.664 0 1
157.78 0 1
157.896 0 1
158.012 0 1
158.128 0 1
158.244 0 1
158.359 0 1
158.475 0 1
158.591 0 1
158.706 0 1
