
6.15755 0 1
6.2731 0 1
6.3887 0 1
6.50437 0 1
6.62009 0 1
6.73587 0 1
6.8517 0 1
6.96759 0 1
7.08353 0 1
7.19952 0 1
7.31557 0 1
7.43166 0 1
7.54781 0 1
7.664 0 1
7.78024 0 1
7.89653 0 1
8.01286 0 1
8.12924 0 1
8.24567 0 1
8.36213 0 1
8.47864 0 1
8.59519 0 1
8.71178 0 1
8.82841 0 1
8.94508 0 1
9.06179 0 1
9.17853 0 1
9.29531 0 1
9.41212 0 1
9.52897 0 1
9.64584 0 1
9.76276 0 1
9.8797 0 1
9.99667 0 1
10.1137 0 1
10.2307 0 1
10.3478 0 1
10.4648 0 1
10.5819 0 1
10.6991 0 1
10.8162 0 1
10.9334 0 1
11.0506 0 1
11.1678 0 1
11.285 0 1
11.4023 0 1
11.5196 0 1
11.6369 0 1
11.7542 0 1
11.8715 0 1
11.9888 0 1
12.1062 0 1
12.2235 0 1
12.3409 0 1
12.4582 0 1
12.5756 0 1
12.693 0 1
12.8104 0 1
12.9278 0 1
13.0452 0 1
13.1626 0 1
13.28 0 1
13.3974 0 1
13.5149 0 1
13.6323 0 1
13.7497 0 1
13.8671 0 1
13.9845 0 1
14.1019 0 1
14.2193 0 1
14.3367 0 1
14.4541 0 1
14.5714 0 1
14.6888 0 1
14.8062 0 1
14.9235 0 1
15.0408 775 27.8388
15.1581 789 28.0891
15.2755 844 29.0517
15.3927 895 29.9166
15.51 891 29.8496
15.6273 903 30.05
15.7445 903 30.05
15.8617 939 30.6431
15.9789 871 29.5127
16.0961 848 29.1204
16.2132 790 28.1069
16.3304 786 28.0357
16.4475 855 29.2404
16.5646 790 28.1069
16.6816 812 28.4956
16.7986 788 28.0713
16.9156 791 28.1247
17.0326 773 27.8029
17.1496 774 27.8209
17.2665 736 27.1293
17.3833 730 27.0185
17.5002 717 26.7769
17.617 735 27.1109
17.7338 751 27.4044
17.8505 752 27.4226
17.9672 843 29.0345
18.0839 857 29.2746
18.2005 892 29.8664
18.3171 895 29.9166
18.4337 927 30.4467
18.5502 926 30.4302
18.6666 1017 31.8904
18.7831 990 31.4643
18.8994 983 31.3528
19.0158 911 30.1828
19.1321 931 30.5123
19.2483 909 30.1496
19.3645 919 30.315
19.4806 816 28.5657
19.5967 768 27.7128
19.7128 754 27.4591
19.8288 752 27.4226
19.9447 671 25.9037
20.0606 0 1
20.1764 0 1
20.2922 0 1
20.4079 0 1
20.5236 0 1
20.6392 0 1
20.7548 0 1
20.8702 0 1
23.3078 0 1
23.4233 0 1
23.539 0 1
23.6547 0 1
23.7704 0 1
23.8862 0 1
24.0021 0 1
24.118 0 1
24.234 0 1
24.35 0 1
24.4661 779 27.9106
24.5822 786 28.0357
24.6984 838 28.9482
24.8146 800 28.2843
24.9309 769 27.7308
25.0472 798 28.2489
25.1636 896 29.9333
25.28 905 30.0832
25.3965 857 29.2746
25.513 962 31.0161
25.6296 912 30.1993
25.7462 914 30.2324
25.8628 875 29.5804
25.9795 866 29.4279
26.0962 856 29.2575
26.213 861 29.3428
26.3298 921 30.348
26.4466 892 29.8664
26.5635 847 29.1033
26.6804 856 29.2575
26.7973 822 28.6705
26.9143 788 28.0713
27.0313 850 29.1548
27.1483 828 28.775
27.2653 808 28.4253
27.3824 801 28.3019
27.4996 873 29.5466
27.6167 812 28.4956
27.7339 829 28.7924
27.8511 838 28.9482
27.9683 851 29.1719
28.0855 826 28.7402
28.2028 819 28.6182
28.3201 801 28.3019
28.4374 855 29.2404
28.5547 767 27.6948
28.6721 796 28.2135
28.7894 804 28.3549
28.9068 800 28.2843
29.0242 882 29.6985
29.1416 775 27.8388
29.259 822 28.6705
29.3764 846 29.0861
29.4939 824 28.7054
29.6113 779 27.9106
29.7288 773 27.8029
29.8463 740 27.2029
29.9638 687 26.2107
30.0812 695 26.3629
30.1987 743 27.258
30.3162 803 28.3373
30.4337 769 27.7308
30.5512 815 28.5482
30.6687 795 28.1957
30.7862 786 28.0357
30.9037 796 28.2135
31.0212 808 28.4253
31.1387 829 28.7924
31.2562 828 28.775
31.3737 847 29.1033
31.4912 852 29.189
31.6087 824 28.7054
31.7262 830 28.8097
31.8436 871 29.5127
31.9611 825 28.7228
32.0785 838 28.9482
32.1959 822 28.6705
32.3134 857 29.2746
32.4308 804 28.3549
32.5482 757 27.5136
32.6655 820 28.6356
32.7829 743 27.258
32.9002 747 27.3313
33.0176 708 26.6083
33.1349 710 26.6458
33.2522 730 27.0185
33.3694 703 26.5141
33.4867 697 26.4008
33.6039 717 26.7769
33.7211 741 27.2213
33.8383 706 26.5707
33.9554 693 26.3249
34.0725 755 27.4773
34.1896 743 27.258
34.3067 795 28.1957
34.4237 783 27.9821
34.5407 750 27.3861
34.6577 809 28.4429
34.7746 830 28.8097
34.8915 820 28.6356
35.0084 832 28.8444
35.1252 894 29.8998
35.242 866 29.4279
35.3587 832 28.8444
35.4755 824 28.7054
35.5921 823 28.688
35.7088 799 28.2666
35.8254 803 28.3373
35.9419 762 27.6043
36.0584 773 27.8029
36.1749 708 26.6083
36.2913 703 26.5141
36.4077 713 26.7021
36.524 734 27.0924
36.6403 668 25.8457
36.7565 649 25.4755
36.8727 655 25.593
36.9889 689 26.2488
37.1049 597 24.4336
37.221 0 1
37.3369 0 1
37.4529 0 1
37.5687 0 1
37.6845 0 1
37.8003 0 1
37.916 0 1
38.0316 0 1
38.1472 0 1
40.5851 0 1
40.7008 0 1
40.8164 0 1
40.9322 0 1
41.048 0 1
41.1639 0 1
41.2798 0 1
41.3958 0 1
41.5118 0 1
41.6279 0 1
41.744 554 23.5372
41.8602 577 24.0208
41.9765 549 23.4307
42.0928 553 23.516
42.2091 551 23.4734
42.3255 501 22.383
42.4419 500 22.3607
42.5584 556 23.5797
42.675 565 23.7697
42.7915 625 25
42.9081 608 24.6577
43.0248 636 25.219
43.1415 655 25.593
43.2582 596 24.4131
43.375 582 24.1247
43.4918 645 25.3969
43.6087 577 24.0208
43.7256 624 24.98
43.8425 610 24.6982
43.9595 645 25.3969
44.0765 610 24.6982
44.1935 569 23.8537
44.3106 554 23.5372
44.4277 558 23.622
44.5448 557 23.6008
44.6619 536 23.1517
44.7791 525 22.9129
44.8963 475 21.7945
45.0136 468 21.6333
45.1308 468 21.6333
45.2481 515 22.6936
45.3654 466 21.587
45.4827 453 21.2838
45.6001 462 21.4942
45.7174 402 20.0499
45.8348 462 21.4942
45.9522 379 19.4679
46.0697 395 19.8746
46.1871 427 20.664
46.3046 433 20.8087
46.422 401 20.025
46.5395 446 21.1187
46.657 514 22.6716
46.7745 492 22.1811
46.892 408 20.199
47.0096 417 20.4206
47.1271 466 21.587
47.2446 446 21.1187
47.3622 403 20.0749
47.4797 434 20.8327
47.5973 403 20.0749
47.7149 422 20.5426
47.8324 388 19.6977
47.95 393 19.8242
48.0675 337 18.3576
48.1851 404 20.0998
48.3027 356 18.868
48.4202 420 20.4939
48.5378 418 20.445
48.6554 381 19.5192
48.7729 425 20.6155
48.8904 390 19.7484
49.008 389 19.7231
49.1255 334 18.2757
49.243 332 18.2209
49.3605 318 17.8326
49.478 312 17.6635
49.5955 307 17.5214
49.713 352 18.7617
49.8304 405 20.1246
49.9479 388 19.6977
50.0653 408 20.199
50.1827 391 19.7737
50.3001 345 18.5742
50.4175 365 19.105
50.5348 397 19.9249
50.6521 473 21.7486
50.7694 445 21.095
50.8867 481 21.9317
51.004 449 21.1896
51.1212 474 21.7715
51.2384 464 21.5407
51.3556 419 20.4695
51.4727 449 21.1896
51.5899 455 21.3307
51.707 507 22.5167
51.824 484 22
51.9411 521 22.8254
52.0581 518 22.7596
52.175 519 22.7816
52.2919 510 22.5832
52.4088 530 23.0217
52.5257 492 22.1811
52.6425 503 22.4277
52.7593 541 23.2594
52.876 509 22.561
52.9927 490 22.1359
53.1094 500 22.3607
53.226 509 22.561
53.3426 513 22.6495
53.4591 580 24.0832
53.5756 513 22.6495
53.692 531 23.0434
53.8084 554 23.5372
53.9248 467 21.6102
54.0411 482 21.9545
54.1573 566 23.7908
54.2735 0 1
54.3896 0 1
54.5057 0 1
54.6217 0 1
54.7377 0 1
54.8537 0 1
54.9695 0 1
55.0853 0 1
55.2011 0 1
55.3168 0 1
55.4324 0 1
57.824 0 1
57.9396 0 1
58.0553 0 1
58.1711 0 1
58.2869 0 1
58.4028 0 1
58.5187 0 1
58.6347 0 1
58.7508 0 1
58.8669 0 1
58.983 550 23.4521
59.0992 579 24.0624
59.2155 569 23.8537
59.3318 651 25.5147
59.4482 636 25.219
59.5646 654 25.5734
59.681 686 26.1916
59.7975 726 26.9444
59.9141 647 25.4362
60.0306 672 25.923
60.1473 637 25.2389
60.2639 624 24.98
60.3807 656 25.6125
60.4974 610 24.6982
60.6142 642 25.3377
60.731 646 25.4165
60.8479 686 26.1916
60.9648 675 25.9808
61.0818 661 25.7099
61.1987 618 24.8596
61.3158 649 25.4755
61.4328 570 23.8747
61.5499 501 22.383
61.667 549 23.4307
61.7841 558 23.622
61.9013 550 23.4521
62.0185 578 24.0416
62.1357 626 25.02
62.253 625 25
62.3702 572 23.9165
62.4875 560 23.6643
62.6049 541 23.2594
62.7222 631 25.1197
62.8396 629 25.0799
62.9569 648 25.4558
63.0743 629 25.0799
63.1918 628 25.0599
63.3092 597 24.4336
63.4267 619 24.8797
63.5441 603 24.5561
63.6616 578 24.0416
63.7791 567 23.8118
63.8966 591 24.3105
64.0142 593 24.3516
64.1317 583 24.1454
64.2492 611 24.7184
64.3668 585 24.1868
64.4843 588 24.2487
64.6019 587 24.2281
64.7195 576 24
64.837 542 23.2809
64.9546 501 22.383
65.0722 524 22.891
65.1898 461 21.4709
65.3074 495 22.2486
65.4249 529 23
65.5425 540 23.2379
65.6601 525 22.9129
65.7777 515 22.6936
65.8952 522 22.8473
66.0128 478 21.8632
66.1304 454 21.3073
66.2479 459 21.4243
66.3655 549 23.4307
66.483 641 25.318
66.6005 612 24.7386
66.718 630 25.0998
66.8355 589 24.2693
66.953 606 24.6171
67.0705 620 24.8998
67.1879 548 23.4094
67.3054 535 23.1301
67.4228 547 23.388
67.5402 562 23.7065
67.6576 541 23.2594
67.7749 574 23.9583
67.8923 597 24.4336
68.0096 619 24.8797
68.1269 532 23.0651
68.2442 585 24.1868
68.3614 577 24.0208
68.4787 533 23.0868
68.5958 524 22.891
68.713 522 22.8473
68.8302 493 22.2036
68.9473 453 21.2838
69.0643 539 23.2164
69.1814 574 23.9583
69.2984 568 23.8328
69.4154 587 24.2281
69.5323 624 24.98
69.6492 545 23.3452
69.7661 520 22.8035
69.8829 545 23.3452
69.9997 598 24.454
70.1165 628 25.0599
70.2332 687 26.2107
70.3499 634 25.1794
70.4665 625 25
70.5831 631 25.1197
70.6996 689 26.2488
70.8161 649 25.4755
70.9326 624 24.98
71.049 577 24.0208
71.1653 618 24.8596
71.2817 592 24.3311
71.3979 663 25.7488
71.5141 622 24.9399
71.6303 601 24.5153
71.7464 586 24.2074
71.8624 0 1
71.9784 0 1
72.0944 0 1
72.2102 0 1
72.3261 0 1
72.4418 0 1
72.5575 0 1
72.6732 0 1
75.1054 0 1
75.2209 0 1
75.3365 0 1
75.4521 0 1
75.5678 0 1
75.6835 0 1
75.7993 0 1
75.9151 0 1
76.031 0 1
76.147 595 24.3926
76.263 654 25.5734
76.3791 604 24.5764
76.4952 614 24.779
76.6113 631 25.1197
76.7276 667 25.8263
76.8438 662 25.7294
76.9601 682 26.1151
77.0765 704 26.533
77.1929 662 25.7294
77.3093 679 26.0576
77.4258 645 25.3969
77.5423 602 24.5357
77.6589 573 23.9374
77.7755 566 23.7908
77.8921 549 23.4307
78.0088 601 24.5153
78.1256 539 23.2164
78.2423 585 24.1868
78.3591 636 25.219
78.4759 625 25
78.5928 554 23.5372
78.7097 476 21.8174
78.8266 424 20.5913
78.9436 499 22.3383
79.0606 626 25.02
79.1776 634 25.1794
79.2946 658 25.6515
79.4117 692 26.3059
79.5288 691 26.2869
79.6459 632 25.1396
79.7631 656 25.6125
79.8802 618 24.8596
79.9974 557 23.6008
80.1147 588 24.2487
80.2319 555 23.5584
80.3491 621 24.9199
80.4664 609 24.6779
80.5837 627 25.04
80.701 607 24.6374
80.8183 603 24.5561
80.9357 680 26.0768
81.053 630 25.0998
81.1704 604 24.5764
81.2877 625 25
81.4051 568 23.8328
81.5225 497 22.2935
81.6399 520 22.8035
81.7573 593 24.3516
81.8747 552 23.4947
81.9922 580 24.0832
82.1096 583 24.1454
82.227 561 23.6854
82.3444 486 22.0454
82.4619 434 20.8327
82.5793 491 22.1585
82.6967 522 22.8473
82.8142 632 25.1396
82.9316 618 24.8596
83.049 597 24.4336
83.1664 627 25.04
83.2838 605 24.5967
83.4012 574 23.9583
83.5186 611 24.7184
83.636 581 24.1039
83.7534 574 23.9583
83.8708 580 24.0832
83.9881 542 23.2809
84.1055 602 24.5357
84.2228 631 25.1197
84.3401 588 24.2487
84.4575 625 25
84.5747 604 24.5764
84.692 591 24.3105
84.8093 603 24.5561
84.9265 508 22.5389
85.0437 516 22.7156
85.1609 493 22.2036
85.2781 548 23.4094
85.3952 594 24.3721
85.5123 570 23.8747
85.6294 643 25.3574
85.7465 582 24.1247
85.8636 542 23.2809
85.9806 500 22.3607
86.0976 470 21.6795
86.2145 622 24.9399
86.3315 692 26.3059
86.4484 712 26.6833
86.5652 708 26.6083
86.682 687 26.2107
86.7988 710 26.6458
86.9156 765 27.6586
87.0323 709 26.6271
87.149 655 25.593
87.2657 678 26.0384
87.3823 663 25.7488
87.4988 643 25.3574
87.6154 766 27.6767
87.7318 753 27.4408
87.8483 736 27.1293
87.9647 794 28.178
88.081 736 27.1293
88.1973 763 27.6225
88.3136 765 27.6586
88.4298 735 27.1109
88.546 683 26.1343
88.6621 670 25.8844
88.7781 643 25.3574
88.8942 0 1
89.0101 0 1
89.126 0 1
89.2419 0 1
89.3577 0 1
89.4734 0 1
89.5891 0 1
89.7047 0 1
89.8203 0 1
89.9358 0 1
92.3269 0 1
92.4424 0 1
92.558 0 1
92.6736 0 1
92.7893 0 1
92.905 0 1
93.0208 0 1
93.1366 0 1
93.2525 0 1
93.3685 0 1
93.4845 0 1
93.6005 884 29.7321
93.7167 841 29
93.8328 806 28.3901
93.949 738 27.1662
94.0653 736 27.1293
94.1816 689 26.2488
94.2979 686 26.1916
94.4143 711 26.6646
94.5307 729 27
94.6472 822 28.6705
94.7637 791 28.1247
94.8803 817 28.5832
94.9969 744 27.2764
95.1135 700 26.4575
95.2302 691 26.2869
95.3469 750 27.3861
95.4637 827 28.7576
95.5805 853 29.2062
95.6973 858 29.2916
95.8142 849 29.1376
95.9311 897 29.95
96.048 897 29.95
96.1649 855 29.2404
96.2819 852 29.189
96.3989 822 28.6705
96.516 873 29.5466
96.633 854 29.2233
96.7501 792 28.1425
96.8673 846 29.0861
96.9844 850 29.1548
97.1016 894 29.8998
97.2188 907 30.1164
97.336 916 30.2655
97.4532 876 29.5973
97.5704 847 29.1033
97.6877 763 27.6225
97.805 802 28.3196
97.9223 734 27.0924
98.0396 768 27.7128
98.1569 799 28.2666
98.2743 840 28.9828
98.3916 859 29.3087
98.509 868 29.4618
98.6264 853 29.2062
98.7438 745 27.2947
98.8612 787 28.0535
98.9786 851 29.1719
99.096 819 28.6182
99.2134 888 29.7993
99.3308 963 31.0322
99.4482 875 29.5804
99.5656 902 30.0333
99.6831 874 29.5635
99.8005 850 29.1548
99.9179 883 29.7153
100.035 900 30
100.153 881 29.6816
100.27 847 29.1033
100.388 887 29.7825
100.505 907 30.1164
100.622 965 31.0644
100.74 1024 32
100.857 1032 32.1248
100.975 1054 32.4654
101.092 952 30.8545
101.209 901 30.0167
101.327 855 29.2404
101.444 832 28.8444
101.561 813 28.5132
101.679 839 28.9655
101.796 873 29.5466
101.913 950 30.8221
102.03 933 30.545
102.148 974 31.209
102.265 892 29.8664
102.382 874 29.5635
102.499 882 29.6985
102.616 925 30.4138
102.733 1007 31.7333
102.851 1019 31.9218
102.968 1024 32
103.085 988 31.4325
103.202 1009 31.7648
103.319 979 31.289
103.436 972 31.1769
103.552 974 31.209
103.669 931 30.5123
103.786 1050 32.4037
103.903 1052 32.4345
104.02 1042 32.28
104.137 1096 33.1059
104.253 1111 33.3317
104.37 1105 33.2415
104.487 1187 34.4529
104.603 1041 32.2645
104.72 1048 32.3728
104.836 998 31.5911
104.953 1046 32.3419
105.069 984 31.3688
105.186 1046 32.3419
105.302 1102 33.1964
105.418 1091 33.0303
105.535 1195 34.5688
105.651 1146 33.8526
105.767 1052 32.4345
105.883 1011 31.7962
105.999 1018 31.9061
106.115 0 1
106.231 0 1
106.347 0 1
106.463 0 1
106.579 0 1
106.694 0 1
106.81 0 1
106.926 0 1
107.041 0 1
107.157 0 1
109.576 0 1
109.692 0 1
109.807 0 1
109.923 0 1
110.039 0 1
110.155 0 1
110.27 0 1
110.386 0 1
110.502 0 1
110.618 1120 33.4664
110.735 1166 34.1467
110.851 1153 33.9559
110.967 1010 31.7805
111.083 1039 32.2335
111.199 1093 33.0606
111.316 1165 34.1321
111.432 1127 33.5708
111.549 1192 34.5254
111.665 1162 34.0881
111.782 1159 34.0441
111.898 1156 34
112.015 1068 32.6803
112.132 1054 32.4654
112.248 1042 32.28
112.365 1117 33.4215
112.482 1037 32.2025
112.599 1166 34.1467
112.716 1151 33.9264
112.832 1124 33.5261
112.949 1314 36.2491
113.066 1217 34.8855
113.183 1251 35.3695
113.3 1145 33.8378
113.417 1051 32.4191
113.534 1127 33.5708
113.652 1076 32.8024
113.769 1068 32.6803
113.886 1046 32.3419
114.003 1095 33.0908
114.12 1109 33.3017
114.238 1155 33.9853
114.355 1095 33.0908
114.472 974 31.209
114.589 967 31.0966
114.707 1124 33.5261
114.824 1226 35.0143
114.942 1137 33.7194
115.059 1128 33.5857
115.176 1134 33.6749
115.294 1151 33.9264
115.411 1189 34.4819
115.529 1098 33.1361
115.646 1100 33.1662
115.764 1094 33.0757
115.881 1130 33.6155
115.999 1120 33.4664
116.116 1145 33.8378
116.234 1169 34.1906
116.351 1149 33.8969
116.469 1233 35.1141
116.586 1264 35.5528
116.704 1237 35.171
116.821 1249 35.3412
116.939 1223 34.9714
117.056 1173 34.2491
117.174 1130 33.6155
117.291 1176 34.2929
117.409 1149 33.8969
117.526 1246 35.2987
117.644 1261 35.5106
117.761 1205 34.7131
117.879 1243 35.2562
117.996 1118 33.4365
118.114 1133 33.6601
118.231 1164 34.1174
118.349 1142 33.7935
118.466 1164 34.1174
118.584 1240 35.2136
118.701 1244 35.2704
118.819 1163 34.1028
118.936 1200 34.641
119.053 1179 34.3366
119.171 1143 33.8083
119.288 1152 33.9411
119.405 1122 33.4963
119.523 1138 33.7343
119.64 1125 33.541
119.757 1125 33.541
119.875 1263 35.5387
119.992 1195 34.5688
120.109 1249 35.3412
120.226 1289 35.9026
120.343 1246 35.2987
120.46 1251 35.3695
120.578 1300 36.0555
120.695 1214 34.8425
120.812 1236 35.1568
120.929 1231 35.0856
121.046 1224 34.9857
121.163 1243 35.2562
121.279 1284 35.8329
121.396 1238 35.1852
121.513 1204 34.6987
121.63 1169 34.1906
121.747 1154 33.9706
121.863 1131 33.6303
121.98 1088 32.9848
122.097 1161 34.0735
122.213 1198 34.6121
122.33 1194 34.5543
122.446 1233 35.1141
122.563 1195 34.5688
122.679 1182 34.3802
122.795 1124 33.5261
122.912 1138 33.7343
123.028 1104 33.2265
123.144 1126 33.5559
123.26 1076 32.8024
123.377 0 1
123.493 0 1
123.609 0 1
123.725 0 1
123.84 0 1
123.956 0 1
124.072 0 1
124.188 0 1
124.303 0 1
124.419 0 1
126.852 0 1
126.968 0 1
127.083 0 1
127.199 0 1
127.315 0 1
127.431 0 1
127.547 0 1
127.663 0 1
127.779 0 1
127.895 0 1
128.011 0 1
128.127 0 1
128.243 0 1
128.359 1337 36.565
128.476 1347 36.7015
128.592 1331 36.4829
128.708 1368 36.9865
128.825 1313 36.2353
128.941 1321 36.3456
129.058 1368 36.9865
129.174 1433 37.855
129.291 1369 37
129.408 1466 38.2884
129.524 1509 38.8458
129.641 1481 38.4838
129.758 1452 38.1051
129.875 1555 39.4335
129.992 1477 38.4318
130.108 1500 38.7298
130.225 1590 39.8748
130.342 1569 39.6106
130.459 1455 38.1445
130.576 1522 39.0128
130.693 1444 38
130.81 1432 37.8418
130.928 1476 38.4187
131.045 1485 38.5357
131.162 1509 38.8458
131.279 1522 39.0128
131.396 1562 39.5221
131.513 1521 39
131.631 1586 39.8246
131.748 1539 39.2301
131.865 1538 39.2173
131.983 1512 38.8844
132.1 1477 38.4318
132.217 1483 38.5097
132.335 1451 38.092
132.452 1443 37.9868
132.57 1458 38.1838
132.687 1469 38.3275
132.804 1574 39.6737
132.922 1582 39.7744
133.039 1464 38.2623
133.157 1548 39.3446
133.274 1517 38.9487
133.392 1508 38.833
133.509 1570 39.6232
133.627 1535 39.1791
133.744 1606 40.0749
133.862 1585 39.8121
133.979 1631 40.3856
134.097 1670 40.8656
134.214 1660 40.7431
134.332 1593 39.9124
134.449 1614 40.1746
134.567 1619 40.2368
134.684 1740 41.7133
134.802 1747 41.7971
134.919 1643 40.5339
135.037 1699 41.2189
135.154 1626 40.3237
135.272 1661 40.7554
135.389 1657 40.7063
135.507 1679 40.9756
135.624 1563 39.5348
135.742 1589 39.8623
135.859 1510 38.8587
135.977 1615 40.1871
136.094 1519 38.9744
136.211 1537 39.2046
136.329 1583 39.7869
136.446 1594 39.9249
136.564 1639 40.4846
136.681 1570 39.6232
136.798 1548 39.3446
136.915 1633 40.4104
137.033 1593 39.9124
137.15 1613 40.1622
137.267 1573 39.6611
137.384 1681 41
137.502 1674 40.9145
137.619 1644 40.5463
137.736 1757 41.9166
137.853 1696 41.1825
137.97 1696 41.1825
138.087 1612 40.1497
138.204 1746 41.7852
138.321 1730 41.5933
138.438 1841 42.9069
138.555 1903 43.6234
138.672 1900 43.589
138.788 1865 43.1856
138.905 1808 42.5206
139.022 1811 42.5558
139.139 1819 42.6497
139.255 1734 41.6413
139.372 1677 40.9512
139.488 1671 40.8779
139.605 1667 40.8289
139.721 1686 41.0609
139.838 1705 41.2916
139.954 1791 42.3202
140.071 1640 40.4969
140.187 1568 39.598
140.303 1672 40.8901
140.419 1693 41.1461
140.535 1607 40.0874
140.652 1600 40
140.768 0 1
140.884 0 1
141 0 1
141.115 0 1
141.231 0 1
141.347 0 1
141.463 0 1
141.578 0 1
141.694 0 1
144.104 0 1
144.219 0 1
144.335 0 1
144.45 0 1
144.566 0 1
144.682 0 1
144.798 0 1
144.914 0 1
145.03 0 1
145.146 1342 36.6333
145.262 1424 37.7359
145.378 1522 39.0128
145.494 1495 38.6652
145.61 1419 37.6696
145.726 1545 39.3065
145.842 1488 38.5746
145.959 1488 38.5746
146.075 1449 38.0657
146.192 1497 38.6911
146.308 1377 37.108
146.425 1440 37.9473
146.541 1421 37.6962
146.658 1398 37.3898
146.774 1384 37.2022
146.891 1324 36.3868
147.008 1348 36.7151
147.125 1321 36.3456
147.241 1426 37.7624
147.358 1464 38.2623
147.475 1510 38.8587
147.592 1457 38.1707
147.709 1488 38.5746
147.826 1493 38.6394
147.943 1479 38.4578
148.06 1468 38.3145
148.177 1547 39.3319
148.294 1557 39.4588
148.411 1566 39.5727
148.528 1598 39.975
148.645 1510 38.8587
148.762 1551 39.3827
148.88 1576 39.6989
148.997 1566 39.5727
149.114 1652 40.6448
149.231 1628 40.3485
149.349 1652 40.6448
149.466 1711 41.3642
149.583 1650 40.6202
149.701 1787 42.2729
149.818 1664 40.7922
149.935 1683 41.0244
150.053 1682 41.0122
150.17 1599 39.9875
150.287 1601 40.0125
150.405 1585 39.8121
150.522 1557 39.4588
150.64 1494 38.6523
150.757 1509 38.8458
150.875 1442 37.9737
150.992 1462 38.2361
151.11 1400 37.4166
151.227 1429 37.8021
151.344 1343 36.647
151.462 1339 36.5923
151.579 1352 36.7696
151.697 1326 36.4143
151.814 1310 36.1939
151.932 1370 37.0135
152.049 1394 37.3363
152.167 1307 36.1525
152.284 1410 37.55
152.402 1340 36.606
152.519 1426 37.7624
152.636 1456 38.1576
152.754 1505 38.7943
152.871 1524 39.0384
152.989 1555 39.4335
153.106 1538 39.2173
153.223 1602 40.025
153.341 1540 39.2428
153.458 1590 39.8748
153.575 1643 40.5339
153.693 1654 40.6694
153.81 1689 41.0974
153.927 1690 41.1096
154.044 1754 41.8808
154.162 1672 40.8901
154.279 1680 40.9878
154.396 1610 40.1248
154.513 1697 41.1947
154.63 1698 41.2068
154.747 1710 41.3521
154.864 1710 41.3521
154.981 1793 42.3438
155.098 1633 40.4104
155.215 1632 40.398
155.332 1512 38.8844
155.449 1483 38.5097
155.566 1462 38.2361
155.683 1408 37.5233
155.8 1359 36.8646
155.917 1328 36.4417
156.033 1262 35.5246
156.15 0 1
156.267 0 1
156.383 0 1
156.5 0 1
156.617 0 1
156.733 0 1
156.85 0 1
156.966 0 1
157.082 0 1
157.199 0 1
157.315 0 1
157.431 0 1
157.547 0 1
157.664 0 1
157.78 0 1
157.896 0 1
158.012 0 1
158.128 0 1
158.244 0 1
158.359 0 1
158.475 0 1
158.591 0 1
158.706 0 1
