
6.15755 0 1
6.2731 0 1
6.3887 0 1
6.50437 0 1
6.62009 0 1
6.73587 0 1
6.8517 0 1
6.96759 0 1
7.08353 0 1
7.19952 0 1
7.31557 0 1
7.43166 0 1
7.54781 0 1
7.664 0 1
7.78024 0 1
7.89653 0 1
8.01286 0 1
8.12924 0 1
8.24567 0 1
8.36213 0 1
8.47864 0 1
8.59519 0 1
8.71178 0 1
8.82841 0 1
8.94508 0 1
9.06179 0 1
9.17853 0 1
9.29531 0 1
9.41212 0 1
9.52897 0 1
9.64584 0 1
9.76276 0 1
9.8797 0 1
9.99667 0 1
10.1137 0 1
10.2307 0 1
10.3478 0 1
10.4648 0 1
10.5819 0 1
10.6991 0 1
10.8162 0 1
10.9334 0 1
11.0506 0 1
11.1678 0 1
11.285 0 1
11.4023 0 1
11.5196 0 1
11.6369 0 1
11.7542 0 1
11.8715 0 1
11.9888 0 1
12.1062 0 1
12.2235 0 1
12.3409 0 1
12.4582 0 1
12.5756 0 1
12.693 0 1
12.8104 0 1
12.9278 0 1
13.0452 0 1
13.1626 0 1
13.28 0 1
13.3974 0 1
13.5149 0 1
13.6323 0 1
13.7497 0 1
13.8671 0 1
13.9845 0 1
14.1019 0 1
14.2193 0 1
14.3367 0 1
14.4541 0 1
14.5714 0 1
14.6888 0 1
14.8062 0 1
14.9235 0 1
15.0408 1051 32.4191
15.1581 1096 33.1059
15.2755 1145 33.8378
15.3927 1092 33.0454
15.51 1055 32.4808
15.6273 1098 33.1361
15.7445 1093 33.0606
15.8617 1084 32.9242
15.9789 1047 32.3574
16.0961 1107 33.2716
16.2132 1115 33.3916
16.3304 1022 31.9687
16.4475 1050 32.4037
16.5646 1039 32.2335
16.6816 946 30.7571
16.7986 984 31.3688
16.9156 1099 33.1512
17.0326 1062 32.5883
17.1496 1074 32.7719
17.2665 1116 33.4066
17.3833 1088 32.9848
17.5002 1089 33
17.617 1170 34.2053
17.7338 1169 34.1906
17.8505 1257 35.4542
17.9672 1220 34.9285
18.0839 1312 36.2215
18.2005 1363 36.9188
18.3171 1412 37.5766
18.4337 1437 37.9078
18.5502 1455 38.1445
18.6666 1322 36.3593
18.7831 1413 37.5899
18.8994 1331 36.4829
19.0158 1314 36.2491
19.1321 1243 35.2562
19.2483 1202 34.6699
19.3645 1234 35.1283
19.4806 1087 32.9697
19.5967 1122 33.4963
19.7128 1052 32.4345
19.8288 1024 32
19.9447 913 30.2159
20.0606 0 1
20.1764 0 1
20.2922 0 1
20.4079 0 1
20.5236 0 1
20.6392 0 1
20.7548 0 1
20.8702 0 1
23.3078 0 1
23.4233 0 1
23.539 0 1
23.6547 0 1
23.7704 0 1
23.8862 0 1
24.0021 0 1
24.118 0 1
24.234 0 1
24.35 0 1
24.4661 1148 33.8821
24.5822 1122 33.4963
24.6984 1110 33.3167
24.8146 1055 32.4808
24.9309 1104 33.2265
25.0472 1025 32.0156
25.1636 1052 32.4345
25.28 1028 32.0624
25.3965 1075 32.7872
25.513 1186 34.4384
25.6296 1143 33.8083
25.7462 1225 35
25.8628 1205 34.7131
25.9795 1147 33.8674
26.0962 1213 34.8281
26.213 1179 34.3366
26.3298 1274 35.6931
26.4466 1264 35.5528
26.5635 1253 35.3977
26.6804 1268 35.609
26.7973 1365 36.9459
26.9143 1305 36.1248
27.0313 1333 36.5103
27.1483 1353 36.7831
27.2653 1283 35.819
27.3824 1262 35.5246
27.4996 1268 35.609
27.6167 1188 34.4674
27.7339 1144 33.8231
27.8511 1112 33.3467
27.9683 1123 33.5112
28.0855 1178 34.322
28.2028 1072 32.7414
28.3201 1037 32.2025
28.4374 1061 32.573
28.5547 1100 33.1662
28.6721 1070 32.7109
28.7894 1094 33.0757
28.9068 1057 32.5115
29.0242 1066 32.6497
29.1416 1023 31.9844
29.259 1056 32.4962
29.3764 1082 32.8938
29.4939 1115 33.3916
29.6113 1106 33.2566
29.7288 1124 33.5261
29.8463 1113 33.3617
29.9638 1224 34.9857
30.0812 1215 34.8569
30.1987 1199 34.6266
30.3162 1224 34.9857
30.4337 1252 35.3836
30.5512 1260 35.4965
30.6687 1260 35.4965
30.7862 1247 35.3129
30.9037 1210 34.7851
31.0212 1219 34.9142
31.1387 1139 33.7491
31.2562 1136 33.7046
31.3737 1126 33.5559
31.4912 1061 32.573
31.6087 1055 32.4808
31.7262 1054 32.4654
31.8436 1028 32.0624
31.9611 945 30.7409
32.0785 1028 32.0624
32.1959 1010 31.7805
32.3134 1044 32.311
32.4308 1092 33.0454
32.5482 1050 32.4037
32.6655 1027 32.0468
32.7829 1059 32.5423
32.9002 1052 32.4345
33.0176 1077 32.8177
33.1349 1053 32.45
33.2522 1128 33.5857
33.3694 1060 32.5576
33.4867 1114 33.3766
33.6039 1146 33.8526
33.7211 1206 34.7275
33.8383 1166 34.1467
33.9554 1228 35.0428
34.0725 1215 34.8569
34.1896 1130 33.6155
34.3067 1201 34.6554
34.4237 1153 33.9559
34.5407 1190 34.4964
34.6577 1166 34.1467
34.7746 1039 32.2335
34.8915 1086 32.9545
35.0084 990 31.4643
35.1252 971 31.1609
35.242 960 30.9839
35.3587 916 30.2655
35.4755 970 31.1448
35.5921 992 31.496
35.7088 1034 32.1559
35.8254 1032 32.1248
35.9419 1012 31.8119
36.0584 1009 31.7648
36.1749 1076 32.8024
36.2913 1002 31.6544
36.4077 1025 32.0156
36.524 1034 32.1559
36.6403 1013 31.8277
36.7565 1020 31.9374
36.8727 1050 32.4037
36.9889 972 31.1769
37.1049 1023 31.9844
37.221 0 1
37.3369 0 1
37.4529 0 1
37.5687 0 1
37.6845 0 1
37.8003 0 1
37.916 0 1
38.0316 0 1
38.1472 0 1
40.5851 0 1
40.7008 0 1
40.8164 0 1
40.9322 0 1
41.048 0 1
41.1639 0 1
41.2798 0 1
41.3958 0 1
41.5118 0 1
41.6279 0 1
41.744 777 27.8747
41.8602 915 30.249
41.9765 868 29.4618
42.0928 867 29.4449
42.2091 909 30.1496
42.3255 963 31.0322
42.4419 907 30.1164
42.5584 935 30.5778
42.675 983 31.3528
42.7915 958 30.9516
42.9081 928 30.4631
43.0248 953 30.8707
43.1415 972 31.1769
43.2582 994 31.5278
43.375 909 30.1496
43.4918 937 30.6105
43.6087 972 31.1769
43.7256 961 31
43.8425 972 31.1769
43.9595 949 30.8058
44.0765 896 29.9333
44.1935 972 31.1769
44.3106 928 30.4631
44.4277 875 29.5804
44.5448 965 31.0644
44.6619 859 29.3087
44.7791 851 29.1719
44.8963 868 29.4618
45.0136 833 28.8617
45.1308 895 29.9166
45.2481 802 28.3196
45.3654 820 28.6356
45.4827 804 28.3549
45.6001 775 27.8388
45.7174 785 28.0179
45.8348 737 27.1477
45.9522 765 27.6586
46.0697 729 27
46.1871 673 25.9422
46.3046 703 26.5141
46.422 792 28.1425
46.5395 704 26.533
46.657 669 25.865
46.7745 711 26.6646
46.892 712 26.6833
47.0096 704 26.533
47.1271 744 27.2764
47.2446 680 26.0768
47.3622 640 25.2982
47.4797 668 25.8457
47.5973 636 25.219
47.7149 685 26.1725
47.8324 687 26.2107
47.95 634 25.1794
48.0675 604 24.5764
48.1851 587 24.2281
48.3027 559 23.6432
48.4202 562 23.7065
48.5378 552 23.4947
48.6554 591 24.3105
48.7729 588 24.2487
48.8904 609 24.6779
49.008 532 23.0651
49.1255 574 23.9583
49.243 563 23.7276
49.3605 584 24.1661
49.478 547 23.388
49.5955 570 23.8747
49.713 593 24.3516
49.8304 571 23.8956
49.9479 593 24.3516
50.0653 595 24.3926
50.1827 576 24
50.3001 651 25.5147
50.4175 644 25.3772
50.5348 632 25.1396
50.6521 643 25.3574
50.7694 637 25.2389
50.8867 702 26.4953
51.004 690 26.2679
51.1212 659 25.671
51.2384 730 27.0185
51.3556 709 26.6271
51.4727 697 26.4008
51.5899 779 27.9106
51.707 747 27.3313
51.824 736 27.1293
51.9411 749 27.3679
52.0581 715 26.7395
52.175 777 27.8747
52.2919 768 27.7128
52.4088 758 27.5318
52.5257 726 26.9444
52.6425 689 26.2488
52.7593 728 26.9815
52.876 728 26.9815
52.9927 699 26.4386
53.1094 799 28.2666
53.226 790 28.1069
53.3426 799 28.2666
53.4591 798 28.2489
53.5756 797 28.2312
53.692 885 29.7489
53.8084 886 29.7658
53.9248 852 29.189
54.0411 880 29.6648
54.1573 951 30.8383
54.2735 0 1
54.3896 0 1
54.5057 0 1
54.6217 0 1
54.7377 0 1
54.8537 0 1
54.9695 0 1
55.0853 0 1
55.2011 0 1
55.3168 0 1
55.4324 0 1
57.824 0 1
57.9396 0 1
58.0553 0 1
58.1711 0 1
58.2869 0 1
58.4028 0 1
58.5187 0 1
58.6347 0 1
58.7508 0 1
58.8669 0 1
58.983 1043 32.2955
59.0992 1036 32.187
59.2155 1091 33.0303
59.3318 1094 33.0757
59.4482 1090 33.0151
59.5646 1165 34.1321
59.681 1249 35.3412
59.7975 1269 35.623
59.9141 1203 34.6843
60.0306 1192 34.5254
60.1473 1169 34.1906
60.2639 1133 33.6601
60.3807 1095 33.0908
60.4974 1024 32
60.6142 984 31.3688
60.731 983 31.3528
60.8479 923 30.3809
60.9648 899 29.9833
61.0818 900 30
61.1987 877 29.6142
61.3158 895 29.9166
61.4328 926 30.4302
61.5499 921 30.348
61.667 953 30.8707
61.7841 953 30.8707
61.9013 971 31.1609
62.0185 934 30.5614
62.1357 1011 31.7962
62.253 963 31.0322
62.3702 995 31.5436
62.4875 937 30.6105
62.6049 1012 31.8119
62.7222 1006 31.7175
62.8396 1014 31.8434
62.9569 1090 33.0151
63.0743 1067 32.665
63.1918 1150 33.9116
63.3092 1167 34.1614
63.4267 1174 34.2637
63.5441 1137 33.7194
63.6616 1129 33.6006
63.7791 1046 32.3419
63.8966 1059 32.5423
64.0142 983 31.3528
64.1317 970 31.1448
64.2492 832 28.8444
64.3668 813 28.5132
64.4843 754 27.4591
64.6019 791 28.1247
64.7195 817 28.5832
64.837 802 28.3196
64.9546 874 29.5635
65.0722 861 29.3428
65.1898 797 28.2312
65.3074 905 30.0832
65.4249 856 29.2575
65.5425 913 30.2159
65.6601 902 30.0333
65.7777 926 30.4302
65.8952 906 30.0998
66.0128 974 31.209
66.1304 896 29.9333
66.2479 928 30.4631
66.3655 1010 31.7805
66.483 1082 32.8938
66.6005 1074 32.7719
66.718 1139 33.7491
66.8355 1132 33.6452
66.953 1158 34.0294
67.0705 1063 32.6037
67.1879 1106 33.2566
67.3054 1039 32.2335
67.4228 1051 32.4191
67.5402 952 30.8545
67.6576 830 28.8097
67.7749 791 28.1247
67.8923 843 29.0345
68.0096 779 27.9106
68.1269 787 28.0535
68.2442 831 28.8271
68.3614 848 29.1204
68.4787 787 28.0535
68.5958 859 29.3087
68.713 865 29.4109
68.8302 951 30.8383
68.9473 865 29.4109
69.0643 938 30.6268
69.1814 933 30.545
69.2984 949 30.8058
69.4154 958 30.9516
69.5323 928 30.4631
69.6492 961 31
69.7661 1016 31.8748
69.8829 1051 32.4191
69.9997 1099 33.1512
70.1165 1129 33.6006
70.2332 1074 32.7719
70.3499 1123 33.5112
70.4665 1185 34.4238
70.5831 1200 34.641
70.6996 1215 34.8569
70.8161 1163 34.1028
70.9326 1127 33.5708
71.049 990 31.4643
71.1653 973 31.1929
71.2817 853 29.2062
71.3979 841 29
71.5141 767 27.6948
71.6303 788 28.0713
71.7464 757 27.5136
71.8624 0 1
71.9784 0 1
72.0944 0 1
72.2102 0 1
72.3261 0 1
72.4418 0 1
72.5575 0 1
72.6732 0 1
75.1054 0 1
75.2209 0 1
75.3365 0 1
75.4521 0 1
75.5678 0 1
75.6835 0 1
75.7993 0 1
75.9151 0 1
76.031 0 1
76.147 982 31.3369
76.263 978 31.273
76.3791 1032 32.1248
76.4952 876 29.5973
76.6113 915 30.249
76.7276 857 29.2746
76.8438 851 29.1719
76.9601 859 29.3087
77.0765 862 29.3598
77.1929 855 29.2404
77.3093 924 30.3974
77.4258 901 30.0167
77.5423 898 29.9666
77.6589 975 31.225
77.7755 961 31
77.8921 914 30.2324
78.0088 889 29.8161
78.1256 971 31.1609
78.2423 951 30.8383
78.3591 959 30.9677
78.4759 1026 32.0312
78.5928 1005 31.7017
78.7097 1099 33.1512
78.8266 1051 32.4191
78.9436 1204 34.6987
79.0606 1137 33.7194
79.1776 1109 33.3017
79.2946 1165 34.1321
79.4117 1163 34.1028
79.5288 1251 35.3695
79.6459 1204 34.6987
79.7631 1050 32.4037
79.8802 1043 32.2955
79.9974 958 30.9516
80.1147 909 30.1496
80.2319 871 29.5127
80.3491 874 29.5635
80.4664 902 30.0333
80.5837 828 28.775
80.701 898 29.9666
80.8183 873 29.5466
80.9357 830 28.8097
81.053 848 29.1204
81.1704 904 30.0666
81.2877 936 30.5941
81.4051 943 30.7083
81.5225 927 30.4467
81.6399 893 29.8831
81.7573 935 30.5778
81.8747 884 29.7321
81.9922 923 30.3809
82.1096 1034 32.1559
82.227 989 31.4484
82.3444 1037 32.2025
82.4619 1171 34.2199
82.5793 1145 33.8378
82.6967 1145 33.8378
82.8142 1208 34.7563
82.9316 1164 34.1174
83.049 1122 33.4963
83.1664 1254 35.4119
83.2838 1179 34.3366
83.4012 1049 32.3883
83.5186 1034 32.1559
83.636 1035 32.1714
83.7534 913 30.2159
83.8708 887 29.7825
83.9881 925 30.4138
84.1055 895 29.9166
84.2228 893 29.8831
84.3401 879 29.6479
84.4575 903 30.05
84.5747 882 29.6985
84.692 937 30.6105
84.8093 970 31.1448
84.9265 1009 31.7648
85.0437 960 30.9839
85.1609 929 30.4795
85.2781 976 31.241
85.3952 960 30.9839
85.5123 979 31.289
85.6294 1055 32.4808
85.7465 1081 32.8786
85.8636 1133 33.6601
85.9806 1220 34.9285
86.0976 1170 34.2053
86.2145 1266 35.5809
86.3315 1189 34.4819
86.4484 1297 36.0139
86.5652 1291 35.9305
86.682 1361 36.8917
86.7988 1264 35.5528
86.9156 1307 36.1525
87.0323 1143 33.8083
87.149 1086 32.9545
87.2657 1022 31.9687
87.3823 1010 31.7805
87.4988 972 31.1769
87.6154 961 31
87.7318 1000 31.6228
87.8483 949 30.8058
87.9647 961 31
88.081 991 31.4802
88.1973 1022 31.9687
88.3136 1040 32.249
88.4298 1136 33.7046
88.546 992 31.496
88.6621 1008 31.749
88.7781 959 30.9677
88.8942 0 1
89.0101 0 1
89.126 0 1
89.2419 0 1
89.3577 0 1
89.4734 0 1
89.5891 0 1
89.7047 0 1
89.8203 0 1
89.9358 0 1
92.3269 0 1
92.4424 0 1
92.558 0 1
92.6736 0 1
92.7893 0 1
92.905 0 1
93.0208 0 1
93.1366 0 1
93.2525 0 1
93.3685 0 1
93.4845 0 1
93.6005 1033 32.1403
93.7167 952 30.8545
93.8328 1010 31.7805
93.949 939 30.6431
94.0653 936 30.5941
94.1816 929 30.4795
94.2979 947 30.7734
94.4143 938 30.6268
94.5307 1007 31.7333
94.6472 1114 33.3766
94.7637 1177 34.3074
94.8803 1171 34.2199
94.9969 1175 34.2783
95.1135 1218 34.8999
95.2302 1270 35.6371
95.3469 1242 35.242
95.4637 1201 34.6554
95.5805 1287 35.8748
95.6973 1292 35.9444
95.8142 1271 35.6511
95.9311 1168 34.176
96.048 1035 32.1714
96.1649 996 31.5595
96.2819 1002 31.6544
96.3989 984 31.3688
96.516 1011 31.7962
96.633 981 31.3209
96.7501 955 30.9031
96.8673 999 31.607
96.9844 1004 31.686
97.1016 981 31.3209
97.2188 956 30.9192
97.336 989 31.4484
97.4532 958 30.9516
97.5704 1000 31.6228
97.6877 915 30.249
97.805 949 30.8058
97.9223 995 31.5436
98.0396 929 30.4795
98.1569 986 31.4006
98.2743 1026 32.0312
98.3916 1048 32.3728
98.509 1125 33.541
98.6264 1034 32.1559
98.7438 1170 34.2053
98.8612 1247 35.3129
98.9786 1163 34.1028
99.096 1133 33.6601
99.2134 1213 34.8281
99.3308 1180 34.3511
99.4482 1222 34.9571
99.5656 1149 33.8969
99.6831 1063 32.6037
99.8005 1030 32.0936
99.9179 979 31.289
100.035 977 31.257
100.153 953 30.8707
100.27 901 30.0167
100.388 901 30.0167
100.505 971 31.1609
100.622 914 30.2324
100.74 911 30.1828
100.857 868 29.4618
100.975 956 30.9192
101.092 986 31.4006
101.209 924 30.3974
101.327 907 30.1164
101.444 874 29.5635
101.561 875 29.5804
101.679 974 31.209
101.796 971 31.1609
101.913 1027 32.0468
102.03 1080 32.8634
102.148 1188 34.4674
102.265 1136 33.7046
102.382 1275 35.7071
102.499 1215 34.8569
102.616 1178 34.322
102.733 1268 35.609
102.851 1208 34.7563
102.968 1268 35.609
103.085 1319 36.318
103.202 1146 33.8526
103.319 1117 33.4215
103.436 1077 32.8177
103.552 1075 32.7872
103.669 1031 32.1092
103.786 1073 32.7567
103.903 992 31.496
104.02 993 31.5119
104.137 992 31.496
104.253 1033 32.1403
104.37 1054 32.4654
104.487 1051 32.4191
104.603 1038 32.218
104.72 1056 32.4962
104.836 1004 31.686
104.953 1008 31.749
105.069 1007 31.7333
105.186 1004 31.686
105.302 1024 32
105.418 1153 33.9559
105.535 1231 35.0856
105.651 1285 35.8469
105.767 1272 35.6651
105.883 1251 35.3695
105.999 1219 34.9142
106.115 0 1
106.231 0 1
106.347 0 1
106.463 0 1
106.579 0 1
106.694 0 1
106.81 0 1
106.926 0 1
107.041 0 1
107.157 0 1
109.576 0 1
109.692 0 1
109.807 0 1
109.923 0 1
110.039 0 1
110.155 0 1
110.27 0 1
110.386 0 1
110.502 0 1
110.618 1097 33.121
110.735 1071 32.7261
110.851 1074 32.7719
110.967 1083 32.909
111.083 1121 33.4813
111.199 1064 32.619
111.316 1098 33.1361
111.432 1136 33.7046
111.549 1156 34
111.665 1115 33.3916
111.782 1016 31.8748
111.898 1029 32.078
112.015 984 31.3688
112.132 960 30.9839
112.248 901 30.0167
112.365 957 30.9354
112.482 895 29.9166
112.599 855 29.2404
112.716 844 29.0517
112.832 812 28.4956
112.949 852 29.189
113.066 795 28.1957
113.183 785 28.0179
113.3 781 27.9464
113.417 809 28.4429
113.534 777 27.8747
113.652 796 28.2135
113.769 831 28.8271
113.886 834 28.8791
114.003 849 29.1376
114.12 938 30.6268
114.238 941 30.6757
114.355 944 30.7246
114.472 909 30.1496
114.589 809 28.4429
114.707 836 28.9137
114.824 963 31.0322
114.942 926 30.4302
115.059 953 30.8707
115.176 849 29.1376
115.294 855 29.2404
115.411 801 28.3019
115.529 814 28.5307
115.646 785 28.0179
115.764 781 27.9464
115.881 783 27.9821
115.999 728 26.9815
116.116 715 26.7395
116.234 670 25.8844
116.351 669 25.865
116.469 622 24.9399
116.586 624 24.98
116.704 603 24.5561
116.821 572 23.9165
116.939 596 24.4131
117.056 651 25.5147
117.174 603 24.5561
117.291 626 25.02
117.409 635 25.1992
117.526 698 26.4197
117.644 716 26.7582
117.761 700 26.4575
117.879 735 27.1109
117.996 747 27.3313
118.114 699 26.4386
118.231 668 25.8457
118.349 704 26.533
118.466 765 27.6586
118.584 786 28.0357
118.701 801 28.3019
118.819 801 28.3019
118.936 818 28.6007
119.053 790 28.1069
119.171 737 27.1477
119.288 716 26.7582
119.405 717 26.7769
119.523 664 25.7682
119.64 747 27.3313
119.757 698 26.4197
119.875 676 26
119.992 687 26.2107
120.109 679 26.0576
120.226 603 24.5561
120.343 622 24.9399
120.46 689 26.2488
120.578 709 26.6271
120.695 709 26.6271
120.812 702 26.4953
120.929 730 27.0185
121.046 769 27.7308
121.163 728 26.9815
121.279 765 27.6586
121.396 838 28.9482
121.513 863 29.3769
121.63 807 28.4077
121.747 717 26.7769
121.863 712 26.6833
121.98 690 26.2679
122.097 861 29.3428
122.213 860 29.3258
122.33 936 30.5941
122.446 877 29.6142
122.563 892 29.8664
122.679 935 30.5778
122.795 893 29.8831
122.912 900 30
123.028 939 30.6431
123.144 858 29.2916
123.26 839 28.9655
123.377 0 1
123.493 0 1
123.609 0 1
123.725 0 1
123.84 0 1
123.956 0 1
124.072 0 1
124.188 0 1
124.303 0 1
124.419 0 1
126.852 0 1
126.968 0 1
127.083 0 1
127.199 0 1
127.315 0 1
127.431 0 1
127.547 0 1
127.663 0 1
127.779 0 1
127.895 0 1
128.011 0 1
128.127 0 1
128.243 0 1
128.359 1041 32.2645
128.476 1025 32.0156
128.592 918 30.2985
128.708 947 30.7734
128.825 955 30.9031
128.941 913 30.2159
129.058 876 29.5973
129.174 868 29.4618
129.291 881 29.6816
129.408 857 29.2746
129.524 803 28.3373
129.641 834 28.8791
129.758 835 28.8964
129.875 863 29.3769
129.992 879 29.6479
130.108 896 29.9333
130.225 884 29.7321
130.342 836 28.9137
130.459 963 31.0322
130.576 862 29.3598
130.693 738 27.1662
130.81 615 24.7992
130.928 652 25.5343
131.045 778 27.8927
131.162 886 29.7658
131.279 904 30.0666
131.396 890 29.8329
131.513 853 29.2062
131.631 873 29.5466
131.748 914 30.2324
131.865 865 29.4109
131.983 891 29.8496
132.1 877 29.6142
132.217 827 28.7576
132.335 831 28.8271
132.452 831 28.8271
132.57 800 28.2843
132.687 727 26.9629
132.804 825 28.7228
132.922 775 27.8388
133.039 752 27.4226
133.157 754 27.4591
133.274 744 27.2764
133.392 791 28.1247
133.509 719 26.8142
133.627 773 27.8029
133.744 713 26.7021
133.862 739 27.1846
133.979 749 27.3679
134.097 722 26.8701
134.214 612 24.7386
134.332 549 23.4307
134.449 517 22.7376
134.567 593 24.3516
134.684 726 26.9444
134.802 735 27.1109
134.919 729 27
135.037 658 25.6515
135.154 732 27.0555
135.272 722 26.8701
135.389 708 26.6083
135.507 707 26.5895
135.624 667 25.8263
135.742 705 26.5518
135.859 691 26.2869
135.977 640 25.2982
136.094 644 25.3772
136.211 670 25.8844
136.329 635 25.1992
136.446 684 26.1534
136.564 589 24.2693
136.681 597 24.4336
136.798 587 24.2281
136.915 580 24.0832
137.033 568 23.8328
137.15 571 23.8956
137.267 599 24.4745
137.384 582 24.1247
137.502 594 24.3721
137.619 581 24.1039
137.736 543 23.3024
137.853 418 20.445
137.97 414 20.347
138.087 423 20.567
138.204 570 23.8747
138.321 565 23.7697
138.438 609 24.6779
138.555 613 24.7588
138.672 663 25.7488
138.788 643 25.3574
138.905 653 25.5539
139.022 689 26.2488
139.139 714 26.7208
139.255 668 25.8457
139.372 657 25.632
139.488 660 25.6905
139.605 618 24.8596
139.721 697 26.4008
139.838 680 26.0768
139.954 690 26.2679
140.071 669 25.865
140.187 672 25.923
140.303 677 26.0192
140.419 635 25.1992
140.535 633 25.1595
140.652 660 25.6905
140.768 0 1
140.884 0 1
141 0 1
141.115 0 1
141.231 0 1
141.347 0 1
141.463 0 1
141.578 0 1
141.694 0 1
144.104 0 1
144.219 0 1
144.335 0 1
144.45 0 1
144.566 0 1
144.682 0 1
144.798 0 1
144.914 0 1
145.03 0 1
145.146 520 22.8035
145.262 532 23.0651
145.378 538 23.1948
145.494 545 23.3452
145.61 532 23.0651
145.726 526 22.9347
145.842 521 22.8254
145.959 523 22.8692
146.075 482 21.9545
146.192 500 22.3607
146.308 494 22.2261
146.425 504 22.4499
146.541 433 20.8087
146.658 439 20.9523
146.774 399 19.975
146.891 407 20.1742
147.008 478 21.8632
147.125 448 21.166
147.241 456 21.3542
147.358 443 21.0476
147.475 451 21.2368
147.592 433 20.8087
147.709 419 20.4695
147.826 447 21.1424
147.943 420 20.4939
148.06 421 20.5183
148.177 482 21.9545
148.294 424 20.5913
148.411 396 19.8997
148.528 408 20.199
148.645 429 20.7123
148.762 395 19.8746
148.88 431 20.7605
148.997 432 20.7846
149.114 329 18.1384
149.231 392 19.799
149.349 356 18.868
149.466 385 19.6214
149.583 387 19.6723
149.701 391 19.7737
149.818 351 18.735
149.935 377 19.4165
150.053 372 19.2873
150.17 365 19.105
150.287 360 18.9737
150.405 352 18.7617
150.522 338 18.3848
150.64 362 19.0263
150.757 424 20.5913
150.875 384 19.5959
150.992 408 20.199
151.11 418 20.445
151.227 398 19.9499
151.344 355 18.8414
151.462 431 20.7605
151.579 410 20.2485
151.697 419 20.4695
151.814 420 20.4939
151.932 382 19.5448
152.049 404 20.0998
152.167 374 19.3391
152.284 401 20.025
152.402 362 19.0263
152.519 389 19.7231
152.636 407 20.1742
152.754 375 19.3649
152.871 367 19.1572
152.989 401 20.025
153.106 377 19.4165
153.223 429 20.7123
153.341 406 20.1494
153.458 346 18.6011
153.575 386 19.6469
153.693 398 19.9499
153.81 412 20.2978
153.927 424 20.5913
154.044 445 21.095
154.162 476 21.8174
154.279 502 22.4054
154.396 481 21.9317
154.513 475 21.7945
154.63 480 21.9089
154.747 515 22.6936
154.864 521 22.8254
154.981 472 21.7256
155.098 496 22.2711
155.215 538 23.1948
155.332 553 23.516
155.449 479 21.8861
155.566 507 22.5167
155.683 470 21.6795
155.8 454 21.3073
155.917 496 22.2711
156.033 482 21.9545
156.15 0 1
156.267 0 1
156.383 0 1
156.5 0 1
156.617 0 1
156.733 0 1
156.85 0 1
156.966 0 1
157.082 0 1
157.199 0 1
157.315 0 1
157.431 0 1
157.547 0 1
157.664 0 1
157.78 0 1
157.896 0 1
158.012 0 1
158.128 0 1
158.244 0 1
158.359 0 1
158.475 0 1
158.591 0 1
158.706 0 1
