
6.15755 0 1
6.2731 0 1
6.3887 0 1
6.50437 0 1
6.62009 0 1
6.73587 0 1
6.8517 0 1
6.96759 0 1
7.08353 0 1
7.19952 0 1
7.31557 0 1
7.43166 0 1
7.54781 0 1
7.664 0 1
7.78024 0 1
7.89653 0 1
8.01286 0 1
8.12924 0 1
8.24567 0 1
8.36213 0 1
8.47864 0 1
8.59519 0 1
8.71178 0 1
8.82841 0 1
8.94508 0 1
9.06179 0 1
9.17853 0 1
9.29531 0 1
9.41212 0 1
9.52897 0 1
9.64584 0 1
9.76276 0 1
9.8797 0 1
9.99667 0 1
10.1137 0 1
10.2307 0 1
10.3478 0 1
10.4648 0 1
10.5819 0 1
10.6991 0 1
10.8162 0 1
10.9334 0 1
11.0506 0 1
11.1678 0 1
11.285 0 1
11.4023 0 1
11.5196 0 1
11.6369 0 1
11.7542 0 1
11.8715 0 1
11.9888 0 1
12.1062 0 1
12.2235 0 1
12.3409 0 1
12.4582 0 1
12.5756 0 1
12.693 0 1
12.8104 0 1
12.9278 0 1
13.0452 0 1
13.1626 0 1
13.28 0 1
13.3974 0 1
13.5149 0 1
13.6323 0 1
13.7497 0 1
13.8671 0 1
13.9845 0 1
14.1019 0 1
14.2193 0 1
14.3367 0 1
14.4541 0 1
14.5714 0 1
14.6888 0 1
14.8062 0 1
14.9235 0 1
15.0408 4209 64.8768
15.1581 4262 65.284
15.2755 4326 65.7723
15.3927 4303 65.5973
15.51 4251 65.1997
15.6273 4195 64.7688
15.7445 4036 63.5295
15.8617 3868 62.1932
15.9789 3875 62.2495
16.0961 3771 61.4085
16.2132 3947 62.8252
16.3304 3912 62.546
16.4475 3936 62.7375
16.5646 3713 60.9344
16.6816 3837 61.9435
16.7986 3595 59.9583
16.9156 3566 59.716
17.0326 3606 60.05
17.1496 3617 60.1415
17.2665 3612 60.0999
17.3833 3646 60.3821
17.5002 3651 60.4235
17.617 3717 60.9672
17.7338 3687 60.7207
17.8505 3564 59.6992
17.9672 3606 60.05
18.0839 3725 61.0328
18.2005 3759 61.3107
18.3171 3802 61.6604
18.4337 3732 61.0901
18.5502 3666 60.5475
18.6666 3645 60.3738
18.7831 3652 60.4318
18.8994 3665 60.5392
19.0158 3436 58.6174
19.1321 3370 58.0517
19.2483 3166 56.2672
19.3645 2997 54.7449
19.4806 2867 53.5444
19.5967 2904 53.8888
19.7128 2948 54.2955
19.8288 2842 53.3104
19.9447 2472 49.7192
20.0606 0 1
20.1764 0 1
20.2922 0 1
20.4079 0 1
20.5236 0 1
20.6392 0 1
20.7548 0 1
20.8702 0 1
23.3078 0 1
23.4233 0 1
23.539 0 1
23.6547 0 1
23.7704 0 1
23.8862 0 1
24.0021 0 1
24.118 0 1
24.234 0 1
24.35 0 1
24.4661 1501 38.7427
24.5822 1759 41.9404
24.6984 1992 44.6318
24.8146 2164 46.5188
24.9309 2424 49.2341
25.0472 2805 52.9623
25.1636 3187 56.4535
25.28 3474 58.9406
25.3965 3585 59.8749
25.513 3784 61.5142
25.6296 3995 63.206
25.7462 4191 64.7379
25.8628 4297 65.5515
25.9795 4056 63.6867
26.0962 3914 62.562
26.213 3854 62.0806
26.3298 3780 61.4817
26.4466 3564 59.6992
26.5635 3386 58.1893
26.6804 3342 57.81
26.7973 3285 57.3149
26.9143 3369 58.0431
27.0313 3299 57.4369
27.1483 3424 58.515
27.2653 3491 59.0847
27.3824 3507 59.2199
27.4996 3444 58.6856
27.6167 3356 57.931
27.7339 3365 58.0086
27.8511 3319 57.6108
27.9683 3392 58.2409
28.0855 3299 57.4369
28.2028 3273 57.2101
28.3201 3166 56.2672
28.4374 3423 58.5064
28.5547 3498 59.1439
28.6721 3592 59.9333
28.7894 3488 59.0593
28.9068 3557 59.6406
29.0242 3516 59.2959
29.1416 3486 59.0424
29.259 3504 59.1946
29.3764 3406 58.3609
29.4939 3498 59.1439
29.6113 3540 59.4979
29.7288 3456 58.7878
29.8463 3209 56.648
29.9638 3209 56.648
30.0812 3152 56.1427
30.1987 3277 57.2451
30.3162 3212 56.6745
30.4337 3318 57.6021
30.5512 3445 58.6941
30.6687 3489 59.0678
30.7862 3421 58.4893
30.9037 3411 58.4038
31.0212 3473 58.9322
31.1387 3468 58.8897
31.2562 3428 58.5491
31.3737 3420 58.4808
31.4912 3355 57.9224
31.6087 3376 58.1034
31.7262 3309 57.5239
31.8436 3251 57.0175
31.9611 3328 57.6888
32.0785 3377 58.112
32.1959 3349 57.8705
32.3134 3299 57.4369
32.4308 3235 56.8771
32.5482 3248 56.9912
32.6655 3050 55.2268
32.7829 3138 56.0179
32.9002 3035 55.0908
33.0176 3091 55.5968
33.1349 3095 55.6327
33.2522 3117 55.8301
33.3694 3103 55.7046
33.4867 3101 55.6866
33.6039 3135 55.9911
33.7211 3091 55.5968
33.8383 3096 55.6417
33.9554 3021 54.9636
34.0725 3182 56.4092
34.1896 3191 56.4889
34.3067 3223 56.7715
34.4237 3258 57.0789
34.5407 3145 56.0803
34.6577 3124 55.8928
34.7746 3113 55.7943
34.8915 3134 55.9821
35.0084 3141 56.0446
35.1252 2982 54.6077
35.242 3066 55.3715
35.3587 2991 54.69
35.4755 2980 54.5894
35.5921 2948 54.2955
35.7088 2817 53.0754
35.8254 2841 53.301
35.9419 2942 54.2402
36.0584 2964 54.4426
36.1749 2899 53.8424
36.2913 2953 54.3415
36.4077 2807 52.9811
36.524 2820 53.1037
36.6403 2669 51.6624
36.7565 2538 50.3786
36.8727 2414 49.1325
36.9889 2228 47.2017
37.1049 2068 45.4753
37.221 0 1
37.3369 0 1
37.4529 0 1
37.5687 0 1
37.6845 0 1
37.8003 0 1
37.916 0 1
38.0316 0 1
38.1472 0 1
40.5851 0 1
40.7008 0 1
40.8164 0 1
40.9322 0 1
41.048 0 1
41.1639 0 1
41.2798 0 1
41.3958 0 1
41.5118 0 1
41.6279 0 1
41.744 1197 34.5977
41.8602 1424 37.7359
41.9765 1593 39.9124
42.0928 1800 42.4264
42.2091 1938 44.0227
42.3255 2177 46.6583
42.4419 2168 46.5618
42.5584 2369 48.6724
42.675 2190 46.7974
42.7915 2292 47.8748
42.9081 2291 47.8644
43.0248 2410 49.0918
43.1415 2225 47.1699
43.2582 2257 47.5079
43.375 2347 48.4458
43.4918 2368 48.6621
43.6087 2334 48.3115
43.7256 2233 47.2546
43.8425 2058 45.3652
43.9595 2143 46.2925
44.0765 2268 47.6235
44.1935 2257 47.5079
44.3106 2296 47.9166
44.4277 2127 46.1194
44.5448 2175 46.6369
44.6619 2062 45.4093
44.7791 2200 46.9042
44.8963 2263 47.571
45.0136 2345 48.4252
45.1308 2348 48.4562
45.2481 2286 47.8121
45.3654 2387 48.8569
45.4827 2386 48.8467
45.6001 2419 49.1833
45.7174 2440 49.3964
45.8348 2399 48.9796
45.9522 2432 49.3153
46.0697 2411 49.1019
46.1871 2270 47.6445
46.3046 2206 46.9681
46.422 2261 47.55
46.5395 2187 46.7654
46.657 2210 47.0106
46.7745 2101 45.8367
46.892 2157 46.4435
47.0096 2240 47.3286
47.1271 2297 47.927
47.2446 2233 47.2546
47.3622 2130 46.1519
47.4797 2141 46.2709
47.5973 2276 47.7074
47.7149 2279 47.7389
47.8324 2165 46.5296
47.95 2223 47.1487
48.0675 1950 44.1588
48.1851 2056 45.3431
48.3027 2056 45.3431
48.4202 2137 46.2277
48.5378 2164 46.5188
48.6554 2293 47.8853
48.7729 2287 47.8226
48.8904 2359 48.5695
49.008 2279 47.7389
49.1255 2387 48.8569
49.243 2398 48.9694
49.3605 2251 47.4447
49.478 2184 46.7333
49.5955 2185 46.744
49.713 2116 46
49.8304 2093 45.7493
49.9479 2153 46.4004
50.0653 2064 45.4313
50.1827 2025 45
50.3001 1977 44.4635
50.4175 1982 44.5197
50.5348 2167 46.551
50.6521 2123 46.076
50.7694 2116 46
50.8867 2034 45.0999
51.004 2058 45.3652
51.1212 2115 45.9891
51.2384 2211 47.0213
51.3556 2107 45.9021
51.4727 2115 45.9891
51.5899 1974 44.4297
51.707 2027 45.0222
51.824 2020 44.9444
51.9411 2031 45.0666
52.0581 2057 45.3542
52.175 2061 45.3982
52.2919 2050 45.2769
52.4088 2054 45.3211
52.5257 2098 45.8039
52.6425 2137 46.2277
52.7593 2122 46.0652
52.876 2222 47.1381
52.9927 2197 46.8722
53.1094 2050 45.2769
53.226 2112 45.9565
53.3426 2111 45.9456
53.4591 2023 44.9778
53.5756 2017 44.911
53.692 1867 43.2088
53.8084 1664 40.7922
53.9248 1583 39.7869
54.0411 1431 37.8286
54.1573 1337 36.565
54.2735 0 1
54.3896 0 1
54.5057 0 1
54.6217 0 1
54.7377 0 1
54.8537 0 1
54.9695 0 1
55.0853 0 1
55.2011 0 1
55.3168 0 1
55.4324 0 1
57.824 0 1
57.9396 0 1
58.0553 0 1
58.1711 0 1
58.2869 0 1
58.4028 0 1
58.5187 0 1
58.6347 0 1
58.7508 0 1
58.8669 0 1
58.983 1521 39
59.0992 1778 42.1663
59.2155 2061 45.3982
59.3318 2416 49.1528
59.4482 2558 50.5767
59.5646 2720 52.1536
59.681 2906 53.9073
59.7975 3025 55
59.9141 3004 54.8088
60.0306 3134 55.9821
60.1473 3280 57.2713
60.2639 3151 56.1338
60.3807 3079 55.4887
60.4974 3108 55.7494
60.6142 2958 54.3875
60.731 3040 55.1362
60.8479 3114 55.8032
60.9648 3114 55.8032
61.0818 3205 56.6127
61.1987 3086 55.5518
61.3158 2973 54.5252
61.4328 3147 56.0981
61.5499 3022 54.9727
61.667 2932 54.1479
61.7841 2920 54.037
61.9013 2931 54.1387
62.0185 2921 54.0463
62.1357 2719 52.144
62.253 2694 51.9038
62.3702 2627 51.2543
62.4875 2379 48.775
62.6049 2411 49.1019
62.7222 2612 51.1077
62.8396 2692 51.8845
62.9569 2623 51.2152
63.0743 2503 50.03
63.1918 2559 50.5866
63.3092 2516 50.1597
63.4267 2571 50.705
63.5441 2585 50.8429
63.6616 2483 49.8297
63.7791 2523 50.2295
63.8966 2316 48.1248
64.0142 2293 47.8853
64.1317 2321 48.1768
64.2492 2277 47.7179
64.3668 2288 47.833
64.4843 2298 47.9375
64.6019 2433 49.3254
64.7195 2484 49.8397
64.837 2324 48.2079
64.9546 2449 49.4874
65.0722 2569 50.6853
65.1898 2573 50.7247
65.3074 2564 50.636
65.4249 2533 50.3289
65.5425 2568 50.6754
65.6601 2471 49.7092
65.7777 2410 49.0918
65.8952 2231 47.2335
66.0128 2202 46.9255
66.1304 2196 46.8615
66.2479 2356 48.5386
66.3655 2337 48.3425
66.483 2436 49.3559
66.6005 2427 49.2646
66.718 2504 50.04
66.8355 2391 48.8979
66.953 2526 50.2593
67.0705 2360 48.5798
67.1879 2511 50.1099
67.3054 2486 49.8598
67.4228 2338 48.3529
67.5402 2230 47.2229
67.6576 2196 46.8615
67.7749 2205 46.9574
67.8923 2221 47.1275
68.0096 2260 47.5395
68.1269 2305 48.0104
68.2442 2278 47.7284
68.3614 2373 48.7134
68.4787 2377 48.7545
68.5958 2329 48.2597
68.713 2391 48.8979
68.8302 2364 48.621
68.9473 2475 49.7494
69.0643 2505 50.05
69.1814 2468 49.679
69.2984 2390 48.8876
69.4154 2376 48.7442
69.5323 2237 47.2969
69.6492 2184 46.7333
69.7661 2172 46.6047
69.8829 2230 47.2229
69.9997 2274 47.6865
70.1165 2340 48.3735
70.2332 2343 48.4045
70.3499 2225 47.1699
70.4665 2218 47.0956
70.5831 2024 44.9889
70.6996 1940 44.0454
70.8161 1759 41.9404
70.9326 1664 40.7922
71.049 1438 37.921
71.1653 1383 37.1887
71.2817 1192 34.5254
71.3979 1111 33.3317
71.5141 1002 31.6544
71.6303 988 31.4325
71.7464 803 28.3373
71.8624 0 1
71.9784 0 1
72.0944 0 1
72.2102 0 1
72.3261 0 1
72.4418 0 1
72.5575 0 1
72.6732 0 1
75.1054 0 1
75.2209 0 1
75.3365 0 1
75.4521 0 1
75.5678 0 1
75.6835 0 1
75.7993 0 1
75.9151 0 1
76.031 0 1
76.147 1436 37.8946
76.263 1664 40.7922
76.3791 1716 41.4246
76.4952 1760 41.9524
76.6113 1721 41.4849
76.7276 1770 42.0714
76.8438 1730 41.5933
76.9601 1769 42.0595
77.0765 1948 44.1362
77.1929 1960 44.2719
77.3093 2001 44.7325
77.4258 1954 44.2041
77.5423 1988 44.587
77.6589 2046 45.2327
77.7755 2105 45.8803
77.8921 2051 45.288
78.0088 2118 46.0217
78.1256 2133 46.1844
78.2423 2124 46.0869
78.3591 2076 45.5631
78.4759 1894 43.5201
78.5928 1700 41.2311
78.7097 1710 41.3521
78.8266 1754 41.8808
78.9436 1919 43.8064
79.0606 1887 43.4396
79.1776 1898 43.566
79.2946 1950 44.1588
79.4117 2030 45.0555
79.5288 2143 46.2925
79.6459 2010 44.833
79.7631 2099 45.8148
79.8802 1994 44.6542
79.9974 2036 45.1221
80.1147 1961 44.2832
80.2319 1909 43.6921
80.3491 1886 43.4281
80.4664 1842 42.9185
80.5837 1909 43.6921
80.701 1904 43.6348
80.8183 2086 45.6727
80.9357 2070 45.4973
81.053 2047 45.2438
81.1704 2088 45.6946
81.2877 2111 45.9456
81.4051 2130 46.1519
81.5225 2158 46.4543
81.6399 2233 47.2546
81.7573 2150 46.3681
81.8747 2152 46.3897
81.9922 2168 46.5618
82.1096 2106 45.8912
82.227 1947 44.1248
82.3444 1867 43.2088
82.4619 1866 43.1972
82.5793 1961 44.2832
82.6967 1982 44.5197
82.8142 2208 46.9894
82.9316 2169 46.5725
83.049 2260 47.5395
83.1664 2203 46.9361
83.2838 2146 46.3249
83.4012 2182 46.7119
83.5186 2080 45.607
83.636 2076 45.5631
83.7534 2108 45.913
83.8708 1919 43.8064
83.9881 1947 44.1248
84.1055 1927 43.8976
84.2228 1925 43.8748
84.3401 1976 44.4522
84.4575 2085 45.6618
84.5747 2019 44.9333
84.692 2140 46.2601
84.8093 2182 46.7119
84.9265 2185 46.744
85.0437 2231 47.2335
85.1609 2288 47.833
85.2781 2318 48.1456
85.3952 2187 46.7654
85.5123 2339 48.3632
85.6294 2169 46.5725
85.7465 2047 45.2438
85.8636 1864 43.1741
85.9806 1877 43.3244
86.0976 2012 44.8553
86.2145 2155 46.422
86.3315 2216 47.0744
86.4484 2123 46.076
86.5652 2361 48.5901
86.682 2218 47.0956
86.7988 2319 48.156
86.9156 2150 46.3681
87.0323 2267 47.613
87.149 2156 46.4327
87.2657 2070 45.4973
87.3823 2027 45.0222
87.4988 1856 43.0813
87.6154 1881 43.3705
87.7318 1783 42.2256
87.8483 1823 42.6966
87.9647 1799 42.4146
88.081 1688 41.0853
88.1973 1644 40.5463
88.3136 1534 39.1663
88.4298 1516 38.9358
88.546 1499 38.7169
88.6621 1325 36.4005
88.7781 1241 35.2278
88.8942 0 1
89.0101 0 1
89.126 0 1
89.2419 0 1
89.3577 0 1
89.4734 0 1
89.5891 0 1
89.7047 0 1
89.8203 0 1
89.9358 0 1
92.3269 0 1
92.4424 0 1
92.558 0 1
92.6736 0 1
92.7893 0 1
92.905 0 1
93.0208 0 1
93.1366 0 1
93.2525 0 1
93.3685 0 1
93.4845 0 1
93.6005 1630 40.3733
93.7167 1787 42.2729
93.8328 1881 43.3705
93.949 2065 45.4423
94.0653 2105 45.8803
94.1816 2124 46.0869
94.2979 2235 47.2758
94.4143 2349 48.4665
94.5307 2299 47.9479
94.6472 2286 47.8121
94.7637 2247 47.4025
94.8803 2097 45.793
94.9969 2026 45.0111
95.1135 2108 45.913
95.2302 2007 44.7996
95.3469 2114 45.9783
95.4637 2206 46.9681
95.5805 2315 48.1144
95.6973 2339 48.3632
95.8142 2321 48.1768
95.9311 2339 48.3632
96.048 2343 48.4045
96.1649 2304 48
96.2819 2355 48.5283
96.3989 2320 48.1664
96.516 2128 46.1303
96.633 2136 46.2169
96.7501 2047 45.2438
96.8673 2118 46.0217
96.9844 2232 47.244
97.1016 2294 47.8957
97.2188 2258 47.5184
97.336 2272 47.6655
97.4532 2324 48.2079
97.5704 2314 48.1041
97.6877 2425 49.2443
97.805 2473 49.7293
97.9223 2494 49.94
98.0396 2573 50.7247
98.1569 2486 49.8598
98.2743 2497 49.97
98.3916 2431 49.3052
98.509 2403 49.0204
98.6264 2241 47.3392
98.7438 2279 47.7389
98.8612 2290 47.8539
98.9786 2474 49.7393
99.096 2500 50
99.2134 2594 50.9313
99.3308 2682 51.788
99.4482 2674 51.7107
99.5656 2512 50.1199
99.6831 2573 50.7247
99.8005 2558 50.5767
99.9179 2529 50.2892
100.035 2467 49.6689
100.153 2237 47.2969
100.27 2151 46.3789
100.388 2216 47.0744
100.505 2378 48.7647
100.622 2365 48.6313
100.74 2397 48.9592
100.857 2280 47.7493
100.975 2343 48.4045
101.092 2339 48.3632
101.209 2431 49.3052
101.327 2525 50.2494
101.444 2462 49.6185
101.561 2635 51.3323
101.679 2594 50.9313
101.796 2652 51.4976
101.913 2619 51.1762
102.03 2351 48.4871
102.148 2358 48.5592
102.265 2396 48.949
102.382 2310 48.0625
102.499 2466 49.6588
102.616 2580 50.7937
102.733 2573 50.7247
102.851 2640 51.3809
102.968 2728 52.2303
103.085 2717 52.1249
103.202 2751 52.45
103.319 2619 51.1762
103.436 2490 49.8999
103.552 2444 49.4368
103.669 2463 49.6286
103.786 2437 49.366
103.903 2464 49.6387
104.02 2470 49.6991
104.137 2472 49.7192
104.253 2695 51.9134
104.37 2584 50.8331
104.487 2563 50.6261
104.603 2635 51.3323
104.72 2523 50.2295
104.836 2587 50.8626
104.953 2612 51.1077
105.069 2444 49.4368
105.186 2379 48.775
105.302 2301 47.9687
105.418 2113 45.9674
105.535 2002 44.7437
105.651 1751 41.845
105.767 1717 41.4367
105.883 1556 39.4462
105.999 1438 37.921
106.115 0 1
106.231 0 1
106.347 0 1
106.463 0 1
106.579 0 1
106.694 0 1
106.81 0 1
106.926 0 1
107.041 0 1
107.157 0 1
109.576 0 1
109.692 0 1
109.807 0 1
109.923 0 1
110.039 0 1
110.155 0 1
110.27 0 1
110.386 0 1
110.502 0 1
110.618 1342 36.6333
110.735 1500 38.7298
110.851 1645 40.5586
110.967 1693 41.1461
111.083 1962 44.2945
111.199 2219 47.1063
111.316 2351 48.4871
111.432 2312 48.0833
111.549 2565 50.6458
111.665 2605 51.0392
111.782 2570 50.6952
111.898 2501 50.01
112.015 2509 50.0899
112.132 2380 48.7852
112.248 2203 46.9361
112.365 2173 46.6154
112.482 2256 47.4974
112.599 2369 48.6724
112.716 2322 48.1871
112.832 2448 49.4773
112.949 2413 49.1223
113.066 2356 48.5386
113.183 2374 48.7237
113.3 2362 48.6004
113.417 2481 49.8096
113.534 2418 49.1732
113.652 2484 49.8397
113.769 2540 50.3984
113.886 2539 50.3885
114.003 2454 49.5379
114.12 2378 48.7647
114.238 2217 47.085
114.355 2163 46.5081
114.472 2150 46.3681
114.589 2184 46.7333
114.707 2376 48.7442
114.824 2376 48.7442
114.942 2369 48.6724
115.059 2323 48.1975
115.176 2403 49.0204
115.294 2346 48.4355
115.411 2355 48.5283
115.529 2242 47.3498
115.646 2164 46.5188
115.764 2097 45.793
115.881 1938 44.0227
115.999 2074 45.5412
116.116 2019 44.9333
116.234 2213 47.0425
116.351 2191 46.8081
116.469 2196 46.8615
116.586 2137 46.2277
116.704 2190 46.7974
116.821 2100 45.8258
116.939 2176 46.6476
117.056 2196 46.8615
117.174 2215 47.0638
117.291 2260 47.5395
117.409 2261 47.55
117.526 2177 46.6583
117.644 2158 46.4543
117.761 2043 45.1996
117.879 2002 44.7437
117.996 2002 44.7437
118.114 2017 44.911
118.231 2127 46.1194
118.349 2213 47.0425
118.466 2167 46.551
118.584 2161 46.4866
118.701 2256 47.4974
118.819 2257 47.5079
118.936 2195 46.8508
119.053 2100 45.8258
119.171 1961 44.2832
119.288 2011 44.8442
119.405 1891 43.4856
119.523 1956 44.2267
119.64 1960 44.2719
119.757 2049 45.2659
119.875 2125 46.0977
119.992 2071 45.5082
120.109 2143 46.2925
120.226 1962 44.2945
120.343 1987 44.5758
120.46 2033 45.0888
120.578 2048 45.2548
120.695 2109 45.9239
120.812 2130 46.1519
120.929 2142 46.2817
121.046 2096 45.7821
121.163 1971 44.3959
121.279 1883 43.3935
121.396 1927 43.8976
121.513 1843 42.9302
121.63 1836 42.8486
121.747 1740 41.7133
121.863 1758 41.9285
121.98 1803 42.4617
122.097 1858 43.1045
122.213 1849 43
122.33 1788 42.2847
122.446 1641 40.5093
122.563 1590 39.8748
122.679 1487 38.5616
122.795 1322 36.3593
122.912 1181 34.3657
123.028 1082 32.8938
123.144 1109 33.3017
123.26 1057 32.5115
123.377 0 1
123.493 0 1
123.609 0 1
123.725 0 1
123.84 0 1
123.956 0 1
124.072 0 1
124.188 0 1
124.303 0 1
124.419 0 1
126.852 0 1
126.968 0 1
127.083 0 1
127.199 0 1
127.315 0 1
127.431 0 1
127.547 0 1
127.663 0 1
127.779 0 1
127.895 0 1
128.011 0 1
128.127 0 1
128.243 0 1
128.359 1971 44.3959
128.476 2161 46.4866
128.592 2156 46.4327
128.708 2238 47.3075
128.825 2264 47.5815
128.941 2309 48.0521
129.058 2321 48.1768
129.174 2399 48.9796
129.291 2400 48.9898
129.408 2296 47.9166
129.524 2286 47.8121
129.641 2362 48.6004
129.758 2408 49.0714
129.875 2444 49.4368
129.992 2456 49.558
130.108 2347 48.4458
130.225 2431 49.3052
130.342 2388 48.8672
130.459 2327 48.239
130.576 2463 49.6286
130.693 2498 49.98
130.81 2574 50.7346
130.928 2639 51.3712
131.045 2900 53.8516
131.162 2972 54.5161
131.279 3115 55.8122
131.396 3114 55.8032
131.513 3253 57.0351
131.631 3202 56.5862
131.748 3072 55.4256
131.865 3163 56.2406
131.983 3195 56.5243
132.1 3375 58.0948
132.217 3419 58.4722
132.335 3519 59.3212
132.452 3705 60.8687
132.57 3737 61.131
132.687 3848 62.0322
132.804 3883 62.3137
132.922 4085 63.914
133.039 4046 63.6082
133.157 4041 63.5689
133.274 4125 64.2262
133.392 4099 64.0234
133.509 4242 65.1306
133.627 4151 64.4283
133.744 4094 63.9844
133.862 3926 62.6578
133.979 3820 61.8061
134.097 3606 60.05
134.214 3622 60.1831
134.332 3717 60.9672
134.449 3824 61.8385
134.567 4021 63.4114
134.684 4239 65.1076
134.802 4402 66.3476
134.919 4287 65.4752
135.037 4309 65.643
135.154 4021 63.4114
135.272 3860 62.1289
135.389 3958 62.9126
135.507 4049 63.6318
135.624 4014 63.3561
135.742 4171 64.5833
135.859 4118 64.1716
135.977 4311 65.6582
136.094 4429 66.5507
136.211 4338 65.8635
136.329 4397 66.3099
136.446 4491 67.0149
136.564 4584 67.7052
136.681 4346 65.9242
136.798 4394 66.2873
136.915 4450 66.7083
137.033 4534 67.335
137.15 4376 66.1513
137.267 4415 66.4455
137.384 4459 66.7757
137.502 4155 64.4593
137.619 3854 62.0806
137.736 3691 60.7536
137.853 3559 59.6574
137.97 3754 61.2699
138.087 3722 61.0082
138.204 4083 63.8984
138.321 4134 64.2962
138.438 4160 64.4981
138.555 4278 65.4064
138.672 4101 64.0391
138.788 4187 64.707
138.905 3805 61.6847
139.022 3399 58.3009
139.139 3419 58.4722
139.255 3416 58.4466
139.372 3387 58.1979
139.488 3336 57.7581
139.605 3233 56.8595
139.721 3307 57.5065
139.838 2942 54.2402
139.954 2824 53.1413
140.071 2703 51.9904
140.187 2502 50.02
140.303 2418 49.1732
140.419 2282 47.7703
140.535 2255 47.4868
140.652 2167 46.551
140.768 0 1
140.884 0 1
141 0 1
141.115 0 1
141.231 0 1
141.347 0 1
141.463 0 1
141.578 0 1
141.694 0 1
144.104 0 1
144.219 0 1
144.335 0 1
144.45 0 1
144.566 0 1
144.682 0 1
144.798 0 1
144.914 0 1
145.03 0 1
145.146 10118 100.588
145.262 11833 108.78
145.378 13588 116.568
145.494 14635 120.975
145.61 15860 125.936
145.726 16727 129.333
145.842 17723 133.128
145.959 18410 135.683
146.075 19620 140.071
146.192 20943 144.717
146.308 22402 149.673
146.425 23798 154.266
146.541 24435 156.317
146.658 24501 156.528
146.774 24143 155.38
146.891 24184 155.512
147.008 23733 154.055
147.125 22381 149.603
147.241 22009 148.354
147.358 21855 147.834
147.475 20915 144.62
147.592 18269 135.163
147.709 12080 109.909
147.826 8664 93.0806
147.943 11665 108.005
148.06 14377 119.904
148.177 14898 122.057
148.294 14968 122.344
148.411 14131 118.874
148.528 13284 115.256
148.645 12473 111.683
148.762 11441 106.963
148.88 10348 101.725
148.997 9291 96.3898
149.114 8457 91.9619
149.231 7947 89.1459
149.349 7890 88.8257
149.466 7606 87.2124
149.583 7586 87.0976
149.701 7691 87.6983
149.818 7220 84.9706
149.935 7510 86.6603
150.053 7315 85.5278
150.17 7156 84.5931
150.287 6812 82.5348
150.405 6925 83.2166
150.522 6983 83.5643
150.64 7118 84.3682
150.757 7262 85.2174
150.875 7249 85.1411
150.992 7391 85.9709
151.11 7213 84.9294
151.227 7033 83.863
151.344 6511 80.6908
151.462 5381 73.3553
151.579 4592 67.7643
151.697 4832 69.5126
151.814 5829 76.3479
151.932 6779 82.3347
152.049 7177 84.7172
152.167 7201 84.8587
152.284 7056 84
152.402 7372 85.8604
152.519 7210 84.9117
152.636 7095 84.2318
152.754 7078 84.1309
152.871 7195 84.8233
152.989 6961 83.4326
153.106 7098 84.2496
153.223 7024 83.8093
153.341 6601 81.2465
153.458 6450 80.3119
153.575 6386 79.9125
153.693 6113 78.1857
153.81 6280 79.2465
153.927 6460 80.3741
154.044 6370 79.8123
154.162 6839 82.6982
154.279 6933 83.2646
154.396 7050 83.9643
154.513 6944 83.3307
154.63 6883 82.9638
154.747 6870 82.8855
154.864 6685 81.7618
154.981 6012 77.5371
155.098 5289 72.7255
155.215 5001 70.7177
155.332 5221 72.2565
155.449 6031 77.6595
155.566 6381 79.8812
155.683 6439 80.2434
155.8 6468 80.4239
155.917 6143 78.3773
156.033 6060 77.846
156.15 0 1
156.267 0 1
156.383 0 1
156.5 0 1
156.617 0 1
156.733 0 1
156.85 0 1
156.966 0 1
157.082 0 1
157.199 0 1
157.315 0 1
157.431 0 1
157.547 0 1
157.664 0 1
157.78 0 1
157.896 0 1
158.012 0 1
158.128 0 1
158.244 0 1
158.359 0 1
158.475 0 1
158.591 0 1
158.706 0 1
