
6.15755 0 1
6.2731 0 1
6.3887 0 1
6.50437 0 1
6.62009 0 1
6.73587 0 1
6.8517 0 1
6.96759 0 1
7.08353 0 1
7.19952 0 1
7.31557 0 1
7.43166 0 1
7.54781 0 1
7.664 0 1
7.78024 0 1
7.89653 0 1
8.01286 0 1
8.12924 0 1
8.24567 0 1
8.36213 0 1
8.47864 0 1
8.59519 0 1
8.71178 0 1
8.82841 0 1
8.94508 0 1
9.06179 0 1
9.17853 0 1
9.29531 0 1
9.41212 0 1
9.52897 0 1
9.64584 0 1
9.76276 0 1
9.8797 0 1
9.99667 0 1
10.1137 0 1
10.2307 0 1
10.3478 0 1
10.4648 0 1
10.5819 0 1
10.6991 0 1
10.8162 0 1
10.9334 0 1
11.0506 0 1
11.1678 0 1
11.285 0 1
11.4023 0 1
11.5196 0 1
11.6369 0 1
11.7542 0 1
11.8715 0 1
11.9888 0 1
12.1062 0 1
12.2235 0 1
12.3409 0 1
12.4582 0 1
12.5756 0 1
12.693 0 1
12.8104 0 1
12.9278 0 1
13.0452 0 1
13.1626 0 1
13.28 0 1
13.3974 0 1
13.5149 0 1
13.6323 0 1
13.7497 0 1
13.8671 0 1
13.9845 0 1
14.1019 0 1
14.2193 0 1
14.3367 0 1
14.4541 0 1
14.5714 0 1
14.6888 0 1
14.8062 0 1
14.9235 0 1
15.0408 0 0
15.1581 0 0
15.2755 0 0
15.3927 0 0
15.51 0 0
15.6273 0 0
15.7445 0 0
15.8617 0 0
15.9789 0 0
16.0961 0 0
16.2132 0 0
16.3304 0 0
16.4475 0 0
16.5646 0 0
16.6816 0 0
16.7986 0 0
16.9156 0 0
17.0326 0 0
17.1496 0 0
17.2665 0 0
17.3833 0 0
17.5002 0 0
17.617 0 0
17.7338 0 0
17.8505 0 0
17.9672 0 0
18.0839 0 0
18.2005 0 0
18.3171 0 0
18.4337 0 0
18.5502 0 0
18.6666 0 0
18.7831 0 0
18.8994 0 0
19.0158 0 0
19.1321 0 0
19.2483 0 0
19.3645 0 0
19.4806 0 0
19.5967 0 0
19.7128 0 0
19.8288 0 0
19.9447 0 0
20.0606 0 1
20.1764 0 1
20.2922 0 1
20.4079 0 1
20.5236 0 1
20.6392 0 1
20.7548 0 1
20.8702 0 1
23.3078 0 1
23.4233 0 1
23.539 0 1
23.6547 0 1
23.7704 0 1
23.8862 0 1
24.0021 0 1
24.118 0 1
24.234 0 1
24.35 0 1
24.4661 1103 33.2114
24.5822 1102 33.1964
24.6984 1120 33.4664
24.8146 1094 33.0757
24.9309 1138 33.7343
25.0472 1106 33.2566
25.1636 1117 33.4215
25.28 1172 34.2345
25.3965 1212 34.8138
25.513 1191 34.5109
25.6296 1302 36.0832
25.7462 1338 36.5787
25.8628 1389 37.2693
25.9795 1271 35.6511
26.0962 1310 36.1939
26.213 1364 36.9324
26.3298 1327 36.428
26.4466 1390 37.2827
26.5635 1323 36.3731
26.6804 1330 36.4692
26.7973 1316 36.2767
26.9143 1226 35.0143
27.0313 1240 35.2136
27.1483 1281 35.7911
27.2653 1325 36.4005
27.3824 1342 36.6333
27.4996 1345 36.6742
27.6167 1336 36.5513
27.7339 1308 36.1663
27.8511 1334 36.524
27.9683 1336 36.5513
28.0855 1389 37.2693
28.2028 1352 36.7696
28.3201 1310 36.1939
28.4374 1368 36.9865
28.5547 1322 36.3593
28.6721 1264 35.5528
28.7894 1268 35.609
28.9068 1349 36.7287
29.0242 1337 36.565
29.1416 1444 38
29.259 1390 37.2827
29.3764 1496 38.6782
29.4939 1523 39.0256
29.6113 1471 38.3536
29.7288 1427 37.7757
29.8463 1460 38.2099
29.9638 1469 38.3275
30.0812 1393 37.3229
30.1987 1325 36.4005
30.3162 1248 35.327
30.4337 1137 33.7194
30.5512 1237 35.171
30.6687 1289 35.9026
30.7862 1396 37.3631
30.9037 1375 37.081
31.0212 1323 36.3731
31.1387 1352 36.7696
31.2562 1308 36.1663
31.3737 1324 36.3868
31.4912 1222 34.9571
31.6087 1287 35.8748
31.7262 1272 35.6651
31.8436 1283 35.819
31.9611 1243 35.2562
32.0785 1203 34.6843
32.1959 1190 34.4964
32.3134 1209 34.7707
32.4308 1170 34.2053
32.5482 1257 35.4542
32.6655 1240 35.2136
32.7829 1268 35.609
32.9002 1255 35.426
33.0176 1235 35.1426
33.1349 1233 35.1141
33.2522 1325 36.4005
33.3694 1245 35.2846
33.4867 1267 35.5949
33.6039 1238 35.1852
33.7211 1265 35.5668
33.8383 1191 34.5109
33.9554 1111 33.3317
34.0725 1130 33.6155
34.1896 1079 32.8481
34.3067 1123 33.5112
34.4237 1115 33.3916
34.5407 1170 34.2053
34.6577 1191 34.5109
34.7746 1238 35.1852
34.8915 1169 34.1906
35.0084 1103 33.2114
35.1252 1095 33.0908
35.242 1132 33.6452
35.3587 1139 33.7491
35.4755 1131 33.6303
35.5921 1163 34.1028
35.7088 1140 33.7639
35.8254 1086 32.9545
35.9419 1106 33.2566
36.0584 1020 31.9374
36.1749 1096 33.1059
36.2913 1103 33.2114
36.4077 1108 33.2866
36.524 1177 34.3074
36.6403 1181 34.3657
36.7565 1078 32.8329
36.8727 1183 34.3948
36.9889 1181 34.3657
37.1049 1158 34.0294
37.221 0 1
37.3369 0 1
37.4529 0 1
37.5687 0 1
37.6845 0 1
37.8003 0 1
37.916 0 1
38.0316 0 1
38.1472 0 1
40.5851 0 1
40.7008 0 1
40.8164 0 1
40.9322 0 1
41.048 0 1
41.1639 0 1
41.2798 0 1
41.3958 0 1
41.5118 0 1
41.6279 0 1
41.744 902 30.0333
41.8602 940 30.6594
41.9765 987 31.4166
42.0928 1005 31.7017
42.2091 962 31.0161
42.3255 967 31.0966
42.4419 1045 32.3265
42.5584 963 31.0322
42.675 998 31.5911
42.7915 945 30.7409
42.9081 850 29.1548
43.0248 874 29.5635
43.1415 869 29.4788
43.2582 887 29.7825
43.375 892 29.8664
43.4918 908 30.133
43.6087 936 30.5941
43.7256 856 29.2575
43.8425 818 28.6007
43.9595 891 29.8496
44.0765 877 29.6142
44.1935 884 29.7321
44.3106 832 28.8444
44.4277 837 28.931
44.5448 798 28.2489
44.6619 781 27.9464
44.7791 748 27.3496
44.8963 750 27.3861
45.0136 713 26.7021
45.1308 760 27.5681
45.2481 797 28.2312
45.3654 763 27.6225
45.4827 762 27.6043
45.6001 791 28.1247
45.7174 790 28.1069
45.8348 742 27.2397
45.9522 797 28.2312
46.0697 736 27.1293
46.1871 720 26.8328
46.3046 728 26.9815
46.422 640 25.2982
46.5395 636 25.219
46.657 617 24.8395
46.7745 679 26.0576
46.892 721 26.8514
47.0096 704 26.533
47.1271 721 26.8514
47.2446 733 27.074
47.3622 685 26.1725
47.4797 619 24.8797
47.5973 623 24.96
47.7149 643 25.3574
47.8324 621 24.9199
47.95 654 25.5734
48.0675 655 25.593
48.1851 585 24.1868
48.3027 594 24.3721
48.4202 576 24
48.5378 574 23.9583
48.6554 570 23.8747
48.7729 569 23.8537
48.8904 615 24.7992
49.008 656 25.6125
49.1255 661 25.7099
49.243 667 25.8263
49.3605 588 24.2487
49.478 640 25.2982
49.5955 612 24.7386
49.713 621 24.9199
49.8304 567 23.8118
49.9479 552 23.4947
50.0653 535 23.1301
50.1827 612 24.7386
50.3001 603 24.5561
50.4175 615 24.7992
50.5348 678 26.0384
50.6521 672 25.923
50.7694 659 25.671
50.8867 676 26
51.004 690 26.2679
51.1212 674 25.9615
51.2384 649 25.4755
51.3556 670 25.8844
51.4727 733 27.074
51.5899 700 26.4575
51.707 704 26.533
51.824 734 27.0924
51.9411 773 27.8029
52.0581 722 26.8701
52.175 829 28.7924
52.2919 858 29.2916
52.4088 827 28.7576
52.5257 895 29.9166
52.6425 850 29.1548
52.7593 916 30.2655
52.876 848 29.1204
52.9927 835 28.8964
53.1094 876 29.5973
53.226 951 30.8383
53.3426 974 31.209
53.4591 899 29.9833
53.5756 850 29.1548
53.692 761 27.5862
53.8084 836 28.9137
53.9248 886 29.7658
54.0411 950 30.8221
54.1573 943 30.7083
54.2735 0 1
54.3896 0 1
54.5057 0 1
54.6217 0 1
54.7377 0 1
54.8537 0 1
54.9695 0 1
55.0853 0 1
55.2011 0 1
55.3168 0 1
55.4324 0 1
57.824 0 1
57.9396 0 1
58.0553 0 1
58.1711 0 1
58.2869 0 1
58.4028 0 1
58.5187 0 1
58.6347 0 1
58.7508 0 1
58.8669 0 1
58.983 969 31.1288
59.0992 1027 32.0468
59.2155 1054 32.4654
59.3318 1115 33.3916
59.4482 1161 34.0735
59.5646 1074 32.7719
59.681 1066 32.6497
59.7975 1008 31.749
59.9141 985 31.3847
60.0306 1001 31.6386
60.1473 1018 31.9061
60.2639 961 31
60.3807 965 31.0644
60.4974 1017 31.8904
60.6142 1054 32.4654
60.731 932 30.5287
60.8479 1070 32.7109
60.9648 977 31.257
61.0818 1015 31.8591
61.1987 1031 32.1092
61.3158 1059 32.5423
61.4328 1011 31.7962
61.5499 1051 32.4191
61.667 1001 31.6386
61.7841 1016 31.8748
61.9013 1002 31.6544
62.0185 944 30.7246
62.1357 852 29.189
62.253 896 29.9333
62.3702 912 30.1993
62.4875 984 31.3688
62.6049 1028 32.0624
62.7222 1011 31.7962
62.8396 1004 31.686
62.9569 1006 31.7175
63.0743 1008 31.749
63.1918 934 30.5614
63.3092 924 30.3974
63.4267 971 31.1609
63.5441 839 28.9655
63.6616 847 29.1033
63.7791 899 29.9833
63.8966 908 30.133
64.0142 839 28.9655
64.1317 877 29.6142
64.2492 923 30.3809
64.3668 935 30.5778
64.4843 927 30.4467
64.6019 909 30.1496
64.7195 968 31.1127
64.837 953 30.8707
64.9546 988 31.4325
65.0722 901 30.0167
65.1898 946 30.7571
65.3074 931 30.5123
65.4249 863 29.3769
65.5425 943 30.7083
65.6601 871 29.5127
65.7777 847 29.1033
65.8952 806 28.3901
66.0128 837 28.931
66.1304 896 29.9333
66.2479 992 31.496
66.3655 873 29.5466
66.483 970 31.1448
66.6005 958 30.9516
66.718 975 31.225
66.8355 906 30.0998
66.953 810 28.4605
67.0705 828 28.775
67.1879 801 28.3019
67.3054 839 28.9655
67.4228 895 29.9166
67.5402 836 28.9137
67.6576 919 30.315
67.7749 871 29.5127
67.8923 842 29.0172
68.0096 897 29.95
68.1269 923 30.3809
68.2442 952 30.8545
68.3614 980 31.305
68.4787 962 31.0161
68.5958 987 31.4166
68.713 964 31.0483
68.8302 975 31.225
68.9473 997 31.5753
69.0643 983 31.3528
69.1814 880 29.6648
69.2984 879 29.6479
69.4154 807 28.4077
69.5323 819 28.6182
69.6492 829 28.7924
69.7661 965 31.0644
69.8829 965 31.0644
69.9997 1082 32.8938
70.1165 1036 32.187
70.2332 1058 32.5269
70.3499 1053 32.45
70.4665 1052 32.4345
70.5831 963 31.0322
70.6996 915 30.249
70.8161 911 30.1828
70.9326 891 29.8496
71.049 890 29.8329
71.1653 925 30.4138
71.2817 888 29.7993
71.3979 969 31.1288
71.5141 948 30.7896
71.6303 897 29.95
71.7464 890 29.8329
71.8624 0 1
71.9784 0 1
72.0944 0 1
72.2102 0 1
72.3261 0 1
72.4418 0 1
72.5575 0 1
72.6732 0 1
75.1054 0 1
75.2209 0 1
75.3365 0 1
75.4521 0 1
75.5678 0 1
75.6835 0 1
75.7993 0 1
75.9151 0 1
76.031 0 1
76.147 793 28.1603
76.263 892 29.8664
76.3791 867 29.4449
76.4952 879 29.6479
76.6113 938 30.6268
76.7276 980 31.305
76.8438 997 31.5753
76.9601 969 31.1288
77.0765 1034 32.1559
77.1929 1002 31.6544
77.3093 976 31.241
77.4258 1014 31.8434
77.5423 1072 32.7414
77.6589 992 31.496
77.7755 1006 31.7175
77.8921 988 31.4325
78.0088 965 31.0644
78.1256 955 30.9031
78.2423 906 30.0998
78.3591 878 29.6311
78.4759 789 28.0891
78.5928 876 29.5973
78.7097 869 29.4788
78.8266 889 29.8161
78.9436 1049 32.3883
79.0606 1006 31.7175
79.1776 1057 32.5115
79.2946 1057 32.5115
79.4117 1037 32.2025
79.5288 982 31.3369
79.6459 917 30.282
79.7631 827 28.7576
79.8802 792 28.1425
79.9974 791 28.1247
80.1147 854 29.2233
80.2319 821 28.6531
80.3491 874 29.5635
80.4664 969 31.1288
80.5837 943 30.7083
80.701 928 30.4631
80.8183 915 30.249
80.9357 960 30.9839
81.053 912 30.1993
81.1704 913 30.2159
81.2877 925 30.4138
81.4051 907 30.1164
81.5225 901 30.0167
81.6399 932 30.5287
81.7573 920 30.3315
81.8747 832 28.8444
81.9922 787 28.0535
82.1096 792 28.1425
82.227 772 27.7849
82.3444 796 28.2135
82.4619 873 29.5466
82.5793 951 30.8383
82.6967 898 29.9666
82.8142 934 30.5614
82.9316 960 30.9839
83.049 915 30.249
83.1664 902 30.0333
83.2838 874 29.5635
83.4012 761 27.5862
83.5186 685 26.1725
83.636 675 25.9808
83.7534 708 26.6083
83.8708 708 26.6083
83.9881 805 28.3725
84.1055 804 28.3549
84.2228 894 29.8998
84.3401 850 29.1548
84.4575 895 29.9166
84.5747 852 29.189
84.692 960 30.9839
84.8093 899 29.9833
84.9265 930 30.4959
85.0437 914 30.2324
85.1609 908 30.133
85.2781 958 30.9516
85.3952 861 29.3428
85.5123 836 28.9137
85.6294 743 27.258
85.7465 876 29.5973
85.8636 851 29.1719
85.9806 874 29.5635
86.0976 961 31
86.2145 1009 31.7648
86.3315 1064 32.619
86.4484 969 31.1288
86.5652 1050 32.4037
86.682 1073 32.7567
86.7988 1047 32.3574
86.9156 966 31.0805
87.0323 940 30.6594
87.149 778 27.8927
87.2657 781 27.9464
87.3823 900 30
87.4988 937 30.6105
87.6154 997 31.5753
87.7318 951 30.8383
87.8483 1052 32.4345
87.9647 1022 31.9687
88.081 1106 33.2566
88.1973 1097 33.121
88.3136 1048 32.3728
88.4298 1078 32.8329
88.546 1075 32.7872
88.6621 1001 31.6386
88.7781 1030 32.0936
88.8942 0 1
89.0101 0 1
89.126 0 1
89.2419 0 1
89.3577 0 1
89.4734 0 1
89.5891 0 1
89.7047 0 1
89.8203 0 1
89.9358 0 1
92.3269 0 1
92.4424 0 1
92.558 0 1
92.6736 0 1
92.7893 0 1
92.905 0 1
93.0208 0 1
93.1366 0 1
93.2525 0 1
93.3685 0 1
93.4845 0 1
93.6005 1055 32.4808
93.7167 1068 32.6803
93.8328 1080 32.8634
93.949 1081 32.8786
94.0653 1024 32
94.1816 1012 31.8119
94.2979 1016 31.8748
94.4143 976 31.241
94.5307 952 30.8545
94.6472 918 30.2985
94.7637 938 30.6268
94.8803 975 31.225
94.9969 1080 32.8634
95.1135 1028 32.0624
95.2302 1068 32.6803
95.3469 1096 33.1059
95.4637 1087 32.9697
95.5805 1135 33.6898
95.6973 1215 34.8569
95.8142 1111 33.3317
95.9311 1068 32.6803
96.048 1135 33.6898
96.1649 1024 32
96.2819 911 30.1828
96.3989 841 29
96.516 852 29.189
96.633 916 30.2655
96.7501 1006 31.7175
96.8673 1039 32.2335
96.9844 1050 32.4037
97.1016 1082 32.8938
97.2188 1119 33.4515
97.336 1101 33.1813
97.4532 1161 34.0735
97.5704 1133 33.6601
97.6877 1077 32.8177
97.805 1072 32.7414
97.9223 1089 33
98.0396 996 31.5595
98.1569 986 31.4006
98.2743 938 30.6268
98.3916 985 31.3847
98.509 1006 31.7175
98.6264 1017 31.8904
98.7438 1059 32.5423
98.8612 1045 32.3265
98.9786 1168 34.176
99.096 1128 33.5857
99.2134 1122 33.4963
99.3308 1125 33.541
99.4482 1164 34.1174
99.5656 1128 33.5857
99.6831 1065 32.6343
99.8005 1059 32.5423
99.9179 892 29.8664
100.035 876 29.5973
100.153 906 30.0998
100.27 959 30.9677
100.388 1024 32
100.505 1069 32.6956
100.622 1071 32.7261
100.74 1117 33.4215
100.857 1079 32.8481
100.975 1087 32.9697
101.092 1169 34.1906
101.209 1124 33.5261
101.327 1028 32.0624
101.444 1058 32.5269
101.561 1010 31.7805
101.679 993 31.5119
101.796 968 31.1127
101.913 932 30.5287
102.03 976 31.241
102.148 1037 32.2025
102.265 1074 32.7719
102.382 1167 34.1614
102.499 1151 33.9264
102.616 1149 33.8969
102.733 1156 34
102.851 1209 34.7707
102.968 1198 34.6121
103.085 1307 36.1525
103.202 1164 34.1174
103.319 1065 32.6343
103.436 1020 31.9374
103.552 922 30.3645
103.669 912 30.1993
103.786 991 31.4802
103.903 1163 34.1028
104.02 1127 33.5708
104.137 1121 33.4813
104.253 1185 34.4238
104.37 1172 34.2345
104.487 1211 34.7994
104.603 1194 34.5543
104.72 1220 34.9285
104.836 1249 35.3412
104.953 1170 34.2053
105.069 1090 33.0151
105.186 1042 32.28
105.302 1069 32.6956
105.418 960 30.9839
105.535 1145 33.8378
105.651 1176 34.2929
105.767 1216 34.8712
105.883 1358 36.8511
105.999 1286 35.8608
106.115 0 1
106.231 0 1
106.347 0 1
106.463 0 1
106.579 0 1
106.694 0 1
106.81 0 1
106.926 0 1
107.041 0 1
107.157 0 1
109.576 0 1
109.692 0 1
109.807 0 1
109.923 0 1
110.039 0 1
110.155 0 1
110.27 0 1
110.386 0 1
110.502 0 1
110.618 1029 32.078
110.735 1122 33.4963
110.851 1137 33.7194
110.967 1202 34.6699
111.083 1179 34.3366
111.199 1239 35.1994
111.316 1253 35.3977
111.432 1244 35.2704
111.549 1201 34.6554
111.665 1203 34.6843
111.782 1170 34.2053
111.898 1091 33.0303
112.015 994 31.5278
112.132 912 30.1993
112.248 890 29.8329
112.365 982 31.3369
112.482 1109 33.3017
112.599 1130 33.6155
112.716 1139 33.7491
112.832 1135 33.6898
112.949 1147 33.8674
113.066 1173 34.2491
113.183 1132 33.6452
113.3 1201 34.6554
113.417 1112 33.3467
113.534 1098 33.1361
113.652 1038 32.218
113.769 920 30.3315
113.886 980 31.305
114.003 898 29.9666
114.12 967 31.0966
114.238 1061 32.573
114.355 1116 33.4066
114.472 1170 34.2053
114.589 1125 33.541
114.707 1147 33.8674
114.824 1176 34.2929
114.942 1160 34.0588
115.059 1223 34.9714
115.176 1150 33.9116
115.294 1131 33.6303
115.411 1112 33.3467
115.529 1044 32.311
115.646 897 29.95
115.764 920 30.3315
115.881 932 30.5287
115.999 1058 32.5269
116.116 1101 33.1813
116.234 1085 32.9393
116.351 1111 33.3317
116.469 1120 33.4664
116.586 1086 32.9545
116.704 1156 34
116.821 1058 32.5269
116.939 1046 32.3419
117.056 1074 32.7719
117.174 981 31.3209
117.291 986 31.4006
117.409 939 30.6431
117.526 936 30.5941
117.644 967 31.0966
117.761 1060 32.5576
117.879 1136 33.7046
117.996 1167 34.1614
118.114 1147 33.8674
118.231 1218 34.8999
118.349 1176 34.2929
118.466 1197 34.5977
118.584 1133 33.6601
118.701 1198 34.6121
118.819 1141 33.7787
118.936 1181 34.3657
119.053 1075 32.7872
119.171 1053 32.45
119.288 933 30.545
119.405 863 29.3769
119.523 909 30.1496
119.64 1019 31.9218
119.757 1076 32.8024
119.875 1127 33.5708
119.992 1149 33.8969
120.109 1101 33.1813
120.226 1070 32.7109
120.343 1126 33.5559
120.46 1065 32.6343
120.578 1084 32.9242
120.695 1166 34.1467
120.812 1001 31.6386
120.929 914 30.2324
121.046 876 29.5973
121.163 919 30.315
121.279 961 31
121.396 946 30.7571
121.513 1043 32.2955
121.63 1146 33.8526
121.747 1064 32.619
121.863 1110 33.3167
121.98 1218 34.8999
122.097 1257 35.4542
122.213 1155 33.9853
122.33 1141 33.7787
122.446 1124 33.5261
122.563 1089 33
122.679 1145 33.8378
122.795 1040 32.249
122.912 949 30.8058
123.028 877 29.6142
123.144 862 29.3598
123.26 847 29.1033
123.377 0 1
123.493 0 1
123.609 0 1
123.725 0 1
123.84 0 1
123.956 0 1
124.072 0 1
124.188 0 1
124.303 0 1
124.419 0 1
126.852 0 1
126.968 0 1
127.083 0 1
127.199 0 1
127.315 0 1
127.431 0 1
127.547 0 1
127.663 0 1
127.779 0 1
127.895 0 1
128.011 0 1
128.127 0 1
128.243 0 1
128.359 904 30.0666
128.476 890 29.8329
128.592 1045 32.3265
128.708 1140 33.7639
128.825 1119 33.4515
128.941 1216 34.8712
129.058 1168 34.176
129.174 1207 34.7419
129.291 1202 34.6699
129.408 1190 34.4964
129.524 1180 34.3511
129.641 1171 34.2199
129.758 1130 33.6155
129.875 1006 31.7175
129.992 1075 32.7872
130.108 949 30.8058
130.225 1035 32.1714
130.342 1043 32.2955
130.459 1077 32.8177
130.576 1211 34.7994
130.693 1197 34.5977
130.81 1221 34.9428
130.928 1217 34.8855
131.045 1196 34.5832
131.162 1184 34.4093
131.279 1238 35.1852
131.396 1264 35.5528
131.513 1265 35.5668
131.631 1203 34.6843
131.748 1121 33.4813
131.865 978 31.273
131.983 899 29.9833
132.1 1037 32.2025
132.217 1130 33.6155
132.335 1150 33.9116
132.452 1207 34.7419
132.57 1202 34.6699
132.687 1218 34.8999
132.804 1213 34.8281
132.922 1145 33.8378
133.039 1197 34.5977
133.157 1086 32.9545
133.274 1097 33.121
133.392 1090 33.0151
133.509 1001 31.6386
133.627 1046 32.3419
133.744 1010 31.7805
133.862 1018 31.9061
133.979 1159 34.0441
134.097 1122 33.4963
134.214 1188 34.4674
134.332 1183 34.3948
134.449 1290 35.9166
134.567 1180 34.3511
134.684 1221 34.9428
134.802 1228 35.0428
134.919 1240 35.2136
135.037 1221 34.9428
135.154 1166 34.1467
135.272 1095 33.0908
135.389 1024 32
135.507 941 30.6757
135.624 935 30.5778
135.742 1065 32.6343
135.859 1118 33.4365
135.977 1217 34.8855
136.094 1164 34.1174
136.211 1189 34.4819
136.329 1224 34.9857
136.446 1203 34.6843
136.564 1216 34.8712
136.681 1109 33.3017
136.798 1170 34.2053
136.915 1091 33.0303
137.033 1054 32.4654
137.15 983 31.3528
137.267 1053 32.45
137.384 1004 31.686
137.502 1070 32.7109
137.619 1116 33.4066
137.736 1166 34.1467
137.853 1186 34.4384
137.97 1238 35.1852
138.087 1185 34.4238
138.204 1206 34.7275
138.321 1184 34.4093
138.438 1183 34.3948
138.555 1206 34.7275
138.672 1208 34.7563
138.788 1162 34.0881
138.905 1167 34.1614
139.022 1066 32.6497
139.139 955 30.9031
139.255 977 31.257
139.372 1014 31.8434
139.488 1137 33.7194
139.605 1168 34.176
139.721 1224 34.9857
139.838 1280 35.7771
139.954 1161 34.0735
140.071 1167 34.1614
140.187 1244 35.2704
140.303 1178 34.322
140.419 1143 33.8083
140.535 1112 33.3467
140.652 1035 32.1714
140.768 0 1
140.884 0 1
141 0 1
141.115 0 1
141.231 0 1
141.347 0 1
141.463 0 1
141.578 0 1
141.694 0 1
144.104 0 1
144.219 0 1
144.335 0 1
144.45 0 1
144.566 0 1
144.682 0 1
144.798 0 1
144.914 0 1
145.03 0 1
145.146 866 29.4279
145.262 904 30.0666
145.378 913 30.2159
145.494 954 30.8869
145.61 839 28.9655
145.726 924 30.3974
145.842 846 29.0861
145.959 839 28.9655
146.075 757 27.5136
146.192 793 28.1603
146.308 832 28.8444
146.425 835 28.8964
146.541 875 29.5804
146.658 923 30.3809
146.774 952 30.8545
146.891 1026 32.0312
147.008 951 30.8383
147.125 998 31.5911
147.241 980 31.305
147.358 969 31.1288
147.475 936 30.5941
147.592 938 30.6268
147.709 907 30.1164
147.826 855 29.2404
147.943 858 29.2916
148.06 769 27.7308
148.177 792 28.1425
148.294 842 29.0172
148.411 854 29.2233
148.528 983 31.3528
148.645 884 29.7321
148.762 918 30.2985
148.88 1059 32.5423
148.997 896 29.9333
149.114 964 31.0483
149.231 894 29.8998
149.349 922 30.3645
149.466 913 30.2159
149.583 904 30.0666
149.701 845 29.0689
149.818 842 29.0172
149.935 821 28.6531
150.053 786 28.0357
150.17 891 29.8496
150.287 950 30.8221
150.405 905 30.0832
150.522 925 30.4138
150.64 939 30.6431
150.757 902 30.0333
150.875 970 31.1448
150.992 927 30.4467
151.11 966 31.0805
151.227 903 30.05
151.344 927 30.4467
151.462 954 30.8869
151.579 876 29.5973
151.697 817 28.5832
151.814 841 29
151.932 809 28.4429
152.049 851 29.1719
152.167 946 30.7571
152.284 1023 31.9844
152.402 945 30.7409
152.519 960 30.9839
152.636 985 31.3847
152.754 980 31.305
152.871 953 30.8707
152.989 960 30.9839
153.106 979 31.289
153.223 912 30.1993
153.341 844 29.0517
153.458 845 29.0689
153.575 841 29
153.693 907 30.1164
153.81 901 30.0167
153.927 915 30.249
154.044 938 30.6268
154.162 905 30.0832
154.279 926 30.4302
154.396 1000 31.6228
154.513 1035 32.1714
154.63 1036 32.187
154.747 1035 32.1714
154.864 1103 33.2114
154.981 975 31.225
155.098 992 31.496
155.215 896 29.9333
155.332 876 29.5973
155.449 898 29.9666
155.566 989 31.4484
155.683 1055 32.4808
155.8 1081 32.8786
155.917 1079 32.8481
156.033 1075 32.7872
156.15 0 1
156.267 0 1
156.383 0 1
156.5 0 1
156.617 0 1
156.733 0 1
156.85 0 1
156.966 0 1
157.082 0 1
157.199 0 1
157.315 0 1
157.431 0 1
157.547 0 1
157.664 0 1
157.78 0 1
157.896 0 1
158.012 0 1
158.128 0 1
158.244 0 1
158.359 0 1
158.475 0 1
158.591 0 1
158.706 0 1
