
6.15755 0 1
6.2731 0 1
6.3887 0 1
6.50437 0 1
6.62009 0 1
6.73587 0 1
6.8517 0 1
6.96759 0 1
7.08353 0 1
7.19952 0 1
7.31557 0 1
7.43166 0 1
7.54781 0 1
7.664 0 1
7.78024 0 1
7.89653 0 1
8.01286 0 1
8.12924 0 1
8.24567 0 1
8.36213 0 1
8.47864 0 1
8.59519 0 1
8.71178 0 1
8.82841 0 1
8.94508 0 1
9.06179 0 1
9.17853 0 1
9.29531 0 1
9.41212 0 1
9.52897 0 1
9.64584 0 1
9.76276 0 1
9.8797 0 1
9.99667 0 1
10.1137 0 1
10.2307 0 1
10.3478 0 1
10.4648 0 1
10.5819 0 1
10.6991 0 1
10.8162 0 1
10.9334 0 1
11.0506 0 1
11.1678 0 1
11.285 0 1
11.4023 0 1
11.5196 0 1
11.6369 0 1
11.7542 0 1
11.8715 0 1
11.9888 0 1
12.1062 0 1
12.2235 0 1
12.3409 0 1
12.4582 0 1
12.5756 0 1
12.693 0 1
12.8104 0 1
12.9278 0 1
13.0452 0 1
13.1626 0 1
13.28 0 1
13.3974 0 1
13.5149 0 1
13.6323 0 1
13.7497 0 1
13.8671 0 1
13.9845 0 1
14.1019 0 1
14.2193 0 1
14.3367 0 1
14.4541 0 1
14.5714 0 1
14.6888 0 1
14.8062 0 1
14.9235 0 1
15.0408 947 30.7734
15.1581 949 30.8058
15.2755 1033 32.1403
15.3927 980 31.305
15.51 1053 32.45
15.6273 1065 32.6343
15.7445 1107 33.2716
15.8617 974 31.209
15.9789 1007 31.7333
16.0961 1045 32.3265
16.2132 1036 32.187
16.3304 999 31.607
16.4475 1060 32.5576
16.5646 1092 33.0454
16.6816 1140 33.7639
16.7986 1115 33.3916
16.9156 1153 33.9559
17.0326 1130 33.6155
17.1496 1205 34.7131
17.2665 1206 34.7275
17.3833 1232 35.0999
17.5002 1118 33.4365
17.617 1070 32.7109
17.7338 1089 33
17.8505 1085 32.9393
17.9672 985 31.3847
18.0839 1095 33.0908
18.2005 1058 32.5269
18.3171 1112 33.3467
18.4337 1085 32.9393
18.5502 1119 33.4515
18.6666 1225 35
18.7831 1185 34.4238
18.8994 1163 34.1028
19.0158 1145 33.8378
19.1321 1073 32.7567
19.2483 1091 33.0303
19.3645 1049 32.3883
19.4806 971 31.1609
19.5967 885 29.7489
19.7128 826 28.7402
19.8288 745 27.2947
19.9447 662 25.7294
20.0606 0 1
20.1764 0 1
20.2922 0 1
20.4079 0 1
20.5236 0 1
20.6392 0 1
20.7548 0 1
20.8702 0 1
23.3078 0 1
23.4233 0 1
23.539 0 1
23.6547 0 1
23.7704 0 1
23.8862 0 1
24.0021 0 1
24.118 0 1
24.234 0 1
24.35 0 1
24.4661 435 20.8567
24.5822 530 23.0217
24.6984 598 24.454
24.8146 653 25.5539
24.9309 719 26.8142
25.0472 756 27.4955
25.1636 875 29.5804
25.28 939 30.6431
25.3965 1040 32.249
25.513 1095 33.0908
25.6296 1191 34.5109
25.7462 1187 34.4529
25.8628 1204 34.6987
25.9795 1232 35.0999
26.0962 1225 35
26.213 1193 34.5398
26.3298 1124 33.5261
26.4466 1069 32.6956
26.5635 1035 32.1714
26.6804 1040 32.249
26.7973 1073 32.7567
26.9143 1143 33.8083
27.0313 1069 32.6956
27.1483 1214 34.8425
27.2653 1163 34.1028
27.3824 1210 34.7851
27.4996 1179 34.3366
27.6167 1139 33.7491
27.7339 1172 34.2345
27.8511 1076 32.8024
27.9683 1163 34.1028
28.0855 1070 32.7109
28.2028 982 31.3369
28.3201 974 31.209
28.4374 962 31.0161
28.5547 975 31.225
28.6721 1011 31.7962
28.7894 1061 32.573
28.9068 1024 32
29.0242 1219 34.9142
29.1416 1200 34.641
29.259 1155 33.9853
29.3764 1205 34.7131
29.4939 1192 34.5254
29.6113 1201 34.6554
29.7288 1059 32.5423
29.8463 1041 32.2645
29.9638 1013 31.8277
30.0812 993 31.5119
30.1987 1028 32.0624
30.3162 1028 32.0624
30.4337 999 31.607
30.5512 977 31.257
30.6687 1139 33.7491
30.7862 1083 32.909
30.9037 1166 34.1467
31.0212 1131 33.6303
31.1387 1120 33.4664
31.2562 1068 32.6803
31.3737 1114 33.3766
31.4912 1072 32.7414
31.6087 1042 32.28
31.7262 1001 31.6386
31.8436 995 31.5436
31.9611 925 30.4138
32.0785 967 31.0966
32.1959 947 30.7734
32.3134 1005 31.7017
32.4308 1133 33.6601
32.5482 1124 33.5261
32.6655 1114 33.3766
32.7829 1129 33.6006
32.9002 1153 33.9559
33.0176 1114 33.3766
33.1349 1123 33.5112
33.2522 1208 34.7563
33.3694 1065 32.6343
33.4867 1023 31.9844
33.6039 945 30.7409
33.7211 935 30.5778
33.8383 938 30.6268
33.9554 957 30.9354
34.0725 1003 31.6702
34.1896 959 30.9677
34.3067 1080 32.8634
34.4237 1063 32.6037
34.5407 1134 33.6749
34.6577 1132 33.6452
34.7746 1059 32.5423
34.8915 1108 33.2866
35.0084 1045 32.3265
35.1252 1038 32.218
35.242 1036 32.187
35.3587 938 30.6268
35.4755 952 30.8545
35.5921 897 29.95
35.7088 833 28.8617
35.8254 906 30.0998
35.9419 903 30.05
36.0584 907 30.1164
36.1749 959 30.9677
36.2913 993 31.5119
36.4077 1005 31.7017
36.524 931 30.5123
36.6403 966 31.0805
36.7565 968 31.1127
36.8727 887 29.7825
36.9889 799 28.2666
37.1049 737 27.1477
37.221 0 1
37.3369 0 1
37.4529 0 1
37.5687 0 1
37.6845 0 1
37.8003 0 1
37.916 0 1
38.0316 0 1
38.1472 0 1
40.5851 0 1
40.7008 0 1
40.8164 0 1
40.9322 0 1
41.048 0 1
41.1639 0 1
41.2798 0 1
41.3958 0 1
41.5118 0 1
41.6279 0 1
41.744 520 22.8035
41.8602 538 23.1948
41.9765 593 24.3516
42.0928 679 26.0576
42.2091 645 25.3969
42.3255 617 24.8395
42.4419 676 26
42.5584 631 25.1197
42.675 652 25.5343
42.7915 715 26.7395
42.9081 817 28.5832
43.0248 841 29
43.1415 916 30.2655
43.2582 876 29.5973
43.375 933 30.545
43.4918 962 31.0161
43.6087 879 29.6479
43.7256 883 29.7153
43.8425 927 30.4467
43.9595 858 29.2916
44.0765 863 29.3769
44.1935 854 29.2233
44.3106 755 27.4773
44.4277 813 28.5132
44.5448 691 26.2869
44.6619 731 27.037
44.7791 776 27.8568
44.8963 754 27.4591
45.0136 862 29.3598
45.1308 913 30.2159
45.2481 927 30.4467
45.3654 895 29.9166
45.4827 946 30.7571
45.6001 934 30.5614
45.7174 917 30.282
45.8348 907 30.1164
45.9522 800 28.2843
46.0697 751 27.4044
46.1871 755 27.4773
46.3046 733 27.074
46.422 808 28.4253
46.5395 850 29.1548
46.657 900 30
46.7745 953 30.8707
46.892 902 30.0333
47.0096 890 29.8329
47.1271 950 30.8221
47.2446 938 30.6268
47.3622 914 30.2324
47.4797 882 29.6985
47.5973 905 30.0832
47.7149 894 29.8998
47.8324 884 29.7321
47.95 761 27.5862
48.0675 734 27.0924
48.1851 768 27.7128
48.3027 812 28.4956
48.4202 831 28.8271
48.5378 869 29.4788
48.6554 912 30.1993
48.7729 968 31.1127
48.8904 961 31
49.008 884 29.7321
49.1255 906 30.0998
49.243 901 30.0167
49.3605 797 28.2312
49.478 790 28.1069
49.5955 712 26.6833
49.713 752 27.4226
49.8304 676 26
49.9479 747 27.3313
50.0653 852 29.189
50.1827 886 29.7658
50.3001 891 29.8496
50.4175 936 30.5941
50.5348 909 30.1496
50.6521 902 30.0333
50.7694 958 30.9516
50.8867 866 29.4279
51.004 920 30.3315
51.1212 935 30.5778
51.2384 817 28.5832
51.3556 840 28.9828
51.4727 799 28.2666
51.5899 689 26.2488
51.707 724 26.9072
51.824 794 28.178
51.9411 825 28.7228
52.0581 866 29.4279
52.175 954 30.8869
52.2919 967 31.0966
52.4088 947 30.7734
52.5257 932 30.5287
52.6425 907 30.1164
52.7593 934 30.5614
52.876 896 29.9333
52.9927 852 29.189
53.1094 821 28.6531
53.226 794 28.178
53.3426 705 26.5518
53.4591 677 26.0192
53.5756 735 27.1109
53.692 733 27.074
53.8084 715 26.7395
53.9248 664 25.7682
54.0411 652 25.5343
54.1573 633 25.1595
54.2735 0 1
54.3896 0 1
54.5057 0 1
54.6217 0 1
54.7377 0 1
54.8537 0 1
54.9695 0 1
55.0853 0 1
55.2011 0 1
55.3168 0 1
55.4324 0 1
57.824 0 1
57.9396 0 1
58.0553 0 1
58.1711 0 1
58.2869 0 1
58.4028 0 1
58.5187 0 1
58.6347 0 1
58.7508 0 1
58.8669 0 1
58.983 647 25.4362
59.0992 717 26.7769
59.2155 849 29.1376
59.3318 879 29.6479
59.4482 976 31.241
59.5646 938 30.6268
59.681 1029 32.078
59.7975 965 31.0644
59.9141 1053 32.45
60.0306 1039 32.2335
60.1473 1074 32.7719
60.2639 979 31.289
60.3807 919 30.315
60.4974 920 30.3315
60.6142 948 30.7896
60.731 1072 32.7414
60.8479 1057 32.5115
60.9648 1142 33.7935
61.0818 1198 34.6121
61.1987 1166 34.1467
61.3158 1129 33.6006
61.4328 1184 34.4093
61.5499 1016 31.8748
61.667 982 31.3369
61.7841 1000 31.6228
61.9013 956 30.9192
62.0185 881 29.6816
62.1357 963 31.0322
62.253 1026 32.0312
62.3702 1052 32.4345
62.4875 1087 32.9697
62.6049 1120 33.4664
62.7222 1134 33.6749
62.8396 1164 34.1174
62.9569 1149 33.8969
63.0743 1193 34.5398
63.1918 1145 33.8378
63.3092 1168 34.176
63.4267 1134 33.6749
63.5441 1117 33.4215
63.6616 1019 31.9218
63.7791 979 31.289
63.8966 915 30.249
64.0142 954 30.8869
64.1317 949 30.8058
64.2492 993 31.5119
64.3668 1085 32.9393
64.4843 1107 33.2716
64.6019 1138 33.7343
64.7195 1211 34.7994
64.837 1136 33.7046
64.9546 1176 34.2929
65.0722 1081 32.8786
65.1898 1004 31.686
65.3074 907 30.1164
65.4249 952 30.8545
65.5425 842 29.0172
65.6601 911 30.1828
65.7777 977 31.257
65.8952 977 31.257
66.0128 1113 33.3617
66.1304 1071 32.7261
66.2479 1130 33.6155
66.3655 1167 34.1614
66.483 1127 33.5708
66.6005 1165 34.1321
66.718 1245 35.2846
66.8355 1188 34.4674
66.953 1132 33.6452
67.0705 1114 33.3766
67.1879 1056 32.4962
67.3054 1011 31.7962
67.4228 951 30.8383
67.5402 910 30.1662
67.6576 950 30.8221
67.7749 940 30.6594
67.8923 1043 32.2955
68.0096 1098 33.1361
68.1269 1208 34.7563
68.2442 1226 35.0143
68.3614 1202 34.6699
68.4787 1224 34.9857
68.5958 1249 35.3412
68.713 1293 35.9583
68.8302 1138 33.7343
68.9473 996 31.5595
69.0643 1013 31.8277
69.1814 940 30.6594
69.2984 981 31.3209
69.4154 1068 32.6803
69.5323 1139 33.7491
69.6492 1213 34.8281
69.7661 1278 35.7491
69.8829 1246 35.2987
69.9997 1269 35.623
70.1165 1264 35.5528
70.2332 1274 35.6931
70.3499 1206 34.7275
70.4665 1182 34.3802
70.5831 1094 33.0757
70.6996 1025 32.0156
70.8161 995 31.5436
70.9326 951 30.8383
71.049 772 27.7849
71.1653 684 26.1534
71.2817 578 24.0416
71.3979 516 22.7156
71.5141 523 22.8692
71.6303 478 21.8632
71.7464 474 21.7715
71.8624 0 1
71.9784 0 1
72.0944 0 1
72.2102 0 1
72.3261 0 1
72.4418 0 1
72.5575 0 1
72.6732 0 1
75.1054 0 1
75.2209 0 1
75.3365 0 1
75.4521 0 1
75.5678 0 1
75.6835 0 1
75.7993 0 1
75.9151 0 1
76.031 0 1
76.147 773 27.8029
76.263 805 28.3725
76.3791 854 29.2233
76.4952 855 29.2404
76.6113 862 29.3598
76.7276 867 29.4449
76.8438 956 30.9192
76.9601 1029 32.078
77.0765 1046 32.3419
77.1929 1172 34.2345
77.3093 1068 32.6803
77.4258 1163 34.1028
77.5423 1051 32.4191
77.6589 1113 33.3617
77.7755 1042 32.28
77.8921 857 29.2746
78.0088 871 29.5127
78.1256 757 27.5136
78.2423 760 27.5681
78.3591 828 28.775
78.4759 904 30.0666
78.5928 951 30.8383
78.7097 1035 32.1714
78.8266 1015 31.8591
78.9436 1044 32.311
79.0606 1049 32.3883
79.1776 1035 32.1714
79.2946 1092 33.0454
79.4117 1039 32.2335
79.5288 1075 32.7872
79.6459 1002 31.6544
79.7631 991 31.4802
79.8802 956 30.9192
79.9974 928 30.4631
80.1147 842 29.0172
80.2319 717 26.7769
80.3491 779 27.9106
80.4664 859 29.3087
80.5837 891 29.8496
80.701 1004 31.686
80.8183 1027 32.0468
80.9357 996 31.5595
81.053 1030 32.0936
81.1704 1048 32.3728
81.2877 1026 32.0312
81.4051 1048 32.3728
81.5225 912 30.1993
81.6399 826 28.7402
81.7573 799 28.2666
81.8747 807 28.4077
81.9922 739 27.1846
82.1096 812 28.4956
82.227 880 29.6648
82.3444 916 30.2655
82.4619 1019 31.9218
82.5793 999 31.607
82.6967 963 31.0322
82.8142 1062 32.5883
82.9316 1070 32.7109
83.049 1100 33.1662
83.1664 1096 33.1059
83.2838 1069 32.6956
83.4012 982 31.3369
83.5186 1010 31.7805
83.636 975 31.225
83.7534 850 29.1548
83.8708 801 28.3019
83.9881 785 28.0179
84.1055 802 28.3196
84.2228 851 29.1719
84.3401 938 30.6268
84.4575 1004 31.686
84.5747 1013 31.8277
84.692 1033 32.1403
84.8093 1083 32.909
84.9265 1072 32.7414
85.0437 1002 31.6544
85.1609 932 30.5287
85.2781 841 29
85.3952 784 28
85.5123 760 27.5681
85.6294 799 28.2666
85.7465 920 30.3315
85.8636 945 30.7409
85.9806 1007 31.7333
86.0976 1100 33.1662
86.2145 1039 32.2335
86.3315 1072 32.7414
86.4484 1119 33.4515
86.5652 1112 33.3467
86.682 1093 33.0606
86.7988 1048 32.3728
86.9156 1104 33.2265
87.0323 996 31.5595
87.149 1027 32.0468
87.2657 925 30.4138
87.3823 803 28.3373
87.4988 722 26.8701
87.6154 688 26.2298
87.7318 699 26.4386
87.8483 775 27.8388
87.9647 827 28.7576
88.081 845 29.0689
88.1973 807 28.4077
88.3136 838 28.9482
88.4298 753 27.4408
88.546 706 26.5707
88.6621 590 24.2899
88.7781 493 22.2036
88.8942 0 1
89.0101 0 1
89.126 0 1
89.2419 0 1
89.3577 0 1
89.4734 0 1
89.5891 0 1
89.7047 0 1
89.8203 0 1
89.9358 0 1
92.3269 0 1
92.4424 0 1
92.558 0 1
92.6736 0 1
92.7893 0 1
92.905 0 1
93.0208 0 1
93.1366 0 1
93.2525 0 1
93.3685 0 1
93.4845 0 1
93.6005 783 27.9821
93.7167 820 28.6356
93.8328 879 29.6479
93.949 849 29.1376
94.0653 928 30.4631
94.1816 884 29.7321
94.2979 855 29.2404
94.4143 792 28.1425
94.5307 813 28.5132
94.6472 800 28.2843
94.7637 782 27.9643
94.8803 818 28.6007
94.9969 934 30.5614
95.1135 964 31.0483
95.2302 1022 31.9687
95.3469 1067 32.665
95.4637 1088 32.9848
95.5805 1062 32.5883
95.6973 1025 32.0156
95.8142 1036 32.187
95.9311 1021 31.9531
96.048 1030 32.0936
96.1649 987 31.4166
96.2819 991 31.4802
96.3989 979 31.289
96.516 1003 31.6702
96.633 914 30.2324
96.7501 789 28.0891
96.8673 836 28.9137
96.9844 822 28.6705
97.1016 860 29.3258
97.2188 1013 31.8277
97.336 1022 31.9687
97.4532 1083 32.909
97.5704 1098 33.1361
97.6877 1075 32.7872
97.805 1068 32.6803
97.9223 996 31.5595
98.0396 935 30.5778
98.1569 818 28.6007
98.2743 807 28.4077
98.3916 777 27.8747
98.509 830 28.8097
98.6264 955 30.9031
98.7438 988 31.4325
98.8612 1028 32.0624
98.9786 981 31.3209
99.096 1053 32.45
99.2134 1118 33.4365
99.3308 1113 33.3617
99.4482 1059 32.5423
99.5656 1101 33.1813
99.6831 1133 33.6601
99.8005 1107 33.2716
99.9179 1039 32.2335
100.035 1086 32.9545
100.153 951 30.8383
100.27 890 29.8329
100.388 877 29.6142
100.505 863 29.3769
100.622 947 30.7734
100.74 1081 32.8786
100.857 1071 32.7261
100.975 1151 33.9264
101.092 1132 33.6452
101.209 1055 32.4808
101.327 1080 32.8634
101.444 1094 33.0757
101.561 1014 31.8434
101.679 909 30.1496
101.796 867 29.4449
101.913 792 28.1425
102.03 844 29.0517
102.148 943 30.7083
102.265 929 30.4795
102.382 1079 32.8481
102.499 1009 31.7648
102.616 1169 34.1906
102.733 1184 34.4093
102.851 1245 35.2846
102.968 1205 34.7131
103.085 1080 32.8634
103.202 1160 34.0588
103.319 1127 33.5708
103.436 1079 32.8481
103.552 1134 33.6749
103.669 976 31.241
103.786 1011 31.7962
103.903 889 29.8161
104.02 920 30.3315
104.137 930 30.4959
104.253 1044 32.311
104.37 1103 33.2114
104.487 1224 34.9857
104.603 1188 34.4674
104.72 1185 34.4238
104.836 1112 33.3467
104.953 1004 31.686
105.069 877 29.6142
105.186 854 29.2233
105.302 785 28.0179
105.418 769 27.7308
105.535 786 28.0357
105.651 770 27.7489
105.767 725 26.9258
105.883 812 28.4956
105.999 748 27.3496
106.115 0 1
106.231 0 1
106.347 0 1
106.463 0 1
106.579 0 1
106.694 0 1
106.81 0 1
106.926 0 1
107.041 0 1
107.157 0 1
109.576 0 1
109.692 0 1
109.807 0 1
109.923 0 1
110.039 0 1
110.155 0 1
110.27 0 1
110.386 0 1
110.502 0 1
110.618 467 21.6102
110.735 598 24.454
110.851 718 26.7955
110.967 798 28.2489
111.083 871 29.5127
111.199 973 31.1929
111.316 971 31.1609
111.432 990 31.4643
111.549 1106 33.2566
111.665 1119 33.4515
111.782 1012 31.8119
111.898 1047 32.3574
112.015 1044 32.311
112.132 1068 32.6803
112.248 938 30.6268
112.365 875 29.5804
112.482 840 28.9828
112.599 854 29.2233
112.716 911 30.1828
112.832 1000 31.6228
112.949 1139 33.7491
113.066 1046 32.3419
113.183 1022 31.9687
113.3 1042 32.28
113.417 1085 32.9393
113.534 989 31.4484
113.652 902 30.0333
113.769 872 29.5296
113.886 811 28.4781
114.003 699 26.4386
114.12 767 27.6948
114.238 863 29.3769
114.355 950 30.8221
114.472 918 30.2985
114.589 1041 32.2645
114.707 1063 32.6037
114.824 1059 32.5423
114.942 1110 33.3167
115.059 1106 33.2566
115.176 1102 33.1964
115.294 1088 32.9848
115.411 1091 33.0303
115.529 992 31.496
115.646 990 31.4643
115.764 921 30.348
115.881 844 29.0517
115.999 812 28.4956
116.116 836 28.9137
116.234 943 30.7083
116.351 968 31.1127
116.469 1020 31.9374
116.586 1018 31.9061
116.704 1002 31.6544
116.821 1077 32.8177
116.939 1071 32.7261
117.056 1025 32.0156
117.174 944 30.7246
117.291 890 29.8329
117.409 844 29.0517
117.526 774 27.8209
117.644 764 27.6405
117.761 849 29.1376
117.879 955 30.9031
117.996 933 30.545
118.114 1006 31.7175
118.231 1054 32.4654
118.349 994 31.5278
118.466 1114 33.3766
118.584 986 31.4006
118.701 1095 33.0908
118.819 1005 31.7017
118.936 1077 32.8177
119.053 968 31.1127
119.171 988 31.4325
119.288 936 30.5941
119.405 900 30
119.523 802 28.3196
119.64 851 29.1719
119.757 786 28.0357
119.875 893 29.8831
119.992 858 29.2916
120.109 990 31.4643
120.226 970 31.1448
120.343 1028 32.0624
120.46 1018 31.9061
120.578 956 30.9192
120.695 1008 31.749
120.812 996 31.5595
120.929 890 29.8329
121.046 862 29.3598
121.163 777 27.8747
121.279 723 26.8887
121.396 820 28.6356
121.513 841 29
121.63 873 29.5466
121.747 902 30.0333
121.863 804 28.3549
121.98 864 29.3939
122.097 874 29.5635
122.213 813 28.5132
122.33 811 28.4781
122.446 815 28.5482
122.563 837 28.931
122.679 677 26.0192
122.795 682 26.1151
122.912 628 25.0599
123.028 555 23.5584
123.144 494 22.2261
123.26 433 20.8087
123.377 0 1
123.493 0 1
123.609 0 1
123.725 0 1
123.84 0 1
123.956 0 1
124.072 0 1
124.188 0 1
124.303 0 1
124.419 0 1
126.852 0 1
126.968 0 1
127.083 0 1
127.199 0 1
127.315 0 1
127.431 0 1
127.547 0 1
127.663 0 1
127.779 0 1
127.895 0 1
128.011 0 1
128.127 0 1
128.243 0 1
128.359 1063 32.6037
128.476 1148 33.8821
128.592 1054 32.4654
128.708 1011 31.7962
128.825 1042 32.28
128.941 1082 32.8938
129.058 1127 33.5708
129.174 1308 36.1663
129.291 1281 35.7911
129.408 1238 35.1852
129.524 1271 35.6511
129.641 1283 35.819
129.758 1277 35.7351
129.875 1124 33.5261
129.992 1120 33.4664
130.108 1019 31.9218
130.225 953 30.8707
130.342 983 31.3528
130.459 980 31.305
130.576 1103 33.2114
130.693 1089 33
130.81 1141 33.7787
130.928 1154 33.9706
131.045 1174 34.2637
131.162 1207 34.7419
131.279 1261 35.5106
131.396 1261 35.5106
131.513 1259 35.4824
131.631 1290 35.9166
131.748 1209 34.7707
131.865 1230 35.0714
131.983 1160 34.0588
132.1 1122 33.4963
132.217 1125 33.541
132.335 1062 32.5883
132.452 1046 32.3419
132.57 1202 34.6699
132.687 1216 34.8712
132.804 1250 35.3553
132.922 1264 35.5528
133.039 1311 36.2077
133.157 1261 35.5106
133.274 1302 36.0832
133.392 1229 35.0571
133.509 1186 34.4384
133.627 1046 32.3419
133.744 1019 31.9218
133.862 955 30.9031
133.979 981 31.3209
134.097 1047 32.3574
134.214 1050 32.4037
134.332 1187 34.4529
134.449 1127 33.5708
134.567 1211 34.7994
134.684 1231 35.0856
134.802 1232 35.0999
134.919 1281 35.7911
135.037 1264 35.5528
135.154 1226 35.0143
135.272 1233 35.1141
135.389 1239 35.1994
135.507 1221 34.9428
135.624 1109 33.3017
135.742 1089 33
135.859 1019 31.9218
135.977 1057 32.5115
136.094 1114 33.3766
136.211 1162 34.0881
136.329 1252 35.3836
136.446 1248 35.327
136.564 1330 36.4692
136.681 1233 35.1141
136.798 1264 35.5528
136.915 1223 34.9714
137.033 1239 35.1994
137.15 1112 33.3467
137.267 1048 32.3728
137.384 969 31.1288
137.502 978 31.273
137.619 976 31.241
137.736 1062 32.5883
137.853 1111 33.3317
137.97 1149 33.8969
138.087 1096 33.1059
138.204 1223 34.9714
138.321 1201 34.6554
138.438 1285 35.8469
138.555 1301 36.0694
138.672 1309 36.1801
138.788 1169 34.1906
138.905 1087 32.9697
139.022 1100 33.1662
139.139 1002 31.6544
139.255 940 30.6594
139.372 872 29.5296
139.488 813 28.5132
139.605 835 28.8964
139.721 780 27.9285
139.838 763 27.6225
139.954 847 29.1033
140.071 734 27.0924
140.187 746 27.313
140.303 633 25.1595
140.419 611 24.7184
140.535 562 23.7065
140.652 546 23.3666
140.768 0 1
140.884 0 1
141 0 1
141.115 0 1
141.231 0 1
141.347 0 1
141.463 0 1
141.578 0 1
141.694 0 1
144.104 0 1
144.219 0 1
144.335 0 1
144.45 0 1
144.566 0 1
144.682 0 1
144.798 0 1
144.914 0 1
145.03 0 1
145.146 791 28.1247
145.262 900 30
145.378 894 29.8998
145.494 875 29.5804
145.61 935 30.5778
145.726 884 29.7321
145.842 831 28.8271
145.959 824 28.7054
146.075 765 27.6586
146.192 705 26.5518
146.308 734 27.0924
146.425 713 26.7021
146.541 754 27.4591
146.658 821 28.6531
146.774 798 28.2489
146.891 818 28.6007
147.008 790 28.1069
147.125 809 28.4429
147.241 832 28.8444
147.358 851 29.1719
147.475 869 29.4788
147.592 787 28.0535
147.709 780 27.9285
147.826 829 28.7924
147.943 759 27.55
148.06 759 27.55
148.177 773 27.8029
148.294 725 26.9258
148.411 780 27.9285
148.528 755 27.4773
148.645 770 27.7489
148.762 768 27.7128
148.88 841 29
148.997 892 29.8664
149.114 796 28.2135
149.231 839 28.9655
149.349 948 30.7896
149.466 811 28.4781
149.583 805 28.3725
149.701 815 28.5482
149.818 680 26.0768
149.935 657 25.632
150.053 705 26.5518
150.17 698 26.4197
150.287 755 27.4773
150.405 742 27.2397
150.522 746 27.313
150.64 829 28.7924
150.757 803 28.3373
150.875 764 27.6405
150.992 802 28.3196
151.11 845 29.0689
151.227 836 28.9137
151.344 792 28.1425
151.462 758 27.5318
151.579 747 27.3313
151.697 759 27.55
151.814 719 26.8142
151.932 738 27.1662
152.049 698 26.4197
152.167 714 26.7208
152.284 778 27.8927
152.402 828 28.775
152.519 807 28.4077
152.636 753 27.4408
152.754 831 28.8271
152.871 797 28.2312
152.989 782 27.9643
153.106 788 28.0713
153.223 722 26.8701
153.341 671 25.9037
153.458 651 25.5147
153.575 629 25.0799
153.693 650 25.4951
153.81 659 25.671
153.927 720 26.8328
154.044 722 26.8701
154.162 727 26.9629
154.279 783 27.9821
154.396 762 27.6043
154.513 762 27.6043
154.63 815 28.5482
154.747 799 28.2666
154.864 718 26.7955
154.981 722 26.8701
155.098 734 27.0924
155.215 688 26.2298
155.332 713 26.7021
155.449 613 24.7588
155.566 636 25.219
155.683 641 25.318
155.8 657 25.632
155.917 698 26.4197
156.033 679 26.0576
156.15 0 1
156.267 0 1
156.383 0 1
156.5 0 1
156.617 0 1
156.733 0 1
156.85 0 1
156.966 0 1
157.082 0 1
157.199 0 1
157.315 0 1
157.431 0 1
157.547 0 1
157.664 0 1
157.78 0 1
157.896 0 1
158.012 0 1
158.128 0 1
158.244 0 1
158.359 0 1
158.475 0 1
158.591 0 1
158.706 0 1
