
6.15755 0 1
6.2731 0 1
6.3887 0 1
6.50437 0 1
6.62009 0 1
6.73587 0 1
6.8517 0 1
6.96759 0 1
7.08353 0 1
7.19952 0 1
7.31557 0 1
7.43166 0 1
7.54781 0 1
7.664 0 1
7.78024 0 1
7.89653 0 1
8.01286 0 1
8.12924 0 1
8.24567 0 1
8.36213 0 1
8.47864 0 1
8.59519 0 1
8.71178 0 1
8.82841 0 1
8.94508 0 1
9.06179 0 1
9.17853 0 1
9.29531 0 1
9.41212 0 1
9.52897 0 1
9.64584 0 1
9.76276 0 1
9.8797 0 1
9.99667 0 1
10.1137 0 1
10.2307 0 1
10.3478 0 1
10.4648 0 1
10.5819 0 1
10.6991 0 1
10.8162 0 1
10.9334 0 1
11.0506 0 1
11.1678 0 1
11.285 0 1
11.4023 0 1
11.5196 0 1
11.6369 0 1
11.7542 0 1
11.8715 0 1
11.9888 0 1
12.1062 0 1
12.2235 0 1
12.3409 0 1
12.4582 0 1
12.5756 0 1
12.693 0 1
12.8104 0 1
12.9278 0 1
13.0452 0 1
13.1626 0 1
13.28 0 1
13.3974 0 1
13.5149 0 1
13.6323 0 1
13.7497 0 1
13.8671 0 1
13.9845 0 1
14.1019 0 1
14.2193 0 1
14.3367 0 1
14.4541 0 1
14.5714 0 1
14.6888 0 1
14.8062 0 1
14.9235 0 1
15.0408 0 0
15.1581 0 0
15.2755 0 0
15.3927 0 0
15.51 0 0
15.6273 0 0
15.7445 0 0
15.8617 0 0
15.9789 0 0
16.0961 0 0
16.2132 0 0
16.3304 0 0
16.4475 0 0
16.5646 0 0
16.6816 0 0
16.7986 0 0
16.9156 0 0
17.0326 0 0
17.1496 0 0
17.2665 0 0
17.3833 0 0
17.5002 0 0
17.617 0 0
17.7338 0 0
17.8505 0 0
17.9672 0 0
18.0839 0 0
18.2005 0 0
18.3171 0 0
18.4337 0 0
18.5502 0 0
18.6666 0 0
18.7831 0 0
18.8994 0 0
19.0158 0 0
19.1321 0 0
19.2483 0 0
19.3645 0 0
19.4806 0 0
19.5967 0 0
19.7128 0 0
19.8288 0 0
19.9447 0 0
20.0606 0 1
20.1764 0 1
20.2922 0 1
20.4079 0 1
20.5236 0 1
20.6392 0 1
20.7548 0 1
20.8702 0 1
23.3078 0 1
23.4233 0 1
23.539 0 1
23.6547 0 1
23.7704 0 1
23.8862 0 1
24.0021 0 1
24.118 0 1
24.234 0 1
24.35 0 1
24.4661 1293 35.9583
24.5822 1419 37.6696
24.6984 1352 36.7696
24.8146 1369 37
24.9309 1423 37.7227
25.0472 1355 36.8103
25.1636 1468 38.3145
25.28 1474 38.3927
25.3965 1457 38.1707
25.513 1457 38.1707
25.6296 1502 38.7556
25.7462 1496 38.6782
25.8628 1491 38.6135
25.9795 1408 37.5233
26.0962 1546 39.3192
26.213 1496 38.6782
26.3298 1470 38.3406
26.4466 1496 38.6782
26.5635 1426 37.7624
26.6804 1398 37.3898
26.7973 1424 37.7359
26.9143 1319 36.318
27.0313 1314 36.2491
27.1483 1271 35.6511
27.2653 1305 36.1248
27.3824 1327 36.428
27.4996 1354 36.7967
27.6167 1347 36.7015
27.7339 1287 35.8748
27.8511 1297 36.0139
27.9683 1257 35.4542
28.0855 1240 35.2136
28.2028 1218 34.8999
28.3201 1202 34.6699
28.4374 1268 35.609
28.5547 1277 35.7351
28.6721 1329 36.4555
28.7894 1358 36.8511
28.9068 1353 36.7831
29.0242 1374 37.0675
29.1416 1344 36.6606
29.259 1384 37.2022
29.3764 1475 38.4057
29.4939 1356 36.8239
29.6113 1340 36.606
29.7288 1366 36.9594
29.8463 1361 36.8917
29.9638 1379 37.1349
30.0812 1312 36.2215
30.1987 1344 36.6606
30.3162 1280 35.7771
30.4337 1198 34.6121
30.5512 1185 34.4238
30.6687 1203 34.6843
30.7862 1216 34.8712
30.9037 1190 34.4964
31.0212 1255 35.426
31.1387 1292 35.9444
31.2562 1257 35.4542
31.3737 1272 35.6651
31.4912 1216 34.8712
31.6087 1234 35.1283
31.7262 1249 35.3412
31.8436 1165 34.1321
31.9611 1273 35.6791
32.0785 1302 36.0832
32.1959 1292 35.9444
32.3134 1313 36.2353
32.4308 1345 36.6742
32.5482 1307 36.1525
32.6655 1336 36.5513
32.7829 1391 37.2961
32.9002 1384 37.2022
33.0176 1392 37.3095
33.1349 1405 37.4833
33.2522 1342 36.6333
33.3694 1345 36.6742
33.4867 1345 36.6742
33.6039 1291 35.9305
33.7211 1328 36.4417
33.8383 1342 36.6333
33.9554 1314 36.2491
34.0725 1245 35.2846
34.1896 1179 34.3366
34.3067 1165 34.1321
34.4237 1084 32.9242
34.5407 1160 34.0588
34.6577 1188 34.4674
34.7746 1215 34.8569
34.8915 1205 34.7131
35.0084 1170 34.2053
35.1252 1159 34.0441
35.242 1115 33.3916
35.3587 1140 33.7639
35.4755 1143 33.8083
35.5921 1201 34.6554
35.7088 1267 35.5949
35.8254 1264 35.5528
35.9419 1283 35.819
36.0584 1269 35.623
36.1749 1237 35.171
36.2913 1240 35.2136
36.4077 1274 35.6931
36.524 1263 35.5387
36.6403 1289 35.9026
36.7565 1254 35.4119
36.8727 1260 35.4965
36.9889 1281 35.7911
37.1049 1187 34.4529
37.221 0 1
37.3369 0 1
37.4529 0 1
37.5687 0 1
37.6845 0 1
37.8003 0 1
37.916 0 1
38.0316 0 1
38.1472 0 1
40.5851 0 1
40.7008 0 1
40.8164 0 1
40.9322 0 1
41.048 0 1
41.1639 0 1
41.2798 0 1
41.3958 0 1
41.5118 0 1
41.6279 0 1
41.744 1021 31.9531
41.8602 1046 32.3419
41.9765 1065 32.6343
42.0928 1079 32.8481
42.2091 1092 33.0454
42.3255 1036 32.187
42.4419 1043 32.2955
42.5584 1071 32.7261
42.675 1015 31.8591
42.7915 1074 32.7719
42.9081 1041 32.2645
43.0248 974 31.209
43.1415 945 30.7409
43.2582 946 30.7571
43.375 950 30.8221
43.4918 1027 32.0468
43.6087 999 31.607
43.7256 1017 31.8904
43.8425 983 31.3528
43.9595 974 31.209
44.0765 931 30.5123
44.1935 986 31.4006
44.3106 978 31.273
44.4277 994 31.5278
44.5448 919 30.315
44.6619 1023 31.9844
44.7791 946 30.7571
44.8963 1026 32.0312
45.0136 978 31.273
45.1308 901 30.0167
45.2481 970 31.1448
45.3654 978 31.273
45.4827 999 31.607
45.6001 886 29.7658
45.7174 912 30.1993
45.8348 939 30.6431
45.9522 928 30.4631
46.0697 864 29.3939
46.1871 886 29.7658
46.3046 846 29.0861
46.422 892 29.8664
46.5395 805 28.3725
46.657 766 27.6767
46.7745 721 26.8514
46.892 720 26.8328
47.0096 735 27.1109
47.1271 778 27.8927
47.2446 727 26.9629
47.3622 751 27.4044
47.4797 709 26.6271
47.5973 708 26.6083
47.7149 743 27.258
47.8324 711 26.6646
47.95 691 26.2869
48.0675 736 27.1293
48.1851 720 26.8328
48.3027 731 27.037
48.4202 738 27.1662
48.5378 735 27.1109
48.6554 728 26.9815
48.7729 766 27.6767
48.8904 713 26.7021
49.008 745 27.2947
49.1255 695 26.3629
49.243 757 27.5136
49.3605 701 26.4764
49.478 737 27.1477
49.5955 746 27.313
49.713 776 27.8568
49.8304 790 28.1069
49.9479 742 27.2397
50.0653 706 26.5707
50.1827 683 26.1343
50.3001 688 26.2298
50.4175 714 26.7208
50.5348 639 25.2784
50.6521 701 26.4764
50.7694 736 27.1293
50.8867 768 27.7128
51.004 725 26.9258
51.1212 774 27.8209
51.2384 804 28.3549
51.3556 839 28.9655
51.4727 884 29.7321
51.5899 867 29.4449
51.707 867 29.4449
51.824 956 30.9192
51.9411 892 29.8664
52.0581 909 30.1496
52.175 964 31.0483
52.2919 922 30.3645
52.4088 957 30.9354
52.5257 970 31.1448
52.6425 949 30.8058
52.7593 926 30.4302
52.876 977 31.257
52.9927 976 31.241
53.1094 962 31.0161
53.226 979 31.289
53.3426 975 31.225
53.4591 958 30.9516
53.5756 1027 32.0468
53.692 975 31.225
53.8084 966 31.0805
53.9248 872 29.5296
54.0411 799 28.2666
54.1573 895 29.9166
54.2735 0 1
54.3896 0 1
54.5057 0 1
54.6217 0 1
54.7377 0 1
54.8537 0 1
54.9695 0 1
55.0853 0 1
55.2011 0 1
55.3168 0 1
55.4324 0 1
57.824 0 1
57.9396 0 1
58.0553 0 1
58.1711 0 1
58.2869 0 1
58.4028 0 1
58.5187 0 1
58.6347 0 1
58.7508 0 1
58.8669 0 1
58.983 1009 31.7648
59.0992 1008 31.749
59.2155 981 31.3209
59.3318 941 30.6757
59.4482 963 31.0322
59.5646 1034 32.1559
59.681 1006 31.7175
59.7975 1049 32.3883
59.9141 1030 32.0936
60.0306 1066 32.6497
60.1473 1074 32.7719
60.2639 1050 32.4037
60.3807 1109 33.3017
60.4974 1100 33.1662
60.6142 1069 32.6956
60.731 1079 32.8481
60.8479 1050 32.4037
60.9648 1073 32.7567
61.0818 972 31.1769
61.1987 993 31.5119
61.3158 1036 32.187
61.4328 1035 32.1714
61.5499 1008 31.749
61.667 1029 32.078
61.7841 1003 31.6702
61.9013 993 31.5119
62.0185 1031 32.1092
62.1357 1026 32.0312
62.253 979 31.289
62.3702 980 31.305
62.4875 946 30.7571
62.6049 834 28.8791
62.7222 849 29.1376
62.8396 842 29.0172
62.9569 892 29.8664
63.0743 935 30.5778
63.1918 855 29.2404
63.3092 860 29.3258
63.4267 964 31.0483
63.5441 899 29.9833
63.6616 950 30.8221
63.7791 936 30.5941
63.8966 986 31.4006
64.0142 983 31.3528
64.1317 982 31.3369
64.2492 925 30.4138
64.3668 941 30.6757
64.4843 869 29.4788
64.6019 906 30.0998
64.7195 902 30.0333
64.837 861 29.3428
64.9546 842 29.0172
65.0722 844 29.0517
65.1898 863 29.3769
65.3074 881 29.6816
65.4249 882 29.6985
65.5425 860 29.3258
65.6601 865 29.4109
65.7777 872 29.5296
65.8952 819 28.6182
66.0128 796 28.2135
66.1304 827 28.7576
66.2479 716 26.7582
66.3655 696 26.3818
66.483 748 27.3496
66.6005 743 27.258
66.718 726 26.9444
66.8355 805 28.3725
66.953 762 27.6043
67.0705 884 29.7321
67.1879 854 29.2233
67.3054 799 28.2666
67.4228 844 29.0517
67.5402 845 29.0689
67.6576 839 28.9655
67.7749 812 28.4956
67.8923 811 28.4781
68.0096 830 28.8097
68.1269 783 27.9821
68.2442 799 28.2666
68.3614 782 27.9643
68.4787 732 27.0555
68.5958 771 27.7669
68.713 771 27.7669
68.8302 761 27.5862
68.9473 807 28.4077
69.0643 799 28.2666
69.1814 808 28.4253
69.2984 860 29.3258
69.4154 811 28.4781
69.5323 818 28.6007
69.6492 789 28.0891
69.7661 791 28.1247
69.8829 777 27.8747
69.9997 725 26.9258
70.1165 684 26.1534
70.2332 733 27.074
70.3499 721 26.8514
70.4665 683 26.1343
70.5831 757 27.5136
70.6996 808 28.4253
70.8161 755 27.4773
70.9326 744 27.2764
71.049 766 27.6767
71.1653 739 27.1846
71.2817 687 26.2107
71.3979 734 27.0924
71.5141 639 25.2784
71.6303 709 26.6271
71.7464 654 25.5734
71.8624 0 1
71.9784 0 1
72.0944 0 1
72.2102 0 1
72.3261 0 1
72.4418 0 1
72.5575 0 1
72.6732 0 1
75.1054 0 1
75.2209 0 1
75.3365 0 1
75.4521 0 1
75.5678 0 1
75.6835 0 1
75.7993 0 1
75.9151 0 1
76.031 0 1
76.147 546 23.3666
76.263 573 23.9374
76.3791 583 24.1454
76.4952 557 23.6008
76.6113 558 23.622
76.7276 564 23.7487
76.8438 558 23.622
76.9601 536 23.1517
77.0765 503 22.4277
77.1929 558 23.622
77.3093 577 24.0208
77.4258 542 23.2809
77.5423 498 22.3159
77.6589 503 22.4277
77.7755 577 24.0208
77.8921 530 23.0217
78.0088 487 22.0681
78.1256 532 23.0651
78.2423 493 22.2036
78.3591 507 22.5167
78.4759 527 22.9565
78.5928 456 21.3542
78.7097 472 21.7256
78.8266 467 21.6102
78.9436 428 20.6882
79.0606 406 20.1494
79.1776 326 18.0555
79.2946 321 17.9165
79.4117 369 19.2094
79.5288 416 20.3961
79.6459 423 20.567
79.7631 412 20.2978
79.8802 375 19.3649
79.9974 443 21.0476
80.1147 343 18.5203
80.2319 320 17.8885
80.3491 362 19.0263
80.4664 354 18.8149
80.5837 358 18.9209
80.701 318 17.8326
80.8183 336 18.3303
80.9357 326 18.0555
81.053 330 18.1659
81.1704 311 17.6352
81.2877 291 17.0587
81.4051 303 17.4069
81.5225 296 17.2047
81.6399 297 17.2337
81.7573 263 16.2173
81.8747 249 15.7797
81.9922 265 16.2788
82.1096 225 15
82.227 245 15.6525
82.3444 220 14.8324
82.4619 238 15.4272
82.5793 229 15.1327
82.6967 222 14.8997
82.8142 189 13.7477
82.9316 155 12.4499
83.049 180 13.4164
83.1664 170 13.0384
83.2838 194 13.9284
83.4012 157 12.53
83.5186 148 12.1655
83.636 145 12.0416
83.7534 139 11.7898
83.8708 141 11.8743
83.9881 155 12.4499
84.1055 114 10.6771
84.2228 125 11.1803
84.3401 111 10.5357
84.4575 144 12
84.5747 127 11.2694
84.692 123 11.0905
84.8093 121 11
84.9265 121 11
85.0437 102 10.0995
85.1609 106 10.2956
85.2781 93 9.64365
85.3952 89 9.43398
85.5123 85 9.21954
85.6294 107 10.3441
85.7465 101 10.0499
85.8636 102 10.0995
85.9806 99 9.94987
86.0976 88 9.38083
86.2145 67 8.18535
86.3315 86 9.27362
86.4484 99 9.94987
86.5652 100 10
86.682 130 11.4018
86.7988 101 10.0499
86.9156 121 11
87.0323 125 11.1803
87.149 157 12.53
87.2657 139 11.7898
87.3823 147 12.1244
87.4988 147 12.1244
87.6154 192 13.8564
87.7318 179 13.3791
87.8483 192 13.8564
87.9647 166 12.8841
88.081 191 13.8203
88.1973 214 14.6287
88.3136 217 14.7309
88.4298 230 15.1658
88.546 216 14.6969
88.6621 209 14.4568
88.7781 287 16.9411
88.8942 0 1
89.0101 0 1
89.126 0 1
89.2419 0 1
89.3577 0 1
89.4734 0 1
89.5891 0 1
89.7047 0 1
89.8203 0 1
89.9358 0 1
92.3269 0 1
92.4424 0 1
92.558 0 1
92.6736 0 1
92.7893 0 1
92.905 0 1
93.0208 0 1
93.1366 0 1
93.2525 0 1
93.3685 0 1
93.4845 0 1
93.6005 381 19.5192
93.7167 404 20.0998
93.8328 418 20.445
93.949 388 19.6977
94.0653 419 20.4695
94.1816 385 19.6214
94.2979 356 18.868
94.4143 394 19.8494
94.5307 348 18.6548
94.6472 350 18.7083
94.7637 310 17.6068
94.8803 319 17.8606
94.9969 323 17.9722
95.1135 333 18.2483
95.2302 323 17.9722
95.3469 266 16.3095
95.4637 225 15
95.5805 255 15.9687
95.6973 282 16.7929
95.8142 312 17.6635
95.9311 350 18.7083
96.048 355 18.8414
96.1649 350 18.7083
96.2819 384 19.5959
96.3989 416 20.3961
96.516 373 19.3132
96.633 423 20.567
96.7501 400 20
96.8673 441 21
96.9844 431 20.7605
97.1016 470 21.6795
97.2188 488 22.0907
97.336 465 21.5639
97.4532 453 21.2838
97.5704 531 23.0434
97.6877 507 22.5167
97.805 562 23.7065
97.9223 539 23.2164
98.0396 546 23.3666
98.1569 544 23.3238
98.2743 528 22.9783
98.3916 546 23.3666
98.509 535 23.1301
98.6264 604 24.5764
98.7438 596 24.4131
98.8612 609 24.6779
98.9786 555 23.5584
99.096 422 20.5426
99.2134 440 20.9762
99.3308 577 24.0208
99.4482 653 25.5539
99.5656 699 26.4386
99.6831 690 26.2679
99.8005 705 26.5518
99.9179 712 26.6833
100.035 689 26.2488
100.153 718 26.7955
100.27 793 28.1603
100.388 733 27.074
100.505 684 26.1534
100.622 697 26.4008
100.74 788 28.0713
100.857 790 28.1069
100.975 796 28.2135
101.092 789 28.0891
101.209 744 27.2764
101.327 804 28.3549
101.444 793 28.1603
101.561 818 28.6007
101.679 802 28.3196
101.796 816 28.5657
101.913 806 28.3901
102.03 864 29.3939
102.148 786 28.0357
102.265 839 28.9655
102.382 790 28.1069
102.499 746 27.313
102.616 625 25
102.733 540 23.2379
102.851 663 25.7488
102.968 802 28.3196
103.085 849 29.1376
103.202 857 29.2746
103.319 870 29.4958
103.436 848 29.1204
103.552 828 28.775
103.669 801 28.3019
103.786 870 29.4958
103.903 864 29.3939
104.02 851 29.1719
104.137 922 30.3645
104.253 888 29.7993
104.37 881 29.6816
104.487 842 29.0172
104.603 964 31.0483
104.72 918 30.2985
104.836 897 29.95
104.953 891 29.8496
105.069 863 29.3769
105.186 890 29.8329
105.302 939 30.6431
105.418 889 29.8161
105.535 888 29.7993
105.651 905 30.0832
105.767 870 29.4958
105.883 823 28.688
105.999 759 27.55
106.115 0 1
106.231 0 1
106.347 0 1
106.463 0 1
106.579 0 1
106.694 0 1
106.81 0 1
106.926 0 1
107.041 0 1
107.157 0 1
109.576 0 1
109.692 0 1
109.807 0 1
109.923 0 1
110.039 0 1
110.155 0 1
110.27 0 1
110.386 0 1
110.502 0 1
110.618 673 25.9422
110.735 670 25.8844
110.851 693 26.3249
110.967 678 26.0384
111.083 638 25.2587
111.199 575 23.9792
111.316 484 22
111.432 555 23.5584
111.549 650 25.4951
111.665 706 26.5707
111.782 638 25.2587
111.898 663 25.7488
112.015 644 25.3772
112.132 607 24.6374
112.248 667 25.8263
112.365 577 24.0208
112.482 607 24.6374
112.599 589 24.2693
112.716 593 24.3516
112.832 568 23.8328
112.949 545 23.3452
113.066 601 24.5153
113.183 515 22.6936
113.3 591 24.3105
113.417 547 23.388
113.534 531 23.0434
113.652 530 23.0217
113.769 559 23.6432
113.886 564 23.7487
114.003 536 23.1517
114.12 474 21.7715
114.238 489 22.1133
114.355 472 21.7256
114.472 452 21.2603
114.589 465 21.5639
114.707 473 21.7486
114.824 419 20.4695
114.942 428 20.6882
115.059 427 20.664
115.176 453 21.2838
115.294 462 21.4942
115.411 483 21.9773
115.529 485 22.0227
115.646 487 22.0681
115.764 539 23.2164
115.881 490 22.1359
115.999 486 22.0454
116.116 492 22.1811
116.234 473 21.7486
116.351 470 21.6795
116.469 477 21.8403
116.586 492 22.1811
116.704 508 22.5389
116.821 466 21.587
116.939 486 22.0454
117.056 469 21.6564
117.174 498 22.3159
117.291 489 22.1133
117.409 504 22.4499
117.526 460 21.4476
117.644 497 22.2935
117.761 459 21.4243
117.879 404 20.0998
117.996 405 20.1246
118.114 385 19.6214
118.231 420 20.4939
118.349 423 20.567
118.466 462 21.4942
118.584 457 21.3776
118.701 460 21.4476
118.819 496 22.2711
118.936 476 21.8174
119.053 509 22.561
119.171 484 22
119.288 504 22.4499
119.405 466 21.587
119.523 493 22.2036
119.64 511 22.6053
119.757 532 23.0651
119.875 507 22.5167
119.992 495 22.2486
120.109 509 22.561
120.226 474 21.7715
120.343 536 23.1517
120.46 505 22.4722
120.578 481 21.9317
120.695 560 23.6643
120.812 551 23.4734
120.929 483 21.9773
121.046 580 24.0832
121.163 485 22.0227
121.279 526 22.9347
121.396 522 22.8473
121.513 462 21.4942
121.63 452 21.2603
121.747 377 19.4165
121.863 393 19.8242
121.98 443 21.0476
122.097 480 21.9089
122.213 532 23.0651
122.33 546 23.3666
122.446 498 22.3159
122.563 509 22.561
122.679 553 23.516
122.795 564 23.7487
122.912 536 23.1517
123.028 563 23.7276
123.144 546 23.3666
123.26 541 23.2594
123.377 0 1
123.493 0 1
123.609 0 1
123.725 0 1
123.84 0 1
123.956 0 1
124.072 0 1
124.188 0 1
124.303 0 1
124.419 0 1
126.852 0 1
126.968 0 1
127.083 0 1
127.199 0 1
127.315 0 1
127.431 0 1
127.547 0 1
127.663 0 1
127.779 0 1
127.895 0 1
128.011 0 1
128.127 0 1
128.243 0 1
128.359 670 25.8844
128.476 687 26.2107
128.592 686 26.1916
128.708 742 27.2397
128.825 723 26.8887
128.941 794 28.178
129.058 725 26.9258
129.174 732 27.0555
129.291 776 27.8568
129.408 716 26.7582
129.524 700 26.4575
129.641 723 26.8887
129.758 706 26.5707
129.875 755 27.4773
129.992 733 27.074
130.108 742 27.2397
130.225 659 25.671
130.342 668 25.8457
130.459 592 24.3311
130.576 574 23.9583
130.693 449 21.1896
130.81 492 22.1811
130.928 484 22
131.045 618 24.8596
131.162 686 26.1916
131.279 720 26.8328
131.396 723 26.8887
131.513 710 26.6458
131.631 766 27.6767
131.748 802 28.3196
131.865 733 27.074
131.983 738 27.1662
132.1 759 27.55
132.217 771 27.7669
132.335 759 27.55
132.452 781 27.9464
132.57 799 28.2666
132.687 767 27.6948
132.804 787 28.0535
132.922 750 27.3861
133.039 766 27.6767
133.157 773 27.8029
133.274 787 28.0535
133.392 809 28.4429
133.509 756 27.4955
133.627 794 28.178
133.744 709 26.6271
133.862 727 26.9629
133.979 647 25.4362
134.097 627 25.04
134.214 605 24.5967
134.332 549 23.4307
134.449 552 23.4947
134.567 644 25.3772
134.684 731 27.037
134.802 743 27.258
134.919 796 28.2135
135.037 821 28.6531
135.154 814 28.5307
135.272 829 28.7924
135.389 797 28.2312
135.507 873 29.5466
135.624 840 28.9828
135.742 848 29.1204
135.859 866 29.4279
135.977 870 29.4958
136.094 813 28.5132
136.211 884 29.7321
136.329 828 28.775
136.446 873 29.5466
136.564 834 28.8791
136.681 914 30.2324
136.798 828 28.775
136.915 883 29.7153
137.033 848 29.1204
137.15 883 29.7153
137.267 872 29.5296
137.384 823 28.688
137.502 746 27.313
137.619 751 27.4044
137.736 668 25.8457
137.853 637 25.2389
137.97 675 25.9808
138.087 704 26.533
138.204 681 26.096
138.321 729 27
138.438 812 28.4956
138.555 871 29.5127
138.672 910 30.1662
138.788 886 29.7658
138.905 988 31.4325
139.022 964 31.0483
139.139 922 30.3645
139.255 934 30.5614
139.372 910 30.1662
139.488 948 30.7896
139.605 972 31.1769
139.721 982 31.3369
139.838 999 31.607
139.954 929 30.4795
140.071 891 29.8496
140.187 939 30.6431
140.303 980 31.305
140.419 951 30.8383
140.535 917 30.282
140.652 950 30.8221
140.768 0 1
140.884 0 1
141 0 1
141.115 0 1
141.231 0 1
141.347 0 1
141.463 0 1
141.578 0 1
141.694 0 1
144.104 0 1
144.219 0 1
144.335 0 1
144.45 0 1
144.566 0 1
144.682 0 1
144.798 0 1
144.914 0 1
145.03 0 1
145.146 876 29.5973
145.262 903 30.05
145.378 873 29.5466
145.494 879 29.6479
145.61 913 30.2159
145.726 931 30.5123
145.842 853 29.2062
145.959 851 29.1719
146.075 804 28.3549
146.192 794 28.178
146.308 722 26.8701
146.425 709 26.6271
146.541 660 25.6905
146.658 687 26.2107
146.774 737 27.1477
146.891 757 27.5136
147.008 794 28.178
147.125 762 27.6043
147.241 836 28.9137
147.358 854 29.2233
147.475 905 30.0832
147.592 964 31.0483
147.709 942 30.692
147.826 875 29.5804
147.943 881 29.6816
148.06 894 29.8998
148.177 896 29.9333
148.294 911 30.1828
148.411 882 29.6985
148.528 833 28.8617
148.645 906 30.0998
148.762 870 29.4958
148.88 933 30.545
148.997 796 28.2135
149.114 889 29.8161
149.231 852 29.189
149.349 892 29.8664
149.466 874 29.5635
149.583 808 28.4253
149.701 803 28.3373
149.818 730 27.0185
149.935 819 28.6182
150.053 744 27.2764
150.17 758 27.5318
150.287 724 26.9072
150.405 726 26.9444
150.522 767 27.6948
150.64 758 27.5318
150.757 794 28.178
150.875 872 29.5296
150.992 858 29.2916
151.11 898 29.9666
151.227 910 30.1662
151.344 871 29.5127
151.462 924 30.3974
151.579 926 30.4302
151.697 918 30.2985
151.814 899 29.9833
151.932 828 28.775
152.049 893 29.8831
152.167 971 31.1609
152.284 908 30.133
152.402 931 30.5123
152.519 867 29.4449
152.636 930 30.4959
152.754 940 30.6594
152.871 966 31.0805
152.989 866 29.4279
153.106 868 29.4618
153.223 855 29.2404
153.341 830 28.8097
153.458 752 27.4226
153.575 817 28.5832
153.693 779 27.9106
153.81 750 27.3861
153.927 777 27.8747
154.044 852 29.189
154.162 821 28.6531
154.279 875 29.5804
154.396 897 29.95
154.513 952 30.8545
154.63 955 30.9031
154.747 963 31.0322
154.864 1019 31.9218
154.981 989 31.4484
155.098 995 31.5436
155.215 969 31.1288
155.332 974 31.209
155.449 975 31.225
155.566 1007 31.7333
155.683 938 30.6268
155.8 949 30.8058
155.917 993 31.5119
156.033 930 30.4959
156.15 0 1
156.267 0 1
156.383 0 1
156.5 0 1
156.617 0 1
156.733 0 1
156.85 0 1
156.966 0 1
157.082 0 1
157.199 0 1
157.315 0 1
157.431 0 1
157.547 0 1
157.664 0 1
157.78 0 1
157.896 0 1
158.012 0 1
158.128 0 1
158.244 0 1
158.359 0 1
158.475 0 1
158.591 0 1
158.706 0 1
