
6.15755 0 1
6.2731 0 1
6.3887 0 1
6.50437 0 1
6.62009 0 1
6.73587 0 1
6.8517 0 1
6.96759 0 1
7.08353 0 1
7.19952 0 1
7.31557 0 1
7.43166 0 1
7.54781 0 1
7.664 0 1
7.78024 0 1
7.89653 0 1
8.01286 0 1
8.12924 0 1
8.24567 0 1
8.36213 0 1
8.47864 0 1
8.59519 0 1
8.71178 0 1
8.82841 0 1
8.94508 0 1
9.06179 0 1
9.17853 0 1
9.29531 0 1
9.41212 0 1
9.52897 0 1
9.64584 0 1
9.76276 0 1
9.8797 0 1
9.99667 0 1
10.1137 0 1
10.2307 0 1
10.3478 0 1
10.4648 0 1
10.5819 0 1
10.6991 0 1
10.8162 0 1
10.9334 0 1
11.0506 0 1
11.1678 0 1
11.285 0 1
11.4023 0 1
11.5196 0 1
11.6369 0 1
11.7542 0 1
11.8715 0 1
11.9888 0 1
12.1062 0 1
12.2235 0 1
12.3409 0 1
12.4582 0 1
12.5756 0 1
12.693 0 1
12.8104 0 1
12.9278 0 1
13.0452 0 1
13.1626 0 1
13.28 0 1
13.3974 0 1
13.5149 0 1
13.6323 0 1
13.7497 0 1
13.8671 0 1
13.9845 0 1
14.1019 0 1
14.2193 0 1
14.3367 0 1
14.4541 0 1
14.5714 0 1
14.6888 0 1
14.8062 0 1
14.9235 0 1
15.0408 987 31.4166
15.1581 993 31.5119
15.2755 1060 32.5576
15.3927 1047 32.3574
15.51 1037 32.2025
15.6273 1052 32.4345
15.7445 1068 32.6803
15.8617 998 31.5911
15.9789 971 31.1609
16.0961 1018 31.9061
16.2132 958 30.9516
16.3304 935 30.5778
16.4475 876 29.5973
16.5646 924 30.3974
16.6816 942 30.692
16.7986 949 30.8058
16.9156 894 29.8998
17.0326 880 29.6648
17.1496 918 30.2985
17.2665 888 29.7993
17.3833 869 29.4788
17.5002 829 28.7924
17.617 921 30.348
17.7338 912 30.1993
17.8505 902 30.0333
17.9672 863 29.3769
18.0839 874 29.5635
18.2005 890 29.8329
18.3171 876 29.5973
18.4337 885 29.7489
18.5502 891 29.8496
18.6666 879 29.6479
18.7831 922 30.3645
18.8994 880 29.6648
19.0158 820 28.6356
19.1321 763 27.6225
19.2483 762 27.6043
19.3645 787 28.0535
19.4806 746 27.313
19.5967 734 27.0924
19.7128 681 26.096
19.8288 602 24.5357
19.9447 572 23.9165
20.0606 0 1
20.1764 0 1
20.2922 0 1
20.4079 0 1
20.5236 0 1
20.6392 0 1
20.7548 0 1
20.8702 0 1
23.3078 0 1
23.4233 0 1
23.539 0 1
23.6547 0 1
23.7704 0 1
23.8862 0 1
24.0021 0 1
24.118 0 1
24.234 0 1
24.35 0 1
24.4661 362 19.0263
24.5822 414 20.347
24.6984 452 21.2603
24.8146 505 22.4722
24.9309 594 24.3721
25.0472 678 26.0384
25.1636 733 27.074
25.28 813 28.5132
25.3965 783 27.9821
25.513 872 29.5296
25.6296 947 30.7734
25.7462 941 30.6757
25.8628 988 31.4325
25.9795 935 30.5778
26.0962 954 30.8869
26.213 892 29.8664
26.3298 878 29.6311
26.4466 830 28.8097
26.5635 765 27.6586
26.6804 771 27.7669
26.7973 815 28.5482
26.9143 798 28.2489
27.0313 799 28.2666
27.1483 781 27.9464
27.2653 782 27.9643
27.3824 810 28.4605
27.4996 828 28.775
27.6167 849 29.1376
27.7339 788 28.0713
27.8511 700 26.4575
27.9683 739 27.1846
28.0855 774 27.8209
28.2028 820 28.6356
28.3201 844 29.0517
28.4374 815 28.5482
28.5547 764 27.6405
28.6721 751 27.4044
28.7894 819 28.6182
28.9068 773 27.8029
29.0242 786 28.0357
29.1416 785 28.0179
29.259 777 27.8747
29.3764 810 28.4605
29.4939 787 28.0535
29.6113 818 28.6007
29.7288 793 28.1603
29.8463 830 28.8097
29.9638 732 27.0555
30.0812 743 27.258
30.1987 752 27.4226
30.3162 738 27.1662
30.4337 776 27.8568
30.5512 793 28.1603
30.6687 749 27.3679
30.7862 766 27.6767
30.9037 772 27.7849
31.0212 785 28.0179
31.1387 813 28.5132
31.2562 793 28.1603
31.3737 790 28.1069
31.4912 812 28.4956
31.6087 816 28.5657
31.7262 783 27.9821
31.8436 756 27.4955
31.9611 738 27.1662
32.0785 728 26.9815
32.1959 688 26.2298
32.3134 683 26.1343
32.4308 705 26.5518
32.5482 705 26.5518
32.6655 738 27.1662
32.7829 739 27.1846
32.9002 660 25.6905
33.0176 737 27.1477
33.1349 700 26.4575
33.2522 731 27.037
33.3694 713 26.7021
33.4867 752 27.4226
33.6039 743 27.258
33.7211 743 27.258
33.8383 729 27
33.9554 729 27
34.0725 759 27.55
34.1896 753 27.4408
34.3067 659 25.671
34.4237 718 26.7955
34.5407 729 27
34.6577 759 27.55
34.7746 740 27.2029
34.8915 723 26.8887
35.0084 691 26.2869
35.1252 756 27.4955
35.242 754 27.4591
35.3587 727 26.9629
35.4755 761 27.5862
35.5921 653 25.5539
35.7088 667 25.8263
35.8254 673 25.9422
35.9419 671 25.9037
36.0584 715 26.7395
36.1749 703 26.5141
36.2913 694 26.3439
36.4077 694 26.3439
36.524 675 25.9808
36.6403 634 25.1794
36.7565 645 25.3969
36.8727 589 24.2693
36.9889 568 23.8328
37.1049 478 21.8632
37.221 0 1
37.3369 0 1
37.4529 0 1
37.5687 0 1
37.6845 0 1
37.8003 0 1
37.916 0 1
38.0316 0 1
38.1472 0 1
40.5851 0 1
40.7008 0 1
40.8164 0 1
40.9322 0 1
41.048 0 1
41.1639 0 1
41.2798 0 1
41.3958 0 1
41.5118 0 1
41.6279 0 1
41.744 281 16.7631
41.8602 340 18.4391
41.9765 407 20.1742
42.0928 462 21.4942
42.2091 532 23.0651
42.3255 517 22.7376
42.4419 567 23.8118
42.5584 571 23.8956
42.675 545 23.3452
42.7915 555 23.5584
42.9081 599 24.4745
43.0248 529 23
43.1415 511 22.6053
43.2582 564 23.7487
43.375 604 24.5764
43.4918 581 24.1039
43.6087 571 23.8956
43.7256 572 23.9165
43.8425 601 24.5153
43.9595 606 24.6171
44.0765 579 24.0624
44.1935 560 23.6643
44.3106 607 24.6374
44.4277 554 23.5372
44.5448 523 22.8692
44.6619 524 22.891
44.7791 529 23
44.8963 550 23.4521
45.0136 542 23.2809
45.1308 548 23.4094
45.2481 586 24.2074
45.3654 543 23.3024
45.4827 620 24.8998
45.6001 557 23.6008
45.7174 610 24.6982
45.8348 559 23.6432
45.9522 607 24.6374
46.0697 592 24.3311
46.1871 556 23.5797
46.3046 577 24.0208
46.422 523 22.8692
46.5395 533 23.0868
46.657 506 22.4944
46.7745 455 21.3307
46.892 536 23.1517
47.0096 578 24.0416
47.1271 573 23.9374
47.2446 545 23.3452
47.3622 550 23.4521
47.4797 565 23.7697
47.5973 554 23.5372
47.7149 543 23.3024
47.8324 529 23
47.95 513 22.6495
48.0675 534 23.1084
48.1851 464 21.5407
48.3027 503 22.4277
48.4202 486 22.0454
48.5378 532 23.0651
48.6554 574 23.9583
48.7729 535 23.1301
48.8904 557 23.6008
49.008 539 23.2164
49.1255 544 23.3238
49.243 568 23.8328
49.3605 549 23.4307
49.478 537 23.1733
49.5955 536 23.1517
49.713 540 23.2379
49.8304 539 23.2164
49.9479 499 22.3383
50.0653 488 22.0907
50.1827 456 21.3542
50.3001 496 22.2711
50.4175 530 23.0217
50.5348 508 22.5389
50.6521 532 23.0651
50.7694 529 23
50.8867 505 22.4722
51.004 542 23.2809
51.1212 550 23.4521
51.2384 543 23.3024
51.3556 547 23.388
51.4727 570 23.8747
51.5899 464 21.5407
51.707 479 21.8861
51.824 481 21.9317
51.9411 494 22.2261
52.0581 511 22.6053
52.175 507 22.5167
52.2919 503 22.4277
52.4088 469 21.6564
52.5257 530 23.0217
52.6425 617 24.8395
52.7593 517 22.7376
52.876 541 23.2594
52.9927 513 22.6495
53.1094 516 22.7156
53.226 591 24.3105
53.3426 561 23.6854
53.4591 529 23
53.5756 459 21.4243
53.692 417 20.4206
53.8084 370 19.2354
53.9248 350 18.7083
54.0411 390 19.7484
54.1573 374 19.3391
54.2735 0 1
54.3896 0 1
54.5057 0 1
54.6217 0 1
54.7377 0 1
54.8537 0 1
54.9695 0 1
55.0853 0 1
55.2011 0 1
55.3168 0 1
55.4324 0 1
57.824 0 1
57.9396 0 1
58.0553 0 1
58.1711 0 1
58.2869 0 1
58.4028 0 1
58.5187 0 1
58.6347 0 1
58.7508 0 1
58.8669 0 1
58.983 595 24.3926
59.0992 755 27.4773
59.2155 901 30.0167
59.3318 1057 32.5115
59.4482 1220 34.9285
59.5646 1224 34.9857
59.681 1268 35.609
59.7975 1380 37.1484
59.9141 1399 37.4032
60.0306 1600 40
60.1473 1559 39.4842
60.2639 1378 37.1214
60.3807 1359 36.8646
60.4974 1250 35.3553
60.6142 1451 38.092
60.731 1857 43.0929
60.8479 2513 50.1298
60.9648 3257 57.0701
61.0818 3936 62.7375
61.1987 4706 68.6003
61.3158 5266 72.5672
61.4328 5879 76.6746
61.5499 6349 79.6806
61.667 6597 81.2219
61.7841 6687 81.7741
61.9013 6523 80.7651
62.0185 6011 77.5306
62.1357 5126 71.5961
62.253 4080 63.8749
62.3702 3382 58.155
62.4875 2746 52.4023
62.6049 2400 48.9898
62.7222 2317 48.1352
62.8396 2106 45.8912
62.9569 1816 42.6146
63.0743 1751 41.845
63.1918 1602 40.025
63.3092 1420 37.6829
63.4267 1347 36.7015
63.5441 1273 35.6791
63.6616 1119 33.4515
63.7791 1004 31.686
63.8966 890 29.8329
64.0142 761 27.5862
64.1317 654 25.5734
64.2492 727 26.9629
64.3668 735 27.1109
64.4843 735 27.1109
64.6019 725 26.9258
64.7195 709 26.6271
64.837 697 26.4008
64.9546 721 26.8514
65.0722 726 26.9444
65.1898 713 26.7021
65.3074 691 26.2869
65.4249 697 26.4008
65.5425 709 26.6271
65.6601 627 25.04
65.7777 620 24.8998
65.8952 638 25.2587
66.0128 634 25.1794
66.1304 617 24.8395
66.2479 688 26.2298
66.3655 735 27.1109
66.483 713 26.7021
66.6005 665 25.7876
66.718 714 26.7208
66.8355 664 25.7682
66.953 721 26.8514
67.0705 690 26.2679
67.1879 647 25.4362
67.3054 612 24.7386
67.4228 652 25.5343
67.5402 612 24.7386
67.6576 618 24.8596
67.7749 580 24.0832
67.8923 614 24.779
68.0096 650 25.4951
68.1269 667 25.8263
68.2442 656 25.6125
68.3614 676 26
68.4787 688 26.2298
68.5958 688 26.2298
68.713 634 25.1794
68.8302 686 26.1916
68.9473 686 26.1916
69.0643 683 26.1343
69.1814 663 25.7488
69.2984 631 25.1197
69.4154 609 24.6779
69.5323 553 23.516
69.6492 574 23.9583
69.7661 626 25.02
69.8829 623 24.96
69.9997 616 24.8193
70.1165 646 25.4165
70.2332 673 25.9422
70.3499 592 24.3311
70.4665 576 24
70.5831 537 23.1733
70.6996 543 23.3024
70.8161 480 21.9089
70.9326 443 21.0476
71.049 376 19.3907
71.1653 347 18.6279
71.2817 314 17.72
71.3979 298 17.2627
71.5141 319 17.8606
71.6303 276 16.6132
71.7464 234 15.2971
71.8624 0 1
71.9784 0 1
72.0944 0 1
72.2102 0 1
72.3261 0 1
72.4418 0 1
72.5575 0 1
72.6732 0 1
75.1054 0 1
75.2209 0 1
75.3365 0 1
75.4521 0 1
75.5678 0 1
75.6835 0 1
75.7993 0 1
75.9151 0 1
76.031 0 1
76.147 368 19.1833
76.263 421 20.5183
76.3791 436 20.8806
76.4952 443 21.0476
76.6113 415 20.3715
76.7276 462 21.4942
76.8438 476 21.8174
76.9601 547 23.388
77.0765 521 22.8254
77.1929 547 23.388
77.3093 522 22.8473
77.4258 570 23.8747
77.5423 561 23.6854
77.6589 596 24.4131
77.7755 555 23.5584
77.8921 612 24.7386
78.0088 559 23.6432
78.1256 521 22.8254
78.2423 542 23.2809
78.3591 494 22.2261
78.4759 466 21.587
78.5928 487 22.0681
78.7097 487 22.0681
78.8266 469 21.6564
78.9436 549 23.4307
79.0606 503 22.4277
79.1776 560 23.6643
79.2946 567 23.8118
79.4117 552 23.4947
79.5288 539 23.2164
79.6459 545 23.3452
79.7631 597 24.4336
79.8802 584 24.1661
79.9974 496 22.2711
80.1147 501 22.383
80.2319 519 22.7816
80.3491 502 22.4054
80.4664 538 23.1948
80.5837 586 24.2074
80.701 547 23.388
80.8183 580 24.0832
80.9357 544 23.3238
81.053 560 23.6643
81.1704 536 23.1517
81.2877 537 23.1733
81.4051 582 24.1247
81.5225 568 23.8328
81.6399 602 24.5357
81.7573 575 23.9792
81.8747 537 23.1733
81.9922 511 22.6053
82.1096 464 21.5407
82.227 491 22.1585
82.3444 455 21.3307
82.4619 541 23.2594
82.5793 553 23.516
82.6967 525 22.9129
82.8142 560 23.6643
82.9316 541 23.2594
83.049 594 24.3721
83.1664 600 24.4949
83.2838 543 23.3024
83.4012 624 24.98
83.5186 568 23.8328
83.636 525 22.9129
83.7534 487 22.0681
83.8708 512 22.6274
83.9881 495 22.2486
84.1055 524 22.891
84.2228 571 23.8956
84.3401 579 24.0624
84.4575 547 23.388
84.5747 532 23.0651
84.692 553 23.516
84.8093 611 24.7184
84.9265 532 23.0651
85.0437 584 24.1661
85.1609 624 24.98
85.2781 652 25.5343
85.3952 591 24.3105
85.5123 576 24
85.6294 513 22.6495
85.7465 519 22.7816
85.8636 547 23.388
85.9806 504 22.4499
86.0976 530 23.0217
86.2145 582 24.1247
86.3315 565 23.7697
86.4484 568 23.8328
86.5652 609 24.6779
86.682 575 23.9792
86.7988 581 24.1039
86.9156 599 24.4745
87.0323 559 23.6432
87.149 534 23.1084
87.2657 515 22.6936
87.3823 515 22.6936
87.4988 543 23.3024
87.6154 484 22
87.7318 511 22.6053
87.8483 509 22.561
87.9647 455 21.3307
88.081 422 20.5426
88.1973 393 19.8242
88.3136 415 20.3715
88.4298 430 20.7364
88.546 340 18.4391
88.6621 338 18.3848
88.7781 315 17.7482
88.8942 0 1
89.0101 0 1
89.126 0 1
89.2419 0 1
89.3577 0 1
89.4734 0 1
89.5891 0 1
89.7047 0 1
89.8203 0 1
89.9358 0 1
92.3269 0 1
92.4424 0 1
92.558 0 1
92.6736 0 1
92.7893 0 1
92.905 0 1
93.0208 0 1
93.1366 0 1
93.2525 0 1
93.3685 0 1
93.4845 0 1
93.6005 425 20.6155
93.7167 493 22.2036
93.8328 508 22.5389
93.949 497 22.2935
94.0653 543 23.3024
94.1816 586 24.2074
94.2979 556 23.5797
94.4143 557 23.6008
94.5307 590 24.2899
94.6472 560 23.6643
94.7637 512 22.6274
94.8803 525 22.9129
94.9969 546 23.3666
95.1135 515 22.6936
95.2302 512 22.6274
95.3469 606 24.6171
95.4637 579 24.0624
95.5805 624 24.98
95.6973 602 24.5357
95.8142 566 23.7908
95.9311 576 24
96.048 624 24.98
96.1649 601 24.5153
96.2819 584 24.1661
96.3989 577 24.0208
96.516 542 23.2809
96.633 570 23.8747
96.7501 551 23.4734
96.8673 586 24.2074
96.9844 604 24.5764
97.1016 537 23.1733
97.2188 660 25.6905
97.336 580 24.0832
97.4532 582 24.1247
97.5704 564 23.7487
97.6877 606 24.6171
97.805 623 24.96
97.9223 587 24.2281
98.0396 605 24.5967
98.1569 597 24.4336
98.2743 582 24.1247
98.3916 568 23.8328
98.509 592 24.3311
98.6264 571 23.8956
98.7438 551 23.4734
98.8612 557 23.6008
98.9786 581 24.1039
99.096 605 24.5967
99.2134 645 25.3969
99.3308 656 25.6125
99.4482 615 24.7992
99.5656 602 24.5357
99.6831 604 24.5764
99.8005 581 24.1039
99.9179 610 24.6982
100.035 621 24.9199
100.153 572 23.9165
100.27 609 24.6779
100.388 621 24.9199
100.505 568 23.8328
100.622 593 24.3516
100.74 578 24.0416
100.857 598 24.454
100.975 581 24.1039
101.092 626 25.02
101.209 616 24.8193
101.327 652 25.5343
101.444 620 24.8998
101.561 614 24.779
101.679 620 24.8998
101.796 628 25.0599
101.913 583 24.1454
102.03 566 23.7908
102.148 548 23.4094
102.265 580 24.0832
102.382 604 24.5764
102.499 623 24.96
102.616 627 25.04
102.733 674 25.9615
102.851 634 25.1794
102.968 692 26.3059
103.085 654 25.5734
103.202 633 25.1595
103.319 640 25.2982
103.436 633 25.1595
103.552 660 25.6905
103.669 605 24.5967
103.786 659 25.671
103.903 627 25.04
104.02 625 25
104.137 628 25.0599
104.253 645 25.3969
104.37 664 25.7682
104.487 661 25.7099
104.603 668 25.8457
104.72 652 25.5343
104.836 668 25.8457
104.953 567 23.8118
105.069 585 24.1868
105.186 585 24.1868
105.302 541 23.2594
105.418 504 22.4499
105.535 450 21.2132
105.651 435 20.8567
105.767 426 20.6398
105.883 388 19.6977
105.999 370 19.2354
106.115 0 1
106.231 0 1
106.347 0 1
106.463 0 1
106.579 0 1
106.694 0 1
106.81 0 1
106.926 0 1
107.041 0 1
107.157 0 1
109.576 0 1
109.692 0 1
109.807 0 1
109.923 0 1
110.039 0 1
110.155 0 1
110.27 0 1
110.386 0 1
110.502 0 1
110.618 302 17.3781
110.735 363 19.0526
110.851 364 19.0788
110.967 440 20.9762
111.083 494 22.2261
111.199 553 23.516
111.316 628 25.0599
111.432 621 24.9199
111.549 623 24.96
111.665 630 25.0998
111.782 561 23.6854
111.898 593 24.3516
112.015 583 24.1454
112.132 542 23.2809
112.248 569 23.8537
112.365 573 23.9374
112.482 575 23.9792
112.599 618 24.8596
112.716 614 24.779
112.832 607 24.6374
112.949 583 24.1454
113.066 615 24.7992
113.183 535 23.1301
113.3 533 23.0868
113.417 593 24.3516
113.534 547 23.388
113.652 562 23.7065
113.769 545 23.3452
113.886 565 23.7697
114.003 505 22.4722
114.12 497 22.2935
114.238 513 22.6495
114.355 475 21.7945
114.472 526 22.9347
114.589 544 23.3238
114.707 543 23.3024
114.824 553 23.516
114.942 548 23.4094
115.059 572 23.9165
115.176 588 24.2487
115.294 553 23.516
115.411 483 21.9773
115.529 499 22.3383
115.646 517 22.7376
115.764 532 23.0651
115.881 570 23.8747
115.999 531 23.0434
116.116 549 23.4307
116.234 534 23.1084
116.351 531 23.0434
116.469 500 22.3607
116.586 532 23.0651
116.704 496 22.2711
116.821 541 23.2594
116.939 513 22.6495
117.056 493 22.2036
117.174 518 22.7596
117.291 539 23.2164
117.409 520 22.8035
117.526 518 22.7596
117.644 466 21.587
117.761 462 21.4942
117.879 480 21.9089
117.996 447 21.1424
118.114 526 22.9347
118.231 531 23.0434
118.349 522 22.8473
118.466 546 23.3666
118.584 516 22.7156
118.701 521 22.8254
118.819 492 22.1811
118.936 492 22.1811
119.053 485 22.0227
119.171 453 21.2838
119.288 482 21.9545
119.405 515 22.6936
119.523 488 22.0907
119.64 509 22.561
119.757 453 21.2838
119.875 507 22.5167
119.992 500 22.3607
120.109 501 22.383
120.226 465 21.5639
120.343 504 22.4499
120.46 488 22.0907
120.578 503 22.4277
120.695 511 22.6053
120.812 501 22.383
120.929 463 21.5174
121.046 448 21.166
121.163 493 22.2036
121.279 432 20.7846
121.396 422 20.5426
121.513 445 21.095
121.63 424 20.5913
121.747 422 20.5426
121.863 428 20.6882
121.98 433 20.8087
122.097 427 20.664
122.213 437 20.9045
122.33 376 19.3907
122.446 369 19.2094
122.563 326 18.0555
122.679 265 16.2788
122.795 300 17.3205
122.912 265 16.2788
123.028 285 16.8819
123.144 269 16.4012
123.26 276 16.6132
123.377 0 1
123.493 0 1
123.609 0 1
123.725 0 1
123.84 0 1
123.956 0 1
124.072 0 1
124.188 0 1
124.303 0 1
124.419 0 1
126.852 0 1
126.968 0 1
127.083 0 1
127.199 0 1
127.315 0 1
127.431 0 1
127.547 0 1
127.663 0 1
127.779 0 1
127.895 0 1
128.011 0 1
128.127 0 1
128.243 0 1
128.359 517 22.7376
128.476 562 23.7065
128.592 514 22.6716
128.708 569 23.8537
128.825 556 23.5797
128.941 553 23.516
129.058 586 24.2074
129.174 566 23.7908
129.291 627 25.04
129.408 708 26.6083
129.524 747 27.3313
129.641 945 30.7409
129.758 1171 34.2199
129.875 1434 37.8682
129.992 1836 42.8486
130.108 2241 47.3392
130.225 2841 53.301
130.342 3419 58.4722
130.459 4081 63.8827
130.576 5028 70.9084
130.693 5986 77.3692
130.81 7205 84.8823
130.928 8803 93.8243
131.045 10479 102.367
131.162 12698 112.685
131.279 14525 120.52
131.396 16477 128.363
131.513 18518 136.081
131.631 21009 144.945
131.748 24743 157.299
131.865 29045 170.426
131.983 34525 185.809
132.1 38836 197.069
132.217 44275 210.416
132.335 48911 221.158
132.452 53043 230.311
132.57 56751 238.225
132.687 58015 240.863
132.804 61840 248.676
132.922 62032 249.062
133.039 62192 249.383
133.157 62533 250.066
133.274 60943 246.866
133.392 60188 245.332
133.509 56920 238.579
133.627 54011 232.403
133.744 51667 227.304
133.862 51123 226.104
133.979 50557 224.849
134.097 50643 225.04
134.214 50530 224.789
134.332 50379 224.453
134.449 48085 219.283
134.567 44982 212.09
134.684 41845 204.561
134.802 40030 200.075
134.919 40088 200.22
135.037 39839 199.597
135.154 38762 196.881
135.272 37410 193.417
135.389 36124 190.063
135.507 35261 187.779
135.624 34290 185.176
135.742 32935 181.48
135.859 31213 176.672
135.977 30169 173.692
136.094 28794 169.688
136.211 27526 165.91
136.329 25793 160.602
136.446 24169 155.464
136.564 22469 149.897
136.681 20938 144.7
136.798 19348 139.097
136.915 18091 134.503
137.033 16870 129.885
137.15 15622 124.988
137.267 14128 118.861
137.384 12809 113.177
137.502 11411 106.822
137.619 10121 100.603
137.736 9033 95.0421
137.853 8179 90.4378
137.97 7966 89.2525
138.087 7640 87.4071
138.204 7119 84.3742
138.321 6323 79.5173
138.438 5932 77.0195
138.555 6147 78.4028
138.672 6328 79.5487
138.788 6078 77.9615
138.905 5759 75.8881
139.022 5281 72.6705
139.139 4855 69.6778
139.255 4576 67.6461
139.372 4104 64.0625
139.488 3838 61.9516
139.605 3476 58.9576
139.721 3241 56.9298
139.838 2979 54.5802
139.954 2727 52.2207
140.071 2607 51.0588
140.187 2415 49.1426
140.303 2214 47.0532
140.419 1969 44.3734
140.535 1960 44.2719
140.652 1775 42.1307
140.768 0 1
140.884 0 1
141 0 1
141.115 0 1
141.231 0 1
141.347 0 1
141.463 0 1
141.578 0 1
141.694 0 1
144.104 0 1
144.219 0 1
144.335 0 1
144.45 0 1
144.566 0 1
144.682 0 1
144.798 0 1
144.914 0 1
145.03 0 1
145.146 1546 39.3192
145.262 1601 40.0125
145.378 1586 39.8246
145.494 1668 40.8412
145.61 1615 40.1871
145.726 1597 39.9625
145.842 1698 41.2068
145.959 1719 41.4608
146.075 1721 41.4849
146.192 1664 40.7922
146.308 1594 39.9249
146.425 1615 40.1871
146.541 1662 40.7676
146.658 1637 40.4599
146.774 1609 40.1123
146.891 1695 41.1704
147.008 1830 42.7785
147.125 1803 42.4617
147.241 1898 43.566
147.358 1985 44.5533
147.475 1926 43.8862
147.592 1971 44.3959
147.709 1783 42.2256
147.826 1598 39.975
147.943 1630 40.3733
148.06 1628 40.3485
148.177 1752 41.8569
148.294 1803 42.4617
148.411 1940 44.0454
148.528 2020 44.9444
148.645 2075 45.5522
148.762 1966 44.3396
148.88 1972 44.4072
148.997 2012 44.8553
149.114 1985 44.5533
149.231 1989 44.5982
149.349 2034 45.0999
149.466 2006 44.7884
149.583 2037 45.1331
149.701 1985 44.5533
149.818 1891 43.4856
149.935 2011 44.8442
150.053 1856 43.0813
150.17 1884 43.4051
150.287 1721 41.4849
150.405 1795 42.3674
150.522 1805 42.4853
150.64 1784 42.2374
150.757 1798 42.4028
150.875 1846 42.9651
150.992 1872 43.2666
151.11 1878 43.3359
151.227 1813 42.5793
151.344 1664 40.7922
151.462 1645 40.5586
151.579 1584 39.7995
151.697 1549 39.3573
151.814 1680 40.9878
151.932 1761 41.9643
152.049 1827 42.7434
152.167 1778 42.1663
152.284 1827 42.7434
152.402 1784 42.2374
152.519 1846 42.9651
152.636 1786 42.2611
152.754 1847 42.9767
152.871 1785 42.2493
152.989 1734 41.6413
153.106 1850 43.0116
153.223 1746 41.7852
153.341 1702 41.2553
153.458 1657 40.7063
153.575 1696 41.1825
153.693 1646 40.5709
153.81 1484 38.5227
153.927 1539 39.2301
154.044 1527 39.0768
154.162 1519 38.9744
154.279 1486 38.5487
154.396 1638 40.4722
154.513 1608 40.0999
154.63 1741 41.7253
154.747 1655 40.6817
154.864 1503 38.7685
154.981 1545 39.3065
155.098 1512 38.8844
155.215 1533 39.1535
155.332 1406 37.4967
155.449 1436 37.8946
155.566 1526 39.064
155.683 1535 39.1791
155.8 1556 39.4462
155.917 1521 39
156.033 1521 39
156.15 0 1
156.267 0 1
156.383 0 1
156.5 0 1
156.617 0 1
156.733 0 1
156.85 0 1
156.966 0 1
157.082 0 1
157.199 0 1
157.315 0 1
157.431 0 1
157.547 0 1
157.664 0 1
157.78 0 1
157.896 0 1
158.012 0 1
158.128 0 1
158.244 0 1
158.359 0 1
158.475 0 1
158.591 0 1
158.706 0 1
