
6.15755 0 1
6.2731 0 1
6.3887 0 1
6.50437 0 1
6.62009 0 1
6.73587 0 1
6.8517 0 1
6.96759 0 1
7.08353 0 1
7.19952 0 1
7.31557 0 1
7.43166 0 1
7.54781 0 1
7.664 0 1
7.78024 0 1
7.89653 0 1
8.01286 0 1
8.12924 0 1
8.24567 0 1
8.36213 0 1
8.47864 0 1
8.59519 0 1
8.71178 0 1
8.82841 0 1
8.94508 0 1
9.06179 0 1
9.17853 0 1
9.29531 0 1
9.41212 0 1
9.52897 0 1
9.64584 0 1
9.76276 0 1
9.8797 0 1
9.99667 0 1
10.1137 0 1
10.2307 0 1
10.3478 0 1
10.4648 0 1
10.5819 0 1
10.6991 0 1
10.8162 0 1
10.9334 0 1
11.0506 0 1
11.1678 0 1
11.285 0 1
11.4023 0 1
11.5196 0 1
11.6369 0 1
11.7542 0 1
11.8715 0 1
11.9888 0 1
12.1062 0 1
12.2235 0 1
12.3409 0 1
12.4582 0 1
12.5756 0 1
12.693 0 1
12.8104 0 1
12.9278 0 1
13.0452 0 1
13.1626 0 1
13.28 0 1
13.3974 0 1
13.5149 0 1
13.6323 0 1
13.7497 0 1
13.8671 0 1
13.9845 0 1
14.1019 0 1
14.2193 0 1
14.3367 0 1
14.4541 0 1
14.5714 0 1
14.6888 0 1
14.8062 0 1
14.9235 0 1
15.0408 0 0
15.1581 0 0
15.2755 0 0
15.3927 0 0
15.51 0 0
15.6273 0 0
15.7445 0 0
15.8617 0 0
15.9789 0 0
16.0961 0 0
16.2132 0 0
16.3304 0 0
16.4475 0 0
16.5646 0 0
16.6816 0 0
16.7986 0 0
16.9156 0 0
17.0326 0 0
17.1496 0 0
17.2665 0 0
17.3833 0 0
17.5002 0 0
17.617 0 0
17.7338 0 0
17.8505 0 0
17.9672 0 0
18.0839 0 0
18.2005 0 0
18.3171 0 0
18.4337 0 0
18.5502 0 0
18.6666 0 0
18.7831 0 0
18.8994 0 0
19.0158 0 0
19.1321 0 0
19.2483 0 0
19.3645 0 0
19.4806 0 0
19.5967 0 0
19.7128 0 0
19.8288 0 0
19.9447 0 0
20.0606 0 1
20.1764 0 1
20.2922 0 1
20.4079 0 1
20.5236 0 1
20.6392 0 1
20.7548 0 1
20.8702 0 1
23.3078 0 1
23.4233 0 1
23.539 0 1
23.6547 0 1
23.7704 0 1
23.8862 0 1
24.0021 0 1
24.118 0 1
24.234 0 1
24.35 0 1
24.4661 11990 109.499
24.5822 11992 109.508
24.6984 11988 109.49
24.8146 11798 108.619
24.9309 11753 108.411
25.0472 11634 107.861
25.1636 11165 105.665
25.28 11643 107.903
25.3965 11885 109.018
25.513 12036 109.709
25.6296 12436 111.517
25.7462 12576 112.143
25.8628 12978 113.921
25.9795 13070 114.324
26.0962 12721 112.787
26.213 13023 114.118
26.3298 12700 112.694
26.4466 12352 111.14
26.5635 12063 109.832
26.6804 11814 108.692
26.7973 12353 111.144
26.9143 12650 112.472
27.0313 12741 112.876
27.1483 13042 114.202
27.2653 13377 115.659
27.3824 13407 115.789
27.4996 13501 116.194
27.6167 13201 114.896
27.7339 13256 115.135
27.8511 13063 114.293
27.9683 12900 113.578
28.0855 12893 113.547
28.2028 12282 110.824
28.3201 12184 110.381
28.4374 11582 107.62
28.5547 11464 107.07
28.6721 11080 105.262
28.7894 11102 105.366
28.9068 11100 105.357
29.0242 11281 106.212
29.1416 11338 106.48
29.259 11824 108.738
29.3764 11785 108.559
29.4939 12022 109.645
29.6113 11976 109.435
29.7288 12119 110.086
29.8463 11926 109.206
29.9638 11697 108.153
30.0812 11406 106.799
30.1987 11338 106.48
30.3162 11571 107.569
30.4337 11916 109.16
30.5512 12316 110.977
30.6687 12565 112.094
30.7862 12573 112.129
30.9037 12920 113.666
31.0212 13074 114.342
31.1387 13012 114.07
31.2562 12868 113.437
31.3737 12742 112.88
31.4912 12617 112.325
31.6087 12556 112.054
31.7262 12420 111.445
31.8436 12199 110.449
31.9611 11701 108.171
32.0785 11469 107.093
32.1959 11148 105.584
32.3134 10862 104.221
32.4308 10959 104.685
32.5482 11131 105.504
32.6655 11358 106.574
32.7829 11601 107.708
32.9002 12037 109.713
33.0176 11804 108.646
33.1349 11744 108.37
33.2522 11665 108.005
33.3694 11998 109.535
33.4867 11945 109.293
33.6039 11724 108.277
33.7211 11333 106.457
33.8383 11394 106.743
33.9554 11552 107.48
34.0725 11622 107.805
34.1896 11910 109.133
34.3067 12495 111.781
34.4237 12606 112.276
34.5407 12734 112.845
34.6577 12906 113.605
34.7746 12932 113.719
34.8915 12853 113.371
35.0084 12725 112.805
35.1252 12823 113.239
35.242 12575 112.138
35.3587 12240 110.635
35.4755 12059 109.813
35.5921 11828 108.757
35.7088 11574 107.583
35.8254 11216 105.906
35.9419 10867 104.245
36.0584 10907 104.437
36.1749 10810 103.971
36.2913 10961 104.695
36.4077 10847 104.149
36.524 11136 105.527
36.6403 11286 106.236
36.7565 11599 107.699
36.8727 11592 107.666
36.9889 11831 108.77
37.1049 11749 108.393
37.221 0 1
37.3369 0 1
37.4529 0 1
37.5687 0 1
37.6845 0 1
37.8003 0 1
37.916 0 1
38.0316 0 1
38.1472 0 1
40.5851 0 1
40.7008 0 1
40.8164 0 1
40.9322 0 1
41.048 0 1
41.1639 0 1
41.2798 0 1
41.3958 0 1
41.5118 0 1
41.6279 0 1
41.744 8949 94.5992
41.8602 9586 97.9081
41.9765 9718 98.5799
42.0928 10167 100.832
42.2091 10216 101.074
42.3255 10196 100.975
42.4419 9889 99.4435
42.5584 9808 99.0353
42.675 9539 97.6678
42.7915 9779 98.8888
42.9081 10179 100.891
43.0248 10499 102.465
43.1415 10780 103.827
43.2582 10959 104.685
43.375 10958 104.68
43.4918 11201 105.835
43.6087 11166 105.669
43.7256 11084 105.281
43.8425 11100 105.357
43.9595 10660 103.247
44.0765 10524 102.587
44.1935 10361 101.789
44.3106 10094 100.469
44.4277 9614 98.051
44.5448 9361 96.7523
44.6619 8836 94
44.7791 8366 91.4658
44.8963 8290 91.0494
45.0136 8431 91.8205
45.1308 8414 91.7279
45.2481 8299 91.0988
45.3654 8927 94.4828
45.4827 8800 93.8083
45.6001 8631 92.9032
45.7174 8731 93.4398
45.8348 8957 94.6414
45.9522 8627 92.8816
46.0697 8212 90.6201
46.1871 8045 89.6939
46.3046 7979 89.3252
46.422 8209 90.6035
46.5395 8471 92.038
46.657 8809 93.8563
46.7745 8956 94.6361
46.892 9076 95.268
47.0096 8945 94.578
47.1271 8931 94.504
47.2446 8975 94.7365
47.3622 8758 93.5842
47.4797 8856 94.1063
47.5973 8664 93.0806
47.7149 8313 91.1757
47.8324 7872 88.7243
47.95 7659 87.5157
48.0675 7621 87.2983
48.1851 6952 83.3787
48.3027 6656 81.5843
48.4202 6395 79.9687
48.5378 6351 79.6932
48.6554 6299 79.3662
48.7729 6569 81.0494
48.8904 6956 83.4026
49.008 6981 83.5524
49.1255 7004 83.6899
49.243 7042 83.9166
49.3605 7026 83.8212
49.478 6950 83.3667
49.5955 6861 82.8312
49.713 6633 81.4432
49.8304 6805 82.4924
49.9479 7070 84.0833
50.0653 7485 86.5159
50.1827 7930 89.0505
50.3001 8109 90.05
50.4175 8292 91.0604
50.5348 8670 93.1128
50.6521 9076 95.268
50.7694 9189 95.8593
50.8867 9190 95.8645
51.004 9382 96.8607
51.1212 9613 98.0459
51.2384 9511 97.5244
51.3556 9512 97.5295
51.4727 9147 95.6399
51.5899 8950 94.6044
51.707 8592 92.693
51.824 8469 92.0272
51.9411 8469 92.0272
52.0581 8651 93.0108
52.175 8799 93.803
52.2919 8905 94.3663
52.4088 9306 96.4676
52.5257 9422 97.067
52.6425 9873 99.363
52.7593 10016 100.08
52.876 10294 101.459
52.9927 10181 100.901
53.1094 10180 100.896
53.226 9725 98.6154
53.3426 9807 99.0303
53.4591 10117 100.583
53.5756 10664 103.267
53.692 11285 106.231
53.8084 11920 109.179
53.9248 12327 111.027
54.0411 12886 113.517
54.1573 13262 115.161
54.2735 0 1
54.3896 0 1
54.5057 0 1
54.6217 0 1
54.7377 0 1
54.8537 0 1
54.9695 0 1
55.0853 0 1
55.2011 0 1
55.3168 0 1
55.4324 0 1
57.824 0 1
57.9396 0 1
58.0553 0 1
58.1711 0 1
58.2869 0 1
58.4028 0 1
58.5187 0 1
58.6347 0 1
58.7508 0 1
58.8669 0 1
58.983 13715 117.111
59.0992 14312 119.633
59.2155 14789 121.61
59.3318 15664 125.156
59.4482 15800 125.698
59.5646 15793 125.67
59.681 15971 126.376
59.7975 15633 125.032
59.9141 14997 122.462
60.0306 14720 121.326
60.1473 14176 119.063
60.2639 13481 116.108
60.3807 12606 112.276
60.4974 11849 108.853
60.6142 11565 107.541
60.731 11155 105.617
60.8479 11389 106.719
60.9648 11527 107.364
61.0818 12075 109.886
61.1987 12457 111.611
61.3158 12598 112.241
61.4328 12484 111.732
61.5499 12150 110.227
61.667 11947 109.302
61.7841 11712 108.222
61.9013 11591 107.662
62.0185 11648 107.926
62.1357 11916 109.16
62.253 12427 111.476
62.3702 13021 114.11
62.4875 13709 117.085
62.6049 14063 118.588
62.7222 14491 120.379
62.8396 14556 120.648
62.9569 14993 122.446
63.0743 14710 121.285
63.1918 14717 121.314
63.3092 14559 120.661
63.4267 13917 117.97
63.5441 13307 115.356
63.6616 12723 112.796
63.7791 11898 109.078
63.8966 11345 106.513
64.0142 10537 102.65
64.1317 10216 101.074
64.2492 10097 100.484
64.3668 10227 101.129
64.4843 10426 102.108
64.6019 10868 104.25
64.7195 11322 106.405
64.837 11430 106.911
64.9546 11511 107.289
65.0722 11387 106.71
65.1898 11212 105.887
65.3074 10952 104.652
65.4249 10474 102.343
65.5425 10437 102.162
65.6601 10629 103.097
65.7777 11110 105.404
65.8952 11611 107.754
66.0128 12392 111.319
66.1304 12886 113.517
66.2479 13587 116.563
66.3655 13805 117.495
66.483 14026 118.431
66.6005 14019 118.402
66.718 13919 117.979
66.8355 13962 118.161
66.953 13449 115.97
67.0705 13260 115.152
67.1879 12728 112.818
67.3054 11861 108.908
67.4228 11295 106.278
67.5402 10382 101.892
67.6576 9933 99.6644
67.7749 9545 97.6985
67.8923 9530 97.6217
68.0096 9843 99.2119
68.1269 10292 101.449
68.2442 10828 104.058
68.3614 11481 107.149
68.4787 11867 108.936
68.5958 11675 108.051
68.713 11576 107.592
68.8302 11273 106.174
68.9473 11272 106.17
69.0643 10840 104.115
69.1814 10861 104.216
69.2984 10954 104.661
69.4154 11696 108.148
69.5323 12316 110.977
69.6492 13085 114.39
69.7661 14001 118.326
69.8829 14798 121.647
69.9997 15053 122.691
70.1165 15200 123.288
70.2332 15542 124.668
70.3499 15386 124.04
70.4665 15402 124.105
70.5831 14912 122.115
70.6996 13934 118.042
70.8161 13482 116.112
70.9326 12847 113.345
71.049 12504 111.821
71.1653 11501 107.243
71.2817 10730 103.586
71.3979 10005 100.025
71.5141 9758 98.7826
71.6303 9785 98.9192
71.7464 9387 96.8865
71.8624 0 1
71.9784 0 1
72.0944 0 1
72.2102 0 1
72.3261 0 1
72.4418 0 1
72.5575 0 1
72.6732 0 1
75.1054 0 1
75.2209 0 1
75.3365 0 1
75.4521 0 1
75.5678 0 1
75.6835 0 1
75.7993 0 1
75.9151 0 1
76.031 0 1
76.147 12690 112.65
76.263 12974 113.903
76.3791 12792 113.102
76.4952 12460 111.624
76.6113 11365 106.607
76.7276 10600 102.956
76.8438 10545 102.689
76.9601 10350 101.735
77.0765 10879 104.302
77.1929 11623 107.81
77.3093 12595 112.227
77.4258 13231 115.026
77.5423 13202 114.9
77.6589 13210 114.935
77.7755 12865 113.424
77.8921 12358 111.167
78.0088 11796 108.609
78.1256 11266 106.141
78.2423 11079 105.257
78.3591 10967 104.723
78.4759 11734 108.324
78.5928 12699 112.69
78.7097 13732 117.184
78.8266 14635 120.975
78.9436 15162 123.134
79.0606 15550 124.7
79.1776 15527 124.607
79.2946 15749 125.495
79.4117 15612 124.948
79.5288 15405 124.117
79.6459 15147 123.073
79.7631 14299 119.578
79.8802 13501 116.194
79.9974 12832 113.278
80.1147 12233 110.603
80.2319 11265 106.137
80.3491 10270 101.341
80.4664 10052 100.26
80.5837 10027 100.135
80.701 10282 101.4
80.8183 10643 103.165
80.9357 11691 108.125
81.053 12095 109.977
81.1704 12259 110.72
81.2877 12023 109.649
81.4051 11750 108.397
81.5225 11676 108.056
81.6399 10656 103.228
81.7573 10543 102.679
81.8747 9828 99.1363
81.9922 9985 99.925
82.1096 10433 102.142
82.227 11583 107.624
82.3444 12384 111.283
82.4619 13223 114.991
82.5793 13765 117.324
82.6967 13628 116.739
82.8142 14013 118.377
82.9316 13818 117.55
83.049 13840 117.644
83.1664 13363 115.598
83.2838 13033 114.162
83.4012 12415 111.423
83.5186 11880 108.995
83.636 11171 105.693
83.7534 10536 102.645
83.8708 9929 99.6444
83.9881 9266 96.2601
84.1055 8720 93.3809
84.2228 8854 94.0957
84.3401 9076 95.268
84.4575 9781 98.8989
84.5747 10671 103.301
84.692 11204 105.849
84.8093 11565 107.541
84.9265 11270 106.16
85.0437 10937 104.58
85.1609 10587 102.893
85.2781 10003 100.015
85.3952 9777 98.8787
85.5123 9675 98.3616
85.6294 9933 99.6644
85.7465 10705 103.465
85.8636 12018 109.627
85.9806 12860 113.402
86.0976 13805 117.495
86.2145 14475 120.312
86.3315 14776 121.557
86.4484 15236 123.434
86.5652 15236 123.434
86.682 15212 123.337
86.7988 15107 122.911
86.9156 14402 120.008
87.0323 14147 118.941
87.149 13504 116.207
87.2657 13239 115.061
87.3823 12706 112.721
87.4988 11705 108.19
87.6154 10893 104.37
87.7318 10861 104.216
87.8483 11218 105.915
87.9647 11750 108.397
88.081 13138 114.621
88.1973 13887 117.843
88.3136 14375 119.896
88.4298 14187 119.109
88.546 14014 118.381
88.6621 13605 116.64
88.7781 12880 113.49
88.8942 0 1
89.0101 0 1
89.126 0 1
89.2419 0 1
89.3577 0 1
89.4734 0 1
89.5891 0 1
89.7047 0 1
89.8203 0 1
89.9358 0 1
92.3269 0 1
92.4424 0 1
92.558 0 1
92.6736 0 1
92.7893 0 1
92.905 0 1
93.0208 0 1
93.1366 0 1
93.2525 0 1
93.3685 0 1
93.4845 0 1
93.6005 21638 147.099
93.7167 23604 153.636
93.8328 24739 157.286
93.949 25227 158.83
94.0653 25910 160.966
94.1816 26033 161.347
94.2979 25225 158.824
94.4143 24852 157.645
94.5307 24673 157.076
94.6472 25179 158.679
94.7637 26414 162.524
94.8803 29284 171.126
94.9969 32360 179.889
95.1135 34185 184.892
95.2302 36225 190.329
95.3469 37907 194.697
95.4637 39028 197.555
95.5805 40425 201.06
95.6973 41195 202.966
95.8142 42208 205.446
95.9311 41790 204.426
96.048 41301 203.226
96.1649 40249 200.622
96.2819 39824 199.56
96.3989 38961 197.385
96.516 37718 194.211
96.633 35730 189.024
96.7501 33743 183.693
96.8673 33179 182.151
96.9844 33617 183.349
97.1016 35247 187.742
97.2188 37929 194.754
97.336 40107 200.267
97.4532 41446 203.583
97.5704 41695 204.194
97.6877 40852 202.119
97.805 39467 198.663
97.9223 37152 192.749
98.0396 34220 184.986
98.1569 32339 179.83
98.2743 31311 176.949
98.3916 31210 176.664
98.509 33720 183.63
98.6264 36470 190.971
98.7438 38502 196.219
98.8612 40995 202.472
98.9786 42307 205.687
99.096 43207 207.863
99.2134 43284 208.048
99.3308 43861 209.43
99.4482 43563 208.718
99.5656 43622 208.859
99.6831 42213 205.458
99.8005 41059 202.63
99.9179 39523 198.804
100.035 38962 197.388
100.153 36896 192.083
100.27 34701 186.282
100.388 32814 181.146
100.505 32959 181.546
100.622 33729 183.655
100.74 35724 189.008
100.857 38621 196.522
100.975 39727 199.316
101.092 39555 198.884
101.209 39072 197.666
101.327 38087 195.159
101.444 36694 191.557
101.561 33890 184.092
101.679 31216 176.681
101.796 29202 170.886
101.913 28590 169.086
102.03 29092 170.564
102.148 31672 177.966
102.265 35889 189.444
102.382 32820 181.163
102.499 35691 188.921
102.616 35733 189.032
102.733 35593 188.661
102.851 34675 186.212
102.968 34250 185.068
103.085 32918 181.433
103.202 31278 176.856
103.319 29641 172.166
103.436 28034 167.434
103.552 26316 162.222
103.669 24486 156.48
103.786 22427 149.756
103.903 20497 143.168
104.02 19578 139.921
104.137 19256 138.766
104.253 20338 142.611
104.37 19752 140.542
104.487 20998 144.907
104.603 20469 143.07
104.72 19564 139.871
104.836 18490 135.978
104.953 17580 132.59
105.069 16336 127.812
105.186 15573 124.792
105.302 14765 121.511
105.418 14878 121.975
105.535 15486 124.443
105.651 17139 130.916
105.767 18157 134.748
105.883 19187 138.517
105.999 20006 141.443
106.115 0 1
106.231 0 1
106.347 0 1
106.463 0 1
106.579 0 1
106.694 0 1
106.81 0 1
106.926 0 1
107.041 0 1
107.157 0 1
109.576 0 1
109.692 0 1
109.807 0 1
109.923 0 1
110.039 0 1
110.155 0 1
110.27 0 1
110.386 0 1
110.502 0 1
110.618 14214 119.222
110.735 15870 125.976
110.851 17237 131.29
110.967 18190 134.87
111.083 18605 136.4
111.199 19112 138.246
111.316 19353 139.115
111.432 19522 139.721
111.549 19264 138.795
111.665 18770 137.004
111.782 18205 134.926
111.898 17775 133.323
112.015 17036 130.522
112.132 16129 127
112.248 15375 123.996
112.365 14429 120.121
112.482 13724 117.149
112.599 13319 115.408
112.716 13733 117.188
112.832 14279 119.495
112.949 15037 122.625
113.066 15762 125.547
113.183 15417 124.165
113.3 15200 123.288
113.417 14742 121.417
113.534 14599 120.826
113.652 14216 119.231
113.769 13895 117.877
113.886 13882 117.822
114.003 13735 117.196
114.12 14617 120.901
114.238 16104 126.902
114.355 17418 131.977
114.472 19124 138.29
114.589 17886 133.739
114.707 19002 137.848
114.824 19581 139.932
114.942 19724 140.442
115.059 19824 140.798
115.176 19616 140.057
115.294 18913 137.525
115.411 18365 135.518
115.529 18087 134.488
115.646 17500 132.288
115.764 16819 129.688
115.881 15731 125.423
115.999 14891 122.029
116.116 14257 119.403
116.234 14258 119.407
116.351 14953 122.282
116.469 15624 124.996
116.586 16152 127.091
116.704 16247 127.464
116.821 16141 127.047
116.939 16073 126.779
117.056 15850 125.897
117.174 15525 124.599
117.291 15123 122.976
117.409 14804 121.672
117.526 14878 121.975
117.644 15224 123.386
117.761 16517 128.518
117.879 17752 133.237
117.996 18637 136.517
118.114 19123 138.286
118.231 20146 141.937
118.349 19945 141.227
118.466 20345 142.636
118.584 20288 142.436
118.701 20368 142.717
118.819 19829 140.815
118.936 19685 140.303
119.053 18956 137.681
119.171 18378 135.565
119.288 17842 133.574
119.405 17131 130.885
119.523 16410 128.102
119.64 15347 123.883
119.757 14817 121.725
119.875 14936 122.213
119.992 15127 122.992
120.109 15586 124.844
120.226 16330 127.789
120.343 16439 128.215
120.46 16315 127.73
120.578 16370 127.945
120.695 16087 126.835
120.812 16099 126.882
120.929 15602 124.908
121.046 15512 124.547
121.163 15280 123.612
121.279 15495 124.479
121.396 16258 127.507
121.513 17228 131.255
121.63 18210 134.944
121.747 19290 138.888
121.863 19661 140.218
121.98 19839 140.851
122.097 20297 142.468
122.213 20333 142.594
122.33 20323 142.559
122.446 19944 141.223
122.563 19396 139.27
122.679 18801 137.117
122.795 18792 137.084
122.912 17968 134.045
123.028 17591 132.631
123.144 17239 131.297
123.26 15980 126.412
123.377 0 1
123.493 0 1
123.609 0 1
123.725 0 1
123.84 0 1
123.956 0 1
124.072 0 1
124.188 0 1
124.303 0 1
124.419 0 1
126.852 0 1
126.968 0 1
127.083 0 1
127.199 0 1
127.315 0 1
127.431 0 1
127.547 0 1
127.663 0 1
127.779 0 1
127.895 0 1
128.011 0 1
128.127 0 1
128.243 0 1
128.359 18894 137.455
128.476 18351 135.466
128.592 17148 130.95
128.708 16943 130.165
128.825 16881 129.927
128.941 17104 130.782
129.058 17270 131.415
129.174 18038 134.306
129.291 18085 134.48
129.408 17902 133.798
129.524 17526 132.386
129.641 17731 133.158
129.758 17508 132.318
129.875 17137 130.908
129.992 16875 129.904
130.108 16614 128.895
130.225 16849 129.804
130.342 17260 131.377
130.459 18429 135.753
130.576 19889 141.028
130.693 19886 141.018
130.81 20145 141.933
130.928 20511 143.217
131.045 20668 143.764
131.162 20815 144.274
131.279 20673 143.781
131.396 20794 144.201
131.513 20548 143.346
131.631 20305 142.496
131.748 19458 139.492
131.865 19049 138.018
131.983 18461 135.871
132.1 17538 132.431
132.217 16710 129.267
132.335 16636 128.981
132.452 16792 129.584
132.57 17284 131.469
132.687 17333 131.655
132.804 18696 136.733
132.922 17864 133.656
133.039 17943 133.951
133.157 17695 133.023
133.274 17622 132.748
133.392 17256 131.362
133.509 16781 129.541
133.627 16716 129.29
133.744 16771 129.503
133.862 17145 130.939
133.979 18047 134.339
134.097 19023 137.924
134.214 19572 139.9
134.332 19913 141.113
134.449 19949 141.241
134.567 20526 143.269
134.684 20456 143.024
134.802 20710 143.91
134.919 20758 144.076
135.037 20313 142.524
135.154 20262 142.345
135.272 19744 140.513
135.389 19468 139.528
135.507 18897 137.466
135.624 18240 135.056
135.742 17421 131.989
135.859 16918 130.069
135.977 17248 131.332
136.094 17393 131.883
136.211 18098 134.529
136.329 17997 134.153
136.446 18435 135.776
136.564 18257 135.118
136.681 18158 134.752
136.798 17975 134.071
136.915 18163 134.77
137.033 17374 131.81
137.15 17172 131.042
137.267 16953 130.204
137.384 16920 130.077
137.502 17048 130.568
137.619 18117 134.599
137.736 18978 137.761
137.853 19161 138.423
137.97 19874 140.975
138.087 19807 140.737
138.204 20363 142.699
138.321 20375 142.741
138.438 20659 143.732
138.555 20920 144.637
138.672 20706 143.896
138.788 20557 143.377
138.905 20461 143.042
139.022 19765 140.588
139.139 19490 139.607
139.255 18970 137.732
139.372 18099 134.533
139.488 17658 132.883
139.605 17739 133.188
139.721 18068 134.417
139.838 18463 135.879
139.954 18758 136.96
140.071 18472 135.912
140.187 18489 135.974
140.303 18549 136.195
140.419 18338 135.418
140.535 18024 134.253
140.652 17238 131.294
140.768 0 1
140.884 0 1
141 0 1
141.115 0 1
141.231 0 1
141.347 0 1
141.463 0 1
141.578 0 1
141.694 0 1
144.104 0 1
144.219 0 1
144.335 0 1
144.45 0 1
144.566 0 1
144.682 0 1
144.798 0 1
144.914 0 1
145.03 0 1
145.146 17278 131.446
145.262 17643 132.827
145.378 17701 133.045
145.494 17312 131.575
145.61 16960 130.231
145.726 16282 127.601
145.842 16421 128.144
145.959 16027 126.598
146.075 16087 126.835
146.192 16835 129.75
146.308 17125 130.863
146.425 17851 133.608
146.541 18268 135.159
146.658 18895 137.459
146.774 18981 137.772
146.891 19207 138.589
147.008 19350 139.104
147.125 19735 140.481
147.241 19878 140.989
147.358 19527 139.739
147.475 19409 139.316
147.592 19269 138.813
147.709 18754 136.945
147.826 18265 135.148
147.943 17706 133.064
148.06 16856 129.831
148.177 17027 130.488
148.294 17135 130.901
148.411 17833 133.54
148.528 18299 135.274
148.645 18254 135.107
148.762 18280 135.204
148.88 18397 135.636
148.997 17966 134.037
149.114 18864 137.346
149.231 17872 133.686
149.349 17519 132.359
149.466 16735 129.364
149.583 16798 129.607
149.701 16856 129.831
149.818 17040 130.537
149.935 17746 133.214
150.053 18407 135.672
150.17 18994 137.819
150.287 19055 138.04
150.405 19691 140.325
150.522 19538 139.778
150.64 20070 141.669
150.757 20751 144.052
150.875 20959 144.772
150.992 20473 143.084
151.11 20180 142.056
151.227 20069 141.665
151.344 19720 140.428
151.462 19073 138.105
151.579 19060 138.058
151.697 18025 134.257
151.814 18133 134.659
151.932 18105 134.555
152.049 18626 136.477
152.167 18932 137.594
152.284 19724 140.442
152.402 19674 140.264
152.519 19254 138.759
152.636 19479 139.567
152.754 18754 136.945
152.871 18619 136.451
152.989 18214 134.959
153.106 17684 132.981
153.223 17477 132.201
153.341 17607 132.691
153.458 18345 135.444
153.575 18529 136.121
153.693 19302 138.932
153.81 19625 140.089
153.927 20024 141.506
154.044 20472 143.08
154.162 21012 144.955
154.279 21370 146.185
154.396 21754 147.492
154.513 21868 147.878
154.63 21591 146.939
154.747 21755 147.496
154.864 21372 146.192
154.981 20723 143.955
155.098 20385 142.776
155.215 19675 140.268
155.332 19278 138.845
155.449 18733 136.869
155.566 19328 139.025
155.683 19579 139.925
155.8 20161 141.989
155.917 20354 142.667
156.033 20058 141.626
156.15 0 1
156.267 0 1
156.383 0 1
156.5 0 1
156.617 0 1
156.733 0 1
156.85 0 1
156.966 0 1
157.082 0 1
157.199 0 1
157.315 0 1
157.431 0 1
157.547 0 1
157.664 0 1
157.78 0 1
157.896 0 1
158.012 0 1
158.128 0 1
158.244 0 1
158.359 0 1
158.475 0 1
158.591 0 1
158.706 0 1
