
6.15755 0 1
6.2731 0 1
6.3887 0 1
6.50437 0 1
6.62009 0 1
6.73587 0 1
6.8517 0 1
6.96759 0 1
7.08353 0 1
7.19952 0 1
7.31557 0 1
7.43166 0 1
7.54781 0 1
7.664 0 1
7.78024 0 1
7.89653 0 1
8.01286 0 1
8.12924 0 1
8.24567 0 1
8.36213 0 1
8.47864 0 1
8.59519 0 1
8.71178 0 1
8.82841 0 1
8.94508 0 1
9.06179 0 1
9.17853 0 1
9.29531 0 1
9.41212 0 1
9.52897 0 1
9.64584 0 1
9.76276 0 1
9.8797 0 1
9.99667 0 1
10.1137 0 1
10.2307 0 1
10.3478 0 1
10.4648 0 1
10.5819 0 1
10.6991 0 1
10.8162 0 1
10.9334 0 1
11.0506 0 1
11.1678 0 1
11.285 0 1
11.4023 0 1
11.5196 0 1
11.6369 0 1
11.7542 0 1
11.8715 0 1
11.9888 0 1
12.1062 0 1
12.2235 0 1
12.3409 0 1
12.4582 0 1
12.5756 0 1
12.693 0 1
12.8104 0 1
12.9278 0 1
13.0452 0 1
13.1626 0 1
13.28 0 1
13.3974 0 1
13.5149 0 1
13.6323 0 1
13.7497 0 1
13.8671 0 1
13.9845 0 1
14.1019 0 1
14.2193 0 1
14.3367 0 1
14.4541 0 1
14.5714 0 1
14.6888 0 1
14.8062 0 1
14.9235 0 1
15.0408 0 0
15.1581 0 0
15.2755 0 0
15.3927 0 0
15.51 0 0
15.6273 0 0
15.7445 0 0
15.8617 0 0
15.9789 0 0
16.0961 0 0
16.2132 0 0
16.3304 0 0
16.4475 0 0
16.5646 0 0
16.6816 0 0
16.7986 0 0
16.9156 0 0
17.0326 0 0
17.1496 0 0
17.2665 0 0
17.3833 0 0
17.5002 0 0
17.617 0 0
17.7338 0 0
17.8505 0 0
17.9672 0 0
18.0839 0 0
18.2005 0 0
18.3171 0 0
18.4337 0 0
18.5502 0 0
18.6666 0 0
18.7831 0 0
18.8994 0 0
19.0158 0 0
19.1321 0 0
19.2483 0 0
19.3645 0 0
19.4806 0 0
19.5967 0 0
19.7128 0 0
19.8288 0 0
19.9447 0 0
20.0606 0 1
20.1764 0 1
20.2922 0 1
20.4079 0 1
20.5236 0 1
20.6392 0 1
20.7548 0 1
20.8702 0 1
23.3078 0 1
23.4233 0 1
23.539 0 1
23.6547 0 1
23.7704 0 1
23.8862 0 1
24.0021 0 1
24.118 0 1
24.234 0 1
24.35 0 1
24.4661 1161 34.0735
24.5822 1127 33.5708
24.6984 1153 33.9559
24.8146 1129 33.6006
24.9309 1103 33.2114
25.0472 1167 34.1614
25.1636 1161 34.0735
25.28 1180 34.3511
25.3965 1152 33.9411
25.513 1267 35.5949
25.6296 1277 35.7351
25.7462 1340 36.606
25.8628 1370 37.0135
25.9795 1326 36.4143
26.0962 1358 36.8511
26.213 1308 36.1663
26.3298 1347 36.7015
26.4466 1315 36.2629
26.5635 1357 36.8375
26.6804 1282 35.805
26.7973 1311 36.2077
26.9143 1284 35.8329
27.0313 1200 34.641
27.1483 1322 36.3593
27.2653 1330 36.4692
27.3824 1375 37.081
27.4996 1347 36.7015
27.6167 1373 37.054
27.7339 1391 37.2961
27.8511 1383 37.1887
27.9683 1340 36.606
28.0855 1332 36.4966
28.2028 1373 37.054
28.3201 1339 36.5923
28.4374 1364 36.9324
28.5547 1344 36.6606
28.6721 1314 36.2491
28.7894 1336 36.5513
28.9068 1334 36.524
29.0242 1370 37.0135
29.1416 1395 37.3497
29.259 1412 37.5766
29.3764 1415 37.6165
29.4939 1466 38.2884
29.6113 1455 38.1445
29.7288 1410 37.55
29.8463 1368 36.9865
29.9638 1455 38.1445
30.0812 1468 38.3145
30.1987 1289 35.9026
30.3162 1289 35.9026
30.4337 1210 34.7851
30.5512 1321 36.3456
30.6687 1162 34.0881
30.7862 1396 37.3631
30.9037 1397 37.3765
31.0212 1369 37
31.1387 1353 36.7831
31.2562 1313 36.2353
31.3737 1322 36.3593
31.4912 1283 35.819
31.6087 1328 36.4417
31.7262 1304 36.1109
31.8436 1263 35.5387
31.9611 1255 35.426
32.0785 1207 34.7419
32.1959 1195 34.5688
32.3134 1139 33.7491
32.4308 1247 35.3129
32.5482 1207 34.7419
32.6655 1238 35.1852
32.7829 1279 35.7631
32.9002 1323 36.3731
33.0176 1259 35.4824
33.1349 1272 35.6651
33.2522 1239 35.1994
33.3694 1364 36.9324
33.4867 1207 34.7419
33.6039 1342 36.6333
33.7211 1251 35.3695
33.8383 1249 35.3412
33.9554 1123 33.5112
34.0725 1120 33.4664
34.1896 1092 33.0454
34.3067 1129 33.6006
34.4237 1158 34.0294
34.5407 1150 33.9116
34.6577 1174 34.2637
34.7746 1151 33.9264
34.8915 1141 33.7787
35.0084 1173 34.2491
35.1252 1171 34.2199
35.242 1124 33.5261
35.3587 1175 34.2783
35.4755 1203 34.6843
35.5921 1165 34.1321
35.7088 1103 33.2114
35.8254 1134 33.6749
35.9419 1127 33.5708
36.0584 1088 32.9848
36.1749 1086 32.9545
36.2913 1126 33.5559
36.4077 1095 33.0908
36.524 1174 34.2637
36.6403 1190 34.4964
36.7565 1241 35.2278
36.8727 1163 34.1028
36.9889 1169 34.1906
37.1049 1131 33.6303
37.221 0 1
37.3369 0 1
37.4529 0 1
37.5687 0 1
37.6845 0 1
37.8003 0 1
37.916 0 1
38.0316 0 1
38.1472 0 1
40.5851 0 1
40.7008 0 1
40.8164 0 1
40.9322 0 1
41.048 0 1
41.1639 0 1
41.2798 0 1
41.3958 0 1
41.5118 0 1
41.6279 0 1
41.744 958 30.9516
41.8602 950 30.8221
41.9765 997 31.5753
42.0928 994 31.5278
42.2091 1015 31.8591
42.3255 980 31.305
42.4419 1017 31.8904
42.5584 994 31.5278
42.675 923 30.3809
42.7915 868 29.4618
42.9081 899 29.9833
43.0248 837 28.931
43.1415 879 29.6479
43.2582 925 30.4138
43.375 906 30.0998
43.4918 895 29.9166
43.6087 910 30.1662
43.7256 881 29.6816
43.8425 876 29.5973
43.9595 851 29.1719
44.0765 818 28.6007
44.1935 880 29.6648
44.3106 889 29.8161
44.4277 826 28.7402
44.5448 790 28.1069
44.6619 680 26.0768
44.7791 760 27.5681
44.8963 774 27.8209
45.0136 737 27.1477
45.1308 807 28.4077
45.2481 758 27.5318
45.3654 806 28.3901
45.4827 825 28.7228
45.6001 788 28.0713
45.7174 777 27.8747
45.8348 809 28.4429
45.9522 802 28.3196
46.0697 765 27.6586
46.1871 775 27.8388
46.3046 670 25.8844
46.422 680 26.0768
46.5395 693 26.3249
46.657 628 25.0599
46.7745 648 25.4558
46.892 714 26.7208
47.0096 705 26.5518
47.1271 716 26.7582
47.2446 684 26.1534
47.3622 661 25.7099
47.4797 652 25.5343
47.5973 611 24.7184
47.7149 635 25.1992
47.8324 656 25.6125
47.95 605 24.5967
48.0675 621 24.9199
48.1851 607 24.6374
48.3027 635 25.1992
48.4202 607 24.6374
48.5378 584 24.1661
48.6554 627 25.04
48.7729 641 25.318
48.8904 608 24.6577
49.008 640 25.2982
49.1255 629 25.0799
49.243 631 25.1197
49.3605 667 25.8263
49.478 658 25.6515
49.5955 655 25.593
49.713 609 24.6779
49.8304 632 25.1396
49.9479 546 23.3666
50.0653 555 23.5584
50.1827 523 22.8692
50.3001 601 24.5153
50.4175 633 25.1595
50.5348 649 25.4755
50.6521 631 25.1197
50.7694 676 26
50.8867 674 25.9615
51.004 707 26.5895
51.1212 706 26.5707
51.2384 686 26.1916
51.3556 703 26.5141
51.4727 730 27.0185
51.5899 726 26.9444
51.707 684 26.1534
51.824 742 27.2397
51.9411 697 26.4008
52.0581 782 27.9643
52.175 784 28
52.2919 829 28.7924
52.4088 874 29.5635
52.5257 867 29.4449
52.6425 897 29.95
52.7593 900 30
52.876 934 30.5614
52.9927 928 30.4631
53.1094 933 30.545
53.226 918 30.2985
53.3426 960 30.9839
53.4591 883 29.7153
53.5756 814 28.5307
53.692 783 27.9821
53.8084 893 29.8831
53.9248 936 30.5941
54.0411 976 31.241
54.1573 1011 31.7962
54.2735 0 1
54.3896 0 1
54.5057 0 1
54.6217 0 1
54.7377 0 1
54.8537 0 1
54.9695 0 1
55.0853 0 1
55.2011 0 1
55.3168 0 1
55.4324 0 1
57.824 0 1
57.9396 0 1
58.0553 0 1
58.1711 0 1
58.2869 0 1
58.4028 0 1
58.5187 0 1
58.6347 0 1
58.7508 0 1
58.8669 0 1
58.983 923 30.3809
59.0992 999 31.607
59.2155 1047 32.3574
59.3318 1121 33.4813
59.4482 1088 32.9848
59.5646 1088 32.9848
59.681 1131 33.6303
59.7975 1066 32.6497
59.9141 1043 32.2955
60.0306 1066 32.6497
60.1473 978 31.273
60.2639 984 31.3688
60.3807 1007 31.7333
60.4974 982 31.3369
60.6142 953 30.8707
60.731 1041 32.2645
60.8479 971 31.1609
60.9648 1069 32.6956
61.0818 1045 32.3265
61.1987 1072 32.7414
61.3158 1002 31.6544
61.4328 1069 32.6956
61.5499 1062 32.5883
61.667 1020 31.9374
61.7841 1005 31.7017
61.9013 1019 31.9218
62.0185 937 30.6105
62.1357 917 30.282
62.253 852 29.189
62.3702 896 29.9333
62.4875 991 31.4802
62.6049 956 30.9192
62.7222 1007 31.7333
62.8396 1044 32.311
62.9569 1003 31.6702
63.0743 1041 32.2645
63.1918 1007 31.7333
63.3092 919 30.315
63.4267 922 30.3645
63.5441 935 30.5778
63.6616 929 30.4795
63.7791 874 29.5635
63.8966 897 29.95
64.0142 944 30.7246
64.1317 917 30.282
64.2492 897 29.95
64.3668 933 30.545
64.4843 972 31.1769
64.6019 937 30.6105
64.7195 976 31.241
64.837 952 30.8545
64.9546 952 30.8545
65.0722 927 30.4467
65.1898 903 30.05
65.3074 931 30.5123
65.4249 928 30.4631
65.5425 924 30.3974
65.6601 893 29.8831
65.7777 817 28.5832
65.8952 829 28.7924
66.0128 856 29.2575
66.1304 849 29.1376
66.2479 923 30.3809
66.3655 1009 31.7648
66.483 964 31.0483
66.6005 947 30.7734
66.718 968 31.1127
66.8355 914 30.2324
66.953 922 30.3645
67.0705 836 28.9137
67.1879 832 28.8444
67.3054 889 29.8161
67.4228 845 29.0689
67.5402 818 28.6007
67.6576 844 29.0517
67.7749 879 29.6479
67.8923 931 30.5123
68.0096 922 30.3645
68.1269 952 30.8545
68.2442 932 30.5287
68.3614 929 30.4795
68.4787 974 31.209
68.5958 983 31.3528
68.713 1014 31.8434
68.8302 985 31.3847
68.9473 940 30.6594
69.0643 937 30.6105
69.1814 980 31.305
69.2984 918 30.2985
69.4154 870 29.4958
69.5323 818 28.6007
69.6492 942 30.692
69.7661 927 30.4467
69.8829 1022 31.9687
69.9997 998 31.5911
70.1165 1041 32.2645
70.2332 1106 33.2566
70.3499 1135 33.6898
70.4665 1056 32.4962
70.5831 973 31.1929
70.6996 939 30.6431
70.8161 908 30.133
70.9326 946 30.7571
71.049 884 29.7321
71.1653 866 29.4279
71.2817 877 29.6142
71.3979 904 30.0666
71.5141 924 30.3974
71.6303 916 30.2655
71.7464 800 28.2843
71.8624 0 1
71.9784 0 1
72.0944 0 1
72.2102 0 1
72.3261 0 1
72.4418 0 1
72.5575 0 1
72.6732 0 1
75.1054 0 1
75.2209 0 1
75.3365 0 1
75.4521 0 1
75.5678 0 1
75.6835 0 1
75.7993 0 1
75.9151 0 1
76.031 0 1
76.147 813 28.5132
76.263 848 29.1204
76.3791 842 29.0172
76.4952 888 29.7993
76.6113 945 30.7409
76.7276 941 30.6757
76.8438 961 31
76.9601 1024 32
77.0765 948 30.7896
77.1929 1048 32.3728
77.3093 1025 32.0156
77.4258 995 31.5436
77.5423 1017 31.8904
77.6589 1043 32.2955
77.7755 1003 31.6702
77.8921 996 31.5595
78.0088 995 31.5436
78.1256 945 30.7409
78.2423 932 30.5287
78.3591 847 29.1033
78.4759 779 27.9106
78.5928 825 28.7228
78.7097 883 29.7153
78.8266 956 30.9192
78.9436 1042 32.28
79.0606 1047 32.3574
79.1776 1075 32.7872
79.2946 1038 32.218
79.4117 1054 32.4654
79.5288 1097 33.121
79.6459 983 31.3528
79.7631 886 29.7658
79.8802 820 28.6356
79.9974 844 29.0517
80.1147 828 28.775
80.2319 859 29.3087
80.3491 841 29
80.4664 900 30
80.5837 908 30.133
80.701 971 31.1609
80.8183 996 31.5595
80.9357 893 29.8831
81.053 966 31.0805
81.1704 926 30.4302
81.2877 895 29.9166
81.4051 968 31.1127
81.5225 892 29.8664
81.6399 904 30.0666
81.7573 880 29.6648
81.8747 829 28.7924
81.9922 787 28.0535
82.1096 774 27.8209
82.227 759 27.55
82.3444 758 27.5318
82.4619 821 28.6531
82.5793 873 29.5466
82.6967 894 29.8998
82.8142 995 31.5436
82.9316 992 31.496
83.049 966 31.0805
83.1664 940 30.6594
83.2838 858 29.2916
83.4012 769 27.7308
83.5186 700 26.4575
83.636 699 26.4386
83.7534 688 26.2298
83.8708 743 27.258
83.9881 802 28.3196
84.1055 797 28.2312
84.2228 827 28.7576
84.3401 871 29.5127
84.4575 892 29.8664
84.5747 951 30.8383
84.692 927 30.4467
84.8093 910 30.1662
84.9265 902 30.0333
85.0437 913 30.2159
85.1609 896 29.9333
85.2781 924 30.3974
85.3952 872 29.5296
85.5123 770 27.7489
85.6294 817 28.5832
85.7465 814 28.5307
85.8636 911 30.1828
85.9806 900 30
86.0976 972 31.1769
86.2145 977 31.257
86.3315 1049 32.3883
86.4484 972 31.1769
86.5652 1046 32.3419
86.682 1064 32.619
86.7988 1055 32.4808
86.9156 961 31
87.0323 907 30.1164
87.149 768 27.7128
87.2657 794 28.178
87.3823 898 29.9666
87.4988 924 30.3974
87.6154 991 31.4802
87.7318 993 31.5119
87.8483 1079 32.8481
87.9647 1044 32.311
88.081 1062 32.5883
88.1973 1085 32.9393
88.3136 1103 33.2114
88.4298 1193 34.5398
88.546 1104 33.2265
88.6621 1094 33.0757
88.7781 1066 32.6497
88.8942 0 1
89.0101 0 1
89.126 0 1
89.2419 0 1
89.3577 0 1
89.4734 0 1
89.5891 0 1
89.7047 0 1
89.8203 0 1
89.9358 0 1
92.3269 0 1
92.4424 0 1
92.558 0 1
92.6736 0 1
92.7893 0 1
92.905 0 1
93.0208 0 1
93.1366 0 1
93.2525 0 1
93.3685 0 1
93.4845 0 1
93.6005 1054 32.4654
93.7167 1138 33.7343
93.8328 1117 33.4215
93.949 1065 32.6343
94.0653 1050 32.4037
94.1816 994 31.5278
94.2979 1006 31.7175
94.4143 972 31.1769
94.5307 889 29.8161
94.6472 962 31.0161
94.7637 910 30.1662
94.8803 1021 31.9531
94.9969 1019 31.9218
95.1135 1048 32.3728
95.2302 1119 33.4515
95.3469 1041 32.2645
95.4637 1094 33.0757
95.5805 1159 34.0441
95.6973 1145 33.8378
95.8142 1095 33.0908
95.9311 1164 34.1174
96.048 1069 32.6956
96.1649 1025 32.0156
96.2819 974 31.209
96.3989 881 29.6816
96.516 835 28.8964
96.633 865 29.4109
96.7501 951 30.8383
96.8673 1078 32.8329
96.9844 1119 33.4515
97.1016 1095 33.0908
97.2188 1116 33.4066
97.336 1120 33.4664
97.4532 1141 33.7787
97.5704 1219 34.9142
97.6877 1094 33.0757
97.805 1080 32.8634
97.9223 1096 33.1059
98.0396 990 31.4643
98.1569 923 30.3809
98.2743 951 30.8383
98.3916 982 31.3369
98.509 950 30.8221
98.6264 1019 31.9218
98.7438 1067 32.665
98.8612 1124 33.5261
98.9786 1116 33.4066
99.096 1139 33.7491
99.2134 1120 33.4664
99.3308 1209 34.7707
99.4482 1221 34.9428
99.5656 1150 33.9116
99.6831 1096 33.1059
99.8005 1054 32.4654
99.9179 940 30.6594
100.035 926 30.4302
100.153 922 30.3645
100.27 1010 31.7805
100.388 1018 31.9061
100.505 1156 34
100.622 1102 33.1964
100.74 1103 33.2114
100.857 1144 33.8231
100.975 1143 33.8083
101.092 1078 32.8329
101.209 1161 34.0735
101.327 1060 32.5576
101.444 1055 32.4808
101.561 1020 31.9374
101.679 978 31.273
101.796 958 30.9516
101.913 961 31
102.03 974 31.209
102.148 976 31.241
102.265 1032 32.1248
102.382 1153 33.9559
102.499 1108 33.2866
102.616 1126 33.5559
102.733 1209 34.7707
102.851 1273 35.6791
102.968 1283 35.819
103.085 1172 34.2345
103.202 1176 34.2929
103.319 1161 34.0735
103.436 1030 32.0936
103.552 920 30.3315
103.669 960 30.9839
103.786 995 31.5436
103.903 1150 33.9116
104.02 1154 33.9706
104.137 1200 34.641
104.253 1184 34.4093
104.37 1208 34.7563
104.487 1222 34.9571
104.603 1174 34.2637
104.72 1226 35.0143
104.836 1185 34.4238
104.953 1177 34.3074
105.069 1064 32.619
105.186 1033 32.1403
105.302 1043 32.2955
105.418 1000 31.6228
105.535 1128 33.5857
105.651 1157 34.0147
105.767 1254 35.4119
105.883 1218 34.8999
105.999 1243 35.2562
106.115 0 1
106.231 0 1
106.347 0 1
106.463 0 1
106.579 0 1
106.694 0 1
106.81 0 1
106.926 0 1
107.041 0 1
107.157 0 1
109.576 0 1
109.692 0 1
109.807 0 1
109.923 0 1
110.039 0 1
110.155 0 1
110.27 0 1
110.386 0 1
110.502 0 1
110.618 1018 31.9061
110.735 1184 34.4093
110.851 1161 34.0735
110.967 1199 34.6266
111.083 1167 34.1614
111.199 1198 34.6121
111.316 1190 34.4964
111.432 1259 35.4824
111.549 1247 35.3129
111.665 1229 35.0571
111.782 1103 33.2114
111.898 1141 33.7787
112.015 926 30.4302
112.132 952 30.8545
112.248 898 29.9666
112.365 1007 31.7333
112.482 1097 33.121
112.599 1184 34.4093
112.716 1105 33.2415
112.832 1133 33.6601
112.949 1202 34.6699
113.066 1189 34.4819
113.183 1133 33.6601
113.3 1158 34.0294
113.417 1050 32.4037
113.534 1063 32.6037
113.652 978 31.273
113.769 988 31.4325
113.886 911 30.1828
114.003 970 31.1448
114.12 1037 32.2025
114.238 1098 33.1361
114.355 1145 33.8378
114.472 1163 34.1028
114.589 1214 34.8425
114.707 1134 33.6749
114.824 1110 33.3167
114.942 1163 34.1028
115.059 1261 35.5106
115.176 1195 34.5688
115.294 1132 33.6452
115.411 1048 32.3728
115.529 995 31.5436
115.646 992 31.496
115.764 897 29.95
115.881 930 30.4959
115.999 1021 31.9531
116.116 1158 34.0294
116.234 1084 32.9242
116.351 1143 33.8083
116.469 1122 33.4963
116.586 1065 32.6343
116.704 1147 33.8674
116.821 1135 33.6898
116.939 1074 32.7719
117.056 1015 31.8591
117.174 999 31.607
117.291 1017 31.8904
117.409 894 29.8998
117.526 936 30.5941
117.644 961 31
117.761 986 31.4006
117.879 1072 32.7414
117.996 1181 34.3657
118.114 1095 33.0908
118.231 1197 34.5977
118.349 1138 33.7343
118.466 1180 34.3511
118.584 1233 35.1141
118.701 1176 34.2929
118.819 1230 35.0714
118.936 1087 32.9697
119.053 1112 33.3467
119.171 994 31.5278
119.288 910 30.1662
119.405 878 29.6311
119.523 946 30.7571
119.64 1013 31.8277
119.757 1080 32.8634
119.875 1120 33.4664
119.992 1075 32.7872
120.109 1134 33.6749
120.226 1111 33.3317
120.343 1063 32.6037
120.46 1047 32.3574
120.578 1109 33.3017
120.695 1125 33.541
120.812 1001 31.6386
120.929 986 31.4006
121.046 952 30.8545
121.163 911 30.1828
121.279 981 31.3209
121.396 1007 31.7333
121.513 1105 33.2415
121.63 1171 34.2199
121.747 1070 32.7109
121.863 1175 34.2783
121.98 1185 34.4238
122.097 1151 33.9264
122.213 1170 34.2053
122.33 1132 33.6452
122.446 1123 33.5112
122.563 1121 33.4813
122.679 1128 33.5857
122.795 1060 32.5576
122.912 970 31.1448
123.028 875 29.5804
123.144 854 29.2233
123.26 864 29.3939
123.377 0 1
123.493 0 1
123.609 0 1
123.725 0 1
123.84 0 1
123.956 0 1
124.072 0 1
124.188 0 1
124.303 0 1
124.419 0 1
126.852 0 1
126.968 0 1
127.083 0 1
127.199 0 1
127.315 0 1
127.431 0 1
127.547 0 1
127.663 0 1
127.779 0 1
127.895 0 1
128.011 0 1
128.127 0 1
128.243 0 1
128.359 925 30.4138
128.476 1009 31.7648
128.592 1005 31.7017
128.708 1136 33.7046
128.825 1159 34.0441
128.941 1259 35.4824
129.058 1162 34.0881
129.174 1213 34.8281
129.291 1228 35.0428
129.408 1198 34.6121
129.524 1232 35.0999
129.641 1129 33.6006
129.758 1139 33.7491
129.875 1012 31.8119
129.992 1045 32.3265
130.108 977 31.257
130.225 982 31.3369
130.342 1083 32.909
130.459 1160 34.0588
130.576 1215 34.8569
130.693 1188 34.4674
130.81 1182 34.3802
130.928 1172 34.2345
131.045 1253 35.3977
131.162 1216 34.8712
131.279 1233 35.1141
131.396 1191 34.5109
131.513 1177 34.3074
131.631 1163 34.1028
131.748 1057 32.5115
131.865 968 31.1127
131.983 906 30.0998
132.1 953 30.8707
132.217 1102 33.1964
132.335 1149 33.8969
132.452 1283 35.819
132.57 1238 35.1852
132.687 1175 34.2783
132.804 1180 34.3511
132.922 1142 33.7935
133.039 1195 34.5688
133.157 1131 33.6303
133.274 1102 33.1964
133.392 1039 32.2335
133.509 1093 33.0606
133.627 952 30.8545
133.744 985 31.3847
133.862 1031 32.1092
133.979 1151 33.9264
134.097 1197 34.5977
134.214 1177 34.3074
134.332 1214 34.8425
134.449 1302 36.0832
134.567 1327 36.428
134.684 1270 35.6371
134.802 1189 34.4819
134.919 1244 35.2704
135.037 1275 35.7071
135.154 1203 34.6843
135.272 1173 34.2491
135.389 1082 32.8938
135.507 942 30.692
135.624 932 30.5287
135.742 1038 32.218
135.859 1063 32.6037
135.977 1219 34.9142
136.094 1210 34.7851
136.211 1171 34.2199
136.329 1245 35.2846
136.446 1139 33.7491
136.564 1199 34.6266
136.681 1143 33.8083
136.798 1171 34.2199
136.915 1093 33.0606
137.033 1080 32.8634
137.15 1057 32.5115
137.267 1007 31.7333
137.384 990 31.4643
137.502 1044 32.311
137.619 1116 33.4066
137.736 1131 33.6303
137.853 1191 34.5109
137.97 1183 34.3948
138.087 1213 34.8281
138.204 1294 35.9722
138.321 1250 35.3553
138.438 1192 34.5254
138.555 1243 35.2562
138.672 1242 35.242
138.788 1183 34.3948
138.905 1196 34.5832
139.022 1031 32.1092
139.139 967 31.0966
139.255 1059 32.5423
139.372 1069 32.6956
139.488 1155 33.9853
139.605 1226 35.0143
139.721 1226 35.0143
139.838 1225 35
139.954 1253 35.3977
140.071 1135 33.6898
140.187 1228 35.0428
140.303 1155 33.9853
140.419 1097 33.121
140.535 1095 33.0908
140.652 1052 32.4345
140.768 0 1
140.884 0 1
141 0 1
141.115 0 1
141.231 0 1
141.347 0 1
141.463 0 1
141.578 0 1
141.694 0 1
144.104 0 1
144.219 0 1
144.335 0 1
144.45 0 1
144.566 0 1
144.682 0 1
144.798 0 1
144.914 0 1
145.03 0 1
145.146 894 29.8998
145.262 891 29.8496
145.378 937 30.6105
145.494 905 30.0832
145.61 938 30.6268
145.726 859 29.3087
145.842 849 29.1376
145.959 840 28.9828
146.075 808 28.4253
146.192 860 29.3258
146.308 803 28.3373
146.425 870 29.4958
146.541 910 30.1662
146.658 959 30.9677
146.774 942 30.692
146.891 902 30.0333
147.008 948 30.7896
147.125 983 31.3528
147.241 962 31.0161
147.358 988 31.4325
147.475 935 30.5778
147.592 974 31.209
147.709 922 30.3645
147.826 894 29.8998
147.943 758 27.5318
148.06 825 28.7228
148.177 743 27.258
148.294 833 28.8617
148.411 873 29.5466
148.528 989 31.4484
148.645 952 30.8545
148.762 945 30.7409
148.88 909 30.1496
148.997 972 31.1769
149.114 927 30.4467
149.231 957 30.9354
149.349 969 31.1288
149.466 894 29.8998
149.583 840 28.9828
149.701 848 29.1204
149.818 814 28.5307
149.935 838 28.9482
150.053 831 28.8271
150.17 883 29.7153
150.287 959 30.9677
150.405 921 30.348
150.522 910 30.1662
150.64 1009 31.7648
150.757 989 31.4484
150.875 963 31.0322
150.992 968 31.1127
151.11 1018 31.9061
151.227 947 30.7734
151.344 1055 32.4808
151.462 941 30.6757
151.579 878 29.6311
151.697 850 29.1548
151.814 762 27.6043
151.932 803 28.3373
152.049 874 29.5635
152.167 950 30.8221
152.284 980 31.305
152.402 1023 31.9844
152.519 963 31.0322
152.636 1036 32.187
152.754 982 31.3369
152.871 1036 32.187
152.989 1025 32.0156
153.106 905 30.0832
153.223 903 30.05
153.341 855 29.2404
153.458 807 28.4077
153.575 843 29.0345
153.693 874 29.5635
153.81 895 29.9166
153.927 1017 31.8904
154.044 984 31.3688
154.162 1002 31.6544
154.279 1006 31.7175
154.396 1048 32.3728
154.513 1033 32.1403
154.63 1069 32.6956
154.747 1088 32.9848
154.864 1052 32.4345
154.981 1069 32.6956
155.098 956 30.9192
155.215 931 30.5123
155.332 878 29.6311
155.449 935 30.5778
155.566 971 31.1609
155.683 1043 32.2955
155.8 1059 32.5423
155.917 1053 32.45
156.033 997 31.5753
156.15 0 1
156.267 0 1
156.383 0 1
156.5 0 1
156.617 0 1
156.733 0 1
156.85 0 1
156.966 0 1
157.082 0 1
157.199 0 1
157.315 0 1
157.431 0 1
157.547 0 1
157.664 0 1
157.78 0 1
157.896 0 1
158.012 0 1
158.128 0 1
158.244 0 1
158.359 0 1
158.475 0 1
158.591 0 1
158.706 0 1
