
6.15755 0 1
6.2731 0 1
6.3887 0 1
6.50437 0 1
6.62009 0 1
6.73587 0 1
6.8517 0 1
6.96759 0 1
7.08353 0 1
7.19952 0 1
7.31557 0 1
7.43166 0 1
7.54781 0 1
7.664 0 1
7.78024 0 1
7.89653 0 1
8.01286 0 1
8.12924 0 1
8.24567 0 1
8.36213 0 1
8.47864 0 1
8.59519 0 1
8.71178 0 1
8.82841 0 1
8.94508 0 1
9.06179 0 1
9.17853 0 1
9.29531 0 1
9.41212 0 1
9.52897 0 1
9.64584 0 1
9.76276 0 1
9.8797 0 1
9.99667 0 1
10.1137 0 1
10.2307 0 1
10.3478 0 1
10.4648 0 1
10.5819 0 1
10.6991 0 1
10.8162 0 1
10.9334 0 1
11.0506 0 1
11.1678 0 1
11.285 0 1
11.4023 0 1
11.5196 0 1
11.6369 0 1
11.7542 0 1
11.8715 0 1
11.9888 0 1
12.1062 0 1
12.2235 0 1
12.3409 0 1
12.4582 0 1
12.5756 0 1
12.693 0 1
12.8104 0 1
12.9278 0 1
13.0452 0 1
13.1626 0 1
13.28 0 1
13.3974 0 1
13.5149 0 1
13.6323 0 1
13.7497 0 1
13.8671 0 1
13.9845 0 1
14.1019 0 1
14.2193 0 1
14.3367 0 1
14.4541 0 1
14.5714 0 1
14.6888 0 1
14.8062 0 1
14.9235 0 1
15.0408 734 27.0924
15.1581 823 28.688
15.2755 808 28.4253
15.3927 863 29.3769
15.51 899 29.9833
15.6273 893 29.8831
15.7445 921 30.348
15.8617 872 29.5296
15.9789 836 28.9137
16.0961 879 29.6479
16.2132 766 27.6767
16.3304 837 28.931
16.4475 770 27.7489
16.5646 837 28.931
16.6816 817 28.5832
16.7986 760 27.5681
16.9156 735 27.1109
17.0326 742 27.2397
17.1496 756 27.4955
17.2665 717 26.7769
17.3833 771 27.7669
17.5002 748 27.3496
17.617 812 28.4956
17.7338 757 27.5136
17.8505 805 28.3725
17.9672 900 30
18.0839 851 29.1719
18.2005 866 29.4279
18.3171 929 30.4795
18.4337 935 30.5778
18.5502 896 29.9333
18.6666 938 30.6268
18.7831 925 30.4138
18.8994 950 30.8221
19.0158 910 30.1662
19.1321 934 30.5614
19.2483 840 28.9828
19.3645 853 29.2062
19.4806 839 28.9655
19.5967 829 28.7924
19.7128 838 28.9482
19.8288 834 28.8791
19.9447 736 27.1293
20.0606 0 1
20.1764 0 1
20.2922 0 1
20.4079 0 1
20.5236 0 1
20.6392 0 1
20.7548 0 1
20.8702 0 1
23.3078 0 1
23.4233 0 1
23.539 0 1
23.6547 0 1
23.7704 0 1
23.8862 0 1
24.0021 0 1
24.118 0 1
24.234 0 1
24.35 0 1
24.4661 866 29.4279
24.5822 836 28.9137
24.6984 784 28
24.8146 815 28.5482
24.9309 828 28.775
25.0472 836 28.9137
25.1636 823 28.688
25.28 926 30.4302
25.3965 914 30.2324
25.513 905 30.0832
25.6296 891 29.8496
25.7462 911 30.1828
25.8628 870 29.4958
25.9795 909 30.1496
26.0962 949 30.8058
26.213 956 30.9192
26.3298 936 30.5941
26.4466 953 30.8707
26.5635 950 30.8221
26.6804 853 29.2062
26.7973 920 30.3315
26.9143 847 29.1033
27.0313 809 28.4429
27.1483 793 28.1603
27.2653 875 29.5804
27.3824 809 28.4429
27.4996 828 28.775
27.6167 866 29.4279
27.7339 850 29.1548
27.8511 842 29.0172
27.9683 842 29.0172
28.0855 821 28.6531
28.2028 887 29.7825
28.3201 854 29.2233
28.4374 764 27.6405
28.5547 873 29.5466
28.6721 810 28.4605
28.7894 851 29.1719
28.9068 907 30.1164
29.0242 845 29.0689
29.1416 832 28.8444
29.259 848 29.1204
29.3764 883 29.7153
29.4939 859 29.3087
29.6113 758 27.5318
29.7288 750 27.3861
29.8463 778 27.8927
29.9638 752 27.4226
30.0812 739 27.1846
30.1987 780 27.9285
30.3162 804 28.3549
30.4337 776 27.8568
30.5512 775 27.8388
30.6687 820 28.6356
30.7862 717 26.7769
30.9037 752 27.4226
31.0212 820 28.6356
31.1387 894 29.8998
31.2562 853 29.2062
31.3737 851 29.1719
31.4912 870 29.4958
31.6087 875 29.5804
31.7262 907 30.1164
31.8436 855 29.2404
31.9611 850 29.1548
32.0785 863 29.3769
32.1959 842 29.0172
32.3134 856 29.2575
32.4308 854 29.2233
32.5482 809 28.4429
32.6655 768 27.7128
32.7829 819 28.6182
32.9002 782 27.9643
33.0176 781 27.9464
33.1349 775 27.8388
33.2522 807 28.4077
33.3694 690 26.2679
33.4867 735 27.1109
33.6039 727 26.9629
33.7211 754 27.4591
33.8383 765 27.6586
33.9554 797 28.2312
34.0725 773 27.8029
34.1896 791 28.1247
34.3067 766 27.6767
34.4237 694 26.3439
34.5407 820 28.6356
34.6577 854 29.2233
34.7746 903 30.05
34.8915 878 29.6311
35.0084 903 30.05
35.1252 894 29.8998
35.242 854 29.2233
35.3587 872 29.5296
35.4755 851 29.1719
35.5921 863 29.3769
35.7088 873 29.5466
35.8254 801 28.3019
35.9419 794 28.178
36.0584 794 28.178
36.1749 763 27.6225
36.2913 770 27.7489
36.4077 733 27.074
36.524 742 27.2397
36.6403 728 26.9815
36.7565 674 25.9615
36.8727 716 26.7582
36.9889 697 26.4008
37.1049 671 25.9037
37.221 0 1
37.3369 0 1
37.4529 0 1
37.5687 0 1
37.6845 0 1
37.8003 0 1
37.916 0 1
38.0316 0 1
38.1472 0 1
40.5851 0 1
40.7008 0 1
40.8164 0 1
40.9322 0 1
41.048 0 1
41.1639 0 1
41.2798 0 1
41.3958 0 1
41.5118 0 1
41.6279 0 1
41.744 568 23.8328
41.8602 554 23.5372
41.9765 581 24.1039
42.0928 588 24.2487
42.2091 565 23.7697
42.3255 522 22.8473
42.4419 546 23.3666
42.5584 568 23.8328
42.675 567 23.8118
42.7915 581 24.1039
42.9081 667 25.8263
43.0248 644 25.3772
43.1415 565 23.7697
43.2582 574 23.9583
43.375 588 24.2487
43.4918 681 26.096
43.6087 674 25.9615
43.7256 616 24.8193
43.8425 625 25
43.9595 631 25.1197
44.0765 620 24.8998
44.1935 593 24.3516
44.3106 559 23.6432
44.4277 602 24.5357
44.5448 558 23.622
44.6619 508 22.5389
44.7791 540 23.2379
44.8963 520 22.8035
45.0136 502 22.4054
45.1308 561 23.6854
45.2481 510 22.5832
45.3654 470 21.6795
45.4827 466 21.587
45.6001 460 21.4476
45.7174 440 20.9762
45.8348 449 21.1896
45.9522 382 19.5448
46.0697 408 20.199
46.1871 425 20.6155
46.3046 504 22.4499
46.422 490 22.1359
46.5395 463 21.5174
46.657 442 21.0238
46.7745 387 19.6723
46.892 380 19.4936
47.0096 431 20.7605
47.1271 451 21.2368
47.2446 484 22
47.3622 438 20.9284
47.4797 436 20.8806
47.5973 407 20.1742
47.7149 419 20.4695
47.8324 418 20.445
47.95 389 19.7231
48.0675 374 19.3391
48.1851 381 19.5192
48.3027 419 20.4695
48.4202 417 20.4206
48.5378 421 20.5183
48.6554 396 19.8997
48.7729 403 20.0749
48.8904 429 20.7123
49.008 398 19.9499
49.1255 362 19.0263
49.243 335 18.303
49.3605 352 18.7617
49.478 365 19.105
49.5955 361 19
49.713 382 19.5448
49.8304 390 19.7484
49.9479 416 20.3961
50.0653 414 20.347
50.1827 385 19.6214
50.3001 358 18.9209
50.4175 367 19.1572
50.5348 428 20.6882
50.6521 456 21.3542
50.7694 490 22.1359
50.8867 435 20.8567
51.004 486 22.0454
51.1212 497 22.2935
51.2384 496 22.2711
51.3556 499 22.3383
51.4727 485 22.0227
51.5899 538 23.1948
51.707 470 21.6795
51.824 474 21.7715
51.9411 481 21.9317
52.0581 516 22.7156
52.175 525 22.9129
52.2919 526 22.9347
52.4088 520 22.8035
52.5257 518 22.7596
52.6425 550 23.4521
52.7593 531 23.0434
52.876 529 23
52.9927 514 22.6716
53.1094 505 22.4722
53.226 550 23.4521
53.3426 542 23.2809
53.4591 556 23.5797
53.5756 602 24.5357
53.692 558 23.622
53.8084 527 22.9565
53.9248 444 21.0713
54.0411 478 21.8632
54.1573 614 24.779
54.2735 0 1
54.3896 0 1
54.5057 0 1
54.6217 0 1
54.7377 0 1
54.8537 0 1
54.9695 0 1
55.0853 0 1
55.2011 0 1
55.3168 0 1
55.4324 0 1
57.824 0 1
57.9396 0 1
58.0553 0 1
58.1711 0 1
58.2869 0 1
58.4028 0 1
58.5187 0 1
58.6347 0 1
58.7508 0 1
58.8669 0 1
58.983 547 23.388
59.0992 583 24.1454
59.2155 588 24.2487
59.3318 701 26.4764
59.4482 748 27.3496
59.5646 705 26.5518
59.681 711 26.6646
59.7975 669 25.865
59.9141 676 26
60.0306 708 26.6083
60.1473 667 25.8263
60.2639 658 25.6515
60.3807 644 25.3772
60.4974 619 24.8797
60.6142 691 26.2869
60.731 668 25.8457
60.8479 648 25.4558
60.9648 647 25.4362
61.0818 630 25.0998
61.1987 646 25.4165
61.3158 580 24.0832
61.4328 608 24.6577
61.5499 588 24.2487
61.667 564 23.7487
61.7841 576 24
61.9013 596 24.4131
62.0185 558 23.622
62.1357 554 23.5372
62.253 536 23.1517
62.3702 515 22.6936
62.4875 507 22.5167
62.6049 491 22.1585
62.7222 556 23.5797
62.8396 629 25.0799
62.9569 617 24.8395
63.0743 633 25.1595
63.1918 616 24.8193
63.3092 605 24.5967
63.4267 589 24.2693
63.5441 635 25.1992
63.6616 554 23.5372
63.7791 591 24.3105
63.8966 563 23.7276
64.0142 588 24.2487
64.1317 601 24.5153
64.2492 648 25.4558
64.3668 628 25.0599
64.4843 588 24.2487
64.6019 610 24.6982
64.7195 567 23.8118
64.837 537 23.1733
64.9546 497 22.2935
65.0722 537 23.1733
65.1898 504 22.4499
65.3074 518 22.7596
65.4249 504 22.4499
65.5425 530 23.0217
65.6601 555 23.5584
65.7777 545 23.3452
65.8952 533 23.0868
66.0128 461 21.4709
66.1304 462 21.4942
66.2479 517 22.7376
66.3655 527 22.9565
66.483 592 24.3311
66.6005 648 25.4558
66.718 620 24.8998
66.8355 583 24.1454
66.953 568 23.8328
67.0705 596 24.4131
67.1879 556 23.5797
67.3054 561 23.6854
67.4228 579 24.0624
67.5402 537 23.1733
67.6576 596 24.4131
67.7749 601 24.5153
67.8923 611 24.7184
68.0096 611 24.7184
68.1269 548 23.4094
68.2442 623 24.96
68.3614 604 24.5764
68.4787 549 23.4307
68.5958 566 23.7908
68.713 528 22.9783
68.8302 576 24
68.9473 548 23.4094
69.0643 569 23.8537
69.1814 545 23.3452
69.2984 626 25.02
69.4154 564 23.7487
69.5323 567 23.8118
69.6492 502 22.4054
69.7661 489 22.1133
69.8829 596 24.4131
69.9997 557 23.6008
70.1165 684 26.1534
70.2332 671 25.9037
70.3499 633 25.1595
70.4665 709 26.6271
70.5831 650 25.4951
70.6996 647 25.4362
70.8161 664 25.7682
70.9326 592 24.3311
71.049 616 24.8193
71.1653 594 24.3721
71.2817 605 24.5967
71.3979 629 25.0799
71.5141 585 24.1868
71.6303 597 24.4336
71.7464 589 24.2693
71.8624 0 1
71.9784 0 1
72.0944 0 1
72.2102 0 1
72.3261 0 1
72.4418 0 1
72.5575 0 1
72.6732 0 1
75.1054 0 1
75.2209 0 1
75.3365 0 1
75.4521 0 1
75.5678 0 1
75.6835 0 1
75.7993 0 1
75.9151 0 1
76.031 0 1
76.147 621 24.9199
76.263 664 25.7682
76.3791 618 24.8596
76.4952 621 24.9199
76.6113 649 25.4755
76.7276 638 25.2587
76.8438 647 25.4362
76.9601 629 25.0799
77.0765 695 26.3629
77.1929 696 26.3818
77.3093 636 25.219
77.4258 659 25.671
77.5423 593 24.3516
77.6589 626 25.02
77.7755 498 22.3159
77.8921 538 23.1948
78.0088 528 22.9783
78.1256 538 23.1948
78.2423 578 24.0416
78.3591 599 24.4745
78.4759 585 24.1868
78.5928 537 23.1733
78.7097 487 22.0681
78.8266 432 20.7846
78.9436 484 22
79.0606 546 23.3666
79.1776 592 24.3311
79.2946 669 25.865
79.4117 658 25.6515
79.5288 641 25.318
79.6459 612 24.7386
79.7631 661 25.7099
79.8802 629 25.0799
79.9974 613 24.7588
80.1147 592 24.3311
80.2319 561 23.6854
80.3491 592 24.3311
80.4664 543 23.3024
80.5837 605 24.5967
80.701 603 24.5561
80.8183 627 25.04
80.9357 634 25.1794
81.053 613 24.7588
81.1704 552 23.4947
81.2877 609 24.6779
81.4051 523 22.8692
81.5225 522 22.8473
81.6399 511 22.6053
81.7573 544 23.3238
81.8747 587 24.2281
81.9922 555 23.5584
82.1096 561 23.6854
82.227 531 23.0434
82.3444 476 21.8174
82.4619 463 21.5174
82.5793 467 21.6102
82.6967 521 22.8254
82.8142 603 24.5561
82.9316 596 24.4131
83.049 585 24.1868
83.1664 579 24.0624
83.2838 586 24.2074
83.4012 574 23.9583
83.5186 595 24.3926
83.636 584 24.1661
83.7534 577 24.0208
83.8708 530 23.0217
83.9881 599 24.4745
84.1055 585 24.1868
84.2228 613 24.7588
84.3401 636 25.219
84.4575 603 24.5561
84.5747 580 24.0832
84.692 549 23.4307
84.8093 555 23.5584
84.9265 527 22.9565
85.0437 523 22.8692
85.1609 512 22.6274
85.2781 540 23.2379
85.3952 519 22.7816
85.5123 568 23.8328
85.6294 566 23.7908
85.7465 566 23.7908
85.8636 578 24.0416
85.9806 506 22.4944
86.0976 452 21.2603
86.2145 539 23.2164
86.3315 612 24.7386
86.4484 602 24.5357
86.5652 707 26.5895
86.682 673 25.9422
86.7988 658 25.6515
86.9156 623 24.96
87.0323 643 25.3574
87.149 650 25.4951
87.2657 632 25.1396
87.3823 675 25.9808
87.4988 678 26.0384
87.6154 689 26.2488
87.7318 699 26.4386
87.8483 713 26.7021
87.9647 735 27.1109
88.081 724 26.9072
88.1973 723 26.8887
88.3136 706 26.5707
88.4298 673 25.9422
88.546 690 26.2679
88.6621 642 25.3377
88.7781 633 25.1595
88.8942 0 1
89.0101 0 1
89.126 0 1
89.2419 0 1
89.3577 0 1
89.4734 0 1
89.5891 0 1
89.7047 0 1
89.8203 0 1
89.9358 0 1
92.3269 0 1
92.4424 0 1
92.558 0 1
92.6736 0 1
92.7893 0 1
92.905 0 1
93.0208 0 1
93.1366 0 1
93.2525 0 1
93.3685 0 1
93.4845 0 1
93.6005 809 28.4429
93.7167 728 26.9815
93.8328 736 27.1293
93.949 745 27.2947
94.0653 708 26.6083
94.1816 682 26.1151
94.2979 634 25.1794
94.4143 697 26.4008
94.5307 623 24.96
94.6472 752 27.4226
94.7637 774 27.8209
94.8803 731 27.037
94.9969 724 26.9072
95.1135 716 26.7582
95.2302 685 26.1725
95.3469 743 27.258
95.4637 737 27.1477
95.5805 795 28.1957
95.6973 835 28.8964
95.8142 813 28.5132
95.9311 807 28.4077
96.048 800 28.2843
96.1649 856 29.2575
96.2819 806 28.3901
96.3989 799 28.2666
96.516 809 28.4429
96.633 773 27.8029
96.7501 771 27.7669
96.8673 800 28.2843
96.9844 828 28.775
97.1016 822 28.6705
97.2188 856 29.2575
97.336 856 29.2575
97.4532 821 28.6531
97.5704 766 27.6767
97.6877 754 27.4591
97.805 769 27.7308
97.9223 704 26.533
98.0396 761 27.5862
98.1569 742 27.2397
98.2743 779 27.9106
98.3916 847 29.1033
98.509 777 27.8747
98.6264 785 28.0179
98.7438 809 28.4429
98.8612 731 27.037
98.9786 720 26.8328
99.096 814 28.5307
99.2134 823 28.688
99.3308 883 29.7153
99.4482 900 30
99.5656 871 29.5127
99.6831 803 28.3373
99.8005 810 28.4605
99.9179 814 28.5307
100.035 839 28.9655
100.153 816 28.5657
100.27 842 29.0172
100.388 862 29.3598
100.505 889 29.8161
100.622 911 30.1828
100.74 960 30.9839
100.857 894 29.8998
100.975 867 29.4449
101.092 877 29.6142
101.209 881 29.6816
101.327 816 28.5657
101.444 846 29.0861
101.561 768 27.7128
101.679 782 27.9643
101.796 832 28.8444
101.913 808 28.4253
102.03 870 29.4958
102.148 867 29.4449
102.265 830 28.8097
102.382 875 29.5804
102.499 847 29.1033
102.616 911 30.1828
102.733 887 29.7825
102.851 895 29.9166
102.968 958 30.9516
103.085 957 30.9354
103.202 974 31.209
103.319 907 30.1164
103.436 909 30.1496
103.552 944 30.7246
103.669 917 30.282
103.786 959 30.9677
103.903 1014 31.8434
104.02 932 30.5287
104.137 1005 31.7017
104.253 1059 32.5423
104.37 1041 32.2645
104.487 1092 33.0454
104.603 1010 31.7805
104.72 1027 32.0468
104.836 990 31.4643
104.953 900 30
105.069 888 29.7993
105.186 971 31.1609
105.302 987 31.4166
105.418 1027 32.0468
105.535 1067 32.665
105.651 1097 33.121
105.767 1012 31.8119
105.883 952 30.8545
105.999 1020 31.9374
106.115 0 1
106.231 0 1
106.347 0 1
106.463 0 1
106.579 0 1
106.694 0 1
106.81 0 1
106.926 0 1
107.041 0 1
107.157 0 1
109.576 0 1
109.692 0 1
109.807 0 1
109.923 0 1
110.039 0 1
110.155 0 1
110.27 0 1
110.386 0 1
110.502 0 1
110.618 1128 33.5857
110.735 1089 33
110.851 1061 32.573
110.967 973 31.1929
111.083 995 31.5436
111.199 1066 32.6497
111.316 1068 32.6803
111.432 1091 33.0303
111.549 1126 33.5559
111.665 1075 32.7872
111.782 1040 32.249
111.898 1070 32.7109
112.015 1098 33.1361
112.132 1075 32.7872
112.248 1073 32.7567
112.365 1002 31.6544
112.482 993 31.5119
112.599 1069 32.6956
112.716 1143 33.8083
112.832 1183 34.3948
112.949 1171 34.2199
113.066 1140 33.7639
113.183 1056 32.4962
113.3 1144 33.8231
113.417 1029 32.078
113.534 987 31.4166
113.652 977 31.257
113.769 993 31.5119
113.886 1028 32.0624
114.003 1106 33.2566
114.12 1118 33.4365
114.238 1105 33.2415
114.355 1000 31.6228
114.472 1066 32.6497
114.589 1030 32.0936
114.707 1016 31.8748
114.824 1078 32.8329
114.942 1117 33.4215
115.059 1156 34
115.176 1125 33.541
115.294 1051 32.4191
115.411 1037 32.2025
115.529 1078 32.8329
115.646 1038 32.218
115.764 1030 32.0936
115.881 1012 31.8119
115.999 1033 32.1403
116.116 1043 32.2955
116.234 1131 33.6303
116.351 1161 34.0735
116.469 1177 34.3074
116.586 1181 34.3657
116.704 1277 35.7351
116.821 1216 34.8712
116.939 1183 34.3948
117.056 1156 34
117.174 1169 34.1906
117.291 1148 33.8821
117.409 1085 32.9393
117.526 1089 33
117.644 1178 34.322
117.761 1167 34.1614
117.879 1155 33.9853
117.996 1103 33.2114
118.114 1072 32.7414
118.231 1068 32.6803
118.349 1122 33.4963
118.466 1068 32.6803
118.584 1198 34.6121
118.701 1146 33.8526
118.819 1163 34.1028
118.936 1163 34.1028
119.053 1078 32.8329
119.171 1072 32.7414
119.288 1054 32.4654
119.405 1153 33.9559
119.523 1103 33.2114
119.64 1082 32.8938
119.757 1033 32.1403
119.875 1098 33.1361
119.992 1120 33.4664
120.109 1232 35.0999
120.226 1286 35.8608
120.343 1257 35.4542
120.46 1223 34.9714
120.578 1255 35.426
120.695 1200 34.641
120.812 1174 34.2637
120.929 1153 33.9559
121.046 1125 33.541
121.163 1151 33.9264
121.279 1255 35.426
121.396 1186 34.4384
121.513 1167 34.1614
121.63 1204 34.6987
121.747 1141 33.7787
121.863 1067 32.665
121.98 1075 32.7872
122.097 1159 34.0441
122.213 1102 33.1964
122.33 1134 33.6749
122.446 1110 33.3167
122.563 1098 33.1361
122.679 1119 33.4515
122.795 1051 32.4191
122.912 1015 31.8591
123.028 1026 32.0312
123.144 1018 31.9061
123.26 1028 32.0624
123.377 0 1
123.493 0 1
123.609 0 1
123.725 0 1
123.84 0 1
123.956 0 1
124.072 0 1
124.188 0 1
124.303 0 1
124.419 0 1
126.852 0 1
126.968 0 1
127.083 0 1
127.199 0 1
127.315 0 1
127.431 0 1
127.547 0 1
127.663 0 1
127.779 0 1
127.895 0 1
128.011 0 1
128.127 0 1
128.243 0 1
128.359 1321 36.3456
128.476 1273 35.6791
128.592 1265 35.5668
128.708 1286 35.8608
128.825 1335 36.5377
128.941 1242 35.242
129.058 1326 36.4143
129.174 1325 36.4005
129.291 1371 37.027
129.408 1365 36.9459
129.524 1345 36.6742
129.641 1375 37.081
129.758 1433 37.855
129.875 1466 38.2884
129.992 1432 37.8418
130.108 1444 38
130.225 1381 37.1618
130.342 1548 39.3446
130.459 1400 37.4166
130.576 1528 39.0896
130.693 1452 38.1051
130.81 1415 37.6165
130.928 1446 38.0263
131.045 1438 37.921
131.162 1482 38.4968
131.279 1573 39.6611
131.396 1502 38.7556
131.513 1509 38.8458
131.631 1493 38.6394
131.748 1483 38.5097
131.865 1453 38.1182
131.983 1400 37.4166
132.1 1388 37.2559
132.217 1361 36.8917
132.335 1362 36.9053
132.452 1448 38.0526
132.57 1414 37.6032
132.687 1342 36.6333
132.804 1476 38.4187
132.922 1427 37.7757
133.039 1489 38.5876
133.157 1467 38.3014
133.274 1460 38.2099
133.392 1440 37.9473
133.509 1515 38.923
133.627 1506 38.8072
133.744 1499 38.7169
133.862 1533 39.1535
133.979 1607 40.0874
134.097 1614 40.1746
134.214 1636 40.4475
134.332 1626 40.3237
134.449 1537 39.2046
134.567 1559 39.4842
134.684 1666 40.8167
134.802 1611 40.1373
134.919 1681 41
135.037 1562 39.5221
135.154 1660 40.7431
135.272 1531 39.128
135.389 1573 39.6611
135.507 1538 39.2173
135.624 1563 39.5348
135.742 1519 38.9744
135.859 1512 38.8844
135.977 1476 38.4187
136.094 1450 38.0789
136.211 1535 39.1791
136.329 1559 39.4842
136.446 1511 38.8716
136.564 1504 38.7814
136.681 1537 39.2046
136.798 1493 38.6394
136.915 1546 39.3192
137.033 1516 38.9358
137.15 1490 38.6005
137.267 1478 38.4448
137.384 1599 39.9875
137.502 1566 39.5727
137.619 1621 40.2616
137.736 1640 40.4969
137.853 1652 40.6448
137.97 1640 40.4969
138.087 1634 40.4228
138.204 1721 41.4849
138.321 1773 42.107
138.438 1684 41.0366
138.555 1727 41.5572
138.672 1752 41.8569
138.788 1758 41.9285
138.905 1708 41.328
139.022 1694 41.1582
139.139 1802 42.45
139.255 1744 41.7612
139.372 1626 40.3237
139.488 1565 39.5601
139.605 1598 39.975
139.721 1596 39.95
139.838 1612 40.1497
139.954 1541 39.2556
140.071 1540 39.2428
140.187 1552 39.3954
140.303 1642 40.5216
140.419 1540 39.2428
140.535 1604 40.05
140.652 1558 39.4715
140.768 0 1
140.884 0 1
141 0 1
141.115 0 1
141.231 0 1
141.347 0 1
141.463 0 1
141.578 0 1
141.694 0 1
144.104 0 1
144.219 0 1
144.335 0 1
144.45 0 1
144.566 0 1
144.682 0 1
144.798 0 1
144.914 0 1
145.03 0 1
145.146 1241 35.2278
145.262 1342 36.6333
145.378 1408 37.5233
145.494 1444 38
145.61 1450 38.0789
145.726 1395 37.3497
145.842 1363 36.9188
145.959 1469 38.3275
146.075 1446 38.0263
146.192 1426 37.7624
146.308 1366 36.9594
146.425 1401 37.4299
146.541 1354 36.7967
146.658 1440 37.9473
146.774 1425 37.7492
146.891 1286 35.8608
147.008 1347 36.7015
147.125 1235 35.1426
147.241 1303 36.0971
147.358 1369 37
147.475 1304 36.1109
147.592 1498 38.704
147.709 1411 37.5633
147.826 1380 37.1484
147.943 1435 37.8814
148.06 1460 38.2099
148.177 1455 38.1445
148.294 1409 37.5366
148.411 1427 37.7757
148.528 1585 39.8121
148.645 1515 38.923
148.762 1549 39.3573
148.88 1534 39.1663
148.997 1534 39.1663
149.114 1578 39.724
149.231 1572 39.6485
149.349 1579 39.7366
149.466 1680 40.9878
149.583 1547 39.3319
149.701 1611 40.1373
149.818 1574 39.6737
149.935 1597 39.9625
150.053 1585 39.8121
150.17 1608 40.0999
150.287 1545 39.3065
150.405 1559 39.4842
150.522 1559 39.4842
150.64 1492 38.6264
150.757 1454 38.1314
150.875 1355 36.8103
150.992 1418 37.6563
151.11 1390 37.2827
151.227 1363 36.9188
151.344 1307 36.1525
151.462 1301 36.0694
151.579 1246 35.2987
151.697 1306 36.1386
151.814 1243 35.2562
151.932 1314 36.2491
152.049 1257 35.4542
152.167 1290 35.9166
152.284 1326 36.4143
152.402 1334 36.524
152.519 1414 37.6032
152.636 1368 36.9865
152.754 1377 37.108
152.871 1483 38.5097
152.989 1455 38.1445
153.106 1437 37.9078
153.223 1551 39.3827
153.341 1560 39.4968
153.458 1574 39.6737
153.575 1571 39.6358
153.693 1556 39.4462
153.81 1624 40.2989
153.927 1609 40.1123
154.044 1580 39.7492
154.162 1607 40.0874
154.279 1563 39.5348
154.396 1584 39.7995
154.513 1626 40.3237
154.63 1577 39.7115
154.747 1688 41.0853
154.864 1591 39.8873
154.981 1653 40.6571
155.098 1571 39.6358
155.215 1578 39.724
155.332 1518 38.9615
155.449 1443 37.9868
155.566 1376 37.0945
155.683 1386 37.229
155.8 1292 35.9444
155.917 1224 34.9857
156.033 1178 34.322
156.15 0 1
156.267 0 1
156.383 0 1
156.5 0 1
156.617 0 1
156.733 0 1
156.85 0 1
156.966 0 1
157.082 0 1
157.199 0 1
157.315 0 1
157.431 0 1
157.547 0 1
157.664 0 1
157.78 0 1
157.896 0 1
158.012 0 1
158.128 0 1
158.244 0 1
158.359 0 1
158.475 0 1
158.591 0 1
158.706 0 1
