
6.15755 0 1
6.2731 0 1
6.3887 0 1
6.50437 0 1
6.62009 0 1
6.73587 0 1
6.8517 0 1
6.96759 0 1
7.08353 0 1
7.19952 0 1
7.31557 0 1
7.43166 0 1
7.54781 0 1
7.664 0 1
7.78024 0 1
7.89653 0 1
8.01286 0 1
8.12924 0 1
8.24567 0 1
8.36213 0 1
8.47864 0 1
8.59519 0 1
8.71178 0 1
8.82841 0 1
8.94508 0 1
9.06179 0 1
9.17853 0 1
9.29531 0 1
9.41212 0 1
9.52897 0 1
9.64584 0 1
9.76276 0 1
9.8797 0 1
9.99667 0 1
10.1137 0 1
10.2307 0 1
10.3478 0 1
10.4648 0 1
10.5819 0 1
10.6991 0 1
10.8162 0 1
10.9334 0 1
11.0506 0 1
11.1678 0 1
11.285 0 1
11.4023 0 1
11.5196 0 1
11.6369 0 1
11.7542 0 1
11.8715 0 1
11.9888 0 1
12.1062 0 1
12.2235 0 1
12.3409 0 1
12.4582 0 1
12.5756 0 1
12.693 0 1
12.8104 0 1
12.9278 0 1
13.0452 0 1
13.1626 0 1
13.28 0 1
13.3974 0 1
13.5149 0 1
13.6323 0 1
13.7497 0 1
13.8671 0 1
13.9845 0 1
14.1019 0 1
14.2193 0 1
14.3367 0 1
14.4541 0 1
14.5714 0 1
14.6888 0 1
14.8062 0 1
14.9235 0 1
15.0408 734 27.0924
15.1581 746 27.313
15.2755 762 27.6043
15.3927 734 27.0924
15.51 766 27.6767
15.6273 733 27.074
15.7445 755 27.4773
15.8617 691 26.2869
15.9789 716 26.7582
16.0961 727 26.9629
16.2132 672 25.923
16.3304 706 26.5707
16.4475 674 25.9615
16.5646 704 26.533
16.6816 656 25.6125
16.7986 635 25.1992
16.9156 603 24.5561
17.0326 618 24.8596
17.1496 633 25.1595
17.2665 632 25.1396
17.3833 587 24.2281
17.5002 604 24.5764
17.617 653 25.5539
17.7338 659 25.671
17.8505 615 24.7992
17.9672 605 24.5967
18.0839 644 25.3772
18.2005 634 25.1794
18.3171 633 25.1595
18.4337 657 25.632
18.5502 612 24.7386
18.6666 645 25.3969
18.7831 626 25.02
18.8994 605 24.5967
19.0158 588 24.2487
19.1321 592 24.3311
19.2483 533 23.0868
19.3645 522 22.8473
19.4806 517 22.7376
19.5967 494 22.2261
19.7128 498 22.3159
19.8288 488 22.0907
19.9447 436 20.8806
20.0606 0 1
20.1764 0 1
20.2922 0 1
20.4079 0 1
20.5236 0 1
20.6392 0 1
20.7548 0 1
20.8702 0 1
23.3078 0 1
23.4233 0 1
23.539 0 1
23.6547 0 1
23.7704 0 1
23.8862 0 1
24.0021 0 1
24.118 0 1
24.234 0 1
24.35 0 1
24.4661 258 16.0624
24.5822 312 17.6635
24.6984 328 18.1108
24.8146 357 18.8944
24.9309 414 20.347
25.0472 515 22.6936
25.1636 584 24.1661
25.28 625 25
25.3965 633 25.1595
25.513 669 25.865
25.6296 712 26.6833
25.7462 738 27.1662
25.8628 708 26.6083
25.9795 679 26.0576
26.0962 648 25.4558
26.213 657 25.632
26.3298 673 25.9422
26.4466 627 25.04
26.5635 497 22.2935
26.6804 588 24.2487
26.7973 573 23.9374
26.9143 559 23.6432
27.0313 576 24
27.1483 602 24.5357
27.2653 584 24.1661
27.3824 566 23.7908
27.4996 580 24.0832
27.6167 585 24.1868
27.7339 576 24
27.8511 569 23.8537
27.9683 556 23.5797
28.0855 586 24.2074
28.2028 578 24.0416
28.3201 582 24.1247
28.4374 582 24.1247
28.5547 595 24.3926
28.6721 644 25.3772
28.7894 630 25.0998
28.9068 604 24.5764
29.0242 616 24.8193
29.1416 575 23.9792
29.259 599 24.4745
29.3764 586 24.2074
29.4939 557 23.6008
29.6113 577 24.0208
29.7288 553 23.516
29.8463 582 24.1247
29.9638 572 23.9165
30.0812 576 24
30.1987 593 24.3516
30.3162 545 23.3452
30.4337 541 23.2594
30.5512 593 24.3516
30.6687 568 23.8328
30.7862 541 23.2594
30.9037 565 23.7697
31.0212 575 23.9792
31.1387 591 24.3105
31.2562 576 24
31.3737 586 24.2074
31.4912 604 24.5764
31.6087 600 24.4949
31.7262 587 24.2281
31.8436 570 23.8747
31.9611 609 24.6779
32.0785 559 23.6432
32.1959 575 23.9792
32.3134 546 23.3666
32.4308 570 23.8747
32.5482 530 23.0217
32.6655 539 23.2164
32.7829 560 23.6643
32.9002 520 22.8035
33.0176 520 22.8035
33.1349 526 22.9347
33.2522 529 23
33.3694 494 22.2261
33.4867 537 23.1733
33.6039 525 22.9129
33.7211 508 22.5389
33.8383 541 23.2594
33.9554 533 23.0868
34.0725 553 23.516
34.1896 553 23.516
34.3067 587 24.2281
34.4237 576 24
34.5407 602 24.5357
34.6577 588 24.2487
34.7746 584 24.1661
34.8915 550 23.4521
35.0084 517 22.7376
35.1252 517 22.7376
35.242 497 22.2935
35.3587 503 22.4277
35.4755 488 22.0907
35.5921 493 22.2036
35.7088 481 21.9317
35.8254 523 22.8692
35.9419 536 23.1517
36.0584 511 22.6053
36.1749 463 21.5174
36.2913 466 21.587
36.4077 506 22.4944
36.524 538 23.1948
36.6403 494 22.2261
36.7565 417 20.4206
36.8727 399 19.975
36.9889 395 19.8746
37.1049 354 18.8149
37.221 0 1
37.3369 0 1
37.4529 0 1
37.5687 0 1
37.6845 0 1
37.8003 0 1
37.916 0 1
38.0316 0 1
38.1472 0 1
40.5851 0 1
40.7008 0 1
40.8164 0 1
40.9322 0 1
41.048 0 1
41.1639 0 1
41.2798 0 1
41.3958 0 1
41.5118 0 1
41.6279 0 1
41.744 228 15.0997
41.8602 234 15.2971
41.9765 277 16.6433
42.0928 308 17.5499
42.2091 375 19.3649
42.3255 369 19.2094
42.4419 412 20.2978
42.5584 395 19.8746
42.675 417 20.4206
42.7915 412 20.2978
42.9081 436 20.8806
43.0248 446 21.1187
43.1415 397 19.9249
43.2582 440 20.9762
43.375 412 20.2978
43.4918 409 20.2237
43.6087 378 19.4422
43.7256 394 19.8494
43.8425 408 20.199
43.9595 368 19.1833
44.0765 404 20.0998
44.1935 425 20.6155
44.3106 373 19.3132
44.4277 373 19.3132
44.5448 393 19.8242
44.6619 379 19.4679
44.7791 404 20.0998
44.8963 415 20.3715
45.0136 427 20.664
45.1308 433 20.8087
45.2481 430 20.7364
45.3654 419 20.4695
45.4827 432 20.7846
45.6001 422 20.5426
45.7174 430 20.7364
45.8348 450 21.2132
45.9522 466 21.587
46.0697 423 20.567
46.1871 462 21.4942
46.3046 391 19.7737
46.422 416 20.3961
46.5395 387 19.6723
46.657 397 19.9249
46.7745 395 19.8746
46.892 394 19.8494
47.0096 425 20.6155
47.1271 412 20.2978
47.2446 395 19.8746
47.3622 391 19.7737
47.4797 416 20.3961
47.5973 360 18.9737
47.7149 422 20.5426
47.8324 374 19.3391
47.95 385 19.6214
48.0675 396 19.8997
48.1851 343 18.5203
48.3027 399 19.975
48.4202 376 19.3907
48.5378 391 19.7737
48.6554 417 20.4206
48.7729 389 19.7231
48.8904 445 21.095
49.008 390 19.7484
49.1255 394 19.8494
49.243 420 20.4939
49.3605 389 19.7231
49.478 405 20.1246
49.5955 357 18.8944
49.713 379 19.4679
49.8304 371 19.2614
49.9479 384 19.5959
50.0653 351 18.735
50.1827 380 19.4936
50.3001 372 19.2873
50.4175 391 19.7737
50.5348 370 19.2354
50.6521 355 18.8414
50.7694 380 19.4936
50.8867 385 19.6214
51.004 377 19.4165
51.1212 361 19
51.2384 388 19.6977
51.3556 364 19.0788
51.4727 382 19.5448
51.5899 340 18.4391
51.707 383 19.5704
51.824 347 18.6279
51.9411 383 19.5704
52.0581 391 19.7737
52.175 394 19.8494
52.2919 380 19.4936
52.4088 382 19.5448
52.5257 410 20.2485
52.6425 407 20.1742
52.7593 412 20.2978
52.876 410 20.2485
52.9927 405 20.1246
53.1094 407 20.1742
53.226 380 19.4936
53.3426 403 20.0749
53.4591 375 19.3649
53.5756 343 18.5203
53.692 363 19.0526
53.8084 303 17.4069
53.9248 286 16.9115
54.0411 300 17.3205
54.1573 297 17.2337
54.2735 0 1
54.3896 0 1
54.5057 0 1
54.6217 0 1
54.7377 0 1
54.8537 0 1
54.9695 0 1
55.0853 0 1
55.2011 0 1
55.3168 0 1
55.4324 0 1
57.824 0 1
57.9396 0 1
58.0553 0 1
58.1711 0 1
58.2869 0 1
58.4028 0 1
58.5187 0 1
58.6347 0 1
58.7508 0 1
58.8669 0 1
58.983 314 17.72
59.0992 346 18.6011
59.2155 420 20.4939
59.3318 425 20.6155
59.4482 478 21.8632
59.5646 517 22.7376
59.681 574 23.9583
59.7975 550 23.4521
59.9141 596 24.4131
60.0306 562 23.7065
60.1473 613 24.7588
60.2639 635 25.1992
60.3807 577 24.0208
60.4974 575 23.9792
60.6142 586 24.2074
60.731 566 23.7908
60.8479 608 24.6577
60.9648 613 24.7588
61.0818 587 24.2281
61.1987 592 24.3311
61.3158 584 24.1661
61.4328 619 24.8797
61.5499 576 24
61.667 584 24.1661
61.7841 601 24.5153
61.9013 570 23.8747
62.0185 529 23
62.1357 546 23.3666
62.253 535 23.1301
62.3702 505 22.4722
62.4875 493 22.2036
62.6049 476 21.8174
62.7222 515 22.6936
62.8396 526 22.9347
62.9569 510 22.5832
63.0743 484 22
63.1918 518 22.7596
63.3092 495 22.2486
63.4267 513 22.6495
63.5441 529 23
63.6616 477 21.8403
63.7791 466 21.587
63.8966 425 20.6155
64.0142 448 21.166
64.1317 415 20.3715
64.2492 414 20.347
64.3668 483 21.9773
64.4843 472 21.7256
64.6019 473 21.7486
64.7195 518 22.7596
64.837 505 22.4722
64.9546 514 22.6716
65.0722 412 20.2978
65.1898 486 22.0454
65.3074 518 22.7596
65.4249 487 22.0681
65.5425 442 21.0238
65.6601 483 21.9773
65.7777 455 21.3307
65.8952 453 21.2838
66.0128 476 21.8174
66.1304 428 20.6882
66.2479 453 21.2838
66.3655 471 21.7025
66.483 484 22
66.6005 469 21.6564
66.718 461 21.4709
66.8355 445 21.095
66.953 464 21.5407
67.0705 468 21.6333
67.1879 454 21.3073
67.3054 471 21.7025
67.4228 448 21.166
67.5402 402 20.0499
67.6576 445 21.095
67.7749 430 20.7364
67.8923 430 20.7364
68.0096 455 21.3307
68.1269 479 21.8861
68.2442 489 22.1133
68.3614 461 21.4709
68.4787 498 22.3159
68.5958 465 21.5639
68.713 473 21.7486
68.8302 473 21.7486
68.9473 453 21.2838
69.0643 478 21.8632
69.1814 496 22.2711
69.2984 448 21.166
69.4154 449 21.1896
69.5323 441 21
69.6492 435 20.8567
69.7661 432 20.7846
69.8829 406 20.1494
69.9997 451 21.2368
70.1165 455 21.3307
70.2332 460 21.4476
70.3499 480 21.9089
70.4665 418 20.445
70.5831 410 20.2485
70.6996 386 19.6469
70.8161 333 18.2483
70.9326 320 17.8885
71.049 315 17.7482
71.1653 277 16.6433
71.2817 229 15.1327
71.3979 210 14.4914
71.5141 207 14.3875
71.6303 175 13.2288
71.7464 156 12.49
71.8624 0 1
71.9784 0 1
72.0944 0 1
72.2102 0 1
72.3261 0 1
72.4418 0 1
72.5575 0 1
72.6732 0 1
75.1054 0 1
75.2209 0 1
75.3365 0 1
75.4521 0 1
75.5678 0 1
75.6835 0 1
75.7993 0 1
75.9151 0 1
76.031 0 1
76.147 302 17.3781
76.263 356 18.868
76.3791 340 18.4391
76.4952 371 19.2614
76.6113 322 17.9444
76.7276 333 18.2483
76.8438 348 18.6548
76.9601 355 18.8414
77.0765 388 19.6977
77.1929 413 20.3224
77.3093 388 19.6977
77.4258 368 19.1833
77.5423 384 19.5959
77.6589 388 19.6977
77.7755 417 20.4206
77.8921 435 20.8567
78.0088 426 20.6398
78.1256 427 20.664
78.2423 418 20.445
78.3591 411 20.2731
78.4759 445 21.095
78.5928 372 19.2873
78.7097 341 18.4662
78.8266 332 18.2209
78.9436 356 18.868
79.0606 398 19.9499
79.1776 411 20.2731
79.2946 368 19.1833
79.4117 419 20.4695
79.5288 391 19.7737
79.6459 437 20.9045
79.7631 386 19.6469
79.8802 391 19.7737
79.9974 387 19.6723
80.1147 359 18.9473
80.2319 361 19
80.3491 394 19.8494
80.4664 363 19.0526
80.5837 398 19.9499
80.701 396 19.8997
80.8183 389 19.7231
80.9357 372 19.2873
81.053 405 20.1246
81.1704 365 19.105
81.2877 443 21.0476
81.4051 459 21.4243
81.5225 474 21.7715
81.6399 452 21.2603
81.7573 442 21.0238
81.8747 437 20.9045
81.9922 424 20.5913
82.1096 423 20.567
82.227 389 19.7231
82.3444 365 19.105
82.4619 383 19.5704
82.5793 412 20.2978
82.6967 384 19.5959
82.8142 395 19.8746
82.9316 429 20.7123
83.049 424 20.5913
83.1664 388 19.6977
83.2838 415 20.3715
83.4012 424 20.5913
83.5186 423 20.567
83.636 425 20.6155
83.7534 415 20.3715
83.8708 356 18.868
83.9881 368 19.1833
84.1055 380 19.4936
84.2228 388 19.6977
84.3401 386 19.6469
84.4575 397 19.9249
84.5747 423 20.567
84.692 438 20.9284
84.8093 382 19.5448
84.9265 423 20.567
85.0437 436 20.8806
85.1609 472 21.7256
85.2781 428 20.6882
85.3952 470 21.6795
85.5123 457 21.3776
85.6294 449 21.1896
85.7465 431 20.7605
85.8636 368 19.1833
85.9806 372 19.2873
86.0976 385 19.6214
86.2145 406 20.1494
86.3315 427 20.664
86.4484 427 20.664
86.5652 412 20.2978
86.682 395 19.8746
86.7988 443 21.0476
86.9156 412 20.2978
87.0323 426 20.6398
87.149 390 19.7484
87.2657 389 19.7231
87.3823 393 19.8242
87.4988 425 20.6155
87.6154 358 18.9209
87.7318 350 18.7083
87.8483 324 18
87.9647 326 18.0555
88.081 333 18.2483
88.1973 303 17.4069
88.3136 303 17.4069
88.4298 274 16.5529
88.546 318 17.8326
88.6621 255 15.9687
88.7781 221 14.8661
88.8942 0 1
89.0101 0 1
89.126 0 1
89.2419 0 1
89.3577 0 1
89.4734 0 1
89.5891 0 1
89.7047 0 1
89.8203 0 1
89.9358 0 1
92.3269 0 1
92.4424 0 1
92.558 0 1
92.6736 0 1
92.7893 0 1
92.905 0 1
93.0208 0 1
93.1366 0 1
93.2525 0 1
93.3685 0 1
93.4845 0 1
93.6005 344 18.5472
93.7167 389 19.7231
93.8328 374 19.3391
93.949 342 18.4932
94.0653 418 20.445
94.1816 383 19.5704
94.2979 451 21.2368
94.4143 410 20.2485
94.5307 467 21.6102
94.6472 405 20.1246
94.7637 453 21.2838
94.8803 444 21.0713
94.9969 378 19.4422
95.1135 370 19.2354
95.2302 378 19.4422
95.3469 399 19.975
95.4637 451 21.2368
95.5805 423 20.567
95.6973 431 20.7605
95.8142 461 21.4709
95.9311 445 21.095
96.048 446 21.1187
96.1649 466 21.587
96.2819 496 22.2711
96.3989 471 21.7025
96.516 406 20.1494
96.633 416 20.3961
96.7501 421 20.5183
96.8673 371 19.2614
96.9844 375 19.3649
97.1016 393 19.8242
97.2188 403 20.0749
97.336 424 20.5913
97.4532 403 20.0749
97.5704 417 20.4206
97.6877 443 21.0476
97.805 454 21.3073
97.9223 431 20.7605
98.0396 456 21.3542
98.1569 459 21.4243
98.2743 498 22.3159
98.3916 470 21.6795
98.509 464 21.5407
98.6264 393 19.8242
98.7438 404 20.0998
98.8612 429 20.7123
98.9786 428 20.6882
99.096 452 21.2603
99.2134 441 21
99.3308 477 21.8403
99.4482 466 21.587
99.5656 472 21.7256
99.6831 481 21.9317
99.8005 488 22.0907
99.9179 467 21.6102
100.035 475 21.7945
100.153 420 20.4939
100.27 459 21.4243
100.388 475 21.7945
100.505 431 20.7605
100.622 428 20.6882
100.74 475 21.7945
100.857 432 20.7846
100.975 431 20.7605
101.092 414 20.347
101.209 405 20.1246
101.327 462 21.4942
101.444 495 22.2486
101.561 517 22.7376
101.679 506 22.4944
101.796 506 22.4944
101.913 448 21.166
102.03 502 22.4054
102.148 464 21.5407
102.265 454 21.3073
102.382 447 21.1424
102.499 431 20.7605
102.616 452 21.2603
102.733 440 20.9762
102.851 518 22.7596
102.968 508 22.5389
103.085 505 22.4722
103.202 511 22.6053
103.319 523 22.8692
103.436 474 21.7715
103.552 491 22.1585
103.669 452 21.2603
103.786 452 21.2603
103.903 426 20.6398
104.02 471 21.7025
104.137 444 21.0713
104.253 448 21.166
104.37 496 22.2711
104.487 520 22.8035
104.603 451 21.2368
104.72 497 22.2935
104.836 513 22.6495
104.953 529 23
105.069 498 22.3159
105.186 434 20.8327
105.302 472 21.7256
105.418 364 19.0788
105.535 358 18.9209
105.651 332 18.2209
105.767 308 17.5499
105.883 312 17.6635
105.999 265 16.2788
106.115 0 1
106.231 0 1
106.347 0 1
106.463 0 1
106.579 0 1
106.694 0 1
106.81 0 1
106.926 0 1
107.041 0 1
107.157 0 1
109.576 0 1
109.692 0 1
109.807 0 1
109.923 0 1
110.039 0 1
110.155 0 1
110.27 0 1
110.386 0 1
110.502 0 1
110.618 240 15.4919
110.735 272 16.4924
110.851 292 17.088
110.967 324 18
111.083 337 18.3576
111.199 429 20.7123
111.316 394 19.8494
111.432 428 20.6882
111.549 455 21.3307
111.665 444 21.0713
111.782 517 22.7376
111.898 479 21.8861
112.015 465 21.5639
112.132 453 21.2838
112.248 392 19.799
112.365 395 19.8746
112.482 396 19.8997
112.599 393 19.8242
112.716 428 20.6882
112.832 456 21.3542
112.949 466 21.587
113.066 456 21.3542
113.183 418 20.445
113.3 456 21.3542
113.417 437 20.9045
113.534 470 21.6795
113.652 456 21.3542
113.769 434 20.8327
113.886 432 20.7846
114.003 454 21.3073
114.12 404 20.0998
114.238 385 19.6214
114.355 414 20.347
114.472 398 19.9499
114.589 372 19.2873
114.707 402 20.0499
114.824 452 21.2603
114.942 435 20.8567
115.059 427 20.664
115.176 478 21.8632
115.294 448 21.166
115.411 446 21.1187
115.529 419 20.4695
115.646 427 20.664
115.764 408 20.199
115.881 359 18.9473
115.999 379 19.4679
116.116 371 19.2614
116.234 402 20.0499
116.351 432 20.7846
116.469 377 19.4165
116.586 411 20.2731
116.704 404 20.0998
116.821 393 19.8242
116.939 410 20.2485
117.056 372 19.2873
117.174 398 19.9499
117.291 410 20.2485
117.409 389 19.7231
117.526 389 19.7231
117.644 369 19.2094
117.761 401 20.025
117.879 398 19.9499
117.996 380 19.4936
118.114 347 18.6279
118.231 355 18.8414
118.349 404 20.0998
118.466 385 19.6214
118.584 410 20.2485
118.701 410 20.2485
118.819 388 19.6977
118.936 417 20.4206
119.053 395 19.8746
119.171 404 20.0998
119.288 386 19.6469
119.405 345 18.5742
119.523 348 18.6548
119.64 341 18.4662
119.757 356 18.868
119.875 394 19.8494
119.992 382 19.5448
120.109 367 19.1572
120.226 364 19.0788
120.343 349 18.6815
120.46 377 19.4165
120.578 380 19.4936
120.695 361 19
120.812 391 19.7737
120.929 409 20.2237
121.046 434 20.8327
121.163 373 19.3132
121.279 408 20.199
121.396 349 18.6815
121.513 361 19
121.63 324 18
121.747 315 17.7482
121.863 331 18.1934
121.98 339 18.412
122.097 326 18.0555
122.213 328 18.1108
122.33 336 18.3303
122.446 311 17.6352
122.563 304 17.4356
122.679 277 16.6433
122.795 263 16.2173
122.912 242 15.5563
123.028 232 15.2315
123.144 200 14.1421
123.26 192 13.8564
123.377 0 1
123.493 0 1
123.609 0 1
123.725 0 1
123.84 0 1
123.956 0 1
124.072 0 1
124.188 0 1
124.303 0 1
124.419 0 1
126.852 0 1
126.968 0 1
127.083 0 1
127.199 0 1
127.315 0 1
127.431 0 1
127.547 0 1
127.663 0 1
127.779 0 1
127.895 0 1
128.011 0 1
128.127 0 1
128.243 0 1
128.359 393 19.8242
128.476 377 19.4165
128.592 402 20.0499
128.708 372 19.2873
128.825 417 20.4206
128.941 441 21
129.058 445 21.095
129.174 431 20.7605
129.291 412 20.2978
129.408 425 20.6155
129.524 436 20.8806
129.641 496 22.2711
129.758 522 22.8473
129.875 521 22.8254
129.992 510 22.5832
130.108 519 22.7816
130.225 482 21.9545
130.342 458 21.4009
130.459 470 21.6795
130.576 525 22.9129
130.693 491 22.1585
130.81 524 22.891
130.928 561 23.6854
131.045 583 24.1454
131.162 628 25.0599
131.279 592 24.3311
131.396 591 24.3105
131.513 618 24.8596
131.631 637 25.2389
131.748 663 25.7488
131.865 646 25.4165
131.983 636 25.219
132.1 668 25.8457
132.217 715 26.7395
132.335 689 26.2488
132.452 718 26.7955
132.57 743 27.258
132.687 727 26.9629
132.804 810 28.4605
132.922 724 26.9072
133.039 823 28.688
133.157 818 28.6007
133.274 833 28.8617
133.392 905 30.0832
133.509 831 28.8271
133.627 859 29.3087
133.744 834 28.8791
133.862 790 28.1069
133.979 765 27.6586
134.097 793 28.1603
134.214 706 26.5707
134.332 735 27.1109
134.449 772 27.7849
134.567 792 28.1425
134.684 779 27.9106
134.802 881 29.6816
134.919 886 29.7658
135.037 911 30.1828
135.154 847 29.1033
135.272 800 28.2843
135.389 806 28.3901
135.507 778 27.8927
135.624 819 28.6182
135.742 907 30.1164
135.859 896 29.9333
135.977 866 29.4279
136.094 908 30.133
136.211 926 30.4302
136.329 935 30.5778
136.446 906 30.0998
136.564 913 30.2159
136.681 910 30.1662
136.798 958 30.9516
136.915 882 29.6985
137.033 914 30.2324
137.15 981 31.3209
137.267 943 30.7083
137.384 879 29.6479
137.502 885 29.7489
137.619 842 29.0172
137.736 790 28.1069
137.853 782 27.9643
137.97 799 28.2666
138.087 757 27.5136
138.204 776 27.8568
138.321 784 28
138.438 909 30.1496
138.555 914 30.2324
138.672 944 30.7246
138.788 894 29.8998
138.905 799 28.2666
139.022 770 27.7489
139.139 825 28.7228
139.255 704 26.533
139.372 734 27.0924
139.488 713 26.7021
139.605 682 26.1151
139.721 701 26.4764
139.838 635 25.1992
139.954 597 24.4336
140.071 537 23.1733
140.187 533 23.0868
140.303 484 22
140.419 501 22.383
140.535 508 22.5389
140.652 416 20.3961
140.768 0 1
140.884 0 1
141 0 1
141.115 0 1
141.231 0 1
141.347 0 1
141.463 0 1
141.578 0 1
141.694 0 1
144.104 0 1
144.219 0 1
144.335 0 1
144.45 0 1
144.566 0 1
144.682 0 1
144.798 0 1
144.914 0 1
145.03 0 1
145.146 1181 34.3657
145.262 1233 35.1141
145.378 1371 37.027
145.494 1375 37.081
145.61 1388 37.2559
145.726 1402 37.4433
145.842 1468 38.3145
145.959 1497 38.6911
146.075 1508 38.833
146.192 1455 38.1445
146.308 1447 38.0395
146.425 1470 38.3406
146.541 1490 38.6005
146.658 1375 37.081
146.774 1452 38.1051
146.891 1516 38.9358
147.008 1570 39.6232
147.125 1536 39.1918
147.241 1547 39.3319
147.358 1563 39.5348
147.475 1610 40.1248
147.592 1510 38.8587
147.709 1397 37.3765
147.826 1238 35.1852
147.943 1222 34.9571
148.06 1277 35.7351
148.177 1310 36.1939
148.294 1282 35.805
148.411 1401 37.4299
148.528 1452 38.1051
148.645 1473 38.3797
148.762 1553 39.4081
148.88 1504 38.7814
148.997 1583 39.7869
149.114 1544 39.2938
149.231 1455 38.1445
149.349 1524 39.0384
149.466 1497 38.6911
149.583 1484 38.5227
149.701 1495 38.6652
149.818 1494 38.6523
149.935 1571 39.6358
150.053 1413 37.5899
150.17 1456 38.1576
150.287 1473 38.3797
150.405 1455 38.1445
150.522 1528 39.0896
150.64 1570 39.6232
150.757 1615 40.1871
150.875 1663 40.7799
150.992 1696 41.1825
151.11 1808 42.5206
151.227 1789 42.2966
151.344 1520 38.9872
151.462 1218 34.8999
151.579 1282 35.805
151.697 1647 40.5832
151.814 1917 43.7836
151.932 2073 45.5302
152.049 2236 47.2864
152.167 2545 50.448
152.284 2678 51.7494
152.402 2755 52.4881
152.519 3006 54.827
152.636 3097 55.6507
152.754 3103 55.7046
152.871 3216 56.7098
152.989 3213 56.6833
153.106 3378 58.1206
153.223 3383 58.1636
153.341 3585 59.8749
153.458 3575 59.7913
153.575 3657 60.4731
153.693 3627 60.2246
153.81 3629 60.2412
153.927 3791 61.5711
154.044 3983 63.111
154.162 3913 62.554
154.279 4130 64.2651
154.396 3945 62.8092
154.513 3952 62.8649
154.63 3869 62.2013
154.747 3823 61.8304
154.864 3579 59.8247
154.981 2200 46.9042
155.098 1468 38.3145
155.215 2316 48.1248
155.332 3158 56.1961
155.449 3357 57.9396
155.566 3207 56.6304
155.683 3089 55.5788
155.8 3104 55.7136
155.917 2861 53.4883
156.033 2879 53.6563
156.15 0 1
156.267 0 1
156.383 0 1
156.5 0 1
156.617 0 1
156.733 0 1
156.85 0 1
156.966 0 1
157.082 0 1
157.199 0 1
157.315 0 1
157.431 0 1
157.547 0 1
157.664 0 1
157.78 0 1
157.896 0 1
158.012 0 1
158.128 0 1
158.244 0 1
158.359 0 1
158.475 0 1
158.591 0 1
158.706 0 1
