
6.15755 0 1
6.2731 0 1
6.3887 0 1
6.50437 0 1
6.62009 0 1
6.73587 0 1
6.8517 0 1
6.96759 0 1
7.08353 0 1
7.19952 0 1
7.31557 0 1
7.43166 0 1
7.54781 0 1
7.664 0 1
7.78024 0 1
7.89653 0 1
8.01286 0 1
8.12924 0 1
8.24567 0 1
8.36213 0 1
8.47864 0 1
8.59519 0 1
8.71178 0 1
8.82841 0 1
8.94508 0 1
9.06179 0 1
9.17853 0 1
9.29531 0 1
9.41212 0 1
9.52897 0 1
9.64584 0 1
9.76276 0 1
9.8797 0 1
9.99667 0 1
10.1137 0 1
10.2307 0 1
10.3478 0 1
10.4648 0 1
10.5819 0 1
10.6991 0 1
10.8162 0 1
10.9334 0 1
11.0506 0 1
11.1678 0 1
11.285 0 1
11.4023 0 1
11.5196 0 1
11.6369 0 1
11.7542 0 1
11.8715 0 1
11.9888 0 1
12.1062 0 1
12.2235 0 1
12.3409 0 1
12.4582 0 1
12.5756 0 1
12.693 0 1
12.8104 0 1
12.9278 0 1
13.0452 0 1
13.1626 0 1
13.28 0 1
13.3974 0 1
13.5149 0 1
13.6323 0 1
13.7497 0 1
13.8671 0 1
13.9845 0 1
14.1019 0 1
14.2193 0 1
14.3367 0 1
14.4541 0 1
14.5714 0 1
14.6888 0 1
14.8062 0 1
14.9235 0 1
15.0408 4329 65.7951
15.1581 4722 68.7168
15.2755 5050 71.0634
15.3927 5141 71.7008
15.51 5221 72.2565
15.6273 5124 71.5821
15.7445 4823 69.4478
15.8617 4405 66.3702
15.9789 4288 65.4828
16.0961 4406 66.3777
16.2132 4877 69.8355
16.3304 5562 74.5788
16.4475 6346 79.6618
16.5646 6590 81.1788
16.6816 7075 84.113
16.7986 7354 85.7555
16.9156 7387 85.9477
17.0326 7298 85.4283
17.1496 7336 85.6505
17.2665 7306 85.4751
17.3833 7434 86.2206
17.5002 7410 86.0814
17.617 7232 85.0412
17.7338 7309 85.4927
17.8505 7269 85.2584
17.9672 7315 85.5278
18.0839 7498 86.591
18.2005 7478 86.4754
18.3171 7536 86.8101
18.4337 7594 87.1436
18.5502 7620 87.2926
18.6666 7740 87.9773
18.7831 7663 87.5386
18.8994 7558 86.9368
19.0158 7367 85.8312
19.1321 7109 84.3149
19.2483 6417 80.1062
19.3645 5811 76.2299
19.4806 5071 71.211
19.5967 4684 68.4398
19.7128 4881 69.8642
19.8288 5301 72.808
19.9447 5332 73.0205
20.0606 0 1
20.1764 0 1
20.2922 0 1
20.4079 0 1
20.5236 0 1
20.6392 0 1
20.7548 0 1
20.8702 0 1
23.3078 0 1
23.4233 0 1
23.539 0 1
23.6547 0 1
23.7704 0 1
23.8862 0 1
24.0021 0 1
24.118 0 1
24.234 0 1
24.35 0 1
24.4661 6368 79.7997
24.5822 5979 77.324
24.6984 5554 74.5252
24.8146 4947 70.3349
24.9309 4821 69.4334
25.0472 5151 71.7705
25.1636 5892 76.7594
25.28 6683 81.7496
25.3965 7483 86.5043
25.513 7964 89.2412
25.6296 8352 91.3893
25.7462 8440 91.8695
25.8628 8569 92.5689
25.9795 8503 92.2117
26.0962 8353 91.3947
26.213 8622 92.8547
26.3298 8452 91.9348
26.4466 8365 91.4604
26.5635 8321 91.2195
26.6804 8353 91.3947
26.7973 8342 91.3345
26.9143 8485 92.1141
27.0313 8381 91.5478
27.1483 8495 92.1683
27.2653 8460 91.9783
27.3824 8695 93.247
27.4996 8407 91.6897
27.6167 8511 92.2551
27.7339 8256 90.8625
27.8511 8152 90.2884
27.9683 7669 87.5728
28.0855 6973 83.5045
28.2028 6001 77.4661
28.3201 5004 70.739
28.4374 4455 66.7458
28.5547 4444 66.6633
28.6721 5028 70.9084
28.7894 5847 76.4657
28.9068 6811 82.5288
29.0242 7505 86.6314
29.1416 7926 89.0281
29.259 8391 91.6024
29.3764 8338 91.3126
29.4939 8454 91.9456
29.6113 8334 91.2907
29.7288 8217 90.6477
29.8463 8080 89.8888
29.9638 8139 90.2164
30.0812 7933 89.0674
30.1987 7980 89.3308
30.3162 8048 89.7106
30.4337 7867 88.6961
30.5512 8307 91.1427
30.6687 8065 89.8053
30.7862 8247 90.813
30.9037 8174 90.4102
31.0212 8290 91.0494
31.1387 8228 90.7083
31.2562 8062 89.7886
31.3737 8012 89.5098
31.4912 7795 88.2893
31.6087 7326 85.5921
31.7262 6319 79.4921
31.8436 5443 73.7767
31.9611 4465 66.8207
32.0785 4305 65.6125
32.1959 4656 68.2349
32.3134 5618 74.9533
32.4308 6488 80.5481
32.5482 7240 85.0882
32.6655 8101 90.0056
32.7829 8112 90.0666
32.9002 8051 89.7274
33.0176 7863 88.6736
33.1349 8001 89.4483
33.2522 8187 90.482
33.3694 7868 88.7017
33.4867 7880 88.7694
33.6039 7992 89.398
33.7211 7758 88.0795
33.8383 7609 87.2296
33.9554 7778 88.193
34.0725 7881 88.775
34.1896 7809 88.3685
34.3067 7802 88.3289
34.4237 7664 87.5443
34.5407 7818 88.4195
34.6577 7978 89.3197
34.7746 7815 88.4025
34.8915 7849 88.5946
35.0084 7860 88.6566
35.1252 7687 87.6755
35.242 7248 85.1352
35.3587 6652 81.5598
35.4755 5951 77.1427
35.5921 4838 69.5557
35.7088 3947 62.8252
35.8254 3820 61.8061
35.9419 4219 64.9538
36.0584 4966 70.4699
36.1749 6020 77.5887
36.2913 6654 81.5721
36.4077 7361 85.7963
36.524 7547 86.8735
36.6403 7619 87.2869
36.7565 7585 87.0919
36.8727 7428 86.1858
36.9889 7504 86.6256
37.1049 7386 85.9418
37.221 0 1
37.3369 0 1
37.4529 0 1
37.5687 0 1
37.6845 0 1
37.8003 0 1
37.916 0 1
38.0316 0 1
38.1472 0 1
40.5851 0 1
40.7008 0 1
40.8164 0 1
40.9322 0 1
41.048 0 1
41.1639 0 1
41.2798 0 1
41.3958 0 1
41.5118 0 1
41.6279 0 1
41.744 5449 73.8173
41.8602 5705 75.5315
41.9765 6334 79.5864
42.0928 6414 80.0875
42.2091 6216 78.8416
42.3255 6218 78.8543
42.4419 5975 77.2981
42.5584 5883 76.7007
42.675 6017 77.5693
42.7915 5819 76.2824
42.9081 5925 76.974
43.0248 5845 76.4526
43.1415 6026 77.6273
43.2582 5879 76.6746
43.375 5794 76.1183
43.4918 5801 76.1643
43.6087 5789 76.0855
43.7256 5738 75.7496
43.8425 5566 74.6056
43.9595 5539 74.4245
44.0765 5466 73.9324
44.1935 5058 71.1196
44.3106 4105 64.0703
44.4277 3318 57.6021
44.5448 2532 50.319
44.6619 2570 50.6952
44.7791 2852 53.4041
44.8963 3306 57.4978
45.0136 4072 63.8122
45.1308 4677 68.3886
45.2481 4706 68.6003
45.3654 4695 68.5201
45.4827 4592 67.7643
45.6001 4498 67.0671
45.7174 4527 67.283
45.8348 4290 65.4981
45.9522 4269 65.3376
46.0697 4250 65.192
46.1871 4069 63.7887
46.3046 4015 63.364
46.422 4060 63.7181
46.5395 3924 62.6418
46.657 3892 62.3859
46.7745 3863 62.153
46.892 4021 63.4114
47.0096 3930 62.6897
47.1271 3912 62.546
47.2446 3916 62.578
47.3622 3730 61.0737
47.4797 3881 62.2977
47.5973 3699 60.8194
47.7149 3589 59.9083
47.8324 3312 57.55
47.95 2799 52.9056
48.0675 1987 44.5758
48.1851 1690 41.1096
48.3027 1839 42.8836
48.4202 2144 46.3033
48.5378 2703 51.9904
48.6554 3235 56.8771
48.7729 3305 57.4891
48.8904 3308 57.5152
49.008 3312 57.55
49.1255 3416 58.4466
49.243 3326 57.6715
49.3605 3252 57.0263
49.478 3104 55.7136
49.5955 3149 56.116
49.713 3129 55.9375
49.8304 3107 55.7405
49.9479 3253 57.0351
50.0653 3278 57.2538
50.1827 3425 58.5235
50.3001 3503 59.1861
50.4175 3507 59.2199
50.5348 3659 60.4897
50.6521 3938 62.7535
50.7694 3935 62.7296
50.8867 4043 63.5846
51.004 4039 63.5531
51.1212 4150 64.4205
51.2384 3957 62.9047
51.3556 3940 62.7694
51.4727 3107 55.7405
51.5899 2308 48.0416
51.707 2084 45.6508
51.824 2428 49.2747
51.9411 3095 55.6327
52.0581 4009 63.3167
52.175 4458 66.7683
52.2919 4950 70.3562
52.4088 5013 70.8025
52.5257 5052 71.0774
52.6425 5149 71.7565
52.7593 5186 72.0139
52.876 5010 70.7814
52.9927 5272 72.6085
53.1094 4993 70.6612
53.226 5160 71.8331
53.3426 5054 71.0915
53.4591 5402 73.4983
53.5756 5401 73.4915
53.692 5532 74.3774
53.8084 5538 74.4177
53.9248 5687 75.4122
54.0411 5768 75.9474
54.1573 5833 76.3741
54.2735 0 1
54.3896 0 1
54.5057 0 1
54.6217 0 1
54.7377 0 1
54.8537 0 1
54.9695 0 1
55.0853 0 1
55.2011 0 1
55.3168 0 1
55.4324 0 1
57.824 0 1
57.9396 0 1
58.0553 0 1
58.1711 0 1
58.2869 0 1
58.4028 0 1
58.5187 0 1
58.6347 0 1
58.7508 0 1
58.8669 0 1
58.983 6152 78.4347
59.0992 6316 79.4733
59.2155 6678 81.719
59.3318 6804 82.4864
59.4482 6694 81.8169
59.5646 6670 81.6701
59.681 6620 81.3634
59.7975 6440 80.2496
59.9141 6290 79.3095
60.0306 5812 76.2365
60.1473 4945 70.3207
60.2639 4016 63.3719
60.3807 3539 59.4895
60.4974 3549 59.5735
60.6142 4173 64.5988
60.731 4946 70.3278
60.8479 5471 73.9662
60.9648 5881 76.6877
61.0818 6029 77.6466
61.1987 6029 77.6466
61.3158 5994 77.4209
61.4328 5836 76.3937
61.5499 5585 74.7329
61.667 5656 75.2064
61.7841 5439 73.7496
61.9013 5392 73.4302
62.0185 5451 73.8309
62.1357 5425 73.6546
62.253 5518 74.2832
62.3702 5654 75.1931
62.4875 5682 75.379
62.6049 5823 76.3086
62.7222 5841 76.4264
62.8396 5823 76.3086
62.9569 5776 76
63.0743 5918 76.9285
63.1918 5697 75.4785
63.3092 5631 75.04
63.4267 5447 73.8038
63.5441 4960 70.4273
63.6616 4259 65.261
63.7791 3492 59.0931
63.8966 3088 55.5698
64.0142 3098 55.6597
64.1317 3757 61.2944
64.2492 4444 66.6633
64.3668 5073 71.225
64.4843 5240 72.3878
64.6019 5214 72.208
64.7195 5421 73.6274
64.837 5322 72.952
64.9546 5372 73.2939
65.0722 5148 71.7496
65.1898 4926 70.1855
65.3074 4988 70.6258
65.4249 4813 69.3758
65.5425 4869 69.7782
65.6601 4818 69.4118
65.7777 4933 70.2353
65.8952 4994 70.6682
66.0128 5036 70.9648
66.1304 5168 71.8888
66.2479 5388 73.403
66.3655 5298 72.7874
66.483 5396 73.4575
66.6005 5349 73.1369
66.718 5423 73.641
66.8355 5376 73.3212
66.953 5300 72.8011
67.0705 5145 71.7287
67.1879 4754 68.9493
67.3054 3831 61.8951
67.4228 2930 54.1295
67.5402 2767 52.6023
67.6576 2829 53.1883
67.7749 3507 59.2199
67.8923 4418 66.468
68.0096 4810 69.3542
68.1269 4936 70.2567
68.2442 5144 71.7217
68.3614 5310 72.8697
68.4787 5210 72.1803
68.5958 5158 71.8192
68.713 5171 71.9097
68.8302 5011 70.7884
68.9473 4898 69.9857
69.0643 4966 70.4699
69.1814 4859 69.7065
69.2984 4987 70.6187
69.4154 5219 72.2426
69.5323 5283 72.6842
69.6492 5406 73.5255
69.7661 5658 75.2197
69.8829 5719 75.6241
69.9997 5697 75.4785
70.1165 5737 75.743
70.2332 5994 77.4209
70.3499 5992 77.408
70.4665 5851 76.4918
70.5831 5934 77.0325
70.6996 5771 75.9671
70.8161 5331 73.0137
70.9326 4785 69.1737
71.049 3733 61.0983
71.1653 3030 55.0454
71.2817 2795 52.8678
71.3979 3187 56.4535
71.5141 3905 62.49
71.6303 4534 67.335
71.7464 4546 67.424
71.8624 0 1
71.9784 0 1
72.0944 0 1
72.2102 0 1
72.3261 0 1
72.4418 0 1
72.5575 0 1
72.6732 0 1
75.1054 0 1
75.2209 0 1
75.3365 0 1
75.4521 0 1
75.5678 0 1
75.6835 0 1
75.7993 0 1
75.9151 0 1
76.031 0 1
76.147 4972 70.5124
76.263 4919 70.1356
76.3791 3682 60.6795
76.4952 2861 53.4883
76.6113 2625 51.2348
76.7276 3328 57.6888
76.8438 4457 66.7608
76.9601 5413 73.5731
77.0765 5713 75.5844
77.1929 5778 76.0132
77.3093 5786 76.0658
77.4258 5721 75.6373
77.5423 5715 75.5976
77.6589 5418 73.6071
77.7755 5342 73.089
77.8921 5088 71.3302
78.0088 5046 71.0352
78.1256 5094 71.3723
78.2423 5214 72.208
78.3591 5253 72.4776
78.4759 5452 73.8377
78.5928 5515 74.263
78.7097 5523 74.3169
78.8266 5523 74.3169
78.9436 5940 77.0714
79.0606 6092 78.0513
79.1776 5956 77.1751
79.2946 5948 77.1233
79.4117 5897 76.7919
79.5288 5768 75.9474
79.6459 5775 75.9934
79.7631 5568 74.619
79.8802 5077 71.2531
79.9974 3944 62.8013
80.1147 2865 53.5257
80.2319 2685 51.817
80.3491 3279 57.2626
80.4664 4347 65.9318
80.5837 5155 71.7983
80.701 5338 73.0616
80.8183 5392 73.4302
80.9357 5448 73.8106
81.053 5309 72.8629
81.1704 5345 73.1095
81.2877 5244 72.4155
81.4051 5101 71.4213
81.5225 4870 69.7854
81.6399 4734 68.8041
81.7573 4716 68.6731
81.8747 4561 67.5352
81.9922 4814 69.383
82.1096 4951 70.3633
82.227 5180 71.9722
82.3444 5204 72.1388
82.4619 5216 72.2219
82.5793 5488 74.081
82.6967 5212 72.1942
82.8142 5393 73.437
82.9316 5442 73.7699
83.049 5528 74.3505
83.1664 5207 72.1595
83.2838 5272 72.6085
83.4012 4933 70.2353
83.5186 4443 66.6558
83.636 3480 58.9915
83.7534 2599 50.9804
83.8708 2291 47.8644
83.9881 2713 52.0865
84.1055 3641 60.3407
84.2228 4470 66.8581
84.3401 4913 70.0928
84.4575 4892 69.9428
84.5747 5026 70.8943
84.692 4922 70.157
84.8093 4985 70.6045
84.9265 4860 69.7137
85.0437 4761 69
85.1609 4583 67.6979
85.2781 4607 67.8749
85.3952 4495 67.0448
85.5123 4627 68.0221
85.6294 5018 70.8378
85.7465 5178 71.9583
85.8636 5332 73.0205
85.9806 5566 74.6056
86.0976 5670 75.2994
86.2145 5818 76.2758
86.3315 6146 78.3964
86.4484 5797 76.138
86.5652 6013 77.5435
86.682 5968 77.2528
86.7988 6087 78.0192
86.9156 5829 76.3479
87.0323 5501 74.1687
87.149 4891 69.9357
87.2657 3860 62.1289
87.3823 3162 56.2317
87.4988 3434 58.6003
87.6154 4509 67.1491
87.7318 5442 73.7699
87.8483 6078 77.9615
87.9647 6152 78.4347
88.081 6288 79.2969
88.1973 6248 79.0443
88.3136 6425 80.1561
88.4298 6242 79.0063
88.546 5986 77.3692
88.6621 5737 75.743
88.7781 5514 74.2563
88.8942 0 1
89.0101 0 1
89.126 0 1
89.2419 0 1
89.3577 0 1
89.4734 0 1
89.5891 0 1
89.7047 0 1
89.8203 0 1
89.9358 0 1
92.3269 0 1
92.4424 0 1
92.558 0 1
92.6736 0 1
92.7893 0 1
92.905 0 1
93.0208 0 1
93.1366 0 1
93.2525 0 1
93.3685 0 1
93.4845 0 1
93.6005 6490 80.5605
93.7167 6439 80.2434
93.8328 6492 80.5729
93.949 6357 79.7308
94.0653 6104 78.1281
94.1816 5971 77.2722
94.2979 5924 76.9675
94.4143 5715 75.5976
94.5307 5848 76.4722
94.6472 6309 79.4292
94.7637 6300 79.3725
94.8803 6275 79.2149
94.9969 6586 81.1542
95.1135 6742 82.1097
95.2302 6870 82.8855
95.3469 6905 83.0963
95.4637 6944 83.3307
95.5805 7053 83.9821
95.6973 6990 83.6062
95.8142 6969 83.4805
95.9311 6723 81.9939
96.048 6656 81.5843
96.1649 6280 79.2465
96.2819 5411 73.5595
96.3989 4353 65.9773
96.516 3914 62.562
96.633 4183 64.6761
96.7501 4885 69.8928
96.8673 5631 75.04
96.9844 6466 80.4114
97.1016 6808 82.5106
97.2188 6705 81.8841
97.336 6968 83.4745
97.4532 6759 82.2131
97.5704 6668 81.6578
97.6877 6392 79.95
97.805 6035 77.6853
97.9223 5971 77.2722
98.0396 5968 77.2528
98.1569 5882 76.6942
98.2743 6088 78.0256
98.3916 6557 80.9753
98.509 6533 80.827
98.6264 6723 81.9939
98.7438 6872 82.8975
98.8612 7046 83.9405
98.9786 7005 83.6959
99.096 7186 84.7703
99.2134 7036 83.8809
99.3308 7104 84.2852
99.4482 7270 85.2643
99.5656 6877 82.9277
99.6831 6721 81.9817
99.8005 6074 77.9359
99.9179 5382 73.3621
100.035 4509 67.1491
100.153 4503 67.1044
100.27 5001 70.7177
100.388 6033 77.6724
100.505 6646 81.523
100.622 6860 82.8251
100.74 6932 83.2586
100.857 7005 83.6959
100.975 7090 84.2021
101.092 7076 84.119
101.209 6625 81.3941
101.327 6573 81.074
101.444 6248 79.0443
101.561 6201 78.7464
101.679 6199 78.7337
101.796 6321 79.5047
101.913 6644 81.5107
102.03 6876 82.9216
102.148 7034 83.8689
102.265 7059 84.0179
102.382 7529 86.7698
102.499 7451 86.3192
102.616 7524 86.741
102.733 7604 87.2009
102.851 7595 87.1493
102.968 7436 86.2322
103.085 7573 87.023
103.202 7131 84.4452
103.319 6639 81.4801
103.436 5799 76.1512
103.552 5105 71.4493
103.669 4902 70.0143
103.786 5490 74.0945
103.903 6402 80.0125
104.02 7142 84.5104
104.137 7370 85.8487
104.253 7528 86.764
104.37 7381 85.9127
104.487 7509 86.6545
104.603 7517 86.7006
104.72 7201 84.8587
104.836 7032 83.857
104.953 6780 82.3408
105.069 6713 81.9329
105.186 6811 82.5288
105.302 7166 84.6522
105.418 7510 86.6603
105.535 7549 86.885
105.651 7844 88.5664
105.767 7997 89.4259
105.883 8236 90.7524
105.999 8295 91.0769
106.115 0 1
106.231 0 1
106.347 0 1
106.463 0 1
106.579 0 1
106.694 0 1
106.81 0 1
106.926 0 1
107.041 0 1
107.157 0 1
109.576 0 1
109.692 0 1
109.807 0 1
109.923 0 1
110.039 0 1
110.155 0 1
110.27 0 1
110.386 0 1
110.502 0 1
110.618 7590 87.1206
110.735 7918 88.9831
110.851 7860 88.6566
110.967 7967 89.2581
111.083 8106 90.0333
111.199 8149 90.2718
111.316 8161 90.3383
111.432 8199 90.5483
111.549 7902 88.8932
111.665 7703 87.7667
111.782 7007 83.7078
111.898 6374 79.8373
112.015 5512 74.2428
112.132 5542 74.4446
112.248 5991 77.4016
112.365 6794 82.4257
112.482 6963 83.4446
112.599 7706 87.7838
112.716 7777 88.1873
112.832 7706 87.7838
112.949 7642 87.4185
113.066 7668 87.5671
113.183 7480 86.487
113.3 6972 83.4985
113.417 6896 83.0422
113.534 6719 81.9695
113.652 6593 81.1973
113.769 6653 81.5659
113.886 6868 82.8734
114.003 7187 84.7762
114.12 7456 86.3481
114.238 7686 87.6698
114.355 7672 87.59
114.472 7761 88.0965
114.589 7903 88.8988
114.707 7926 89.0281
114.824 7947 89.1459
114.942 7901 88.8876
115.059 7925 89.0225
115.176 7673 87.5957
115.294 7215 84.9412
115.411 6550 80.9321
115.529 6147 78.4028
115.646 5792 76.1052
115.764 5979 77.324
115.881 6710 81.9146
115.999 7294 85.4049
116.116 7537 86.8159
116.234 7851 88.6059
116.351 7737 87.9602
116.469 7824 88.4534
116.586 7789 88.2553
116.704 7566 86.9828
116.821 7468 86.4176
116.939 7176 84.7113
117.056 6798 82.45
117.174 6873 82.9036
117.291 6719 81.9695
117.409 6827 82.6257
117.526 7268 85.2526
117.644 7519 86.7122
117.761 7735 87.9488
117.879 7986 89.3644
117.996 7833 88.5042
118.114 7851 88.6059
118.231 8003 89.4595
118.349 8089 89.9389
118.466 7849 88.5946
118.584 7977 89.3141
118.701 7948 89.1516
118.819 7402 86.0349
118.936 6973 83.5045
119.053 6605 81.2712
119.171 6012 77.5371
119.288 5918 76.9285
119.405 6208 78.7909
119.523 6714 81.939
119.64 7383 85.9244
119.757 7519 86.7122
119.875 7650 87.4643
119.992 7504 86.6256
120.109 7734 87.9432
120.226 7757 88.0738
120.343 7532 86.7871
120.46 7293 85.3991
120.578 7260 85.2056
120.695 6929 83.2406
120.812 6678 81.719
120.929 6678 81.719
121.046 6843 82.7224
121.163 6892 83.0181
121.279 7273 85.2819
121.396 7593 87.1378
121.513 7659 87.5157
121.63 7708 87.7952
121.747 7599 87.1722
121.863 7824 88.4534
121.98 7900 88.8819
122.097 7824 88.4534
122.213 7862 88.6679
122.33 7699 87.7439
122.446 7522 86.7295
122.563 7296 85.4166
122.679 6904 83.0903
122.795 6203 78.7591
122.912 6053 77.801
123.028 6108 78.1537
123.144 6408 80.05
123.26 6575 81.0864
123.377 0 1
123.493 0 1
123.609 0 1
123.725 0 1
123.84 0 1
123.956 0 1
124.072 0 1
124.188 0 1
124.303 0 1
124.419 0 1
126.852 0 1
126.968 0 1
127.083 0 1
127.199 0 1
127.315 0 1
127.431 0 1
127.547 0 1
127.663 0 1
127.779 0 1
127.895 0 1
128.011 0 1
128.127 0 1
128.243 0 1
128.359 7158 84.605
128.476 7699 87.7439
128.592 7980 89.3308
128.708 8231 90.7249
128.825 8314 91.1811
128.941 8299 91.0988
129.058 8478 92.0761
129.174 8340 91.3236
129.291 8435 91.8423
129.408 7956 89.1964
129.524 7629 87.3441
129.641 7410 86.0814
129.758 7231 85.0353
129.875 7257 85.188
129.992 7524 86.741
130.108 7527 86.7583
130.225 8005 89.4707
130.342 8268 90.9285
130.459 8184 90.4655
130.576 8619 92.8386
130.693 8414 91.7279
130.81 8312 91.1702
130.928 8207 90.5925
131.045 8175 90.4157
131.162 8264 90.9065
131.279 7895 88.8538
131.396 7852 88.6115
131.513 7633 87.367
131.631 7442 86.267
131.748 7217 84.9529
131.865 7416 86.1162
131.983 7921 89
132.1 8189 90.4931
132.217 8233 90.7359
132.335 8481 92.0923
132.452 8365 91.4604
132.57 8270 90.9395
132.687 8255 90.857
132.804 8425 91.7878
132.922 7976 89.3085
133.039 7764 88.1136
133.157 7488 86.5332
133.274 7417 86.122
133.392 7345 85.703
133.509 7385 85.936
133.627 7515 86.6891
133.744 7823 88.4477
133.862 8151 90.2829
133.979 8491 92.1466
134.097 8174 90.4102
134.214 8215 90.6366
134.332 8213 90.6256
134.449 8021 89.56
134.567 8072 89.8443
134.684 8001 89.4483
134.802 8008 89.4874
134.919 7875 88.7412
135.037 7662 87.5329
135.154 7318 85.5453
135.272 7317 85.5395
135.389 7423 86.1568
135.507 7599 87.1722
135.624 7972 89.2861
135.742 8224 90.6863
135.859 8315 91.1866
135.977 8206 90.587
136.094 8190 90.4986
136.211 8422 91.7715
136.329 8229 90.7138
136.446 8147 90.2607
136.564 7819 88.4251
136.681 7695 87.7211
136.798 7526 86.7525
136.915 7490 86.5448
137.033 7336 85.6505
137.15 7080 84.1427
137.267 7233 85.047
137.384 7462 86.3829
137.502 7791 88.2666
137.619 8003 89.4595
137.736 8052 89.7329
137.853 7829 88.4816
137.97 7968 89.2637
138.087 7700 87.7496
138.204 7596 87.155
138.321 7789 88.2553
138.438 7873 88.7299
138.555 7976 89.3085
138.672 7648 87.4528
138.788 7541 86.8389
138.905 7578 87.0517
139.022 7642 87.4185
139.139 7862 88.6679
139.255 8153 90.294
139.372 8179 90.4378
139.488 8302 91.1153
139.605 8379 91.5369
139.721 8469 92.0272
139.838 8231 90.7249
139.954 8271 90.945
140.071 8033 89.627
140.187 8242 90.7855
140.303 7761 88.0965
140.419 7503 86.6199
140.535 7427 86.18
140.652 7162 84.6286
140.768 0 1
140.884 0 1
141 0 1
141.115 0 1
141.231 0 1
141.347 0 1
141.463 0 1
141.578 0 1
141.694 0 1
144.104 0 1
144.219 0 1
144.335 0 1
144.45 0 1
144.566 0 1
144.682 0 1
144.798 0 1
144.914 0 1
145.03 0 1
145.146 5410 73.5527
145.262 5903 76.831
145.378 6092 78.0513
145.494 5748 75.8156
145.61 5823 76.3086
145.726 5599 74.8265
145.842 5411 73.5595
145.959 5566 74.6056
146.075 5600 74.8331
146.192 5741 75.7694
146.308 5924 76.9675
146.425 6166 78.5239
146.541 5998 77.4468
146.658 6007 77.5048
146.774 5947 77.1168
146.891 5895 76.7789
147.008 5758 75.8815
147.125 5816 76.2627
147.241 5864 76.5768
147.358 5940 77.0714
147.475 6032 77.666
147.592 5990 77.3951
147.709 6161 78.492
147.826 6044 77.7432
147.943 6221 78.8733
148.06 6277 79.2275
148.177 6306 79.4103
148.294 6246 79.0316
148.411 6448 80.2994
148.528 6599 81.2342
148.645 6366 79.7872
148.762 6466 80.4114
148.88 6263 79.1391
148.997 6423 80.1436
149.114 6400 80
149.231 6178 78.6003
149.349 6031 77.6595
149.466 6016 77.5629
149.583 5941 77.0779
149.701 5896 76.7854
149.818 5939 77.0649
149.935 5979 77.324
150.053 5927 76.987
150.17 6184 78.6384
150.287 6145 78.3901
150.405 6166 78.5239
150.522 6040 77.7174
150.64 6054 77.8075
150.757 5953 77.1557
150.875 5873 76.6355
150.992 6140 78.3582
151.11 6196 78.7147
151.227 6175 78.5812
151.344 6219 78.8606
151.462 6295 79.341
151.579 6577 81.0987
151.697 6640 81.4862
151.814 6496 80.5978
151.932 6752 82.1706
152.049 6826 82.6196
152.167 6788 82.3893
152.284 6846 82.7406
152.402 6884 82.9699
152.519 6787 82.3833
152.636 6903 83.0843
152.754 6806 82.4985
152.871 6612 81.3142
152.989 6604 81.265
153.106 6547 80.9135
153.223 6371 79.8185
153.341 6485 80.5295
153.458 6470 80.4363
153.575 6423 80.1436
153.693 6463 80.3928
153.81 6452 80.3243
153.927 6611 81.3081
154.044 6529 80.8022
154.162 6250 79.0569
154.279 6358 79.7371
154.396 6387 79.9187
154.513 6649 81.5414
154.63 6724 82
154.747 6897 83.0482
154.864 7089 84.1962
154.981 7346 85.7088
155.098 7156 84.5931
155.215 7531 86.7813
155.332 7372 85.8604
155.449 7320 85.557
155.566 7417 86.122
155.683 7555 86.9195
155.8 7464 86.3944
155.917 7486 86.5217
156.033 7597 87.1608
156.15 0 1
156.267 0 1
156.383 0 1
156.5 0 1
156.617 0 1
156.733 0 1
156.85 0 1
156.966 0 1
157.082 0 1
157.199 0 1
157.315 0 1
157.431 0 1
157.547 0 1
157.664 0 1
157.78 0 1
157.896 0 1
158.012 0 1
158.128 0 1
158.244 0 1
158.359 0 1
158.475 0 1
158.591 0 1
158.706 0 1
