
6.15755 0 1
6.2731 0 1
6.3887 0 1
6.50437 0 1
6.62009 0 1
6.73587 0 1
6.8517 0 1
6.96759 0 1
7.08353 0 1
7.19952 0 1
7.31557 0 1
7.43166 0 1
7.54781 0 1
7.664 0 1
7.78024 0 1
7.89653 0 1
8.01286 0 1
8.12924 0 1
8.24567 0 1
8.36213 0 1
8.47864 0 1
8.59519 0 1
8.71178 0 1
8.82841 0 1
8.94508 0 1
9.06179 0 1
9.17853 0 1
9.29531 0 1
9.41212 0 1
9.52897 0 1
9.64584 0 1
9.76276 0 1
9.8797 0 1
9.99667 0 1
10.1137 0 1
10.2307 0 1
10.3478 0 1
10.4648 0 1
10.5819 0 1
10.6991 0 1
10.8162 0 1
10.9334 0 1
11.0506 0 1
11.1678 0 1
11.285 0 1
11.4023 0 1
11.5196 0 1
11.6369 0 1
11.7542 0 1
11.8715 0 1
11.9888 0 1
12.1062 0 1
12.2235 0 1
12.3409 0 1
12.4582 0 1
12.5756 0 1
12.693 0 1
12.8104 0 1
12.9278 0 1
13.0452 0 1
13.1626 0 1
13.28 0 1
13.3974 0 1
13.5149 0 1
13.6323 0 1
13.7497 0 1
13.8671 0 1
13.9845 0 1
14.1019 0 1
14.2193 0 1
14.3367 0 1
14.4541 0 1
14.5714 0 1
14.6888 0 1
14.8062 0 1
14.9235 0 1
15.0408 0 0
15.1581 0 0
15.2755 0 0
15.3927 0 0
15.51 0 0
15.6273 0 0
15.7445 0 0
15.8617 0 0
15.9789 0 0
16.0961 0 0
16.2132 0 0
16.3304 0 0
16.4475 0 0
16.5646 0 0
16.6816 0 0
16.7986 0 0
16.9156 0 0
17.0326 0 0
17.1496 0 0
17.2665 0 0
17.3833 0 0
17.5002 0 0
17.617 0 0
17.7338 0 0
17.8505 0 0
17.9672 0 0
18.0839 0 0
18.2005 0 0
18.3171 0 0
18.4337 0 0
18.5502 0 0
18.6666 0 0
18.7831 0 0
18.8994 0 0
19.0158 0 0
19.1321 0 0
19.2483 0 0
19.3645 0 0
19.4806 0 0
19.5967 0 0
19.7128 0 0
19.8288 0 0
19.9447 0 0
20.0606 0 1
20.1764 0 1
20.2922 0 1
20.4079 0 1
20.5236 0 1
20.6392 0 1
20.7548 0 1
20.8702 0 1
23.3078 0 1
23.4233 0 1
23.539 0 1
23.6547 0 1
23.7704 0 1
23.8862 0 1
24.0021 0 1
24.118 0 1
24.234 0 1
24.35 0 1
24.4661 11651 107.94
24.5822 11385 106.701
24.6984 11180 105.736
24.8146 11148 105.584
24.9309 10908 104.441
25.0472 10691 103.397
25.1636 10846 104.144
25.28 10785 103.851
25.3965 10958 104.68
25.513 11076 105.243
25.6296 11537 107.41
25.7462 11813 108.688
25.8628 11822 108.729
25.9795 11741 108.356
26.0962 11852 108.867
26.213 11814 108.692
26.3298 11819 108.715
26.4466 11714 108.231
26.5635 11083 105.276
26.6804 10938 104.585
26.7973 11021 104.981
26.9143 11311 106.353
27.0313 11768 108.48
27.1483 11958 109.353
27.2653 12286 110.842
27.3824 12531 111.942
27.4996 12111 110.05
27.6167 12296 110.887
27.7339 12122 110.1
27.8511 11999 109.54
27.9683 11568 107.555
28.0855 11511 107.289
28.2028 11498 107.229
28.3201 10995 104.857
28.4374 10806 103.952
28.5547 10380 101.882
28.6721 10174 100.866
28.7894 10198 100.985
28.9068 10113 100.563
29.0242 10061 100.305
29.1416 10260 101.292
29.259 10472 102.333
29.3764 10498 102.46
29.4939 10544 102.684
29.6113 10625 103.078
29.7288 10809 103.966
29.8463 10515 102.543
29.9638 10503 102.484
30.0812 10317 101.573
30.1987 10070 100.349
30.3162 10241 101.198
30.4337 10669 103.291
30.5512 10998 104.871
30.6687 11285 106.231
30.7862 11614 107.768
30.9037 11490 107.191
31.0212 11939 109.266
31.1387 11787 108.568
31.2562 11623 107.81
31.3737 11501 107.243
31.4912 11401 106.775
31.6087 11330 106.442
31.7262 10943 104.609
31.8436 10766 103.759
31.9611 10320 101.587
32.0785 10218 101.084
32.1959 10010 100.05
32.3134 9778 98.8838
32.4308 9700 98.4886
32.5482 10039 100.195
32.6655 9974 99.8699
32.7829 10338 101.676
32.9002 10246 101.223
33.0176 10413 102.044
33.1349 10566 102.791
33.2522 10301 101.494
33.3694 10741 103.639
33.4867 10507 102.504
33.6039 10445 102.201
33.7211 10160 100.797
33.8383 10246 101.223
33.9554 10443 102.191
34.0725 10512 102.528
34.1896 10822 104.029
34.3067 11259 106.108
34.4237 11218 105.915
34.5407 11395 106.747
34.6577 11674 108.046
34.7746 11627 107.829
34.8915 11707 108.199
35.0084 11587 107.643
35.1252 11735 108.328
35.242 11360 106.583
35.3587 11079 105.257
35.4755 11241 106.024
35.5921 10805 103.947
35.7088 10413 102.044
35.8254 10041 100.205
35.9419 9708 98.5292
36.0584 9580 97.8775
36.1749 9695 98.4632
36.2913 9675 98.3616
36.4077 9589 97.9234
36.524 9917 99.5841
36.6403 9879 99.3932
36.7565 10277 101.376
36.8727 10310 101.538
36.9889 10272 101.351
37.1049 10226 101.124
37.221 0 1
37.3369 0 1
37.4529 0 1
37.5687 0 1
37.6845 0 1
37.8003 0 1
37.916 0 1
38.0316 0 1
38.1472 0 1
40.5851 0 1
40.7008 0 1
40.8164 0 1
40.9322 0 1
41.048 0 1
41.1639 0 1
41.2798 0 1
41.3958 0 1
41.5118 0 1
41.6279 0 1
41.744 8335 91.2962
41.8602 8557 92.5041
41.9765 8829 93.9628
42.0928 9043 95.0947
42.2091 8899 94.3345
42.3255 9091 95.3467
42.4419 8851 94.0798
42.5584 8775 93.675
42.675 8747 93.5254
42.7915 9203 95.9323
42.9081 9346 96.6747
43.0248 9675 98.3616
43.1415 9926 99.6293
43.2582 10012 100.06
43.375 10152 100.757
43.4918 10225 101.119
43.6087 9852 99.2572
43.7256 10098 100.489
43.8425 10136 100.678
43.9595 9879 99.3932
44.0765 9828 99.1363
44.1935 9509 97.5141
44.3106 9489 97.4115
44.4277 9147 95.6399
44.5448 8706 93.3059
44.6619 8077 89.8721
44.7791 8056 89.7552
44.8963 7904 88.9044
45.0136 7774 88.1703
45.1308 7679 87.6299
45.2481 7762 88.1022
45.3654 7711 87.8123
45.4827 7899 88.8763
45.6001 8048 89.7106
45.7174 8047 89.7051
45.8348 7989 89.3812
45.9522 7923 89.0112
46.0697 7754 88.0568
46.1871 7516 86.6949
46.3046 7365 85.8196
46.422 7736 87.9545
46.5395 8216 90.6422
46.657 8208 90.598
46.7745 8529 92.3526
46.892 8588 92.6715
47.0096 8478 92.0761
47.1271 8751 93.5468
47.2446 8627 92.8816
47.3622 8416 91.7388
47.4797 8329 91.2634
47.5973 8256 90.8625
47.7149 8208 90.598
47.8324 7666 87.5557
47.95 7305 85.4693
48.0675 7064 84.0476
48.1851 6770 82.28
48.3027 6467 80.4177
48.4202 6292 79.3221
48.5378 6239 78.9873
48.6554 6373 79.8311
48.7729 6431 80.1935
48.8904 6617 81.3449
49.008 6625 81.3941
49.1255 6881 82.9518
49.243 6957 83.4086
49.3605 6940 83.3067
49.478 6627 81.4064
49.5955 6739 82.0914
49.713 6775 82.3104
49.8304 6882 82.9578
49.9479 7237 85.0706
50.0653 7881 88.775
50.1827 8346 91.3564
50.3001 8373 91.5041
50.4175 8753 93.5575
50.5348 9223 96.0365
50.6521 9365 96.7729
50.7694 9509 97.5141
50.8867 9723 98.6053
51.004 9994 99.97
51.1212 10037 100.185
51.2384 10366 101.814
51.3556 10010 100.05
51.4727 9721 98.5951
51.5899 9228 96.0625
51.707 8909 94.3875
51.824 8657 93.043
51.9411 8682 93.1773
52.0581 8654 93.0269
52.175 8838 94.0106
52.2919 8798 93.7977
52.4088 8783 93.7177
52.5257 9133 95.5667
52.6425 9389 96.8969
52.7593 9389 96.8969
52.876 9793 98.9596
52.9927 9642 98.1937
53.1094 9748 98.732
53.226 9724 98.6103
53.3426 9627 98.1173
53.4591 10009 100.045
53.5756 10499 102.465
53.692 11293 106.269
53.8084 11610 107.75
53.9248 12016 109.618
54.0411 12560 112.071
54.1573 12678 112.597
54.2735 0 1
54.3896 0 1
54.5057 0 1
54.6217 0 1
54.7377 0 1
54.8537 0 1
54.9695 0 1
55.0853 0 1
55.2011 0 1
55.3168 0 1
55.4324 0 1
57.824 0 1
57.9396 0 1
58.0553 0 1
58.1711 0 1
58.2869 0 1
58.4028 0 1
58.5187 0 1
58.6347 0 1
58.7508 0 1
58.8669 0 1
58.983 13750 117.26
59.0992 14421 120.087
59.2155 14867 121.93
59.3318 15220 123.369
59.4482 15520 124.579
59.5646 15531 124.623
59.681 15413 124.149
59.7975 15203 123.3
59.9141 14630 120.955
60.0306 14052 118.541
60.1473 13555 116.426
60.2639 12474 111.687
60.3807 11835 108.789
60.4974 11418 106.855
60.6142 11041 105.076
60.731 10852 104.173
60.8479 10948 104.633
60.9648 11137 105.532
61.0818 11592 107.666
61.1987 11772 108.499
61.3158 11711 108.217
61.4328 11580 107.61
61.5499 11772 108.499
61.667 11260 106.113
61.7841 11203 105.844
61.9013 11377 106.663
62.0185 11490 107.191
62.1357 12008 109.581
62.253 12592 112.214
62.3702 13254 115.126
62.4875 13683 116.974
62.6049 14171 119.042
62.7222 14498 120.408
62.8396 14521 120.503
62.9569 14987 122.421
63.0743 14775 121.552
63.1918 14667 121.107
63.3092 14335 119.729
63.4267 13972 118.203
63.5441 13378 115.663
63.6616 12677 112.592
63.7791 11555 107.494
63.8966 10754 103.701
64.0142 10424 102.098
64.1317 10116 100.578
64.2492 9966 99.8299
64.3668 9978 99.8899
64.4843 10321 101.592
64.6019 10470 102.323
64.7195 10856 104.192
64.837 10841 104.12
64.9546 10937 104.58
65.0722 11069 105.209
65.1898 10592 102.917
65.3074 10427 102.113
65.4249 10348 101.725
65.5425 10596 102.937
65.6601 10860 104.211
65.7777 11400 106.771
65.8952 12379 111.261
66.0128 12481 111.718
66.1304 13343 115.512
66.2479 13762 117.312
66.3655 14225 119.269
66.483 14210 119.206
66.6005 14409 120.037
66.718 14129 118.865
66.8355 14280 119.499
66.953 13906 117.924
67.0705 13162 114.726
67.1879 12645 112.45
67.3054 11876 108.977
67.4228 10834 104.087
67.5402 10102 100.509
67.6576 9732 98.6509
67.7749 9459 97.2574
67.8923 9702 98.4987
68.0096 9843 99.2119
68.1269 10321 101.592
68.2442 10553 102.728
68.3614 11080 105.262
68.4787 11148 105.584
68.5958 11307 106.334
68.713 10966 104.719
68.8302 11070 105.214
68.9473 10622 103.063
69.0643 10475 102.347
69.1814 10523 102.582
69.2984 10864 104.231
69.4154 11886 109.023
69.5323 12668 112.552
69.6492 13672 116.927
69.7661 14031 118.453
69.8829 14501 120.42
69.9997 14962 122.319
70.1165 15302 123.701
70.2332 15366 123.96
70.3499 15394 124.073
70.4665 15359 123.931
70.5831 14857 121.889
70.6996 14196 119.147
70.8161 13563 116.46
70.9326 12795 113.115
71.049 11816 108.701
71.1653 10825 104.043
71.2817 10319 101.582
71.3979 9842 99.2069
71.5141 9834 99.1665
71.6303 10057 100.285
71.7464 9633 98.1478
71.8624 0 1
71.9784 0 1
72.0944 0 1
72.2102 0 1
72.3261 0 1
72.4418 0 1
72.5575 0 1
72.6732 0 1
75.1054 0 1
75.2209 0 1
75.3365 0 1
75.4521 0 1
75.5678 0 1
75.6835 0 1
75.7993 0 1
75.9151 0 1
76.031 0 1
76.147 13157 114.704
76.263 13124 114.56
76.3791 12544 112
76.4952 11522 107.341
76.6113 11005 104.905
76.7276 11004 104.9
76.8438 10875 104.283
76.9601 11254 106.085
77.0765 11455 107.028
77.1929 11897 109.073
77.3093 12442 111.544
77.4258 12427 111.476
77.5423 12810 113.181
77.6589 12796 113.119
77.7755 12208 110.49
77.8921 12088 109.945
78.0088 11589 107.652
78.1256 11452 107.014
78.2423 11250 106.066
78.3591 12119 110.086
78.4759 12845 113.336
78.5928 13881 117.818
78.7097 14567 120.694
78.8266 15651 125.104
78.9436 15176 123.191
79.0606 15728 125.411
79.1776 16017 126.558
79.2946 16037 126.637
79.4117 16008 126.523
79.5288 15749 125.495
79.6459 15463 124.35
79.7631 14430 120.125
79.8802 13504 116.207
79.9974 12491 111.763
80.1147 11538 107.415
80.2319 10363 101.799
80.3491 10129 100.643
80.4664 9990 99.95
80.5837 10274 101.361
80.701 10496 102.45
80.8183 10821 104.024
80.9357 11159 105.636
81.053 11220 105.925
81.1704 11404 106.79
81.2877 11563 107.531
81.4051 11131 105.504
81.5225 10816 104
81.6399 10105 100.524
81.7573 10319 101.582
81.8747 10030 100.15
81.9922 10635 103.126
82.1096 11260 106.113
82.227 12319 110.991
82.3444 12845 113.336
82.4619 13687 116.991
82.5793 13669 116.914
82.6967 14550 120.623
82.8142 14123 118.84
82.9316 14313 119.637
83.049 14258 119.407
83.1664 13888 117.847
83.2838 13321 115.417
83.4012 12468 111.66
83.5186 11692 108.13
83.636 10910 104.451
83.7534 10112 100.558
83.8708 9243 96.1405
83.9881 8848 94.0638
84.1055 9031 95.0316
84.2228 9030 95.0263
84.3401 9394 96.9226
84.4575 10160 100.797
84.5747 10770 103.779
84.692 11121 105.456
84.8093 11057 105.152
84.9265 10869 104.254
85.0437 10145 100.722
85.1609 9918 99.5892
85.2781 9431 97.1133
85.3952 9424 97.0773
85.5123 9601 97.9847
85.6294 10288 101.43
85.7465 11483 107.159
85.8636 12590 112.205
85.9806 13051 114.241
86.0976 13796 117.456
86.2145 14352 119.8
86.3315 14471 120.295
86.4484 15489 124.455
86.5652 15132 123.012
86.682 15125 122.984
86.7988 14778 121.565
86.9156 14531 120.545
87.0323 13493 116.159
87.149 12811 113.186
87.2657 11756 108.425
87.3823 10917 104.484
87.4988 10505 102.494
87.6154 10385 101.907
87.7318 10658 103.238
87.8483 10961 104.695
87.9647 11505 107.261
88.081 12153 110.241
88.1973 12762 112.969
88.3136 13154 114.691
88.4298 12766 112.987
88.546 11973 109.421
88.6621 11139 105.541
88.7781 10729 103.581
88.8942 0 1
89.0101 0 1
89.126 0 1
89.2419 0 1
89.3577 0 1
89.4734 0 1
89.5891 0 1
89.7047 0 1
89.8203 0 1
89.9358 0 1
92.3269 0 1
92.4424 0 1
92.558 0 1
92.6736 0 1
92.7893 0 1
92.905 0 1
93.0208 0 1
93.1366 0 1
93.2525 0 1
93.3685 0 1
93.4845 0 1
93.6005 17631 132.782
93.7167 18539 136.158
93.8328 19559 139.853
93.949 20278 142.401
94.0653 20131 141.884
94.1816 20065 141.651
94.2979 20307 142.503
94.4143 20027 141.517
94.5307 20951 144.745
94.6472 21998 148.317
94.7637 23222 152.388
94.8803 26188 161.827
94.9969 28065 167.526
95.1135 30257 173.945
95.2302 31378 177.138
95.3469 32845 181.232
95.4637 33808 183.87
95.5805 34918 186.864
95.6973 36404 190.798
95.8142 37104 192.624
95.9311 37348 193.256
96.048 36519 191.099
96.1649 35859 189.365
96.2819 34756 186.43
96.3989 33421 182.814
96.516 31910 178.634
96.633 30102 173.499
96.7501 28912 170.035
96.8673 29490 171.727
96.9844 31123 176.417
97.1016 33680 183.521
97.2188 36239 190.365
97.336 37428 193.463
97.4532 37922 194.736
97.5704 38077 195.133
97.6877 37092 192.593
97.805 35022 187.142
97.9223 32327 179.797
98.0396 30615 174.971
98.1569 30101 173.496
98.2743 29446 171.598
98.3916 30236 173.885
98.509 32693 180.812
98.6264 34958 186.971
98.7438 36952 192.229
98.8612 37766 194.335
98.9786 39683 199.206
99.096 40114 200.285
99.2134 40581 201.447
99.3308 41296 203.214
99.4482 41204 202.988
99.5656 40505 201.259
99.6831 39721 199.301
99.8005 38339 195.803
99.9179 37352 193.267
100.035 35250 187.75
100.153 32763 181.006
100.27 30128 173.574
100.388 29965 173.104
100.505 31597 177.755
100.622 33320 182.538
100.74 35282 187.835
100.857 36396 190.777
100.975 36529 191.126
101.092 36533 191.136
101.209 35884 189.431
101.327 35274 187.814
101.444 32173 179.368
101.561 30103 173.502
101.679 28456 168.689
101.796 27524 165.904
101.913 27399 165.526
102.03 28892 169.976
102.148 30915 175.827
102.265 33967 184.301
102.382 32186 179.405
102.499 33649 183.437
102.616 34081 184.61
102.733 33771 183.769
102.851 33639 183.409
102.968 32937 181.486
103.085 31258 176.799
103.202 29826 172.702
103.319 27859 166.91
103.436 26258 162.043
103.552 24163 155.445
103.669 21763 147.523
103.786 19438 139.42
103.903 18612 136.426
104.02 18503 136.026
104.137 18653 136.576
104.253 19404 139.298
104.37 18623 136.466
104.487 18643 136.539
104.603 18111 134.577
104.72 17021 130.465
104.836 16343 127.84
104.953 14888 122.016
105.069 14289 119.537
105.186 13668 116.91
105.302 13671 116.923
105.418 14105 118.764
105.535 15111 122.927
105.651 16198 127.271
105.767 16974 130.284
105.883 17798 133.409
105.999 18079 134.458
106.115 0 1
106.231 0 1
106.347 0 1
106.463 0 1
106.579 0 1
106.694 0 1
106.81 0 1
106.926 0 1
107.041 0 1
107.157 0 1
109.576 0 1
109.692 0 1
109.807 0 1
109.923 0 1
110.039 0 1
110.155 0 1
110.27 0 1
110.386 0 1
110.502 0 1
110.618 14024 118.423
110.735 15061 122.723
110.851 16097 126.874
110.967 17032 130.507
111.083 17271 131.419
111.199 17424 132
111.316 17545 132.458
111.432 17558 132.507
111.549 16905 130.019
111.665 16723 129.317
111.782 16151 127.087
111.898 15195 123.268
112.015 14423 120.096
112.132 13494 116.164
112.248 12797 113.124
112.365 12097 109.986
112.482 11910 109.133
112.599 12018 109.627
112.716 12428 111.481
112.832 12661 112.521
112.949 12761 112.965
113.066 12734 112.845
113.183 12620 112.339
113.3 11978 109.444
113.417 11753 108.411
113.534 11498 107.229
113.652 11479 107.14
113.769 11483 107.159
113.886 11684 108.093
114.003 12571 112.12
114.12 13619 116.7
114.238 14868 121.934
114.355 15576 124.804
114.472 15866 125.96
114.589 16495 128.433
114.707 16855 129.827
114.824 17028 130.491
114.942 17117 130.832
115.059 17297 131.518
115.176 17072 130.66
115.294 16708 129.259
115.411 15893 126.067
115.529 15072 122.768
115.646 14328 119.7
115.764 13780 117.388
115.881 12853 113.371
115.999 12481 111.718
116.116 12890 113.534
116.234 13310 115.369
116.351 13338 115.49
116.469 13447 115.961
116.586 13418 115.836
116.704 13390 115.715
116.821 13175 114.782
116.939 12985 113.952
117.056 12416 111.427
117.174 12568 112.107
117.291 12552 112.036
117.409 12879 113.486
117.526 13192 114.856
117.644 14621 120.917
117.761 15662 125.148
117.879 16518 128.522
117.996 16827 129.719
118.114 17310 131.567
118.231 17829 133.525
118.349 18220 134.981
118.466 18388 135.602
118.584 18160 134.759
118.701 18514 136.066
118.819 18177 134.822
118.936 17414 131.962
119.053 16987 130.334
119.171 16034 126.625
119.288 15039 122.634
119.405 14412 120.05
119.523 13715 117.111
119.64 13690 117.004
119.757 13521 116.28
119.875 13958 118.144
119.992 13922 117.992
120.109 13663 116.889
120.226 13685 116.983
120.343 13402 115.767
120.46 13501 116.194
120.578 13130 114.586
120.695 12628 112.374
120.812 12822 113.234
120.929 12944 113.772
121.046 13436 115.914
121.163 13458 116.009
121.279 14313 119.637
121.396 15360 123.935
121.513 16386 128.008
121.63 17040 130.537
121.747 17376 131.818
121.863 17757 133.255
121.98 18071 134.428
122.097 18108 134.566
122.213 18160 134.759
122.33 18254 135.107
122.446 17761 133.27
122.563 17580 132.59
122.679 17318 131.598
122.795 16905 130.019
122.912 16089 126.842
123.028 15227 123.398
123.144 14464 120.266
123.26 13872 117.779
123.377 0 1
123.493 0 1
123.609 0 1
123.725 0 1
123.84 0 1
123.956 0 1
124.072 0 1
124.188 0 1
124.303 0 1
124.419 0 1
126.852 0 1
126.968 0 1
127.083 0 1
127.199 0 1
127.315 0 1
127.431 0 1
127.547 0 1
127.663 0 1
127.779 0 1
127.895 0 1
128.011 0 1
128.127 0 1
128.243 0 1
128.359 16722 129.314
128.476 15662 125.148
128.592 15250 123.491
128.708 15276 123.596
128.825 15733 125.431
128.941 15815 125.758
129.058 15590 124.86
129.174 15621 124.984
129.291 15197 123.276
129.408 15079 122.797
129.524 14691 121.206
129.641 14443 120.179
129.758 14285 119.52
129.875 14446 120.192
129.992 14345 119.771
130.108 14718 121.318
130.225 15365 123.956
130.342 16346 127.851
130.459 16724 129.321
130.576 18175 134.815
130.693 17812 133.462
130.81 17941 133.944
130.928 18202 134.915
131.045 18308 135.307
131.162 18284 135.218
131.279 18301 135.281
131.396 18497 136.004
131.513 17762 133.274
131.631 17301 131.533
131.748 16688 129.182
131.865 16237 127.424
131.983 15416 124.161
132.1 14916 122.131
132.217 14672 121.128
132.335 14924 122.164
132.452 15180 123.207
132.57 15174 123.183
132.687 14377 119.904
132.804 15440 124.258
132.922 14828 121.77
133.039 14685 121.182
133.157 14341 119.754
133.274 14231 119.294
133.392 14408 120.033
133.509 14268 119.449
133.627 14441 120.171
133.744 15072 122.768
133.862 15853 125.909
133.979 16299 127.668
134.097 17025 130.48
134.214 17638 132.808
134.332 17213 131.198
134.449 17584 132.605
134.567 17972 134.06
134.684 18510 136.051
134.802 18386 135.595
134.919 18251 135.096
135.037 17890 133.754
135.154 17648 132.846
135.272 17506 132.31
135.389 17030 130.499
135.507 16207 127.307
135.624 15391 124.06
135.742 15218 123.361
135.859 15481 124.423
135.977 15809 125.734
136.094 16162 127.13
136.211 15760 125.539
136.329 15512 124.547
136.446 15494 124.475
136.564 15361 123.94
136.681 15416 124.161
136.798 14882 121.992
136.915 14863 121.914
137.033 14897 122.053
137.15 14737 121.396
137.267 15222 123.377
137.384 15560 124.74
137.502 16225 127.377
137.619 16764 129.476
137.736 17403 131.92
137.853 17345 131.7
137.97 17438 132.053
138.087 18366 135.521
138.204 18071 134.428
138.321 18456 135.853
138.438 18515 136.07
138.555 18294 135.255
138.672 18713 136.795
138.788 18298 135.27
138.905 17903 133.802
139.022 17605 132.684
139.139 16743 129.395
139.255 16280 127.593
139.372 15972 126.38
139.488 15986 126.436
139.605 16126 126.988
139.721 16399 128.059
139.838 16149 127.079
139.954 16155 127.102
140.071 15466 124.362
140.187 15456 124.322
140.303 15194 123.264
140.419 14849 121.856
140.535 14807 121.684
140.652 14376 119.9
140.768 0 1
140.884 0 1
141 0 1
141.115 0 1
141.231 0 1
141.347 0 1
141.463 0 1
141.578 0 1
141.694 0 1
144.104 0 1
144.219 0 1
144.335 0 1
144.45 0 1
144.566 0 1
144.682 0 1
144.798 0 1
144.914 0 1
145.03 0 1
145.146 14947 122.258
145.262 15028 122.589
145.378 14863 121.914
145.494 14790 121.614
145.61 14661 121.083
145.726 14423 120.096
145.842 14621 120.917
145.959 14646 121.021
146.075 15137 123.033
146.192 15840 125.857
146.308 16009 126.527
146.425 16404 128.078
146.541 16603 128.853
146.658 16840 129.769
146.774 17178 131.065
146.891 17172 131.042
147.008 17392 131.879
147.125 17504 132.303
147.241 17482 132.22
147.358 17470 132.174
147.475 17026 130.484
147.592 16717 129.294
147.709 16233 127.409
147.826 15529 124.615
147.943 15284 123.628
148.06 15054 122.695
148.177 15660 125.14
148.294 15645 125.08
148.411 15657 125.128
148.528 15808 125.73
148.645 15108 122.915
148.762 15501 124.503
148.88 15061 122.723
148.997 14371 119.879
149.114 15412 124.145
149.231 14762 121.499
149.349 14372 119.883
149.466 14323 119.679
149.583 14449 120.204
149.701 14611 120.876
149.818 15434 124.234
149.935 16090 126.846
150.053 16076 126.791
150.17 16729 129.341
150.287 16836 129.754
150.405 17498 132.28
150.522 17417 131.973
150.64 17883 133.727
150.757 17936 133.925
150.875 17920 133.866
150.992 18086 134.484
151.11 17528 132.393
151.227 17407 131.936
151.344 16901 130.004
151.462 16540 128.608
151.579 16165 127.142
151.697 16305 127.691
151.814 16846 129.792
151.932 16923 130.088
152.049 17003 130.396
152.167 17179 131.069
152.284 16989 130.342
152.402 16807 129.642
152.519 16608 128.872
152.636 16188 127.232
152.754 16378 127.977
152.871 16395 128.043
152.989 15973 126.384
153.106 16139 127.039
153.223 16172 127.169
153.341 16648 129.027
153.458 17099 130.763
153.575 17505 132.306
153.693 17904 133.806
153.81 17972 134.06
153.927 18678 136.667
154.044 19049 138.018
154.162 19523 139.725
154.279 19462 139.506
154.396 19831 140.823
154.513 20087 141.729
154.63 19823 140.794
154.747 19676 140.271
154.864 19334 139.047
154.981 18801 137.117
155.098 18188 134.863
155.215 17862 133.649
155.332 18037 134.302
155.449 18112 134.581
155.566 18373 135.547
155.683 18239 135.052
155.8 18335 135.407
155.917 17990 134.127
156.033 17655 132.872
156.15 0 1
156.267 0 1
156.383 0 1
156.5 0 1
156.617 0 1
156.733 0 1
156.85 0 1
156.966 0 1
157.082 0 1
157.199 0 1
157.315 0 1
157.431 0 1
157.547 0 1
157.664 0 1
157.78 0 1
157.896 0 1
158.012 0 1
158.128 0 1
158.244 0 1
158.359 0 1
158.475 0 1
158.591 0 1
158.706 0 1
