
6.15755 0 1
6.2731 0 1
6.3887 0 1
6.50437 0 1
6.62009 0 1
6.73587 0 1
6.8517 0 1
6.96759 0 1
7.08353 0 1
7.19952 0 1
7.31557 0 1
7.43166 0 1
7.54781 0 1
7.664 0 1
7.78024 0 1
7.89653 0 1
8.01286 0 1
8.12924 0 1
8.24567 0 1
8.36213 0 1
8.47864 0 1
8.59519 0 1
8.71178 0 1
8.82841 0 1
8.94508 0 1
9.06179 0 1
9.17853 0 1
9.29531 0 1
9.41212 0 1
9.52897 0 1
9.64584 0 1
9.76276 0 1
9.8797 0 1
9.99667 0 1
10.1137 0 1
10.2307 0 1
10.3478 0 1
10.4648 0 1
10.5819 0 1
10.6991 0 1
10.8162 0 1
10.9334 0 1
11.0506 0 1
11.1678 0 1
11.285 0 1
11.4023 0 1
11.5196 0 1
11.6369 0 1
11.7542 0 1
11.8715 0 1
11.9888 0 1
12.1062 0 1
12.2235 0 1
12.3409 0 1
12.4582 0 1
12.5756 0 1
12.693 0 1
12.8104 0 1
12.9278 0 1
13.0452 0 1
13.1626 0 1
13.28 0 1
13.3974 0 1
13.5149 0 1
13.6323 0 1
13.7497 0 1
13.8671 0 1
13.9845 0 1
14.1019 0 1
14.2193 0 1
14.3367 0 1
14.4541 0 1
14.5714 0 1
14.6888 0 1
14.8062 0 1
14.9235 0 1
15.0408 0 0
15.1581 0 0
15.2755 0 0
15.3927 0 0
15.51 0 0
15.6273 0 0
15.7445 0 0
15.8617 0 0
15.9789 0 0
16.0961 0 0
16.2132 0 0
16.3304 0 0
16.4475 0 0
16.5646 0 0
16.6816 0 0
16.7986 0 0
16.9156 0 0
17.0326 0 0
17.1496 0 0
17.2665 0 0
17.3833 0 0
17.5002 0 0
17.617 0 0
17.7338 0 0
17.8505 0 0
17.9672 0 0
18.0839 0 0
18.2005 0 0
18.3171 0 0
18.4337 0 0
18.5502 0 0
18.6666 0 0
18.7831 0 0
18.8994 0 0
19.0158 0 0
19.1321 0 0
19.2483 0 0
19.3645 0 0
19.4806 0 0
19.5967 0 0
19.7128 0 0
19.8288 0 0
19.9447 0 0
20.0606 0 1
20.1764 0 1
20.2922 0 1
20.4079 0 1
20.5236 0 1
20.6392 0 1
20.7548 0 1
20.8702 0 1
23.3078 0 1
23.4233 0 1
23.539 0 1
23.6547 0 1
23.7704 0 1
23.8862 0 1
24.0021 0 1
24.118 0 1
24.234 0 1
24.35 0 1
24.4661 1771 42.0833
24.5822 1714 41.4005
24.6984 1826 42.7317
24.8146 1833 42.8135
24.9309 1888 43.4511
25.0472 1968 44.3621
25.1636 1942 44.0681
25.28 1974 44.4297
25.3965 2021 44.9555
25.513 1935 43.9886
25.6296 1917 43.7836
25.7462 1981 44.5084
25.8628 1873 43.2782
25.9795 1841 42.9069
26.0962 1794 42.3556
26.213 1818 42.638
26.3298 1860 43.1277
26.4466 1788 42.2847
26.5635 1784 42.2374
26.6804 1719 41.4608
26.7973 1684 41.0366
26.9143 1683 41.0244
27.0313 1600 40
27.1483 1552 39.3954
27.2653 1556 39.4462
27.3824 1557 39.4588
27.4996 1524 39.0384
27.6167 1591 39.8873
27.7339 1649 40.6079
27.8511 1696 41.1825
27.9683 1873 43.2782
28.0855 1818 42.638
28.2028 1876 43.3128
28.3201 1863 43.1625
28.4374 1945 44.1022
28.5547 1819 42.6497
28.6721 1851 43.0232
28.7894 1722 41.497
28.9068 1775 42.1307
29.0242 1652 40.6448
29.1416 1759 41.9404
29.259 1668 40.8412
29.3764 1671 40.8779
29.4939 1707 41.3159
29.6113 1676 40.939
29.7288 1726 41.5452
29.8463 1655 40.6817
29.9638 1701 41.2432
30.0812 1709 41.3401
30.1987 1697 41.1947
30.3162 1747 41.7971
30.4337 1668 40.8412
30.5512 1672 40.8901
30.6687 1563 39.5348
30.7862 1542 39.2683
30.9037 1530 39.1152
31.0212 1603 40.0375
31.1387 1711 41.3642
31.2562 1811 42.5558
31.3737 1877 43.3244
31.4912 1867 43.2088
31.6087 1944 44.0908
31.7262 1897 43.5546
31.8436 1817 42.6263
31.9611 1852 43.0349
32.0785 1804 42.4735
32.1959 1848 42.9884
32.3134 1622 40.2741
32.4308 1696 41.1825
32.5482 1670 40.8656
32.6655 1695 41.1704
32.7829 1588 39.8497
32.9002 1644 40.5463
33.0176 1564 39.5474
33.1349 1558 39.4715
33.2522 1604 40.05
33.3694 1637 40.4599
33.4867 1642 40.5216
33.6039 1712 41.3763
33.7211 1668 40.8412
33.8383 1834 42.8252
33.9554 1729 41.5812
34.0725 1774 42.1189
34.1896 1646 40.5709
34.3067 1742 41.7373
34.4237 1584 39.7995
34.5407 1548 39.3446
34.6577 1537 39.2046
34.7746 1624 40.2989
34.8915 1720 41.4729
35.0084 1682 41.0122
35.1252 1724 41.5211
35.242 1730 41.5933
35.3587 1685 41.0488
35.4755 1632 40.398
35.5921 1729 41.5812
35.7088 1700 41.2311
35.8254 1701 41.2432
35.9419 1604 40.05
36.0584 1622 40.2741
36.1749 1609 40.1123
36.2913 1624 40.2989
36.4077 1606 40.0749
36.524 1587 39.8372
36.6403 1553 39.4081
36.7565 1552 39.3954
36.8727 1604 40.05
36.9889 1556 39.4462
37.1049 1569 39.6106
37.221 0 1
37.3369 0 1
37.4529 0 1
37.5687 0 1
37.6845 0 1
37.8003 0 1
37.916 0 1
38.0316 0 1
38.1472 0 1
40.5851 0 1
40.7008 0 1
40.8164 0 1
40.9322 0 1
41.048 0 1
41.1639 0 1
41.2798 0 1
41.3958 0 1
41.5118 0 1
41.6279 0 1
41.744 1339 36.5923
41.8602 1365 36.9459
41.9765 1432 37.8418
42.0928 1380 37.1484
42.2091 1416 37.6298
42.3255 1492 38.6264
42.4419 1389 37.2693
42.5584 1403 37.4566
42.675 1420 37.6829
42.7915 1390 37.2827
42.9081 1352 36.7696
43.0248 1295 35.9861
43.1415 1256 35.4401
43.2582 1131 33.6303
43.375 1148 33.8821
43.4918 1246 35.2987
43.6087 1260 35.4965
43.7256 1307 36.1525
43.8425 1305 36.1248
43.9595 1347 36.7015
44.0765 1352 36.7696
44.1935 1294 35.9722
44.3106 1341 36.6197
44.4277 1307 36.1525
44.5448 1232 35.0999
44.6619 1249 35.3412
44.7791 1255 35.426
44.8963 1315 36.2629
45.0136 1287 35.8748
45.1308 1237 35.171
45.2481 1331 36.4829
45.3654 1313 36.2353
45.4827 1177 34.3074
45.6001 1273 35.6791
45.7174 1226 35.0143
45.8348 1222 34.9571
45.9522 1227 35.0286
46.0697 1189 34.4819
46.1871 1120 33.4664
46.3046 1142 33.7935
46.422 1104 33.2265
46.5395 1025 32.0156
46.657 1007 31.7333
46.7745 968 31.1127
46.892 913 30.2159
47.0096 898 29.9666
47.1271 922 30.3645
47.2446 924 30.3974
47.3622 942 30.692
47.4797 1053 32.45
47.5973 941 30.6757
47.7149 997 31.5753
47.8324 954 30.8869
47.95 926 30.4302
48.0675 914 30.2324
48.1851 945 30.7409
48.3027 880 29.6648
48.4202 972 31.1769
48.5378 940 30.6594
48.6554 962 31.0161
48.7729 975 31.225
48.8904 983 31.3528
49.008 950 30.8221
49.1255 991 31.4802
49.243 1030 32.0936
49.3605 972 31.1769
49.478 936 30.5941
49.5955 1001 31.6386
49.713 996 31.5595
49.8304 1041 32.2645
49.9479 1033 32.1403
50.0653 1060 32.5576
50.1827 1029 32.078
50.3001 921 30.348
50.4175 842 29.0172
50.5348 819 28.6182
50.6521 949 30.8058
50.7694 1049 32.3883
50.8867 1151 33.9264
51.004 1168 34.176
51.1212 1185 34.4238
51.2384 1248 35.327
51.3556 1189 34.4819
51.4727 1214 34.8425
51.5899 1282 35.805
51.707 1325 36.4005
51.824 1292 35.9444
51.9411 1315 36.2629
52.0581 1314 36.2491
52.175 1354 36.7967
52.2919 1347 36.7015
52.4088 1395 37.3497
52.5257 1411 37.5633
52.6425 1422 37.7094
52.7593 1360 36.8782
52.876 1424 37.7359
52.9927 1394 37.3363
53.1094 1352 36.7696
53.226 1429 37.8021
53.3426 1350 36.7423
53.4591 1456 38.1576
53.5756 1364 36.9324
53.692 1390 37.2827
53.8084 1345 36.6742
53.9248 1269 35.623
54.0411 1106 33.2566
54.1573 1075 32.7872
54.2735 0 1
54.3896 0 1
54.5057 0 1
54.6217 0 1
54.7377 0 1
54.8537 0 1
54.9695 0 1
55.0853 0 1
55.2011 0 1
55.3168 0 1
55.4324 0 1
57.824 0 1
57.9396 0 1
58.0553 0 1
58.1711 0 1
58.2869 0 1
58.4028 0 1
58.5187 0 1
58.6347 0 1
58.7508 0 1
58.8669 0 1
58.983 1441 37.9605
59.0992 1447 38.0395
59.2155 1412 37.5766
59.3318 1404 37.47
59.4482 1486 38.5487
59.5646 1499 38.7169
59.681 1601 40.0125
59.7975 1607 40.0874
59.9141 1583 39.7869
60.0306 1624 40.2989
60.1473 1762 41.9762
60.2639 1714 41.4005
60.3807 1770 42.0714
60.4974 1706 41.3038
60.6142 1703 41.2674
60.731 1681 41
60.8479 1706 41.3038
60.9648 1760 41.9524
61.0818 1683 41.0244
61.1987 1648 40.5956
61.3158 1671 40.8779
61.4328 1688 41.0853
61.5499 1663 40.7799
61.667 1669 40.8534
61.7841 1714 41.4005
61.9013 1700 41.2311
62.0185 1633 40.4104
62.1357 1628 40.3485
62.253 1555 39.4335
62.3702 1514 38.9102
62.4875 1496 38.6782
62.6049 1387 37.2424
62.7222 1325 36.4005
62.8396 1399 37.4032
62.9569 1442 37.9737
63.0743 1522 39.0128
63.1918 1551 39.3827
63.3092 1530 39.1152
63.4267 1581 39.7618
63.5441 1626 40.3237
63.6616 1615 40.1871
63.7791 1587 39.8372
63.8966 1626 40.3237
64.0142 1600 40
64.1317 1682 41.0122
64.2492 1645 40.5586
64.3668 1685 41.0488
64.4843 1611 40.1373
64.6019 1680 40.9878
64.7195 1670 40.8656
64.837 1565 39.5601
64.9546 1644 40.5463
65.0722 1530 39.1152
65.1898 1573 39.6611
65.3074 1579 39.7366
65.4249 1555 39.4335
65.5425 1579 39.7366
65.6601 1579 39.7366
65.7777 1619 40.2368
65.8952 1530 39.1152
66.0128 1476 38.4187
66.1304 1398 37.3898
66.2479 1358 36.8511
66.3655 1318 36.3043
66.483 1360 36.8782
66.6005 1497 38.6911
66.718 1467 38.3014
66.8355 1584 39.7995
66.953 1642 40.5216
67.0705 1554 39.4208
67.1879 1621 40.2616
67.3054 1598 39.975
67.4228 1598 39.975
67.5402 1611 40.1373
67.6576 1589 39.8623
67.7749 1646 40.5709
67.8923 1595 39.9375
68.0096 1656 40.694
68.1269 1649 40.6079
68.2442 1587 39.8372
68.3614 1599 39.9875
68.4787 1661 40.7554
68.5958 1649 40.6079
68.713 1634 40.4228
68.8302 1586 39.8246
68.9473 1563 39.5348
69.0643 1656 40.694
69.1814 1590 39.8748
69.2984 1592 39.8999
69.4154 1655 40.6817
69.5323 1562 39.5221
69.6492 1543 39.281
69.7661 1465 38.2753
69.8829 1319 36.318
69.9997 1278 35.7491
70.1165 1459 38.1969
70.2332 1463 38.2492
70.3499 1459 38.1969
70.4665 1443 37.9868
70.5831 1524 39.0384
70.6996 1624 40.2989
70.8161 1526 39.064
70.9326 1588 39.8497
71.049 1585 39.8121
71.1653 1566 39.5727
71.2817 1591 39.8873
71.3979 1502 38.7556
71.5141 1524 39.0384
71.6303 1518 38.9615
71.7464 1445 38.0132
71.8624 0 1
71.9784 0 1
72.0944 0 1
72.2102 0 1
72.3261 0 1
72.4418 0 1
72.5575 0 1
72.6732 0 1
75.1054 0 1
75.2209 0 1
75.3365 0 1
75.4521 0 1
75.5678 0 1
75.6835 0 1
75.7993 0 1
75.9151 0 1
76.031 0 1
76.147 1457 38.1707
76.263 1481 38.4838
76.3791 1582 39.7744
76.4952 1575 39.6863
76.6113 1586 39.8246
76.7276 1604 40.05
76.8438 1467 38.3014
76.9601 1575 39.6863
77.0765 1603 40.0375
77.1929 1551 39.3827
77.3093 1608 40.0999
77.4258 1592 39.8999
77.5423 1580 39.7492
77.6589 1530 39.1152
77.7755 1586 39.8246
77.8921 1529 39.1024
78.0088 1588 39.8497
78.1256 1534 39.1663
78.2423 1598 39.975
78.3591 1636 40.4475
78.4759 1540 39.2428
78.5928 1561 39.5095
78.7097 1518 38.9615
78.8266 1481 38.4838
78.9436 1253 35.3977
79.0606 1175 34.2783
79.1776 1154 33.9706
79.2946 1343 36.647
79.4117 1463 38.2492
79.5288 1461 38.223
79.6459 1525 39.0512
79.7631 1545 39.3065
79.8802 1474 38.3927
79.9974 1561 39.5095
80.1147 1518 38.9615
80.2319 1486 38.5487
80.3491 1570 39.6232
80.4664 1588 39.8497
80.5837 1548 39.3446
80.701 1577 39.7115
80.8183 1604 40.05
80.9357 1615 40.1871
81.053 1666 40.8167
81.1704 1587 39.8372
81.2877 1593 39.9124
81.4051 1554 39.4208
81.5225 1577 39.7115
81.6399 1570 39.6232
81.7573 1476 38.4187
81.8747 1593 39.9124
81.9922 1567 39.5854
82.1096 1578 39.724
82.227 1504 38.7814
82.3444 1532 39.1408
82.4619 1419 37.6696
82.5793 1318 36.3043
82.6967 1229 35.0571
82.8142 1149 33.8969
82.9316 1255 35.426
83.049 1373 37.054
83.1664 1411 37.5633
83.2838 1390 37.2827
83.4012 1466 38.2884
83.5186 1446 38.0263
83.636 1464 38.2623
83.7534 1529 39.1024
83.8708 1491 38.6135
83.9881 1445 38.0132
84.1055 1561 39.5095
84.2228 1517 38.9487
84.3401 1491 38.6135
84.4575 1500 38.7298
84.5747 1543 39.281
84.692 1546 39.3192
84.8093 1518 38.9615
84.9265 1546 39.3192
85.0437 1493 38.6394
85.1609 1478 38.4448
85.2781 1584 39.7995
85.3952 1504 38.7814
85.5123 1451 38.092
85.6294 1581 39.7618
85.7465 1511 38.8716
85.8636 1565 39.5601
85.9806 1458 38.1838
86.0976 1379 37.1349
86.2145 1337 36.565
86.3315 1217 34.8855
86.4484 1281 35.7911
86.5652 1396 37.3631
86.682 1511 38.8716
86.7988 1488 38.5746
86.9156 1476 38.4187
87.0323 1530 39.1152
87.149 1602 40.025
87.2657 1566 39.5727
87.3823 1635 40.4351
87.4988 1539 39.2301
87.6154 1694 41.1582
87.7318 1601 40.0125
87.8483 1641 40.5093
87.9647 1651 40.6325
88.081 1636 40.4475
88.1973 1605 40.0625
88.3136 1692 41.1339
88.4298 1652 40.6448
88.546 1639 40.4846
88.6621 1716 41.4246
88.7781 1606 40.0749
88.8942 0 1
89.0101 0 1
89.126 0 1
89.2419 0 1
89.3577 0 1
89.4734 0 1
89.5891 0 1
89.7047 0 1
89.8203 0 1
89.9358 0 1
92.3269 0 1
92.4424 0 1
92.558 0 1
92.6736 0 1
92.7893 0 1
92.905 0 1
93.0208 0 1
93.1366 0 1
93.2525 0 1
93.3685 0 1
93.4845 0 1
93.6005 1598 39.975
93.7167 1595 39.9375
93.8328 1650 40.6202
93.949 1581 39.7618
94.0653 1599 39.9875
94.1816 1598 39.975
94.2979 1552 39.3954
94.4143 1653 40.6571
94.5307 1570 39.6232
94.6472 1600 40
94.7637 1540 39.2428
94.8803 1609 40.1123
94.9969 1546 39.3192
95.1135 1574 39.6737
95.2302 1567 39.5854
95.3469 1465 38.2753
95.4637 1428 37.7889
95.5805 1362 36.9053
95.6973 1378 37.1214
95.8142 1384 37.2022
95.9311 1479 38.4578
96.048 1557 39.4588
96.1649 1597 39.9625
96.2819 1628 40.3485
96.3989 1709 41.3401
96.516 1703 41.2674
96.633 1724 41.5211
96.7501 1706 41.3038
96.8673 1772 42.0951
96.9844 1759 41.9404
97.1016 1723 41.509
97.2188 1741 41.7253
97.336 1739 41.7013
97.4532 1830 42.7785
97.5704 1797 42.391
97.6877 1739 41.7013
97.805 1745 41.7732
97.9223 1715 41.4126
98.0396 1706 41.3038
98.1569 1732 41.6173
98.2743 1666 40.8167
98.3916 1722 41.497
98.509 1711 41.3642
98.6264 1735 41.6533
98.7438 1696 41.1825
98.8612 1635 40.4351
98.9786 1506 38.8072
99.096 1506 38.8072
99.2134 1432 37.8418
99.3308 1519 38.9744
99.4482 1586 39.8246
99.5656 1648 40.5956
99.6831 1603 40.0375
99.8005 1632 40.398
99.9179 1666 40.8167
100.035 1671 40.8779
100.153 1647 40.5832
100.27 1790 42.3084
100.388 1810 42.5441
100.505 1798 42.4028
100.622 1774 42.1189
100.74 1792 42.332
100.857 1833 42.8135
100.975 1891 43.4856
101.092 1797 42.391
101.209 1870 43.2435
101.327 1837 42.8602
101.444 1891 43.4856
101.561 1797 42.391
101.679 1774 42.1189
101.796 1802 42.45
101.913 1795 42.3674
102.03 1870 43.2435
102.148 1791 42.3202
102.265 1810 42.5441
102.382 1619 40.2368
102.499 1771 42.0833
102.616 1549 39.3573
102.733 1541 39.2556
102.851 1572 39.6485
102.968 1660 40.7431
103.085 1687 41.0731
103.202 1652 40.6448
103.319 1743 41.7493
103.436 1781 42.2019
103.552 1872 43.2666
103.669 1828 42.7551
103.786 1838 42.8719
103.903 1846 42.9651
104.02 1852 43.0349
104.137 1834 42.8252
104.253 1983 44.5309
104.37 1778 42.1663
104.487 1971 44.3959
104.603 1921 43.8292
104.72 1943 44.0795
104.836 1883 43.3935
104.953 1930 43.9318
105.069 1883 43.3935
105.186 1917 43.7836
105.302 1849 43
105.418 1878 43.3359
105.535 1892 43.4971
105.651 1846 42.9651
105.767 1911 43.715
105.883 1870 43.2435
105.999 1725 41.5331
106.115 0 1
106.231 0 1
106.347 0 1
106.463 0 1
106.579 0 1
106.694 0 1
106.81 0 1
106.926 0 1
107.041 0 1
107.157 0 1
109.576 0 1
109.692 0 1
109.807 0 1
109.923 0 1
110.039 0 1
110.155 0 1
110.27 0 1
110.386 0 1
110.502 0 1
110.618 1626 40.3237
110.735 1737 41.6773
110.851 1757 41.9166
110.967 1718 41.4488
111.083 1670 40.8656
111.199 1604 40.05
111.316 1583 39.7869
111.432 1563 39.5348
111.549 1608 40.0999
111.665 1639 40.4846
111.782 1631 40.3856
111.898 1675 40.9268
112.015 1775 42.1307
112.132 1758 41.9285
112.248 1814 42.5911
112.365 1825 42.72
112.482 1728 41.5692
112.599 1777 42.1545
112.716 1780 42.19
112.832 1820 42.6615
112.949 1730 41.5933
113.066 1780 42.19
113.183 1801 42.4382
113.3 1764 42
113.417 1746 41.7852
113.534 1788 42.2847
113.652 1690 41.1096
113.769 1669 40.8534
113.886 1719 41.4608
114.003 1661 40.7554
114.12 1678 40.9634
114.238 1618 40.2244
114.355 1661 40.7554
114.472 1617 40.2119
114.589 1590 39.8748
114.707 1438 37.921
114.824 1333 36.5103
114.942 1319 36.318
115.059 1435 37.8814
115.176 1508 38.833
115.294 1483 38.5097
115.411 1573 39.6611
115.529 1555 39.4335
115.646 1666 40.8167
115.764 1607 40.0874
115.881 1644 40.5463
115.999 1646 40.5709
116.116 1679 40.9756
116.234 1703 41.2674
116.351 1721 41.4849
116.469 1664 40.7922
116.586 1648 40.5956
116.704 1639 40.4846
116.821 1710 41.3521
116.939 1721 41.4849
117.056 1658 40.7185
117.174 1629 40.3609
117.291 1682 41.0122
117.409 1616 40.1995
117.526 1640 40.4969
117.644 1698 41.2068
117.761 1603 40.0375
117.879 1687 41.0731
117.996 1607 40.0874
118.114 1594 39.9249
118.231 1648 40.5956
118.349 1500 38.7298
118.466 1470 38.3406
118.584 1483 38.5097
118.701 1478 38.4448
118.819 1500 38.7298
118.936 1477 38.4318
119.053 1528 39.0896
119.171 1542 39.2683
119.288 1555 39.4335
119.405 1653 40.6571
119.523 1644 40.5463
119.64 1595 39.9375
119.757 1688 41.0853
119.875 1653 40.6571
119.992 1685 41.0488
120.109 1665 40.8044
120.226 1715 41.4126
120.343 1655 40.6817
120.46 1681 41
120.578 1607 40.0874
120.695 1722 41.497
120.812 1680 40.9878
120.929 1700 41.2311
121.046 1665 40.8044
121.163 1656 40.694
121.279 1653 40.6571
121.396 1571 39.6358
121.513 1681 41
121.63 1657 40.7063
121.747 1612 40.1497
121.863 1569 39.6106
121.98 1480 38.4708
122.097 1429 37.8021
122.213 1395 37.3497
122.33 1356 36.8239
122.446 1452 38.1051
122.563 1451 38.092
122.679 1504 38.7814
122.795 1524 39.0384
122.912 1502 38.7556
123.028 1549 39.3573
123.144 1563 39.5348
123.26 1603 40.0375
123.377 0 1
123.493 0 1
123.609 0 1
123.725 0 1
123.84 0 1
123.956 0 1
124.072 0 1
124.188 0 1
124.303 0 1
124.419 0 1
126.852 0 1
126.968 0 1
127.083 0 1
127.199 0 1
127.315 0 1
127.431 0 1
127.547 0 1
127.663 0 1
127.779 0 1
127.895 0 1
128.011 0 1
128.127 0 1
128.243 0 1
128.359 1770 42.0714
128.476 1742 41.7373
128.592 1811 42.5558
128.708 1769 42.0595
128.825 1811 42.5558
128.941 1836 42.8486
129.058 1759 41.9404
129.174 1821 42.6732
129.291 1885 43.4166
129.408 1888 43.4511
129.524 1902 43.6119
129.641 1876 43.3128
129.758 1801 42.4382
129.875 1856 43.0813
129.992 1950 44.1588
130.108 1852 43.0349
130.225 1790 42.3084
130.342 1812 42.5676
130.459 1793 42.3438
130.576 1876 43.3128
130.693 1802 42.45
130.81 1792 42.332
130.928 1654 40.6694
131.045 1609 40.1123
131.162 1508 38.833
131.279 1570 39.6232
131.396 1639 40.4846
131.513 1581 39.7618
131.631 1636 40.4475
131.748 1735 41.6533
131.865 1833 42.8135
131.983 1723 41.509
132.1 1794 42.3556
132.217 1778 42.1663
132.335 1892 43.4971
132.452 1809 42.5323
132.57 1838 42.8719
132.687 1841 42.9069
132.804 1946 44.1135
132.922 1911 43.715
133.039 1775 42.1307
133.157 1845 42.9535
133.274 1866 43.1972
133.392 1822 42.6849
133.509 1816 42.6146
133.627 1858 43.1045
133.744 1860 43.1277
133.862 1775 42.1307
133.979 1869 43.2319
134.097 1832 42.8019
134.214 1841 42.9069
134.332 1788 42.2847
134.449 1741 41.7253
134.567 1673 40.9023
134.684 1605 40.0625
134.802 1624 40.2989
134.919 1658 40.7185
135.037 1607 40.0874
135.154 1614 40.1746
135.272 1702 41.2553
135.389 1815 42.6028
135.507 1836 42.8486
135.624 1842 42.9185
135.742 1903 43.6234
135.859 1870 43.2435
135.977 1873 43.2782
136.094 1869 43.2319
136.211 1934 43.9773
136.329 1894 43.5201
136.446 1955 44.2154
136.564 1955 44.2154
136.681 1925 43.8748
136.798 1823 42.6966
136.915 1811 42.5558
137.033 1867 43.2088
137.15 1793 42.3438
137.267 1832 42.8019
137.384 1853 43.0465
137.502 1845 42.9535
137.619 1875 43.3013
137.736 1853 43.0465
137.853 1806 42.4971
137.97 1780 42.19
138.087 1838 42.8719
138.204 1734 41.6413
138.321 1581 39.7618
138.438 1649 40.6079
138.555 1669 40.8534
138.672 1727 41.5572
138.788 1763 41.9881
138.905 1762 41.9762
139.022 1813 42.5793
139.139 1834 42.8252
139.255 1899 43.5775
139.372 1864 43.1741
139.488 1786 42.2611
139.605 1801 42.4382
139.721 1765 42.0119
139.838 1817 42.6263
139.954 1788 42.2847
140.071 1843 42.9302
140.187 1864 43.1741
140.303 1859 43.1161
140.419 1912 43.7264
140.535 1868 43.2204
140.652 1858 43.1045
140.768 0 1
140.884 0 1
141 0 1
141.115 0 1
141.231 0 1
141.347 0 1
141.463 0 1
141.578 0 1
141.694 0 1
144.104 0 1
144.219 0 1
144.335 0 1
144.45 0 1
144.566 0 1
144.682 0 1
144.798 0 1
144.914 0 1
145.03 0 1
145.146 1530 39.1152
145.262 1478 38.4448
145.378 1557 39.4588
145.494 1605 40.0625
145.61 1599 39.9875
145.726 1570 39.6232
145.842 1561 39.5095
145.959 1569 39.6106
146.075 1733 41.6293
146.192 1715 41.4126
146.308 1772 42.0951
146.425 1844 42.9418
146.541 1769 42.0595
146.658 1770 42.0714
146.774 1666 40.8167
146.891 1713 41.3884
147.008 1547 39.3319
147.125 1571 39.6358
147.241 1569 39.6106
147.358 1541 39.2556
147.475 1515 38.923
147.592 1558 39.4715
147.709 1656 40.694
147.826 1633 40.4104
147.943 1595 39.9375
148.06 1514 38.9102
148.177 1571 39.6358
148.294 1587 39.8372
148.411 1528 39.0896
148.528 1508 38.833
148.645 1459 38.1969
148.762 1455 38.1445
148.88 1530 39.1152
148.997 1451 38.092
149.114 1620 40.2492
149.231 1550 39.37
149.349 1541 39.2556
149.466 1552 39.3954
149.583 1702 41.2553
149.701 1611 40.1373
149.818 1572 39.6485
149.935 1612 40.1497
150.053 1658 40.7185
150.17 1608 40.0999
150.287 1582 39.7744
150.405 1558 39.4715
150.522 1461 38.223
150.64 1364 36.9324
150.757 1300 36.0555
150.875 1349 36.7287
150.992 1402 37.4433
151.11 1347 36.7015
151.227 1406 37.4967
151.344 1423 37.7227
151.462 1576 39.6989
151.579 1455 38.1445
151.697 1496 38.6782
151.814 1566 39.5727
151.932 1479 38.4578
152.049 1501 38.7427
152.167 1575 39.6863
152.284 1571 39.6358
152.402 1505 38.7943
152.519 1461 38.223
152.636 1560 39.4968
152.754 1512 38.8844
152.871 1622 40.2741
152.989 1597 39.9625
153.106 1576 39.6989
153.223 1577 39.7115
153.341 1605 40.0625
153.458 1595 39.9375
153.575 1689 41.0974
153.693 1639 40.4846
153.81 1608 40.0999
153.927 1490 38.6005
154.044 1520 38.9872
154.162 1503 38.7685
154.279 1454 38.1314
154.396 1403 37.4566
154.513 1502 38.7556
154.63 1458 38.1838
154.747 1393 37.3229
154.864 1472 38.3667
154.981 1566 39.5727
155.098 1568 39.598
155.215 1519 38.9744
155.332 1646 40.5709
155.449 1578 39.724
155.566 1550 39.37
155.683 1546 39.3192
155.8 1608 40.0999
155.917 1585 39.8121
156.033 1607 40.0874
156.15 0 1
156.267 0 1
156.383 0 1
156.5 0 1
156.617 0 1
156.733 0 1
156.85 0 1
156.966 0 1
157.082 0 1
157.199 0 1
157.315 0 1
157.431 0 1
157.547 0 1
157.664 0 1
157.78 0 1
157.896 0 1
158.012 0 1
158.128 0 1
158.244 0 1
158.359 0 1
158.475 0 1
158.591 0 1
158.706 0 1
