
6.15755 0 1
6.2731 0 1
6.3887 0 1
6.50437 0 1
6.62009 0 1
6.73587 0 1
6.8517 0 1
6.96759 0 1
7.08353 0 1
7.19952 0 1
7.31557 0 1
7.43166 0 1
7.54781 0 1
7.664 0 1
7.78024 0 1
7.89653 0 1
8.01286 0 1
8.12924 0 1
8.24567 0 1
8.36213 0 1
8.47864 0 1
8.59519 0 1
8.71178 0 1
8.82841 0 1
8.94508 0 1
9.06179 0 1
9.17853 0 1
9.29531 0 1
9.41212 0 1
9.52897 0 1
9.64584 0 1
9.76276 0 1
9.8797 0 1
9.99667 0 1
10.1137 0 1
10.2307 0 1
10.3478 0 1
10.4648 0 1
10.5819 0 1
10.6991 0 1
10.8162 0 1
10.9334 0 1
11.0506 0 1
11.1678 0 1
11.285 0 1
11.4023 0 1
11.5196 0 1
11.6369 0 1
11.7542 0 1
11.8715 0 1
11.9888 0 1
12.1062 0 1
12.2235 0 1
12.3409 0 1
12.4582 0 1
12.5756 0 1
12.693 0 1
12.8104 0 1
12.9278 0 1
13.0452 0 1
13.1626 0 1
13.28 0 1
13.3974 0 1
13.5149 0 1
13.6323 0 1
13.7497 0 1
13.8671 0 1
13.9845 0 1
14.1019 0 1
14.2193 0 1
14.3367 0 1
14.4541 0 1
14.5714 0 1
14.6888 0 1
14.8062 0 1
14.9235 0 1
15.0408 1500 38.7298
15.1581 1568 39.598
15.2755 1610 40.1248
15.3927 1726 41.5452
15.51 1705 41.2916
15.6273 1695 41.1704
15.7445 1664 40.7922
15.8617 1651 40.6325
15.9789 1718 41.4488
16.0961 1651 40.6325
16.2132 1648 40.5956
16.3304 1696 41.1825
16.4475 1757 41.9166
16.5646 1739 41.7013
16.6816 1875 43.3013
16.7986 2016 44.8999
16.9156 2005 44.7772
17.0326 1981 44.5084
17.1496 1998 44.699
17.2665 2015 44.8888
17.3833 1970 44.3847
17.5002 1903 43.6234
17.617 1750 41.833
17.7338 1854 43.0581
17.8505 1683 41.0244
17.9672 1709 41.3401
18.0839 1737 41.6773
18.2005 1786 42.2611
18.3171 1737 41.6773
18.4337 1907 43.6692
18.5502 1894 43.5201
18.6666 1890 43.4741
18.7831 1907 43.6692
18.8994 2003 44.7549
19.0158 1983 44.5309
19.1321 1828 42.7551
19.2483 1821 42.6732
19.3645 1649 40.6079
19.4806 1620 40.2492
19.5967 1474 38.3927
19.7128 1368 36.9865
19.8288 1293 35.9583
19.9447 1134 33.6749
20.0606 0 1
20.1764 0 1
20.2922 0 1
20.4079 0 1
20.5236 0 1
20.6392 0 1
20.7548 0 1
20.8702 0 1
23.3078 0 1
23.4233 0 1
23.539 0 1
23.6547 0 1
23.7704 0 1
23.8862 0 1
24.0021 0 1
24.118 0 1
24.234 0 1
24.35 0 1
24.4661 862 29.3598
24.5822 987 31.4166
24.6984 1043 32.2955
24.8146 1150 33.9116
24.9309 1240 35.2136
25.0472 1378 37.1214
25.1636 1518 38.9615
25.28 1654 40.6694
25.3965 1806 42.4971
25.513 1987 44.5758
25.6296 1978 44.4747
25.7462 2027 45.0222
25.8628 2185 46.744
25.9795 2060 45.3872
26.0962 2134 46.1952
26.213 2003 44.7549
26.3298 1917 43.7836
26.4466 1820 42.6615
26.5635 1796 42.3792
26.6804 1806 42.4971
26.7973 1790 42.3084
26.9143 1965 44.3283
27.0313 1915 43.7607
27.1483 1986 44.5646
27.2653 2003 44.7549
27.3824 2064 45.4313
27.4996 2019 44.9333
27.6167 2113 45.9674
27.7339 2026 45.0111
27.8511 2006 44.7884
27.9683 1865 43.1856
28.0855 1753 41.8688
28.2028 1798 42.4028
28.3201 1764 42
28.4374 1661 40.7554
28.5547 1723 41.509
28.6721 1770 42.0714
28.7894 1789 42.2966
28.9068 2010 44.833
29.0242 1962 44.2945
29.1416 2002 44.7437
29.259 2096 45.7821
29.3764 2028 45.0333
29.4939 2063 45.4203
29.6113 2025 45
29.7288 1893 43.5086
29.8463 1784 42.2374
29.9638 1801 42.4382
30.0812 1708 41.328
30.1987 1736 41.6653
30.3162 1809 42.5323
30.4337 1817 42.6263
30.5512 1768 42.0476
30.6687 1890 43.4741
30.7862 1912 43.7264
30.9037 1953 44.1928
31.0212 1943 44.0795
31.1387 2044 45.2106
31.2562 1983 44.5309
31.3737 1958 44.2493
31.4912 1851 43.0232
31.6087 1800 42.4264
31.7262 1745 41.7732
31.8436 1719 41.4608
31.9611 1661 40.7554
32.0785 1675 40.9268
32.1959 1616 40.1995
32.3134 1806 42.4971
32.4308 1929 43.9204
32.5482 1910 43.7035
32.6655 1975 44.441
32.7829 1970 44.3847
32.9002 1913 43.7379
33.0176 1944 44.0908
33.1349 1917 43.7836
33.2522 2045 45.2217
33.3694 1885 43.4166
33.4867 1675 40.9268
33.6039 1692 41.1339
33.7211 1640 40.4969
33.8383 1573 39.6611
33.9554 1670 40.8656
34.0725 1677 40.9512
34.1896 1810 42.5441
34.3067 1736 41.6653
34.4237 1898 43.566
34.5407 1882 43.382
34.6577 1896 43.5431
34.7746 1862 43.1509
34.8915 1864 43.1741
35.0084 1835 42.8369
35.1252 1813 42.5793
35.242 1681 41
35.3587 1716 41.4246
35.4755 1729 41.5812
35.5921 1600 40
35.7088 1603 40.0375
35.8254 1615 40.1871
35.9419 1585 39.8121
36.0584 1651 40.6325
36.1749 1741 41.7253
36.2913 1692 41.1339
36.4077 1673 40.9023
36.524 1744 41.7612
36.6403 1607 40.0874
36.7565 1612 40.1497
36.8727 1469 38.3275
36.9889 1445 38.0132
37.1049 1255 35.426
37.221 0 1
37.3369 0 1
37.4529 0 1
37.5687 0 1
37.6845 0 1
37.8003 0 1
37.916 0 1
38.0316 0 1
38.1472 0 1
40.5851 0 1
40.7008 0 1
40.8164 0 1
40.9322 0 1
41.048 0 1
41.1639 0 1
41.2798 0 1
41.3958 0 1
41.5118 0 1
41.6279 0 1
41.744 934 30.5614
41.8602 970 31.1448
41.9765 1122 33.4963
42.0928 1069 32.6956
42.2091 1115 33.3916
42.3255 1054 32.4654
42.4419 1079 32.8481
42.5584 1107 33.2716
42.675 1180 34.3511
42.7915 1262 35.5246
42.9081 1384 37.2022
43.0248 1442 37.9737
43.1415 1499 38.7169
43.2582 1480 38.4708
43.375 1494 38.6523
43.4918 1657 40.7063
43.6087 1581 39.7618
43.7256 1584 39.7995
43.8425 1476 38.4187
43.9595 1421 37.6962
44.0765 1518 38.9615
44.1935 1423 37.7227
44.3106 1390 37.2827
44.4277 1315 36.2629
44.5448 1281 35.7911
44.6619 1268 35.609
44.7791 1419 37.6696
44.8963 1430 37.8153
45.0136 1468 38.3145
45.1308 1558 39.4715
45.2481 1568 39.598
45.3654 1610 40.1248
45.4827 1606 40.0749
45.6001 1618 40.2244
45.7174 1551 39.3827
45.8348 1415 37.6165
45.9522 1349 36.7287
46.0697 1285 35.8469
46.1871 1244 35.2704
46.3046 1292 35.9444
46.422 1369 37
46.5395 1499 38.7169
46.657 1454 38.1314
46.7745 1550 39.37
46.892 1587 39.8372
47.0096 1633 40.4104
47.1271 1553 39.4081
47.2446 1658 40.7185
47.3622 1658 40.7185
47.4797 1498 38.704
47.5973 1583 39.7869
47.7149 1521 39
47.8324 1443 37.9868
47.95 1376 37.0945
48.0675 1306 36.1386
48.1851 1282 35.805
48.3027 1298 36.0278
48.4202 1400 37.4166
48.5378 1476 38.4187
48.6554 1542 39.2683
48.7729 1619 40.2368
48.8904 1658 40.7185
49.008 1695 41.1704
49.1255 1589 39.8623
49.243 1511 38.8716
49.3605 1390 37.2827
49.478 1363 36.9188
49.5955 1212 34.8138
49.713 1269 35.623
49.8304 1293 35.9583
49.9479 1376 37.0945
50.0653 1432 37.8418
50.1827 1487 38.5616
50.3001 1493 38.6394
50.4175 1525 39.0512
50.5348 1639 40.4846
50.6521 1669 40.8534
50.7694 1703 41.2674
50.8867 1591 39.8873
51.004 1691 41.1218
51.1212 1614 40.1746
51.2384 1638 40.4722
51.3556 1642 40.5216
51.4727 1523 39.0256
51.5899 1440 37.9473
51.707 1438 37.921
51.824 1518 38.9615
51.9411 1610 40.1248
52.0581 1846 42.9651
52.175 1939 44.0341
52.2919 1959 44.2606
52.4088 2033 45.0888
52.5257 2081 45.618
52.6425 2145 46.3141
52.7593 2239 47.3181
52.876 2089 45.7056
52.9927 1981 44.5084
53.1094 1854 43.0581
53.226 1800 42.4264
53.3426 1778 42.1663
53.4591 1758 41.9285
53.5756 1764 42
53.692 1805 42.4853
53.8084 1784 42.2374
53.9248 1766 42.0238
54.0411 1720 41.4729
54.1573 1618 40.2244
54.2735 0 1
54.3896 0 1
54.5057 0 1
54.6217 0 1
54.7377 0 1
54.8537 0 1
54.9695 0 1
55.0853 0 1
55.2011 0 1
55.3168 0 1
55.4324 0 1
57.824 0 1
57.9396 0 1
58.0553 0 1
58.1711 0 1
58.2869 0 1
58.4028 0 1
58.5187 0 1
58.6347 0 1
58.7508 0 1
58.8669 0 1
58.983 1330 36.4692
59.0992 1464 38.2623
59.2155 1610 40.1248
59.3318 1718 41.4488
59.4482 1789 42.2966
59.5646 1880 43.359
59.681 1979 44.486
59.7975 1881 43.3705
59.9141 1809 42.5323
60.0306 1933 43.9659
60.1473 1839 42.8836
60.2639 1724 41.5211
60.3807 1692 41.1339
60.4974 1727 41.5572
60.6142 1782 42.2137
60.731 1895 43.5316
60.8479 1985 44.5533
60.9648 2048 45.2548
61.0818 2049 45.2659
61.1987 2038 45.1442
61.3158 1905 43.6463
61.4328 1960 44.2719
61.5499 1934 43.9773
61.667 1708 41.328
61.7841 1606 40.0749
61.9013 1537 39.2046
62.0185 1555 39.4335
62.1357 1655 40.6817
62.253 1670 40.8656
62.3702 1860 43.1277
62.4875 1911 43.715
62.6049 1876 43.3128
62.7222 1927 43.8976
62.8396 1975 44.441
62.9569 2079 45.5961
63.0743 2024 44.9889
63.1918 1991 44.6206
63.3092 1988 44.587
63.4267 1885 43.4166
63.5441 1765 42.0119
63.6616 1767 42.0357
63.7791 1708 41.328
63.8966 1568 39.598
64.0142 1674 40.9145
64.1317 1741 41.7253
64.2492 1778 42.1663
64.3668 1891 43.4856
64.4843 1938 44.0227
64.6019 2043 45.1996
64.7195 1978 44.4747
64.837 1984 44.5421
64.9546 1947 44.1248
65.0722 1946 44.1135
65.1898 1782 42.2137
65.3074 1640 40.4969
65.4249 1477 38.4318
65.5425 1494 38.6523
65.6601 1427 37.7757
65.7777 1657 40.7063
65.8952 1677 40.9512
66.0128 1814 42.5911
66.1304 1835 42.8369
66.2479 1881 43.3705
66.3655 1989 44.5982
66.483 1956 44.2267
66.6005 1929 43.9204
66.718 2019 44.9333
66.8355 1942 44.0681
66.953 1877 43.3244
67.0705 1909 43.6921
67.1879 1763 41.9881
67.3054 1747 41.7971
67.4228 1672 40.8901
67.5402 1523 39.0256
67.6576 1533 39.1535
67.7749 1637 40.4599
67.8923 1633 40.4104
68.0096 1832 42.8019
68.1269 1886 43.4281
68.2442 1817 42.6263
68.3614 1866 43.1972
68.4787 1868 43.2204
68.5958 1929 43.9204
68.713 1868 43.2204
68.8302 1721 41.4849
68.9473 1592 39.8999
69.0643 1491 38.6135
69.1814 1432 37.8418
69.2984 1493 38.6394
69.4154 1549 39.3573
69.5323 1648 40.5956
69.6492 1732 41.6173
69.7661 1781 42.2019
69.8829 1836 42.8486
69.9997 1802 42.45
70.1165 1672 40.8901
70.2332 1683 41.0244
70.3499 1710 41.3521
70.4665 1508 38.833
70.5831 1538 39.2173
70.6996 1342 36.6333
70.8161 1301 36.0694
70.9326 1162 34.0881
71.049 1058 32.5269
71.1653 844 29.0517
71.2817 711 26.6646
71.3979 734 27.0924
71.5141 674 25.9615
71.6303 657 25.632
71.7464 650 25.4951
71.8624 0 1
71.9784 0 1
72.0944 0 1
72.2102 0 1
72.3261 0 1
72.4418 0 1
72.5575 0 1
72.6732 0 1
75.1054 0 1
75.2209 0 1
75.3365 0 1
75.4521 0 1
75.5678 0 1
75.6835 0 1
75.7993 0 1
75.9151 0 1
76.031 0 1
76.147 1155 33.9853
76.263 1199 34.6266
76.3791 1250 35.3553
76.4952 1166 34.1467
76.6113 1236 35.1568
76.7276 1275 35.7071
76.8438 1384 37.2022
76.9601 1577 39.7115
77.0765 1713 41.3884
77.1929 1695 41.1704
77.3093 1726 41.5452
77.4258 1666 40.8167
77.5423 1676 40.939
77.6589 1581 39.7618
77.7755 1496 38.6782
77.8921 1382 37.1753
78.0088 1281 35.7911
78.1256 1196 34.5832
78.2423 1173 34.2491
78.3591 1225 35
78.4759 1391 37.2961
78.5928 1521 39
78.7097 1493 38.6394
78.8266 1584 39.7995
78.9436 1650 40.6202
79.0606 1627 40.3361
79.1776 1675 40.9268
79.2946 1637 40.4599
79.4117 1706 41.3038
79.5288 1653 40.6571
79.6459 1637 40.4599
79.7631 1656 40.694
79.8802 1562 39.5221
79.9974 1511 38.8716
80.1147 1417 37.6431
80.2319 1300 36.0555
80.3491 1338 36.5787
80.4664 1446 38.0263
80.5837 1491 38.6135
80.701 1655 40.6817
80.8183 1667 40.8289
80.9357 1593 39.9124
81.053 1774 42.1189
81.1704 1713 41.3884
81.2877 1711 41.3642
81.4051 1718 41.4488
81.5225 1453 38.1182
81.6399 1432 37.8418
81.7573 1266 35.5809
81.8747 1272 35.6651
81.9922 1271 35.6511
82.1096 1329 36.4555
82.227 1506 38.8072
82.3444 1619 40.2368
82.4619 1612 40.1497
82.5793 1655 40.6817
82.6967 1700 41.2311
82.8142 1698 41.2068
82.9316 1774 42.1189
83.049 1805 42.4853
83.1664 1744 41.7612
83.2838 1668 40.8412
83.4012 1657 40.7063
83.5186 1728 41.5692
83.636 1583 39.7869
83.7534 1441 37.9605
83.8708 1368 36.9865
83.9881 1327 36.428
84.1055 1446 38.0263
84.2228 1434 37.8682
84.3401 1601 40.0125
84.4575 1694 41.1582
84.5747 1755 41.8927
84.692 1728 41.5692
84.8093 1696 41.1825
84.9265 1751 41.845
85.0437 1626 40.3237
85.1609 1526 39.064
85.2781 1377 37.108
85.3952 1257 35.4542
85.5123 1196 34.5832
85.6294 1237 35.171
85.7465 1451 38.092
85.8636 1515 38.923
85.9806 1645 40.5586
86.0976 1644 40.5463
86.2145 1727 41.5572
86.3315 1742 41.7373
86.4484 1729 41.5812
86.5652 1846 42.9651
86.682 1751 41.845
86.7988 1797 42.391
86.9156 1730 41.5933
87.0323 1698 41.2068
87.149 1629 40.3609
87.2657 1575 39.6863
87.3823 1408 37.5233
87.4988 1256 35.4401
87.6154 1182 34.3802
87.7318 1220 34.9285
87.8483 1302 36.0832
87.9647 1284 35.8329
88.081 1336 36.5513
88.1973 1317 36.2905
88.3136 1338 36.5787
88.4298 1260 35.4965
88.546 1177 34.3074
88.6621 988 31.4325
88.7781 795 28.1957
88.8942 0 1
89.0101 0 1
89.126 0 1
89.2419 0 1
89.3577 0 1
89.4734 0 1
89.5891 0 1
89.7047 0 1
89.8203 0 1
89.9358 0 1
92.3269 0 1
92.4424 0 1
92.558 0 1
92.6736 0 1
92.7893 0 1
92.905 0 1
93.0208 0 1
93.1366 0 1
93.2525 0 1
93.3685 0 1
93.4845 0 1
93.6005 1296 36
93.7167 1429 37.8021
93.8328 1402 37.4433
93.949 1491 38.6135
94.0653 1580 39.7492
94.1816 1566 39.5727
94.2979 1499 38.7169
94.4143 1407 37.51
94.5307 1392 37.3095
94.6472 1321 36.3456
94.7637 1323 36.3731
94.8803 1342 36.6333
94.9969 1551 39.3827
95.1135 1578 39.724
95.2302 1667 40.8289
95.3469 1686 41.0609
95.4637 1773 42.107
95.5805 1846 42.9651
95.6973 1818 42.638
95.8142 1779 42.1782
95.9311 1799 42.4146
96.048 1774 42.1189
96.1649 1721 41.4849
96.2819 1767 42.0357
96.3989 1680 40.9878
96.516 1616 40.1995
96.633 1503 38.7685
96.7501 1393 37.3229
96.8673 1346 36.6879
96.9844 1493 38.6394
97.1016 1567 39.5854
97.2188 1671 40.8779
97.336 1759 41.9404
97.4532 1760 41.9524
97.5704 1759 41.9404
97.6877 1844 42.9418
97.805 1742 41.7373
97.9223 1663 40.7799
98.0396 1512 38.8844
98.1569 1435 37.8814
98.2743 1364 36.9324
98.3916 1310 36.1939
98.509 1304 36.1109
98.6264 1564 39.5474
98.7438 1636 40.4475
98.8612 1752 41.8569
98.9786 1773 42.107
99.096 1829 42.7668
99.2134 1841 42.9069
99.3308 1879 43.3474
99.4482 1869 43.2319
99.5656 1859 43.1161
99.6831 1801 42.4382
99.8005 1840 42.8952
99.9179 1837 42.8602
100.035 1787 42.2729
100.153 1698 41.2068
100.27 1598 39.975
100.388 1510 38.8587
100.505 1469 38.3275
100.622 1626 40.3237
100.74 1774 42.1189
100.857 1934 43.9773
100.975 1863 43.1625
101.092 1993 44.643
101.209 1907 43.6692
101.327 1972 44.4072
101.444 1843 42.9302
101.561 1716 41.4246
101.679 1524 39.0384
101.796 1436 37.8946
101.913 1368 36.9865
102.03 1441 37.9605
102.148 1623 40.2865
102.265 1677 40.9512
102.382 1827 42.7434
102.499 1850 43.0116
102.616 1866 43.1972
102.733 1897 43.5546
102.851 1958 44.2493
102.968 2029 45.0444
103.085 1968 44.3621
103.202 2009 44.8219
103.319 1997 44.6878
103.436 1947 44.1248
103.552 1904 43.6348
103.669 1781 42.2019
103.786 1657 40.7063
103.903 1612 40.1497
104.02 1653 40.6571
104.137 1711 41.3642
104.253 1839 42.8836
104.37 2021 44.9555
104.487 2113 45.9674
104.603 2012 44.8553
104.72 2046 45.2327
104.836 1871 43.2551
104.953 1820 42.6615
105.069 1578 39.724
105.186 1495 38.6652
105.302 1378 37.1214
105.418 1267 35.5949
105.535 1254 35.4119
105.651 1304 36.1109
105.767 1267 35.5949
105.883 1269 35.623
105.999 1153 33.9559
106.115 0 1
106.231 0 1
106.347 0 1
106.463 0 1
106.579 0 1
106.694 0 1
106.81 0 1
106.926 0 1
107.041 0 1
107.157 0 1
109.576 0 1
109.692 0 1
109.807 0 1
109.923 0 1
110.039 0 1
110.155 0 1
110.27 0 1
110.386 0 1
110.502 0 1
110.618 820 28.6356
110.735 1039 32.2335
110.851 1251 35.3695
110.967 1420 37.6829
111.083 1501 38.7427
111.199 1646 40.5709
111.316 1753 41.8688
111.432 1826 42.7317
111.549 1865 43.1856
111.665 1890 43.4741
111.782 1908 43.6807
111.898 1858 43.1045
112.015 1844 42.9418
112.132 1700 41.2311
112.248 1567 39.5854
112.365 1498 38.704
112.482 1511 38.8716
112.599 1640 40.4969
112.716 1690 41.1096
112.832 1788 42.2847
112.949 1825 42.72
113.066 1900 43.589
113.183 1914 43.7493
113.3 1890 43.4741
113.417 1815 42.6028
113.534 1747 41.7971
113.652 1650 40.6202
113.769 1498 38.704
113.886 1378 37.1214
114.003 1310 36.1939
114.12 1363 36.9188
114.238 1550 39.37
114.355 1681 41
114.472 1731 41.6053
114.589 1962 44.2945
114.707 1847 42.9767
114.824 1902 43.6119
114.942 1906 43.6578
115.059 1980 44.4972
115.176 1888 43.4511
115.294 1924 43.8634
115.411 1887 43.4396
115.529 1854 43.0581
115.646 1741 41.7253
115.764 1651 40.6325
115.881 1552 39.3954
115.999 1608 40.0999
116.116 1655 40.6817
116.234 1725 41.5331
116.351 1845 42.9535
116.469 1821 42.6732
116.586 1846 42.9651
116.704 1870 43.2435
116.821 1899 43.5775
116.939 1956 44.2267
117.056 1904 43.6348
117.174 1710 41.3521
117.291 1561 39.5095
117.409 1485 38.5357
117.526 1433 37.855
117.644 1328 36.4417
117.761 1433 37.855
117.879 1554 39.4208
117.996 1667 40.8289
118.114 1793 42.3438
118.231 1796 42.3792
118.349 1817 42.6263
118.466 1897 43.5546
118.584 1865 43.1856
118.701 1824 42.7083
118.819 1891 43.4856
118.936 1838 42.8719
119.053 1884 43.4051
119.171 1724 41.5211
119.288 1684 41.0366
119.405 1662 40.7676
119.523 1498 38.704
119.64 1467 38.3014
119.757 1555 39.4335
119.875 1557 39.4588
119.992 1653 40.6571
120.109 1772 42.0951
120.226 1841 42.9069
120.343 1920 43.8178
120.46 1779 42.1782
120.578 1781 42.2019
120.695 1772 42.0951
120.812 1713 41.3884
120.929 1581 39.7618
121.046 1430 37.8153
121.163 1297 36.0139
121.279 1374 37.0675
121.396 1241 35.2278
121.513 1313 36.2353
121.63 1456 38.1576
121.747 1521 39
121.863 1451 38.092
121.98 1497 38.6911
122.097 1479 38.4578
122.213 1460 38.2099
122.33 1392 37.3095
122.446 1367 36.973
122.563 1298 36.0278
122.679 1214 34.8425
122.795 1148 33.8821
122.912 1054 32.4654
123.028 901 30.0167
123.144 839 28.9655
123.26 737 27.1477
123.377 0 1
123.493 0 1
123.609 0 1
123.725 0 1
123.84 0 1
123.956 0 1
124.072 0 1
124.188 0 1
124.303 0 1
124.419 0 1
126.852 0 1
126.968 0 1
127.083 0 1
127.199 0 1
127.315 0 1
127.431 0 1
127.547 0 1
127.663 0 1
127.779 0 1
127.895 0 1
128.011 0 1
128.127 0 1
128.243 0 1
128.359 1758 41.9285
128.476 1709 41.3401
128.592 1645 40.5586
128.708 1642 40.5216
128.825 1612 40.1497
128.941 1761 41.9643
129.058 1777 42.1545
129.174 1956 44.2267
129.291 1893 43.5086
129.408 1906 43.6578
129.524 1932 43.9545
129.641 1894 43.5201
129.758 1767 42.0357
129.875 1858 43.1045
129.992 1650 40.6202
130.108 1508 38.833
130.225 1447 38.0395
130.342 1452 38.1051
130.459 1498 38.704
130.576 1596 39.95
130.693 1712 41.3763
130.81 1770 42.0714
130.928 1747 41.7971
131.045 1847 42.9767
131.162 1908 43.6807
131.279 1919 43.8064
131.396 1929 43.9204
131.513 1916 43.7721
131.631 1914 43.7493
131.748 1854 43.0581
131.865 1852 43.0349
131.983 1798 42.4028
132.1 1694 41.1582
132.217 1608 40.0999
132.335 1691 41.1218
132.452 1618 40.2244
132.57 1841 42.9069
132.687 1905 43.6463
132.804 1913 43.7379
132.922 1996 44.6766
133.039 1896 43.5431
133.157 1961 44.2832
133.274 1915 43.7607
133.392 1849 43
133.509 1775 42.1307
133.627 1578 39.724
133.744 1490 38.6005
133.862 1484 38.5227
133.979 1553 39.4081
134.097 1600 40
134.214 1695 41.1704
134.332 1767 42.0357
134.449 1926 43.8862
134.567 1845 42.9535
134.684 1944 44.0908
134.802 1980 44.4972
134.919 2016 44.8999
135.037 1918 43.795
135.154 1935 43.9886
135.272 1858 43.1045
135.389 1863 43.1625
135.507 1759 41.9404
135.624 1713 41.3884
135.742 1681 41
135.859 1662 40.7676
135.977 1724 41.5211
136.094 1797 42.391
136.211 1857 43.0929
136.329 1857 43.0929
136.446 1913 43.7379
136.564 1980 44.4972
136.681 1967 44.3509
136.798 1928 43.909
136.915 1918 43.795
137.033 1867 43.2088
137.15 1706 41.3038
137.267 1703 41.2674
137.384 1486 38.5487
137.502 1393 37.3229
137.619 1398 37.3898
137.736 1571 39.6358
137.853 1632 40.398
137.97 1748 41.8091
138.087 1892 43.4971
138.204 1857 43.0929
138.321 1932 43.9545
138.438 1999 44.7102
138.555 1857 43.0929
138.672 1980 44.4972
138.788 1868 43.2204
138.905 1778 42.1663
139.022 1659 40.7308
139.139 1515 38.923
139.255 1547 39.3319
139.372 1428 37.7889
139.488 1283 35.819
139.605 1248 35.327
139.721 1261 35.5106
139.838 1240 35.2136
139.954 1222 34.9571
140.071 1231 35.0856
140.187 1170 34.2053
140.303 1035 32.1714
140.419 958 30.9516
140.535 904 30.0666
140.652 914 30.2324
140.768 0 1
140.884 0 1
141 0 1
141.115 0 1
141.231 0 1
141.347 0 1
141.463 0 1
141.578 0 1
141.694 0 1
144.104 0 1
144.219 0 1
144.335 0 1
144.45 0 1
144.566 0 1
144.682 0 1
144.798 0 1
144.914 0 1
145.03 0 1
145.146 1382 37.1753
145.262 1553 39.4081
145.378 1588 39.8497
145.494 1518 38.9615
145.61 1505 38.7943
145.726 1521 39
145.842 1474 38.3927
145.959 1373 37.054
146.075 1350 36.7423
146.192 1181 34.3657
146.308 1148 33.8821
146.425 1203 34.6843
146.541 1314 36.2491
146.658 1321 36.3456
146.774 1389 37.2693
146.891 1444 38
147.008 1411 37.5633
147.125 1449 38.0657
147.241 1484 38.5227
147.358 1478 38.4448
147.475 1572 39.6485
147.592 1492 38.6264
147.709 1421 37.6962
147.826 1387 37.2424
147.943 1383 37.1887
148.06 1352 36.7696
148.177 1346 36.6879
148.294 1336 36.5513
148.411 1368 36.9865
148.528 1348 36.7151
148.645 1427 37.7757
148.762 1452 38.1051
148.88 1502 38.7556
148.997 1587 39.8372
149.114 1496 38.6782
149.231 1485 38.5357
149.349 1530 39.1152
149.466 1402 37.4433
149.583 1396 37.3631
149.701 1373 37.054
149.818 1230 35.0714
149.935 1238 35.1852
150.053 1220 34.9285
150.17 1258 35.4683
150.287 1339 36.5923
150.405 1318 36.3043
150.522 1404 37.47
150.64 1369 37
150.757 1385 37.2156
150.875 1387 37.2424
150.992 1467 38.3014
151.11 1467 38.3014
151.227 1456 38.1576
151.344 1457 38.1707
151.462 1386 37.229
151.579 1381 37.1618
151.697 1313 36.2353
151.814 1313 36.2353
151.932 1222 34.9571
152.049 1252 35.3836
152.167 1354 36.7967
152.284 1373 37.054
152.402 1406 37.4967
152.519 1445 38.0132
152.636 1466 38.2884
152.754 1450 38.0789
152.871 1456 38.1576
152.989 1402 37.4433
153.106 1381 37.1618
153.223 1284 35.8329
153.341 1184 34.4093
153.458 1195 34.5688
153.575 1149 33.8969
153.693 1169 34.1906
153.81 1203 34.6843
153.927 1258 35.4683
154.044 1222 34.9571
154.162 1247 35.3129
154.279 1291 35.9305
154.396 1322 36.3593
154.513 1342 36.6333
154.63 1373 37.054
154.747 1353 36.7831
154.864 1337 36.565
154.981 1272 35.6651
155.098 1286 35.8608
155.215 1253 35.3977
155.332 1211 34.7994
155.449 1163 34.1028
155.566 1150 33.9116
155.683 1205 34.7131
155.8 1222 34.9571
155.917 1247 35.3129
156.033 1210 34.7851
156.15 0 1
156.267 0 1
156.383 0 1
156.5 0 1
156.617 0 1
156.733 0 1
156.85 0 1
156.966 0 1
157.082 0 1
157.199 0 1
157.315 0 1
157.431 0 1
157.547 0 1
157.664 0 1
157.78 0 1
157.896 0 1
158.012 0 1
158.128 0 1
158.244 0 1
158.359 0 1
158.475 0 1
158.591 0 1
158.706 0 1
