
6.15755 0 1
6.2731 0 1
6.3887 0 1
6.50437 0 1
6.62009 0 1
6.73587 0 1
6.8517 0 1
6.96759 0 1
7.08353 0 1
7.19952 0 1
7.31557 0 1
7.43166 0 1
7.54781 0 1
7.664 0 1
7.78024 0 1
7.89653 0 1
8.01286 0 1
8.12924 0 1
8.24567 0 1
8.36213 0 1
8.47864 0 1
8.59519 0 1
8.71178 0 1
8.82841 0 1
8.94508 0 1
9.06179 0 1
9.17853 0 1
9.29531 0 1
9.41212 0 1
9.52897 0 1
9.64584 0 1
9.76276 0 1
9.8797 0 1
9.99667 0 1
10.1137 0 1
10.2307 0 1
10.3478 0 1
10.4648 0 1
10.5819 0 1
10.6991 0 1
10.8162 0 1
10.9334 0 1
11.0506 0 1
11.1678 0 1
11.285 0 1
11.4023 0 1
11.5196 0 1
11.6369 0 1
11.7542 0 1
11.8715 0 1
11.9888 0 1
12.1062 0 1
12.2235 0 1
12.3409 0 1
12.4582 0 1
12.5756 0 1
12.693 0 1
12.8104 0 1
12.9278 0 1
13.0452 0 1
13.1626 0 1
13.28 0 1
13.3974 0 1
13.5149 0 1
13.6323 0 1
13.7497 0 1
13.8671 0 1
13.9845 0 1
14.1019 0 1
14.2193 0 1
14.3367 0 1
14.4541 0 1
14.5714 0 1
14.6888 0 1
14.8062 0 1
14.9235 0 1
15.0408 1770 42.0714
15.1581 1924 43.8634
15.2755 2077 45.5741
15.3927 2008 44.8107
15.51 1951 44.1701
15.6273 2022 44.9667
15.7445 1978 44.4747
15.8617 1948 44.1362
15.9789 1901 43.6005
16.0961 1921 43.8292
16.2132 1837 42.8602
16.3304 1794 42.3556
16.4475 1800 42.4264
16.5646 1741 41.7253
16.6816 1751 41.845
16.7986 1738 41.6893
16.9156 1791 42.3202
17.0326 1783 42.2256
17.1496 1754 41.8808
17.2665 1774 42.1189
17.3833 1746 41.7852
17.5002 1696 41.1825
17.617 1668 40.8412
17.7338 1798 42.4028
17.8505 1864 43.1741
17.9672 1943 44.0795
18.0839 1962 44.2945
18.2005 1930 43.9318
18.3171 1974 44.4297
18.4337 1958 44.2493
18.5502 2036 45.1221
18.6666 2069 45.4863
18.7831 1942 44.0681
18.8994 1891 43.4856
19.0158 1773 42.107
19.1321 1768 42.0476
19.2483 1747 41.7971
19.3645 1696 41.1825
19.4806 1672 40.8901
19.5967 1700 41.2311
19.7128 1730 41.5933
19.8288 1647 40.5832
19.9447 1579 39.7366
20.0606 0 1
20.1764 0 1
20.2922 0 1
20.4079 0 1
20.5236 0 1
20.6392 0 1
20.7548 0 1
20.8702 0 1
23.3078 0 1
23.4233 0 1
23.539 0 1
23.6547 0 1
23.7704 0 1
23.8862 0 1
24.0021 0 1
24.118 0 1
24.234 0 1
24.35 0 1
24.4661 1730 41.5933
24.5822 1601 40.0125
24.6984 1644 40.5463
24.8146 1722 41.497
24.9309 1771 42.0833
25.0472 1779 42.1782
25.1636 1923 43.852
25.28 1874 43.2897
25.3965 1959 44.2606
25.513 1985 44.5533
25.6296 1962 44.2945
25.7462 1985 44.5533
25.8628 1921 43.8292
25.9795 2028 45.0333
26.0962 1919 43.8064
26.213 1963 44.3058
26.3298 1882 43.382
26.4466 1946 44.1135
26.5635 1948 44.1362
26.6804 1977 44.4635
26.7973 1921 43.8292
26.9143 1865 43.1856
27.0313 1849 43
27.1483 1860 43.1277
27.2653 1817 42.6263
27.3824 1881 43.3705
27.4996 1820 42.6615
27.6167 1736 41.6653
27.7339 1750 41.833
27.8511 1665 40.8044
27.9683 1707 41.3159
28.0855 1708 41.328
28.2028 1583 39.7869
28.3201 1661 40.7554
28.4374 1648 40.5956
28.5547 1701 41.2432
28.6721 1724 41.5211
28.7894 1802 42.45
28.9068 1746 41.7852
29.0242 1793 42.3438
29.1416 1875 43.3013
29.259 1822 42.6849
29.3764 1852 43.0349
29.4939 1779 42.1782
29.6113 1843 42.9302
29.7288 1870 43.2435
29.8463 1787 42.2729
29.9638 1817 42.6263
30.0812 1890 43.4741
30.1987 1842 42.9185
30.3162 1920 43.8178
30.4337 1844 42.9418
30.5512 1828 42.7551
30.6687 1731 41.6053
30.7862 1627 40.3361
30.9037 1726 41.5452
31.0212 1767 42.0357
31.1387 1716 41.4246
31.2562 1675 40.9268
31.3737 1609 40.1123
31.4912 1614 40.1746
31.6087 1696 41.1825
31.7262 1616 40.1995
31.8436 1691 41.1218
31.9611 1644 40.5463
32.0785 1694 41.1582
32.1959 1710 41.3521
32.3134 1721 41.4849
32.4308 1755 41.8927
32.5482 1814 42.5911
32.6655 1858 43.1045
32.7829 1745 41.7732
32.9002 1767 42.0357
33.0176 1739 41.7013
33.1349 1727 41.5572
33.2522 1786 42.2611
33.3694 1785 42.2493
33.4867 1884 43.4051
33.6039 1805 42.4853
33.7211 1864 43.1741
33.8383 1833 42.8135
33.9554 1878 43.3359
34.0725 1796 42.3792
34.1896 1765 42.0119
34.3067 1722 41.497
34.4237 1699 41.2189
34.5407 1752 41.8569
34.6577 1649 40.6079
34.7746 1710 41.3521
34.8915 1715 41.4126
35.0084 1618 40.2244
35.1252 1579 39.7366
35.242 1637 40.4599
35.3587 1680 40.9878
35.4755 1727 41.5572
35.5921 1688 41.0853
35.7088 1676 40.939
35.8254 1703 41.2674
35.9419 1808 42.5206
36.0584 1786 42.2611
36.1749 1778 42.1663
36.2913 1782 42.2137
36.4077 1749 41.821
36.524 1764 42
36.6403 1753 41.8688
36.7565 1747 41.7971
36.8727 1765 42.0119
36.9889 1723 41.509
37.1049 1692 41.1339
37.221 0 1
37.3369 0 1
37.4529 0 1
37.5687 0 1
37.6845 0 1
37.8003 0 1
37.916 0 1
38.0316 0 1
38.1472 0 1
40.5851 0 1
40.7008 0 1
40.8164 0 1
40.9322 0 1
41.048 0 1
41.1639 0 1
41.2798 0 1
41.3958 0 1
41.5118 0 1
41.6279 0 1
41.744 1282 35.805
41.8602 1417 37.6431
41.9765 1487 38.5616
42.0928 1349 36.7287
42.2091 1485 38.5357
42.3255 1559 39.4842
42.4419 1471 38.3536
42.5584 1548 39.3446
42.675 1553 39.4081
42.7915 1509 38.8458
42.9081 1476 38.4187
43.0248 1422 37.7094
43.1415 1366 36.9594
43.2582 1339 36.5923
43.375 1370 37.0135
43.4918 1396 37.3631
43.6087 1287 35.8748
43.7256 1318 36.3043
43.8425 1313 36.2353
43.9595 1214 34.8425
44.0765 1235 35.1426
44.1935 1235 35.1426
44.3106 1199 34.6266
44.4277 1259 35.4824
44.5448 1243 35.2562
44.6619 1239 35.1994
44.7791 1224 34.9857
44.8963 1243 35.2562
45.0136 1181 34.3657
45.1308 1088 32.9848
45.2481 1120 33.4664
45.3654 1132 33.6452
45.4827 1029 32.078
45.6001 1091 33.0303
45.7174 1128 33.5857
45.8348 1112 33.3467
45.9522 1102 33.1964
46.0697 1135 33.6898
46.1871 1130 33.6155
46.3046 1100 33.1662
46.422 1082 32.8938
46.5395 1073 32.7567
46.657 1051 32.4191
46.7745 1013 31.8277
46.892 977 31.257
47.0096 1017 31.8904
47.1271 1021 31.9531
47.2446 971 31.1609
47.3622 925 30.4138
47.4797 900 30
47.5973 881 29.6816
47.7149 861 29.3428
47.8324 922 30.3645
47.95 915 30.249
48.0675 891 29.8496
48.1851 859 29.3087
48.3027 876 29.5973
48.4202 851 29.1719
48.5378 871 29.5127
48.6554 881 29.6816
48.7729 828 28.775
48.8904 813 28.5132
49.008 780 27.9285
49.1255 794 28.178
49.243 859 29.3087
49.3605 824 28.7054
49.478 836 28.9137
49.5955 923 30.3809
49.713 928 30.4631
49.8304 849 29.1376
49.9479 898 29.9666
50.0653 911 30.1828
50.1827 880 29.6648
50.3001 865 29.4109
50.4175 865 29.4109
50.5348 933 30.545
50.6521 822 28.6705
50.7694 945 30.7409
50.8867 995 31.5436
51.004 980 31.305
51.1212 983 31.3528
51.2384 1085 32.9393
51.3556 1107 33.2716
51.4727 1124 33.5261
51.5899 1216 34.8712
51.707 1203 34.6843
51.824 1258 35.4683
51.9411 1191 34.5109
52.0581 1228 35.0428
52.175 1249 35.3412
52.2919 1245 35.2846
52.4088 1284 35.8329
52.5257 1271 35.6511
52.6425 1373 37.054
52.7593 1263 35.5387
52.876 1387 37.2424
52.9927 1350 36.7423
53.1094 1469 38.3275
53.226 1564 39.5474
53.3426 1525 39.0512
53.4591 1589 39.8623
53.5756 1528 39.0896
53.692 1659 40.7308
53.8084 1516 38.9358
53.9248 1500 38.7298
54.0411 1468 38.3145
54.1573 1567 39.5854
54.2735 0 1
54.3896 0 1
54.5057 0 1
54.6217 0 1
54.7377 0 1
54.8537 0 1
54.9695 0 1
55.0853 0 1
55.2011 0 1
55.3168 0 1
55.4324 0 1
57.824 0 1
57.9396 0 1
58.0553 0 1
58.1711 0 1
58.2869 0 1
58.4028 0 1
58.5187 0 1
58.6347 0 1
58.7508 0 1
58.8669 0 1
58.983 1856 43.0813
59.0992 1852 43.0349
59.2155 1795 42.3674
59.3318 1834 42.8252
59.4482 1878 43.3359
59.5646 1919 43.8064
59.681 1888 43.4511
59.7975 1899 43.5775
59.9141 1875 43.3013
60.0306 1863 43.1625
60.1473 1897 43.5546
60.2639 1917 43.7836
60.3807 1806 42.4971
60.4974 1863 43.1625
60.6142 1817 42.6263
60.731 1799 42.4146
60.8479 1758 41.9285
60.9648 1735 41.6533
61.0818 1674 40.9145
61.1987 1776 42.1426
61.3158 1810 42.5441
61.4328 1751 41.845
61.5499 1722 41.497
61.667 1702 41.2553
61.7841 1750 41.833
61.9013 1721 41.4849
62.0185 1743 41.7493
62.1357 1690 41.1096
62.253 1744 41.7612
62.3702 1698 41.2068
62.4875 1689 41.0974
62.6049 1697 41.1947
62.7222 1678 40.9634
62.8396 1674 40.9145
62.9569 1664 40.7922
63.0743 1677 40.9512
63.1918 1701 41.2432
63.3092 1686 41.0609
63.4267 1594 39.9249
63.5441 1611 40.1373
63.6616 1606 40.0749
63.7791 1620 40.2492
63.8966 1635 40.4351
64.0142 1600 40
64.1317 1609 40.1123
64.2492 1496 38.6782
64.3668 1485 38.5357
64.4843 1529 39.1024
64.6019 1553 39.4081
64.7195 1544 39.2938
64.837 1569 39.6106
64.9546 1463 38.2492
65.0722 1535 39.1791
65.1898 1512 38.8844
65.3074 1508 38.833
65.4249 1556 39.4462
65.5425 1559 39.4842
65.6601 1551 39.3827
65.7777 1520 38.9872
65.8952 1578 39.724
66.0128 1506 38.8072
66.1304 1505 38.7943
66.2479 1493 38.6394
66.3655 1488 38.5746
66.483 1464 38.2623
66.6005 1509 38.8458
66.718 1507 38.8201
66.8355 1553 39.4081
66.953 1481 38.4838
67.0705 1574 39.6737
67.1879 1552 39.3954
67.3054 1547 39.3319
67.4228 1536 39.1918
67.5402 1488 38.5746
67.6576 1442 37.9737
67.7749 1451 38.092
67.8923 1483 38.5097
68.0096 1481 38.4838
68.1269 1462 38.2361
68.2442 1464 38.2623
68.3614 1588 39.8497
68.4787 1568 39.598
68.5958 1565 39.5601
68.713 1529 39.1024
68.8302 1530 39.1152
68.9473 1548 39.3446
69.0643 1515 38.923
69.1814 1506 38.8072
69.2984 1620 40.2492
69.4154 1575 39.6863
69.5323 1645 40.5586
69.6492 1763 41.9881
69.7661 1712 41.3763
69.8829 1566 39.5727
69.9997 1606 40.0749
70.1165 1608 40.0999
70.2332 1643 40.5339
70.3499 1614 40.1746
70.4665 1581 39.7618
70.5831 1642 40.5216
70.6996 1572 39.6485
70.8161 1645 40.5586
70.9326 1600 40
71.049 1637 40.4599
71.1653 1647 40.5832
71.2817 1638 40.4722
71.3979 1575 39.6863
71.5141 1565 39.5601
71.6303 1529 39.1024
71.7464 1413 37.5899
71.8624 0 1
71.9784 0 1
72.0944 0 1
72.2102 0 1
72.3261 0 1
72.4418 0 1
72.5575 0 1
72.6732 0 1
75.1054 0 1
75.2209 0 1
75.3365 0 1
75.4521 0 1
75.5678 0 1
75.6835 0 1
75.7993 0 1
75.9151 0 1
76.031 0 1
76.147 1469 38.3275
76.263 1485 38.5357
76.3791 1654 40.6694
76.4952 1589 39.8623
76.6113 1641 40.5093
76.7276 1526 39.064
76.8438 1528 39.0896
76.9601 1513 38.8973
77.0765 1486 38.5487
77.1929 1569 39.6106
77.3093 1595 39.9375
77.4258 1599 39.9875
77.5423 1606 40.0749
77.6589 1574 39.6737
77.7755 1451 38.092
77.8921 1540 39.2428
78.0088 1400 37.4166
78.1256 1411 37.5633
78.2423 1461 38.223
78.3591 1395 37.3497
78.4759 1518 38.9615
78.5928 1504 38.7814
78.7097 1466 38.2884
78.8266 1545 39.3065
78.9436 1443 37.9868
79.0606 1337 36.565
79.1776 1287 35.8748
79.2946 1388 37.2559
79.4117 1494 38.6523
79.5288 1471 38.3536
79.6459 1448 38.0526
79.7631 1431 37.8286
79.8802 1359 36.8646
79.9974 1345 36.6742
80.1147 1353 36.7831
80.2319 1263 35.5387
80.3491 1349 36.7287
80.4664 1281 35.7911
80.5837 1288 35.8887
80.701 1257 35.4542
80.8183 1305 36.1248
80.9357 1288 35.8887
81.053 1256 35.4401
81.1704 1312 36.2215
81.2877 1321 36.3456
81.4051 1236 35.1568
81.5225 1204 34.6987
81.6399 1177 34.3074
81.7573 1245 35.2846
81.8747 1122 33.4963
81.9922 1147 33.8674
82.1096 1172 34.2345
82.227 1173 34.2491
82.3444 1194 34.5543
82.4619 1297 36.0139
82.5793 1272 35.6651
82.6967 1133 33.6601
82.8142 1028 32.0624
82.9316 1125 33.541
83.049 1155 33.9853
83.1664 1141 33.7787
83.2838 1088 32.9848
83.4012 1066 32.6497
83.5186 1076 32.8024
83.636 1038 32.218
83.7534 1051 32.4191
83.8708 1017 31.8904
83.9881 956 30.9192
84.1055 966 31.0805
84.2228 1034 32.1559
84.3401 987 31.4166
84.4575 1017 31.8904
84.5747 950 30.8221
84.692 1058 32.5269
84.8093 1013 31.8277
84.9265 1020 31.9374
85.0437 985 31.3847
85.1609 994 31.5278
85.2781 1052 32.4345
85.3952 969 31.1288
85.5123 975 31.225
85.6294 1031 32.1092
85.7465 1000 31.6228
85.8636 1034 32.1559
85.9806 1085 32.9393
86.0976 1096 33.1059
86.2145 1086 32.9545
86.3315 1092 33.0454
86.4484 1088 32.9848
86.5652 1029 32.078
86.682 1076 32.8024
86.7988 1114 33.3766
86.9156 1015 31.8591
87.0323 1043 32.2955
87.149 1030 32.0936
87.2657 1050 32.4037
87.3823 1060 32.5576
87.4988 998 31.5911
87.6154 980 31.305
87.7318 986 31.4006
87.8483 971 31.1609
87.9647 1023 31.9844
88.081 1012 31.8119
88.1973 1016 31.8748
88.3136 1089 33
88.4298 1076 32.8024
88.546 1060 32.5576
88.6621 1058 32.5269
88.7781 967 31.0966
88.8942 0 1
89.0101 0 1
89.126 0 1
89.2419 0 1
89.3577 0 1
89.4734 0 1
89.5891 0 1
89.7047 0 1
89.8203 0 1
89.9358 0 1
92.3269 0 1
92.4424 0 1
92.558 0 1
92.6736 0 1
92.7893 0 1
92.905 0 1
93.0208 0 1
93.1366 0 1
93.2525 0 1
93.3685 0 1
93.4845 0 1
93.6005 696 26.3818
93.7167 728 26.9815
93.8328 710 26.6458
93.949 716 26.7582
94.0653 621 24.9199
94.1816 626 25.02
94.2979 620 24.8998
94.4143 613 24.7588
94.5307 591 24.3105
94.6472 577 24.0208
94.7637 534 23.1084
94.8803 590 24.2899
94.9969 588 24.2487
95.1135 654 25.5734
95.2302 695 26.3629
95.3469 668 25.8457
95.4637 666 25.807
95.5805 718 26.7955
95.6973 607 24.6374
95.8142 615 24.7992
95.9311 600 24.4949
96.048 579 24.0624
96.1649 516 22.7156
96.2819 461 21.4709
96.3989 451 21.2368
96.516 428 20.6882
96.633 331 18.1934
96.7501 391 19.7737
96.8673 375 19.3649
96.9844 352 18.7617
97.1016 361 19
97.2188 323 17.9722
97.336 386 19.6469
97.4532 432 20.7846
97.5704 397 19.9249
97.6877 379 19.4679
97.805 317 17.8045
97.9223 313 17.6918
98.0396 344 18.5472
98.1569 275 16.5831
98.2743 271 16.4621
98.3916 328 18.1108
98.509 307 17.5214
98.6264 293 17.1172
98.7438 369 19.2094
98.8612 421 20.5183
98.9786 422 20.5426
99.096 451 21.2368
99.2134 442 21.0238
99.3308 483 21.9773
99.4482 445 21.095
99.5656 449 21.1896
99.6831 400 20
99.8005 371 19.2614
99.9179 384 19.5959
100.035 375 19.3649
100.153 316 17.7764
100.27 317 17.8045
100.388 317 17.8045
100.505 344 18.5472
100.622 333 18.2483
100.74 434 20.8327
100.857 445 21.095
100.975 488 22.0907
101.092 542 23.2809
101.209 577 24.0208
101.327 548 23.4094
101.444 581 24.1039
101.561 634 25.1794
101.679 626 25.02
101.796 681 26.096
101.913 751 27.4044
102.03 815 28.5482
102.148 857 29.2746
102.265 1013 31.8277
102.382 935 30.5778
102.499 1008 31.749
102.616 994 31.5278
102.733 955 30.9031
102.851 1155 33.9853
102.968 1322 36.3593
103.085 1442 37.9737
103.202 1386 37.229
103.319 1429 37.8021
103.436 1347 36.7015
103.552 1310 36.1939
103.669 1336 36.5513
103.786 1311 36.2077
103.903 1303 36.0971
104.02 1264 35.5528
104.137 1319 36.318
104.253 1369 37
104.37 1386 37.229
104.487 1392 37.3095
104.603 1408 37.5233
104.72 1318 36.3043
104.836 1379 37.1349
104.953 1315 36.2629
105.069 1308 36.1663
105.186 1285 35.8469
105.302 1308 36.1663
105.418 1297 36.0139
105.535 1262 35.5246
105.651 1259 35.4824
105.767 1343 36.647
105.883 1363 36.9188
105.999 1333 36.5103
106.115 0 1
106.231 0 1
106.347 0 1
106.463 0 1
106.579 0 1
106.694 0 1
106.81 0 1
106.926 0 1
107.041 0 1
107.157 0 1
109.576 0 1
109.692 0 1
109.807 0 1
109.923 0 1
110.039 0 1
110.155 0 1
110.27 0 1
110.386 0 1
110.502 0 1
110.618 1444 38
110.735 1563 39.5348
110.851 1653 40.6571
110.967 1700 41.2311
111.083 1714 41.4005
111.199 1374 37.0675
111.316 1286 35.8608
111.432 1608 40.0999
111.549 1669 40.8534
111.665 1756 41.9047
111.782 1734 41.6413
111.898 1672 40.8901
112.015 1627 40.3361
112.132 1578 39.724
112.248 1574 39.6737
112.365 1533 39.1535
112.482 1512 38.8844
112.599 1492 38.6264
112.716 1449 38.0657
112.832 1449 38.0657
112.949 1477 38.4318
113.066 1559 39.4842
113.183 1462 38.2361
113.3 1521 39
113.417 1546 39.3192
113.534 1602 40.025
113.652 1484 38.5227
113.769 1573 39.6611
113.886 1540 39.2428
114.003 1530 39.1152
114.12 1563 39.5348
114.238 1613 40.1622
114.355 1685 41.0488
114.472 1841 42.9069
114.589 1571 39.6358
114.707 1440 37.9473
114.824 1224 34.9857
114.942 1417 37.6431
115.059 1634 40.4228
115.176 1763 41.9881
115.294 1770 42.0714
115.411 1695 41.1704
115.529 1716 41.4246
115.646 1744 41.7612
115.764 1661 40.7554
115.881 1652 40.6448
115.999 1624 40.2989
116.116 1586 39.8246
116.234 1599 39.9875
116.351 1640 40.4969
116.469 1571 39.6358
116.586 1668 40.8412
116.704 1534 39.1663
116.821 1535 39.1791
116.939 1514 38.9102
117.056 1627 40.3361
117.174 1687 41.0731
117.291 1646 40.5709
117.409 1662 40.7676
117.526 1719 41.4608
117.644 1732 41.6173
117.761 1719 41.4608
117.879 1822 42.6849
117.996 1692 41.1339
118.114 1693 41.1461
118.231 1745 41.7732
118.349 1520 38.9872
118.466 1344 36.6606
118.584 1589 39.8623
118.701 1658 40.7185
118.819 1802 42.45
118.936 1807 42.5088
119.053 1871 43.2551
119.171 1696 41.1825
119.288 1757 41.9166
119.405 1676 40.939
119.523 1576 39.6989
119.64 1552 39.3954
119.757 1576 39.6989
119.875 1596 39.95
119.992 1414 37.6032
120.109 1471 38.3536
120.226 1481 38.4838
120.343 1494 38.6523
120.46 1391 37.2961
120.578 1404 37.47
120.695 1443 37.9868
120.812 1378 37.1214
120.929 1419 37.6696
121.046 1445 38.0132
121.163 1516 38.9358
121.279 1512 38.8844
121.396 1541 39.2556
121.513 1599 39.9875
121.63 1490 38.6005
121.747 1490 38.6005
121.863 1488 38.5746
121.98 1347 36.7015
122.097 1167 34.1614
122.213 1107 33.2716
122.33 1302 36.0832
122.446 1384 37.2022
122.563 1420 37.6829
122.679 1326 36.4143
122.795 1320 36.3318
122.912 1338 36.5787
123.028 1261 35.5106
123.144 1261 35.5106
123.26 1195 34.5688
123.377 0 1
123.493 0 1
123.609 0 1
123.725 0 1
123.84 0 1
123.956 0 1
124.072 0 1
124.188 0 1
124.303 0 1
124.419 0 1
126.852 0 1
126.968 0 1
127.083 0 1
127.199 0 1
127.315 0 1
127.431 0 1
127.547 0 1
127.663 0 1
127.779 0 1
127.895 0 1
128.011 0 1
128.127 0 1
128.243 0 1
128.359 995 31.5436
128.476 980 31.305
128.592 1013 31.8277
128.708 920 30.3315
128.825 896 29.9333
128.941 879 29.6479
129.058 831 28.8271
129.174 823 28.688
129.291 830 28.8097
129.408 759 27.55
129.524 779 27.9106
129.641 831 28.8271
129.758 813 28.5132
129.875 884 29.7321
129.992 907 30.1164
130.108 903 30.05
130.225 950 30.8221
130.342 946 30.7571
130.459 951 30.8383
130.576 905 30.0832
130.693 806 28.3901
130.81 839 28.9655
130.928 896 29.9333
131.045 877 29.6142
131.162 834 28.8791
131.279 825 28.7228
131.396 858 29.2916
131.513 902 30.0333
131.631 945 30.7409
131.748 908 30.133
131.865 840 28.9828
131.983 925 30.4138
132.1 819 28.6182
132.217 810 28.4605
132.335 842 29.0172
132.452 785 28.0179
132.57 707 26.5895
132.687 693 26.3249
132.804 745 27.2947
132.922 699 26.4386
133.039 718 26.7955
133.157 691 26.2869
133.274 736 27.1293
133.392 782 27.9643
133.509 787 28.0535
133.627 827 28.7576
133.744 810 28.4605
133.862 860 29.3258
133.979 828 28.775
134.097 757 27.5136
134.214 695 26.3629
134.332 630 25.0998
134.449 706 26.5707
134.567 730 27.0185
134.684 794 28.178
134.802 819 28.6182
134.919 759 27.55
135.037 850 29.1548
135.154 859 29.3087
135.272 909 30.1496
135.389 823 28.688
135.507 893 29.8831
135.624 893 29.8831
135.742 877 29.6142
135.859 887 29.7825
135.977 828 28.775
136.094 774 27.8209
136.211 769 27.7308
136.329 787 28.0535
136.446 796 28.2135
136.564 789 28.0891
136.681 744 27.2764
136.798 813 28.5132
136.915 856 29.2575
137.033 857 29.2746
137.15 901 30.0167
137.267 849 29.1376
137.384 943 30.7083
137.502 868 29.4618
137.619 861 29.3428
137.736 840 28.9828
137.853 694 26.3439
137.97 611 24.7184
138.087 661 25.7099
138.204 823 28.688
138.321 889 29.8161
138.438 904 30.0666
138.555 875 29.5804
138.672 943 30.7083
138.788 965 31.0644
138.905 943 30.7083
139.022 991 31.4802
139.139 1022 31.9687
139.255 1007 31.7333
139.372 1017 31.8904
139.488 994 31.5278
139.605 932 30.5287
139.721 973 31.1929
139.838 958 30.9516
139.954 883 29.7153
140.071 907 30.1164
140.187 939 30.6431
140.303 889 29.8161
140.419 923 30.3809
140.535 932 30.5287
140.652 968 31.1127
140.768 0 1
140.884 0 1
141 0 1
141.115 0 1
141.231 0 1
141.347 0 1
141.463 0 1
141.578 0 1
141.694 0 1
144.104 0 1
144.219 0 1
144.335 0 1
144.45 0 1
144.566 0 1
144.682 0 1
144.798 0 1
144.914 0 1
145.03 0 1
145.146 1027 32.0468
145.262 951 30.8383
145.378 988 31.4325
145.494 1017 31.8904
145.61 988 31.4325
145.726 988 31.4325
145.842 1033 32.1403
145.959 1010 31.7805
146.075 1044 32.311
146.192 968 31.1127
146.308 887 29.7825
146.425 828 28.775
146.541 855 29.2404
146.658 790 28.1069
146.774 822 28.6705
146.891 827 28.7576
147.008 953 30.8707
147.125 1054 32.4654
147.241 1119 33.4515
147.358 1093 33.0606
147.475 1140 33.7639
147.592 1177 34.3074
147.709 1072 32.7414
147.826 1256 35.4401
147.943 1159 34.0441
148.06 1065 32.6343
148.177 1148 33.8821
148.294 1106 33.2566
148.411 1078 32.8329
148.528 1120 33.4664
148.645 1071 32.7261
148.762 1049 32.3883
148.88 1053 32.45
148.997 1150 33.9116
149.114 1080 32.8634
149.231 1086 32.9545
149.349 1122 33.4963
149.466 1066 32.6497
149.583 1162 34.0881
149.701 1145 33.8378
149.818 1090 33.0151
149.935 1038 32.218
150.053 1005 31.7017
150.17 959 30.9677
150.287 907 30.1164
150.405 947 30.7734
150.522 966 31.0805
150.64 1021 31.9531
150.757 1103 33.2114
150.875 1224 34.9857
150.992 1153 33.9559
151.11 1204 34.6987
151.227 1234 35.1283
151.344 1207 34.7419
151.462 1210 34.7851
151.579 1246 35.2987
151.697 1204 34.6987
151.814 1187 34.4529
151.932 1171 34.2199
152.049 1204 34.6987
152.167 1169 34.1906
152.284 1212 34.8138
152.402 1169 34.1906
152.519 1247 35.3129
152.636 1222 34.9571
152.754 1204 34.6987
152.871 1147 33.8674
152.989 1187 34.4529
153.106 1207 34.7419
153.223 1212 34.8138
153.341 1199 34.6266
153.458 1121 33.4813
153.575 1106 33.2566
153.693 1118 33.4365
153.81 1027 32.0468
153.927 1031 32.1092
154.044 1075 32.7872
154.162 1077 32.8177
154.279 1130 33.6155
154.396 1220 34.9285
154.513 1323 36.3731
154.63 1310 36.1939
154.747 1324 36.3868
154.864 1336 36.5513
154.981 1363 36.9188
155.098 1379 37.1349
155.215 1335 36.5377
155.332 1348 36.7151
155.449 1353 36.7831
155.566 1406 37.4967
155.683 1346 36.6879
155.8 1373 37.054
155.917 1279 35.7631
156.033 1308 36.1663
156.15 0 1
156.267 0 1
156.383 0 1
156.5 0 1
156.617 0 1
156.733 0 1
156.85 0 1
156.966 0 1
157.082 0 1
157.199 0 1
157.315 0 1
157.431 0 1
157.547 0 1
157.664 0 1
157.78 0 1
157.896 0 1
158.012 0 1
158.128 0 1
158.244 0 1
158.359 0 1
158.475 0 1
158.591 0 1
158.706 0 1
