
6.15755 0 1
6.2731 0 1
6.3887 0 1
6.50437 0 1
6.62009 0 1
6.73587 0 1
6.8517 0 1
6.96759 0 1
7.08353 0 1
7.19952 0 1
7.31557 0 1
7.43166 0 1
7.54781 0 1
7.664 0 1
7.78024 0 1
7.89653 0 1
8.01286 0 1
8.12924 0 1
8.24567 0 1
8.36213 0 1
8.47864 0 1
8.59519 0 1
8.71178 0 1
8.82841 0 1
8.94508 0 1
9.06179 0 1
9.17853 0 1
9.29531 0 1
9.41212 0 1
9.52897 0 1
9.64584 0 1
9.76276 0 1
9.8797 0 1
9.99667 0 1
10.1137 0 1
10.2307 0 1
10.3478 0 1
10.4648 0 1
10.5819 0 1
10.6991 0 1
10.8162 0 1
10.9334 0 1
11.0506 0 1
11.1678 0 1
11.285 0 1
11.4023 0 1
11.5196 0 1
11.6369 0 1
11.7542 0 1
11.8715 0 1
11.9888 0 1
12.1062 0 1
12.2235 0 1
12.3409 0 1
12.4582 0 1
12.5756 0 1
12.693 0 1
12.8104 0 1
12.9278 0 1
13.0452 0 1
13.1626 0 1
13.28 0 1
13.3974 0 1
13.5149 0 1
13.6323 0 1
13.7497 0 1
13.8671 0 1
13.9845 0 1
14.1019 0 1
14.2193 0 1
14.3367 0 1
14.4541 0 1
14.5714 0 1
14.6888 0 1
14.8062 0 1
14.9235 0 1
15.0408 1789 42.2966
15.1581 1828 42.7551
15.2755 1909 43.6921
15.3927 1912 43.7264
15.51 1952 44.1814
15.6273 1880 43.359
15.7445 1850 43.0116
15.8617 1849 43
15.9789 1796 42.3792
16.0961 1803 42.4617
16.2132 1905 43.6463
16.3304 1873 43.2782
16.4475 1939 44.0341
16.5646 1986 44.5646
16.6816 2179 46.6798
16.7986 2192 46.8188
16.9156 2337 48.3425
17.0326 2534 50.3389
17.1496 2484 49.8397
17.2665 2547 50.4678
17.3833 2596 50.951
17.5002 2508 50.0799
17.617 2598 50.9706
17.7338 2597 50.9608
17.8505 2526 50.2593
17.9672 2753 52.469
18.0839 2700 51.9615
18.2005 2696 51.923
18.3171 2773 52.6593
18.4337 2788 52.8015
18.5502 2700 51.9615
18.6666 2780 52.7257
18.7831 2774 52.6688
18.8994 2755 52.4881
19.0158 2769 52.6213
19.1321 2594 50.9313
19.2483 2585 50.8429
19.3645 2546 50.4579
19.4806 2491 49.9099
19.5967 2413 49.1223
19.7128 2203 46.9361
19.8288 2001 44.7325
19.9447 1722 41.497
20.0606 0 1
20.1764 0 1
20.2922 0 1
20.4079 0 1
20.5236 0 1
20.6392 0 1
20.7548 0 1
20.8702 0 1
23.3078 0 1
23.4233 0 1
23.539 0 1
23.6547 0 1
23.7704 0 1
23.8862 0 1
24.0021 0 1
24.118 0 1
24.234 0 1
24.35 0 1
24.4661 2440 49.3964
24.5822 2522 50.2195
24.6984 2350 48.4768
24.8146 2429 49.2849
24.9309 2349 48.4665
25.0472 2225 47.1699
25.1636 2066 45.4533
25.28 1985 44.5533
25.3965 2120 46.0435
25.513 2179 46.6798
25.6296 2451 49.5076
25.7462 2686 51.8266
25.8628 2934 54.1664
25.9795 2998 54.754
26.0962 2921 54.0463
26.213 2842 53.3104
26.3298 3006 54.827
26.4466 2982 54.6077
26.5635 2855 53.4322
26.6804 2910 53.9444
26.7973 3058 55.2992
26.9143 2860 53.479
27.0313 2919 54.0278
27.1483 2943 54.2494
27.2653 2861 53.4883
27.3824 2867 53.5444
27.4996 2944 54.2586
27.6167 2830 53.1977
27.7339 2699 51.9519
27.8511 2694 51.9038
27.9683 2670 51.672
28.0855 2701 51.9711
28.2028 2641 51.3907
28.3201 2598 50.9706
28.4374 2530 50.2991
28.5547 2362 48.6004
28.6721 2081 45.618
28.7894 1956 44.2267
28.9068 2096 45.7821
29.0242 2054 45.3211
29.1416 2210 47.0106
29.259 2342 48.3942
29.3764 2631 51.2933
29.4939 2698 51.9423
29.6113 2805 52.9623
29.7288 2793 52.8488
29.8463 2803 52.9434
29.9638 2814 53.0471
30.0812 2755 52.4881
30.1987 2734 52.2877
30.3162 2749 52.4309
30.4337 2850 53.3854
30.5512 2757 52.5071
30.6687 2753 52.469
30.7862 2689 51.8556
30.9037 2720 52.1536
31.0212 2775 52.6783
31.1387 2758 52.5167
31.2562 2827 53.1695
31.3737 2732 52.2685
31.4912 2640 51.3809
31.6087 2676 51.7301
31.7262 2638 51.3615
31.8436 2599 50.9804
31.9611 2545 50.448
32.0785 2323 48.1975
32.1959 2082 45.6289
32.3134 1937 44.0114
32.4308 2055 45.3321
32.5482 2071 45.5082
32.6655 2178 46.669
32.7829 2371 48.6929
32.9002 2443 49.4267
33.0176 2643 51.4101
33.1349 2751 52.45
33.2522 2760 52.5357
33.3694 2589 50.8822
33.4867 2693 51.8941
33.6039 2735 52.2972
33.7211 2786 52.7826
33.8383 2790 52.8205
33.9554 2828 53.1789
34.0725 2803 52.9434
34.1896 2634 51.3225
34.3067 2686 51.8266
34.4237 2709 52.0481
34.5407 2587 50.8626
34.6577 2606 51.049
34.7746 2686 51.8266
34.8915 2690 51.8652
35.0084 2714 52.0961
35.1252 2636 51.342
35.242 2540 50.3984
35.3587 2605 51.0392
35.4755 2593 50.9215
35.5921 2592 50.9117
35.7088 2431 49.3052
35.8254 2249 47.4236
35.9419 1985 44.5533
36.0584 1894 43.5201
36.1749 1912 43.7264
36.2913 1933 43.9659
36.4077 1988 44.587
36.524 2203 46.9361
36.6403 2392 48.9081
36.7565 2566 50.6557
36.8727 2619 51.1762
36.9889 2679 51.7591
37.1049 2628 51.264
37.221 0 1
37.3369 0 1
37.4529 0 1
37.5687 0 1
37.6845 0 1
37.8003 0 1
37.916 0 1
38.0316 0 1
38.1472 0 1
40.5851 0 1
40.7008 0 1
40.8164 0 1
40.9322 0 1
41.048 0 1
41.1639 0 1
41.2798 0 1
41.3958 0 1
41.5118 0 1
41.6279 0 1
41.744 1806 42.4971
41.8602 1976 44.4522
41.9765 2079 45.5961
42.0928 2105 45.8803
42.2091 2222 47.1381
42.3255 2242 47.3498
42.4419 2226 47.1805
42.5584 2095 45.7712
42.675 2225 47.1699
42.7915 2198 46.8828
42.9081 2160 46.4758
43.0248 2129 46.1411
43.1415 1995 44.6654
43.2582 2039 45.1553
43.375 2077 45.5741
43.4918 2083 45.6399
43.6087 2167 46.551
43.7256 2147 46.3357
43.8425 2151 46.3789
43.9595 2011 44.8442
44.0765 2021 44.9555
44.1935 2103 45.8585
44.3106 1955 44.2154
44.4277 1948 44.1362
44.5448 1732 41.6173
44.6619 1613 40.1622
44.7791 1371 37.027
44.8963 1247 35.3129
45.0136 1265 35.5668
45.1308 1301 36.0694
45.2481 1347 36.7015
45.3654 1536 39.1918
45.4827 1683 41.0244
45.6001 1618 40.2244
45.7174 1657 40.7063
45.8348 1582 39.7744
45.9522 1615 40.1871
46.0697 1536 39.1918
46.1871 1658 40.7185
46.3046 1631 40.3856
46.422 1545 39.3065
46.5395 1519 38.9744
46.657 1461 38.223
46.7745 1631 40.3856
46.892 1486 38.5487
47.0096 1598 39.975
47.1271 1591 39.8873
47.2446 1556 39.4462
47.3622 1512 38.8844
47.4797 1499 38.7169
47.5973 1382 37.1753
47.7149 1453 38.1182
47.8324 1364 36.9324
47.95 1378 37.1214
48.0675 1299 36.0416
48.1851 1251 35.3695
48.3027 1114 33.3766
48.4202 981 31.3209
48.5378 997 31.5753
48.6554 1043 32.2955
48.7729 1004 31.686
48.8904 1045 32.3265
49.008 1219 34.9142
49.1255 1247 35.3129
49.243 1320 36.3318
49.3605 1295 35.9861
49.478 1219 34.9142
49.5955 1314 36.2491
49.713 1276 35.7211
49.8304 1200 34.641
49.9479 1263 35.5387
50.0653 1334 36.524
50.1827 1270 35.6371
50.3001 1362 36.9053
50.4175 1410 37.55
50.5348 1390 37.2827
50.6521 1465 38.2753
50.7694 1532 39.1408
50.8867 1542 39.2683
51.004 1593 39.9124
51.1212 1652 40.6448
51.2384 1607 40.0874
51.3556 1631 40.3856
51.4727 1586 39.8246
51.5899 1568 39.598
51.707 1518 38.9615
51.824 1421 37.6962
51.9411 1364 36.9324
52.0581 1401 37.4299
52.175 1423 37.7227
52.2919 1542 39.2683
52.4088 1653 40.6571
52.5257 1905 43.6463
52.6425 1970 44.3847
52.7593 1964 44.317
52.876 2004 44.7661
52.9927 2061 45.3982
53.1094 2094 45.7602
53.226 2047 45.2438
53.3426 2164 46.5188
53.4591 2033 45.0888
53.5756 2052 45.299
53.692 2164 46.5188
53.8084 2047 45.2438
53.9248 2247 47.4025
54.0411 2239 47.3181
54.1573 2316 48.1248
54.2735 0 1
54.3896 0 1
54.5057 0 1
54.6217 0 1
54.7377 0 1
54.8537 0 1
54.9695 0 1
55.0853 0 1
55.2011 0 1
55.3168 0 1
55.4324 0 1
57.824 0 1
57.9396 0 1
58.0553 0 1
58.1711 0 1
58.2869 0 1
58.4028 0 1
58.5187 0 1
58.6347 0 1
58.7508 0 1
58.8669 0 1
58.983 2268 47.6235
59.0992 2463 49.6286
59.2155 2539 50.3885
59.3318 2717 52.1249
59.4482 2800 52.915
59.5646 2788 52.8015
59.681 2841 53.301
59.7975 2787 52.792
59.9141 2605 51.0392
60.0306 2598 50.9706
60.1473 2557 50.5668
60.2639 2425 49.2443
60.3807 2319 48.156
60.4974 2136 46.2169
60.6142 2104 45.8694
60.731 2037 45.1331
60.8479 2024 44.9889
60.9648 2092 45.7384
61.0818 2223 47.1487
61.1987 2295 47.9062
61.3158 2346 48.4355
61.4328 2298 47.9375
61.5499 2368 48.6621
61.667 2379 48.775
61.7841 2313 48.0937
61.9013 2285 47.8017
62.0185 2261 47.55
62.1357 2237 47.2969
62.253 2230 47.2229
62.3702 2276 47.7074
62.4875 2370 48.6826
62.6049 2353 48.5077
62.7222 2470 49.6991
62.8396 2484 49.8397
62.9569 2550 50.4975
63.0743 2506 50.06
63.1918 2477 49.7695
63.3092 2368 48.6621
63.4267 2413 49.1223
63.5441 2379 48.775
63.6616 2200 46.9042
63.7791 2087 45.6837
63.8966 2035 45.111
64.0142 1911 43.715
64.1317 1868 43.2204
64.2492 1842 42.9185
64.3668 1871 43.2551
64.4843 1880 43.359
64.6019 1990 44.6094
64.7195 2033 45.0888
64.837 2141 46.2709
64.9546 2119 46.0326
65.0722 2156 46.4327
65.1898 2124 46.0869
65.3074 2190 46.7974
65.4249 2082 45.6289
65.5425 2017 44.911
65.6601 1997 44.6878
65.7777 1885 43.4166
65.8952 2016 44.8999
66.0128 2075 45.5522
66.1304 2184 46.7333
66.2479 2137 46.2277
66.3655 2314 48.1041
66.483 2349 48.4665
66.6005 2467 49.6689
66.718 2322 48.1871
66.8355 2349 48.4665
66.953 2377 48.7545
67.0705 2319 48.156
67.1879 2253 47.4658
67.3054 2179 46.6798
67.4228 2092 45.7384
67.5402 1920 43.8178
67.6576 1777 42.1545
67.7749 1764 42
67.8923 1780 42.19
68.0096 1749 41.821
68.1269 1886 43.4281
68.2442 2011 44.8442
68.3614 2043 45.1996
68.4787 2249 47.4236
68.5958 2199 46.8935
68.713 2216 47.0744
68.8302 2175 46.6369
68.9473 2173 46.6154
69.0643 2269 47.634
69.1814 2165 46.5296
69.2984 2029 45.0444
69.4154 2012 44.8553
69.5323 2105 45.8803
69.6492 2306 48.0208
69.7661 2286 47.8121
69.8829 2491 49.9099
69.9997 2510 50.0999
70.1165 2555 50.547
70.2332 2676 51.7301
70.3499 2645 51.4296
70.4665 2658 51.5558
70.5831 2575 50.7445
70.6996 2504 50.04
70.8161 2506 50.06
70.9326 2408 49.0714
71.049 2281 47.7598
71.1653 2096 45.7821
71.2817 2052 45.299
71.3979 1944 44.0908
71.5141 1847 42.9767
71.6303 1729 41.5812
71.7464 1591 39.8873
71.8624 0 1
71.9784 0 1
72.0944 0 1
72.2102 0 1
72.3261 0 1
72.4418 0 1
72.5575 0 1
72.6732 0 1
75.1054 0 1
75.2209 0 1
75.3365 0 1
75.4521 0 1
75.5678 0 1
75.6835 0 1
75.7993 0 1
75.9151 0 1
76.031 0 1
76.147 2203 46.9361
76.263 2319 48.156
76.3791 2321 48.1768
76.4952 2170 46.5833
76.6113 2123 46.076
76.7276 1939 44.0341
76.8438 1941 44.0568
76.9601 1942 44.0681
77.0765 1998 44.699
77.1929 2122 46.0652
77.3093 2258 47.5184
77.4258 2467 49.6689
77.5423 2406 49.051
77.6589 2492 49.9199
77.7755 2422 49.2138
77.8921 2511 50.1099
78.0088 2352 48.4974
78.1256 2232 47.244
78.2423 1998 44.699
78.3591 1887 43.4396
78.4759 1900 43.589
78.5928 1947 44.1248
78.7097 2141 46.2709
78.8266 2348 48.4562
78.9436 2633 51.3128
79.0606 2629 51.2738
79.1776 2546 50.4579
79.2946 2604 51.0294
79.4117 2603 51.0196
79.5288 2532 50.319
79.6459 2560 50.5964
79.7631 2379 48.775
79.8802 2335 48.3218
79.9974 2206 46.9681
80.1147 2184 46.7333
80.2319 2023 44.9778
80.3491 1865 43.1856
80.4664 1823 42.6966
80.5837 1805 42.4853
80.701 1943 44.0795
80.8183 1997 44.6878
80.9357 2211 47.0213
81.053 2208 46.9894
81.1704 2210 47.0106
81.2877 2213 47.0425
81.4051 2057 45.3542
81.5225 2023 44.9778
81.6399 2059 45.3762
81.7573 1951 44.1701
81.8747 1815 42.6028
81.9922 1613 40.1622
82.1096 1658 40.7185
82.227 1782 42.2137
82.3444 1888 43.4511
82.4619 2125 46.0977
82.5793 2259 47.5289
82.6967 2166 46.5403
82.8142 2224 47.1593
82.9316 2327 48.239
83.049 2220 47.1169
83.1664 2175 46.6369
83.2838 2109 45.9239
83.4012 2060 45.3872
83.5186 2021 44.9555
83.636 1883 43.3935
83.7534 1791 42.3202
83.8708 1723 41.509
83.9881 1628 40.3485
84.1055 1573 39.6611
84.2228 1641 40.5093
84.3401 1651 40.6325
84.4575 1857 43.0929
84.5747 1861 43.1393
84.692 2003 44.7549
84.8093 2007 44.7996
84.9265 2029 45.0444
85.0437 1937 44.0114
85.1609 2032 45.0777
85.2781 1882 43.382
85.3952 1734 41.6413
85.5123 1641 40.5093
85.6294 1524 39.0384
85.7465 1626 40.3237
85.8636 1802 42.45
85.9806 2098 45.8039
86.0976 2282 47.7703
86.2145 2257 47.5079
86.3315 2403 49.0204
86.4484 2381 48.7955
86.5652 2466 49.6588
86.682 2476 49.7594
86.7988 2501 50.01
86.9156 2389 48.8774
87.0323 2370 48.6826
87.149 2340 48.3735
87.2657 2163 46.5081
87.3823 2074 45.5412
87.4988 2039 45.1553
87.6154 1910 43.7035
87.7318 1866 43.1972
87.8483 2001 44.7325
87.9647 2085 45.6618
88.081 2217 47.085
88.1973 2421 49.2037
88.3136 2362 48.6004
88.4298 2463 49.6286
88.546 2458 49.5782
88.6621 2395 48.9387
88.7781 2377 48.7545
88.8942 0 1
89.0101 0 1
89.126 0 1
89.2419 0 1
89.3577 0 1
89.4734 0 1
89.5891 0 1
89.7047 0 1
89.8203 0 1
89.9358 0 1
92.3269 0 1
92.4424 0 1
92.558 0 1
92.6736 0 1
92.7893 0 1
92.905 0 1
93.0208 0 1
93.1366 0 1
93.2525 0 1
93.3685 0 1
93.4845 0 1
93.6005 2320 48.1664
93.7167 2377 48.7545
93.8328 2380 48.7852
93.949 2405 49.0408
94.0653 2375 48.734
94.1816 2357 48.5489
94.2979 2102 45.8476
94.4143 2033 45.0888
94.5307 1958 44.2493
94.6472 1790 42.3084
94.7637 1826 42.7317
94.8803 1901 43.6005
94.9969 2259 47.5289
95.1135 2532 50.319
95.2302 2552 50.5173
95.3469 2568 50.6754
95.4637 2651 51.4879
95.5805 2733 52.2781
95.6973 2671 51.6817
95.8142 2785 52.7731
95.9311 2671 51.6817
96.048 2698 51.9423
96.1649 2510 50.0999
96.2819 2438 49.3761
96.3989 2292 47.8748
96.516 2238 47.3075
96.633 2149 46.3573
96.7501 2076 45.5631
96.8673 2084 45.6508
96.9844 2134 46.1952
97.1016 2229 47.2123
97.2188 2220 47.1169
97.336 2470 49.6991
97.4532 2335 48.3218
97.5704 2427 49.2646
97.6877 2275 47.697
97.805 2277 47.7179
97.9223 2293 47.8853
98.0396 2076 45.5631
98.1569 1778 42.1663
98.2743 1642 40.5216
98.3916 1690 41.1096
98.509 1784 42.2374
98.6264 2130 46.1519
98.7438 2315 48.1144
98.8612 2463 49.6286
98.9786 2633 51.3128
99.096 2641 51.3907
99.2134 2683 51.7977
99.3308 2680 51.7687
99.4482 2570 50.6952
99.5656 2562 50.6162
99.6831 2486 49.8598
99.8005 2475 49.7494
99.9179 2421 49.2037
100.035 2274 47.6865
100.153 2228 47.2017
100.27 2111 45.9456
100.388 2112 45.9565
100.505 2197 46.8722
100.622 2249 47.4236
100.74 2234 47.2652
100.857 2336 48.3322
100.975 2369 48.6724
101.092 2478 49.7795
101.209 2386 48.8467
101.327 2446 49.4571
101.444 2408 49.0714
101.561 2098 45.8039
101.679 1864 43.1741
101.796 1790 42.3084
101.913 1691 41.1218
102.03 1783 42.2256
102.148 2097 45.793
102.265 2282 47.7703
102.382 2714 52.0961
102.499 2695 51.9134
102.616 2698 51.9423
102.733 2853 53.4135
102.851 2727 52.2207
102.968 2838 53.2729
103.085 2766 52.5928
103.202 2761 52.5452
103.319 2510 50.0999
103.436 2520 50.1996
103.552 2511 50.1099
103.669 2331 48.2804
103.786 2356 48.5386
103.903 2362 48.6004
104.02 2423 49.224
104.137 2412 49.1121
104.253 2519 50.1896
104.37 2618 51.1664
104.487 2545 50.448
104.603 2639 51.3712
104.72 2574 50.7346
104.836 2606 51.049
104.953 2596 50.951
105.069 2311 48.0729
105.186 2038 45.1442
105.302 2000 44.7214
105.418 1898 43.566
105.535 2075 45.5522
105.651 2453 49.5278
105.767 2790 52.8205
105.883 3000 54.7723
105.999 3082 55.5158
106.115 0 1
106.231 0 1
106.347 0 1
106.463 0 1
106.579 0 1
106.694 0 1
106.81 0 1
106.926 0 1
107.041 0 1
107.157 0 1
109.576 0 1
109.692 0 1
109.807 0 1
109.923 0 1
110.039 0 1
110.155 0 1
110.27 0 1
110.386 0 1
110.502 0 1
110.618 2086 45.6727
110.735 2420 49.1935
110.851 2676 51.7301
110.967 2861 53.4883
111.083 2909 53.9351
111.199 2938 54.2033
111.316 3018 54.9363
111.432 3059 55.3082
111.549 2934 54.1664
111.665 2882 53.6843
111.782 2840 53.2917
111.898 2781 52.7352
112.015 2633 51.3128
112.132 2550 50.4975
112.248 2531 50.309
112.365 2549 50.4876
112.482 2399 48.9796
112.599 2457 49.5681
112.716 2545 50.448
112.832 2462 49.6185
112.949 2552 50.5173
113.066 2648 51.4587
113.183 2606 51.049
113.3 2563 50.6261
113.417 2557 50.5668
113.534 2455 49.548
113.652 2244 47.3709
113.769 1986 44.5646
113.886 1914 43.7493
114.003 1840 42.8952
114.12 2004 44.7661
114.238 2425 49.2443
114.355 2706 52.0192
114.472 2847 53.3573
114.589 2894 53.7959
114.707 2859 53.4696
114.824 3008 54.8452
114.942 3065 55.3624
115.059 2984 54.626
115.176 2884 53.7029
115.294 2947 54.2863
115.411 2783 52.7541
115.529 2696 51.923
115.646 2729 52.2398
115.764 2724 52.192
115.881 2554 50.5371
115.999 2587 50.8626
116.116 2741 52.3546
116.234 2622 51.2055
116.351 2638 51.3615
116.469 2796 52.8772
116.586 2822 53.1225
116.704 2726 52.2111
116.821 2688 51.8459
116.939 2641 51.3907
117.056 2651 51.4879
117.174 2378 48.7647
117.291 2224 47.1593
117.409 2057 45.3542
117.526 1930 43.9318
117.644 2062 45.4093
117.761 2254 47.4763
117.879 2684 51.8073
117.996 2836 53.2541
118.114 2939 54.2125
118.231 2935 54.1756
118.349 3060 55.3173
118.466 3019 54.9454
118.584 3113 55.7943
118.701 3072 55.4256
118.819 3028 55.0273
118.936 2931 54.1387
119.053 2905 53.8981
119.171 2846 53.3479
119.288 2784 52.7636
119.405 2786 52.7826
119.523 2663 51.6043
119.64 2718 52.1344
119.757 2685 51.817
119.875 2638 51.3615
119.992 2734 52.2877
120.109 2667 51.643
120.226 2701 51.9711
120.343 2694 51.9038
120.46 2581 50.8035
120.578 2731 52.259
120.695 2589 50.8822
120.812 2500 50
120.929 2272 47.6655
121.046 2059 45.3762
121.163 2002 44.7437
121.279 1846 42.9651
121.396 2018 44.9222
121.513 2373 48.7134
121.63 2660 51.5752
121.747 2816 53.066
121.863 2940 54.2218
121.98 2965 54.4518
122.097 3108 55.7494
122.213 3001 54.7814
122.33 3069 55.3986
122.446 3002 54.7905
122.563 2994 54.7175
122.679 2818 53.0848
122.795 2766 52.5928
122.912 2697 51.9326
123.028 2725 52.2015
123.144 2714 52.0961
123.26 2605 51.0392
123.377 0 1
123.493 0 1
123.609 0 1
123.725 0 1
123.84 0 1
123.956 0 1
124.072 0 1
124.188 0 1
124.303 0 1
124.419 0 1
126.852 0 1
126.968 0 1
127.083 0 1
127.199 0 1
127.315 0 1
127.431 0 1
127.547 0 1
127.663 0 1
127.779 0 1
127.895 0 1
128.011 0 1
128.127 0 1
128.243 0 1
128.359 2899 53.8424
128.476 2954 54.3507
128.592 2967 54.4702
128.708 2910 53.9444
128.825 2938 54.2033
128.941 2962 54.4243
129.058 2953 54.3415
129.174 2893 53.7866
129.291 2939 54.2125
129.408 2931 54.1387
129.524 2864 53.5164
129.641 2917 54.0093
129.758 2794 52.8583
129.875 2465 49.6488
129.992 2252 47.4552
130.108 2108 45.913
130.225 2082 45.6289
130.342 2335 48.3218
130.459 2642 51.4004
130.576 2953 54.3415
130.693 3167 56.2761
130.81 3258 57.0789
130.928 3159 56.205
131.045 3273 57.2101
131.162 3315 57.576
131.279 3262 57.1139
131.396 3363 57.9914
131.513 3375 58.0948
131.631 3265 57.1402
131.748 3183 56.4181
131.865 3183 56.4181
131.983 3228 56.8155
132.1 3201 56.5774
132.217 3230 56.8331
132.335 3063 55.3444
132.452 3092 55.6058
132.57 3017 54.9272
132.687 3131 55.9553
132.804 3178 56.3738
132.922 3152 56.1427
133.039 3120 55.857
133.157 3123 55.8838
133.274 2878 53.647
133.392 2603 51.0196
133.509 2403 49.0204
133.627 2194 46.8402
133.744 2089 45.7056
133.862 2199 46.8935
133.979 2491 49.9099
134.097 2818 53.0848
134.214 3066 55.3715
134.332 3215 56.701
134.449 3155 56.1694
134.567 3281 57.28
134.684 3342 57.81
134.802 3333 57.7321
134.919 3357 57.9396
135.037 3249 57
135.154 3255 57.0526
135.272 3220 56.745
135.389 3161 56.2228
135.507 3172 56.3205
135.624 3176 56.356
135.742 3122 55.8749
135.859 3244 56.9561
135.977 3200 56.5685
136.094 3200 56.5685
136.211 3142 56.0535
136.329 3204 56.6039
136.446 3104 55.7136
136.564 3112 55.7853
136.681 2932 54.1479
136.798 3136 56
136.915 2783 52.7541
137.033 2511 50.1099
137.15 2243 47.3603
137.267 2205 46.9574
137.384 2117 46.0109
137.502 2180 46.6905
137.619 2492 49.9199
137.736 2860 53.479
137.853 2895 53.8052
137.97 3196 56.5332
138.087 3064 55.3534
138.204 3181 56.4004
138.321 3247 56.9825
138.438 3321 57.6281
138.555 3287 57.3324
138.672 3184 56.4269
138.788 3368 58.0345
138.905 3169 56.2939
139.022 3295 57.4021
139.139 3294 57.3934
139.255 3173 56.3294
139.372 3155 56.1694
139.488 3228 56.8155
139.605 3210 56.6569
139.721 3139 56.0268
139.838 3158 56.1961
139.954 3137 56.0089
140.071 3105 55.7225
140.187 3082 55.5158
140.303 3084 55.5338
140.419 3048 55.2087
140.535 2818 53.0848
140.652 2520 50.1996
140.768 0 1
140.884 0 1
141 0 1
141.115 0 1
141.231 0 1
141.347 0 1
141.463 0 1
141.578 0 1
141.694 0 1
144.104 0 1
144.219 0 1
144.335 0 1
144.45 0 1
144.566 0 1
144.682 0 1
144.798 0 1
144.914 0 1
145.03 0 1
145.146 2285 47.8017
145.262 2472 49.7192
145.378 2507 50.07
145.494 2560 50.5964
145.61 2324 48.2079
145.726 2320 48.1664
145.842 2053 45.31
145.959 1985 44.5533
146.075 1789 42.2966
146.192 1772 42.0951
146.308 1754 41.8808
146.425 2010 44.833
146.541 2126 46.1086
146.658 2380 48.7852
146.774 2469 49.689
146.891 2587 50.8626
147.008 2703 51.9904
147.125 2647 51.449
147.241 2705 52.0096
147.358 2730 52.2494
147.475 2851 53.3948
147.592 2697 51.9326
147.709 2726 52.2111
147.826 2920 54.037
147.943 2688 51.8459
148.06 2827 53.1695
148.177 2737 52.3163
148.294 2755 52.4881
148.411 2747 52.4118
148.528 2681 51.7784
148.645 2666 51.6333
148.762 2662 51.5946
148.88 2707 52.0288
148.997 2721 52.1632
149.114 2746 52.4023
149.231 2654 51.517
149.349 2701 51.9711
149.466 2642 51.4004
149.583 2396 48.949
149.701 2265 47.592
149.818 2092 45.7384
149.935 1900 43.589
150.053 1899 43.5775
150.17 1991 44.6206
150.287 2161 46.4866
150.405 2278 47.7284
150.522 2411 49.1019
150.64 2440 49.3964
150.757 2685 51.817
150.875 2837 53.2635
150.992 2799 52.9056
151.11 2935 54.1756
151.227 2951 54.3231
151.344 2907 53.9166
151.462 2944 54.2586
151.579 2936 54.1849
151.697 2965 54.4518
151.814 2804 52.9528
151.932 2932 54.1479
152.049 2862 53.4977
152.167 2831 53.2071
152.284 2808 52.9906
152.402 2852 53.4041
152.519 2894 53.7959
152.636 2940 54.2218
152.754 2867 53.5444
152.871 2798 52.8961
152.989 2882 53.6843
153.106 2665 51.6236
153.223 2550 50.4975
153.341 2386 48.8467
153.458 2173 46.6154
153.575 2124 46.0869
153.693 2006 44.7884
153.81 2176 46.6476
153.927 2372 48.7032
154.044 2471 49.7092
154.162 2550 50.4975
154.279 2742 52.3641
154.396 2787 52.792
154.513 2899 53.8424
154.63 3021 54.9636
154.747 3109 55.7584
154.864 3179 56.3826
154.981 3108 55.7494
155.098 3030 55.0454
155.215 3056 55.2811
155.332 2998 54.754
155.449 2969 54.4885
155.566 2996 54.7357
155.683 3004 54.8088
155.8 3028 55.0273
155.917 3025 55
156.033 2877 53.6377
156.15 0 1
156.267 0 1
156.383 0 1
156.5 0 1
156.617 0 1
156.733 0 1
156.85 0 1
156.966 0 1
157.082 0 1
157.199 0 1
157.315 0 1
157.431 0 1
157.547 0 1
157.664 0 1
157.78 0 1
157.896 0 1
158.012 0 1
158.128 0 1
158.244 0 1
158.359 0 1
158.475 0 1
158.591 0 1
158.706 0 1
