
6.15755 0 1
6.2731 0 1
6.3887 0 1
6.50437 0 1
6.62009 0 1
6.73587 0 1
6.8517 0 1
6.96759 0 1
7.08353 0 1
7.19952 0 1
7.31557 0 1
7.43166 0 1
7.54781 0 1
7.664 0 1
7.78024 0 1
7.89653 0 1
8.01286 0 1
8.12924 0 1
8.24567 0 1
8.36213 0 1
8.47864 0 1
8.59519 0 1
8.71178 0 1
8.82841 0 1
8.94508 0 1
9.06179 0 1
9.17853 0 1
9.29531 0 1
9.41212 0 1
9.52897 0 1
9.64584 0 1
9.76276 0 1
9.8797 0 1
9.99667 0 1
10.1137 0 1
10.2307 0 1
10.3478 0 1
10.4648 0 1
10.5819 0 1
10.6991 0 1
10.8162 0 1
10.9334 0 1
11.0506 0 1
11.1678 0 1
11.285 0 1
11.4023 0 1
11.5196 0 1
11.6369 0 1
11.7542 0 1
11.8715 0 1
11.9888 0 1
12.1062 0 1
12.2235 0 1
12.3409 0 1
12.4582 0 1
12.5756 0 1
12.693 0 1
12.8104 0 1
12.9278 0 1
13.0452 0 1
13.1626 0 1
13.28 0 1
13.3974 0 1
13.5149 0 1
13.6323 0 1
13.7497 0 1
13.8671 0 1
13.9845 0 1
14.1019 0 1
14.2193 0 1
14.3367 0 1
14.4541 0 1
14.5714 0 1
14.6888 0 1
14.8062 0 1
14.9235 0 1
15.0408 8893 94.3027
15.1581 9525 97.5961
15.2755 9617 98.0663
15.3927 9701 98.4937
15.51 9782 98.904
15.6273 9699 98.4835
15.7445 9551 97.7292
15.8617 9893 99.4636
15.9789 9722 98.6002
16.0961 9928 99.6393
16.2132 10108 100.539
16.3304 10369 101.828
16.4475 10647 103.184
16.5646 11085 105.285
16.6816 11279 106.203
16.7986 11569 107.559
16.9156 11976 109.435
17.0326 12340 111.086
17.1496 12495 111.781
17.2665 12802 113.146
17.3833 13073 114.337
17.5002 13053 114.25
17.617 13267 115.182
17.7338 13507 116.22
17.8505 13490 116.146
17.9672 13177 114.791
18.0839 12506 111.83
18.2005 12178 110.354
18.3171 12131 110.141
18.4337 12519 111.888
18.5502 13338 115.49
18.6666 13500 116.19
18.7831 13667 116.906
18.8994 13671 116.923
19.0158 13428 115.879
19.1321 13274 115.213
19.2483 12809 113.177
19.3645 12434 111.508
19.4806 12380 111.265
19.5967 12205 110.476
19.7128 11954 109.334
19.8288 11825 108.743
19.9447 10512 102.528
20.0606 0 1
20.1764 0 1
20.2922 0 1
20.4079 0 1
20.5236 0 1
20.6392 0 1
20.7548 0 1
20.8702 0 1
23.3078 0 1
23.4233 0 1
23.539 0 1
23.6547 0 1
23.7704 0 1
23.8862 0 1
24.0021 0 1
24.118 0 1
24.234 0 1
24.35 0 1
24.4661 12192 110.417
24.5822 12335 111.063
24.6984 12277 110.802
24.8146 12161 110.277
24.9309 12104 110.018
25.0472 12352 111.14
25.1636 11956 109.343
25.28 12475 111.692
25.3965 12650 112.472
25.513 13142 114.639
25.6296 13594 116.593
25.7462 13791 117.435
25.8628 14051 118.537
25.9795 14260 119.415
26.0962 14367 119.862
26.213 14314 119.641
26.3298 14621 120.917
26.4466 14358 119.825
26.5635 14125 118.849
26.6804 13832 117.61
26.7973 13057 114.267
26.9143 12668 112.552
27.0313 13014 114.079
27.1483 13822 117.567
27.2653 13883 117.826
27.3824 13876 117.796
27.4996 14161 119
27.6167 13675 116.94
27.7339 13573 116.503
27.8511 13150 114.673
27.9683 13103 114.468
28.0855 12826 113.252
28.2028 12929 113.706
28.3201 12253 110.693
28.4374 12471 111.674
28.5547 12299 110.901
28.6721 12008 109.581
28.7894 12025 109.659
28.9068 12401 111.36
29.0242 12369 111.216
29.1416 12838 113.305
29.259 13101 114.46
29.3764 13301 115.33
29.4939 13864 117.745
29.6113 13956 118.136
29.7288 13893 117.869
29.8463 14076 118.642
29.9638 14054 118.55
30.0812 13933 118.038
30.1987 13315 115.391
30.3162 12145 110.204
30.4337 11873 108.963
30.5512 12216 110.526
30.6687 12773 113.018
30.7862 13351 115.547
30.9037 13278 115.23
31.0212 13547 116.392
31.1387 13343 115.512
31.2562 13332 115.464
31.3737 13002 114.026
31.4912 12663 112.53
31.6087 12540 111.982
31.7262 12271 110.775
31.8436 12213 110.512
31.9611 12407 111.387
32.0785 11853 108.871
32.1959 11522 107.341
32.3134 11695 108.143
32.4308 11766 108.471
32.5482 11906 109.115
32.6655 12402 111.364
32.7829 12675 112.583
32.9002 12782 113.058
33.0176 13399 115.754
33.1349 13367 115.616
33.2522 13971 118.199
33.3694 13269 115.191
33.4867 13757 117.29
33.6039 13647 116.82
33.7211 13454 115.991
33.8383 13101 114.46
33.9554 12256 110.707
34.0725 11627 107.829
34.1896 11236 106
34.3067 11692 108.13
34.4237 12142 110.191
34.5407 12446 111.562
34.6577 12711 112.743
34.7746 12849 113.353
34.8915 12800 113.137
35.0084 12516 111.875
35.1252 12344 111.104
35.242 12359 111.171
35.3587 11890 109.041
35.4755 11855 108.881
35.5921 11740 108.351
35.7088 11513 107.299
35.8254 11529 107.373
35.9419 11251 106.071
36.0584 11013 104.943
36.1749 11154 105.612
36.2913 11295 106.278
36.4077 11586 107.638
36.524 11990 109.499
36.6403 12327 111.027
36.7565 12584 112.178
36.8727 12739 112.867
36.9889 12858 113.393
37.1049 12833 113.283
37.221 0 1
37.3369 0 1
37.4529 0 1
37.5687 0 1
37.6845 0 1
37.8003 0 1
37.916 0 1
38.0316 0 1
38.1472 0 1
40.5851 0 1
40.7008 0 1
40.8164 0 1
40.9322 0 1
41.048 0 1
41.1639 0 1
41.2798 0 1
41.3958 0 1
41.5118 0 1
41.6279 0 1
41.744 9142 95.6138
41.8602 10068 100.339
41.9765 10416 102.059
42.0928 10762 103.74
42.2091 10903 104.417
42.3255 10964 104.709
42.4419 10790 103.875
42.5584 10832 104.077
42.675 10651 103.204
42.7915 10059 100.295
42.9081 9183 95.828
43.0248 8766 93.6269
43.1415 8911 94.3981
43.2582 9636 98.1631
43.375 9836 99.1766
43.4918 10111 100.553
43.6087 10149 100.742
43.7256 10043 100.215
43.8425 9870 99.3479
43.9595 9609 98.0255
44.0765 9538 97.6627
44.1935 9412 97.0155
44.3106 9025 95
44.4277 8951 94.6097
44.5448 8503 92.2117
44.6619 8124 90.1332
44.7791 8004 89.4651
44.8963 7673 87.5957
45.0136 7485 86.5159
45.1308 7597 87.1608
45.2481 7733 87.9375
45.3654 8119 90.1055
45.4827 8171 90.3936
45.6001 8168 90.377
45.7174 8545 92.4392
45.8348 8425 91.7878
45.9522 8382 91.5533
46.0697 8492 92.152
46.1871 8260 90.8845
46.3046 7884 88.7919
46.422 7341 85.6796
46.5395 6753 82.1766
46.657 6835 82.6741
46.7745 7134 84.463
46.892 7262 85.2174
47.0096 7540 86.8332
47.1271 7600 87.178
47.2446 7527 86.7583
47.3622 7431 86.2032
47.4797 7320 85.557
47.5973 7440 86.2554
47.7149 7231 85.0353
47.8324 7246 85.1234
47.95 6902 83.0783
48.0675 6593 81.1973
48.1851 6563 81.0123
48.3027 6332 79.5739
48.4202 6110 78.1665
48.5378 6202 78.7528
48.6554 6116 78.2049
48.7729 6337 79.6053
48.8904 6668 81.6578
49.008 6675 81.7007
49.1255 7012 83.7377
49.243 7281 85.3288
49.3605 7270 85.2643
49.478 7367 85.8312
49.5955 7387 85.9477
49.713 7206 84.8882
49.8304 6963 83.4446
49.9479 6534 80.8332
50.0653 6178 78.6003
50.1827 6059 77.8396
50.3001 6571 81.0617
50.4175 6929 83.2406
50.5348 7181 84.7408
50.6521 7640 87.4071
50.7694 7870 88.713
50.8867 8017 89.5377
51.004 8329 91.2634
51.1212 8145 90.2497
51.2384 8093 89.9611
51.3556 8088 89.9333
51.4727 8331 91.2743
51.5899 8186 90.4765
51.707 8232 90.7304
51.824 8119 90.1055
51.9411 7918 88.9831
52.0581 7626 87.327
52.175 8103 90.0167
52.2919 8339 91.3181
52.4088 8790 93.755
52.5257 9141 95.6086
52.6425 9532 97.632
52.7593 9872 99.3579
52.876 10214 101.064
52.9927 10141 100.703
53.1094 10166 100.827
53.226 10327 101.622
53.3426 10227 101.129
53.4591 9851 99.2522
53.5756 9285 96.3587
53.692 8742 93.4987
53.8084 8447 91.9076
53.9248 8915 94.4193
54.0411 9515 97.5449
54.1573 9962 99.8098
54.2735 0 1
54.3896 0 1
54.5057 0 1
54.6217 0 1
54.7377 0 1
54.8537 0 1
54.9695 0 1
55.0853 0 1
55.2011 0 1
55.3168 0 1
55.4324 0 1
57.824 0 1
57.9396 0 1
58.0553 0 1
58.1711 0 1
58.2869 0 1
58.4028 0 1
58.5187 0 1
58.6347 0 1
58.7508 0 1
58.8669 0 1
58.983 9993 99.965
59.0992 10854 104.183
59.2155 11519 107.327
59.3318 12179 110.359
59.4482 12565 112.094
59.5646 12873 113.459
59.681 13031 114.153
59.7975 13020 114.105
59.9141 12917 113.653
60.0306 12835 113.292
60.1473 12400 111.355
60.2639 12306 110.932
60.3807 11978 109.444
60.4974 11514 107.303
60.6142 10874 104.278
60.731 11151 105.598
60.8479 10778 103.817
60.9648 10985 104.809
61.0818 10969 104.733
61.1987 11311 106.353
61.3158 11821 108.724
61.4328 12358 111.167
61.5499 12657 112.503
61.667 12583 112.174
61.7841 12598 112.241
61.9013 12356 111.158
62.0185 11771 108.494
62.1357 11295 106.278
62.253 10341 101.691
62.3702 10101 100.504
62.4875 10356 101.764
62.6049 10978 104.776
62.7222 11530 107.378
62.8396 12034 109.7
62.9569 12048 109.763
63.0743 12360 111.176
63.1918 12665 112.539
63.3092 12168 110.309
63.4267 12261 110.729
63.5441 12088 109.945
63.6616 12010 109.59
63.7791 11573 107.578
63.8966 11568 107.555
64.0142 10900 104.403
64.1317 10613 103.019
64.2492 10079 100.394
64.3668 9949 99.7447
64.4843 9957 99.7848
64.6019 10346 101.715
64.7195 10604 102.976
64.837 11326 106.424
64.9546 11612 107.759
65.0722 11905 109.11
65.1898 11772 108.499
65.3074 12188 110.399
65.4249 11895 109.064
65.5425 11577 107.596
65.6601 11123 105.466
65.7777 10300 101.489
65.8952 9520 97.5705
66.0128 9736 98.6712
66.1304 9826 99.1262
66.2479 10424 102.098
66.3655 11012 104.938
66.483 11498 107.229
66.6005 11833 108.78
66.718 11936 109.252
66.8355 12240 110.635
66.953 12108 110.036
67.0705 11991 109.503
67.1879 11828 108.757
67.3054 11560 107.517
67.4228 11389 106.719
67.5402 11404 106.79
67.6576 10972 104.747
67.7749 10273 101.356
67.8923 10150 100.747
68.0096 9601 97.9847
68.1269 9931 99.6544
68.2442 10104 100.519
68.3614 10462 102.284
68.4787 10942 104.604
68.5958 11529 107.373
68.713 12011 109.595
68.8302 11981 109.458
68.9473 12211 110.503
69.0643 12351 111.135
69.1814 12224 110.562
69.2984 11652 107.944
69.4154 11003 104.895
69.5323 10311 101.543
69.6492 9841 99.2018
69.7661 10042 100.21
69.8829 10735 103.61
69.9997 11216 105.906
70.1165 11982 109.462
70.2332 12657 112.503
70.3499 12322 111.005
70.4665 13088 114.403
70.5831 12830 113.27
70.6996 12876 113.472
70.8161 12686 112.632
70.9326 12717 112.77
71.049 12552 112.036
71.1653 11812 108.683
71.2817 11819 108.715
71.3979 11041 105.076
71.5141 10467 102.308
71.6303 9924 99.6193
71.7464 8974 94.7312
71.8624 0 1
71.9784 0 1
72.0944 0 1
72.2102 0 1
72.3261 0 1
72.4418 0 1
72.5575 0 1
72.6732 0 1
75.1054 0 1
75.2209 0 1
75.3365 0 1
75.4521 0 1
75.5678 0 1
75.6835 0 1
75.7993 0 1
75.9151 0 1
76.031 0 1
76.147 11635 107.866
76.263 11943 109.284
76.3791 12100 110
76.4952 11707 108.199
76.6113 11137 105.532
76.7276 10712 103.499
76.8438 10383 101.897
76.9601 10283 101.405
77.0765 10521 102.572
77.1929 11180 105.736
77.3093 11712 108.222
77.4258 12497 111.79
77.5423 12977 113.917
77.6589 13009 114.057
77.7755 13127 114.573
77.8921 12820 113.225
78.0088 12647 112.459
78.1256 11844 108.83
78.2423 10934 104.566
78.3591 10187 100.931
78.4759 9525 97.5961
78.5928 9628 98.1224
78.7097 10414 102.049
78.8266 11174 105.707
78.9436 12294 110.878
79.0606 12348 111.122
79.1776 12486 111.741
79.2946 12750 112.916
79.4117 13188 114.839
79.5288 13140 114.63
79.6459 12961 113.846
79.7631 12545 112.004
79.8802 12548 112.018
79.9974 12125 110.114
80.1147 11908 109.124
80.2319 11269 106.156
80.3491 10753 103.697
80.4664 10122 100.608
80.5837 9957 99.7848
80.701 10367 101.818
80.8183 10894 104.374
80.9357 11648 107.926
81.053 12275 110.793
81.1704 12762 112.969
81.2877 12804 113.155
81.4051 12839 113.309
81.5225 13004 114.035
81.6399 12502 111.812
81.7573 12396 111.337
81.8747 10951 104.647
81.9922 10165 100.822
82.1096 9857 99.2824
82.227 9790 98.9444
82.3444 10625 103.078
82.4619 11452 107.014
82.5793 12229 110.585
82.6967 12164 110.291
82.8142 12800 113.137
82.9316 12868 113.437
83.049 12879 113.486
83.1664 12956 113.824
83.2838 12970 113.886
83.4012 12917 113.653
83.5186 12656 112.499
83.636 12245 110.657
83.7534 11979 109.449
83.8708 11543 107.438
83.9881 11048 105.109
84.1055 10132 100.658
84.2228 10242 101.203
84.3401 10332 101.646
84.4575 10931 104.551
84.5747 11696 108.148
84.692 12538 111.973
84.8093 13012 114.07
84.9265 13400 115.758
85.0437 13624 116.722
85.1609 13315 115.391
85.2781 12747 112.903
85.3952 11858 108.894
85.5123 10872 104.269
85.6294 10218 101.084
85.7465 9934 99.6695
85.8636 10320 101.587
85.9806 11347 106.522
86.0976 12098 109.991
86.2145 12856 113.384
86.3315 12998 114.009
86.4484 13666 116.902
86.5652 13820 117.558
86.682 13893 117.869
86.7988 14111 118.79
86.9156 13774 117.363
87.0323 13744 117.235
87.149 13282 115.248
87.2657 13143 114.643
87.3823 12684 112.623
87.4988 12101 110.005
87.6154 11336 106.471
87.7318 10798 103.913
87.8483 11088 105.3
87.9647 11675 108.051
88.081 12312 110.959
88.1973 13213 114.948
88.3136 13856 117.712
88.4298 13976 118.22
88.546 14093 118.714
88.6621 13818 117.55
88.7781 13623 116.718
88.8942 0 1
89.0101 0 1
89.126 0 1
89.2419 0 1
89.3577 0 1
89.4734 0 1
89.5891 0 1
89.7047 0 1
89.8203 0 1
89.9358 0 1
92.3269 0 1
92.4424 0 1
92.558 0 1
92.6736 0 1
92.7893 0 1
92.905 0 1
93.0208 0 1
93.1366 0 1
93.2525 0 1
93.3685 0 1
93.4845 0 1
93.6005 13254 115.126
93.7167 13455 115.996
93.8328 13127 114.573
93.949 13020 114.105
94.0653 12566 112.098
94.1816 12013 109.604
94.2979 11229 105.967
94.4143 11009 104.924
94.5307 10482 102.382
94.6472 10702 103.45
94.7637 11363 106.597
94.8803 12134 110.154
94.9969 12428 111.481
95.1135 13218 114.97
95.2302 13417 115.832
95.3469 13394 115.732
95.4637 13572 116.499
95.5805 13934 118.042
95.6973 14002 118.33
95.8142 14040 118.491
95.9311 13893 117.869
96.048 13533 116.331
96.1649 13418 115.836
96.2819 12878 113.481
96.3989 12332 111.05
96.516 11569 107.559
96.633 11056 105.148
96.7501 11113 105.418
96.8673 11351 106.541
96.9844 11891 109.046
97.1016 12743 112.885
97.2188 13389 115.711
97.336 13904 117.915
97.4532 13732 117.184
97.5704 13851 117.69
97.6877 13544 116.379
97.805 12806 113.164
97.9223 11985 109.476
98.0396 11288 106.245
98.1569 10698 103.431
98.2743 10445 102.201
98.3916 10765 103.755
98.509 11470 107.098
98.6264 12186 110.39
98.7438 12522 111.902
98.8612 13080 114.368
98.9786 13388 115.707
99.096 13374 115.646
99.2134 13444 115.948
99.3308 13486 116.129
99.4482 13649 116.829
99.5656 13370 115.629
99.6831 13182 114.813
99.8005 12746 112.898
99.9179 12738 112.863
100.035 11863 108.917
100.153 11372 106.64
100.27 10696 103.421
100.388 10733 103.6
100.505 11073 105.228
100.622 12215 110.521
100.74 12896 113.561
100.857 13440 115.931
100.975 13794 117.448
101.092 13527 116.306
101.209 13454 115.991
101.327 13170 114.761
101.444 12696 112.677
101.561 11945 109.293
101.679 11123 105.466
101.796 10706 103.47
101.913 10571 102.815
102.03 11282 106.217
102.148 11974 109.426
102.265 11825 108.743
102.382 14288 119.532
102.499 13544 116.379
102.616 13711 117.094
102.733 14065 118.596
102.851 14150 118.954
102.968 14542 120.59
103.085 14406 120.025
103.202 14086 118.684
103.319 13765 117.324
103.436 13547 116.392
103.552 13018 114.096
103.669 12298 110.896
103.786 11616 107.778
103.903 11499 107.233
104.02 12043 109.741
104.137 13233 115.035
104.253 13700 117.047
104.37 14622 120.921
104.487 14672 121.128
104.603 14627 120.942
104.72 14463 120.262
104.836 14100 118.743
104.953 13302 115.334
105.069 12592 112.214
105.186 11716 108.24
105.302 11482 107.154
105.418 11665 108.005
105.535 12371 111.225
105.651 13066 114.307
105.767 13533 116.331
105.883 14004 118.338
105.999 14475 120.312
106.115 0 1
106.231 0 1
106.347 0 1
106.463 0 1
106.579 0 1
106.694 0 1
106.81 0 1
106.926 0 1
107.041 0 1
107.157 0 1
109.576 0 1
109.692 0 1
109.807 0 1
109.923 0 1
110.039 0 1
110.155 0 1
110.27 0 1
110.386 0 1
110.502 0 1
110.618 10869 104.254
110.735 11764 108.462
110.851 12101 110.005
110.967 12546 112.009
111.083 12646 112.454
111.199 12960 113.842
111.316 12882 113.499
111.432 13111 114.503
111.549 13121 114.547
111.665 12604 112.268
111.782 12336 111.068
111.898 12003 109.558
112.015 11362 106.593
112.132 10415 102.054
112.248 9931 99.6544
112.365 9712 98.5495
112.482 10743 103.648
112.599 10829 104.062
112.716 11735 108.328
112.832 11902 109.096
112.949 11889 109.037
113.066 11839 108.807
113.183 11583 107.624
113.3 11137 105.532
113.417 10500 102.47
113.534 9674 98.3565
113.652 9334 96.6126
113.769 8862 94.1382
113.886 8809 93.8563
114.003 9063 95.1998
114.12 9558 97.765
114.238 10110 100.548
114.355 10108 100.539
114.472 10517 102.552
114.589 10142 100.707
114.707 10823 104.034
114.824 10598 102.947
114.942 10739 103.629
115.059 10604 102.976
115.176 10199 100.99
115.294 10030 100.15
115.411 9745 98.7168
115.529 9094 95.3625
115.646 8643 92.9677
115.764 7904 88.9044
115.881 7615 87.264
115.999 7997 89.4259
116.116 8341 91.3291
116.234 8805 93.835
116.351 9097 95.3782
116.469 8904 94.361
116.586 8963 94.6731
116.704 8961 94.6626
116.821 8719 93.3756
116.939 8366 91.4658
117.056 7898 88.8707
117.174 7295 85.4108
117.291 7021 83.7914
117.409 6868 82.8734
117.526 7103 84.2793
117.644 7435 86.2264
117.761 7793 88.278
117.879 8129 90.161
117.996 8197 90.5373
118.114 8361 91.4385
118.231 8742 93.4987
118.349 8662 93.0699
118.466 8667 93.0967
118.584 9013 94.9368
118.701 8626 92.8763
118.819 8834 93.9894
118.936 8714 93.3488
119.053 8313 91.1757
119.171 8178 90.4323
119.288 7603 87.1952
119.405 7385 85.936
119.523 7233 85.047
119.64 7457 86.3539
119.757 8095 89.9722
119.875 8721 93.3863
119.992 8987 94.7998
120.109 9045 95.1052
120.226 8986 94.7945
120.343 9164 95.7288
120.46 9131 95.5563
120.578 8606 92.7685
120.695 8330 91.2688
120.812 8105 90.0278
120.929 7696 87.7268
121.046 7641 87.4128
121.163 7686 87.6698
121.279 7863 88.6736
121.396 8512 92.2605
121.513 8909 94.3875
121.63 9372 96.8091
121.747 9594 97.949
121.863 9645 98.209
121.98 9784 98.9141
122.097 10079 100.394
122.213 10250 101.242
122.33 10163 100.812
122.446 10140 100.698
122.563 10188 100.936
122.679 10033 100.165
122.795 9957 99.7848
122.912 9747 98.7269
123.028 9010 94.921
123.144 8528 92.3472
123.26 8463 91.9946
123.377 0 1
123.493 0 1
123.609 0 1
123.725 0 1
123.84 0 1
123.956 0 1
124.072 0 1
124.188 0 1
124.303 0 1
124.419 0 1
126.852 0 1
126.968 0 1
127.083 0 1
127.199 0 1
127.315 0 1
127.431 0 1
127.547 0 1
127.663 0 1
127.779 0 1
127.895 0 1
128.011 0 1
128.127 0 1
128.243 0 1
128.359 10565 102.786
128.476 10177 100.881
128.592 10368 101.823
128.708 11033 105.038
128.825 11484 107.163
128.941 12037 109.713
129.058 12258 110.716
129.174 12428 111.481
129.291 12202 110.463
129.408 11953 109.33
129.524 11131 105.504
129.641 10872 104.269
129.758 10514 102.538
129.875 9802 99.0051
129.992 9683 98.4022
130.108 9621 98.0867
130.225 9802 99.0051
130.342 10133 100.663
130.459 10428 102.118
130.576 10441 102.181
130.693 10616 103.034
130.81 10853 104.178
130.928 10850 104.163
131.045 11102 105.366
131.162 11174 105.707
131.279 11244 106.038
131.396 10882 104.317
131.513 10926 104.528
131.631 10642 103.16
131.748 10246 101.223
131.865 9680 98.387
131.983 8980 94.7629
132.1 9220 96.0208
132.217 9607 98.0153
132.335 10372 101.843
132.452 10633 103.116
132.57 10576 102.84
132.687 10307 101.523
132.804 10737 103.619
132.922 10308 101.528
133.039 9854 99.2673
133.157 9269 96.2756
133.274 9203 95.9323
133.392 8529 92.3526
133.509 8316 91.1921
133.627 8077 89.8721
133.744 8209 90.6035
133.862 8477 92.0706
133.979 8578 92.6175
134.097 8600 92.7362
134.214 9016 94.9526
134.332 8718 93.3702
134.449 8892 94.2974
134.567 8931 94.504
134.684 9022 94.9842
134.802 8841 94.0266
134.919 8628 92.887
135.037 8566 92.5527
135.154 8320 91.214
135.272 8023 89.5712
135.389 7904 88.9044
135.507 7203 84.8705
135.624 7109 84.3149
135.742 7365 85.8196
135.859 7822 88.4421
135.977 8063 89.7942
136.094 7960 89.2188
136.211 7871 88.7187
136.329 7977 89.3141
136.446 7854 88.6228
136.564 7623 87.3098
136.681 7286 85.3581
136.798 7146 84.534
136.915 6726 82.0122
137.033 6592 81.1911
137.15 6242 79.0063
137.267 6449 80.3057
137.384 6397 79.9812
137.502 6630 81.4248
137.619 6728 82.0244
137.736 6864 82.8493
137.853 7030 83.8451
137.97 7181 84.7408
138.087 7327 85.5979
138.204 7442 86.267
138.321 7663 87.5386
138.438 7739 87.9716
138.555 7924 89.0169
138.672 8001 89.4483
138.788 7801 88.3233
138.905 7758 88.0795
139.022 7553 86.908
139.139 7222 84.9824
139.255 7358 85.7788
139.372 7786 88.2383
139.488 8400 91.6515
139.605 8728 93.4238
139.721 8799 93.803
139.838 8918 94.4352
139.954 9018 94.9632
140.071 8819 93.9095
140.187 9067 95.2208
140.303 8516 92.2822
140.419 8419 91.7551
140.535 8109 90.05
140.652 7835 88.5155
140.768 0 1
140.884 0 1
141 0 1
141.115 0 1
141.231 0 1
141.347 0 1
141.463 0 1
141.578 0 1
141.694 0 1
144.104 0 1
144.219 0 1
144.335 0 1
144.45 0 1
144.566 0 1
144.682 0 1
144.798 0 1
144.914 0 1
145.03 0 1
145.146 7762 88.1022
145.262 7773 88.1646
145.378 7470 86.4292
145.494 7162 84.6286
145.61 6886 82.9819
145.726 6695 81.823
145.842 6433 80.206
145.959 6314 79.4607
146.075 6339 79.6178
146.192 6523 80.7651
146.308 6576 81.0925
146.425 6610 81.3019
146.541 6606 81.2773
146.658 6524 80.7713
146.774 6652 81.5598
146.891 6577 81.0987
147.008 6683 81.7496
147.125 6759 82.2131
147.241 6517 80.7279
147.358 6643 81.5046
147.475 6396 79.975
147.592 6219 78.8606
147.709 6087 78.0192
147.826 5786 76.0658
147.943 5695 75.4652
148.06 5746 75.8024
148.177 6012 77.5371
148.294 6202 78.7528
148.411 6322 79.511
148.528 6333 79.5801
148.645 6184 78.6384
148.762 6107 78.1473
148.88 5971 77.2722
148.997 6085 78.0064
149.114 5192 72.0555
149.231 5482 74.0405
149.349 5145 71.7287
149.466 5108 71.4703
149.583 5007 70.7602
149.701 4956 70.3989
149.818 5017 70.8308
149.935 5147 71.7426
150.053 5176 71.9444
150.17 5370 73.2803
150.287 5431 73.6953
150.405 5401 73.4915
150.522 5563 74.5855
150.64 5498 74.1485
150.757 5716 75.6042
150.875 5732 75.71
150.992 5689 75.4255
151.11 5766 75.9342
151.227 5403 73.5051
151.344 5372 73.2939
151.462 5130 71.624
151.579 5334 73.0342
151.697 5599 74.8265
151.814 5824 76.3151
151.932 5956 77.1751
152.049 6302 79.3851
152.167 6278 79.2338
152.284 6289 79.3032
152.402 6031 77.6595
152.519 5938 77.0584
152.636 5858 76.5376
152.754 5782 76.0395
152.871 5740 75.7628
152.989 5571 74.6391
153.106 5492 74.108
153.223 5646 75.1399
153.341 5529 74.3572
153.458 5648 75.1532
153.575 5843 76.4395
153.693 5875 76.6485
153.81 6007 77.5048
153.927 6050 77.7817
154.044 6210 78.8036
154.162 6242 79.0063
154.279 6494 80.5854
154.396 6758 82.2071
154.513 6892 83.0181
154.63 6856 82.801
154.747 6897 83.0482
154.864 6670 81.6701
154.981 6459 80.3679
155.098 6411 80.0687
155.215 6613 81.3204
155.332 6989 83.6002
155.449 7202 84.8646
155.566 7295 85.4108
155.683 7403 86.0407
155.8 7382 85.9186
155.917 7369 85.8429
156.033 7546 86.8677
156.15 0 1
156.267 0 1
156.383 0 1
156.5 0 1
156.617 0 1
156.733 0 1
156.85 0 1
156.966 0 1
157.082 0 1
157.199 0 1
157.315 0 1
157.431 0 1
157.547 0 1
157.664 0 1
157.78 0 1
157.896 0 1
158.012 0 1
158.128 0 1
158.244 0 1
158.359 0 1
158.475 0 1
158.591 0 1
158.706 0 1
