
6.15755 0 1
6.2731 0 1
6.3887 0 1
6.50437 0 1
6.62009 0 1
6.73587 0 1
6.8517 0 1
6.96759 0 1
7.08353 0 1
7.19952 0 1
7.31557 0 1
7.43166 0 1
7.54781 0 1
7.664 0 1
7.78024 0 1
7.89653 0 1
8.01286 0 1
8.12924 0 1
8.24567 0 1
8.36213 0 1
8.47864 0 1
8.59519 0 1
8.71178 0 1
8.82841 0 1
8.94508 0 1
9.06179 0 1
9.17853 0 1
9.29531 0 1
9.41212 0 1
9.52897 0 1
9.64584 0 1
9.76276 0 1
9.8797 0 1
9.99667 0 1
10.1137 0 1
10.2307 0 1
10.3478 0 1
10.4648 0 1
10.5819 0 1
10.6991 0 1
10.8162 0 1
10.9334 0 1
11.0506 0 1
11.1678 0 1
11.285 0 1
11.4023 0 1
11.5196 0 1
11.6369 0 1
11.7542 0 1
11.8715 0 1
11.9888 0 1
12.1062 0 1
12.2235 0 1
12.3409 0 1
12.4582 0 1
12.5756 0 1
12.693 0 1
12.8104 0 1
12.9278 0 1
13.0452 0 1
13.1626 0 1
13.28 0 1
13.3974 0 1
13.5149 0 1
13.6323 0 1
13.7497 0 1
13.8671 0 1
13.9845 0 1
14.1019 0 1
14.2193 0 1
14.3367 0 1
14.4541 0 1
14.5714 0 1
14.6888 0 1
14.8062 0 1
14.9235 0 1
15.0408 884 29.7321
15.1581 869 29.4788
15.2755 915 30.249
15.3927 925 30.4138
15.51 952 30.8545
15.6273 855 29.2404
15.7445 863 29.3769
15.8617 927 30.4467
15.9789 884 29.7321
16.0961 883 29.7153
16.2132 912 30.1993
16.3304 1023 31.9844
16.4475 1012 31.8119
16.5646 1048 32.3728
16.6816 1023 31.9844
16.7986 1021 31.9531
16.9156 1043 32.2955
17.0326 1027 32.0468
17.1496 962 31.0161
17.2665 988 31.4325
17.3833 1047 32.3574
17.5002 1018 31.9061
17.617 1083 32.909
17.7338 1022 31.9687
17.8505 1084 32.9242
17.9672 1136 33.7046
18.0839 1065 32.6343
18.2005 1142 33.7935
18.3171 1167 34.1614
18.4337 1177 34.3074
18.5502 1213 34.8281
18.6666 1180 34.3511
18.7831 1202 34.6699
18.8994 1206 34.7275
19.0158 1086 32.9545
19.1321 1108 33.2866
19.2483 1144 33.8231
19.3645 1084 32.9242
19.4806 1062 32.5883
19.5967 1116 33.4066
19.7128 1162 34.0881
19.8288 1168 34.176
19.9447 1117 33.4215
20.0606 0 1
20.1764 0 1
20.2922 0 1
20.4079 0 1
20.5236 0 1
20.6392 0 1
20.7548 0 1
20.8702 0 1
23.3078 0 1
23.4233 0 1
23.539 0 1
23.6547 0 1
23.7704 0 1
23.8862 0 1
24.0021 0 1
24.118 0 1
24.234 0 1
24.35 0 1
24.4661 1163 34.1028
24.5822 1109 33.3017
24.6984 1092 33.0454
24.8146 1154 33.9706
24.9309 1219 34.9142
25.0472 1242 35.242
25.1636 1240 35.2136
25.28 1293 35.9583
25.3965 1307 36.1525
25.513 1284 35.8329
25.6296 1293 35.9583
25.7462 1262 35.5246
25.8628 1250 35.3553
25.9795 1223 34.9714
26.0962 1286 35.8608
26.213 1198 34.6121
26.3298 1230 35.0714
26.4466 1246 35.2987
26.5635 1359 36.8646
26.6804 1343 36.647
26.7973 1361 36.8917
26.9143 1350 36.7423
27.0313 1368 36.9865
27.1483 1384 37.2022
27.2653 1431 37.8286
27.3824 1463 38.2492
27.4996 1438 37.921
27.6167 1372 37.0405
27.7339 1351 36.756
27.8511 1337 36.565
27.9683 1261 35.5106
28.0855 1250 35.3553
28.2028 1221 34.9428
28.3201 1165 34.1321
28.4374 1240 35.2136
28.5547 1252 35.3836
28.6721 1369 37
28.7894 1325 36.4005
28.9068 1341 36.6197
29.0242 1317 36.2905
29.1416 1334 36.524
29.259 1233 35.1141
29.3764 1229 35.0571
29.4939 1199 34.6266
29.6113 1230 35.0714
29.7288 1212 34.8138
29.8463 1285 35.8469
29.9638 1241 35.2278
30.0812 1347 36.7015
30.1987 1307 36.1525
30.3162 1462 38.2361
30.4337 1416 37.6298
30.5512 1456 38.1576
30.6687 1464 38.2623
30.7862 1468 38.3145
30.9037 1433 37.855
31.0212 1473 38.3797
31.1387 1387 37.2424
31.2562 1454 38.1314
31.3737 1416 37.6298
31.4912 1319 36.318
31.6087 1288 35.8887
31.7262 1284 35.8329
31.8436 1282 35.805
31.9611 1274 35.6931
32.0785 1380 37.1484
32.1959 1312 36.2215
32.3134 1391 37.2961
32.4308 1374 37.0675
32.5482 1338 36.5787
32.6655 1317 36.2905
32.7829 1291 35.9305
32.9002 1278 35.7491
33.0176 1274 35.6931
33.1349 1301 36.0694
33.2522 1273 35.6791
33.3694 1308 36.1663
33.4867 1245 35.2846
33.6039 1366 36.9594
33.7211 1363 36.9188
33.8383 1441 37.9605
33.9554 1492 38.6264
34.0725 1551 39.3827
34.1896 1507 38.8201
34.3067 1447 38.0395
34.4237 1567 39.5854
34.5407 1569 39.6106
34.6577 1488 38.5746
34.7746 1491 38.6135
34.8915 1488 38.5746
35.0084 1405 37.4833
35.1252 1361 36.8917
35.242 1369 37
35.3587 1341 36.6197
35.4755 1219 34.9142
35.5921 1276 35.7211
35.7088 1417 37.6431
35.8254 1411 37.5633
35.9419 1407 37.51
36.0584 1501 38.7427
36.1749 1438 37.921
36.2913 1443 37.9868
36.4077 1384 37.2022
36.524 1301 36.0694
36.6403 1308 36.1663
36.7565 1293 35.9583
36.8727 1285 35.8469
36.9889 1215 34.8569
37.1049 1237 35.171
37.221 0 1
37.3369 0 1
37.4529 0 1
37.5687 0 1
37.6845 0 1
37.8003 0 1
37.916 0 1
38.0316 0 1
38.1472 0 1
40.5851 0 1
40.7008 0 1
40.8164 0 1
40.9322 0 1
41.048 0 1
41.1639 0 1
41.2798 0 1
41.3958 0 1
41.5118 0 1
41.6279 0 1
41.744 1106 33.2566
41.8602 1148 33.8821
41.9765 1106 33.2566
42.0928 1129 33.6006
42.2091 1111 33.3317
42.3255 1159 34.0441
42.4419 1243 35.2562
42.5584 1171 34.2199
42.675 1323 36.3731
42.7915 1400 37.4166
42.9081 1367 36.973
43.0248 1405 37.4833
43.1415 1378 37.1214
43.2582 1371 37.027
43.375 1407 37.51
43.4918 1393 37.3229
43.6087 1398 37.3898
43.7256 1310 36.1939
43.8425 1286 35.8608
43.9595 1266 35.5809
44.0765 1221 34.9428
44.1935 1193 34.5398
44.3106 1131 33.6303
44.4277 1123 33.5112
44.5448 1251 35.3695
44.6619 1193 34.5398
44.7791 1231 35.0856
44.8963 1218 34.8999
45.0136 1185 34.4238
45.1308 1108 33.2866
45.2481 1019 31.9218
45.3654 995 31.5436
45.4827 948 30.7896
45.6001 1050 32.4037
45.7174 974 31.209
45.8348 979 31.289
45.9522 1018 31.9061
46.0697 1106 33.2566
46.1871 1093 33.0606
46.3046 1108 33.2866
46.422 1192 34.5254
46.5395 1175 34.2783
46.657 1175 34.2783
46.7745 1186 34.4384
46.892 1218 34.8999
47.0096 1137 33.7194
47.1271 1161 34.0735
47.2446 1122 33.4963
47.3622 1078 32.8329
47.4797 1073 32.7567
47.5973 1060 32.5576
47.7149 1015 31.8591
47.8324 1043 32.2955
47.95 991 31.4802
48.0675 961 31
48.1851 1042 32.28
48.3027 1016 31.8748
48.4202 1053 32.45
48.5378 977 31.257
48.6554 967 31.0966
48.7729 896 29.9333
48.8904 884 29.7321
49.008 779 27.9106
49.1255 825 28.7228
49.243 840 28.9828
49.3605 816 28.5657
49.478 875 29.5804
49.5955 940 30.6594
49.713 973 31.1929
49.8304 1018 31.9061
49.9479 1005 31.7017
50.0653 1095 33.0908
50.1827 1095 33.0908
50.3001 1110 33.3167
50.4175 1063 32.6037
50.5348 1159 34.0441
50.6521 1123 33.5112
50.7694 1087 32.9697
50.8867 1127 33.5708
51.004 1201 34.6554
51.1212 1079 32.8481
51.2384 1137 33.7194
51.3556 1129 33.6006
51.4727 1170 34.2053
51.5899 1097 33.121
51.707 1160 34.0588
51.824 1229 35.0571
51.9411 1233 35.1141
52.0581 1275 35.7071
52.175 1270 35.6371
52.2919 1179 34.3366
52.4088 1152 33.9411
52.5257 1108 33.2866
52.6425 1087 32.9697
52.7593 1030 32.0936
52.876 1177 34.3074
52.9927 1228 35.0428
53.1094 1257 35.4542
53.226 1286 35.8608
53.3426 1436 37.8946
53.4591 1502 38.7556
53.5756 1575 39.6863
53.692 1602 40.025
53.8084 1706 41.3038
53.9248 1661 40.7554
54.0411 1725 41.5331
54.1573 1735 41.6533
54.2735 0 1
54.3896 0 1
54.5057 0 1
54.6217 0 1
54.7377 0 1
54.8537 0 1
54.9695 0 1
55.0853 0 1
55.2011 0 1
55.3168 0 1
55.4324 0 1
57.824 0 1
57.9396 0 1
58.0553 0 1
58.1711 0 1
58.2869 0 1
58.4028 0 1
58.5187 0 1
58.6347 0 1
58.7508 0 1
58.8669 0 1
58.983 1953 44.1928
59.0992 2008 44.8107
59.2155 2140 46.2601
59.3318 2047 45.2438
59.4482 2097 45.793
59.5646 2050 45.2769
59.681 1993 44.643
59.7975 1984 44.5421
59.9141 1941 44.0568
60.0306 1957 44.238
60.1473 1841 42.9069
60.2639 1947 44.1248
60.3807 1857 43.0929
60.4974 1969 44.3734
60.6142 1902 43.6119
60.731 1800 42.4264
60.8479 1780 42.19
60.9648 1629 40.3609
61.0818 1572 39.6485
61.1987 1501 38.7427
61.3158 1429 37.8021
61.4328 1480 38.4708
61.5499 1518 38.9615
61.667 1590 39.8748
61.7841 1634 40.4228
61.9013 1746 41.7852
62.0185 1848 42.9884
62.1357 1893 43.5086
62.253 2013 44.8665
62.3702 1968 44.3621
62.4875 2057 45.3542
62.6049 2056 45.3431
62.7222 1993 44.643
62.8396 2029 45.0444
62.9569 2027 45.0222
63.0743 1983 44.5309
63.1918 1927 43.8976
63.3092 1927 43.8976
63.4267 1859 43.1161
63.5441 1809 42.5323
63.6616 1850 43.0116
63.7791 1834 42.8252
63.8966 1854 43.0581
64.0142 1805 42.4853
64.1317 1862 43.1509
64.2492 1735 41.6533
64.3668 1633 40.4104
64.4843 1544 39.2938
64.6019 1510 38.8587
64.7195 1479 38.4578
64.837 1415 37.6165
64.9546 1402 37.4433
65.0722 1406 37.4967
65.1898 1513 38.8973
65.3074 1549 39.3573
65.4249 1572 39.6485
65.5425 1737 41.6773
65.6601 1862 43.1509
65.7777 1860 43.1277
65.8952 1902 43.6119
66.0128 2059 45.3762
66.1304 1999 44.7102
66.2479 1973 44.4185
66.3655 1993 44.643
66.483 1945 44.1022
66.6005 2100 45.8258
66.718 1996 44.6766
66.8355 2030 45.0555
66.953 1896 43.5431
67.0705 1929 43.9204
67.1879 1881 43.3705
67.3054 1872 43.2666
67.4228 1835 42.8369
67.5402 1894 43.5201
67.6576 1880 43.359
67.7749 1934 43.9773
67.8923 1879 43.3474
68.0096 1839 42.8836
68.1269 1708 41.328
68.2442 1649 40.6079
68.3614 1562 39.5221
68.4787 1485 38.5357
68.5958 1495 38.6652
68.713 1512 38.8844
68.8302 1623 40.2865
68.9473 1724 41.5211
69.0643 1902 43.6119
69.1814 1967 44.3509
69.2984 2236 47.2864
69.4154 2200 46.9042
69.5323 2262 47.5605
69.6492 2404 49.0306
69.7661 2404 49.0306
69.8829 2397 48.9592
69.9997 2447 49.4672
70.1165 2385 48.8365
70.2332 2450 49.4975
70.3499 2290 47.8539
70.4665 2384 48.8262
70.5831 2236 47.2864
70.6996 2323 48.1975
70.8161 2267 47.613
70.9326 2274 47.6865
71.049 2347 48.4458
71.1653 2280 47.7493
71.2817 2319 48.156
71.3979 2318 48.1456
71.5141 2259 47.5289
71.6303 2080 45.607
71.7464 1808 42.5206
71.8624 0 1
71.9784 0 1
72.0944 0 1
72.2102 0 1
72.3261 0 1
72.4418 0 1
72.5575 0 1
72.6732 0 1
75.1054 0 1
75.2209 0 1
75.3365 0 1
75.4521 0 1
75.5678 0 1
75.6835 0 1
75.7993 0 1
75.9151 0 1
76.031 0 1
76.147 2196 46.8615
76.263 2419 49.1833
76.3791 2523 50.2295
76.4952 2596 50.951
76.6113 2643 51.4101
76.7276 2657 51.5461
76.8438 2599 50.9804
76.9601 2509 50.0899
77.0765 2248 47.4131
77.1929 2109 45.9239
77.3093 1940 44.0454
77.4258 1787 42.2729
77.5423 1836 42.8486
77.6589 1832 42.8019
77.7755 1963 44.3058
77.8921 2162 46.4973
78.0088 2348 48.4562
78.1256 2509 50.0899
78.2423 2639 51.3712
78.3591 2892 53.7773
78.4759 2820 53.1037
78.5928 2938 54.2033
78.7097 2878 53.647
78.8266 2810 53.0094
78.9436 3028 55.0273
79.0606 2888 53.7401
79.1776 2910 53.9444
79.2946 2949 54.3047
79.4117 2790 52.8205
79.5288 2830 53.1977
79.6459 2878 53.647
79.7631 2699 51.9519
79.8802 2699 51.9519
79.9974 2647 51.449
80.1147 2712 52.0769
80.2319 2925 54.0833
80.3491 2755 52.4881
80.4664 2702 51.9808
80.5837 2626 51.2445
80.701 2501 50.01
80.8183 2269 47.634
80.9357 2036 45.1221
81.053 1904 43.6348
81.1704 1821 42.6732
81.2877 1791 42.3202
81.4051 1866 43.1972
81.5225 1988 44.587
81.6399 2282 47.7703
81.7573 2507 50.07
81.8747 2594 50.9313
81.9922 2657 51.5461
82.1096 2865 53.5257
82.227 2898 53.8331
82.3444 2840 53.2917
82.4619 2916 54
82.5793 3045 55.1815
82.6967 2840 53.2917
82.8142 2745 52.3927
82.9316 2728 52.2303
83.049 2831 53.2071
83.1664 2677 51.7397
83.2838 2611 51.0979
83.4012 2574 50.7346
83.5186 2628 51.264
83.636 2643 51.4101
83.7534 2593 50.9215
83.8708 2534 50.3389
83.9881 2697 51.9326
84.1055 2702 51.9808
84.2228 2522 50.2195
84.3401 2414 49.1325
84.4575 2153 46.4004
84.5747 2020 44.9444
84.692 1869 43.2319
84.8093 1780 42.19
84.9265 1799 42.4146
85.0437 1871 43.2551
85.1609 2083 45.6399
85.2781 2310 48.0625
85.3952 2530 50.2991
85.5123 2775 52.6783
85.6294 2923 54.0648
85.7465 3048 55.2087
85.8636 3210 56.6569
85.9806 3122 55.8749
86.0976 3270 57.1839
86.2145 3309 57.5239
86.3315 3338 57.7754
86.4484 3211 56.6657
86.5652 3414 58.4294
86.682 3303 57.4717
86.7988 3402 58.3267
86.9156 3358 57.9483
87.0323 3289 57.3498
87.149 3327 57.6802
87.2657 3265 57.1402
87.3823 3516 59.2959
87.4988 3383 58.1636
87.6154 3596 59.9667
87.7318 3399 58.3009
87.8483 3251 57.0175
87.9647 2955 54.3599
88.081 2803 52.9434
88.1973 2616 51.1468
88.3136 2463 49.6286
88.4298 2318 48.1456
88.546 2391 48.8979
88.6621 2612 51.1077
88.7781 2820 53.1037
88.8942 0 1
89.0101 0 1
89.126 0 1
89.2419 0 1
89.3577 0 1
89.4734 0 1
89.5891 0 1
89.7047 0 1
89.8203 0 1
89.9358 0 1
92.3269 0 1
92.4424 0 1
92.558 0 1
92.6736 0 1
92.7893 0 1
92.905 0 1
93.0208 0 1
93.1366 0 1
93.2525 0 1
93.3685 0 1
93.4845 0 1
93.6005 2687 51.8363
93.7167 2542 50.4183
93.8328 2539 50.3885
93.949 2640 51.3809
94.0653 2970 54.4977
94.1816 3257 57.0701
94.2979 3465 58.8643
94.4143 3770 61.4003
94.5307 3897 62.426
94.6472 4172 64.591
94.7637 4103 64.0547
94.8803 4275 65.3835
94.9969 4233 65.0615
95.1135 4396 66.3023
95.2302 4353 65.9773
95.3469 4391 66.2646
95.4637 4399 66.325
95.5805 4361 66.0379
95.6973 4368 66.0908
95.8142 4263 65.2917
95.9311 4230 65.0385
96.048 4142 64.3584
96.1649 4126 64.2339
96.2819 4083 63.8984
96.3989 4163 64.5213
96.516 4103 64.0547
96.633 4414 66.4379
96.7501 4291 65.5057
96.8673 4205 64.846
96.9844 3885 62.3298
97.1016 3635 60.291
97.2188 3269 57.1752
97.336 3015 54.909
97.4532 2663 51.6043
97.5704 2669 51.6624
97.6877 2814 53.0471
97.805 2978 54.5711
97.9223 3170 56.3028
98.0396 3534 59.4475
98.1569 3716 60.959
98.2743 4024 63.435
98.3916 4283 65.4446
98.509 4306 65.6201
98.6264 4491 67.0149
98.7438 4469 66.8506
98.8612 4504 67.1118
98.9786 4486 66.9776
99.096 4389 66.2495
99.2134 4434 66.5883
99.3308 4475 66.8954
99.4482 4472 66.873
99.5656 4437 66.6108
99.6831 4448 66.6933
99.8005 4171 64.5833
99.9179 4176 64.622
100.035 4260 65.2687
100.153 4491 67.0149
100.27 4486 66.9776
100.388 4358 66.0151
100.505 4405 66.3702
100.622 3907 62.506
100.74 3624 60.1997
100.857 3321 57.6281
100.975 3077 55.4707
101.092 2818 53.0848
101.209 2800 52.915
101.327 2873 53.6004
101.444 3126 55.9106
101.561 3426 58.532
101.679 3916 62.578
101.796 4146 64.3894
101.913 4455 66.7458
102.03 4502 67.0969
102.148 4634 68.0735
102.265 4585 67.7126
102.382 4793 69.2315
102.499 4661 68.2715
102.616 4657 68.2422
102.733 4676 68.3813
102.851 4686 68.4544
102.968 4491 67.0149
103.085 4807 69.3325
103.202 4659 68.2569
103.319 4474 66.888
103.436 4538 67.3647
103.552 4453 66.7308
103.669 4668 68.3228
103.786 4717 68.6804
103.903 4669 68.3301
104.02 4475 66.8954
104.137 4198 64.792
104.253 3812 61.7414
104.37 3595 59.9583
104.487 3242 56.9386
104.603 3150 56.1249
104.72 3145 56.0803
104.836 3073 55.4346
104.953 3336 57.7581
105.069 3724 61.0246
105.186 4073 63.8201
105.302 4490 67.0075
105.418 4707 68.6076
105.535 4902 70.0143
105.651 4844 69.5989
105.767 4922 70.157
105.883 5027 70.9013
105.999 5070 71.2039
106.115 0 1
106.231 0 1
106.347 0 1
106.463 0 1
106.579 0 1
106.694 0 1
106.81 0 1
106.926 0 1
107.041 0 1
107.157 0 1
109.576 0 1
109.692 0 1
109.807 0 1
109.923 0 1
110.039 0 1
110.155 0 1
110.27 0 1
110.386 0 1
110.502 0 1
110.618 4282 65.437
110.735 4474 66.888
110.851 4550 67.4537
110.967 4697 68.5347
111.083 4566 67.5722
111.199 4572 67.6166
111.316 4481 66.9403
111.432 4503 67.1044
111.549 4539 67.3721
111.665 4535 67.3424
111.782 4320 65.7267
111.898 4325 65.7647
112.015 4266 65.3146
112.132 4514 67.1863
112.248 4500 67.082
112.365 4360 66.0303
112.482 4139 64.3351
112.599 4061 63.726
112.716 3774 61.4329
112.832 3465 58.8643
112.949 3226 56.7979
113.066 2981 54.5985
113.183 2899 53.8424
113.3 2833 53.2259
113.417 3042 55.1543
113.534 3209 56.648
113.652 3370 58.0517
113.769 3810 61.7252
113.886 4012 63.3404
114.003 4114 64.1405
114.12 4217 64.9384
114.238 4226 65.0077
114.355 4336 65.8483
114.472 4131 64.2729
114.589 4283 65.4446
114.707 4081 63.8827
114.824 4205 64.846
114.942 4291 65.5057
115.059 4271 65.3529
115.176 4132 64.2806
115.294 4193 64.7534
115.411 4310 65.6506
115.529 3984 63.1189
115.646 4161 64.5058
115.764 4294 65.5286
115.881 4217 64.9384
115.999 4090 63.9531
116.116 4012 63.3404
116.234 3846 62.0161
116.351 3475 58.9491
116.469 3376 58.1034
116.586 3001 54.7814
116.704 2878 53.647
116.821 2864 53.5164
116.939 2973 54.5252
117.056 2954 54.3507
117.174 3240 56.921
117.291 3517 59.3043
117.409 3691 60.7536
117.526 3938 62.7535
117.644 4185 64.6916
117.761 4191 64.7379
117.879 4299 65.5668
117.996 3975 63.0476
118.114 4150 64.4205
118.231 4031 63.4902
118.349 3990 63.1664
118.466 4086 63.9218
118.584 4099 64.0234
118.701 4070 63.7966
118.819 3934 62.7216
118.936 3989 63.1585
119.053 3843 61.9919
119.171 3903 62.474
119.288 3893 62.3939
119.405 4039 63.5531
119.523 4094 63.9844
119.64 3980 63.0872
119.757 3962 62.9444
119.875 3631 60.2578
119.992 3564 59.6992
120.109 3379 58.1292
120.226 3048 55.2087
120.343 2824 53.1413
120.46 2771 52.6403
120.578 2792 52.8394
120.695 2836 53.2541
120.812 2994 54.7175
120.929 3199 56.5597
121.046 3482 59.0085
121.163 3662 60.5145
121.279 3826 61.8547
121.396 3746 61.2046
121.513 3984 63.1189
121.63 3992 63.1823
121.747 3997 63.2218
121.863 4052 63.6553
121.98 3861 62.1369
122.097 3832 61.9032
122.213 3845 62.0081
122.33 3844 62
122.446 3836 61.9355
122.563 3896 62.4179
122.679 3930 62.6897
122.795 3725 61.0328
122.912 3686 60.7124
123.028 3674 60.6135
123.144 3698 60.8112
123.26 3787 61.5386
123.377 0 1
123.493 0 1
123.609 0 1
123.725 0 1
123.84 0 1
123.956 0 1
124.072 0 1
124.188 0 1
124.303 0 1
124.419 0 1
126.852 0 1
126.968 0 1
127.083 0 1
127.199 0 1
127.315 0 1
127.431 0 1
127.547 0 1
127.663 0 1
127.779 0 1
127.895 0 1
128.011 0 1
128.127 0 1
128.243 0 1
128.359 4073 63.8201
128.476 4047 63.616
128.592 3930 62.6897
128.708 3856 62.0967
128.825 3743 61.1801
128.941 3592 59.9333
129.058 3295 57.4021
129.174 3291 57.3672
129.291 3042 55.1543
129.408 3024 54.9909
129.524 3112 55.7853
129.641 3185 56.4358
129.758 3379 58.1292
129.875 3485 59.0339
129.992 3681 60.6712
130.108 3832 61.9032
130.225 3791 61.5711
130.342 4013 63.3482
130.459 3891 62.3779
130.576 4075 63.8357
130.693 3898 62.434
130.81 3845 62.0081
130.928 3911 62.538
131.045 3875 62.2495
131.162 4000 63.2456
131.279 4034 63.5138
131.396 3973 63.0317
131.513 3929 62.6817
131.631 3965 62.9682
131.748 3973 63.0317
131.865 3988 63.1506
131.983 3864 62.1611
132.1 3846 62.0161
132.217 3834 61.9193
132.335 3741 61.1637
132.452 3660 60.4979
132.57 3411 58.4038
132.687 3175 56.3471
132.804 3248 56.9912
132.922 3012 54.8817
133.039 2992 54.6992
133.157 2990 54.6809
133.274 3140 56.0357
133.392 3291 57.3672
133.509 3514 59.279
133.627 3594 59.95
133.744 3765 61.3596
133.862 3797 61.6198
133.979 3780 61.4817
134.097 3796 61.6117
134.214 3804 61.6766
134.332 3848 62.0322
134.449 3629 60.2412
134.567 3685 60.7042
134.684 3748 61.2209
134.802 3912 62.546
134.919 3816 61.7738
135.037 3826 61.8547
135.154 3707 60.8851
135.272 3775 61.441
135.389 3828 61.8708
135.507 3865 62.1691
135.624 3863 62.153
135.742 3723 61.0164
135.859 3632 60.2661
135.977 3580 59.8331
136.094 3442 58.6686
136.211 3252 57.0263
136.329 3110 55.7674
136.446 2932 54.1479
136.564 2954 54.3507
136.681 2907 53.9166
136.798 3100 55.6776
136.915 3071 55.4166
137.033 3163 56.2406
137.15 3365 58.0086
137.267 3434 58.6003
137.384 3654 60.4483
137.502 3583 59.8582
137.619 3555 59.6238
137.736 3611 60.0916
137.853 3512 59.2621
137.97 3526 59.3801
138.087 3445 58.6941
138.204 3455 58.7792
138.321 3626 60.2163
138.438 3676 60.63
138.555 3804 61.6766
138.672 3590 59.9166
138.788 3510 59.2453
138.905 3530 59.4138
139.022 3598 59.9833
139.139 3661 60.5062
139.255 3770 61.4003
139.372 3731 61.0819
139.488 3593 59.9416
139.605 3561 59.6741
139.721 3367 58.0259
139.838 3249 57
139.954 3165 56.2583
140.071 3026 55.0091
140.187 2939 54.2125
140.303 2935 54.1756
140.419 2922 54.0555
140.535 2905 53.8981
140.652 3057 55.2901
140.768 0 1
140.884 0 1
141 0 1
141.115 0 1
141.231 0 1
141.347 0 1
141.463 0 1
141.578 0 1
141.694 0 1
144.104 0 1
144.219 0 1
144.335 0 1
144.45 0 1
144.566 0 1
144.682 0 1
144.798 0 1
144.914 0 1
145.03 0 1
145.146 2007 44.7996
145.262 2302 47.9792
145.378 2329 48.2597
145.494 2294 47.8957
145.61 2380 48.7852
145.726 2444 49.4368
145.842 2475 49.7494
145.959 2577 50.7642
146.075 2581 50.8035
146.192 2646 51.4393
146.308 2733 52.2781
146.425 2731 52.259
146.541 2737 52.3163
146.658 2691 51.8748
146.774 2601 51
146.891 2674 51.7107
147.008 2678 51.7494
147.125 2704 52
147.241 2734 52.2877
147.358 2737 52.3163
147.475 2790 52.8205
147.592 2833 53.2259
147.709 2733 52.2781
147.826 2783 52.7541
147.943 2787 52.792
148.06 2794 52.8583
148.177 2809 53
148.294 2812 53.0283
148.411 2719 52.144
148.528 2652 51.4976
148.645 2620 51.1859
148.762 2505 50.05
148.88 2496 49.96
148.997 2424 49.2341
149.114 2452 49.5177
149.231 2495 49.95
149.349 2426 49.2544
149.466 2529 50.2892
149.583 2462 49.6185
149.701 2694 51.9038
149.818 2728 52.2303
149.935 2790 52.8205
150.053 2731 52.259
150.17 2779 52.7162
150.287 2712 52.0769
150.405 2687 51.8363
150.522 2676 51.7301
150.64 2577 50.7642
150.757 2592 50.9117
150.875 2775 52.6783
150.992 2777 52.6972
151.11 2849 53.376
151.227 2822 53.1225
151.344 2847 53.3573
151.462 2842 53.3104
151.579 2854 53.4228
151.697 2975 54.5436
151.814 2780 52.7257
151.932 2820 53.1037
152.049 2696 51.923
152.167 2688 51.8459
152.284 2713 52.0865
152.402 2631 51.2933
152.519 2606 51.049
152.636 2435 49.3457
152.754 2557 50.5668
152.871 2523 50.2295
152.989 2553 50.5272
153.106 2445 49.4469
153.223 2654 51.517
153.341 2625 51.2348
153.458 2821 53.1131
153.575 2754 52.4786
153.693 2808 52.9906
153.81 2789 52.811
153.927 2791 52.8299
154.044 2705 52.0096
154.162 2625 51.2348
154.279 2628 51.264
154.396 2691 51.8748
154.513 2774 52.6688
154.63 2822 53.1225
154.747 2934 54.1664
154.864 3043 55.1634
154.981 2991 54.69
155.098 2937 54.1941
155.215 2935 54.1756
155.332 2818 53.0848
155.449 2984 54.626
155.566 2830 53.1977
155.683 2764 52.5738
155.8 2784 52.7636
155.917 2786 52.7826
156.033 2682 51.788
156.15 0 1
156.267 0 1
156.383 0 1
156.5 0 1
156.617 0 1
156.733 0 1
156.85 0 1
156.966 0 1
157.082 0 1
157.199 0 1
157.315 0 1
157.431 0 1
157.547 0 1
157.664 0 1
157.78 0 1
157.896 0 1
158.012 0 1
158.128 0 1
158.244 0 1
158.359 0 1
158.475 0 1
158.591 0 1
158.706 0 1
