
6.15755 0 1
6.2731 0 1
6.3887 0 1
6.50437 0 1
6.62009 0 1
6.73587 0 1
6.8517 0 1
6.96759 0 1
7.08353 0 1
7.19952 0 1
7.31557 0 1
7.43166 0 1
7.54781 0 1
7.664 0 1
7.78024 0 1
7.89653 0 1
8.01286 0 1
8.12924 0 1
8.24567 0 1
8.36213 0 1
8.47864 0 1
8.59519 0 1
8.71178 0 1
8.82841 0 1
8.94508 0 1
9.06179 0 1
9.17853 0 1
9.29531 0 1
9.41212 0 1
9.52897 0 1
9.64584 0 1
9.76276 0 1
9.8797 0 1
9.99667 0 1
10.1137 0 1
10.2307 0 1
10.3478 0 1
10.4648 0 1
10.5819 0 1
10.6991 0 1
10.8162 0 1
10.9334 0 1
11.0506 0 1
11.1678 0 1
11.285 0 1
11.4023 0 1
11.5196 0 1
11.6369 0 1
11.7542 0 1
11.8715 0 1
11.9888 0 1
12.1062 0 1
12.2235 0 1
12.3409 0 1
12.4582 0 1
12.5756 0 1
12.693 0 1
12.8104 0 1
12.9278 0 1
13.0452 0 1
13.1626 0 1
13.28 0 1
13.3974 0 1
13.5149 0 1
13.6323 0 1
13.7497 0 1
13.8671 0 1
13.9845 0 1
14.1019 0 1
14.2193 0 1
14.3367 0 1
14.4541 0 1
14.5714 0 1
14.6888 0 1
14.8062 0 1
14.9235 0 1
15.0408 0 0
15.1581 0 0
15.2755 0 0
15.3927 0 0
15.51 0 0
15.6273 0 0
15.7445 0 0
15.8617 0 0
15.9789 0 0
16.0961 0 0
16.2132 0 0
16.3304 0 0
16.4475 0 0
16.5646 0 0
16.6816 0 0
16.7986 0 0
16.9156 0 0
17.0326 0 0
17.1496 0 0
17.2665 0 0
17.3833 0 0
17.5002 0 0
17.617 0 0
17.7338 0 0
17.8505 0 0
17.9672 0 0
18.0839 0 0
18.2005 0 0
18.3171 0 0
18.4337 0 0
18.5502 0 0
18.6666 0 0
18.7831 0 0
18.8994 0 0
19.0158 0 0
19.1321 0 0
19.2483 0 0
19.3645 0 0
19.4806 0 0
19.5967 0 0
19.7128 0 0
19.8288 0 0
19.9447 0 0
20.0606 0 1
20.1764 0 1
20.2922 0 1
20.4079 0 1
20.5236 0 1
20.6392 0 1
20.7548 0 1
20.8702 0 1
23.3078 0 1
23.4233 0 1
23.539 0 1
23.6547 0 1
23.7704 0 1
23.8862 0 1
24.0021 0 1
24.118 0 1
24.234 0 1
24.35 0 1
24.4661 1542 39.2683
24.5822 1583 39.7869
24.6984 1570 39.6232
24.8146 1555 39.4335
24.9309 1584 39.7995
25.0472 1557 39.4588
25.1636 1680 40.9878
25.28 1633 40.4104
25.3965 1679 40.9756
25.513 1610 40.1248
25.6296 1651 40.6325
25.7462 1716 41.4246
25.8628 1740 41.7133
25.9795 1778 42.1663
26.0962 1665 40.8044
26.213 1706 41.3038
26.3298 1646 40.5709
26.4466 1582 39.7744
26.5635 1537 39.2046
26.6804 1452 38.1051
26.7973 1277 35.7351
26.9143 1419 37.6696
27.0313 1464 38.2623
27.1483 1550 39.37
27.2653 1693 41.1461
27.3824 1658 40.7185
27.4996 1666 40.8167
27.6167 1596 39.95
27.7339 1618 40.2244
27.8511 1604 40.05
27.9683 1572 39.6485
28.0855 1541 39.2556
28.2028 1591 39.8873
28.3201 1570 39.6232
28.4374 1591 39.8873
28.5547 1604 40.05
28.6721 1589 39.8623
28.7894 1634 40.4228
28.9068 1620 40.2492
29.0242 1562 39.5221
29.1416 1638 40.4722
29.259 1575 39.6863
29.3764 1552 39.3954
29.4939 1584 39.7995
29.6113 1551 39.3827
29.7288 1663 40.7799
29.8463 1639 40.4846
29.9638 1547 39.3319
30.0812 1530 39.1152
30.1987 1260 35.4965
30.3162 1296 36
30.4337 1254 35.4119
30.5512 1409 37.5366
30.6687 1480 38.4708
30.7862 1634 40.4228
30.9037 1578 39.724
31.0212 1586 39.8246
31.1387 1604 40.05
31.2562 1490 38.6005
31.3737 1659 40.7308
31.4912 1641 40.5093
31.6087 1638 40.4722
31.7262 1611 40.1373
31.8436 1648 40.5956
31.9611 1586 39.8246
32.0785 1664 40.7922
32.1959 1571 39.6358
32.3134 1657 40.7063
32.4308 1538 39.2173
32.5482 1632 40.398
32.6655 1629 40.3609
32.7829 1677 40.9512
32.9002 1620 40.2492
33.0176 1554 39.4208
33.1349 1677 40.9512
33.2522 1621 40.2616
33.3694 1568 39.598
33.4867 1615 40.1871
33.6039 1531 39.128
33.7211 1513 38.8973
33.8383 1333 36.5103
33.9554 1306 36.1386
34.0725 1387 37.2424
34.1896 1373 37.054
34.3067 1403 37.4566
34.4237 1576 39.6989
34.5407 1568 39.598
34.6577 1661 40.7554
34.7746 1692 41.1339
34.8915 1631 40.3856
35.0084 1670 40.8656
35.1252 1599 39.9875
35.242 1653 40.6571
35.3587 1643 40.5339
35.4755 1584 39.7995
35.5921 1536 39.1918
35.7088 1588 39.8497
35.8254 1570 39.6232
35.9419 1588 39.8497
36.0584 1636 40.4475
36.1749 1668 40.8412
36.2913 1686 41.0609
36.4077 1630 40.3733
36.524 1664 40.7922
36.6403 1653 40.6571
36.7565 1581 39.7618
36.8727 1724 41.5211
36.9889 1626 40.3237
37.1049 1566 39.5727
37.221 0 1
37.3369 0 1
37.4529 0 1
37.5687 0 1
37.6845 0 1
37.8003 0 1
37.916 0 1
38.0316 0 1
38.1472 0 1
40.5851 0 1
40.7008 0 1
40.8164 0 1
40.9322 0 1
41.048 0 1
41.1639 0 1
41.2798 0 1
41.3958 0 1
41.5118 0 1
41.6279 0 1
41.744 1425 37.7492
41.8602 1404 37.47
41.9765 1430 37.8153
42.0928 1363 36.9188
42.2091 1460 38.2099
42.3255 1410 37.55
42.4419 1394 37.3363
42.5584 1286 35.8608
42.675 1124 33.5261
42.7915 1058 32.5269
42.9081 1128 33.5857
43.0248 1231 35.0856
43.1415 1302 36.0832
43.2582 1389 37.2693
43.375 1393 37.3229
43.4918 1451 38.092
43.6087 1478 38.4448
43.7256 1405 37.4833
43.8425 1389 37.2693
43.9595 1333 36.5103
44.0765 1395 37.3497
44.1935 1338 36.5787
44.3106 1320 36.3318
44.4277 1305 36.1248
44.5448 1284 35.8329
44.6619 1204 34.6987
44.7791 1258 35.4683
44.8963 1341 36.6197
45.0136 1226 35.0143
45.1308 1264 35.5528
45.2481 1230 35.0714
45.3654 1343 36.647
45.4827 1317 36.2905
45.6001 1250 35.3553
45.7174 1264 35.5528
45.8348 1225 35
45.9522 1195 34.5688
46.0697 1132 33.6452
46.1871 949 30.8058
46.3046 976 31.241
46.422 950 30.8221
46.5395 1018 31.9061
46.657 1063 32.6037
46.7745 1169 34.1906
46.892 1244 35.2704
47.0096 1220 34.9285
47.1271 1187 34.4529
47.2446 1152 33.9411
47.3622 1191 34.5109
47.4797 1150 33.9116
47.5973 1083 32.909
47.7149 1126 33.5559
47.8324 1078 32.8329
47.95 1049 32.3883
48.0675 1102 33.1964
48.1851 1004 31.686
48.3027 1050 32.4037
48.4202 1024 32
48.5378 1071 32.7261
48.6554 1090 33.0151
48.7729 1080 32.8634
48.8904 1150 33.9116
49.008 1101 33.1813
49.1255 1122 33.4963
49.243 1181 34.3657
49.3605 1205 34.7131
49.478 1140 33.7639
49.5955 1055 32.4808
49.713 946 30.7571
49.8304 890 29.8329
49.9479 894 29.8998
50.0653 987 31.4166
50.1827 1142 33.7935
50.3001 1304 36.1109
50.4175 1326 36.4143
50.5348 1363 36.9188
50.6521 1429 37.8021
50.7694 1494 38.6523
50.8867 1466 38.2884
51.004 1437 37.9078
51.1212 1532 39.1408
51.2384 1503 38.7685
51.3556 1506 38.8072
51.4727 1470 38.3406
51.5899 1494 38.6523
51.707 1579 39.7366
51.824 1563 39.5348
51.9411 1625 40.3113
52.0581 1681 41
52.175 1802 42.45
52.2919 1725 41.5331
52.4088 1740 41.7133
52.5257 1826 42.7317
52.6425 1846 42.9651
52.7593 1998 44.699
52.876 1890 43.4741
52.9927 1919 43.8064
53.1094 1785 42.2493
53.226 1736 41.6653
53.3426 1642 40.5216
53.4591 1555 39.4335
53.5756 1463 38.2492
53.692 1652 40.6448
53.8084 1870 43.2435
53.9248 1917 43.7836
54.0411 2068 45.4753
54.1573 2165 46.5296
54.2735 0 1
54.3896 0 1
54.5057 0 1
54.6217 0 1
54.7377 0 1
54.8537 0 1
54.9695 0 1
55.0853 0 1
55.2011 0 1
55.3168 0 1
55.4324 0 1
57.824 0 1
57.9396 0 1
58.0553 0 1
58.1711 0 1
58.2869 0 1
58.4028 0 1
58.5187 0 1
58.6347 0 1
58.7508 0 1
58.8669 0 1
58.983 2565 50.6458
59.0992 2786 52.7826
59.2155 3046 55.1906
59.3318 2989 54.6717
59.4482 3054 55.263
59.5646 3097 55.6507
59.681 3098 55.6597
59.7975 2976 54.5527
59.9141 2963 54.4334
60.0306 2895 53.8052
60.1473 2878 53.647
60.2639 2872 53.591
60.3807 2727 52.2207
60.4974 2814 53.0471
60.6142 2909 53.9351
60.731 2966 54.461
60.8479 2989 54.6717
60.9648 3084 55.5338
61.0818 3232 56.8507
61.1987 3179 56.3826
61.3158 3151 56.1338
61.4328 3312 57.55
61.5499 3172 56.3205
61.667 2844 53.3292
61.7841 2768 52.6118
61.9013 2523 50.2295
62.0185 2435 49.3457
62.1357 2437 49.366
62.253 2617 51.1566
62.3702 2919 54.0278
62.4875 3130 55.9464
62.6049 3234 56.8683
62.7222 3376 58.1034
62.8396 3399 58.3009
62.9569 3361 57.9741
63.0743 3387 58.1979
63.1918 3424 58.515
63.3092 3356 57.931
63.4267 3243 56.9473
63.5441 3232 56.8507
63.6616 3094 55.6237
63.7791 2926 54.0925
63.8966 2954 54.3507
64.0142 3092 55.6058
64.1317 3277 57.2451
64.2492 3274 57.2189
64.3668 3348 57.8619
64.4843 3434 58.6003
64.6019 3480 58.9915
64.7195 3477 58.9661
64.837 3473 58.9322
64.9546 3490 59.0762
65.0722 3489 59.0678
65.1898 3413 58.4209
65.3074 3204 56.6039
65.4249 2893 53.7866
65.5425 2656 51.5364
65.6601 2619 51.1762
65.7777 2722 52.1728
65.8952 3048 55.2087
66.0128 3361 57.9741
66.1304 3519 59.3212
66.2479 3652 60.4318
66.3655 3676 60.63
66.483 3840 61.9677
66.6005 3841 61.9758
66.718 3771 61.4085
66.8355 3772 61.4166
66.953 3632 60.2661
67.0705 3625 60.208
67.1879 3564 59.6992
67.3054 3312 57.55
67.4228 3359 57.9569
67.5402 3285 57.3149
67.6576 3448 58.7197
67.7749 3515 59.2874
67.8923 3662 60.5145
68.0096 3877 62.2656
68.1269 3921 62.6179
68.2442 4029 63.4744
68.3614 4116 64.1561
68.4787 4012 63.3404
68.5958 4061 63.726
68.713 4148 64.405
68.8302 4061 63.726
68.9473 3779 61.4736
69.0643 3472 58.9237
69.1814 3199 56.5597
69.2984 3005 54.8179
69.4154 3147 56.0981
69.5323 3447 58.7112
69.6492 3845 62.0081
69.7661 4295 65.5362
69.8829 4314 65.681
69.9997 4334 65.8331
70.1165 4453 66.7308
70.2332 4620 67.9706
70.3499 4582 67.6905
70.4665 4493 67.0298
70.5831 4394 66.2873
70.6996 4242 65.1306
70.8161 4125 64.2262
70.9326 4074 63.8279
71.049 3862 62.145
71.1653 3754 61.2699
71.2817 3910 62.53
71.3979 3932 62.7057
71.5141 3892 62.3859
71.6303 4015 63.364
71.7464 3904 62.482
71.8624 0 1
71.9784 0 1
72.0944 0 1
72.2102 0 1
72.3261 0 1
72.4418 0 1
72.5575 0 1
72.6732 0 1
75.1054 0 1
75.2209 0 1
75.3365 0 1
75.4521 0 1
75.5678 0 1
75.6835 0 1
75.7993 0 1
75.9151 0 1
76.031 0 1
76.147 4050 63.6396
76.263 4237 65.0922
76.3791 4154 64.4515
76.4952 3870 62.2093
76.6113 3963 62.9524
76.7276 4135 64.304
76.8438 4262 65.284
76.9601 4502 67.0969
77.0765 4914 70.0999
77.1929 4891 69.9357
77.3093 5179 71.9653
77.4258 4963 70.4486
77.5423 4826 69.4694
77.6589 4824 69.455
77.7755 4876 69.8284
77.8921 4605 67.8602
78.0088 4176 64.622
78.1256 3917 62.5859
78.2423 3519 59.3212
78.3591 3413 58.4209
78.4759 3533 59.439
78.5928 3920 62.6099
78.7097 4169 64.5678
78.8266 4790 69.2098
78.9436 4628 68.0294
79.0606 4764 69.0217
79.1776 4832 69.5126
79.2946 4937 70.2638
79.4117 4932 70.2282
79.5288 4833 69.5198
79.6459 4744 68.8767
79.7631 4621 67.9779
79.8802 4430 66.5582
79.9974 4180 64.6529
80.1147 4114 64.1405
80.2319 3999 63.2376
80.3491 4033 63.5059
80.4664 4079 63.867
80.5837 4535 67.3424
80.701 4633 68.0661
80.8183 4742 68.8622
80.9357 4845 69.606
81.053 4733 68.7968
81.1704 4926 70.1855
81.2877 4793 69.2315
81.4051 4700 68.5565
81.5225 4692 68.4982
81.6399 4289 65.4905
81.7573 3954 62.8808
81.8747 3509 59.2368
81.9922 3387 58.1979
82.1096 3344 57.8273
82.227 3836 61.9355
82.3444 4096 64
82.4619 4425 66.5207
82.5793 4570 67.6018
82.6967 4700 68.5565
82.8142 4661 68.2715
82.9316 4691 68.4909
83.049 4612 67.9117
83.1664 4518 67.2161
83.2838 4445 66.6708
83.4012 4217 64.9384
83.5186 4130 64.2651
83.636 3938 62.7535
83.7534 3775 61.441
83.8708 3629 60.2412
83.9881 3604 60.0333
84.1055 3841 61.9758
84.2228 3959 62.9206
84.3401 4290 65.4981
84.4575 4424 66.5132
84.5747 4576 67.6461
84.692 4603 67.8454
84.8093 4483 66.9552
84.9265 4589 67.7422
85.0437 4662 68.2788
85.1609 4369 66.0984
85.2781 4004 63.2772
85.3952 3722 61.0082
85.5123 3518 59.3127
85.6294 3487 59.0508
85.7465 3585 59.8749
85.8636 3934 62.7216
85.9806 4199 64.7997
86.0976 4619 67.9632
86.2145 4771 69.0724
86.3315 4701 68.5638
86.4484 5186 72.0139
86.5652 5073 71.225
86.682 4992 70.6541
86.7988 4955 70.3918
86.9156 4921 70.1498
87.0323 4819 69.419
87.149 4636 68.0882
87.2657 4440 66.6333
87.3823 4303 65.5973
87.4988 4178 64.6375
87.6154 4256 65.238
87.7318 4615 67.9338
87.8483 4792 69.2243
87.9647 5137 71.6729
88.081 5283 72.6842
88.1973 5284 72.6911
88.3136 5410 73.5527
88.4298 5343 73.0958
88.546 5249 72.45
88.6621 5161 71.8401
88.7781 4856 69.685
88.8942 0 1
89.0101 0 1
89.126 0 1
89.2419 0 1
89.3577 0 1
89.4734 0 1
89.5891 0 1
89.7047 0 1
89.8203 0 1
89.9358 0 1
92.3269 0 1
92.4424 0 1
92.558 0 1
92.6736 0 1
92.7893 0 1
92.905 0 1
93.0208 0 1
93.1366 0 1
93.2525 0 1
93.3685 0 1
93.4845 0 1
93.6005 5290 72.7324
93.7167 5255 72.4914
93.8328 5300 72.8011
93.949 5316 72.9109
94.0653 5294 72.7599
94.1816 5086 71.3162
94.2979 4941 70.2922
94.4143 4474 66.888
94.5307 4366 66.0757
94.6472 4089 63.9453
94.7637 3982 63.1031
94.8803 4254 65.2227
94.9969 4522 67.2458
95.1135 4851 69.6491
95.2302 5084 71.3022
95.3469 5254 72.4845
95.4637 5340 73.0753
95.5805 5430 73.6885
95.6973 5554 74.5252
95.8142 5512 74.2428
95.9311 5614 74.9266
96.048 5364 73.2393
96.1649 5223 72.2703
96.2819 5143 71.7147
96.3989 4943 70.3065
96.516 4505 67.1193
96.633 4426 66.5282
96.7501 4263 65.2917
96.8673 4534 67.335
96.9844 4913 70.0928
97.1016 5207 72.1595
97.2188 5453 73.8444
97.336 5738 75.7496
97.4532 5657 75.213
97.5704 5563 74.5855
97.6877 5518 74.2832
97.805 5565 74.5989
97.9223 5357 73.1915
98.0396 4831 69.5054
98.1569 4582 67.6905
98.2743 4464 66.8132
98.3916 4287 65.4752
98.509 4357 66.0076
98.6264 4740 68.8477
98.7438 4938 70.2709
98.8612 5110 71.4843
98.9786 5299 72.7942
99.096 5545 74.4648
99.2134 5574 74.6592
99.3308 5866 76.5898
99.4482 5795 76.1249
99.5656 5574 74.6592
99.6831 5547 74.4782
99.8005 5598 74.8198
99.9179 5358 73.1984
100.035 5134 71.6519
100.153 4916 70.1142
100.27 4541 67.3869
100.388 4593 67.7717
100.505 4922 70.157
100.622 5229 72.3118
100.74 5630 75.0333
100.857 5893 76.7659
100.975 5787 76.0723
101.092 5829 76.3479
101.209 5837 76.4003
101.327 5974 77.2917
101.444 5708 75.5513
101.561 5610 74.8999
101.679 5117 71.5332
101.796 4809 69.347
101.913 4672 68.352
102.03 4688 68.469
102.148 4924 70.1712
102.265 5366 73.253
102.382 5018 70.8378
102.499 5582 74.7128
102.616 5775 75.9934
102.733 6208 78.7909
102.851 6207 78.7845
102.968 6238 78.981
103.085 6086 78.0128
103.202 6102 78.1153
103.319 6020 77.5887
103.436 5877 76.6616
103.552 5575 74.6659
103.669 5060 71.1337
103.786 4760 68.9928
103.903 4834 69.527
104.02 5295 72.7668
104.137 5730 75.6968
104.253 6322 79.511
104.37 6131 78.3007
104.487 6348 79.6743
104.603 6384 79.8999
104.72 6383 79.8937
104.836 6255 79.0886
104.953 6264 79.1454
105.069 5927 76.987
105.186 5584 74.7262
105.302 5245 72.4224
105.418 5079 71.2671
105.535 5072 71.218
105.651 5513 74.2496
105.767 5812 76.2365
105.883 6006 77.4984
105.999 6022 77.6015
106.115 0 1
106.231 0 1
106.347 0 1
106.463 0 1
106.579 0 1
106.694 0 1
106.81 0 1
106.926 0 1
107.041 0 1
107.157 0 1
109.576 0 1
109.692 0 1
109.807 0 1
109.923 0 1
110.039 0 1
110.155 0 1
110.27 0 1
110.386 0 1
110.502 0 1
110.618 4848 69.6276
110.735 5370 73.2803
110.851 5468 73.9459
110.967 5828 76.3413
111.083 5837 76.4003
111.199 6040 77.7174
111.316 6347 79.6681
111.432 6194 78.702
111.549 6161 78.492
111.665 6012 77.5371
111.782 5847 76.4657
111.898 5580 74.6994
112.015 5406 73.5255
112.132 5037 70.9718
112.248 4656 68.2349
112.365 4458 66.7683
112.482 4763 69.0145
112.599 4846 69.6132
112.716 5563 74.5855
112.832 5575 74.6659
112.949 5794 76.1183
113.066 5742 75.776
113.183 5681 75.3724
113.3 5477 74.0068
113.417 5705 75.5315
113.534 5569 74.6257
113.652 5169 71.8958
113.769 4851 69.6491
113.886 4580 67.6757
114.003 4492 67.0224
114.12 4379 66.174
114.238 4653 68.2129
114.355 4924 70.1712
114.472 5017 70.8308
114.589 5102 71.4283
114.707 5207 72.1595
114.824 5325 72.9726
114.942 5401 73.4915
115.059 5520 74.2967
115.176 5475 73.9932
115.294 5390 73.4166
115.411 5311 72.8766
115.529 5134 71.6519
115.646 4692 68.4982
115.764 4290 65.4981
115.881 4011 63.3325
115.999 4097 64.0078
116.116 4739 68.8404
116.234 4969 70.4911
116.351 5234 72.3464
116.469 5397 73.4643
116.586 5531 74.3707
116.704 5595 74.7997
116.821 5468 73.9459
116.939 5385 73.3826
117.056 5326 72.9794
117.174 5342 73.089
117.291 5121 71.5612
117.409 4769 69.0579
117.526 4774 69.0941
117.644 4611 67.9043
117.761 4541 67.3869
117.879 4854 69.6707
117.996 5007 70.7602
118.114 4994 70.6682
118.231 5234 72.3464
118.349 5403 73.5051
118.466 5493 74.1148
118.584 5504 74.1889
118.701 5696 75.4718
118.819 5668 75.2861
118.936 5497 74.1418
119.053 5404 73.5119
119.171 5091 71.3512
119.288 4710 68.6294
119.405 4259 65.261
119.523 3979 63.0793
119.64 4173 64.5988
119.757 4471 66.8655
119.875 4846 69.6132
119.992 5237 72.3671
120.109 5352 73.1574
120.226 5504 74.1889
120.343 5405 73.5187
120.46 5593 74.7864
120.578 5510 74.2294
120.695 5306 72.8423
120.812 5273 72.6154
120.929 5222 72.2634
121.046 5076 71.2461
121.163 4868 69.7711
121.279 4710 68.6294
121.396 4582 67.6905
121.513 4526 67.2756
121.63 4752 68.9348
121.747 4840 69.5701
121.863 5067 71.1829
121.98 5166 71.8749
122.097 5254 72.4845
122.213 5157 71.8123
122.33 5360 73.212
122.446 5392 73.4302
122.563 5481 74.0338
122.679 5332 73.0205
122.795 5139 71.6868
122.912 4983 70.5904
123.028 4702 68.5711
123.144 4121 64.195
123.26 4000 63.2456
123.377 0 1
123.493 0 1
123.609 0 1
123.725 0 1
123.84 0 1
123.956 0 1
124.072 0 1
124.188 0 1
124.303 0 1
124.419 0 1
126.852 0 1
126.968 0 1
127.083 0 1
127.199 0 1
127.315 0 1
127.431 0 1
127.547 0 1
127.663 0 1
127.779 0 1
127.895 0 1
128.011 0 1
128.127 0 1
128.243 0 1
128.359 4571 67.6092
128.476 4385 66.2193
128.592 4490 67.0075
128.708 4945 70.3207
128.825 5563 74.5855
128.941 5881 76.6877
129.058 5899 76.8049
129.174 6045 77.7496
129.291 5946 77.1103
129.408 5988 77.3822
129.524 6056 77.8203
129.641 5979 77.324
129.758 5810 76.2234
129.875 5796 76.1315
129.992 5719 75.6241
130.108 5344 73.1027
130.225 5417 73.6003
130.342 5158 71.8192
130.459 4967 70.4769
130.576 5438 73.7428
130.693 5490 74.0945
130.81 5751 75.8353
130.928 5672 75.3127
131.045 5702 75.5116
131.162 5626 75.0067
131.279 5805 76.1906
131.396 5878 76.6681
131.513 5885 76.7138
131.631 5633 75.0533
131.748 5470 73.9594
131.865 4877 69.8355
131.983 4344 65.909
132.1 4276 65.3911
132.217 4778 69.1231
132.335 5220 72.2496
132.452 5532 74.3774
132.57 5816 76.2627
132.687 5561 74.5721
132.804 6000 77.4597
132.922 5841 76.4264
133.039 5828 76.3413
133.157 5691 75.4387
133.274 5686 75.4056
133.392 5654 75.1931
133.509 5469 73.9527
133.627 5520 74.2967
133.744 5202 72.1249
133.862 4942 70.2994
133.979 5124 71.5821
134.097 5019 70.8449
134.214 5332 73.0205
134.332 5293 72.753
134.449 5440 73.7564
134.567 5515 74.263
134.684 5508 74.2159
134.802 5672 75.3127
134.919 5713 75.5844
135.037 5693 75.452
135.154 5493 74.1148
135.272 5444 73.7835
135.389 5006 70.7531
135.507 4658 68.2495
135.624 4219 64.9538
135.742 4396 66.3023
135.859 4831 69.5054
135.977 5146 71.7356
136.094 5456 73.8647
136.211 5647 75.1465
136.329 5586 74.7395
136.446 5626 75.0067
136.564 5694 75.4586
136.681 5717 75.6108
136.798 5754 75.8551
136.915 5772 75.9737
137.033 5656 75.2064
137.15 5440 73.7564
137.267 5352 73.1574
137.384 5022 70.8661
137.502 5191 72.0486
137.619 4983 70.5904
137.736 5016 70.8237
137.853 5090 71.3442
137.97 5165 71.8679
138.087 5454 73.8512
138.204 5473 73.9797
138.321 5487 74.0743
138.438 5639 75.0933
138.555 5684 75.3923
138.672 5574 74.6592
138.788 5547 74.4782
138.905 5282 72.6774
139.022 5037 70.9718
139.139 4607 67.8749
139.255 4169 64.5678
139.372 4323 65.7495
139.488 4797 69.2604
139.605 5098 71.4003
139.721 5425 73.6546
139.838 5748 75.8156
139.954 5610 74.8999
140.071 5604 74.8599
140.187 5658 75.2197
140.303 5729 75.6902
140.419 5462 73.9053
140.535 5532 74.3774
140.652 5511 74.2361
140.768 0 1
140.884 0 1
141 0 1
141.115 0 1
141.231 0 1
141.347 0 1
141.463 0 1
141.578 0 1
141.694 0 1
144.104 0 1
144.219 0 1
144.335 0 1
144.45 0 1
144.566 0 1
144.682 0 1
144.798 0 1
144.914 0 1
145.03 0 1
145.146 4920 70.1427
145.262 4876 69.8284
145.378 4959 70.4202
145.494 4984 70.5975
145.61 4894 69.9571
145.726 4745 68.884
145.842 4812 69.3686
145.959 4620 67.9706
146.075 4499 67.0746
146.192 4466 66.8281
146.308 4457 66.7608
146.425 4271 65.3529
146.541 4363 66.053
146.658 4455 66.7458
146.774 4506 67.1267
146.891 4558 67.513
147.008 4587 67.7274
147.125 4659 68.2569
147.241 4668 68.3228
147.358 4490 67.0075
147.475 4371 66.1135
147.592 4130 64.2651
147.709 3733 61.0983
147.826 3469 58.8982
147.943 3514 59.279
148.06 3755 61.2781
148.177 4176 64.622
148.294 4420 66.4831
148.411 4572 67.6166
148.528 4487 66.9851
148.645 4510 67.1565
148.762 4440 66.6333
148.88 4513 67.1789
148.997 4338 65.8635
149.114 4690 68.4836
149.231 4405 66.3702
149.349 4483 66.9552
149.466 4387 66.2344
149.583 4241 65.123
149.701 4112 64.1249
149.818 4151 64.4283
149.935 4139 64.3351
150.053 3995 63.206
150.17 4084 63.9062
150.287 4012 63.3404
150.405 4177 64.6297
150.522 4337 65.8559
150.64 4298 65.5591
150.757 4294 65.5286
150.875 4277 65.3988
150.992 4219 64.9538
151.11 4036 63.5295
151.227 3947 62.8252
151.344 3632 60.2661
151.462 3275 57.2276
151.579 3327 57.6802
151.697 3539 59.4895
151.814 3897 62.426
151.932 4098 64.0156
152.049 4358 66.0151
152.167 4451 66.7158
152.284 4478 66.9179
152.402 4332 65.8179
152.519 4545 67.4166
152.636 4398 66.3174
152.754 4410 66.4078
152.871 4346 65.9242
152.989 4280 65.4217
153.106 4279 65.4141
153.223 4385 66.2193
153.341 4146 64.3894
153.458 4153 64.4438
153.575 3984 63.1189
153.693 3985 63.1269
153.81 3936 62.7375
153.927 4188 64.7148
154.044 4074 63.8279
154.162 4206 64.8537
154.279 4301 65.582
154.396 4415 66.4455
154.513 4331 65.8103
154.63 4326 65.7723
154.747 4174 64.6065
154.864 3993 63.1902
154.981 3839 61.9597
155.098 3466 58.8727
155.215 3494 59.1101
155.332 3708 60.8933
155.449 4148 64.405
155.566 4327 65.7799
155.683 4388 66.242
155.8 4481 66.9403
155.917 4405 66.3702
156.033 4427 66.5357
156.15 0 1
156.267 0 1
156.383 0 1
156.5 0 1
156.617 0 1
156.733 0 1
156.85 0 1
156.966 0 1
157.082 0 1
157.199 0 1
157.315 0 1
157.431 0 1
157.547 0 1
157.664 0 1
157.78 0 1
157.896 0 1
158.012 0 1
158.128 0 1
158.244 0 1
158.359 0 1
158.475 0 1
158.591 0 1
158.706 0 1
