
6.15755 0 1
6.2731 0 1
6.3887 0 1
6.50437 0 1
6.62009 0 1
6.73587 0 1
6.8517 0 1
6.96759 0 1
7.08353 0 1
7.19952 0 1
7.31557 0 1
7.43166 0 1
7.54781 0 1
7.664 0 1
7.78024 0 1
7.89653 0 1
8.01286 0 1
8.12924 0 1
8.24567 0 1
8.36213 0 1
8.47864 0 1
8.59519 0 1
8.71178 0 1
8.82841 0 1
8.94508 0 1
9.06179 0 1
9.17853 0 1
9.29531 0 1
9.41212 0 1
9.52897 0 1
9.64584 0 1
9.76276 0 1
9.8797 0 1
9.99667 0 1
10.1137 0 1
10.2307 0 1
10.3478 0 1
10.4648 0 1
10.5819 0 1
10.6991 0 1
10.8162 0 1
10.9334 0 1
11.0506 0 1
11.1678 0 1
11.285 0 1
11.4023 0 1
11.5196 0 1
11.6369 0 1
11.7542 0 1
11.8715 0 1
11.9888 0 1
12.1062 0 1
12.2235 0 1
12.3409 0 1
12.4582 0 1
12.5756 0 1
12.693 0 1
12.8104 0 1
12.9278 0 1
13.0452 0 1
13.1626 0 1
13.28 0 1
13.3974 0 1
13.5149 0 1
13.6323 0 1
13.7497 0 1
13.8671 0 1
13.9845 0 1
14.1019 0 1
14.2193 0 1
14.3367 0 1
14.4541 0 1
14.5714 0 1
14.6888 0 1
14.8062 0 1
14.9235 0 1
15.0408 902 30.0333
15.1581 954 30.8869
15.2755 988 31.4325
15.3927 1087 32.9697
15.51 1026 32.0312
15.6273 1025 32.0156
15.7445 1033 32.1403
15.8617 973 31.1929
15.9789 977 31.257
16.0961 951 30.8383
16.2132 923 30.3809
16.3304 963 31.0322
16.4475 1016 31.8748
16.5646 1070 32.7109
16.6816 1082 32.8938
16.7986 1116 33.4066
16.9156 1127 33.5708
17.0326 1156 34
17.1496 1164 34.1174
17.2665 1117 33.4215
17.3833 1088 32.9848
17.5002 1122 33.4963
17.617 1099 33.1512
17.7338 983 31.3528
17.8505 1043 32.2955
17.9672 934 30.5614
18.0839 1001 31.6386
18.2005 998 31.5911
18.3171 1083 32.909
18.4337 1071 32.7261
18.5502 1116 33.4066
18.6666 1120 33.4664
18.7831 1161 34.0735
18.8994 1144 33.8231
19.0158 1128 33.5857
19.1321 1103 33.2114
19.2483 1064 32.619
19.3645 1001 31.6386
19.4806 878 29.6311
19.5967 860 29.3258
19.7128 829 28.7924
19.8288 731 27.037
19.9447 635 25.1992
20.0606 0 1
20.1764 0 1
20.2922 0 1
20.4079 0 1
20.5236 0 1
20.6392 0 1
20.7548 0 1
20.8702 0 1
23.3078 0 1
23.4233 0 1
23.539 0 1
23.6547 0 1
23.7704 0 1
23.8862 0 1
24.0021 0 1
24.118 0 1
24.234 0 1
24.35 0 1
24.4661 438 20.9284
24.5822 518 22.7596
24.6984 589 24.2693
24.8146 625 25
24.9309 713 26.7021
25.0472 792 28.1425
25.1636 832 28.8444
25.28 947 30.7734
25.3965 953 30.8707
25.513 1106 33.2566
25.6296 1138 33.7343
25.7462 1123 33.5112
25.8628 1131 33.6303
25.9795 1215 34.8569
26.0962 1206 34.7275
26.213 1173 34.2491
26.3298 1090 33.0151
26.4466 1024 32
26.5635 990 31.4643
26.6804 1017 31.8904
26.7973 1038 32.218
26.9143 1043 32.2955
27.0313 1076 32.8024
27.1483 1062 32.5883
27.2653 1167 34.1614
27.3824 1125 33.541
27.4996 1113 33.3617
27.6167 1138 33.7343
27.7339 1100 33.1662
27.8511 1140 33.7639
27.9683 1058 32.5269
28.0855 1016 31.8748
28.2028 1053 32.45
28.3201 992 31.496
28.4374 941 30.6757
28.5547 943 30.7083
28.6721 959 30.9677
28.7894 1023 31.9844
28.9068 1029 32.078
29.0242 1092 33.0454
29.1416 1171 34.2199
29.259 1119 33.4515
29.3764 1134 33.6749
29.4939 1131 33.6303
29.6113 1123 33.5112
29.7288 1078 32.8329
29.8463 967 31.0966
29.9638 994 31.5278
30.0812 935 30.5778
30.1987 930 30.4959
30.3162 1053 32.45
30.4337 1018 31.9061
30.5512 1029 32.078
30.6687 1047 32.3574
30.7862 1049 32.3883
30.9037 1111 33.3317
31.0212 1078 32.8329
31.1387 1045 32.3265
31.2562 1050 32.4037
31.3737 1064 32.619
31.4912 1027 32.0468
31.6087 1025 32.0156
31.7262 925 30.4138
31.8436 954 30.8869
31.9611 938 30.6268
32.0785 900 30
32.1959 967 31.0966
32.3134 964 31.0483
32.4308 1032 32.1248
32.5482 1039 32.2335
32.6655 1103 33.2114
32.7829 1123 33.5112
32.9002 1121 33.4813
33.0176 1110 33.3167
33.1349 1085 32.9393
33.2522 1073 32.7567
33.3694 985 31.3847
33.4867 1019 31.9218
33.6039 930 30.4959
33.7211 906 30.0998
33.8383 932 30.5287
33.9554 948 30.7896
34.0725 936 30.5941
34.1896 978 31.273
34.3067 1068 32.6803
34.4237 1040 32.249
34.5407 1067 32.665
34.6577 1070 32.7109
34.7746 1046 32.3419
34.8915 1068 32.6803
35.0084 1055 32.4808
35.1252 978 31.273
35.242 1008 31.749
35.3587 949 30.8058
35.4755 928 30.4631
35.5921 889 29.8161
35.7088 842 29.0172
35.8254 881 29.6816
35.9419 948 30.7896
36.0584 947 30.7734
36.1749 963 31.0322
36.2913 952 30.8545
36.4077 970 31.1448
36.524 903 30.05
36.6403 910 30.1662
36.7565 832 28.8444
36.8727 828 28.775
36.9889 795 28.1957
37.1049 705 26.5518
37.221 0 1
37.3369 0 1
37.4529 0 1
37.5687 0 1
37.6845 0 1
37.8003 0 1
37.916 0 1
38.0316 0 1
38.1472 0 1
40.5851 0 1
40.7008 0 1
40.8164 0 1
40.9322 0 1
41.048 0 1
41.1639 0 1
41.2798 0 1
41.3958 0 1
41.5118 0 1
41.6279 0 1
41.744 458 21.4009
41.8602 536 23.1517
41.9765 575 23.9792
42.0928 645 25.3969
42.2091 688 26.2298
42.3255 681 26.096
42.4419 612 24.7386
42.5584 575 23.9792
42.675 659 25.671
42.7915 737 27.1477
42.9081 780 27.9285
43.0248 822 28.6705
43.1415 892 29.8664
43.2582 909 30.1496
43.375 853 29.2062
43.4918 869 29.4788
43.6087 919 30.315
43.7256 914 30.2324
43.8425 869 29.4788
43.9595 819 28.6182
44.0765 815 28.5482
44.1935 768 27.7128
44.3106 740 27.2029
44.4277 728 26.9815
44.5448 726 26.9444
44.6619 675 25.9808
44.7791 786 28.0357
44.8963 801 28.3019
45.0136 899 29.9833
45.1308 879 29.6479
45.2481 901 30.0167
45.3654 935 30.5778
45.4827 886 29.7658
45.6001 914 30.2324
45.7174 895 29.9166
45.8348 828 28.775
45.9522 775 27.8388
46.0697 777 27.8747
46.1871 669 25.865
46.3046 782 27.9643
46.422 813 28.5132
46.5395 775 27.8388
46.657 860 29.3258
46.7745 900 30
46.892 897 29.95
47.0096 920 30.3315
47.1271 946 30.7571
47.2446 881 29.6816
47.3622 898 29.9666
47.4797 855 29.2404
47.5973 881 29.6816
47.7149 791 28.1247
47.8324 808 28.4253
47.95 834 28.8791
48.0675 751 27.4044
48.1851 689 26.2488
48.3027 733 27.074
48.4202 780 27.9285
48.5378 776 27.8568
48.6554 875 29.5804
48.7729 908 30.133
48.8904 909 30.1496
49.008 912 30.1993
49.1255 900 30
49.243 864 29.3939
49.3605 787 28.0535
49.478 774 27.8209
49.5955 709 26.6271
49.713 668 25.8457
49.8304 759 27.55
49.9479 801 28.3019
50.0653 775 27.8388
50.1827 786 28.0357
50.3001 827 28.7576
50.4175 845 29.0689
50.5348 879 29.6479
50.6521 891 29.8496
50.7694 861 29.3428
50.8867 866 29.4279
51.004 864 29.3939
51.1212 814 28.5307
51.2384 833 28.8617
51.3556 813 28.5132
51.4727 752 27.4226
51.5899 667 25.8263
51.707 697 26.4008
51.824 767 27.6948
51.9411 772 27.7849
52.0581 809 28.4429
52.175 861 29.3428
52.2919 925 30.4138
52.4088 853 29.2062
52.5257 890 29.8329
52.6425 923 30.3809
52.7593 883 29.7153
52.876 866 29.4279
52.9927 809 28.4429
53.1094 774 27.8209
53.226 741 27.2213
53.3426 694 26.3439
53.4591 627 25.04
53.5756 671 25.9037
53.692 730 27.0185
53.8084 709 26.6271
53.9248 674 25.9615
54.0411 596 24.4131
54.1573 610 24.6982
54.2735 0 1
54.3896 0 1
54.5057 0 1
54.6217 0 1
54.7377 0 1
54.8537 0 1
54.9695 0 1
55.0853 0 1
55.2011 0 1
55.3168 0 1
55.4324 0 1
57.824 0 1
57.9396 0 1
58.0553 0 1
58.1711 0 1
58.2869 0 1
58.4028 0 1
58.5187 0 1
58.6347 0 1
58.7508 0 1
58.8669 0 1
58.983 615 24.7992
59.0992 668 25.8457
59.2155 768 27.7128
59.3318 844 29.0517
59.4482 947 30.7734
59.5646 954 30.8869
59.681 949 30.8058
59.7975 1028 32.0624
59.9141 950 30.8221
60.0306 969 31.1288
60.1473 1002 31.6544
60.2639 963 31.0322
60.3807 958 30.9516
60.4974 930 30.4959
60.6142 960 30.9839
60.731 1037 32.2025
60.8479 1046 32.3419
60.9648 1099 33.1512
61.0818 1090 33.0151
61.1987 1113 33.3617
61.3158 1109 33.3017
61.4328 1108 33.2866
61.5499 1082 32.8938
61.667 955 30.9031
61.7841 913 30.2159
61.9013 852 29.189
62.0185 856 29.2575
62.1357 881 29.6816
62.253 982 31.3369
62.3702 1003 31.6702
62.4875 1061 32.573
62.6049 1067 32.665
62.7222 1096 33.1059
62.8396 1120 33.4664
62.9569 1203 34.6843
63.0743 1128 33.5857
63.1918 1146 33.8526
63.3092 1095 33.0908
63.4267 1123 33.5112
63.5441 1054 32.4654
63.6616 993 31.5119
63.7791 934 30.5614
63.8966 904 30.0666
64.0142 892 29.8664
64.1317 928 30.4631
64.2492 1005 31.7017
64.3668 1030 32.0936
64.4843 1063 32.6037
64.6019 1024 32
64.7195 1128 33.5857
64.837 1081 32.8786
64.9546 1068 32.6803
65.0722 1068 32.6803
65.1898 991 31.4802
65.3074 914 30.2324
65.4249 876 29.5973
65.5425 906 30.0998
65.6601 915 30.249
65.7777 894 29.8998
65.8952 961 31
66.0128 1007 31.7333
66.1304 1068 32.6803
66.2479 1092 33.0454
66.3655 1162 34.0881
66.483 1125 33.541
66.6005 1175 34.2783
66.718 1149 33.8969
66.8355 1188 34.4674
66.953 1148 33.8821
67.0705 1106 33.2566
67.1879 1047 32.3574
67.3054 1007 31.7333
67.4228 943 30.7083
67.5402 833 28.8617
67.6576 939 30.6431
67.7749 933 30.545
67.8923 1036 32.187
68.0096 1123 33.5112
68.1269 1087 32.9697
68.2442 1177 34.3074
68.3614 1166 34.1467
68.4787 1149 33.8969
68.5958 1193 34.5398
68.713 1180 34.3511
68.8302 1144 33.8231
68.9473 1087 32.9697
69.0643 963 31.0322
69.1814 906 30.0998
69.2984 981 31.3209
69.4154 953 30.8707
69.5323 1150 33.9116
69.6492 1168 34.176
69.7661 1207 34.7419
69.8829 1201 34.6554
69.9997 1206 34.7275
70.1165 1214 34.8425
70.2332 1167 34.1614
70.3499 1159 34.0441
70.4665 1153 33.9559
70.5831 1074 32.7719
70.6996 1028 32.0624
70.8161 952 30.8545
70.9326 868 29.4618
71.049 767 27.6948
71.1653 616 24.8193
71.2817 552 23.4947
71.3979 488 22.0907
71.5141 484 22
71.6303 440 20.9762
71.7464 439 20.9523
71.8624 0 1
71.9784 0 1
72.0944 0 1
72.2102 0 1
72.3261 0 1
72.4418 0 1
72.5575 0 1
72.6732 0 1
75.1054 0 1
75.2209 0 1
75.3365 0 1
75.4521 0 1
75.5678 0 1
75.6835 0 1
75.7993 0 1
75.9151 0 1
76.031 0 1
76.147 742 27.2397
76.263 824 28.7054
76.3791 763 27.6225
76.4952 804 28.3549
76.6113 818 28.6007
76.7276 819 28.6182
76.8438 912 30.1993
76.9601 1024 32
77.0765 964 31.0483
77.1929 1129 33.6006
77.3093 1012 31.8119
77.4258 1074 32.7719
77.5423 1091 33.0303
77.6589 992 31.496
77.7755 973 31.1929
77.8921 854 29.2233
78.0088 770 27.7489
78.1256 802 28.3196
78.2423 728 26.9815
78.3591 800 28.2843
78.4759 851 29.1719
78.5928 907 30.1164
78.7097 933 30.545
78.8266 973 31.1929
78.9436 993 31.5119
79.0606 963 31.0322
79.1776 995 31.5436
79.2946 1008 31.749
79.4117 1000 31.6228
79.5288 1026 32.0312
79.6459 953 30.8707
79.7631 961 31
79.8802 955 30.9031
79.9974 905 30.0832
80.1147 822 28.6705
80.2319 741 27.2213
80.3491 740 27.2029
80.4664 803 28.3373
80.5837 903 30.05
80.701 942 30.692
80.8183 993 31.5119
80.9357 1000 31.6228
81.053 999 31.607
81.1704 947 30.7734
81.2877 1044 32.311
81.4051 1009 31.7648
81.5225 855 29.2404
81.6399 844 29.0517
81.7573 722 26.8701
81.8747 715 26.7395
81.9922 699 26.4386
82.1096 792 28.1425
82.227 839 28.9655
82.3444 955 30.9031
82.4619 947 30.7734
82.5793 989 31.4484
82.6967 1043 32.2955
82.8142 1026 32.0312
82.9316 983 31.3528
83.049 1098 33.1361
83.1664 1004 31.686
83.2838 1030 32.0936
83.4012 984 31.3688
83.5186 925 30.4138
83.636 923 30.3809
83.7534 908 30.133
83.8708 824 28.7054
83.9881 760 27.5681
84.1055 832 28.8444
84.2228 857 29.2746
84.3401 919 30.315
84.4575 916 30.2655
84.5747 968 31.1127
84.692 1075 32.7872
84.8093 1062 32.5883
84.9265 1028 32.0624
85.0437 956 30.9192
85.1609 873 29.5466
85.2781 801 28.3019
85.3952 742 27.2397
85.5123 751 27.4044
85.6294 730 27.0185
85.7465 863 29.3769
85.8636 912 30.1993
85.9806 939 30.6431
86.0976 973 31.1929
86.2145 972 31.1769
86.3315 1038 32.218
86.4484 972 31.1769
86.5652 1032 32.1248
86.682 1090 33.0151
86.7988 1110 33.3167
86.9156 1071 32.7261
87.0323 1025 32.0156
87.149 950 30.8221
87.2657 942 30.692
87.3823 762 27.6043
87.4988 721 26.8514
87.6154 694 26.3439
87.7318 728 26.9815
87.8483 708 26.6083
87.9647 761 27.5862
88.081 833 28.8617
88.1973 802 28.3196
88.3136 761 27.5862
88.4298 774 27.8209
88.546 693 26.3249
88.6621 601 24.5153
88.7781 449 21.1896
88.8942 0 1
89.0101 0 1
89.126 0 1
89.2419 0 1
89.3577 0 1
89.4734 0 1
89.5891 0 1
89.7047 0 1
89.8203 0 1
89.9358 0 1
92.3269 0 1
92.4424 0 1
92.558 0 1
92.6736 0 1
92.7893 0 1
92.905 0 1
93.0208 0 1
93.1366 0 1
93.2525 0 1
93.3685 0 1
93.4845 0 1
93.6005 692 26.3059
93.7167 785 28.0179
93.8328 806 28.3901
93.949 803 28.3373
94.0653 911 30.1828
94.1816 848 29.1204
94.2979 840 28.9828
94.4143 769 27.7308
94.5307 772 27.7849
94.6472 714 26.7208
94.7637 760 27.5681
94.8803 803 28.3373
94.9969 927 30.4467
95.1135 906 30.0998
95.2302 975 31.225
95.3469 951 30.8383
95.4637 1004 31.686
95.5805 1055 32.4808
95.6973 1101 33.1813
95.8142 1040 32.249
95.9311 1045 32.3265
96.048 998 31.5911
96.1649 995 31.5436
96.2819 1027 32.0468
96.3989 978 31.273
96.516 953 30.8707
96.633 871 29.5127
96.7501 802 28.3196
96.8673 742 27.2397
96.9844 813 28.5132
97.1016 865 29.4109
97.2188 966 31.0805
97.336 935 30.5778
97.4532 1044 32.311
97.5704 1004 31.686
97.6877 999 31.607
97.805 993 31.5119
97.9223 945 30.7409
98.0396 889 29.8161
98.1569 832 28.8444
98.2743 731 27.037
98.3916 716 26.7582
98.509 821 28.6531
98.6264 900 30
98.7438 936 30.5941
98.8612 959 30.9677
98.9786 1024 32
99.096 981 31.3209
99.2134 1088 32.9848
99.3308 1092 33.0454
99.4482 1100 33.1662
99.5656 1124 33.5261
99.6831 1019 31.9218
99.8005 1035 32.1714
99.9179 977 31.257
100.035 997 31.5753
100.153 931 30.5123
100.27 882 29.6985
100.388 790 28.1069
100.505 864 29.3939
100.622 969 31.1288
100.74 974 31.209
100.857 1061 32.573
100.975 1094 33.0757
101.092 1088 32.9848
101.209 1095 33.0908
101.327 1090 33.0151
101.444 1032 32.1248
101.561 962 31.0161
101.679 902 30.0333
101.796 870 29.4958
101.913 807 28.4077
102.03 771 27.7669
102.148 893 29.8831
102.265 993 31.5119
102.382 1059 32.5423
102.499 1040 32.249
102.616 1117 33.4215
102.733 1120 33.4664
102.851 1105 33.2415
102.968 1133 33.6601
103.085 1126 33.5559
103.202 1158 34.0294
103.319 1133 33.6601
103.436 1030 32.0936
103.552 1030 32.0936
103.669 1000 31.6228
103.786 946 30.7571
103.903 853 29.2062
104.02 926 30.4302
104.137 996 31.5595
104.253 1050 32.4037
104.37 1119 33.4515
104.487 1132 33.6452
104.603 1091 33.0303
104.72 1087 32.9697
104.836 1061 32.573
104.953 974 31.209
105.069 945 30.7409
105.186 847 29.1033
105.302 802 28.3196
105.418 728 26.9815
105.535 745 27.2947
105.651 721 26.8514
105.767 755 27.4773
105.883 708 26.6083
105.999 689 26.2488
106.115 0 1
106.231 0 1
106.347 0 1
106.463 0 1
106.579 0 1
106.694 0 1
106.81 0 1
106.926 0 1
107.041 0 1
107.157 0 1
109.576 0 1
109.692 0 1
109.807 0 1
109.923 0 1
110.039 0 1
110.155 0 1
110.27 0 1
110.386 0 1
110.502 0 1
110.618 446 21.1187
110.735 583 24.1454
110.851 758 27.5318
110.967 721 26.8514
111.083 887 29.7825
111.199 954 30.8869
111.316 956 30.9192
111.432 952 30.8545
111.549 1017 31.8904
111.665 1034 32.1559
111.782 1036 32.187
111.898 1034 32.1559
112.015 995 31.5436
112.132 1046 32.3419
112.248 891 29.8496
112.365 762 27.6043
112.482 818 28.6007
112.599 844 29.0517
112.716 912 30.1993
112.832 985 31.3847
112.949 1067 32.665
113.066 1069 32.6956
113.183 1054 32.4654
113.3 986 31.4006
113.417 1065 32.6343
113.534 979 31.289
113.652 973 31.1929
113.769 848 29.1204
113.886 743 27.258
114.003 781 27.9464
114.12 803 28.3373
114.238 891 29.8496
114.355 922 30.3645
114.472 883 29.7153
114.589 1037 32.2025
114.707 940 30.6594
114.824 1100 33.1662
114.942 995 31.5436
115.059 1059 32.5423
115.176 989 31.4484
115.294 1045 32.3265
115.411 1023 31.9844
115.529 1020 31.9374
115.646 943 30.7083
115.764 908 30.133
115.881 829 28.7924
115.999 825 28.7228
116.116 837 28.931
116.234 878 29.6311
116.351 927 30.4467
116.469 1036 32.187
116.586 1030 32.0936
116.704 1025 32.0156
116.821 1044 32.311
116.939 981 31.3209
117.056 983 31.3528
117.174 969 31.1288
117.291 826 28.7402
117.409 778 27.8927
117.526 793 28.1603
117.644 766 27.6767
117.761 887 29.7825
117.879 922 30.3645
117.996 957 30.9354
118.114 997 31.5753
118.231 1026 32.0312
118.349 997 31.5753
118.466 1007 31.7333
118.584 1032 32.1248
118.701 1016 31.8748
118.819 1050 32.4037
118.936 993 31.5119
119.053 1020 31.9374
119.171 925 30.4138
119.288 948 30.7896
119.405 868 29.4618
119.523 820 28.6356
119.64 817 28.5832
119.757 815 28.5482
119.875 824 28.7054
119.992 922 30.3645
120.109 913 30.2159
120.226 1008 31.749
120.343 966 31.0805
120.46 933 30.545
120.578 967 31.0966
120.695 1000 31.6228
120.812 887 29.7825
120.929 824 28.7054
121.046 806 28.3901
121.163 734 27.0924
121.279 712 26.6833
121.396 754 27.4591
121.513 801 28.3019
121.63 838 28.9482
121.747 843 29.0345
121.863 846 29.0861
121.98 806 28.3901
122.097 844 29.0517
122.213 786 28.0357
122.33 784 28
122.446 783 27.9821
122.563 778 27.8927
122.679 716 26.7582
122.795 699 26.4386
122.912 567 23.8118
123.028 538 23.1948
123.144 473 21.7486
123.26 391 19.7737
123.377 0 1
123.493 0 1
123.609 0 1
123.725 0 1
123.84 0 1
123.956 0 1
124.072 0 1
124.188 0 1
124.303 0 1
124.419 0 1
126.852 0 1
126.968 0 1
127.083 0 1
127.199 0 1
127.315 0 1
127.431 0 1
127.547 0 1
127.663 0 1
127.779 0 1
127.895 0 1
128.011 0 1
128.127 0 1
128.243 0 1
128.359 1050 32.4037
128.476 1043 32.2955
128.592 1047 32.3574
128.708 1013 31.8277
128.825 996 31.5595
128.941 1081 32.8786
129.058 1134 33.6749
129.174 1163 34.1028
129.291 1214 34.8425
129.408 1259 35.4824
129.524 1240 35.2136
129.641 1189 34.4819
129.758 1229 35.0571
129.875 1058 32.5269
129.992 1064 32.619
130.108 954 30.8869
130.225 965 31.0644
130.342 950 30.8221
130.459 976 31.241
130.576 1038 32.218
130.693 1121 33.4813
130.81 1147 33.8674
130.928 1235 35.1426
131.045 1210 34.7851
131.162 1155 33.9853
131.279 1268 35.609
131.396 1228 35.0428
131.513 1262 35.5246
131.631 1233 35.1141
131.748 1239 35.1994
131.865 1124 33.5261
131.983 1084 32.9242
132.1 1055 32.4808
132.217 1037 32.2025
132.335 1013 31.8277
132.452 1048 32.3728
132.57 1082 32.8938
132.687 1196 34.5832
132.804 1191 34.5109
132.922 1265 35.5668
133.039 1278 35.7491
133.157 1302 36.0832
133.274 1290 35.9166
133.392 1135 33.6898
133.509 1147 33.8674
133.627 1033 32.1403
133.744 953 30.8707
133.862 925 30.4138
133.979 910 30.1662
134.097 1036 32.187
134.214 1131 33.6303
134.332 1114 33.3766
134.449 1135 33.6898
134.567 1186 34.4384
134.684 1192 34.5254
134.802 1226 35.0143
134.919 1204 34.6987
135.037 1169 34.1906
135.154 1184 34.4093
135.272 1117 33.4215
135.389 1222 34.9571
135.507 1139 33.7491
135.624 1075 32.7872
135.742 1098 33.1361
135.859 1046 32.3419
135.977 1041 32.2645
136.094 1064 32.619
136.211 1212 34.8138
136.329 1205 34.7131
136.446 1248 35.327
136.564 1200 34.641
136.681 1256 35.4401
136.798 1192 34.5254
136.915 1232 35.0999
137.033 1135 33.6898
137.15 1061 32.573
137.267 999 31.607
137.384 944 30.7246
137.502 978 31.273
137.619 924 30.3974
137.736 1057 32.5115
137.853 1116 33.4066
137.97 1078 32.8329
138.087 1077 32.8177
138.204 1119 33.4515
138.321 1158 34.0294
138.438 1194 34.5543
138.555 1171 34.2199
138.672 1225 35
138.788 1073 32.7567
138.905 1090 33.0151
139.022 1012 31.8119
139.139 979 31.289
139.255 933 30.545
139.372 821 28.6531
139.488 724 26.9072
139.605 730 27.0185
139.721 746 27.313
139.838 798 28.2489
139.954 773 27.8029
140.071 699 26.4386
140.187 688 26.2298
140.303 611 24.7184
140.419 613 24.7588
140.535 591 24.3105
140.652 483 21.9773
140.768 0 1
140.884 0 1
141 0 1
141.115 0 1
141.231 0 1
141.347 0 1
141.463 0 1
141.578 0 1
141.694 0 1
144.104 0 1
144.219 0 1
144.335 0 1
144.45 0 1
144.566 0 1
144.682 0 1
144.798 0 1
144.914 0 1
145.03 0 1
145.146 776 27.8568
145.262 782 27.9643
145.378 844 29.0517
145.494 842 29.0172
145.61 922 30.3645
145.726 805 28.3725
145.842 806 28.3901
145.959 767 27.6948
146.075 749 27.3679
146.192 684 26.1534
146.308 703 26.5141
146.425 682 26.1151
146.541 736 27.1293
146.658 726 26.9444
146.774 762 27.6043
146.891 799 28.2666
147.008 851 29.1719
147.125 790 28.1069
147.241 854 29.2233
147.358 844 29.0517
147.475 817 28.5832
147.592 795 28.1957
147.709 836 28.9137
147.826 812 28.4956
147.943 794 28.178
148.06 763 27.6225
148.177 782 27.9643
148.294 737 27.1477
148.411 727 26.9629
148.528 740 27.2029
148.645 713 26.7021
148.762 784 28
148.88 834 28.8791
148.997 801 28.3019
149.114 762 27.6043
149.231 867 29.4449
149.349 857 29.2746
149.466 837 28.931
149.583 741 27.2213
149.701 709 26.6271
149.818 647 25.4362
149.935 624 24.98
150.053 641 25.318
150.17 667 25.8263
150.287 698 26.4197
150.405 754 27.4591
150.522 798 28.2489
150.64 727 26.9629
150.757 756 27.4955
150.875 800 28.2843
150.992 799 28.2666
151.11 847 29.1033
151.227 812 28.4956
151.344 779 27.9106
151.462 731 27.037
151.579 699 26.4386
151.697 721 26.8514
151.814 750 27.3861
151.932 681 26.096
152.049 704 26.533
152.167 696 26.3818
152.284 735 27.1109
152.402 746 27.313
152.519 796 28.2135
152.636 835 28.8964
152.754 829 28.7924
152.871 780 27.9285
152.989 760 27.5681
153.106 749 27.3679
153.223 700 26.4575
153.341 591 24.3105
153.458 632 25.1396
153.575 645 25.3969
153.693 634 25.1794
153.81 643 25.3574
153.927 647 25.4362
154.044 695 26.3629
154.162 711 26.6646
154.279 709 26.6271
154.396 748 27.3496
154.513 733 27.074
154.63 756 27.4955
154.747 727 26.9629
154.864 764 27.6405
154.981 706 26.5707
155.098 715 26.7395
155.215 697 26.4008
155.332 666 25.807
155.449 691 26.2869
155.566 637 25.2389
155.683 628 25.0599
155.8 663 25.7488
155.917 600 24.4949
156.033 717 26.7769
156.15 0 1
156.267 0 1
156.383 0 1
156.5 0 1
156.617 0 1
156.733 0 1
156.85 0 1
156.966 0 1
157.082 0 1
157.199 0 1
157.315 0 1
157.431 0 1
157.547 0 1
157.664 0 1
157.78 0 1
157.896 0 1
158.012 0 1
158.128 0 1
158.244 0 1
158.359 0 1
158.475 0 1
158.591 0 1
158.706 0 1
