
6.15755 0 1
6.2731 0 1
6.3887 0 1
6.50437 0 1
6.62009 0 1
6.73587 0 1
6.8517 0 1
6.96759 0 1
7.08353 0 1
7.19952 0 1
7.31557 0 1
7.43166 0 1
7.54781 0 1
7.664 0 1
7.78024 0 1
7.89653 0 1
8.01286 0 1
8.12924 0 1
8.24567 0 1
8.36213 0 1
8.47864 0 1
8.59519 0 1
8.71178 0 1
8.82841 0 1
8.94508 0 1
9.06179 0 1
9.17853 0 1
9.29531 0 1
9.41212 0 1
9.52897 0 1
9.64584 0 1
9.76276 0 1
9.8797 0 1
9.99667 0 1
10.1137 0 1
10.2307 0 1
10.3478 0 1
10.4648 0 1
10.5819 0 1
10.6991 0 1
10.8162 0 1
10.9334 0 1
11.0506 0 1
11.1678 0 1
11.285 0 1
11.4023 0 1
11.5196 0 1
11.6369 0 1
11.7542 0 1
11.8715 0 1
11.9888 0 1
12.1062 0 1
12.2235 0 1
12.3409 0 1
12.4582 0 1
12.5756 0 1
12.693 0 1
12.8104 0 1
12.9278 0 1
13.0452 0 1
13.1626 0 1
13.28 0 1
13.3974 0 1
13.5149 0 1
13.6323 0 1
13.7497 0 1
13.8671 0 1
13.9845 0 1
14.1019 0 1
14.2193 0 1
14.3367 0 1
14.4541 0 1
14.5714 0 1
14.6888 0 1
14.8062 0 1
14.9235 0 1
15.0408 1646 40.5709
15.1581 1618 40.2244
15.2755 1598 39.975
15.3927 1596 39.95
15.51 1563 39.5348
15.6273 1566 39.5727
15.7445 1536 39.1918
15.8617 1542 39.2683
15.9789 1599 39.9875
16.0961 1516 38.9358
16.2132 1539 39.2301
16.3304 1540 39.2428
16.4475 1484 38.5227
16.5646 1520 38.9872
16.6816 1589 39.8623
16.7986 1572 39.6485
16.9156 1512 38.8844
17.0326 1478 38.4448
17.1496 1489 38.5876
17.2665 1488 38.5746
17.3833 1477 38.4318
17.5002 1508 38.833
17.617 1413 37.5899
17.7338 1340 36.606
17.8505 1431 37.8286
17.9672 1486 38.5487
18.0839 1574 39.6737
18.2005 1686 41.0609
18.3171 1638 40.4722
18.4337 1653 40.6571
18.5502 1671 40.8779
18.6666 1748 41.8091
18.7831 1715 41.4126
18.8994 1558 39.4715
19.0158 1605 40.0625
19.1321 1569 39.6106
19.2483 1488 38.5746
19.3645 1551 39.3827
19.4806 1501 38.7427
19.5967 1512 38.8844
19.7128 1319 36.318
19.8288 992 31.496
19.9447 431 20.7605
20.0606 0 1
20.1764 0 1
20.2922 0 1
20.4079 0 1
20.5236 0 1
20.6392 0 1
20.7548 0 1
20.8702 0 1
23.3078 0 1
23.4233 0 1
23.539 0 1
23.6547 0 1
23.7704 0 1
23.8862 0 1
24.0021 0 1
24.118 0 1
24.234 0 1
24.35 0 1
24.4661 1600 40
24.5822 1599 39.9875
24.6984 1568 39.598
24.8146 1508 38.833
24.9309 1529 39.1024
25.0472 1521 39
25.1636 1552 39.3954
25.28 1573 39.6611
25.3965 1569 39.6106
25.513 1545 39.3065
25.6296 1665 40.8044
25.7462 1695 41.1704
25.8628 1707 41.3159
25.9795 1677 40.9512
26.0962 1655 40.6817
26.213 1705 41.2916
26.3298 1609 40.1123
26.4466 1512 38.8844
26.5635 1470 38.3406
26.6804 1335 36.5377
26.7973 1366 36.9594
26.9143 1406 37.4967
27.0313 1482 38.4968
27.1483 1605 40.0625
27.2653 1625 40.3113
27.3824 1687 41.0731
27.4996 1666 40.8167
27.6167 1619 40.2368
27.7339 1632 40.398
27.8511 1518 38.9615
27.9683 1556 39.4462
28.0855 1592 39.8999
28.2028 1553 39.4081
28.3201 1469 38.3275
28.4374 1544 39.2938
28.5547 1496 38.6782
28.6721 1467 38.3014
28.7894 1559 39.4842
28.9068 1569 39.6106
29.0242 1495 38.6652
29.1416 1505 38.7943
29.259 1468 38.3145
29.3764 1504 38.7814
29.4939 1518 38.9615
29.6113 1552 39.3954
29.7288 1453 38.1182
29.8463 1509 38.8458
29.9638 1411 37.5633
30.0812 1348 36.7151
30.1987 1285 35.8469
30.3162 1271 35.6511
30.4337 1278 35.7491
30.5512 1413 37.5899
30.6687 1417 37.6431
30.7862 1534 39.1663
30.9037 1527 39.0768
31.0212 1563 39.5348
31.1387 1556 39.4462
31.2562 1610 40.1248
31.3737 1468 38.3145
31.4912 1480 38.4708
31.6087 1543 39.281
31.7262 1446 38.0263
31.8436 1522 39.0128
31.9611 1577 39.7115
32.0785 1444 38
32.1959 1477 38.4318
32.3134 1453 38.1182
32.4308 1522 39.0128
32.5482 1477 38.4318
32.6655 1439 37.9342
32.7829 1438 37.921
32.9002 1461 38.223
33.0176 1449 38.0657
33.1349 1466 38.2884
33.2522 1469 38.3275
33.3694 1480 38.4708
33.4867 1496 38.6782
33.6039 1404 37.47
33.7211 1320 36.3318
33.8383 1232 35.0999
33.9554 1214 34.8425
34.0725 1204 34.6987
34.1896 1278 35.7491
34.3067 1402 37.4433
34.4237 1526 39.064
34.5407 1548 39.3446
34.6577 1547 39.3319
34.7746 1567 39.5854
34.8915 1514 38.9102
35.0084 1505 38.7943
35.1252 1437 37.9078
35.242 1460 38.2099
35.3587 1460 38.2099
35.4755 1448 38.0526
35.5921 1424 37.7359
35.7088 1452 38.1051
35.8254 1375 37.081
35.9419 1438 37.921
36.0584 1438 37.921
36.1749 1429 37.8021
36.2913 1478 38.4448
36.4077 1328 36.4417
36.524 1498 38.704
36.6403 1404 37.47
36.7565 1407 37.51
36.8727 1441 37.9605
36.9889 1441 37.9605
37.1049 1398 37.3898
37.221 0 1
37.3369 0 1
37.4529 0 1
37.5687 0 1
37.6845 0 1
37.8003 0 1
37.916 0 1
38.0316 0 1
38.1472 0 1
40.5851 0 1
40.7008 0 1
40.8164 0 1
40.9322 0 1
41.048 0 1
41.1639 0 1
41.2798 0 1
41.3958 0 1
41.5118 0 1
41.6279 0 1
41.744 1099 33.1512
41.8602 1183 34.3948
41.9765 1144 33.8231
42.0928 1167 34.1614
42.2091 1144 33.8231
42.3255 1190 34.4964
42.4419 1076 32.8024
42.5584 1014 31.8434
42.675 886 29.7658
42.7915 926 30.4302
42.9081 963 31.0322
43.0248 1018 31.9061
43.1415 1057 32.5115
43.2582 1078 32.8329
43.375 1119 33.4515
43.4918 1067 32.665
43.6087 1119 33.4515
43.7256 1075 32.7872
43.8425 1101 33.1813
43.9595 1035 32.1714
44.0765 1093 33.0606
44.1935 970 31.1448
44.3106 1033 32.1403
44.4277 979 31.289
44.5448 963 31.0322
44.6619 1016 31.8748
44.7791 914 30.2324
44.8963 908 30.133
45.0136 834 28.8791
45.1308 883 29.7153
45.2481 823 28.688
45.3654 865 29.4109
45.4827 871 29.5127
45.6001 839 28.9655
45.7174 801 28.3019
45.8348 890 29.8329
45.9522 856 29.2575
46.0697 716 26.7582
46.1871 746 27.313
46.3046 661 25.7099
46.422 677 26.0192
46.5395 705 26.5518
46.657 717 26.7769
46.7745 769 27.7308
46.892 735 27.1109
47.0096 752 27.4226
47.1271 796 28.2135
47.2446 761 27.5862
47.3622 747 27.3313
47.4797 767 27.6948
47.5973 725 26.9258
47.7149 719 26.8142
47.8324 696 26.3818
47.95 663 25.7488
48.0675 665 25.7876
48.1851 691 26.2869
48.3027 641 25.318
48.4202 650 25.4951
48.5378 648 25.4558
48.6554 587 24.2281
48.7729 648 25.4558
48.8904 624 24.98
49.008 602 24.5357
49.1255 607 24.6374
49.243 626 25.02
49.3605 635 25.1992
49.478 583 24.1454
49.5955 580 24.0832
49.713 541 23.2594
49.8304 477 21.8403
49.9479 562 23.7065
50.0653 588 24.2487
50.1827 623 24.96
50.3001 701 26.4764
50.4175 751 27.4044
50.5348 728 26.9815
50.6521 757 27.5136
50.7694 799 28.2666
50.8867 839 28.9655
51.004 844 29.0517
51.1212 869 29.4788
51.2384 859 29.3087
51.3556 858 29.2916
51.4727 856 29.2575
51.5899 877 29.6142
51.707 850 29.1548
51.824 875 29.5804
51.9411 909 30.1496
52.0581 904 30.0666
52.175 884 29.7321
52.2919 911 30.1828
52.4088 961 31
52.5257 906 30.0998
52.6425 1071 32.7261
52.7593 1065 32.6343
52.876 1090 33.0151
52.9927 1103 33.2114
53.1094 1044 32.311
53.226 955 30.9031
53.3426 804 28.3549
53.4591 848 29.1204
53.5756 826 28.7402
53.692 941 30.6757
53.8084 1128 33.5857
53.9248 1132 33.6452
54.0411 1224 34.9857
54.1573 1200 34.641
54.2735 0 1
54.3896 0 1
54.5057 0 1
54.6217 0 1
54.7377 0 1
54.8537 0 1
54.9695 0 1
55.0853 0 1
55.2011 0 1
55.3168 0 1
55.4324 0 1
57.824 0 1
57.9396 0 1
58.0553 0 1
58.1711 0 1
58.2869 0 1
58.4028 0 1
58.5187 0 1
58.6347 0 1
58.7508 0 1
58.8669 0 1
58.983 1298 36.0278
59.0992 1322 36.3593
59.2155 1403 37.4566
59.3318 1431 37.8286
59.4482 1463 38.2492
59.5646 1493 38.6394
59.681 1484 38.5227
59.7975 1427 37.7757
59.9141 1400 37.4166
60.0306 1423 37.7227
60.1473 1342 36.6333
60.2639 1361 36.8917
60.3807 1246 35.2987
60.4974 1253 35.3977
60.6142 1290 35.9166
60.731 1320 36.3318
60.8479 1281 35.7911
60.9648 1314 36.2491
61.0818 1260 35.4965
61.1987 1319 36.318
61.3158 1263 35.5387
61.4328 1348 36.7151
61.5499 1208 34.7563
61.667 1186 34.4384
61.7841 1025 32.0156
61.9013 1015 31.8591
62.0185 945 30.7409
62.1357 1033 32.1403
62.253 1103 33.2114
62.3702 1265 35.5668
62.4875 1288 35.8887
62.6049 1319 36.318
62.7222 1320 36.3318
62.8396 1430 37.8153
62.9569 1448 38.0526
63.0743 1413 37.5899
63.1918 1410 37.55
63.3092 1440 37.9473
63.4267 1517 38.9487
63.5441 1469 38.3275
63.6616 1346 36.6879
63.7791 1339 36.5923
63.8966 1323 36.3731
64.0142 1365 36.9459
64.1317 1354 36.7967
64.2492 1322 36.3593
64.3668 1323 36.3731
64.4843 1407 37.51
64.6019 1327 36.428
64.7195 1442 37.9737
64.837 1336 36.5513
64.9546 1467 38.3014
65.0722 1333 36.5103
65.1898 1287 35.8748
65.3074 1198 34.6121
65.4249 1118 33.4365
65.5425 959 30.9677
65.6601 1002 31.6544
65.7777 1038 32.218
65.8952 1283 35.819
66.0128 1325 36.4005
66.1304 1369 37
66.2479 1496 38.6782
66.3655 1597 39.9625
66.483 1563 39.5348
66.6005 1437 37.9078
66.718 1490 38.6005
66.8355 1495 38.6652
66.953 1507 38.8201
67.0705 1432 37.8418
67.1879 1322 36.3593
67.3054 1276 35.7211
67.4228 1364 36.9324
67.5402 1230 35.0714
67.6576 1260 35.4965
67.7749 1194 34.5543
67.8923 1160 34.0588
68.0096 1260 35.4965
68.1269 1197 34.5977
68.2442 1247 35.3129
68.3614 1257 35.4542
68.4787 1240 35.2136
68.5958 1250 35.3553
68.713 1205 34.7131
68.8302 1154 33.9706
68.9473 1110 33.3167
69.0643 958 30.9516
69.1814 848 29.1204
69.2984 962 31.0161
69.4154 919 30.315
69.5323 1128 33.5857
69.6492 1160 34.0588
69.7661 1239 35.1994
69.8829 1408 37.5233
69.9997 1421 37.6962
70.1165 1371 37.027
70.2332 1420 37.6829
70.3499 1458 38.1838
70.4665 1421 37.6962
70.5831 1378 37.1214
70.6996 1332 36.4966
70.8161 1313 36.2353
70.9326 1278 35.7491
71.049 1206 34.7275
71.1653 1223 34.9714
71.2817 1189 34.4819
71.3979 1231 35.0856
71.5141 1194 34.5543
71.6303 1143 33.8083
71.7464 1113 33.3617
71.8624 0 1
71.9784 0 1
72.0944 0 1
72.2102 0 1
72.3261 0 1
72.4418 0 1
72.5575 0 1
72.6732 0 1
75.1054 0 1
75.2209 0 1
75.3365 0 1
75.4521 0 1
75.5678 0 1
75.6835 0 1
75.7993 0 1
75.9151 0 1
76.031 0 1
76.147 1220 34.9285
76.263 1272 35.6651
76.3791 1274 35.6931
76.4952 1220 34.9285
76.6113 1193 34.5398
76.7276 1255 35.426
76.8438 1217 34.8855
76.9601 1158 34.0294
77.0765 1267 35.5949
77.1929 1334 36.524
77.3093 1343 36.647
77.4258 1310 36.1939
77.5423 1316 36.2767
77.6589 1283 35.819
77.7755 1303 36.0971
77.8921 1101 33.1813
78.0088 923 30.3809
78.1256 951 30.8383
78.2423 835 28.8964
78.3591 819 28.6182
78.4759 962 31.0161
78.5928 1030 32.0936
78.7097 1188 34.4674
78.8266 1225 35
78.9436 1424 37.7359
79.0606 1393 37.3229
79.1776 1396 37.3631
79.2946 1411 37.5633
79.4117 1363 36.9188
79.5288 1325 36.4005
79.6459 1376 37.0945
79.7631 1316 36.2767
79.8802 1274 35.6931
79.9974 1162 34.0881
80.1147 1142 33.7935
80.2319 1014 31.8434
80.3491 1070 32.7109
80.4664 1081 32.8786
80.5837 1120 33.4664
80.701 1078 32.8329
80.8183 1016 31.8748
80.9357 1142 33.7935
81.053 1154 33.9706
81.1704 1109 33.3017
81.2877 1081 32.8786
81.4051 1098 33.1361
81.5225 1041 32.2645
81.6399 862 29.3598
81.7573 810 28.4605
81.8747 759 27.55
81.9922 785 28.0179
82.1096 842 29.0172
82.227 989 31.4484
82.3444 1060 32.5576
82.4619 1113 33.3617
82.5793 1126 33.5559
82.6967 1166 34.1467
82.8142 1160 34.0588
82.9316 1186 34.4384
83.049 1166 34.1467
83.1664 1080 32.8634
83.2838 1130 33.6155
83.4012 1081 32.8786
83.5186 1024 32
83.636 932 30.5287
83.7534 938 30.6268
83.8708 900 30
83.9881 944 30.7246
84.1055 903 30.05
84.2228 938 30.6268
84.3401 935 30.5778
84.4575 1021 31.9531
84.5747 1023 31.9844
84.692 1067 32.665
84.8093 1031 32.1092
84.9265 1159 34.0441
85.0437 1024 32
85.1609 851 29.1719
85.2781 794 28.178
85.3952 729 27
85.5123 720 26.8328
85.6294 771 27.7669
85.7465 857 29.2746
85.8636 1005 31.7017
85.9806 1118 33.4365
86.0976 1142 33.7935
86.2145 1216 34.8712
86.3315 1257 35.4542
86.4484 1239 35.1994
86.5652 1277 35.7351
86.682 1298 36.0278
86.7988 1240 35.2136
86.9156 1239 35.1994
87.0323 1256 35.4401
87.149 1230 35.0714
87.2657 1140 33.7639
87.3823 1055 32.4808
87.4988 1127 33.5708
87.6154 1114 33.3766
87.7318 1110 33.3167
87.8483 1143 33.8083
87.9647 1194 34.5543
88.081 1195 34.5688
88.1973 1318 36.3043
88.3136 1340 36.606
88.4298 1275 35.7071
88.546 1234 35.1283
88.6621 1113 33.3617
88.7781 982 31.3369
88.8942 0 1
89.0101 0 1
89.126 0 1
89.2419 0 1
89.3577 0 1
89.4734 0 1
89.5891 0 1
89.7047 0 1
89.8203 0 1
89.9358 0 1
92.3269 0 1
92.4424 0 1
92.558 0 1
92.6736 0 1
92.7893 0 1
92.905 0 1
93.0208 0 1
93.1366 0 1
93.2525 0 1
93.3685 0 1
93.4845 0 1
93.6005 1278 35.7491
93.7167 1294 35.9722
93.8328 1290 35.9166
93.949 1239 35.1994
94.0653 1185 34.4238
94.1816 1098 33.1361
94.2979 1007 31.7333
94.4143 988 31.4325
94.5307 946 30.7571
94.6472 920 30.3315
94.7637 944 30.7246
94.8803 1131 33.6303
94.9969 1159 34.0441
95.1135 1277 35.7351
95.2302 1258 35.4683
95.3469 1439 37.9342
95.4637 1393 37.3229
95.5805 1424 37.7359
95.6973 1550 39.37
95.8142 1478 38.4448
95.9311 1502 38.7556
96.048 1400 37.4166
96.1649 1338 36.5787
96.2819 1304 36.1109
96.3989 1338 36.5787
96.516 1223 34.9714
96.633 1220 34.9285
96.7501 1186 34.4384
96.8673 1158 34.0294
96.9844 1303 36.0971
97.1016 1267 35.5949
97.2188 1250 35.3553
97.336 1356 36.8239
97.4532 1350 36.7423
97.5704 1290 35.9166
97.6877 1313 36.2353
97.805 1194 34.5543
97.9223 990 31.4643
98.0396 947 30.7734
98.1569 911 30.1828
98.2743 919 30.315
98.3916 994 31.5278
98.509 1112 33.3467
98.6264 1196 34.5832
98.7438 1267 35.5949
98.8612 1317 36.2905
98.9786 1450 38.0789
99.096 1496 38.6782
99.2134 1465 38.2753
99.3308 1449 38.0657
99.4482 1485 38.5357
99.5656 1413 37.5899
99.6831 1465 38.2753
99.8005 1356 36.8239
99.9179 1306 36.1386
100.035 1256 35.4401
100.153 1269 35.623
100.27 1236 35.1568
100.388 1152 33.9411
100.505 1252 35.3836
100.622 1347 36.7015
100.74 1287 35.8748
100.857 1325 36.4005
100.975 1382 37.1753
101.092 1425 37.7492
101.209 1250 35.3553
101.327 1245 35.2846
101.444 1191 34.5109
101.561 985 31.3847
101.679 1027 32.0468
101.796 928 30.4631
101.913 988 31.4325
102.03 1108 33.2866
102.148 1188 34.4674
102.265 1303 36.0971
102.382 1427 37.7757
102.499 1446 38.0263
102.616 1579 39.7366
102.733 1587 39.8372
102.851 1583 39.7869
102.968 1546 39.3192
103.085 1535 39.1791
103.202 1491 38.6135
103.319 1415 37.6165
103.436 1396 37.3631
103.552 1358 36.8511
103.669 1372 37.0405
103.786 1317 36.2905
103.903 1329 36.4555
104.02 1362 36.9053
104.137 1359 36.8646
104.253 1458 38.1838
104.37 1497 38.6911
104.487 1466 38.2884
104.603 1427 37.7757
104.72 1376 37.0945
104.836 1320 36.3318
104.953 1164 34.1174
105.069 1125 33.541
105.186 1099 33.1512
105.302 1061 32.573
105.418 1136 33.7046
105.535 1274 35.6931
105.651 1402 37.4433
105.767 1501 38.7427
105.883 1622 40.2741
105.999 1658 40.7185
106.115 0 1
106.231 0 1
106.347 0 1
106.463 0 1
106.579 0 1
106.694 0 1
106.81 0 1
106.926 0 1
107.041 0 1
107.157 0 1
109.576 0 1
109.692 0 1
109.807 0 1
109.923 0 1
110.039 0 1
110.155 0 1
110.27 0 1
110.386 0 1
110.502 0 1
110.618 1211 34.7994
110.735 1344 36.6606
110.851 1540 39.2428
110.967 1542 39.2683
111.083 1530 39.1152
111.199 1592 39.8999
111.316 1601 40.0125
111.432 1586 39.8246
111.549 1648 40.5956
111.665 1550 39.37
111.782 1554 39.4208
111.898 1425 37.7492
112.015 1343 36.647
112.132 1369 37
112.248 1277 35.7351
112.365 1249 35.3412
112.482 1277 35.7351
112.599 1363 36.9188
112.716 1348 36.7151
112.832 1418 37.6563
112.949 1356 36.8239
113.066 1389 37.2693
113.183 1320 36.3318
113.3 1276 35.7211
113.417 1232 35.0999
113.534 1032 32.1248
113.652 1032 32.1248
113.769 1017 31.8904
113.886 976 31.241
114.003 1032 32.1248
114.12 1201 34.6554
114.238 1311 36.2077
114.355 1379 37.1349
114.472 1441 37.9605
114.589 1476 38.4187
114.707 1490 38.6005
114.824 1527 39.0768
114.942 1516 38.9358
115.059 1584 39.7995
115.176 1531 39.128
115.294 1535 39.1791
115.411 1458 38.1838
115.529 1444 38
115.646 1349 36.7287
115.764 1260 35.4965
115.881 1256 35.4401
115.999 1226 35.0143
116.116 1333 36.5103
116.234 1356 36.8239
116.351 1289 35.9026
116.469 1470 38.3406
116.586 1347 36.7015
116.704 1419 37.6696
116.821 1408 37.5233
116.939 1267 35.5949
117.056 1198 34.6121
117.174 1094 33.0757
117.291 1121 33.4813
117.409 1048 32.3728
117.526 1052 32.4345
117.644 1202 34.6699
117.761 1278 35.7491
117.879 1468 38.3145
117.996 1421 37.6962
118.114 1580 39.7492
118.231 1579 39.7366
118.349 1614 40.1746
118.466 1547 39.3319
118.584 1609 40.1123
118.701 1475 38.4057
118.819 1556 39.4462
118.936 1562 39.5221
119.053 1467 38.3014
119.171 1418 37.6563
119.288 1401 37.4299
119.405 1357 36.8375
119.523 1355 36.8103
119.64 1281 35.7911
119.757 1298 36.0278
119.875 1414 37.6032
119.992 1334 36.524
120.109 1400 37.4166
120.226 1424 37.7359
120.343 1386 37.229
120.46 1331 36.4829
120.578 1268 35.609
120.695 1226 35.0143
120.812 1172 34.2345
120.929 1110 33.3167
121.046 1075 32.7872
121.163 1083 32.909
121.279 1182 34.3802
121.396 1269 35.623
121.513 1358 36.8511
121.63 1456 38.1576
121.747 1556 39.4462
121.863 1591 39.8873
121.98 1507 38.8201
122.097 1563 39.5348
122.213 1601 40.0125
122.33 1531 39.128
122.446 1589 39.8623
122.563 1500 38.7298
122.679 1425 37.7492
122.795 1482 38.4968
122.912 1504 38.7814
123.028 1326 36.4143
123.144 1290 35.9166
123.26 1256 35.4401
123.377 0 1
123.493 0 1
123.609 0 1
123.725 0 1
123.84 0 1
123.956 0 1
124.072 0 1
124.188 0 1
124.303 0 1
124.419 0 1
126.852 0 1
126.968 0 1
127.083 0 1
127.199 0 1
127.315 0 1
127.431 0 1
127.547 0 1
127.663 0 1
127.779 0 1
127.895 0 1
128.011 0 1
128.127 0 1
128.243 0 1
128.359 1511 38.8716
128.476 1417 37.6431
128.592 1421 37.6962
128.708 1405 37.4833
128.825 1501 38.7427
128.941 1530 39.1152
129.058 1567 39.5854
129.174 1579 39.7366
129.291 1515 38.923
129.408 1494 38.6523
129.524 1435 37.8814
129.641 1332 36.4966
129.758 1253 35.3977
129.875 1239 35.1994
129.992 1189 34.4819
130.108 1164 34.1174
130.225 1319 36.318
130.342 1418 37.6563
130.459 1574 39.6737
130.576 1727 41.5572
130.693 1566 39.5727
130.81 1622 40.2741
130.928 1688 41.0853
131.045 1718 41.4488
131.162 1702 41.2553
131.279 1698 41.2068
131.396 1678 40.9634
131.513 1740 41.7133
131.631 1658 40.7185
131.748 1551 39.3827
131.865 1522 39.0128
131.983 1458 38.1838
132.1 1408 37.5233
132.217 1400 37.4166
132.335 1554 39.4208
132.452 1578 39.724
132.57 1572 39.6485
132.687 1533 39.1535
132.804 1563 39.5348
132.922 1605 40.0625
133.039 1473 38.3797
133.157 1392 37.3095
133.274 1339 36.5923
133.392 1313 36.2353
133.509 1256 35.4401
133.627 1264 35.5528
133.744 1302 36.0832
133.862 1560 39.4968
133.979 1551 39.3827
134.097 1519 38.9744
134.214 1556 39.4462
134.332 1566 39.5727
134.449 1709 41.3401
134.567 1647 40.5832
134.684 1663 40.7799
134.802 1662 40.7676
134.919 1689 41.0974
135.037 1679 40.9756
135.154 1659 40.7308
135.272 1674 40.9145
135.389 1563 39.5348
135.507 1521 39
135.624 1438 37.921
135.742 1482 38.4968
135.859 1450 38.0789
135.977 1632 40.398
136.094 1663 40.7799
136.211 1621 40.2616
136.329 1617 40.2119
136.446 1636 40.4475
136.564 1574 39.6737
136.681 1488 38.5746
136.798 1418 37.6563
136.915 1323 36.3731
137.033 1280 35.7771
137.15 1251 35.3695
137.267 1241 35.2278
137.384 1328 36.4417
137.502 1401 37.4299
137.619 1516 38.9358
137.736 1474 38.3927
137.853 1551 39.3827
137.97 1507 38.8201
138.087 1582 39.7744
138.204 1616 40.1995
138.321 1633 40.4104
138.438 1699 41.2189
138.555 1602 40.025
138.672 1728 41.5692
138.788 1635 40.4351
138.905 1673 40.9023
139.022 1546 39.3192
139.139 1422 37.7094
139.255 1410 37.55
139.372 1453 38.1182
139.488 1555 39.4335
139.605 1560 39.4968
139.721 1586 39.8246
139.838 1588 39.8497
139.954 1624 40.2989
140.071 1561 39.5095
140.187 1599 39.9875
140.303 1453 38.1182
140.419 1348 36.7151
140.535 1341 36.6197
140.652 1325 36.4005
140.768 0 1
140.884 0 1
141 0 1
141.115 0 1
141.231 0 1
141.347 0 1
141.463 0 1
141.578 0 1
141.694 0 1
144.104 0 1
144.219 0 1
144.335 0 1
144.45 0 1
144.566 0 1
144.682 0 1
144.798 0 1
144.914 0 1
145.03 0 1
145.146 1067 32.665
145.262 1162 34.0881
145.378 1179 34.3366
145.494 1169 34.1906
145.61 1079 32.8481
145.726 978 31.273
145.842 1063 32.6037
145.959 1006 31.7175
146.075 1038 32.218
146.192 1082 32.8938
146.308 1062 32.5883
146.425 1190 34.4964
146.541 1157 34.0147
146.658 1233 35.1141
146.774 1221 34.9428
146.891 1198 34.6121
147.008 1186 34.4384
147.125 1263 35.5387
147.241 1263 35.5387
147.358 1333 36.5103
147.475 1294 35.9722
147.592 1257 35.4542
147.709 1319 36.318
147.826 1278 35.7491
147.943 1200 34.641
148.06 1185 34.4238
148.177 1150 33.9116
148.294 1135 33.6898
148.411 1141 33.7787
148.528 1247 35.3129
148.645 1287 35.8748
148.762 1240 35.2136
148.88 1246 35.2987
148.997 1232 35.0999
149.114 1258 35.4683
149.231 1229 35.0571
149.349 1151 33.9264
149.466 1133 33.6601
149.583 1067 32.665
149.701 1058 32.5269
149.818 1110 33.3167
149.935 1058 32.5269
150.053 1133 33.6601
150.17 1149 33.8969
150.287 1171 34.2199
150.405 1183 34.3948
150.522 1193 34.5398
150.64 1278 35.7491
150.757 1284 35.8329
150.875 1318 36.3043
150.992 1318 36.3043
151.11 1348 36.7151
151.227 1309 36.1801
151.344 1373 37.054
151.462 1349 36.7287
151.579 1367 36.973
151.697 1280 35.7771
151.814 1244 35.2704
151.932 1171 34.2199
152.049 1120 33.4664
152.167 1243 35.2562
152.284 1296 36
152.402 1320 36.3318
152.519 1246 35.2987
152.636 1243 35.2562
152.754 1234 35.1283
152.871 1262 35.5246
152.989 1183 34.3948
153.106 1170 34.2053
153.223 1150 33.9116
153.341 1105 33.2415
153.458 1149 33.8969
153.575 1079 32.8481
153.693 1142 33.7935
153.81 1253 35.3977
153.927 1253 35.3977
154.044 1294 35.9722
154.162 1342 36.6333
154.279 1348 36.7151
154.396 1462 38.2361
154.513 1358 36.8511
154.63 1402 37.4433
154.747 1489 38.5876
154.864 1417 37.6431
154.981 1428 37.7889
155.098 1349 36.7287
155.215 1392 37.3095
155.332 1332 36.4966
155.449 1264 35.5528
155.566 1306 36.1386
155.683 1348 36.7151
155.8 1485 38.5357
155.917 1440 37.9473
156.033 1404 37.47
156.15 0 1
156.267 0 1
156.383 0 1
156.5 0 1
156.617 0 1
156.733 0 1
156.85 0 1
156.966 0 1
157.082 0 1
157.199 0 1
157.315 0 1
157.431 0 1
157.547 0 1
157.664 0 1
157.78 0 1
157.896 0 1
158.012 0 1
158.128 0 1
158.244 0 1
158.359 0 1
158.475 0 1
158.591 0 1
158.706 0 1
