
6.15755 0 1
6.2731 0 1
6.3887 0 1
6.50437 0 1
6.62009 0 1
6.73587 0 1
6.8517 0 1
6.96759 0 1
7.08353 0 1
7.19952 0 1
7.31557 0 1
7.43166 0 1
7.54781 0 1
7.664 0 1
7.78024 0 1
7.89653 0 1
8.01286 0 1
8.12924 0 1
8.24567 0 1
8.36213 0 1
8.47864 0 1
8.59519 0 1
8.71178 0 1
8.82841 0 1
8.94508 0 1
9.06179 0 1
9.17853 0 1
9.29531 0 1
9.41212 0 1
9.52897 0 1
9.64584 0 1
9.76276 0 1
9.8797 0 1
9.99667 0 1
10.1137 0 1
10.2307 0 1
10.3478 0 1
10.4648 0 1
10.5819 0 1
10.6991 0 1
10.8162 0 1
10.9334 0 1
11.0506 0 1
11.1678 0 1
11.285 0 1
11.4023 0 1
11.5196 0 1
11.6369 0 1
11.7542 0 1
11.8715 0 1
11.9888 0 1
12.1062 0 1
12.2235 0 1
12.3409 0 1
12.4582 0 1
12.5756 0 1
12.693 0 1
12.8104 0 1
12.9278 0 1
13.0452 0 1
13.1626 0 1
13.28 0 1
13.3974 0 1
13.5149 0 1
13.6323 0 1
13.7497 0 1
13.8671 0 1
13.9845 0 1
14.1019 0 1
14.2193 0 1
14.3367 0 1
14.4541 0 1
14.5714 0 1
14.6888 0 1
14.8062 0 1
14.9235 0 1
15.0408 1471 38.3536
15.1581 1480 38.4708
15.2755 1575 39.6863
15.3927 1665 40.8044
15.51 1540 39.2428
15.6273 1592 39.8999
15.7445 1641 40.5093
15.8617 1519 38.9744
15.9789 1608 40.0999
16.0961 1623 40.2865
16.2132 1551 39.3827
16.3304 1595 39.9375
16.4475 1630 40.3733
16.5646 1680 40.9878
16.6816 1748 41.8091
16.7986 1806 42.4971
16.9156 1855 43.0697
17.0326 1883 43.3935
17.1496 1825 42.72
17.2665 1778 42.1663
17.3833 1867 43.2088
17.5002 1760 41.9524
17.617 1761 41.9643
17.7338 1561 39.5095
17.8505 1583 39.7869
17.9672 1565 39.5601
18.0839 1640 40.4969
18.2005 1689 41.0974
18.3171 1706 41.3038
18.4337 1671 40.8779
18.5502 1794 42.3556
18.6666 1802 42.45
18.7831 1810 42.5441
18.8994 1847 42.9767
19.0158 1874 43.2897
19.1321 1751 41.845
19.2483 1705 41.2916
19.3645 1615 40.1871
19.4806 1530 39.1152
19.5967 1424 37.7359
19.7128 1299 36.0416
19.8288 1244 35.2704
19.9447 1199 34.6266
20.0606 0 1
20.1764 0 1
20.2922 0 1
20.4079 0 1
20.5236 0 1
20.6392 0 1
20.7548 0 1
20.8702 0 1
23.3078 0 1
23.4233 0 1
23.539 0 1
23.6547 0 1
23.7704 0 1
23.8862 0 1
24.0021 0 1
24.118 0 1
24.234 0 1
24.35 0 1
24.4661 771 27.7669
24.5822 901 30.0167
24.6984 1011 31.7962
24.8146 1137 33.7194
24.9309 1254 35.4119
25.0472 1326 36.4143
25.1636 1449 38.0657
25.28 1610 40.1248
25.3965 1757 41.9166
25.513 1860 43.1277
25.6296 1860 43.1277
25.7462 1976 44.4522
25.8628 1955 44.2154
25.9795 2050 45.2769
26.0962 1917 43.7836
26.213 1915 43.7607
26.3298 1776 42.1426
26.4466 1710 41.3521
26.5635 1715 41.4126
26.6804 1714 41.4005
26.7973 1742 41.7373
26.9143 1777 42.1545
27.0313 1728 41.5692
27.1483 1835 42.8369
27.2653 1854 43.0581
27.3824 1956 44.2267
27.4996 1805 42.4853
27.6167 1859 43.1161
27.7339 1798 42.4028
27.8511 1890 43.4741
27.9683 1740 41.7133
28.0855 1716 41.4246
28.2028 1721 41.4849
28.3201 1593 39.9124
28.4374 1635 40.4351
28.5547 1627 40.3361
28.6721 1695 41.1704
28.7894 1733 41.6293
28.9068 1848 42.9884
29.0242 1985 44.5533
29.1416 1956 44.2267
29.259 1855 43.0697
29.3764 1905 43.6463
29.4939 1936 44
29.6113 1776 42.1426
29.7288 1809 42.5323
29.8463 1633 40.4104
29.9638 1666 40.8167
30.0812 1605 40.0625
30.1987 1630 40.3733
30.3162 1653 40.6571
30.4337 1609 40.1123
30.5512 1670 40.8656
30.6687 1746 41.7852
30.7862 1700 41.2311
30.9037 1736 41.6653
31.0212 1862 43.1509
31.1387 1842 42.9185
31.2562 1785 42.2493
31.3737 1850 43.0116
31.4912 1742 41.7373
31.6087 1672 40.8901
31.7262 1679 40.9756
31.8436 1564 39.5474
31.9611 1581 39.7618
32.0785 1570 39.6232
32.1959 1623 40.2865
32.3134 1661 40.7554
32.4308 1775 42.1307
32.5482 1823 42.6966
32.6655 1865 43.1856
32.7829 1873 43.2782
32.9002 1796 42.3792
33.0176 1941 44.0568
33.1349 1850 43.0116
33.2522 1798 42.4028
33.3694 1741 41.7253
33.4867 1632 40.398
33.6039 1604 40.05
33.7211 1451 38.092
33.8383 1570 39.6232
33.9554 1574 39.6737
34.0725 1592 39.8999
34.1896 1653 40.6571
34.3067 1671 40.8779
34.4237 1716 41.4246
34.5407 1744 41.7612
34.6577 1722 41.497
34.7746 1748 41.8091
34.8915 1750 41.833
35.0084 1698 41.2068
35.1252 1679 40.9756
35.242 1707 41.3159
35.3587 1563 39.5348
35.4755 1582 39.7744
35.5921 1511 38.8716
35.7088 1435 37.8814
35.8254 1466 38.2884
35.9419 1589 39.8623
36.0584 1618 40.2244
36.1749 1626 40.3237
36.2913 1721 41.4849
36.4077 1572 39.6485
36.524 1612 40.1497
36.6403 1567 39.5854
36.7565 1502 38.7556
36.8727 1405 37.4833
36.9889 1315 36.2629
37.1049 1137 33.7194
37.221 0 1
37.3369 0 1
37.4529 0 1
37.5687 0 1
37.6845 0 1
37.8003 0 1
37.916 0 1
38.0316 0 1
38.1472 0 1
40.5851 0 1
40.7008 0 1
40.8164 0 1
40.9322 0 1
41.048 0 1
41.1639 0 1
41.2798 0 1
41.3958 0 1
41.5118 0 1
41.6279 0 1
41.744 866 29.4279
41.8602 953 30.8707
41.9765 1031 32.1092
42.0928 1036 32.187
42.2091 1027 32.0468
42.3255 1017 31.8904
42.4419 1047 32.3574
42.5584 1078 32.8329
42.675 1081 32.8786
42.7915 1216 34.8712
42.9081 1302 36.0832
43.0248 1312 36.2215
43.1415 1373 37.054
43.2582 1373 37.054
43.375 1465 38.2753
43.4918 1421 37.6962
43.6087 1474 38.3927
43.7256 1371 37.027
43.8425 1373 37.054
43.9595 1325 36.4005
44.0765 1400 37.4166
44.1935 1276 35.7211
44.3106 1288 35.8887
44.4277 1236 35.1568
44.5448 1157 34.0147
44.6619 1239 35.1994
44.7791 1263 35.5387
44.8963 1382 37.1753
45.0136 1430 37.8153
45.1308 1492 38.6264
45.2481 1456 38.1576
45.3654 1445 38.0132
45.4827 1525 39.0512
45.6001 1467 38.3014
45.7174 1424 37.7359
45.8348 1342 36.6333
45.9522 1227 35.0286
46.0697 1230 35.0714
46.1871 1221 34.9428
46.3046 1202 34.6699
46.422 1270 35.6371
46.5395 1335 36.5377
46.657 1427 37.7757
46.7745 1420 37.6829
46.892 1472 38.3667
47.0096 1500 38.7298
47.1271 1458 38.1838
47.2446 1440 37.9473
47.3622 1525 39.0512
47.4797 1408 37.5233
47.5973 1431 37.8286
47.7149 1370 37.0135
47.8324 1296 36
47.95 1271 35.6511
48.0675 1281 35.7911
48.1851 1226 35.0143
48.3027 1296 36
48.4202 1434 37.8682
48.5378 1415 37.6165
48.6554 1544 39.2938
48.7729 1527 39.0768
48.8904 1493 38.6394
49.008 1535 39.1791
49.1255 1475 38.4057
49.243 1474 38.3927
49.3605 1298 36.0278
49.478 1226 35.0143
49.5955 1202 34.6699
49.713 1152 33.9411
49.8304 1233 35.1141
49.9479 1269 35.623
50.0653 1321 36.3456
50.1827 1352 36.7696
50.3001 1444 38
50.4175 1419 37.6696
50.5348 1490 38.6005
50.6521 1483 38.5097
50.7694 1499 38.7169
50.8867 1483 38.5097
51.004 1470 38.3406
51.1212 1480 38.4708
51.2384 1450 38.0789
51.3556 1475 38.4057
51.4727 1388 37.2559
51.5899 1350 36.7423
51.707 1323 36.3731
51.824 1397 37.3765
51.9411 1540 39.2428
52.0581 1634 40.4228
52.175 1697 41.1947
52.2919 1781 42.2019
52.4088 1811 42.5558
52.5257 1772 42.0951
52.6425 1836 42.8486
52.7593 1909 43.6921
52.876 1841 42.9069
52.9927 1740 41.7133
53.1094 1562 39.5221
53.226 1545 39.3065
53.3426 1565 39.5601
53.4591 1528 39.0896
53.5756 1592 39.8999
53.692 1515 38.923
53.8084 1532 39.1408
53.9248 1540 39.2428
54.0411 1481 38.4838
54.1573 1377 37.108
54.2735 0 1
54.3896 0 1
54.5057 0 1
54.6217 0 1
54.7377 0 1
54.8537 0 1
54.9695 0 1
55.0853 0 1
55.2011 0 1
55.3168 0 1
55.4324 0 1
57.824 0 1
57.9396 0 1
58.0553 0 1
58.1711 0 1
58.2869 0 1
58.4028 0 1
58.5187 0 1
58.6347 0 1
58.7508 0 1
58.8669 0 1
58.983 1186 34.4384
59.0992 1295 35.9861
59.2155 1377 37.108
59.3318 1475 38.4057
59.4482 1675 40.9268
59.5646 1656 40.694
59.681 1655 40.6817
59.7975 1760 41.9524
59.9141 1675 40.9268
60.0306 1659 40.7308
60.1473 1665 40.8044
60.2639 1686 41.0609
60.3807 1605 40.0625
60.4974 1602 40.025
60.6142 1694 41.1582
60.731 1770 42.0714
60.8479 1848 42.9884
60.9648 1939 44.0341
61.0818 1893 43.5086
61.1987 1859 43.1161
61.3158 1807 42.5088
61.4328 1851 43.0232
61.5499 1654 40.6694
61.667 1602 40.025
61.7841 1485 38.5357
61.9013 1463 38.2492
62.0185 1469 38.3275
62.1357 1516 38.9358
62.253 1539 39.2301
62.3702 1696 41.1825
62.4875 1751 41.845
62.6049 1756 41.9047
62.7222 1789 42.2966
62.8396 1849 43
62.9569 1817 42.6263
63.0743 1835 42.8369
63.1918 1822 42.6849
63.3092 1785 42.2493
63.4267 1781 42.2019
63.5441 1698 41.2068
63.6616 1637 40.4599
63.7791 1497 38.6911
63.8966 1614 40.1746
64.0142 1527 39.0768
64.1317 1582 39.7744
64.2492 1720 41.4729
64.3668 1759 41.9404
64.4843 1873 43.2782
64.6019 1854 43.0581
64.7195 1818 42.638
64.837 1852 43.0349
64.9546 1745 41.7732
65.0722 1733 41.6293
65.1898 1598 39.975
65.3074 1435 37.8814
65.4249 1365 36.9459
65.5425 1355 36.8103
65.6601 1404 37.47
65.7777 1526 39.064
65.8952 1552 39.3954
66.0128 1596 39.95
66.1304 1642 40.5216
66.2479 1783 42.2256
66.3655 1768 42.0476
66.483 1755 41.8927
66.6005 1805 42.4853
66.718 1826 42.7317
66.8355 1683 41.0244
66.953 1764 42
67.0705 1714 41.4005
67.1879 1651 40.6325
67.3054 1544 39.2938
67.4228 1482 38.4968
67.5402 1473 38.3797
67.6576 1428 37.7889
67.7749 1478 38.4448
67.8923 1609 40.1123
68.0096 1690 41.1096
68.1269 1786 42.2611
68.2442 1750 41.833
68.3614 1793 42.3438
68.4787 1808 42.5206
68.5958 1736 41.6653
68.713 1644 40.5463
68.8302 1569 39.6106
68.9473 1386 37.229
69.0643 1364 36.9324
69.1814 1290 35.9166
69.2984 1302 36.0832
69.4154 1389 37.2693
69.5323 1477 38.4318
69.6492 1566 39.5727
69.7661 1603 40.0375
69.8829 1702 41.2553
69.9997 1595 39.9375
70.1165 1587 39.8372
70.2332 1597 39.9625
70.3499 1444 38
70.4665 1358 36.8511
70.5831 1398 37.3898
70.6996 1260 35.4965
70.8161 1213 34.8281
70.9326 1152 33.9411
71.049 1017 31.8904
71.1653 882 29.6985
71.2817 718 26.7955
71.3979 681 26.096
71.5141 665 25.7876
71.6303 640 25.2982
71.7464 601 24.5153
71.8624 0 1
71.9784 0 1
72.0944 0 1
72.2102 0 1
72.3261 0 1
72.4418 0 1
72.5575 0 1
72.6732 0 1
75.1054 0 1
75.2209 0 1
75.3365 0 1
75.4521 0 1
75.5678 0 1
75.6835 0 1
75.7993 0 1
75.9151 0 1
76.031 0 1
76.147 1001 31.6386
76.263 1072 32.7414
76.3791 1132 33.6452
76.4952 1111 33.3317
76.6113 1164 34.1174
76.7276 1264 35.5528
76.8438 1289 35.9026
76.9601 1461 38.223
77.0765 1503 38.7685
77.1929 1607 40.0874
77.3093 1581 39.7618
77.4258 1461 38.223
77.5423 1500 38.7298
77.6589 1364 36.9324
77.7755 1266 35.5809
77.8921 1213 34.8281
78.0088 1111 33.3317
78.1256 1020 31.9374
78.2423 1037 32.2025
78.3591 1104 33.2265
78.4759 1202 34.6699
78.5928 1337 36.565
78.7097 1433 37.855
78.8266 1439 37.9342
78.9436 1511 38.8716
79.0606 1487 38.5616
79.1776 1482 38.4968
79.2946 1519 38.9744
79.4117 1584 39.7995
79.5288 1536 39.1918
79.6459 1497 38.6911
79.7631 1428 37.7889
79.8802 1402 37.4433
79.9974 1379 37.1349
80.1147 1289 35.9026
80.2319 1240 35.2136
80.3491 1350 36.7423
80.4664 1393 37.3229
80.5837 1485 38.5357
80.701 1504 38.7814
80.8183 1492 38.6264
80.9357 1585 39.8121
81.053 1639 40.4846
81.1704 1590 39.8748
81.2877 1600 40
81.4051 1518 38.9615
81.5225 1394 37.3363
81.6399 1270 35.6371
81.7573 1146 33.8526
81.8747 1109 33.3017
81.9922 1094 33.0757
82.1096 1194 34.5543
82.227 1365 36.9459
82.3444 1475 38.4057
82.4619 1526 39.064
82.5793 1512 38.8844
82.6967 1518 38.9615
82.8142 1531 39.128
82.9316 1645 40.5586
83.049 1560 39.4968
83.1664 1610 40.1248
83.2838 1524 39.0384
83.4012 1567 39.5854
83.5186 1527 39.0768
83.636 1348 36.7151
83.7534 1367 36.973
83.8708 1242 35.242
83.9881 1284 35.8329
84.1055 1291 35.9305
84.2228 1435 37.8814
84.3401 1538 39.2173
84.4575 1627 40.3361
84.5747 1575 39.6863
84.692 1581 39.7618
84.8093 1593 39.9124
84.9265 1627 40.3361
85.0437 1500 38.7298
85.1609 1361 36.8917
85.2781 1234 35.1283
85.3952 1167 34.1614
85.5123 1126 33.5559
85.6294 1173 34.2491
85.7465 1305 36.1248
85.8636 1402 37.4433
85.9806 1415 37.6165
86.0976 1556 39.4462
86.2145 1549 39.3573
86.3315 1501 38.7427
86.4484 1610 40.1248
86.5652 1717 41.4367
86.682 1553 39.4081
86.7988 1665 40.8044
86.9156 1595 39.9375
87.0323 1532 39.1408
87.149 1430 37.8153
87.2657 1400 37.4166
87.3823 1244 35.2704
87.4988 1144 33.8231
87.6154 1176 34.2929
87.7318 1213 34.8281
87.8483 1192 34.5254
87.9647 1239 35.1994
88.081 1245 35.2846
88.1973 1270 35.6371
88.3136 1242 35.242
88.4298 1155 33.9853
88.546 1074 32.7719
88.6621 942 30.692
88.7781 710 26.6458
88.8942 0 1
89.0101 0 1
89.126 0 1
89.2419 0 1
89.3577 0 1
89.4734 0 1
89.5891 0 1
89.7047 0 1
89.8203 0 1
89.9358 0 1
92.3269 0 1
92.4424 0 1
92.558 0 1
92.6736 0 1
92.7893 0 1
92.905 0 1
93.0208 0 1
93.1366 0 1
93.2525 0 1
93.3685 0 1
93.4845 0 1
93.6005 1239 35.1994
93.7167 1291 35.9305
93.8328 1343 36.647
93.949 1440 37.9473
94.0653 1417 37.6431
94.1816 1406 37.4967
94.2979 1306 36.1386
94.4143 1284 35.8329
94.5307 1198 34.6121
94.6472 1141 33.7787
94.7637 1232 35.0999
94.8803 1329 36.4555
94.9969 1432 37.8418
95.1135 1481 38.4838
95.2302 1451 38.092
95.3469 1620 40.2492
95.4637 1630 40.3733
95.5805 1622 40.2741
95.6973 1654 40.6694
95.8142 1644 40.5463
95.9311 1673 40.9023
96.048 1628 40.3485
96.1649 1606 40.0749
96.2819 1652 40.6448
96.3989 1495 38.6652
96.516 1446 38.0263
96.633 1342 36.6333
96.7501 1319 36.318
96.8673 1388 37.2559
96.9844 1386 37.229
97.1016 1511 38.8716
97.2188 1598 39.975
97.336 1688 41.0853
97.4532 1701 41.2432
97.5704 1675 40.9268
97.6877 1672 40.8901
97.805 1593 39.9124
97.9223 1435 37.8814
98.0396 1372 37.0405
98.1569 1190 34.4964
98.2743 1150 33.9116
98.3916 1124 33.5261
98.509 1217 34.8855
98.6264 1350 36.7423
98.7438 1500 38.7298
98.8612 1550 39.37
98.9786 1633 40.4104
99.096 1675 40.9268
99.2134 1673 40.9023
99.3308 1714 41.4005
99.4482 1750 41.833
99.5656 1743 41.7493
99.6831 1700 41.2311
99.8005 1640 40.4969
99.9179 1692 41.1339
100.035 1603 40.0375
100.153 1460 38.2099
100.27 1434 37.8682
100.388 1434 37.8682
100.505 1529 39.1024
100.622 1572 39.6485
100.74 1641 40.5093
100.857 1783 42.2256
100.975 1737 41.6773
101.092 1719 41.4608
101.209 1795 42.3674
101.327 1734 41.6413
101.444 1665 40.8044
101.561 1481 38.4838
101.679 1286 35.8608
101.796 1290 35.9166
101.913 1262 35.5246
102.03 1309 36.1801
102.148 1404 37.47
102.265 1474 38.3927
102.382 1668 40.8412
102.499 1705 41.2916
102.616 1695 41.1704
102.733 1817 42.6263
102.851 1792 42.332
102.968 1777 42.1545
103.085 1774 42.1189
103.202 1840 42.8952
103.319 1682 41.0122
103.436 1704 41.2795
103.552 1782 42.2137
103.669 1659 40.7308
103.786 1602 40.025
103.903 1470 38.3406
104.02 1579 39.7366
104.137 1693 41.1461
104.253 1747 41.7971
104.37 1852 43.0349
104.487 1837 42.8602
104.603 1905 43.6463
104.72 1919 43.8064
104.836 1733 41.6293
104.953 1621 40.2616
105.069 1397 37.3765
105.186 1285 35.8469
105.302 1217 34.8855
105.418 1139 33.7491
105.535 1137 33.7194
105.651 1144 33.8231
105.767 1169 34.1906
105.883 1157 34.0147
105.999 1117 33.4215
106.115 0 1
106.231 0 1
106.347 0 1
106.463 0 1
106.579 0 1
106.694 0 1
106.81 0 1
106.926 0 1
107.041 0 1
107.157 0 1
109.576 0 1
109.692 0 1
109.807 0 1
109.923 0 1
110.039 0 1
110.155 0 1
110.27 0 1
110.386 0 1
110.502 0 1
110.618 847 29.1033
110.735 987 31.4166
110.851 1155 33.9853
110.967 1320 36.3318
111.083 1465 38.2753
111.199 1444 38
111.316 1644 40.5463
111.432 1645 40.5586
111.549 1625 40.3113
111.665 1735 41.6533
111.782 1711 41.3642
111.898 1630 40.3733
112.015 1644 40.5463
112.132 1556 39.4462
112.248 1451 38.092
112.365 1473 38.3797
112.482 1413 37.5899
112.599 1575 39.6863
112.716 1630 40.3733
112.832 1656 40.694
112.949 1722 41.497
113.066 1721 41.4849
113.183 1664 40.7922
113.3 1689 41.0974
113.417 1703 41.2674
113.534 1581 39.7618
113.652 1416 37.6298
113.769 1314 36.2491
113.886 1230 35.0714
114.003 1222 34.9571
114.12 1307 36.1525
114.238 1374 37.0675
114.355 1511 38.8716
114.472 1457 38.1707
114.589 1679 40.9756
114.707 1770 42.0714
114.824 1675 40.9268
114.942 1762 41.9762
115.059 1789 42.2966
115.176 1766 42.0238
115.294 1733 41.6293
115.411 1781 42.2019
115.529 1587 39.8372
115.646 1636 40.4475
115.764 1615 40.1871
115.881 1490 38.6005
115.999 1402 37.4433
116.116 1469 38.3275
116.234 1545 39.3065
116.351 1653 40.6571
116.469 1622 40.2741
116.586 1675 40.9268
116.704 1796 42.3792
116.821 1701 41.2432
116.939 1720 41.4729
117.056 1670 40.8656
117.174 1527 39.0768
117.291 1408 37.5233
117.409 1301 36.0694
117.526 1245 35.2846
117.644 1216 34.8712
117.761 1331 36.4829
117.879 1471 38.3536
117.996 1455 38.1445
118.114 1623 40.2865
118.231 1660 40.7431
118.349 1646 40.5709
118.466 1658 40.7185
118.584 1692 41.1339
118.701 1650 40.6202
118.819 1610 40.1248
118.936 1638 40.4722
119.053 1647 40.5832
119.171 1567 39.5854
119.288 1583 39.7869
119.405 1497 38.6911
119.523 1387 37.2424
119.64 1419 37.6696
119.757 1377 37.108
119.875 1437 37.9078
119.992 1539 39.2301
120.109 1589 39.8623
120.226 1657 40.7063
120.343 1551 39.3827
120.46 1595 39.9375
120.578 1609 40.1123
120.695 1576 39.6989
120.812 1471 38.3536
120.929 1286 35.8608
121.046 1242 35.242
121.163 1070 32.7109
121.279 1101 33.1813
121.396 1164 34.1174
121.513 1226 35.0143
121.63 1226 35.0143
121.747 1238 35.1852
121.863 1287 35.8748
121.98 1262 35.5246
122.097 1297 36.0139
122.213 1275 35.7071
122.33 1222 34.9571
122.446 1210 34.7851
122.563 1154 33.9706
122.679 1080 32.8634
122.795 986 31.4006
122.912 939 30.6431
123.028 826 28.7402
123.144 742 27.2397
123.26 648 25.4558
123.377 0 1
123.493 0 1
123.609 0 1
123.725 0 1
123.84 0 1
123.956 0 1
124.072 0 1
124.188 0 1
124.303 0 1
124.419 0 1
126.852 0 1
126.968 0 1
127.083 0 1
127.199 0 1
127.315 0 1
127.431 0 1
127.547 0 1
127.663 0 1
127.779 0 1
127.895 0 1
128.011 0 1
128.127 0 1
128.243 0 1
128.359 1540 39.2428
128.476 1531 39.128
128.592 1529 39.1024
128.708 1545 39.3065
128.825 1560 39.4968
128.941 1571 39.6358
129.058 1703 41.2674
129.174 1806 42.4971
129.291 1758 41.9285
129.408 1760 41.9524
129.524 1783 42.2256
129.641 1780 42.19
129.758 1717 41.4367
129.875 1562 39.5221
129.992 1499 38.7169
130.108 1372 37.0405
130.225 1289 35.9026
130.342 1261 35.5106
130.459 1406 37.4967
130.576 1469 38.3275
130.693 1543 39.281
130.81 1626 40.3237
130.928 1749 41.821
131.045 1724 41.5211
131.162 1715 41.4126
131.279 1773 42.107
131.396 1734 41.6413
131.513 1726 41.5452
131.631 1714 41.4005
131.748 1643 40.5339
131.865 1706 41.3038
131.983 1621 40.2616
132.1 1473 38.3797
132.217 1569 39.6106
132.335 1539 39.2301
132.452 1615 40.1871
132.57 1660 40.7431
132.687 1689 41.0974
132.804 1750 41.833
132.922 1749 41.821
133.039 1891 43.4856
133.157 1789 42.2966
133.274 1870 43.2435
133.392 1678 40.9634
133.509 1527 39.0768
133.627 1394 37.3363
133.744 1363 36.9188
133.862 1293 35.9583
133.979 1302 36.0832
134.097 1484 38.5227
134.214 1611 40.1373
134.332 1622 40.2741
134.449 1656 40.694
134.567 1683 41.0244
134.684 1754 41.8808
134.802 1748 41.8091
134.919 1817 42.6263
135.037 1766 42.0238
135.154 1731 41.6053
135.272 1705 41.2916
135.389 1740 41.7133
135.507 1710 41.3521
135.624 1669 40.8534
135.742 1527 39.0768
135.859 1547 39.3319
135.977 1540 39.2428
136.094 1652 40.6448
136.211 1716 41.4246
136.329 1769 42.0595
136.446 1878 43.3359
136.564 1849 43
136.681 1791 42.3202
136.798 1836 42.8486
136.915 1796 42.3792
137.033 1665 40.8044
137.15 1550 39.37
137.267 1442 37.9737
137.384 1376 37.0945
137.502 1219 34.9142
137.619 1341 36.6197
137.736 1470 38.3406
137.853 1526 39.064
137.97 1616 40.1995
138.087 1601 40.0125
138.204 1647 40.5832
138.321 1679 40.9756
138.438 1765 42.0119
138.555 1742 41.7373
138.672 1715 41.4126
138.788 1705 41.2916
138.905 1604 40.05
139.022 1493 38.6394
139.139 1437 37.9078
139.255 1395 37.3497
139.372 1293 35.9583
139.488 1182 34.3802
139.605 1136 33.7046
139.721 1198 34.6121
139.838 1144 33.8231
139.954 1090 33.0151
140.071 1137 33.7194
140.187 1065 32.6343
140.303 992 31.496
140.419 909 30.1496
140.535 842 29.0172
140.652 831 28.8271
140.768 0 1
140.884 0 1
141 0 1
141.115 0 1
141.231 0 1
141.347 0 1
141.463 0 1
141.578 0 1
141.694 0 1
144.104 0 1
144.219 0 1
144.335 0 1
144.45 0 1
144.566 0 1
144.682 0 1
144.798 0 1
144.914 0 1
145.03 0 1
145.146 1260 35.4965
145.262 1378 37.1214
145.378 1374 37.0675
145.494 1445 38.0132
145.61 1413 37.5899
145.726 1388 37.2559
145.842 1312 36.2215
145.959 1231 35.0856
146.075 1111 33.3317
146.192 1058 32.5269
146.308 1112 33.3467
146.425 1110 33.3167
146.541 1228 35.0428
146.658 1225 35
146.774 1216 34.8712
146.891 1201 34.6554
147.008 1317 36.2905
147.125 1312 36.2215
147.241 1315 36.2629
147.358 1368 36.9865
147.475 1416 37.6298
147.592 1423 37.7227
147.709 1331 36.4829
147.826 1312 36.2215
147.943 1204 34.6987
148.06 1221 34.9428
148.177 1214 34.8425
148.294 1214 34.8425
148.411 1266 35.5809
148.528 1315 36.2629
148.645 1345 36.6742
148.762 1304 36.1109
148.88 1388 37.2559
148.997 1428 37.7889
149.114 1370 37.0135
149.231 1407 37.51
149.349 1384 37.2022
149.466 1405 37.4833
149.583 1211 34.7994
149.701 1131 33.6303
149.818 1141 33.7787
149.935 1090 33.0151
150.053 1090 33.0151
150.17 1129 33.6006
150.287 1213 34.8281
150.405 1147 33.8674
150.522 1296 36
150.64 1230 35.0714
150.757 1306 36.1386
150.875 1305 36.1248
150.992 1306 36.1386
151.11 1360 36.8782
151.227 1347 36.7015
151.344 1250 35.3553
151.462 1325 36.4005
151.579 1253 35.3977
151.697 1196 34.5832
151.814 1213 34.8281
151.932 1158 34.0294
152.049 1208 34.7563
152.167 1253 35.3977
152.284 1258 35.4683
152.402 1313 36.2353
152.519 1345 36.6742
152.636 1367 36.973
152.754 1342 36.6333
152.871 1393 37.3229
152.989 1290 35.9166
153.106 1252 35.3836
153.223 1156 34
153.341 1121 33.4813
153.458 1047 32.3574
153.575 1049 32.3883
153.693 1044 32.311
153.81 1069 32.6956
153.927 1093 33.0606
154.044 1127 33.5708
154.162 1221 34.9428
154.279 1283 35.819
154.396 1241 35.2278
154.513 1208 34.7563
154.63 1269 35.623
154.747 1237 35.171
154.864 1183 34.3948
154.981 1272 35.6651
155.098 1172 34.2345
155.215 1158 34.0294
155.332 1110 33.3167
155.449 1077 32.8177
155.566 1081 32.8786
155.683 1114 33.3766
155.8 1106 33.2566
155.917 1113 33.3617
156.033 1160 34.0588
156.15 0 1
156.267 0 1
156.383 0 1
156.5 0 1
156.617 0 1
156.733 0 1
156.85 0 1
156.966 0 1
157.082 0 1
157.199 0 1
157.315 0 1
157.431 0 1
157.547 0 1
157.664 0 1
157.78 0 1
157.896 0 1
158.012 0 1
158.128 0 1
158.244 0 1
158.359 0 1
158.475 0 1
158.591 0 1
158.706 0 1
