
6.15755 0 1
6.2731 0 1
6.3887 0 1
6.50437 0 1
6.62009 0 1
6.73587 0 1
6.8517 0 1
6.96759 0 1
7.08353 0 1
7.19952 0 1
7.31557 0 1
7.43166 0 1
7.54781 0 1
7.664 0 1
7.78024 0 1
7.89653 0 1
8.01286 0 1
8.12924 0 1
8.24567 0 1
8.36213 0 1
8.47864 0 1
8.59519 0 1
8.71178 0 1
8.82841 0 1
8.94508 0 1
9.06179 0 1
9.17853 0 1
9.29531 0 1
9.41212 0 1
9.52897 0 1
9.64584 0 1
9.76276 0 1
9.8797 0 1
9.99667 0 1
10.1137 0 1
10.2307 0 1
10.3478 0 1
10.4648 0 1
10.5819 0 1
10.6991 0 1
10.8162 0 1
10.9334 0 1
11.0506 0 1
11.1678 0 1
11.285 0 1
11.4023 0 1
11.5196 0 1
11.6369 0 1
11.7542 0 1
11.8715 0 1
11.9888 0 1
12.1062 0 1
12.2235 0 1
12.3409 0 1
12.4582 0 1
12.5756 0 1
12.693 0 1
12.8104 0 1
12.9278 0 1
13.0452 0 1
13.1626 0 1
13.28 0 1
13.3974 0 1
13.5149 0 1
13.6323 0 1
13.7497 0 1
13.8671 0 1
13.9845 0 1
14.1019 0 1
14.2193 0 1
14.3367 0 1
14.4541 0 1
14.5714 0 1
14.6888 0 1
14.8062 0 1
14.9235 0 1
15.0408 0 0
15.1581 0 0
15.2755 0 0
15.3927 0 0
15.51 0 0
15.6273 0 0
15.7445 0 0
15.8617 0 0
15.9789 0 0
16.0961 0 0
16.2132 0 0
16.3304 0 0
16.4475 0 0
16.5646 0 0
16.6816 0 0
16.7986 0 0
16.9156 0 0
17.0326 0 0
17.1496 0 0
17.2665 0 0
17.3833 0 0
17.5002 0 0
17.617 0 0
17.7338 0 0
17.8505 0 0
17.9672 0 0
18.0839 0 0
18.2005 0 0
18.3171 0 0
18.4337 0 0
18.5502 0 0
18.6666 0 0
18.7831 0 0
18.8994 0 0
19.0158 0 0
19.1321 0 0
19.2483 0 0
19.3645 0 0
19.4806 0 0
19.5967 0 0
19.7128 0 0
19.8288 0 0
19.9447 0 0
20.0606 0 1
20.1764 0 1
20.2922 0 1
20.4079 0 1
20.5236 0 1
20.6392 0 1
20.7548 0 1
20.8702 0 1
23.3078 0 1
23.4233 0 1
23.539 0 1
23.6547 0 1
23.7704 0 1
23.8862 0 1
24.0021 0 1
24.118 0 1
24.234 0 1
24.35 0 1
24.4661 591 24.3105
24.5822 572 23.9165
24.6984 607 24.6374
24.8146 589 24.2693
24.9309 601 24.5153
25.0472 564 23.7487
25.1636 569 23.8537
25.28 647 25.4362
25.3965 548 23.4094
25.513 653 25.5539
25.6296 607 24.6374
25.7462 639 25.2784
25.8628 610 24.6982
25.9795 616 24.8193
26.0962 597 24.4336
26.213 601 24.5153
26.3298 604 24.5764
26.4466 639 25.2784
26.5635 580 24.0832
26.6804 618 24.8596
26.7973 576 24
26.9143 518 22.7596
27.0313 503 22.4277
27.1483 500 22.3607
27.2653 594 24.3721
27.3824 566 23.7908
27.4996 580 24.0832
27.6167 574 23.9583
27.7339 520 22.8035
27.8511 549 23.4307
27.9683 497 22.2935
28.0855 544 23.3238
28.2028 557 23.6008
28.3201 542 23.2809
28.4374 556 23.5797
28.5547 572 23.9165
28.6721 610 24.6982
28.7894 594 24.3721
28.9068 593 24.3516
29.0242 606 24.6171
29.1416 563 23.7276
29.259 600 24.4949
29.3764 615 24.7992
29.4939 626 25.02
29.6113 598 24.454
29.7288 575 23.9792
29.8463 563 23.7276
29.9638 573 23.9374
30.0812 565 23.7697
30.1987 585 24.1868
30.3162 535 23.1301
30.4337 508 22.5389
30.5512 516 22.7156
30.6687 493 22.2036
30.7862 558 23.622
30.9037 530 23.0217
31.0212 548 23.4094
31.1387 528 22.9783
31.2562 535 23.1301
31.3737 524 22.891
31.4912 504 22.4499
31.6087 506 22.4944
31.7262 527 22.9565
31.8436 519 22.7816
31.9611 522 22.8473
32.0785 553 23.516
32.1959 546 23.3666
32.3134 526 22.9347
32.4308 557 23.6008
32.5482 574 23.9583
32.6655 560 23.6643
32.7829 587 24.2281
32.9002 566 23.7908
33.0176 586 24.2074
33.1349 561 23.6854
33.2522 577 24.0208
33.3694 569 23.8537
33.4867 545 23.3452
33.6039 567 23.8118
33.7211 573 23.9374
33.8383 560 23.6643
33.9554 555 23.5584
34.0725 539 23.2164
34.1896 477 21.8403
34.3067 469 21.6564
34.4237 479 21.8861
34.5407 483 21.9773
34.6577 516 22.7156
34.7746 535 23.1301
34.8915 530 23.0217
35.0084 507 22.5167
35.1252 492 22.1811
35.242 501 22.383
35.3587 518 22.7596
35.4755 509 22.561
35.5921 534 23.1084
35.7088 537 23.1733
35.8254 552 23.4947
35.9419 538 23.1948
36.0584 586 24.2074
36.1749 523 22.8692
36.2913 584 24.1661
36.4077 562 23.7065
36.524 527 22.9565
36.6403 561 23.6854
36.7565 548 23.4094
36.8727 578 24.0416
36.9889 524 22.891
37.1049 539 23.2164
37.221 0 1
37.3369 0 1
37.4529 0 1
37.5687 0 1
37.6845 0 1
37.8003 0 1
37.916 0 1
38.0316 0 1
38.1472 0 1
40.5851 0 1
40.7008 0 1
40.8164 0 1
40.9322 0 1
41.048 0 1
41.1639 0 1
41.2798 0 1
41.3958 0 1
41.5118 0 1
41.6279 0 1
41.744 435 20.8567
41.8602 454 21.3073
41.9765 497 22.2935
42.0928 459 21.4243
42.2091 478 21.8632
42.3255 454 21.3073
42.4419 445 21.095
42.5584 498 22.3159
42.675 487 22.0681
42.7915 474 21.7715
42.9081 421 20.5183
43.0248 422 20.5426
43.1415 376 19.3907
43.2582 410 20.2485
43.375 403 20.0749
43.4918 426 20.6398
43.6087 450 21.2132
43.7256 432 20.7846
43.8425 417 20.4206
43.9595 360 18.9737
44.0765 392 19.799
44.1935 413 20.3224
44.3106 429 20.7123
44.4277 413 20.3224
44.5448 432 20.7846
44.6619 386 19.6469
44.7791 425 20.6155
44.8963 402 20.0499
45.0136 388 19.6977
45.1308 390 19.7484
45.2481 432 20.7846
45.3654 399 19.975
45.4827 381 19.5192
45.6001 392 19.799
45.7174 384 19.5959
45.8348 359 18.9473
45.9522 381 19.5192
46.0697 386 19.6469
46.1871 345 18.5742
46.3046 322 17.9444
46.422 324 18
46.5395 348 18.6548
46.657 339 18.412
46.7745 302 17.3781
46.892 321 17.9165
47.0096 315 17.7482
47.1271 330 18.1659
47.2446 327 18.0831
47.3622 344 18.5472
47.4797 256 16
47.5973 285 16.8819
47.7149 279 16.7033
47.8324 299 17.2916
47.95 349 18.6815
48.0675 307 17.5214
48.1851 328 18.1108
48.3027 300 17.3205
48.4202 318 17.8326
48.5378 315 17.7482
48.6554 337 18.3576
48.7729 291 17.0587
48.8904 306 17.4929
49.008 320 17.8885
49.1255 306 17.4929
49.243 339 18.412
49.3605 339 18.412
49.478 323 17.9722
49.5955 273 16.5227
49.713 315 17.7482
49.8304 341 18.4662
49.9479 330 18.1659
50.0653 318 17.8326
50.1827 289 17
50.3001 255 15.9687
50.4175 249 15.7797
50.5348 278 16.6733
50.6521 311 17.6352
50.7694 348 18.6548
50.8867 350 18.7083
51.004 310 17.6068
51.1212 323 17.9722
51.2384 332 18.2209
51.3556 336 18.3303
51.4727 378 19.4422
51.5899 374 19.3391
51.707 394 19.8494
51.824 404 20.0998
51.9411 420 20.4939
52.0581 403 20.0749
52.175 428 20.6882
52.2919 416 20.3961
52.4088 415 20.3715
52.5257 420 20.4939
52.6425 406 20.1494
52.7593 414 20.347
52.876 440 20.9762
52.9927 393 19.8242
53.1094 411 20.2731
53.226 446 21.1187
53.3426 404 20.0998
53.4591 432 20.7846
53.5756 400 20
53.692 494 22.2261
53.8084 395 19.8746
53.9248 356 18.868
54.0411 362 19.0263
54.1573 380 19.4936
54.2735 0 1
54.3896 0 1
54.5057 0 1
54.6217 0 1
54.7377 0 1
54.8537 0 1
54.9695 0 1
55.0853 0 1
55.2011 0 1
55.3168 0 1
55.4324 0 1
57.824 0 1
57.9396 0 1
58.0553 0 1
58.1711 0 1
58.2869 0 1
58.4028 0 1
58.5187 0 1
58.6347 0 1
58.7508 0 1
58.8669 0 1
58.983 433 20.8087
59.0992 410 20.2485
59.2155 404 20.0998
59.3318 438 20.9284
59.4482 416 20.3961
59.5646 433 20.8087
59.681 486 22.0454
59.7975 427 20.664
59.9141 435 20.8567
60.0306 431 20.7605
60.1473 453 21.2838
60.2639 428 20.6882
60.3807 471 21.7025
60.4974 463 21.5174
60.6142 491 22.1585
60.731 404 20.0998
60.8479 422 20.5426
60.9648 479 21.8861
61.0818 471 21.7025
61.1987 455 21.3307
61.3158 427 20.664
61.4328 424 20.5913
61.5499 451 21.2368
61.667 454 21.3073
61.7841 390 19.7484
61.9013 440 20.9762
62.0185 418 20.445
62.1357 438 20.9284
62.253 429 20.7123
62.3702 401 20.025
62.4875 364 19.0788
62.6049 388 19.6977
62.7222 366 19.1311
62.8396 379 19.4679
62.9569 350 18.7083
63.0743 374 19.3391
63.1918 344 18.5472
63.3092 393 19.8242
63.4267 354 18.8149
63.5441 411 20.2731
63.6616 397 19.9249
63.7791 396 19.8997
63.8966 407 20.1742
64.0142 409 20.2237
64.1317 397 19.9249
64.2492 364 19.0788
64.3668 419 20.4695
64.4843 420 20.4939
64.6019 381 19.5192
64.7195 373 19.3132
64.837 403 20.0749
64.9546 376 19.3907
65.0722 360 18.9737
65.1898 391 19.7737
65.3074 400 20
65.4249 383 19.5704
65.5425 384 19.5959
65.6601 379 19.4679
65.7777 350 18.7083
65.8952 377 19.4165
66.0128 358 18.9209
66.1304 353 18.7883
66.2479 310 17.6068
66.3655 329 18.1384
66.483 321 17.9165
66.6005 344 18.5472
66.718 322 17.9444
66.8355 313 17.6918
66.953 341 18.4662
67.0705 342 18.4932
67.1879 374 19.3391
67.3054 346 18.6011
67.4228 346 18.6011
67.5402 333 18.2483
67.6576 334 18.2757
67.7749 340 18.4391
67.8923 352 18.7617
68.0096 381 19.5192
68.1269 374 19.3391
68.2442 364 19.0788
68.3614 363 19.0526
68.4787 366 19.1311
68.5958 356 18.868
68.713 332 18.2209
68.8302 330 18.1659
68.9473 366 19.1311
69.0643 380 19.4936
69.1814 356 18.868
69.2984 351 18.735
69.4154 328 18.1108
69.5323 348 18.6548
69.6492 340 18.4391
69.7661 347 18.6279
69.8829 310 17.6068
69.9997 281 16.7631
70.1165 266 16.3095
70.2332 313 17.6918
70.3499 301 17.3494
70.4665 318 17.8326
70.5831 306 17.4929
70.6996 341 18.4662
70.8161 352 18.7617
70.9326 317 17.8045
71.049 332 18.2209
71.1653 303 17.4069
71.2817 288 16.9706
71.3979 326 18.0555
71.5141 286 16.9115
71.6303 303 17.4069
71.7464 264 16.2481
71.8624 0 1
71.9784 0 1
72.0944 0 1
72.2102 0 1
72.3261 0 1
72.4418 0 1
72.5575 0 1
72.6732 0 1
75.1054 0 1
75.2209 0 1
75.3365 0 1
75.4521 0 1
75.5678 0 1
75.6835 0 1
75.7993 0 1
75.9151 0 1
76.031 0 1
76.147 246 15.6844
76.263 232 15.2315
76.3791 238 15.4272
76.4952 221 14.8661
76.6113 233 15.2643
76.7276 259 16.0935
76.8438 262 16.1864
76.9601 250 15.8114
77.0765 261 16.1555
77.1929 252 15.8745
77.3093 246 15.6844
77.4258 225 15
77.5423 245 15.6525
77.6589 224 14.9666
77.7755 222 14.8997
77.8921 231 15.1987
78.0088 220 14.8324
78.1256 206 14.3527
78.2423 227 15.0665
78.3591 242 15.5563
78.4759 208 14.4222
78.5928 185 13.6015
78.7097 205 14.3178
78.8266 210 14.4914
78.9436 228 15.0997
79.0606 192 13.8564
79.1776 142 11.9164
79.2946 147 12.1244
79.4117 156 12.49
79.5288 166 12.8841
79.6459 171 13.0767
79.7631 177 13.3041
79.8802 172 13.1149
79.9974 192 13.8564
80.1147 153 12.3693
80.2319 170 13.0384
80.3491 147 12.1244
80.4664 129 11.3578
80.5837 149 12.2066
80.701 138 11.7473
80.8183 139 11.7898
80.9357 158 12.5698
81.053 121 11
81.1704 153 12.3693
81.2877 148 12.1655
81.4051 152 12.3288
81.5225 139 11.7898
81.6399 100 10
81.7573 131 11.4455
81.8747 117 10.8167
81.9922 100 10
82.1096 129 11.3578
82.227 95 9.74679
82.3444 110 10.4881
82.4619 117 10.8167
82.5793 103 10.1489
82.6967 80 8.94427
82.8142 71 8.42615
82.9316 81 9
83.049 59 7.68115
83.1664 79 8.88819
83.2838 92 9.59166
83.4012 91 9.53939
83.5186 76 8.7178
83.636 72 8.48528
83.7534 64 8
83.8708 70 8.3666
83.9881 62 7.87401
84.1055 56 7.48331
84.2228 53 7.28011
84.3401 50 7.07107
84.4575 65 8.06226
84.5747 40 6.32456
84.692 59 7.68115
84.8093 35 5.91608
84.9265 54 7.34847
85.0437 52 7.2111
85.1609 60 7.74597
85.2781 53 7.28011
85.3952 51 7.14143
85.5123 37 6.08276
85.6294 34 5.83095
85.7465 51 7.14143
85.8636 41 6.40312
85.9806 41 6.40312
86.0976 34 5.83095
86.2145 36 6
86.3315 33 5.74456
86.4484 54 7.34847
86.5652 57 7.54983
86.682 73 8.544
86.7988 59 7.68115
86.9156 62 7.87401
87.0323 59 7.68115
87.149 61 7.81025
87.2657 60 7.74597
87.3823 75 8.66025
87.4988 55 7.4162
87.6154 73 8.544
87.7318 66 8.12404
87.8483 76 8.7178
87.9647 77 8.77496
88.081 104 10.198
88.1973 94 9.69536
88.3136 107 10.3441
88.4298 96 9.79796
88.546 90 9.48683
88.6621 100 10
88.7781 114 10.6771
88.8942 0 1
89.0101 0 1
89.126 0 1
89.2419 0 1
89.3577 0 1
89.4734 0 1
89.5891 0 1
89.7047 0 1
89.8203 0 1
89.9358 0 1
92.3269 0 1
92.4424 0 1
92.558 0 1
92.6736 0 1
92.7893 0 1
92.905 0 1
93.0208 0 1
93.1366 0 1
93.2525 0 1
93.3685 0 1
93.4845 0 1
93.6005 156 12.49
93.7167 156 12.49
93.8328 186 13.6382
93.949 151 12.2882
94.0653 171 13.0767
94.1816 150 12.2474
94.2979 152 12.3288
94.4143 141 11.8743
94.5307 155 12.4499
94.6472 157 12.53
94.7637 146 12.083
94.8803 146 12.083
94.9969 137 11.7047
95.1135 120 10.9545
95.2302 146 12.083
95.3469 128 11.3137
95.4637 104 10.198
95.5805 87 9.32738
95.6973 132 11.4891
95.8142 136 11.6619
95.9311 191 13.8203
96.048 143 11.9583
96.1649 149 12.2066
96.2819 133 11.5326
96.3989 182 13.4907
96.516 164 12.8062
96.633 178 13.3417
96.7501 161 12.6886
96.8673 194 13.9284
96.9844 183 13.5277
97.1016 199 14.1067
97.2188 168 12.9615
97.336 202 14.2127
97.4532 202 14.2127
97.5704 207 14.3875
97.6877 233 15.2643
97.805 228 15.0997
97.9223 264 16.2481
98.0396 220 14.8324
98.1569 235 15.3297
98.2743 229 15.1327
98.3916 255 15.9687
98.509 258 16.0624
98.6264 250 15.8114
98.7438 227 15.0665
98.8612 244 15.6205
98.9786 207 14.3875
99.096 203 14.2478
99.2134 185 13.6015
99.3308 232 15.2315
99.4482 315 17.7482
99.5656 271 16.4621
99.6831 291 17.0587
99.8005 327 18.0831
99.9179 326 18.0555
100.035 318 17.8326
100.153 329 18.1384
100.27 301 17.3494
100.388 292 17.088
100.505 345 18.5742
100.622 324 18
100.74 334 18.2757
100.857 368 19.1833
100.975 331 18.1934
101.092 349 18.6815
101.209 340 18.4391
101.327 344 18.5472
101.444 330 18.1659
101.561 333 18.2483
101.679 370 19.2354
101.796 336 18.3303
101.913 342 18.4932
102.03 355 18.8414
102.148 351 18.735
102.265 387 19.6723
102.382 314 17.72
102.499 335 18.303
102.616 272 16.4924
102.733 228 15.0997
102.851 284 16.8523
102.968 393 19.8242
103.085 344 18.5472
103.202 382 19.5448
103.319 352 18.7617
103.436 362 19.0263
103.552 361 19
103.669 375 19.3649
103.786 353 18.7883
103.903 360 18.9737
104.02 377 19.4165
104.137 366 19.1311
104.253 367 19.1572
104.37 369 19.2094
104.487 388 19.6977
104.603 389 19.7231
104.72 376 19.3907
104.836 382 19.5448
104.953 356 18.868
105.069 408 20.199
105.186 393 19.8242
105.302 439 20.9523
105.418 385 19.6214
105.535 355 18.8414
105.651 381 19.5192
105.767 363 19.0526
105.883 366 19.1311
105.999 281 16.7631
106.115 0 1
106.231 0 1
106.347 0 1
106.463 0 1
106.579 0 1
106.694 0 1
106.81 0 1
106.926 0 1
107.041 0 1
107.157 0 1
109.576 0 1
109.692 0 1
109.807 0 1
109.923 0 1
110.039 0 1
110.155 0 1
110.27 0 1
110.386 0 1
110.502 0 1
110.618 296 17.2047
110.735 316 17.7764
110.851 304 17.4356
110.967 308 17.5499
111.083 254 15.9374
111.199 238 15.4272
111.316 237 15.3948
111.432 270 16.4317
111.549 263 16.2173
111.665 268 16.3707
111.782 289 17
111.898 284 16.8523
112.015 276 16.6132
112.132 268 16.3707
112.248 274 16.5529
112.365 272 16.4924
112.482 256 16
112.599 253 15.906
112.716 257 16.0312
112.832 246 15.6844
112.949 234 15.2971
113.066 266 16.3095
113.183 232 15.2315
113.3 215 14.6629
113.417 230 15.1658
113.534 250 15.8114
113.652 266 16.3095
113.769 219 14.7986
113.886 239 15.4596
114.003 237 15.3948
114.12 203 14.2478
114.238 244 15.6205
114.355 230 15.1658
114.472 207 14.3875
114.589 205 14.3178
114.707 188 13.7113
114.824 184 13.5647
114.942 195 13.9642
115.059 187 13.6748
115.176 245 15.6525
115.294 208 14.4222
115.411 249 15.7797
115.529 217 14.7309
115.646 200 14.1421
115.764 217 14.7309
115.881 208 14.4222
115.999 192 13.8564
116.116 237 15.3948
116.234 193 13.8924
116.351 212 14.5602
116.469 213 14.5945
116.586 228 15.0997
116.704 212 14.5602
116.821 190 13.784
116.939 210 14.4914
117.056 217 14.7309
117.174 234 15.2971
117.291 233 15.2643
117.409 234 15.2971
117.526 194 13.9284
117.644 193 13.8924
117.761 194 13.9284
117.879 190 13.784
117.996 170 13.0384
118.114 152 12.3288
118.231 193 13.8924
118.349 177 13.3041
118.466 207 14.3875
118.584 190 13.784
118.701 193 13.8924
118.819 188 13.7113
118.936 199 14.1067
119.053 194 13.9284
119.171 216 14.6969
119.288 216 14.6969
119.405 230 15.1658
119.523 197 14.0357
119.64 225 15
119.757 185 13.6015
119.875 217 14.7309
119.992 212 14.5602
120.109 191 13.8203
120.226 222 14.8997
120.343 201 14.1774
120.46 225 15
120.578 230 15.1658
120.695 235 15.3297
120.812 186 13.6382
120.929 202 14.2127
121.046 214 14.6287
121.163 231 15.1987
121.279 193 13.8924
121.396 230 15.1658
121.513 191 13.8203
121.63 170 13.0384
121.747 162 12.7279
121.863 152 12.3288
121.98 174 13.1909
122.097 202 14.2127
122.213 210 14.4914
122.33 249 15.7797
122.446 235 15.3297
122.563 206 14.3527
122.679 244 15.6205
122.795 232 15.2315
122.912 237 15.3948
123.028 234 15.2971
123.144 241 15.5242
123.26 251 15.843
123.377 0 1
123.493 0 1
123.609 0 1
123.725 0 1
123.84 0 1
123.956 0 1
124.072 0 1
124.188 0 1
124.303 0 1
124.419 0 1
126.852 0 1
126.968 0 1
127.083 0 1
127.199 0 1
127.315 0 1
127.431 0 1
127.547 0 1
127.663 0 1
127.779 0 1
127.895 0 1
128.011 0 1
128.127 0 1
128.243 0 1
128.359 298 17.2627
128.476 310 17.6068
128.592 316 17.7764
128.708 347 18.6279
128.825 321 17.9165
128.941 349 18.6815
129.058 289 17
129.174 281 16.7631
129.291 314 17.72
129.408 291 17.0587
129.524 291 17.0587
129.641 294 17.1464
129.758 279 16.7033
129.875 309 17.5784
129.992 304 17.4356
130.108 297 17.2337
130.225 291 17.0587
130.342 288 16.9706
130.459 242 15.5563
130.576 201 14.1774
130.693 224 14.9666
130.81 234 15.2971
130.928 229 15.1327
131.045 274 16.5529
131.162 295 17.1756
131.279 309 17.5784
131.396 352 18.7617
131.513 293 17.1172
131.631 327 18.0831
131.748 323 17.9722
131.865 313 17.6918
131.983 326 18.0555
132.1 317 17.8045
132.217 331 18.1934
132.335 332 18.2209
132.452 372 19.2873
132.57 348 18.6548
132.687 309 17.5784
132.804 355 18.8414
132.922 319 17.8606
133.039 349 18.6815
133.157 341 18.4662
133.274 353 18.7883
133.392 315 17.7482
133.509 340 18.4391
133.627 354 18.8149
133.744 338 18.3848
133.862 335 18.303
133.979 291 17.0587
134.097 286 16.9115
134.214 285 16.8819
134.332 253 15.906
134.449 225 15
134.567 258 16.0624
134.684 307 17.5214
134.802 349 18.6815
134.919 323 17.9722
135.037 333 18.2483
135.154 341 18.4662
135.272 356 18.868
135.389 381 19.5192
135.507 353 18.7883
135.624 377 19.4165
135.742 324 18
135.859 382 19.5448
135.977 364 19.0788
136.094 369 19.2094
136.211 376 19.3907
136.329 354 18.8149
136.446 361 19
136.564 400 20
136.681 365 19.105
136.798 362 19.0263
136.915 386 19.6469
137.033 387 19.6723
137.15 397 19.9249
137.267 378 19.4422
137.384 328 18.1108
137.502 345 18.5742
137.619 310 17.6068
137.736 318 17.8326
137.853 250 15.8114
137.97 292 17.088
138.087 275 16.5831
138.204 303 17.4069
138.321 305 17.4642
138.438 356 18.868
138.555 357 18.8944
138.672 370 19.2354
138.788 354 18.8149
138.905 421 20.5183
139.022 409 20.2237
139.139 404 20.0998
139.255 394 19.8494
139.372 406 20.1494
139.488 360 18.9737
139.605 428 20.6882
139.721 443 21.0476
139.838 437 20.9045
139.954 424 20.5913
140.071 411 20.2731
140.187 364 19.0788
140.303 383 19.5704
140.419 388 19.6977
140.535 387 19.6723
140.652 397 19.9249
140.768 0 1
140.884 0 1
141 0 1
141.115 0 1
141.231 0 1
141.347 0 1
141.463 0 1
141.578 0 1
141.694 0 1
144.104 0 1
144.219 0 1
144.335 0 1
144.45 0 1
144.566 0 1
144.682 0 1
144.798 0 1
144.914 0 1
145.03 0 1
145.146 398 19.9499
145.262 403 20.0749
145.378 375 19.3649
145.494 377 19.4165
145.61 374 19.3391
145.726 330 18.1659
145.842 363 19.0526
145.959 380 19.4936
146.075 348 18.6548
146.192 322 17.9444
146.308 310 17.6068
146.425 317 17.8045
146.541 279 16.7033
146.658 308 17.5499
146.774 304 17.4356
146.891 324 18
147.008 316 17.7764
147.125 307 17.5214
147.241 391 19.7737
147.358 431 20.7605
147.475 400 20
147.592 394 19.8494
147.709 378 19.4422
147.826 359 18.9473
147.943 383 19.5704
148.06 416 20.3961
148.177 381 19.5192
148.294 404 20.0998
148.411 396 19.8997
148.528 329 18.1384
148.645 370 19.2354
148.762 357 18.8944
148.88 373 19.3132
148.997 348 18.6548
149.114 371 19.2614
149.231 335 18.303
149.349 376 19.3907
149.466 379 19.4679
149.583 359 18.9473
149.701 304 17.4356
149.818 322 17.9444
149.935 354 18.8149
150.053 327 18.0831
150.17 331 18.1934
150.287 300 17.3205
150.405 321 17.9165
150.522 340 18.4391
150.64 332 18.2209
150.757 331 18.1934
150.875 318 17.8326
150.992 377 19.4165
151.11 409 20.2237
151.227 379 19.4679
151.344 364 19.0788
151.462 389 19.7231
151.579 361 19
151.697 380 19.4936
151.814 373 19.3132
151.932 440 20.9762
152.049 378 19.4422
152.167 365 19.105
152.284 387 19.6723
152.402 386 19.6469
152.519 387 19.6723
152.636 403 20.0749
152.754 386 19.6469
152.871 408 20.199
152.989 357 18.8944
153.106 374 19.3391
153.223 378 19.4422
153.341 372 19.2873
153.458 366 19.1311
153.575 354 18.8149
153.693 333 18.2483
153.81 327 18.0831
153.927 335 18.303
154.044 334 18.2757
154.162 316 17.7764
154.279 346 18.6011
154.396 381 19.5192
154.513 361 19
154.63 404 20.0998
154.747 403 20.0749
154.864 390 19.7484
154.981 378 19.4422
155.098 431 20.7605
155.215 405 20.1246
155.332 368 19.1833
155.449 431 20.7605
155.566 400 20
155.683 442 21.0238
155.8 404 20.0998
155.917 406 20.1494
156.033 433 20.8087
156.15 0 1
156.267 0 1
156.383 0 1
156.5 0 1
156.617 0 1
156.733 0 1
156.85 0 1
156.966 0 1
157.082 0 1
157.199 0 1
157.315 0 1
157.431 0 1
157.547 0 1
157.664 0 1
157.78 0 1
157.896 0 1
158.012 0 1
158.128 0 1
158.244 0 1
158.359 0 1
158.475 0 1
158.591 0 1
158.706 0 1
