
6.15755 0 1
6.2731 0 1
6.3887 0 1
6.50437 0 1
6.62009 0 1
6.73587 0 1
6.8517 0 1
6.96759 0 1
7.08353 0 1
7.19952 0 1
7.31557 0 1
7.43166 0 1
7.54781 0 1
7.664 0 1
7.78024 0 1
7.89653 0 1
8.01286 0 1
8.12924 0 1
8.24567 0 1
8.36213 0 1
8.47864 0 1
8.59519 0 1
8.71178 0 1
8.82841 0 1
8.94508 0 1
9.06179 0 1
9.17853 0 1
9.29531 0 1
9.41212 0 1
9.52897 0 1
9.64584 0 1
9.76276 0 1
9.8797 0 1
9.99667 0 1
10.1137 0 1
10.2307 0 1
10.3478 0 1
10.4648 0 1
10.5819 0 1
10.6991 0 1
10.8162 0 1
10.9334 0 1
11.0506 0 1
11.1678 0 1
11.285 0 1
11.4023 0 1
11.5196 0 1
11.6369 0 1
11.7542 0 1
11.8715 0 1
11.9888 0 1
12.1062 0 1
12.2235 0 1
12.3409 0 1
12.4582 0 1
12.5756 0 1
12.693 0 1
12.8104 0 1
12.9278 0 1
13.0452 0 1
13.1626 0 1
13.28 0 1
13.3974 0 1
13.5149 0 1
13.6323 0 1
13.7497 0 1
13.8671 0 1
13.9845 0 1
14.1019 0 1
14.2193 0 1
14.3367 0 1
14.4541 0 1
14.5714 0 1
14.6888 0 1
14.8062 0 1
14.9235 0 1
15.0408 0 0
15.1581 0 0
15.2755 0 0
15.3927 0 0
15.51 0 0
15.6273 0 0
15.7445 0 0
15.8617 0 0
15.9789 0 0
16.0961 0 0
16.2132 0 0
16.3304 0 0
16.4475 0 0
16.5646 0 0
16.6816 0 0
16.7986 0 0
16.9156 0 0
17.0326 0 0
17.1496 0 0
17.2665 0 0
17.3833 0 0
17.5002 0 0
17.617 0 0
17.7338 0 0
17.8505 0 0
17.9672 0 0
18.0839 0 0
18.2005 0 0
18.3171 0 0
18.4337 0 0
18.5502 0 0
18.6666 0 0
18.7831 0 0
18.8994 0 0
19.0158 0 0
19.1321 0 0
19.2483 0 0
19.3645 0 0
19.4806 0 0
19.5967 0 0
19.7128 0 0
19.8288 0 0
19.9447 0 0
20.0606 0 1
20.1764 0 1
20.2922 0 1
20.4079 0 1
20.5236 0 1
20.6392 0 1
20.7548 0 1
20.8702 0 1
23.3078 0 1
23.4233 0 1
23.539 0 1
23.6547 0 1
23.7704 0 1
23.8862 0 1
24.0021 0 1
24.118 0 1
24.234 0 1
24.35 0 1
24.4661 4640 68.1175
24.5822 4667 68.3154
24.6984 4452 66.7233
24.8146 4642 68.1322
24.9309 4408 66.3928
25.0472 4429 66.5507
25.1636 4474 66.888
25.28 4491 67.0149
25.3965 4573 67.624
25.513 4647 68.1689
25.6296 4960 70.4273
25.7462 5177 71.9514
25.8628 5220 72.2496
25.9795 5256 72.4983
26.0962 5282 72.6774
26.213 5236 72.3602
26.3298 5165 71.8679
26.4466 4851 69.6491
26.5635 4649 68.1836
26.6804 4654 68.2202
26.7973 4586 67.72
26.9143 4700 68.5565
27.0313 5014 70.8096
27.1483 5022 70.8661
27.2653 5128 71.6101
27.3824 5156 71.8053
27.4996 5172 71.9166
27.6167 5286 72.7049
27.7339 5091 71.3512
27.8511 4887 69.9071
27.9683 4789 69.2026
28.0855 5008 70.7672
28.2028 4754 68.9493
28.3201 4629 68.0368
28.4374 4416 66.453
28.5547 4331 65.8103
28.6721 4347 65.9318
28.7894 4245 65.1537
28.9068 4538 67.3647
29.0242 4455 66.7458
29.1416 4603 67.8454
29.259 4957 70.406
29.3764 4935 70.2496
29.4939 4909 70.0643
29.6113 4936 70.2567
29.7288 4914 70.0999
29.8463 4712 68.644
29.9638 4551 67.4611
30.0812 4501 67.0895
30.1987 4127 64.2417
30.3162 4480 66.9328
30.4337 4408 66.3928
30.5512 4469 66.8506
30.6687 4828 69.4838
30.7862 4824 69.455
30.9037 4957 70.406
31.0212 5202 72.1249
31.1387 5039 70.9859
31.2562 5103 71.4353
31.3737 5045 71.0282
31.4912 4924 70.1712
31.6087 4851 69.6491
31.7262 4815 69.3902
31.8436 4546 67.424
31.9611 4384 66.2118
32.0785 4374 66.1362
32.1959 4276 65.3911
32.3134 4253 65.215
32.4308 4300 65.5744
32.5482 4419 66.4756
32.6655 4553 67.4759
32.7829 4715 68.6659
32.9002 4807 69.3325
33.0176 4855 69.6778
33.1349 4814 69.383
33.2522 4823 69.4478
33.3694 4820 69.4262
33.4867 4751 68.9275
33.6039 4452 66.7233
33.7211 4389 66.2495
33.8383 4281 65.4294
33.9554 4252 65.2074
34.0725 4316 65.6963
34.1896 4540 67.3795
34.3067 4705 68.593
34.4237 4679 68.4032
34.5407 4856 69.685
34.6577 5011 70.7884
34.7746 5053 71.0845
34.8915 5100 71.4143
35.0084 4838 69.5557
35.1252 4906 70.0428
35.242 4760 68.9928
35.3587 4638 68.1029
35.4755 4593 67.7717
35.5921 4377 66.1589
35.7088 4302 65.5896
35.8254 4235 65.0769
35.9419 4119 64.1794
36.0584 4236 65.0846
36.1749 4165 64.5368
36.2913 4298 65.5591
36.4077 4568 67.587
36.524 4599 67.8159
36.6403 4835 69.5342
36.7565 4686 68.4544
36.8727 4782 69.152
36.9889 4691 68.4909
37.1049 4727 68.7532
37.221 0 1
37.3369 0 1
37.4529 0 1
37.5687 0 1
37.6845 0 1
37.8003 0 1
37.916 0 1
38.0316 0 1
38.1472 0 1
40.5851 0 1
40.7008 0 1
40.8164 0 1
40.9322 0 1
41.048 0 1
41.1639 0 1
41.2798 0 1
41.3958 0 1
41.5118 0 1
41.6279 0 1
41.744 3579 59.8247
41.8602 4009 63.3167
41.9765 3931 62.6977
42.0928 3994 63.1981
42.2091 4089 63.9453
42.3255 4048 63.6239
42.4419 3860 62.1289
42.5584 3688 60.7289
42.675 3467 58.8812
42.7915 3554 59.6154
42.9081 3795 61.6036
43.0248 4034 63.5138
43.1415 4056 63.6867
43.2582 3964 62.9603
43.375 4130 64.2651
43.4918 4286 65.4675
43.6087 4100 64.0312
43.7256 4049 63.6318
43.8425 4090 63.9531
43.9595 3977 63.0635
44.0765 3967 62.9841
44.1935 3842 61.9839
44.3106 3815 61.7657
44.4277 3586 59.8832
44.5448 3384 58.1722
44.6619 3210 56.6569
44.7791 3129 55.9375
44.8963 3322 57.6368
45.0136 3326 57.6715
45.1308 3278 57.2538
45.2481 3423 58.5064
45.3654 3377 58.112
45.4827 3540 59.4979
45.6001 3440 58.6515
45.7174 3467 58.8812
45.8348 3382 58.155
45.9522 3259 57.0877
46.0697 3104 55.7136
46.1871 2876 53.6284
46.3046 2910 53.9444
46.422 2960 54.4059
46.5395 3124 55.8928
46.657 3250 57.0088
46.7745 3304 57.4804
46.892 3323 57.6455
47.0096 3272 57.2014
47.1271 3352 57.8965
47.2446 3406 58.3609
47.3622 3211 56.6657
47.4797 3144 56.0714
47.5973 3104 55.7136
47.7149 3042 55.1543
47.8324 2946 54.2771
47.95 2763 52.5642
48.0675 2730 52.2494
48.1851 2385 48.8365
48.3027 2499 49.99
48.4202 2417 49.163
48.5378 2472 49.7192
48.6554 2484 49.8397
48.7729 2686 51.8266
48.8904 2705 52.0096
49.008 2768 52.6118
49.1255 2739 52.3355
49.243 2787 52.792
49.3605 2687 51.8363
49.478 2501 50.01
49.5955 2496 49.96
49.713 2445 49.4469
49.8304 2359 48.5695
49.9479 2532 50.319
50.0653 2735 52.2972
50.1827 2846 53.3479
50.3001 2956 54.3691
50.4175 3056 55.2811
50.5348 3104 55.7136
50.6521 3165 56.2583
50.7694 3325 57.6628
50.8867 3363 57.9914
51.004 3268 57.1664
51.1212 3377 58.112
51.2384 3350 57.8792
51.3556 3411 58.4038
51.4727 3242 56.9386
51.5899 3220 56.745
51.707 3071 55.4166
51.824 3120 55.857
51.9411 3080 55.4977
52.0581 3268 57.1664
52.175 3357 57.9396
52.2919 3690 60.7454
52.4088 3717 60.9672
52.5257 3929 62.6817
52.6425 3754 61.2699
52.7593 3981 63.0952
52.876 3992 63.1823
52.9927 3885 62.3298
53.1094 3749 61.2291
53.226 3633 60.2744
53.3426 3546 59.5483
53.4591 3550 59.5819
53.5756 3742 61.1719
53.692 4072 63.8122
53.8084 4202 64.8228
53.9248 4474 66.888
54.0411 4588 67.7348
54.1573 4713 68.6513
54.2735 0 1
54.3896 0 1
54.5057 0 1
54.6217 0 1
54.7377 0 1
54.8537 0 1
54.9695 0 1
55.0853 0 1
55.2011 0 1
55.3168 0 1
55.4324 0 1
57.824 0 1
57.9396 0 1
58.0553 0 1
58.1711 0 1
58.2869 0 1
58.4028 0 1
58.5187 0 1
58.6347 0 1
58.7508 0 1
58.8669 0 1
58.983 4821 69.4334
59.0992 5208 72.1665
59.2155 5453 73.8444
59.3318 5447 73.8038
59.4482 5618 74.9533
59.5646 5690 75.4321
59.681 5654 75.1931
59.7975 5572 74.6458
59.9141 5421 73.6274
60.0306 5094 71.3723
60.1473 4930 70.214
60.2639 4673 68.3593
60.3807 4466 66.8281
60.4974 4400 66.3325
60.6142 4347 65.9318
60.731 4414 66.4379
60.8479 4531 67.3127
60.9648 4550 67.4537
61.0818 4883 69.8785
61.1987 4815 69.3902
61.3158 4937 70.2638
61.4328 4776 69.1086
61.5499 4707 68.6076
61.667 4431 66.5658
61.7841 4190 64.7302
61.9013 4238 65.0999
62.0185 4095 63.9922
62.1357 4339 65.8711
62.253 4462 66.7982
62.3702 4633 68.0661
62.4875 4807 69.3325
62.6049 5107 71.4633
62.7222 5115 71.5192
62.8396 4956 70.3989
62.9569 5205 72.1457
63.0743 5032 70.9366
63.1918 5112 71.4983
63.3092 5075 71.239
63.4267 4983 70.5904
63.5441 4736 68.8186
63.6616 4622 67.9853
63.7791 4218 64.9461
63.8966 3986 63.1348
64.0142 3847 62.0242
64.1317 3806 61.6928
64.2492 3972 63.0238
64.3668 3874 62.2415
64.4843 4205 64.846
64.6019 4316 65.6963
64.7195 4393 66.2797
64.837 4393 66.2797
64.9546 4405 66.3702
65.0722 4312 65.6658
65.1898 4160 64.4981
65.3074 3827 61.8628
65.4249 3768 61.384
65.5425 3717 60.9672
65.6601 3832 61.9032
65.7777 4116 64.1561
65.8952 4287 65.4752
66.0128 4405 66.3702
66.1304 4552 67.4685
66.2479 4721 68.7095
66.3655 4910 70.0714
66.483 4843 69.5917
66.6005 4949 70.3491
66.718 4954 70.3847
66.8355 4971 70.5053
66.953 4854 69.6707
67.0705 4578 67.6609
67.1879 4396 66.3023
67.3054 4213 64.9076
67.4228 3945 62.8092
67.5402 3649 60.407
67.6576 3500 59.1608
67.7749 3702 60.8441
67.8923 3673 60.6053
68.0096 3923 62.6339
68.1269 4121 64.195
68.2442 4250 65.192
68.3614 4489 67
68.4787 4336 65.8483
68.5958 4514 67.1863
68.713 4323 65.7495
68.8302 4378 66.1665
68.9473 4057 63.6946
69.0643 3882 62.3057
69.1814 3716 60.959
69.2984 3912 62.546
69.4154 4259 65.261
69.5323 4407 66.3852
69.6492 4744 68.8767
69.7661 4934 70.2424
69.8829 5228 72.3049
69.9997 5324 72.9657
70.1165 5320 72.9383
70.2332 5413 73.5731
70.3499 5405 73.5187
70.4665 5362 73.2257
70.5831 5307 72.8492
70.6996 4987 70.6187
70.8161 4874 69.814
70.9326 4644 68.1469
71.049 4404 66.3626
71.1653 4050 63.6396
71.2817 3944 62.8013
71.3979 3830 61.887
71.5141 3769 61.3922
71.6303 3808 61.709
71.7464 3728 61.0574
71.8624 0 1
71.9784 0 1
72.0944 0 1
72.2102 0 1
72.3261 0 1
72.4418 0 1
72.5575 0 1
72.6732 0 1
75.1054 0 1
75.2209 0 1
75.3365 0 1
75.4521 0 1
75.5678 0 1
75.6835 0 1
75.7993 0 1
75.9151 0 1
76.031 0 1
76.147 4426 66.5282
76.263 4602 67.838
76.3791 4557 67.5056
76.4952 4258 65.2534
76.6113 3973 63.0317
76.7276 3837 61.9435
76.8438 4022 63.4192
76.9601 3956 62.8967
77.0765 4247 65.169
77.1929 4687 68.4617
77.3093 4928 70.1997
77.4258 4967 70.4769
77.5423 5043 71.0141
77.6589 4917 70.1213
77.7755 4636 68.0882
77.8921 4406 66.3777
78.0088 4233 65.0615
78.1256 3976 63.0555
78.2423 3871 62.2174
78.3591 3810 61.7252
78.4759 4205 64.846
78.5928 4631 68.0515
78.7097 4880 69.857
78.8266 4949 70.3491
78.9436 5181 71.9792
79.0606 5171 71.9097
79.1776 5165 71.8679
79.2946 5373 73.3008
79.4117 5316 72.9109
79.5288 5339 73.0685
79.6459 5192 72.0555
79.7631 4846 69.6132
79.8802 4577 67.6535
79.9974 4388 66.242
80.1147 4101 64.0391
80.2319 3716 60.959
80.3491 3629 60.2412
80.4664 3503 59.1861
80.5837 3832 61.9032
80.701 4061 63.726
80.8183 4308 65.6354
80.9357 4564 67.5574
81.053 4468 66.8431
81.1704 4478 66.9179
81.2877 4457 66.7608
81.4051 4211 64.8922
81.5225 4137 64.3195
81.6399 3749 61.2291
81.7573 3664 60.531
81.8747 3408 58.3781
81.9922 3405 58.3524
82.1096 3658 60.4814
82.227 3985 63.1269
82.3444 4232 65.0538
82.4619 4359 66.0227
82.5793 4720 68.7023
82.6967 4529 67.2978
82.8142 4691 68.4909
82.9316 4594 67.7791
83.049 4598 67.8086
83.1664 4416 66.453
83.2838 4337 65.8559
83.4012 4316 65.6963
83.5186 4006 63.293
83.636 3935 62.7296
83.7534 3663 60.5227
83.8708 3276 57.2364
83.9881 3109 55.7584
84.1055 3190 56.4801
84.2228 3251 57.0175
84.3401 3459 58.8133
84.4575 3780 61.4817
84.5747 4161 64.5058
84.692 4156 64.467
84.8093 4063 63.7417
84.9265 3914 62.562
85.0437 3827 61.8628
85.1609 3696 60.7947
85.2781 3418 58.4637
85.3952 3373 58.0775
85.5123 3325 57.6628
85.6294 3521 59.338
85.7465 3845 62.0081
85.8636 4157 64.4748
85.9806 4399 66.325
86.0976 4568 67.587
86.2145 4778 69.1231
86.3315 4815 69.3902
86.4484 5106 71.4563
86.5652 5082 71.2881
86.682 5040 70.993
86.7988 5077 71.2531
86.9156 4912 70.0857
87.0323 4906 70.0428
87.149 4600 67.8233
87.2657 4387 66.2344
87.3823 4154 64.4515
87.4988 3924 62.6418
87.6154 3688 60.7289
87.7318 3928 62.6738
87.8483 4180 64.6529
87.9647 4440 66.6333
88.081 4785 69.1737
88.1973 5054 71.0915
88.3136 4967 70.4769
88.4298 5110 71.4843
88.546 4926 70.1855
88.6621 4767 69.0435
88.7781 4492 67.0224
88.8942 0 1
89.0101 0 1
89.126 0 1
89.2419 0 1
89.3577 0 1
89.4734 0 1
89.5891 0 1
89.7047 0 1
89.8203 0 1
89.9358 0 1
92.3269 0 1
92.4424 0 1
92.558 0 1
92.6736 0 1
92.7893 0 1
92.905 0 1
93.0208 0 1
93.1366 0 1
93.2525 0 1
93.3685 0 1
93.4845 0 1
93.6005 7194 84.8175
93.7167 7605 87.2067
93.8328 7934 89.073
93.949 8165 90.3604
94.0653 7893 88.8426
94.1816 7979 89.3252
94.2979 7561 86.954
94.4143 7353 85.7496
94.5307 7655 87.4929
94.6472 7682 87.647
94.7637 8162 90.3438
94.8803 9042 95.0894
94.9969 9557 97.7599
95.1135 10193 100.96
95.2302 10699 103.436
95.3469 10958 104.68
95.4637 11165 105.665
95.5805 11639 107.884
95.6973 11675 108.051
95.8142 11959 109.357
95.9311 11780 108.536
96.048 11652 107.944
96.1649 11596 107.685
96.2819 11323 106.41
96.3989 10635 103.126
96.516 10390 101.931
96.633 9542 97.6832
96.7501 9314 96.5091
96.8673 9685 98.4124
96.9844 10109 100.544
97.1016 10630 103.102
97.2188 11641 107.893
97.336 11694 108.139
97.4532 12017 109.622
97.5704 11829 108.761
97.6877 11725 108.282
97.805 11243 106.033
97.9223 10156 100.777
98.0396 9676 98.3667
98.1569 9152 95.6661
98.2743 9064 95.205
98.3916 9282 96.3431
98.509 10245 101.218
98.6264 10651 103.204
98.7438 10987 104.819
98.8612 11634 107.861
98.9786 11913 109.147
99.096 12367 111.207
99.2134 12088 109.945
99.3308 12542 111.991
99.4482 12180 110.363
99.5656 12344 111.104
99.6831 12105 110.023
99.8005 11557 107.503
99.9179 11174 105.707
100.035 10628 103.092
100.153 10051 100.255
100.27 9375 96.8246
100.388 9038 95.0684
100.505 9691 98.4429
100.622 10355 101.76
100.74 11019 104.971
100.857 11336 106.471
100.975 11498 107.229
101.092 11320 106.395
101.209 11324 106.414
101.327 11018 104.967
101.444 10232 101.153
101.561 9595 97.9541
101.679 8615 92.817
101.796 8206 90.587
101.913 8261 90.89
102.03 8609 92.7847
102.148 9374 96.8194
102.265 10446 102.206
102.382 9431 97.1133
102.499 10178 100.886
102.616 10156 100.777
102.733 10215 101.069
102.851 10028 100.14
102.968 9620 98.0816
103.085 9563 97.7906
103.202 8979 94.7576
103.319 8554 92.4878
103.436 8168 90.377
103.552 7812 88.3855
103.669 6866 82.8613
103.786 6381 79.8812
103.903 6100 78.1025
104.02 6161 78.492
104.137 6308 79.4229
104.253 6511 80.6908
104.37 6488 80.5481
104.487 6818 82.5712
104.603 6483 80.5171
104.72 6426 80.1623
104.836 6013 77.5435
104.953 5710 75.5645
105.069 5241 72.3948
105.186 4925 70.1783
105.302 4859 69.7065
105.418 4666 68.3081
105.535 5156 71.8053
105.651 5540 74.4312
105.767 5731 75.7034
105.883 6234 78.9557
105.999 6365 79.781
106.115 0 1
106.231 0 1
106.347 0 1
106.463 0 1
106.579 0 1
106.694 0 1
106.81 0 1
106.926 0 1
107.041 0 1
107.157 0 1
109.576 0 1
109.692 0 1
109.807 0 1
109.923 0 1
110.039 0 1
110.155 0 1
110.27 0 1
110.386 0 1
110.502 0 1
110.618 4915 70.1071
110.735 5319 72.9315
110.851 5699 75.4917
110.967 5827 76.3348
111.083 6026 77.6273
111.199 6197 78.721
111.316 6196 78.7147
111.432 6462 80.3866
111.549 6216 78.8416
111.665 6171 78.5557
111.782 6093 78.0577
111.898 5610 74.8999
112.015 5493 74.1148
112.132 5351 73.1505
112.248 4890 69.9285
112.365 4552 67.4685
112.482 4516 67.2012
112.599 4561 67.5352
112.716 4918 70.1285
112.832 5304 72.8286
112.949 5319 72.9315
113.066 5655 75.1997
113.183 5399 73.4779
113.3 5457 73.8715
113.417 5207 72.1595
113.534 4976 70.5408
113.652 4600 67.8233
113.769 4625 68.0074
113.886 4541 67.3869
114.003 4547 67.4314
114.12 4668 68.3228
114.238 5365 73.2462
114.355 5531 74.3707
114.472 6097 78.0833
114.589 5753 75.8485
114.707 6025 77.6209
114.824 6164 78.5111
114.942 6185 78.6448
115.059 6235 78.962
115.176 6261 79.1265
115.294 6118 78.2176
115.411 5961 77.2075
115.529 5860 76.5506
115.646 5633 75.0533
115.764 5221 72.2565
115.881 4859 69.7065
115.999 4681 68.4178
116.116 4772 69.0797
116.234 4937 70.2638
116.351 5307 72.8492
116.469 5584 74.7262
116.586 5581 74.7061
116.704 5531 74.3707
116.821 5515 74.263
116.939 5529 74.3572
117.056 5251 72.4638
117.174 5092 71.3583
117.291 4845 69.606
117.409 4868 69.7711
117.526 4699 68.5493
117.644 4914 70.0999
117.761 5281 72.6705
117.879 5685 75.3989
117.996 5761 75.9013
118.114 6087 78.0192
118.231 6118 78.2176
118.349 6350 79.6869
118.466 6290 79.3095
118.584 6342 79.6367
118.701 6404 80.025
118.819 6392 79.95
118.936 6169 78.543
119.053 5966 77.2399
119.171 5809 76.2168
119.288 5751 75.8353
119.405 5362 73.2257
119.523 5014 70.8096
119.64 4924 70.1712
119.757 4839 69.5629
119.875 5086 71.3162
119.992 5223 72.2703
120.109 5532 74.3774
120.226 5555 74.5319
120.343 5456 73.8647
120.46 5552 74.5117
120.578 5653 75.1864
120.695 5458 73.8783
120.812 5275 72.6292
120.929 4960 70.4273
121.046 4967 70.4769
121.163 4877 69.8355
121.279 4927 70.1926
121.396 5189 72.0347
121.513 5425 73.6546
121.63 5686 75.4056
121.747 5901 76.818
121.863 6110 78.1665
121.98 6377 79.8561
122.097 6402 80.0125
122.213 6386 79.9125
122.33 6286 79.2843
122.446 6242 79.0063
122.563 6153 78.4411
122.679 5961 77.2075
122.795 5823 76.3086
122.912 5805 76.1906
123.028 5511 74.2361
123.144 5281 72.6705
123.26 4954 70.3847
123.377 0 1
123.493 0 1
123.609 0 1
123.725 0 1
123.84 0 1
123.956 0 1
124.072 0 1
124.188 0 1
124.303 0 1
124.419 0 1
126.852 0 1
126.968 0 1
127.083 0 1
127.199 0 1
127.315 0 1
127.431 0 1
127.547 0 1
127.663 0 1
127.779 0 1
127.895 0 1
128.011 0 1
128.127 0 1
128.243 0 1
128.359 5921 76.948
128.476 5698 75.4851
128.592 5296 72.7736
128.708 5221 72.2565
128.825 5586 74.7395
128.941 5975 77.2981
129.058 6067 77.8909
129.174 6227 78.9113
129.291 6278 79.2338
129.408 6168 78.5366
129.524 6157 78.4666
129.641 6011 77.5306
129.758 5873 76.6355
129.875 5487 74.0743
129.992 5210 72.1803
130.108 5268 72.581
130.225 5412 73.5663
130.342 5506 74.2024
130.459 5803 76.1774
130.576 6168 78.5366
130.693 6371 79.8185
130.81 6555 80.963
130.928 6487 80.5419
131.045 6432 80.1998
131.162 6610 81.3019
131.279 6585 81.148
131.396 6630 81.4248
131.513 6559 80.9877
131.631 6173 78.5684
131.748 6227 78.9113
131.865 5982 77.3434
131.983 5682 75.379
132.1 5537 74.411
132.217 5367 73.2598
132.335 5536 74.4043
132.452 5611 74.9066
132.57 6051 77.7882
132.687 5871 76.6225
132.804 6324 79.5236
132.922 6165 78.5175
133.039 5868 76.6029
133.157 5966 77.2399
133.274 5694 75.4586
133.392 5503 74.1822
133.509 5414 73.5799
133.627 5223 72.2703
133.744 5274 72.6223
133.862 5510 74.2294
133.979 5731 75.7034
134.097 5980 77.3305
134.214 6173 78.5684
134.332 6287 79.2906
134.449 6332 79.5739
134.567 6335 79.5927
134.684 6520 80.7465
134.802 6513 80.7032
134.919 6572 81.0679
135.037 6427 80.1686
135.154 6327 79.5424
135.272 6251 79.0633
135.389 6082 77.9872
135.507 5996 77.4338
135.624 5604 74.8599
135.742 5262 72.5396
135.859 5403 73.5051
135.977 5621 74.9733
136.094 5769 75.9539
136.211 6045 77.7496
136.329 6313 79.4544
136.446 6193 78.6956
136.564 6010 77.5242
136.681 5965 77.2334
136.798 5982 77.3434
136.915 5753 75.8485
137.033 5607 74.8799
137.15 5638 75.0866
137.267 5365 73.2462
137.384 5169 71.8958
137.502 5382 73.3621
137.619 5676 75.3392
137.736 5941 77.0779
137.853 6008 77.5113
137.97 6222 78.8797
138.087 6129 78.2879
138.204 6320 79.4984
138.321 6380 79.8749
138.438 6481 80.5047
138.555 6517 80.7279
138.672 6306 79.4103
138.788 6475 80.4674
138.905 6295 79.341
139.022 6169 78.543
139.139 5953 77.1557
139.255 5654 75.1931
139.372 5519 74.29
139.488 5509 74.2226
139.605 5663 75.2529
139.721 5861 76.5572
139.838 6004 77.4855
139.954 6299 79.3662
140.071 6218 78.8543
140.187 6158 78.4729
140.303 6213 78.8226
140.419 5970 77.2658
140.535 5825 76.3217
140.652 5590 74.7663
140.768 0 1
140.884 0 1
141 0 1
141.115 0 1
141.231 0 1
141.347 0 1
141.463 0 1
141.578 0 1
141.694 0 1
144.104 0 1
144.219 0 1
144.335 0 1
144.45 0 1
144.566 0 1
144.682 0 1
144.798 0 1
144.914 0 1
145.03 0 1
145.146 5634 75.06
145.262 5614 74.9266
145.378 5548 74.4849
145.494 5533 74.3841
145.61 5216 72.2219
145.726 5177 71.9514
145.842 5072 71.218
145.959 5030 70.9225
146.075 4949 70.3491
146.192 5054 71.0915
146.308 5342 73.089
146.425 5583 74.7195
146.541 5752 75.8419
146.658 5664 75.2596
146.774 5860 76.5506
146.891 5847 76.4657
147.008 6009 77.5177
147.125 6082 77.9872
147.241 6083 77.9936
147.358 5922 76.9545
147.475 5826 76.3282
147.592 5874 76.642
147.709 5644 75.1266
147.826 5466 73.9324
147.943 5235 72.3533
148.06 5116 71.5262
148.177 5175 71.9375
148.294 5327 72.9863
148.411 5657 75.213
148.528 5847 76.4657
148.645 5739 75.7562
148.762 5652 75.1798
148.88 5652 75.1798
148.997 5602 74.8465
149.114 5687 75.4122
149.231 5502 74.1755
149.349 5301 72.808
149.466 5203 72.1318
149.583 5042 71.007
149.701 4917 70.1213
149.818 5291 72.7393
149.935 5277 72.643
150.053 5574 74.6592
150.17 5676 75.3392
150.287 5725 75.6637
150.405 5812 76.2365
150.522 5893 76.7659
150.64 6200 78.7401
150.757 6106 78.1409
150.875 6225 78.8987
150.992 5947 77.1168
151.11 6049 77.7753
151.227 5910 76.8765
151.344 5715 75.5976
151.462 5635 75.0666
151.579 5282 72.6774
151.697 5292 72.7461
151.814 5457 73.8715
151.932 5641 75.1066
152.049 5974 77.2917
152.167 5997 77.4403
152.284 5984 77.3563
152.402 5983 77.3499
152.519 5996 77.4338
152.636 5949 77.1298
152.754 5824 76.3151
152.871 5639 75.0933
152.989 5472 73.973
153.106 5216 72.2219
153.223 5123 71.5751
153.341 5156 71.8053
153.458 5327 72.9863
153.575 5526 74.3371
153.693 5664 75.2596
153.81 5734 75.7232
153.927 5840 76.4199
154.044 6194 78.702
154.162 6128 78.2815
154.279 6427 80.1686
154.396 6374 79.8373
154.513 6534 80.8332
154.63 6330 79.5613
154.747 6379 79.8686
154.864 6169 78.543
154.981 5930 77.0065
155.098 5775 75.9934
155.215 5632 75.0467
155.332 5730 75.6968
155.449 5548 74.4849
155.566 5777 76.0066
155.683 6055 77.8139
155.8 6118 78.2176
155.917 6018 77.5758
156.033 5964 77.2269
156.15 0 1
156.267 0 1
156.383 0 1
156.5 0 1
156.617 0 1
156.733 0 1
156.85 0 1
156.966 0 1
157.082 0 1
157.199 0 1
157.315 0 1
157.431 0 1
157.547 0 1
157.664 0 1
157.78 0 1
157.896 0 1
158.012 0 1
158.128 0 1
158.244 0 1
158.359 0 1
158.475 0 1
158.591 0 1
158.706 0 1
