
6.15755 0 1
6.2731 0 1
6.3887 0 1
6.50437 0 1
6.62009 0 1
6.73587 0 1
6.8517 0 1
6.96759 0 1
7.08353 0 1
7.19952 0 1
7.31557 0 1
7.43166 0 1
7.54781 0 1
7.664 0 1
7.78024 0 1
7.89653 0 1
8.01286 0 1
8.12924 0 1
8.24567 0 1
8.36213 0 1
8.47864 0 1
8.59519 0 1
8.71178 0 1
8.82841 0 1
8.94508 0 1
9.06179 0 1
9.17853 0 1
9.29531 0 1
9.41212 0 1
9.52897 0 1
9.64584 0 1
9.76276 0 1
9.8797 0 1
9.99667 0 1
10.1137 0 1
10.2307 0 1
10.3478 0 1
10.4648 0 1
10.5819 0 1
10.6991 0 1
10.8162 0 1
10.9334 0 1
11.0506 0 1
11.1678 0 1
11.285 0 1
11.4023 0 1
11.5196 0 1
11.6369 0 1
11.7542 0 1
11.8715 0 1
11.9888 0 1
12.1062 0 1
12.2235 0 1
12.3409 0 1
12.4582 0 1
12.5756 0 1
12.693 0 1
12.8104 0 1
12.9278 0 1
13.0452 0 1
13.1626 0 1
13.28 0 1
13.3974 0 1
13.5149 0 1
13.6323 0 1
13.7497 0 1
13.8671 0 1
13.9845 0 1
14.1019 0 1
14.2193 0 1
14.3367 0 1
14.4541 0 1
14.5714 0 1
14.6888 0 1
14.8062 0 1
14.9235 0 1
15.0408 943 30.7083
15.1581 971 31.1609
15.2755 1018 31.9061
15.3927 988 31.4325
15.51 940 30.6594
15.6273 918 30.2985
15.7445 811 28.4781
15.8617 844 29.0517
15.9789 831 28.8271
16.0961 855 29.2404
16.2132 869 29.4788
16.3304 922 30.3645
16.4475 827 28.7576
16.5646 794 28.178
16.6816 835 28.8964
16.7986 739 27.1846
16.9156 768 27.7128
17.0326 738 27.1662
17.1496 737 27.1477
17.2665 777 27.8747
17.3833 710 26.6458
17.5002 756 27.4955
17.617 731 27.037
17.7338 806 28.3901
17.8505 737 27.1477
17.9672 767 27.6948
18.0839 740 27.2029
18.2005 768 27.7128
18.3171 752 27.4226
18.4337 773 27.8029
18.5502 803 28.3373
18.6666 746 27.313
18.7831 712 26.6833
18.8994 707 26.5895
19.0158 699 26.4386
19.1321 690 26.2679
19.2483 657 25.632
19.3645 595 24.3926
19.4806 588 24.2487
19.5967 575 23.9792
19.7128 584 24.1661
19.8288 546 23.3666
19.9447 501 22.383
20.0606 0 1
20.1764 0 1
20.2922 0 1
20.4079 0 1
20.5236 0 1
20.6392 0 1
20.7548 0 1
20.8702 0 1
23.3078 0 1
23.4233 0 1
23.539 0 1
23.6547 0 1
23.7704 0 1
23.8862 0 1
24.0021 0 1
24.118 0 1
24.234 0 1
24.35 0 1
24.4661 287 16.9411
24.5822 361 19
24.6984 392 19.799
24.8146 519 22.7816
24.9309 587 24.2281
25.0472 648 25.4558
25.1636 685 26.1725
25.28 724 26.9072
25.3965 790 28.1069
25.513 790 28.1069
25.6296 862 29.3598
25.7462 855 29.2404
25.8628 812 28.4956
25.9795 785 28.0179
26.0962 828 28.775
26.213 787 28.0535
26.3298 797 28.2312
26.4466 757 27.5136
26.5635 691 26.2869
26.6804 661 25.7099
26.7973 680 26.0768
26.9143 650 25.4951
27.0313 662 25.7294
27.1483 687 26.2107
27.2653 670 25.8844
27.3824 729 27
27.4996 738 27.1662
27.6167 689 26.2488
27.7339 732 27.0555
27.8511 687 26.2107
27.9683 674 25.9615
28.0855 685 26.1725
28.2028 664 25.7682
28.3201 694 26.3439
28.4374 766 27.6767
28.5547 739 27.1846
28.6721 729 27
28.7894 785 28.0179
28.9068 792 28.1425
29.0242 723 26.8887
29.1416 711 26.6646
29.259 721 26.8514
29.3764 705 26.5518
29.4939 720 26.8328
29.6113 698 26.4197
29.7288 754 27.4591
29.8463 640 25.2982
29.9638 700 26.4575
30.0812 670 25.8844
30.1987 650 25.4951
30.3162 647 25.4362
30.4337 636 25.219
30.5512 661 25.7099
30.6687 648 25.4558
30.7862 691 26.2869
30.9037 670 25.8844
31.0212 741 27.2213
31.1387 740 27.2029
31.2562 724 26.9072
31.3737 730 27.0185
31.4912 717 26.7769
31.6087 678 26.0384
31.7262 693 26.3249
31.8436 734 27.0924
31.9611 690 26.2679
32.0785 698 26.4197
32.1959 673 25.9422
32.3134 703 26.5141
32.4308 688 26.2298
32.5482 718 26.7955
32.6655 689 26.2488
32.7829 643 25.3574
32.9002 663 25.7488
33.0176 632 25.1396
33.1349 655 25.593
33.2522 653 25.5539
33.3694 667 25.8263
33.4867 654 25.5734
33.6039 667 25.8263
33.7211 632 25.1396
33.8383 584 24.1661
33.9554 633 25.1595
34.0725 606 24.6171
34.1896 550 23.4521
34.3067 643 25.3574
34.4237 617 24.8395
34.5407 648 25.4558
34.6577 659 25.671
34.7746 669 25.865
34.8915 663 25.7488
35.0084 654 25.5734
35.1252 679 26.0576
35.242 620 24.8998
35.3587 618 24.8596
35.4755 564 23.7487
35.5921 649 25.4755
35.7088 644 25.3772
35.8254 656 25.6125
35.9419 653 25.5539
36.0584 631 25.1197
36.1749 608 24.6577
36.2913 575 23.9792
36.4077 561 23.6854
36.524 528 22.9783
36.6403 498 22.3159
36.7565 483 21.9773
36.8727 474 21.7715
36.9889 413 20.3224
37.1049 381 19.5192
37.221 0 1
37.3369 0 1
37.4529 0 1
37.5687 0 1
37.6845 0 1
37.8003 0 1
37.916 0 1
38.0316 0 1
38.1472 0 1
40.5851 0 1
40.7008 0 1
40.8164 0 1
40.9322 0 1
41.048 0 1
41.1639 0 1
41.2798 0 1
41.3958 0 1
41.5118 0 1
41.6279 0 1
41.744 253 15.906
41.8602 352 18.7617
41.9765 385 19.6214
42.0928 430 20.7364
42.2091 424 20.5913
42.3255 462 21.4942
42.4419 463 21.5174
42.5584 500 22.3607
42.675 427 20.664
42.7915 461 21.4709
42.9081 460 21.4476
43.0248 438 20.9284
43.1415 460 21.4476
43.2582 437 20.9045
43.375 445 21.095
43.4918 477 21.8403
43.6087 524 22.891
43.7256 513 22.6495
43.8425 506 22.4944
43.9595 476 21.8174
44.0765 506 22.4944
44.1935 449 21.1896
44.3106 441 21
44.4277 463 21.5174
44.5448 504 22.4499
44.6619 478 21.8632
44.7791 487 22.0681
44.8963 536 23.1517
45.0136 499 22.3383
45.1308 557 23.6008
45.2481 550 23.4521
45.3654 504 22.4499
45.4827 540 23.2379
45.6001 515 22.6936
45.7174 496 22.2711
45.8348 520 22.8035
45.9522 507 22.5167
46.0697 485 22.0227
46.1871 460 21.4476
46.3046 464 21.5407
46.422 451 21.2368
46.5395 452 21.2603
46.657 450 21.2132
46.7745 433 20.8087
46.892 462 21.4942
47.0096 479 21.8861
47.1271 484 22
47.2446 507 22.5167
47.3622 470 21.6795
47.4797 511 22.6053
47.5973 481 21.9317
47.7149 447 21.1424
47.8324 386 19.6469
47.95 465 21.5639
48.0675 454 21.3073
48.1851 545 23.3452
48.3027 494 22.2261
48.4202 503 22.4277
48.5378 503 22.4277
48.6554 505 22.4722
48.7729 543 23.3024
48.8904 513 22.6495
49.008 495 22.2486
49.1255 546 23.3666
49.243 516 22.7156
49.3605 468 21.6333
49.478 479 21.8861
49.5955 511 22.6053
49.713 464 21.5407
49.8304 424 20.5913
49.9479 493 22.2036
50.0653 434 20.8327
50.1827 455 21.3307
50.3001 442 21.0238
50.4175 458 21.4009
50.5348 488 22.0907
50.6521 502 22.4054
50.7694 497 22.2935
50.8867 474 21.7715
51.004 496 22.2711
51.1212 458 21.4009
51.2384 462 21.4942
51.3556 445 21.095
51.4727 445 21.095
51.5899 487 22.0681
51.707 477 21.8403
51.824 462 21.4942
51.9411 450 21.2132
52.0581 517 22.7376
52.175 502 22.4054
52.2919 445 21.095
52.4088 483 21.9773
52.5257 487 22.0681
52.6425 551 23.4734
52.7593 474 21.7715
52.876 476 21.8174
52.9927 493 22.2036
53.1094 470 21.6795
53.226 412 20.2978
53.3426 432 20.7846
53.4591 428 20.6882
53.5756 419 20.4695
53.692 384 19.5959
53.8084 368 19.1833
53.9248 406 20.1494
54.0411 599 24.4745
54.1573 688 26.2298
54.2735 0 1
54.3896 0 1
54.5057 0 1
54.6217 0 1
54.7377 0 1
54.8537 0 1
54.9695 0 1
55.0853 0 1
55.2011 0 1
55.3168 0 1
55.4324 0 1
57.824 0 1
57.9396 0 1
58.0553 0 1
58.1711 0 1
58.2869 0 1
58.4028 0 1
58.5187 0 1
58.6347 0 1
58.7508 0 1
58.8669 0 1
58.983 83213 288.467
59.0992 105482 324.78
59.2155 122292 349.703
59.3318 133255 365.041
59.4482 142113 376.979
59.5646 149326 386.427
59.681 153060 391.229
59.7975 153901 392.302
59.9141 153473 391.756
60.0306 150927 388.493
60.1473 146878 383.247
60.2639 142023 376.859
60.3807 134653 366.951
60.4974 128057 357.851
60.6142 121203 348.142
60.731 114512 338.396
60.8479 106134 325.782
60.9648 99925 316.109
61.0818 92974 304.916
61.1987 86207 293.61
61.3158 78067 279.405
61.4328 69231 263.118
61.5499 57970 240.77
61.667 47018 216.836
61.7841 37264 193.039
61.9013 28963 170.185
62.0185 23877 154.522
62.1357 21749 147.475
62.253 21067 145.145
62.3702 20544 143.332
62.4875 19152 138.391
62.6049 17072 130.66
62.7222 14989 122.43
62.8396 12716 112.765
62.9569 10762 103.74
63.0743 9010 94.921
63.1918 7519 86.7122
63.3092 5978 77.3175
63.4267 4871 69.7925
63.5441 3640 60.3324
63.6616 2605 51.0392
63.7791 1968 44.3621
63.8966 1437 37.9078
64.0142 1138 33.7343
64.1317 861 29.3428
64.2492 815 28.5482
64.3668 681 26.096
64.4843 625 25
64.6019 582 24.1247
64.7195 566 23.7908
64.837 598 24.454
64.9546 535 23.1301
65.0722 545 23.3452
65.1898 536 23.1517
65.3074 510 22.5832
65.4249 465 21.5639
65.5425 475 21.7945
65.6601 490 22.1359
65.7777 478 21.8632
65.8952 466 21.587
66.0128 469 21.6564
66.1304 502 22.4054
66.2479 460 21.4476
66.3655 493 22.2036
66.483 507 22.5167
66.6005 516 22.7156
66.718 514 22.6716
66.8355 571 23.8956
66.953 547 23.388
67.0705 607 24.6374
67.1879 657 25.632
67.3054 623 24.96
67.4228 621 24.9199
67.5402 587 24.2281
67.6576 617 24.8395
67.7749 615 24.7992
67.8923 621 24.9199
68.0096 638 25.2587
68.1269 603 24.5561
68.2442 642 25.3377
68.3614 568 23.8328
68.4787 568 23.8328
68.5958 544 23.3238
68.713 514 22.6716
68.8302 519 22.7816
68.9473 474 21.7715
69.0643 466 21.587
69.1814 477 21.8403
69.2984 435 20.8567
69.4154 432 20.7846
69.5323 444 21.0713
69.6492 435 20.8567
69.7661 457 21.3776
69.8829 458 21.4009
69.9997 484 22
70.1165 435 20.8567
70.2332 451 21.2368
70.3499 443 21.0476
70.4665 411 20.2731
70.5831 401 20.025
70.6996 405 20.1246
70.8161 406 20.1494
70.9326 340 18.4391
71.049 326 18.0555
71.1653 311 17.6352
71.2817 258 16.0624
71.3979 270 16.4317
71.5141 272 16.4924
71.6303 221 14.8661
71.7464 207 14.3875
71.8624 0 1
71.9784 0 1
72.0944 0 1
72.2102 0 1
72.3261 0 1
72.4418 0 1
72.5575 0 1
72.6732 0 1
75.1054 0 1
75.2209 0 1
75.3365 0 1
75.4521 0 1
75.5678 0 1
75.6835 0 1
75.7993 0 1
75.9151 0 1
76.031 0 1
76.147 327 18.0831
76.263 431 20.7605
76.3791 385 19.6214
76.4952 402 20.0499
76.6113 445 21.095
76.7276 416 20.3961
76.8438 457 21.3776
76.9601 470 21.6795
77.0765 439 20.9523
77.1929 455 21.3307
77.3093 436 20.8806
77.4258 439 20.9523
77.5423 411 20.2731
77.6589 401 20.025
77.7755 442 21.0238
77.8921 389 19.7231
78.0088 421 20.5183
78.1256 397 19.9249
78.2423 409 20.2237
78.3591 390 19.7484
78.4759 408 20.199
78.5928 447 21.1424
78.7097 374 19.3391
78.8266 412 20.2978
78.9436 436 20.8806
79.0606 366 19.1311
79.1776 433 20.8087
79.2946 438 20.9284
79.4117 451 21.2368
79.5288 448 21.166
79.6459 470 21.6795
79.7631 440 20.9762
79.8802 425 20.6155
79.9974 429 20.7123
80.1147 446 21.1187
80.2319 435 20.8567
80.3491 428 20.6882
80.4664 441 21
80.5837 435 20.8567
80.701 447 21.1424
80.8183 448 21.166
80.9357 453 21.2838
81.053 415 20.3715
81.1704 394 19.8494
81.2877 416 20.3961
81.4051 463 21.5174
81.5225 414 20.347
81.6399 414 20.347
81.7573 412 20.2978
81.8747 426 20.6398
81.9922 410 20.2485
82.1096 474 21.7715
82.227 402 20.0499
82.3444 419 20.4695
82.4619 420 20.4939
82.5793 430 20.7364
82.6967 410 20.2485
82.8142 441 21
82.9316 449 21.1896
83.049 470 21.6795
83.1664 444 21.0713
83.2838 449 21.1896
83.4012 417 20.4206
83.5186 459 21.4243
83.636 474 21.7715
83.7534 490 22.1359
83.8708 444 21.0713
83.9881 437 20.9045
84.1055 446 21.1187
84.2228 486 22.0454
84.3401 439 20.9523
84.4575 467 21.6102
84.5747 422 20.5426
84.692 448 21.166
84.8093 428 20.6882
84.9265 429 20.7123
85.0437 423 20.567
85.1609 406 20.1494
85.2781 438 20.9284
85.3952 423 20.567
85.5123 445 21.095
85.6294 417 20.4206
85.7465 479 21.8861
85.8636 443 21.0476
85.9806 476 21.8174
86.0976 405 20.1246
86.2145 470 21.6795
86.3315 454 21.3073
86.4484 448 21.166
86.5652 499 22.3383
86.682 448 21.166
86.7988 467 21.6102
86.9156 465 21.5639
87.0323 462 21.4942
87.149 453 21.2838
87.2657 446 21.1187
87.3823 414 20.347
87.4988 461 21.4709
87.6154 437 20.9045
87.7318 428 20.6882
87.8483 428 20.6882
87.9647 389 19.7231
88.081 384 19.5959
88.1973 300 17.3205
88.3136 305 17.4642
88.4298 265 16.2788
88.546 270 16.4317
88.6621 219 14.7986
88.7781 202 14.2127
88.8942 0 1
89.0101 0 1
89.126 0 1
89.2419 0 1
89.3577 0 1
89.4734 0 1
89.5891 0 1
89.7047 0 1
89.8203 0 1
89.9358 0 1
92.3269 0 1
92.4424 0 1
92.558 0 1
92.6736 0 1
92.7893 0 1
92.905 0 1
93.0208 0 1
93.1366 0 1
93.2525 0 1
93.3685 0 1
93.4845 0 1
93.6005 385 19.6214
93.7167 414 20.347
93.8328 401 20.025
93.949 417 20.4206
94.0653 409 20.2237
94.1816 387 19.6723
94.2979 401 20.025
94.4143 398 19.9499
94.5307 370 19.2354
94.6472 421 20.5183
94.7637 420 20.4939
94.8803 455 21.3307
94.9969 404 20.0998
95.1135 443 21.0476
95.2302 456 21.3542
95.3469 467 21.6102
95.4637 483 21.9773
95.5805 420 20.4939
95.6973 450 21.2132
95.8142 500 22.3607
95.9311 492 22.1811
96.048 457 21.3776
96.1649 453 21.2838
96.2819 439 20.9523
96.3989 448 21.166
96.516 482 21.9545
96.633 452 21.2603
96.7501 484 22
96.8673 538 23.1948
96.9844 463 21.5174
97.1016 467 21.6102
97.2188 486 22.0454
97.336 448 21.166
97.4532 434 20.8327
97.5704 427 20.664
97.6877 434 20.8327
97.805 418 20.445
97.9223 374 19.3391
98.0396 417 20.4206
98.1569 421 20.5183
98.2743 429 20.7123
98.3916 456 21.3542
98.509 456 21.3542
98.6264 448 21.166
98.7438 491 22.1585
98.8612 446 21.1187
98.9786 462 21.4942
99.096 500 22.3607
99.2134 480 21.9089
99.3308 488 22.0907
99.4482 466 21.587
99.5656 502 22.4054
99.6831 494 22.2261
99.8005 502 22.4054
99.9179 465 21.5639
100.035 514 22.6716
100.153 488 22.0907
100.27 480 21.9089
100.388 489 22.1133
100.505 467 21.6102
100.622 488 22.0907
100.74 493 22.2036
100.857 481 21.9317
100.975 460 21.4476
101.092 467 21.6102
101.209 456 21.3542
101.327 453 21.2838
101.444 440 20.9762
101.561 449 21.1896
101.679 451 21.2368
101.796 459 21.4243
101.913 470 21.6795
102.03 540 23.2379
102.148 571 23.8956
102.265 537 23.1733
102.382 537 23.1733
102.499 489 22.1133
102.616 460 21.4476
102.733 507 22.5167
102.851 574 23.9583
102.968 531 23.0434
103.085 538 23.1948
103.202 528 22.9783
103.319 556 23.5797
103.436 532 23.0651
103.552 526 22.9347
103.669 614 24.779
103.786 581 24.1039
103.903 595 24.3926
104.02 570 23.8747
104.137 549 23.4307
104.253 552 23.4947
104.37 552 23.4947
104.487 539 23.2164
104.603 523 22.8692
104.72 502 22.4054
104.836 554 23.5372
104.953 497 22.2935
105.069 467 21.6102
105.186 470 21.6795
105.302 446 21.1187
105.418 429 20.7123
105.535 401 20.025
105.651 399 19.975
105.767 317 17.8045
105.883 304 17.4356
105.999 266 16.3095
106.115 0 1
106.231 0 1
106.347 0 1
106.463 0 1
106.579 0 1
106.694 0 1
106.81 0 1
106.926 0 1
107.041 0 1
107.157 0 1
109.576 0 1
109.692 0 1
109.807 0 1
109.923 0 1
110.039 0 1
110.155 0 1
110.27 0 1
110.386 0 1
110.502 0 1
110.618 270 16.4317
110.735 300 17.3205
110.851 377 19.4165
110.967 414 20.347
111.083 504 22.4499
111.199 463 21.5174
111.316 495 22.2486
111.432 522 22.8473
111.549 544 23.3238
111.665 533 23.0868
111.782 525 22.9129
111.898 516 22.7156
112.015 537 23.1733
112.132 535 23.1301
112.248 588 24.2487
112.365 551 23.4734
112.482 576 24
112.599 570 23.8747
112.716 562 23.7065
112.832 622 24.9399
112.949 644 25.3772
113.066 570 23.8747
113.183 583 24.1454
113.3 615 24.7992
113.417 618 24.8596
113.534 583 24.1454
113.652 598 24.454
113.769 625 25
113.886 634 25.1794
114.003 615 24.7992
114.12 748 27.3496
114.238 694 26.3439
114.355 720 26.8328
114.472 669 25.865
114.589 657 25.632
114.707 629 25.0799
114.824 566 23.7908
114.942 521 22.8254
115.059 487 22.0681
115.176 462 21.4942
115.294 455 21.3307
115.411 446 21.1187
115.529 471 21.7025
115.646 432 20.7846
115.764 462 21.4942
115.881 457 21.3776
115.999 446 21.1187
116.116 449 21.1896
116.234 443 21.0476
116.351 462 21.4942
116.469 403 20.0749
116.586 417 20.4206
116.704 400 20
116.821 408 20.199
116.939 397 19.9249
117.056 388 19.6977
117.174 385 19.6214
117.291 386 19.6469
117.409 361 19
117.526 379 19.4679
117.644 382 19.5448
117.761 434 20.8327
117.879 431 20.7605
117.996 419 20.4695
118.114 421 20.5183
118.231 414 20.347
118.349 431 20.7605
118.466 427 20.664
118.584 433 20.8087
118.701 409 20.2237
118.819 383 19.5704
118.936 362 19.0263
119.053 386 19.6469
119.171 398 19.9499
119.288 387 19.6723
119.405 392 19.799
119.523 422 20.5426
119.64 403 20.0749
119.757 427 20.664
119.875 403 20.0749
119.992 410 20.2485
120.109 385 19.6214
120.226 366 19.1311
120.343 401 20.025
120.46 331 18.1934
120.578 357 18.8944
120.695 345 18.5742
120.812 344 18.5472
120.929 366 19.1311
121.046 357 18.8944
121.163 344 18.5472
121.279 330 18.1659
121.396 326 18.0555
121.513 325 18.0278
121.63 345 18.5742
121.747 349 18.6815
121.863 359 18.9473
121.98 343 18.5203
122.097 361 19
122.213 327 18.0831
122.33 286 16.9115
122.446 333 18.2483
122.563 272 16.4924
122.679 258 16.0624
122.795 242 15.5563
122.912 246 15.6844
123.028 217 14.7309
123.144 211 14.5258
123.26 254 15.9374
123.377 0 1
123.493 0 1
123.609 0 1
123.725 0 1
123.84 0 1
123.956 0 1
124.072 0 1
124.188 0 1
124.303 0 1
124.419 0 1
126.852 0 1
126.968 0 1
127.083 0 1
127.199 0 1
127.315 0 1
127.431 0 1
127.547 0 1
127.663 0 1
127.779 0 1
127.895 0 1
128.011 0 1
128.127 0 1
128.243 0 1
128.359 467 21.6102
128.476 461 21.4709
128.592 452 21.2603
128.708 406 20.1494
128.825 458 21.4009
128.941 476 21.8174
129.058 405 20.1246
129.174 472 21.7256
129.291 455 21.3307
129.408 426 20.6398
129.524 440 20.9762
129.641 475 21.7945
129.758 459 21.4243
129.875 424 20.5913
129.992 426 20.6398
130.108 401 20.025
130.225 432 20.7846
130.342 405 20.1246
130.459 464 21.5407
130.576 478 21.8632
130.693 519 22.7816
130.81 524 22.891
130.928 596 24.4131
131.045 524 22.891
131.162 562 23.7065
131.279 579 24.0624
131.396 636 25.219
131.513 669 25.865
131.631 645 25.3969
131.748 670 25.8844
131.865 734 27.0924
131.983 728 26.9815
132.1 830 28.8097
132.217 849 29.1376
132.335 884 29.7321
132.452 914 30.2324
132.57 923 30.3809
132.687 939 30.6431
132.804 1018 31.9061
132.922 984 31.3688
133.039 999 31.607
133.157 981 31.3209
133.274 1012 31.8119
133.392 993 31.5119
133.509 954 30.8869
133.627 1026 32.0312
133.744 961 31
133.862 934 30.5614
133.979 957 30.9354
134.097 1020 31.9374
134.214 1077 32.8177
134.332 1010 31.7805
134.449 1003 31.6702
134.567 1059 32.5423
134.684 974 31.209
134.802 965 31.0644
134.919 1001 31.6386
135.037 980 31.305
135.154 997 31.5753
135.272 950 30.8221
135.389 960 30.9839
135.507 1038 32.218
135.624 1136 33.7046
135.742 1122 33.4963
135.859 1094 33.0757
135.977 1089 33
136.094 1075 32.7872
136.211 1057 32.5115
136.329 1074 32.7719
136.446 1149 33.8969
136.564 1123 33.5112
136.681 1126 33.5559
136.798 1108 33.2866
136.915 1129 33.6006
137.033 1098 33.1361
137.15 1063 32.6037
137.267 993 31.5119
137.384 1028 32.0624
137.502 979 31.289
137.619 1005 31.7017
137.736 1040 32.249
137.853 1013 31.8277
137.97 1065 32.6343
138.087 1077 32.8177
138.204 1161 34.0735
138.321 1079 32.8481
138.438 1053 32.45
138.555 1125 33.541
138.672 1175 34.2783
138.788 1069 32.6956
138.905 980 31.305
139.022 953 30.8707
139.139 1004 31.686
139.255 1112 33.3467
139.372 1016 31.8748
139.488 1051 32.4191
139.605 942 30.692
139.721 863 29.3769
139.838 825 28.7228
139.954 817 28.5832
140.071 719 26.8142
140.187 735 27.1109
140.303 704 26.533
140.419 604 24.5764
140.535 649 25.4755
140.652 622 24.9399
140.768 0 1
140.884 0 1
141 0 1
141.115 0 1
141.231 0 1
141.347 0 1
141.463 0 1
141.578 0 1
141.694 0 1
144.104 0 1
144.219 0 1
144.335 0 1
144.45 0 1
144.566 0 1
144.682 0 1
144.798 0 1
144.914 0 1
145.03 0 1
145.146 838 28.9482
145.262 962 31.0161
145.378 959 30.9677
145.494 961 31
145.61 998 31.5911
145.726 991 31.4802
145.842 971 31.1609
145.959 948 30.7896
146.075 910 30.1662
146.192 922 30.3645
146.308 888 29.7993
146.425 910 30.1662
146.541 1029 32.078
146.658 981 31.3209
146.774 963 31.0322
146.891 936 30.5941
147.008 980 31.305
147.125 913 30.2159
147.241 990 31.4643
147.358 944 30.7246
147.475 943 30.7083
147.592 909 30.1496
147.709 918 30.2985
147.826 860 29.3258
147.943 915 30.249
148.06 905 30.0832
148.177 957 30.9354
148.294 930 30.4959
148.411 1033 32.1403
148.528 967 31.0966
148.645 997 31.5753
148.762 944 30.7246
148.88 940 30.6594
148.997 978 31.273
149.114 983 31.3528
149.231 990 31.4643
149.349 945 30.7409
149.466 1016 31.8748
149.583 1040 32.249
149.701 948 30.7896
149.818 932 30.5287
149.935 945 30.7409
150.053 931 30.5123
150.17 966 31.0805
150.287 985 31.3847
150.405 951 30.8383
150.522 970 31.1448
150.64 894 29.8998
150.757 846 29.0861
150.875 918 30.2985
150.992 898 29.9666
151.11 934 30.5614
151.227 924 30.3974
151.344 860 29.3258
151.462 823 28.688
151.579 786 28.0357
151.697 810 28.4605
151.814 886 29.7658
151.932 927 30.4467
152.049 907 30.1164
152.167 986 31.4006
152.284 930 30.4959
152.402 983 31.3528
152.519 954 30.8869
152.636 957 30.9354
152.754 957 30.9354
152.871 916 30.2655
152.989 892 29.8664
153.106 917 30.282
153.223 913 30.2159
153.341 835 28.8964
153.458 818 28.6007
153.575 772 27.7849
153.693 836 28.9137
153.81 822 28.6705
153.927 819 28.6182
154.044 786 28.0357
154.162 831 28.8271
154.279 707 26.5895
154.396 766 27.6767
154.513 762 27.6043
154.63 767 27.6948
154.747 800 28.2843
154.864 712 26.6833
154.981 706 26.5707
155.098 706 26.5707
155.215 680 26.0768
155.332 659 25.671
155.449 706 26.5707
155.566 670 25.8844
155.683 731 27.037
155.8 734 27.0924
155.917 665 25.7876
156.033 650 25.4951
156.15 0 1
156.267 0 1
156.383 0 1
156.5 0 1
156.617 0 1
156.733 0 1
156.85 0 1
156.966 0 1
157.082 0 1
157.199 0 1
157.315 0 1
157.431 0 1
157.547 0 1
157.664 0 1
157.78 0 1
157.896 0 1
158.012 0 1
158.128 0 1
158.244 0 1
158.359 0 1
158.475 0 1
158.591 0 1
158.706 0 1
