
6.15755 0 1
6.2731 0 1
6.3887 0 1
6.50437 0 1
6.62009 0 1
6.73587 0 1
6.8517 0 1
6.96759 0 1
7.08353 0 1
7.19952 0 1
7.31557 0 1
7.43166 0 1
7.54781 0 1
7.664 0 1
7.78024 0 1
7.89653 0 1
8.01286 0 1
8.12924 0 1
8.24567 0 1
8.36213 0 1
8.47864 0 1
8.59519 0 1
8.71178 0 1
8.82841 0 1
8.94508 0 1
9.06179 0 1
9.17853 0 1
9.29531 0 1
9.41212 0 1
9.52897 0 1
9.64584 0 1
9.76276 0 1
9.8797 0 1
9.99667 0 1
10.1137 0 1
10.2307 0 1
10.3478 0 1
10.4648 0 1
10.5819 0 1
10.6991 0 1
10.8162 0 1
10.9334 0 1
11.0506 0 1
11.1678 0 1
11.285 0 1
11.4023 0 1
11.5196 0 1
11.6369 0 1
11.7542 0 1
11.8715 0 1
11.9888 0 1
12.1062 0 1
12.2235 0 1
12.3409 0 1
12.4582 0 1
12.5756 0 1
12.693 0 1
12.8104 0 1
12.9278 0 1
13.0452 0 1
13.1626 0 1
13.28 0 1
13.3974 0 1
13.5149 0 1
13.6323 0 1
13.7497 0 1
13.8671 0 1
13.9845 0 1
14.1019 0 1
14.2193 0 1
14.3367 0 1
14.4541 0 1
14.5714 0 1
14.6888 0 1
14.8062 0 1
14.9235 0 1
15.0408 0 0
15.1581 0 0
15.2755 0 0
15.3927 0 0
15.51 0 0
15.6273 0 0
15.7445 0 0
15.8617 0 0
15.9789 0 0
16.0961 0 0
16.2132 0 0
16.3304 0 0
16.4475 0 0
16.5646 0 0
16.6816 0 0
16.7986 0 0
16.9156 0 0
17.0326 0 0
17.1496 0 0
17.2665 0 0
17.3833 0 0
17.5002 0 0
17.617 0 0
17.7338 0 0
17.8505 0 0
17.9672 0 0
18.0839 0 0
18.2005 0 0
18.3171 0 0
18.4337 0 0
18.5502 0 0
18.6666 0 0
18.7831 0 0
18.8994 0 0
19.0158 0 0
19.1321 0 0
19.2483 0 0
19.3645 0 0
19.4806 0 0
19.5967 0 0
19.7128 0 0
19.8288 0 0
19.9447 0 0
20.0606 0 1
20.1764 0 1
20.2922 0 1
20.4079 0 1
20.5236 0 1
20.6392 0 1
20.7548 0 1
20.8702 0 1
23.3078 0 1
23.4233 0 1
23.539 0 1
23.6547 0 1
23.7704 0 1
23.8862 0 1
24.0021 0 1
24.118 0 1
24.234 0 1
24.35 0 1
24.4661 371 19.2614
24.5822 453 21.2838
24.6984 482 21.9545
24.8146 570 23.8747
24.9309 534 23.1084
25.0472 663 25.7488
25.1636 694 26.3439
25.28 709 26.6271
25.3965 791 28.1247
25.513 805 28.3725
25.6296 866 29.4279
25.7462 985 31.3847
25.8628 879 29.6479
25.9795 891 29.8496
26.0962 882 29.6985
26.213 867 29.4449
26.3298 819 28.6182
26.4466 827 28.7576
26.5635 814 28.5307
26.6804 807 28.4077
26.7973 784 28
26.9143 814 28.5307
27.0313 820 28.6356
27.1483 812 28.4956
27.2653 908 30.133
27.3824 795 28.1957
27.4996 911 30.1828
27.6167 911 30.1828
27.7339 855 29.2404
27.8511 805 28.3725
27.9683 822 28.6705
28.0855 756 27.4955
28.2028 735 27.1109
28.3201 777 27.8747
28.4374 779 27.9106
28.5547 764 27.6405
28.6721 833 28.8617
28.7894 835 28.8964
28.9068 890 29.8329
29.0242 843 29.0345
29.1416 785 28.0179
29.259 834 28.8791
29.3764 870 29.4958
29.4939 800 28.2843
29.6113 861 29.3428
29.7288 828 28.775
29.8463 810 28.4605
29.9638 814 28.5307
30.0812 809 28.4429
30.1987 819 28.6182
30.3162 818 28.6007
30.4337 849 29.1376
30.5512 840 28.9828
30.6687 935 30.5778
30.7862 804 28.3549
30.9037 878 29.6311
31.0212 883 29.7153
31.1387 860 29.3258
31.2562 854 29.2233
31.3737 873 29.5466
31.4912 818 28.6007
31.6087 842 29.0172
31.7262 715 26.7395
31.8436 783 27.9821
31.9611 745 27.2947
32.0785 824 28.7054
32.1959 828 28.775
32.3134 829 28.7924
32.4308 836 28.9137
32.5482 863 29.3769
32.6655 832 28.8444
32.7829 854 29.2233
32.9002 874 29.5635
33.0176 813 28.5132
33.1349 816 28.5657
33.2522 844 29.0517
33.3694 806 28.3901
33.4867 825 28.7228
33.6039 804 28.3549
33.7211 743 27.258
33.8383 808 28.4253
33.9554 828 28.775
34.0725 821 28.6531
34.1896 835 28.8964
34.3067 849 29.1376
34.4237 839 28.9655
34.5407 930 30.4959
34.6577 880 29.6648
34.7746 891 29.8496
34.8915 836 28.9137
35.0084 807 28.4077
35.1252 771 27.7669
35.242 785 28.0179
35.3587 783 27.9821
35.4755 772 27.7849
35.5921 800 28.2843
35.7088 784 28
35.8254 864 29.3939
35.9419 891 29.8496
36.0584 849 29.1376
36.1749 863 29.3769
36.2913 831 28.8271
36.4077 739 27.1846
36.524 703 26.5141
36.6403 762 27.6043
36.7565 693 26.3249
36.8727 672 25.923
36.9889 641 25.318
37.1049 563 23.7276
37.221 0 1
37.3369 0 1
37.4529 0 1
37.5687 0 1
37.6845 0 1
37.8003 0 1
37.916 0 1
38.0316 0 1
38.1472 0 1
40.5851 0 1
40.7008 0 1
40.8164 0 1
40.9322 0 1
41.048 0 1
41.1639 0 1
41.2798 0 1
41.3958 0 1
41.5118 0 1
41.6279 0 1
41.744 467 21.6102
41.8602 535 23.1301
41.9765 571 23.8956
42.0928 563 23.7276
42.2091 560 23.6643
42.3255 615 24.7992
42.4419 605 24.5967
42.5584 625 25
42.675 710 26.6458
42.7915 638 25.2587
42.9081 707 26.5895
43.0248 756 27.4955
43.1415 785 28.0179
43.2582 816 28.5657
43.375 773 27.8029
43.4918 814 28.5307
43.6087 780 27.9285
43.7256 754 27.4591
43.8425 750 27.3861
43.9595 734 27.0924
44.0765 762 27.6043
44.1935 728 26.9815
44.3106 796 28.2135
44.4277 761 27.5862
44.5448 751 27.4044
44.6619 818 28.6007
44.7791 845 29.0689
44.8963 818 28.6007
45.0136 854 29.2233
45.1308 867 29.4449
45.2481 815 28.5482
45.3654 828 28.775
45.4827 797 28.2312
45.6001 794 28.178
45.7174 806 28.3901
45.8348 740 27.2029
45.9522 751 27.4044
46.0697 727 26.9629
46.1871 749 27.3679
46.3046 786 28.0357
46.422 750 27.3861
46.5395 834 28.8791
46.657 874 29.5635
46.7745 861 29.3428
46.892 843 29.0345
47.0096 886 29.7658
47.1271 938 30.6268
47.2446 959 30.9677
47.3622 893 29.8831
47.4797 862 29.3598
47.5973 850 29.1548
47.7149 870 29.4958
47.8324 835 28.8964
47.95 860 29.3258
48.0675 858 29.2916
48.1851 884 29.7321
48.3027 900 30
48.4202 939 30.6431
48.5378 950 30.8221
48.6554 973 31.1929
48.7729 940 30.6594
48.8904 924 30.3974
49.008 966 31.0805
49.1255 951 30.8383
49.243 827 28.7576
49.3605 818 28.6007
49.478 831 28.8271
49.5955 752 27.4226
49.713 801 28.3019
49.8304 828 28.775
49.9479 860 29.3258
50.0653 917 30.282
50.1827 901 30.0167
50.3001 964 31.0483
50.4175 959 30.9677
50.5348 1018 31.9061
50.6521 1013 31.8277
50.7694 1008 31.749
50.8867 1057 32.5115
51.004 1037 32.2025
51.1212 1056 32.4962
51.2384 992 31.496
51.3556 1013 31.8277
51.4727 911 30.1828
51.5899 944 30.7246
51.707 952 30.8545
51.824 980 31.305
51.9411 1042 32.28
52.0581 1027 32.0468
52.175 1084 32.9242
52.2919 1063 32.6037
52.4088 1034 32.1559
52.5257 1040 32.249
52.6425 1003 31.6702
52.7593 1038 32.218
52.876 966 31.0805
52.9927 933 30.545
53.1094 897 29.95
53.226 792 28.1425
53.3426 844 29.0517
53.4591 865 29.4109
53.5756 857 29.2746
53.692 891 29.8496
53.8084 863 29.3769
53.9248 828 28.775
54.0411 770 27.7489
54.1573 746 27.313
54.2735 0 1
54.3896 0 1
54.5057 0 1
54.6217 0 1
54.7377 0 1
54.8537 0 1
54.9695 0 1
55.0853 0 1
55.2011 0 1
55.3168 0 1
55.4324 0 1
57.824 0 1
57.9396 0 1
58.0553 0 1
58.1711 0 1
58.2869 0 1
58.4028 0 1
58.5187 0 1
58.6347 0 1
58.7508 0 1
58.8669 0 1
58.983 930 30.4959
59.0992 1093 33.0606
59.2155 1144 33.8231
59.3318 1347 36.7015
59.4482 1492 38.6264
59.5646 1520 38.9872
59.681 1566 39.5727
59.7975 1628 40.3485
59.9141 1559 39.4842
60.0306 1530 39.1152
60.1473 1538 39.2173
60.2639 1489 38.5876
60.3807 1585 39.8121
60.4974 1680 40.9878
60.6142 1636 40.4475
60.731 1678 40.9634
60.8479 1672 40.8901
60.9648 1720 41.4729
61.0818 1729 41.5812
61.1987 1663 40.7799
61.3158 1622 40.2741
61.4328 1566 39.5727
61.5499 1625 40.3113
61.667 1516 38.9358
61.7841 1513 38.8973
61.9013 1438 37.921
62.0185 1410 37.55
62.1357 1434 37.8682
62.253 1615 40.1871
62.3702 1736 41.6653
62.4875 1735 41.6533
62.6049 1730 41.5933
62.7222 1816 42.6146
62.8396 1891 43.4856
62.9569 1999 44.7102
63.0743 1935 43.9886
63.1918 1975 44.441
63.3092 1930 43.9318
63.4267 1990 44.6094
63.5441 1836 42.8486
63.6616 1768 42.0476
63.7791 1686 41.0609
63.8966 1653 40.6571
64.0142 1695 41.1704
64.1317 1706 41.3038
64.2492 1907 43.6692
64.3668 1844 42.9418
64.4843 1816 42.6146
64.6019 1790 42.3084
64.7195 1824 42.7083
64.837 1824 42.7083
64.9546 1789 42.2966
65.0722 1669 40.8534
65.1898 1534 39.1663
65.3074 1556 39.4462
65.4249 1518 38.9615
65.5425 1480 38.4708
65.6601 1546 39.3192
65.7777 1537 39.2046
65.8952 1570 39.6232
66.0128 1693 41.1461
66.1304 1861 43.1393
66.2479 1790 42.3084
66.3655 1945 44.1022
66.483 2073 45.5302
66.6005 2032 45.0777
66.718 2037 45.1331
66.8355 2029 45.0444
66.953 2000 44.7214
67.0705 1948 44.1362
67.1879 1850 43.0116
67.3054 1763 41.9881
67.4228 1715 41.4126
67.5402 1703 41.2674
67.6576 1730 41.5933
67.7749 1749 41.821
67.8923 1749 41.821
68.0096 1756 41.9047
68.1269 1816 42.6146
68.2442 1818 42.638
68.3614 1876 43.3128
68.4787 1787 42.2729
68.5958 1755 41.8927
68.713 1735 41.6533
68.8302 1630 40.3733
68.9473 1532 39.1408
69.0643 1343 36.647
69.1814 1363 36.9188
69.2984 1411 37.5633
69.4154 1454 38.1314
69.5323 1610 40.1248
69.6492 1626 40.3237
69.7661 1718 41.4488
69.8829 1791 42.3202
69.9997 1782 42.2137
70.1165 1769 42.0595
70.2332 1810 42.5441
70.3499 1714 41.4005
70.4665 1643 40.5339
70.5831 1558 39.4715
70.6996 1488 38.5746
70.8161 1354 36.7967
70.9326 1172 34.2345
71.049 1039 32.2335
71.1653 880 29.6648
71.2817 853 29.2062
71.3979 817 28.5832
71.5141 811 28.4781
71.6303 767 27.6948
71.7464 672 25.923
71.8624 0 1
71.9784 0 1
72.0944 0 1
72.2102 0 1
72.3261 0 1
72.4418 0 1
72.5575 0 1
72.6732 0 1
75.1054 0 1
75.2209 0 1
75.3365 0 1
75.4521 0 1
75.5678 0 1
75.6835 0 1
75.7993 0 1
75.9151 0 1
76.031 0 1
76.147 1235 35.1426
76.263 1245 35.2846
76.3791 1360 36.8782
76.4952 1326 36.4143
76.6113 1328 36.4417
76.7276 1324 36.3868
76.8438 1399 37.4032
76.9601 1527 39.0768
77.0765 1517 38.9487
77.1929 1596 39.95
77.3093 1515 38.923
77.4258 1561 39.5095
77.5423 1560 39.4968
77.6589 1562 39.5221
77.7755 1482 38.4968
77.8921 1312 36.2215
78.0088 1291 35.9305
78.1256 1160 34.0588
78.2423 1181 34.3657
78.3591 1220 34.9285
78.4759 1260 35.4965
78.5928 1435 37.8814
78.7097 1486 38.5487
78.8266 1610 40.1248
78.9436 1639 40.4846
79.0606 1755 41.8927
79.1776 1786 42.2611
79.2946 1766 42.0238
79.4117 1849 43
79.5288 1846 42.9651
79.6459 1805 42.4853
79.7631 1664 40.7922
79.8802 1667 40.8289
79.9974 1499 38.7169
80.1147 1435 37.8814
80.2319 1398 37.3898
80.3491 1385 37.2156
80.4664 1497 38.6911
80.5837 1578 39.724
80.701 1590 39.8748
80.8183 1608 40.0999
80.9357 1603 40.0375
81.053 1664 40.7922
81.1704 1713 41.3884
81.2877 1588 39.8497
81.4051 1544 39.2938
81.5225 1487 38.5616
81.6399 1430 37.8153
81.7573 1323 36.3731
81.8747 1286 35.8608
81.9922 1202 34.6699
82.1096 1329 36.4555
82.227 1419 37.6696
82.3444 1561 39.5095
82.4619 1687 41.0731
82.5793 1756 41.9047
82.6967 1831 42.7902
82.8142 1817 42.6263
82.9316 1865 43.1856
83.049 1776 42.1426
83.1664 1841 42.9069
83.2838 1863 43.1625
83.4012 1755 41.8927
83.5186 1695 41.1704
83.636 1571 39.6358
83.7534 1531 39.128
83.8708 1428 37.7889
83.9881 1452 38.1051
84.1055 1501 38.7427
84.2228 1559 39.4842
84.3401 1562 39.5221
84.4575 1634 40.4228
84.5747 1722 41.497
84.692 1719 41.4608
84.8093 1724 41.5211
84.9265 1698 41.2068
85.0437 1691 41.1218
85.1609 1534 39.1663
85.2781 1344 36.6606
85.3952 1276 35.7211
85.5123 1203 34.6843
85.6294 1378 37.1214
85.7465 1357 36.8375
85.8636 1445 38.0132
85.9806 1625 40.3113
86.0976 1712 41.3763
86.2145 1807 42.5088
86.3315 1842 42.9185
86.4484 1917 43.7836
86.5652 1887 43.4396
86.682 1819 42.6497
86.7988 1919 43.8064
86.9156 1840 42.8952
87.0323 1779 42.1782
87.149 1695 41.1704
87.2657 1541 39.2556
87.3823 1488 38.5746
87.4988 1384 37.2022
87.6154 1221 34.9428
87.7318 1215 34.8569
87.8483 1224 34.9857
87.9647 1267 35.5949
88.081 1240 35.2136
88.1973 1201 34.6554
88.3136 1252 35.3836
88.4298 1144 33.8231
88.546 1091 33.0303
88.6621 910 30.1662
88.7781 801 28.3019
88.8942 0 1
89.0101 0 1
89.126 0 1
89.2419 0 1
89.3577 0 1
89.4734 0 1
89.5891 0 1
89.7047 0 1
89.8203 0 1
89.9358 0 1
92.3269 0 1
92.4424 0 1
92.558 0 1
92.6736 0 1
92.7893 0 1
92.905 0 1
93.0208 0 1
93.1366 0 1
93.2525 0 1
93.3685 0 1
93.4845 0 1
93.6005 1378 37.1214
93.7167 1475 38.4057
93.8328 1557 39.4588
93.949 1577 39.7115
94.0653 1564 39.5474
94.1816 1628 40.3485
94.2979 1581 39.7618
94.4143 1553 39.4081
94.5307 1452 38.1051
94.6472 1262 35.5246
94.7637 1224 34.9857
94.8803 1367 36.973
94.9969 1415 37.6165
95.1135 1613 40.1622
95.2302 1709 41.3401
95.3469 1812 42.5676
95.4637 1945 44.1022
95.5805 1947 44.1248
95.6973 1928 43.909
95.8142 1974 44.4297
95.9311 1907 43.6692
96.048 1926 43.8862
96.1649 1892 43.4971
96.2819 1832 42.8019
96.3989 1848 42.9884
96.516 1645 40.5586
96.633 1602 40.025
96.7501 1594 39.9249
96.8673 1457 38.1707
96.9844 1561 39.5095
97.1016 1624 40.2989
97.2188 1587 39.8372
97.336 1690 41.1096
97.4532 1803 42.4617
97.5704 1894 43.5201
97.6877 1817 42.6263
97.805 1776 42.1426
97.9223 1770 42.0714
98.0396 1632 40.398
98.1569 1423 37.7227
98.2743 1340 36.606
98.3916 1238 35.1852
98.509 1295 35.9861
98.6264 1398 37.3898
98.7438 1626 40.3237
98.8612 1710 41.3521
98.9786 1855 43.0697
99.096 1965 44.3283
99.2134 2069 45.4863
99.3308 1992 44.6318
99.4482 2124 46.0869
99.5656 2053 45.31
99.6831 2022 44.9667
99.8005 2019 44.9333
99.9179 1963 44.3058
100.035 1846 42.9651
100.153 1756 41.9047
100.27 1635 40.4351
100.388 1625 40.3113
100.505 1527 39.0768
100.622 1616 40.1995
100.74 1667 40.8289
100.857 1838 42.8719
100.975 1765 42.0119
101.092 1894 43.5201
101.209 1927 43.8976
101.327 1962 44.2945
101.444 1823 42.6966
101.561 1793 42.3438
101.679 1610 40.1248
101.796 1513 38.8973
101.913 1352 36.7696
102.03 1303 36.0971
102.148 1426 37.7624
102.265 1591 39.8873
102.382 1807 42.5088
102.499 1924 43.8634
102.616 2078 45.5851
102.733 2075 45.5522
102.851 2100 45.8258
102.968 2193 46.8295
103.085 2175 46.6369
103.202 2194 46.8402
103.319 2082 45.6289
103.436 2018 44.9222
103.552 1953 44.1928
103.669 1816 42.6146
103.786 1623 40.2865
103.903 1637 40.4599
104.02 1610 40.1248
104.137 1638 40.4722
104.253 1747 41.7971
104.37 1745 41.7732
104.487 1902 43.6119
104.603 1950 44.1588
104.72 1885 43.4166
104.836 1715 41.4126
104.953 1681 41
105.069 1558 39.4715
105.186 1369 37
105.302 1198 34.6121
105.418 1019 31.9218
105.535 988 31.4325
105.651 1033 32.1403
105.767 1081 32.8786
105.883 1125 33.541
105.999 1096 33.1059
106.115 0 1
106.231 0 1
106.347 0 1
106.463 0 1
106.579 0 1
106.694 0 1
106.81 0 1
106.926 0 1
107.041 0 1
107.157 0 1
109.576 0 1
109.692 0 1
109.807 0 1
109.923 0 1
110.039 0 1
110.155 0 1
110.27 0 1
110.386 0 1
110.502 0 1
110.618 674 25.9615
110.735 830 28.8097
110.851 1075 32.7872
110.967 1266 35.5809
111.083 1427 37.7757
111.199 1639 40.4846
111.316 1776 42.1426
111.432 1753 41.8688
111.549 1820 42.6615
111.665 1831 42.7902
111.782 1817 42.6263
111.898 1757 41.9166
112.015 1723 41.509
112.132 1623 40.2865
112.248 1606 40.0749
112.365 1482 38.4968
112.482 1369 37
112.599 1449 38.0657
112.716 1451 38.092
112.832 1479 38.4578
112.949 1548 39.3446
113.066 1641 40.5093
113.183 1677 40.9512
113.3 1763 41.9881
113.417 1731 41.6053
113.534 1701 41.2432
113.652 1637 40.4599
113.769 1548 39.3446
113.886 1477 38.4318
114.003 1214 34.8425
114.12 1124 33.5261
114.238 1143 33.8083
114.355 1272 35.6651
114.472 1542 39.2683
114.589 1627 40.3361
114.707 1768 42.0476
114.824 1861 43.1393
114.942 1887 43.4396
115.059 1803 42.4617
115.176 1965 44.3283
115.294 1858 43.1045
115.411 1859 43.1161
115.529 1738 41.6893
115.646 1690 41.1096
115.764 1556 39.4462
115.881 1479 38.4578
115.999 1456 38.1576
116.116 1392 37.3095
116.234 1358 36.8511
116.351 1430 37.8153
116.469 1457 38.1707
116.586 1498 38.704
116.704 1583 39.7869
116.821 1600 40
116.939 1598 39.975
117.056 1595 39.9375
117.174 1647 40.5832
117.291 1556 39.4462
117.409 1527 39.0768
117.526 1308 36.1663
117.644 1138 33.7343
117.761 1093 33.0606
117.879 1134 33.6749
117.996 1329 36.4555
118.114 1560 39.4968
118.231 1591 39.8873
118.349 1687 41.0731
118.466 1816 42.6146
118.584 1738 41.6893
118.701 1797 42.391
118.819 1701 41.2432
118.936 1727 41.5572
119.053 1622 40.2741
119.171 1579 39.7366
119.288 1555 39.4335
119.405 1454 38.1314
119.523 1469 38.3275
119.64 1364 36.9324
119.757 1347 36.7015
119.875 1327 36.428
119.992 1414 37.6032
120.109 1390 37.2827
120.226 1490 38.6005
120.343 1429 37.8021
120.46 1500 38.7298
120.578 1499 38.7169
120.695 1477 38.4318
120.812 1439 37.9342
120.929 1478 38.4448
121.046 1341 36.6197
121.163 1231 35.0856
121.279 1097 33.121
121.396 1020 31.9374
121.513 1026 32.0312
121.63 1104 33.2265
121.747 1200 34.641
121.863 1312 36.2215
121.98 1304 36.1109
122.097 1339 36.5923
122.213 1287 35.8748
122.33 1262 35.5246
122.446 1252 35.3836
122.563 1293 35.9583
122.679 1174 34.2637
122.795 1062 32.5883
122.912 934 30.5614
123.028 904 30.0666
123.144 808 28.4253
123.26 713 26.7021
123.377 0 1
123.493 0 1
123.609 0 1
123.725 0 1
123.84 0 1
123.956 0 1
124.072 0 1
124.188 0 1
124.303 0 1
124.419 0 1
126.852 0 1
126.968 0 1
127.083 0 1
127.199 0 1
127.315 0 1
127.431 0 1
127.547 0 1
127.663 0 1
127.779 0 1
127.895 0 1
128.011 0 1
128.127 0 1
128.243 0 1
128.359 1582 39.7744
128.476 1616 40.1995
128.592 1575 39.6863
128.708 1570 39.6232
128.825 1510 38.8587
128.941 1538 39.2173
129.058 1569 39.6106
129.174 1603 40.0375
129.291 1622 40.2741
129.408 1650 40.6202
129.524 1734 41.6413
129.641 1732 41.6173
129.758 1732 41.6173
129.875 1757 41.9166
129.992 1715 41.4126
130.108 1667 40.8289
130.225 1579 39.7366
130.342 1389 37.2693
130.459 1332 36.4966
130.576 1289 35.9026
130.693 1382 37.1753
130.81 1545 39.3065
130.928 1656 40.694
131.045 1764 42
131.162 1793 42.3438
131.279 1843 42.9302
131.396 1849 43
131.513 1891 43.4856
131.631 1909 43.6921
131.748 1730 41.5933
131.865 1761 41.9643
131.983 1707 41.3159
132.1 1707 41.3159
132.217 1597 39.9625
132.335 1655 40.6817
132.452 1552 39.3954
132.57 1682 41.0122
132.687 1623 40.2865
132.804 1667 40.8289
132.922 1633 40.4104
133.039 1755 41.8927
133.157 1742 41.7373
133.274 1724 41.5211
133.392 1753 41.8688
133.509 1695 41.1704
133.627 1720 41.4729
133.744 1645 40.5586
133.862 1410 37.55
133.979 1391 37.2961
134.097 1319 36.318
134.214 1407 37.51
134.332 1454 38.1314
134.449 1635 40.4351
134.567 1745 41.7732
134.684 1769 42.0595
134.802 1793 42.3438
134.919 1887 43.4396
135.037 1785 42.2493
135.154 1840 42.8952
135.272 1838 42.8719
135.389 1784 42.2374
135.507 1709 41.3401
135.624 1623 40.2865
135.742 1652 40.6448
135.859 1696 41.1825
135.977 1550 39.37
136.094 1702 41.2553
136.211 1689 41.0974
136.329 1659 40.7308
136.446 1640 40.4969
136.564 1729 41.5812
136.681 1728 41.5692
136.798 1782 42.2137
136.915 1802 42.45
137.033 1786 42.2611
137.15 1686 41.0609
137.267 1714 41.4005
137.384 1680 40.9878
137.502 1513 38.8973
137.619 1318 36.3043
137.736 1347 36.7015
137.853 1311 36.2077
137.97 1449 38.0657
138.087 1653 40.6571
138.204 1639 40.4846
138.321 1752 41.8569
138.438 1800 42.4264
138.555 1718 41.4488
138.672 1728 41.5692
138.788 1708 41.328
138.905 1629 40.3609
139.022 1517 38.9487
139.139 1492 38.6264
139.255 1453 38.1182
139.372 1348 36.7151
139.488 1142 33.7935
139.605 1147 33.8674
139.721 1188 34.4674
139.838 1117 33.4215
139.954 1089 33
140.071 1073 32.7567
140.187 1011 31.7962
140.303 907 30.1164
140.419 922 30.3645
140.535 911 30.1828
140.652 856 29.2575
140.768 0 1
140.884 0 1
141 0 1
141.115 0 1
141.231 0 1
141.347 0 1
141.463 0 1
141.578 0 1
141.694 0 1
144.104 0 1
144.219 0 1
144.335 0 1
144.45 0 1
144.566 0 1
144.682 0 1
144.798 0 1
144.914 0 1
145.03 0 1
145.146 1196 34.5832
145.262 1269 35.623
145.378 1324 36.3868
145.494 1356 36.8239
145.61 1329 36.4555
145.726 1336 36.5513
145.842 1371 37.027
145.959 1418 37.6563
146.075 1352 36.7696
146.192 1229 35.0571
146.308 1181 34.3657
146.425 1080 32.8634
146.541 1059 32.5423
146.658 1104 33.2265
146.774 1236 35.1568
146.891 1227 35.0286
147.008 1386 37.229
147.125 1362 36.9053
147.241 1410 37.55
147.358 1406 37.4967
147.475 1421 37.6962
147.592 1449 38.0657
147.709 1416 37.6298
147.826 1298 36.0278
147.943 1332 36.4966
148.06 1364 36.9324
148.177 1266 35.5809
148.294 1348 36.7151
148.411 1274 35.6931
148.528 1302 36.0832
148.645 1279 35.7631
148.762 1357 36.8375
148.88 1310 36.1939
148.997 1377 37.108
149.114 1274 35.6931
149.231 1375 37.081
149.349 1386 37.229
149.466 1339 36.5923
149.583 1435 37.8814
149.701 1356 36.8239
149.818 1376 37.0945
149.935 1201 34.6554
150.053 1163 34.1028
150.17 1080 32.8634
150.287 1036 32.187
150.405 1174 34.2637
150.522 1218 34.8999
150.64 1275 35.7071
150.757 1277 35.7351
150.875 1370 37.0135
150.992 1357 36.8375
151.11 1334 36.524
151.227 1382 37.1753
151.344 1364 36.9324
151.462 1308 36.1663
151.579 1415 37.6165
151.697 1324 36.3868
151.814 1229 35.0571
151.932 1249 35.3412
152.049 1248 35.327
152.167 1261 35.5106
152.284 1305 36.1248
152.402 1319 36.318
152.519 1267 35.5949
152.636 1332 36.4966
152.754 1263 35.5387
152.871 1230 35.0714
152.989 1322 36.3593
153.106 1352 36.7696
153.223 1260 35.4965
153.341 1328 36.4417
153.458 1168 34.176
153.575 1133 33.6601
153.693 1086 32.9545
153.81 1038 32.218
153.927 1042 32.28
154.044 1126 33.5559
154.162 1170 34.2053
154.279 1213 34.8281
154.396 1281 35.7911
154.513 1310 36.1939
154.63 1260 35.4965
154.747 1272 35.6651
154.864 1264 35.5528
154.981 1222 34.9571
155.098 1302 36.0832
155.215 1215 34.8569
155.332 1222 34.9571
155.449 1162 34.0881
155.566 1196 34.5832
155.683 1203 34.6843
155.8 1218 34.8999
155.917 1146 33.8526
156.033 1116 33.4066
156.15 0 1
156.267 0 1
156.383 0 1
156.5 0 1
156.617 0 1
156.733 0 1
156.85 0 1
156.966 0 1
157.082 0 1
157.199 0 1
157.315 0 1
157.431 0 1
157.547 0 1
157.664 0 1
157.78 0 1
157.896 0 1
158.012 0 1
158.128 0 1
158.244 0 1
158.359 0 1
158.475 0 1
158.591 0 1
158.706 0 1
