
6.15755 0 1
6.2731 0 1
6.3887 0 1
6.50437 0 1
6.62009 0 1
6.73587 0 1
6.8517 0 1
6.96759 0 1
7.08353 0 1
7.19952 0 1
7.31557 0 1
7.43166 0 1
7.54781 0 1
7.664 0 1
7.78024 0 1
7.89653 0 1
8.01286 0 1
8.12924 0 1
8.24567 0 1
8.36213 0 1
8.47864 0 1
8.59519 0 1
8.71178 0 1
8.82841 0 1
8.94508 0 1
9.06179 0 1
9.17853 0 1
9.29531 0 1
9.41212 0 1
9.52897 0 1
9.64584 0 1
9.76276 0 1
9.8797 0 1
9.99667 0 1
10.1137 0 1
10.2307 0 1
10.3478 0 1
10.4648 0 1
10.5819 0 1
10.6991 0 1
10.8162 0 1
10.9334 0 1
11.0506 0 1
11.1678 0 1
11.285 0 1
11.4023 0 1
11.5196 0 1
11.6369 0 1
11.7542 0 1
11.8715 0 1
11.9888 0 1
12.1062 0 1
12.2235 0 1
12.3409 0 1
12.4582 0 1
12.5756 0 1
12.693 0 1
12.8104 0 1
12.9278 0 1
13.0452 0 1
13.1626 0 1
13.28 0 1
13.3974 0 1
13.5149 0 1
13.6323 0 1
13.7497 0 1
13.8671 0 1
13.9845 0 1
14.1019 0 1
14.2193 0 1
14.3367 0 1
14.4541 0 1
14.5714 0 1
14.6888 0 1
14.8062 0 1
14.9235 0 1
15.0408 475 21.7945
15.1581 501 22.383
15.2755 544 23.3238
15.3927 577 24.0208
15.51 524 22.891
15.6273 500 22.3607
15.7445 534 23.1084
15.8617 507 22.5167
15.9789 524 22.891
16.0961 511 22.6053
16.2132 513 22.6495
16.3304 532 23.0651
16.4475 515 22.6936
16.5646 536 23.1517
16.6816 579 24.0624
16.7986 590 24.2899
16.9156 591 24.3105
17.0326 587 24.2281
17.1496 599 24.4745
17.2665 562 23.7065
17.3833 540 23.2379
17.5002 559 23.6432
17.617 553 23.516
17.7338 501 22.383
17.8505 465 21.5639
17.9672 459 21.4243
18.0839 488 22.0907
18.2005 485 22.0227
18.3171 506 22.4944
18.4337 570 23.8747
18.5502 516 22.7156
18.6666 531 23.0434
18.7831 569 23.8537
18.8994 555 23.5584
19.0158 549 23.4307
19.1321 496 22.2711
19.2483 507 22.5167
19.3645 472 21.7256
19.4806 433 20.8087
19.5967 413 20.3224
19.7128 345 18.5742
19.8288 286 16.9115
19.9447 264 16.2481
20.0606 0 1
20.1764 0 1
20.2922 0 1
20.4079 0 1
20.5236 0 1
20.6392 0 1
20.7548 0 1
20.8702 0 1
23.3078 0 1
23.4233 0 1
23.539 0 1
23.6547 0 1
23.7704 0 1
23.8862 0 1
24.0021 0 1
24.118 0 1
24.234 0 1
24.35 0 1
24.4661 192 13.8564
24.5822 233 15.2643
24.6984 256 16
24.8146 282 16.7929
24.9309 304 17.4356
25.0472 332 18.2209
25.1636 382 19.5448
25.28 393 19.8242
25.3965 408 20.199
25.513 451 21.2368
25.6296 445 21.095
25.7462 483 21.9773
25.8628 499 22.3383
25.9795 519 22.7816
26.0962 519 22.7816
26.213 481 21.9317
26.3298 454 21.3073
26.4466 428 20.6882
26.5635 429 20.7123
26.6804 391 19.7737
26.7973 408 20.199
26.9143 435 20.8567
27.0313 418 20.445
27.1483 462 21.4942
27.2653 455 21.3307
27.3824 462 21.4942
27.4996 479 21.8861
27.6167 439 20.9523
27.7339 454 21.3073
27.8511 418 20.445
27.9683 426 20.6398
28.0855 391 19.7737
28.2028 411 20.2731
28.3201 371 19.2614
28.4374 395 19.8746
28.5547 370 19.2354
28.6721 390 19.7484
28.7894 407 20.1742
28.9068 426 20.6398
29.0242 434 20.8327
29.1416 443 21.0476
29.259 458 21.4009
29.3764 458 21.4009
29.4939 443 21.0476
29.6113 417 20.4206
29.7288 418 20.445
29.8463 369 19.2094
29.9638 399 19.975
30.0812 398 19.9499
30.1987 359 18.9473
30.3162 396 19.8997
30.4337 387 19.6723
30.5512 431 20.7605
30.6687 436 20.8806
30.7862 427 20.664
30.9037 426 20.6398
31.0212 407 20.1742
31.1387 426 20.6398
31.2562 408 20.199
31.3737 398 19.9499
31.4912 344 18.5472
31.6087 395 19.8746
31.7262 396 19.8997
31.8436 395 19.8746
31.9611 327 18.0831
32.0785 358 18.9209
32.1959 329 18.1384
32.3134 351 18.735
32.4308 366 19.1311
32.5482 398 19.9499
32.6655 411 20.2731
32.7829 448 21.166
32.9002 428 20.6882
33.0176 396 19.8997
33.1349 429 20.7123
33.2522 415 20.3715
33.3694 406 20.1494
33.4867 386 19.6469
33.6039 328 18.1108
33.7211 331 18.1934
33.8383 365 19.105
33.9554 331 18.1934
34.0725 360 18.9737
34.1896 348 18.6548
34.3067 434 20.8327
34.4237 396 19.8997
34.5407 403 20.0749
34.6577 395 19.8746
34.7746 395 19.8746
34.8915 374 19.3391
35.0084 390 19.7484
35.1252 370 19.2354
35.242 401 20.025
35.3587 385 19.6214
35.4755 353 18.7883
35.5921 330 18.1659
35.7088 326 18.0555
35.8254 280 16.7332
35.9419 308 17.5499
36.0584 331 18.1934
36.1749 352 18.7617
36.2913 341 18.4662
36.4077 362 19.0263
36.524 371 19.2614
36.6403 340 18.4391
36.7565 328 18.1108
36.8727 349 18.6815
36.9889 286 16.9115
37.1049 260 16.1245
37.221 0 1
37.3369 0 1
37.4529 0 1
37.5687 0 1
37.6845 0 1
37.8003 0 1
37.916 0 1
38.0316 0 1
38.1472 0 1
40.5851 0 1
40.7008 0 1
40.8164 0 1
40.9322 0 1
41.048 0 1
41.1639 0 1
41.2798 0 1
41.3958 0 1
41.5118 0 1
41.6279 0 1
41.744 191 13.8203
41.8602 233 15.2643
41.9765 193 13.8924
42.0928 252 15.8745
42.2091 245 15.6525
42.3255 217 14.7309
42.4419 226 15.0333
42.5584 192 13.8564
42.675 250 15.8114
42.7915 269 16.4012
42.9081 306 17.4929
43.0248 293 17.1172
43.1415 329 18.1384
43.2582 307 17.5214
43.375 286 16.9115
43.4918 356 18.868
43.6087 308 17.5499
43.7256 339 18.412
43.8425 329 18.1384
43.9595 291 17.0587
44.0765 329 18.1384
44.1935 302 17.3781
44.3106 286 16.9115
44.4277 322 17.9444
44.5448 245 15.6525
44.6619 261 16.1555
44.7791 289 17
44.8963 316 17.7764
45.0136 269 16.4012
45.1308 316 17.7764
45.2481 329 18.1384
45.3654 324 18
45.4827 335 18.303
45.6001 314 17.72
45.7174 322 17.9444
45.8348 314 17.72
45.9522 259 16.0935
46.0697 300 17.3205
46.1871 261 16.1555
46.3046 277 16.6433
46.422 299 17.2916
46.5395 287 16.9411
46.657 321 17.9165
46.7745 311 17.6352
46.892 336 18.3303
47.0096 376 19.3907
47.1271 350 18.7083
47.2446 308 17.5499
47.3622 333 18.2483
47.4797 312 17.6635
47.5973 308 17.5499
47.7149 307 17.5214
47.8324 288 16.9706
47.95 286 16.9115
48.0675 271 16.4621
48.1851 267 16.3401
48.3027 261 16.1555
48.4202 276 16.6132
48.5378 290 17.0294
48.6554 324 18
48.7729 318 17.8326
48.8904 327 18.0831
49.008 322 17.9444
49.1255 364 19.0788
49.243 327 18.0831
49.3605 287 16.9411
49.478 291 17.0587
49.5955 267 16.3401
49.713 260 16.1245
49.8304 260 16.1245
49.9479 263 16.2173
50.0653 283 16.8226
50.1827 290 17.0294
50.3001 294 17.1464
50.4175 298 17.2627
50.5348 340 18.4391
50.6521 366 19.1311
50.7694 334 18.2757
50.8867 307 17.5214
51.004 324 18
51.1212 330 18.1659
51.2384 309 17.5784
51.3556 286 16.9115
51.4727 281 16.7631
51.5899 249 15.7797
51.707 230 15.1658
51.824 275 16.5831
51.9411 268 16.3707
52.0581 283 16.8226
52.175 329 18.1384
52.2919 280 16.7332
52.4088 346 18.6011
52.5257 331 18.1934
52.6425 357 18.8944
52.7593 354 18.8149
52.876 331 18.1934
52.9927 324 18
53.1094 306 17.4929
53.226 298 17.2627
53.3426 242 15.5563
53.4591 257 16.0312
53.5756 255 15.9687
53.692 232 15.2315
53.8084 246 15.6844
53.9248 241 15.5242
54.0411 227 15.0665
54.1573 239 15.4596
54.2735 0 1
54.3896 0 1
54.5057 0 1
54.6217 0 1
54.7377 0 1
54.8537 0 1
54.9695 0 1
55.0853 0 1
55.2011 0 1
55.3168 0 1
55.4324 0 1
57.824 0 1
57.9396 0 1
58.0553 0 1
58.1711 0 1
58.2869 0 1
58.4028 0 1
58.5187 0 1
58.6347 0 1
58.7508 0 1
58.8669 0 1
58.983 204 14.2829
59.0992 259 16.0935
59.2155 274 16.5529
59.3318 292 17.088
59.4482 317 17.8045
59.5646 371 19.2614
59.681 383 19.5704
59.7975 357 18.8944
59.9141 375 19.3649
60.0306 386 19.6469
60.1473 350 18.7083
60.2639 345 18.5742
60.3807 356 18.868
60.4974 327 18.0831
60.6142 353 18.7883
60.731 327 18.0831
60.8479 381 19.5192
60.9648 398 19.9499
61.0818 436 20.8806
61.1987 391 19.7737
61.3158 437 20.9045
61.4328 442 21.0238
61.5499 414 20.347
61.667 388 19.6977
61.7841 358 18.9209
61.9013 322 17.9444
62.0185 340 18.4391
62.1357 349 18.6815
62.253 383 19.5704
62.3702 356 18.868
62.4875 367 19.1572
62.6049 398 19.9499
62.7222 366 19.1311
62.8396 412 20.2978
62.9569 402 20.0499
63.0743 397 19.9249
63.1918 414 20.347
63.3092 401 20.025
63.4267 417 20.4206
63.5441 399 19.975
63.6616 432 20.7846
63.7791 345 18.5742
63.8966 333 18.2483
64.0142 318 17.8326
64.1317 345 18.5742
64.2492 334 18.2757
64.3668 341 18.4662
64.4843 382 19.5448
64.6019 377 19.4165
64.7195 437 20.9045
64.837 394 19.8494
64.9546 394 19.8494
65.0722 386 19.6469
65.1898 409 20.2237
65.3074 356 18.868
65.4249 317 17.8045
65.5425 286 16.9115
65.6601 343 18.5203
65.7777 362 19.0263
65.8952 387 19.6723
66.0128 371 19.2614
66.1304 379 19.4679
66.2479 390 19.7484
66.3655 448 21.166
66.483 385 19.6214
66.6005 425 20.6155
66.718 403 20.0749
66.8355 407 20.1742
66.953 440 20.9762
67.0705 419 20.4695
67.1879 373 19.3132
67.3054 393 19.8242
67.4228 392 19.799
67.5402 323 17.9722
67.6576 335 18.303
67.7749 357 18.8944
67.8923 388 19.6977
68.0096 406 20.1494
68.1269 417 20.4206
68.2442 453 21.2838
68.3614 541 23.2594
68.4787 493 22.2036
68.5958 486 22.0454
68.713 523 22.8692
68.8302 490 22.1359
68.9473 509 22.561
69.0643 505 22.4722
69.1814 494 22.2261
69.2984 500 22.3607
69.4154 532 23.0651
69.5323 575 23.9792
69.6492 606 24.6171
69.7661 648 25.4558
69.8829 616 24.8193
69.9997 658 25.6515
70.1165 670 25.8844
70.2332 690 26.2679
70.3499 630 25.0998
70.4665 675 25.9808
70.5831 610 24.6982
70.6996 557 23.6008
70.8161 546 23.3666
70.9326 574 23.9583
71.049 522 22.8473
71.1653 403 20.0749
71.2817 273 16.5227
71.3979 246 15.6844
71.5141 225 15
71.6303 200 14.1421
71.7464 184 13.5647
71.8624 0 1
71.9784 0 1
72.0944 0 1
72.2102 0 1
72.3261 0 1
72.4418 0 1
72.5575 0 1
72.6732 0 1
75.1054 0 1
75.2209 0 1
75.3365 0 1
75.4521 0 1
75.5678 0 1
75.6835 0 1
75.7993 0 1
75.9151 0 1
76.031 0 1
76.147 323 17.9722
76.263 299 17.2916
76.3791 304 17.4356
76.4952 347 18.6279
76.6113 304 17.4356
76.7276 288 16.9706
76.8438 320 17.8885
76.9601 316 17.7764
77.0765 376 19.3907
77.1929 488 22.0907
77.3093 429 20.7123
77.4258 493 22.2036
77.5423 469 21.6564
77.6589 485 22.0227
77.7755 479 21.8861
77.8921 456 21.3542
78.0088 483 21.9773
78.1256 451 21.2368
78.2423 398 19.9499
78.3591 418 20.445
78.4759 460 21.4476
78.5928 507 22.5167
78.7097 580 24.0832
78.8266 602 24.5357
78.9436 671 25.9037
79.0606 619 24.8797
79.1776 733 27.074
79.2946 727 26.9629
79.4117 759 27.55
79.5288 758 27.5318
79.6459 774 27.8209
79.7631 752 27.4226
79.8802 767 27.6948
79.9974 756 27.4955
80.1147 681 26.096
80.2319 708 26.6083
80.3491 634 25.1794
80.4664 696 26.3818
80.5837 694 26.3439
80.701 755 27.4773
80.8183 861 29.3428
80.9357 861 29.3428
81.053 910 30.1662
81.1704 885 29.7489
81.2877 919 30.315
81.4051 900 30
81.5225 779 27.9106
81.6399 791 28.1247
81.7573 723 26.8887
81.8747 646 25.4165
81.9922 573 23.9374
82.1096 632 25.1396
82.227 652 25.5343
82.3444 718 26.7955
82.4619 752 27.4226
82.5793 741 27.2213
82.6967 762 27.6043
82.8142 800 28.2843
82.9316 746 27.313
83.049 713 26.7021
83.1664 687 26.2107
83.2838 657 25.632
83.4012 691 26.2869
83.5186 687 26.2107
83.636 590 24.2899
83.7534 543 23.3024
83.8708 516 22.7156
83.9881 469 21.6564
84.1055 440 20.9762
84.2228 393 19.8242
84.3401 437 20.9045
84.4575 424 20.5913
84.5747 457 21.3776
84.692 501 22.383
84.8093 452 21.2603
84.9265 428 20.6882
85.0437 435 20.8567
85.1609 414 20.347
85.2781 360 18.9737
85.3952 308 17.5499
85.5123 274 16.5529
85.6294 288 16.9706
85.7465 258 16.0624
85.8636 326 18.0555
85.9806 348 18.6548
86.0976 353 18.7883
86.2145 365 19.105
86.3315 347 18.6279
86.4484 368 19.1833
86.5652 389 19.7231
86.682 402 20.0499
86.7988 349 18.6815
86.9156 420 20.4939
87.0323 367 19.1572
87.149 338 18.3848
87.2657 327 18.0831
87.3823 316 17.7764
87.4988 295 17.1756
87.6154 241 15.5242
87.7318 238 15.4272
87.8483 250 15.8114
87.9647 251 15.843
88.081 291 17.0587
88.1973 298 17.2627
88.3136 268 16.3707
88.4298 287 16.9411
88.546 278 16.6733
88.6621 225 15
88.7781 192 13.8564
88.8942 0 1
89.0101 0 1
89.126 0 1
89.2419 0 1
89.3577 0 1
89.4734 0 1
89.5891 0 1
89.7047 0 1
89.8203 0 1
89.9358 0 1
92.3269 0 1
92.4424 0 1
92.558 0 1
92.6736 0 1
92.7893 0 1
92.905 0 1
93.0208 0 1
93.1366 0 1
93.2525 0 1
93.3685 0 1
93.4845 0 1
93.6005 273 16.5227
93.7167 284 16.8523
93.8328 299 17.2916
93.949 308 17.5499
94.0653 316 17.7764
94.1816 325 18.0278
94.2979 337 18.3576
94.4143 343 18.5203
94.5307 337 18.3576
94.6472 318 17.8326
94.7637 301 17.3494
94.8803 307 17.5214
94.9969 342 18.4932
95.1135 352 18.7617
95.2302 373 19.3132
95.3469 369 19.2094
95.4637 381 19.5192
95.5805 478 21.8632
95.6973 423 20.567
95.8142 421 20.5183
95.9311 415 20.3715
96.048 440 20.9762
96.1649 421 20.5183
96.2819 419 20.4695
96.3989 399 19.975
96.516 409 20.2237
96.633 381 19.5192
96.7501 373 19.3132
96.8673 329 18.1384
96.9844 336 18.3303
97.1016 366 19.1311
97.2188 387 19.6723
97.336 401 20.025
97.4532 424 20.5913
97.5704 423 20.567
97.6877 447 21.1424
97.805 407 20.1742
97.9223 450 21.2132
98.0396 416 20.3961
98.1569 378 19.4422
98.2743 356 18.868
98.3916 375 19.3649
98.509 386 19.6469
98.6264 405 20.1246
98.7438 370 19.2354
98.8612 429 20.7123
98.9786 431 20.7605
99.096 463 21.5174
99.2134 459 21.4243
99.3308 449 21.1896
99.4482 447 21.1424
99.5656 467 21.6102
99.6831 454 21.3073
99.8005 426 20.6398
99.9179 426 20.6398
100.035 446 21.1187
100.153 428 20.6882
100.27 423 20.567
100.388 374 19.3391
100.505 347 18.6279
100.622 354 18.8149
100.74 352 18.7617
100.857 372 19.2873
100.975 435 20.8567
101.092 456 21.3542
101.209 433 20.8087
101.327 461 21.4709
101.444 457 21.3776
101.561 437 20.9045
101.679 358 18.9209
101.796 331 18.1934
101.913 341 18.4662
102.03 329 18.1384
102.148 300 17.3205
102.265 380 19.4936
102.382 395 19.8746
102.499 404 20.0998
102.616 419 20.4695
102.733 404 20.0998
102.851 458 21.4009
102.968 422 20.5426
103.085 394 19.8494
103.202 411 20.2731
103.319 385 19.6214
103.436 432 20.7846
103.552 423 20.567
103.669 402 20.0499
103.786 380 19.4936
103.903 333 18.2483
104.02 319 17.8606
104.137 307 17.5214
104.253 351 18.735
104.37 398 19.9499
104.487 501 22.383
104.603 477 21.8403
104.72 485 22.0227
104.836 473 21.7486
104.953 475 21.7945
105.069 425 20.6155
105.186 448 21.166
105.302 432 20.7846
105.418 395 19.8746
105.535 391 19.7737
105.651 389 19.7231
105.767 428 20.6882
105.883 426 20.6398
105.999 421 20.5183
106.115 0 1
106.231 0 1
106.347 0 1
106.463 0 1
106.579 0 1
106.694 0 1
106.81 0 1
106.926 0 1
107.041 0 1
107.157 0 1
109.576 0 1
109.692 0 1
109.807 0 1
109.923 0 1
110.039 0 1
110.155 0 1
110.27 0 1
110.386 0 1
110.502 0 1
110.618 272 16.4924
110.735 381 19.5192
110.851 451 21.2368
110.967 464 21.5407
111.083 566 23.7908
111.199 601 24.5153
111.316 686 26.1916
111.432 711 26.6646
111.549 750 27.3861
111.665 743 27.258
111.782 743 27.258
111.898 762 27.6043
112.015 800 28.2843
112.132 786 28.0357
112.248 708 26.6083
112.365 656 25.6125
112.482 530 23.0217
112.599 539 23.2164
112.716 525 22.9129
112.832 619 24.8797
112.949 688 26.2298
113.066 714 26.7208
113.183 813 28.5132
113.3 782 27.9643
113.417 776 27.8568
113.534 758 27.5318
113.652 768 27.7128
113.769 708 26.6083
113.886 602 24.5357
114.003 582 24.1247
114.12 596 24.4131
114.238 644 25.3772
114.355 626 25.02
114.472 667 25.8263
114.589 736 27.1293
114.707 688 26.2298
114.824 639 25.2784
114.942 682 26.1151
115.059 619 24.8797
115.176 608 24.6577
115.294 585 24.1868
115.411 556 23.5797
115.529 521 22.8254
115.646 536 23.1517
115.764 517 22.7376
115.881 465 21.5639
115.999 441 21
116.116 359 18.9473
116.234 407 20.1742
116.351 386 19.6469
116.469 403 20.0749
116.586 436 20.8806
116.704 496 22.2711
116.821 426 20.6398
116.939 457 21.3776
117.056 457 21.3776
117.174 415 20.3715
117.291 460 21.4476
117.409 375 19.3649
117.526 392 19.799
117.644 345 18.5742
117.761 344 18.5472
117.879 390 19.7484
117.996 389 19.7231
118.114 398 19.9499
118.231 419 20.4695
118.349 418 20.445
118.466 414 20.347
118.584 401 20.025
118.701 431 20.7605
118.819 396 19.8997
118.936 362 19.0263
119.053 373 19.3132
119.171 388 19.6977
119.288 337 18.3576
119.405 334 18.2757
119.523 317 17.8045
119.64 315 17.7482
119.757 282 16.7929
119.875 266 16.3095
119.992 289 17
120.109 299 17.2916
120.226 296 17.2047
120.343 328 18.1108
120.46 331 18.1934
120.578 302 17.3781
120.695 329 18.1384
120.812 289 17
120.929 289 17
121.046 278 16.6733
121.163 272 16.4924
121.279 235 15.3297
121.396 228 15.0997
121.513 250 15.8114
121.63 255 15.9687
121.747 240 15.4919
121.863 270 16.4317
121.98 228 15.0997
122.097 263 16.2173
122.213 256 16
122.33 259 16.0935
122.446 244 15.6205
122.563 245 15.6525
122.679 221 14.8661
122.795 203 14.2478
122.912 157 12.53
123.028 149 12.2066
123.144 138 11.7473
123.26 131 11.4455
123.377 0 1
123.493 0 1
123.609 0 1
123.725 0 1
123.84 0 1
123.956 0 1
124.072 0 1
124.188 0 1
124.303 0 1
124.419 0 1
126.852 0 1
126.968 0 1
127.083 0 1
127.199 0 1
127.315 0 1
127.431 0 1
127.547 0 1
127.663 0 1
127.779 0 1
127.895 0 1
128.011 0 1
128.127 0 1
128.243 0 1
128.359 373 19.3132
128.476 347 18.6279
128.592 389 19.7231
128.708 435 20.8567
128.825 370 19.2354
128.941 351 18.735
129.058 387 19.6723
129.174 438 20.9284
129.291 442 21.0238
129.408 454 21.3073
129.524 452 21.2603
129.641 454 21.3073
129.758 503 22.4277
129.875 464 21.5407
129.992 417 20.4206
130.108 357 18.8944
130.225 334 18.2757
130.342 360 18.9737
130.459 377 19.4165
130.576 352 18.7617
130.693 432 20.7846
130.81 405 20.1246
130.928 479 21.8861
131.045 459 21.4243
131.162 454 21.3073
131.279 515 22.6936
131.396 482 21.9545
131.513 451 21.2368
131.631 454 21.3073
131.748 460 21.4476
131.865 455 21.3307
131.983 423 20.567
132.1 453 21.2838
132.217 422 20.5426
132.335 393 19.8242
132.452 412 20.2978
132.57 403 20.0749
132.687 421 20.5183
132.804 403 20.0749
132.922 458 21.4009
133.039 459 21.4243
133.157 482 21.9545
133.274 445 21.095
133.392 441 21
133.509 443 21.0476
133.627 364 19.0788
133.744 386 19.6469
133.862 341 18.4662
133.979 334 18.2757
134.097 373 19.3132
134.214 392 19.799
134.332 414 20.347
134.449 424 20.5913
134.567 425 20.6155
134.684 419 20.4695
134.802 450 21.2132
134.919 418 20.445
135.037 424 20.5913
135.154 444 21.0713
135.272 423 20.567
135.389 435 20.8567
135.507 429 20.7123
135.624 421 20.5183
135.742 401 20.025
135.859 392 19.799
135.977 393 19.8242
136.094 371 19.2614
136.211 406 20.1494
136.329 381 19.5192
136.446 404 20.0998
136.564 419 20.4695
136.681 446 21.1187
136.798 411 20.2731
136.915 431 20.7605
137.033 434 20.8327
137.15 393 19.8242
137.267 354 18.8149
137.384 333 18.2483
137.502 309 17.5784
137.619 323 17.9722
137.736 363 19.0526
137.853 367 19.1572
137.97 433 20.8087
138.087 428 20.6882
138.204 421 20.5183
138.321 398 19.9499
138.438 421 20.5183
138.555 446 21.1187
138.672 392 19.799
138.788 398 19.9499
138.905 370 19.2354
139.022 377 19.4165
139.139 342 18.4932
139.255 317 17.8045
139.372 308 17.5499
139.488 286 16.9115
139.605 261 16.1555
139.721 239 15.4596
139.838 255 15.9687
139.954 232 15.2315
140.071 254 15.9374
140.187 249 15.7797
140.303 214 14.6287
140.419 182 13.4907
140.535 190 13.784
140.652 169 13
140.768 0 1
140.884 0 1
141 0 1
141.115 0 1
141.231 0 1
141.347 0 1
141.463 0 1
141.578 0 1
141.694 0 1
144.104 0 1
144.219 0 1
144.335 0 1
144.45 0 1
144.566 0 1
144.682 0 1
144.798 0 1
144.914 0 1
145.03 0 1
145.146 177 13.3041
145.262 211 14.5258
145.378 216 14.6969
145.494 235 15.3297
145.61 237 15.3948
145.726 230 15.1658
145.842 191 13.8203
145.959 236 15.3623
146.075 193 13.8924
146.192 184 13.5647
146.308 200 14.1421
146.425 190 13.784
146.541 168 12.9615
146.658 195 13.9642
146.774 227 15.0665
146.891 207 14.3875
147.008 209 14.4568
147.125 228 15.0997
147.241 215 14.6629
147.358 220 14.8324
147.475 214 14.6287
147.592 260 16.1245
147.709 268 16.3707
147.826 246 15.6844
147.943 217 14.7309
148.06 199 14.1067
148.177 216 14.6969
148.294 206 14.3527
148.411 223 14.9332
148.528 238 15.4272
148.645 251 15.843
148.762 258 16.0624
148.88 244 15.6205
148.997 298 17.2627
149.114 269 16.4012
149.231 263 16.2173
149.349 257 16.0312
149.466 298 17.2627
149.583 256 16
149.701 252 15.8745
149.818 225 15
149.935 211 14.5258
150.053 196 14
150.17 221 14.8661
150.287 251 15.843
150.405 217 14.7309
150.522 241 15.5242
150.64 280 16.7332
150.757 242 15.5563
150.875 270 16.4317
150.992 284 16.8523
151.11 268 16.3707
151.227 285 16.8819
151.344 262 16.1864
151.462 226 15.0333
151.579 246 15.6844
151.697 233 15.2643
151.814 250 15.8114
151.932 225 15
152.049 230 15.1658
152.167 238 15.4272
152.284 249 15.7797
152.402 260 16.1245
152.519 282 16.7929
152.636 231 15.1987
152.754 278 16.6733
152.871 261 16.1555
152.989 251 15.843
153.106 239 15.4596
153.223 258 16.0624
153.341 231 15.1987
153.458 213 14.5945
153.575 195 13.9642
153.693 217 14.7309
153.81 257 16.0312
153.927 237 15.3948
154.044 236 15.3623
154.162 246 15.6844
154.279 263 16.2173
154.396 259 16.0935
154.513 252 15.8745
154.63 263 16.2173
154.747 255 15.9687
154.864 267 16.3401
154.981 233 15.2643
155.098 257 16.0312
155.215 231 15.1987
155.332 213 14.5945
155.449 221 14.8661
155.566 204 14.2829
155.683 226 15.0333
155.8 226 15.0333
155.917 243 15.5885
156.033 218 14.7648
156.15 0 1
156.267 0 1
156.383 0 1
156.5 0 1
156.617 0 1
156.733 0 1
156.85 0 1
156.966 0 1
157.082 0 1
157.199 0 1
157.315 0 1
157.431 0 1
157.547 0 1
157.664 0 1
157.78 0 1
157.896 0 1
158.012 0 1
158.128 0 1
158.244 0 1
158.359 0 1
158.475 0 1
158.591 0 1
158.706 0 1
