
6.15755 0 1
6.2731 0 1
6.3887 0 1
6.50437 0 1
6.62009 0 1
6.73587 0 1
6.8517 0 1
6.96759 0 1
7.08353 0 1
7.19952 0 1
7.31557 0 1
7.43166 0 1
7.54781 0 1
7.664 0 1
7.78024 0 1
7.89653 0 1
8.01286 0 1
8.12924 0 1
8.24567 0 1
8.36213 0 1
8.47864 0 1
8.59519 0 1
8.71178 0 1
8.82841 0 1
8.94508 0 1
9.06179 0 1
9.17853 0 1
9.29531 0 1
9.41212 0 1
9.52897 0 1
9.64584 0 1
9.76276 0 1
9.8797 0 1
9.99667 0 1
10.1137 0 1
10.2307 0 1
10.3478 0 1
10.4648 0 1
10.5819 0 1
10.6991 0 1
10.8162 0 1
10.9334 0 1
11.0506 0 1
11.1678 0 1
11.285 0 1
11.4023 0 1
11.5196 0 1
11.6369 0 1
11.7542 0 1
11.8715 0 1
11.9888 0 1
12.1062 0 1
12.2235 0 1
12.3409 0 1
12.4582 0 1
12.5756 0 1
12.693 0 1
12.8104 0 1
12.9278 0 1
13.0452 0 1
13.1626 0 1
13.28 0 1
13.3974 0 1
13.5149 0 1
13.6323 0 1
13.7497 0 1
13.8671 0 1
13.9845 0 1
14.1019 0 1
14.2193 0 1
14.3367 0 1
14.4541 0 1
14.5714 0 1
14.6888 0 1
14.8062 0 1
14.9235 0 1
15.0408 0 0
15.1581 0 0
15.2755 0 0
15.3927 0 0
15.51 0 0
15.6273 0 0
15.7445 0 0
15.8617 0 0
15.9789 0 0
16.0961 0 0
16.2132 0 0
16.3304 0 0
16.4475 0 0
16.5646 0 0
16.6816 0 0
16.7986 0 0
16.9156 0 0
17.0326 0 0
17.1496 0 0
17.2665 0 0
17.3833 0 0
17.5002 0 0
17.617 0 0
17.7338 0 0
17.8505 0 0
17.9672 0 0
18.0839 0 0
18.2005 0 0
18.3171 0 0
18.4337 0 0
18.5502 0 0
18.6666 0 0
18.7831 0 0
18.8994 0 0
19.0158 0 0
19.1321 0 0
19.2483 0 0
19.3645 0 0
19.4806 0 0
19.5967 0 0
19.7128 0 0
19.8288 0 0
19.9447 0 0
20.0606 0 1
20.1764 0 1
20.2922 0 1
20.4079 0 1
20.5236 0 1
20.6392 0 1
20.7548 0 1
20.8702 0 1
23.3078 0 1
23.4233 0 1
23.539 0 1
23.6547 0 1
23.7704 0 1
23.8862 0 1
24.0021 0 1
24.118 0 1
24.234 0 1
24.35 0 1
24.4661 4980 70.5691
24.5822 5179 71.9653
24.6984 5098 71.4003
24.8146 5048 71.0493
24.9309 4968 70.484
25.0472 4961 70.4344
25.1636 5116 71.5262
25.28 5208 72.1665
25.3965 5367 73.2598
25.513 5494 74.1215
25.6296 5809 76.2168
25.7462 5891 76.7529
25.8628 6018 77.5758
25.9795 6018 77.5758
26.0962 6039 77.711
26.213 5907 76.857
26.3298 5839 76.4133
26.4466 5534 74.3909
26.5635 5235 72.3533
26.6804 5196 72.0833
26.7973 5184 72
26.9143 5214 72.208
27.0313 5492 74.108
27.1483 5511 74.2361
27.2653 5621 74.9733
27.3824 5627 75.0133
27.4996 5801 76.1643
27.6167 5613 74.92
27.7339 5549 74.4916
27.8511 5490 74.0945
27.9683 5325 72.9726
28.0855 5269 72.5879
28.2028 5194 72.0694
28.3201 4986 70.6116
28.4374 4968 70.484
28.5547 4915 70.1071
28.6721 4868 69.7711
28.7894 4943 70.3065
28.9068 5045 71.0282
29.0242 5219 72.2426
29.1416 5469 73.9527
29.259 5552 74.5117
29.3764 5758 75.8815
29.4939 5743 75.7826
29.6113 5772 75.9737
29.7288 5750 75.8288
29.8463 5579 74.6927
29.9638 5283 72.6842
30.0812 5143 71.7147
30.1987 4848 69.6276
30.3162 4844 69.5989
30.4337 4957 70.406
30.5512 5214 72.208
30.6687 5289 72.7255
30.7862 5345 73.1095
30.9037 5604 74.8599
31.0212 5405 73.5187
31.1387 5584 74.7262
31.2562 5578 74.686
31.3737 5444 73.7835
31.4912 5431 73.6953
31.6087 5191 72.0486
31.7262 5137 71.6729
31.8436 5032 70.9366
31.9611 4943 70.3065
32.0785 4996 70.6824
32.1959 4995 70.6753
32.3134 4947 70.3349
32.4308 5053 71.0845
32.5482 5207 72.1595
32.6655 5601 74.8398
32.7829 5667 75.2795
32.9002 5767 75.9408
33.0176 5719 75.6241
33.1349 5650 75.1665
33.2522 5636 75.0733
33.3694 5914 76.9025
33.4867 5509 74.2226
33.6039 5319 72.9315
33.7211 5039 70.9859
33.8383 4832 69.5126
33.9554 4694 68.5128
34.0725 4808 69.3397
34.1896 4943 70.3065
34.3067 5065 71.1688
34.4237 5236 72.3602
34.5407 5357 73.1915
34.6577 5522 74.3102
34.7746 5454 73.8512
34.8915 5624 74.9933
35.0084 5377 73.328
35.1252 5275 72.6292
35.242 5201 72.118
35.3587 4988 70.6258
35.4755 5012 70.7955
35.5921 4909 70.0643
35.7088 4839 69.5629
35.8254 4808 69.3397
35.9419 4704 68.5857
36.0584 4882 69.8713
36.1749 4932 70.2282
36.2913 5150 71.7635
36.4077 5252 72.4707
36.524 5378 73.3348
36.6403 5535 74.3976
36.7565 5573 74.6525
36.8727 5580 74.6994
36.9889 5640 75.0999
37.1049 5312 72.8835
37.221 0 1
37.3369 0 1
37.4529 0 1
37.5687 0 1
37.6845 0 1
37.8003 0 1
37.916 0 1
38.0316 0 1
38.1472 0 1
40.5851 0 1
40.7008 0 1
40.8164 0 1
40.9322 0 1
41.048 0 1
41.1639 0 1
41.2798 0 1
41.3958 0 1
41.5118 0 1
41.6279 0 1
41.744 4325 65.7647
41.8602 4440 66.6333
41.9765 4499 67.0746
42.0928 4598 67.8086
42.2091 4548 67.4389
42.3255 4168 64.56
42.4419 4018 63.3877
42.5584 3734 61.1065
42.675 3452 58.7537
42.7915 3641 60.3407
42.9081 3870 62.2093
43.0248 4079 63.867
43.1415 4139 64.3351
43.2582 4277 65.3988
43.375 4307 65.6277
43.4918 4403 66.3551
43.6087 4244 65.146
43.7256 4144 64.3739
43.8425 4146 64.3894
43.9595 4017 63.3798
44.0765 3902 62.466
44.1935 3850 62.0484
44.3106 3613 60.1082
44.4277 3576 59.7997
44.5448 3467 58.8812
44.6619 3322 57.6368
44.7791 3389 58.2151
44.8963 3496 59.127
45.0136 3633 60.2744
45.1308 3787 61.5386
45.2481 3784 61.5142
45.3654 3859 62.1208
45.4827 3811 61.7333
45.6001 3703 60.8523
45.7174 3735 61.1146
45.8348 3400 58.3095
45.9522 3333 57.7321
46.0697 3034 55.0818
46.1871 2848 53.3667
46.3046 2841 53.301
46.422 2820 53.1037
46.5395 3095 55.6327
46.657 3321 57.6281
46.7745 3202 56.5862
46.892 3295 57.4021
47.0096 3337 57.7668
47.1271 3309 57.5239
47.2446 3184 56.4269
47.3622 3162 56.2317
47.4797 3118 55.8391
47.5973 3005 54.8179
47.7149 2820 53.1037
47.8324 2764 52.5738
47.95 2775 52.6783
48.0675 2659 51.5655
48.1851 2471 49.7092
48.3027 2541 50.4083
48.4202 2573 50.7247
48.5378 2667 51.643
48.6554 2811 53.0189
48.7729 2989 54.6717
48.8904 2862 53.4977
49.008 2961 54.4151
49.1255 2897 53.8238
49.243 2819 53.0943
49.3605 2662 51.5946
49.478 2525 50.2494
49.5955 2188 46.7761
49.713 2233 47.2546
49.8304 2214 47.0532
49.9479 2395 48.9387
50.0653 2673 51.7011
50.1827 2750 52.4404
50.3001 2914 53.9815
50.4175 3011 54.8726
50.5348 2963 54.4334
50.6521 3116 55.8211
50.7694 3210 56.6569
50.8867 3207 56.6304
51.004 3137 56.0089
51.1212 3105 55.7225
51.2384 3184 56.4269
51.3556 3066 55.3715
51.4727 3104 55.7136
51.5899 3041 55.1453
51.707 3092 55.6058
51.824 3183 56.4181
51.9411 3368 58.0345
52.0581 3623 60.1914
52.175 3792 61.5792
52.2919 3962 62.9444
52.4088 4052 63.6553
52.5257 4166 64.5446
52.6425 4143 64.3661
52.7593 4204 64.8383
52.876 4051 63.6475
52.9927 3829 61.8789
53.1094 3573 59.7746
53.226 3337 57.7668
53.3426 3179 56.3826
53.4591 3395 58.2666
53.5756 3694 60.7783
53.692 3954 62.8808
53.8084 4226 65.0077
53.9248 4483 66.9552
54.0411 4379 66.174
54.1573 4631 68.0515
54.2735 0 1
54.3896 0 1
54.5057 0 1
54.6217 0 1
54.7377 0 1
54.8537 0 1
54.9695 0 1
55.0853 0 1
55.2011 0 1
55.3168 0 1
55.4324 0 1
57.824 0 1
57.9396 0 1
58.0553 0 1
58.1711 0 1
58.2869 0 1
58.4028 0 1
58.5187 0 1
58.6347 0 1
58.7508 0 1
58.8669 0 1
58.983 5012 70.7955
59.0992 5295 72.7668
59.2155 5423 73.641
59.3318 5580 74.6994
59.4482 5600 74.8331
59.5646 5511 74.2361
59.681 5667 75.2795
59.7975 5409 73.5459
59.9141 5321 72.9452
60.0306 5030 70.9225
60.1473 4922 70.157
60.2639 4788 69.1954
60.3807 4596 67.7938
60.4974 4750 68.9202
60.6142 4865 69.7496
60.731 5069 71.1969
60.8479 5049 71.0563
60.9648 5141 71.7008
61.0818 5247 72.4362
61.1987 5172 71.9166
61.3158 4979 70.562
61.4328 4970 70.4982
61.5499 4566 67.5722
61.667 4189 64.7225
61.7841 4044 63.5925
61.9013 3768 61.384
62.0185 3970 63.0079
62.1357 4129 64.2573
62.253 4356 66
62.3702 4692 68.4982
62.4875 4662 68.2788
62.6049 4876 69.8284
62.7222 4985 70.6045
62.8396 4915 70.1071
62.9569 5067 71.1829
63.0743 4916 70.1142
63.1918 4807 69.3325
63.3092 4726 68.7459
63.4267 4740 68.8477
63.5441 4614 67.9264
63.6616 4488 66.9925
63.7791 4078 63.8592
63.8966 4169 64.5678
64.0142 4247 65.169
64.1317 4352 65.9697
64.2492 4504 67.1118
64.3668 4562 67.5426
64.4843 4751 68.9275
64.6019 4746 68.8912
64.7195 4729 68.7677
64.837 4660 68.2642
64.9546 4493 67.0298
65.0722 4220 64.9615
65.1898 3826 61.8547
65.3074 3660 60.4979
65.4249 3309 57.5239
65.5425 3314 57.5674
65.6601 3604 60.0333
65.7777 3915 62.57
65.8952 4188 64.7148
66.0128 4377 66.1589
66.1304 4453 66.7308
66.2479 4633 68.0661
66.3655 4609 67.8896
66.483 4601 67.8307
66.6005 4826 69.4694
66.718 4788 69.1954
66.8355 4790 69.2098
66.953 4595 67.7864
67.0705 4374 66.1362
67.1879 4238 65.0999
67.3054 4096 64
67.4228 3855 62.0886
67.5402 4021 63.4114
67.6576 4121 64.195
67.7749 4321 65.7343
67.8923 4534 67.335
68.0096 4780 69.1375
68.1269 4758 68.9783
68.2442 4768 69.0507
68.3614 4909 70.0643
68.4787 4989 70.6329
68.5958 4742 68.8622
68.713 4515 67.1937
68.8302 4299 65.5668
68.9473 3888 62.3538
69.0643 3909 62.522
69.1814 4005 63.2851
69.2984 4388 66.242
69.4154 4754 68.9493
69.5323 5119 71.5472
69.6492 5418 73.6071
69.7661 5700 75.4983
69.8829 6153 78.4411
69.9997 6243 79.0127
70.1165 6421 80.1311
70.2332 6710 81.9146
70.3499 6589 81.1727
70.4665 6644 81.5107
70.5831 6710 81.9146
70.6996 6682 81.7435
70.8161 6347 79.6681
70.9326 6321 79.5047
71.049 6080 77.9744
71.1653 5982 77.3434
71.2817 6061 77.8524
71.3979 6400 80
71.5141 6700 81.8535
71.6303 6905 83.0963
71.7464 6351 79.6932
71.8624 0 1
71.9784 0 1
72.0944 0 1
72.2102 0 1
72.3261 0 1
72.4418 0 1
72.5575 0 1
72.6732 0 1
75.1054 0 1
75.2209 0 1
75.3365 0 1
75.4521 0 1
75.5678 0 1
75.6835 0 1
75.7993 0 1
75.9151 0 1
76.031 0 1
76.147 6787 82.3833
76.263 6932 83.2586
76.3791 6585 81.148
76.4952 6417 80.1062
76.6113 6370 79.8123
76.7276 6756 82.1949
76.8438 6984 83.5703
76.9601 7469 86.4234
77.0765 7195 84.8233
77.1929 7244 85.1117
77.3093 7214 84.9353
77.4258 7073 84.1011
77.5423 6497 80.604
77.6589 6080 77.9744
77.7755 5526 74.3371
77.8921 4892 69.9428
78.0088 4287 65.4752
78.1256 4064 63.7495
78.2423 4037 63.5374
78.3591 4452 66.7233
78.4759 4807 69.3325
78.5928 5111 71.4913
78.7097 5217 72.2288
78.8266 5312 72.8835
78.9436 5572 74.6458
79.0606 5533 74.3841
79.1776 5429 73.6817
79.2946 5306 72.8423
79.4117 5259 72.519
79.5288 5145 71.7287
79.6459 5066 71.1758
79.7631 4730 68.775
79.8802 4444 66.6633
79.9974 4289 65.4905
80.1147 4097 64.0078
80.2319 3934 62.7216
80.3491 4224 64.9923
80.4664 4366 66.0757
80.5837 4589 67.7422
80.701 4431 66.5658
80.8183 4363 66.053
80.9357 4554 67.4833
81.053 4479 66.9253
81.1704 4367 66.0833
81.2877 4148 64.405
81.4051 3905 62.49
81.5225 3585 59.8749
81.6399 3066 55.3715
81.7573 2967 54.4702
81.8747 2915 53.9907
81.9922 3169 56.2939
82.1096 3607 60.0583
82.227 3694 60.7783
82.3444 3839 61.9597
82.4619 4106 64.0781
82.5793 4241 65.123
82.6967 4210 64.8845
82.8142 4316 65.6963
82.9316 4359 66.0227
83.049 4238 65.0999
83.1664 4233 65.0615
83.2838 4121 64.195
83.4012 3913 62.554
83.5186 3921 62.6179
83.636 3635 60.291
83.7534 3571 59.7578
83.8708 3410 58.3952
83.9881 3702 60.8441
84.1055 3990 63.1664
84.2228 4334 65.8331
84.3401 4473 66.8805
84.4575 4535 67.3424
84.5747 4663 68.2862
84.692 4586 67.72
84.8093 4489 67
84.9265 4134 64.2962
85.0437 3766 61.3677
85.1609 3546 59.5483
85.2781 3221 56.7539
85.3952 3207 56.6304
85.5123 3522 59.3464
85.6294 3943 62.7933
85.7465 4265 65.307
85.8636 4726 68.7459
85.9806 4771 69.0724
86.0976 5048 71.0493
86.2145 5137 71.6729
86.3315 5436 73.7292
86.4484 5804 76.184
86.5652 5656 75.2064
86.682 5658 75.2197
86.7988 5607 74.8799
86.9156 5568 74.619
87.0323 5529 74.3572
87.149 5122 71.5681
87.2657 5019 70.8449
87.3823 5028 70.9084
87.4988 5089 71.3372
87.6154 5404 73.5119
87.7318 5853 76.5049
87.8483 5999 77.4532
87.9647 5915 76.909
88.081 5996 77.4338
88.1973 6069 77.9038
88.3136 5988 77.3822
88.4298 5398 73.4711
88.546 5077 71.2531
88.6621 4686 68.4544
88.7781 4376 66.1513
88.8942 0 1
89.0101 0 1
89.126 0 1
89.2419 0 1
89.3577 0 1
89.4734 0 1
89.5891 0 1
89.7047 0 1
89.8203 0 1
89.9358 0 1
92.3269 0 1
92.4424 0 1
92.558 0 1
92.6736 0 1
92.7893 0 1
92.905 0 1
93.0208 0 1
93.1366 0 1
93.2525 0 1
93.3685 0 1
93.4845 0 1
93.6005 5504 74.1889
93.7167 5336 73.0479
93.8328 5281 72.6705
93.949 4739 68.8404
94.0653 4355 65.9924
94.1816 4095 63.9922
94.2979 3859 62.1208
94.4143 3842 61.9839
94.5307 3741 61.1637
94.6472 4126 64.2339
94.7637 4326 65.7723
94.8803 4567 67.5796
94.9969 4900 70
95.1135 5101 71.4213
95.2302 5222 72.2634
95.3469 5065 71.1688
95.4637 5388 73.403
95.5805 5321 72.9452
95.6973 5360 73.212
95.8142 5346 73.1163
95.9311 5122 71.5681
96.048 5111 71.4913
96.1649 5099 71.4073
96.2819 4880 69.857
96.3989 4555 67.4907
96.516 4465 66.8207
96.633 4377 66.1589
96.7501 4649 68.1836
96.8673 4967 70.4769
96.9844 5084 71.3022
97.1016 5095 71.3793
97.2188 5239 72.3809
97.336 5138 71.6798
97.4532 4967 70.4769
97.5704 4712 68.644
97.6877 4305 65.6125
97.805 3935 62.7296
97.9223 3751 61.2454
98.0396 3546 59.5483
98.1569 3482 59.0085
98.2743 3731 61.0819
98.3916 4017 63.3798
98.509 4380 66.1816
98.6264 4508 67.1416
98.7438 4903 70.0214
98.8612 5032 70.9366
98.9786 5179 71.9653
99.096 5183 71.9931
99.2134 5337 73.0548
99.3308 5484 74.054
99.4482 5313 72.8903
99.5656 5230 72.3187
99.6831 5258 72.5121
99.8005 4920 70.1427
99.9179 4760 68.9928
100.035 4593 67.7717
100.153 4598 67.8086
100.27 4716 68.6731
100.388 4954 70.3847
100.505 5282 72.6774
100.622 5221 72.2565
100.74 5237 72.3671
100.857 5323 72.9589
100.975 5136 71.6659
101.092 4931 70.2211
101.209 4689 68.4763
101.327 4183 64.6761
101.444 3929 62.6817
101.561 3738 61.1392
101.679 3604 60.0333
101.796 3681 60.6712
101.913 3999 63.2376
102.03 4381 66.1891
102.148 4711 68.6367
102.265 5320 72.9383
102.382 4738 68.8331
102.499 5306 72.8423
102.616 5346 73.1163
102.733 5564 74.5922
102.851 5538 74.4177
102.968 5514 74.2563
103.085 5572 74.6458
103.202 5406 73.5255
103.319 5283 72.6842
103.436 4990 70.6399
103.552 4969 70.4911
103.669 4849 69.6348
103.786 4993 70.6612
103.903 5330 73.0068
104.02 5492 74.108
104.137 5587 74.7462
104.253 5779 76.0197
104.37 5477 74.0068
104.487 5645 75.1332
104.603 5413 73.5731
104.72 4946 70.3278
104.836 4536 67.3498
104.953 4197 64.7843
105.069 4111 64.1171
105.186 3883 62.3137
105.302 4084 63.9062
105.418 4455 66.7458
105.535 4880 69.857
105.651 5105 71.4493
105.767 5312 72.8835
105.883 5723 75.6505
105.999 5713 75.5844
106.115 0 1
106.231 0 1
106.347 0 1
106.463 0 1
106.579 0 1
106.694 0 1
106.81 0 1
106.926 0 1
107.041 0 1
107.157 0 1
109.576 0 1
109.692 0 1
109.807 0 1
109.923 0 1
110.039 0 1
110.155 0 1
110.27 0 1
110.386 0 1
110.502 0 1
110.618 4677 68.3886
110.735 5154 71.7914
110.851 5264 72.5534
110.967 5425 73.6546
111.083 5484 74.054
111.199 5580 74.6994
111.316 5834 76.3806
111.432 5788 76.0789
111.549 5691 75.4387
111.665 5678 75.3525
111.782 5504 74.1889
111.898 5391 73.4234
112.015 5169 71.8958
112.132 4911 70.0785
112.248 4909 70.0643
112.365 5190 72.0417
112.482 5425 73.6546
112.599 5521 74.3034
112.716 5438 73.7428
112.832 5580 74.6994
112.949 5450 73.8241
113.066 5364 73.2393
113.183 5120 71.5542
113.3 4727 68.7532
113.417 4426 66.5282
113.534 4106 64.0781
113.652 3850 62.0484
113.769 3614 60.1166
113.886 3845 62.0081
114.003 4160 64.4981
114.12 4612 67.9117
114.238 4778 69.1231
114.355 5116 71.5262
114.472 5282 72.6774
114.589 4954 70.3847
114.707 5322 72.952
114.824 5497 74.1418
114.942 5528 74.3505
115.059 5480 74.027
115.176 5422 73.6342
115.294 5456 73.8647
115.411 5298 72.7874
115.529 5039 70.9859
115.646 4953 70.3776
115.764 5052 71.0774
115.881 4870 69.7854
115.999 5217 72.2288
116.116 5320 72.9383
116.234 5554 74.5252
116.351 5612 74.9133
116.469 5443 73.7767
116.586 5549 74.4916
116.704 5188 72.0278
116.821 5004 70.739
116.939 4678 68.3959
117.056 4295 65.5362
117.174 4159 64.4903
117.291 3937 62.7455
117.409 3836 61.9355
117.526 4220 64.9615
117.644 4437 66.6108
117.761 4581 67.6831
117.879 4957 70.406
117.996 5134 71.6519
118.114 5319 72.9315
118.231 5441 73.7631
118.349 5434 73.7157
118.466 5468 73.9459
118.584 5536 74.4043
118.701 5608 74.8866
118.819 5646 75.1399
118.936 5422 73.6342
119.053 5337 73.0548
119.171 5149 71.7565
119.288 4980 70.5691
119.405 4947 70.3349
119.523 5099 71.4073
119.64 5337 73.0548
119.757 5445 73.7902
119.875 5480 74.027
119.992 5494 74.1215
120.109 5515 74.263
120.226 5451 73.8309
120.343 5287 72.7118
120.46 5125 71.5891
120.578 4788 69.1954
120.695 4376 66.1513
120.812 4317 65.7039
120.929 4063 63.7417
121.046 3910 62.53
121.163 4050 63.6396
121.279 4321 65.7343
121.396 4638 68.1029
121.513 4904 70.0286
121.63 5002 70.7248
121.747 5271 72.6017
121.863 5284 72.6911
121.98 5398 73.4711
122.097 5454 73.8512
122.213 5468 73.9459
122.33 5665 75.2662
122.446 5606 74.8732
122.563 5555 74.5319
122.679 5289 72.7255
122.795 5298 72.7874
122.912 5142 71.7077
123.028 5089 71.3372
123.144 4871 69.7925
123.26 4969 70.4911
123.377 0 1
123.493 0 1
123.609 0 1
123.725 0 1
123.84 0 1
123.956 0 1
124.072 0 1
124.188 0 1
124.303 0 1
124.419 0 1
126.852 0 1
126.968 0 1
127.083 0 1
127.199 0 1
127.315 0 1
127.431 0 1
127.547 0 1
127.663 0 1
127.779 0 1
127.895 0 1
128.011 0 1
128.127 0 1
128.243 0 1
128.359 6013 77.5435
128.476 6204 78.7655
128.592 6427 80.1686
128.708 6703 81.8719
128.825 6532 80.8208
128.941 6854 82.7889
129.058 6894 83.0301
129.174 6751 82.1645
129.291 6705 81.8841
129.408 6206 78.7782
129.524 5709 75.5579
129.641 5631 75.04
129.758 5306 72.8423
129.875 4971 70.5053
129.992 4860 69.7137
130.108 5094 71.3723
130.225 5329 73
130.342 5442 73.7699
130.459 5781 76.0329
130.576 6204 78.7655
130.693 6230 78.9303
130.81 6262 79.1328
130.928 6401 80.0062
131.045 6530 80.8084
131.162 6477 80.4798
131.279 6663 81.6272
131.396 6556 80.9691
131.513 6449 80.3057
131.631 6445 80.2808
131.748 6405 80.0312
131.865 6199 78.7337
131.983 6189 78.6702
132.1 6375 79.8436
132.217 6555 80.963
132.335 6698 81.8413
132.452 6674 81.6946
132.57 6735 82.067
132.687 6427 80.1686
132.804 6887 82.988
132.922 6281 79.2528
133.039 6011 77.5306
133.157 5849 76.4788
133.274 5312 72.8835
133.392 5102 71.4283
133.509 4974 70.5266
133.627 5045 71.0282
133.744 5202 72.1249
133.862 5490 74.0945
133.979 5558 74.552
134.097 5850 76.4853
134.214 5903 76.831
134.332 6023 77.608
134.449 6087 78.0192
134.567 6311 79.4418
134.684 6330 79.5613
134.802 6609 81.2958
134.919 6592 81.1911
135.037 6376 79.8499
135.154 6259 79.1138
135.272 6173 78.5684
135.389 6082 77.9872
135.507 6118 78.2176
135.624 6108 78.1537
135.742 6385 79.9062
135.859 6488 80.5481
135.977 6631 81.431
136.094 6538 80.8579
136.211 6586 81.1542
136.329 6536 80.8455
136.446 6486 80.5357
136.564 6040 77.7174
136.681 5896 76.7854
136.798 5706 75.5381
136.915 5178 71.9583
137.033 5086 71.3162
137.15 4896 69.9714
137.267 4994 70.6682
137.384 5101 71.4213
137.502 5303 72.8217
137.619 5601 74.8398
137.736 5818 76.2758
137.853 5811 76.2299
137.97 6062 77.8588
138.087 5897 76.7919
138.204 6313 79.4544
138.321 6431 80.1935
138.438 6421 80.1311
138.555 6529 80.8022
138.672 6464 80.399
138.788 6275 79.2149
138.905 6213 78.8226
139.022 6234 78.9557
139.139 6184 78.6384
139.255 6201 78.7464
139.372 6587 81.1603
139.488 6646 81.523
139.605 6721 81.9817
139.721 6625 81.3941
139.838 6751 82.1645
139.954 6844 82.7285
140.071 6526 80.7837
140.187 6391 79.9437
140.303 6066 77.8845
140.419 5753 75.8485
140.535 5388 73.403
140.652 5214 72.208
140.768 0 1
140.884 0 1
141 0 1
141.115 0 1
141.231 0 1
141.347 0 1
141.463 0 1
141.578 0 1
141.694 0 1
144.104 0 1
144.219 0 1
144.335 0 1
144.45 0 1
144.566 0 1
144.682 0 1
144.798 0 1
144.914 0 1
145.03 0 1
145.146 6010 77.5242
145.262 5965 77.2334
145.378 5489 74.0878
145.494 5533 74.3841
145.61 5202 72.1249
145.726 5076 71.2461
145.842 4891 69.9357
145.959 5131 71.631
146.075 5178 71.9583
146.192 5568 74.619
146.308 5559 74.5587
146.425 5683 75.3857
146.541 5773 75.9803
146.658 6021 77.5951
146.774 6083 77.9936
146.891 6059 77.8396
147.008 6283 79.2654
147.125 6362 79.7621
147.241 6277 79.2275
147.358 6115 78.1985
147.475 6128 78.2815
147.592 6064 77.8717
147.709 5937 77.0519
147.826 6101 78.1089
147.943 6114 78.1921
148.06 6195 78.7083
148.177 6148 78.4092
148.294 6259 79.1138
148.411 6436 80.2247
148.528 6406 80.0375
148.645 6354 79.712
148.762 6163 78.5048
148.88 5823 76.3086
148.997 5555 74.5319
149.114 5557 74.5453
149.231 5348 73.13
149.349 5042 71.007
149.466 4820 69.4262
149.583 4895 69.9643
149.701 4957 70.406
149.818 5012 70.7955
149.935 5171 71.9097
150.053 5243 72.4086
150.17 5326 72.9794
150.287 5549 74.4916
150.405 5498 74.1485
150.522 5745 75.7958
150.64 5793 76.1118
150.757 5857 76.531
150.875 5935 77.039
150.992 5776 76
151.11 5654 75.1931
151.227 5696 75.4718
151.344 5437 73.736
151.462 5367 73.2598
151.579 5710 75.5645
151.697 5951 77.1427
151.814 6006 77.4984
151.932 6157 78.4666
152.049 6097 78.0833
152.167 6012 77.5371
152.284 6107 78.1473
152.402 5919 76.935
152.519 5770 75.9605
152.636 5506 74.2024
152.754 5338 73.0616
152.871 5091 71.3512
152.989 4790 69.2098
153.106 4741 68.8549
153.223 4773 69.0869
153.341 4902 70.0143
153.458 4956 70.3989
153.575 5055 71.0985
153.693 5203 72.1318
153.81 5261 72.5328
153.927 5402 73.4983
154.044 5464 73.9189
154.162 5671 75.306
154.279 5749 75.8222
154.396 5941 77.0779
154.513 6058 77.8332
154.63 6093 78.0577
154.747 5949 77.1298
154.864 5914 76.9025
154.981 5631 75.04
155.098 5816 76.2627
155.215 5952 77.1492
155.332 6035 77.6853
155.449 5922 76.9545
155.566 6141 78.3645
155.683 6219 78.8606
155.8 6086 78.0128
155.917 6228 78.9177
156.033 6068 77.8974
156.15 0 1
156.267 0 1
156.383 0 1
156.5 0 1
156.617 0 1
156.733 0 1
156.85 0 1
156.966 0 1
157.082 0 1
157.199 0 1
157.315 0 1
157.431 0 1
157.547 0 1
157.664 0 1
157.78 0 1
157.896 0 1
158.012 0 1
158.128 0 1
158.244 0 1
158.359 0 1
158.475 0 1
158.591 0 1
158.706 0 1
