
6.15755 0 1
6.2731 0 1
6.3887 0 1
6.50437 0 1
6.62009 0 1
6.73587 0 1
6.8517 0 1
6.96759 0 1
7.08353 0 1
7.19952 0 1
7.31557 0 1
7.43166 0 1
7.54781 0 1
7.664 0 1
7.78024 0 1
7.89653 0 1
8.01286 0 1
8.12924 0 1
8.24567 0 1
8.36213 0 1
8.47864 0 1
8.59519 0 1
8.71178 0 1
8.82841 0 1
8.94508 0 1
9.06179 0 1
9.17853 0 1
9.29531 0 1
9.41212 0 1
9.52897 0 1
9.64584 0 1
9.76276 0 1
9.8797 0 1
9.99667 0 1
10.1137 0 1
10.2307 0 1
10.3478 0 1
10.4648 0 1
10.5819 0 1
10.6991 0 1
10.8162 0 1
10.9334 0 1
11.0506 0 1
11.1678 0 1
11.285 0 1
11.4023 0 1
11.5196 0 1
11.6369 0 1
11.7542 0 1
11.8715 0 1
11.9888 0 1
12.1062 0 1
12.2235 0 1
12.3409 0 1
12.4582 0 1
12.5756 0 1
12.693 0 1
12.8104 0 1
12.9278 0 1
13.0452 0 1
13.1626 0 1
13.28 0 1
13.3974 0 1
13.5149 0 1
13.6323 0 1
13.7497 0 1
13.8671 0 1
13.9845 0 1
14.1019 0 1
14.2193 0 1
14.3367 0 1
14.4541 0 1
14.5714 0 1
14.6888 0 1
14.8062 0 1
14.9235 0 1
15.0408 0 0
15.1581 0 0
15.2755 0 0
15.3927 0 0
15.51 0 0
15.6273 0 0
15.7445 0 0
15.8617 0 0
15.9789 0 0
16.0961 0 0
16.2132 0 0
16.3304 0 0
16.4475 0 0
16.5646 0 0
16.6816 0 0
16.7986 0 0
16.9156 0 0
17.0326 0 0
17.1496 0 0
17.2665 0 0
17.3833 0 0
17.5002 0 0
17.617 0 0
17.7338 0 0
17.8505 0 0
17.9672 0 0
18.0839 0 0
18.2005 0 0
18.3171 0 0
18.4337 0 0
18.5502 0 0
18.6666 0 0
18.7831 0 0
18.8994 0 0
19.0158 0 0
19.1321 0 0
19.2483 0 0
19.3645 0 0
19.4806 0 0
19.5967 0 0
19.7128 0 0
19.8288 0 0
19.9447 0 0
20.0606 0 1
20.1764 0 1
20.2922 0 1
20.4079 0 1
20.5236 0 1
20.6392 0 1
20.7548 0 1
20.8702 0 1
23.3078 0 1
23.4233 0 1
23.539 0 1
23.6547 0 1
23.7704 0 1
23.8862 0 1
24.0021 0 1
24.118 0 1
24.234 0 1
24.35 0 1
24.4661 1148 33.8821
24.5822 1226 35.0143
24.6984 1152 33.9411
24.8146 1193 34.5398
24.9309 1259 35.4824
25.0472 1260 35.4965
25.1636 1209 34.7707
25.28 1246 35.2987
25.3965 1237 35.171
25.513 1231 35.0856
25.6296 1350 36.7423
25.7462 1372 37.0405
25.8628 1358 36.8511
25.9795 1425 37.7492
26.0962 1432 37.8418
26.213 1498 38.704
26.3298 1424 37.7359
26.4466 1463 38.2492
26.5635 1421 37.6962
26.6804 1331 36.4829
26.7973 1301 36.0694
26.9143 1251 35.3695
27.0313 1272 35.6651
27.1483 1407 37.51
27.2653 1397 37.3765
27.3824 1439 37.9342
27.4996 1369 37
27.6167 1436 37.8946
27.7339 1399 37.4032
27.8511 1397 37.3765
27.9683 1466 38.2884
28.0855 1366 36.9594
28.2028 1501 38.7427
28.3201 1428 37.7889
28.4374 1403 37.4566
28.5547 1366 36.9594
28.6721 1347 36.7015
28.7894 1414 37.6032
28.9068 1375 37.081
29.0242 1380 37.1484
29.1416 1487 38.5616
29.259 1455 38.1445
29.3764 1520 38.9872
29.4939 1549 39.3573
29.6113 1533 39.1535
29.7288 1492 38.6264
29.8463 1540 39.2428
29.9638 1545 39.3065
30.0812 1439 37.9342
30.1987 1393 37.3229
30.3162 1359 36.8646
30.4337 1248 35.327
30.5512 1298 36.0278
30.6687 1370 37.0135
30.7862 1352 36.7696
30.9037 1402 37.4433
31.0212 1376 37.0945
31.1387 1402 37.4433
31.2562 1349 36.7287
31.3737 1287 35.8748
31.4912 1458 38.1838
31.6087 1371 37.027
31.7262 1378 37.1214
31.8436 1387 37.2424
31.9611 1405 37.4833
32.0785 1221 34.9428
32.1959 1230 35.0714
32.3134 1257 35.4542
32.4308 1253 35.3977
32.5482 1290 35.9166
32.6655 1218 34.8999
32.7829 1362 36.9053
32.9002 1323 36.3731
33.0176 1330 36.4692
33.1349 1328 36.4417
33.2522 1334 36.524
33.3694 1351 36.756
33.4867 1341 36.6197
33.6039 1292 35.9444
33.7211 1290 35.9166
33.8383 1277 35.7351
33.9554 1211 34.7994
34.0725 1149 33.8969
34.1896 1125 33.541
34.3067 1224 34.9857
34.4237 1242 35.242
34.5407 1217 34.8855
34.6577 1246 35.2987
34.7746 1217 34.8855
34.8915 1137 33.7194
35.0084 1210 34.7851
35.1252 1185 34.4238
35.242 1250 35.3553
35.3587 1224 34.9857
35.4755 1235 35.1426
35.5921 1245 35.2846
35.7088 1156 34
35.8254 1145 33.8378
35.9419 1187 34.4529
36.0584 1158 34.0294
36.1749 1133 33.6601
36.2913 1199 34.6266
36.4077 1184 34.4093
36.524 1226 35.0143
36.6403 1245 35.2846
36.7565 1222 34.9571
36.8727 1317 36.2905
36.9889 1267 35.5949
37.1049 1260 35.4965
37.221 0 1
37.3369 0 1
37.4529 0 1
37.5687 0 1
37.6845 0 1
37.8003 0 1
37.916 0 1
38.0316 0 1
38.1472 0 1
40.5851 0 1
40.7008 0 1
40.8164 0 1
40.9322 0 1
41.048 0 1
41.1639 0 1
41.2798 0 1
41.3958 0 1
41.5118 0 1
41.6279 0 1
41.744 1011 31.7962
41.8602 1054 32.4654
41.9765 1064 32.619
42.0928 1064 32.619
42.2091 1061 32.573
42.3255 1136 33.7046
42.4419 1089 33
42.5584 1063 32.6037
42.675 997 31.5753
42.7915 944 30.7246
42.9081 944 30.7246
43.0248 930 30.4959
43.1415 933 30.545
43.2582 984 31.3688
43.375 935 30.5778
43.4918 997 31.5753
43.6087 971 31.1609
43.7256 993 31.5119
43.8425 904 30.0666
43.9595 878 29.6311
44.0765 923 30.3809
44.1935 925 30.4138
44.3106 901 30.0167
44.4277 889 29.8161
44.5448 829 28.7924
44.6619 748 27.3496
44.7791 831 28.8271
44.8963 785 28.0179
45.0136 781 27.9464
45.1308 799 28.2666
45.2481 841 29
45.3654 842 29.0172
45.4827 877 29.6142
45.6001 864 29.3939
45.7174 829 28.7924
45.8348 910 30.1662
45.9522 819 28.6182
46.0697 826 28.7402
46.1871 788 28.0713
46.3046 802 28.3196
46.422 721 26.8514
46.5395 691 26.2869
46.657 706 26.5707
46.7745 718 26.7955
46.892 752 27.4226
47.0096 761 27.5862
47.1271 759 27.55
47.2446 753 27.4408
47.3622 744 27.2764
47.4797 695 26.3629
47.5973 708 26.6083
47.7149 668 25.8457
47.8324 687 26.2107
47.95 669 25.865
48.0675 636 25.219
48.1851 656 25.6125
48.3027 672 25.923
48.4202 612 24.7386
48.5378 592 24.3311
48.6554 632 25.1396
48.7729 692 26.3059
48.8904 641 25.318
49.008 695 26.3629
49.1255 634 25.1794
49.243 636 25.219
49.3605 645 25.3969
49.478 639 25.2784
49.5955 683 26.1343
49.713 668 25.8457
49.8304 593 24.3516
49.9479 601 24.5153
50.0653 599 24.4745
50.1827 642 25.3377
50.3001 611 24.7184
50.4175 677 26.0192
50.5348 704 26.533
50.6521 680 26.0768
50.7694 726 26.9444
50.8867 711 26.6646
51.004 718 26.7955
51.1212 716 26.7582
51.2384 711 26.6646
51.3556 722 26.8701
51.4727 782 27.9643
51.5899 748 27.3496
51.707 746 27.313
51.824 771 27.7669
51.9411 789 28.0891
52.0581 812 28.4956
52.175 878 29.6311
52.2919 903 30.05
52.4088 851 29.1719
52.5257 916 30.2655
52.6425 968 31.1127
52.7593 923 30.3809
52.876 930 30.4959
52.9927 960 30.9839
53.1094 908 30.133
53.226 1035 32.1714
53.3426 1009 31.7648
53.4591 916 30.2655
53.5756 948 30.7896
53.692 826 28.7402
53.8084 828 28.775
53.9248 941 30.6757
54.0411 996 31.5595
54.1573 1023 31.9844
54.2735 0 1
54.3896 0 1
54.5057 0 1
54.6217 0 1
54.7377 0 1
54.8537 0 1
54.9695 0 1
55.0853 0 1
55.2011 0 1
55.3168 0 1
55.4324 0 1
57.824 0 1
57.9396 0 1
58.0553 0 1
58.1711 0 1
58.2869 0 1
58.4028 0 1
58.5187 0 1
58.6347 0 1
58.7508 0 1
58.8669 0 1
58.983 988 31.4325
59.0992 1078 32.8329
59.2155 1121 33.4813
59.3318 1197 34.5977
59.4482 1159 34.0441
59.5646 1175 34.2783
59.681 1118 33.4365
59.7975 1180 34.3511
59.9141 1050 32.4037
60.0306 1115 33.3916
60.1473 1068 32.6803
60.2639 1067 32.665
60.3807 1035 32.1714
60.4974 1024 32
60.6142 1069 32.6956
60.731 1084 32.9242
60.8479 1086 32.9545
60.9648 1101 33.1813
61.0818 1050 32.4037
61.1987 1139 33.7491
61.3158 1144 33.8231
61.4328 1096 33.1059
61.5499 1032 32.1248
61.667 1134 33.6749
61.7841 1127 33.5708
61.9013 1006 31.7175
62.0185 1049 32.3883
62.1357 945 30.7409
62.253 915 30.249
62.3702 947 30.7734
62.4875 1001 31.6386
62.6049 1019 31.9218
62.7222 1016 31.8748
62.8396 1068 32.6803
62.9569 1073 32.7567
63.0743 1075 32.7872
63.1918 1091 33.0303
63.3092 960 30.9839
63.4267 942 30.692
63.5441 953 30.8707
63.6616 981 31.3209
63.7791 1016 31.8748
63.8966 982 31.3369
64.0142 904 30.0666
64.1317 982 31.3369
64.2492 1035 32.1714
64.3668 996 31.5595
64.4843 941 30.6757
64.6019 962 31.0161
64.7195 1041 32.2645
64.837 1034 32.1559
64.9546 1036 32.187
65.0722 995 31.5436
65.1898 977 31.257
65.3074 947 30.7734
65.4249 905 30.0832
65.5425 910 30.1662
65.6601 917 30.282
65.7777 853 29.2062
65.8952 883 29.7153
66.0128 903 30.05
66.1304 919 30.315
66.2479 986 31.4006
66.3655 1035 32.1714
66.483 1046 32.3419
66.6005 994 31.5278
66.718 1048 32.3728
66.8355 1070 32.7109
66.953 951 30.8383
67.0705 927 30.4467
67.1879 875 29.5804
67.3054 892 29.8664
67.4228 961 31
67.5402 937 30.6105
67.6576 878 29.6311
67.7749 928 30.4631
67.8923 958 30.9516
68.0096 941 30.6757
68.1269 931 30.5123
68.2442 977 31.257
68.3614 994 31.5278
68.4787 993 31.5119
68.5958 981 31.3209
68.713 1074 32.7719
68.8302 1036 32.187
68.9473 1093 33.0606
69.0643 1021 31.9531
69.1814 995 31.5436
69.2984 942 30.692
69.4154 938 30.6268
69.5323 945 30.7409
69.6492 951 30.8383
69.7661 1022 31.9687
69.8829 1030 32.0936
69.9997 1126 33.5559
70.1165 1155 33.9853
70.2332 1074 32.7719
70.3499 1125 33.541
70.4665 1064 32.619
70.5831 1089 33
70.6996 944 30.7246
70.8161 946 30.7571
70.9326 908 30.133
71.049 974 31.209
71.1653 985 31.3847
71.2817 897 29.95
71.3979 962 31.0161
71.5141 923 30.3809
71.6303 942 30.692
71.7464 902 30.0333
71.8624 0 1
71.9784 0 1
72.0944 0 1
72.2102 0 1
72.3261 0 1
72.4418 0 1
72.5575 0 1
72.6732 0 1
75.1054 0 1
75.2209 0 1
75.3365 0 1
75.4521 0 1
75.5678 0 1
75.6835 0 1
75.7993 0 1
75.9151 0 1
76.031 0 1
76.147 868 29.4618
76.263 926 30.4302
76.3791 949 30.8058
76.4952 940 30.6594
76.6113 978 31.273
76.7276 1050 32.4037
76.8438 1032 32.1248
76.9601 996 31.5595
77.0765 1039 32.2335
77.1929 1099 33.1512
77.3093 1133 33.6601
77.4258 1082 32.8938
77.5423 1132 33.6452
77.6589 1065 32.6343
77.7755 1091 33.0303
77.8921 1127 33.5708
78.0088 1057 32.5115
78.1256 969 31.1288
78.2423 924 30.3974
78.3591 1002 31.6544
78.4759 912 30.1993
78.5928 848 29.1204
78.7097 925 30.4138
78.8266 976 31.241
78.9436 1114 33.3766
79.0606 1106 33.2566
79.1776 1096 33.1059
79.2946 1127 33.5708
79.4117 1081 32.8786
79.5288 1055 32.4808
79.6459 1025 32.0156
79.7631 925 30.4138
79.8802 862 29.3598
79.9974 820 28.6356
80.1147 882 29.6985
80.2319 900 30
80.3491 940 30.6594
80.4664 959 30.9677
80.5837 954 30.8869
80.701 983 31.3528
80.8183 948 30.7896
80.9357 981 31.3209
81.053 1028 32.0624
81.1704 995 31.5436
81.2877 971 31.1609
81.4051 1046 32.3419
81.5225 1047 32.3574
81.6399 950 30.8221
81.7573 945 30.7409
81.8747 898 29.9666
81.9922 864 29.3939
82.1096 827 28.7576
82.227 882 29.6985
82.3444 908 30.133
82.4619 931 30.5123
82.5793 959 30.9677
82.6967 1018 31.9061
82.8142 1019 31.9218
82.9316 993 31.5119
83.049 1016 31.8748
83.1664 1018 31.9061
83.2838 931 30.5123
83.4012 871 29.5127
83.5186 715 26.7395
83.636 725 26.9258
83.7534 778 27.8927
83.8708 810 28.4605
83.9881 833 28.8617
84.1055 836 28.9137
84.2228 861 29.3428
84.3401 929 30.4795
84.4575 894 29.8998
84.5747 898 29.9666
84.692 947 30.7734
84.8093 972 31.1769
84.9265 905 30.0832
85.0437 1000 31.6228
85.1609 971 31.1609
85.2781 948 30.7896
85.3952 853 29.2062
85.5123 853 29.2062
85.6294 897 29.95
85.7465 863 29.3769
85.8636 878 29.6311
85.9806 952 30.8545
86.0976 1008 31.749
86.2145 1040 32.249
86.3315 1076 32.8024
86.4484 1132 33.6452
86.5652 1089 33
86.682 1139 33.7491
86.7988 1108 33.2866
86.9156 1066 32.6497
87.0323 944 30.7246
87.149 836 28.9137
87.2657 871 29.5127
87.3823 905 30.0832
87.4988 960 30.9839
87.6154 1042 32.28
87.7318 1058 32.5269
87.8483 1138 33.7343
87.9647 1079 32.8481
88.081 1142 33.7935
88.1973 1179 34.3366
88.3136 1116 33.4066
88.4298 1179 34.3366
88.546 1131 33.6303
88.6621 1194 34.5543
88.7781 1118 33.4365
88.8942 0 1
89.0101 0 1
89.126 0 1
89.2419 0 1
89.3577 0 1
89.4734 0 1
89.5891 0 1
89.7047 0 1
89.8203 0 1
89.9358 0 1
92.3269 0 1
92.4424 0 1
92.558 0 1
92.6736 0 1
92.7893 0 1
92.905 0 1
93.0208 0 1
93.1366 0 1
93.2525 0 1
93.3685 0 1
93.4845 0 1
93.6005 1105 33.2415
93.7167 1077 32.8177
93.8328 1123 33.5112
93.949 1097 33.121
94.0653 1077 32.8177
94.1816 1084 32.9242
94.2979 1061 32.573
94.4143 1008 31.749
94.5307 1019 31.9218
94.6472 1006 31.7175
94.7637 1043 32.2955
94.8803 1007 31.7333
94.9969 1107 33.2716
95.1135 1106 33.2566
95.2302 1160 34.0588
95.3469 1206 34.7275
95.4637 1181 34.3657
95.5805 1229 35.0571
95.6973 1279 35.7631
95.8142 1227 35.0286
95.9311 1204 34.6987
96.048 1144 33.8231
96.1649 1107 33.2716
96.2819 957 30.9354
96.3989 928 30.4631
96.516 928 30.4631
96.633 951 30.8383
96.7501 1112 33.3467
96.8673 1136 33.7046
96.9844 1157 34.0147
97.1016 1092 33.0454
97.2188 1168 34.176
97.336 1151 33.9264
97.4532 1171 34.2199
97.5704 1155 33.9853
97.6877 1167 34.1614
97.805 1072 32.7414
97.9223 1107 33.2716
98.0396 1026 32.0312
98.1569 1051 32.4191
98.2743 943 30.7083
98.3916 1018 31.9061
98.509 1087 32.9697
98.6264 1096 33.1059
98.7438 1095 33.0908
98.8612 1109 33.3017
98.9786 1159 34.0441
99.096 1242 35.242
99.2134 1264 35.5528
99.3308 1264 35.5528
99.4482 1268 35.609
99.5656 1194 34.5543
99.6831 1201 34.6554
99.8005 1050 32.4037
99.9179 980 31.305
100.035 900 30
100.153 931 30.5123
100.27 1065 32.6343
100.388 1133 33.6601
100.505 1146 33.8526
100.622 1157 34.0147
100.74 1184 34.4093
100.857 1108 33.2866
100.975 1234 35.1283
101.092 1200 34.641
101.209 1207 34.7419
101.327 1145 33.8378
101.444 1174 34.2637
101.561 1106 33.2566
101.679 1092 33.0454
101.796 1012 31.8119
101.913 1008 31.749
102.03 1024 32
102.148 1141 33.7787
102.265 1137 33.7194
102.382 1269 35.623
102.499 1221 34.9428
102.616 1274 35.6931
102.733 1267 35.5949
102.851 1221 34.9428
102.968 1316 36.2767
103.085 1314 36.2491
103.202 1226 35.0143
103.319 1291 35.9305
103.436 1097 33.121
103.552 884 29.7321
103.669 1056 32.4962
103.786 1090 33.0151
103.903 1136 33.7046
104.02 1197 34.5977
104.137 1208 34.7563
104.253 1236 35.1568
104.37 1232 35.0999
104.487 1305 36.1248
104.603 1225 35
104.72 1216 34.8712
104.836 1282 35.805
104.953 1204 34.6987
105.069 1142 33.7935
105.186 1125 33.541
105.302 1065 32.6343
105.418 1134 33.6749
105.535 1091 33.0303
105.651 1249 35.3412
105.767 1334 36.524
105.883 1294 35.9722
105.999 1279 35.7631
106.115 0 1
106.231 0 1
106.347 0 1
106.463 0 1
106.579 0 1
106.694 0 1
106.81 0 1
106.926 0 1
107.041 0 1
107.157 0 1
109.576 0 1
109.692 0 1
109.807 0 1
109.923 0 1
110.039 0 1
110.155 0 1
110.27 0 1
110.386 0 1
110.502 0 1
110.618 1044 32.311
110.735 1234 35.1283
110.851 1281 35.7911
110.967 1384 37.2022
111.083 1241 35.2278
111.199 1330 36.4692
111.316 1301 36.0694
111.432 1278 35.7491
111.549 1312 36.2215
111.665 1250 35.3553
111.782 1260 35.4965
111.898 1189 34.4819
112.015 1059 32.5423
112.132 1020 31.9374
112.248 1005 31.7017
112.365 1086 32.9545
112.482 1159 34.0441
112.599 1248 35.327
112.716 1174 34.2637
112.832 1208 34.7563
112.949 1315 36.2629
113.066 1205 34.7131
113.183 1151 33.9264
113.3 1233 35.1141
113.417 1188 34.4674
113.534 1146 33.8526
113.652 1043 32.2955
113.769 984 31.3688
113.886 1025 32.0156
114.003 954 30.8869
114.12 1025 32.0156
114.238 1165 34.1321
114.355 1159 34.0441
114.472 1208 34.7563
114.589 1285 35.8469
114.707 1236 35.1568
114.824 1215 34.8569
114.942 1262 35.5246
115.059 1296 36
115.176 1302 36.0832
115.294 1239 35.1994
115.411 1153 33.9559
115.529 1113 33.3617
115.646 980 31.305
115.764 947 30.7734
115.881 1009 31.7648
115.999 1109 33.3017
116.116 1169 34.1906
116.234 1202 34.6699
116.351 1153 33.9559
116.469 1197 34.5977
116.586 1207 34.7419
116.704 1196 34.5832
116.821 1208 34.7563
116.939 1190 34.4964
117.056 1091 33.0303
117.174 1151 33.9264
117.291 1054 32.4654
117.409 1022 31.9687
117.526 986 31.4006
117.644 1025 32.0156
117.761 1087 32.9697
117.879 1252 35.3836
117.996 1210 34.7851
118.114 1282 35.805
118.231 1225 35
118.349 1283 35.819
118.466 1250 35.3553
118.584 1310 36.1939
118.701 1239 35.1994
118.819 1255 35.426
118.936 1206 34.7275
119.053 1159 34.0441
119.171 1085 32.9393
119.288 943 30.7083
119.405 966 31.0805
119.523 1023 31.9844
119.64 1106 33.2566
119.757 1166 34.1467
119.875 1154 33.9706
119.992 1130 33.6155
120.109 1191 34.5109
120.226 1208 34.7563
120.343 1147 33.8674
120.46 1177 34.3074
120.578 1128 33.5857
120.695 1090 33.0151
120.812 1051 32.4191
120.929 1043 32.2955
121.046 960 30.9839
121.163 1031 32.1092
121.279 1015 31.8591
121.396 1029 32.078
121.513 1105 33.2415
121.63 1207 34.7419
121.747 1212 34.8138
121.863 1249 35.3412
121.98 1200 34.641
122.097 1238 35.1852
122.213 1250 35.3553
122.33 1198 34.6121
122.446 1170 34.2053
122.563 1232 35.0999
122.679 1200 34.641
122.795 1056 32.4962
122.912 1014 31.8434
123.028 902 30.0333
123.144 839 28.9655
123.26 945 30.7409
123.377 0 1
123.493 0 1
123.609 0 1
123.725 0 1
123.84 0 1
123.956 0 1
124.072 0 1
124.188 0 1
124.303 0 1
124.419 0 1
126.852 0 1
126.968 0 1
127.083 0 1
127.199 0 1
127.315 0 1
127.431 0 1
127.547 0 1
127.663 0 1
127.779 0 1
127.895 0 1
128.011 0 1
128.127 0 1
128.243 0 1
128.359 969 31.1288
128.476 1030 32.0936
128.592 1037 32.2025
128.708 1176 34.2929
128.825 1225 35
128.941 1278 35.7491
129.058 1253 35.3977
129.174 1222 34.9571
129.291 1202 34.6699
129.408 1280 35.7771
129.524 1227 35.0286
129.641 1173 34.2491
129.758 1131 33.6303
129.875 1204 34.6987
129.992 1056 32.4962
130.108 1054 32.4654
130.225 1029 32.078
130.342 1136 33.7046
130.459 1234 35.1283
130.576 1244 35.2704
130.693 1314 36.2491
130.81 1290 35.9166
130.928 1277 35.7351
131.045 1300 36.0555
131.162 1247 35.3129
131.279 1300 36.0555
131.396 1319 36.318
131.513 1239 35.1994
131.631 1183 34.3948
131.748 1163 34.1028
131.865 1056 32.4962
131.983 1002 31.6544
132.1 1058 32.5269
132.217 1118 33.4365
132.335 1218 34.8999
132.452 1235 35.1426
132.57 1269 35.623
132.687 1255 35.426
132.804 1297 36.0139
132.922 1269 35.623
133.039 1242 35.242
133.157 1186 34.4384
133.274 1177 34.3074
133.392 1135 33.6898
133.509 1080 32.8634
133.627 1087 32.9697
133.744 998 31.5911
133.862 1123 33.5112
133.979 1257 35.4542
134.097 1242 35.242
134.214 1243 35.2562
134.332 1322 36.3593
134.449 1287 35.8748
134.567 1287 35.8748
134.684 1313 36.2353
134.802 1350 36.7423
134.919 1297 36.0139
135.037 1278 35.7491
135.154 1290 35.9166
135.272 1255 35.426
135.389 1090 33.0151
135.507 1011 31.7962
135.624 1020 31.9374
135.742 1131 33.6303
135.859 1261 35.5106
135.977 1239 35.1994
136.094 1310 36.1939
136.211 1228 35.0428
136.329 1278 35.7491
136.446 1249 35.3412
136.564 1245 35.2846
136.681 1218 34.8999
136.798 1222 34.9571
136.915 1155 33.9853
137.033 1150 33.9116
137.15 1072 32.7414
137.267 1057 32.5115
137.384 1058 32.5269
137.502 1183 34.3948
137.619 1144 33.8231
137.736 1261 35.5106
137.853 1248 35.327
137.97 1307 36.1525
138.087 1293 35.9583
138.204 1314 36.2491
138.321 1290 35.9166
138.438 1286 35.8608
138.555 1291 35.9305
138.672 1282 35.805
138.788 1265 35.5668
138.905 1252 35.3836
139.022 1111 33.3317
139.139 1064 32.619
139.255 1054 32.4654
139.372 1104 33.2265
139.488 1265 35.5668
139.605 1314 36.2491
139.721 1311 36.2077
139.838 1314 36.2491
139.954 1310 36.1939
140.071 1292 35.9444
140.187 1319 36.318
140.303 1288 35.8887
140.419 1219 34.9142
140.535 1199 34.6266
140.652 1116 33.4066
140.768 0 1
140.884 0 1
141 0 1
141.115 0 1
141.231 0 1
141.347 0 1
141.463 0 1
141.578 0 1
141.694 0 1
144.104 0 1
144.219 0 1
144.335 0 1
144.45 0 1
144.566 0 1
144.682 0 1
144.798 0 1
144.914 0 1
145.03 0 1
145.146 916 30.2655
145.262 984 31.3688
145.378 1005 31.7017
145.494 947 30.7734
145.61 963 31.0322
145.726 922 30.3645
145.842 893 29.8831
145.959 892 29.8664
146.075 865 29.4109
146.192 875 29.5804
146.308 917 30.282
146.425 925 30.4138
146.541 974 31.209
146.658 1032 32.1248
146.774 978 31.273
146.891 1001 31.6386
147.008 1025 32.0156
147.125 1072 32.7414
147.241 1071 32.7261
147.358 1022 31.9687
147.475 1074 32.7719
147.592 1042 32.28
147.709 1000 31.6228
147.826 968 31.1127
147.943 907 30.1164
148.06 856 29.2575
148.177 851 29.1719
148.294 890 29.8329
148.411 968 31.1127
148.528 957 30.9354
148.645 969 31.1288
148.762 1064 32.619
148.88 1029 32.078
148.997 995 31.5436
149.114 1096 33.1059
149.231 1031 32.1092
149.349 976 31.241
149.466 925 30.4138
149.583 1003 31.6702
149.701 884 29.7321
149.818 928 30.4631
149.935 889 29.8161
150.053 920 30.3315
150.17 978 31.273
150.287 967 31.0966
150.405 1055 32.4808
150.522 1007 31.7333
150.64 1022 31.9687
150.757 1083 32.909
150.875 1038 32.218
150.992 1095 33.0908
151.11 1055 32.4808
151.227 1108 33.2866
151.344 1073 32.7567
151.462 1050 32.4037
151.579 908 30.133
151.697 872 29.5296
151.814 883 29.7153
151.932 886 29.7658
152.049 1007 31.7333
152.167 980 31.305
152.284 1008 31.749
152.402 1091 33.0303
152.519 1071 32.7261
152.636 1049 32.3883
152.754 1122 33.4963
152.871 1040 32.249
152.989 1076 32.8024
153.106 934 30.5614
153.223 987 31.4166
153.341 907 30.1164
153.458 912 30.1993
153.575 913 30.2159
153.693 930 30.4959
153.81 962 31.0161
153.927 1048 32.3728
154.044 1071 32.7261
154.162 1071 32.7261
154.279 1071 32.7261
154.396 1132 33.6452
154.513 1099 33.1512
154.63 1126 33.5559
154.747 1141 33.7787
154.864 1117 33.4215
154.981 1138 33.7343
155.098 1065 32.6343
155.215 982 31.3369
155.332 1004 31.686
155.449 958 30.9516
155.566 1133 33.6601
155.683 1130 33.6155
155.8 1144 33.8231
155.917 1154 33.9706
156.033 1147 33.8674
156.15 0 1
156.267 0 1
156.383 0 1
156.5 0 1
156.617 0 1
156.733 0 1
156.85 0 1
156.966 0 1
157.082 0 1
157.199 0 1
157.315 0 1
157.431 0 1
157.547 0 1
157.664 0 1
157.78 0 1
157.896 0 1
158.012 0 1
158.128 0 1
158.244 0 1
158.359 0 1
158.475 0 1
158.591 0 1
158.706 0 1
