
6.15755 0 1
6.2731 0 1
6.3887 0 1
6.50437 0 1
6.62009 0 1
6.73587 0 1
6.8517 0 1
6.96759 0 1
7.08353 0 1
7.19952 0 1
7.31557 0 1
7.43166 0 1
7.54781 0 1
7.664 0 1
7.78024 0 1
7.89653 0 1
8.01286 0 1
8.12924 0 1
8.24567 0 1
8.36213 0 1
8.47864 0 1
8.59519 0 1
8.71178 0 1
8.82841 0 1
8.94508 0 1
9.06179 0 1
9.17853 0 1
9.29531 0 1
9.41212 0 1
9.52897 0 1
9.64584 0 1
9.76276 0 1
9.8797 0 1
9.99667 0 1
10.1137 0 1
10.2307 0 1
10.3478 0 1
10.4648 0 1
10.5819 0 1
10.6991 0 1
10.8162 0 1
10.9334 0 1
11.0506 0 1
11.1678 0 1
11.285 0 1
11.4023 0 1
11.5196 0 1
11.6369 0 1
11.7542 0 1
11.8715 0 1
11.9888 0 1
12.1062 0 1
12.2235 0 1
12.3409 0 1
12.4582 0 1
12.5756 0 1
12.693 0 1
12.8104 0 1
12.9278 0 1
13.0452 0 1
13.1626 0 1
13.28 0 1
13.3974 0 1
13.5149 0 1
13.6323 0 1
13.7497 0 1
13.8671 0 1
13.9845 0 1
14.1019 0 1
14.2193 0 1
14.3367 0 1
14.4541 0 1
14.5714 0 1
14.6888 0 1
14.8062 0 1
14.9235 0 1
15.0408 0 0
15.1581 0 0
15.2755 0 0
15.3927 0 0
15.51 0 0
15.6273 0 0
15.7445 0 0
15.8617 0 0
15.9789 0 0
16.0961 0 0
16.2132 0 0
16.3304 0 0
16.4475 0 0
16.5646 0 0
16.6816 0 0
16.7986 0 0
16.9156 0 0
17.0326 0 0
17.1496 0 0
17.2665 0 0
17.3833 0 0
17.5002 0 0
17.617 0 0
17.7338 0 0
17.8505 0 0
17.9672 0 0
18.0839 0 0
18.2005 0 0
18.3171 0 0
18.4337 0 0
18.5502 0 0
18.6666 0 0
18.7831 0 0
18.8994 0 0
19.0158 0 0
19.1321 0 0
19.2483 0 0
19.3645 0 0
19.4806 0 0
19.5967 0 0
19.7128 0 0
19.8288 0 0
19.9447 0 0
20.0606 0 1
20.1764 0 1
20.2922 0 1
20.4079 0 1
20.5236 0 1
20.6392 0 1
20.7548 0 1
20.8702 0 1
23.3078 0 1
23.4233 0 1
23.539 0 1
23.6547 0 1
23.7704 0 1
23.8862 0 1
24.0021 0 1
24.118 0 1
24.234 0 1
24.35 0 1
24.4661 666 25.807
24.5822 659 25.671
24.6984 627 25.04
24.8146 708 26.6083
24.9309 719 26.8142
25.0472 723 26.8887
25.1636 710 26.6458
25.28 746 27.313
25.3965 706 26.5707
25.513 734 27.0924
25.6296 711 26.6646
25.7462 743 27.258
25.8628 733 27.074
25.9795 712 26.6833
26.0962 706 26.5707
26.213 769 27.7308
26.3298 720 26.8328
26.4466 717 26.7769
26.5635 689 26.2488
26.6804 681 26.096
26.7973 667 25.8263
26.9143 638 25.2587
27.0313 623 24.96
27.1483 610 24.6982
27.2653 622 24.9399
27.3824 653 25.5539
27.4996 641 25.318
27.6167 666 25.807
27.7339 620 24.8998
27.8511 622 24.9399
27.9683 636 25.219
28.0855 606 24.6171
28.2028 621 24.9199
28.3201 637 25.2389
28.4374 665 25.7876
28.5547 629 25.0799
28.6721 682 26.1151
28.7894 634 25.1794
28.9068 720 26.8328
29.0242 650 25.4951
29.1416 653 25.5539
29.259 642 25.3377
29.3764 665 25.7876
29.4939 692 26.3059
29.6113 688 26.2298
29.7288 701 26.4764
29.8463 683 26.1343
29.9638 709 26.6271
30.0812 694 26.3439
30.1987 700 26.4575
30.3162 683 26.1343
30.4337 617 24.8395
30.5512 578 24.0416
30.6687 592 24.3311
30.7862 604 24.5764
30.9037 594 24.3721
31.0212 632 25.1396
31.1387 651 25.5147
31.2562 582 24.1247
31.3737 583 24.1454
31.4912 558 23.622
31.6087 551 23.4734
31.7262 607 24.6374
31.8436 607 24.6374
31.9611 609 24.6779
32.0785 611 24.7184
32.1959 672 25.923
32.3134 669 25.865
32.4308 651 25.5147
32.5482 650 25.4951
32.6655 670 25.8844
32.7829 652 25.5343
32.9002 652 25.5343
33.0176 632 25.1396
33.1349 639 25.2784
33.2522 639 25.2784
33.3694 717 26.7769
33.4867 634 25.1794
33.6039 662 25.7294
33.7211 633 25.1595
33.8383 670 25.8844
33.9554 628 25.0599
34.0725 612 24.7386
34.1896 577 24.0208
34.3067 575 23.9792
34.4237 552 23.4947
34.5407 606 24.6171
34.6577 598 24.454
34.7746 612 24.7386
34.8915 553 23.516
35.0084 579 24.0624
35.1252 594 24.3721
35.242 592 24.3311
35.3587 563 23.7276
35.4755 592 24.3311
35.5921 541 23.2594
35.7088 584 24.1661
35.8254 619 24.8797
35.9419 664 25.7682
36.0584 627 25.04
36.1749 653 25.5539
36.2913 631 25.1197
36.4077 623 24.96
36.524 696 26.3818
36.6403 687 26.2107
36.7565 625 25
36.8727 593 24.3516
36.9889 610 24.6982
37.1049 657 25.632
37.221 0 1
37.3369 0 1
37.4529 0 1
37.5687 0 1
37.6845 0 1
37.8003 0 1
37.916 0 1
38.0316 0 1
38.1472 0 1
40.5851 0 1
40.7008 0 1
40.8164 0 1
40.9322 0 1
41.048 0 1
41.1639 0 1
41.2798 0 1
41.3958 0 1
41.5118 0 1
41.6279 0 1
41.744 514 22.6716
41.8602 544 23.3238
41.9765 533 23.0868
42.0928 536 23.1517
42.2091 515 22.6936
42.3255 528 22.9783
42.4419 546 23.3666
42.5584 540 23.2379
42.675 515 22.6936
42.7915 551 23.4734
42.9081 482 21.9545
43.0248 482 21.9545
43.1415 435 20.8567
43.2582 482 21.9545
43.375 446 21.1187
43.4918 467 21.6102
43.6087 495 22.2486
43.7256 471 21.7025
43.8425 464 21.5407
43.9595 463 21.5174
44.0765 449 21.1896
44.1935 434 20.8327
44.3106 448 21.166
44.4277 495 22.2486
44.5448 479 21.8861
44.6619 496 22.2711
44.7791 439 20.9523
44.8963 493 22.2036
45.0136 448 21.166
45.1308 467 21.6102
45.2481 415 20.3715
45.3654 450 21.2132
45.4827 460 21.4476
45.6001 438 20.9284
45.7174 452 21.2603
45.8348 460 21.4476
45.9522 439 20.9523
46.0697 416 20.3961
46.1871 421 20.5183
46.3046 439 20.9523
46.422 442 21.0238
46.5395 388 19.6977
46.657 346 18.6011
46.7745 366 19.1311
46.892 387 19.6723
47.0096 377 19.4165
47.1271 374 19.3391
47.2446 395 19.8746
47.3622 352 18.7617
47.4797 312 17.6635
47.5973 301 17.3494
47.7149 339 18.412
47.8324 340 18.4391
47.95 335 18.303
48.0675 342 18.4932
48.1851 365 19.105
48.3027 335 18.303
48.4202 375 19.3649
48.5378 340 18.4391
48.6554 346 18.6011
48.7729 356 18.868
48.8904 375 19.3649
49.008 368 19.1833
49.1255 359 18.9473
49.243 389 19.7231
49.3605 387 19.6723
49.478 365 19.105
49.5955 413 20.3224
49.713 352 18.7617
49.8304 377 19.4165
49.9479 362 19.0263
50.0653 373 19.3132
50.1827 324 18
50.3001 304 17.4356
50.4175 316 17.7764
50.5348 308 17.5499
50.6521 330 18.1659
50.7694 377 19.4165
50.8867 374 19.3391
51.004 345 18.5742
51.1212 378 19.4422
51.2384 392 19.799
51.3556 416 20.3961
51.4727 428 20.6882
51.5899 411 20.2731
51.707 401 20.025
51.824 443 21.0476
51.9411 505 22.4722
52.0581 507 22.5167
52.175 440 20.9762
52.2919 448 21.166
52.4088 464 21.5407
52.5257 475 21.7945
52.6425 472 21.7256
52.7593 485 22.0227
52.876 469 21.6564
52.9927 488 22.0907
53.1094 465 21.5639
53.226 464 21.5407
53.3426 444 21.0713
53.4591 516 22.7156
53.5756 494 22.2261
53.692 524 22.891
53.8084 433 20.8087
53.9248 398 19.9499
54.0411 418 20.445
54.1573 432 20.7846
54.2735 0 1
54.3896 0 1
54.5057 0 1
54.6217 0 1
54.7377 0 1
54.8537 0 1
54.9695 0 1
55.0853 0 1
55.2011 0 1
55.3168 0 1
55.4324 0 1
57.824 0 1
57.9396 0 1
58.0553 0 1
58.1711 0 1
58.2869 0 1
58.4028 0 1
58.5187 0 1
58.6347 0 1
58.7508 0 1
58.8669 0 1
58.983 530 23.0217
59.0992 522 22.8473
59.2155 500 22.3607
59.3318 506 22.4944
59.4482 502 22.4054
59.5646 465 21.5639
59.681 519 22.7816
59.7975 484 22
59.9141 502 22.4054
60.0306 499 22.3383
60.1473 538 23.1948
60.2639 557 23.6008
60.3807 568 23.8328
60.4974 524 22.891
60.6142 534 23.1084
60.731 528 22.9783
60.8479 507 22.5167
60.9648 548 23.4094
61.0818 540 23.2379
61.1987 544 23.3238
61.3158 500 22.3607
61.4328 514 22.6716
61.5499 497 22.2935
61.667 531 23.0434
61.7841 510 22.5832
61.9013 485 22.0227
62.0185 491 22.1585
62.1357 490 22.1359
62.253 475 21.7945
62.3702 481 21.9317
62.4875 411 20.2731
62.6049 453 21.2838
62.7222 398 19.9499
62.8396 422 20.5426
62.9569 408 20.199
63.0743 409 20.2237
63.1918 422 20.5426
63.3092 440 20.9762
63.4267 428 20.6882
63.5441 445 21.095
63.6616 470 21.6795
63.7791 469 21.6564
63.8966 479 21.8861
64.0142 502 22.4054
64.1317 473 21.7486
64.2492 479 21.8861
64.3668 462 21.4942
64.4843 462 21.4942
64.6019 484 22
64.7195 404 20.0998
64.837 454 21.3073
64.9546 431 20.7605
65.0722 408 20.199
65.1898 392 19.799
65.3074 433 20.8087
65.4249 429 20.7123
65.5425 434 20.8327
65.6601 405 20.1246
65.7777 446 21.1187
65.8952 376 19.3907
66.0128 379 19.4679
66.1304 426 20.6398
66.2479 353 18.7883
66.3655 350 18.7083
66.483 359 18.9473
66.6005 408 20.199
66.718 370 19.2354
66.8355 378 19.4422
66.953 398 19.9499
67.0705 416 20.3961
67.1879 390 19.7484
67.3054 385 19.6214
67.4228 387 19.6723
67.5402 398 19.9499
67.6576 438 20.9284
67.7749 384 19.5959
67.8923 407 20.1742
68.0096 400 20
68.1269 399 19.975
68.2442 408 20.199
68.3614 387 19.6723
68.4787 401 20.025
68.5958 399 19.975
68.713 416 20.3961
68.8302 362 19.0263
68.9473 368 19.1833
69.0643 374 19.3391
69.1814 389 19.7231
69.2984 392 19.799
69.4154 389 19.7231
69.5323 395 19.8746
69.6492 374 19.3391
69.7661 394 19.8494
69.8829 370 19.2354
69.9997 343 18.5203
70.1165 355 18.8414
70.2332 333 18.2483
70.3499 339 18.412
70.4665 355 18.8414
70.5831 349 18.6815
70.6996 351 18.735
70.8161 380 19.4936
70.9326 367 19.1572
71.049 373 19.3132
71.1653 378 19.4422
71.2817 373 19.3132
71.3979 324 18
71.5141 331 18.1934
71.6303 341 18.4662
71.7464 294 17.1464
71.8624 0 1
71.9784 0 1
72.0944 0 1
72.2102 0 1
72.3261 0 1
72.4418 0 1
72.5575 0 1
72.6732 0 1
75.1054 0 1
75.2209 0 1
75.3365 0 1
75.4521 0 1
75.5678 0 1
75.6835 0 1
75.7993 0 1
75.9151 0 1
76.031 0 1
76.147 239 15.4596
76.263 289 17
76.3791 292 17.088
76.4952 276 16.6132
76.6113 280 16.7332
76.7276 275 16.5831
76.8438 266 16.3095
76.9601 256 16
77.0765 278 16.6733
77.1929 266 16.3095
77.3093 254 15.9374
77.4258 249 15.7797
77.5423 265 16.2788
77.6589 284 16.8523
77.7755 276 16.6132
77.8921 244 15.6205
78.0088 242 15.5563
78.1256 215 14.6629
78.2423 249 15.7797
78.3591 255 15.9687
78.4759 229 15.1327
78.5928 226 15.0333
78.7097 198 14.0712
78.8266 237 15.3948
78.9436 203 14.2478
79.0606 193 13.8924
79.1776 183 13.5277
79.2946 176 13.2665
79.4117 188 13.7113
79.5288 206 14.3527
79.6459 183 13.5277
79.7631 216 14.6969
79.8802 204 14.2829
79.9974 189 13.7477
80.1147 175 13.2288
80.2319 180 13.4164
80.3491 183 13.5277
80.4664 184 13.5647
80.5837 195 13.9642
80.701 174 13.1909
80.8183 156 12.49
80.9357 170 13.0384
81.053 147 12.1244
81.1704 148 12.1655
81.2877 162 12.7279
81.4051 148 12.1655
81.5225 138 11.7473
81.6399 137 11.7047
81.7573 134 11.5758
81.8747 124 11.1355
81.9922 139 11.7898
82.1096 118 10.8628
82.227 102 10.0995
82.3444 117 10.8167
82.4619 102 10.0995
82.5793 93 9.64365
82.6967 98 9.89949
82.8142 83 9.11043
82.9316 76 8.7178
83.049 77 8.77496
83.1664 89 9.43398
83.2838 80 8.94427
83.4012 92 9.59166
83.5186 80 8.94427
83.636 77 8.77496
83.7534 78 8.83176
83.8708 59 7.68115
83.9881 58 7.61577
84.1055 74 8.60233
84.2228 51 7.14143
84.3401 54 7.34847
84.4575 52 7.2111
84.5747 55 7.4162
84.692 50 7.07107
84.8093 62 7.87401
84.9265 46 6.78233
85.0437 40 6.32456
85.1609 52 7.2111
85.2781 39 6.245
85.3952 43 6.55744
85.5123 49 7
85.6294 50 7.07107
85.7465 34 5.83095
85.8636 41 6.40312
85.9806 46 6.78233
86.0976 46 6.78233
86.2145 30 5.47723
86.3315 33 5.74456
86.4484 68 8.24621
86.5652 53 7.28011
86.682 61 7.81025
86.7988 70 8.3666
86.9156 64 8
87.0323 69 8.30662
87.149 59 7.68115
87.2657 54 7.34847
87.3823 69 8.30662
87.4988 66 8.12404
87.6154 73 8.544
87.7318 93 9.64365
87.8483 81 9
87.9647 101 10.0499
88.081 95 9.74679
88.1973 105 10.247
88.3136 106 10.2956
88.4298 121 11
88.546 125 11.1803
88.6621 110 10.4881
88.7781 120 10.9545
88.8942 0 1
89.0101 0 1
89.126 0 1
89.2419 0 1
89.3577 0 1
89.4734 0 1
89.5891 0 1
89.7047 0 1
89.8203 0 1
89.9358 0 1
92.3269 0 1
92.4424 0 1
92.558 0 1
92.6736 0 1
92.7893 0 1
92.905 0 1
93.0208 0 1
93.1366 0 1
93.2525 0 1
93.3685 0 1
93.4845 0 1
93.6005 219 14.7986
93.7167 181 13.4536
93.8328 184 13.5647
93.949 208 14.4222
94.0653 167 12.9228
94.1816 199 14.1067
94.2979 170 13.0384
94.4143 188 13.7113
94.5307 156 12.49
94.6472 138 11.7473
94.7637 163 12.7671
94.8803 146 12.083
94.9969 152 12.3288
95.1135 147 12.1244
95.2302 129 11.3578
95.3469 159 12.6095
95.4637 99 9.94987
95.5805 105 10.247
95.6973 127 11.2694
95.8142 190 13.784
95.9311 137 11.7047
96.048 180 13.4164
96.1649 166 12.8841
96.2819 189 13.7477
96.3989 175 13.2288
96.516 171 13.0767
96.633 214 14.6287
96.7501 199 14.1067
96.8673 207 14.3875
96.9844 196 14
97.1016 215 14.6629
97.2188 234 15.2971
97.336 250 15.8114
97.4532 222 14.8997
97.5704 259 16.0935
97.6877 226 15.0333
97.805 238 15.4272
97.9223 255 15.9687
98.0396 246 15.6844
98.1569 273 16.5227
98.2743 318 17.8326
98.3916 274 16.5529
98.509 307 17.5214
98.6264 299 17.2916
98.7438 287 16.9411
98.8612 292 17.088
98.9786 237 15.3948
99.096 204 14.2829
99.2134 186 13.6382
99.3308 276 16.6132
99.4482 294 17.1464
99.5656 331 18.1934
99.6831 378 19.4422
99.8005 356 18.868
99.9179 352 18.7617
100.035 351 18.735
100.153 360 18.9737
100.27 343 18.5203
100.388 393 19.8242
100.505 358 18.9209
100.622 368 19.1833
100.74 379 19.4679
100.857 365 19.105
100.975 385 19.6214
101.092 370 19.2354
101.209 379 19.4679
101.327 391 19.7737
101.444 389 19.7231
101.561 402 20.0499
101.679 409 20.2237
101.796 364 19.0788
101.913 405 20.1246
102.03 425 20.6155
102.148 419 20.4695
102.265 436 20.8806
102.382 382 19.5448
102.499 359 18.9473
102.616 272 16.4924
102.733 300 17.3205
102.851 324 18
102.968 396 19.8997
103.085 388 19.6977
103.202 453 21.2838
103.319 433 20.8087
103.436 411 20.2731
103.552 470 21.6795
103.669 409 20.2237
103.786 426 20.6398
103.903 427 20.664
104.02 431 20.7605
104.137 446 21.1187
104.253 456 21.3542
104.37 401 20.025
104.487 432 20.7846
104.603 398 19.9499
104.72 451 21.2368
104.836 467 21.6102
104.953 440 20.9762
105.069 450 21.2132
105.186 449 21.1896
105.302 468 21.6333
105.418 389 19.7231
105.535 435 20.8567
105.651 426 20.6398
105.767 414 20.347
105.883 404 20.0998
105.999 387 19.6723
106.115 0 1
106.231 0 1
106.347 0 1
106.463 0 1
106.579 0 1
106.694 0 1
106.81 0 1
106.926 0 1
107.041 0 1
107.157 0 1
109.576 0 1
109.692 0 1
109.807 0 1
109.923 0 1
110.039 0 1
110.155 0 1
110.27 0 1
110.386 0 1
110.502 0 1
110.618 331 18.1934
110.735 362 19.0263
110.851 333 18.2483
110.967 354 18.8149
111.083 261 16.1555
111.199 265 16.2788
111.316 250 15.8114
111.432 286 16.9115
111.549 314 17.72
111.665 284 16.8523
111.782 317 17.8045
111.898 288 16.9706
112.015 302 17.3781
112.132 313 17.6918
112.248 286 16.9115
112.365 333 18.2483
112.482 335 18.303
112.599 294 17.1464
112.716 269 16.4012
112.832 272 16.4924
112.949 269 16.4012
113.066 282 16.7929
113.183 279 16.7033
113.3 287 16.9411
113.417 259 16.0935
113.534 283 16.8226
113.652 248 15.748
113.769 261 16.1555
113.886 269 16.4012
114.003 229 15.1327
114.12 258 16.0624
114.238 256 16
114.355 255 15.9687
114.472 217 14.7309
114.589 232 15.2315
114.707 225 15
114.824 202 14.2127
114.942 216 14.6969
115.059 210 14.4914
115.176 235 15.3297
115.294 234 15.2971
115.411 232 15.2315
115.529 238 15.4272
115.646 252 15.8745
115.764 244 15.6205
115.881 237 15.3948
115.999 240 15.4919
116.116 231 15.1987
116.234 226 15.0333
116.351 242 15.5563
116.469 248 15.748
116.586 217 14.7309
116.704 245 15.6525
116.821 262 16.1864
116.939 210 14.4914
117.056 226 15.0333
117.174 225 15
117.291 248 15.748
117.409 242 15.5563
117.526 263 16.2173
117.644 235 15.3297
117.761 231 15.1987
117.879 238 15.4272
117.996 185 13.6015
118.114 165 12.8452
118.231 214 14.6287
118.349 212 14.5602
118.466 209 14.4568
118.584 240 15.4919
118.701 233 15.2643
118.819 238 15.4272
118.936 234 15.2971
119.053 231 15.1987
119.171 242 15.5563
119.288 236 15.3623
119.405 252 15.8745
119.523 240 15.4919
119.64 221 14.8661
119.757 212 14.5602
119.875 252 15.8745
119.992 250 15.8114
120.109 268 16.3707
120.226 228 15.0997
120.343 249 15.7797
120.46 248 15.748
120.578 257 16.0312
120.695 232 15.2315
120.812 234 15.2971
120.929 253 15.906
121.046 254 15.9374
121.163 257 16.0312
121.279 276 16.6132
121.396 242 15.5563
121.513 233 15.2643
121.63 196 14
121.747 166 12.8841
121.863 160 12.6491
121.98 211 14.5258
122.097 219 14.7986
122.213 242 15.5563
122.33 247 15.7162
122.446 248 15.748
122.563 251 15.843
122.679 278 16.6733
122.795 261 16.1555
122.912 269 16.4012
123.028 271 16.4621
123.144 270 16.4317
123.26 251 15.843
123.377 0 1
123.493 0 1
123.609 0 1
123.725 0 1
123.84 0 1
123.956 0 1
124.072 0 1
124.188 0 1
124.303 0 1
124.419 0 1
126.852 0 1
126.968 0 1
127.083 0 1
127.199 0 1
127.315 0 1
127.431 0 1
127.547 0 1
127.663 0 1
127.779 0 1
127.895 0 1
128.011 0 1
128.127 0 1
128.243 0 1
128.359 306 17.4929
128.476 352 18.7617
128.592 324 18
128.708 342 18.4932
128.825 338 18.3848
128.941 358 18.9209
129.058 304 17.4356
129.174 359 18.9473
129.291 342 18.4932
129.408 376 19.3907
129.524 349 18.6815
129.641 364 19.0788
129.758 360 18.9737
129.875 355 18.8414
129.992 362 19.0263
130.108 353 18.7883
130.225 342 18.4932
130.342 340 18.4391
130.459 294 17.1464
130.576 242 15.5563
130.693 247 15.7162
130.81 221 14.8661
130.928 245 15.6525
131.045 295 17.1756
131.162 332 18.2209
131.279 339 18.412
131.396 367 19.1572
131.513 394 19.8494
131.631 344 18.5472
131.748 399 19.975
131.865 366 19.1311
131.983 379 19.4679
132.1 368 19.1833
132.217 371 19.2614
132.335 369 19.2094
132.452 357 18.8944
132.57 360 18.9737
132.687 364 19.0788
132.804 378 19.4422
132.922 363 19.0526
133.039 377 19.4165
133.157 399 19.975
133.274 379 19.4679
133.392 389 19.7231
133.509 402 20.0499
133.627 395 19.8746
133.744 329 18.1384
133.862 358 18.9209
133.979 327 18.0831
134.097 301 17.3494
134.214 296 17.2047
134.332 275 16.5831
134.449 285 16.8819
134.567 257 16.0312
134.684 332 18.2209
134.802 407 20.1742
134.919 384 19.5959
135.037 376 19.3907
135.154 401 20.025
135.272 394 19.8494
135.389 395 19.8746
135.507 418 20.445
135.624 404 20.0998
135.742 466 21.587
135.859 398 19.9499
135.977 412 20.2978
136.094 416 20.3961
136.211 408 20.199
136.329 398 19.9499
136.446 434 20.8327
136.564 424 20.5913
136.681 466 21.587
136.798 411 20.2731
136.915 426 20.6398
137.033 431 20.7605
137.15 428 20.6882
137.267 449 21.1896
137.384 404 20.0998
137.502 385 19.6214
137.619 368 19.1833
137.736 352 18.7617
137.853 325 18.0278
137.97 326 18.0555
138.087 308 17.5499
138.204 310 17.6068
138.321 324 18
138.438 452 21.2603
138.555 449 21.1896
138.672 434 20.8327
138.788 447 21.1424
138.905 436 20.8806
139.022 454 21.3073
139.139 445 21.095
139.255 455 21.3307
139.372 453 21.2838
139.488 449 21.1896
139.605 428 20.6882
139.721 462 21.4942
139.838 431 20.7605
139.954 505 22.4722
140.071 435 20.8567
140.187 447 21.1424
140.303 440 20.9762
140.419 460 21.4476
140.535 467 21.6102
140.652 453 21.2838
140.768 0 1
140.884 0 1
141 0 1
141.115 0 1
141.231 0 1
141.347 0 1
141.463 0 1
141.578 0 1
141.694 0 1
144.104 0 1
144.219 0 1
144.335 0 1
144.45 0 1
144.566 0 1
144.682 0 1
144.798 0 1
144.914 0 1
145.03 0 1
145.146 461 21.4709
145.262 454 21.3073
145.378 454 21.3073
145.494 425 20.6155
145.61 440 20.9762
145.726 414 20.347
145.842 444 21.0713
145.959 399 19.975
146.075 388 19.6977
146.192 406 20.1494
146.308 371 19.2614
146.425 343 18.5203
146.541 345 18.5742
146.658 349 18.6815
146.774 345 18.5742
146.891 335 18.303
147.008 399 19.975
147.125 411 20.2731
147.241 457 21.3776
147.358 451 21.2368
147.475 437 20.9045
147.592 457 21.3776
147.709 440 20.9762
147.826 459 21.4243
147.943 454 21.3073
148.06 468 21.6333
148.177 455 21.3307
148.294 422 20.5426
148.411 403 20.0749
148.528 387 19.6723
148.645 413 20.3224
148.762 405 20.1246
148.88 419 20.4695
148.997 421 20.5183
149.114 425 20.6155
149.231 458 21.4009
149.349 424 20.5913
149.466 448 21.166
149.583 410 20.2485
149.701 379 19.4679
149.818 351 18.735
149.935 345 18.5742
150.053 338 18.3848
150.17 356 18.868
150.287 356 18.868
150.405 330 18.1659
150.522 332 18.2209
150.64 391 19.7737
150.757 365 19.105
150.875 387 19.6723
150.992 415 20.3715
151.11 387 19.6723
151.227 466 21.587
151.344 395 19.8746
151.462 460 21.4476
151.579 452 21.2603
151.697 404 20.0998
151.814 454 21.3073
151.932 437 20.9045
152.049 455 21.3307
152.167 434 20.8327
152.284 444 21.0713
152.402 439 20.9523
152.519 438 20.9284
152.636 450 21.2132
152.754 441 21
152.871 427 20.664
152.989 431 20.7605
153.106 414 20.347
153.223 417 20.4206
153.341 387 19.6723
153.458 389 19.7231
153.575 340 18.4391
153.693 377 19.4165
153.81 368 19.1833
153.927 364 19.0788
154.044 356 18.868
154.162 386 19.6469
154.279 430 20.7364
154.396 425 20.6155
154.513 462 21.4942
154.63 465 21.5639
154.747 483 21.9773
154.864 464 21.5407
154.981 456 21.3542
155.098 479 21.8861
155.215 491 22.1585
155.332 462 21.4942
155.449 456 21.3542
155.566 467 21.6102
155.683 448 21.166
155.8 470 21.6795
155.917 480 21.9089
156.033 502 22.4054
156.15 0 1
156.267 0 1
156.383 0 1
156.5 0 1
156.617 0 1
156.733 0 1
156.85 0 1
156.966 0 1
157.082 0 1
157.199 0 1
157.315 0 1
157.431 0 1
157.547 0 1
157.664 0 1
157.78 0 1
157.896 0 1
158.012 0 1
158.128 0 1
158.244 0 1
158.359 0 1
158.475 0 1
158.591 0 1
158.706 0 1
