
6.15755 0 1
6.2731 0 1
6.3887 0 1
6.50437 0 1
6.62009 0 1
6.73587 0 1
6.8517 0 1
6.96759 0 1
7.08353 0 1
7.19952 0 1
7.31557 0 1
7.43166 0 1
7.54781 0 1
7.664 0 1
7.78024 0 1
7.89653 0 1
8.01286 0 1
8.12924 0 1
8.24567 0 1
8.36213 0 1
8.47864 0 1
8.59519 0 1
8.71178 0 1
8.82841 0 1
8.94508 0 1
9.06179 0 1
9.17853 0 1
9.29531 0 1
9.41212 0 1
9.52897 0 1
9.64584 0 1
9.76276 0 1
9.8797 0 1
9.99667 0 1
10.1137 0 1
10.2307 0 1
10.3478 0 1
10.4648 0 1
10.5819 0 1
10.6991 0 1
10.8162 0 1
10.9334 0 1
11.0506 0 1
11.1678 0 1
11.285 0 1
11.4023 0 1
11.5196 0 1
11.6369 0 1
11.7542 0 1
11.8715 0 1
11.9888 0 1
12.1062 0 1
12.2235 0 1
12.3409 0 1
12.4582 0 1
12.5756 0 1
12.693 0 1
12.8104 0 1
12.9278 0 1
13.0452 0 1
13.1626 0 1
13.28 0 1
13.3974 0 1
13.5149 0 1
13.6323 0 1
13.7497 0 1
13.8671 0 1
13.9845 0 1
14.1019 0 1
14.2193 0 1
14.3367 0 1
14.4541 0 1
14.5714 0 1
14.6888 0 1
14.8062 0 1
14.9235 0 1
15.0408 8130 90.1665
15.1581 8300 91.1043
15.2755 8541 92.4175
15.3927 8777 93.6856
15.51 8544 92.4338
15.6273 8545 92.4392
15.7445 8605 92.7631
15.8617 8341 91.3291
15.9789 8278 90.9835
16.0961 8181 90.4489
16.2132 8072 89.8443
16.3304 8165 90.3604
16.4475 8149 90.2718
16.5646 8471 92.038
16.6816 8446 91.9021
16.7986 8524 92.3255
16.9156 8446 91.9021
17.0326 8245 90.802
17.1496 8450 91.9239
17.2665 8258 90.8735
17.3833 8115 90.0833
17.5002 7970 89.2749
17.617 7942 89.1179
17.7338 8017 89.5377
17.8505 8071 89.8387
17.9672 8545 92.4392
18.0839 8582 92.6391
18.2005 8906 94.3716
18.3171 9029 95.0211
18.4337 9237 96.1093
18.5502 9487 97.4012
18.6666 9595 97.9541
18.7831 9538 97.6627
18.8994 9309 96.4832
19.0158 9063 95.1998
19.1321 8889 94.2815
19.2483 8616 92.8224
19.3645 8347 91.3619
19.4806 8042 89.6772
19.5967 7622 87.3041
19.7128 7458 86.3597
19.8288 7540 86.8332
19.9447 6730 82.0366
20.0606 0 1
20.1764 0 1
20.2922 0 1
20.4079 0 1
20.5236 0 1
20.6392 0 1
20.7548 0 1
20.8702 0 1
23.3078 0 1
23.4233 0 1
23.539 0 1
23.6547 0 1
23.7704 0 1
23.8862 0 1
24.0021 0 1
24.118 0 1
24.234 0 1
24.35 0 1
24.4661 7781 88.21
24.5822 7889 88.82
24.6984 7507 86.6429
24.8146 7483 86.5043
24.9309 7470 86.4292
25.0472 7750 88.0341
25.1636 8100 90
25.28 8301 91.1098
25.3965 8618 92.8332
25.513 8696 93.2523
25.6296 8993 94.8314
25.7462 8820 93.9149
25.8628 8744 93.5094
25.9795 8737 93.4719
26.0962 8763 93.6109
26.213 8075 89.861
26.3298 7933 89.0674
26.4466 7888 88.8144
26.5635 7940 89.1067
26.6804 8227 90.7028
26.7973 8198 90.5428
26.9143 8357 91.4166
27.0313 8612 92.8009
27.1483 8843 94.0372
27.2653 8822 93.9255
27.3824 8871 94.186
27.4996 8975 94.7365
27.6167 8662 93.0699
27.7339 8612 92.8009
27.8511 8492 92.152
27.9683 8261 90.89
28.0855 8171 90.3936
28.2028 7959 89.2132
28.3201 7618 87.2812
28.4374 7454 86.3366
28.5547 7511 86.666
28.6721 7519 86.7122
28.7894 7836 88.5212
28.9068 8158 90.3216
29.0242 8137 90.2053
29.1416 8257 90.868
29.259 8071 89.8387
29.3764 8357 91.4166
29.4939 8080 89.8888
29.6113 7967 89.2581
29.7288 7641 87.4128
29.8463 7587 87.1034
29.9638 7253 85.1645
30.0812 7353 85.7496
30.1987 7627 87.3327
30.3162 7687 87.6755
30.4337 7967 89.2581
30.5512 8161 90.3383
30.6687 8167 90.3715
30.7862 8391 91.6024
30.9037 8470 92.0326
31.0212 8483 92.1032
31.1387 8461 91.9837
31.2562 8265 90.912
31.3737 8370 91.4877
31.4912 8266 90.9175
31.6087 7826 88.4647
31.7262 7836 88.5212
31.8436 7412 86.093
31.9611 7338 85.6621
32.0785 7172 84.6877
32.1959 7319 85.5512
32.3134 7495 86.5737
32.4308 7650 87.4643
32.5482 7927 89.0337
32.6655 7992 89.398
32.7829 7939 89.1011
32.9002 7947 89.1459
33.0176 7919 88.9888
33.1349 7766 88.1249
33.2522 7945 89.1347
33.3694 7443 86.2728
33.4867 7494 86.5679
33.6039 7289 85.3756
33.7211 7086 84.1784
33.8383 7196 84.8292
33.9554 7431 86.2032
34.0725 7496 86.5794
34.1896 7851 88.6059
34.3067 7833 88.5042
34.4237 8076 89.8666
34.5407 8119 90.1055
34.6577 8116 90.0888
34.7746 8264 90.9065
34.8915 8037 89.6493
35.0084 8087 89.9277
35.1252 7947 89.1459
35.242 7800 88.3176
35.3587 7583 87.0804
35.4755 7371 85.8545
35.5921 7374 85.872
35.7088 6875 82.9156
35.8254 6826 82.6196
35.9419 6910 83.1264
36.0584 7006 83.7019
36.1749 7391 85.9709
36.2913 7458 86.3597
36.4077 7574 87.0287
36.524 7379 85.9011
36.6403 7600 87.178
36.7565 7649 87.4586
36.8727 7653 87.4814
36.9889 7374 85.872
37.1049 7197 84.8351
37.221 0 1
37.3369 0 1
37.4529 0 1
37.5687 0 1
37.6845 0 1
37.8003 0 1
37.916 0 1
38.0316 0 1
38.1472 0 1
40.5851 0 1
40.7008 0 1
40.8164 0 1
40.9322 0 1
41.048 0 1
41.1639 0 1
41.2798 0 1
41.3958 0 1
41.5118 0 1
41.6279 0 1
41.744 6022 77.6015
41.8602 6388 79.925
41.9765 6600 81.2404
42.0928 6444 80.2745
42.2091 6400 80
42.3255 6215 78.8353
42.4419 6027 77.6338
42.5584 5914 76.9025
42.675 5775 75.9934
42.7915 5731 75.7034
42.9081 5985 77.3628
43.0248 6067 77.8909
43.1415 6276 79.2212
43.2582 6290 79.3095
43.375 6329 79.555
43.4918 6505 80.6536
43.6087 6458 80.3617
43.7256 6310 79.4355
43.8425 6275 79.2149
43.9595 6280 79.2465
44.0765 6092 78.0513
44.1935 5933 77.026
44.3106 5893 76.7659
44.4277 5547 74.4782
44.5448 5154 71.7914
44.6619 4974 70.5266
44.7791 4877 69.8355
44.8963 4919 70.1356
45.0136 4928 70.1997
45.1308 4997 70.6895
45.2481 5087 71.3232
45.3654 5173 71.9236
45.4827 5057 71.1126
45.6001 5088 71.3302
45.7174 5071 71.211
45.8348 5041 71
45.9522 4820 69.4262
46.0697 4660 68.2642
46.1871 4518 67.2161
46.3046 4389 66.2495
46.422 4428 66.5432
46.5395 4494 67.0373
46.657 4711 68.6367
46.7745 4780 69.1375
46.892 4798 69.2676
47.0096 4841 69.5773
47.1271 4760 68.9928
47.2446 4882 69.8713
47.3622 4807 69.3325
47.4797 4799 69.2748
47.5973 4641 68.1249
47.7149 4612 67.9117
47.8324 4420 66.4831
47.95 4318 65.7115
48.0675 4211 64.8922
48.1851 4007 63.3009
48.3027 3848 62.0322
48.4202 3849 62.0403
48.5378 3856 62.0967
48.6554 3952 62.8649
48.7729 4243 65.1383
48.8904 4214 64.9153
49.008 4362 66.0454
49.1255 4438 66.6183
49.243 4431 66.5658
49.3605 4442 66.6483
49.478 4372 66.1211
49.5955 4364 66.0606
49.713 4105 64.0703
49.8304 4019 63.3956
49.9479 4230 65.0385
50.0653 4341 65.8863
50.1827 4534 67.335
50.3001 4654 68.2202
50.4175 4759 68.9855
50.5348 4878 69.8427
50.6521 5288 72.7186
50.7694 5193 72.0625
50.8867 5215 72.215
51.004 5307 72.8492
51.1212 5350 73.1437
51.2384 5599 74.8265
51.3556 5347 73.1232
51.4727 5375 73.3144
51.5899 5420 73.6206
51.707 5243 72.4086
51.824 5196 72.0833
51.9411 5193 72.0625
52.0581 5246 72.4293
52.175 5573 74.6525
52.2919 6008 77.5113
52.4088 6362 79.7621
52.5257 6369 79.806
52.6425 6480 80.4984
52.7593 6546 80.9074
52.876 6807 82.5045
52.9927 6617 81.3449
53.1094 6645 81.5169
53.226 6308 79.4229
53.3426 6158 78.4729
53.4591 6156 78.4602
53.5756 6254 79.0822
53.692 6491 80.5667
53.8084 6968 83.4745
53.9248 7010 83.7257
54.0411 7231 85.0353
54.1573 7415 86.1104
54.2735 0 1
54.3896 0 1
54.5057 0 1
54.6217 0 1
54.7377 0 1
54.8537 0 1
54.9695 0 1
55.0853 0 1
55.2011 0 1
55.3168 0 1
55.4324 0 1
57.824 0 1
57.9396 0 1
58.0553 0 1
58.1711 0 1
58.2869 0 1
58.4028 0 1
58.5187 0 1
58.6347 0 1
58.7508 0 1
58.8669 0 1
58.983 7969 89.2693
59.0992 8689 93.2148
59.2155 9117 95.483
59.3318 9248 96.1665
59.4482 9291 96.3898
59.5646 9304 96.4572
59.681 9500 97.4679
59.7975 9518 97.5602
59.9141 9495 97.4423
60.0306 9413 97.0206
60.1473 9040 95.0789
60.2639 9104 95.4149
60.3807 8682 93.1773
60.4974 8216 90.6422
60.6142 7916 88.9719
60.731 7880 88.7694
60.8479 7892 88.8369
60.9648 7922 89.0056
61.0818 8350 91.3783
61.1987 8439 91.864
61.3158 8826 93.9468
61.4328 8804 93.8296
61.5499 8815 93.8882
61.667 8875 94.2072
61.7841 8699 93.2684
61.9013 8138 90.2109
62.0185 7843 88.5607
62.1357 7798 88.3063
62.253 7612 87.2468
62.3702 7794 88.2836
62.4875 8163 90.3493
62.6049 8104 90.0222
62.7222 8362 91.444
62.8396 8627 92.8816
62.9569 8564 92.5419
63.0743 8803 93.8243
63.1918 8471 92.038
63.3092 8588 92.6715
63.4267 8377 91.526
63.5441 8370 91.4877
63.6616 8357 91.4166
63.7791 8017 89.5377
63.8966 7815 88.4025
64.0142 7453 86.3308
64.1317 7302 85.4517
64.2492 6875 82.9156
64.3668 7232 85.0412
64.4843 7258 85.1939
64.6019 7412 86.093
64.7195 7583 87.0804
64.837 8003 89.4595
64.9546 8036 89.6437
65.0722 8328 91.2579
65.1898 8267 90.923
65.3074 8346 91.3564
65.4249 7849 88.5946
65.5425 7669 87.5728
65.6601 7381 85.9127
65.7777 7219 84.9647
65.8952 7069 84.0773
66.0128 7407 86.0639
66.1304 7573 87.023
66.2479 7816 88.4081
66.3655 7898 88.8707
66.483 8181 90.4489
66.6005 8144 90.2441
66.718 8404 91.6733
66.8355 8471 92.038
66.953 8457 91.9619
67.0705 8370 91.4877
67.1879 8501 92.2009
67.3054 8202 90.5649
67.4228 8212 90.6201
67.5402 7929 89.0449
67.6576 7745 88.0057
67.7749 7262 85.2174
67.8923 7099 84.2556
68.0096 7300 85.44
68.1269 7518 86.7064
68.2442 7708 87.7952
68.3614 8034 89.6326
68.4787 8083 89.9055
68.5958 8376 91.5205
68.713 8567 92.5581
68.8302 8969 94.7048
68.9473 8888 94.2762
69.0643 8826 93.9468
69.1814 8418 91.7497
69.2984 8028 89.5991
69.4154 7612 87.2468
69.5323 7463 86.3887
69.6492 7657 87.5043
69.7661 8067 89.8165
69.8829 8443 91.8858
69.9997 8661 93.0645
70.1165 8793 93.771
70.2332 9065 95.2103
70.3499 9019 94.9684
70.4665 9193 95.8801
70.5831 9247 96.1613
70.6996 9118 95.4882
70.8161 9060 95.184
70.9326 9185 95.8384
71.049 8898 94.3292
71.1653 8794 93.7763
71.2817 8435 91.8423
71.3979 7921 89
71.5141 7404 86.0465
71.6303 7084 84.1665
71.7464 6731 82.0427
71.8624 0 1
71.9784 0 1
72.0944 0 1
72.2102 0 1
72.3261 0 1
72.4418 0 1
72.5575 0 1
72.6732 0 1
75.1054 0 1
75.2209 0 1
75.3365 0 1
75.4521 0 1
75.5678 0 1
75.6835 0 1
75.7993 0 1
75.9151 0 1
76.031 0 1
76.147 8077 89.8721
76.263 8807 93.8456
76.3791 8618 92.8332
76.4952 8402 91.6624
76.6113 8231 90.7249
76.7276 7730 87.9204
76.8438 7443 86.2728
76.9601 7588 87.1091
77.0765 7755 88.0625
77.1929 8074 89.8554
77.3093 8305 91.1318
77.4258 8601 92.7416
77.5423 8604 92.7577
77.6589 8939 94.5463
77.7755 9116 95.4777
77.8921 9049 95.1262
78.0088 8728 93.4238
78.1256 8711 93.3327
78.2423 7934 89.073
78.3591 7731 87.9261
78.4759 7301 85.4459
78.5928 7428 86.1858
78.7097 7884 88.7919
78.8266 7946 89.1403
78.9436 8700 93.2738
79.0606 8701 93.2792
79.1776 8832 93.9787
79.2946 9131 95.5563
79.4117 9047 95.1157
79.5288 9101 95.3992
79.6459 9132 95.5615
79.7631 8978 94.7523
79.8802 9009 94.9158
79.9974 8979 94.7576
80.1147 8925 94.4722
80.2319 8310 91.1592
80.3491 7957 89.202
80.4664 7632 87.3613
80.5837 7549 86.885
80.701 7667 87.5614
80.8183 7835 88.5155
80.9357 8291 91.0549
81.053 8652 93.0161
81.1704 8726 93.4131
81.2877 8753 93.5575
81.4051 9122 95.5092
81.5225 9418 97.0464
81.6399 9042 95.0894
81.7573 8997 94.8525
81.8747 8238 90.7634
81.9922 7626 87.327
82.1096 7253 85.1645
82.227 7496 86.5794
82.3444 7764 88.1136
82.4619 8144 90.2441
82.5793 8697 93.2577
82.6967 8635 92.9247
82.8142 8905 94.3663
82.9316 8882 94.2444
83.049 9055 95.1578
83.1664 9182 95.8228
83.2838 9134 95.572
83.4012 9097 95.3782
83.5186 9120 95.4987
83.636 8950 94.6044
83.7534 8707 93.3113
83.8708 8602 92.747
83.9881 8046 89.6995
84.1055 7549 86.885
84.2228 7717 87.8465
84.3401 7975 89.3029
84.4575 8155 90.305
84.5747 8150 90.2774
84.692 8712 93.3381
84.8093 9015 94.9474
84.9265 9421 97.0618
85.0437 9485 97.391
85.1609 9683 98.4022
85.2781 9234 96.0937
85.3952 8946 94.5833
85.5123 8162 90.3438
85.6294 7756 88.0682
85.7465 7437 86.238
85.8636 7737 87.9602
85.9806 8355 91.4057
86.0976 8727 93.4184
86.2145 9194 95.8853
86.3315 9300 96.4365
86.4484 9374 96.8194
86.5652 9854 99.2673
86.682 9826 99.1262
86.7988 9787 98.9293
86.9156 9814 99.0656
87.0323 9769 98.8383
87.149 9584 97.8979
87.2657 9756 98.7725
87.3823 9749 98.737
87.4988 9003 94.8841
87.6154 8437 91.8531
87.7318 8177 90.4268
87.8483 8128 90.1554
87.9647 8324 91.236
88.081 8872 94.1913
88.1973 9092 95.352
88.3136 9482 97.3756
88.4298 9696 98.4683
88.546 9856 99.2774
88.6621 9961 99.8048
88.7781 9997 99.985
88.8942 0 1
89.0101 0 1
89.126 0 1
89.2419 0 1
89.3577 0 1
89.4734 0 1
89.5891 0 1
89.7047 0 1
89.8203 0 1
89.9358 0 1
92.3269 0 1
92.4424 0 1
92.558 0 1
92.6736 0 1
92.7893 0 1
92.905 0 1
93.0208 0 1
93.1366 0 1
93.2525 0 1
93.3685 0 1
93.4845 0 1
93.6005 8598 92.7254
93.7167 9010 94.921
93.8328 9266 96.2601
93.949 9342 96.654
94.0653 9524 97.591
94.1816 9273 96.2964
94.2979 8888 94.2762
94.4143 8221 90.6697
94.5307 7744 88
94.6472 7504 86.6256
94.7637 7522 86.7295
94.8803 8124 90.1332
94.9969 8655 93.0323
95.1135 8865 94.1541
95.2302 8857 94.1116
95.3469 8987 94.7998
95.4637 9363 96.7626
95.5805 9288 96.3743
95.6973 9469 97.3088
95.8142 9448 97.2008
95.9311 9424 97.0773
96.048 9473 97.3293
96.1649 9357 96.7316
96.2819 9210 95.9687
96.3989 9219 96.0156
96.516 8750 93.5414
96.633 8371 91.4932
96.7501 7904 88.9044
96.8673 7917 88.9775
96.9844 8009 89.493
97.1016 8032 89.6214
97.2188 8346 91.3564
97.336 8689 93.2148
97.4532 8993 94.8314
97.5704 9214 95.9896
97.6877 9421 97.0618
97.805 9417 97.0412
97.9223 9210 95.9687
98.0396 8541 92.4175
98.1569 8111 90.0611
98.2743 7856 88.6341
98.3916 7490 86.5448
98.509 7630 87.3499
98.6264 7870 88.713
98.7438 8301 91.1098
98.8612 8594 92.7038
98.9786 8846 94.0532
99.096 9052 95.142
99.2134 9023 94.9895
99.3308 9070 95.2365
99.4482 8907 94.3769
99.5656 8847 94.0585
99.6831 8935 94.5251
99.8005 8874 94.2019
99.9179 8770 93.6483
100.035 8866 94.1594
100.153 8448 91.913
100.27 8147 90.2607
100.388 7821 88.4364
100.505 7689 87.6869
100.622 7556 86.9253
100.74 7973 89.2917
100.857 8238 90.7634
100.975 8580 92.6283
101.092 8824 93.9361
101.209 9178 95.8019
101.327 9263 96.2445
101.444 9358 96.7368
101.561 9025 95
101.679 8823 93.9308
101.796 8040 89.666
101.913 7551 86.8965
102.03 7460 86.3713
102.148 7976 89.3085
102.265 7700 87.7496
102.382 9304 96.4572
102.499 9000 94.8683
102.616 8978 94.7523
102.733 9390 96.902
102.851 9526 97.6012
102.968 9474 97.3345
103.085 9559 97.7701
103.202 9484 97.3858
103.319 9603 97.9949
103.436 9526 97.6012
103.552 9418 97.0464
103.669 9040 95.0789
103.786 8809 93.8563
103.903 8398 91.6406
104.02 8087 89.9277
104.137 8469 92.0272
104.253 8498 92.1846
104.37 8821 93.9202
104.487 9060 95.184
104.603 9514 97.5397
104.72 9665 98.3107
104.836 9943 99.7146
104.953 10023 100.115
105.069 9786 98.9242
105.186 8967 94.6942
105.302 8420 91.7606
105.418 8114 90.0777
105.535 7885 88.7975
105.651 8294 91.0714
105.767 8888 94.2762
105.883 9214 95.9896
105.999 9260 96.2289
106.115 0 1
106.231 0 1
106.347 0 1
106.463 0 1
106.579 0 1
106.694 0 1
106.81 0 1
106.926 0 1
107.041 0 1
107.157 0 1
109.576 0 1
109.692 0 1
109.807 0 1
109.923 0 1
110.039 0 1
110.155 0 1
110.27 0 1
110.386 0 1
110.502 0 1
110.618 6915 83.1565
110.735 7625 87.3212
110.851 7819 88.4251
110.967 8189 90.4931
111.083 8539 92.4067
111.199 8594 92.7038
111.316 8685 93.1933
111.432 8690 93.2202
111.549 8777 93.6856
111.665 8659 93.0537
111.782 8547 92.45
111.898 8403 91.6679
112.015 8412 91.717
112.132 8287 91.033
112.248 7919 88.9888
112.365 7626 87.327
112.482 7498 86.591
112.599 6988 83.5943
112.716 7097 84.2437
112.832 7248 85.1352
112.949 7238 85.0764
113.066 7737 87.9602
113.183 7841 88.5494
113.3 8057 89.7608
113.417 8009 89.493
113.534 8228 90.7083
113.652 7917 88.9775
113.769 7538 86.8217
113.886 7148 84.5458
114.003 6515 80.7155
114.12 6366 79.7872
114.238 6602 81.2527
114.355 6875 82.9156
114.472 7104 84.2852
114.589 7134 84.463
114.707 7400 86.0233
114.824 7377 85.8895
114.942 7388 85.9535
115.059 7413 86.0988
115.176 7117 84.3623
115.294 7360 85.7904
115.411 7074 84.1071
115.529 6966 83.4626
115.646 6739 82.0914
115.764 6540 80.8703
115.881 6318 79.4858
115.999 5784 76.0526
116.116 5522 74.3102
116.234 5711 75.5712
116.351 5813 76.243
116.469 5824 76.3151
116.586 5971 77.2722
116.704 6051 77.7882
116.821 6145 78.3901
116.939 6334 79.5864
117.056 6391 79.9437
117.174 6366 79.7872
117.291 6356 79.7245
117.409 5891 76.7529
117.526 5640 75.0999
117.644 5315 72.904
117.761 5393 73.437
117.879 5624 74.9933
117.996 5847 76.4657
118.114 5991 77.4016
118.231 6173 78.5684
118.349 6294 79.3347
118.466 6349 79.6806
118.584 6268 79.1707
118.701 6435 80.2185
118.819 6624 81.388
118.936 6491 80.5667
119.053 6099 78.0961
119.171 6325 79.5299
119.288 6320 79.4984
119.405 6002 77.4726
119.523 5919 76.935
119.64 5746 75.8024
119.757 5773 75.9803
119.875 5779 76.0197
119.992 5752 75.8419
120.109 6019 77.5822
120.226 6116 78.2049
120.343 6441 80.2558
120.46 6525 80.7775
120.578 6669 81.6639
120.695 6897 83.0482
120.812 6955 83.3966
120.929 6974 83.5105
121.046 6558 80.9815
121.163 6247 79.038
121.279 6168 78.5366
121.396 5905 76.844
121.513 6101 78.1089
121.63 6602 81.2527
121.747 6785 82.3711
121.863 7178 84.7231
121.98 7442 86.267
122.097 7573 87.023
122.213 7456 86.3481
122.33 7613 87.2525
122.446 7673 87.5957
122.563 7572 87.0172
122.679 7627 87.3327
122.795 7412 86.093
122.912 7404 86.0465
123.028 7382 85.9186
123.144 7209 84.9058
123.26 6798 82.45
123.377 0 1
123.493 0 1
123.609 0 1
123.725 0 1
123.84 0 1
123.956 0 1
124.072 0 1
124.188 0 1
124.303 0 1
124.419 0 1
126.852 0 1
126.968 0 1
127.083 0 1
127.199 0 1
127.315 0 1
127.431 0 1
127.547 0 1
127.663 0 1
127.779 0 1
127.895 0 1
128.011 0 1
128.127 0 1
128.243 0 1
128.359 8614 92.8116
128.476 8371 91.4932
128.592 8205 90.5815
128.708 7839 88.5381
128.825 7809 88.3685
128.941 7920 88.9944
129.058 7555 86.9195
129.174 7999 89.4371
129.291 8291 91.0549
129.408 8575 92.6013
129.524 8903 94.3557
129.641 9085 95.3153
129.758 8780 93.7017
129.875 8969 94.7048
129.992 8523 92.3201
130.108 8361 91.4385
130.225 7683 87.6527
130.342 7627 87.3327
130.459 7229 85.0235
130.576 7482 86.4986
130.693 7917 88.9775
130.81 8266 90.9175
130.928 8303 91.1208
131.045 8388 91.586
131.162 8557 92.5041
131.279 8593 92.6984
131.396 8868 94.1701
131.513 8718 93.3702
131.631 8543 92.4284
131.748 8379 91.5369
131.865 8246 90.8075
131.983 8145 90.2497
132.1 7708 87.7952
132.217 7645 87.4357
132.335 7255 85.1763
132.452 7339 85.668
132.57 7462 86.3829
132.687 7381 85.9127
132.804 8098 89.9889
132.922 8134 90.1887
133.039 8314 91.1811
133.157 8332 91.2798
133.274 8394 91.6188
133.392 8465 92.0054
133.509 8255 90.857
133.627 7960 89.2188
133.744 7457 86.3539
133.862 7191 84.7998
133.979 6990 83.6062
134.097 7051 83.9702
134.214 7656 87.4986
134.332 7584 87.0862
134.449 7955 89.1908
134.567 8063 89.7942
134.684 7898 88.8707
134.802 8068 89.822
134.919 8094 89.9667
135.037 8093 89.9611
135.154 7707 87.7895
135.272 7667 87.5614
135.389 7414 86.1046
135.507 7332 85.6271
135.624 7160 84.6168
135.742 6833 82.662
135.859 6481 80.5047
135.977 6373 79.8311
136.094 6326 79.5362
136.211 6454 80.3368
136.329 6392 79.95
136.446 6777 82.3225
136.564 6970 83.4865
136.681 6868 82.8734
136.798 7077 84.1249
136.915 6976 83.5225
137.033 6896 83.0422
137.15 6744 82.1219
137.267 6481 80.5047
137.384 6192 78.6893
137.502 5955 77.1686
137.619 5869 76.6094
137.736 6151 78.4283
137.853 6433 80.206
137.97 6904 83.0903
138.087 7024 83.8093
138.204 7009 83.7198
138.321 7419 86.1336
138.438 7471 86.4349
138.555 7660 87.5214
138.672 7736 87.9545
138.788 7634 87.3728
138.905 7507 86.6429
139.022 7584 87.0862
139.139 7413 86.0988
139.255 7283 85.3405
139.372 7263 85.2232
139.488 7011 83.7317
139.605 7111 84.3267
139.721 7320 85.557
139.838 7321 85.5628
139.954 7797 88.3006
140.071 7708 87.7952
140.187 8084 89.9111
140.303 8227 90.7028
140.419 8264 90.9065
140.535 8322 91.225
140.652 8357 91.4166
140.768 0 1
140.884 0 1
141 0 1
141.115 0 1
141.231 0 1
141.347 0 1
141.463 0 1
141.578 0 1
141.694 0 1
144.104 0 1
144.219 0 1
144.335 0 1
144.45 0 1
144.566 0 1
144.682 0 1
144.798 0 1
144.914 0 1
145.03 0 1
145.146 11349 106.532
145.262 12408 111.391
145.378 13205 114.913
145.494 14168 119.029
145.61 14667 121.107
145.726 15523 124.591
145.842 16000 126.491
145.959 15820 125.778
146.075 15468 124.37
146.192 15573 124.792
146.308 15389 124.052
146.425 16000 126.491
146.541 17193 131.122
146.658 18719 136.817
146.774 19728 140.456
146.891 21252 145.781
147.008 22414 149.713
147.125 23511 153.333
147.241 24264 155.769
147.358 24674 157.08
147.475 25386 159.33
147.592 25149 158.584
147.709 25106 158.449
147.826 24865 157.686
147.943 24865 157.686
148.06 24170 155.467
148.177 23716 154
148.294 23202 152.322
148.411 23506 153.317
148.528 23872 154.506
148.645 24490 156.493
148.762 25022 158.183
148.88 26051 161.403
148.997 27392 165.505
149.114 25215 158.792
149.231 25984 161.196
149.349 25797 160.614
149.466 25592 159.975
149.583 24432 156.307
149.701 23019 151.72
149.818 21752 147.486
149.935 21008 144.941
150.053 21093 145.234
150.17 21346 146.103
150.287 22739 150.795
150.405 23330 152.742
150.522 24117 155.296
150.64 24870 157.702
150.757 25327 159.145
150.875 25615 160.047
150.992 25337 159.176
151.11 25943 161.068
151.227 25156 158.606
151.344 24865 157.686
151.462 24775 157.401
151.579 24090 155.21
151.697 23900 154.596
151.814 23103 151.997
151.932 23019 151.72
152.049 23459 153.163
152.167 24451 156.368
152.284 25304 159.072
152.402 25921 161
152.519 27223 164.994
152.636 27457 165.702
152.754 27616 166.181
152.871 28270 168.137
152.989 27928 167.117
153.106 27386 165.487
153.223 25961 161.124
153.341 24291 155.856
153.458 23584 153.571
153.575 22918 151.387
153.693 23333 152.751
153.81 24652 157.01
153.927 25533 159.79
154.044 26845 163.844
154.162 27712 166.469
154.279 28284 168.178
154.396 29395 171.45
154.513 29879 172.855
154.63 30522 174.705
154.747 30517 174.691
154.864 30460 174.528
154.981 29903 172.925
155.098 29540 171.872
155.215 29542 171.878
155.332 28998 170.288
155.449 28381 168.467
155.566 27970 167.242
155.683 28833 169.803
155.8 29923 172.983
155.917 30890 175.756
156.033 31984 178.841
156.15 0 1
156.267 0 1
156.383 0 1
156.5 0 1
156.617 0 1
156.733 0 1
156.85 0 1
156.966 0 1
157.082 0 1
157.199 0 1
157.315 0 1
157.431 0 1
157.547 0 1
157.664 0 1
157.78 0 1
157.896 0 1
158.012 0 1
158.128 0 1
158.244 0 1
158.359 0 1
158.475 0 1
158.591 0 1
158.706 0 1
