
6.15755 0 1
6.2731 0 1
6.3887 0 1
6.50437 0 1
6.62009 0 1
6.73587 0 1
6.8517 0 1
6.96759 0 1
7.08353 0 1
7.19952 0 1
7.31557 0 1
7.43166 0 1
7.54781 0 1
7.664 0 1
7.78024 0 1
7.89653 0 1
8.01286 0 1
8.12924 0 1
8.24567 0 1
8.36213 0 1
8.47864 0 1
8.59519 0 1
8.71178 0 1
8.82841 0 1
8.94508 0 1
9.06179 0 1
9.17853 0 1
9.29531 0 1
9.41212 0 1
9.52897 0 1
9.64584 0 1
9.76276 0 1
9.8797 0 1
9.99667 0 1
10.1137 0 1
10.2307 0 1
10.3478 0 1
10.4648 0 1
10.5819 0 1
10.6991 0 1
10.8162 0 1
10.9334 0 1
11.0506 0 1
11.1678 0 1
11.285 0 1
11.4023 0 1
11.5196 0 1
11.6369 0 1
11.7542 0 1
11.8715 0 1
11.9888 0 1
12.1062 0 1
12.2235 0 1
12.3409 0 1
12.4582 0 1
12.5756 0 1
12.693 0 1
12.8104 0 1
12.9278 0 1
13.0452 0 1
13.1626 0 1
13.28 0 1
13.3974 0 1
13.5149 0 1
13.6323 0 1
13.7497 0 1
13.8671 0 1
13.9845 0 1
14.1019 0 1
14.2193 0 1
14.3367 0 1
14.4541 0 1
14.5714 0 1
14.6888 0 1
14.8062 0 1
14.9235 0 1
15.0408 0 0
15.1581 0 0
15.2755 0 0
15.3927 0 0
15.51 0 0
15.6273 0 0
15.7445 0 0
15.8617 0 0
15.9789 0 0
16.0961 0 0
16.2132 0 0
16.3304 0 0
16.4475 0 0
16.5646 0 0
16.6816 0 0
16.7986 0 0
16.9156 0 0
17.0326 0 0
17.1496 0 0
17.2665 0 0
17.3833 0 0
17.5002 0 0
17.617 0 0
17.7338 0 0
17.8505 0 0
17.9672 0 0
18.0839 0 0
18.2005 0 0
18.3171 0 0
18.4337 0 0
18.5502 0 0
18.6666 0 0
18.7831 0 0
18.8994 0 0
19.0158 0 0
19.1321 0 0
19.2483 0 0
19.3645 0 0
19.4806 0 0
19.5967 0 0
19.7128 0 0
19.8288 0 0
19.9447 0 0
20.0606 0 1
20.1764 0 1
20.2922 0 1
20.4079 0 1
20.5236 0 1
20.6392 0 1
20.7548 0 1
20.8702 0 1
23.3078 0 1
23.4233 0 1
23.539 0 1
23.6547 0 1
23.7704 0 1
23.8862 0 1
24.0021 0 1
24.118 0 1
24.234 0 1
24.35 0 1
24.4661 1750 41.833
24.5822 1801 42.4382
24.6984 1766 42.0238
24.8146 1805 42.4853
24.9309 1767 42.0357
25.0472 1741 41.7253
25.1636 1730 41.5933
25.28 1597 39.9625
25.3965 1715 41.4126
25.513 1820 42.6615
25.6296 1775 42.1307
25.7462 1855 43.0697
25.8628 1969 44.3734
25.9795 2037 45.1331
26.0962 2021 44.9555
26.213 2014 44.8776
26.3298 2045 45.2217
26.4466 2029 45.0444
26.5635 1994 44.6542
26.6804 1914 43.7493
26.7973 1832 42.8019
26.9143 1838 42.8719
27.0313 1889 43.4626
27.1483 1891 43.4856
27.2653 2013 44.8665
27.3824 1953 44.1928
27.4996 2025 45
27.6167 1946 44.1135
27.7339 1976 44.4522
27.8511 1946 44.1135
27.9683 1832 42.8019
28.0855 1838 42.8719
28.2028 1918 43.795
28.3201 1802 42.45
28.4374 1825 42.72
28.5547 1778 42.1663
28.6721 1610 40.1248
28.7894 1656 40.694
28.9068 1672 40.8901
29.0242 1764 42
29.1416 1749 41.821
29.259 1766 42.0238
29.3764 1912 43.7264
29.4939 1920 43.8178
29.6113 2062 45.4093
29.7288 2012 44.8553
29.8463 2038 45.1442
29.9638 1978 44.4747
30.0812 1930 43.9318
30.1987 1917 43.7836
30.3162 1781 42.2019
30.4337 1700 41.2311
30.5512 1808 42.5206
30.6687 1910 43.7035
30.7862 1901 43.6005
30.9037 2034 45.0999
31.0212 2017 44.911
31.1387 2070 45.4973
31.2562 2021 44.9555
31.3737 2021 44.9555
31.4912 1926 43.8862
31.6087 1868 43.2204
31.7262 1875 43.3013
31.8436 1819 42.6497
31.9611 1833 42.8135
32.0785 1820 42.6615
32.1959 1732 41.6173
32.3134 1696 41.1825
32.4308 1737 41.6773
32.5482 1771 42.0833
32.6655 1797 42.391
32.7829 1785 42.2493
32.9002 1937 44.0114
33.0176 1942 44.0681
33.1349 1998 44.699
33.2522 1921 43.8292
33.3694 2039 45.1553
33.4867 1997 44.6878
33.6039 1971 44.3959
33.7211 1965 44.3283
33.8383 1952 44.1814
33.9554 1766 42.0238
34.0725 1771 42.0833
34.1896 1797 42.391
34.3067 1916 43.7721
34.4237 1870 43.2435
34.5407 1836 42.8486
34.6577 1964 44.317
34.7746 1960 44.2719
34.8915 2019 44.9333
35.0084 1963 44.3058
35.1252 1975 44.441
35.242 1917 43.7836
35.3587 1838 42.8719
35.4755 1905 43.6463
35.5921 1859 43.1161
35.7088 1789 42.2966
35.8254 1725 41.5331
35.9419 1685 41.0488
36.0584 1722 41.497
36.1749 1657 40.7063
36.2913 1718 41.4488
36.4077 1754 41.8808
36.524 1766 42.0238
36.6403 1827 42.7434
36.7565 1844 42.9418
36.8727 1962 44.2945
36.9889 1920 43.8178
37.1049 1941 44.0568
37.221 0 1
37.3369 0 1
37.4529 0 1
37.5687 0 1
37.6845 0 1
37.8003 0 1
37.916 0 1
38.0316 0 1
38.1472 0 1
40.5851 0 1
40.7008 0 1
40.8164 0 1
40.9322 0 1
41.048 0 1
41.1639 0 1
41.2798 0 1
41.3958 0 1
41.5118 0 1
41.6279 0 1
41.744 1454 38.1314
41.8602 1580 39.7492
41.9765 1657 40.7063
42.0928 1709 41.3401
42.2091 1732 41.6173
42.3255 1718 41.4488
42.4419 1701 41.2432
42.5584 1603 40.0375
42.675 1569 39.6106
42.7915 1518 38.9615
42.9081 1436 37.8946
43.0248 1521 39
43.1415 1561 39.5095
43.2582 1648 40.5956
43.375 1631 40.3856
43.4918 1745 41.7732
43.6087 1724 41.5211
43.7256 1713 41.3884
43.8425 1669 40.8534
43.9595 1626 40.3237
44.0765 1542 39.2683
44.1935 1552 39.3954
44.3106 1600 40
44.4277 1482 38.4968
44.5448 1499 38.7169
44.6619 1370 37.0135
44.7791 1235 35.1426
44.8963 1230 35.0714
45.0136 1319 36.318
45.1308 1334 36.524
45.2481 1320 36.3318
45.3654 1438 37.921
45.4827 1461 38.223
45.6001 1444 38
45.7174 1394 37.3363
45.8348 1486 38.5487
45.9522 1509 38.8458
46.0697 1461 38.223
46.1871 1352 36.7696
46.3046 1274 35.6931
46.422 1151 33.9264
46.5395 1235 35.1426
46.657 1278 35.7491
46.7745 1302 36.0832
46.892 1270 35.6371
47.0096 1372 37.0405
47.1271 1335 36.5377
47.2446 1383 37.1887
47.3622 1296 36
47.4797 1270 35.6371
47.5973 1264 35.5528
47.7149 1154 33.9706
47.8324 1189 34.4819
47.95 1118 33.4365
48.0675 1100 33.1662
48.1851 1024 32
48.3027 958 30.9516
48.4202 945 30.7409
48.5378 973 31.1929
48.6554 1050 32.4037
48.7729 1076 32.8024
48.8904 1082 32.8938
49.008 1212 34.8138
49.1255 1233 35.1141
49.243 1164 34.1174
49.3605 1219 34.9142
49.478 1143 33.8083
49.5955 1192 34.5254
49.713 1069 32.6956
49.8304 1060 32.5576
49.9479 1070 32.7109
50.0653 1081 32.8786
50.1827 1139 33.7491
50.3001 1207 34.7419
50.4175 1226 35.0143
50.5348 1337 36.565
50.6521 1260 35.4965
50.7694 1306 36.1386
50.8867 1360 36.8782
51.004 1374 37.0675
51.1212 1372 37.0405
51.2384 1367 36.973
51.3556 1396 37.3631
51.4727 1344 36.6606
51.5899 1358 36.8511
51.707 1296 36
51.824 1291 35.9305
51.9411 1218 34.8999
52.0581 1333 36.5103
52.175 1367 36.973
52.2919 1457 38.1707
52.4088 1528 39.0896
52.5257 1508 38.833
52.6425 1685 41.0488
52.7593 1617 40.2119
52.876 1616 40.1995
52.9927 1659 40.7308
53.1094 1702 41.2553
53.226 1589 39.8623
53.3426 1500 38.7298
53.4591 1416 37.6298
53.5756 1461 38.223
53.692 1448 38.0526
53.8084 1506 38.8072
53.9248 1608 40.0999
54.0411 1647 40.5832
54.1573 1816 42.6146
54.2735 0 1
54.3896 0 1
54.5057 0 1
54.6217 0 1
54.7377 0 1
54.8537 0 1
54.9695 0 1
55.0853 0 1
55.2011 0 1
55.3168 0 1
55.4324 0 1
57.824 0 1
57.9396 0 1
58.0553 0 1
58.1711 0 1
58.2869 0 1
58.4028 0 1
58.5187 0 1
58.6347 0 1
58.7508 0 1
58.8669 0 1
58.983 1766 42.0238
59.0992 1892 43.4971
59.2155 1875 43.3013
59.3318 2011 44.8442
59.4482 2091 45.7275
59.5646 2089 45.7056
59.681 2024 44.9889
59.7975 2052 45.299
59.9141 2036 45.1221
60.0306 1936 44
60.1473 1834 42.8252
60.2639 1853 43.0465
60.3807 1691 41.1218
60.4974 1691 41.1218
60.6142 1683 41.0244
60.731 1676 40.939
60.8479 1619 40.2368
60.9648 1795 42.3674
61.0818 1842 42.9185
61.1987 1905 43.6463
61.3158 1943 44.0795
61.4328 1888 43.4511
61.5499 1978 44.4747
61.667 1895 43.5316
61.7841 1882 43.382
61.9013 1787 42.2729
62.0185 1632 40.398
62.1357 1615 40.1871
62.253 1677 40.9512
62.3702 1730 41.5933
62.4875 1722 41.497
62.6049 1913 43.7379
62.7222 1847 42.9767
62.8396 1861 43.1393
62.9569 1946 44.1135
63.0743 1979 44.486
63.1918 1879 43.3474
63.3092 1858 43.1045
63.4267 1810 42.5441
63.5441 1801 42.4382
63.6616 1771 42.0833
63.7791 1690 41.1096
63.8966 1550 39.37
64.0142 1551 39.3827
64.1317 1474 38.3927
64.2492 1463 38.2492
64.3668 1550 39.37
64.4843 1561 39.5095
64.6019 1630 40.3733
64.7195 1697 41.1947
64.837 1758 41.9285
64.9546 1835 42.8369
65.0722 1811 42.5558
65.1898 1787 42.2729
65.3074 1679 40.9756
65.4249 1508 38.833
65.5425 1510 38.8587
65.6601 1454 38.1314
65.7777 1502 38.7556
65.8952 1605 40.0625
66.0128 1646 40.5709
66.1304 1672 40.8901
66.2479 1700 41.2311
66.3655 1858 43.1045
66.483 1865 43.1856
66.6005 1854 43.0581
66.718 1852 43.0349
66.8355 1803 42.4617
66.953 1880 43.359
67.0705 1698 41.2068
67.1879 1743 41.7493
67.3054 1629 40.3609
67.4228 1605 40.0625
67.5402 1516 38.9358
67.6576 1392 37.3095
67.7749 1439 37.9342
67.8923 1399 37.4032
68.0096 1506 38.8072
68.1269 1528 39.0896
68.2442 1625 40.3113
68.3614 1679 40.9756
68.4787 1704 41.2795
68.5958 1755 41.8927
68.713 1684 41.0366
68.8302 1722 41.497
68.9473 1679 40.9756
69.0643 1602 40.025
69.1814 1547 39.3319
69.2984 1403 37.4566
69.4154 1545 39.3065
69.5323 1594 39.9249
69.6492 1730 41.5933
69.7661 1777 42.1545
69.8829 1846 42.9651
69.9997 1921 43.8292
70.1165 1988 44.587
70.2332 1873 43.2782
70.3499 1978 44.4747
70.4665 1901 43.6005
70.5831 1911 43.715
70.6996 1802 42.45
70.8161 1732 41.6173
70.9326 1736 41.6653
71.049 1635 40.4351
71.1653 1561 39.5095
71.2817 1440 37.9473
71.3979 1372 37.0405
71.5141 1427 37.7757
71.6303 1396 37.3631
71.7464 1305 36.1248
71.8624 0 1
71.9784 0 1
72.0944 0 1
72.2102 0 1
72.3261 0 1
72.4418 0 1
72.5575 0 1
72.6732 0 1
75.1054 0 1
75.2209 0 1
75.3365 0 1
75.4521 0 1
75.5678 0 1
75.6835 0 1
75.7993 0 1
75.9151 0 1
76.031 0 1
76.147 1565 39.5601
76.263 1745 41.7732
76.3791 1573 39.6611
76.4952 1584 39.7995
76.6113 1475 38.4057
76.7276 1369 37
76.8438 1386 37.229
76.9601 1464 38.2623
77.0765 1553 39.4081
77.1929 1619 40.2368
77.3093 1825 42.72
77.4258 1805 42.4853
77.5423 1865 43.1856
77.6589 1818 42.638
77.7755 1779 42.1782
77.8921 1691 41.1218
78.0088 1631 40.3856
78.1256 1411 37.5633
78.2423 1425 37.7492
78.3591 1330 36.4692
78.4759 1424 37.7359
78.5928 1537 39.2046
78.7097 1605 40.0625
78.8266 1676 40.939
78.9436 1861 43.1393
79.0606 1728 41.5692
79.1776 1796 42.3792
79.2946 1866 43.1972
79.4117 1849 43
79.5288 1834 42.8252
79.6459 1828 42.7551
79.7631 1733 41.6293
79.8802 1670 40.8656
79.9974 1608 40.0999
80.1147 1529 39.1024
80.2319 1465 38.2753
80.3491 1397 37.3765
80.4664 1344 36.6606
80.5837 1418 37.6563
80.701 1515 38.923
80.8183 1572 39.6485
80.9357 1673 40.9023
81.053 1679 40.9756
81.1704 1713 41.3884
81.2877 1744 41.7612
81.4051 1763 41.9881
81.5225 1646 40.5709
81.6399 1556 39.4462
81.7573 1453 38.1182
81.8747 1329 36.4555
81.9922 1273 35.6791
82.1096 1276 35.7211
82.227 1431 37.8286
82.3444 1512 38.8844
82.4619 1561 39.5095
82.5793 1693 41.1461
82.6967 1685 41.0488
82.8142 1672 40.8901
82.9316 1658 40.7185
83.049 1698 41.2068
83.1664 1695 41.1704
83.2838 1687 41.0731
83.4012 1566 39.5727
83.5186 1574 39.6737
83.636 1476 38.4187
83.7534 1427 37.7757
83.8708 1281 35.7911
83.9881 1258 35.4683
84.1055 1219 34.9142
84.2228 1256 35.4401
84.3401 1400 37.4166
84.4575 1496 38.6782
84.5747 1581 39.7618
84.692 1671 40.8779
84.8093 1614 40.1746
84.9265 1628 40.3485
85.0437 1590 39.8748
85.1609 1525 39.0512
85.2781 1394 37.3363
85.3952 1364 36.9324
85.5123 1293 35.9583
85.6294 1255 35.426
85.7465 1386 37.229
85.8636 1509 38.8458
85.9806 1618 40.2244
86.0976 1737 41.6773
86.2145 1730 41.5933
86.3315 1735 41.6533
86.4484 1906 43.6578
86.5652 1843 42.9302
86.682 1875 43.3013
86.7988 1855 43.0697
86.9156 1785 42.2493
87.0323 1810 42.5441
87.149 1622 40.2741
87.2657 1605 40.0625
87.3823 1613 40.1622
87.4988 1501 38.7427
87.6154 1452 38.1051
87.7318 1521 39
87.8483 1539 39.2301
87.9647 1633 40.4104
88.081 1694 41.1582
88.1973 1835 42.8369
88.3136 1883 43.3935
88.4298 1877 43.3244
88.546 1915 43.7607
88.6621 1782 42.2137
88.7781 1615 40.1871
88.8942 0 1
89.0101 0 1
89.126 0 1
89.2419 0 1
89.3577 0 1
89.4734 0 1
89.5891 0 1
89.7047 0 1
89.8203 0 1
89.9358 0 1
92.3269 0 1
92.4424 0 1
92.558 0 1
92.6736 0 1
92.7893 0 1
92.905 0 1
93.0208 0 1
93.1366 0 1
93.2525 0 1
93.3685 0 1
93.4845 0 1
93.6005 1852 43.0349
93.7167 1881 43.3705
93.8328 1888 43.4511
93.949 1846 42.9651
94.0653 1754 41.8808
94.1816 1778 42.1663
94.2979 1617 40.2119
94.4143 1502 38.7556
94.5307 1518 38.9615
94.6472 1468 38.3145
94.7637 1574 39.6737
94.8803 1661 40.7554
94.9969 1781 42.2019
95.1135 1838 42.8719
95.2302 1937 44.0114
95.3469 2010 44.833
95.4637 1994 44.6542
95.5805 2057 45.3542
95.6973 2089 45.7056
95.8142 2121 46.0543
95.9311 2106 45.8912
96.048 2048 45.2548
96.1649 1954 44.2041
96.2819 1841 42.9069
96.3989 1875 43.3013
96.516 1774 42.1189
96.633 1670 40.8656
96.7501 1568 39.598
96.8673 1632 40.398
96.9844 1632 40.398
97.1016 1741 41.7253
97.2188 1907 43.6692
97.336 2031 45.0666
97.4532 2101 45.8367
97.5704 2072 45.5192
97.6877 1966 44.3396
97.805 1946 44.1135
97.9223 1812 42.5676
98.0396 1708 41.328
98.1569 1614 40.1746
98.2743 1607 40.0874
98.3916 1571 39.6358
98.509 1722 41.497
98.6264 1905 43.6463
98.7438 1899 43.5775
98.8612 2000 44.7214
98.9786 2145 46.3141
99.096 2078 45.5851
99.2134 2327 48.239
99.3308 2218 47.0956
99.4482 2240 47.3286
99.5656 2159 46.465
99.6831 2147 46.3357
99.8005 2047 45.2438
99.9179 2040 45.1664
100.035 2026 45.0111
100.153 1837 42.8602
100.27 1717 41.4367
100.388 1701 41.2432
100.505 1784 42.2374
100.622 1887 43.4396
100.74 2099 45.8148
100.857 2079 45.5961
100.975 2207 46.9787
101.092 2137 46.2277
101.209 2124 46.0869
101.327 2104 45.8694
101.444 2089 45.7056
101.561 1885 43.4166
101.679 1822 42.6849
101.796 1739 41.7013
101.913 1689 41.0974
102.03 1720 41.4729
102.148 1929 43.9204
102.265 2129 46.1411
102.382 1998 44.699
102.499 2199 46.8935
102.616 2306 48.0208
102.733 2416 49.1528
102.851 2283 47.7807
102.968 2389 48.8774
103.085 2364 48.621
103.202 2319 48.156
103.319 2210 47.0106
103.436 2246 47.392
103.552 2166 46.5403
103.669 2070 45.4973
103.786 1902 43.6119
103.903 1784 42.2374
104.02 1989 44.5982
104.137 2119 46.0326
104.253 2255 47.4868
104.37 2279 47.7389
104.487 2318 48.1456
104.603 2394 48.9285
104.72 2336 48.3322
104.836 2243 47.3603
104.953 2214 47.0532
105.069 1980 44.4972
105.186 1862 43.1509
105.302 1869 43.2319
105.418 1807 42.5088
105.535 1975 44.441
105.651 2177 46.6583
105.767 2316 48.1248
105.883 2339 48.3632
105.999 2278 47.7284
106.115 0 1
106.231 0 1
106.347 0 1
106.463 0 1
106.579 0 1
106.694 0 1
106.81 0 1
106.926 0 1
107.041 0 1
107.157 0 1
109.576 0 1
109.692 0 1
109.807 0 1
109.923 0 1
110.039 0 1
110.155 0 1
110.27 0 1
110.386 0 1
110.502 0 1
110.618 1805 42.4853
110.735 2122 46.0652
110.851 2162 46.4973
110.967 2252 47.4552
111.083 2307 48.0312
111.199 2331 48.2804
111.316 2424 49.2341
111.432 2395 48.9387
111.549 2348 48.4562
111.665 2479 49.7896
111.782 2233 47.2546
111.898 2289 47.8435
112.015 2222 47.1381
112.132 2123 46.076
112.248 1998 44.699
112.365 1892 43.4971
112.482 1860 43.1277
112.599 1883 43.3935
112.716 2114 45.9783
112.832 2249 47.4236
112.949 2236 47.2864
113.066 2346 48.4355
113.183 2350 48.4768
113.3 2269 47.634
113.417 2287 47.8226
113.534 2004 44.7661
113.652 1872 43.2666
113.769 1768 42.0476
113.886 1767 42.0357
114.003 1722 41.497
114.12 1908 43.6807
114.238 2017 44.911
114.355 2177 46.6583
114.472 2393 48.9183
114.589 2230 47.2229
114.707 2304 48
114.824 2527 50.2693
114.942 2391 48.8979
115.059 2343 48.4045
115.176 2345 48.4252
115.294 2264 47.5815
115.411 2305 48.0104
115.529 2142 46.2817
115.646 2123 46.076
115.764 2047 45.2438
115.881 1816 42.6146
115.999 1908 43.6807
116.116 1918 43.795
116.234 1952 44.1814
116.351 2102 45.8476
116.469 2173 46.6154
116.586 2252 47.4552
116.704 2138 46.2385
116.821 2179 46.6798
116.939 2134 46.1952
117.056 1973 44.4185
117.174 1953 44.1928
117.291 1774 42.1189
117.409 1754 41.8808
117.526 1749 41.821
117.644 1730 41.5933
117.761 1863 43.1625
117.879 1967 44.3509
117.996 2037 45.1331
118.114 2087 45.6837
118.231 2231 47.2335
118.349 2231 47.2335
118.466 2236 47.2864
118.584 2287 47.8226
118.701 2238 47.3075
118.819 2216 47.0744
118.936 2147 46.3357
119.053 2127 46.1194
119.171 2035 45.111
119.288 1946 44.1135
119.405 1946 44.1135
119.523 1746 41.7852
119.64 1795 42.3674
119.757 1784 42.2374
119.875 1934 43.9773
119.992 1988 44.587
120.109 2002 44.7437
120.226 2107 45.9021
120.343 2091 45.7275
120.46 2077 45.5741
120.578 2069 45.4863
120.695 1895 43.5316
120.812 1861 43.1393
120.929 1694 41.1582
121.046 1648 40.5956
121.163 1581 39.7618
121.279 1614 40.1746
121.396 1678 40.9634
121.513 1948 44.1362
121.63 1979 44.486
121.747 2016 44.8999
121.863 2082 45.6289
121.98 2049 45.2659
122.097 2048 45.2548
122.213 2113 45.9674
122.33 2142 46.2817
122.446 2130 46.1519
122.563 2157 46.4435
122.679 2007 44.7996
122.795 1939 44.0341
122.912 1963 44.3058
123.028 1911 43.715
123.144 1792 42.332
123.26 1737 41.6773
123.377 0 1
123.493 0 1
123.609 0 1
123.725 0 1
123.84 0 1
123.956 0 1
124.072 0 1
124.188 0 1
124.303 0 1
124.419 0 1
126.852 0 1
126.968 0 1
127.083 0 1
127.199 0 1
127.315 0 1
127.431 0 1
127.547 0 1
127.663 0 1
127.779 0 1
127.895 0 1
128.011 0 1
128.127 0 1
128.243 0 1
128.359 1962 44.2945
128.476 1796 42.3792
128.592 1753 41.8688
128.708 1861 43.1393
128.825 2001 44.7325
128.941 2016 44.8999
129.058 2104 45.8694
129.174 2099 45.8148
129.291 2170 46.5833
129.408 2104 45.8694
129.524 2054 45.3211
129.641 1964 44.317
129.758 1794 42.3556
129.875 1737 41.6773
129.992 1695 41.1704
130.108 1678 40.9634
130.225 1760 41.9524
130.342 1851 43.0232
130.459 1956 44.2267
130.576 2072 45.5192
130.693 2091 45.7275
130.81 2114 45.9783
130.928 2158 46.4543
131.045 2132 46.1736
131.162 2148 46.3465
131.279 2194 46.8402
131.396 2203 46.9361
131.513 2093 45.7493
131.631 2034 45.0999
131.748 2019 44.9333
131.865 2054 45.3211
131.983 1808 42.5206
132.1 1827 42.7434
132.217 1840 42.8952
132.335 1958 44.2493
132.452 2027 45.0222
132.57 2222 47.1381
132.687 2130 46.1519
132.804 2120 46.0435
132.922 2095 45.7712
133.039 2037 45.1331
133.157 1946 44.1135
133.274 1827 42.7434
133.392 1711 41.3642
133.509 1669 40.8534
133.627 1635 40.4351
133.744 1744 41.7612
133.862 1874 43.2897
133.979 1782 42.2137
134.097 2013 44.8665
134.214 1966 44.3396
134.332 2013 44.8665
134.449 2141 46.2709
134.567 2161 46.4866
134.684 2111 45.9456
134.802 2188 46.7761
134.919 2161 46.4866
135.037 2179 46.6798
135.154 2044 45.2106
135.272 1981 44.5084
135.389 1956 44.2267
135.507 1853 43.0465
135.624 1866 43.1972
135.742 1841 42.9069
135.859 1921 43.8292
135.977 1980 44.4972
136.094 2109 45.9239
136.211 2113 45.9674
136.329 2140 46.2601
136.446 2142 46.2817
136.564 2022 44.9667
136.681 2021 44.9555
136.798 1884 43.4051
136.915 1902 43.6119
137.033 1735 41.6533
137.15 1691 41.1218
137.267 1621 40.2616
137.384 1726 41.5452
137.502 1803 42.4617
137.619 1894 43.5201
137.736 1927 43.8976
137.853 1920 43.8178
137.97 2067 45.4643
138.087 2029 45.0444
138.204 2052 45.299
138.321 2101 45.8367
138.438 2181 46.7012
138.555 2221 47.1275
138.672 2119 46.0326
138.788 2087 45.6837
138.905 2058 45.3652
139.022 2018 44.9222
139.139 1992 44.6318
139.255 1819 42.6497
139.372 1967 44.3509
139.488 1926 43.8862
139.605 2170 46.5833
139.721 2217 47.085
139.838 2194 46.8402
139.954 2096 45.7821
140.071 2173 46.6154
140.187 2110 45.9347
140.303 2015 44.8888
140.419 1975 44.441
140.535 1835 42.8369
140.652 1745 41.7732
140.768 0 1
140.884 0 1
141 0 1
141.115 0 1
141.231 0 1
141.347 0 1
141.463 0 1
141.578 0 1
141.694 0 1
144.104 0 1
144.219 0 1
144.335 0 1
144.45 0 1
144.566 0 1
144.682 0 1
144.798 0 1
144.914 0 1
145.03 0 1
145.146 1846 42.9651
145.262 1741 41.7253
145.378 1825 42.72
145.494 1690 41.1096
145.61 1612 40.1497
145.726 1568 39.598
145.842 1496 38.6782
145.959 1480 38.4708
146.075 1573 39.6611
146.192 1581 39.7618
146.308 1752 41.8569
146.425 1737 41.6773
146.541 1722 41.497
146.658 1811 42.5558
146.774 1756 41.9047
146.891 1833 42.8135
147.008 1906 43.6578
147.125 1913 43.7379
147.241 1926 43.8862
147.358 1924 43.8634
147.475 1902 43.6119
147.592 1810 42.5441
147.709 1758 41.9285
147.826 1655 40.6817
147.943 1650 40.6202
148.06 1660 40.7431
148.177 1761 41.9643
148.294 1885 43.4166
148.411 1847 42.9767
148.528 1821 42.6732
148.645 1832 42.8019
148.762 1957 44.238
148.88 1801 42.4382
148.997 1656 40.694
149.114 1717 41.4367
149.231 1481 38.4838
149.349 1554 39.4208
149.466 1467 38.3014
149.583 1446 38.0263
149.701 1553 39.4081
149.818 1619 40.2368
149.935 1631 40.3856
150.053 1657 40.7063
150.17 1733 41.6293
150.287 1750 41.833
150.405 1836 42.8486
150.522 1758 41.9285
150.64 1760 41.9524
150.757 1806 42.4971
150.875 1749 41.821
150.992 1804 42.4735
151.11 1826 42.7317
151.227 1719 41.4608
151.344 1673 40.9023
151.462 1607 40.0874
151.579 1538 39.2173
151.697 1646 40.5709
151.814 1713 41.3884
151.932 1821 42.6732
152.049 1753 41.8688
152.167 1837 42.8602
152.284 1801 42.4382
152.402 1841 42.9069
152.519 1704 41.2795
152.636 1741 41.7253
152.754 1656 40.694
152.871 1524 39.0384
152.989 1438 37.921
153.106 1437 37.9078
153.223 1471 38.3536
153.341 1478 38.4448
153.458 1513 38.8973
153.575 1625 40.3113
153.693 1684 41.0366
153.81 1685 41.0488
153.927 1730 41.5933
154.044 1814 42.5911
154.162 1771 42.0833
154.279 1850 43.0116
154.396 1809 42.5323
154.513 1896 43.5431
154.63 1884 43.4051
154.747 1847 42.9767
154.864 1799 42.4146
154.981 1660 40.7431
155.098 1614 40.1746
155.215 1689 41.0974
155.332 1771 42.0833
155.449 1815 42.6028
155.566 1886 43.4281
155.683 1858 43.1045
155.8 1879 43.3474
155.917 1871 43.2551
156.033 1895 43.5316
156.15 0 1
156.267 0 1
156.383 0 1
156.5 0 1
156.617 0 1
156.733 0 1
156.85 0 1
156.966 0 1
157.082 0 1
157.199 0 1
157.315 0 1
157.431 0 1
157.547 0 1
157.664 0 1
157.78 0 1
157.896 0 1
158.012 0 1
158.128 0 1
158.244 0 1
158.359 0 1
158.475 0 1
158.591 0 1
158.706 0 1
