
6.15755 0 1
6.2731 0 1
6.3887 0 1
6.50437 0 1
6.62009 0 1
6.73587 0 1
6.8517 0 1
6.96759 0 1
7.08353 0 1
7.19952 0 1
7.31557 0 1
7.43166 0 1
7.54781 0 1
7.664 0 1
7.78024 0 1
7.89653 0 1
8.01286 0 1
8.12924 0 1
8.24567 0 1
8.36213 0 1
8.47864 0 1
8.59519 0 1
8.71178 0 1
8.82841 0 1
8.94508 0 1
9.06179 0 1
9.17853 0 1
9.29531 0 1
9.41212 0 1
9.52897 0 1
9.64584 0 1
9.76276 0 1
9.8797 0 1
9.99667 0 1
10.1137 0 1
10.2307 0 1
10.3478 0 1
10.4648 0 1
10.5819 0 1
10.6991 0 1
10.8162 0 1
10.9334 0 1
11.0506 0 1
11.1678 0 1
11.285 0 1
11.4023 0 1
11.5196 0 1
11.6369 0 1
11.7542 0 1
11.8715 0 1
11.9888 0 1
12.1062 0 1
12.2235 0 1
12.3409 0 1
12.4582 0 1
12.5756 0 1
12.693 0 1
12.8104 0 1
12.9278 0 1
13.0452 0 1
13.1626 0 1
13.28 0 1
13.3974 0 1
13.5149 0 1
13.6323 0 1
13.7497 0 1
13.8671 0 1
13.9845 0 1
14.1019 0 1
14.2193 0 1
14.3367 0 1
14.4541 0 1
14.5714 0 1
14.6888 0 1
14.8062 0 1
14.9235 0 1
15.0408 985 31.3847
15.1581 1000 31.6228
15.2755 1068 32.6803
15.3927 1000 31.6228
15.51 1058 32.5269
15.6273 1028 32.0624
15.7445 1023 31.9844
15.8617 992 31.496
15.9789 945 30.7409
16.0961 889 29.8161
16.2132 913 30.2159
16.3304 911 30.1828
16.4475 955 30.9031
16.5646 913 30.2159
16.6816 890 29.8329
16.7986 845 29.0689
16.9156 862 29.3598
17.0326 876 29.5973
17.1496 871 29.5127
17.2665 889 29.8161
17.3833 829 28.7924
17.5002 864 29.3939
17.617 800 28.2843
17.7338 828 28.775
17.8505 825 28.7228
17.9672 816 28.5657
18.0839 859 29.3087
18.2005 835 28.8964
18.3171 831 28.8271
18.4337 848 29.1204
18.5502 846 29.0861
18.6666 856 29.2575
18.7831 855 29.2404
18.8994 845 29.0689
19.0158 838 28.9482
19.1321 831 28.8271
19.2483 757 27.5136
19.3645 716 26.7582
19.4806 688 26.2298
19.5967 650 25.4951
19.7128 612 24.7386
19.8288 582 24.1247
19.9447 507 22.5167
20.0606 0 1
20.1764 0 1
20.2922 0 1
20.4079 0 1
20.5236 0 1
20.6392 0 1
20.7548 0 1
20.8702 0 1
23.3078 0 1
23.4233 0 1
23.539 0 1
23.6547 0 1
23.7704 0 1
23.8862 0 1
24.0021 0 1
24.118 0 1
24.234 0 1
24.35 0 1
24.4661 385 19.6214
24.5822 443 21.0476
24.6984 505 22.4722
24.8146 560 23.6643
24.9309 690 26.2679
25.0472 765 27.6586
25.1636 877 29.6142
25.28 892 29.8664
25.3965 906 30.0998
25.513 965 31.0644
25.6296 946 30.7571
25.7462 985 31.3847
25.8628 938 30.6268
25.9795 884 29.7321
26.0962 904 30.0666
26.213 874 29.5635
26.3298 851 29.1719
26.4466 831 28.8271
26.5635 811 28.4781
26.6804 752 27.4226
26.7973 736 27.1293
26.9143 702 26.4953
27.0313 781 27.9464
27.1483 735 27.1109
27.2653 756 27.4955
27.3824 794 28.178
27.4996 801 28.3019
27.6167 876 29.5973
27.7339 871 29.5127
27.8511 877 29.6142
27.9683 834 28.8791
28.0855 798 28.2489
28.2028 850 29.1548
28.3201 796 28.2135
28.4374 839 28.9655
28.5547 914 30.2324
28.6721 870 29.4958
28.7894 859 29.3087
28.9068 829 28.7924
29.0242 833 28.8617
29.1416 853 29.2062
29.259 849 29.1376
29.3764 822 28.6705
29.4939 795 28.1957
29.6113 770 27.7489
29.7288 807 28.4077
29.8463 747 27.3313
29.9638 657 25.632
30.0812 680 26.0768
30.1987 717 26.7769
30.3162 757 27.5136
30.4337 748 27.3496
30.5512 795 28.1957
30.6687 769 27.7308
30.7862 782 27.9643
30.9037 810 28.4605
31.0212 824 28.7054
31.1387 814 28.5307
31.2562 824 28.7054
31.3737 891 29.8496
31.4912 849 29.1376
31.6087 785 28.0179
31.7262 799 28.2666
31.8436 837 28.931
31.9611 827 28.7576
32.0785 782 27.9643
32.1959 791 28.1247
32.3134 739 27.1846
32.4308 853 29.2062
32.5482 785 28.0179
32.6655 747 27.3313
32.7829 780 27.9285
32.9002 732 27.0555
33.0176 639 25.2784
33.1349 665 25.7876
33.2522 729 27
33.3694 651 25.5147
33.4867 685 26.1725
33.6039 635 25.1992
33.7211 646 25.4165
33.8383 699 26.4386
33.9554 704 26.533
34.0725 708 26.6083
34.1896 702 26.4953
34.3067 666 25.807
34.4237 721 26.8514
34.5407 711 26.6646
34.6577 746 27.313
34.7746 784 28
34.8915 698 26.4197
35.0084 743 27.258
35.1252 692 26.3059
35.242 708 26.6083
35.3587 658 25.6515
35.4755 712 26.6833
35.5921 721 26.8514
35.7088 707 26.5895
35.8254 724 26.9072
35.9419 715 26.7395
36.0584 713 26.7021
36.1749 660 25.6905
36.2913 658 25.6515
36.4077 623 24.96
36.524 593 24.3516
36.6403 585 24.1868
36.7565 544 23.3238
36.8727 472 21.7256
36.9889 432 20.7846
37.1049 392 19.799
37.221 0 1
37.3369 0 1
37.4529 0 1
37.5687 0 1
37.6845 0 1
37.8003 0 1
37.916 0 1
38.0316 0 1
38.1472 0 1
40.5851 0 1
40.7008 0 1
40.8164 0 1
40.9322 0 1
41.048 0 1
41.1639 0 1
41.2798 0 1
41.3958 0 1
41.5118 0 1
41.6279 0 1
41.744 326 18.0555
41.8602 359 18.9473
41.9765 430 20.7364
42.0928 450 21.2132
42.2091 479 21.8861
42.3255 479 21.8861
42.4419 525 22.9129
42.5584 515 22.6936
42.675 608 24.6577
42.7915 577 24.0208
42.9081 573 23.9374
43.0248 489 22.1133
43.1415 536 23.1517
43.2582 535 23.1301
43.375 508 22.5389
43.4918 585 24.1868
43.6087 556 23.5797
43.7256 564 23.7487
43.8425 576 24
43.9595 546 23.3666
44.0765 520 22.8035
44.1935 553 23.516
44.3106 550 23.4521
44.4277 561 23.6854
44.5448 539 23.2164
44.6619 514 22.6716
44.7791 578 24.0416
44.8963 582 24.1247
45.0136 575 23.9792
45.1308 513 22.6495
45.2481 558 23.622
45.3654 530 23.0217
45.4827 514 22.6716
45.6001 493 22.2036
45.7174 534 23.1084
45.8348 492 22.1811
45.9522 498 22.3159
46.0697 517 22.7376
46.1871 530 23.0217
46.3046 538 23.1948
46.422 552 23.4947
46.5395 525 22.9129
46.657 481 21.9317
46.7745 529 23
46.892 536 23.1517
47.0096 572 23.9165
47.1271 545 23.3452
47.2446 581 24.1039
47.3622 528 22.9783
47.4797 528 22.9783
47.5973 553 23.516
47.7149 501 22.383
47.8324 554 23.5372
47.95 523 22.8692
48.0675 562 23.7065
48.1851 551 23.4734
48.3027 570 23.8747
48.4202 536 23.1517
48.5378 548 23.4094
48.6554 550 23.4521
48.7729 542 23.2809
48.8904 539 23.2164
49.008 545 23.3452
49.1255 581 24.1039
49.243 450 21.2132
49.3605 462 21.4942
49.478 512 22.6274
49.5955 453 21.2838
49.713 467 21.6102
49.8304 523 22.8692
49.9479 496 22.2711
50.0653 470 21.6795
50.1827 498 22.3159
50.3001 449 21.1896
50.4175 477 21.8403
50.5348 493 22.2036
50.6521 527 22.9565
50.7694 507 22.5167
50.8867 483 21.9773
51.004 508 22.5389
51.1212 519 22.7816
51.2384 526 22.9347
51.3556 467 21.6102
51.4727 505 22.4722
51.5899 485 22.0227
51.707 551 23.4734
51.824 524 22.891
51.9411 488 22.0907
52.0581 521 22.8254
52.175 496 22.2711
52.2919 512 22.6274
52.4088 517 22.7376
52.5257 494 22.2261
52.6425 475 21.7945
52.7593 491 22.1585
52.876 461 21.4709
52.9927 466 21.587
53.1094 432 20.7846
53.226 440 20.9762
53.3426 450 21.2132
53.4591 519 22.7816
53.5756 441 21
53.692 438 20.9284
53.8084 405 20.1246
53.9248 373 19.3132
54.0411 356 18.868
54.1573 321 17.9165
54.2735 0 1
54.3896 0 1
54.5057 0 1
54.6217 0 1
54.7377 0 1
54.8537 0 1
54.9695 0 1
55.0853 0 1
55.2011 0 1
55.3168 0 1
55.4324 0 1
57.824 0 1
57.9396 0 1
58.0553 0 1
58.1711 0 1
58.2869 0 1
58.4028 0 1
58.5187 0 1
58.6347 0 1
58.7508 0 1
58.8669 0 1
58.983 431 20.7605
59.0992 521 22.8254
59.2155 553 23.516
59.3318 670 25.8844
59.4482 700 26.4575
59.5646 713 26.7021
59.681 700 26.4575
59.7975 806 28.3901
59.9141 735 27.1109
60.0306 815 28.5482
60.1473 804 28.3549
60.2639 787 28.0535
60.3807 814 28.5307
60.4974 796 28.2135
60.6142 802 28.3196
60.731 756 27.4955
60.8479 810 28.4605
60.9648 790 28.1069
61.0818 767 27.6948
61.1987 746 27.313
61.3158 741 27.2213
61.4328 686 26.1916
61.5499 653 25.5539
61.667 615 24.7992
61.7841 643 25.3574
61.9013 682 26.1151
62.0185 680 26.0768
62.1357 659 25.671
62.253 672 25.923
62.3702 702 26.4953
62.4875 694 26.3439
62.6049 667 25.8263
62.7222 657 25.632
62.8396 681 26.096
62.9569 632 25.1396
63.0743 666 25.807
63.1918 597 24.4336
63.3092 627 25.04
63.4267 631 25.1197
63.5441 666 25.807
63.6616 591 24.3105
63.7791 624 24.98
63.8966 668 25.8457
64.0142 657 25.632
64.1317 631 25.1197
64.2492 610 24.6982
64.3668 652 25.5343
64.4843 666 25.807
64.6019 631 25.1197
64.7195 622 24.9399
64.837 609 24.6779
64.9546 577 24.0208
65.0722 606 24.6171
65.1898 547 23.388
65.3074 550 23.4521
65.4249 537 23.1733
65.5425 595 24.3926
65.6601 608 24.6577
65.7777 602 24.5357
65.8952 587 24.2281
66.0128 615 24.7992
66.1304 628 25.0599
66.2479 623 24.96
66.3655 649 25.4755
66.483 604 24.5764
66.6005 609 24.6779
66.718 662 25.7294
66.8355 568 23.8328
66.953 564 23.7487
67.0705 603 24.5561
67.1879 639 25.2784
67.3054 633 25.1595
67.4228 667 25.8263
67.5402 672 25.923
67.6576 621 24.9199
67.7749 617 24.8395
67.8923 595 24.3926
68.0096 625 25
68.1269 603 24.5561
68.2442 612 24.7386
68.3614 608 24.6577
68.4787 570 23.8747
68.5958 554 23.5372
68.713 539 23.2164
68.8302 552 23.4947
68.9473 512 22.6274
69.0643 560 23.6643
69.1814 593 24.3516
69.2984 581 24.1039
69.4154 609 24.6779
69.5323 622 24.9399
69.6492 635 25.1992
69.7661 625 25
69.8829 595 24.3926
69.9997 551 23.4734
70.1165 562 23.7065
70.2332 577 24.0208
70.3499 506 22.4944
70.4665 554 23.5372
70.5831 483 21.9773
70.6996 432 20.7846
70.8161 471 21.7025
70.9326 394 19.8494
71.049 389 19.7231
71.1653 355 18.8414
71.2817 354 18.8149
71.3979 325 18.0278
71.5141 290 17.0294
71.6303 230 15.1658
71.7464 219 14.7986
71.8624 0 1
71.9784 0 1
72.0944 0 1
72.2102 0 1
72.3261 0 1
72.4418 0 1
72.5575 0 1
72.6732 0 1
75.1054 0 1
75.2209 0 1
75.3365 0 1
75.4521 0 1
75.5678 0 1
75.6835 0 1
75.7993 0 1
75.9151 0 1
76.031 0 1
76.147 344 18.5472
76.263 457 21.3776
76.3791 461 21.4709
76.4952 515 22.6936
76.6113 566 23.7908
76.7276 538 23.1948
76.8438 551 23.4734
76.9601 497 22.2935
77.0765 516 22.7156
77.1929 472 21.7256
77.3093 500 22.3607
77.4258 491 22.1585
77.5423 474 21.7715
77.6589 469 21.6564
77.7755 457 21.3776
77.8921 466 21.587
78.0088 504 22.4499
78.1256 440 20.9762
78.2423 468 21.6333
78.3591 482 21.9545
78.4759 497 22.2935
78.5928 486 22.0454
78.7097 536 23.1517
78.8266 535 23.1301
78.9436 573 23.9374
79.0606 495 22.2486
79.1776 501 22.383
79.2946 530 23.0217
79.4117 520 22.8035
79.5288 500 22.3607
79.6459 478 21.8632
79.7631 556 23.5797
79.8802 533 23.0868
79.9974 531 23.0434
80.1147 538 23.1948
80.2319 580 24.0832
80.3491 558 23.622
80.4664 554 23.5372
80.5837 615 24.7992
80.701 527 22.9565
80.8183 510 22.5832
80.9357 512 22.6274
81.053 524 22.891
81.1704 535 23.1301
81.2877 576 24
81.4051 520 22.8035
81.5225 512 22.6274
81.6399 501 22.383
81.7573 460 21.4476
81.8747 450 21.2132
81.9922 499 22.3383
82.1096 492 22.1811
82.227 528 22.9783
82.3444 520 22.8035
82.4619 570 23.8747
82.5793 561 23.6854
82.6967 505 22.4722
82.8142 556 23.5797
82.9316 574 23.9583
83.049 588 24.2487
83.1664 532 23.0651
83.2838 496 22.2711
83.4012 539 23.2164
83.5186 540 23.2379
83.636 515 22.6936
83.7534 583 24.1454
83.8708 597 24.4336
83.9881 581 24.1039
84.1055 580 24.0832
84.2228 587 24.2281
84.3401 579 24.0624
84.4575 553 23.516
84.5747 552 23.4947
84.692 578 24.0416
84.8093 582 24.1247
84.9265 526 22.9347
85.0437 536 23.1517
85.1609 462 21.4942
85.2781 484 22
85.3952 486 22.0454
85.5123 462 21.4942
85.6294 556 23.5797
85.7465 539 23.2164
85.8636 599 24.4745
85.9806 572 23.9165
86.0976 604 24.5764
86.2145 577 24.0208
86.3315 579 24.0624
86.4484 578 24.0416
86.5652 596 24.4131
86.682 597 24.4336
86.7988 561 23.6854
86.9156 499 22.3383
87.0323 512 22.6274
87.149 573 23.9374
87.2657 571 23.8956
87.3823 545 23.3452
87.4988 591 24.3105
87.6154 509 22.561
87.7318 501 22.383
87.8483 517 22.7376
87.9647 460 21.4476
88.081 438 20.9284
88.1973 417 20.4206
88.3136 402 20.0499
88.4298 335 18.303
88.546 330 18.1659
88.6621 269 16.4012
88.7781 308 17.5499
88.8942 0 1
89.0101 0 1
89.126 0 1
89.2419 0 1
89.3577 0 1
89.4734 0 1
89.5891 0 1
89.7047 0 1
89.8203 0 1
89.9358 0 1
92.3269 0 1
92.4424 0 1
92.558 0 1
92.6736 0 1
92.7893 0 1
92.905 0 1
93.0208 0 1
93.1366 0 1
93.2525 0 1
93.3685 0 1
93.4845 0 1
93.6005 457 21.3776
93.7167 492 22.1811
93.8328 515 22.6936
93.949 520 22.8035
94.0653 526 22.9347
94.1816 531 23.0434
94.2979 487 22.0681
94.4143 483 21.9773
94.5307 483 21.9773
94.6472 497 22.2935
94.7637 515 22.6936
94.8803 614 24.779
94.9969 568 23.8328
95.1135 606 24.6171
95.2302 609 24.6779
95.3469 619 24.8797
95.4637 609 24.6779
95.5805 644 25.3772
95.6973 589 24.2693
95.8142 591 24.3105
95.9311 558 23.622
96.048 576 24
96.1649 556 23.5797
96.2819 571 23.8956
96.3989 579 24.0624
96.516 559 23.6432
96.633 604 24.5764
96.7501 566 23.7908
96.8673 611 24.7184
96.9844 610 24.6982
97.1016 637 25.2389
97.2188 590 24.2899
97.336 638 25.2587
97.4532 545 23.3452
97.5704 624 24.98
97.6877 543 23.3024
97.805 574 23.9583
97.9223 551 23.4734
98.0396 554 23.5372
98.1569 515 22.6936
98.2743 523 22.8692
98.3916 574 23.9583
98.509 602 24.5357
98.6264 595 24.3926
98.7438 642 25.3377
98.8612 683 26.1343
98.9786 588 24.2487
99.096 605 24.5967
99.2134 671 25.9037
99.3308 636 25.219
99.4482 640 25.2982
99.5656 627 25.04
99.6831 583 24.1454
99.8005 571 23.8956
99.9179 603 24.5561
100.035 607 24.6374
100.153 646 25.4165
100.27 610 24.6982
100.388 680 26.0768
100.505 647 25.4362
100.622 643 25.3574
100.74 626 25.02
100.857 615 24.7992
100.975 619 24.8797
101.092 633 25.1595
101.209 600 24.4949
101.327 629 25.0799
101.444 585 24.1868
101.561 626 25.02
101.679 578 24.0416
101.796 553 23.516
101.913 577 24.0208
102.03 694 26.3439
102.148 661 25.7099
102.265 729 27
102.382 655 25.593
102.499 685 26.1725
102.616 683 26.1343
102.733 714 26.7208
102.851 694 26.3439
102.968 722 26.8701
103.085 673 25.9422
103.202 726 26.9444
103.319 676 26
103.436 700 26.4575
103.552 667 25.8263
103.669 728 26.9815
103.786 754 27.4591
103.903 704 26.533
104.02 797 28.2312
104.137 705 26.5518
104.253 699 26.4386
104.37 679 26.0576
104.487 668 25.8457
104.603 733 27.074
104.72 672 25.923
104.836 730 27.0185
104.953 652 25.5343
105.069 636 25.219
105.186 614 24.779
105.302 558 23.622
105.418 531 23.0434
105.535 497 22.2935
105.651 486 22.0454
105.767 428 20.6882
105.883 436 20.8806
105.999 397 19.9249
106.115 0 1
106.231 0 1
106.347 0 1
106.463 0 1
106.579 0 1
106.694 0 1
106.81 0 1
106.926 0 1
107.041 0 1
107.157 0 1
109.576 0 1
109.692 0 1
109.807 0 1
109.923 0 1
110.039 0 1
110.155 0 1
110.27 0 1
110.386 0 1
110.502 0 1
110.618 296 17.2047
110.735 382 19.5448
110.851 464 21.5407
110.967 542 23.2809
111.083 563 23.7276
111.199 645 25.3969
111.316 602 24.5357
111.432 695 26.3629
111.549 669 25.865
111.665 688 26.2298
111.782 680 26.0768
111.898 626 25.02
112.015 630 25.0998
112.132 668 25.8457
112.248 639 25.2784
112.365 680 26.0768
112.482 668 25.8457
112.599 682 26.1151
112.716 659 25.671
112.832 619 24.8797
112.949 632 25.1396
113.066 628 25.0599
113.183 593 24.3516
113.3 718 26.7955
113.417 613 24.7588
113.534 635 25.1992
113.652 660 25.6905
113.769 587 24.2281
113.886 572 23.9165
114.003 567 23.8118
114.12 492 22.1811
114.238 520 22.8035
114.355 569 23.8537
114.472 602 24.5357
114.589 582 24.1247
114.707 579 24.0624
114.824 563 23.7276
114.942 638 25.2587
115.059 595 24.3926
115.176 640 25.2982
115.294 542 23.2809
115.411 584 24.1661
115.529 570 23.8747
115.646 564 23.7487
115.764 540 23.2379
115.881 543 23.3024
115.999 530 23.0217
116.116 562 23.7065
116.234 599 24.4745
116.351 543 23.3024
116.469 528 22.9783
116.586 584 24.1661
116.704 563 23.7276
116.821 552 23.4947
116.939 564 23.7487
117.056 566 23.7908
117.174 564 23.7487
117.291 530 23.0217
117.409 551 23.4734
117.526 519 22.7816
117.644 487 22.0681
117.761 468 21.6333
117.879 473 21.7486
117.996 504 22.4499
118.114 495 22.2486
118.231 536 23.1517
118.349 523 22.8692
118.466 594 24.3721
118.584 569 23.8537
118.701 583 24.1454
118.819 560 23.6643
118.936 545 23.3452
119.053 510 22.5832
119.171 539 23.2164
119.288 510 22.5832
119.405 525 22.9129
119.523 512 22.6274
119.64 505 22.4722
119.757 560 23.6643
119.875 552 23.4947
119.992 552 23.4947
120.109 553 23.516
120.226 513 22.6495
120.343 505 22.4722
120.46 491 22.1585
120.578 553 23.516
120.695 512 22.6274
120.812 510 22.5832
120.929 517 22.7376
121.046 530 23.0217
121.163 534 23.1084
121.279 498 22.3159
121.396 470 21.6795
121.513 405 20.1246
121.63 428 20.6882
121.747 356 18.868
121.863 441 21
121.98 420 20.4939
122.097 415 20.3715
122.213 444 21.0713
122.33 431 20.7605
122.446 414 20.347
122.563 384 19.5959
122.679 351 18.735
122.795 332 18.2209
122.912 293 17.1172
123.028 261 16.1555
123.144 264 16.2481
123.26 266 16.3095
123.377 0 1
123.493 0 1
123.609 0 1
123.725 0 1
123.84 0 1
123.956 0 1
124.072 0 1
124.188 0 1
124.303 0 1
124.419 0 1
126.852 0 1
126.968 0 1
127.083 0 1
127.199 0 1
127.315 0 1
127.431 0 1
127.547 0 1
127.663 0 1
127.779 0 1
127.895 0 1
128.011 0 1
128.127 0 1
128.243 0 1
128.359 497 22.2935
128.476 527 22.9565
128.592 554 23.5372
128.708 516 22.7156
128.825 552 23.4947
128.941 603 24.5561
129.058 560 23.6643
129.174 578 24.0416
129.291 556 23.5797
129.408 560 23.6643
129.524 570 23.8747
129.641 639 25.2784
129.758 560 23.6643
129.875 617 24.8395
129.992 578 24.0416
130.108 637 25.2389
130.225 572 23.9165
130.342 564 23.7487
130.459 566 23.7908
130.576 577 24.0208
130.693 587 24.2281
130.81 549 23.4307
130.928 570 23.8747
131.045 645 25.3969
131.162 670 25.8844
131.279 699 26.4386
131.396 719 26.8142
131.513 753 27.4408
131.631 731 27.037
131.748 757 27.5136
131.865 744 27.2764
131.983 759 27.55
132.1 823 28.688
132.217 855 29.2404
132.335 906 30.0998
132.452 914 30.2324
132.57 942 30.692
132.687 989 31.4484
132.804 1037 32.2025
132.922 1090 33.0151
133.039 1054 32.4654
133.157 1036 32.187
133.274 1084 32.9242
133.392 1113 33.3617
133.509 1066 32.6497
133.627 1073 32.7567
133.744 1045 32.3265
133.862 1047 32.3574
133.979 963 31.0322
134.097 996 31.5595
134.214 966 31.0805
134.332 953 30.8707
134.449 942 30.692
134.567 909 30.1496
134.684 1100 33.1662
134.802 1091 33.0303
134.919 1084 32.9242
135.037 1172 34.2345
135.154 1113 33.3617
135.272 1102 33.1964
135.389 1119 33.4515
135.507 1055 32.4808
135.624 1070 32.7109
135.742 1117 33.4215
135.859 1059 32.5423
135.977 1121 33.4813
136.094 1141 33.7787
136.211 1154 33.9706
136.329 1128 33.5857
136.446 1203 34.6843
136.564 1166 34.1467
136.681 1146 33.8526
136.798 1155 33.9853
136.915 1174 34.2637
137.033 1179 34.3366
137.15 1157 34.0147
137.267 1159 34.0441
137.384 1118 33.4365
137.502 1167 34.1614
137.619 1086 32.9545
137.736 1069 32.6956
137.853 983 31.3528
137.97 929 30.4795
138.087 902 30.0333
138.204 1010 31.7805
138.321 1251 35.3695
138.438 1203 34.6843
138.555 1269 35.623
138.672 1279 35.7631
138.788 1215 34.8569
138.905 1213 34.8281
139.022 1143 33.8083
139.139 1057 32.5115
139.255 926 30.4302
139.372 901 30.0167
139.488 975 31.225
139.605 892 29.8664
139.721 944 30.7246
139.838 925 30.4138
139.954 900 30
140.071 835 28.8964
140.187 842 29.0172
140.303 792 28.1425
140.419 700 26.4575
140.535 737 27.1477
140.652 673 25.9422
140.768 0 1
140.884 0 1
141 0 1
141.115 0 1
141.231 0 1
141.347 0 1
141.463 0 1
141.578 0 1
141.694 0 1
144.104 0 1
144.219 0 1
144.335 0 1
144.45 0 1
144.566 0 1
144.682 0 1
144.798 0 1
144.914 0 1
145.03 0 1
145.146 1699 41.2189
145.262 1895 43.5316
145.378 1923 43.852
145.494 1922 43.8406
145.61 1977 44.4635
145.726 1972 44.4072
145.842 2040 45.1664
145.959 2065 45.4423
146.075 2061 45.3982
146.192 2016 44.8999
146.308 2073 45.5302
146.425 1904 43.6348
146.541 1673 40.9023
146.658 1336 36.5513
146.774 1263 35.5387
146.891 1470 38.3406
147.008 1854 43.0581
147.125 1993 44.643
147.241 2067 45.4643
147.358 2057 45.3542
147.475 2011 44.8442
147.592 1986 44.5646
147.709 1876 43.3128
147.826 1939 44.0341
147.943 1823 42.6966
148.06 1841 42.9069
148.177 1739 41.7013
148.294 1773 42.107
148.411 1926 43.8862
148.528 1818 42.638
148.645 1880 43.359
148.762 1953 44.1928
148.88 1832 42.8019
148.997 1917 43.7836
149.114 1858 43.1045
149.231 1815 42.6028
149.349 1847 42.9767
149.466 1793 42.3438
149.583 1751 41.845
149.701 1800 42.4264
149.818 1696 41.1825
149.935 1744 41.7612
150.053 1757 41.9166
150.17 1500 38.7298
150.287 1274 35.6931
150.405 1167 34.1614
150.522 1248 35.327
150.64 1486 38.5487
150.757 1643 40.5339
150.875 1616 40.1995
150.992 1740 41.7133
151.11 1720 41.4729
151.227 1679 40.9756
151.344 1641 40.5093
151.462 1662 40.7676
151.579 1624 40.2989
151.697 1621 40.2616
151.814 1663 40.7799
151.932 1614 40.1746
152.049 1779 42.1782
152.167 1676 40.939
152.284 1749 41.821
152.402 1752 41.8569
152.519 1806 42.4971
152.636 1715 41.4126
152.754 1770 42.0714
152.871 1849 43
152.989 1765 42.0119
153.106 1724 41.5211
153.223 1814 42.5911
153.341 1787 42.2729
153.458 1758 41.9285
153.575 1789 42.2966
153.693 1560 39.4968
153.81 1394 37.3363
153.927 1228 35.0428
154.044 1224 34.9857
154.162 1391 37.2961
154.279 1633 40.4104
154.396 1621 40.2616
154.513 1655 40.6817
154.63 1703 41.2674
154.747 1741 41.7253
154.864 1658 40.7185
154.981 1631 40.3856
155.098 1565 39.5601
155.215 1487 38.5616
155.332 1473 38.3797
155.449 1594 39.9249
155.566 1560 39.4968
155.683 1592 39.8999
155.8 1577 39.7115
155.917 1666 40.8167
156.033 1511 38.8716
156.15 0 1
156.267 0 1
156.383 0 1
156.5 0 1
156.617 0 1
156.733 0 1
156.85 0 1
156.966 0 1
157.082 0 1
157.199 0 1
157.315 0 1
157.431 0 1
157.547 0 1
157.664 0 1
157.78 0 1
157.896 0 1
158.012 0 1
158.128 0 1
158.244 0 1
158.359 0 1
158.475 0 1
158.591 0 1
158.706 0 1
