
6.15755 0 1
6.2731 0 1
6.3887 0 1
6.50437 0 1
6.62009 0 1
6.73587 0 1
6.8517 0 1
6.96759 0 1
7.08353 0 1
7.19952 0 1
7.31557 0 1
7.43166 0 1
7.54781 0 1
7.664 0 1
7.78024 0 1
7.89653 0 1
8.01286 0 1
8.12924 0 1
8.24567 0 1
8.36213 0 1
8.47864 0 1
8.59519 0 1
8.71178 0 1
8.82841 0 1
8.94508 0 1
9.06179 0 1
9.17853 0 1
9.29531 0 1
9.41212 0 1
9.52897 0 1
9.64584 0 1
9.76276 0 1
9.8797 0 1
9.99667 0 1
10.1137 0 1
10.2307 0 1
10.3478 0 1
10.4648 0 1
10.5819 0 1
10.6991 0 1
10.8162 0 1
10.9334 0 1
11.0506 0 1
11.1678 0 1
11.285 0 1
11.4023 0 1
11.5196 0 1
11.6369 0 1
11.7542 0 1
11.8715 0 1
11.9888 0 1
12.1062 0 1
12.2235 0 1
12.3409 0 1
12.4582 0 1
12.5756 0 1
12.693 0 1
12.8104 0 1
12.9278 0 1
13.0452 0 1
13.1626 0 1
13.28 0 1
13.3974 0 1
13.5149 0 1
13.6323 0 1
13.7497 0 1
13.8671 0 1
13.9845 0 1
14.1019 0 1
14.2193 0 1
14.3367 0 1
14.4541 0 1
14.5714 0 1
14.6888 0 1
14.8062 0 1
14.9235 0 1
15.0408 0 0
15.1581 0 0
15.2755 0 0
15.3927 0 0
15.51 0 0
15.6273 0 0
15.7445 0 0
15.8617 0 0
15.9789 0 0
16.0961 0 0
16.2132 0 0
16.3304 0 0
16.4475 0 0
16.5646 0 0
16.6816 0 0
16.7986 0 0
16.9156 0 0
17.0326 0 0
17.1496 0 0
17.2665 0 0
17.3833 0 0
17.5002 0 0
17.617 0 0
17.7338 0 0
17.8505 0 0
17.9672 0 0
18.0839 0 0
18.2005 0 0
18.3171 0 0
18.4337 0 0
18.5502 0 0
18.6666 0 0
18.7831 0 0
18.8994 0 0
19.0158 0 0
19.1321 0 0
19.2483 0 0
19.3645 0 0
19.4806 0 0
19.5967 0 0
19.7128 0 0
19.8288 0 0
19.9447 0 0
20.0606 0 1
20.1764 0 1
20.2922 0 1
20.4079 0 1
20.5236 0 1
20.6392 0 1
20.7548 0 1
20.8702 0 1
23.3078 0 1
23.4233 0 1
23.539 0 1
23.6547 0 1
23.7704 0 1
23.8862 0 1
24.0021 0 1
24.118 0 1
24.234 0 1
24.35 0 1
24.4661 1335 36.5377
24.5822 1318 36.3043
24.6984 1259 35.4824
24.8146 1317 36.2905
24.9309 1205 34.7131
25.0472 1262 35.5246
25.1636 1273 35.6791
25.28 1322 36.3593
25.3965 1373 37.054
25.513 1333 36.5103
25.6296 1514 38.9102
25.7462 1549 39.3573
25.8628 1527 39.0768
25.9795 1510 38.8587
26.0962 1612 40.1497
26.213 1509 38.8458
26.3298 1550 39.37
26.4466 1499 38.7169
26.5635 1421 37.6962
26.6804 1385 37.2156
26.7973 1361 36.8917
26.9143 1269 35.623
27.0313 1436 37.8946
27.1483 1435 37.8814
27.2653 1465 38.2753
27.3824 1550 39.37
27.4996 1541 39.2556
27.6167 1453 38.1182
27.7339 1480 38.4708
27.8511 1451 38.092
27.9683 1370 37.0135
28.0855 1264 35.5528
28.2028 1371 37.027
28.3201 1301 36.0694
28.4374 1239 35.1994
28.5547 1232 35.0999
28.6721 1217 34.8855
28.7894 1196 34.5832
28.9068 1298 36.0278
29.0242 1406 37.4967
29.1416 1330 36.4692
29.259 1396 37.3631
29.3764 1427 37.7757
29.4939 1452 38.1051
29.6113 1490 38.6005
29.7288 1459 38.1969
29.8463 1457 38.1707
29.9638 1463 38.2492
30.0812 1420 37.6829
30.1987 1387 37.2424
30.3162 1425 37.7492
30.4337 1328 36.4417
30.5512 1347 36.7015
30.6687 1452 38.1051
30.7862 1465 38.2753
30.9037 1502 38.7556
31.0212 1508 38.833
31.1387 1559 39.4842
31.2562 1509 38.8458
31.3737 1436 37.8946
31.4912 1416 37.6298
31.6087 1380 37.1484
31.7262 1329 36.4555
31.8436 1292 35.9444
31.9611 1320 36.3318
32.0785 1247 35.3129
32.1959 1277 35.7351
32.3134 1221 34.9428
32.4308 1384 37.2022
32.5482 1279 35.7631
32.6655 1389 37.2693
32.7829 1519 38.9744
32.9002 1472 38.3667
33.0176 1434 37.8682
33.1349 1414 37.6032
33.2522 1523 39.0256
33.3694 1524 39.0384
33.4867 1521 39
33.6039 1440 37.9473
33.7211 1416 37.6298
33.8383 1339 36.5923
33.9554 1409 37.5366
34.0725 1362 36.9053
34.1896 1403 37.4566
34.3067 1419 37.6696
34.4237 1490 38.6005
34.5407 1529 39.1024
34.6577 1507 38.8201
34.7746 1574 39.6737
34.8915 1455 38.1445
35.0084 1500 38.7298
35.1252 1402 37.4433
35.242 1406 37.4967
35.3587 1338 36.5787
35.4755 1264 35.5528
35.5921 1333 36.5103
35.7088 1155 33.9853
35.8254 1210 34.7851
35.9419 1180 34.3511
36.0584 1200 34.641
36.1749 1290 35.9166
36.2913 1308 36.1663
36.4077 1379 37.1349
36.524 1422 37.7094
36.6403 1498 38.704
36.7565 1435 37.8814
36.8727 1486 38.5487
36.9889 1520 38.9872
37.1049 1443 37.9868
37.221 0 1
37.3369 0 1
37.4529 0 1
37.5687 0 1
37.6845 0 1
37.8003 0 1
37.916 0 1
38.0316 0 1
38.1472 0 1
40.5851 0 1
40.7008 0 1
40.8164 0 1
40.9322 0 1
41.048 0 1
41.1639 0 1
41.2798 0 1
41.3958 0 1
41.5118 0 1
41.6279 0 1
41.744 1205 34.7131
41.8602 1326 36.4143
41.9765 1331 36.4829
42.0928 1359 36.8646
42.2091 1365 36.9459
42.3255 1349 36.7287
42.4419 1347 36.7015
42.5584 1319 36.318
42.675 1242 35.242
42.7915 1211 34.7994
42.9081 1300 36.0555
43.0248 1333 36.5103
43.1415 1304 36.1109
43.2582 1281 35.7911
43.375 1321 36.3456
43.4918 1368 36.9865
43.6087 1421 37.6962
43.7256 1311 36.2077
43.8425 1343 36.647
43.9595 1290 35.9166
44.0765 1235 35.1426
44.1935 1214 34.8425
44.3106 1149 33.8969
44.4277 1064 32.619
44.5448 991 31.4802
44.6619 955 30.9031
44.7791 978 31.273
44.8963 1043 32.2955
45.0136 1091 33.0303
45.1308 1108 33.2866
45.2481 1159 34.0441
45.3654 1165 34.1321
45.4827 1161 34.0735
45.6001 1259 35.4824
45.7174 1159 34.0441
45.8348 1244 35.2704
45.9522 1162 34.0881
46.0697 1083 32.909
46.1871 1057 32.5115
46.3046 959 30.9677
46.422 996 31.5595
46.5395 1010 31.7805
46.657 1047 32.3574
46.7745 1098 33.1361
46.892 1058 32.5269
47.0096 1122 33.4963
47.1271 1049 32.3883
47.2446 1046 32.3419
47.3622 1042 32.28
47.4797 1063 32.6037
47.5973 950 30.8221
47.7149 947 30.7734
47.8324 921 30.348
47.95 809 28.4429
48.0675 810 28.4605
48.1851 738 27.1662
48.3027 779 27.9106
48.4202 739 27.1846
48.5378 798 28.2489
48.6554 869 29.4788
48.7729 943 30.7083
48.8904 912 30.1993
49.008 997 31.5753
49.1255 945 30.7409
49.243 982 31.3369
49.3605 1014 31.8434
49.478 994 31.5278
49.5955 974 31.209
49.713 943 30.7083
49.8304 895 29.9166
49.9479 941 30.6757
50.0653 1011 31.7962
50.1827 1033 32.1403
50.3001 1062 32.5883
50.4175 1047 32.3574
50.5348 1169 34.1906
50.6521 1190 34.4964
50.7694 1175 34.2783
50.8867 1146 33.8526
51.004 1148 33.8821
51.1212 1239 35.1994
51.2384 1160 34.0588
51.3556 1106 33.2566
51.4727 1074 32.7719
51.5899 1065 32.6343
51.707 1003 31.6702
51.824 1015 31.8591
51.9411 1052 32.4345
52.0581 1174 34.2637
52.175 1229 35.0571
52.2919 1370 37.0135
52.4088 1331 36.4829
52.5257 1457 38.1707
52.6425 1421 37.6962
52.7593 1464 38.2623
52.876 1374 37.0675
52.9927 1434 37.8682
53.1094 1437 37.9078
53.226 1454 38.1314
53.3426 1365 36.9459
53.4591 1358 36.8511
53.5756 1418 37.6563
53.692 1487 38.5616
53.8084 1514 38.9102
53.9248 1541 39.2556
54.0411 1620 40.2492
54.1573 1592 39.8999
54.2735 0 1
54.3896 0 1
54.5057 0 1
54.6217 0 1
54.7377 0 1
54.8537 0 1
54.9695 0 1
55.0853 0 1
55.2011 0 1
55.3168 0 1
55.4324 0 1
57.824 0 1
57.9396 0 1
58.0553 0 1
58.1711 0 1
58.2869 0 1
58.4028 0 1
58.5187 0 1
58.6347 0 1
58.7508 0 1
58.8669 0 1
58.983 1943 44.0795
59.0992 2015 44.8888
59.2155 2043 45.1996
59.3318 2068 45.4753
59.4482 1972 44.4072
59.5646 2102 45.8476
59.681 2104 45.8694
59.7975 1993 44.643
59.9141 1888 43.4511
60.0306 1767 42.0357
60.1473 1727 41.5572
60.2639 1565 39.5601
60.3807 1451 38.092
60.4974 1481 38.4838
60.6142 1551 39.3827
60.731 1606 40.0749
60.8479 1759 41.9404
60.9648 1849 43
61.0818 2021 44.9555
61.1987 2034 45.0999
61.3158 2050 45.2769
61.4328 2002 44.7437
61.5499 1921 43.8292
61.667 1987 44.5758
61.7841 1912 43.7264
61.9013 1925 43.8748
62.0185 1808 42.5206
62.1357 1978 44.4747
62.253 1927 43.8976
62.3702 1901 43.6005
62.4875 2003 44.7549
62.6049 2029 45.0444
62.7222 2143 46.2925
62.8396 2085 45.6618
62.9569 2046 45.2327
63.0743 2058 45.3652
63.1918 2044 45.2106
63.3092 1955 44.2154
63.4267 1959 44.2606
63.5441 1843 42.9302
63.6616 1683 41.0244
63.7791 1522 39.0128
63.8966 1451 38.092
64.0142 1436 37.8946
64.1317 1525 39.0512
64.2492 1607 40.0874
64.3668 1681 41
64.4843 1903 43.6234
64.6019 2000 44.7214
64.7195 1934 43.9773
64.837 1982 44.5197
64.9546 1993 44.643
65.0722 2037 45.1331
65.1898 1938 44.0227
65.3074 1898 43.566
65.4249 1876 43.3128
65.5425 1931 43.9431
65.6601 1882 43.382
65.7777 1957 44.238
65.8952 2066 45.4533
66.0128 2091 45.7275
66.1304 2089 45.7056
66.2479 2120 46.0435
66.3655 2191 46.8081
66.483 2142 46.2817
66.6005 2188 46.7761
66.718 2187 46.7654
66.8355 2109 45.9239
66.953 2171 46.594
67.0705 1945 44.1022
67.1879 1902 43.6119
67.3054 1740 41.7133
67.4228 1553 39.4081
67.5402 1494 38.6523
67.6576 1546 39.3192
67.7749 1647 40.5832
67.8923 1799 42.4146
68.0096 1874 43.2897
68.1269 2083 45.6399
68.2442 2135 46.2061
68.3614 2116 46
68.4787 2267 47.613
68.5958 2232 47.244
68.713 2190 46.7974
68.8302 2245 47.3814
68.9473 2157 46.4435
69.0643 2208 46.9894
69.1814 2216 47.0744
69.2984 2147 46.3357
69.4154 2151 46.3789
69.5323 2312 48.0833
69.6492 2365 48.6313
69.7661 2326 48.2286
69.8829 2448 49.4773
69.9997 2433 49.3254
70.1165 2520 50.1996
70.2332 2484 49.8397
70.3499 2473 49.7293
70.4665 2487 49.8698
70.5831 2339 48.3632
70.6996 2292 47.8748
70.8161 2179 46.6798
70.9326 1994 44.6542
71.049 1923 43.852
71.1653 1583 39.7869
71.2817 1535 39.1791
71.3979 1521 39
71.5141 1660 40.7431
71.6303 1773 42.107
71.7464 1859 43.1161
71.8624 0 1
71.9784 0 1
72.0944 0 1
72.2102 0 1
72.3261 0 1
72.4418 0 1
72.5575 0 1
72.6732 0 1
75.1054 0 1
75.2209 0 1
75.3365 0 1
75.4521 0 1
75.5678 0 1
75.6835 0 1
75.7993 0 1
75.9151 0 1
76.031 0 1
76.147 2109 45.9239
76.263 2245 47.3814
76.3791 1941 44.0568
76.4952 1737 41.6773
76.6113 1659 40.7308
76.7276 1741 41.7253
76.8438 1934 43.9773
76.9601 2198 46.8828
77.0765 2449 49.4874
77.1929 2648 51.4587
77.3093 2738 52.3259
77.4258 2635 51.3323
77.5423 2815 53.0566
77.6589 2790 52.8205
77.7755 2776 52.6878
77.8921 2747 52.4118
78.0088 2695 51.9134
78.1256 2668 51.6527
78.2423 2582 50.8134
78.3591 2580 50.7937
78.4759 2680 51.7687
78.5928 2734 52.2877
78.7097 2771 52.6403
78.8266 3089 55.5788
78.9436 2808 52.9906
79.0606 2970 54.4977
79.1776 2908 53.9259
79.2946 3040 55.1362
79.4117 2830 53.1977
79.5288 2879 53.6563
79.6459 2719 52.144
79.7631 2802 52.9339
79.8802 2594 50.9313
79.9974 2441 49.4065
80.1147 2047 45.2438
80.2319 1913 43.7379
80.3491 1899 43.5775
80.4664 2073 45.5302
80.5837 2347 48.4458
80.701 2754 52.4786
80.8183 2842 53.3104
80.9357 2848 53.3667
81.053 2995 54.7266
81.1704 3023 54.9818
81.2877 2954 54.3507
81.4051 3064 55.3534
81.5225 2994 54.7175
81.6399 2803 52.9434
81.7573 2942 54.2402
81.8747 2796 52.8772
81.9922 2764 52.5738
82.1096 2834 53.2353
82.227 2799 52.9056
82.3444 2974 54.5344
82.4619 3011 54.8726
82.5793 2901 53.8609
82.6967 3194 56.5155
82.8142 3060 55.3173
82.9316 3207 56.6304
83.049 3127 55.9196
83.1664 2881 53.6749
83.2838 2942 54.2402
83.4012 2953 54.3415
83.5186 2791 52.8299
83.636 2490 49.8999
83.7534 2140 46.2601
83.8708 1888 43.4511
83.9881 1827 42.7434
84.1055 2068 45.4753
84.2228 2247 47.4025
84.3401 2577 50.7642
84.4575 2954 54.3507
84.5747 3070 55.4076
84.692 3146 56.0892
84.8093 3232 56.8507
84.9265 3172 56.3205
85.0437 3135 55.9911
85.1609 3230 56.8331
85.2781 3132 55.9643
85.3952 3045 55.1815
85.5123 3063 55.3444
85.6294 2994 54.7175
85.7465 3168 56.285
85.8636 3236 56.8859
85.9806 3342 57.81
86.0976 3474 58.9406
86.2145 3629 60.2412
86.3315 3492 59.0931
86.4484 3799 61.636
86.5652 3602 60.0167
86.682 3662 60.5145
86.7988 3608 60.0666
86.9156 3649 60.407
87.0323 3318 57.6021
87.149 3136 56
87.2657 2959 54.3967
87.3823 2591 50.9019
87.4988 2247 47.4025
87.6154 2454 49.5379
87.7318 2690 51.8652
87.8483 3226 56.7979
87.9647 3525 59.3717
88.081 3745 61.1964
88.1973 3885 62.3298
88.3136 3950 62.849
88.4298 3877 62.2656
88.546 3917 62.5859
88.6621 3945 62.8092
88.7781 3848 62.0322
88.8942 0 1
89.0101 0 1
89.126 0 1
89.2419 0 1
89.3577 0 1
89.4734 0 1
89.5891 0 1
89.7047 0 1
89.8203 0 1
89.9358 0 1
92.3269 0 1
92.4424 0 1
92.558 0 1
92.6736 0 1
92.7893 0 1
92.905 0 1
93.0208 0 1
93.1366 0 1
93.2525 0 1
93.3685 0 1
93.4845 0 1
93.6005 4028 63.4665
93.7167 4230 65.0385
93.8328 4194 64.7611
93.949 4066 63.7652
94.0653 4210 64.8845
94.1816 4058 63.7024
94.2979 4119 64.1794
94.4143 4086 63.9218
94.5307 4001 63.2535
94.6472 4040 63.561
94.7637 3912 62.546
94.8803 4064 63.7495
94.9969 3994 63.1981
95.1135 4287 65.4752
95.2302 4372 66.1211
95.3469 4346 65.9242
95.4637 4316 65.6963
95.5805 4377 66.1589
95.6973 4407 66.3852
95.8142 4482 66.9477
95.9311 4420 66.4831
96.048 4327 65.7799
96.1649 4224 64.9923
96.2819 3908 62.514
96.3989 3647 60.3904
96.516 3236 56.8859
96.633 2802 52.9339
96.7501 2653 51.5073
96.8673 2998 54.754
96.9844 3545 59.5399
97.1016 3856 62.0967
97.2188 4416 66.453
97.336 4651 68.1982
97.4532 4673 68.3593
97.5704 4735 68.8113
97.6877 4840 69.5701
97.805 4586 67.72
97.9223 4594 67.7791
98.0396 4597 67.8012
98.1569 4499 67.0746
98.2743 4417 66.4605
98.3916 4424 66.5132
98.509 4342 65.8939
98.6264 4516 67.2012
98.7438 4483 66.9552
98.8612 4688 68.469
98.9786 4717 68.6804
99.096 4885 69.8928
99.2134 4975 70.5337
99.3308 4871 69.7925
99.4482 5091 71.3512
99.5656 4895 69.9643
99.6831 4765 69.029
99.8005 4497 67.0597
99.9179 4394 66.2873
100.035 3996 63.2139
100.153 3457 58.7963
100.27 3217 56.7186
100.388 3144 56.0714
100.505 3604 60.0333
100.622 4170 64.5755
100.74 4677 68.3886
100.857 4902 70.0143
100.975 5031 70.9295
101.092 4993 70.6612
101.209 5054 71.0915
101.327 5075 71.239
101.444 4987 70.6187
101.561 5100 71.4143
101.679 4906 70.0428
101.796 4962 70.4415
101.913 4712 68.644
102.03 4709 68.6222
102.148 4781 69.1448
102.265 5161 71.8401
102.382 4832 69.5126
102.499 5279 72.6567
102.616 5146 71.7356
102.733 5475 73.9932
102.851 5307 72.8492
102.968 5355 73.1779
103.085 5293 72.753
103.202 5196 72.0833
103.319 5210 72.1803
103.436 4878 69.8427
103.552 4465 66.8207
103.669 3668 60.564
103.786 3407 58.3695
103.903 3527 59.3886
104.02 4117 64.1639
104.137 4487 66.9851
104.253 5213 72.2011
104.37 5290 72.7324
104.487 5504 74.1889
104.603 5541 74.4379
104.72 5450 73.8241
104.836 5533 74.3841
104.953 5704 75.5248
105.069 5371 73.2871
105.186 5492 74.108
105.302 5290 72.7324
105.418 5216 72.2219
105.535 5204 72.1388
105.651 5134 71.6519
105.767 5391 73.4234
105.883 5468 73.9459
105.999 5596 74.8064
106.115 0 1
106.231 0 1
106.347 0 1
106.463 0 1
106.579 0 1
106.694 0 1
106.81 0 1
106.926 0 1
107.041 0 1
107.157 0 1
109.576 0 1
109.692 0 1
109.807 0 1
109.923 0 1
110.039 0 1
110.155 0 1
110.27 0 1
110.386 0 1
110.502 0 1
110.618 4779 69.1303
110.735 4887 69.9071
110.851 5117 71.5332
110.967 5272 72.6085
111.083 5272 72.6085
111.199 5231 72.3257
111.316 5346 73.1163
111.432 5346 73.1163
111.549 5212 72.1942
111.665 5348 73.13
111.782 4983 70.5904
111.898 4696 68.5274
112.015 4250 65.192
112.132 3833 61.9112
112.248 3318 57.6021
112.365 3266 57.1489
112.482 3572 59.7662
112.599 4124 64.2184
112.716 4548 67.4389
112.832 4793 69.2315
112.949 4905 70.0357
113.066 5021 70.859
113.183 4847 69.6204
113.3 4855 69.6778
113.417 4872 69.7997
113.534 4719 68.695
113.652 4855 69.6778
113.769 4633 68.0661
113.886 4617 67.9485
114.003 4597 67.8012
114.12 4460 66.7832
114.238 4442 66.6483
114.355 4244 65.146
114.472 4431 66.5658
114.589 4581 67.6831
114.707 4525 67.2681
114.824 4624 68
114.942 4805 69.3181
115.059 4734 68.8041
115.176 4626 68.0147
115.294 4600 67.8233
115.411 4279 65.4141
115.529 4053 63.6632
115.646 3672 60.597
115.764 3204 56.6039
115.881 3039 55.1271
115.999 3085 55.5428
116.116 3561 59.6741
116.234 3979 63.0793
116.351 4447 66.6858
116.469 4541 67.3869
116.586 4521 67.2384
116.704 4725 68.7386
116.821 4764 69.0217
116.939 4654 68.2202
117.056 4509 67.1491
117.174 4449 66.7008
117.291 4619 67.9632
117.409 4482 66.9477
117.526 4449 66.7008
117.644 4371 66.1135
117.761 4371 66.1135
117.879 4234 65.0692
117.996 4327 65.7799
118.114 4451 66.7158
118.231 4576 67.6461
118.349 4756 68.9638
118.466 4733 68.7968
118.584 4748 68.9057
118.701 4695 68.5201
118.819 4568 67.587
118.936 4369 66.0984
119.053 4327 65.7799
119.171 4084 63.9062
119.288 3562 59.6825
119.405 3158 56.1961
119.523 2946 54.2771
119.64 3030 55.0454
119.757 3346 57.8446
119.875 3791 61.5711
119.992 4117 64.1639
120.109 4413 66.4304
120.226 4630 68.0441
120.343 4548 67.4389
120.46 4452 66.7233
120.578 4256 65.238
120.695 4436 66.6033
120.812 4404 66.3626
120.929 4290 65.4981
121.046 4341 65.8863
121.163 4100 64.0312
121.279 4305 65.6125
121.396 4269 65.3376
121.513 4202 64.8228
121.63 4226 65.0077
121.747 4169 64.5678
121.863 4194 64.7611
121.98 4307 65.6277
122.097 4365 66.0681
122.213 4438 66.6183
122.33 4430 66.5582
122.446 4327 65.7799
122.563 4290 65.4981
122.679 4094 63.9844
122.795 3990 63.1664
122.912 3682 60.6795
123.028 3476 58.9576
123.144 2984 54.626
123.26 2760 52.5357
123.377 0 1
123.493 0 1
123.609 0 1
123.725 0 1
123.84 0 1
123.956 0 1
124.072 0 1
124.188 0 1
124.303 0 1
124.419 0 1
126.852 0 1
126.968 0 1
127.083 0 1
127.199 0 1
127.315 0 1
127.431 0 1
127.547 0 1
127.663 0 1
127.779 0 1
127.895 0 1
128.011 0 1
128.127 0 1
128.243 0 1
128.359 3361 57.9741
128.476 3007 54.8361
128.592 3093 55.6147
128.708 3542 59.5147
128.825 4084 63.9062
128.941 4471 66.8655
129.058 4624 68
129.174 4618 67.9559
129.291 4496 67.0522
129.408 4681 68.4178
129.524 4665 68.3008
129.641 4620 67.9706
129.758 4551 67.4611
129.875 4584 67.7052
129.992 4556 67.4981
130.108 4519 67.2235
130.225 4449 66.7008
130.342 4470 66.8581
130.459 4236 65.0846
130.576 4386 66.2269
130.693 4291 65.5057
130.81 4391 66.2646
130.928 4407 66.3852
131.045 4529 67.2978
131.162 4534 67.335
131.279 4531 67.3127
131.396 4450 66.7083
131.513 4310 65.6506
131.631 4200 64.8074
131.748 3928 62.6738
131.865 3514 59.279
131.983 3077 55.4707
132.1 3147 56.0981
132.217 3282 57.2887
132.335 3825 61.8466
132.452 4081 63.8827
132.57 4386 66.2269
132.687 4216 64.9307
132.804 4508 67.1416
132.922 4445 66.6708
133.039 4386 66.2269
133.157 4462 66.7982
133.274 4250 65.192
133.392 4385 66.2193
133.509 4259 65.261
133.627 4173 64.5988
133.744 4229 65.0308
133.862 4267 65.3223
133.979 4161 64.5058
134.097 4107 64.0859
134.214 4201 64.8151
134.332 4113 64.1327
134.449 4244 65.146
134.567 4234 65.0692
134.684 4363 66.053
134.802 4383 66.2042
134.919 4344 65.909
135.037 4317 65.7039
135.154 4247 65.169
135.272 4026 63.4508
135.389 3632 60.2661
135.507 3208 56.6392
135.624 2907 53.9166
135.742 3080 55.4977
135.859 3463 58.8473
135.977 3796 61.6117
136.094 4131 64.2729
136.211 4269 65.3376
136.329 4222 64.9769
136.446 4408 66.3928
136.564 4372 66.1211
136.681 4503 67.1044
136.798 4379 66.174
136.915 4186 64.6993
137.033 4180 64.6529
137.15 4161 64.5058
137.267 4144 64.3739
137.384 4051 63.6475
137.502 4043 63.5846
137.619 4093 63.9766
137.736 4039 63.5531
137.853 4064 63.7495
137.97 3999 63.2376
138.087 4105 64.0703
138.204 4056 63.6867
138.321 4086 63.9218
138.438 4298 65.5591
138.555 4202 64.8228
138.672 4062 63.7338
138.788 3994 63.1981
138.905 3981 63.0952
139.022 3608 60.0666
139.139 3384 58.1722
139.255 2972 54.5161
139.372 3095 55.6327
139.488 3357 57.9396
139.605 3699 60.8194
139.721 3923 62.6339
139.838 4017 63.3798
139.954 4081 63.8827
140.071 4086 63.9218
140.187 4207 64.8614
140.303 4191 64.7379
140.419 4093 63.9766
140.535 4142 64.3584
140.652 3992 63.1823
140.768 0 1
140.884 0 1
141 0 1
141.115 0 1
141.231 0 1
141.347 0 1
141.463 0 1
141.578 0 1
141.694 0 1
144.104 0 1
144.219 0 1
144.335 0 1
144.45 0 1
144.566 0 1
144.682 0 1
144.798 0 1
144.914 0 1
145.03 0 1
145.146 3593 59.9416
145.262 3676 60.63
145.378 3564 59.6992
145.494 3497 59.1354
145.61 3335 57.7495
145.726 3384 58.1722
145.842 3438 58.6345
145.959 3440 58.6515
146.075 3306 57.4978
146.192 3517 59.3043
146.308 3456 58.7878
146.425 3381 58.1464
146.541 3407 58.3695
146.658 3289 57.3498
146.774 3284 57.3062
146.891 3446 58.7026
147.008 3337 57.7668
147.125 3441 58.66
147.241 3331 57.7148
147.358 3418 58.4637
147.475 3106 55.7315
147.592 2996 54.7357
147.709 2819 53.0943
147.826 2570 50.6952
147.943 2500 50
148.06 2718 52.1344
148.177 2973 54.5252
148.294 3120 55.857
148.411 3246 56.9737
148.528 3300 57.4456
148.645 3250 57.0088
148.762 3295 57.4021
148.88 3391 58.2323
148.997 3157 56.1872
149.114 3345 57.836
149.231 3236 56.8859
149.349 3143 56.0625
149.466 3047 55.1996
149.583 2992 54.6992
149.701 3039 55.1271
149.818 3087 55.5608
149.935 3100 55.6776
150.053 3185 56.4358
150.17 3071 55.4166
150.287 3089 55.5788
150.405 3208 56.6392
150.522 3090 55.5878
150.64 3150 56.1249
150.757 3004 54.8088
150.875 3188 56.4624
150.992 3068 55.3895
151.11 3009 54.8544
151.227 2794 52.8583
151.344 2685 51.817
151.462 2503 50.03
151.579 2302 47.9792
151.697 2545 50.448
151.814 2783 52.7541
151.932 3097 55.6507
152.049 3117 55.8301
152.167 3204 56.6039
152.284 3219 56.7362
152.402 3263 57.1227
152.519 3226 56.7979
152.636 3094 55.6237
152.754 3155 56.1694
152.871 3069 55.3986
152.989 3245 56.9649
153.106 3131 55.9553
153.223 3017 54.9272
153.341 2958 54.3875
153.458 3104 55.7136
153.575 3055 55.2721
153.693 3154 56.1605
153.81 3068 55.3895
153.927 3133 55.9732
154.044 3174 56.3383
154.162 3246 56.9737
154.279 3224 56.7803
154.396 3281 57.28
154.513 3308 57.5152
154.63 3212 56.6745
154.747 3155 56.1694
154.864 3029 55.0364
154.981 2900 53.8516
155.098 2710 52.0577
155.215 2585 50.8429
155.332 2778 52.7067
155.449 2952 54.3323
155.566 3147 56.0981
155.683 3306 57.4978
155.8 3263 57.1227
155.917 3274 57.2189
156.033 3410 58.3952
156.15 0 1
156.267 0 1
156.383 0 1
156.5 0 1
156.617 0 1
156.733 0 1
156.85 0 1
156.966 0 1
157.082 0 1
157.199 0 1
157.315 0 1
157.431 0 1
157.547 0 1
157.664 0 1
157.78 0 1
157.896 0 1
158.012 0 1
158.128 0 1
158.244 0 1
158.359 0 1
158.475 0 1
158.591 0 1
158.706 0 1
