
6.15755 0 1
6.2731 0 1
6.3887 0 1
6.50437 0 1
6.62009 0 1
6.73587 0 1
6.8517 0 1
6.96759 0 1
7.08353 0 1
7.19952 0 1
7.31557 0 1
7.43166 0 1
7.54781 0 1
7.664 0 1
7.78024 0 1
7.89653 0 1
8.01286 0 1
8.12924 0 1
8.24567 0 1
8.36213 0 1
8.47864 0 1
8.59519 0 1
8.71178 0 1
8.82841 0 1
8.94508 0 1
9.06179 0 1
9.17853 0 1
9.29531 0 1
9.41212 0 1
9.52897 0 1
9.64584 0 1
9.76276 0 1
9.8797 0 1
9.99667 0 1
10.1137 0 1
10.2307 0 1
10.3478 0 1
10.4648 0 1
10.5819 0 1
10.6991 0 1
10.8162 0 1
10.9334 0 1
11.0506 0 1
11.1678 0 1
11.285 0 1
11.4023 0 1
11.5196 0 1
11.6369 0 1
11.7542 0 1
11.8715 0 1
11.9888 0 1
12.1062 0 1
12.2235 0 1
12.3409 0 1
12.4582 0 1
12.5756 0 1
12.693 0 1
12.8104 0 1
12.9278 0 1
13.0452 0 1
13.1626 0 1
13.28 0 1
13.3974 0 1
13.5149 0 1
13.6323 0 1
13.7497 0 1
13.8671 0 1
13.9845 0 1
14.1019 0 1
14.2193 0 1
14.3367 0 1
14.4541 0 1
14.5714 0 1
14.6888 0 1
14.8062 0 1
14.9235 0 1
15.0408 0 0
15.1581 0 0
15.2755 0 0
15.3927 0 0
15.51 0 0
15.6273 0 0
15.7445 0 0
15.8617 0 0
15.9789 0 0
16.0961 0 0
16.2132 0 0
16.3304 0 0
16.4475 0 0
16.5646 0 0
16.6816 0 0
16.7986 0 0
16.9156 0 0
17.0326 0 0
17.1496 0 0
17.2665 0 0
17.3833 0 0
17.5002 0 0
17.617 0 0
17.7338 0 0
17.8505 0 0
17.9672 0 0
18.0839 0 0
18.2005 0 0
18.3171 0 0
18.4337 0 0
18.5502 0 0
18.6666 0 0
18.7831 0 0
18.8994 0 0
19.0158 0 0
19.1321 0 0
19.2483 0 0
19.3645 0 0
19.4806 0 0
19.5967 0 0
19.7128 0 0
19.8288 0 0
19.9447 0 0
20.0606 0 1
20.1764 0 1
20.2922 0 1
20.4079 0 1
20.5236 0 1
20.6392 0 1
20.7548 0 1
20.8702 0 1
23.3078 0 1
23.4233 0 1
23.539 0 1
23.6547 0 1
23.7704 0 1
23.8862 0 1
24.0021 0 1
24.118 0 1
24.234 0 1
24.35 0 1
24.4661 1530 39.1152
24.5822 1544 39.2938
24.6984 1500 38.7298
24.8146 1530 39.1152
24.9309 1505 38.7943
25.0472 1488 38.5746
25.1636 1481 38.4838
25.28 1546 39.3192
25.3965 1548 39.3446
25.513 1568 39.598
25.6296 1589 39.8623
25.7462 1638 40.4722
25.8628 1561 39.5095
25.9795 1587 39.8372
26.0962 1656 40.694
26.213 1545 39.3065
26.3298 1677 40.9512
26.4466 1552 39.3954
26.5635 1465 38.2753
26.6804 1382 37.1753
26.7973 1335 36.5377
26.9143 1334 36.524
27.0313 1471 38.3536
27.1483 1517 38.9487
27.2653 1586 39.8246
27.3824 1620 40.2492
27.4996 1626 40.3237
27.6167 1641 40.5093
27.7339 1601 40.0125
27.8511 1616 40.1995
27.9683 1560 39.4968
28.0855 1541 39.2556
28.2028 1507 38.8201
28.3201 1500 38.7298
28.4374 1533 39.1535
28.5547 1460 38.2099
28.6721 1448 38.0526
28.7894 1505 38.7943
28.9068 1471 38.3536
29.0242 1408 37.5233
29.1416 1519 38.9744
29.259 1442 37.9737
29.3764 1578 39.724
29.4939 1512 38.8844
29.6113 1571 39.6358
29.7288 1496 38.6782
29.8463 1548 39.3446
29.9638 1440 37.9473
30.0812 1325 36.4005
30.1987 1257 35.4542
30.3162 1258 35.4683
30.4337 1300 36.0555
30.5512 1360 36.8782
30.6687 1388 37.2559
30.7862 1512 38.8844
30.9037 1510 38.8587
31.0212 1535 39.1791
31.1387 1668 40.8412
31.2562 1571 39.6358
31.3737 1518 38.9615
31.4912 1510 38.8587
31.6087 1518 38.9615
31.7262 1473 38.3797
31.8436 1456 38.1576
31.9611 1513 38.8973
32.0785 1519 38.9744
32.1959 1389 37.2693
32.3134 1482 38.4968
32.4308 1455 38.1445
32.5482 1399 37.4032
32.6655 1514 38.9102
32.7829 1510 38.8587
32.9002 1465 38.2753
33.0176 1455 38.1445
33.1349 1484 38.5227
33.2522 1444 38
33.3694 1507 38.8201
33.4867 1529 39.1024
33.6039 1390 37.2827
33.7211 1372 37.0405
33.8383 1156 34
33.9554 1201 34.6554
34.0725 1203 34.6843
34.1896 1257 35.4542
34.3067 1379 37.1349
34.4237 1421 37.6962
34.5407 1443 37.9868
34.6577 1554 39.4208
34.7746 1485 38.5357
34.8915 1491 38.6135
35.0084 1444 38
35.1252 1501 38.7427
35.242 1429 37.8021
35.3587 1444 38
35.4755 1448 38.0526
35.5921 1423 37.7227
35.7088 1421 37.6962
35.8254 1430 37.8153
35.9419 1392 37.3095
36.0584 1422 37.7094
36.1749 1380 37.1484
36.2913 1416 37.6298
36.4077 1347 36.7015
36.524 1355 36.8103
36.6403 1448 38.0526
36.7565 1429 37.8021
36.8727 1471 38.3536
36.9889 1434 37.8682
37.1049 1422 37.7094
37.221 0 1
37.3369 0 1
37.4529 0 1
37.5687 0 1
37.6845 0 1
37.8003 0 1
37.916 0 1
38.0316 0 1
38.1472 0 1
40.5851 0 1
40.7008 0 1
40.8164 0 1
40.9322 0 1
41.048 0 1
41.1639 0 1
41.2798 0 1
41.3958 0 1
41.5118 0 1
41.6279 0 1
41.744 1044 32.311
41.8602 1148 33.8821
41.9765 1147 33.8674
42.0928 1138 33.7343
42.2091 1125 33.541
42.3255 1141 33.7787
42.4419 1060 32.5576
42.5584 1006 31.7175
42.675 956 30.9192
42.7915 893 29.8831
42.9081 915 30.249
43.0248 1025 32.0156
43.1415 1001 31.6386
43.2582 1051 32.4191
43.375 1113 33.3617
43.4918 1140 33.7639
43.6087 1138 33.7343
43.7256 1112 33.3467
43.8425 1104 33.2265
43.9595 1047 32.3574
44.0765 1038 32.218
44.1935 1030 32.0936
44.3106 940 30.6594
44.4277 991 31.4802
44.5448 935 30.5778
44.6619 922 30.3645
44.7791 905 30.0832
44.8963 895 29.9166
45.0136 837 28.931
45.1308 794 28.178
45.2481 843 29.0345
45.3654 859 29.3087
45.4827 802 28.3196
45.6001 869 29.4788
45.7174 862 29.3598
45.8348 820 28.6356
45.9522 861 29.3428
46.0697 708 26.6083
46.1871 689 26.2488
46.3046 637 25.2389
46.422 640 25.2982
46.5395 696 26.3818
46.657 781 27.9464
46.7745 762 27.6043
46.892 754 27.4591
47.0096 748 27.3496
47.1271 789 28.0891
47.2446 821 28.6531
47.3622 759 27.55
47.4797 764 27.6405
47.5973 723 26.8887
47.7149 695 26.3629
47.8324 720 26.8328
47.95 652 25.5343
48.0675 657 25.632
48.1851 648 25.4558
48.3027 597 24.4336
48.4202 607 24.6374
48.5378 670 25.8844
48.6554 626 25.02
48.7729 610 24.6982
48.8904 616 24.8193
49.008 620 24.8998
49.1255 636 25.219
49.243 613 24.7588
49.3605 633 25.1595
49.478 562 23.7065
49.5955 525 22.9129
49.713 497 22.2935
49.8304 510 22.5832
49.9479 511 22.6053
50.0653 578 24.0416
50.1827 634 25.1794
50.3001 658 25.6515
50.4175 720 26.8328
50.5348 762 27.6043
50.6521 744 27.2764
50.7694 777 27.8747
50.8867 767 27.6948
51.004 821 28.6531
51.1212 793 28.1603
51.2384 809 28.4429
51.3556 816 28.5657
51.4727 855 29.2404
51.5899 870 29.4958
51.707 902 30.0333
51.824 903 30.05
51.9411 850 29.1548
52.0581 882 29.6985
52.175 949 30.8058
52.2919 899 29.9833
52.4088 938 30.6268
52.5257 971 31.1609
52.6425 1017 31.8904
52.7593 1023 31.9844
52.876 1033 32.1403
52.9927 1009 31.7648
53.1094 977 31.257
53.226 888 29.7993
53.3426 812 28.4956
53.4591 822 28.6705
53.5756 868 29.4618
53.692 993 31.5119
53.8084 1058 32.5269
53.9248 1159 34.0441
54.0411 1133 33.6601
54.1573 1209 34.7707
54.2735 0 1
54.3896 0 1
54.5057 0 1
54.6217 0 1
54.7377 0 1
54.8537 0 1
54.9695 0 1
55.0853 0 1
55.2011 0 1
55.3168 0 1
55.4324 0 1
57.824 0 1
57.9396 0 1
58.0553 0 1
58.1711 0 1
58.2869 0 1
58.4028 0 1
58.5187 0 1
58.6347 0 1
58.7508 0 1
58.8669 0 1
58.983 1201 34.6554
59.0992 1254 35.4119
59.2155 1327 36.428
59.3318 1437 37.9078
59.4482 1375 37.081
59.5646 1463 38.2492
59.681 1453 38.1182
59.7975 1428 37.7889
59.9141 1373 37.054
60.0306 1368 36.9865
60.1473 1348 36.7151
60.2639 1315 36.2629
60.3807 1241 35.2278
60.4974 1165 34.1321
60.6142 1213 34.8281
60.731 1241 35.2278
60.8479 1207 34.7419
60.9648 1211 34.7994
61.0818 1243 35.2562
61.1987 1253 35.3977
61.3158 1204 34.6987
61.4328 1264 35.5528
61.5499 1264 35.5528
61.667 1175 34.2783
61.7841 1037 32.2025
61.9013 990 31.4643
62.0185 965 31.0644
62.1357 1020 31.9374
62.253 1118 33.4365
62.3702 1131 33.6303
62.4875 1244 35.2704
62.6049 1306 36.1386
62.7222 1363 36.9188
62.8396 1326 36.4143
62.9569 1411 37.5633
63.0743 1424 37.7359
63.1918 1468 38.3145
63.3092 1381 37.1618
63.4267 1389 37.2693
63.5441 1390 37.2827
63.6616 1354 36.7967
63.7791 1385 37.2156
63.8966 1380 37.1484
64.0142 1297 36.0139
64.1317 1290 35.9166
64.2492 1313 36.2353
64.3668 1268 35.609
64.4843 1260 35.4965
64.6019 1333 36.5103
64.7195 1307 36.1525
64.837 1315 36.2629
64.9546 1364 36.9324
65.0722 1305 36.1248
65.1898 1243 35.2562
65.3074 1228 35.0428
65.4249 1056 32.4962
65.5425 1036 32.187
65.6601 948 30.7896
65.7777 1055 32.4808
65.8952 1174 34.2637
66.0128 1218 34.8999
66.1304 1330 36.4692
66.2479 1363 36.9188
66.3655 1407 37.51
66.483 1475 38.4057
66.6005 1435 37.8814
66.718 1460 38.2099
66.8355 1397 37.3765
66.953 1440 37.9473
67.0705 1418 37.6563
67.1879 1356 36.8239
67.3054 1260 35.4965
67.4228 1224 34.9857
67.5402 1219 34.9142
67.6576 1263 35.5387
67.7749 1178 34.322
67.8923 1260 35.4965
68.0096 1234 35.1283
68.1269 1182 34.3802
68.2442 1313 36.2353
68.3614 1286 35.8608
68.4787 1260 35.4965
68.5958 1231 35.0856
68.713 1198 34.6121
68.8302 1110 33.3167
68.9473 1079 32.8481
69.0643 942 30.692
69.1814 894 29.8998
69.2984 908 30.133
69.4154 983 31.3528
69.5323 1155 33.9853
69.6492 1121 33.4813
69.7661 1265 35.5668
69.8829 1314 36.2491
69.9997 1368 36.9865
70.1165 1360 36.8782
70.2332 1341 36.6197
70.3499 1409 37.5366
70.4665 1355 36.8103
70.5831 1370 37.0135
70.6996 1335 36.5377
70.8161 1230 35.0714
70.9326 1264 35.5528
71.049 1192 34.5254
71.1653 1117 33.4215
71.2817 1165 34.1321
71.3979 1105 33.2415
71.5141 1097 33.121
71.6303 1118 33.4365
71.7464 1031 32.1092
71.8624 0 1
71.9784 0 1
72.0944 0 1
72.2102 0 1
72.3261 0 1
72.4418 0 1
72.5575 0 1
72.6732 0 1
75.1054 0 1
75.2209 0 1
75.3365 0 1
75.4521 0 1
75.5678 0 1
75.6835 0 1
75.7993 0 1
75.9151 0 1
76.031 0 1
76.147 1226 35.0143
76.263 1236 35.1568
76.3791 1190 34.4964
76.4952 1226 35.0143
76.6113 1229 35.0571
76.7276 1165 34.1321
76.8438 1172 34.2345
76.9601 1192 34.5254
77.0765 1197 34.5977
77.1929 1314 36.2491
77.3093 1195 34.5688
77.4258 1248 35.327
77.5423 1267 35.5949
77.6589 1248 35.327
77.7755 1139 33.7491
77.8921 1089 33
78.0088 980 31.305
78.1256 905 30.0832
78.2423 825 28.7228
78.3591 885 29.7489
78.4759 937 30.6105
78.5928 1061 32.573
78.7097 1118 33.4365
78.8266 1210 34.7851
78.9436 1310 36.1939
79.0606 1275 35.7071
79.1776 1387 37.2424
79.2946 1330 36.4692
79.4117 1304 36.1109
79.5288 1367 36.973
79.6459 1297 36.0139
79.7631 1272 35.6651
79.8802 1119 33.4515
79.9974 1091 33.0303
80.1147 1083 32.909
80.2319 1119 33.4515
80.3491 1033 32.1403
80.4664 1066 32.6497
80.5837 1040 32.249
80.701 1088 32.9848
80.8183 1104 33.2265
80.9357 1081 32.8786
81.053 1087 32.9697
81.1704 1124 33.5261
81.2877 1071 32.7261
81.4051 1078 32.8329
81.5225 937 30.6105
81.6399 884 29.7321
81.7573 794 28.178
81.8747 755 27.4773
81.9922 735 27.1109
82.1096 848 29.1204
82.227 912 30.1993
82.3444 1016 31.8748
82.4619 1063 32.6037
82.5793 1152 33.9411
82.6967 1118 33.4365
82.8142 1176 34.2929
82.9316 1138 33.7343
83.049 1028 32.0624
83.1664 1123 33.5112
83.2838 1065 32.6343
83.4012 1072 32.7414
83.5186 996 31.5595
83.636 913 30.2159
83.7534 937 30.6105
83.8708 939 30.6431
83.9881 874 29.5635
84.1055 919 30.315
84.2228 947 30.7734
84.3401 912 30.1993
84.4575 916 30.2655
84.5747 923 30.3809
84.692 967 31.0966
84.8093 1086 32.9545
84.9265 967 31.0966
85.0437 921 30.348
85.1609 794 28.178
85.2781 761 27.5862
85.3952 718 26.7955
85.5123 653 25.5539
85.6294 747 27.3313
85.7465 759 27.55
85.8636 893 29.8831
85.9806 1021 31.9531
86.0976 1129 33.6006
86.2145 1150 33.9116
86.3315 1227 35.0286
86.4484 1199 34.6266
86.5652 1226 35.0143
86.682 1259 35.4824
86.7988 1230 35.0714
86.9156 1150 33.9116
87.0323 1156 34
87.149 1186 34.4384
87.2657 1127 33.5708
87.3823 1129 33.6006
87.4988 1120 33.4664
87.6154 1070 32.7109
87.7318 1088 32.9848
87.8483 1090 33.0151
87.9647 1170 34.2053
88.081 1217 34.8855
88.1973 1236 35.1568
88.3136 1234 35.1283
88.4298 1281 35.7911
88.546 1188 34.4674
88.6621 1102 33.1964
88.7781 1018 31.9061
88.8942 0 1
89.0101 0 1
89.126 0 1
89.2419 0 1
89.3577 0 1
89.4734 0 1
89.5891 0 1
89.7047 0 1
89.8203 0 1
89.9358 0 1
92.3269 0 1
92.4424 0 1
92.558 0 1
92.6736 0 1
92.7893 0 1
92.905 0 1
93.0208 0 1
93.1366 0 1
93.2525 0 1
93.3685 0 1
93.4845 0 1
93.6005 1191 34.5109
93.7167 1273 35.6791
93.8328 1249 35.3412
93.949 1178 34.322
94.0653 1110 33.3167
94.1816 1079 32.8481
94.2979 987 31.4166
94.4143 899 29.9833
94.5307 896 29.9333
94.6472 879 29.6479
94.7637 1019 31.9218
94.8803 1017 31.8904
94.9969 1120 33.4664
95.1135 1274 35.6931
95.2302 1295 35.9861
95.3469 1318 36.3043
95.4637 1383 37.1887
95.5805 1423 37.7227
95.6973 1428 37.7889
95.8142 1446 38.0263
95.9311 1391 37.2961
96.048 1377 37.108
96.1649 1335 36.5377
96.2819 1237 35.171
96.3989 1197 34.5977
96.516 1231 35.0856
96.633 1135 33.6898
96.7501 1148 33.8821
96.8673 1130 33.6155
96.9844 1191 34.5109
97.1016 1205 34.7131
97.2188 1253 35.3977
97.336 1359 36.8646
97.4532 1331 36.4829
97.5704 1275 35.7071
97.6877 1254 35.4119
97.805 1078 32.8329
97.9223 986 31.4006
98.0396 930 30.4959
98.1569 845 29.0689
98.2743 870 29.4958
98.3916 941 30.6757
98.509 1067 32.665
98.6264 1181 34.3657
98.7438 1248 35.327
98.8612 1308 36.1663
98.9786 1289 35.9026
99.096 1352 36.7696
99.2134 1383 37.1887
99.3308 1371 37.027
99.4482 1427 37.7757
99.5656 1364 36.9324
99.6831 1378 37.1214
99.8005 1350 36.7423
99.9179 1322 36.3593
100.035 1208 34.7563
100.153 1256 35.4401
100.27 1150 33.9116
100.388 1177 34.3074
100.505 1220 34.9285
100.622 1259 35.4824
100.74 1250 35.3553
100.857 1301 36.0694
100.975 1299 36.0416
101.092 1288 35.8887
101.209 1178 34.322
101.327 1163 34.1028
101.444 1138 33.7343
101.561 930 30.4959
101.679 892 29.8664
101.796 911 30.1828
101.913 931 30.5123
102.03 1070 32.7109
102.148 1226 35.0143
102.265 1240 35.2136
102.382 1433 37.855
102.499 1439 37.9342
102.616 1460 38.2099
102.733 1473 38.3797
102.851 1506 38.8072
102.968 1428 37.7889
103.085 1477 38.4318
103.202 1364 36.9324
103.319 1432 37.8418
103.436 1413 37.5899
103.552 1371 37.027
103.669 1308 36.1663
103.786 1226 35.0143
103.903 1256 35.4401
104.02 1279 35.7631
104.137 1336 36.5513
104.253 1320 36.3318
104.37 1498 38.704
104.487 1428 37.7889
104.603 1413 37.5899
104.72 1402 37.4433
104.836 1276 35.7211
104.953 1220 34.9285
105.069 1061 32.573
105.186 986 31.4006
105.302 1050 32.4037
105.418 1136 33.7046
105.535 1203 34.6843
105.651 1378 37.1214
105.767 1483 38.5097
105.883 1520 38.9872
105.999 1627 40.3361
106.115 0 1
106.231 0 1
106.347 0 1
106.463 0 1
106.579 0 1
106.694 0 1
106.81 0 1
106.926 0 1
107.041 0 1
107.157 0 1
109.576 0 1
109.692 0 1
109.807 0 1
109.923 0 1
110.039 0 1
110.155 0 1
110.27 0 1
110.386 0 1
110.502 0 1
110.618 1193 34.5398
110.735 1320 36.3318
110.851 1441 37.9605
110.967 1466 38.2884
111.083 1475 38.4057
111.199 1599 39.9875
111.316 1519 38.9744
111.432 1598 39.975
111.549 1523 39.0256
111.665 1485 38.5357
111.782 1539 39.2301
111.898 1385 37.2156
112.015 1380 37.1484
112.132 1376 37.0945
112.248 1319 36.318
112.365 1252 35.3836
112.482 1170 34.2053
112.599 1252 35.3836
112.716 1310 36.1939
112.832 1362 36.9053
112.949 1357 36.8375
113.066 1350 36.7423
113.183 1274 35.6931
113.3 1236 35.1568
113.417 1128 33.5857
113.534 1070 32.7109
113.652 993 31.5119
113.769 926 30.4302
113.886 992 31.496
114.003 1057 32.5115
114.12 1152 33.9411
114.238 1211 34.7994
114.355 1319 36.318
114.472 1382 37.1753
114.589 1494 38.6523
114.707 1459 38.1969
114.824 1467 38.3014
114.942 1480 38.4708
115.059 1532 39.1408
115.176 1486 38.5487
115.294 1429 37.8021
115.411 1369 37
115.529 1363 36.9188
115.646 1372 37.0405
115.764 1282 35.805
115.881 1236 35.1568
115.999 1220 34.9285
116.116 1195 34.5688
116.234 1288 35.8887
116.351 1372 37.0405
116.469 1368 36.9865
116.586 1321 36.3456
116.704 1311 36.2077
116.821 1344 36.6606
116.939 1350 36.7423
117.056 1204 34.6987
117.174 1067 32.665
117.291 1043 32.2955
117.409 1082 32.8938
117.526 1039 32.2335
117.644 1130 33.6155
117.761 1271 35.6511
117.879 1393 37.3229
117.996 1415 37.6165
118.114 1467 38.3014
118.231 1491 38.6135
118.349 1510 38.8587
118.466 1629 40.3609
118.584 1574 39.6737
118.701 1495 38.6652
118.819 1500 38.7298
118.936 1518 38.9615
119.053 1465 38.2753
119.171 1391 37.2961
119.288 1316 36.2767
119.405 1325 36.4005
119.523 1236 35.1568
119.64 1226 35.0143
119.757 1244 35.2704
119.875 1313 36.2353
119.992 1319 36.318
120.109 1407 37.51
120.226 1366 36.9594
120.343 1342 36.6333
120.46 1286 35.8608
120.578 1246 35.2987
120.695 1194 34.5543
120.812 1100 33.1662
120.929 1077 32.8177
121.046 1097 33.121
121.163 1093 33.0606
121.279 1113 33.3617
121.396 1205 34.7131
121.513 1326 36.4143
121.63 1469 38.3275
121.747 1423 37.7227
121.863 1436 37.8946
121.98 1480 38.4708
122.097 1511 38.8716
122.213 1526 39.064
122.33 1548 39.3446
122.446 1490 38.6005
122.563 1402 37.4433
122.679 1401 37.4299
122.795 1393 37.3229
122.912 1281 35.7911
123.028 1353 36.7831
123.144 1328 36.4417
123.26 1247 35.3129
123.377 0 1
123.493 0 1
123.609 0 1
123.725 0 1
123.84 0 1
123.956 0 1
124.072 0 1
124.188 0 1
124.303 0 1
124.419 0 1
126.852 0 1
126.968 0 1
127.083 0 1
127.199 0 1
127.315 0 1
127.431 0 1
127.547 0 1
127.663 0 1
127.779 0 1
127.895 0 1
128.011 0 1
128.127 0 1
128.243 0 1
128.359 1445 38.0132
128.476 1280 35.7771
128.592 1414 37.6032
128.708 1392 37.3095
128.825 1450 38.0789
128.941 1549 39.3573
129.058 1518 38.9615
129.174 1518 38.9615
129.291 1443 37.9868
129.408 1377 37.108
129.524 1457 38.1707
129.641 1313 36.2353
129.758 1307 36.1525
129.875 1246 35.2987
129.992 1158 34.0294
130.108 1185 34.4238
130.225 1267 35.5949
130.342 1366 36.9594
130.459 1458 38.1838
130.576 1589 39.8623
130.693 1599 39.9875
130.81 1465 38.2753
130.928 1629 40.3609
131.045 1605 40.0625
131.162 1622 40.2741
131.279 1750 41.833
131.396 1657 40.7063
131.513 1675 40.9268
131.631 1649 40.6079
131.748 1552 39.3954
131.865 1548 39.3446
131.983 1512 38.8844
132.1 1420 37.6829
132.217 1434 37.8682
132.335 1520 38.9872
132.452 1491 38.6135
132.57 1598 39.975
132.687 1471 38.3536
132.804 1578 39.724
132.922 1485 38.5357
133.039 1493 38.6394
133.157 1382 37.1753
133.274 1425 37.7492
133.392 1230 35.0714
133.509 1239 35.1994
133.627 1224 34.9857
133.744 1269 35.623
133.862 1330 36.4692
133.979 1440 37.9473
134.097 1510 38.8587
134.214 1447 38.0395
134.332 1553 39.4081
134.449 1564 39.5474
134.567 1597 39.9625
134.684 1616 40.1995
134.802 1680 40.9878
134.919 1676 40.939
135.037 1621 40.2616
135.154 1611 40.1373
135.272 1633 40.4104
135.389 1558 39.4715
135.507 1433 37.855
135.624 1385 37.2156
135.742 1393 37.3229
135.859 1536 39.1918
135.977 1577 39.7115
136.094 1552 39.3954
136.211 1535 39.1791
136.329 1525 39.0512
136.446 1486 38.5487
136.564 1532 39.1408
136.681 1432 37.8418
136.798 1355 36.8103
136.915 1289 35.9026
137.033 1244 35.2704
137.15 1241 35.2278
137.267 1174 34.2637
137.384 1314 36.2491
137.502 1374 37.0675
137.619 1385 37.2156
137.736 1473 38.3797
137.853 1456 38.1576
137.97 1543 39.281
138.087 1516 38.9358
138.204 1547 39.3319
138.321 1607 40.0874
138.438 1685 41.0488
138.555 1606 40.0749
138.672 1585 39.8121
138.788 1601 40.0125
138.905 1580 39.7492
139.022 1581 39.7618
139.139 1523 39.0256
139.255 1444 38
139.372 1442 37.9737
139.488 1506 38.8072
139.605 1618 40.2244
139.721 1576 39.6989
139.838 1556 39.4462
139.954 1530 39.1152
140.071 1503 38.7685
140.187 1505 38.7943
140.303 1445 38.0132
140.419 1324 36.3868
140.535 1311 36.2077
140.652 1307 36.1525
140.768 0 1
140.884 0 1
141 0 1
141.115 0 1
141.231 0 1
141.347 0 1
141.463 0 1
141.578 0 1
141.694 0 1
144.104 0 1
144.219 0 1
144.335 0 1
144.45 0 1
144.566 0 1
144.682 0 1
144.798 0 1
144.914 0 1
145.03 0 1
145.146 1033 32.1403
145.262 1110 33.3167
145.378 1150 33.9116
145.494 1075 32.7872
145.61 1140 33.7639
145.726 982 31.3369
145.842 976 31.241
145.959 995 31.5436
146.075 984 31.3688
146.192 935 30.5778
146.308 1049 32.3883
146.425 1048 32.3728
146.541 1122 33.4963
146.658 1188 34.4674
146.774 1175 34.2783
146.891 1125 33.541
147.008 1251 35.3695
147.125 1184 34.4093
147.241 1277 35.7351
147.358 1282 35.805
147.475 1256 35.4401
147.592 1225 35
147.709 1210 34.7851
147.826 1186 34.4384
147.943 1157 34.0147
148.06 1137 33.7194
148.177 1073 32.7567
148.294 1113 33.3617
148.411 1120 33.4664
148.528 1184 34.4093
148.645 1201 34.6554
148.762 1165 34.1321
148.88 1232 35.0999
148.997 1116 33.4066
149.114 1233 35.1141
149.231 1192 34.5254
149.349 1125 33.541
149.466 1143 33.8083
149.583 1024 32
149.701 1011 31.7962
149.818 946 30.7571
149.935 967 31.0966
150.053 970 31.1448
150.17 1124 33.5261
150.287 1133 33.6601
150.405 1188 34.4674
150.522 1180 34.3511
150.64 1167 34.1614
150.757 1293 35.9583
150.875 1267 35.5949
150.992 1273 35.6791
151.11 1273 35.6791
151.227 1281 35.7911
151.344 1284 35.8329
151.462 1259 35.4824
151.579 1267 35.5949
151.697 1162 34.0881
151.814 1179 34.3366
151.932 1126 33.5559
152.049 1070 32.7109
152.167 1161 34.0735
152.284 1218 34.8999
152.402 1264 35.5528
152.519 1225 35
152.636 1237 35.171
152.754 1232 35.0999
152.871 1260 35.4965
152.989 1217 34.8855
153.106 1129 33.6006
153.223 1153 33.9559
153.341 1064 32.619
153.458 1071 32.7261
153.575 1072 32.7414
153.693 1120 33.4664
153.81 1235 35.1426
153.927 1282 35.805
154.044 1286 35.8608
154.162 1212 34.8138
154.279 1340 36.606
154.396 1338 36.5787
154.513 1375 37.081
154.63 1335 36.5377
154.747 1430 37.8153
154.864 1382 37.1753
154.981 1452 38.1051
155.098 1319 36.318
155.215 1308 36.1663
155.332 1285 35.8469
155.449 1243 35.2562
155.566 1326 36.4143
155.683 1340 36.606
155.8 1306 36.1386
155.917 1345 36.6742
156.033 1388 37.2559
156.15 0 1
156.267 0 1
156.383 0 1
156.5 0 1
156.617 0 1
156.733 0 1
156.85 0 1
156.966 0 1
157.082 0 1
157.199 0 1
157.315 0 1
157.431 0 1
157.547 0 1
157.664 0 1
157.78 0 1
157.896 0 1
158.012 0 1
158.128 0 1
158.244 0 1
158.359 0 1
158.475 0 1
158.591 0 1
158.706 0 1
