
6.15755 0 1
6.2731 0 1
6.3887 0 1
6.50437 0 1
6.62009 0 1
6.73587 0 1
6.8517 0 1
6.96759 0 1
7.08353 0 1
7.19952 0 1
7.31557 0 1
7.43166 0 1
7.54781 0 1
7.664 0 1
7.78024 0 1
7.89653 0 1
8.01286 0 1
8.12924 0 1
8.24567 0 1
8.36213 0 1
8.47864 0 1
8.59519 0 1
8.71178 0 1
8.82841 0 1
8.94508 0 1
9.06179 0 1
9.17853 0 1
9.29531 0 1
9.41212 0 1
9.52897 0 1
9.64584 0 1
9.76276 0 1
9.8797 0 1
9.99667 0 1
10.1137 0 1
10.2307 0 1
10.3478 0 1
10.4648 0 1
10.5819 0 1
10.6991 0 1
10.8162 0 1
10.9334 0 1
11.0506 0 1
11.1678 0 1
11.285 0 1
11.4023 0 1
11.5196 0 1
11.6369 0 1
11.7542 0 1
11.8715 0 1
11.9888 0 1
12.1062 0 1
12.2235 0 1
12.3409 0 1
12.4582 0 1
12.5756 0 1
12.693 0 1
12.8104 0 1
12.9278 0 1
13.0452 0 1
13.1626 0 1
13.28 0 1
13.3974 0 1
13.5149 0 1
13.6323 0 1
13.7497 0 1
13.8671 0 1
13.9845 0 1
14.1019 0 1
14.2193 0 1
14.3367 0 1
14.4541 0 1
14.5714 0 1
14.6888 0 1
14.8062 0 1
14.9235 0 1
15.0408 1705 41.2916
15.1581 1791 42.3202
15.2755 1662 40.7676
15.3927 1647 40.5832
15.51 1679 40.9756
15.6273 1687 41.0731
15.7445 1644 40.5463
15.8617 1646 40.5709
15.9789 1602 40.025
16.0961 1608 40.0999
16.2132 1587 39.8372
16.3304 1630 40.3733
16.4475 1625 40.3113
16.5646 1567 39.5854
16.6816 1562 39.5221
16.7986 1646 40.5709
16.9156 1628 40.3485
17.0326 1580 39.7492
17.1496 1637 40.4599
17.2665 1614 40.1746
17.3833 1608 40.0999
17.5002 1621 40.2616
17.617 1491 38.6135
17.7338 1440 37.9473
17.8505 1422 37.7094
17.9672 1520 38.9872
18.0839 1730 41.5933
18.2005 1741 41.7253
18.3171 1730 41.5933
18.4337 1771 42.0833
18.5502 1788 42.2847
18.6666 1827 42.7434
18.7831 1773 42.107
18.8994 1737 41.6773
19.0158 1709 41.3401
19.1321 1599 39.9875
19.2483 1674 40.9145
19.3645 1640 40.4969
19.4806 1586 39.8246
19.5967 1610 40.1248
19.7128 1469 38.3275
19.8288 1127 33.5708
19.9447 546 23.3666
20.0606 0 1
20.1764 0 1
20.2922 0 1
20.4079 0 1
20.5236 0 1
20.6392 0 1
20.7548 0 1
20.8702 0 1
23.3078 0 1
23.4233 0 1
23.539 0 1
23.6547 0 1
23.7704 0 1
23.8862 0 1
24.0021 0 1
24.118 0 1
24.234 0 1
24.35 0 1
24.4661 1685 41.0488
24.5822 1655 40.6817
24.6984 1624 40.2989
24.8146 1639 40.4846
24.9309 1724 41.5211
25.0472 1640 40.4969
25.1636 1669 40.8534
25.28 1625 40.3113
25.3965 1655 40.6817
25.513 1671 40.8779
25.6296 1733 41.6293
25.7462 1746 41.7852
25.8628 1724 41.5211
25.9795 1754 41.8808
26.0962 1755 41.8927
26.213 1791 42.3202
26.3298 1755 41.8927
26.4466 1673 40.9023
26.5635 1575 39.6863
26.6804 1494 38.6523
26.7973 1413 37.5899
26.9143 1416 37.6298
27.0313 1533 39.1535
27.1483 1629 40.3609
27.2653 1793 42.3438
27.3824 1771 42.0833
27.4996 1740 41.7133
27.6167 1714 41.4005
27.7339 1716 41.4246
27.8511 1732 41.6173
27.9683 1641 40.5093
28.0855 1662 40.7676
28.2028 1716 41.4246
28.3201 1611 40.1373
28.4374 1609 40.1123
28.5547 1595 39.9375
28.6721 1649 40.6079
28.7894 1531 39.128
28.9068 1628 40.3485
29.0242 1618 40.2244
29.1416 1668 40.8412
29.259 1608 40.0999
29.3764 1655 40.6817
29.4939 1652 40.6448
29.6113 1683 41.0244
29.7288 1687 41.0731
29.8463 1661 40.7554
29.9638 1571 39.6358
30.0812 1540 39.2428
30.1987 1365 36.9459
30.3162 1364 36.9324
30.4337 1445 38.0132
30.5512 1502 38.7556
30.6687 1573 39.6611
30.7862 1628 40.3485
30.9037 1635 40.4351
31.0212 1784 42.2374
31.1387 1621 40.2616
31.2562 1704 41.2795
31.3737 1653 40.6571
31.4912 1569 39.6106
31.6087 1610 40.1248
31.7262 1617 40.2119
31.8436 1597 39.9625
31.9611 1677 40.9512
32.0785 1534 39.1663
32.1959 1571 39.6358
32.3134 1563 39.5348
32.4308 1550 39.37
32.5482 1601 40.0125
32.6655 1587 39.8372
32.7829 1563 39.5348
32.9002 1575 39.6863
33.0176 1617 40.2119
33.1349 1671 40.8779
33.2522 1685 41.0488
33.3694 1647 40.5832
33.4867 1630 40.3733
33.6039 1570 39.6232
33.7211 1412 37.5766
33.8383 1333 36.5103
33.9554 1333 36.5103
34.0725 1327 36.428
34.1896 1463 38.2492
34.3067 1467 38.3014
34.4237 1576 39.6989
34.5407 1648 40.5956
34.6577 1612 40.1497
34.7746 1724 41.5211
34.8915 1645 40.5586
35.0084 1540 39.2428
35.1252 1603 40.0375
35.242 1593 39.9124
35.3587 1582 39.7744
35.4755 1657 40.7063
35.5921 1663 40.7799
35.7088 1580 39.7492
35.8254 1593 39.9124
35.9419 1553 39.4081
36.0584 1482 38.4968
36.1749 1569 39.6106
36.2913 1548 39.3446
36.4077 1504 38.7814
36.524 1556 39.4462
36.6403 1554 39.4208
36.7565 1585 39.8121
36.8727 1570 39.6232
36.9889 1527 39.0768
37.1049 1541 39.2556
37.221 0 1
37.3369 0 1
37.4529 0 1
37.5687 0 1
37.6845 0 1
37.8003 0 1
37.916 0 1
38.0316 0 1
38.1472 0 1
40.5851 0 1
40.7008 0 1
40.8164 0 1
40.9322 0 1
41.048 0 1
41.1639 0 1
41.2798 0 1
41.3958 0 1
41.5118 0 1
41.6279 0 1
41.744 1220 34.9285
41.8602 1255 35.426
41.9765 1312 36.2215
42.0928 1258 35.4683
42.2091 1282 35.805
42.3255 1260 35.4965
42.4419 1201 34.6554
42.5584 1074 32.7719
42.675 1035 32.1714
42.7915 1002 31.6544
42.9081 1002 31.6544
43.0248 1099 33.1512
43.1415 1099 33.1512
43.2582 1189 34.4819
43.375 1169 34.1906
43.4918 1235 35.1426
43.6087 1273 35.6791
43.7256 1203 34.6843
43.8425 1170 34.2053
43.9595 1174 34.2637
44.0765 1151 33.9264
44.1935 1092 33.0454
44.3106 1047 32.3574
44.4277 1086 32.9545
44.5448 1059 32.5423
44.6619 1008 31.749
44.7791 1007 31.7333
44.8963 996 31.5595
45.0136 970 31.1448
45.1308 958 30.9516
45.2481 958 30.9516
45.3654 959 30.9677
45.4827 967 31.0966
45.6001 926 30.4302
45.7174 943 30.7083
45.8348 951 30.8383
45.9522 914 30.2324
46.0697 806 28.3901
46.1871 808 28.4253
46.3046 692 26.3059
46.422 723 26.8887
46.5395 742 27.2397
46.657 771 27.7669
46.7745 842 29.0172
46.892 833 28.8617
47.0096 847 29.1033
47.1271 914 30.2324
47.2446 876 29.5973
47.3622 866 29.4279
47.4797 825 28.7228
47.5973 828 28.775
47.7149 845 29.0689
47.8324 783 27.9821
47.95 743 27.258
48.0675 726 26.9444
48.1851 715 26.7395
48.3027 705 26.5518
48.4202 755 27.4773
48.5378 673 25.9422
48.6554 704 26.533
48.7729 670 25.8844
48.8904 699 26.4386
49.008 665 25.7876
49.1255 735 27.1109
49.243 744 27.2764
49.3605 732 27.0555
49.478 653 25.5539
49.5955 627 25.04
49.713 587 24.2281
49.8304 536 23.1517
49.9479 570 23.8747
50.0653 654 25.5734
50.1827 691 26.2869
50.3001 792 28.1425
50.4175 804 28.3549
50.5348 880 29.6648
50.6521 892 29.8664
50.7694 941 30.6757
50.8867 862 29.3598
51.004 926 30.4302
51.1212 961 31
51.2384 931 30.5123
51.3556 942 30.692
51.4727 969 31.1288
51.5899 974 31.209
51.707 929 30.4795
51.824 949 30.8058
51.9411 1012 31.8119
52.0581 997 31.5753
52.175 1066 32.6497
52.2919 1089 33
52.4088 1023 31.9844
52.5257 1063 32.6037
52.6425 1156 34
52.7593 1138 33.7343
52.876 1170 34.2053
52.9927 1177 34.3074
53.1094 1045 32.3265
53.226 1051 32.4191
53.3426 941 30.6757
53.4591 922 30.3645
53.5756 997 31.5753
53.692 1120 33.4664
53.8084 1261 35.5106
53.9248 1280 35.7771
54.0411 1330 36.4692
54.1573 1399 37.4032
54.2735 0 1
54.3896 0 1
54.5057 0 1
54.6217 0 1
54.7377 0 1
54.8537 0 1
54.9695 0 1
55.0853 0 1
55.2011 0 1
55.3168 0 1
55.4324 0 1
57.824 0 1
57.9396 0 1
58.0553 0 1
58.1711 0 1
58.2869 0 1
58.4028 0 1
58.5187 0 1
58.6347 0 1
58.7508 0 1
58.8669 0 1
58.983 1362 36.9053
59.0992 1500 38.7298
59.2155 1517 38.9487
59.3318 1522 39.0128
59.4482 1587 39.8372
59.5646 1637 40.4599
59.681 1629 40.3609
59.7975 1587 39.8372
59.9141 1526 39.064
60.0306 1562 39.5221
60.1473 1495 38.6652
60.2639 1480 38.4708
60.3807 1445 38.0132
60.4974 1394 37.3363
60.6142 1395 37.3497
60.731 1351 36.756
60.8479 1382 37.1753
60.9648 1348 36.7151
61.0818 1396 37.3631
61.1987 1454 38.1314
61.3158 1396 37.3631
61.4328 1357 36.8375
61.5499 1321 36.3456
61.667 1242 35.242
61.7841 1224 34.9857
61.9013 1156 34
62.0185 1032 32.1248
62.1357 1155 33.9853
62.253 1229 35.0571
62.3702 1319 36.318
62.4875 1420 37.6829
62.6049 1503 38.7685
62.7222 1523 39.0256
62.8396 1476 38.4187
62.9569 1569 39.6106
63.0743 1592 39.8999
63.1918 1557 39.4588
63.3092 1601 40.0125
63.4267 1563 39.5348
63.5441 1532 39.1408
63.6616 1501 38.7427
63.7791 1497 38.6911
63.8966 1432 37.8418
64.0142 1436 37.8946
64.1317 1413 37.5899
64.2492 1446 38.0263
64.3668 1453 38.1182
64.4843 1424 37.7359
64.6019 1475 38.4057
64.7195 1491 38.6135
64.837 1467 38.3014
64.9546 1461 38.223
65.0722 1421 37.6962
65.1898 1383 37.1887
65.3074 1280 35.7771
65.4249 1207 34.7419
65.5425 1126 33.5559
65.6601 1132 33.6452
65.7777 1194 34.5543
65.8952 1277 35.7351
66.0128 1406 37.4967
66.1304 1462 38.2361
66.2479 1533 39.1535
66.3655 1538 39.2173
66.483 1536 39.1918
66.6005 1601 40.0125
66.718 1559 39.4842
66.8355 1520 38.9872
66.953 1586 39.8246
67.0705 1502 38.7556
67.1879 1471 38.3536
67.3054 1365 36.9459
67.4228 1367 36.973
67.5402 1341 36.6197
67.6576 1331 36.4829
67.7749 1333 36.5103
67.8923 1320 36.3318
68.0096 1286 35.8608
68.1269 1249 35.3412
68.2442 1403 37.4566
68.3614 1349 36.7287
68.4787 1488 38.5746
68.5958 1277 35.7351
68.713 1329 36.4555
68.8302 1295 35.9861
68.9473 1122 33.4963
69.0643 1044 32.311
69.1814 962 31.0161
69.2984 1020 31.9374
69.4154 1098 33.1361
69.5323 1208 34.7563
69.6492 1272 35.6651
69.7661 1352 36.7696
69.8829 1469 38.3275
69.9997 1650 40.6202
70.1165 1549 39.3573
70.2332 1505 38.7943
70.3499 1572 39.6485
70.4665 1512 38.8844
70.5831 1530 39.1152
70.6996 1475 38.4057
70.8161 1394 37.3363
70.9326 1380 37.1484
71.049 1328 36.4417
71.1653 1405 37.4833
71.2817 1329 36.4555
71.3979 1329 36.4555
71.5141 1269 35.623
71.6303 1239 35.1994
71.7464 1181 34.3657
71.8624 0 1
71.9784 0 1
72.0944 0 1
72.2102 0 1
72.3261 0 1
72.4418 0 1
72.5575 0 1
72.6732 0 1
75.1054 0 1
75.2209 0 1
75.3365 0 1
75.4521 0 1
75.5678 0 1
75.6835 0 1
75.7993 0 1
75.9151 0 1
76.031 0 1
76.147 1349 36.7287
76.263 1398 37.3898
76.3791 1357 36.8375
76.4952 1297 36.0139
76.6113 1323 36.3731
76.7276 1316 36.2767
76.8438 1362 36.9053
76.9601 1333 36.5103
77.0765 1366 36.9594
77.1929 1406 37.4967
77.3093 1348 36.7151
77.4258 1446 38.0263
77.5423 1409 37.5366
77.6589 1379 37.1349
77.7755 1358 36.8511
77.8921 1212 34.8138
78.0088 1060 32.5576
78.1256 939 30.6431
78.2423 988 31.4325
78.3591 936 30.5941
78.4759 1090 33.0151
78.5928 1164 34.1174
78.7097 1326 36.4143
78.8266 1334 36.524
78.9436 1437 37.9078
79.0606 1516 38.9358
79.1776 1488 38.5746
79.2946 1497 38.6911
79.4117 1468 38.3145
79.5288 1496 38.6782
79.6459 1470 38.3406
79.7631 1425 37.7492
79.8802 1332 36.4966
79.9974 1186 34.4384
80.1147 1241 35.2278
80.2319 1225 35
80.3491 1148 33.8821
80.4664 1188 34.4674
80.5837 1189 34.4819
80.701 1212 34.8138
80.8183 1166 34.1467
80.9357 1235 35.1426
81.053 1302 36.0832
81.1704 1241 35.2278
81.2877 1186 34.4384
81.4051 1156 34
81.5225 1088 32.9848
81.6399 1012 31.8119
81.7573 901 30.0167
81.8747 844 29.0517
81.9922 859 29.3087
82.1096 993 31.5119
82.227 1068 32.6803
82.3444 1123 33.5112
82.4619 1197 34.5977
82.5793 1235 35.1426
82.6967 1299 36.0416
82.8142 1321 36.3456
82.9316 1361 36.8917
83.049 1284 35.8329
83.1664 1294 35.9722
83.2838 1242 35.242
83.4012 1178 34.322
83.5186 1100 33.1662
83.636 1106 33.2566
83.7534 1005 31.7017
83.8708 961 31
83.9881 991 31.4802
84.1055 943 30.7083
84.2228 987 31.4166
84.3401 1066 32.6497
84.4575 1104 33.2265
84.5747 1177 34.3074
84.692 1214 34.8425
84.8093 1146 33.8526
84.9265 1137 33.7194
85.0437 1039 32.2335
85.1609 1013 31.8277
85.2781 868 29.4618
85.3952 852 29.189
85.5123 792 28.1425
85.6294 852 29.189
85.7465 938 30.6268
85.8636 1049 32.3883
85.9806 1180 34.3511
86.0976 1274 35.6931
86.2145 1335 36.5377
86.3315 1451 38.092
86.4484 1393 37.3229
86.5652 1409 37.5366
86.682 1378 37.1214
86.7988 1442 37.9737
86.9156 1354 36.7967
87.0323 1285 35.8469
87.149 1299 36.0416
87.2657 1249 35.3412
87.3823 1163 34.1028
87.4988 1229 35.0571
87.6154 1216 34.8712
87.7318 1252 35.3836
87.8483 1260 35.4965
87.9647 1288 35.8887
88.081 1407 37.51
88.1973 1444 38
88.3136 1504 38.7814
88.4298 1387 37.2424
88.546 1378 37.1214
88.6621 1205 34.7131
88.7781 1138 33.7343
88.8942 0 1
89.0101 0 1
89.126 0 1
89.2419 0 1
89.3577 0 1
89.4734 0 1
89.5891 0 1
89.7047 0 1
89.8203 0 1
89.9358 0 1
92.3269 0 1
92.4424 0 1
92.558 0 1
92.6736 0 1
92.7893 0 1
92.905 0 1
93.0208 0 1
93.1366 0 1
93.2525 0 1
93.3685 0 1
93.4845 0 1
93.6005 1344 36.6606
93.7167 1435 37.8814
93.8328 1389 37.2693
93.949 1422 37.7094
94.0653 1310 36.1939
94.1816 1162 34.0881
94.2979 1138 33.7343
94.4143 1050 32.4037
94.5307 949 30.8058
94.6472 1031 32.1092
94.7637 1049 32.3883
94.8803 1243 35.2562
94.9969 1340 36.606
95.1135 1497 38.6911
95.2302 1476 38.4187
95.3469 1559 39.4842
95.4637 1540 39.2428
95.5805 1552 39.3954
95.6973 1625 40.3113
95.8142 1592 39.8999
95.9311 1538 39.2173
96.048 1454 38.1314
96.1649 1478 38.4448
96.2819 1461 38.223
96.3989 1406 37.4967
96.516 1378 37.1214
96.633 1355 36.8103
96.7501 1356 36.8239
96.8673 1340 36.606
96.9844 1347 36.7015
97.1016 1331 36.4829
97.2188 1329 36.4555
97.336 1544 39.2938
97.4532 1426 37.7624
97.5704 1483 38.5097
97.6877 1347 36.7015
97.805 1265 35.5668
97.9223 1077 32.8177
98.0396 1068 32.6803
98.1569 1052 32.4345
98.2743 1014 31.8434
98.3916 1042 32.28
98.509 1205 34.7131
98.6264 1300 36.0555
98.7438 1381 37.1618
98.8612 1519 38.9744
98.9786 1491 38.6135
99.096 1548 39.3446
99.2134 1611 40.1373
99.3308 1601 40.0125
99.4482 1584 39.7995
99.5656 1637 40.4599
99.6831 1506 38.8072
99.8005 1468 38.3145
99.9179 1414 37.6032
100.035 1428 37.7889
100.153 1389 37.2693
100.27 1319 36.318
100.388 1365 36.9459
100.505 1305 36.1248
100.622 1435 37.8814
100.74 1446 38.0263
100.857 1494 38.6523
100.975 1542 39.2683
101.092 1474 38.3927
101.209 1430 37.8153
101.327 1346 36.6879
101.444 1282 35.805
101.561 1119 33.4515
101.679 1066 32.6497
101.796 1042 32.28
101.913 1051 32.4191
102.03 1152 33.9411
102.148 1322 36.3593
102.265 1413 37.5899
102.382 1643 40.5339
102.499 1639 40.4846
102.616 1615 40.1871
102.733 1675 40.9268
102.851 1728 41.5692
102.968 1745 41.7732
103.085 1705 41.2916
103.202 1656 40.694
103.319 1583 39.7869
103.436 1518 38.9615
103.552 1460 38.2099
103.669 1388 37.2559
103.786 1447 38.0395
103.903 1414 37.6032
104.02 1405 37.4833
104.137 1544 39.2938
104.253 1519 38.9744
104.37 1662 40.7676
104.487 1657 40.7063
104.603 1653 40.6571
104.72 1496 38.6782
104.836 1446 38.0263
104.953 1279 35.7631
105.069 1217 34.8855
105.186 1143 33.8083
105.302 1130 33.6155
105.418 1218 34.8999
105.535 1342 36.6333
105.651 1456 38.1576
105.767 1614 40.1746
105.883 1680 40.9878
105.999 1779 42.1782
106.115 0 1
106.231 0 1
106.347 0 1
106.463 0 1
106.579 0 1
106.694 0 1
106.81 0 1
106.926 0 1
107.041 0 1
107.157 0 1
109.576 0 1
109.692 0 1
109.807 0 1
109.923 0 1
110.039 0 1
110.155 0 1
110.27 0 1
110.386 0 1
110.502 0 1
110.618 1245 35.2846
110.735 1492 38.6264
110.851 1542 39.2683
110.967 1646 40.5709
111.083 1660 40.7431
111.199 1719 41.4608
111.316 1728 41.5692
111.432 1721 41.4849
111.549 1767 42.0357
111.665 1687 41.0731
111.782 1600 40
111.898 1635 40.4351
112.015 1503 38.7685
112.132 1507 38.8201
112.248 1430 37.8153
112.365 1427 37.7757
112.482 1362 36.9053
112.599 1437 37.9078
112.716 1451 38.092
112.832 1482 38.4968
112.949 1516 38.9358
113.066 1496 38.6782
113.183 1531 39.128
113.3 1464 38.2623
113.417 1332 36.4966
113.534 1292 35.9444
113.652 1091 33.0303
113.769 1057 32.5115
113.886 1151 33.9264
114.003 1120 33.4664
114.12 1257 35.4542
114.238 1397 37.3765
114.355 1475 38.4057
114.472 1586 39.8246
114.589 1661 40.7554
114.707 1658 40.7185
114.824 1715 41.4126
114.942 1591 39.8873
115.059 1682 41.0122
115.176 1650 40.6202
115.294 1650 40.6202
115.411 1586 39.8246
115.529 1533 39.1535
115.646 1513 38.8973
115.764 1463 38.2492
115.881 1402 37.4433
115.999 1424 37.7359
116.116 1326 36.4143
116.234 1517 38.9487
116.351 1542 39.2683
116.469 1519 38.9744
116.586 1556 39.4462
116.704 1540 39.2428
116.821 1455 38.1445
116.939 1422 37.7094
117.056 1326 36.4143
117.174 1238 35.1852
117.291 1197 34.5977
117.409 1195 34.5688
117.526 1259 35.4824
117.644 1327 36.428
117.761 1451 38.092
117.879 1572 39.6485
117.996 1577 39.7115
118.114 1682 41.0122
118.231 1622 40.2741
118.349 1704 41.2795
118.466 1781 42.2019
118.584 1754 41.8808
118.701 1724 41.5211
118.819 1712 41.3763
118.936 1632 40.398
119.053 1690 41.1096
119.171 1581 39.7618
119.288 1481 38.4838
119.405 1412 37.5766
119.523 1446 38.0263
119.64 1395 37.3497
119.757 1416 37.6298
119.875 1417 37.6431
119.992 1455 38.1445
120.109 1529 39.1024
120.226 1535 39.1791
120.343 1548 39.3446
120.46 1484 38.5227
120.578 1444 38
120.695 1348 36.7151
120.812 1334 36.524
120.929 1218 34.8999
121.046 1212 34.8138
121.163 1165 34.1321
121.279 1233 35.1141
121.396 1401 37.4299
121.513 1522 39.0128
121.63 1655 40.6817
121.747 1671 40.8779
121.863 1658 40.7185
121.98 1726 41.5452
122.097 1635 40.4351
122.213 1665 40.8044
122.33 1635 40.4351
122.446 1624 40.2989
122.563 1680 40.9878
122.679 1563 39.5348
122.795 1562 39.5221
122.912 1564 39.5474
123.028 1491 38.6135
123.144 1450 38.0789
123.26 1342 36.6333
123.377 0 1
123.493 0 1
123.609 0 1
123.725 0 1
123.84 0 1
123.956 0 1
124.072 0 1
124.188 0 1
124.303 0 1
124.419 0 1
126.852 0 1
126.968 0 1
127.083 0 1
127.199 0 1
127.315 0 1
127.431 0 1
127.547 0 1
127.663 0 1
127.779 0 1
127.895 0 1
128.011 0 1
128.127 0 1
128.243 0 1
128.359 1587 39.8372
128.476 1595 39.9375
128.592 1509 38.8458
128.708 1507 38.8201
128.825 1651 40.6325
128.941 1706 41.3038
129.058 1677 40.9512
129.174 1696 41.1825
129.291 1666 40.8167
129.408 1620 40.2492
129.524 1555 39.4335
129.641 1578 39.724
129.758 1381 37.1618
129.875 1280 35.7771
129.992 1344 36.6606
130.108 1354 36.7967
130.225 1361 36.8917
130.342 1496 38.6782
130.459 1601 40.0125
130.576 1795 42.3674
130.693 1701 41.2432
130.81 1837 42.8602
130.928 1783 42.2256
131.045 1858 43.1045
131.162 1827 42.7434
131.279 1764 42
131.396 1837 42.8602
131.513 1826 42.7317
131.631 1794 42.3556
131.748 1764 42
131.865 1682 41.0122
131.983 1614 40.1746
132.1 1636 40.4475
132.217 1592 39.8999
132.335 1646 40.5709
132.452 1693 41.1461
132.57 1745 41.7732
132.687 1704 41.2795
132.804 1746 41.7852
132.922 1723 41.509
133.039 1636 40.4475
133.157 1516 38.9358
133.274 1429 37.8021
133.392 1372 37.0405
133.509 1351 36.756
133.627 1366 36.9594
133.744 1434 37.8682
133.862 1559 39.4842
133.979 1638 40.4722
134.097 1695 41.1704
134.214 1755 41.8927
134.332 1833 42.8135
134.449 1741 41.7253
134.567 1761 41.9643
134.684 1730 41.5933
134.802 1829 42.7668
134.919 1803 42.4617
135.037 1784 42.2374
135.154 1836 42.8486
135.272 1753 41.8688
135.389 1734 41.6413
135.507 1588 39.8497
135.624 1553 39.4081
135.742 1510 38.8587
135.859 1643 40.5339
135.977 1730 41.5933
136.094 1795 42.3674
136.211 1728 41.5692
136.329 1760 41.9524
136.446 1681 41
136.564 1736 41.6653
136.681 1641 40.5093
136.798 1548 39.3446
136.915 1487 38.5616
137.033 1471 38.3536
137.15 1398 37.3898
137.267 1384 37.2022
137.384 1428 37.7889
137.502 1523 39.0256
137.619 1651 40.6325
137.736 1611 40.1373
137.853 1627 40.3361
137.97 1796 42.3792
138.087 1754 41.8808
138.204 1758 41.9285
138.321 1799 42.4146
138.438 1933 43.9659
138.555 1785 42.2493
138.672 1836 42.8486
138.788 1741 41.7253
138.905 1762 41.9762
139.022 1810 42.5441
139.139 1638 40.4722
139.255 1490 38.6005
139.372 1554 39.4208
139.488 1641 40.5093
139.605 1693 41.1461
139.721 1759 41.9404
139.838 1749 41.821
139.954 1757 41.9166
140.071 1574 39.6737
140.187 1668 40.8412
140.303 1624 40.2989
140.419 1598 39.975
140.535 1497 38.6911
140.652 1406 37.4967
140.768 0 1
140.884 0 1
141 0 1
141.115 0 1
141.231 0 1
141.347 0 1
141.463 0 1
141.578 0 1
141.694 0 1
144.104 0 1
144.219 0 1
144.335 0 1
144.45 0 1
144.566 0 1
144.682 0 1
144.798 0 1
144.914 0 1
145.03 0 1
145.146 1213 34.8281
145.262 1344 36.6606
145.378 1296 36
145.494 1251 35.3695
145.61 1161 34.0735
145.726 1146 33.8526
145.842 1133 33.6601
145.959 1153 33.9559
146.075 1111 33.3317
146.192 1158 34.0294
146.308 1257 35.4542
146.425 1269 35.623
146.541 1290 35.9166
146.658 1324 36.3868
146.774 1334 36.524
146.891 1359 36.8646
147.008 1425 37.7492
147.125 1346 36.6879
147.241 1443 37.9868
147.358 1457 38.1707
147.475 1426 37.7624
147.592 1431 37.8286
147.709 1359 36.8646
147.826 1427 37.7757
147.943 1282 35.805
148.06 1309 36.1801
148.177 1227 35.0286
148.294 1317 36.2905
148.411 1330 36.4692
148.528 1414 37.6032
148.645 1371 37.027
148.762 1407 37.51
148.88 1415 37.6165
148.997 1358 36.8511
149.114 1405 37.4833
149.231 1432 37.8418
149.349 1304 36.1109
149.466 1245 35.2846
149.583 1226 35.0143
149.701 1149 33.8969
149.818 1153 33.9559
149.935 1188 34.4674
150.053 1277 35.7351
150.17 1281 35.7911
150.287 1349 36.7287
150.405 1416 37.6298
150.522 1376 37.0945
150.64 1454 38.1314
150.757 1430 37.8153
150.875 1499 38.7169
150.992 1513 38.8973
151.11 1469 38.3275
151.227 1384 37.2022
151.344 1457 38.1707
151.462 1459 38.1969
151.579 1473 38.3797
151.697 1388 37.2559
151.814 1318 36.3043
151.932 1286 35.8608
152.049 1356 36.8239
152.167 1437 37.9078
152.284 1448 38.0526
152.402 1404 37.47
152.519 1483 38.5097
152.636 1456 38.1576
152.754 1376 37.0945
152.871 1398 37.3898
152.989 1386 37.229
153.106 1361 36.8917
153.223 1263 35.5387
153.341 1255 35.426
153.458 1292 35.9444
153.575 1172 34.2345
153.693 1279 35.7631
153.81 1315 36.2629
153.927 1376 37.0945
154.044 1443 37.9868
154.162 1435 37.8814
154.279 1509 38.8458
154.396 1511 38.8716
154.513 1573 39.6611
154.63 1592 39.8999
154.747 1624 40.2989
154.864 1490 38.6005
154.981 1604 40.05
155.098 1544 39.2938
155.215 1495 38.6652
155.332 1442 37.9737
155.449 1446 38.0263
155.566 1445 38.0132
155.683 1480 38.4708
155.8 1565 39.5601
155.917 1551 39.3827
156.033 1446 38.0263
156.15 0 1
156.267 0 1
156.383 0 1
156.5 0 1
156.617 0 1
156.733 0 1
156.85 0 1
156.966 0 1
157.082 0 1
157.199 0 1
157.315 0 1
157.431 0 1
157.547 0 1
157.664 0 1
157.78 0 1
157.896 0 1
158.012 0 1
158.128 0 1
158.244 0 1
158.359 0 1
158.475 0 1
158.591 0 1
158.706 0 1
