
6.15755 0 1
6.2731 0 1
6.3887 0 1
6.50437 0 1
6.62009 0 1
6.73587 0 1
6.8517 0 1
6.96759 0 1
7.08353 0 1
7.19952 0 1
7.31557 0 1
7.43166 0 1
7.54781 0 1
7.664 0 1
7.78024 0 1
7.89653 0 1
8.01286 0 1
8.12924 0 1
8.24567 0 1
8.36213 0 1
8.47864 0 1
8.59519 0 1
8.71178 0 1
8.82841 0 1
8.94508 0 1
9.06179 0 1
9.17853 0 1
9.29531 0 1
9.41212 0 1
9.52897 0 1
9.64584 0 1
9.76276 0 1
9.8797 0 1
9.99667 0 1
10.1137 0 1
10.2307 0 1
10.3478 0 1
10.4648 0 1
10.5819 0 1
10.6991 0 1
10.8162 0 1
10.9334 0 1
11.0506 0 1
11.1678 0 1
11.285 0 1
11.4023 0 1
11.5196 0 1
11.6369 0 1
11.7542 0 1
11.8715 0 1
11.9888 0 1
12.1062 0 1
12.2235 0 1
12.3409 0 1
12.4582 0 1
12.5756 0 1
12.693 0 1
12.8104 0 1
12.9278 0 1
13.0452 0 1
13.1626 0 1
13.28 0 1
13.3974 0 1
13.5149 0 1
13.6323 0 1
13.7497 0 1
13.8671 0 1
13.9845 0 1
14.1019 0 1
14.2193 0 1
14.3367 0 1
14.4541 0 1
14.5714 0 1
14.6888 0 1
14.8062 0 1
14.9235 0 1
15.0408 0 0
15.1581 0 0
15.2755 0 0
15.3927 0 0
15.51 0 0
15.6273 0 0
15.7445 0 0
15.8617 0 0
15.9789 0 0
16.0961 0 0
16.2132 0 0
16.3304 0 0
16.4475 0 0
16.5646 0 0
16.6816 0 0
16.7986 0 0
16.9156 0 0
17.0326 0 0
17.1496 0 0
17.2665 0 0
17.3833 0 0
17.5002 0 0
17.617 0 0
17.7338 0 0
17.8505 0 0
17.9672 0 0
18.0839 0 0
18.2005 0 0
18.3171 0 0
18.4337 0 0
18.5502 0 0
18.6666 0 0
18.7831 0 0
18.8994 0 0
19.0158 0 0
19.1321 0 0
19.2483 0 0
19.3645 0 0
19.4806 0 0
19.5967 0 0
19.7128 0 0
19.8288 0 0
19.9447 0 0
20.0606 0 1
20.1764 0 1
20.2922 0 1
20.4079 0 1
20.5236 0 1
20.6392 0 1
20.7548 0 1
20.8702 0 1
23.3078 0 1
23.4233 0 1
23.539 0 1
23.6547 0 1
23.7704 0 1
23.8862 0 1
24.0021 0 1
24.118 0 1
24.234 0 1
24.35 0 1
24.4661 1343 36.647
24.5822 1451 38.092
24.6984 1558 39.4715
24.8146 1677 40.9512
24.9309 2000 44.7214
25.0472 2367 48.6518
25.1636 2520 50.1996
25.28 2626 51.2445
25.3965 2815 53.0566
25.513 2742 52.3641
25.6296 2765 52.5833
25.7462 2819 53.0943
25.8628 2784 52.7636
25.9795 2793 52.8488
26.0962 2693 51.8941
26.213 2772 52.6498
26.3298 2930 54.1295
26.4466 2894 53.7959
26.5635 2867 53.5444
26.6804 2830 53.1977
26.7973 2737 52.3163
26.9143 2634 51.3225
27.0313 2686 51.8266
27.1483 2556 50.5569
27.2653 2599 50.9804
27.3824 2505 50.05
27.4996 2450 49.4975
27.6167 2219 47.1063
27.7339 2264 47.5815
27.8511 2460 49.5984
27.9683 2573 50.7247
28.0855 2598 50.9706
28.2028 2611 51.0979
28.3201 2571 50.705
28.4374 2531 50.309
28.5547 2707 52.0288
28.6721 2707 52.0288
28.7894 2671 51.6817
28.9068 2622 51.2055
29.0242 2640 51.3809
29.1416 2695 51.9134
29.259 2631 51.2933
29.3764 2681 51.7784
29.4939 2630 51.2835
29.6113 2454 49.5379
29.7288 2569 50.6853
29.8463 2586 50.8527
29.9638 2479 49.7896
30.0812 2453 49.5278
30.1987 2460 49.5984
30.3162 2446 49.4571
30.4337 2606 51.049
30.5512 2653 51.5073
30.6687 2575 50.7445
30.7862 2568 50.6754
30.9037 2416 49.1528
31.0212 2308 48.0416
31.1387 2290 47.8539
31.2562 2368 48.6621
31.3737 2450 49.4975
31.4912 2618 51.1664
31.6087 2671 51.6817
31.7262 2588 50.8724
31.8436 2664 51.614
31.9611 2593 50.9215
32.0785 2665 51.6236
32.1959 2628 51.264
32.3134 2546 50.4579
32.4308 2506 50.06
32.5482 2462 49.6185
32.6655 2476 49.7594
32.7829 2401 49
32.9002 2246 47.392
33.0176 2305 48.0104
33.1349 2259 47.5289
33.2522 2275 47.697
33.3694 2206 46.9681
33.4867 2245 47.3814
33.6039 2286 47.8121
33.7211 2334 48.3115
33.8383 2328 48.2494
33.9554 2488 49.8799
34.0725 2496 49.96
34.1896 2604 51.0294
34.3067 2507 50.07
34.4237 2452 49.5177
34.5407 2456 49.558
34.6577 2409 49.0816
34.7746 2385 48.8365
34.8915 2336 48.3322
35.0084 2545 50.448
35.1252 2539 50.3885
35.242 2601 51
35.3587 2612 51.1077
35.4755 2567 50.6656
35.5921 2475 49.7494
35.7088 2477 49.7695
35.8254 2378 48.7647
35.9419 2208 46.9894
36.0584 2282 47.7703
36.1749 2253 47.4658
36.2913 2132 46.1736
36.4077 2141 46.2709
36.524 1996 44.6766
36.6403 1722 41.497
36.7565 1647 40.5832
36.8727 1544 39.2938
36.9889 1569 39.6106
37.1049 1481 38.4838
37.221 0 1
37.3369 0 1
37.4529 0 1
37.5687 0 1
37.6845 0 1
37.8003 0 1
37.916 0 1
38.0316 0 1
38.1472 0 1
40.5851 0 1
40.7008 0 1
40.8164 0 1
40.9322 0 1
41.048 0 1
41.1639 0 1
41.2798 0 1
41.3958 0 1
41.5118 0 1
41.6279 0 1
41.744 1904 43.6348
41.8602 2532 50.319
41.9765 3045 55.1815
42.0928 3186 56.4447
42.2091 3363 57.9914
42.3255 3340 57.7927
42.4419 3289 57.3498
42.5584 3405 58.3524
42.675 3556 59.6322
42.7915 3602 60.0167
42.9081 3562 59.6825
43.0248 3706 60.8769
43.1415 3711 60.918
43.2582 3654 60.4483
43.375 3269 57.1752
43.4918 3256 57.0614
43.6087 3333 57.7321
43.7256 3382 58.155
43.8425 3524 59.3633
43.9595 3535 59.4559
44.0765 3529 59.4054
44.1935 3538 59.4811
44.3106 3467 58.8812
44.4277 3328 57.6888
44.5448 3242 56.9386
44.6619 2999 54.7631
44.7791 3025 55
44.8963 2879 53.6563
45.0136 2717 52.1249
45.1308 2526 50.2593
45.2481 2426 49.2544
45.3654 2438 49.3761
45.4827 2283 47.7807
45.6001 2159 46.465
45.7174 2110 45.9347
45.8348 2154 46.4112
45.9522 2108 45.913
46.0697 2104 45.8694
46.1871 2121 46.0543
46.3046 2142 46.2817
46.422 2116 46
46.5395 2258 47.5184
46.657 2151 46.3789
46.7745 2191 46.8081
46.892 2030 45.0555
47.0096 1978 44.4747
47.1271 2019 44.9333
47.2446 2016 44.8999
47.3622 2146 46.3249
47.4797 2112 45.9565
47.5973 2177 46.6583
47.7149 2118 46.0217
47.8324 2255 47.4868
47.95 2235 47.2758
48.0675 2166 46.5403
48.1851 1996 44.6766
48.3027 2043 45.1996
48.4202 1983 44.5309
48.5378 2001 44.7325
48.6554 1933 43.9659
48.7729 1891 43.4856
48.8904 1899 43.5775
49.008 1897 43.5546
49.1255 1878 43.3359
49.243 1835 42.8369
49.3605 1902 43.6119
49.478 1912 43.7264
49.5955 2045 45.2217
49.713 2023 44.9778
49.8304 2130 46.1519
49.9479 2033 45.0888
50.0653 2098 45.8039
50.1827 2124 46.0869
50.3001 1965 44.3283
50.4175 1708 41.328
50.5348 1681 41
50.6521 1768 42.0476
50.7694 1978 44.4747
50.8867 1929 43.9204
51.004 2126 46.1086
51.1212 2084 45.6508
51.2384 2171 46.594
51.3556 2050 45.2769
51.4727 2146 46.3249
51.5899 2270 47.6445
51.707 2114 45.9783
51.824 2083 45.6399
51.9411 2037 45.1331
52.0581 2018 44.9222
52.175 1974 44.4297
52.2919 1945 44.1022
52.4088 1883 43.3935
52.5257 1923 43.852
52.6425 1912 43.7264
52.7593 1900 43.589
52.876 1826 42.7317
52.9927 1863 43.1625
53.1094 1887 43.4396
53.226 1924 43.8634
53.3426 1896 43.5431
53.4591 1847 42.9767
53.5756 1731 41.6053
53.692 1521 39
53.8084 1310 36.1939
53.9248 1222 34.9571
54.0411 1108 33.2866
54.1573 1120 33.4664
54.2735 0 1
54.3896 0 1
54.5057 0 1
54.6217 0 1
54.7377 0 1
54.8537 0 1
54.9695 0 1
55.0853 0 1
55.2011 0 1
55.3168 0 1
55.4324 0 1
57.824 0 1
57.9396 0 1
58.0553 0 1
58.1711 0 1
58.2869 0 1
58.4028 0 1
58.5187 0 1
58.6347 0 1
58.7508 0 1
58.8669 0 1
58.983 1742 41.7373
59.0992 1782 42.2137
59.2155 1768 42.0476
59.3318 1890 43.4741
59.4482 2131 46.1628
59.5646 2186 46.7547
59.681 2432 49.3153
59.7975 2448 49.4773
59.9141 2503 50.03
60.0306 2494 49.94
60.1473 2508 50.0799
60.2639 2569 50.6853
60.3807 2509 50.0899
60.4974 2469 49.689
60.6142 2473 49.7293
60.731 2464 49.6387
60.8479 2569 50.6853
60.9648 2635 51.3323
61.0818 2574 50.7346
61.1987 2477 49.7695
61.3158 2454 49.5379
61.4328 2374 48.7237
61.5499 2373 48.7134
61.667 2341 48.3839
61.7841 2453 49.5278
61.9013 2398 48.9694
62.0185 2425 49.2443
62.1357 2495 49.95
62.253 2415 49.1426
62.3702 2382 48.8057
62.4875 2341 48.3839
62.6049 2116 46
62.7222 2238 47.3075
62.8396 2358 48.5592
62.9569 2443 49.4267
63.0743 2558 50.5767
63.1918 2551 50.5074
63.3092 2580 50.7937
63.4267 2630 51.2835
63.5441 2558 50.5767
63.6616 2562 50.6162
63.7791 2480 49.7996
63.8966 2515 50.1498
64.0142 2486 49.8598
64.1317 2505 50.05
64.2492 2545 50.448
64.3668 2499 49.99
64.4843 2407 49.0612
64.6019 2469 49.689
64.7195 2314 48.1041
64.837 2383 48.816
64.9546 2456 49.558
65.0722 2296 47.9166
65.1898 2323 48.1975
65.3074 2364 48.621
65.4249 2346 48.4355
65.5425 2436 49.3559
65.6601 2358 48.5592
65.7777 2412 49.1121
65.8952 2420 49.1935
66.0128 2348 48.4562
66.1304 2074 45.5412
66.2479 1956 44.2267
66.3655 2096 45.7821
66.483 2296 47.9166
66.6005 2330 48.2701
66.718 2558 50.5767
66.8355 2407 49.0612
66.953 2576 50.7543
67.0705 2479 49.7896
67.1879 2450 49.4975
67.3054 2498 49.98
67.4228 2546 50.4579
67.5402 2432 49.3153
67.6576 2481 49.8096
67.7749 2463 49.6286
67.8923 2455 49.548
68.0096 2423 49.224
68.1269 2377 48.7545
68.2442 2478 49.7795
68.3614 2391 48.8979
68.4787 2325 48.2183
68.5958 2277 47.7179
68.713 2259 47.5289
68.8302 2284 47.7912
68.9473 2211 47.0213
69.0643 2242 47.3498
69.1814 2293 47.8853
69.2984 2332 48.2908
69.4154 2355 48.5283
69.5323 2277 47.7179
69.6492 2174 46.6262
69.7661 1973 44.4185
69.8829 1777 42.1545
69.9997 1982 44.5197
70.1165 2136 46.2169
70.2332 2123 46.076
70.3499 1940 44.0454
70.4665 1859 43.1161
70.5831 1714 41.4005
70.6996 1644 40.5463
70.8161 1599 39.9875
70.9326 1550 39.37
71.049 1481 38.4838
71.1653 1422 37.7094
71.2817 1397 37.3765
71.3979 1342 36.6333
71.5141 1290 35.9166
71.6303 1216 34.8712
71.7464 1127 33.5708
71.8624 0 1
71.9784 0 1
72.0944 0 1
72.2102 0 1
72.3261 0 1
72.4418 0 1
72.5575 0 1
72.6732 0 1
75.1054 0 1
75.2209 0 1
75.3365 0 1
75.4521 0 1
75.5678 0 1
75.6835 0 1
75.7993 0 1
75.9151 0 1
76.031 0 1
76.147 1981 44.5084
76.263 2092 45.7384
76.3791 2179 46.6798
76.4952 2229 47.2123
76.6113 2201 46.9148
76.7276 2171 46.594
76.8438 2237 47.2969
76.9601 2274 47.6865
77.0765 2343 48.4045
77.1929 2329 48.2597
77.3093 2259 47.5289
77.4258 2283 47.7807
77.5423 2230 47.2229
77.6589 2229 47.2123
77.7755 2134 46.1952
77.8921 2132 46.1736
78.0088 2192 46.8188
78.1256 2229 47.2123
78.2423 2251 47.4447
78.3591 2226 47.1805
78.4759 2334 48.3115
78.5928 2167 46.551
78.7097 2096 45.7821
78.8266 1676 40.939
78.9436 1597 39.9625
79.0606 1660 40.7431
79.1776 1871 43.2551
79.2946 2133 46.1844
79.4117 2311 48.0729
79.5288 2324 48.2079
79.6459 2423 49.224
79.7631 2318 48.1456
79.8802 2309 48.0521
79.9974 2285 47.8017
80.1147 2374 48.7237
80.2319 2391 48.8979
80.3491 2326 48.2286
80.4664 2338 48.3529
80.5837 2448 49.4773
80.701 2355 48.5283
80.8183 2456 49.558
80.9357 2391 48.8979
81.053 2433 49.3254
81.1704 2433 49.3254
81.2877 2395 48.9387
81.4051 2381 48.7955
81.5225 2317 48.1352
81.6399 2396 48.949
81.7573 2416 49.1528
81.8747 2444 49.4368
81.9922 2573 50.7247
82.1096 2692 51.8845
82.227 2627 51.2543
82.3444 2597 50.9608
82.4619 2361 48.5901
82.5793 2105 45.8803
82.6967 2242 47.3498
82.8142 2693 51.8941
82.9316 3309 57.5239
83.049 3535 59.4559
83.1664 3647 60.3904
83.2838 3912 62.546
83.4012 3852 62.0645
83.5186 3995 63.206
83.636 4055 63.6789
83.7534 4230 65.0385
83.8708 4248 65.1767
83.9881 4259 65.261
84.1055 4404 66.3626
84.2228 4333 65.8255
84.3401 4443 66.6558
84.4575 4478 66.9179
84.5747 4303 65.5973
84.692 4402 66.3476
84.8093 4277 65.3988
84.9265 4235 65.0769
85.0437 4384 66.2118
85.1609 4248 65.1767
85.2781 4252 65.2074
85.3952 4310 65.6506
85.5123 4281 65.4294
85.6294 4384 66.2118
85.7465 4091 63.9609
85.8636 3838 61.9516
85.9806 3355 57.9224
86.0976 2802 52.9339
86.2145 2780 52.7257
86.3315 3187 56.4535
86.4484 3997 63.2218
86.5652 4076 63.8436
86.682 4263 65.2917
86.7988 4177 64.6297
86.9156 4152 64.436
87.0323 4154 64.4515
87.149 4215 64.923
87.2657 4361 66.0379
87.3823 4107 64.0859
87.4988 4014 63.3561
87.6154 3635 60.291
87.7318 3373 58.0775
87.8483 3257 57.0701
87.9647 3011 54.8726
88.081 3070 55.4076
88.1973 2829 53.1883
88.3136 2753 52.469
88.4298 2713 52.0865
88.546 2655 51.5267
88.6621 2388 48.8672
88.7781 2402 49.0102
88.8942 0 1
89.0101 0 1
89.126 0 1
89.2419 0 1
89.3577 0 1
89.4734 0 1
89.5891 0 1
89.7047 0 1
89.8203 0 1
89.9358 0 1
92.3269 0 1
92.4424 0 1
92.558 0 1
92.6736 0 1
92.7893 0 1
92.905 0 1
93.0208 0 1
93.1366 0 1
93.2525 0 1
93.3685 0 1
93.4845 0 1
93.6005 4368 66.0908
93.7167 4524 67.2607
93.8328 4550 67.4537
93.949 4351 65.9621
94.0653 4351 65.9621
94.1816 4398 66.3174
94.2979 4404 66.3626
94.4143 4400 66.3325
94.5307 4386 66.2269
94.6472 4261 65.2763
94.7637 4230 65.0385
94.8803 3790 61.563
94.9969 3383 58.1636
95.1135 3108 55.7494
95.2302 3283 57.2975
95.3469 3711 60.918
95.4637 4177 64.6297
95.5805 4406 66.3777
95.6973 4426 66.5282
95.8142 4525 67.2681
95.9311 4525 67.2681
96.048 4473 66.8805
96.1649 4560 67.5278
96.2819 4569 67.5944
96.3989 4511 67.164
96.516 4548 67.4389
96.633 4564 67.5574
96.7501 4653 68.2129
96.8673 4680 68.4105
96.9844 4645 68.1542
97.1016 4658 68.2495
97.2188 4713 68.6513
97.336 4467 66.8356
97.4532 4636 68.0882
97.5704 4407 66.3852
97.6877 4585 67.7126
97.805 4486 66.9776
97.9223 4518 67.2161
98.0396 4690 68.4836
98.1569 4598 67.8086
98.2743 4485 66.9701
98.3916 3971 63.0159
98.509 3517 59.3043
98.6264 3131 55.9553
98.7438 3154 56.1605
98.8612 3598 59.9833
98.9786 4006 63.293
99.096 4086 63.9218
99.2134 4068 63.7809
99.3308 4013 63.3482
99.4482 3836 61.9355
99.5656 3827 61.8628
99.6831 3770 61.4003
99.8005 3604 60.0333
99.9179 3569 59.7411
100.035 3485 59.0339
100.153 3375 58.0948
100.27 3339 57.7841
100.388 3326 57.6715
100.505 3370 58.0517
100.622 3252 57.0263
100.74 3281 57.28
100.857 3219 56.7362
100.975 2989 54.6717
101.092 3009 54.8544
101.209 3067 55.3805
101.327 2924 54.074
101.444 3047 55.1996
101.561 3037 55.109
101.679 2969 54.4885
101.796 2945 54.2679
101.913 2853 53.4135
102.03 2592 50.9117
102.148 2426 49.2544
102.265 2199 46.8935
102.382 2447 49.4672
102.499 2651 51.4879
102.616 2790 52.8205
102.733 2850 53.3854
102.851 2846 53.3479
102.968 2949 54.3047
103.085 2758 52.5167
103.202 2858 53.4603
103.319 2821 53.1131
103.436 2840 53.2917
103.552 2826 53.1601
103.669 2849 53.376
103.786 2672 51.6914
103.903 2831 53.2071
104.02 2881 53.6749
104.137 2845 53.3385
104.253 2990 54.6809
104.37 2725 52.2015
104.487 2754 52.4786
104.603 2721 52.1632
104.72 2649 51.4684
104.836 2478 49.7795
104.953 2291 47.8644
105.069 1936 44
105.186 1795 42.3674
105.302 1704 41.2795
105.418 1575 39.6863
105.535 1424 37.7359
105.651 1256 35.4401
105.767 1017 31.8904
105.883 917 30.282
105.999 860 29.3258
106.115 0 1
106.231 0 1
106.347 0 1
106.463 0 1
106.579 0 1
106.694 0 1
106.81 0 1
106.926 0 1
107.041 0 1
107.157 0 1
109.576 0 1
109.692 0 1
109.807 0 1
109.923 0 1
110.039 0 1
110.155 0 1
110.27 0 1
110.386 0 1
110.502 0 1
110.618 2784 52.7636
110.735 2878 53.647
110.851 2774 52.6688
110.967 2414 49.1325
111.083 2387 48.8569
111.199 2660 51.5752
111.316 2966 54.461
111.432 3138 56.0179
111.549 3038 55.1181
111.665 3125 55.9017
111.782 3018 54.9363
111.898 3103 55.7046
112.015 3042 55.1543
112.132 3023 54.9818
112.248 3056 55.2811
112.365 3041 55.1453
112.482 3004 54.8088
112.599 3238 56.9034
112.716 3239 56.9122
112.832 3259 57.0877
112.949 3335 57.7495
113.066 3428 58.5491
113.183 3353 57.9051
113.3 3373 58.0775
113.417 3424 58.515
113.534 3475 58.9491
113.652 3332 57.7235
113.769 3387 58.1979
113.886 3389 58.2151
114.003 3286 57.3236
114.12 3300 57.4456
114.238 3316 57.5847
114.355 3056 55.2811
114.472 2688 51.8459
114.589 2645 51.4296
114.707 2653 51.5073
114.824 2957 54.3783
114.942 3085 55.5428
115.059 3301 57.4543
115.176 3140 56.0357
115.294 3228 56.8155
115.411 3241 56.9298
115.529 3217 56.7186
115.646 3141 56.0446
115.764 3118 55.8391
115.881 3207 56.6304
115.999 3267 57.1577
116.116 3185 56.4358
116.234 3315 57.576
116.351 3359 57.9569
116.469 3459 58.8133
116.586 3507 59.2199
116.704 3495 59.1185
116.821 3510 59.2453
116.939 3469 58.8982
117.056 3464 58.8558
117.174 3430 58.5662
117.291 3391 58.2323
117.409 3432 58.5833
117.526 3402 58.3267
117.644 3429 58.5577
117.761 3578 59.8164
117.879 3248 56.9912
117.996 2990 54.6809
118.114 2767 52.6023
118.231 2663 51.6043
118.349 2811 53.0189
118.466 2989 54.6717
118.584 3156 56.1783
118.701 3179 56.3826
118.819 3187 56.4535
118.936 3154 56.1605
119.053 3137 56.0089
119.171 3045 55.1815
119.288 3021 54.9636
119.405 3052 55.2449
119.523 3092 55.6058
119.64 2968 54.4794
119.757 3060 55.3173
119.875 3039 55.1271
119.992 3121 55.8659
120.109 3316 57.5847
120.226 3164 56.2494
120.343 3255 57.0526
120.46 3201 56.5774
120.578 3259 57.0877
120.695 3330 57.7062
120.812 3201 56.5774
120.929 3076 55.4617
121.046 3168 56.285
121.163 3228 56.8155
121.279 3178 56.3738
121.396 3059 55.3082
121.513 3119 55.848
121.63 2856 53.4416
121.747 2504 50.04
121.863 2279 47.7389
121.98 2165 46.5296
122.097 2129 46.1411
122.213 2239 47.3181
122.33 2213 47.0425
122.446 2170 46.5833
122.563 2137 46.2277
122.679 2014 44.8776
122.795 1917 43.7836
122.912 1983 44.5309
123.028 1857 43.0929
123.144 1828 42.7551
123.26 1903 43.6234
123.377 0 1
123.493 0 1
123.609 0 1
123.725 0 1
123.84 0 1
123.956 0 1
124.072 0 1
124.188 0 1
124.303 0 1
124.419 0 1
126.852 0 1
126.968 0 1
127.083 0 1
127.199 0 1
127.315 0 1
127.431 0 1
127.547 0 1
127.663 0 1
127.779 0 1
127.895 0 1
128.011 0 1
128.127 0 1
128.243 0 1
128.359 3593 59.9416
128.476 3654 60.4483
128.592 3510 59.2453
128.708 3666 60.5475
128.825 3602 60.0167
128.941 3683 60.6877
129.058 3729 61.0655
129.174 3828 61.8708
129.291 3948 62.8331
129.408 3909 62.522
129.524 4159 64.4903
129.641 4118 64.1716
129.758 4160 64.4981
129.875 4380 66.1816
129.992 4373 66.1287
130.108 4295 65.5362
130.225 4516 67.2012
130.342 4352 65.9697
130.459 4180 64.6529
130.576 4258 65.2534
130.693 3935 62.7296
130.81 3808 61.709
130.928 3708 60.8933
131.045 3955 62.8888
131.162 4034 63.5138
131.279 4166 64.5446
131.396 4155 64.4593
131.513 4193 64.7534
131.631 4304 65.6049
131.748 4263 65.2917
131.865 4019 63.3956
131.983 4049 63.6318
132.1 4150 64.4205
132.217 4043 63.5846
132.335 4027 63.4586
132.452 4048 63.6239
132.57 4010 63.3246
132.687 3764 61.3514
132.804 4306 65.6201
132.922 3958 62.9126
133.039 4085 63.914
133.157 4272 65.3605
133.274 4230 65.0385
133.392 4293 65.521
133.509 4385 66.2193
133.627 4535 67.3424
133.744 4558 67.513
133.862 4501 67.0895
133.979 4624 68
134.097 4573 67.624
134.214 4385 66.2193
134.332 4056 63.6867
134.449 4145 64.3817
134.567 4239 65.1076
134.684 4422 66.4981
134.802 4582 67.6905
134.919 4511 67.164
135.037 4529 67.2978
135.154 4397 66.3099
135.272 4397 66.3099
135.389 4481 66.9403
135.507 4322 65.7419
135.624 4263 65.2917
135.742 4272 65.3605
135.859 4258 65.2534
135.977 4199 64.7997
136.094 4214 64.9153
136.211 4172 64.591
136.329 4213 64.9076
136.446 4141 64.3506
136.564 4367 66.0833
136.681 4224 64.9923
136.798 4370 66.106
136.915 4409 66.4003
137.033 4428 66.5432
137.15 4338 65.8635
137.267 4393 66.2797
137.384 4345 65.9166
137.502 4417 66.4605
137.619 4354 65.9848
137.736 4289 65.4905
137.853 4157 64.4748
137.97 4053 63.6632
138.087 4023 63.4271
138.204 4163 64.5213
138.321 4194 64.7611
138.438 4182 64.6684
138.555 4270 65.3452
138.672 4223 64.9846
138.788 4182 64.6684
138.905 4177 64.6297
139.022 4014 63.3561
139.139 3868 62.1932
139.255 3755 61.2781
139.372 3516 59.2959
139.488 3304 57.4804
139.605 3429 58.5577
139.721 3166 56.2672
139.838 3093 55.6147
139.954 2996 54.7357
140.071 2946 54.2771
140.187 2924 54.074
140.303 3033 55.0727
140.419 2989 54.6717
140.535 2968 54.4794
140.652 3152 56.1427
140.768 0 1
140.884 0 1
141 0 1
141.115 0 1
141.231 0 1
141.347 0 1
141.463 0 1
141.578 0 1
141.694 0 1
144.104 0 1
144.219 0 1
144.335 0 1
144.45 0 1
144.566 0 1
144.682 0 1
144.798 0 1
144.914 0 1
145.03 0 1
145.146 8723 93.397
145.262 8825 93.9415
145.378 9098 95.3834
145.494 8955 94.6309
145.61 9301 96.4417
145.726 9034 95.0474
145.842 9061 95.1893
145.959 9194 95.8853
146.075 9188 95.8541
146.192 9144 95.6243
146.308 9041 95.0842
146.425 8854 94.0957
146.541 8047 89.7051
146.658 7069 84.0773
146.774 6066 77.8845
146.891 5923 76.961
147.008 6584 81.1419
147.125 7811 88.3799
147.241 8390 91.5969
147.358 8808 93.8509
147.475 8937 94.5357
147.592 8897 94.3239
147.709 9058 95.1735
147.826 8994 94.8367
147.943 8887 94.2709
148.06 9206 95.9479
148.177 9123 95.5144
148.294 8995 94.842
148.411 9136 95.5824
148.528 9344 96.6644
148.645 9142 95.6138
148.762 9111 95.4516
148.88 9317 96.5246
148.997 8874 94.2019
149.114 9415 97.0309
149.231 9270 96.2808
149.349 9511 97.5244
149.466 9316 96.5194
149.583 9366 96.7781
149.701 9315 96.5142
149.818 9379 96.8452
149.935 9370 96.7988
150.053 9381 96.8556
150.17 8767 93.6323
150.287 7824 88.4534
150.405 6876 82.9216
150.522 6365 79.781
150.64 6695 81.823
150.757 7900 88.8819
150.875 8786 93.7337
150.992 9071 95.2418
151.11 8950 94.6044
151.227 8968 94.6995
151.344 8803 93.8243
151.462 8969 94.7048
151.579 9093 95.3572
151.697 9125 95.5249
151.814 8896 94.3186
151.932 9067 95.2208
152.049 8969 94.7048
152.167 9001 94.8736
152.284 9312 96.4987
152.402 9067 95.2208
152.519 9310 96.4883
152.636 9424 97.0773
152.754 9275 96.3068
152.871 9388 96.8917
152.989 9365 96.7729
153.106 9531 97.6268
153.223 9550 97.7241
153.341 9610 98.0306
153.458 9634 98.1529
153.575 9513 97.5346
153.693 9705 98.514
153.81 9122 95.5092
153.927 8189 90.4931
154.044 7086 84.1784
154.162 6556 80.9691
154.279 7015 83.7556
154.396 8108 90.0444
154.513 8987 94.7998
154.63 9422 97.067
154.747 9300 96.4365
154.864 9246 96.1561
154.981 9300 96.4365
155.098 9011 94.9263
155.215 9092 95.352
155.332 8730 93.4345
155.449 8418 91.7497
155.566 8571 92.5797
155.683 8417 91.7442
155.8 8175 90.4157
155.917 8003 89.4595
156.033 7730 87.9204
156.15 0 1
156.267 0 1
156.383 0 1
156.5 0 1
156.617 0 1
156.733 0 1
156.85 0 1
156.966 0 1
157.082 0 1
157.199 0 1
157.315 0 1
157.431 0 1
157.547 0 1
157.664 0 1
157.78 0 1
157.896 0 1
158.012 0 1
158.128 0 1
158.244 0 1
158.359 0 1
158.475 0 1
158.591 0 1
158.706 0 1
