
6.15755 0 1
6.2731 0 1
6.3887 0 1
6.50437 0 1
6.62009 0 1
6.73587 0 1
6.8517 0 1
6.96759 0 1
7.08353 0 1
7.19952 0 1
7.31557 0 1
7.43166 0 1
7.54781 0 1
7.664 0 1
7.78024 0 1
7.89653 0 1
8.01286 0 1
8.12924 0 1
8.24567 0 1
8.36213 0 1
8.47864 0 1
8.59519 0 1
8.71178 0 1
8.82841 0 1
8.94508 0 1
9.06179 0 1
9.17853 0 1
9.29531 0 1
9.41212 0 1
9.52897 0 1
9.64584 0 1
9.76276 0 1
9.8797 0 1
9.99667 0 1
10.1137 0 1
10.2307 0 1
10.3478 0 1
10.4648 0 1
10.5819 0 1
10.6991 0 1
10.8162 0 1
10.9334 0 1
11.0506 0 1
11.1678 0 1
11.285 0 1
11.4023 0 1
11.5196 0 1
11.6369 0 1
11.7542 0 1
11.8715 0 1
11.9888 0 1
12.1062 0 1
12.2235 0 1
12.3409 0 1
12.4582 0 1
12.5756 0 1
12.693 0 1
12.8104 0 1
12.9278 0 1
13.0452 0 1
13.1626 0 1
13.28 0 1
13.3974 0 1
13.5149 0 1
13.6323 0 1
13.7497 0 1
13.8671 0 1
13.9845 0 1
14.1019 0 1
14.2193 0 1
14.3367 0 1
14.4541 0 1
14.5714 0 1
14.6888 0 1
14.8062 0 1
14.9235 0 1
15.0408 1472 38.3667
15.1581 1523 39.0256
15.2755 1569 39.6106
15.3927 1670 40.8656
15.51 1585 39.8121
15.6273 1603 40.0375
15.7445 1644 40.5463
15.8617 1612 40.1497
15.9789 1594 39.9249
16.0961 1585 39.8121
16.2132 1578 39.724
16.3304 1606 40.0749
16.4475 1743 41.7493
16.5646 1701 41.2432
16.6816 1776 42.1426
16.7986 1898 43.566
16.9156 1854 43.0581
17.0326 1866 43.1972
17.1496 1877 43.3244
17.2665 1836 42.8486
17.3833 1862 43.1509
17.5002 1844 42.9418
17.617 1704 41.2795
17.7338 1677 40.9512
17.8505 1658 40.7185
17.9672 1616 40.1995
18.0839 1625 40.3113
18.2005 1687 41.0731
18.3171 1686 41.0609
18.4337 1805 42.4853
18.5502 1797 42.391
18.6666 1870 43.2435
18.7831 1790 42.3084
18.8994 1847 42.9767
19.0158 1785 42.2493
19.1321 1772 42.0951
19.2483 1746 41.7852
19.3645 1641 40.5093
19.4806 1443 37.9868
19.5967 1365 36.9459
19.7128 1294 35.9722
19.8288 1201 34.6554
19.9447 1132 33.6452
20.0606 0 1
20.1764 0 1
20.2922 0 1
20.4079 0 1
20.5236 0 1
20.6392 0 1
20.7548 0 1
20.8702 0 1
23.3078 0 1
23.4233 0 1
23.539 0 1
23.6547 0 1
23.7704 0 1
23.8862 0 1
24.0021 0 1
24.118 0 1
24.234 0 1
24.35 0 1
24.4661 728 26.9815
24.5822 897 29.95
24.6984 1031 32.1092
24.8146 1133 33.6601
24.9309 1247 35.3129
25.0472 1264 35.5528
25.1636 1450 38.0789
25.28 1563 39.5348
25.3965 1680 40.9878
25.513 1818 42.638
25.6296 1949 44.1475
25.7462 1984 44.5421
25.8628 2027 45.0222
25.9795 1941 44.0568
26.0962 2004 44.7661
26.213 1963 44.3058
26.3298 1844 42.9418
26.4466 1734 41.6413
26.5635 1730 41.5933
26.6804 1794 42.3556
26.7973 1755 41.8927
26.9143 1814 42.5911
27.0313 1767 42.0357
27.1483 1855 43.0697
27.2653 1963 44.3058
27.3824 1852 43.0349
27.4996 1903 43.6234
27.6167 1981 44.5084
27.7339 1835 42.8369
27.8511 1877 43.3244
27.9683 1734 41.6413
28.0855 1704 41.2795
28.2028 1707 41.3159
28.3201 1599 39.9875
28.4374 1539 39.2301
28.5547 1629 40.3609
28.6721 1610 40.1248
28.7894 1716 41.4246
28.9068 1799 42.4146
29.0242 1844 42.9418
29.1416 1993 44.643
29.259 1999 44.7102
29.3764 1935 43.9886
29.4939 2062 45.4093
29.6113 1887 43.4396
29.7288 1801 42.4382
29.8463 1633 40.4104
29.9638 1613 40.1622
30.0812 1546 39.3192
30.1987 1602 40.025
30.3162 1609 40.1123
30.4337 1782 42.2137
30.5512 1727 41.5572
30.6687 1727 41.5572
30.7862 1852 43.0349
30.9037 1864 43.1741
31.0212 1842 42.9185
31.1387 1856 43.0813
31.2562 1857 43.0929
31.3737 1813 42.5793
31.4912 1768 42.0476
31.6087 1681 41
31.7262 1644 40.5463
31.8436 1579 39.7366
31.9611 1504 38.7814
32.0785 1579 39.7366
32.1959 1646 40.5709
32.3134 1725 41.5331
32.4308 1714 41.4005
32.5482 1792 42.332
32.6655 1903 43.6234
32.7829 1934 43.9773
32.9002 1910 43.7035
33.0176 1899 43.5775
33.1349 1848 42.9884
33.2522 1841 42.9069
33.3694 1755 41.8927
33.4867 1689 41.0974
33.6039 1598 39.975
33.7211 1542 39.2683
33.8383 1528 39.0896
33.9554 1635 40.4351
34.0725 1613 40.1622
34.1896 1677 40.9512
34.3067 1705 41.2916
34.4237 1751 41.845
34.5407 1736 41.6653
34.6577 1800 42.4264
34.7746 1709 41.3401
34.8915 1737 41.6773
35.0084 1756 41.9047
35.1252 1669 40.8534
35.242 1604 40.05
35.3587 1621 40.2616
35.4755 1606 40.0749
35.5921 1469 38.3275
35.7088 1416 37.6298
35.8254 1500 38.7298
35.9419 1519 38.9744
36.0584 1615 40.1871
36.1749 1622 40.2741
36.2913 1581 39.7618
36.4077 1674 40.9145
36.524 1690 41.1096
36.6403 1564 39.5474
36.7565 1543 39.281
36.8727 1515 38.923
36.9889 1333 36.5103
37.1049 1200 34.641
37.221 0 1
37.3369 0 1
37.4529 0 1
37.5687 0 1
37.6845 0 1
37.8003 0 1
37.916 0 1
38.0316 0 1
38.1472 0 1
40.5851 0 1
40.7008 0 1
40.8164 0 1
40.9322 0 1
41.048 0 1
41.1639 0 1
41.2798 0 1
41.3958 0 1
41.5118 0 1
41.6279 0 1
41.744 876 29.5973
41.8602 952 30.8545
41.9765 979 31.289
42.0928 1057 32.5115
42.2091 1088 32.9848
42.3255 1032 32.1248
42.4419 1008 31.749
42.5584 1037 32.2025
42.675 1045 32.3265
42.7915 1193 34.5398
42.9081 1285 35.8469
43.0248 1359 36.8646
43.1415 1493 38.6394
43.2582 1436 37.8946
43.375 1410 37.55
43.4918 1478 38.4448
43.6087 1417 37.6431
43.7256 1422 37.7094
43.8425 1470 38.3406
43.9595 1397 37.3765
44.0765 1308 36.1663
44.1935 1323 36.3731
44.3106 1343 36.647
44.4277 1217 34.8855
44.5448 1198 34.6121
44.6619 1144 33.8231
44.7791 1336 36.5513
44.8963 1296 36
45.0136 1431 37.8286
45.1308 1531 39.128
45.2481 1482 38.4968
45.3654 1494 38.6523
45.4827 1512 38.8844
45.6001 1436 37.8946
45.7174 1441 37.9605
45.8348 1337 36.565
45.9522 1280 35.7771
46.0697 1297 36.0139
46.1871 1170 34.2053
46.3046 1222 34.9571
46.422 1278 35.7491
46.5395 1381 37.1618
46.657 1432 37.8418
46.7745 1436 37.8946
46.892 1446 38.0263
47.0096 1463 38.2492
47.1271 1508 38.833
47.2446 1510 38.8587
47.3622 1512 38.8844
47.4797 1490 38.6005
47.5973 1445 38.0132
47.7149 1376 37.0945
47.8324 1320 36.3318
47.95 1311 36.2077
48.0675 1264 35.5528
48.1851 1195 34.5688
48.3027 1265 35.5668
48.4202 1324 36.3868
48.5378 1407 37.51
48.6554 1533 39.1535
48.7729 1547 39.3319
48.8904 1595 39.9375
49.008 1604 40.05
49.1255 1438 37.921
49.243 1458 38.1838
49.3605 1339 36.5923
49.478 1259 35.4824
49.5955 1086 32.9545
49.713 1155 33.9853
49.8304 1174 34.2637
49.9479 1273 35.6791
50.0653 1361 36.8917
50.1827 1402 37.4433
50.3001 1456 38.1576
50.4175 1544 39.2938
50.5348 1490 38.6005
50.6521 1560 39.4968
50.7694 1537 39.2046
50.8867 1560 39.4968
51.004 1539 39.2301
51.1212 1590 39.8748
51.2384 1536 39.1918
51.3556 1477 38.4318
51.4727 1426 37.7624
51.5899 1362 36.9053
51.707 1361 36.8917
51.824 1448 38.0526
51.9411 1559 39.4842
52.0581 1664 40.7922
52.175 1807 42.5088
52.2919 1817 42.6263
52.4088 1828 42.7551
52.5257 2041 45.1774
52.6425 2051 45.288
52.7593 1973 44.4185
52.876 1990 44.6094
52.9927 1823 42.6966
53.1094 1804 42.4735
53.226 1695 41.1704
53.3426 1658 40.7185
53.4591 1756 41.9047
53.5756 1617 40.2119
53.692 1718 41.4488
53.8084 1735 41.6533
53.9248 1681 41
54.0411 1686 41.0609
54.1573 1516 38.9358
54.2735 0 1
54.3896 0 1
54.5057 0 1
54.6217 0 1
54.7377 0 1
54.8537 0 1
54.9695 0 1
55.0853 0 1
55.2011 0 1
55.3168 0 1
55.4324 0 1
57.824 0 1
57.9396 0 1
58.0553 0 1
58.1711 0 1
58.2869 0 1
58.4028 0 1
58.5187 0 1
58.6347 0 1
58.7508 0 1
58.8669 0 1
58.983 1272 35.6651
59.0992 1369 37
59.2155 1532 39.1408
59.3318 1671 40.8779
59.4482 1724 41.5211
59.5646 1789 42.2966
59.681 1839 42.8836
59.7975 1763 41.9881
59.9141 1782 42.2137
60.0306 1725 41.5331
60.1473 1805 42.4853
60.2639 1649 40.6079
60.3807 1643 40.5339
60.4974 1605 40.0625
60.6142 1663 40.7799
60.731 1839 42.8836
60.8479 1803 42.4617
60.9648 1881 43.3705
61.0818 1924 43.8634
61.1987 1878 43.3359
61.3158 1886 43.4281
61.4328 1830 42.7785
61.5499 1799 42.4146
61.667 1651 40.6325
61.7841 1548 39.3446
61.9013 1490 38.6005
62.0185 1500 38.7298
62.1357 1543 39.281
62.253 1612 40.1497
62.3702 1721 41.4849
62.4875 1732 41.6173
62.6049 1798 42.4028
62.7222 1809 42.5323
62.8396 1877 43.3244
62.9569 1851 43.0232
63.0743 1947 44.1248
63.1918 1875 43.3013
63.3092 1757 41.9166
63.4267 1797 42.391
63.5441 1777 42.1545
63.6616 1613 40.1622
63.7791 1524 39.0384
63.8966 1533 39.1535
64.0142 1499 38.7169
64.1317 1517 38.9487
64.2492 1704 41.2795
64.3668 1761 41.9643
64.4843 1848 42.9884
64.6019 1897 43.5546
64.7195 1824 42.7083
64.837 1802 42.45
64.9546 1807 42.5088
65.0722 1810 42.5441
65.1898 1543 39.281
65.3074 1554 39.4208
65.4249 1397 37.3765
65.5425 1357 36.8375
65.6601 1418 37.6563
65.7777 1451 38.092
65.8952 1626 40.3237
66.0128 1652 40.6448
66.1304 1637 40.4599
66.2479 1806 42.4971
66.3655 1837 42.8602
66.483 1859 43.1161
66.6005 1807 42.5088
66.718 1861 43.1393
66.8355 1769 42.0595
66.953 1816 42.6146
67.0705 1702 41.2553
67.1879 1742 41.7373
67.3054 1620 40.2492
67.4228 1490 38.6005
67.5402 1498 38.704
67.6576 1409 37.5366
67.7749 1474 38.3927
67.8923 1610 40.1248
68.0096 1684 41.0366
68.1269 1776 42.1426
68.2442 1810 42.5441
68.3614 1760 41.9524
68.4787 1834 42.8252
68.5958 1809 42.5323
68.713 1716 41.4246
68.8302 1642 40.5216
68.9473 1554 39.4208
69.0643 1342 36.6333
69.1814 1338 36.5787
69.2984 1351 36.756
69.4154 1467 38.3014
69.5323 1543 39.281
69.6492 1590 39.8748
69.7661 1682 41.0122
69.8829 1695 41.1704
69.9997 1632 40.398
70.1165 1651 40.6325
70.2332 1648 40.5956
70.3499 1488 38.5746
70.4665 1443 37.9868
70.5831 1405 37.4833
70.6996 1348 36.7151
70.8161 1221 34.9428
70.9326 1134 33.6749
71.049 1024 32
71.1653 820 28.6356
71.2817 706 26.5707
71.3979 712 26.6833
71.5141 668 25.8457
71.6303 622 24.9399
71.7464 595 24.3926
71.8624 0 1
71.9784 0 1
72.0944 0 1
72.2102 0 1
72.3261 0 1
72.4418 0 1
72.5575 0 1
72.6732 0 1
75.1054 0 1
75.2209 0 1
75.3365 0 1
75.4521 0 1
75.5678 0 1
75.6835 0 1
75.7993 0 1
75.9151 0 1
76.031 0 1
76.147 1084 32.9242
76.263 1170 34.2053
76.3791 1140 33.7639
76.4952 1151 33.9264
76.6113 1188 34.4674
76.7276 1194 34.5543
76.8438 1242 35.242
76.9601 1393 37.3229
77.0765 1537 39.2046
77.1929 1571 39.6358
77.3093 1514 38.9102
77.4258 1613 40.1622
77.5423 1580 39.7492
77.6589 1483 38.5097
77.7755 1442 37.9737
77.8921 1281 35.7911
78.0088 1230 35.0714
78.1256 1096 33.1059
78.2423 1071 32.7261
78.3591 1099 33.1512
78.4759 1346 36.6879
78.5928 1387 37.2424
78.7097 1455 38.1445
78.8266 1504 38.7814
78.9436 1497 38.6911
79.0606 1535 39.1791
79.1776 1517 38.9487
79.2946 1554 39.4208
79.4117 1594 39.9249
79.5288 1489 38.5876
79.6459 1584 39.7995
79.7631 1502 38.7556
79.8802 1517 38.9487
79.9974 1402 37.4433
80.1147 1378 37.1214
80.2319 1217 34.8855
80.3491 1280 35.7771
80.4664 1376 37.0945
80.5837 1398 37.3898
80.701 1527 39.0768
80.8183 1595 39.9375
80.9357 1607 40.0874
81.053 1555 39.4335
81.1704 1602 40.025
81.2877 1653 40.6571
81.4051 1545 39.3065
81.5225 1485 38.5357
81.6399 1339 36.5923
81.7573 1221 34.9428
81.8747 1110 33.3167
81.9922 1124 33.5261
82.1096 1237 35.171
82.227 1393 37.3229
82.3444 1418 37.6563
82.4619 1517 38.9487
82.5793 1546 39.3192
82.6967 1569 39.6106
82.8142 1597 39.9625
82.9316 1663 40.7799
83.049 1649 40.6079
83.1664 1622 40.2741
83.2838 1551 39.3827
83.4012 1583 39.7869
83.5186 1524 39.0384
83.636 1456 38.1576
83.7534 1356 36.8239
83.8708 1280 35.7771
83.9881 1281 35.7911
84.1055 1308 36.1663
84.2228 1393 37.3229
84.3401 1477 38.4318
84.4575 1557 39.4588
84.5747 1600 40
84.692 1680 40.9878
84.8093 1682 41.0122
84.9265 1604 40.05
85.0437 1495 38.6652
85.1609 1368 36.9865
85.2781 1291 35.9305
85.3952 1197 34.5977
85.5123 1123 33.5112
85.6294 1174 34.2637
85.7465 1368 36.9865
85.8636 1447 38.0395
85.9806 1507 38.8201
86.0976 1576 39.6989
86.2145 1641 40.5093
86.3315 1611 40.1373
86.4484 1659 40.7308
86.5652 1576 39.6989
86.682 1593 39.9124
86.7988 1695 41.1704
86.9156 1679 40.9756
87.0323 1551 39.3827
87.149 1550 39.37
87.2657 1494 38.6523
87.3823 1280 35.7771
87.4988 1195 34.5688
87.6154 1040 32.249
87.7318 1076 32.8024
87.8483 1207 34.7419
87.9647 1333 36.5103
88.081 1250 35.3553
88.1973 1283 35.819
88.3136 1196 34.5832
88.4298 1185 34.4238
88.546 1054 32.4654
88.6621 929 30.4795
88.7781 714 26.7208
88.8942 0 1
89.0101 0 1
89.126 0 1
89.2419 0 1
89.3577 0 1
89.4734 0 1
89.5891 0 1
89.7047 0 1
89.8203 0 1
89.9358 0 1
92.3269 0 1
92.4424 0 1
92.558 0 1
92.6736 0 1
92.7893 0 1
92.905 0 1
93.0208 0 1
93.1366 0 1
93.2525 0 1
93.3685 0 1
93.4845 0 1
93.6005 1244 35.2704
93.7167 1332 36.4966
93.8328 1373 37.054
93.949 1385 37.2156
94.0653 1496 38.6782
94.1816 1409 37.5366
94.2979 1396 37.3631
94.4143 1293 35.9583
94.5307 1289 35.9026
94.6472 1171 34.2199
94.7637 1253 35.3977
94.8803 1368 36.9865
94.9969 1390 37.2827
95.1135 1535 39.1791
95.2302 1524 39.0384
95.3469 1586 39.8246
95.4637 1615 40.1871
95.5805 1657 40.7063
95.6973 1655 40.6817
95.8142 1657 40.7063
95.9311 1621 40.2616
96.048 1654 40.6694
96.1649 1683 41.0244
96.2819 1584 39.7995
96.3989 1599 39.9875
96.516 1529 39.1024
96.633 1419 37.6696
96.7501 1336 36.5513
96.8673 1303 36.0971
96.9844 1419 37.6696
97.1016 1429 37.8021
97.2188 1577 39.7115
97.336 1675 40.9268
97.4532 1709 41.3401
97.5704 1721 41.4849
97.6877 1703 41.2674
97.805 1670 40.8656
97.9223 1565 39.5601
98.0396 1522 39.0128
98.1569 1366 36.9594
98.2743 1190 34.4964
98.3916 1212 34.8138
98.509 1227 35.0286
98.6264 1420 37.6829
98.7438 1575 39.6863
98.8612 1538 39.2173
98.9786 1637 40.4599
99.096 1622 40.2741
99.2134 1769 42.0595
99.3308 1757 41.9166
99.4482 1760 41.9524
99.5656 1747 41.7971
99.6831 1712 41.3763
99.8005 1681 41
99.9179 1672 40.8901
100.035 1634 40.4228
100.153 1479 38.4578
100.27 1426 37.7624
100.388 1458 38.1838
100.505 1442 37.9737
100.622 1495 38.6652
100.74 1701 41.2432
100.857 1681 41
100.975 1706 41.3038
101.092 1836 42.8486
101.209 1827 42.7434
101.327 1805 42.4853
101.444 1742 41.7373
101.561 1601 40.0125
101.679 1429 37.8021
101.796 1294 35.9722
101.913 1228 35.0428
102.03 1256 35.4401
102.148 1428 37.7889
102.265 1594 39.9249
102.382 1668 40.8412
102.499 1763 41.9881
102.616 1733 41.6293
102.733 1832 42.8019
102.851 1875 43.3013
102.968 1838 42.8719
103.085 1982 44.5197
103.202 1869 43.2319
103.319 1826 42.7317
103.436 1755 41.8927
103.552 1785 42.2493
103.669 1620 40.2492
103.786 1485 38.5357
103.903 1439 37.9342
104.02 1569 39.6106
104.137 1630 40.3733
104.253 1822 42.6849
104.37 1907 43.6692
104.487 1894 43.5201
104.603 1865 43.1856
104.72 1877 43.3244
104.836 1852 43.0349
104.953 1663 40.7799
105.069 1536 39.1918
105.186 1310 36.1939
105.302 1244 35.2704
105.418 1155 33.9853
105.535 1155 33.9853
105.651 1265 35.5668
105.767 1149 33.8969
105.883 1191 34.5109
105.999 1146 33.8526
106.115 0 1
106.231 0 1
106.347 0 1
106.463 0 1
106.579 0 1
106.694 0 1
106.81 0 1
106.926 0 1
107.041 0 1
107.157 0 1
109.576 0 1
109.692 0 1
109.807 0 1
109.923 0 1
110.039 0 1
110.155 0 1
110.27 0 1
110.386 0 1
110.502 0 1
110.618 747 27.3313
110.735 956 30.9192
110.851 1150 33.9116
110.967 1257 35.4542
111.083 1457 38.1707
111.199 1564 39.5474
111.316 1550 39.37
111.432 1664 40.7922
111.549 1722 41.497
111.665 1685 41.0488
111.782 1740 41.7133
111.898 1719 41.4608
112.015 1621 40.2616
112.132 1555 39.4335
112.248 1498 38.704
112.365 1419 37.6696
112.482 1438 37.921
112.599 1501 38.7427
112.716 1531 39.128
112.832 1684 41.0366
112.949 1775 42.1307
113.066 1840 42.8952
113.183 1748 41.8091
113.3 1723 41.509
113.417 1785 42.2493
113.534 1697 41.1947
113.652 1557 39.4588
113.769 1361 36.8917
113.886 1221 34.9428
114.003 1265 35.5668
114.12 1268 35.609
114.238 1465 38.2753
114.355 1548 39.3446
114.472 1555 39.4335
114.589 1729 41.5812
114.707 1784 42.2374
114.824 1782 42.2137
114.942 1761 41.9643
115.059 1857 43.0929
115.176 1858 43.1045
115.294 1876 43.3128
115.411 1717 41.4367
115.529 1706 41.3038
115.646 1698 41.2068
115.764 1577 39.7115
115.881 1429 37.8021
115.999 1417 37.6431
116.116 1502 38.7556
116.234 1544 39.2938
116.351 1698 41.2068
116.469 1701 41.2432
116.586 1780 42.19
116.704 1782 42.2137
116.821 1770 42.0714
116.939 1786 42.2611
117.056 1691 41.1218
117.174 1701 41.2432
117.291 1513 38.8973
117.409 1357 36.8375
117.526 1358 36.8511
117.644 1247 35.3129
117.761 1356 36.8239
117.879 1465 38.2753
117.996 1517 38.9487
118.114 1586 39.8246
118.231 1644 40.5463
118.349 1694 41.1582
118.466 1690 41.1096
118.584 1764 42
118.701 1766 42.0238
118.819 1740 41.7133
118.936 1729 41.5812
119.053 1637 40.4599
119.171 1606 40.0749
119.288 1591 39.8873
119.405 1539 39.2301
119.523 1465 38.2753
119.64 1421 37.6962
119.757 1437 37.9078
119.875 1516 38.9358
119.992 1622 40.2741
120.109 1643 40.5339
120.226 1667 40.8289
120.343 1698 41.2068
120.46 1702 41.2553
120.578 1683 41.0244
120.695 1679 40.9756
120.812 1629 40.3609
120.929 1484 38.5227
121.046 1349 36.7287
121.163 1285 35.8469
121.279 1185 34.4238
121.396 1186 34.4384
121.513 1263 35.5387
121.63 1302 36.0832
121.747 1349 36.7287
121.863 1331 36.4829
121.98 1416 37.6298
122.097 1417 37.6431
122.213 1424 37.7359
122.33 1310 36.1939
122.446 1296 36
122.563 1235 35.1426
122.679 1149 33.8969
122.795 1074 32.7719
122.912 975 31.225
123.028 856 29.2575
123.144 762 27.6043
123.26 672 25.923
123.377 0 1
123.493 0 1
123.609 0 1
123.725 0 1
123.84 0 1
123.956 0 1
124.072 0 1
124.188 0 1
124.303 0 1
124.419 0 1
126.852 0 1
126.968 0 1
127.083 0 1
127.199 0 1
127.315 0 1
127.431 0 1
127.547 0 1
127.663 0 1
127.779 0 1
127.895 0 1
128.011 0 1
128.127 0 1
128.243 0 1
128.359 1556 39.4462
128.476 1565 39.5601
128.592 1525 39.0512
128.708 1555 39.4335
128.825 1584 39.7995
128.941 1664 40.7922
129.058 1649 40.6079
129.174 1730 41.5933
129.291 1853 43.0465
129.408 1791 42.3202
129.524 1789 42.2966
129.641 1857 43.0929
129.758 1805 42.4853
129.875 1728 41.5692
129.992 1549 39.3573
130.108 1401 37.4299
130.225 1409 37.5366
130.342 1343 36.647
130.459 1338 36.5787
130.576 1531 39.128
130.693 1612 40.1497
130.81 1628 40.3485
130.928 1710 41.3521
131.045 1764 42
131.162 1717 41.4367
131.279 1838 42.8719
131.396 1861 43.1393
131.513 1765 42.0119
131.631 1734 41.6413
131.748 1696 41.1825
131.865 1634 40.4228
131.983 1592 39.8999
132.1 1572 39.6485
132.217 1517 38.9487
132.335 1556 39.4462
132.452 1560 39.4968
132.57 1624 40.2989
132.687 1736 41.6653
132.804 1759 41.9404
132.922 1828 42.7551
133.039 1804 42.4735
133.157 1804 42.4735
133.274 1791 42.3202
133.392 1780 42.19
133.509 1543 39.281
133.627 1499 38.7169
133.744 1415 37.6165
133.862 1401 37.4299
133.979 1404 37.47
134.097 1516 38.9358
134.214 1657 40.7063
134.332 1601 40.0125
134.449 1749 41.821
134.567 1789 42.2966
134.684 1752 41.8569
134.802 1806 42.4971
134.919 1769 42.0595
135.037 1824 42.7083
135.154 1687 41.0731
135.272 1768 42.0476
135.389 1710 41.3521
135.507 1674 40.9145
135.624 1709 41.3401
135.742 1591 39.8873
135.859 1543 39.281
135.977 1609 40.1123
136.094 1670 40.8656
136.211 1710 41.3521
136.329 1785 42.2493
136.446 1814 42.5911
136.564 1801 42.4382
136.681 1919 43.8064
136.798 1794 42.3556
136.915 1783 42.2256
137.033 1741 41.7253
137.15 1660 40.7431
137.267 1602 40.025
137.384 1438 37.921
137.502 1340 36.606
137.619 1376 37.0945
137.736 1531 39.128
137.853 1543 39.281
137.97 1625 40.3113
138.087 1636 40.4475
138.204 1748 41.8091
138.321 1728 41.5692
138.438 1716 41.4246
138.555 1777 42.1545
138.672 1712 41.3763
138.788 1678 40.9634
138.905 1613 40.1622
139.022 1540 39.2428
139.139 1521 39
139.255 1363 36.9188
139.372 1382 37.1753
139.488 1213 34.8281
139.605 1233 35.1141
139.721 1257 35.4542
139.838 1300 36.0555
139.954 1214 34.8425
140.071 1142 33.7935
140.187 1066 32.6497
140.303 994 31.5278
140.419 953 30.8707
140.535 924 30.3974
140.652 793 28.1603
140.768 0 1
140.884 0 1
141 0 1
141.115 0 1
141.231 0 1
141.347 0 1
141.463 0 1
141.578 0 1
141.694 0 1
144.104 0 1
144.219 0 1
144.335 0 1
144.45 0 1
144.566 0 1
144.682 0 1
144.798 0 1
144.914 0 1
145.03 0 1
145.146 1256 35.4401
145.262 1343 36.647
145.378 1425 37.7492
145.494 1388 37.2559
145.61 1409 37.5366
145.726 1492 38.6264
145.842 1322 36.3593
145.959 1306 36.1386
146.075 1183 34.3948
146.192 1117 33.4215
146.308 1094 33.0757
146.425 1158 34.0294
146.541 1262 35.5246
146.658 1290 35.9166
146.774 1288 35.8887
146.891 1278 35.7491
147.008 1397 37.3765
147.125 1371 37.027
147.241 1382 37.1753
147.358 1444 38
147.475 1346 36.6879
147.592 1389 37.2693
147.709 1401 37.4299
147.826 1270 35.6371
147.943 1259 35.4824
148.06 1328 36.4417
148.177 1262 35.5246
148.294 1193 34.5398
148.411 1244 35.2704
148.528 1286 35.8608
148.645 1361 36.8917
148.762 1360 36.8782
148.88 1420 37.6829
148.997 1438 37.921
149.114 1408 37.5233
149.231 1376 37.0945
149.349 1384 37.2022
149.466 1441 37.9605
149.583 1338 36.5787
149.701 1173 34.2491
149.818 1126 33.5559
149.935 1077 32.8177
150.053 1066 32.6497
150.17 1227 35.0286
150.287 1244 35.2704
150.405 1248 35.327
150.522 1278 35.7491
150.64 1228 35.0428
150.757 1359 36.8646
150.875 1337 36.565
150.992 1352 36.7696
151.11 1376 37.0945
151.227 1294 35.9722
151.344 1233 35.1141
151.462 1270 35.6371
151.579 1225 35
151.697 1195 34.5688
151.814 1161 34.0735
151.932 1192 34.5254
152.049 1201 34.6554
152.167 1188 34.4674
152.284 1200 34.641
152.402 1228 35.0428
152.519 1282 35.805
152.636 1385 37.2156
152.754 1348 36.7151
152.871 1374 37.0675
152.989 1308 36.1663
153.106 1246 35.2987
153.223 1223 34.9714
153.341 1108 33.2866
153.458 1039 32.2335
153.575 1069 32.6956
153.693 1076 32.8024
153.81 1045 32.3265
153.927 1120 33.4664
154.044 1163 34.1028
154.162 1228 35.0428
154.279 1227 35.0286
154.396 1233 35.1141
154.513 1225 35
154.63 1195 34.5688
154.747 1243 35.2562
154.864 1260 35.4965
154.981 1214 34.8425
155.098 1177 34.3074
155.215 1130 33.6155
155.332 1131 33.6303
155.449 1022 31.9687
155.566 1035 32.1714
155.683 1081 32.8786
155.8 1164 34.1174
155.917 1136 33.7046
156.033 1111 33.3317
156.15 0 1
156.267 0 1
156.383 0 1
156.5 0 1
156.617 0 1
156.733 0 1
156.85 0 1
156.966 0 1
157.082 0 1
157.199 0 1
157.315 0 1
157.431 0 1
157.547 0 1
157.664 0 1
157.78 0 1
157.896 0 1
158.012 0 1
158.128 0 1
158.244 0 1
158.359 0 1
158.475 0 1
158.591 0 1
158.706 0 1
