
6.15755 0 1
6.2731 0 1
6.3887 0 1
6.50437 0 1
6.62009 0 1
6.73587 0 1
6.8517 0 1
6.96759 0 1
7.08353 0 1
7.19952 0 1
7.31557 0 1
7.43166 0 1
7.54781 0 1
7.664 0 1
7.78024 0 1
7.89653 0 1
8.01286 0 1
8.12924 0 1
8.24567 0 1
8.36213 0 1
8.47864 0 1
8.59519 0 1
8.71178 0 1
8.82841 0 1
8.94508 0 1
9.06179 0 1
9.17853 0 1
9.29531 0 1
9.41212 0 1
9.52897 0 1
9.64584 0 1
9.76276 0 1
9.8797 0 1
9.99667 0 1
10.1137 0 1
10.2307 0 1
10.3478 0 1
10.4648 0 1
10.5819 0 1
10.6991 0 1
10.8162 0 1
10.9334 0 1
11.0506 0 1
11.1678 0 1
11.285 0 1
11.4023 0 1
11.5196 0 1
11.6369 0 1
11.7542 0 1
11.8715 0 1
11.9888 0 1
12.1062 0 1
12.2235 0 1
12.3409 0 1
12.4582 0 1
12.5756 0 1
12.693 0 1
12.8104 0 1
12.9278 0 1
13.0452 0 1
13.1626 0 1
13.28 0 1
13.3974 0 1
13.5149 0 1
13.6323 0 1
13.7497 0 1
13.8671 0 1
13.9845 0 1
14.1019 0 1
14.2193 0 1
14.3367 0 1
14.4541 0 1
14.5714 0 1
14.6888 0 1
14.8062 0 1
14.9235 0 1
15.0408 0 0
15.1581 0 0
15.2755 0 0
15.3927 0 0
15.51 0 0
15.6273 0 0
15.7445 0 0
15.8617 0 0
15.9789 0 0
16.0961 0 0
16.2132 0 0
16.3304 0 0
16.4475 0 0
16.5646 0 0
16.6816 0 0
16.7986 0 0
16.9156 0 0
17.0326 0 0
17.1496 0 0
17.2665 0 0
17.3833 0 0
17.5002 0 0
17.617 0 0
17.7338 0 0
17.8505 0 0
17.9672 0 0
18.0839 0 0
18.2005 0 0
18.3171 0 0
18.4337 0 0
18.5502 0 0
18.6666 0 0
18.7831 0 0
18.8994 0 0
19.0158 0 0
19.1321 0 0
19.2483 0 0
19.3645 0 0
19.4806 0 0
19.5967 0 0
19.7128 0 0
19.8288 0 0
19.9447 0 0
20.0606 0 1
20.1764 0 1
20.2922 0 1
20.4079 0 1
20.5236 0 1
20.6392 0 1
20.7548 0 1
20.8702 0 1
23.3078 0 1
23.4233 0 1
23.539 0 1
23.6547 0 1
23.7704 0 1
23.8862 0 1
24.0021 0 1
24.118 0 1
24.234 0 1
24.35 0 1
24.4661 1169 34.1906
24.5822 1217 34.8855
24.6984 1190 34.4964
24.8146 1160 34.0588
24.9309 1186 34.4384
25.0472 1251 35.3695
25.1636 1341 36.6197
25.28 1262 35.5246
25.3965 1332 36.4966
25.513 1265 35.5668
25.6296 1262 35.5246
25.7462 1341 36.6197
25.8628 1324 36.3868
25.9795 1294 35.9722
26.0962 1305 36.1248
26.213 1320 36.3318
26.3298 1277 35.7351
26.4466 1289 35.9026
26.5635 1293 35.9583
26.6804 1283 35.819
26.7973 1217 34.8855
26.9143 1158 34.0294
27.0313 1093 33.0606
27.1483 1154 33.9706
27.2653 1142 33.7935
27.3824 1165 34.1321
27.4996 1133 33.6601
27.6167 1209 34.7707
27.7339 1102 33.1964
27.8511 1157 34.0147
27.9683 1108 33.2866
28.0855 1136 33.7046
28.2028 1164 34.1174
28.3201 1141 33.7787
28.4374 1120 33.4664
28.5547 1234 35.1283
28.6721 1173 34.2491
28.7894 1158 34.0294
28.9068 1214 34.8425
29.0242 1172 34.2345
29.1416 1207 34.7419
29.259 1222 34.9571
29.3764 1186 34.4384
29.4939 1279 35.7631
29.6113 1240 35.2136
29.7288 1139 33.7491
29.8463 1217 34.8855
29.9638 1228 35.0428
30.0812 1226 35.0143
30.1987 1177 34.3074
30.3162 1173 34.2491
30.4337 1136 33.7046
30.5512 1082 32.8938
30.6687 1026 32.0312
30.7862 1078 32.8329
30.9037 1125 33.541
31.0212 1128 33.5857
31.1387 1150 33.9116
31.2562 1080 32.8634
31.3737 1138 33.7343
31.4912 1061 32.573
31.6087 1113 33.3617
31.7262 1054 32.4654
31.8436 1112 33.3467
31.9611 1076 32.8024
32.0785 1077 32.8177
32.1959 1209 34.7707
32.3134 1204 34.6987
32.4308 1147 33.8674
32.5482 1195 34.5688
32.6655 1221 34.9428
32.7829 1139 33.7491
32.9002 1231 35.0856
33.0176 1182 34.3802
33.1349 1218 34.8999
33.2522 1184 34.4093
33.3694 1190 34.4964
33.4867 1154 33.9706
33.6039 1223 34.9714
33.7211 1173 34.2491
33.8383 1179 34.3366
33.9554 1132 33.6452
34.0725 1122 33.4963
34.1896 1006 31.7175
34.3067 1048 32.3728
34.4237 988 31.4325
34.5407 1005 31.7017
34.6577 1061 32.573
34.7746 1046 32.3419
34.8915 1061 32.573
35.0084 1008 31.749
35.1252 997 31.5753
35.242 996 31.5595
35.3587 1077 32.8177
35.4755 999 31.607
35.5921 1033 32.1403
35.7088 1115 33.3916
35.8254 1102 33.1964
35.9419 1114 33.3766
36.0584 1182 34.3802
36.1749 1152 33.9411
36.2913 1199 34.6266
36.4077 1135 33.6898
36.524 1186 34.4384
36.6403 1190 34.4964
36.7565 1137 33.7194
36.8727 1152 33.9411
36.9889 1148 33.8821
37.1049 1118 33.4365
37.221 0 1
37.3369 0 1
37.4529 0 1
37.5687 0 1
37.6845 0 1
37.8003 0 1
37.916 0 1
38.0316 0 1
38.1472 0 1
40.5851 0 1
40.7008 0 1
40.8164 0 1
40.9322 0 1
41.048 0 1
41.1639 0 1
41.2798 0 1
41.3958 0 1
41.5118 0 1
41.6279 0 1
41.744 902 30.0333
41.8602 949 30.8058
41.9765 943 30.7083
42.0928 983 31.3528
42.2091 926 30.4302
42.3255 979 31.289
42.4419 973 31.1929
42.5584 980 31.305
42.675 934 30.5614
42.7915 950 30.8221
42.9081 920 30.3315
43.0248 816 28.5657
43.1415 802 28.3196
43.2582 810 28.4605
43.375 851 29.1719
43.4918 868 29.4618
43.6087 844 29.0517
43.7256 815 28.5482
43.8425 816 28.5657
43.9595 858 29.2916
44.0765 852 29.189
44.1935 838 28.9482
44.3106 797 28.2312
44.4277 910 30.1662
44.5448 910 30.1662
44.6619 848 29.1204
44.7791 896 29.9333
44.8963 850 29.1548
45.0136 831 28.8271
45.1308 875 29.5804
45.2481 833 28.8617
45.3654 840 28.9828
45.4827 843 29.0345
45.6001 822 28.6705
45.7174 821 28.6531
45.8348 811 28.4781
45.9522 851 29.1719
46.0697 731 27.037
46.1871 782 27.9643
46.3046 765 27.6586
46.422 764 27.6405
46.5395 732 27.0555
46.657 674 25.9615
46.7745 629 25.0799
46.892 648 25.4558
47.0096 655 25.593
47.1271 656 25.6125
47.2446 650 25.4951
47.3622 591 24.3105
47.4797 607 24.6374
47.5973 593 24.3516
47.7149 613 24.7588
47.8324 629 25.0799
47.95 621 24.9199
48.0675 637 25.2389
48.1851 623 24.96
48.3027 623 24.96
48.4202 619 24.8797
48.5378 663 25.7488
48.6554 632 25.1396
48.7729 637 25.2389
48.8904 625 25
49.008 715 26.7395
49.1255 648 25.4558
49.243 606 24.6171
49.3605 669 25.865
49.478 633 25.1595
49.5955 622 24.9399
49.713 645 25.3969
49.8304 642 25.3377
49.9479 654 25.5734
50.0653 663 25.7488
50.1827 571 23.8956
50.3001 585 24.1868
50.4175 548 23.4094
50.5348 568 23.8328
50.6521 611 24.7184
50.7694 622 24.9399
50.8867 662 25.7294
51.004 683 26.1343
51.1212 695 26.3629
51.2384 624 24.98
51.3556 709 26.6271
51.4727 764 27.6405
51.5899 729 27
51.707 786 28.0357
51.824 767 27.6948
51.9411 775 27.8388
52.0581 792 28.1425
52.175 860 29.3258
52.2919 777 27.8747
52.4088 818 28.6007
52.5257 775 27.8388
52.6425 801 28.3019
52.7593 816 28.5657
52.876 877 29.6142
52.9927 814 28.5307
53.1094 810 28.4605
53.226 859 29.3087
53.3426 874 29.5635
53.4591 880 29.6648
53.5756 870 29.4958
53.692 922 30.3645
53.8084 849 29.1376
53.9248 762 27.6043
54.0411 684 26.1534
54.1573 696 26.3818
54.2735 0 1
54.3896 0 1
54.5057 0 1
54.6217 0 1
54.7377 0 1
54.8537 0 1
54.9695 0 1
55.0853 0 1
55.2011 0 1
55.3168 0 1
55.4324 0 1
57.824 0 1
57.9396 0 1
58.0553 0 1
58.1711 0 1
58.2869 0 1
58.4028 0 1
58.5187 0 1
58.6347 0 1
58.7508 0 1
58.8669 0 1
58.983 908 30.133
59.0992 831 28.8271
59.2155 822 28.6705
59.3318 803 28.3373
59.4482 824 28.7054
59.5646 884 29.7321
59.681 893 29.8831
59.7975 886 29.7658
59.9141 862 29.3598
60.0306 935 30.5778
60.1473 902 30.0333
60.2639 919 30.315
60.3807 939 30.6431
60.4974 917 30.282
60.6142 977 31.257
60.731 883 29.7153
60.8479 872 29.5296
60.9648 922 30.3645
61.0818 938 30.6268
61.1987 928 30.4631
61.3158 918 30.2985
61.4328 919 30.315
61.5499 855 29.2404
61.667 828 28.775
61.7841 902 30.0333
61.9013 928 30.4631
62.0185 890 29.8329
62.1357 936 30.5941
62.253 811 28.4781
62.3702 838 28.9482
62.4875 802 28.3196
62.6049 795 28.1957
62.7222 704 26.533
62.8396 768 27.7128
62.9569 760 27.5681
63.0743 783 27.9821
63.1918 764 27.6405
63.3092 730 27.0185
63.4267 778 27.8927
63.5441 825 28.7228
63.6616 763 27.6225
63.7791 767 27.6948
63.8966 806 28.3901
64.0142 823 28.688
64.1317 793 28.1603
64.2492 791 28.1247
64.3668 738 27.1662
64.4843 800 28.2843
64.6019 758 27.5318
64.7195 758 27.5318
64.837 797 28.2312
64.9546 777 27.8747
65.0722 744 27.2764
65.1898 766 27.6767
65.3074 785 28.0179
65.4249 760 27.5681
65.5425 770 27.7489
65.6601 755 27.4773
65.7777 749 27.3679
65.8952 725 26.9258
66.0128 754 27.4591
66.1304 678 26.0384
66.2479 620 24.8998
66.3655 584 24.1661
66.483 611 24.7184
66.6005 656 25.6125
66.718 666 25.807
66.8355 711 26.6646
66.953 673 25.9422
67.0705 737 27.1477
67.1879 758 27.5318
67.3054 720 26.8328
67.4228 708 26.6083
67.5402 743 27.258
67.6576 683 26.1343
67.7749 682 26.1151
67.8923 752 27.4226
68.0096 662 25.7294
68.1269 707 26.5895
68.2442 625 25
68.3614 678 26.0384
68.4787 679 26.0576
68.5958 704 26.533
68.713 680 26.0768
68.8302 721 26.8514
68.9473 686 26.1916
69.0643 700 26.4575
69.1814 703 26.5141
69.2984 693 26.3249
69.4154 691 26.2869
69.5323 669 25.865
69.6492 717 26.7769
69.7661 637 25.2389
69.8829 652 25.5343
69.9997 571 23.8956
70.1165 612 24.7386
70.2332 577 24.0208
70.3499 604 24.5764
70.4665 608 24.6577
70.5831 603 24.5561
70.6996 656 25.6125
70.8161 645 25.3969
70.9326 663 25.7488
71.049 621 24.9199
71.1653 663 25.7488
71.2817 613 24.7588
71.3979 656 25.6125
71.5141 619 24.8797
71.6303 571 23.8956
71.7464 516 22.7156
71.8624 0 1
71.9784 0 1
72.0944 0 1
72.2102 0 1
72.3261 0 1
72.4418 0 1
72.5575 0 1
72.6732 0 1
75.1054 0 1
75.2209 0 1
75.3365 0 1
75.4521 0 1
75.5678 0 1
75.6835 0 1
75.7993 0 1
75.9151 0 1
76.031 0 1
76.147 460 21.4476
76.263 487 22.0681
76.3791 487 22.0681
76.4952 483 21.9773
76.6113 459 21.4243
76.7276 529 23
76.8438 511 22.6053
76.9601 484 22
77.0765 495 22.2486
77.1929 472 21.7256
77.3093 482 21.9545
77.4258 485 22.0227
77.5423 404 20.0998
77.6589 442 21.0238
77.7755 418 20.445
77.8921 424 20.5913
78.0088 445 21.095
78.1256 403 20.0749
78.2423 431 20.7605
78.3591 371 19.2614
78.4759 389 19.7231
78.5928 435 20.8567
78.7097 426 20.6398
78.8266 384 19.5959
78.9436 368 19.1833
79.0606 346 18.6011
79.1776 266 16.3095
79.2946 259 16.0935
79.4117 308 17.5499
79.5288 358 18.9209
79.6459 358 18.9209
79.7631 334 18.2757
79.8802 310 17.6068
79.9974 310 17.6068
80.1147 317 17.8045
80.2319 318 17.8326
80.3491 306 17.4929
80.4664 267 16.3401
80.5837 301 17.3494
80.701 287 16.9411
80.8183 288 16.9706
80.9357 280 16.7332
81.053 289 17
81.1704 282 16.7929
81.2877 255 15.9687
81.4051 227 15.0665
81.5225 253 15.906
81.6399 183 13.5277
81.7573 226 15.0333
81.8747 233 15.2643
81.9922 217 14.7309
82.1096 219 14.7986
82.227 210 14.4914
82.3444 189 13.7477
82.4619 211 14.5258
82.5793 162 12.7279
82.6967 168 12.9615
82.8142 169 13
82.9316 134 11.5758
83.049 154 12.4097
83.1664 173 13.1529
83.2838 147 12.1244
83.4012 148 12.1655
83.5186 149 12.2066
83.636 115 10.7238
83.7534 135 11.619
83.8708 95 9.74679
83.9881 117 10.8167
84.1055 95 9.74679
84.2228 112 10.583
84.3401 109 10.4403
84.4575 116 10.7703
84.5747 74 8.60233
84.692 100 10
84.8093 91 9.53939
84.9265 89 9.43398
85.0437 95 9.74679
85.1609 79 8.88819
85.2781 78 8.83176
85.3952 87 9.32738
85.5123 74 8.60233
85.6294 81 9
85.7465 91 9.53939
85.8636 79 8.88819
85.9806 85 9.21954
86.0976 60 7.74597
86.2145 52 7.2111
86.3315 68 8.24621
86.4484 104 10.198
86.5652 107 10.3441
86.682 100 10
86.7988 108 10.3923
86.9156 104 10.198
87.0323 116 10.7703
87.149 133 11.5326
87.2657 148 12.1655
87.3823 123 11.0905
87.4988 150 12.2474
87.6154 143 11.9583
87.7318 140 11.8322
87.8483 170 13.0384
87.9647 159 12.6095
88.081 178 13.3417
88.1973 195 13.9642
88.3136 185 13.6015
88.4298 190 13.784
88.546 225 15
88.6621 217 14.7309
88.7781 226 15.0333
88.8942 0 1
89.0101 0 1
89.126 0 1
89.2419 0 1
89.3577 0 1
89.4734 0 1
89.5891 0 1
89.7047 0 1
89.8203 0 1
89.9358 0 1
92.3269 0 1
92.4424 0 1
92.558 0 1
92.6736 0 1
92.7893 0 1
92.905 0 1
93.0208 0 1
93.1366 0 1
93.2525 0 1
93.3685 0 1
93.4845 0 1
93.6005 368 19.1833
93.7167 382 19.5448
93.8328 390 19.7484
93.949 329 18.1384
94.0653 355 18.8414
94.1816 347 18.6279
94.2979 306 17.4929
94.4143 308 17.5499
94.5307 296 17.2047
94.6472 279 16.7033
94.7637 273 16.5227
94.8803 281 16.7631
94.9969 276 16.6132
95.1135 252 15.8745
95.2302 296 17.2047
95.3469 231 15.1987
95.4637 187 13.6748
95.5805 171 13.0767
95.6973 234 15.2971
95.8142 289 17
95.9311 339 18.412
96.048 342 18.4932
96.1649 312 17.6635
96.2819 353 18.7883
96.3989 354 18.8149
96.516 344 18.5472
96.633 359 18.9473
96.7501 370 19.2354
96.8673 364 19.0788
96.9844 349 18.6815
97.1016 416 20.3961
97.2188 408 20.199
97.336 395 19.8746
97.4532 412 20.2978
97.5704 453 21.2838
97.6877 437 20.9045
97.805 449 21.1896
97.9223 451 21.2368
98.0396 482 21.9545
98.1569 467 21.6102
98.2743 477 21.8403
98.3916 518 22.7596
98.509 546 23.3666
98.6264 501 22.383
98.7438 530 23.0217
98.8612 531 23.0434
98.9786 473 21.7486
99.096 389 19.7231
99.2134 351 18.735
99.3308 510 22.5832
99.4482 583 24.1454
99.5656 649 25.4755
99.6831 611 24.7184
99.8005 571 23.8956
99.9179 590 24.2899
100.035 657 25.632
100.153 634 25.1794
100.27 658 25.6515
100.388 679 26.0576
100.505 641 25.318
100.622 637 25.2389
100.74 675 25.9808
100.857 706 26.5707
100.975 674 25.9615
101.092 733 27.074
101.209 708 26.6083
101.327 703 26.5141
101.444 690 26.2679
101.561 673 25.9422
101.679 720 26.8328
101.796 675 25.9808
101.913 698 26.4197
102.03 704 26.533
102.148 731 27.037
102.265 798 28.2489
102.382 698 26.4197
102.499 697 26.4008
102.616 551 23.4734
102.733 484 22
102.851 577 24.0208
102.968 722 26.8701
103.085 738 27.1662
103.202 718 26.7955
103.319 773 27.8029
103.436 740 27.2029
103.552 798 28.2489
103.669 766 27.6767
103.786 756 27.4955
103.903 759 27.55
104.02 761 27.5862
104.137 766 27.6767
104.253 766 27.6767
104.37 726 26.9444
104.487 749 27.3679
104.603 749 27.3679
104.72 778 27.8927
104.836 757 27.5136
104.953 796 28.2135
105.069 776 27.8568
105.186 787 28.0535
105.302 839 28.9655
105.418 807 28.4077
105.535 752 27.4226
105.651 817 28.5832
105.767 809 28.4429
105.883 702 26.4953
105.999 634 25.1794
106.115 0 1
106.231 0 1
106.347 0 1
106.463 0 1
106.579 0 1
106.694 0 1
106.81 0 1
106.926 0 1
107.041 0 1
107.157 0 1
109.576 0 1
109.692 0 1
109.807 0 1
109.923 0 1
110.039 0 1
110.155 0 1
110.27 0 1
110.386 0 1
110.502 0 1
110.618 594 24.3721
110.735 573 23.9374
110.851 577 24.0208
110.967 585 24.1868
111.083 528 22.9783
111.199 464 21.5407
111.316 473 21.7486
111.432 469 21.6564
111.549 503 22.4277
111.665 529 23
111.782 557 23.6008
111.898 588 24.2487
112.015 547 23.388
112.132 541 23.2594
112.248 511 22.6053
112.365 541 23.2594
112.482 545 23.3452
112.599 468 21.6333
112.716 502 22.4054
112.832 461 21.4709
112.949 471 21.7025
113.066 470 21.6795
113.183 445 21.095
113.3 493 22.2036
113.417 447 21.1424
113.534 458 21.4009
113.652 478 21.8632
113.769 462 21.4942
113.886 473 21.7486
114.003 439 20.9523
114.12 453 21.2838
114.238 397 19.9249
114.355 411 20.2731
114.472 401 20.025
114.589 419 20.4695
114.707 357 18.8944
114.824 355 18.8414
114.942 328 18.1108
115.059 401 20.025
115.176 451 21.2368
115.294 429 20.7123
115.411 412 20.2978
115.529 376 19.3907
115.646 398 19.9499
115.764 378 19.4422
115.881 396 19.8997
115.999 390 19.7484
116.116 404 20.0998
116.234 422 20.5426
116.351 386 19.6469
116.469 401 20.025
116.586 460 21.4476
116.704 430 20.7364
116.821 419 20.4695
116.939 391 19.7737
117.056 402 20.0499
117.174 382 19.5448
117.291 426 20.6398
117.409 399 19.975
117.526 405 20.1246
117.644 385 19.6214
117.761 390 19.7484
117.879 364 19.0788
117.996 341 18.4662
118.114 301 17.3494
118.231 343 18.5203
118.349 373 19.3132
118.466 391 19.7737
118.584 405 20.1246
118.701 339 18.412
118.819 398 19.9499
118.936 443 21.0476
119.053 425 20.6155
119.171 391 19.7737
119.288 455 21.3307
119.405 413 20.3224
119.523 421 20.5183
119.64 440 20.9762
119.757 448 21.166
119.875 434 20.8327
119.992 416 20.3961
120.109 421 20.5183
120.226 440 20.9762
120.343 433 20.8087
120.46 424 20.5913
120.578 425 20.6155
120.695 412 20.2978
120.812 463 21.5174
120.929 453 21.2838
121.046 440 20.9762
121.163 445 21.095
121.279 392 19.799
121.396 439 20.9523
121.513 409 20.2237
121.63 348 18.6548
121.747 294 17.1464
121.863 296 17.2047
121.98 365 19.105
122.097 384 19.5959
122.213 425 20.6155
122.33 423 20.567
122.446 450 21.2132
122.563 454 21.3073
122.679 463 21.5174
122.795 526 22.9347
122.912 445 21.095
123.028 504 22.4499
123.144 465 21.5639
123.26 462 21.4942
123.377 0 1
123.493 0 1
123.609 0 1
123.725 0 1
123.84 0 1
123.956 0 1
124.072 0 1
124.188 0 1
124.303 0 1
124.419 0 1
126.852 0 1
126.968 0 1
127.083 0 1
127.199 0 1
127.315 0 1
127.431 0 1
127.547 0 1
127.663 0 1
127.779 0 1
127.895 0 1
128.011 0 1
128.127 0 1
128.243 0 1
128.359 623 24.96
128.476 579 24.0624
128.592 636 25.219
128.708 621 24.9199
128.825 636 25.219
128.941 648 25.4558
129.058 609 24.6779
129.174 601 24.5153
129.291 643 25.3574
129.408 624 24.98
129.524 616 24.8193
129.641 612 24.7386
129.758 600 24.4949
129.875 625 25
129.992 639 25.2784
130.108 581 24.1039
130.225 590 24.2899
130.342 565 23.7697
130.459 487 22.0681
130.576 423 20.567
130.693 455 21.3307
130.81 444 21.0713
130.928 464 21.5407
131.045 494 22.2261
131.162 644 25.3772
131.279 629 25.0799
131.396 612 24.7386
131.513 603 24.5561
131.631 630 25.0998
131.748 618 24.8596
131.865 631 25.1197
131.983 687 26.2107
132.1 689 26.2488
132.217 695 26.3629
132.335 667 25.8263
132.452 688 26.2298
132.57 659 25.671
132.687 563 23.7276
132.804 688 26.2298
132.922 648 25.4558
133.039 667 25.8263
133.157 657 25.632
133.274 650 25.4951
133.392 675 25.9808
133.509 634 25.1794
133.627 657 25.632
133.744 691 26.2869
133.862 635 25.1992
133.979 602 24.5357
134.097 503 22.4277
134.214 548 23.4094
134.332 446 21.1187
134.449 475 21.7945
134.567 500 22.3607
134.684 593 24.3516
134.802 662 25.7294
134.919 684 26.1534
135.037 687 26.2107
135.154 732 27.0555
135.272 778 27.8927
135.389 684 26.1534
135.507 718 26.7955
135.624 684 26.1534
135.742 723 26.8887
135.859 723 26.8887
135.977 742 27.2397
136.094 700 26.4575
136.211 735 27.1109
136.329 714 26.7208
136.446 777 27.8747
136.564 718 26.7955
136.681 752 27.4226
136.798 729 27
136.915 700 26.4575
137.033 720 26.8328
137.15 732 27.0555
137.267 760 27.5681
137.384 743 27.258
137.502 671 25.9037
137.619 637 25.2389
137.736 598 24.454
137.853 526 22.9347
137.97 510 22.5832
138.087 573 23.9374
138.204 573 23.9374
138.321 661 25.7099
138.438 659 25.671
138.555 737 27.1477
138.672 749 27.3679
138.788 720 26.8328
138.905 766 27.6767
139.022 805 28.3725
139.139 792 28.1425
139.255 780 27.9285
139.372 781 27.9464
139.488 828 28.775
139.605 815 28.5482
139.721 810 28.4605
139.838 794 28.178
139.954 750 27.3861
140.071 840 28.9828
140.187 764 27.6405
140.303 822 28.6705
140.419 820 28.6356
140.535 785 28.0179
140.652 755 27.4773
140.768 0 1
140.884 0 1
141 0 1
141.115 0 1
141.231 0 1
141.347 0 1
141.463 0 1
141.578 0 1
141.694 0 1
144.104 0 1
144.219 0 1
144.335 0 1
144.45 0 1
144.566 0 1
144.682 0 1
144.798 0 1
144.914 0 1
145.03 0 1
145.146 764 27.6405
145.262 772 27.7849
145.378 784 28
145.494 767 27.6948
145.61 786 28.0357
145.726 722 26.8701
145.842 752 27.4226
145.959 708 26.6083
146.075 718 26.7955
146.192 650 25.4951
146.308 634 25.1794
146.425 615 24.7992
146.541 632 25.1396
146.658 561 23.6854
146.774 563 23.7276
146.891 613 24.7588
147.008 663 25.7488
147.125 694 26.3439
147.241 692 26.3059
147.358 729 27
147.475 756 27.4955
147.592 765 27.6586
147.709 732 27.0555
147.826 760 27.5681
147.943 802 28.3196
148.06 744 27.2764
148.177 778 27.8927
148.294 722 26.8701
148.411 748 27.3496
148.528 745 27.2947
148.645 683 26.1343
148.762 731 27.037
148.88 703 26.5141
148.997 760 27.5681
149.114 792 28.1425
149.231 730 27.0185
149.349 711 26.6646
149.466 723 26.8887
149.583 662 25.7294
149.701 714 26.7208
149.818 656 25.6125
149.935 627 25.04
150.053 586 24.2074
150.17 612 24.7386
150.287 652 25.5343
150.405 608 24.6577
150.522 616 24.8193
150.64 665 25.7876
150.757 678 26.0384
150.875 715 26.7395
150.992 697 26.4008
151.11 731 27.037
151.227 724 26.9072
151.344 772 27.7849
151.462 735 27.1109
151.579 790 28.1069
151.697 745 27.2947
151.814 777 27.8747
151.932 776 27.8568
152.049 747 27.3313
152.167 768 27.7128
152.284 775 27.8388
152.402 785 28.0179
152.519 754 27.4591
152.636 748 27.3496
152.754 751 27.4044
152.871 765 27.6586
152.989 776 27.8568
153.106 780 27.9285
153.223 670 25.8844
153.341 697 26.4008
153.458 672 25.923
153.575 648 25.4558
153.693 660 25.6905
153.81 648 25.4558
153.927 657 25.632
154.044 631 25.1197
154.162 683 26.1343
154.279 744 27.2764
154.396 729 27
154.513 788 28.0713
154.63 779 27.9106
154.747 824 28.7054
154.864 767 27.6948
154.981 791 28.1247
155.098 808 28.4253
155.215 776 27.8568
155.332 825 28.7228
155.449 808 28.4253
155.566 812 28.4956
155.683 828 28.775
155.8 847 29.1033
155.917 791 28.1247
156.033 832 28.8444
156.15 0 1
156.267 0 1
156.383 0 1
156.5 0 1
156.617 0 1
156.733 0 1
156.85 0 1
156.966 0 1
157.082 0 1
157.199 0 1
157.315 0 1
157.431 0 1
157.547 0 1
157.664 0 1
157.78 0 1
157.896 0 1
158.012 0 1
158.128 0 1
158.244 0 1
158.359 0 1
158.475 0 1
158.591 0 1
158.706 0 1
