
6.15755 0 1
6.2731 0 1
6.3887 0 1
6.50437 0 1
6.62009 0 1
6.73587 0 1
6.8517 0 1
6.96759 0 1
7.08353 0 1
7.19952 0 1
7.31557 0 1
7.43166 0 1
7.54781 0 1
7.664 0 1
7.78024 0 1
7.89653 0 1
8.01286 0 1
8.12924 0 1
8.24567 0 1
8.36213 0 1
8.47864 0 1
8.59519 0 1
8.71178 0 1
8.82841 0 1
8.94508 0 1
9.06179 0 1
9.17853 0 1
9.29531 0 1
9.41212 0 1
9.52897 0 1
9.64584 0 1
9.76276 0 1
9.8797 0 1
9.99667 0 1
10.1137 0 1
10.2307 0 1
10.3478 0 1
10.4648 0 1
10.5819 0 1
10.6991 0 1
10.8162 0 1
10.9334 0 1
11.0506 0 1
11.1678 0 1
11.285 0 1
11.4023 0 1
11.5196 0 1
11.6369 0 1
11.7542 0 1
11.8715 0 1
11.9888 0 1
12.1062 0 1
12.2235 0 1
12.3409 0 1
12.4582 0 1
12.5756 0 1
12.693 0 1
12.8104 0 1
12.9278 0 1
13.0452 0 1
13.1626 0 1
13.28 0 1
13.3974 0 1
13.5149 0 1
13.6323 0 1
13.7497 0 1
13.8671 0 1
13.9845 0 1
14.1019 0 1
14.2193 0 1
14.3367 0 1
14.4541 0 1
14.5714 0 1
14.6888 0 1
14.8062 0 1
14.9235 0 1
15.0408 903 30.05
15.1581 893 29.8831
15.2755 1003 31.6702
15.3927 987 31.4166
15.51 943 30.7083
15.6273 923 30.3809
15.7445 936 30.5941
15.8617 924 30.3974
15.9789 876 29.5973
16.0961 860 29.3258
16.2132 928 30.4631
16.3304 931 30.5123
16.4475 938 30.6268
16.5646 1010 31.7805
16.6816 974 31.209
16.7986 965 31.0644
16.9156 1008 31.749
17.0326 1048 32.3728
17.1496 1045 32.3265
17.2665 1028 32.0624
17.3833 1037 32.2025
17.5002 997 31.5753
17.617 917 30.282
17.7338 983 31.3528
17.8505 939 30.6431
17.9672 901 30.0167
18.0839 898 29.9666
18.2005 930 30.4959
18.3171 921 30.348
18.4337 904 30.0666
18.5502 907 30.1164
18.6666 957 30.9354
18.7831 969 31.1288
18.8994 981 31.3209
19.0158 910 30.1662
19.1321 947 30.7734
19.2483 898 29.9666
19.3645 875 29.5804
19.4806 813 28.5132
19.5967 791 28.1247
19.7128 700 26.4575
19.8288 674 25.9615
19.9447 632 25.1396
20.0606 0 1
20.1764 0 1
20.2922 0 1
20.4079 0 1
20.5236 0 1
20.6392 0 1
20.7548 0 1
20.8702 0 1
23.3078 0 1
23.4233 0 1
23.539 0 1
23.6547 0 1
23.7704 0 1
23.8862 0 1
24.0021 0 1
24.118 0 1
24.234 0 1
24.35 0 1
24.4661 358 18.9209
24.5822 369 19.2094
24.6984 428 20.6882
24.8146 499 22.3383
24.9309 546 23.3666
25.0472 669 25.865
25.1636 683 26.1343
25.28 719 26.8142
25.3965 819 28.6182
25.513 859 29.3087
25.6296 854 29.2233
25.7462 936 30.5941
25.8628 959 30.9677
25.9795 978 31.273
26.0962 972 31.1769
26.213 893 29.8831
26.3298 839 28.9655
26.4466 827 28.7576
26.5635 789 28.0891
26.6804 794 28.178
26.7973 819 28.6182
26.9143 839 28.9655
27.0313 796 28.2135
27.1483 866 29.4279
27.2653 806 28.3901
27.3824 809 28.4429
27.4996 803 28.3373
27.6167 808 28.4253
27.7339 769 27.7308
27.8511 769 27.7308
27.9683 786 28.0357
28.0855 721 26.8514
28.2028 734 27.0924
28.3201 715 26.7395
28.4374 763 27.6225
28.5547 770 27.7489
28.6721 772 27.7849
28.7894 768 27.7128
28.9068 798 28.2489
29.0242 778 27.8927
29.1416 791 28.1247
29.259 851 29.1719
29.3764 788 28.0713
29.4939 804 28.3549
29.6113 802 28.3196
29.7288 797 28.2312
29.8463 770 27.7489
29.9638 764 27.6405
30.0812 707 26.5895
30.1987 721 26.8514
30.3162 727 26.9629
30.4337 737 27.1477
30.5512 742 27.2397
30.6687 732 27.0555
30.7862 740 27.2029
30.9037 769 27.7308
31.0212 795 28.1957
31.1387 789 28.0891
31.2562 725 26.9258
31.3737 668 25.8457
31.4912 695 26.3629
31.6087 703 26.5141
31.7262 693 26.3249
31.8436 641 25.318
31.9611 618 24.8596
32.0785 645 25.3969
32.1959 651 25.5147
32.3134 692 26.3059
32.4308 712 26.6833
32.5482 676 26
32.6655 724 26.9072
32.7829 697 26.4008
32.9002 736 27.1293
33.0176 723 26.8887
33.1349 712 26.6833
33.2522 696 26.3818
33.3694 666 25.807
33.4867 674 25.9615
33.6039 692 26.3059
33.7211 613 24.7588
33.8383 657 25.632
33.9554 661 25.7099
34.0725 622 24.9399
34.1896 650 25.4951
34.3067 654 25.5734
34.4237 668 25.8457
34.5407 699 26.4386
34.6577 663 25.7488
34.7746 662 25.7294
34.8915 666 25.807
35.0084 668 25.8457
35.1252 568 23.8328
35.242 591 24.3105
35.3587 595 24.3926
35.4755 610 24.6982
35.5921 573 23.9374
35.7088 526 22.9347
35.8254 582 24.1247
35.9419 591 24.3105
36.0584 592 24.3311
36.1749 656 25.6125
36.2913 636 25.219
36.4077 643 25.3574
36.524 610 24.6982
36.6403 535 23.1301
36.7565 540 23.2379
36.8727 561 23.6854
36.9889 467 21.6102
37.1049 442 21.0238
37.221 0 1
37.3369 0 1
37.4529 0 1
37.5687 0 1
37.6845 0 1
37.8003 0 1
37.916 0 1
38.0316 0 1
38.1472 0 1
40.5851 0 1
40.7008 0 1
40.8164 0 1
40.9322 0 1
41.048 0 1
41.1639 0 1
41.2798 0 1
41.3958 0 1
41.5118 0 1
41.6279 0 1
41.744 269 16.4012
41.8602 310 17.6068
41.9765 380 19.4936
42.0928 371 19.2614
42.2091 406 20.1494
42.3255 395 19.8746
42.4419 379 19.4679
42.5584 415 20.3715
42.675 439 20.9523
42.7915 418 20.445
42.9081 483 21.9773
43.0248 464 21.5407
43.1415 490 22.1359
43.2582 466 21.587
43.375 504 22.4499
43.4918 529 23
43.6087 526 22.9347
43.7256 494 22.2261
43.8425 491 22.1585
43.9595 439 20.9523
44.0765 455 21.3307
44.1935 438 20.9284
44.3106 460 21.4476
44.4277 416 20.3961
44.5448 447 21.1424
44.6619 443 21.0476
44.7791 448 21.166
44.8963 466 21.587
45.0136 491 22.1585
45.1308 454 21.3073
45.2481 477 21.8403
45.3654 493 22.2036
45.4827 457 21.3776
45.6001 462 21.4942
45.7174 507 22.5167
45.8348 439 20.9523
45.9522 491 22.1585
46.0697 444 21.0713
46.1871 415 20.3715
46.3046 450 21.2132
46.422 449 21.1896
46.5395 463 21.5174
46.657 460 21.4476
46.7745 465 21.5639
46.892 484 22
47.0096 485 22.0227
47.1271 491 22.1585
47.2446 504 22.4499
47.3622 474 21.7715
47.4797 484 22
47.5973 430 20.7364
47.7149 493 22.2036
47.8324 497 22.2935
47.95 484 22
48.0675 420 20.4939
48.1851 416 20.3961
48.3027 432 20.7846
48.4202 424 20.5913
48.5378 422 20.5426
48.6554 467 21.6102
48.7729 465 21.5639
48.8904 493 22.2036
49.008 460 21.4476
49.1255 500 22.3607
49.243 445 21.095
49.3605 445 21.095
49.478 464 21.5407
49.5955 435 20.8567
49.713 423 20.567
49.8304 453 21.2838
49.9479 399 19.975
50.0653 405 20.1246
50.1827 434 20.8327
50.3001 420 20.4939
50.4175 442 21.0238
50.5348 463 21.5174
50.6521 446 21.1187
50.7694 487 22.0681
50.8867 460 21.4476
51.004 445 21.095
51.1212 429 20.7123
51.2384 443 21.0476
51.3556 415 20.3715
51.4727 406 20.1494
51.5899 407 20.1742
51.707 408 20.199
51.824 392 19.799
51.9411 433 20.8087
52.0581 430 20.7364
52.175 451 21.2368
52.2919 441 21
52.4088 457 21.3776
52.5257 479 21.8861
52.6425 461 21.4709
52.7593 483 21.9773
52.876 427 20.664
52.9927 416 20.3961
53.1094 443 21.0476
53.226 390 19.7484
53.3426 397 19.9249
53.4591 415 20.3715
53.5756 385 19.6214
53.692 369 19.2094
53.8084 312 17.6635
53.9248 366 19.1311
54.0411 324 18
54.1573 317 17.8045
54.2735 0 1
54.3896 0 1
54.5057 0 1
54.6217 0 1
54.7377 0 1
54.8537 0 1
54.9695 0 1
55.0853 0 1
55.2011 0 1
55.3168 0 1
55.4324 0 1
57.824 0 1
57.9396 0 1
58.0553 0 1
58.1711 0 1
58.2869 0 1
58.4028 0 1
58.5187 0 1
58.6347 0 1
58.7508 0 1
58.8669 0 1
58.983 271 16.4621
59.0992 323 17.9722
59.2155 356 18.868
59.3318 427 20.664
59.4482 437 20.9045
59.5646 472 21.7256
59.681 486 22.0454
59.7975 491 22.1585
59.9141 518 22.7596
60.0306 514 22.6716
60.1473 462 21.4942
60.2639 480 21.9089
60.3807 456 21.3542
60.4974 430 20.7364
60.6142 501 22.383
60.731 479 21.8861
60.8479 548 23.4094
60.9648 562 23.7065
61.0818 543 23.3024
61.1987 561 23.6854
61.3158 555 23.5584
61.4328 575 23.9792
61.5499 567 23.8118
61.667 519 22.7816
61.7841 508 22.5389
61.9013 528 22.9783
62.0185 484 22
62.1357 507 22.5167
62.253 532 23.0651
62.3702 536 23.1517
62.4875 579 24.0624
62.6049 517 22.7376
62.7222 580 24.0832
62.8396 601 24.5153
62.9569 585 24.1868
63.0743 590 24.2899
63.1918 601 24.5153
63.3092 558 23.622
63.4267 582 24.1247
63.5441 546 23.3666
63.6616 513 22.6495
63.7791 499 22.3383
63.8966 454 21.3073
64.0142 455 21.3307
64.1317 435 20.8567
64.2492 471 21.7025
64.3668 528 22.9783
64.4843 546 23.3666
64.6019 571 23.8956
64.7195 567 23.8118
64.837 583 24.1454
64.9546 609 24.6779
65.0722 568 23.8328
65.1898 549 23.4307
65.3074 553 23.516
65.4249 511 22.6053
65.5425 495 22.2486
65.6601 517 22.7376
65.7777 516 22.7156
65.8952 487 22.0681
66.0128 564 23.7487
66.1304 574 23.9583
66.2479 551 23.4734
66.3655 650 25.4951
66.483 616 24.8193
66.6005 590 24.2899
66.718 592 24.3311
66.8355 578 24.0416
66.953 618 24.8596
67.0705 611 24.7184
67.1879 552 23.4947
67.3054 557 23.6008
67.4228 530 23.0217
67.5402 506 22.4944
67.6576 479 21.8861
67.7749 447 21.1424
67.8923 479 21.8861
68.0096 540 23.2379
68.1269 615 24.7992
68.2442 608 24.6577
68.3614 582 24.1247
68.4787 580 24.0832
68.5958 656 25.6125
68.713 584 24.1661
68.8302 562 23.7065
68.9473 531 23.0434
69.0643 506 22.4944
69.1814 540 23.2379
69.2984 515 22.6936
69.4154 542 23.2809
69.5323 542 23.2809
69.6492 575 23.9792
69.7661 603 24.5561
69.8829 601 24.5153
69.9997 626 25.02
70.1165 605 24.5967
70.2332 541 23.2594
70.3499 577 24.0208
70.4665 558 23.622
70.5831 501 22.383
70.6996 510 22.5832
70.8161 447 21.1424
70.9326 423 20.567
71.049 375 19.3649
71.1653 318 17.8326
71.2817 277 16.6433
71.3979 232 15.2315
71.5141 232 15.2315
71.6303 240 15.4919
71.7464 167 12.9228
71.8624 0 1
71.9784 0 1
72.0944 0 1
72.2102 0 1
72.3261 0 1
72.4418 0 1
72.5575 0 1
72.6732 0 1
75.1054 0 1
75.2209 0 1
75.3365 0 1
75.4521 0 1
75.5678 0 1
75.6835 0 1
75.7993 0 1
75.9151 0 1
76.031 0 1
76.147 365 19.105
76.263 363 19.0526
76.3791 407 20.1742
76.4952 426 20.6398
76.6113 347 18.6279
76.7276 414 20.347
76.8438 386 19.6469
76.9601 472 21.7256
77.0765 453 21.2838
77.1929 560 23.6643
77.3093 547 23.388
77.4258 560 23.6643
77.5423 507 22.5167
77.6589 588 24.2487
77.7755 515 22.6936
77.8921 518 22.7596
78.0088 455 21.3307
78.1256 429 20.7123
78.2423 414 20.347
78.3591 410 20.2485
78.4759 512 22.6274
78.5928 462 21.4942
78.7097 503 22.4277
78.8266 490 22.1359
78.9436 545 23.3452
79.0606 526 22.9347
79.1776 547 23.388
79.2946 585 24.1868
79.4117 552 23.4947
79.5288 511 22.6053
79.6459 553 23.516
79.7631 560 23.6643
79.8802 506 22.4944
79.9974 434 20.8327
80.1147 444 21.0713
80.2319 427 20.664
80.3491 425 20.6155
80.4664 378 19.4422
80.5837 446 21.1187
80.701 467 21.6102
80.8183 507 22.5167
80.9357 477 21.8403
81.053 505 22.4722
81.1704 487 22.0681
81.2877 509 22.561
81.4051 549 23.4307
81.5225 448 21.166
81.6399 452 21.2603
81.7573 406 20.1494
81.8747 427 20.664
81.9922 421 20.5183
82.1096 399 19.975
82.227 429 20.7123
82.3444 473 21.7486
82.4619 468 21.6333
82.5793 527 22.9565
82.6967 458 21.4009
82.8142 508 22.5389
82.9316 531 23.0434
83.049 508 22.5389
83.1664 500 22.3607
83.2838 489 22.1133
83.4012 503 22.4277
83.5186 461 21.4709
83.636 422 20.5426
83.7534 400 20
83.8708 367 19.1572
83.9881 336 18.3303
84.1055 361 19
84.2228 376 19.3907
84.3401 378 19.4422
84.4575 431 20.7605
84.5747 468 21.6333
84.692 495 22.2486
84.8093 492 22.1811
84.9265 454 21.3073
85.0437 428 20.6882
85.1609 423 20.567
85.2781 392 19.799
85.3952 368 19.1833
85.5123 337 18.3576
85.6294 332 18.2209
85.7465 345 18.5742
85.8636 404 20.0998
85.9806 420 20.4939
86.0976 411 20.2731
86.2145 422 20.5426
86.3315 398 19.9499
86.4484 459 21.4243
86.5652 412 20.2978
86.682 440 20.9762
86.7988 455 21.3307
86.9156 421 20.5183
87.0323 424 20.5913
87.149 395 19.8746
87.2657 378 19.4422
87.3823 348 18.6548
87.4988 304 17.4356
87.6154 293 17.1172
87.7318 262 16.1864
87.8483 280 16.7332
87.9647 304 17.4356
88.081 281 16.7631
88.1973 296 17.2047
88.3136 304 17.4356
88.4298 306 17.4929
88.546 264 16.2481
88.6621 235 15.3297
88.7781 173 13.1529
88.8942 0 1
89.0101 0 1
89.126 0 1
89.2419 0 1
89.3577 0 1
89.4734 0 1
89.5891 0 1
89.7047 0 1
89.8203 0 1
89.9358 0 1
92.3269 0 1
92.4424 0 1
92.558 0 1
92.6736 0 1
92.7893 0 1
92.905 0 1
93.0208 0 1
93.1366 0 1
93.2525 0 1
93.3685 0 1
93.4845 0 1
93.6005 251 15.843
93.7167 270 16.4317
93.8328 263 16.2173
93.949 279 16.7033
94.0653 290 17.0294
94.1816 329 18.1384
94.2979 361 19
94.4143 323 17.9722
94.5307 302 17.3781
94.6472 300 17.3205
94.7637 309 17.5784
94.8803 326 18.0555
94.9969 336 18.3303
95.1135 334 18.2757
95.2302 411 20.2731
95.3469 371 19.2614
95.4637 391 19.7737
95.5805 389 19.7231
95.6973 423 20.567
95.8142 402 20.0499
95.9311 363 19.0526
96.048 387 19.6723
96.1649 406 20.1494
96.2819 370 19.2354
96.3989 357 18.8944
96.516 351 18.735
96.633 326 18.0555
96.7501 304 17.4356
96.8673 279 16.7033
96.9844 286 16.9115
97.1016 254 15.9374
97.2188 338 18.3848
97.336 357 18.8944
97.4532 366 19.1311
97.5704 367 19.1572
97.6877 357 18.8944
97.805 387 19.6723
97.9223 360 18.9737
98.0396 317 17.8045
98.1569 312 17.6635
98.2743 317 17.8045
98.3916 282 16.7929
98.509 292 17.088
98.6264 269 16.4012
98.7438 326 18.0555
98.8612 356 18.868
98.9786 375 19.3649
99.096 398 19.9499
99.2134 387 19.6723
99.3308 370 19.2354
99.4482 405 20.1246
99.5656 384 19.5959
99.6831 386 19.6469
99.8005 401 20.025
99.9179 371 19.2614
100.035 357 18.8944
100.153 386 19.6469
100.27 332 18.2209
100.388 320 17.8885
100.505 317 17.8045
100.622 297 17.2337
100.74 307 17.5214
100.857 326 18.0555
100.975 352 18.7617
101.092 382 19.5448
101.209 403 20.0749
101.327 399 19.975
101.444 348 18.6548
101.561 361 19
101.679 324 18
101.796 311 17.6352
101.913 294 17.1464
102.03 309 17.5784
102.148 340 18.4391
102.265 321 17.9165
102.382 362 19.0263
102.499 338 18.3848
102.616 409 20.2237
102.733 359 18.9473
102.851 410 20.2485
102.968 401 20.025
103.085 393 19.8242
103.202 415 20.3715
103.319 417 20.4206
103.436 412 20.2978
103.552 363 19.0526
103.669 353 18.7883
103.786 313 17.6918
103.903 311 17.6352
104.02 263 16.2173
104.137 330 18.1659
104.253 352 18.7617
104.37 358 18.9209
104.487 350 18.7083
104.603 348 18.6548
104.72 368 19.1833
104.836 384 19.5959
104.953 367 19.1572
105.069 310 17.6068
105.186 274 16.5529
105.302 268 16.3707
105.418 234 15.2971
105.535 224 14.9666
105.651 250 15.8114
105.767 211 14.5258
105.883 257 16.0312
105.999 196 14
106.115 0 1
106.231 0 1
106.347 0 1
106.463 0 1
106.579 0 1
106.694 0 1
106.81 0 1
106.926 0 1
107.041 0 1
107.157 0 1
109.576 0 1
109.692 0 1
109.807 0 1
109.923 0 1
110.039 0 1
110.155 0 1
110.27 0 1
110.386 0 1
110.502 0 1
110.618 123 11.0905
110.735 175 13.2288
110.851 182 13.4907
110.967 254 15.9374
111.083 257 16.0312
111.199 288 16.9706
111.316 329 18.1384
111.432 315 17.7482
111.549 324 18
111.665 364 19.0788
111.782 340 18.4391
111.898 352 18.7617
112.015 341 18.4662
112.132 327 18.0831
112.248 274 16.5529
112.365 261 16.1555
112.482 304 17.4356
112.599 253 15.906
112.716 255 15.9687
112.832 294 17.1464
112.949 310 17.6068
113.066 318 17.8326
113.183 318 17.8326
113.3 314 17.72
113.417 369 19.2094
113.534 307 17.5214
113.652 305 17.4642
113.769 272 16.4924
113.886 286 16.9115
114.003 246 15.6844
114.12 250 15.8114
114.238 268 16.3707
114.355 321 17.9165
114.472 307 17.5214
114.589 348 18.6548
114.707 310 17.6068
114.824 337 18.3576
114.942 382 19.5448
115.059 358 18.9209
115.176 370 19.2354
115.294 378 19.4422
115.411 346 18.6011
115.529 337 18.3576
115.646 300 17.3205
115.764 311 17.6352
115.881 291 17.0587
115.999 241 15.5242
116.116 275 16.5831
116.234 258 16.0624
116.351 283 16.8226
116.469 281 16.7631
116.586 332 18.2209
116.704 274 16.5529
116.821 314 17.72
116.939 331 18.1934
117.056 337 18.3576
117.174 299 17.2916
117.291 290 17.0294
117.409 276 16.6132
117.526 300 17.3205
117.644 254 15.9374
117.761 273 16.5227
117.879 293 17.1172
117.996 323 17.9722
118.114 317 17.8045
118.231 325 18.0278
118.349 357 18.8944
118.466 303 17.4069
118.584 366 19.1311
118.701 342 18.4932
118.819 350 18.7083
118.936 373 19.3132
119.053 348 18.6548
119.171 332 18.2209
119.288 306 17.4929
119.405 279 16.7033
119.523 281 16.7631
119.64 226 15.0333
119.757 268 16.3707
119.875 264 16.2481
119.992 274 16.5529
120.109 282 16.7929
120.226 311 17.6352
120.343 276 16.6132
120.46 330 18.1659
120.578 291 17.0587
120.695 313 17.6918
120.812 312 17.6635
120.929 271 16.4621
121.046 264 16.2481
121.163 263 16.2173
121.279 263 16.2173
121.396 265 16.2788
121.513 275 16.5831
121.63 263 16.2173
121.747 264 16.2481
121.863 269 16.4012
121.98 275 16.5831
122.097 305 17.4642
122.213 258 16.0624
122.33 272 16.4924
122.446 246 15.6844
122.563 215 14.6629
122.679 229 15.1327
122.795 216 14.6969
122.912 184 13.5647
123.028 180 13.4164
123.144 157 12.53
123.26 144 12
123.377 0 1
123.493 0 1
123.609 0 1
123.725 0 1
123.84 0 1
123.956 0 1
124.072 0 1
124.188 0 1
124.303 0 1
124.419 0 1
126.852 0 1
126.968 0 1
127.083 0 1
127.199 0 1
127.315 0 1
127.431 0 1
127.547 0 1
127.663 0 1
127.779 0 1
127.895 0 1
128.011 0 1
128.127 0 1
128.243 0 1
128.359 320 17.8885
128.476 290 17.0294
128.592 312 17.6635
128.708 309 17.5784
128.825 287 16.9411
128.941 270 16.4317
129.058 294 17.1464
129.174 286 16.9115
129.291 309 17.5784
129.408 314 17.72
129.524 360 18.9737
129.641 338 18.3848
129.758 352 18.7617
129.875 336 18.3303
129.992 316 17.7764
130.108 267 16.3401
130.225 305 17.4642
130.342 283 16.8226
130.459 262 16.1864
130.576 311 17.6352
130.693 351 18.735
130.81 355 18.8414
130.928 333 18.2483
131.045 345 18.5742
131.162 344 18.5472
131.279 365 19.105
131.396 365 19.105
131.513 356 18.868
131.631 334 18.2757
131.748 372 19.2873
131.865 357 18.8944
131.983 336 18.3303
132.1 265 16.2788
132.217 290 17.0294
132.335 296 17.2047
132.452 299 17.2916
132.57 285 16.8819
132.687 285 16.8819
132.804 306 17.4929
132.922 309 17.5784
133.039 334 18.2757
133.157 313 17.6918
133.274 336 18.3303
133.392 347 18.6279
133.509 306 17.4929
133.627 310 17.6068
133.744 298 17.2627
133.862 285 16.8819
133.979 315 17.7482
134.097 331 18.1934
134.214 315 17.7482
134.332 297 17.2337
134.449 325 18.0278
134.567 345 18.5742
134.684 339 18.412
134.802 359 18.9473
134.919 363 19.0526
135.037 362 19.0263
135.154 359 18.9473
135.272 335 18.303
135.389 311 17.6352
135.507 341 18.4662
135.624 346 18.6011
135.742 347 18.6279
135.859 325 18.0278
135.977 304 17.4356
136.094 264 16.2481
136.211 288 16.9706
136.329 320 17.8885
136.446 351 18.735
136.564 327 18.0831
136.681 328 18.1108
136.798 320 17.8885
136.915 397 19.9249
137.033 369 19.2094
137.15 361 19
137.267 314 17.72
137.384 306 17.4929
137.502 289 17
137.619 290 17.0294
137.736 312 17.6635
137.853 317 17.8045
137.97 342 18.4932
138.087 312 17.6635
138.204 359 18.9473
138.321 333 18.2483
138.438 343 18.5203
138.555 383 19.5704
138.672 365 19.105
138.788 320 17.8885
138.905 320 17.8885
139.022 282 16.7929
139.139 271 16.4621
139.255 264 16.2481
139.372 263 16.2173
139.488 249 15.7797
139.605 211 14.5258
139.721 198 14.0712
139.838 204 14.2829
139.954 207 14.3875
140.071 209 14.4568
140.187 198 14.0712
140.303 148 12.1655
140.419 167 12.9228
140.535 148 12.1655
140.652 150 12.2474
140.768 0 1
140.884 0 1
141 0 1
141.115 0 1
141.231 0 1
141.347 0 1
141.463 0 1
141.578 0 1
141.694 0 1
144.104 0 1
144.219 0 1
144.335 0 1
144.45 0 1
144.566 0 1
144.682 0 1
144.798 0 1
144.914 0 1
145.03 0 1
145.146 215 14.6629
145.262 250 15.8114
145.378 274 16.5529
145.494 279 16.7033
145.61 245 15.6525
145.726 272 16.4924
145.842 256 16
145.959 261 16.1555
146.075 213 14.5945
146.192 247 15.7162
146.308 265 16.2788
146.425 249 15.7797
146.541 237 15.3948
146.658 253 15.906
146.774 263 16.2173
146.891 263 16.2173
147.008 235 15.3297
147.125 254 15.9374
147.241 273 16.5227
147.358 258 16.0624
147.475 282 16.7929
147.592 267 16.3401
147.709 258 16.0624
147.826 265 16.2788
147.943 257 16.0312
148.06 240 15.4919
148.177 239 15.4596
148.294 285 16.8819
148.411 218 14.7648
148.528 247 15.7162
148.645 234 15.2971
148.762 226 15.0333
148.88 273 16.5227
148.997 282 16.7929
149.114 238 15.4272
149.231 282 16.7929
149.349 289 17
149.466 293 17.1172
149.583 275 16.5831
149.701 240 15.4919
149.818 227 15.0665
149.935 210 14.4914
150.053 226 15.0333
150.17 250 15.8114
150.287 256 16
150.405 242 15.5563
150.522 238 15.4272
150.64 286 16.9115
150.757 236 15.3623
150.875 296 17.2047
150.992 274 16.5529
151.11 258 16.0624
151.227 250 15.8114
151.344 240 15.4919
151.462 301 17.3494
151.579 240 15.4919
151.697 276 16.6132
151.814 237 15.3948
151.932 270 16.4317
152.049 214 14.6287
152.167 225 15
152.284 246 15.6844
152.402 252 15.8745
152.519 262 16.1864
152.636 275 16.5831
152.754 274 16.5529
152.871 279 16.7033
152.989 303 17.4069
153.106 227 15.0665
153.223 249 15.7797
153.341 236 15.3623
153.458 220 14.8324
153.575 220 14.8324
153.693 221 14.8661
153.81 227 15.0665
153.927 255 15.9687
154.044 261 16.1555
154.162 283 16.8226
154.279 252 15.8745
154.396 272 16.4924
154.513 281 16.7631
154.63 243 15.5885
154.747 263 16.2173
154.864 274 16.5529
154.981 283 16.8226
155.098 252 15.8745
155.215 233 15.2643
155.332 233 15.2643
155.449 248 15.748
155.566 239 15.4596
155.683 209 14.4568
155.8 254 15.9374
155.917 210 14.4914
156.033 233 15.2643
156.15 0 1
156.267 0 1
156.383 0 1
156.5 0 1
156.617 0 1
156.733 0 1
156.85 0 1
156.966 0 1
157.082 0 1
157.199 0 1
157.315 0 1
157.431 0 1
157.547 0 1
157.664 0 1
157.78 0 1
157.896 0 1
158.012 0 1
158.128 0 1
158.244 0 1
158.359 0 1
158.475 0 1
158.591 0 1
158.706 0 1
