
6.15755 0 1
6.2731 0 1
6.3887 0 1
6.50437 0 1
6.62009 0 1
6.73587 0 1
6.8517 0 1
6.96759 0 1
7.08353 0 1
7.19952 0 1
7.31557 0 1
7.43166 0 1
7.54781 0 1
7.664 0 1
7.78024 0 1
7.89653 0 1
8.01286 0 1
8.12924 0 1
8.24567 0 1
8.36213 0 1
8.47864 0 1
8.59519 0 1
8.71178 0 1
8.82841 0 1
8.94508 0 1
9.06179 0 1
9.17853 0 1
9.29531 0 1
9.41212 0 1
9.52897 0 1
9.64584 0 1
9.76276 0 1
9.8797 0 1
9.99667 0 1
10.1137 0 1
10.2307 0 1
10.3478 0 1
10.4648 0 1
10.5819 0 1
10.6991 0 1
10.8162 0 1
10.9334 0 1
11.0506 0 1
11.1678 0 1
11.285 0 1
11.4023 0 1
11.5196 0 1
11.6369 0 1
11.7542 0 1
11.8715 0 1
11.9888 0 1
12.1062 0 1
12.2235 0 1
12.3409 0 1
12.4582 0 1
12.5756 0 1
12.693 0 1
12.8104 0 1
12.9278 0 1
13.0452 0 1
13.1626 0 1
13.28 0 1
13.3974 0 1
13.5149 0 1
13.6323 0 1
13.7497 0 1
13.8671 0 1
13.9845 0 1
14.1019 0 1
14.2193 0 1
14.3367 0 1
14.4541 0 1
14.5714 0 1
14.6888 0 1
14.8062 0 1
14.9235 0 1
15.0408 1586 39.8246
15.1581 1742 41.7373
15.2755 1829 42.7668
15.3927 1792 42.332
15.51 1784 42.2374
15.6273 1796 42.3792
15.7445 1781 42.2019
15.8617 1805 42.4853
15.9789 1797 42.391
16.0961 1727 41.5572
16.2132 1715 41.4126
16.3304 1844 42.9418
16.4475 1956 44.2267
16.5646 1933 43.9659
16.6816 2019 44.9333
16.7986 2043 45.1996
16.9156 2132 46.1736
17.0326 2055 45.3321
17.1496 2102 45.8476
17.2665 2070 45.4973
17.3833 2092 45.7384
17.5002 2013 44.8665
17.617 2018 44.9222
17.7338 1858 43.1045
17.8505 1799 42.4146
17.9672 1881 43.3705
18.0839 1830 42.7785
18.2005 1880 43.359
18.3171 1977 44.4635
18.4337 1932 43.9545
18.5502 2012 44.8553
18.6666 2105 45.8803
18.7831 2131 46.1628
18.8994 2167 46.551
19.0158 2031 45.0666
19.1321 2005 44.7772
19.2483 1936 44
19.3645 1874 43.2897
19.4806 1740 41.7133
19.5967 1514 38.9102
19.7128 1496 38.6782
19.8288 1384 37.2022
19.9447 1258 35.4683
20.0606 0 1
20.1764 0 1
20.2922 0 1
20.4079 0 1
20.5236 0 1
20.6392 0 1
20.7548 0 1
20.8702 0 1
23.3078 0 1
23.4233 0 1
23.539 0 1
23.6547 0 1
23.7704 0 1
23.8862 0 1
24.0021 0 1
24.118 0 1
24.234 0 1
24.35 0 1
24.4661 872 29.5296
24.5822 1000 31.6228
24.6984 1144 33.8231
24.8146 1265 35.5668
24.9309 1372 37.0405
25.0472 1472 38.3667
25.1636 1616 40.1995
25.28 1776 42.1426
25.3965 1902 43.6119
25.513 2070 45.4973
25.6296 2247 47.4025
25.7462 2184 46.7333
25.8628 2200 46.9042
25.9795 2259 47.5289
26.0962 2232 47.244
26.213 2104 45.8694
26.3298 1957 44.238
26.4466 1934 43.9773
26.5635 1918 43.795
26.6804 2030 45.0555
26.7973 1985 44.5533
26.9143 2027 45.0222
27.0313 2063 45.4203
27.1483 2003 44.7549
27.2653 2078 45.5851
27.3824 2178 46.669
27.4996 2118 46.0217
27.6167 2137 46.2277
27.7339 2118 46.0217
27.8511 2056 45.3431
27.9683 1981 44.5084
28.0855 1962 44.2945
28.2028 1892 43.4971
28.3201 1884 43.4051
28.4374 1824 42.7083
28.5547 1808 42.5206
28.6721 1902 43.6119
28.7894 1932 43.9545
28.9068 2102 45.8476
29.0242 2101 45.8367
29.1416 2210 47.0106
29.259 2267 47.613
29.3764 2240 47.3286
29.4939 2227 47.1911
29.6113 2084 45.6508
29.7288 2036 45.1221
29.8463 1902 43.6119
29.9638 1881 43.3705
30.0812 1814 42.5911
30.1987 1866 43.1972
30.3162 1760 41.9524
30.4337 1931 43.9431
30.5512 1953 44.1928
30.6687 1916 43.7721
30.7862 1976 44.4522
30.9037 2125 46.0977
31.0212 2090 45.7165
31.1387 2169 46.5725
31.2562 2056 45.3431
31.3737 1962 44.2945
31.4912 1918 43.795
31.6087 1970 44.3847
31.7262 1906 43.6578
31.8436 1804 42.4735
31.9611 1719 41.4608
32.0785 1841 42.9069
32.1959 1878 43.3359
32.3134 1869 43.2319
32.4308 1953 44.1928
32.5482 2139 46.2493
32.6655 2217 47.085
32.7829 2156 46.4327
32.9002 2083 45.6399
33.0176 2078 45.5851
33.1349 2081 45.618
33.2522 2039 45.1553
33.3694 2015 44.8888
33.4867 1877 43.3244
33.6039 1727 41.5572
33.7211 1807 42.5088
33.8383 1682 41.0122
33.9554 1831 42.7902
34.0725 1827 42.7434
34.1896 1867 43.2088
34.3067 1955 44.2154
34.4237 1834 42.8252
34.5407 2020 44.9444
34.6577 2003 44.7549
34.7746 2037 45.1331
34.8915 1993 44.643
35.0084 1933 43.9659
35.1252 1880 43.359
35.242 1845 42.9535
35.3587 1840 42.8952
35.4755 1816 42.6146
35.5921 1723 41.509
35.7088 1747 41.7971
35.8254 1683 41.0244
35.9419 1698 41.2068
36.0584 1799 42.4146
36.1749 1874 43.2897
36.2913 1865 43.1856
36.4077 1759 41.9404
36.524 1868 43.2204
36.6403 1765 42.0119
36.7565 1641 40.5093
36.8727 1652 40.6448
36.9889 1510 38.8587
37.1049 1339 36.5923
37.221 0 1
37.3369 0 1
37.4529 0 1
37.5687 0 1
37.6845 0 1
37.8003 0 1
37.916 0 1
38.0316 0 1
38.1472 0 1
40.5851 0 1
40.7008 0 1
40.8164 0 1
40.9322 0 1
41.048 0 1
41.1639 0 1
41.2798 0 1
41.3958 0 1
41.5118 0 1
41.6279 0 1
41.744 943 30.7083
41.8602 1085 32.9393
41.9765 1104 33.2265
42.0928 1131 33.6303
42.2091 1154 33.9706
42.3255 1237 35.171
42.4419 1205 34.7131
42.5584 1188 34.4674
42.675 1278 35.7491
42.7915 1391 37.2961
42.9081 1451 38.092
43.0248 1557 39.4588
43.1415 1598 39.975
43.2582 1633 40.4104
43.375 1728 41.5692
43.4918 1651 40.6325
43.6087 1604 40.05
43.7256 1638 40.4722
43.8425 1605 40.0625
43.9595 1599 39.9875
44.0765 1519 38.9744
44.1935 1536 39.1918
44.3106 1468 38.3145
44.4277 1325 36.4005
44.5448 1376 37.0945
44.6619 1434 37.8682
44.7791 1467 38.3014
44.8963 1587 39.8372
45.0136 1605 40.0625
45.1308 1693 41.1461
45.2481 1696 41.1825
45.3654 1640 40.4969
45.4827 1633 40.4104
45.6001 1678 40.9634
45.7174 1653 40.6571
45.8348 1539 39.2301
45.9522 1330 36.4692
46.0697 1369 37
46.1871 1401 37.4299
46.3046 1384 37.2022
46.422 1522 39.0128
46.5395 1612 40.1497
46.657 1659 40.7308
46.7745 1609 40.1123
46.892 1672 40.8901
47.0096 1608 40.0999
47.1271 1701 41.2432
47.2446 1775 42.1307
47.3622 1717 41.4367
47.4797 1700 41.2311
47.5973 1623 40.2865
47.7149 1581 39.7618
47.8324 1614 40.1746
47.95 1506 38.8072
48.0675 1551 39.3827
48.1851 1416 37.6298
48.3027 1555 39.4335
48.4202 1637 40.4599
48.5378 1603 40.0375
48.6554 1639 40.4846
48.7729 1701 41.2432
48.8904 1743 41.7493
49.008 1785 42.2493
49.1255 1768 42.0476
49.243 1614 40.1746
49.3605 1524 39.0384
49.478 1415 37.6165
49.5955 1358 36.8511
49.713 1377 37.108
49.8304 1378 37.1214
49.9479 1467 38.3014
50.0653 1563 39.5348
50.1827 1534 39.1663
50.3001 1758 41.9285
50.4175 1586 39.8246
50.5348 1818 42.638
50.6521 1782 42.2137
50.7694 1830 42.7785
50.8867 1861 43.1393
51.004 1799 42.4146
51.1212 1693 41.1461
51.2384 1758 41.9285
51.3556 1674 40.9145
51.4727 1640 40.4969
51.5899 1516 38.9358
51.707 1532 39.1408
51.824 1631 40.3856
51.9411 1852 43.0349
52.0581 1883 43.3935
52.175 2092 45.7384
52.2919 2051 45.288
52.4088 2103 45.8585
52.5257 2160 46.4758
52.6425 2264 47.5815
52.7593 2155 46.422
52.876 2108 45.913
52.9927 1987 44.5758
53.1094 1918 43.795
53.226 1779 42.1782
53.3426 1768 42.0476
53.4591 1683 41.0244
53.5756 1709 41.3401
53.692 1743 41.7493
53.8084 1686 41.0609
53.9248 1651 40.6325
54.0411 1625 40.3113
54.1573 1498 38.704
54.2735 0 1
54.3896 0 1
54.5057 0 1
54.6217 0 1
54.7377 0 1
54.8537 0 1
54.9695 0 1
55.0853 0 1
55.2011 0 1
55.3168 0 1
55.4324 0 1
57.824 0 1
57.9396 0 1
58.0553 0 1
58.1711 0 1
58.2869 0 1
58.4028 0 1
58.5187 0 1
58.6347 0 1
58.7508 0 1
58.8669 0 1
58.983 1339 36.5923
59.0992 1524 39.0384
59.2155 1611 40.1373
59.3318 1762 41.9762
59.4482 1828 42.7551
59.5646 1913 43.7379
59.681 1902 43.6119
59.7975 1948 44.1362
59.9141 1930 43.9318
60.0306 2001 44.7325
60.1473 1870 43.2435
60.2639 1823 42.6966
60.3807 1873 43.2782
60.4974 1829 42.7668
60.6142 1945 44.1022
60.731 2017 44.911
60.8479 2118 46.0217
60.9648 2152 46.3897
61.0818 2149 46.3573
61.1987 2148 46.3465
61.3158 2128 46.1303
61.4328 1995 44.6654
61.5499 1903 43.6234
61.667 1794 42.3556
61.7841 1693 41.1461
61.9013 1631 40.3856
62.0185 1697 41.1947
62.1357 1715 41.4126
62.253 1918 43.795
62.3702 1945 44.1022
62.4875 2005 44.7772
62.6049 2111 45.9456
62.7222 2073 45.5302
62.8396 2150 46.3681
62.9569 2086 45.6727
63.0743 2123 46.076
63.1918 2075 45.5522
63.3092 2081 45.618
63.4267 1929 43.9204
63.5441 1909 43.6921
63.6616 1807 42.5088
63.7791 1803 42.4617
63.8966 1809 42.5323
64.0142 1767 42.0357
64.1317 1793 42.3438
64.2492 2007 44.7996
64.3668 2071 45.5082
64.4843 2024 44.9889
64.6019 2191 46.8081
64.7195 2095 45.7712
64.837 2057 45.3542
64.9546 2111 45.9456
65.0722 2057 45.3542
65.1898 1822 42.6849
65.3074 1663 40.7799
65.4249 1607 40.0874
65.5425 1548 39.3446
65.6601 1605 40.0625
65.7777 1816 42.6146
65.8952 1822 42.6849
66.0128 1779 42.1782
66.1304 1972 44.4072
66.2479 1949 44.1475
66.3655 2059 45.3762
66.483 2007 44.7996
66.6005 2093 45.7493
66.718 1982 44.5197
66.8355 2061 45.3982
66.953 1962 44.2945
67.0705 1982 44.5197
67.1879 1895 43.5316
67.3054 1792 42.332
67.4228 1689 41.0974
67.5402 1608 40.0999
67.6576 1625 40.3113
67.7749 1821 42.6732
67.8923 1828 42.7551
68.0096 1903 43.6234
68.1269 2015 44.8888
68.2442 2059 45.3762
68.3614 1970 44.3847
68.4787 2041 45.1774
68.5958 2015 44.8888
68.713 1898 43.566
68.8302 1774 42.1189
68.9473 1676 40.939
69.0643 1558 39.4715
69.1814 1395 37.3497
69.2984 1557 39.4588
69.4154 1636 40.4475
69.5323 1742 41.7373
69.6492 1742 41.7373
69.7661 1948 44.1362
69.8829 1926 43.8862
69.9997 1891 43.4856
70.1165 1871 43.2551
70.2332 1797 42.391
70.3499 1724 41.5211
70.4665 1608 40.0999
70.5831 1546 39.3192
70.6996 1430 37.8153
70.8161 1318 36.3043
70.9326 1239 35.1994
71.049 1053 32.45
71.1653 927 30.4467
71.2817 794 28.178
71.3979 770 27.7489
71.5141 784 28
71.6303 686 26.1916
71.7464 693 26.3249
71.8624 0 1
71.9784 0 1
72.0944 0 1
72.2102 0 1
72.3261 0 1
72.4418 0 1
72.5575 0 1
72.6732 0 1
75.1054 0 1
75.2209 0 1
75.3365 0 1
75.4521 0 1
75.5678 0 1
75.6835 0 1
75.7993 0 1
75.9151 0 1
76.031 0 1
76.147 1215 34.8569
76.263 1316 36.2767
76.3791 1300 36.0555
76.4952 1319 36.318
76.6113 1357 36.8375
76.7276 1444 38
76.8438 1512 38.8844
76.9601 1659 40.7308
77.0765 1681 41
77.1929 1729 41.5812
77.3093 1753 41.8688
77.4258 1778 42.1663
77.5423 1829 42.7668
77.6589 1649 40.6079
77.7755 1528 39.0896
77.8921 1324 36.3868
78.0088 1318 36.3043
78.1256 1246 35.2987
78.2423 1215 34.8569
78.3591 1375 37.081
78.4759 1521 39
78.5928 1533 39.1535
78.7097 1655 40.6817
78.8266 1736 41.6653
78.9436 1722 41.497
79.0606 1771 42.0833
79.1776 1815 42.6028
79.2946 1790 42.3084
79.4117 1784 42.2374
79.5288 1803 42.4617
79.6459 1767 42.0357
79.7631 1745 41.7732
79.8802 1684 41.0366
79.9974 1572 39.6485
80.1147 1406 37.4967
80.2319 1472 38.3667
80.3491 1462 38.2361
80.4664 1627 40.3361
80.5837 1676 40.939
80.701 1770 42.0714
80.8183 1797 42.391
80.9357 1891 43.4856
81.053 1842 42.9185
81.1704 1890 43.4741
81.2877 1812 42.5676
81.4051 1767 42.0357
81.5225 1551 39.3827
81.6399 1505 38.7943
81.7573 1314 36.2491
81.8747 1303 36.0971
81.9922 1238 35.1852
82.1096 1409 37.5366
82.227 1498 38.704
82.3444 1702 41.2553
82.4619 1697 41.1947
82.5793 1746 41.7852
82.6967 1770 42.0714
82.8142 1825 42.72
82.9316 1834 42.8252
83.049 1921 43.8292
83.1664 1866 43.1972
83.2838 1795 42.3674
83.4012 1809 42.5323
83.5186 1712 41.3763
83.636 1650 40.6202
83.7534 1554 39.4208
83.8708 1430 37.8153
83.9881 1517 38.9487
84.1055 1553 39.4081
84.2228 1640 40.4969
84.3401 1804 42.4735
84.4575 1865 43.1856
84.5747 1869 43.2319
84.692 1956 44.2267
84.8093 1860 43.1277
84.9265 1888 43.4511
85.0437 1724 41.5211
85.1609 1542 39.2683
85.2781 1391 37.2961
85.3952 1306 36.1386
85.5123 1257 35.4542
85.6294 1417 37.6431
85.7465 1496 38.6782
85.8636 1638 40.4722
85.9806 1656 40.694
86.0976 1797 42.391
86.2145 1782 42.2137
86.3315 1880 43.359
86.4484 1927 43.8976
86.5652 1905 43.6463
86.682 1802 42.45
86.7988 1855 43.0697
86.9156 1768 42.0476
87.0323 1838 42.8719
87.149 1771 42.0833
87.2657 1608 40.0999
87.3823 1506 38.8072
87.4988 1353 36.7831
87.6154 1227 35.0286
87.7318 1312 36.2215
87.8483 1417 37.6431
87.9647 1470 38.3406
88.081 1402 37.4433
88.1973 1412 37.5766
88.3136 1350 36.7423
88.4298 1347 36.7015
88.546 1140 33.7639
88.6621 1035 32.1714
88.7781 778 27.8927
88.8942 0 1
89.0101 0 1
89.126 0 1
89.2419 0 1
89.3577 0 1
89.4734 0 1
89.5891 0 1
89.7047 0 1
89.8203 0 1
89.9358 0 1
92.3269 0 1
92.4424 0 1
92.558 0 1
92.6736 0 1
92.7893 0 1
92.905 0 1
93.0208 0 1
93.1366 0 1
93.2525 0 1
93.3685 0 1
93.4845 0 1
93.6005 1407 37.51
93.7167 1467 38.3014
93.8328 1622 40.2741
93.949 1618 40.2244
94.0653 1649 40.6079
94.1816 1567 39.5854
94.2979 1539 39.2301
94.4143 1417 37.6431
94.5307 1407 37.51
94.6472 1324 36.3868
94.7637 1357 36.8375
94.8803 1593 39.9124
94.9969 1666 40.8167
95.1135 1801 42.4382
95.2302 1748 41.8091
95.3469 1891 43.4856
95.4637 1822 42.6849
95.5805 1862 43.1509
95.6973 1928 43.909
95.8142 1952 44.1814
95.9311 1865 43.1856
96.048 1887 43.4396
96.1649 1953 44.1928
96.2819 1845 42.9535
96.3989 1768 42.0476
96.516 1702 41.2553
96.633 1617 40.2119
96.7501 1534 39.1663
96.8673 1538 39.2173
96.9844 1676 40.939
97.1016 1794 42.3556
97.2188 1875 43.3013
97.336 1958 44.2493
97.4532 1963 44.3058
97.5704 2015 44.8888
97.6877 1968 44.3621
97.805 1891 43.4856
97.9223 1720 41.4729
98.0396 1566 39.5727
98.1569 1488 38.5746
98.2743 1424 37.7359
98.3916 1420 37.6829
98.509 1460 38.2099
98.6264 1686 41.0609
98.7438 1688 41.0853
98.8612 1813 42.5793
98.9786 1891 43.4856
99.096 1921 43.8292
99.2134 2017 44.911
99.3308 2037 45.1331
99.4482 2149 46.3573
99.5656 2052 45.299
99.6831 2041 45.1774
99.8005 1985 44.5533
99.9179 1927 43.8976
100.035 1923 43.852
100.153 1789 42.2966
100.27 1653 40.6571
100.388 1619 40.2368
100.505 1768 42.0476
100.622 1777 42.1545
100.74 2009 44.8219
100.857 1954 44.2041
100.975 2000 44.7214
101.092 2075 45.5522
101.209 2138 46.2385
101.327 2042 45.1885
101.444 1969 44.3734
101.561 1789 42.2966
101.679 1661 40.7554
101.796 1510 38.8587
101.913 1369 37
102.03 1462 38.2361
102.148 1667 40.8289
102.265 1765 42.0119
102.382 1814 42.5911
102.499 1962 44.2945
102.616 2047 45.2438
102.733 2046 45.2327
102.851 2071 45.5082
102.968 2218 47.0956
103.085 2105 45.8803
103.202 2086 45.6727
103.319 2196 46.8615
103.436 2056 45.3431
103.552 1935 43.9886
103.669 1875 43.3013
103.786 1815 42.6028
103.903 1773 42.107
104.02 1818 42.638
104.137 1873 43.2782
104.253 1981 44.5084
104.37 2201 46.9148
104.487 2096 45.7821
104.603 2132 46.1736
104.72 2095 45.7712
104.836 1956 44.2267
104.953 1893 43.5086
105.069 1679 40.9756
105.186 1563 39.5348
105.302 1387 37.2424
105.418 1307 36.1525
105.535 1352 36.7696
105.651 1338 36.5787
105.767 1296 36
105.883 1308 36.1663
105.999 1225 35
106.115 0 1
106.231 0 1
106.347 0 1
106.463 0 1
106.579 0 1
106.694 0 1
106.81 0 1
106.926 0 1
107.041 0 1
107.157 0 1
109.576 0 1
109.692 0 1
109.807 0 1
109.923 0 1
110.039 0 1
110.155 0 1
110.27 0 1
110.386 0 1
110.502 0 1
110.618 929 30.4795
110.735 1161 34.0735
110.851 1390 37.2827
110.967 1551 39.3827
111.083 1640 40.4969
111.199 1726 41.5452
111.316 1832 42.8019
111.432 1874 43.2897
111.549 1909 43.6921
111.665 1983 44.5309
111.782 1859 43.1161
111.898 1940 44.0454
112.015 1834 42.8252
112.132 1795 42.3674
112.248 1635 40.4351
112.365 1618 40.2244
112.482 1585 39.8121
112.599 1776 42.1426
112.716 1881 43.3705
112.832 1918 43.795
112.949 2040 45.1664
113.066 1988 44.587
113.183 2064 45.4313
113.3 1964 44.317
113.417 1950 44.1588
113.534 1756 41.9047
113.652 1676 40.939
113.769 1583 39.7869
113.886 1455 38.1445
114.003 1358 36.8511
114.12 1516 38.9358
114.238 1639 40.4846
114.355 1819 42.6497
114.472 1813 42.5793
114.589 2010 44.833
114.707 2023 44.9778
114.824 2053 45.31
114.942 2038 45.1442
115.059 2057 45.3542
115.176 2017 44.911
115.294 2072 45.5192
115.411 1888 43.4511
115.529 1941 44.0568
115.646 1884 43.4051
115.764 1772 42.0951
115.881 1800 42.4264
115.999 1650 40.6202
116.116 1727 41.5572
116.234 1878 43.3359
116.351 1880 43.359
116.469 2045 45.2217
116.586 1982 44.5197
116.704 2018 44.9222
116.821 2064 45.4313
116.939 1967 44.3509
117.056 1964 44.317
117.174 1709 41.3401
117.291 1583 39.7869
117.409 1537 39.2046
117.526 1451 38.092
117.644 1450 38.0789
117.761 1545 39.3065
117.879 1630 40.3733
117.996 1747 41.7971
118.114 1829 42.7668
118.231 1951 44.1701
118.349 1952 44.1814
118.466 1942 44.0681
118.584 1920 43.8178
118.701 1958 44.2493
118.819 1942 44.0681
118.936 1849 43
119.053 1838 42.8719
119.171 1851 43.0232
119.288 1792 42.332
119.405 1742 41.7373
119.523 1571 39.6358
119.64 1636 40.4475
119.757 1691 41.1218
119.875 1723 41.509
119.992 1871 43.2551
120.109 1859 43.1161
120.226 1908 43.6807
120.343 1922 43.8406
120.46 1896 43.5431
120.578 1881 43.3705
120.695 1897 43.5546
120.812 1733 41.6293
120.929 1591 39.8873
121.046 1478 38.4448
121.163 1365 36.9459
121.279 1270 35.6371
121.396 1288 35.8887
121.513 1317 36.2905
121.63 1490 38.6005
121.747 1491 38.6135
121.863 1516 38.9358
121.98 1481 38.4838
122.097 1443 37.9868
122.213 1458 38.1838
122.33 1394 37.3363
122.446 1415 37.6165
122.563 1300 36.0555
122.679 1295 35.9861
122.795 1194 34.5543
122.912 1117 33.4215
123.028 919 30.315
123.144 855 29.2404
123.26 709 26.6271
123.377 0 1
123.493 0 1
123.609 0 1
123.725 0 1
123.84 0 1
123.956 0 1
124.072 0 1
124.188 0 1
124.303 0 1
124.419 0 1
126.852 0 1
126.968 0 1
127.083 0 1
127.199 0 1
127.315 0 1
127.431 0 1
127.547 0 1
127.663 0 1
127.779 0 1
127.895 0 1
128.011 0 1
128.127 0 1
128.243 0 1
128.359 1712 41.3763
128.476 1800 42.4264
128.592 1702 41.2553
128.708 1805 42.4853
128.825 1823 42.6966
128.941 1910 43.7035
129.058 1886 43.4281
129.174 1978 44.4747
129.291 2053 45.31
129.408 2111 45.9456
129.524 2128 46.1303
129.641 2052 45.299
129.758 1966 44.3396
129.875 1840 42.8952
129.992 1620 40.2492
130.108 1558 39.4715
130.225 1490 38.6005
130.342 1534 39.1663
130.459 1592 39.8999
130.576 1761 41.9643
130.693 1850 43.0116
130.81 1870 43.2435
130.928 1926 43.8862
131.045 1987 44.5758
131.162 2061 45.3982
131.279 2051 45.288
131.396 2062 45.4093
131.513 2064 45.4313
131.631 2020 44.9444
131.748 1997 44.6878
131.865 2059 45.3762
131.983 1886 43.4281
132.1 1829 42.7668
132.217 1804 42.4735
132.335 1765 42.0119
132.452 1917 43.7836
132.57 1942 44.0681
132.687 2067 45.4643
132.804 2020 44.9444
132.922 2114 45.9783
133.039 2002 44.7437
133.157 2093 45.7493
133.274 2075 45.5522
133.392 1947 44.1248
133.509 1832 42.8019
133.627 1668 40.8412
133.744 1607 40.0874
133.862 1469 38.3275
133.979 1595 39.9375
134.097 1657 40.7063
134.214 1815 42.6028
134.332 1802 42.45
134.449 1930 43.9318
134.567 1946 44.1135
134.684 2023 44.9778
134.802 2060 45.3872
134.919 2017 44.911
135.037 2005 44.7772
135.154 2011 44.8442
135.272 2008 44.8107
135.389 2064 45.4313
135.507 1909 43.6921
135.624 1915 43.7607
135.742 1894 43.5201
135.859 1779 42.1782
135.977 1852 43.0349
136.094 1866 43.1972
136.211 1984 44.5421
136.329 2082 45.6289
136.446 2061 45.3982
136.564 2019 44.9333
136.681 2118 46.0217
136.798 2116 46
136.915 2016 44.8999
137.033 1871 43.2551
137.15 1850 43.0116
137.267 1734 41.6413
137.384 1599 39.9875
137.502 1534 39.1663
137.619 1520 38.9872
137.736 1682 41.0122
137.853 1773 42.107
137.97 1890 43.4741
138.087 1917 43.7836
138.204 1864 43.1741
138.321 2035 45.111
138.438 2073 45.5302
138.555 2031 45.0666
138.672 2057 45.3542
138.788 1919 43.8064
138.905 1857 43.0929
139.022 1699 41.2189
139.139 1615 40.1871
139.255 1567 39.5854
139.372 1450 38.0789
139.488 1345 36.6742
139.605 1354 36.7967
139.721 1283 35.819
139.838 1267 35.5949
139.954 1267 35.5949
140.071 1206 34.7275
140.187 1124 33.5261
140.303 1083 32.909
140.419 983 31.3528
140.535 1005 31.7017
140.652 811 28.4781
140.768 0 1
140.884 0 1
141 0 1
141.115 0 1
141.231 0 1
141.347 0 1
141.463 0 1
141.578 0 1
141.694 0 1
144.104 0 1
144.219 0 1
144.335 0 1
144.45 0 1
144.566 0 1
144.682 0 1
144.798 0 1
144.914 0 1
145.03 0 1
145.146 1430 37.8153
145.262 1599 39.9875
145.378 1579 39.7366
145.494 1637 40.4599
145.61 1661 40.7554
145.726 1674 40.9145
145.842 1472 38.3667
145.959 1400 37.4166
146.075 1368 36.9865
146.192 1247 35.3129
146.308 1186 34.4384
146.425 1338 36.5787
146.541 1372 37.0405
146.658 1435 37.8814
146.774 1442 37.9737
146.891 1527 39.0768
147.008 1541 39.2556
147.125 1545 39.3065
147.241 1589 39.8623
147.358 1628 40.3485
147.475 1630 40.3733
147.592 1531 39.128
147.709 1588 39.8497
147.826 1517 38.9487
147.943 1410 37.55
148.06 1487 38.5616
148.177 1387 37.2424
148.294 1388 37.2559
148.411 1456 38.1576
148.528 1415 37.6165
148.645 1546 39.3192
148.762 1632 40.398
148.88 1575 39.6863
148.997 1653 40.6571
149.114 1574 39.6737
149.231 1623 40.2865
149.349 1580 39.7492
149.466 1473 38.3797
149.583 1478 38.4448
149.701 1382 37.1753
149.818 1274 35.6931
149.935 1281 35.7911
150.053 1275 35.7071
150.17 1312 36.2215
150.287 1386 37.229
150.405 1424 37.7359
150.522 1455 38.1445
150.64 1475 38.4057
150.757 1493 38.6394
150.875 1562 39.5221
150.992 1588 39.8497
151.11 1576 39.6989
151.227 1504 38.7814
151.344 1511 38.8716
151.462 1423 37.7227
151.579 1417 37.6431
151.697 1386 37.229
151.814 1478 38.4448
151.932 1495 38.6652
152.049 1393 37.3229
152.167 1494 38.6523
152.284 1523 39.0256
152.402 1576 39.6989
152.519 1551 39.3827
152.636 1560 39.4968
152.754 1574 39.6737
152.871 1508 38.833
152.989 1413 37.5899
153.106 1462 38.2361
153.223 1310 36.1939
153.341 1330 36.4692
153.458 1255 35.426
153.575 1230 35.0714
153.693 1244 35.2704
153.81 1203 34.6843
153.927 1268 35.609
154.044 1346 36.6879
154.162 1435 37.8814
154.279 1366 36.9594
154.396 1430 37.8153
154.513 1444 38
154.63 1435 37.8814
154.747 1450 38.0789
154.864 1430 37.8153
154.981 1382 37.1753
155.098 1398 37.3898
155.215 1334 36.524
155.332 1303 36.0971
155.449 1310 36.1939
155.566 1254 35.4119
155.683 1343 36.647
155.8 1292 35.9444
155.917 1362 36.9053
156.033 1322 36.3593
156.15 0 1
156.267 0 1
156.383 0 1
156.5 0 1
156.617 0 1
156.733 0 1
156.85 0 1
156.966 0 1
157.082 0 1
157.199 0 1
157.315 0 1
157.431 0 1
157.547 0 1
157.664 0 1
157.78 0 1
157.896 0 1
158.012 0 1
158.128 0 1
158.244 0 1
158.359 0 1
158.475 0 1
158.591 0 1
158.706 0 1
