
6.15755 0 1
6.2731 0 1
6.3887 0 1
6.50437 0 1
6.62009 0 1
6.73587 0 1
6.8517 0 1
6.96759 0 1
7.08353 0 1
7.19952 0 1
7.31557 0 1
7.43166 0 1
7.54781 0 1
7.664 0 1
7.78024 0 1
7.89653 0 1
8.01286 0 1
8.12924 0 1
8.24567 0 1
8.36213 0 1
8.47864 0 1
8.59519 0 1
8.71178 0 1
8.82841 0 1
8.94508 0 1
9.06179 0 1
9.17853 0 1
9.29531 0 1
9.41212 0 1
9.52897 0 1
9.64584 0 1
9.76276 0 1
9.8797 0 1
9.99667 0 1
10.1137 0 1
10.2307 0 1
10.3478 0 1
10.4648 0 1
10.5819 0 1
10.6991 0 1
10.8162 0 1
10.9334 0 1
11.0506 0 1
11.1678 0 1
11.285 0 1
11.4023 0 1
11.5196 0 1
11.6369 0 1
11.7542 0 1
11.8715 0 1
11.9888 0 1
12.1062 0 1
12.2235 0 1
12.3409 0 1
12.4582 0 1
12.5756 0 1
12.693 0 1
12.8104 0 1
12.9278 0 1
13.0452 0 1
13.1626 0 1
13.28 0 1
13.3974 0 1
13.5149 0 1
13.6323 0 1
13.7497 0 1
13.8671 0 1
13.9845 0 1
14.1019 0 1
14.2193 0 1
14.3367 0 1
14.4541 0 1
14.5714 0 1
14.6888 0 1
14.8062 0 1
14.9235 0 1
15.0408 0 0
15.1581 0 0
15.2755 0 0
15.3927 0 0
15.51 0 0
15.6273 0 0
15.7445 0 0
15.8617 0 0
15.9789 0 0
16.0961 0 0
16.2132 0 0
16.3304 0 0
16.4475 0 0
16.5646 0 0
16.6816 0 0
16.7986 0 0
16.9156 0 0
17.0326 0 0
17.1496 0 0
17.2665 0 0
17.3833 0 0
17.5002 0 0
17.617 0 0
17.7338 0 0
17.8505 0 0
17.9672 0 0
18.0839 0 0
18.2005 0 0
18.3171 0 0
18.4337 0 0
18.5502 0 0
18.6666 0 0
18.7831 0 0
18.8994 0 0
19.0158 0 0
19.1321 0 0
19.2483 0 0
19.3645 0 0
19.4806 0 0
19.5967 0 0
19.7128 0 0
19.8288 0 0
19.9447 0 0
20.0606 0 1
20.1764 0 1
20.2922 0 1
20.4079 0 1
20.5236 0 1
20.6392 0 1
20.7548 0 1
20.8702 0 1
23.3078 0 1
23.4233 0 1
23.539 0 1
23.6547 0 1
23.7704 0 1
23.8862 0 1
24.0021 0 1
24.118 0 1
24.234 0 1
24.35 0 1
24.4661 6793 82.4197
24.5822 6630 81.4248
24.6984 6666 81.6456
24.8146 6363 79.7684
24.9309 6750 82.1584
25.0472 6677 81.7129
25.1636 6946 83.3427
25.28 7102 84.2734
25.3965 7138 84.4867
25.513 7424 86.1626
25.6296 7694 87.7154
25.7462 7686 87.6698
25.8628 7976 89.3085
25.9795 7683 87.6527
26.0962 7692 87.704
26.213 7867 88.6961
26.3298 7664 87.5443
26.4466 7276 85.2995
26.5635 7049 83.9583
26.6804 6793 82.4197
26.7973 6736 82.0731
26.9143 6893 83.0241
27.0313 6894 83.0301
27.1483 7227 85.0118
27.2653 7253 85.1645
27.3824 7531 86.7813
27.4996 7468 86.4176
27.6167 7484 86.5101
27.7339 7405 86.0523
27.8511 7115 84.3505
27.9683 6965 83.4566
28.0855 6868 82.8734
28.2028 6660 81.6088
28.3201 6777 82.3225
28.4374 6623 81.3818
28.5547 6533 80.827
28.6721 6450 80.3119
28.7894 6661 81.6149
28.9068 7007 83.7078
29.0242 7249 85.1411
29.1416 7353 85.7496
29.259 7353 85.7496
29.3764 7484 86.5101
29.4939 7562 86.9598
29.6113 7395 85.9942
29.7288 7548 86.8792
29.8463 7329 85.6096
29.9638 6983 83.5643
30.0812 6602 81.2527
30.1987 6333 79.5801
30.3162 6435 80.2185
30.4337 6474 80.4612
30.5512 6695 81.823
30.6687 6829 82.6378
30.7862 6947 83.3487
30.9037 7052 83.9762
31.0212 7374 85.872
31.1387 7446 86.2902
31.2562 7277 85.3053
31.3737 7119 84.3742
31.4912 7051 83.9702
31.6087 6906 83.1023
31.7262 6721 81.9817
31.8436 6673 81.6884
31.9611 6560 80.9938
32.0785 6586 81.1542
32.1959 6550 80.9321
32.3134 6501 80.6288
32.4308 6629 81.4187
32.5482 7014 83.7496
32.6655 7253 85.1645
32.7829 7270 85.2643
32.9002 7489 86.539
33.0176 7419 86.1336
33.1349 7458 86.3597
33.2522 7379 85.9011
33.3694 7427 86.18
33.4867 7162 84.6286
33.6039 6934 83.2706
33.7211 6549 80.9259
33.8383 6230 78.9303
33.9554 6151 78.4283
34.0725 6312 79.4481
34.1896 6508 80.6722
34.3067 6672 81.6823
34.4237 6775 82.3104
34.5407 7093 84.22
34.6577 6993 83.6242
34.7746 7238 85.0764
34.8915 7082 84.1546
35.0084 7075 84.113
35.1252 7007 83.7078
35.242 6757 82.201
35.3587 6710 81.9146
35.4755 6709 81.9085
35.5921 6523 80.7651
35.7088 6381 79.8812
35.8254 6373 79.8311
35.9419 6416 80.0999
36.0584 6474 80.4612
36.1749 6713 81.9329
36.2913 6823 82.6015
36.4077 7049 83.9583
36.524 7240 85.0882
36.6403 7187 84.7762
36.7565 7403 86.0407
36.8727 7330 85.6154
36.9889 7268 85.2526
37.1049 6956 83.4026
37.221 0 1
37.3369 0 1
37.4529 0 1
37.5687 0 1
37.6845 0 1
37.8003 0 1
37.916 0 1
38.0316 0 1
38.1472 0 1
40.5851 0 1
40.7008 0 1
40.8164 0 1
40.9322 0 1
41.048 0 1
41.1639 0 1
41.2798 0 1
41.3958 0 1
41.5118 0 1
41.6279 0 1
41.744 5573 74.6525
41.8602 5846 76.4591
41.9765 5963 77.2205
42.0928 5854 76.5114
42.2091 6003 77.479
42.3255 5669 75.2928
42.4419 5083 71.2952
42.5584 4823 69.4478
42.675 4718 68.6877
42.7915 4801 69.2892
42.9081 5169 71.8958
43.0248 5305 72.8354
43.1415 5462 73.9053
43.2582 5603 74.8532
43.375 5774 75.9868
43.4918 5732 75.71
43.6087 5745 75.7958
43.7256 5603 74.8532
43.8425 5587 74.7462
43.9595 5314 72.8972
44.0765 5205 72.1457
44.1935 5180 71.9722
44.3106 4724 68.7314
44.4277 4809 69.347
44.5448 4543 67.4018
44.6619 4637 68.0955
44.7791 4807 69.3325
44.8963 4776 69.1086
45.0136 4775 69.1014
45.1308 5070 71.2039
45.2481 4983 70.5904
45.3654 5135 71.6589
45.4827 5002 70.7248
45.6001 4855 69.6778
45.7174 4825 69.4622
45.8348 4744 68.8767
45.9522 4275 65.3835
46.0697 4034 63.5138
46.1871 3742 61.1719
46.3046 3637 60.3075
46.422 3908 62.514
46.5395 4207 64.8614
46.657 4227 65.0154
46.7745 4331 65.8103
46.892 4356 66
47.0096 4463 66.8057
47.1271 4330 65.8027
47.2446 4388 66.242
47.3622 4285 65.4599
47.4797 4174 64.6065
47.5973 4071 63.8044
47.7149 3951 62.857
47.8324 3637 60.3075
47.95 3570 59.7495
48.0675 3496 59.127
48.1851 3399 58.3009
48.3027 3308 57.5152
48.4202 3480 58.9915
48.5378 3524 59.3633
48.6554 3703 60.8523
48.7729 3813 61.7495
48.8904 3857 62.1048
49.008 3972 63.0238
49.1255 3858 62.1128
49.243 3868 62.1932
49.3605 3512 59.2621
49.478 3216 56.7098
49.5955 3060 55.3173
49.713 2844 53.3292
49.8304 2907 53.9166
49.9479 3294 57.3934
50.0653 3510 59.2453
50.1827 3792 61.5792
50.3001 3836 61.9355
50.4175 3965 62.9682
50.5348 4073 63.8201
50.6521 4213 64.9076
50.7694 4263 65.2917
50.8867 4346 65.9242
51.004 4289 65.4905
51.1212 4275 65.3835
51.2384 4429 66.5507
51.3556 4321 65.7343
51.4727 4163 64.5213
51.5899 4057 63.6946
51.707 4123 64.2106
51.824 4259 65.261
51.9411 4553 67.4759
52.0581 4822 69.4406
52.175 5169 71.8958
52.2919 5272 72.6085
52.4088 5294 72.7599
52.5257 5496 74.135
52.6425 5515 74.263
52.7593 5511 74.2361
52.876 5333 73.0274
52.9927 5146 71.7356
53.1094 4858 69.6994
53.226 4395 66.2948
53.3426 4204 64.8383
53.4591 4414 66.4379
53.5756 4762 69.0072
53.692 5294 72.7599
53.8084 5772 75.9737
53.9248 5944 77.0973
54.0411 6040 77.7174
54.1573 6203 78.7591
54.2735 0 1
54.3896 0 1
54.5057 0 1
54.6217 0 1
54.7377 0 1
54.8537 0 1
54.9695 0 1
55.0853 0 1
55.2011 0 1
55.3168 0 1
55.4324 0 1
57.824 0 1
57.9396 0 1
58.0553 0 1
58.1711 0 1
58.2869 0 1
58.4028 0 1
58.5187 0 1
58.6347 0 1
58.7508 0 1
58.8669 0 1
58.983 6576 81.0925
59.0992 7089 84.1962
59.2155 7116 84.3564
59.3318 7469 86.4234
59.4482 7315 85.5278
59.5646 7503 86.6199
59.681 7274 85.2877
59.7975 7184 84.7585
59.9141 7008 83.7138
60.0306 6821 82.5893
60.1473 6438 80.2371
60.2639 6180 78.613
60.3807 6199 78.7337
60.4974 6092 78.0513
60.6142 6251 79.0633
60.731 6405 80.0312
60.8479 6641 81.4923
60.9648 6844 82.7285
61.0818 6911 83.1324
61.1987 6871 82.8915
61.3158 6767 82.2618
61.4328 6364 79.7747
61.5499 6086 78.0128
61.667 5578 74.686
61.7841 5253 72.4776
61.9013 5004 70.739
62.0185 5043 71.0141
62.1357 5501 74.1687
62.253 5892 76.7594
62.3702 6260 79.1202
62.4875 6306 79.4103
62.6049 6535 80.8393
62.7222 6627 81.4064
62.8396 6638 81.4739
62.9569 6650 81.5475
63.0743 6786 82.3772
63.1918 6557 80.9753
63.3092 6490 80.5605
63.4267 6211 78.8099
63.5441 6026 77.6273
63.6616 5568 74.619
63.7791 5394 73.4439
63.8966 5421 73.6274
64.0142 5459 73.885
64.1317 5728 75.6836
64.2492 5909 76.87
64.3668 6077 77.9551
64.4843 6160 78.4857
64.6019 6314 79.4607
64.7195 6396 79.975
64.837 6236 78.9683
64.9546 6006 77.4984
65.0722 5639 75.0933
65.1898 5125 71.5891
65.3074 4793 69.2315
65.4249 4236 65.0846
65.5425 4418 66.468
65.6601 4782 69.152
65.7777 5321 72.9452
65.8952 5537 74.411
66.0128 5754 75.8551
66.1304 6086 78.0128
66.2479 6082 77.9872
66.3655 6166 78.5239
66.483 6384 79.8999
66.6005 6369 79.806
66.718 6279 79.2401
66.8355 6344 79.6492
66.953 6188 78.6638
67.0705 6042 77.7303
67.1879 5679 75.3591
67.3054 5372 73.2939
67.4228 5193 72.0625
67.5402 5116 71.5262
67.6576 5339 73.0685
67.7749 5586 74.7395
67.8923 5813 76.243
68.0096 6226 78.905
68.1269 6334 79.5864
68.2442 6610 81.3019
68.3614 6653 81.5659
68.4787 6585 81.148
68.5958 6408 80.05
68.713 6125 78.2624
68.8302 5494 74.1215
68.9473 5213 72.2011
69.0643 4942 70.2994
69.1814 5125 71.5891
69.2984 5589 74.7596
69.4154 6177 78.5939
69.5323 6777 82.3225
69.6492 7104 84.2852
69.7661 7469 86.4234
69.8829 7824 88.4534
69.9997 8105 90.0278
70.1165 8333 91.2853
70.2332 8633 92.9139
70.3499 8555 92.4932
70.4665 8587 92.6661
70.5831 8614 92.8116
70.6996 8431 91.8205
70.8161 8265 90.912
70.9326 7873 88.7299
71.049 7475 86.4581
71.1653 7166 84.6522
71.2817 7305 85.4693
71.3979 7646 87.4414
71.5141 8124 90.1332
71.6303 8587 92.6661
71.7464 8137 90.2053
71.8624 0 1
71.9784 0 1
72.0944 0 1
72.2102 0 1
72.3261 0 1
72.4418 0 1
72.5575 0 1
72.6732 0 1
75.1054 0 1
75.2209 0 1
75.3365 0 1
75.4521 0 1
75.5678 0 1
75.6835 0 1
75.7993 0 1
75.9151 0 1
76.031 0 1
76.147 8532 92.3688
76.263 8738 93.4773
76.3791 8352 91.3893
76.4952 7908 88.9269
76.6113 7787 88.244
76.7276 8199 90.5483
76.8438 8721 93.3863
76.9601 9152 95.6661
77.0765 9455 97.2368
77.1929 9183 95.828
77.3093 9147 95.6399
77.4258 8969 94.7048
77.5423 8424 91.7824
77.6589 7740 87.9773
77.7755 6860 82.8251
77.8921 6145 78.3901
78.0088 5490 74.0945
78.1256 5274 72.6223
78.2423 5155 71.7983
78.3591 5822 76.302
78.4759 6451 80.3181
78.5928 6956 83.4026
78.7097 6995 83.6361
78.8266 7099 84.2556
78.9436 7424 86.1626
79.0606 7346 85.7088
79.1776 7214 84.9353
79.2946 7093 84.22
79.4117 6853 82.7828
79.5288 7054 83.9881
79.6459 6834 82.668
79.7631 6434 80.2122
79.8802 5996 77.4338
79.9974 5556 74.5386
80.1147 5222 72.2634
80.2319 5176 71.9444
80.3491 5380 73.3485
80.4664 5661 75.2396
80.5837 5959 77.1946
80.701 5923 76.961
80.8183 6138 78.3454
80.9357 6066 77.8845
81.053 6147 78.4028
81.1704 5992 77.408
81.2877 5774 75.9868
81.4051 5048 71.0493
81.5225 4630 68.0441
81.6399 4002 63.2614
81.7573 3884 62.3217
81.8747 3867 62.1852
81.9922 4284 65.4523
82.1096 5024 70.8802
82.227 5218 72.2357
82.3444 5493 74.1148
82.4619 5572 74.6458
82.5793 5975 77.2981
82.6967 5818 76.2758
82.8142 5893 76.7659
82.9316 5955 77.1686
83.049 5905 76.844
83.1664 5881 76.6877
83.2838 5943 77.0909
83.4012 5545 74.4648
83.5186 5251 72.4638
83.636 4933 70.2353
83.7534 4542 67.3944
83.8708 4531 67.3127
83.9881 4773 69.0869
84.1055 5281 72.6705
84.2228 5629 75.0267
84.3401 5900 76.8115
84.4575 6100 78.1025
84.5747 6012 77.5371
84.692 6148 78.4092
84.8093 5995 77.4274
84.9265 5300 72.8011
85.0437 4805 69.3181
85.1609 4496 67.0522
85.2781 4213 64.9076
85.3952 4123 64.2106
85.5123 4545 67.4166
85.6294 5215 72.215
85.7465 5987 77.3757
85.8636 6340 79.6241
85.9806 6694 81.8169
86.0976 6934 83.2706
86.2145 6986 83.5823
86.3315 7294 85.4049
86.4484 7368 85.8371
86.5652 7426 86.1742
86.682 7559 86.9425
86.7988 7577 87.046
86.9156 7433 86.2148
87.0323 7264 85.2291
87.149 6839 82.6982
87.2657 6561 81
87.3823 6328 79.5487
87.4988 6471 80.4425
87.6154 6874 82.9096
87.7318 7466 86.406
87.8483 7816 88.4081
87.9647 7940 89.1067
88.081 8156 90.3106
88.1973 8184 90.4655
88.3136 7913 88.955
88.4298 7339 85.668
88.546 6541 80.8764
88.6621 5885 76.7138
88.7781 5417 73.6003
88.8942 0 1
89.0101 0 1
89.126 0 1
89.2419 0 1
89.3577 0 1
89.4734 0 1
89.5891 0 1
89.7047 0 1
89.8203 0 1
89.9358 0 1
92.3269 0 1
92.4424 0 1
92.558 0 1
92.6736 0 1
92.7893 0 1
92.905 0 1
93.0208 0 1
93.1366 0 1
93.2525 0 1
93.3685 0 1
93.4845 0 1
93.6005 7344 85.6971
93.7167 7421 86.1452
93.8328 6917 83.1685
93.949 6399 79.9937
94.0653 5815 76.2561
94.1816 5517 74.2765
94.2979 4982 70.5833
94.4143 4774 69.0941
94.5307 4956 70.3989
94.6472 5434 73.7157
94.7637 6105 78.1345
94.8803 6232 78.943
94.9969 6827 82.6257
95.1135 7049 83.9583
95.2302 7069 84.0773
95.3469 7064 84.0476
95.4637 7169 84.6699
95.5805 7244 85.1117
95.6973 7456 86.3481
95.8142 7437 86.238
95.9311 7170 84.6759
96.048 7027 83.8272
96.1649 6719 81.9695
96.2819 6557 80.9753
96.3989 6160 78.4857
96.516 5802 76.1709
96.633 5809 76.2168
96.7501 6248 79.0443
96.8673 6458 80.3617
96.9844 6863 82.8432
97.1016 7108 84.309
97.2188 7145 84.5281
97.336 7066 84.0595
97.4532 6685 81.7618
97.5704 6306 79.4103
97.6877 5676 75.3392
97.805 5162 71.8471
97.9223 4798 69.2676
98.0396 4654 68.2202
98.1569 4760 68.9928
98.2743 4922 70.157
98.3916 5697 75.4785
98.509 6045 77.7496
98.6264 6264 79.1454
98.7438 6760 82.2192
98.8612 6785 82.3711
98.9786 6947 83.3487
99.096 7150 84.5577
99.2134 7167 84.6581
99.3308 7502 86.6141
99.4482 7180 84.7349
99.5656 7270 85.2643
99.6831 7152 84.5695
99.8005 6751 82.1645
99.9179 6652 81.5598
100.035 6273 79.2023
100.153 5901 76.818
100.27 6145 78.3901
100.388 6560 80.9938
100.505 6844 82.7285
100.622 7135 84.4689
100.74 7287 85.3639
100.857 7107 84.303
100.975 7313 85.5161
101.092 6889 83
101.209 6319 79.4921
101.327 5732 75.71
101.444 5235 72.3533
101.561 4843 69.5917
101.679 4639 68.1102
101.796 4973 70.5195
101.913 5317 72.9178
102.03 6018 77.5758
102.148 6583 81.1357
102.265 7176 84.7113
102.382 6624 81.388
102.499 7113 84.3386
102.616 7418 86.1278
102.733 7482 86.4986
102.851 7385 85.936
102.968 7544 86.8562
103.085 7510 86.6603
103.202 7375 85.8778
103.319 7242 85.0999
103.436 7052 83.9762
103.552 6508 80.6722
103.669 6278 79.2338
103.786 6499 80.6164
103.903 7006 83.7019
104.02 7367 85.8312
104.137 7601 87.1837
104.253 7963 89.2356
104.37 7519 86.7122
104.487 7812 88.3855
104.603 7447 86.296
104.72 6797 82.4439
104.836 6384 79.8999
104.953 5693 75.452
105.069 5246 72.4293
105.186 5320 72.9383
105.302 5388 73.403
105.418 5999 77.4532
105.535 6462 80.3866
105.651 7154 84.5813
105.767 7358 85.7788
105.883 7640 87.4071
105.999 7952 89.174
106.115 0 1
106.231 0 1
106.347 0 1
106.463 0 1
106.579 0 1
106.694 0 1
106.81 0 1
106.926 0 1
107.041 0 1
107.157 0 1
109.576 0 1
109.692 0 1
109.807 0 1
109.923 0 1
110.039 0 1
110.155 0 1
110.27 0 1
110.386 0 1
110.502 0 1
110.618 6422 80.1374
110.735 6950 83.3667
110.851 7358 85.7788
110.967 7561 86.954
111.083 7708 87.7952
111.199 7723 87.8806
111.316 8017 89.5377
111.432 7875 88.7412
111.549 7947 89.1459
111.665 7847 88.5833
111.782 7831 88.4929
111.898 7537 86.8159
112.015 6969 83.4805
112.132 6565 81.0247
112.248 6431 80.1935
112.365 6780 82.3408
112.482 7405 86.0523
112.599 7487 86.5275
112.716 7412 86.093
112.832 7619 87.2869
112.949 7707 87.7895
113.066 7467 86.4118
113.183 7172 84.6877
113.3 6486 80.5357
113.417 6050 77.7817
113.534 5589 74.7596
113.652 5244 72.4155
113.769 4939 70.278
113.886 5274 72.6223
114.003 5593 74.7864
114.12 6307 79.4166
114.238 6882 82.9578
114.355 6999 83.66
114.472 7617 87.2754
114.589 7024 83.8093
114.707 7331 85.6213
114.824 7645 87.4357
114.942 7592 87.1321
115.059 7897 88.8651
115.176 7596 87.155
115.294 7584 87.0862
115.411 7539 86.8274
115.529 7192 84.8057
115.646 6971 83.4925
115.764 6637 81.4678
115.881 6891 83.012
115.999 7014 83.7496
116.116 7505 86.6314
116.234 7564 86.9713
116.351 7675 87.6071
116.469 7534 86.7986
116.586 7779 88.1986
116.704 7469 86.4234
116.821 6856 82.801
116.939 6306 79.4103
117.056 6079 77.9679
117.174 5672 75.3127
117.291 5359 73.2052
117.409 5214 72.208
117.526 5604 74.8599
117.644 6056 77.8203
117.761 6518 80.7341
117.879 6832 82.6559
117.996 7224 84.9941
118.114 7369 85.8429
118.231 7606 87.2124
118.349 7670 87.5785
118.466 7735 87.9488
118.584 7824 88.4534
118.701 7785 88.2326
118.819 7949 89.1572
118.936 7707 87.7895
119.053 7419 86.1336
119.171 7313 85.5161
119.288 7030 83.8451
119.405 6818 82.5712
119.523 6972 83.4985
119.64 7222 84.9824
119.757 7555 86.9195
119.875 7548 86.8792
119.992 7658 87.51
120.109 7688 87.6812
120.226 7631 87.3556
120.343 7365 85.8196
120.46 7068 84.0714
120.578 6703 81.8719
120.695 6218 78.8543
120.812 5958 77.1881
120.929 5579 74.6927
121.046 5161 71.8401
121.163 5507 74.2092
121.279 5917 76.922
121.396 6452 80.3243
121.513 6664 81.6333
121.63 6766 82.2557
121.747 7320 85.557
121.863 7242 85.0999
121.98 7406 86.0581
122.097 7825 88.459
122.213 7725 87.892
122.33 7675 87.6071
122.446 7803 88.3346
122.563 7751 88.0398
122.679 7613 87.2525
122.795 7417 86.122
122.912 7070 84.0833
123.028 6857 82.807
123.144 6771 82.2861
123.26 6936 83.2827
123.377 0 1
123.493 0 1
123.609 0 1
123.725 0 1
123.84 0 1
123.956 0 1
124.072 0 1
124.188 0 1
124.303 0 1
124.419 0 1
126.852 0 1
126.968 0 1
127.083 0 1
127.199 0 1
127.315 0 1
127.431 0 1
127.547 0 1
127.663 0 1
127.779 0 1
127.895 0 1
128.011 0 1
128.127 0 1
128.243 0 1
128.359 7927 89.0337
128.476 8045 89.6939
128.592 8804 93.8296
128.708 8868 94.1701
128.825 9207 95.9531
128.941 9266 96.2601
129.058 9223 96.0365
129.174 9157 95.6922
129.291 9200 95.9166
129.408 8746 93.5201
129.524 8093 89.9611
129.641 7689 87.6869
129.758 7198 84.841
129.875 6868 82.8734
129.992 6710 81.9146
130.108 6692 81.8046
130.225 7224 84.9941
130.342 7458 86.3597
130.459 7901 88.8876
130.576 8378 91.5314
130.693 8542 92.4229
130.81 8539 92.4067
130.928 8770 93.6483
131.045 8959 94.652
131.162 9017 94.9579
131.279 9069 95.2313
131.396 9148 95.6452
131.513 9203 95.9323
131.631 8846 94.0532
131.748 8609 92.7847
131.865 8295 91.0769
131.983 8556 92.4986
132.1 8837 94.0053
132.217 9226 96.0521
132.335 9288 96.3743
132.452 9251 96.1821
132.57 9560 97.7753
132.687 8845 94.0479
132.804 9481 97.3704
132.922 8790 93.755
133.039 8213 90.6256
133.157 8027 89.5935
133.274 7545 86.862
133.392 7160 84.6168
133.509 6674 81.6946
133.627 6828 82.6317
133.744 6996 83.6421
133.862 7325 85.5862
133.979 7589 87.1149
134.097 7992 89.398
134.214 8217 90.6477
134.332 8332 91.2798
134.449 8692 93.2309
134.567 8738 93.4773
134.684 8874 94.2019
134.802 8934 94.5198
134.919 8826 93.9468
135.037 9071 95.2418
135.154 8787 93.739
135.272 8556 92.4986
135.389 8403 91.6679
135.507 8407 91.6897
135.624 8555 92.4932
135.742 8664 93.0806
135.859 8946 94.5833
135.977 9013 94.9368
136.094 9211 95.974
136.211 9122 95.5092
136.329 9081 95.2943
136.446 8992 94.8262
136.564 8729 93.4291
136.681 8153 90.294
136.798 8014 89.5209
136.915 7478 86.4754
137.033 7142 84.5104
137.15 6936 83.2827
137.267 6740 82.0975
137.384 6932 83.2586
137.502 7293 85.3991
137.619 7487 86.5275
137.736 7733 87.9375
137.853 7741 87.983
137.97 8389 91.5915
138.087 8264 90.9065
138.204 8718 93.3702
138.321 8645 92.9785
138.438 8961 94.6626
138.555 9096 95.373
138.672 9098 95.3834
138.788 8772 93.659
138.905 8629 92.8924
139.022 8725 93.4077
139.139 8500 92.1954
139.255 8561 92.5257
139.372 8892 94.2974
139.488 9168 95.7497
139.605 9157 95.6922
139.721 9445 97.1854
139.838 9475 97.3396
139.954 9229 96.0677
140.071 9097 95.3782
140.187 8989 94.8103
140.303 8483 92.1032
140.419 8241 90.78
140.535 7651 87.47
140.652 7518 86.7064
140.768 0 1
140.884 0 1
141 0 1
141.115 0 1
141.231 0 1
141.347 0 1
141.463 0 1
141.578 0 1
141.694 0 1
144.104 0 1
144.219 0 1
144.335 0 1
144.45 0 1
144.566 0 1
144.682 0 1
144.798 0 1
144.914 0 1
145.03 0 1
145.146 8453 91.9402
145.262 8490 92.1412
145.378 8125 90.1388
145.494 7800 88.3176
145.61 7584 87.0862
145.726 7332 85.6271
145.842 7006 83.7019
145.959 6939 83.3007
146.075 7130 84.4393
146.192 7363 85.8079
146.308 7533 86.7929
146.425 7573 87.023
146.541 7789 88.2553
146.658 7998 89.4315
146.774 8304 91.1263
146.891 8451 91.9293
147.008 8637 92.9355
147.125 8830 93.9681
147.241 8707 93.3113
147.358 8474 92.0543
147.475 8199 90.5483
147.592 8308 91.1482
147.709 7961 89.2244
147.826 8190 90.4986
147.943 8229 90.7138
148.06 8368 91.4768
148.177 8611 92.7955
148.294 8668 93.1021
148.411 8790 93.755
148.528 8606 92.7685
148.645 8676 93.145
148.762 8579 92.6229
148.88 8423 91.7769
148.997 7810 88.3742
149.114 8090 89.9444
149.231 7504 86.6256
149.349 7381 85.9127
149.466 6821 82.5893
149.583 6978 83.5344
149.701 6728 82.0244
149.818 6843 82.7224
149.935 7003 83.6839
150.053 7235 85.0588
150.17 7273 85.2819
150.287 7653 87.4814
150.405 7759 88.0852
150.522 7826 88.4647
150.64 8204 90.5759
150.757 8323 91.2305
150.875 8305 91.1318
150.992 8162 90.3438
151.11 7912 88.9494
151.227 7913 88.955
151.344 7691 87.6983
151.462 7698 87.7382
151.579 7982 89.342
151.697 8220 90.6642
151.814 8347 91.3619
151.932 8540 92.4121
152.049 8423 91.7769
152.167 8219 90.6587
152.284 8352 91.3893
152.402 8204 90.5759
152.519 8113 90.0722
152.636 8001 89.4483
152.754 7555 86.9195
152.871 7455 86.3423
152.989 7184 84.7585
153.106 6889 83
153.223 6762 82.2314
153.341 6863 82.8432
153.458 6814 82.547
153.575 7051 83.9702
153.693 7084 84.1665
153.81 7311 85.5044
153.927 7372 85.8604
154.044 7736 87.9545
154.162 7981 89.3364
154.279 8202 90.5649
154.396 8290 91.0494
154.513 8367 91.4713
154.63 8329 91.2634
154.747 8167 90.3715
154.864 8013 89.5154
154.981 7952 89.174
155.098 8086 89.9222
155.215 8027 89.5935
155.332 8248 90.8185
155.449 8454 91.9456
155.566 8432 91.8259
155.683 8576 92.6067
155.8 8599 92.7308
155.917 8568 92.5635
156.033 8450 91.9239
156.15 0 1
156.267 0 1
156.383 0 1
156.5 0 1
156.617 0 1
156.733 0 1
156.85 0 1
156.966 0 1
157.082 0 1
157.199 0 1
157.315 0 1
157.431 0 1
157.547 0 1
157.664 0 1
157.78 0 1
157.896 0 1
158.012 0 1
158.128 0 1
158.244 0 1
158.359 0 1
158.475 0 1
158.591 0 1
158.706 0 1
