
6.15755 0 1
6.2731 0 1
6.3887 0 1
6.50437 0 1
6.62009 0 1
6.73587 0 1
6.8517 0 1
6.96759 0 1
7.08353 0 1
7.19952 0 1
7.31557 0 1
7.43166 0 1
7.54781 0 1
7.664 0 1
7.78024 0 1
7.89653 0 1
8.01286 0 1
8.12924 0 1
8.24567 0 1
8.36213 0 1
8.47864 0 1
8.59519 0 1
8.71178 0 1
8.82841 0 1
8.94508 0 1
9.06179 0 1
9.17853 0 1
9.29531 0 1
9.41212 0 1
9.52897 0 1
9.64584 0 1
9.76276 0 1
9.8797 0 1
9.99667 0 1
10.1137 0 1
10.2307 0 1
10.3478 0 1
10.4648 0 1
10.5819 0 1
10.6991 0 1
10.8162 0 1
10.9334 0 1
11.0506 0 1
11.1678 0 1
11.285 0 1
11.4023 0 1
11.5196 0 1
11.6369 0 1
11.7542 0 1
11.8715 0 1
11.9888 0 1
12.1062 0 1
12.2235 0 1
12.3409 0 1
12.4582 0 1
12.5756 0 1
12.693 0 1
12.8104 0 1
12.9278 0 1
13.0452 0 1
13.1626 0 1
13.28 0 1
13.3974 0 1
13.5149 0 1
13.6323 0 1
13.7497 0 1
13.8671 0 1
13.9845 0 1
14.1019 0 1
14.2193 0 1
14.3367 0 1
14.4541 0 1
14.5714 0 1
14.6888 0 1
14.8062 0 1
14.9235 0 1
15.0408 32989 181.629
15.1581 34987 187.048
15.2755 36273 190.455
15.3927 36648 191.437
15.51 36289 190.497
15.6273 35448 188.276
15.7445 35342 187.995
15.8617 35368 188.064
15.9789 35762 189.108
16.0961 36042 189.847
16.2132 35795 189.196
16.3304 35889 189.444
16.4475 36526 191.118
16.5646 36591 191.288
16.6816 36762 191.734
16.7986 36856 191.979
16.9156 37520 193.701
17.0326 37536 193.742
17.1496 37826 194.489
17.2665 38329 195.778
17.3833 38676 196.662
17.5002 39016 197.525
17.617 38588 196.438
17.7338 38737 196.817
17.8505 38386 195.923
17.9672 37894 194.664
18.0839 37875 194.615
18.2005 38262 195.607
18.3171 39081 197.689
18.4337 39556 198.887
18.5502 40278 200.694
18.6666 41128 202.8
18.7831 41211 203.005
18.8994 40832 202.069
19.0158 39515 198.784
19.1321 38428 196.031
19.2483 37280 193.08
19.3645 35807 189.227
19.4806 35085 187.31
19.5967 33863 184.019
19.7128 32707 180.851
19.8288 29854 172.783
19.9447 25639 160.122
20.0606 0 1
20.1764 0 1
20.2922 0 1
20.4079 0 1
20.5236 0 1
20.6392 0 1
20.7548 0 1
20.8702 0 1
23.3078 0 1
23.4233 0 1
23.539 0 1
23.6547 0 1
23.7704 0 1
23.8862 0 1
24.0021 0 1
24.118 0 1
24.234 0 1
24.35 0 1
24.4661 19251 138.748
24.5822 22071 148.563
24.6984 25156 158.606
24.8146 28151 167.783
24.9309 30844 175.625
25.0472 32743 180.95
25.1636 34345 185.324
25.28 35998 189.731
25.3965 37376 193.329
25.513 38740 196.825
25.6296 40426 201.062
25.7462 41040 202.583
25.8628 42329 205.74
25.9795 43190 207.822
26.0962 43660 208.95
26.213 44416 210.751
26.3298 44328 210.542
26.4466 43892 209.504
26.5635 43714 209.079
26.6804 43217 207.887
26.7973 43529 208.636
26.9143 43909 209.545
27.0313 44586 211.154
27.1483 45325 212.897
27.2653 47038 216.882
27.3824 47305 217.497
27.4996 47251 217.373
27.6167 46934 216.643
27.7339 46391 215.386
27.8511 44935 211.979
27.9683 43939 209.616
28.0855 43991 209.74
28.2028 44258 210.376
28.3201 44779 211.61
28.4374 44009 209.783
28.5547 43347 208.199
28.6721 42104 205.193
28.7894 41069 202.655
28.9068 40191 200.477
29.0242 40005 200.012
29.1416 40032 200.08
29.259 40786 201.955
29.3764 41341 203.325
29.4939 42149 205.302
29.6113 42850 207.002
29.7288 43554 208.696
29.8463 44098 209.995
29.9638 43851 209.406
30.0812 43760 209.189
30.1987 43832 209.361
30.3162 43840 209.38
30.4337 44130 210.071
30.5512 45036 212.217
30.6687 45790 213.986
30.7862 46731 216.174
30.9037 47577 218.122
31.0212 47431 217.787
31.1387 47522 217.995
31.2562 46664 216.019
31.3737 46086 214.677
31.4912 45010 212.156
31.6087 44978 212.08
31.7262 45641 213.638
31.8436 45888 214.215
31.9611 44939 211.988
32.0785 44186 210.205
32.1959 42386 205.879
32.3134 41849 204.57
32.4308 40478 201.191
32.5482 40862 202.144
32.6655 40686 201.708
32.7829 40906 202.252
32.9002 41103 202.739
33.0176 42514 206.189
33.1349 42819 206.928
33.2522 43844 209.39
33.3694 43872 209.456
33.4867 44426 210.775
33.6039 44552 211.073
33.7211 44435 210.796
33.8383 43946 209.633
33.9554 44657 211.322
34.0725 44674 211.362
34.1896 45054 212.259
34.3067 45957 214.376
34.4237 46766 216.254
34.5407 48333 219.848
34.6577 48030 219.157
34.7746 47707 218.419
34.8915 47200 217.256
35.0084 46945 216.668
35.1252 46219 214.986
35.242 45840 214.103
35.3587 46022 214.527
35.4755 46449 215.52
35.5921 46060 214.616
35.7088 44879 211.847
35.8254 43668 208.969
35.9419 41558 203.858
36.0584 39179 197.937
36.1749 37557 193.796
36.2913 36235 190.355
36.4077 35605 188.693
36.524 34571 185.933
36.6403 34128 184.738
36.7565 33747 183.704
36.8727 33290 182.455
36.9889 32858 181.268
37.1049 30484 174.597
37.221 0 1
37.3369 0 1
37.4529 0 1
37.5687 0 1
37.6845 0 1
37.8003 0 1
37.916 0 1
38.0316 0 1
38.1472 0 1
40.5851 0 1
40.7008 0 1
40.8164 0 1
40.9322 0 1
41.048 0 1
41.1639 0 1
41.2798 0 1
41.3958 0 1
41.5118 0 1
41.6279 0 1
41.744 19844 140.869
41.8602 22375 149.583
41.9765 25143 158.565
42.0928 27964 167.224
42.2091 30551 174.788
42.3255 33256 182.362
42.4419 34869 186.732
42.5584 37011 192.382
42.675 38023 194.995
42.7915 38634 196.555
42.9081 39656 199.138
43.0248 41685 204.169
43.1415 43308 208.106
43.2582 44843 211.762
43.375 46311 215.2
43.4918 46930 216.633
43.6087 46967 216.719
43.7256 46806 216.347
43.8425 46037 214.562
43.9595 45647 213.652
44.0765 45008 212.151
44.1935 44989 212.106
44.3106 45715 213.811
44.4277 46055 214.604
44.5448 45024 212.189
44.6619 43213 207.877
44.7791 41697 204.198
44.8963 38720 196.774
45.0136 36792 191.812
45.1308 35847 189.333
45.2481 35971 189.66
45.3654 35914 189.51
45.4827 36526 191.118
45.6001 38828 197.048
45.7174 41319 203.271
45.8348 43230 207.918
45.9522 44136 210.086
46.0697 45425 213.131
46.1871 45890 214.22
46.3046 45550 213.424
46.422 45975 214.418
46.5395 46031 214.548
46.657 47718 218.445
46.7745 48488 220.2
46.892 49502 222.49
47.0096 50321 224.323
47.1271 51058 225.96
47.2446 51111 226.077
47.3622 50686 225.136
47.4797 50060 223.741
47.5973 49145 221.687
47.7149 48427 220.061
47.8324 48750 220.794
47.95 49502 222.49
48.0675 48418 220.041
48.1851 47258 217.389
48.3027 45202 212.608
48.4202 41572 203.892
48.5378 38587 196.436
48.6554 36833 191.919
48.7729 36308 190.547
48.8904 36232 190.347
49.008 36944 192.208
49.1255 38824 197.038
49.243 42199 205.424
49.3605 44739 211.516
49.478 46955 216.691
49.5955 47407 217.731
49.713 48171 219.479
49.8304 48103 219.324
49.9479 47837 218.717
50.0653 47962 219.002
50.1827 49051 221.475
50.3001 50375 224.444
50.4175 51212 226.301
50.5348 52423 228.961
50.6521 52622 229.395
50.7694 53044 230.313
50.8867 53044 230.313
51.004 52430 228.976
51.1212 50872 225.548
51.2384 50801 225.391
51.3556 50876 225.557
51.4727 51940 227.903
51.5899 51261 226.409
51.707 49320 222.081
51.824 46851 216.451
51.9411 43263 207.998
52.0581 39418 198.54
52.175 37905 194.692
52.2919 36904 192.104
52.4088 37138 192.712
52.5257 38164 195.356
52.6425 39933 199.832
52.7593 42537 206.245
52.876 44691 211.402
52.9927 46247 215.051
53.1094 45963 214.39
53.226 46752 216.222
53.3426 45918 214.285
53.4591 44345 210.583
53.5756 43087 207.574
53.692 41505 203.728
53.8084 40222 200.554
53.9248 39423 198.552
54.0411 37965 194.846
54.1573 36082 189.953
54.2735 0 1
54.3896 0 1
54.5057 0 1
54.6217 0 1
54.7377 0 1
54.8537 0 1
54.9695 0 1
55.0853 0 1
55.2011 0 1
55.3168 0 1
55.4324 0 1
57.824 0 1
57.9396 0 1
58.0553 0 1
58.1711 0 1
58.2869 0 1
58.4028 0 1
58.5187 0 1
58.6347 0 1
58.7508 0 1
58.8669 0 1
58.983 40956 202.376
59.0992 46919 216.608
59.2155 51078 226.004
59.3318 54689 233.857
59.4482 57633 240.069
59.5646 59952 244.851
59.681 61918 248.833
59.7975 63077 251.151
59.9141 63760 252.507
60.0306 65024 254.998
60.1473 66636 258.139
60.2639 66936 258.72
60.3807 65826 256.566
60.4974 64143 253.265
60.6142 60582 246.134
60.731 55263 235.081
60.8479 50384 224.464
60.9648 46969 216.723
61.0818 45772 213.944
61.1987 46049 214.59
61.3158 49676 222.881
61.4328 54298 233.019
61.5499 59378 243.676
61.667 65383 255.701
61.7841 68683 262.074
61.9013 70852 266.18
62.0185 71945 268.226
62.1357 71293 267.007
62.253 71252 266.931
62.3702 72015 268.356
62.4875 73134 270.433
62.6049 74302 272.584
62.7222 75960 275.608
62.8396 76969 277.433
62.9569 77768 278.869
63.0743 77188 277.827
63.1918 76629 276.819
63.3092 75733 275.196
63.4267 74940 273.752
63.5441 74909 273.695
63.6616 74233 272.457
63.7791 73933 271.906
63.8966 72575 269.397
64.0142 68971 262.623
64.1317 63690 252.369
64.2492 57108 238.973
64.3668 51220 226.318
64.4843 47500 217.945
64.6019 45836 214.093
64.7195 46461 215.548
64.837 48214 219.577
64.9546 53903 232.17
65.0722 60607 246.185
65.1898 66648 258.163
65.3074 72077 268.472
65.4249 73522 271.149
65.5425 75470 274.718
65.6601 75083 274.013
65.7777 75144 274.124
65.8952 74004 272.037
66.0128 75211 274.246
66.1304 76869 277.253
66.2479 78873 280.843
66.3655 79906 282.676
66.483 81011 284.624
66.6005 81432 285.363
66.718 81144 284.858
66.8355 79741 282.384
66.953 79496 281.95
67.0705 78376 279.957
67.1879 78484 280.15
67.3054 78426 280.046
67.4228 77774 278.88
67.5402 75799 275.316
67.6576 71272 266.968
67.7749 65736 256.39
67.8923 58084 241.006
68.0096 50742 225.26
68.1269 46641 215.965
68.2442 45511 213.333
68.3614 45563 213.455
68.4787 48591 220.434
68.5958 54230 232.873
68.713 61908 248.813
68.8302 69764 264.129
68.9473 75480 274.736
69.0643 78640 280.428
69.1814 80678 284.039
69.2984 79689 282.292
69.4154 77249 277.937
69.5323 74395 272.754
69.6492 73448 271.013
69.7661 74430 272.819
69.8829 74893 273.666
69.9997 75071 273.991
70.1165 75085 274.016
70.2332 74223 272.439
70.3499 72417 269.104
70.4665 69692 263.992
70.5831 66748 258.356
70.6996 62451 249.902
70.8161 59970 244.888
70.9326 57904 240.632
71.049 55967 236.573
71.1653 52418 228.95
71.2817 48256 219.672
71.3979 42388 205.883
71.5141 36291 190.502
71.6303 28489 168.787
71.7464 20158 141.979
71.8624 0 1
71.9784 0 1
72.0944 0 1
72.2102 0 1
72.3261 0 1
72.4418 0 1
72.5575 0 1
72.6732 0 1
75.1054 0 1
75.2209 0 1
75.3365 0 1
75.4521 0 1
75.5678 0 1
75.6835 0 1
75.7993 0 1
75.9151 0 1
76.031 0 1
76.147 57640 240.083
76.263 62331 249.662
76.3791 65001 254.953
76.4952 63918 252.82
76.6113 62026 249.05
76.7276 58037 240.909
76.8438 53877 232.114
76.9601 48837 220.991
77.0765 44046 209.871
77.1929 42600 206.398
77.3093 42729 206.71
77.4258 43929 209.592
77.5423 49992 223.589
77.6589 59214 243.339
77.7755 69443 263.52
77.8921 77889 279.086
78.0088 83034 288.156
78.1256 85765 292.857
78.2423 86975 294.915
78.3591 85177 291.851
78.4759 84047 289.909
78.5928 83427 288.837
78.7097 84070 289.948
78.8266 84502 290.692
78.9436 90464 300.772
79.0606 89838 299.73
79.1776 90945 301.571
79.2946 92215 303.669
79.4117 92290 303.793
79.5288 91924 303.19
79.6459 91320 302.192
79.7631 89184 298.637
79.8802 89608 299.346
79.9974 91559 302.587
80.1147 91669 302.769
80.2319 89520 299.199
80.3491 82697 287.571
80.4664 74496 272.94
80.5837 64088 253.156
80.701 55000 234.521
80.8183 49479 222.439
80.9357 47487 217.915
81.053 48413 220.03
81.1704 52133 228.327
81.2877 61054 247.091
81.4051 74108 272.228
81.5225 87393 295.623
81.6399 94088 306.738
81.7573 99428 315.322
81.8747 99392 315.265
81.9922 100512 317.036
82.1096 98916 314.509
82.227 97006 311.458
82.3444 95969 309.789
82.4619 99227 315.003
82.5793 100896 317.641
82.6967 103823 322.216
82.8142 105236 324.401
82.9316 106492 326.331
83.049 106459 326.281
83.1664 106044 325.644
83.2838 105556 324.894
83.4012 104573 323.377
83.5186 102776 320.587
83.636 102998 320.933
83.7534 102223 319.723
83.8708 98342 313.595
83.9881 90929 301.544
84.1055 81274 285.086
84.2228 72982 270.152
84.3401 63014 251.026
84.4575 55149 234.838
84.5747 51184 226.239
84.692 51699 227.374
84.8093 57741 240.294
84.9265 69232 263.12
85.0437 82766 287.691
85.1609 95620 309.225
85.2781 105928 325.466
85.3952 112038 334.721
85.5123 113690 337.179
85.6294 113214 336.473
85.7465 110761 332.808
85.8636 108993 330.141
85.9806 108142 328.85
86.0976 111690 334.201
86.2145 114953 339.047
86.3315 119370 345.5
86.4484 116582 341.441
86.5652 118868 344.772
86.682 115696 340.141
86.7988 112446 335.33
86.9156 108790 329.833
87.0323 106496 326.337
87.149 103558 321.804
87.2657 103009 320.95
87.3823 102279 319.811
87.4988 97445 312.162
87.6154 87568 295.919
87.7318 77589 278.548
87.8483 65884 256.679
87.9647 53466 231.227
88.081 45548 213.42
88.1973 42168 205.348
88.3136 41371 203.399
88.4298 45121 212.417
88.546 52827 229.841
88.6621 60662 246.297
88.7781 67048 258.936
88.8942 0 1
89.0101 0 1
89.126 0 1
89.2419 0 1
89.3577 0 1
89.4734 0 1
89.5891 0 1
89.7047 0 1
89.8203 0 1
89.9358 0 1
92.3269 0 1
92.4424 0 1
92.558 0 1
92.6736 0 1
92.7893 0 1
92.905 0 1
93.0208 0 1
93.1366 0 1
93.2525 0 1
93.3685 0 1
93.4845 0 1
93.6005 48174 219.486
93.7167 52542 229.22
93.8328 59918 244.782
93.949 72754 269.729
94.0653 88703 297.83
94.1816 103504 321.72
94.2979 114279 338.052
94.4143 122398 349.854
94.5307 128220 358.078
94.6472 132557 364.084
94.7637 134637 366.929
94.8803 132976 364.659
94.9969 131551 362.7
95.1135 131782 363.018
95.2302 135586 368.22
95.3469 137519 370.836
95.4637 140753 375.171
95.5805 141979 376.801
95.6973 140648 375.031
95.8142 138888 372.677
95.9311 136969 370.093
96.048 137266 370.494
96.1649 135120 367.587
96.2819 134153 366.269
96.3989 132567 364.098
96.516 128014 357.79
96.633 121004 347.856
96.7501 108997 330.147
96.8673 97295 311.921
96.9844 85861 293.02
97.1016 75747 275.222
97.2188 69733 264.07
97.336 66368 257.62
97.4532 70102 264.768
97.5704 80340 283.443
97.6877 94905 308.067
97.805 110762 332.809
97.9223 124665 353.079
98.0396 135443 368.026
98.1569 141209 375.778
98.2743 143036 378.201
98.3916 141814 376.582
98.509 140680 375.073
98.6264 137030 370.176
98.7438 138240 371.806
98.8612 141577 376.267
98.9786 145348 381.245
99.096 146698 383.012
99.2134 147993 384.699
99.3308 148513 385.374
99.4482 148497 385.353
99.5656 146342 382.547
99.6831 144905 380.664
99.8005 143642 379.001
99.9179 141341 375.953
100.035 140320 374.593
100.153 136149 368.984
100.27 125745 354.605
100.388 111510 333.931
100.505 98167 313.316
100.622 85841 292.986
100.74 76899 277.307
100.857 71829 268.009
100.975 72152 268.611
101.092 78680 280.5
101.209 92285 303.784
101.327 111091 333.303
101.444 127763 357.44
101.561 139670 373.724
101.679 146720 383.04
101.796 148895 385.869
101.913 148757 385.69
102.03 145136 380.967
102.148 142614 377.643
102.265 144833 380.569
102.382 143386 378.663
102.499 146824 383.176
102.616 150334 387.729
102.733 151763 389.568
102.851 150878 388.43
102.968 152761 390.847
103.085 151705 389.493
103.202 148745 385.675
103.319 145949 382.033
103.436 144502 380.134
103.552 143734 379.123
103.669 142171 377.056
103.786 135580 368.212
103.903 123414 351.303
104.02 108262 329.032
104.137 95056 308.312
104.253 84512 290.709
104.37 76504 276.594
104.487 74653 273.227
104.603 76227 276.092
104.72 82196 286.698
104.836 92503 304.143
104.953 103037 320.994
105.069 111028 333.209
105.186 116136 340.787
105.302 117838 343.275
105.418 115608 340.012
105.535 109737 331.266
105.651 102850 320.702
105.767 95483 309.003
105.883 88267 297.098
105.999 79955 282.763
106.115 0 1
106.231 0 1
106.347 0 1
106.463 0 1
106.579 0 1
106.694 0 1
106.81 0 1
106.926 0 1
107.041 0 1
107.157 0 1
109.576 0 1
109.692 0 1
109.807 0 1
109.923 0 1
110.039 0 1
110.155 0 1
110.27 0 1
110.386 0 1
110.502 0 1
110.618 86100 293.428
110.735 92618 304.332
110.851 96552 310.728
110.967 100861 317.586
111.083 108830 329.894
111.199 116233 340.93
111.316 122956 350.651
111.432 127572 357.172
111.549 131262 362.301
111.665 132775 364.383
111.782 133035 364.74
111.898 133086 364.81
112.015 132192 363.582
112.132 130296 360.965
112.248 130697 361.52
112.365 130759 361.606
112.482 126741 356.007
112.599 112399 335.26
112.716 99017 314.67
112.832 86915 294.814
112.949 76838 277.197
113.066 70947 266.359
113.183 69556 263.735
113.3 70476 265.473
113.417 76991 277.473
113.534 90850 301.413
113.652 108112 328.804
113.769 119203 345.258
113.886 127335 356.84
114.003 132179 363.564
114.12 133985 366.04
114.238 131198 362.213
114.355 126912 356.247
114.472 124225 352.456
114.589 124781 353.244
114.707 128613 358.627
114.824 129763 360.226
114.942 131405 362.498
115.059 132079 363.427
115.176 132187 363.575
115.294 130811 361.678
115.411 129316 359.605
115.529 126021 354.994
115.646 123299 351.14
115.764 122237 349.624
115.881 121342 348.342
115.999 120249 346.769
116.116 113924 337.526
116.234 102434 320.053
116.351 89914 299.857
116.469 80940 284.5
116.586 72903 270.006
116.704 68334 261.408
116.821 67714 260.219
116.939 69048 262.77
117.056 77765 278.864
117.174 91551 302.574
117.291 104493 323.254
117.409 112505 335.418
117.526 119938 346.321
117.644 121219 348.165
117.761 121727 348.894
117.879 119080 345.08
117.996 115091 339.251
118.114 114765 338.77
118.231 116708 341.626
118.349 119845 346.186
118.466 121106 348.003
118.584 121661 348.799
118.701 121157 348.076
118.819 119516 345.711
118.936 118259 343.888
119.053 116587 341.448
119.171 113393 336.739
119.288 111182 333.44
119.405 110559 332.504
119.523 109901 331.513
119.64 108311 329.106
119.757 105388 324.635
119.875 96626 310.847
119.992 85756 292.841
120.109 76695 276.939
120.226 70295 265.132
120.343 65903 256.716
120.46 64661 254.285
120.578 64293 253.561
120.695 68142 261.04
120.812 77380 278.173
120.929 87423 295.674
121.046 93519 305.809
121.163 97422 312.125
121.279 99695 315.745
121.396 99905 316.078
121.513 97806 312.74
121.63 94540 307.474
121.747 90086 300.143
121.863 89802 299.67
121.98 90883 301.468
122.097 90521 300.867
122.213 89725 299.541
122.33 87667 296.086
122.446 85872 293.039
122.563 81911 286.201
122.679 77420 278.244
122.795 72682 269.596
122.912 67838 260.457
123.028 63699 252.387
123.144 59440 243.803
123.26 55829 236.282
123.377 0 1
123.493 0 1
123.609 0 1
123.725 0 1
123.84 0 1
123.956 0 1
124.072 0 1
124.188 0 1
124.303 0 1
124.419 0 1
126.852 0 1
126.968 0 1
127.083 0 1
127.199 0 1
127.315 0 1
127.431 0 1
127.547 0 1
127.663 0 1
127.779 0 1
127.895 0 1
128.011 0 1
128.127 0 1
128.243 0 1
128.359 102931 320.829
128.476 104640 323.481
128.592 106434 326.242
128.708 107850 328.405
128.825 108686 329.676
128.941 104302 322.958
129.058 97094 311.599
129.174 88930 298.211
129.291 82430 287.106
129.408 78562 280.289
129.524 75806 275.329
129.641 74602 273.134
129.758 76096 275.855
129.875 82610 287.42
129.992 91873 303.106
130.108 100766 317.437
130.225 106920 326.986
130.342 111573 334.025
130.459 110934 333.068
130.576 114002 337.642
130.693 110381 332.236
130.81 110048 331.735
130.928 111290 333.602
131.045 114284 338.059
131.162 116316 341.051
131.279 118266 343.898
131.396 118095 343.65
131.513 117154 342.278
131.631 115907 340.451
131.748 114600 338.526
131.865 112244 335.028
131.983 109889 331.495
132.1 108778 329.815
132.217 110003 331.667
132.335 109005 330.159
132.452 106574 326.457
132.57 101266 318.223
132.687 92445 304.048
132.804 88598 297.654
132.922 82379 287.017
133.039 78945 280.972
133.157 77651 278.659
133.274 76118 275.895
133.392 79297 281.597
133.509 86282 293.738
133.627 93736 306.163
133.744 100491 317.003
133.862 106133 325.781
133.979 108189 328.921
134.097 109230 330.5
134.214 107910 328.497
134.332 105889 325.406
134.449 106872 326.913
134.567 109564 331.005
134.684 112633 335.608
134.802 113729 337.237
134.919 114344 338.148
135.037 114185 337.913
135.154 111873 334.474
135.272 110587 332.546
135.389 109434 330.808
135.507 107071 327.217
135.624 106310 326.052
135.742 106253 325.965
135.859 106402 326.193
135.977 106444 326.258
136.094 103476 321.677
136.211 97893 312.879
136.329 92505 304.146
136.446 87504 295.811
136.564 83389 288.772
136.681 80945 284.508
136.798 78530 280.232
136.915 77810 278.944
137.033 79111 281.267
137.15 83517 288.993
137.267 90232 300.386
137.384 95520 309.063
137.502 99059 314.736
137.619 101133 318.014
137.736 103161 321.187
137.853 98680 314.134
137.97 100622 317.21
138.087 99182 314.932
138.204 102516 320.181
138.321 103526 321.755
138.438 102945 320.85
138.555 102961 320.875
138.672 100320 316.733
138.788 98664 314.108
138.905 94762 307.834
139.022 90870 301.447
139.139 87380 295.601
139.255 82986 288.073
139.372 80317 283.403
139.488 76707 276.96
139.605 74884 273.649
139.721 71236 266.901
139.838 66432 257.744
139.954 60260 245.479
140.071 53968 232.31
140.187 48671 220.615
140.303 43682 209.002
140.419 40170 200.425
140.535 37239 192.974
140.652 34372 185.397
140.768 0 1
140.884 0 1
141 0 1
141.115 0 1
141.231 0 1
141.347 0 1
141.463 0 1
141.578 0 1
141.694 0 1
144.104 0 1
144.219 0 1
144.335 0 1
144.45 0 1
144.566 0 1
144.682 0 1
144.798 0 1
144.914 0 1
145.03 0 1
145.146 62692 250.384
145.262 63606 252.202
145.378 63169 251.334
145.494 62054 249.106
145.61 61468 247.927
145.726 61033 247.049
145.842 61043 247.069
145.959 62874 250.747
146.075 65067 255.082
146.192 68250 261.247
146.308 69157 262.977
146.425 71351 267.116
146.541 71903 268.147
146.658 71360 267.133
146.774 70296 265.134
146.891 70625 265.754
147.008 73982 271.996
147.125 74581 273.095
147.241 75702 275.14
147.358 76756 277.049
147.475 77468 278.331
147.592 76728 276.998
147.709 75527 274.822
147.826 74612 273.152
147.943 73010 270.204
148.06 72007 268.341
148.177 71408 267.223
148.294 71679 267.729
148.411 73088 270.348
148.528 73352 270.836
148.645 72138 268.585
148.762 71174 266.785
148.88 69332 263.31
148.997 69353 263.35
149.114 65204 255.351
149.231 64708 254.378
149.349 63778 252.543
149.466 61670 248.334
149.583 61791 248.578
149.701 62977 250.952
149.818 63597 252.184
149.935 65548 256.023
150.053 67047 258.934
150.17 68713 262.132
150.287 69445 263.524
150.405 68418 261.568
150.522 68008 260.783
150.64 69440 263.515
150.757 71352 267.118
150.875 73410 270.943
150.992 73772 271.61
151.11 74470 272.892
151.227 73413 270.948
151.344 72935 270.065
151.462 72028 268.38
151.579 69759 264.119
151.697 68522 261.767
151.814 68965 262.612
151.932 68636 261.985
152.049 69386 263.412
152.167 69673 263.956
152.284 69020 262.717
152.402 67820 260.423
152.519 66146 257.189
152.636 64879 254.714
152.754 63401 251.796
152.871 62363 249.726
152.989 61440 247.871
153.106 60312 245.585
153.223 59776 244.491
153.341 60617 246.205
153.458 61249 247.485
153.575 62276 249.552
153.693 62912 250.823
153.81 64138 253.255
153.927 63453 251.899
154.044 62574 250.148
154.162 62890 250.779
154.279 64431 253.833
154.396 66078 257.056
154.513 67271 259.367
154.63 68796 262.29
154.747 68973 262.627
154.864 67541 259.887
154.981 66488 257.853
155.098 65373 255.681
155.215 63615 252.22
155.332 62950 250.898
155.449 61571 248.135
155.566 62538 250.076
155.683 61868 248.733
155.8 61237 247.461
155.917 59970 244.888
156.033 57754 240.321
156.15 0 1
156.267 0 1
156.383 0 1
156.5 0 1
156.617 0 1
156.733 0 1
156.85 0 1
156.966 0 1
157.082 0 1
157.199 0 1
157.315 0 1
157.431 0 1
157.547 0 1
157.664 0 1
157.78 0 1
157.896 0 1
158.012 0 1
158.128 0 1
158.244 0 1
158.359 0 1
158.475 0 1
158.591 0 1
158.706 0 1
