
6.15755 0 1
6.2731 0 1
6.3887 0 1
6.50437 0 1
6.62009 0 1
6.73587 0 1
6.8517 0 1
6.96759 0 1
7.08353 0 1
7.19952 0 1
7.31557 0 1
7.43166 0 1
7.54781 0 1
7.664 0 1
7.78024 0 1
7.89653 0 1
8.01286 0 1
8.12924 0 1
8.24567 0 1
8.36213 0 1
8.47864 0 1
8.59519 0 1
8.71178 0 1
8.82841 0 1
8.94508 0 1
9.06179 0 1
9.17853 0 1
9.29531 0 1
9.41212 0 1
9.52897 0 1
9.64584 0 1
9.76276 0 1
9.8797 0 1
9.99667 0 1
10.1137 0 1
10.2307 0 1
10.3478 0 1
10.4648 0 1
10.5819 0 1
10.6991 0 1
10.8162 0 1
10.9334 0 1
11.0506 0 1
11.1678 0 1
11.285 0 1
11.4023 0 1
11.5196 0 1
11.6369 0 1
11.7542 0 1
11.8715 0 1
11.9888 0 1
12.1062 0 1
12.2235 0 1
12.3409 0 1
12.4582 0 1
12.5756 0 1
12.693 0 1
12.8104 0 1
12.9278 0 1
13.0452 0 1
13.1626 0 1
13.28 0 1
13.3974 0 1
13.5149 0 1
13.6323 0 1
13.7497 0 1
13.8671 0 1
13.9845 0 1
14.1019 0 1
14.2193 0 1
14.3367 0 1
14.4541 0 1
14.5714 0 1
14.6888 0 1
14.8062 0 1
14.9235 0 1
15.0408 2939 54.2125
15.1581 2989 54.6717
15.2755 3159 56.205
15.3927 3158 56.1961
15.51 3095 55.6327
15.6273 3047 55.1996
15.7445 3076 55.4617
15.8617 2789 52.811
15.9789 2934 54.1664
16.0961 2804 52.9528
16.2132 2839 53.2823
16.3304 2831 53.2071
16.4475 2668 51.6527
16.5646 2670 51.672
16.6816 2651 51.4879
16.7986 2547 50.4678
16.9156 2495 49.95
17.0326 2580 50.7937
17.1496 2565 50.6458
17.2665 2454 49.5379
17.3833 2479 49.7896
17.5002 2449 49.4874
17.617 2477 49.7695
17.7338 2520 50.1996
17.8505 2493 49.93
17.9672 2446 49.4571
18.0839 2283 47.7807
18.2005 2398 48.9694
18.3171 2393 48.9183
18.4337 2548 50.4777
18.5502 2462 49.6185
18.6666 2487 49.8698
18.7831 2482 49.8197
18.8994 2485 49.8498
19.0158 2537 50.3686
19.1321 2394 48.9285
19.2483 2269 47.634
19.3645 2133 46.1844
19.4806 1994 44.6542
19.5967 1934 43.9773
19.7128 1847 42.9767
19.8288 1794 42.3556
19.9447 1567 39.5854
20.0606 0 1
20.1764 0 1
20.2922 0 1
20.4079 0 1
20.5236 0 1
20.6392 0 1
20.7548 0 1
20.8702 0 1
23.3078 0 1
23.4233 0 1
23.539 0 1
23.6547 0 1
23.7704 0 1
23.8862 0 1
24.0021 0 1
24.118 0 1
24.234 0 1
24.35 0 1
24.4661 1101 33.1813
24.5822 1259 35.4824
24.6984 1531 39.128
24.8146 1752 41.8569
24.9309 1995 44.6654
25.0472 2191 46.8081
25.1636 2423 49.224
25.28 2599 50.9804
25.3965 2655 51.5267
25.513 2728 52.2303
25.6296 2813 53.0377
25.7462 2822 53.1225
25.8628 2704 52
25.9795 2780 52.7257
26.0962 2743 52.3737
26.213 2637 51.3517
26.3298 2541 50.4083
26.4466 2433 49.3254
26.5635 2326 48.2286
26.6804 2175 46.6369
26.7973 2166 46.5403
26.9143 2173 46.6154
27.0313 2163 46.5081
27.1483 2195 46.8508
27.2653 2343 48.4045
27.3824 2290 47.8539
27.4996 2462 49.6185
27.6167 2537 50.3686
27.7339 2520 50.1996
27.8511 2463 49.6286
27.9683 2446 49.4571
28.0855 2469 49.689
28.2028 2396 48.949
28.3201 2383 48.816
28.4374 2483 49.8297
28.5547 2442 49.4166
28.6721 2520 50.1996
28.7894 2545 50.448
28.9068 2467 49.6689
29.0242 2479 49.7896
29.1416 2386 48.8467
29.259 2359 48.5695
29.3764 2432 49.3153
29.4939 2385 48.8365
29.6113 2322 48.1871
29.7288 2321 48.1768
29.8463 2254 47.4763
29.9638 2096 45.7821
30.0812 2058 45.3652
30.1987 2032 45.0777
30.3162 2180 46.6905
30.4337 2158 46.4543
30.5512 2172 46.6047
30.6687 2274 47.6865
30.7862 2227 47.1911
30.9037 2300 47.9583
31.0212 2546 50.4579
31.1387 2601 51
31.2562 2607 51.0588
31.3737 2537 50.3686
31.4912 2507 50.07
31.6087 2562 50.6162
31.7262 2336 48.3322
31.8436 2401 49
31.9611 2333 48.3011
32.0785 2343 48.4045
32.1959 2323 48.1975
32.3134 2378 48.7647
32.4308 2347 48.4458
32.5482 2229 47.2123
32.6655 2182 46.7119
32.7829 2188 46.7761
32.9002 2118 46.0217
33.0176 2195 46.8508
33.1349 2151 46.3789
33.2522 2090 45.7165
33.3694 2012 44.8553
33.4867 2054 45.3211
33.6039 2023 44.9778
33.7211 1998 44.699
33.8383 1940 44.0454
33.9554 2024 44.9889
34.0725 2136 46.2169
34.1896 2106 45.8912
34.3067 2137 46.2277
34.4237 2116 46
34.5407 2172 46.6047
34.6577 2268 47.6235
34.7746 2395 48.9387
34.8915 2355 48.5283
35.0084 2247 47.4025
35.1252 2244 47.3709
35.242 2197 46.8722
35.3587 2123 46.076
35.4755 2193 46.8295
35.5921 2126 46.1086
35.7088 2114 45.9783
35.8254 2101 45.8367
35.9419 2082 45.6289
36.0584 2240 47.3286
36.1749 2062 45.4093
36.2913 2076 45.5631
36.4077 1949 44.1475
36.524 1890 43.4741
36.6403 1751 41.845
36.7565 1613 40.1622
36.8727 1494 38.6523
36.9889 1414 37.6032
37.1049 1213 34.8281
37.221 0 1
37.3369 0 1
37.4529 0 1
37.5687 0 1
37.6845 0 1
37.8003 0 1
37.916 0 1
38.0316 0 1
38.1472 0 1
40.5851 0 1
40.7008 0 1
40.8164 0 1
40.9322 0 1
41.048 0 1
41.1639 0 1
41.2798 0 1
41.3958 0 1
41.5118 0 1
41.6279 0 1
41.744 1028 32.0624
41.8602 1127 33.5708
41.9765 1389 37.2693
42.0928 1332 36.4966
42.2091 1479 38.4578
42.3255 1457 38.1707
42.4419 1516 38.9358
42.5584 1518 38.9615
42.675 1625 40.3113
42.7915 1660 40.7431
42.9081 1668 40.8412
43.0248 1607 40.0874
43.1415 1566 39.5727
43.2582 1610 40.1248
43.375 1549 39.3573
43.4918 1680 40.9878
43.6087 1623 40.2865
43.7256 1613 40.1622
43.8425 1628 40.3485
43.9595 1634 40.4228
44.0765 1651 40.6325
44.1935 1586 39.8246
44.3106 1656 40.694
44.4277 1630 40.3733
44.5448 1670 40.8656
44.6619 1624 40.2989
44.7791 1672 40.8901
44.8963 1800 42.4264
45.0136 1707 41.3159
45.1308 1687 41.0731
45.2481 1663 40.7799
45.3654 1643 40.5339
45.4827 1647 40.5832
45.6001 1665 40.8044
45.7174 1661 40.7554
45.8348 1598 39.975
45.9522 1593 39.9124
46.0697 1566 39.5727
46.1871 1578 39.724
46.3046 1680 40.9878
46.422 1613 40.1622
46.5395 1577 39.7115
46.657 1494 38.6523
46.7745 1559 39.4842
46.892 1564 39.5474
47.0096 1699 41.2189
47.1271 1673 40.9023
47.2446 1755 41.8927
47.3622 1693 41.1461
47.4797 1606 40.0749
47.5973 1645 40.5586
47.7149 1599 39.9875
47.8324 1563 39.5348
47.95 1615 40.1871
48.0675 1531 39.128
48.1851 1656 40.694
48.3027 1700 41.2311
48.4202 1645 40.5586
48.5378 1714 41.4005
48.6554 1669 40.8534
48.7729 1650 40.6202
48.8904 1761 41.9643
49.008 1623 40.2865
49.1255 1601 40.0125
49.243 1587 39.8372
49.3605 1488 38.5746
49.478 1468 38.3145
49.5955 1452 38.1051
49.713 1460 38.2099
49.8304 1585 39.8121
49.9479 1535 39.1791
50.0653 1465 38.2753
50.1827 1367 36.973
50.3001 1465 38.2753
50.4175 1488 38.5746
50.5348 1616 40.1995
50.6521 1578 39.724
50.7694 1608 40.0999
50.8867 1583 39.7869
51.004 1598 39.975
51.1212 1549 39.3573
51.2384 1657 40.7063
51.3556 1515 38.923
51.4727 1626 40.3237
51.5899 1605 40.0625
51.707 1596 39.95
51.824 1606 40.0749
51.9411 1684 41.0366
52.0581 1631 40.3856
52.175 1582 39.7744
52.2919 1566 39.5727
52.4088 1588 39.8497
52.5257 1605 40.0625
52.6425 1551 39.3827
52.7593 1485 38.5357
52.876 1437 37.9078
52.9927 1403 37.4566
53.1094 1386 37.229
53.226 1353 36.7831
53.3426 1425 37.7492
53.4591 1444 38
53.5756 1407 37.51
53.692 1209 34.7707
53.8084 1229 35.0571
53.9248 1114 33.3766
54.0411 1003 31.6702
54.1573 989 31.4484
54.2735 0 1
54.3896 0 1
54.5057 0 1
54.6217 0 1
54.7377 0 1
54.8537 0 1
54.9695 0 1
55.0853 0 1
55.2011 0 1
55.3168 0 1
55.4324 0 1
57.824 0 1
57.9396 0 1
58.0553 0 1
58.1711 0 1
58.2869 0 1
58.4028 0 1
58.5187 0 1
58.6347 0 1
58.7508 0 1
58.8669 0 1
58.983 1364 36.9324
59.0992 1554 39.4208
59.2155 1736 41.6653
59.3318 1903 43.6234
59.4482 2089 45.7056
59.5646 2097 45.793
59.681 2223 47.1487
59.7975 2231 47.2335
59.9141 2370 48.6826
60.0306 2344 48.4149
60.1473 2435 49.3457
60.2639 2434 49.3356
60.3807 2471 49.7092
60.4974 2474 49.7393
60.6142 2487 49.8698
60.731 2421 49.2037
60.8479 2404 49.0306
60.9648 2385 48.8365
61.0818 2289 47.8435
61.1987 2199 46.8935
61.3158 2207 46.9787
61.4328 2168 46.5618
61.5499 2037 45.1331
61.667 2065 45.4423
61.7841 2057 45.3542
61.9013 2036 45.1221
62.0185 2077 45.5741
62.1357 2099 45.8148
62.253 2014 44.8776
62.3702 2050 45.2769
62.4875 2098 45.8039
62.6049 2027 45.0222
62.7222 2032 45.0777
62.8396 2129 46.1411
62.9569 2015 44.8888
63.0743 1999 44.7102
63.1918 1930 43.9318
63.3092 1991 44.6206
63.4267 2037 45.1331
63.5441 2010 44.833
63.6616 2059 45.3762
63.7791 2000 44.7214
63.8966 2012 44.8553
64.0142 2073 45.5302
64.1317 2004 44.7661
64.2492 2037 45.1331
64.3668 1983 44.5309
64.4843 1983 44.5309
64.6019 1891 43.4856
64.7195 1846 42.9651
64.837 1887 43.4396
64.9546 1854 43.0581
65.0722 1696 41.1825
65.1898 1665 40.8044
65.3074 1719 41.4608
65.4249 1733 41.6293
65.5425 1712 41.3763
65.6601 1850 43.0116
65.7777 1805 42.4853
65.8952 1883 43.3935
66.0128 1847 42.9767
66.1304 1930 43.9318
66.2479 1838 42.8719
66.3655 1930 43.9318
66.483 1892 43.4971
66.6005 1924 43.8634
66.718 1896 43.5431
66.8355 1922 43.8406
66.953 1873 43.2782
67.0705 1862 43.1509
67.1879 2032 45.0777
67.3054 1972 44.4072
67.4228 1986 44.5646
67.5402 2022 44.9667
67.6576 1955 44.2154
67.7749 1956 44.2267
67.8923 1936 44
68.0096 1942 44.0681
68.1269 1943 44.0795
68.2442 1931 43.9431
68.3614 1835 42.8369
68.4787 1787 42.2729
68.5958 1692 41.1339
68.713 1656 40.694
68.8302 1632 40.398
68.9473 1771 42.0833
69.0643 1686 41.0609
69.1814 1779 42.1782
69.2984 1810 42.5441
69.4154 1780 42.19
69.5323 1847 42.9767
69.6492 1860 43.1277
69.7661 1791 42.3202
69.8829 1812 42.5676
69.9997 1859 43.1161
70.1165 1762 41.9762
70.2332 1800 42.4264
70.3499 1737 41.6773
70.4665 1631 40.3856
70.5831 1480 38.4708
70.6996 1439 37.9342
70.8161 1341 36.6197
70.9326 1340 36.606
71.049 1205 34.7131
71.1653 1199 34.6266
71.2817 1099 33.1512
71.3979 1052 32.4345
71.5141 946 30.7571
71.6303 918 30.2985
71.7464 694 26.3439
71.8624 0 1
71.9784 0 1
72.0944 0 1
72.2102 0 1
72.3261 0 1
72.4418 0 1
72.5575 0 1
72.6732 0 1
75.1054 0 1
75.2209 0 1
75.3365 0 1
75.4521 0 1
75.5678 0 1
75.6835 0 1
75.7993 0 1
75.9151 0 1
76.031 0 1
76.147 1200 34.641
76.263 1364 36.9324
76.3791 1474 38.3927
76.4952 1547 39.3319
76.6113 1663 40.7799
76.7276 1617 40.2119
76.8438 1655 40.6817
76.9601 1672 40.8901
77.0765 1629 40.3609
77.1929 1574 39.6737
77.3093 1644 40.5463
77.4258 1588 39.8497
77.5423 1526 39.064
77.6589 1472 38.3667
77.7755 1488 38.5746
77.8921 1461 38.223
78.0088 1383 37.1887
78.1256 1413 37.5899
78.2423 1404 37.47
78.3591 1588 39.8497
78.4759 1566 39.5727
78.5928 1625 40.3113
78.7097 1683 41.0244
78.8266 1560 39.4968
78.9436 1643 40.5339
79.0606 1609 40.1123
79.1776 1605 40.0625
79.2946 1685 41.0488
79.4117 1575 39.6863
79.5288 1619 40.2368
79.6459 1603 40.0375
79.7631 1651 40.6325
79.8802 1712 41.3763
79.9974 1786 42.2611
80.1147 1784 42.2374
80.2319 1756 41.9047
80.3491 1811 42.5558
80.4664 1824 42.7083
80.5837 1744 41.7612
80.701 1708 41.328
80.8183 1628 40.3485
80.9357 1712 41.3763
81.053 1650 40.6202
81.1704 1658 40.7185
81.2877 1652 40.6448
81.4051 1533 39.1535
81.5225 1585 39.8121
81.6399 1439 37.9342
81.7573 1508 38.833
81.8747 1447 38.0395
81.9922 1531 39.128
82.1096 1641 40.5093
82.227 1700 41.2311
82.3444 1670 40.8656
82.4619 1648 40.5956
82.5793 1681 41
82.6967 1779 42.1782
82.8142 1714 41.4005
82.9316 1771 42.0833
83.049 1773 42.107
83.1664 1637 40.4599
83.2838 1659 40.7308
83.4012 1686 41.0609
83.5186 1720 41.4729
83.636 1777 42.1545
83.7534 1856 43.0813
83.8708 1862 43.1509
83.9881 1906 43.6578
84.1055 1857 43.0929
84.2228 1785 42.2493
84.3401 1819 42.6497
84.4575 1733 41.6293
84.5747 1742 41.7373
84.692 1671 40.8779
84.8093 1714 41.4005
84.9265 1618 40.2244
85.0437 1510 38.8587
85.1609 1570 39.6232
85.2781 1475 38.4057
85.3952 1431 37.8286
85.5123 1540 39.2428
85.6294 1702 41.2553
85.7465 1634 40.4228
85.8636 1746 41.7852
85.9806 1754 41.8808
86.0976 1694 41.1582
86.2145 1747 41.7971
86.3315 1718 41.4488
86.4484 1741 41.7253
86.5652 1910 43.7035
86.682 1772 42.0951
86.7988 1744 41.7612
86.9156 1741 41.7253
87.0323 1702 41.2553
87.149 1734 41.6413
87.2657 1808 42.5206
87.3823 1774 42.1189
87.4988 1685 41.0488
87.6154 1680 40.9878
87.7318 1598 39.975
87.8483 1559 39.4842
87.9647 1493 38.6394
88.081 1269 35.623
88.1973 1320 36.3318
88.3136 1187 34.4529
88.4298 1053 32.45
88.546 1034 32.1559
88.6621 880 29.6648
88.7781 770 27.7489
88.8942 0 1
89.0101 0 1
89.126 0 1
89.2419 0 1
89.3577 0 1
89.4734 0 1
89.5891 0 1
89.7047 0 1
89.8203 0 1
89.9358 0 1
92.3269 0 1
92.4424 0 1
92.558 0 1
92.6736 0 1
92.7893 0 1
92.905 0 1
93.0208 0 1
93.1366 0 1
93.2525 0 1
93.3685 0 1
93.4845 0 1
93.6005 1394 37.3363
93.7167 1576 39.6989
93.8328 1582 39.7744
93.949 1658 40.7185
94.0653 1655 40.6817
94.1816 1629 40.3609
94.2979 1556 39.4462
94.4143 1558 39.4715
94.5307 1573 39.6611
94.6472 1651 40.6325
94.7637 1686 41.0609
94.8803 1708 41.328
94.9969 1814 42.5911
95.1135 1870 43.2435
95.2302 1811 42.5558
95.3469 1847 42.9767
95.4637 1919 43.8064
95.5805 1880 43.359
95.6973 1881 43.3705
95.8142 1799 42.4146
95.9311 1778 42.1663
96.048 1807 42.5088
96.1649 1739 41.7013
96.2819 1811 42.5558
96.3989 1771 42.0833
96.516 1893 43.5086
96.633 1945 44.1022
96.7501 1996 44.6766
96.8673 2017 44.911
96.9844 1998 44.699
97.1016 1946 44.1135
97.2188 1856 43.0813
97.336 1830 42.7785
97.4532 1855 43.0697
97.5704 1817 42.6263
97.6877 1759 41.9404
97.805 1750 41.833
97.9223 1674 40.9145
98.0396 1638 40.4722
98.1569 1634 40.4228
98.2743 1746 41.7852
98.3916 1814 42.5911
98.509 1881 43.3705
98.6264 1987 44.5758
98.7438 1970 44.3847
98.8612 1963 44.3058
98.9786 1994 44.6542
99.096 1892 43.4971
99.2134 2025 45
99.3308 1996 44.6766
99.4482 1974 44.4297
99.5656 1968 44.3621
99.6831 2043 45.1996
99.8005 2028 45.0333
99.9179 2067 45.4643
100.035 2025 45
100.153 2042 45.1885
100.27 2045 45.2217
100.388 1961 44.2832
100.505 2008 44.8107
100.622 2005 44.7772
100.74 1965 44.3283
100.857 1871 43.2551
100.975 1899 43.5775
101.092 1928 43.909
101.209 1899 43.5775
101.327 1836 42.8486
101.444 1733 41.6293
101.561 1754 41.8808
101.679 1710 41.3521
101.796 1722 41.497
101.913 1754 41.8808
102.03 1831 42.7902
102.148 1998 44.699
102.265 2061 45.3982
102.382 2054 45.3211
102.499 2049 45.2659
102.616 2028 45.0333
102.733 2081 45.618
102.851 2079 45.5961
102.968 2095 45.7712
103.085 2081 45.618
103.202 2025 45
103.319 1978 44.4747
103.436 2051 45.288
103.552 2059 45.3762
103.669 2087 45.6837
103.786 2089 45.7056
103.903 2117 46.0109
104.02 2153 46.4004
104.137 2098 45.8039
104.253 2016 44.8999
104.37 2037 45.1331
104.487 1964 44.317
104.603 1894 43.5201
104.72 1937 44.0114
104.836 1934 43.9773
104.953 1772 42.0951
105.069 1702 41.2553
105.186 1648 40.5956
105.302 1606 40.0749
105.418 1529 39.1024
105.535 1439 37.9342
105.651 1325 36.4005
105.767 1275 35.7071
105.883 1192 34.5254
105.999 1088 32.9848
106.115 0 1
106.231 0 1
106.347 0 1
106.463 0 1
106.579 0 1
106.694 0 1
106.81 0 1
106.926 0 1
107.041 0 1
107.157 0 1
109.576 0 1
109.692 0 1
109.807 0 1
109.923 0 1
110.039 0 1
110.155 0 1
110.27 0 1
110.386 0 1
110.502 0 1
110.618 971 31.1609
110.735 1179 34.3366
110.851 1439 37.9342
110.967 1640 40.4969
111.083 1726 41.5452
111.199 1797 42.391
111.316 1876 43.3128
111.432 1960 44.2719
111.549 1949 44.1475
111.665 2022 44.9667
111.782 1906 43.6578
111.898 1885 43.4166
112.015 1879 43.3474
112.132 1865 43.1856
112.248 1900 43.589
112.365 1941 44.0568
112.482 2020 44.9444
112.599 2054 45.3211
112.716 1997 44.6878
112.832 1899 43.5775
112.949 1893 43.5086
113.066 1929 43.9204
113.183 1871 43.2551
113.3 1908 43.6807
113.417 1866 43.1972
113.534 1860 43.1277
113.652 1891 43.4856
113.769 1869 43.2319
113.886 1732 41.6173
114.003 1613 40.1622
114.12 1583 39.7869
114.238 1592 39.8999
114.355 1818 42.638
114.472 1828 42.7551
114.589 1850 43.0116
114.707 1918 43.795
114.824 1755 41.8927
114.942 1903 43.6234
115.059 1866 43.1972
115.176 1912 43.7264
115.294 1847 42.9767
115.411 1763 41.9881
115.529 1703 41.2674
115.646 1788 42.2847
115.764 1725 41.5331
115.881 1745 41.7732
115.999 1676 40.939
116.116 1749 41.821
116.234 1833 42.8135
116.351 1798 42.4028
116.469 1719 41.4608
116.586 1765 42.0119
116.704 1710 41.3521
116.821 1635 40.4351
116.939 1717 41.4367
117.056 1714 41.4005
117.174 1664 40.7922
117.291 1670 40.8656
117.409 1614 40.1746
117.526 1478 38.4448
117.644 1422 37.7094
117.761 1389 37.2693
117.879 1506 38.8072
117.996 1574 39.6737
118.114 1688 41.0853
118.231 1660 40.7431
118.349 1660 40.7431
118.466 1729 41.5812
118.584 1787 42.2729
118.701 1774 42.1189
118.819 1689 41.0974
118.936 1735 41.6533
119.053 1618 40.2244
119.171 1565 39.5601
119.288 1588 39.8497
119.405 1525 39.0512
119.523 1684 41.0366
119.64 1647 40.5832
119.757 1578 39.724
119.875 1681 41
119.992 1671 40.8779
120.109 1629 40.3609
120.226 1584 39.7995
120.343 1595 39.9375
120.46 1533 39.1535
120.578 1580 39.7492
120.695 1634 40.4228
120.812 1565 39.5601
120.929 1593 39.9124
121.046 1664 40.7922
121.163 1507 38.8201
121.279 1400 37.4166
121.396 1292 35.9444
121.513 1343 36.647
121.63 1344 36.6606
121.747 1398 37.3898
121.863 1351 36.756
121.98 1348 36.7151
122.097 1385 37.2156
122.213 1284 35.8329
122.33 1322 36.3593
122.446 1224 34.9857
122.563 1172 34.2345
122.679 1091 33.0303
122.795 1034 32.1559
122.912 969 31.1288
123.028 967 31.0966
123.144 894 29.8998
123.26 876 29.5973
123.377 0 1
123.493 0 1
123.609 0 1
123.725 0 1
123.84 0 1
123.956 0 1
124.072 0 1
124.188 0 1
124.303 0 1
124.419 0 1
126.852 0 1
126.968 0 1
127.083 0 1
127.199 0 1
127.315 0 1
127.431 0 1
127.547 0 1
127.663 0 1
127.779 0 1
127.895 0 1
128.011 0 1
128.127 0 1
128.243 0 1
128.359 1688 41.0853
128.476 1715 41.4126
128.592 1758 41.9285
128.708 1824 42.7083
128.825 1794 42.3556
128.941 1896 43.5431
129.058 1838 42.8719
129.174 1843 42.9302
129.291 1869 43.2319
129.408 1821 42.6732
129.524 1781 42.2019
129.641 1797 42.391
129.758 1904 43.6348
129.875 1857 43.0929
129.992 2002 44.7437
130.108 1957 44.238
130.225 1887 43.4396
130.342 1812 42.5676
130.459 1828 42.7551
130.576 1800 42.4264
130.693 1844 42.9418
130.81 1963 44.3058
130.928 1948 44.1362
131.045 2129 46.1411
131.162 2266 47.6025
131.279 2370 48.6826
131.396 2574 50.7346
131.513 2694 51.9038
131.631 2591 50.9019
131.748 2568 50.6754
131.865 2707 52.0288
131.983 2690 51.8652
132.1 2661 51.5849
132.217 2772 52.6498
132.335 2978 54.5711
132.452 3164 56.2494
132.57 3018 54.9363
132.687 3233 56.8595
132.804 3392 58.2409
132.922 3353 57.9051
133.039 3206 56.6216
133.157 3318 57.6021
133.274 3329 57.6975
133.392 3277 57.2451
133.509 3219 56.7362
133.627 3264 57.1314
133.744 3139 56.0268
133.862 3029 55.0364
133.979 2886 53.7215
134.097 2878 53.647
134.214 2861 53.4883
134.332 2826 53.1601
134.449 2740 52.345
134.567 2806 52.9717
134.684 2997 54.7449
134.802 3081 55.5068
134.919 3202 56.5862
135.037 3165 56.2583
135.154 3088 55.5698
135.272 3030 55.0454
135.389 3084 55.5338
135.507 2907 53.9166
135.624 3032 55.0636
135.742 3118 55.8391
135.859 3168 56.285
135.977 3130 55.9464
136.094 3288 57.3411
136.211 3211 56.6657
136.329 3217 56.7186
136.446 3311 57.5413
136.564 3339 57.7841
136.681 3281 57.28
136.798 3301 57.4543
136.915 3294 57.3934
137.033 3327 57.6802
137.15 3338 57.7754
137.267 3275 57.2276
137.384 3205 56.6127
137.502 3029 55.0364
137.619 3022 54.9727
137.736 2973 54.5252
137.853 2700 51.9615
137.97 2701 51.9711
138.087 2759 52.5262
138.204 2873 53.6004
138.321 3187 56.4535
138.438 3239 56.9122
138.555 3267 57.1577
138.672 3276 57.2364
138.788 3131 55.9553
138.905 3001 54.7814
139.022 3006 54.827
139.139 2713 52.0865
139.255 2666 51.6333
139.372 2560 50.5964
139.488 2534 50.3389
139.605 2540 50.3984
139.721 2477 49.7695
139.838 2230 47.2229
139.954 2236 47.2864
140.071 2058 45.3652
140.187 2036 45.1221
140.303 1841 42.9069
140.419 1825 42.72
140.535 1789 42.2966
140.652 1673 40.9023
140.768 0 1
140.884 0 1
141 0 1
141.115 0 1
141.231 0 1
141.347 0 1
141.463 0 1
141.578 0 1
141.694 0 1
144.104 0 1
144.219 0 1
144.335 0 1
144.45 0 1
144.566 0 1
144.682 0 1
144.798 0 1
144.914 0 1
145.03 0 1
145.146 5165 71.8679
145.262 5551 74.505
145.378 6066 77.8845
145.494 6404 80.025
145.61 6728 82.0244
145.726 7177 84.7172
145.842 7942 89.1179
145.959 8742 93.4987
146.075 9203 95.9323
146.192 9819 99.0909
146.308 10257 101.277
146.425 10646 103.179
146.541 11278 106.198
146.658 11142 105.556
146.774 9046 95.1105
146.891 7291 85.3874
147.008 9297 96.421
147.125 13768 117.337
147.241 16501 128.456
147.358 18188 134.863
147.475 19224 138.651
147.592 19736 140.485
147.709 20273 142.383
147.826 20248 142.295
147.943 20655 143.718
148.06 20700 143.875
148.177 19934 141.188
148.294 20021 141.496
148.411 20171 142.025
148.528 19844 140.869
148.645 19477 139.56
148.762 19273 138.827
148.88 18981 137.772
148.997 18720 136.821
149.114 17678 132.959
149.231 17039 130.534
149.349 16887 129.95
149.466 16107 126.913
149.583 15844 125.873
149.701 15192 123.256
149.818 14503 120.428
149.935 13643 116.803
150.053 13002 114.026
150.17 11988 109.49
150.287 10244 101.213
150.405 7193 84.8116
150.522 5251 72.4638
150.64 7396 86
150.757 10084 100.419
150.875 10702 103.45
150.992 10021 100.105
151.11 9631 98.1377
151.227 8907 94.3769
151.344 8667 93.0967
151.462 8234 90.7414
151.579 7645 87.4357
151.697 7593 87.1378
151.814 7226 85.0059
151.932 7075 84.113
152.049 7128 84.4275
152.167 7134 84.463
152.284 6843 82.7224
152.402 7014 83.7496
152.519 7324 85.5804
152.636 7250 85.1469
152.754 7381 85.9127
152.871 7345 85.703
152.989 7299 85.4342
153.106 7318 85.5453
153.223 7381 85.9127
153.341 7332 85.6271
153.458 7094 84.2259
153.575 7210 84.9117
153.693 6637 81.4678
153.81 5799 76.1512
153.927 4707 68.6076
154.044 4487 66.9851
154.162 5497 74.1418
154.279 6634 81.4494
154.396 7019 83.7795
154.513 7144 84.5222
154.63 7047 83.9464
154.747 7113 84.3386
154.864 7142 84.5104
154.981 6747 82.1401
155.098 6780 82.3408
155.215 6358 79.7371
155.332 6135 78.3262
155.449 5632 75.0467
155.566 5401 73.4915
155.683 5515 74.263
155.8 5815 76.2561
155.917 6145 78.3901
156.033 6312 79.4481
156.15 0 1
156.267 0 1
156.383 0 1
156.5 0 1
156.617 0 1
156.733 0 1
156.85 0 1
156.966 0 1
157.082 0 1
157.199 0 1
157.315 0 1
157.431 0 1
157.547 0 1
157.664 0 1
157.78 0 1
157.896 0 1
158.012 0 1
158.128 0 1
158.244 0 1
158.359 0 1
158.475 0 1
158.591 0 1
158.706 0 1
