
6.15755 0 1
6.2731 0 1
6.3887 0 1
6.50437 0 1
6.62009 0 1
6.73587 0 1
6.8517 0 1
6.96759 0 1
7.08353 0 1
7.19952 0 1
7.31557 0 1
7.43166 0 1
7.54781 0 1
7.664 0 1
7.78024 0 1
7.89653 0 1
8.01286 0 1
8.12924 0 1
8.24567 0 1
8.36213 0 1
8.47864 0 1
8.59519 0 1
8.71178 0 1
8.82841 0 1
8.94508 0 1
9.06179 0 1
9.17853 0 1
9.29531 0 1
9.41212 0 1
9.52897 0 1
9.64584 0 1
9.76276 0 1
9.8797 0 1
9.99667 0 1
10.1137 0 1
10.2307 0 1
10.3478 0 1
10.4648 0 1
10.5819 0 1
10.6991 0 1
10.8162 0 1
10.9334 0 1
11.0506 0 1
11.1678 0 1
11.285 0 1
11.4023 0 1
11.5196 0 1
11.6369 0 1
11.7542 0 1
11.8715 0 1
11.9888 0 1
12.1062 0 1
12.2235 0 1
12.3409 0 1
12.4582 0 1
12.5756 0 1
12.693 0 1
12.8104 0 1
12.9278 0 1
13.0452 0 1
13.1626 0 1
13.28 0 1
13.3974 0 1
13.5149 0 1
13.6323 0 1
13.7497 0 1
13.8671 0 1
13.9845 0 1
14.1019 0 1
14.2193 0 1
14.3367 0 1
14.4541 0 1
14.5714 0 1
14.6888 0 1
14.8062 0 1
14.9235 0 1
15.0408 806 28.3901
15.1581 825 28.7228
15.2755 855 29.2404
15.3927 901 30.0167
15.51 892 29.8664
15.6273 894 29.8998
15.7445 878 29.6311
15.8617 878 29.6311
15.9789 819 28.6182
16.0961 890 29.8329
16.2132 838 28.9482
16.3304 925 30.4138
16.4475 858 29.2916
16.5646 933 30.545
16.6816 924 30.3974
16.7986 1003 31.6702
16.9156 1046 32.3419
17.0326 1005 31.7017
17.1496 1026 32.0312
17.2665 1052 32.4345
17.3833 1029 32.078
17.5002 973 31.1929
17.617 944 30.7246
17.7338 955 30.9031
17.8505 880 29.6648
17.9672 905 30.0832
18.0839 789 28.0891
18.2005 938 30.6268
18.3171 956 30.9192
18.4337 888 29.7993
18.5502 930 30.4959
18.6666 933 30.545
18.7831 982 31.3369
18.8994 998 31.5911
19.0158 982 31.3369
19.1321 999 31.607
19.2483 906 30.0998
19.3645 839 28.9655
19.4806 836 28.9137
19.5967 737 27.1477
19.7128 722 26.8701
19.8288 691 26.2869
19.9447 580 24.0832
20.0606 0 1
20.1764 0 1
20.2922 0 1
20.4079 0 1
20.5236 0 1
20.6392 0 1
20.7548 0 1
20.8702 0 1
23.3078 0 1
23.4233 0 1
23.539 0 1
23.6547 0 1
23.7704 0 1
23.8862 0 1
24.0021 0 1
24.118 0 1
24.234 0 1
24.35 0 1
24.4661 380 19.4936
24.5822 508 22.5389
24.6984 534 23.1084
24.8146 597 24.4336
24.9309 645 25.3969
25.0472 676 26
25.1636 761 27.5862
25.28 787 28.0535
25.3965 813 28.5132
25.513 895 29.9166
25.6296 940 30.6594
25.7462 1016 31.8748
25.8628 1026 32.0312
25.9795 1058 32.5269
26.0962 1050 32.4037
26.213 1014 31.8434
26.3298 1002 31.6544
26.4466 915 30.249
26.5635 878 29.6311
26.6804 873 29.5466
26.7973 902 30.0333
26.9143 865 29.4109
27.0313 985 31.3847
27.1483 961 31
27.2653 1018 31.9061
27.3824 1015 31.8591
27.4996 1044 32.311
27.6167 999 31.607
27.7339 1007 31.7333
27.8511 899 29.9833
27.9683 948 30.7896
28.0855 887 29.7825
28.2028 863 29.3769
28.3201 851 29.1719
28.4374 786 28.0357
28.5547 812 28.4956
28.6721 828 28.775
28.7894 912 30.1993
28.9068 849 29.1376
29.0242 976 31.241
29.1416 1001 31.6386
29.259 977 31.257
29.3764 1014 31.8434
29.4939 934 30.5614
29.6113 1025 32.0156
29.7288 933 30.545
29.8463 914 30.2324
29.9638 800 28.2843
30.0812 798 28.2489
30.1987 815 28.5482
30.3162 835 28.8964
30.4337 863 29.3769
30.5512 897 29.95
30.6687 860 29.3258
30.7862 968 31.1127
30.9037 953 30.8707
31.0212 896 29.9333
31.1387 904 30.0666
31.2562 950 30.8221
31.3737 901 30.0167
31.4912 930 30.4959
31.6087 862 29.3598
31.7262 862 29.3598
31.8436 835 28.8964
31.9611 758 27.5318
32.0785 793 28.1603
32.1959 772 27.7849
32.3134 861 29.3428
32.4308 902 30.0333
32.5482 905 30.0832
32.6655 933 30.545
32.7829 987 31.4166
32.9002 984 31.3688
33.0176 937 30.6105
33.1349 881 29.6816
33.2522 924 30.3974
33.3694 866 29.4279
33.4867 829 28.7924
33.6039 836 28.9137
33.7211 729 27
33.8383 773 27.8029
33.9554 783 27.9821
34.0725 830 28.8097
34.1896 824 28.7054
34.3067 904 30.0666
34.4237 888 29.7993
34.5407 934 30.5614
34.6577 922 30.3645
34.7746 940 30.6594
34.8915 931 30.5123
35.0084 925 30.4138
35.1252 856 29.2575
35.242 837 28.931
35.3587 842 29.0172
35.4755 786 28.0357
35.5921 748 27.3496
35.7088 728 26.9815
35.8254 718 26.7955
35.9419 783 27.9821
36.0584 815 28.5482
36.1749 801 28.3019
36.2913 847 29.1033
36.4077 871 29.5127
36.524 819 28.6182
36.6403 798 28.2489
36.7565 819 28.6182
36.8727 710 26.6458
36.9889 697 26.4008
37.1049 609 24.6779
37.221 0 1
37.3369 0 1
37.4529 0 1
37.5687 0 1
37.6845 0 1
37.8003 0 1
37.916 0 1
38.0316 0 1
38.1472 0 1
40.5851 0 1
40.7008 0 1
40.8164 0 1
40.9322 0 1
41.048 0 1
41.1639 0 1
41.2798 0 1
41.3958 0 1
41.5118 0 1
41.6279 0 1
41.744 426 20.6398
41.8602 474 21.7715
41.9765 489 22.1133
42.0928 584 24.1661
42.2091 551 23.4734
42.3255 524 22.891
42.4419 500 22.3607
42.5584 515 22.6936
42.675 575 23.9792
42.7915 615 24.7992
42.9081 645 25.3969
43.0248 635 25.1992
43.1415 717 26.7769
43.2582 720 26.8328
43.375 730 27.0185
43.4918 727 26.9629
43.6087 689 26.2488
43.7256 747 27.3313
43.8425 800 28.2843
43.9595 700 26.4575
44.0765 701 26.4764
44.1935 708 26.6083
44.3106 612 24.7386
44.4277 565 23.7697
44.5448 553 23.516
44.6619 625 25
44.7791 604 24.5764
44.8963 635 25.1992
45.0136 721 26.8514
45.1308 772 27.7849
45.2481 714 26.7208
45.3654 754 27.4591
45.4827 756 27.4955
45.6001 784 28
45.7174 748 27.3496
45.8348 712 26.6833
45.9522 660 25.6905
46.0697 644 25.3772
46.1871 599 24.4745
46.3046 650 25.4951
46.422 689 26.2488
46.5395 699 26.4386
46.657 733 27.074
46.7745 703 26.5141
46.892 722 26.8701
47.0096 756 27.4955
47.1271 769 27.7308
47.2446 791 28.1247
47.3622 736 27.1293
47.4797 758 27.5318
47.5973 758 27.5318
47.7149 736 27.1293
47.8324 695 26.3629
47.95 656 25.6125
48.0675 627 25.04
48.1851 627 25.04
48.3027 638 25.2587
48.4202 616 24.8193
48.5378 738 27.1662
48.6554 764 27.6405
48.7729 765 27.6586
48.8904 735 27.1109
49.008 787 28.0535
49.1255 698 26.4197
49.243 725 26.9258
49.3605 662 25.7294
49.478 623 24.96
49.5955 592 24.3311
49.713 586 24.2074
49.8304 599 24.4745
49.9479 609 24.6779
50.0653 691 26.2869
50.1827 678 26.0384
50.3001 724 26.9072
50.4175 716 26.7582
50.5348 751 27.4044
50.6521 697 26.4008
50.7694 735 27.1109
50.8867 781 27.9464
51.004 760 27.5681
51.1212 739 27.1846
51.2384 731 27.037
51.3556 669 25.865
51.4727 606 24.6171
51.5899 600 24.4949
51.707 588 24.2487
51.824 592 24.3311
51.9411 702 26.4953
52.0581 683 26.1343
52.175 748 27.3496
52.2919 762 27.6043
52.4088 771 27.7669
52.5257 824 28.7054
52.6425 792 28.1425
52.7593 743 27.258
52.876 743 27.258
52.9927 672 25.923
53.1094 623 24.96
53.226 666 25.807
53.3426 589 24.2693
53.4591 563 23.7276
53.5756 604 24.5764
53.692 579 24.0624
53.8084 593 24.3516
53.9248 577 24.0208
54.0411 568 23.8328
54.1573 542 23.2809
54.2735 0 1
54.3896 0 1
54.5057 0 1
54.6217 0 1
54.7377 0 1
54.8537 0 1
54.9695 0 1
55.0853 0 1
55.2011 0 1
55.3168 0 1
55.4324 0 1
57.824 0 1
57.9396 0 1
58.0553 0 1
58.1711 0 1
58.2869 0 1
58.4028 0 1
58.5187 0 1
58.6347 0 1
58.7508 0 1
58.8669 0 1
58.983 496 22.2711
59.0992 605 24.5967
59.2155 679 26.0576
59.3318 683 26.1343
59.4482 803 28.3373
59.5646 813 28.5132
59.681 866 29.4279
59.7975 818 28.6007
59.9141 887 29.7825
60.0306 813 28.5132
60.1473 849 29.1376
60.2639 790 28.1069
60.3807 795 28.1957
60.4974 781 27.9464
60.6142 804 28.3549
60.731 831 28.8271
60.8479 915 30.249
60.9648 977 31.257
61.0818 961 31
61.1987 985 31.3847
61.3158 950 30.8221
61.4328 912 30.1993
61.5499 878 29.6311
61.667 823 28.688
61.7841 848 29.1204
61.9013 760 27.5681
62.0185 747 27.3313
62.1357 773 27.8029
62.253 836 28.9137
62.3702 952 30.8545
62.4875 900 30
62.6049 946 30.7571
62.7222 942 30.692
62.8396 941 30.6757
62.9569 954 30.8869
63.0743 1000 31.6228
63.1918 916 30.2655
63.3092 950 30.8221
63.4267 928 30.4631
63.5441 885 29.7489
63.6616 885 29.7489
63.7791 785 28.0179
63.8966 749 27.3679
64.0142 741 27.2213
64.1317 753 27.4408
64.2492 871 29.5127
64.3668 853 29.2062
64.4843 902 30.0333
64.6019 941 30.6757
64.7195 978 31.273
64.837 951 30.8383
64.9546 968 31.1127
65.0722 925 30.4138
65.1898 804 28.3549
65.3074 801 28.3019
65.4249 723 26.8887
65.5425 723 26.8887
65.6601 688 26.2298
65.7777 794 28.178
65.8952 831 28.8271
66.0128 852 29.189
66.1304 910 30.1662
66.2479 869 29.4788
66.3655 987 31.4166
66.483 942 30.692
66.6005 932 30.5287
66.718 903 30.05
66.8355 908 30.133
66.953 907 30.1164
67.0705 936 30.5941
67.1879 889 29.8161
67.3054 829 28.7924
67.4228 773 27.8029
67.5402 720 26.8328
67.6576 716 26.7582
67.7749 835 28.8964
67.8923 909 30.1496
68.0096 927 30.4467
68.1269 964 31.0483
68.2442 958 30.9516
68.3614 1027 32.0468
68.4787 1026 32.0312
68.5958 976 31.241
68.713 981 31.3209
68.8302 936 30.5941
68.9473 823 28.688
69.0643 759 27.55
69.1814 812 28.4956
69.2984 785 28.0179
69.4154 924 30.3974
69.5323 905 30.0832
69.6492 962 31.0161
69.7661 1071 32.7261
69.8829 1009 31.7648
69.9997 1076 32.8024
70.1165 1082 32.8938
70.2332 977 31.257
70.3499 1028 32.0624
70.4665 952 30.8545
70.5831 944 30.7246
70.6996 892 29.8664
70.8161 825 28.7228
70.9326 762 27.6043
71.049 635 25.1992
71.1653 565 23.7697
71.2817 436 20.8806
71.3979 419 20.4695
71.5141 411 20.2731
71.6303 453 21.2838
71.7464 405 20.1246
71.8624 0 1
71.9784 0 1
72.0944 0 1
72.2102 0 1
72.3261 0 1
72.4418 0 1
72.5575 0 1
72.6732 0 1
75.1054 0 1
75.2209 0 1
75.3365 0 1
75.4521 0 1
75.5678 0 1
75.6835 0 1
75.7993 0 1
75.9151 0 1
76.031 0 1
76.147 726 26.9444
76.263 733 27.074
76.3791 728 26.9815
76.4952 723 26.8887
76.6113 707 26.5895
76.7276 705 26.5518
76.8438 779 27.9106
76.9601 845 29.0689
77.0765 952 30.8545
77.1929 1027 32.0468
77.3093 945 30.7409
77.4258 941 30.6757
77.5423 925 30.4138
77.6589 887 29.7825
77.7755 812 28.4956
77.8921 713 26.7021
78.0088 667 25.8263
78.1256 732 27.0555
78.2423 625 25
78.3591 692 26.3059
78.4759 740 27.2029
78.5928 806 28.3901
78.7097 818 28.6007
78.8266 855 29.2404
78.9436 814 28.5307
79.0606 851 29.1719
79.1776 854 29.2233
79.2946 931 30.5123
79.4117 848 29.1204
79.5288 813 28.5132
79.6459 839 28.9655
79.7631 802 28.3196
79.8802 761 27.5862
79.9974 798 28.2489
80.1147 723 26.8887
80.2319 647 25.4362
80.3491 634 25.1794
80.4664 686 26.1916
80.5837 723 26.8887
80.701 767 27.6948
80.8183 851 29.1719
80.9357 894 29.8998
81.053 883 29.7153
81.1704 874 29.5635
81.2877 838 28.9482
81.4051 832 28.8444
81.5225 745 27.2947
81.6399 688 26.2298
81.7573 656 25.6125
81.8747 614 24.779
81.9922 658 25.6515
82.1096 672 25.923
82.227 733 27.074
82.3444 766 27.6767
82.4619 832 28.8444
82.5793 850 29.1548
82.6967 831 28.8271
82.8142 880 29.6648
82.9316 850 29.1548
83.049 899 29.9833
83.1664 842 29.0172
83.2838 866 29.4279
83.4012 844 29.0517
83.5186 808 28.4253
83.636 758 27.5318
83.7534 754 27.4591
83.8708 658 25.6515
83.9881 616 24.8193
84.1055 686 26.1916
84.2228 732 27.0555
84.3401 772 27.7849
84.4575 876 29.5973
84.5747 821 28.6531
84.692 850 29.1548
84.8093 878 29.6311
84.9265 778 27.8927
85.0437 839 28.9655
85.1609 778 27.8927
85.2781 753 27.4408
85.3952 685 26.1725
85.5123 598 24.454
85.6294 622 24.9399
85.7465 725 26.9258
85.8636 764 27.6405
85.9806 815 28.5482
86.0976 834 28.8791
86.2145 889 29.8161
86.3315 885 29.7489
86.4484 885 29.7489
86.5652 928 30.4631
86.682 867 29.4449
86.7988 852 29.189
86.9156 876 29.5973
87.0323 836 28.9137
87.149 862 29.3598
87.2657 802 28.3196
87.3823 688 26.2298
87.4988 647 25.4362
87.6154 586 24.2074
87.7318 558 23.622
87.8483 628 25.0599
87.9647 642 25.3377
88.081 708 26.6083
88.1973 709 26.6271
88.3136 674 25.9615
88.4298 648 25.4558
88.546 609 24.6779
88.6621 498 22.3159
88.7781 433 20.8087
88.8942 0 1
89.0101 0 1
89.126 0 1
89.2419 0 1
89.3577 0 1
89.4734 0 1
89.5891 0 1
89.7047 0 1
89.8203 0 1
89.9358 0 1
92.3269 0 1
92.4424 0 1
92.558 0 1
92.6736 0 1
92.7893 0 1
92.905 0 1
93.0208 0 1
93.1366 0 1
93.2525 0 1
93.3685 0 1
93.4845 0 1
93.6005 564 23.7487
93.7167 638 25.2587
93.8328 654 25.5734
93.949 668 25.8457
94.0653 756 27.4955
94.1816 727 26.9629
94.2979 706 26.5707
94.4143 678 26.0384
94.5307 641 25.318
94.6472 615 24.7992
94.7637 614 24.779
94.8803 704 26.533
94.9969 735 27.1109
95.1135 790 28.1069
95.2302 780 27.9285
95.3469 794 28.178
95.4637 809 28.4429
95.5805 890 29.8329
95.6973 913 30.2159
95.8142 883 29.7153
95.9311 900 30
96.048 852 29.189
96.1649 800 28.2843
96.2819 800 28.2843
96.3989 802 28.3196
96.516 788 28.0713
96.633 683 26.1343
96.7501 672 25.923
96.8673 625 25
96.9844 654 25.5734
97.1016 744 27.2764
97.2188 772 27.7849
97.336 808 28.4253
97.4532 831 28.8271
97.5704 857 29.2746
97.6877 837 28.931
97.805 878 29.6311
97.9223 813 28.5132
98.0396 764 27.6405
98.1569 656 25.6125
98.2743 626 25.02
98.3916 615 24.7992
98.509 616 24.8193
98.6264 721 26.8514
98.7438 788 28.0713
98.8612 788 28.0713
98.9786 807 28.4077
99.096 884 29.7321
99.2134 879 29.6479
99.3308 872 29.5296
99.4482 911 30.1828
99.5656 871 29.5127
99.6831 914 30.2324
99.8005 872 29.5296
99.9179 845 29.0689
100.035 808 28.4253
100.153 762 27.6043
100.27 795 28.1957
100.388 703 26.5141
100.505 710 26.6458
100.622 758 27.5318
100.74 895 29.9166
100.857 933 30.545
100.975 908 30.133
101.092 968 31.1127
101.209 905 30.0832
101.327 912 30.1993
101.444 882 29.6985
101.561 793 28.1603
101.679 780 27.9285
101.796 685 26.1725
101.913 683 26.1343
102.03 654 25.5734
102.148 760 27.5681
102.265 859 29.3087
102.382 844 29.0517
102.499 908 30.133
102.616 923 30.3809
102.733 912 30.1993
102.851 934 30.5614
102.968 1006 31.7175
103.085 1015 31.8591
103.202 895 29.9166
103.319 962 31.0161
103.436 932 30.5287
103.552 892 29.8664
103.669 830 28.8097
103.786 720 26.8328
103.903 771 27.7669
104.02 799 28.2666
104.137 805 28.3725
104.253 854 29.2233
104.37 925 30.4138
104.487 1026 32.0312
104.603 1005 31.7017
104.72 1017 31.8904
104.836 955 30.9031
104.953 837 28.931
105.069 719 26.8142
105.186 694 26.3439
105.302 689 26.2488
105.418 654 25.5734
105.535 624 24.98
105.651 663 25.7488
105.767 637 25.2389
105.883 633 25.1595
105.999 578 24.0416
106.115 0 1
106.231 0 1
106.347 0 1
106.463 0 1
106.579 0 1
106.694 0 1
106.81 0 1
106.926 0 1
107.041 0 1
107.157 0 1
109.576 0 1
109.692 0 1
109.807 0 1
109.923 0 1
110.039 0 1
110.155 0 1
110.27 0 1
110.386 0 1
110.502 0 1
110.618 369 19.2094
110.735 461 21.4709
110.851 569 23.8537
110.967 604 24.5764
111.083 696 26.3818
111.199 775 27.8388
111.316 823 28.688
111.432 902 30.0333
111.549 799 28.2666
111.665 840 28.9828
111.782 860 29.3258
111.898 818 28.6007
112.015 868 29.4618
112.132 775 27.8388
112.248 707 26.5895
112.365 660 25.6905
112.482 635 25.1992
112.599 735 27.1109
112.716 813 28.5132
112.832 786 28.0357
112.949 884 29.7321
113.066 851 29.1719
113.183 898 29.9666
113.3 837 28.931
113.417 869 29.4788
113.534 847 29.1033
113.652 739 27.1846
113.769 660 25.6905
113.886 677 26.0192
114.003 580 24.0832
114.12 656 25.6125
114.238 711 26.6646
114.355 784 28
114.472 764 27.6405
114.589 829 28.7924
114.707 839 28.9655
114.824 902 30.0333
114.942 828 28.775
115.059 896 29.9333
115.176 883 29.7153
115.294 861 29.3428
115.411 857 29.2746
115.529 788 28.0713
115.646 866 29.4279
115.764 744 27.2764
115.881 694 26.3439
115.999 684 26.1534
116.116 705 26.5518
116.234 775 27.8388
116.351 824 28.7054
116.469 896 29.9333
116.586 848 29.1204
116.704 909 30.1496
116.821 855 29.2404
116.939 855 29.2404
117.056 875 29.5804
117.174 741 27.2213
117.291 799 28.2666
117.409 673 25.9422
117.526 589 24.2693
117.644 606 24.6171
117.761 704 26.533
117.879 718 26.7955
117.996 788 28.0713
118.114 740 27.2029
118.231 851 29.1719
118.349 838 28.9482
118.466 852 29.189
118.584 891 29.8496
118.701 871 29.5127
118.819 876 29.5973
118.936 817 28.5832
119.053 821 28.6531
119.171 824 28.7054
119.288 744 27.2764
119.405 745 27.2947
119.523 653 25.5539
119.64 704 26.533
119.757 675 25.9808
119.875 734 27.0924
119.992 766 27.6767
120.109 789 28.0891
120.226 884 29.7321
120.343 854 29.2233
120.46 849 29.1376
120.578 875 29.5804
120.695 869 29.4788
120.812 775 27.8388
120.929 714 26.7208
121.046 614 24.779
121.163 665 25.7876
121.279 630 25.0998
121.396 636 25.219
121.513 678 26.0384
121.63 694 26.3439
121.747 701 26.4764
121.863 665 25.7876
121.98 683 26.1343
122.097 681 26.096
122.213 698 26.4197
122.33 700 26.4575
122.446 700 26.4575
122.563 670 25.8844
122.679 632 25.1396
122.795 605 24.5967
122.912 502 22.4054
123.028 464 21.5407
123.144 380 19.4936
123.26 332 18.2209
123.377 0 1
123.493 0 1
123.609 0 1
123.725 0 1
123.84 0 1
123.956 0 1
124.072 0 1
124.188 0 1
124.303 0 1
124.419 0 1
126.852 0 1
126.968 0 1
127.083 0 1
127.199 0 1
127.315 0 1
127.431 0 1
127.547 0 1
127.663 0 1
127.779 0 1
127.895 0 1
128.011 0 1
128.127 0 1
128.243 0 1
128.359 879 29.6479
128.476 928 30.4631
128.592 851 29.1719
128.708 869 29.4788
128.825 879 29.6479
128.941 915 30.249
129.058 962 31.0161
129.174 1028 32.0624
129.291 1085 32.9393
129.408 1109 33.3017
129.524 1062 32.5883
129.641 1014 31.8434
129.758 1005 31.7017
129.875 976 31.241
129.992 930 30.4959
130.108 881 29.6816
130.225 824 28.7054
130.342 781 27.9464
130.459 804 28.3549
130.576 916 30.2655
130.693 896 29.9333
130.81 1006 31.7175
130.928 1036 32.187
131.045 996 31.5595
131.162 1054 32.4654
131.279 1097 33.121
131.396 1065 32.6343
131.513 1028 32.0624
131.631 1032 32.1248
131.748 1009 31.7648
131.865 1020 31.9374
131.983 977 31.257
132.1 877 29.6142
132.217 895 29.9166
132.335 937 30.6105
132.452 906 30.0998
132.57 989 31.4484
132.687 1053 32.45
132.804 1054 32.4654
132.922 1106 33.2566
133.039 1003 31.6702
133.157 1070 32.7109
133.274 1085 32.9393
133.392 1072 32.7414
133.509 945 30.7409
133.627 935 30.5778
133.744 833 28.8617
133.862 771 27.7669
133.979 826 28.7402
134.097 869 29.4788
134.214 959 30.9677
134.332 947 30.7734
134.449 938 30.6268
134.567 960 30.9839
134.684 1064 32.619
134.802 1015 31.8591
134.919 999 31.607
135.037 1092 33.0454
135.154 1011 31.7962
135.272 1023 31.9844
135.389 1055 32.4808
135.507 988 31.4325
135.624 980 31.305
135.742 882 29.6985
135.859 881 29.6816
135.977 826 28.7402
136.094 974 31.209
136.211 1007 31.7333
136.329 1046 32.3419
136.446 1076 32.8024
136.564 1060 32.5576
136.681 1075 32.7872
136.798 1071 32.7261
136.915 1044 32.311
137.033 1039 32.2335
137.15 943 30.7083
137.267 902 30.0333
137.384 808 28.4253
137.502 802 28.3196
137.619 827 28.7576
137.736 858 29.2916
137.853 838 28.9482
137.97 958 30.9516
138.087 971 31.1609
138.204 956 30.9192
138.321 996 31.5595
138.438 1006 31.7175
138.555 965 31.0644
138.672 993 31.5119
138.788 927 30.4467
138.905 914 30.2324
139.022 870 29.4958
139.139 804 28.3549
139.255 825 28.7228
139.372 753 27.4408
139.488 640 25.2982
139.605 663 25.7488
139.721 686 26.1916
139.838 635 25.1992
139.954 703 26.5141
140.071 691 26.2869
140.187 609 24.6779
140.303 590 24.2899
140.419 518 22.7596
140.535 495 22.2486
140.652 476 21.8174
140.768 0 1
140.884 0 1
141 0 1
141.115 0 1
141.231 0 1
141.347 0 1
141.463 0 1
141.578 0 1
141.694 0 1
144.104 0 1
144.219 0 1
144.335 0 1
144.45 0 1
144.566 0 1
144.682 0 1
144.798 0 1
144.914 0 1
145.03 0 1
145.146 616 24.8193
145.262 684 26.1534
145.378 684 26.1534
145.494 784 28
145.61 762 27.6043
145.726 734 27.0924
145.842 683 26.1343
145.959 594 24.3721
146.075 605 24.5967
146.192 549 23.4307
146.308 574 23.9583
146.425 572 23.9165
146.541 566 23.7908
146.658 610 24.6982
146.774 668 25.8457
146.891 652 25.5343
147.008 633 25.1595
147.125 660 25.6905
147.241 685 26.1725
147.358 694 26.3439
147.475 676 26
147.592 679 26.0576
147.709 683 26.1343
147.826 642 25.3377
147.943 598 24.454
148.06 607 24.6374
148.177 611 24.7184
148.294 646 25.4165
148.411 594 24.3721
148.528 615 24.7992
148.645 672 25.923
148.762 642 25.3377
148.88 671 25.9037
148.997 743 27.258
149.114 645 25.3969
149.231 718 26.7955
149.349 701 26.4764
149.466 627 25.04
149.583 621 24.9199
149.701 584 24.1661
149.818 542 23.2809
149.935 546 23.3666
150.053 556 23.5797
150.17 584 24.1661
150.287 605 24.5967
150.405 663 25.7488
150.522 594 24.3721
150.64 693 26.3249
150.757 601 24.5153
150.875 635 25.1992
150.992 642 25.3377
151.11 655 25.593
151.227 610 24.6982
151.344 630 25.0998
151.462 623 24.96
151.579 585 24.1868
151.697 610 24.6982
151.814 589 24.2693
151.932 574 23.9583
152.049 598 24.454
152.167 583 24.1454
152.284 615 24.7992
152.402 602 24.5357
152.519 609 24.6779
152.636 655 25.593
152.754 627 25.04
152.871 674 25.9615
152.989 705 26.5518
153.106 611 24.7184
153.223 579 24.0624
153.341 561 23.6854
153.458 483 21.9773
153.575 549 23.4307
153.693 564 23.7487
153.81 553 23.516
153.927 587 24.2281
154.044 581 24.1039
154.162 593 24.3516
154.279 605 24.5967
154.396 611 24.7184
154.513 638 25.2587
154.63 680 26.0768
154.747 599 24.4745
154.864 614 24.779
154.981 573 23.9374
155.098 556 23.5797
155.215 546 23.3666
155.332 524 22.891
155.449 546 23.3666
155.566 548 23.4094
155.683 525 22.9129
155.8 569 23.8537
155.917 543 23.3024
156.033 549 23.4307
156.15 0 1
156.267 0 1
156.383 0 1
156.5 0 1
156.617 0 1
156.733 0 1
156.85 0 1
156.966 0 1
157.082 0 1
157.199 0 1
157.315 0 1
157.431 0 1
157.547 0 1
157.664 0 1
157.78 0 1
157.896 0 1
158.012 0 1
158.128 0 1
158.244 0 1
158.359 0 1
158.475 0 1
158.591 0 1
158.706 0 1
