
6.15755 0 1
6.2731 0 1
6.3887 0 1
6.50437 0 1
6.62009 0 1
6.73587 0 1
6.8517 0 1
6.96759 0 1
7.08353 0 1
7.19952 0 1
7.31557 0 1
7.43166 0 1
7.54781 0 1
7.664 0 1
7.78024 0 1
7.89653 0 1
8.01286 0 1
8.12924 0 1
8.24567 0 1
8.36213 0 1
8.47864 0 1
8.59519 0 1
8.71178 0 1
8.82841 0 1
8.94508 0 1
9.06179 0 1
9.17853 0 1
9.29531 0 1
9.41212 0 1
9.52897 0 1
9.64584 0 1
9.76276 0 1
9.8797 0 1
9.99667 0 1
10.1137 0 1
10.2307 0 1
10.3478 0 1
10.4648 0 1
10.5819 0 1
10.6991 0 1
10.8162 0 1
10.9334 0 1
11.0506 0 1
11.1678 0 1
11.285 0 1
11.4023 0 1
11.5196 0 1
11.6369 0 1
11.7542 0 1
11.8715 0 1
11.9888 0 1
12.1062 0 1
12.2235 0 1
12.3409 0 1
12.4582 0 1
12.5756 0 1
12.693 0 1
12.8104 0 1
12.9278 0 1
13.0452 0 1
13.1626 0 1
13.28 0 1
13.3974 0 1
13.5149 0 1
13.6323 0 1
13.7497 0 1
13.8671 0 1
13.9845 0 1
14.1019 0 1
14.2193 0 1
14.3367 0 1
14.4541 0 1
14.5714 0 1
14.6888 0 1
14.8062 0 1
14.9235 0 1
15.0408 0 0
15.1581 0 0
15.2755 0 0
15.3927 0 0
15.51 0 0
15.6273 0 0
15.7445 0 0
15.8617 0 0
15.9789 0 0
16.0961 0 0
16.2132 0 0
16.3304 0 0
16.4475 0 0
16.5646 0 0
16.6816 0 0
16.7986 0 0
16.9156 0 0
17.0326 0 0
17.1496 0 0
17.2665 0 0
17.3833 0 0
17.5002 0 0
17.617 0 0
17.7338 0 0
17.8505 0 0
17.9672 0 0
18.0839 0 0
18.2005 0 0
18.3171 0 0
18.4337 0 0
18.5502 0 0
18.6666 0 0
18.7831 0 0
18.8994 0 0
19.0158 0 0
19.1321 0 0
19.2483 0 0
19.3645 0 0
19.4806 0 0
19.5967 0 0
19.7128 0 0
19.8288 0 0
19.9447 0 0
20.0606 0 1
20.1764 0 1
20.2922 0 1
20.4079 0 1
20.5236 0 1
20.6392 0 1
20.7548 0 1
20.8702 0 1
23.3078 0 1
23.4233 0 1
23.539 0 1
23.6547 0 1
23.7704 0 1
23.8862 0 1
24.0021 0 1
24.118 0 1
24.234 0 1
24.35 0 1
24.4661 2651 51.4879
24.5822 2718 52.1344
24.6984 2537 50.3686
24.8146 2583 50.8232
24.9309 2406 49.051
25.0472 2356 48.5386
25.1636 2328 48.2494
25.28 2439 49.3862
25.3965 2570 50.6952
25.513 2588 50.8724
25.6296 2915 53.9907
25.7462 3252 57.0263
25.8628 3289 57.3498
25.9795 3231 56.8419
26.0962 3253 57.0351
26.213 3227 56.8067
26.3298 3297 57.4195
26.4466 3242 56.9386
26.5635 3234 56.8683
26.6804 3227 56.8067
26.7973 3189 56.4712
26.9143 3225 56.7891
27.0313 3153 56.1516
27.1483 3216 56.7098
27.2653 3190 56.4801
27.3824 3308 57.5152
27.4996 3189 56.4712
27.6167 3242 56.9386
27.7339 3122 55.8749
27.8511 2960 54.4059
27.9683 2956 54.3691
28.0855 2821 53.1131
28.2028 2808 52.9906
28.3201 2583 50.8232
28.4374 2495 49.95
28.5547 2288 47.833
28.6721 2159 46.465
28.7894 2318 48.1456
28.9068 2437 49.366
29.0242 2573 50.7247
29.1416 2733 52.2781
29.259 2965 54.4518
29.3764 2992 54.6992
29.4939 3103 55.7046
29.6113 3125 55.9017
29.7288 3167 56.2761
29.8463 3166 56.2672
29.9638 3148 56.107
30.0812 3180 56.3915
30.1987 3089 55.5788
30.3162 3211 56.6657
30.4337 3118 55.8391
30.5512 3216 56.7098
30.6687 3238 56.9034
30.7862 3307 57.5065
30.9037 3154 56.1605
31.0212 3085 55.5428
31.1387 3114 55.8032
31.2562 3148 56.107
31.3737 2972 54.5161
31.4912 2821 53.1131
31.6087 2777 52.6972
31.7262 2728 52.2303
31.8436 2704 52
31.9611 2427 49.2646
32.0785 2201 46.9148
32.1959 2114 45.9783
32.3134 2257 47.5079
32.4308 2297 47.927
32.5482 2505 50.05
32.6655 2660 51.5752
32.7829 2852 53.4041
32.9002 3052 55.2449
33.0176 3034 55.0818
33.1349 3006 54.827
33.2522 3114 55.8032
33.3694 3049 55.2178
33.4867 3022 54.9727
33.6039 3074 55.4437
33.7211 3093 55.6147
33.8383 3090 55.5878
33.9554 3135 55.9911
34.0725 3028 55.0273
34.1896 3083 55.5248
34.3067 3125 55.9017
34.4237 2997 54.7449
34.5407 3082 55.5158
34.6577 3065 55.3624
34.7746 3096 55.6417
34.8915 2974 54.5344
35.0084 2862 53.4977
35.1252 2804 52.9528
35.242 2688 51.8459
35.3587 2642 51.4004
35.4755 2631 51.2933
35.5921 2381 48.7955
35.7088 2233 47.2546
35.8254 1989 44.5982
35.9419 1961 44.2832
36.0584 2055 45.3321
36.1749 2222 47.1381
36.2913 2472 49.7192
36.4077 2546 50.4579
36.524 2802 52.9339
36.6403 2817 53.0754
36.7565 2867 53.5444
36.8727 2960 54.4059
36.9889 3032 55.0636
37.1049 3034 55.0818
37.221 0 1
37.3369 0 1
37.4529 0 1
37.5687 0 1
37.6845 0 1
37.8003 0 1
37.916 0 1
38.0316 0 1
38.1472 0 1
40.5851 0 1
40.7008 0 1
40.8164 0 1
40.9322 0 1
41.048 0 1
41.1639 0 1
41.2798 0 1
41.3958 0 1
41.5118 0 1
41.6279 0 1
41.744 2191 46.8081
41.8602 2371 48.6929
41.9765 2380 48.7852
42.0928 2557 50.5668
42.2091 2550 50.4975
42.3255 2491 49.9099
42.4419 2525 50.2494
42.5584 2555 50.547
42.675 2521 50.2096
42.7915 2530 50.2991
42.9081 2399 48.9796
43.0248 2442 49.4166
43.1415 2447 49.4672
43.2582 2479 49.7896
43.375 2477 49.7695
43.4918 2488 49.8799
43.6087 2326 48.2286
43.7256 2382 48.8057
43.8425 2253 47.4658
43.9595 2199 46.8935
44.0765 2208 46.9894
44.1935 2052 45.299
44.3106 1929 43.9204
44.4277 1741 41.7253
44.5448 1669 40.8534
44.6619 1411 37.5633
44.7791 1371 37.027
44.8963 1412 37.5766
45.0136 1516 38.9358
45.1308 1662 40.7676
45.2481 1843 42.9302
45.3654 1996 44.6766
45.4827 1898 43.566
45.6001 1986 44.5646
45.7174 1852 43.0349
45.8348 1959 44.2606
45.9522 1888 43.4511
46.0697 1868 43.2204
46.1871 1738 41.6893
46.3046 1841 42.9069
46.422 1718 41.4488
46.5395 1782 42.2137
46.657 1810 42.5441
46.7745 1773 42.107
46.892 1765 42.0119
47.0096 1757 41.9166
47.1271 1786 42.2611
47.2446 1728 41.5692
47.3622 1628 40.3485
47.4797 1556 39.4462
47.5973 1569 39.6106
47.7149 1441 37.9605
47.8324 1349 36.7287
47.95 1289 35.9026
48.0675 1215 34.8569
48.1851 1120 33.4664
48.3027 1020 31.9374
48.4202 1037 32.2025
48.5378 1064 32.619
48.6554 1138 33.7343
48.7729 1226 35.0143
48.8904 1434 37.8682
49.008 1439 37.9342
49.1255 1364 36.9324
49.243 1446 38.0263
49.3605 1376 37.0945
49.478 1495 38.6652
49.5955 1496 38.6782
49.713 1493 38.6394
49.8304 1561 39.5095
49.9479 1484 38.5227
50.0653 1507 38.8201
50.1827 1565 39.5601
50.3001 1562 39.5221
50.4175 1631 40.3856
50.5348 1614 40.1746
50.6521 1677 40.9512
50.7694 1762 41.9762
50.8867 1706 41.3038
51.004 1753 41.8688
51.1212 1787 42.2729
51.2384 1753 41.8688
51.3556 1621 40.2616
51.4727 1630 40.3733
51.5899 1516 38.9358
51.707 1403 37.4566
51.824 1255 35.426
51.9411 1419 37.6696
52.0581 1545 39.3065
52.175 1637 40.4599
52.2919 1912 43.7264
52.4088 2172 46.6047
52.5257 2278 47.7284
52.6425 2226 47.1805
52.7593 2262 47.5605
52.876 2338 48.3529
52.9927 2442 49.4166
53.1094 2398 48.9694
53.226 2465 49.6488
53.3426 2450 49.4975
53.4591 2447 49.4672
53.5756 2628 51.264
53.692 2621 51.1957
53.8084 2529 50.2892
53.9248 2585 50.8429
54.0411 2656 51.5364
54.1573 2684 51.8073
54.2735 0 1
54.3896 0 1
54.5057 0 1
54.6217 0 1
54.7377 0 1
54.8537 0 1
54.9695 0 1
55.0853 0 1
55.2011 0 1
55.3168 0 1
55.4324 0 1
57.824 0 1
57.9396 0 1
58.0553 0 1
58.1711 0 1
58.2869 0 1
58.4028 0 1
58.5187 0 1
58.6347 0 1
58.7508 0 1
58.8669 0 1
58.983 2894 53.7959
59.0992 3052 55.2449
59.2155 3163 56.2406
59.3318 3124 55.8928
59.4482 3150 56.1249
59.5646 3128 55.9285
59.681 3169 56.2939
59.7975 2931 54.1387
59.9141 2793 52.8488
60.0306 2705 52.0096
60.1473 2491 49.9099
60.2639 2183 46.7226
60.3807 2010 44.833
60.4974 1886 43.4281
60.6142 1839 42.8836
60.731 1966 44.3396
60.8479 2088 45.6946
60.9648 2352 48.4974
61.0818 2591 50.9019
61.1987 2715 52.1057
61.3158 2759 52.5262
61.4328 2816 53.066
61.5499 2732 52.2685
61.667 2716 52.1153
61.7841 2791 52.8299
61.9013 2799 52.9056
62.0185 2784 52.7636
62.1357 2682 51.788
62.253 2703 51.9904
62.3702 2748 52.4214
62.4875 2843 53.3198
62.6049 2850 53.3854
62.7222 2838 53.2729
62.8396 2832 53.2165
62.9569 2782 52.7447
63.0743 2889 53.7494
63.1918 2749 52.4309
63.3092 2733 52.2781
63.4267 2577 50.7642
63.5441 2563 50.6261
63.6616 2314 48.1041
63.7791 2054 45.3211
63.8966 1743 41.7493
64.0142 1543 39.281
64.1317 1583 39.7869
64.2492 1692 41.1339
64.3668 1874 43.2897
64.4843 2105 45.8803
64.6019 2319 48.156
64.7195 2412 49.1121
64.837 2465 49.6488
64.9546 2535 50.3488
65.0722 2471 49.7092
65.1898 2427 49.2646
65.3074 2504 50.04
65.4249 2414 49.1325
65.5425 2409 49.0816
65.6601 2555 50.547
65.7777 2452 49.5177
65.8952 2510 50.0999
66.0128 2533 50.3289
66.1304 2511 50.1099
66.2479 2568 50.6754
66.3655 2519 50.1896
66.483 2600 50.9902
66.6005 2705 52.0096
66.718 2688 51.8459
66.8355 2587 50.8626
66.953 2543 50.4282
67.0705 2451 49.5076
67.1879 2348 48.4562
67.3054 2095 45.7712
67.4228 1789 42.2966
67.5402 1616 40.1995
67.6576 1450 38.0789
67.7749 1434 37.8682
67.8923 1504 38.7814
68.0096 1717 41.4367
68.1269 1972 44.4072
68.2442 2266 47.6025
68.3614 2314 48.1041
68.4787 2460 49.5984
68.5958 2429 49.2849
68.713 2568 50.6754
68.8302 2531 50.309
68.9473 2472 49.7192
69.0643 2523 50.2295
69.1814 2603 51.0196
69.2984 2507 50.07
69.4154 2572 50.7149
69.5323 2601 51
69.6492 2732 52.2685
69.7661 2742 52.3641
69.8829 2895 53.8052
69.9997 2986 54.6443
70.1165 2807 52.9811
70.2332 2913 53.9722
70.3499 2843 53.3198
70.4665 2825 53.1507
70.5831 2780 52.7257
70.6996 2727 52.2207
70.8161 2736 52.3068
70.9326 2412 49.1121
71.049 2232 47.244
71.1653 1880 43.359
71.2817 1594 39.9249
71.3979 1406 37.4967
71.5141 1461 38.223
71.6303 1577 39.7115
71.7464 1637 40.4599
71.8624 0 1
71.9784 0 1
72.0944 0 1
72.2102 0 1
72.3261 0 1
72.4418 0 1
72.5575 0 1
72.6732 0 1
75.1054 0 1
75.2209 0 1
75.3365 0 1
75.4521 0 1
75.5678 0 1
75.6835 0 1
75.7993 0 1
75.9151 0 1
76.031 0 1
76.147 2287 47.8226
76.263 2435 49.3457
76.3791 2245 47.3814
76.4952 2075 45.5522
76.6113 1722 41.497
76.7276 1458 38.1838
76.8438 1529 39.1024
76.9601 1711 41.3642
77.0765 1909 43.6921
77.1929 2249 47.4236
77.3093 2691 51.8748
77.4258 2708 52.0384
77.5423 2741 52.3546
77.6589 2681 51.7784
77.7755 2658 51.5558
77.8921 2594 50.9313
78.0088 2627 51.2543
78.1256 2599 50.9804
78.2423 2489 49.8899
78.3591 2573 50.7247
78.4759 2541 50.4083
78.5928 2631 51.2933
78.7097 2707 52.0288
78.8266 2666 51.6333
78.9436 2877 53.6377
79.0606 2888 53.7401
79.1776 2770 52.6308
79.2946 2779 52.7162
79.4117 2852 53.4041
79.5288 2777 52.6972
79.6459 2731 52.259
79.7631 2656 51.5364
79.8802 2463 49.6286
79.9974 2303 47.9896
80.1147 1989 44.5982
80.2319 1690 41.1096
80.3491 1338 36.5787
80.4664 1368 36.9865
80.5837 1518 38.9615
80.701 1701 41.2432
80.8183 2007 44.7996
80.9357 2285 47.8017
81.053 2490 49.8999
81.1704 2445 49.4469
81.2877 2391 48.8979
81.4051 2366 48.6415
81.5225 2328 48.2494
81.6399 2293 47.8853
81.7573 2332 48.2908
81.8747 2249 47.4236
81.9922 2380 48.7852
82.1096 2319 48.156
82.227 2393 48.9183
82.3444 2471 49.7092
82.4619 2465 49.6488
82.5793 2488 49.8799
82.6967 2451 49.5076
82.8142 2371 48.6929
82.9316 2560 50.5964
83.049 2420 49.1935
83.1664 2385 48.8365
83.2838 2363 48.6107
83.4012 2291 47.8644
83.5186 2135 46.2061
83.636 2040 45.1664
83.7534 1740 41.7133
83.8708 1461 38.223
83.9881 1222 34.9571
84.1055 1121 33.4813
84.2228 1232 35.0999
84.3401 1458 38.1838
84.4575 1708 41.328
84.5747 1992 44.6318
84.692 2176 46.6476
84.8093 2192 46.8188
84.9265 2206 46.9681
85.0437 2112 45.9565
85.1609 2212 47.0319
85.2781 2275 47.697
85.3952 2111 45.9456
85.5123 2193 46.8295
85.6294 2215 47.0638
85.7465 2278 47.7284
85.8636 2447 49.4672
85.9806 2466 49.6588
86.0976 2527 50.2693
86.2145 2602 51.0098
86.3315 2643 51.4101
86.4484 2556 50.5569
86.5652 2614 51.1273
86.682 2724 52.192
86.7988 2662 51.5946
86.9156 2565 50.6458
87.0323 2466 49.6588
87.149 2366 48.6415
87.2657 2200 46.9042
87.3823 2017 44.911
87.4988 1702 41.2553
87.6154 1486 38.5487
87.7318 1512 38.8844
87.8483 1714 41.4005
87.9647 1987 44.5758
88.081 2377 48.7545
88.1973 2651 51.4879
88.3136 2634 51.3225
88.4298 2686 51.8266
88.546 2625 51.2348
88.6621 2623 51.2152
88.7781 2588 50.8724
88.8942 0 1
89.0101 0 1
89.126 0 1
89.2419 0 1
89.3577 0 1
89.4734 0 1
89.5891 0 1
89.7047 0 1
89.8203 0 1
89.9358 0 1
92.3269 0 1
92.4424 0 1
92.558 0 1
92.6736 0 1
92.7893 0 1
92.905 0 1
93.0208 0 1
93.1366 0 1
93.2525 0 1
93.3685 0 1
93.4845 0 1
93.6005 2458 49.5782
93.7167 2558 50.5767
93.8328 2641 51.3907
93.949 2637 51.3517
94.0653 2627 51.2543
94.1816 2625 51.2348
94.2979 2621 51.1957
94.4143 2572 50.7149
94.5307 2518 50.1797
94.6472 2629 51.2738
94.7637 2544 50.4381
94.8803 2612 51.1077
94.9969 2748 52.4214
95.1135 2794 52.8583
95.2302 2868 53.5537
95.3469 2978 54.5711
95.4637 2919 54.0278
95.5805 2931 54.1387
95.6973 3004 54.8088
95.8142 2974 54.5344
95.9311 2929 54.1202
96.048 2924 54.074
96.1649 2694 51.9038
96.2819 2630 51.2835
96.3989 2397 48.9592
96.516 2328 48.2494
96.633 2004 44.7661
96.7501 1667 40.8289
96.8673 1520 38.9872
96.9844 1635 40.4351
97.1016 1717 41.4367
97.2188 2010 44.833
97.336 2343 48.4045
97.4532 2565 50.6458
97.5704 2647 51.449
97.6877 2662 51.5946
97.805 2565 50.6458
97.9223 2551 50.5074
98.0396 2521 50.2096
98.1569 2604 51.0294
98.2743 2590 50.892
98.3916 2544 50.4381
98.509 2565 50.6458
98.6264 2694 51.9038
98.7438 2746 52.4023
98.8612 2841 53.301
98.9786 2819 53.0943
99.096 2850 53.3854
99.2134 2888 53.7401
99.3308 2932 54.1479
99.4482 2888 53.7401
99.5656 2946 54.2771
99.6831 2667 51.643
99.8005 2772 52.6498
99.9179 2651 51.4879
100.035 2521 50.2096
100.153 2348 48.4562
100.27 1908 43.6807
100.388 1631 40.3856
100.505 1666 40.8167
100.622 1738 41.6893
100.74 2097 45.793
100.857 2455 49.548
100.975 2653 51.5073
101.092 2710 52.0577
101.209 2741 52.3546
101.327 2519 50.1896
101.444 2688 51.8459
101.561 2692 51.8845
101.679 2680 51.7687
101.796 2582 50.8134
101.913 2634 51.3225
102.03 2684 51.8073
102.148 2667 51.643
102.265 2801 52.9245
102.382 2903 53.8795
102.499 3001 54.7814
102.616 2990 54.6809
102.733 3056 55.2811
102.851 3074 55.4437
102.968 3079 55.4887
103.085 3117 55.8301
103.202 2973 54.5252
103.319 2892 53.7773
103.436 2636 51.342
103.552 2664 51.614
103.669 2467 49.6689
103.786 2096 45.7821
103.903 1739 41.7013
104.02 1740 41.7133
104.137 1845 42.9535
104.253 2199 46.8935
104.37 2554 50.5371
104.487 2780 52.7257
104.603 2980 54.5894
104.72 2899 53.8424
104.836 2942 54.2402
104.953 2930 54.1295
105.069 2951 54.3231
105.186 2880 53.6656
105.302 2875 53.619
105.418 3047 55.1996
105.535 2942 54.2402
105.651 3027 55.0182
105.767 3214 56.6922
105.883 3272 57.2014
105.999 3299 57.4369
106.115 0 1
106.231 0 1
106.347 0 1
106.463 0 1
106.579 0 1
106.694 0 1
106.81 0 1
106.926 0 1
107.041 0 1
107.157 0 1
109.576 0 1
109.692 0 1
109.807 0 1
109.923 0 1
110.039 0 1
110.155 0 1
110.27 0 1
110.386 0 1
110.502 0 1
110.618 2874 53.6097
110.735 2968 54.4794
110.851 3097 55.6507
110.967 3133 55.9732
111.083 3108 55.7494
111.199 3172 56.3205
111.316 3295 57.4021
111.432 3368 58.0345
111.549 3265 57.1402
111.665 3186 56.4447
111.782 3108 55.7494
111.898 3098 55.6597
112.015 2906 53.9073
112.132 2722 52.1728
112.248 2539 50.3885
112.365 2191 46.8081
112.482 1871 43.2551
112.599 1981 44.5084
112.716 2038 45.1442
112.832 2312 48.0833
112.949 2764 52.5738
113.066 2942 54.2402
113.183 2983 54.6168
113.3 2889 53.7494
113.417 2881 53.6749
113.534 2898 53.8331
113.652 2905 53.8981
113.769 2873 53.6004
113.886 2915 53.9907
114.003 2944 54.2586
114.12 2938 54.2033
114.238 3076 55.4617
114.355 3071 55.4166
114.472 3252 57.0263
114.589 3267 57.1577
114.707 3144 56.0714
114.824 3208 56.6392
114.942 3306 57.4978
115.059 3305 57.4891
115.176 3249 57
115.294 3233 56.8595
115.411 3119 55.848
115.529 3078 55.4797
115.646 3084 55.5338
115.764 2828 53.1789
115.881 2484 49.8397
115.999 2220 47.1169
116.116 2058 45.3652
116.234 2190 46.7974
116.351 2477 49.7695
116.469 2814 53.0471
116.586 3092 55.6058
116.704 3093 55.6147
116.821 3186 56.4447
116.939 3041 55.1453
117.056 3140 56.0357
117.174 3088 55.5698
117.291 3106 55.7315
117.409 3097 55.6507
117.526 3055 55.2721
117.644 3124 55.8928
117.761 3087 55.5608
117.879 3192 56.4978
117.996 3233 56.8595
118.114 3305 57.4891
118.231 3338 57.7754
118.349 3348 57.8619
118.466 3455 58.7792
118.584 3434 58.6003
118.701 3350 57.8792
118.819 3283 57.2975
118.936 3234 56.8683
119.053 3200 56.5685
119.171 3051 55.2359
119.288 2969 54.4885
119.405 2819 53.0943
119.523 2467 49.6689
119.64 2231 47.2335
119.757 2242 47.3498
119.875 2274 47.6865
119.992 2479 49.7896
120.109 2777 52.6972
120.226 3047 55.1996
120.343 3013 54.8908
120.46 2930 54.1295
120.578 3033 55.0727
120.695 3106 55.7315
120.812 3060 55.3173
120.929 3095 55.6327
121.046 3110 55.7674
121.163 3057 55.2901
121.279 2987 54.6535
121.396 3009 54.8544
121.513 3189 56.4712
121.63 3265 57.1402
121.747 3269 57.1752
121.863 3160 56.2139
121.98 3349 57.8705
122.097 3322 57.6368
122.213 3344 57.8273
122.33 3392 58.2409
122.446 3422 58.4979
122.563 3286 57.3236
122.679 3118 55.8391
122.795 3073 55.4346
122.912 3025 55
123.028 2787 52.792
123.144 2668 51.6527
123.26 2416 49.1528
123.377 0 1
123.493 0 1
123.609 0 1
123.725 0 1
123.84 0 1
123.956 0 1
124.072 0 1
124.188 0 1
124.303 0 1
124.419 0 1
126.852 0 1
126.968 0 1
127.083 0 1
127.199 0 1
127.315 0 1
127.431 0 1
127.547 0 1
127.663 0 1
127.779 0 1
127.895 0 1
128.011 0 1
128.127 0 1
128.243 0 1
128.359 2759 52.5262
128.476 2753 52.469
128.592 2448 49.4773
128.708 2484 49.8397
128.825 2575 50.7445
128.941 2669 51.6624
129.058 2986 54.6443
129.174 3124 55.8928
129.291 3236 56.8859
129.408 3238 56.9034
129.524 3223 56.7715
129.641 3340 57.7927
129.758 3294 57.3934
129.875 3247 56.9825
129.992 3322 57.6368
130.108 3229 56.8243
130.225 3176 56.356
130.342 3262 57.1139
130.459 3275 57.2276
130.576 3452 58.7537
130.693 3470 58.9067
130.81 3465 58.8643
130.928 3485 59.0339
131.045 3612 60.0999
131.162 3510 59.2453
131.279 3534 59.4475
131.396 3506 59.2115
131.513 3426 58.532
131.631 3309 57.5239
131.748 3140 56.0357
131.865 3053 55.254
131.983 2905 53.8981
132.1 2686 51.8266
132.217 2535 50.3488
132.335 2578 50.774
132.452 2875 53.619
132.57 3031 55.0545
132.687 3271 57.1927
132.804 3420 58.4808
132.922 3450 58.7367
133.039 3381 58.1464
133.157 3521 59.338
133.274 3374 58.0861
133.392 3416 58.4466
133.509 3319 57.6108
133.627 3300 57.4456
133.744 3264 57.1314
133.862 3295 57.4021
133.979 3196 56.5332
134.097 3309 57.5239
134.214 3339 57.7841
134.332 3405 58.3524
134.449 3421 58.4893
134.567 3591 59.925
134.684 3566 59.716
134.802 3574 59.7829
134.919 3582 59.8498
135.037 3522 59.3464
135.154 3394 58.258
135.272 3341 57.8014
135.389 3177 56.3649
135.507 2990 54.6809
135.624 2848 53.3667
135.742 2712 52.0769
135.859 2717 52.1249
135.977 2716 52.1153
136.094 2946 54.2771
136.211 3181 56.4004
136.329 3373 58.0775
136.446 3398 58.2924
136.564 3430 58.5662
136.681 3419 58.4722
136.798 3315 57.576
136.915 3335 57.7495
137.033 3357 57.9396
137.15 3199 56.5597
137.267 3277 57.2451
137.384 3283 57.2975
137.502 3286 57.3236
137.619 3275 57.2276
137.736 3226 56.7979
137.853 3251 57.0175
137.97 3369 58.0431
138.087 3345 57.836
138.204 3447 58.7112
138.321 3450 58.7367
138.438 3510 59.2453
138.555 3677 60.6383
138.672 3446 58.7026
138.788 3360 57.9655
138.905 3313 57.5587
139.022 3230 56.8331
139.139 3143 56.0625
139.255 2995 54.7266
139.372 2746 52.4023
139.488 2755 52.4881
139.605 2850 53.3854
139.721 3056 55.2811
139.838 3371 58.0603
139.954 3383 58.1636
140.071 3479 58.983
140.187 3506 59.2115
140.303 3412 58.4123
140.419 3369 58.0431
140.535 3332 57.7235
140.652 3333 57.7321
140.768 0 1
140.884 0 1
141 0 1
141.115 0 1
141.231 0 1
141.347 0 1
141.463 0 1
141.578 0 1
141.694 0 1
144.104 0 1
144.219 0 1
144.335 0 1
144.45 0 1
144.566 0 1
144.682 0 1
144.798 0 1
144.914 0 1
145.03 0 1
145.146 2584 50.8331
145.262 2791 52.8299
145.378 2865 53.5257
145.494 2838 53.2729
145.61 2912 53.963
145.726 2869 53.563
145.842 2883 53.6936
145.959 2761 52.5452
146.075 2762 52.5547
146.192 2701 51.9711
146.308 2633 51.3128
146.425 2751 52.45
146.541 2815 53.0566
146.658 2868 53.5537
146.774 2889 53.7494
146.891 2988 54.6626
147.008 3025 55
147.125 2955 54.3599
147.241 3077 55.4707
147.358 3036 55.0999
147.475 3078 55.4797
147.592 3055 55.2721
147.709 2862 53.4977
147.826 2854 53.4228
147.943 2772 52.6498
148.06 2657 51.5461
148.177 2531 50.309
148.294 2532 50.319
148.411 2559 50.5866
148.528 2633 51.3128
148.645 2866 53.535
148.762 2961 54.4151
148.88 2968 54.4794
148.997 2963 54.4334
149.114 3063 55.3444
149.231 3040 55.1362
149.349 3001 54.7814
149.466 3112 55.7853
149.583 3048 55.2087
149.701 2968 54.4794
149.818 2912 53.963
149.935 2873 53.6004
150.053 2737 52.3163
150.17 2977 54.5619
150.287 2988 54.6626
150.405 3098 55.6597
150.522 2917 54.0093
150.64 3016 54.9181
150.757 3200 56.5685
150.875 3146 56.0892
150.992 3085 55.5428
151.11 3236 56.8859
151.227 3276 57.2364
151.344 3133 55.9732
151.462 2971 54.5069
151.579 3046 55.1906
151.697 2946 54.2771
151.814 2791 52.8299
151.932 2709 52.0481
152.049 2660 51.5752
152.167 2799 52.9056
152.284 2922 54.0555
152.402 3056 55.2811
152.519 3144 56.0714
152.636 3206 56.6216
152.754 3177 56.3649
152.871 3160 56.2139
152.989 3108 55.7494
153.106 3129 55.9375
153.223 2941 54.231
153.341 2962 54.4243
153.458 2996 54.7357
153.575 2870 53.5724
153.693 2910 53.9444
153.81 2981 54.5985
153.927 3080 55.4977
154.044 3079 55.4887
154.162 3101 55.6866
154.279 3183 56.4181
154.396 3224 56.7803
154.513 3305 57.4891
154.63 3463 58.8473
154.747 3255 57.0526
154.864 3200 56.5685
154.981 3278 57.2538
155.098 3213 56.6833
155.215 3107 55.7405
155.332 3066 55.3715
155.449 3009 54.8544
155.566 3061 55.3263
155.683 3158 56.1961
155.8 3163 56.2406
155.917 3403 58.3352
156.033 3306 57.4978
156.15 0 1
156.267 0 1
156.383 0 1
156.5 0 1
156.617 0 1
156.733 0 1
156.85 0 1
156.966 0 1
157.082 0 1
157.199 0 1
157.315 0 1
157.431 0 1
157.547 0 1
157.664 0 1
157.78 0 1
157.896 0 1
158.012 0 1
158.128 0 1
158.244 0 1
158.359 0 1
158.475 0 1
158.591 0 1
158.706 0 1
