
6.15755 0 1
6.2731 0 1
6.3887 0 1
6.50437 0 1
6.62009 0 1
6.73587 0 1
6.8517 0 1
6.96759 0 1
7.08353 0 1
7.19952 0 1
7.31557 0 1
7.43166 0 1
7.54781 0 1
7.664 0 1
7.78024 0 1
7.89653 0 1
8.01286 0 1
8.12924 0 1
8.24567 0 1
8.36213 0 1
8.47864 0 1
8.59519 0 1
8.71178 0 1
8.82841 0 1
8.94508 0 1
9.06179 0 1
9.17853 0 1
9.29531 0 1
9.41212 0 1
9.52897 0 1
9.64584 0 1
9.76276 0 1
9.8797 0 1
9.99667 0 1
10.1137 0 1
10.2307 0 1
10.3478 0 1
10.4648 0 1
10.5819 0 1
10.6991 0 1
10.8162 0 1
10.9334 0 1
11.0506 0 1
11.1678 0 1
11.285 0 1
11.4023 0 1
11.5196 0 1
11.6369 0 1
11.7542 0 1
11.8715 0 1
11.9888 0 1
12.1062 0 1
12.2235 0 1
12.3409 0 1
12.4582 0 1
12.5756 0 1
12.693 0 1
12.8104 0 1
12.9278 0 1
13.0452 0 1
13.1626 0 1
13.28 0 1
13.3974 0 1
13.5149 0 1
13.6323 0 1
13.7497 0 1
13.8671 0 1
13.9845 0 1
14.1019 0 1
14.2193 0 1
14.3367 0 1
14.4541 0 1
14.5714 0 1
14.6888 0 1
14.8062 0 1
14.9235 0 1
15.0408 672 25.923
15.1581 702 26.4953
15.2755 734 27.0924
15.3927 762 27.6043
15.51 791 28.1247
15.6273 803 28.3373
15.7445 820 28.6356
15.8617 800 28.2843
15.9789 793 28.1603
16.0961 787 28.0535
16.2132 796 28.2135
16.3304 739 27.1846
16.4475 735 27.1109
16.5646 732 27.0555
16.6816 722 26.8701
16.7986 748 27.3496
16.9156 748 27.3496
17.0326 733 27.074
17.1496 722 26.8701
17.2665 686 26.1916
17.3833 692 26.3059
17.5002 661 25.7099
17.617 667 25.8263
17.7338 689 26.2488
17.8505 724 26.9072
17.9672 748 27.3496
18.0839 750 27.3861
18.2005 787 28.0535
18.3171 841 29
18.4337 846 29.0861
18.5502 847 29.1033
18.6666 923 30.3809
18.7831 921 30.348
18.8994 817 28.5832
19.0158 857 29.2746
19.1321 813 28.5132
19.2483 803 28.3373
19.3645 781 27.9464
19.4806 765 27.6586
19.5967 776 27.8568
19.7128 722 26.8701
19.8288 712 26.6833
19.9447 681 26.096
20.0606 0 1
20.1764 0 1
20.2922 0 1
20.4079 0 1
20.5236 0 1
20.6392 0 1
20.7548 0 1
20.8702 0 1
23.3078 0 1
23.4233 0 1
23.539 0 1
23.6547 0 1
23.7704 0 1
23.8862 0 1
24.0021 0 1
24.118 0 1
24.234 0 1
24.35 0 1
24.4661 764 27.6405
24.5822 791 28.1247
24.6984 704 26.533
24.8146 729 27
24.9309 736 27.1293
25.0472 763 27.6225
25.1636 804 28.3549
25.28 773 27.8029
25.3965 847 29.1033
25.513 848 29.1204
25.6296 853 29.2062
25.7462 837 28.931
25.8628 768 27.7128
25.9795 804 28.3549
26.0962 839 28.9655
26.213 876 29.5973
26.3298 813 28.5132
26.4466 836 28.9137
26.5635 919 30.315
26.6804 824 28.7054
26.7973 809 28.4429
26.9143 788 28.0713
27.0313 797 28.2312
27.1483 743 27.258
27.2653 734 27.0924
27.3824 790 28.1069
27.4996 732 27.0555
27.6167 787 28.0535
27.7339 760 27.5681
27.8511 734 27.0924
27.9683 807 28.4077
28.0855 732 27.0555
28.2028 776 27.8568
28.3201 768 27.7128
28.4374 785 28.0179
28.5547 770 27.7489
28.6721 692 26.3059
28.7894 772 27.7849
28.9068 744 27.2764
29.0242 769 27.7308
29.1416 755 27.4773
29.259 812 28.4956
29.3764 772 27.7849
29.4939 825 28.7228
29.6113 746 27.313
29.7288 705 26.5518
29.8463 757 27.5136
29.9638 731 27.037
30.0812 744 27.2764
30.1987 712 26.6833
30.3162 771 27.7669
30.4337 736 27.1293
30.5512 732 27.0555
30.6687 719 26.8142
30.7862 736 27.1293
30.9037 704 26.533
31.0212 761 27.5862
31.1387 799 28.2666
31.2562 807 28.4077
31.3737 848 29.1204
31.4912 777 27.8747
31.6087 766 27.6767
31.7262 835 28.8964
31.8436 782 27.9643
31.9611 799 28.2666
32.0785 800 28.2843
32.1959 800 28.2843
32.3134 787 28.0535
32.4308 800 28.2843
32.5482 790 28.1069
32.6655 747 27.3313
32.7829 755 27.4773
32.9002 635 25.1992
33.0176 733 27.074
33.1349 699 26.4386
33.2522 642 25.3377
33.3694 674 25.9615
33.4867 704 26.533
33.6039 669 25.865
33.7211 664 25.7682
33.8383 688 26.2298
33.9554 729 27
34.0725 734 27.0924
34.1896 713 26.7021
34.3067 763 27.6225
34.4237 635 25.1992
34.5407 740 27.2029
34.6577 750 27.3861
34.7746 839 28.9655
34.8915 794 28.178
35.0084 806 28.3901
35.1252 785 28.0179
35.242 784 28
35.3587 821 28.6531
35.4755 751 27.4044
35.5921 779 27.9106
35.7088 763 27.6225
35.8254 682 26.1151
35.9419 683 26.1343
36.0584 687 26.2107
36.1749 702 26.4953
36.2913 729 27
36.4077 654 25.5734
36.524 683 26.1343
36.6403 658 25.6515
36.7565 681 26.096
36.8727 634 25.1794
36.9889 633 25.1595
37.1049 641 25.318
37.221 0 1
37.3369 0 1
37.4529 0 1
37.5687 0 1
37.6845 0 1
37.8003 0 1
37.916 0 1
38.0316 0 1
38.1472 0 1
40.5851 0 1
40.7008 0 1
40.8164 0 1
40.9322 0 1
41.048 0 1
41.1639 0 1
41.2798 0 1
41.3958 0 1
41.5118 0 1
41.6279 0 1
41.744 555 23.5584
41.8602 539 23.2164
41.9765 527 22.9565
42.0928 491 22.1585
42.2091 558 23.622
42.3255 507 22.5167
42.4419 510 22.5832
42.5584 518 22.7596
42.675 556 23.5797
42.7915 565 23.7697
42.9081 566 23.7908
43.0248 604 24.5764
43.1415 497 22.2935
43.2582 561 23.6854
43.375 509 22.561
43.4918 581 24.1039
43.6087 621 24.9199
43.7256 596 24.4131
43.8425 554 23.5372
43.9595 586 24.2074
44.0765 564 23.7487
44.1935 584 24.1661
44.3106 558 23.622
44.4277 497 22.2935
44.5448 468 21.6333
44.6619 478 21.8632
44.7791 505 22.4722
44.8963 453 21.2838
45.0136 466 21.587
45.1308 498 22.3159
45.2481 503 22.4277
45.3654 446 21.1187
45.4827 436 20.8806
45.6001 451 21.2368
45.7174 431 20.7605
45.8348 395 19.8746
45.9522 363 19.0526
46.0697 366 19.1311
46.1871 394 19.8494
46.3046 424 20.5913
46.422 432 20.7846
46.5395 422 20.5426
46.657 416 20.3961
46.7745 398 19.9499
46.892 384 19.5959
47.0096 387 19.6723
47.1271 406 20.1494
47.2446 395 19.8746
47.3622 409 20.2237
47.4797 411 20.2731
47.5973 396 19.8997
47.7149 388 19.6977
47.8324 400 20
47.95 346 18.6011
48.0675 345 18.5742
48.1851 347 18.6279
48.3027 346 18.6011
48.4202 354 18.8149
48.5378 410 20.2485
48.6554 348 18.6548
48.7729 377 19.4165
48.8904 344 18.5472
49.008 344 18.5472
49.1255 335 18.303
49.243 324 18
49.3605 347 18.6279
49.478 315 17.7482
49.5955 333 18.2483
49.713 349 18.6815
49.8304 367 19.1572
49.9479 356 18.868
50.0653 380 19.4936
50.1827 373 19.3132
50.3001 297 17.2337
50.4175 337 18.3576
50.5348 395 19.8746
50.6521 399 19.975
50.7694 464 21.5407
50.8867 435 20.8567
51.004 478 21.8632
51.1212 446 21.1187
51.2384 393 19.8242
51.3556 456 21.3542
51.4727 421 20.5183
51.5899 439 20.9523
51.707 454 21.3073
51.824 448 21.166
51.9411 481 21.9317
52.0581 419 20.4695
52.175 509 22.561
52.2919 489 22.1133
52.4088 507 22.5167
52.5257 500 22.3607
52.6425 486 22.0454
52.7593 452 21.2603
52.876 463 21.5174
52.9927 470 21.6795
53.1094 497 22.2935
53.226 527 22.9565
53.3426 499 22.3383
53.4591 527 22.9565
53.5756 550 23.4521
53.692 487 22.0681
53.8084 459 21.4243
53.9248 452 21.2603
54.0411 465 21.5639
54.1573 524 22.891
54.2735 0 1
54.3896 0 1
54.5057 0 1
54.6217 0 1
54.7377 0 1
54.8537 0 1
54.9695 0 1
55.0853 0 1
55.2011 0 1
55.3168 0 1
55.4324 0 1
57.824 0 1
57.9396 0 1
58.0553 0 1
58.1711 0 1
58.2869 0 1
58.4028 0 1
58.5187 0 1
58.6347 0 1
58.7508 0 1
58.8669 0 1
58.983 502 22.4054
59.0992 528 22.9783
59.2155 531 23.0434
59.3318 591 24.3105
59.4482 641 25.318
59.5646 659 25.671
59.681 642 25.3377
59.7975 656 25.6125
59.9141 679 26.0576
60.0306 624 24.98
60.1473 596 24.4131
60.2639 613 24.7588
60.3807 620 24.8998
60.4974 577 24.0208
60.6142 606 24.6171
60.731 586 24.2074
60.8479 635 25.1992
60.9648 633 25.1595
61.0818 645 25.3969
61.1987 586 24.2074
61.3158 538 23.1948
61.4328 541 23.2594
61.5499 514 22.6716
61.667 528 22.9783
61.7841 496 22.2711
61.9013 588 24.2487
62.0185 520 22.8035
62.1357 519 22.7816
62.253 543 23.3024
62.3702 532 23.0651
62.4875 434 20.8327
62.6049 465 21.5639
62.7222 533 23.0868
62.8396 621 24.9199
62.9569 610 24.6982
63.0743 644 25.3772
63.1918 599 24.4745
63.3092 546 23.3666
63.4267 588 24.2487
63.5441 577 24.0208
63.6616 549 23.4307
63.7791 492 22.1811
63.8966 572 23.9165
64.0142 542 23.2809
64.1317 512 22.6274
64.2492 560 23.6643
64.3668 602 24.5357
64.4843 582 24.1247
64.6019 546 23.3666
64.7195 520 22.8035
64.837 534 23.1084
64.9546 488 22.0907
65.0722 515 22.6936
65.1898 406 20.1494
65.3074 486 22.0454
65.4249 502 22.4054
65.5425 526 22.9347
65.6601 527 22.9565
65.7777 506 22.4944
65.8952 445 21.095
66.0128 428 20.6882
66.1304 440 20.9762
66.2479 466 21.587
66.3655 520 22.8035
66.483 550 23.4521
66.6005 567 23.8118
66.718 567 23.8118
66.8355 573 23.9374
66.953 585 24.1868
67.0705 552 23.4947
67.1879 514 22.6716
67.3054 510 22.5832
67.4228 544 23.3238
67.5402 505 22.4722
67.6576 545 23.3452
67.7749 570 23.8747
67.8923 558 23.622
68.0096 565 23.7697
68.1269 603 24.5561
68.2442 563 23.7276
68.3614 536 23.1517
68.4787 537 23.1733
68.5958 492 22.1811
68.713 462 21.4942
68.8302 410 20.2485
68.9473 477 21.8403
69.0643 494 22.2261
69.1814 523 22.8692
69.2984 545 23.3452
69.4154 521 22.8254
69.5323 550 23.4521
69.6492 479 21.8861
69.7661 466 21.587
69.8829 468 21.6333
69.9997 545 23.3452
70.1165 613 24.7588
70.2332 617 24.8395
70.3499 576 24
70.4665 611 24.7184
70.5831 568 23.8328
70.6996 619 24.8797
70.8161 598 24.454
70.9326 600 24.4949
71.049 581 24.1039
71.1653 569 23.8537
71.2817 575 23.9792
71.3979 572 23.9165
71.5141 598 24.454
71.6303 576 24
71.7464 534 23.1084
71.8624 0 1
71.9784 0 1
72.0944 0 1
72.2102 0 1
72.3261 0 1
72.4418 0 1
72.5575 0 1
72.6732 0 1
75.1054 0 1
75.2209 0 1
75.3365 0 1
75.4521 0 1
75.5678 0 1
75.6835 0 1
75.7993 0 1
75.9151 0 1
76.031 0 1
76.147 564 23.7487
76.263 590 24.2899
76.3791 563 23.7276
76.4952 586 24.2074
76.6113 609 24.6779
76.7276 601 24.5153
76.8438 553 23.516
76.9601 600 24.4949
77.0765 640 25.2982
77.1929 622 24.9399
77.3093 594 24.3721
77.4258 568 23.8328
77.5423 534 23.1084
77.6589 539 23.2164
77.7755 495 22.2486
77.8921 502 22.4054
78.0088 507 22.5167
78.1256 485 22.0227
78.2423 526 22.9347
78.3591 604 24.5764
78.4759 541 23.2594
78.5928 528 22.9783
78.7097 489 22.1133
78.8266 388 19.6977
78.9436 513 22.6495
79.0606 520 22.8035
79.1776 619 24.8797
79.2946 582 24.1247
79.4117 622 24.9399
79.5288 565 23.7697
79.6459 568 23.8328
79.7631 588 24.2487
79.8802 554 23.5372
79.9974 553 23.516
80.1147 510 22.5832
80.2319 526 22.9347
80.3491 566 23.7908
80.4664 554 23.5372
80.5837 585 24.1868
80.701 583 24.1454
80.8183 590 24.2899
80.9357 578 24.0416
81.053 563 23.7276
81.1704 494 22.2261
81.2877 519 22.7816
81.4051 451 21.2368
81.5225 464 21.5407
81.6399 446 21.1187
81.7573 514 22.6716
81.8747 469 21.6564
81.9922 503 22.4277
82.1096 535 23.1301
82.227 485 22.0227
82.3444 414 20.347
82.4619 416 20.3961
82.5793 433 20.8087
82.6967 509 22.561
82.8142 504 22.4499
82.9316 522 22.8473
83.049 525 22.9129
83.1664 528 22.9783
83.2838 522 22.8473
83.4012 526 22.9347
83.5186 511 22.6053
83.636 497 22.2935
83.7534 511 22.6053
83.8708 507 22.5167
83.9881 542 23.2809
84.1055 500 22.3607
84.2228 551 23.4734
84.3401 549 23.4307
84.4575 566 23.7908
84.5747 510 22.5832
84.692 570 23.8747
84.8093 498 22.3159
84.9265 469 21.6564
85.0437 457 21.3776
85.1609 474 21.7715
85.2781 459 21.4243
85.3952 482 21.9545
85.5123 527 22.9565
85.6294 571 23.8956
85.7465 530 23.0217
85.8636 478 21.8632
85.9806 478 21.8632
86.0976 432 20.7846
86.2145 509 22.561
86.3315 558 23.622
86.4484 605 24.5967
86.5652 612 24.7386
86.682 614 24.779
86.7988 623 24.96
86.9156 645 25.3969
87.0323 592 24.3311
87.149 611 24.7184
87.2657 567 23.8118
87.3823 643 25.3574
87.4988 569 23.8537
87.6154 701 26.4764
87.7318 654 25.5734
87.8483 661 25.7099
87.9647 711 26.6646
88.081 696 26.3818
88.1973 652 25.5343
88.3136 658 25.6515
88.4298 649 25.4755
88.546 605 24.5967
88.6621 628 25.0599
88.7781 559 23.6432
88.8942 0 1
89.0101 0 1
89.126 0 1
89.2419 0 1
89.3577 0 1
89.4734 0 1
89.5891 0 1
89.7047 0 1
89.8203 0 1
89.9358 0 1
92.3269 0 1
92.4424 0 1
92.558 0 1
92.6736 0 1
92.7893 0 1
92.905 0 1
93.0208 0 1
93.1366 0 1
93.2525 0 1
93.3685 0 1
93.4845 0 1
93.6005 715 26.7395
93.7167 732 27.0555
93.8328 664 25.7682
93.949 682 26.1151
94.0653 612 24.7386
94.1816 615 24.7992
94.2979 626 25.02
94.4143 626 25.02
94.5307 682 26.1151
94.6472 678 26.0384
94.7637 699 26.4386
94.8803 656 25.6125
94.9969 677 26.0192
95.1135 634 25.1794
95.2302 622 24.9399
95.3469 670 25.8844
95.4637 699 26.4386
95.5805 758 27.5318
95.6973 791 28.1247
95.8142 819 28.6182
95.9311 759 27.55
96.048 768 27.7128
96.1649 750 27.3861
96.2819 753 27.4408
96.3989 727 26.9629
96.516 702 26.4953
96.633 713 26.7021
96.7501 743 27.258
96.8673 812 28.4956
96.9844 766 27.6767
97.1016 813 28.5132
97.2188 784 28
97.336 789 28.0891
97.4532 778 27.8927
97.5704 718 26.7955
97.6877 688 26.2298
97.805 673 25.9422
97.9223 670 25.8844
98.0396 659 25.671
98.1569 705 26.5518
98.2743 772 27.7849
98.3916 780 27.9285
98.509 704 26.533
98.6264 749 27.3679
98.7438 701 26.4764
98.8612 668 25.8457
98.9786 727 26.9629
99.096 685 26.1725
99.2134 758 27.5318
99.3308 821 28.6531
99.4482 817 28.5832
99.5656 785 28.0179
99.6831 790 28.1069
99.8005 806 28.3901
99.9179 799 28.2666
100.035 716 26.7582
100.153 772 27.7849
100.27 733 27.074
100.388 782 27.9643
100.505 748 27.3496
100.622 783 27.9821
100.74 785 28.0179
100.857 863 29.3769
100.975 851 29.1719
101.092 820 28.6356
101.209 768 27.7128
101.327 756 27.4955
101.444 779 27.9106
101.561 719 26.8142
101.679 741 27.2213
101.796 798 28.2489
101.913 845 29.0689
102.03 803 28.3373
102.148 865 29.4109
102.265 808 28.4253
102.382 866 29.4279
102.499 765 27.6586
102.616 810 28.4605
102.733 879 29.6479
102.851 836 28.9137
102.968 903 30.05
103.085 922 30.3645
103.202 828 28.775
103.319 878 29.6311
103.436 880 29.6648
103.552 823 28.688
103.669 848 29.1204
103.786 846 29.0861
103.903 878 29.6311
104.02 946 30.7571
104.137 952 30.8545
104.253 945 30.7409
104.37 1024 32
104.487 948 30.7896
104.603 979 31.289
104.72 917 30.282
104.836 904 30.0666
104.953 865 29.4109
105.069 823 28.688
105.186 936 30.5941
105.302 896 29.9333
105.418 900 30
105.535 957 30.9354
105.651 1005 31.7017
105.767 875 29.5804
105.883 883 29.7153
105.999 921 30.348
106.115 0 1
106.231 0 1
106.347 0 1
106.463 0 1
106.579 0 1
106.694 0 1
106.81 0 1
106.926 0 1
107.041 0 1
107.157 0 1
109.576 0 1
109.692 0 1
109.807 0 1
109.923 0 1
110.039 0 1
110.155 0 1
110.27 0 1
110.386 0 1
110.502 0 1
110.618 997 31.5753
110.735 963 31.0322
110.851 929 30.4795
110.967 911 30.1828
111.083 915 30.249
111.199 1037 32.2025
111.316 942 30.692
111.432 1007 31.7333
111.549 974 31.209
111.665 1045 32.3265
111.782 972 31.1769
111.898 965 31.0644
112.015 982 31.3369
112.132 946 30.7571
112.248 920 30.3315
112.365 909 30.1496
112.482 930 30.4959
112.599 976 31.241
112.716 1018 31.9061
112.832 1077 32.8177
112.949 1096 33.1059
113.066 1112 33.3467
113.183 1083 32.909
113.3 959 30.9677
113.417 974 31.209
113.534 917 30.282
113.652 940 30.6594
113.769 889 29.8161
113.886 920 30.3315
114.003 969 31.1288
114.12 1013 31.8277
114.238 1037 32.2025
114.355 933 30.545
114.472 916 30.2655
114.589 929 30.4795
114.707 947 30.7734
114.824 944 30.7246
114.942 1026 32.0312
115.059 1063 32.6037
115.176 981 31.3209
115.294 985 31.3847
115.411 1018 31.9061
115.529 1029 32.078
115.646 965 31.0644
115.764 972 31.1769
115.881 939 30.6431
115.999 972 31.1769
116.116 1043 32.2955
116.234 1005 31.7017
116.351 1065 32.6343
116.469 1078 32.8329
116.586 1095 33.0908
116.704 1122 33.4963
116.821 1119 33.4515
116.939 1134 33.6749
117.056 991 31.4802
117.174 1087 32.9697
117.291 990 31.4643
117.409 1038 32.218
117.526 1013 31.8277
117.644 1125 33.541
117.761 1078 32.8329
117.879 996 31.5595
117.996 1019 31.9218
118.114 1052 32.4345
118.231 985 31.3847
118.349 1055 32.4808
118.466 1046 32.3419
118.584 1058 32.5269
118.701 1048 32.3728
118.819 1077 32.8177
118.936 1114 33.3766
119.053 1097 33.121
119.171 1088 32.9848
119.288 1018 31.9061
119.405 984 31.3688
119.523 1062 32.5883
119.64 1040 32.249
119.757 1029 32.078
119.875 1071 32.7261
119.992 1077 32.8177
120.109 1080 32.8634
120.226 1097 33.121
120.343 1140 33.7639
120.46 1182 34.3802
120.578 1121 33.4813
120.695 1138 33.7343
120.812 1097 33.121
120.929 1092 33.0454
121.046 1081 32.8786
121.163 1086 32.9545
121.279 982 31.3369
121.396 1101 33.1813
121.513 1117 33.4215
121.63 1075 32.7872
121.747 1043 32.2955
121.863 1017 31.8904
121.98 1058 32.5269
122.097 1018 31.9061
122.213 971 31.1609
122.33 1016 31.8748
122.446 1057 32.5115
122.563 1074 32.7719
122.679 974 31.209
122.795 954 30.8869
122.912 991 31.4802
123.028 984 31.3688
123.144 1002 31.6544
123.26 1012 31.8119
123.377 0 1
123.493 0 1
123.609 0 1
123.725 0 1
123.84 0 1
123.956 0 1
124.072 0 1
124.188 0 1
124.303 0 1
124.419 0 1
126.852 0 1
126.968 0 1
127.083 0 1
127.199 0 1
127.315 0 1
127.431 0 1
127.547 0 1
127.663 0 1
127.779 0 1
127.895 0 1
128.011 0 1
128.127 0 1
128.243 0 1
128.359 1183 34.3948
128.476 1139 33.7491
128.592 1101 33.1813
128.708 1179 34.3366
128.825 1182 34.3802
128.941 1224 34.9857
129.058 1198 34.6121
129.174 1259 35.4824
129.291 1257 35.4542
129.408 1237 35.171
129.524 1278 35.7491
129.641 1284 35.8329
129.758 1308 36.1663
129.875 1331 36.4829
129.992 1315 36.2629
130.108 1374 37.0675
130.225 1374 37.0675
130.342 1405 37.4833
130.459 1381 37.1618
130.576 1390 37.2827
130.693 1303 36.0971
130.81 1326 36.4143
130.928 1277 35.7351
131.045 1273 35.6791
131.162 1316 36.2767
131.279 1406 37.4967
131.396 1417 37.6431
131.513 1397 37.3765
131.631 1456 38.1576
131.748 1413 37.5899
131.865 1374 37.0675
131.983 1449 38.0657
132.1 1314 36.2491
132.217 1293 35.9583
132.335 1360 36.8782
132.452 1279 35.7631
132.57 1295 35.9861
132.687 1276 35.7211
132.804 1382 37.1753
132.922 1323 36.3731
133.039 1318 36.3043
133.157 1312 36.2215
133.274 1348 36.7151
133.392 1353 36.7831
133.509 1380 37.1484
133.627 1371 37.027
133.744 1419 37.6696
133.862 1484 38.5227
133.979 1487 38.5616
134.097 1431 37.8286
134.214 1482 38.4968
134.332 1511 38.8716
134.449 1524 39.0384
134.567 1424 37.7359
134.684 1475 38.4057
134.802 1543 39.281
134.919 1522 39.0128
135.037 1470 38.3406
135.154 1475 38.4057
135.272 1483 38.5097
135.389 1476 38.4187
135.507 1439 37.9342
135.624 1355 36.8103
135.742 1416 37.6298
135.859 1408 37.5233
135.977 1382 37.1753
136.094 1411 37.5633
136.211 1477 38.4318
136.329 1388 37.2559
136.446 1393 37.3229
136.564 1439 37.9342
136.681 1372 37.0405
136.798 1385 37.2156
136.915 1425 37.7492
137.033 1373 37.054
137.15 1382 37.1753
137.267 1350 36.7423
137.384 1446 38.0263
137.502 1510 38.8587
137.619 1503 38.7685
137.736 1588 39.8497
137.853 1565 39.5601
137.97 1530 39.1152
138.087 1618 40.2244
138.204 1524 39.0384
138.321 1577 39.7115
138.438 1624 40.2989
138.555 1678 40.9634
138.672 1628 40.3485
138.788 1678 40.9634
138.905 1591 39.8873
139.022 1579 39.7366
139.139 1581 39.7618
139.255 1546 39.3192
139.372 1510 38.8587
139.488 1516 38.9358
139.605 1446 38.0263
139.721 1497 38.6911
139.838 1508 38.833
139.954 1419 37.6696
140.071 1520 38.9872
140.187 1521 39
140.303 1482 38.4968
140.419 1479 38.4578
140.535 1503 38.7685
140.652 1455 38.1445
140.768 0 1
140.884 0 1
141 0 1
141.115 0 1
141.231 0 1
141.347 0 1
141.463 0 1
141.578 0 1
141.694 0 1
144.104 0 1
144.219 0 1
144.335 0 1
144.45 0 1
144.566 0 1
144.682 0 1
144.798 0 1
144.914 0 1
145.03 0 1
145.146 1209 34.7707
145.262 1377 37.108
145.378 1285 35.8469
145.494 1335 36.5377
145.61 1296 36
145.726 1369 37
145.842 1333 36.5103
145.959 1336 36.5513
146.075 1314 36.2491
146.192 1305 36.1248
146.308 1269 35.623
146.425 1322 36.3593
146.541 1254 35.4119
146.658 1263 35.5387
146.774 1286 35.8608
146.891 1214 34.8425
147.008 1218 34.8999
147.125 1201 34.6554
147.241 1217 34.8855
147.358 1239 35.1994
147.475 1287 35.8748
147.592 1320 36.3318
147.709 1274 35.6931
147.826 1285 35.8469
147.943 1279 35.7631
148.06 1377 37.108
148.177 1304 36.1109
148.294 1360 36.8782
148.411 1392 37.3095
148.528 1378 37.1214
148.645 1344 36.6606
148.762 1449 38.0657
148.88 1447 38.0395
148.997 1409 37.5366
149.114 1449 38.0657
149.231 1430 37.8153
149.349 1491 38.6135
149.466 1502 38.7556
149.583 1472 38.3667
149.701 1499 38.7169
149.818 1456 38.1576
149.935 1488 38.5746
150.053 1503 38.7685
150.17 1441 37.9605
150.287 1482 38.4968
150.405 1433 37.855
150.522 1412 37.5766
150.64 1323 36.3731
150.757 1328 36.4417
150.875 1275 35.7071
150.992 1291 35.9305
151.11 1243 35.2562
151.227 1304 36.1109
151.344 1228 35.0428
151.462 1193 34.5398
151.579 1188 34.4674
151.697 1229 35.0571
151.814 1188 34.4674
151.932 1187 34.4529
152.049 1200 34.641
152.167 1199 34.6266
152.284 1260 35.4965
152.402 1305 36.1248
152.519 1251 35.3695
152.636 1244 35.2704
152.754 1300 36.0555
152.871 1313 36.2353
152.989 1348 36.7151
153.106 1292 35.9444
153.223 1387 37.2424
153.341 1440 37.9473
153.458 1444 38
153.575 1426 37.7624
153.693 1479 38.4578
153.81 1460 38.2099
153.927 1536 39.1918
154.044 1558 39.4715
154.162 1481 38.4838
154.279 1516 38.9358
154.396 1381 37.1618
154.513 1559 39.4842
154.63 1484 38.5227
154.747 1621 40.2616
154.864 1523 39.0256
154.981 1499 38.7169
155.098 1424 37.7359
155.215 1508 38.833
155.332 1379 37.1349
155.449 1322 36.3593
155.566 1297 36.0139
155.683 1247 35.3129
155.8 1207 34.7419
155.917 1155 33.9853
156.033 1121 33.4813
156.15 0 1
156.267 0 1
156.383 0 1
156.5 0 1
156.617 0 1
156.733 0 1
156.85 0 1
156.966 0 1
157.082 0 1
157.199 0 1
157.315 0 1
157.431 0 1
157.547 0 1
157.664 0 1
157.78 0 1
157.896 0 1
158.012 0 1
158.128 0 1
158.244 0 1
158.359 0 1
158.475 0 1
158.591 0 1
158.706 0 1
