
6.15755 0 1
6.2731 0 1
6.3887 0 1
6.50437 0 1
6.62009 0 1
6.73587 0 1
6.8517 0 1
6.96759 0 1
7.08353 0 1
7.19952 0 1
7.31557 0 1
7.43166 0 1
7.54781 0 1
7.664 0 1
7.78024 0 1
7.89653 0 1
8.01286 0 1
8.12924 0 1
8.24567 0 1
8.36213 0 1
8.47864 0 1
8.59519 0 1
8.71178 0 1
8.82841 0 1
8.94508 0 1
9.06179 0 1
9.17853 0 1
9.29531 0 1
9.41212 0 1
9.52897 0 1
9.64584 0 1
9.76276 0 1
9.8797 0 1
9.99667 0 1
10.1137 0 1
10.2307 0 1
10.3478 0 1
10.4648 0 1
10.5819 0 1
10.6991 0 1
10.8162 0 1
10.9334 0 1
11.0506 0 1
11.1678 0 1
11.285 0 1
11.4023 0 1
11.5196 0 1
11.6369 0 1
11.7542 0 1
11.8715 0 1
11.9888 0 1
12.1062 0 1
12.2235 0 1
12.3409 0 1
12.4582 0 1
12.5756 0 1
12.693 0 1
12.8104 0 1
12.9278 0 1
13.0452 0 1
13.1626 0 1
13.28 0 1
13.3974 0 1
13.5149 0 1
13.6323 0 1
13.7497 0 1
13.8671 0 1
13.9845 0 1
14.1019 0 1
14.2193 0 1
14.3367 0 1
14.4541 0 1
14.5714 0 1
14.6888 0 1
14.8062 0 1
14.9235 0 1
15.0408 0 0
15.1581 0 0
15.2755 0 0
15.3927 0 0
15.51 0 0
15.6273 0 0
15.7445 0 0
15.8617 0 0
15.9789 0 0
16.0961 0 0
16.2132 0 0
16.3304 0 0
16.4475 0 0
16.5646 0 0
16.6816 0 0
16.7986 0 0
16.9156 0 0
17.0326 0 0
17.1496 0 0
17.2665 0 0
17.3833 0 0
17.5002 0 0
17.617 0 0
17.7338 0 0
17.8505 0 0
17.9672 0 0
18.0839 0 0
18.2005 0 0
18.3171 0 0
18.4337 0 0
18.5502 0 0
18.6666 0 0
18.7831 0 0
18.8994 0 0
19.0158 0 0
19.1321 0 0
19.2483 0 0
19.3645 0 0
19.4806 0 0
19.5967 0 0
19.7128 0 0
19.8288 0 0
19.9447 0 0
20.0606 0 1
20.1764 0 1
20.2922 0 1
20.4079 0 1
20.5236 0 1
20.6392 0 1
20.7548 0 1
20.8702 0 1
23.3078 0 1
23.4233 0 1
23.539 0 1
23.6547 0 1
23.7704 0 1
23.8862 0 1
24.0021 0 1
24.118 0 1
24.234 0 1
24.35 0 1
24.4661 1216 34.8712
24.5822 1447 38.0395
24.6984 1488 38.5746
24.8146 1738 41.6893
24.9309 1944 44.0908
25.0472 2237 47.2969
25.1636 2394 48.9285
25.28 2569 50.6853
25.3965 2596 50.951
25.513 2672 51.6914
25.6296 2675 51.7204
25.7462 2659 51.5655
25.8628 2671 51.6817
25.9795 2722 52.1728
26.0962 2665 51.6236
26.213 2680 51.7687
26.3298 2749 52.4309
26.4466 2761 52.5452
26.5635 2750 52.4404
26.6804 2724 52.192
26.7973 2624 51.225
26.9143 2593 50.9215
27.0313 2580 50.7937
27.1483 2481 49.8096
27.2653 2484 49.8397
27.3824 2478 49.7795
27.4996 2336 48.3322
27.6167 2220 47.1169
27.7339 2145 46.3141
27.8511 2340 48.3735
27.9683 2465 49.6488
28.0855 2437 49.366
28.2028 2505 50.05
28.3201 2417 49.163
28.4374 2500 50
28.5547 2483 49.8297
28.6721 2486 49.8598
28.7894 2560 50.5964
28.9068 2495 49.95
29.0242 2530 50.2991
29.1416 2565 50.6458
29.259 2558 50.5767
29.3764 2528 50.2792
29.4939 2389 48.8774
29.6113 2409 49.0816
29.7288 2237 47.2969
29.8463 2324 48.2079
29.9638 2384 48.8262
30.0812 2344 48.4149
30.1987 2439 49.3862
30.3162 2352 48.4974
30.4337 2451 49.5076
30.5512 2520 50.1996
30.6687 2557 50.5668
30.7862 2496 49.96
30.9037 2272 47.6655
31.0212 2279 47.7389
31.1387 2276 47.7074
31.2562 2332 48.2908
31.3737 2420 49.1935
31.4912 2566 50.6557
31.6087 2480 49.7996
31.7262 2485 49.8498
31.8436 2557 50.5668
31.9611 2446 49.4571
32.0785 2493 49.93
32.1959 2494 49.94
32.3134 2366 48.6415
32.4308 2456 49.558
32.5482 2366 48.6415
32.6655 2238 47.3075
32.7829 2300 47.9583
32.9002 2216 47.0744
33.0176 2226 47.1805
33.1349 2111 45.9456
33.2522 2084 45.6508
33.3694 2073 45.5302
33.4867 2131 46.1628
33.6039 2052 45.299
33.7211 2226 47.1805
33.8383 2253 47.4658
33.9554 2282 47.7703
34.0725 2360 48.5798
34.1896 2289 47.8435
34.3067 2441 49.4065
34.4237 2341 48.3839
34.5407 2275 47.697
34.6577 2206 46.9681
34.7746 2256 47.4974
34.8915 2205 46.9574
35.0084 2269 47.634
35.1252 2454 49.5379
35.242 2386 48.8467
35.3587 2374 48.7237
35.4755 2505 50.05
35.5921 2270 47.6445
35.7088 2248 47.4131
35.8254 2192 46.8188
35.9419 2236 47.2864
36.0584 2048 45.2548
36.1749 1986 44.5646
36.2913 1992 44.6318
36.4077 1937 44.0114
36.524 1882 43.382
36.6403 1668 40.8412
36.7565 1543 39.281
36.8727 1463 38.2492
36.9889 1476 38.4187
37.1049 1425 37.7492
37.221 0 1
37.3369 0 1
37.4529 0 1
37.5687 0 1
37.6845 0 1
37.8003 0 1
37.916 0 1
38.0316 0 1
38.1472 0 1
40.5851 0 1
40.7008 0 1
40.8164 0 1
40.9322 0 1
41.048 0 1
41.1639 0 1
41.2798 0 1
41.3958 0 1
41.5118 0 1
41.6279 0 1
41.744 2238 47.3075
41.8602 3121 55.8659
41.9765 3674 60.6135
42.0928 3920 62.6099
42.2091 3915 62.57
42.3255 3859 62.1208
42.4419 3965 62.9682
42.5584 3873 62.2334
42.675 4124 64.2184
42.7915 4268 65.3299
42.9081 4084 63.9062
43.0248 4196 64.7765
43.1415 4202 64.8228
43.2582 4060 63.7181
43.375 3705 60.8687
43.4918 3685 60.7042
43.6087 3863 62.153
43.7256 3887 62.3458
43.8425 4019 63.3956
43.9595 4143 64.3661
44.0765 4185 64.6916
44.1935 3987 63.1427
44.3106 3897 62.426
44.4277 3632 60.2661
44.5448 3619 60.1581
44.6619 3591 59.925
44.7791 3342 57.81
44.8963 3204 56.6039
45.0136 3033 55.0727
45.1308 2819 53.0943
45.2481 2740 52.345
45.3654 2644 51.4198
45.4827 2503 50.03
45.6001 2269 47.634
45.7174 2319 48.156
45.8348 2157 46.4435
45.9522 2095 45.7712
46.0697 2176 46.6476
46.1871 2038 45.1442
46.3046 2123 46.076
46.422 2093 45.7493
46.5395 2093 45.7493
46.657 2038 45.1442
46.7745 2039 45.1553
46.892 1958 44.2493
47.0096 1826 42.7317
47.1271 1892 43.4971
47.2446 1947 44.1248
47.3622 1962 44.2945
47.4797 2013 44.8665
47.5973 1973 44.4185
47.7149 2028 45.0333
47.8324 1959 44.2606
47.95 1953 44.1928
48.0675 1897 43.5546
48.1851 1946 44.1135
48.3027 1810 42.5441
48.4202 1857 43.0929
48.5378 1785 42.2493
48.6554 1807 42.5088
48.7729 1792 42.332
48.8904 1745 41.7732
49.008 1602 40.025
49.1255 1603 40.0375
49.243 1648 40.5956
49.3605 1717 41.4367
49.478 1808 42.5206
49.5955 1778 42.1663
49.713 1784 42.2374
49.8304 1926 43.8862
49.9479 1860 43.1277
50.0653 1932 43.9545
50.1827 1940 44.0454
50.3001 1755 41.8927
50.4175 1624 40.2989
50.5348 1490 38.6005
50.6521 1599 39.9875
50.7694 1696 41.1825
50.8867 1792 42.332
51.004 1915 43.7607
51.1212 1953 44.1928
51.2384 1912 43.7264
51.3556 1894 43.5201
51.4727 1910 43.7035
51.5899 1895 43.5316
51.707 1852 43.0349
51.824 1884 43.4051
51.9411 1816 42.6146
52.0581 1844 42.9418
52.175 1799 42.4146
52.2919 1798 42.4028
52.4088 1756 41.9047
52.5257 1723 41.509
52.6425 1727 41.5572
52.7593 1641 40.5093
52.876 1662 40.7676
52.9927 1629 40.3609
53.1094 1706 41.3038
53.226 1575 39.6863
53.3426 1641 40.5093
53.4591 1677 40.9512
53.5756 1533 39.1535
53.692 1324 36.3868
53.8084 1212 34.8138
53.9248 1059 32.5423
54.0411 988 31.4325
54.1573 887 29.7825
54.2735 0 1
54.3896 0 1
54.5057 0 1
54.6217 0 1
54.7377 0 1
54.8537 0 1
54.9695 0 1
55.0853 0 1
55.2011 0 1
55.3168 0 1
55.4324 0 1
57.824 0 1
57.9396 0 1
58.0553 0 1
58.1711 0 1
58.2869 0 1
58.4028 0 1
58.5187 0 1
58.6347 0 1
58.7508 0 1
58.8669 0 1
58.983 1443 37.9868
59.0992 1539 39.2301
59.2155 1481 38.4838
59.3318 1725 41.5331
59.4482 1832 42.8019
59.5646 2033 45.0888
59.681 2135 46.2061
59.7975 2152 46.3897
59.9141 2194 46.8402
60.0306 2160 46.4758
60.1473 2193 46.8295
60.2639 2208 46.9894
60.3807 2119 46.0326
60.4974 2155 46.422
60.6142 2208 46.9894
60.731 2230 47.2229
60.8479 2190 46.7974
60.9648 2303 47.9896
61.0818 2155 46.422
61.1987 2188 46.7761
61.3158 2154 46.4112
61.4328 2042 45.1885
61.5499 2100 45.8258
61.667 2063 45.4203
61.7841 2083 45.6399
61.9013 2048 45.2548
62.0185 2148 46.3465
62.1357 2161 46.4866
62.253 2128 46.1303
62.3702 2097 45.793
62.4875 2008 44.8107
62.6049 1923 43.852
62.7222 1837 42.8602
62.8396 2101 45.8367
62.9569 2147 46.3357
63.0743 2192 46.8188
63.1918 2229 47.2123
63.3092 2206 46.9681
63.4267 2260 47.5395
63.5441 2194 46.8402
63.6616 2181 46.7012
63.7791 2156 46.4327
63.8966 2157 46.4435
64.0142 2255 47.4868
64.1317 2218 47.0956
64.2492 2182 46.7119
64.3668 2173 46.6154
64.4843 2175 46.6369
64.6019 2136 46.2169
64.7195 2046 45.2327
64.837 2065 45.4423
64.9546 2015 44.8888
65.0722 2022 44.9667
65.1898 2050 45.2769
65.3074 2012 44.8553
65.4249 2047 45.2438
65.5425 2109 45.9239
65.6601 2145 46.3141
65.7777 2152 46.3897
65.8952 2092 45.7384
66.0128 1997 44.6878
66.1304 1784 42.2374
66.2479 1692 41.1339
66.3655 1825 42.72
66.483 1954 44.2041
66.6005 2166 46.5403
66.718 2205 46.9574
66.8355 2179 46.6798
66.953 2153 46.4004
67.0705 2245 47.3814
67.1879 2129 46.1411
67.3054 2160 46.4758
67.4228 2252 47.4552
67.5402 2066 45.4533
67.6576 2105 45.8803
67.7749 2095 45.7712
67.8923 2238 47.3075
68.0096 2167 46.551
68.1269 2150 46.3681
68.2442 2118 46.0217
68.3614 2026 45.0111
68.4787 2032 45.0777
68.5958 1947 44.1248
68.713 1937 44.0114
68.8302 1981 44.5084
68.9473 2004 44.7661
69.0643 1963 44.3058
69.1814 1933 43.9659
69.2984 2016 44.8999
69.4154 2097 45.793
69.5323 1978 44.4747
69.6492 1849 43
69.7661 1668 40.8412
69.8829 1581 39.7618
69.9997 1666 40.8167
70.1165 1812 42.5676
70.2332 1870 43.2435
70.3499 1719 41.4608
70.4665 1660 40.7431
70.5831 1464 38.2623
70.6996 1435 37.8814
70.8161 1426 37.7624
70.9326 1283 35.819
71.049 1215 34.8569
71.1653 1223 34.9714
71.2817 1147 33.8674
71.3979 1086 32.9545
71.5141 1133 33.6601
71.6303 1023 31.9844
71.7464 944 30.7246
71.8624 0 1
71.9784 0 1
72.0944 0 1
72.2102 0 1
72.3261 0 1
72.4418 0 1
72.5575 0 1
72.6732 0 1
75.1054 0 1
75.2209 0 1
75.3365 0 1
75.4521 0 1
75.5678 0 1
75.6835 0 1
75.7993 0 1
75.9151 0 1
76.031 0 1
76.147 1688 41.0853
76.263 1880 43.359
76.3791 1858 43.1045
76.4952 1968 44.3621
76.6113 1911 43.715
76.7276 1928 43.909
76.8438 1947 44.1248
76.9601 1976 44.4522
77.0765 1972 44.4072
77.1929 1940 44.0454
77.3093 2004 44.7661
77.4258 2010 44.833
77.5423 1928 43.909
77.6589 1938 44.0227
77.7755 1848 42.9884
77.8921 1915 43.7607
78.0088 1894 43.5201
78.1256 1914 43.7493
78.2423 2023 44.9778
78.3591 2022 44.9667
78.4759 1955 44.2154
78.5928 1937 44.0114
78.7097 1773 42.107
78.8266 1582 39.7744
78.9436 1391 37.2961
79.0606 1446 38.0263
79.1776 1629 40.3609
79.2946 1959 44.2606
79.4117 2062 45.4093
79.5288 2050 45.2769
79.6459 2002 44.7437
79.7631 2109 45.9239
79.8802 2011 44.8442
79.9974 1988 44.587
80.1147 2045 45.2217
80.2319 2102 45.8476
80.3491 2067 45.4643
80.4664 2170 46.5833
80.5837 2144 46.3033
80.701 2158 46.4543
80.8183 2246 47.392
80.9357 2175 46.6369
81.053 2121 46.0543
81.1704 2044 45.2106
81.2877 2092 45.7384
81.4051 2059 45.3762
81.5225 2066 45.4533
81.6399 2034 45.0999
81.7573 2184 46.7333
81.8747 2218 47.0956
81.9922 2291 47.8644
82.1096 2309 48.0521
82.227 2394 48.9285
82.3444 2315 48.1144
82.4619 2143 46.2925
82.5793 1981 44.5084
82.6967 2079 45.5961
82.8142 2502 50.02
82.9316 2934 54.1664
83.049 3229 56.8243
83.1664 3404 58.3438
83.2838 3571 59.7578
83.4012 3706 60.8769
83.5186 3754 61.2699
83.636 3854 62.0806
83.7534 3974 63.0397
83.8708 4057 63.6946
83.9881 4040 63.561
84.1055 4256 65.238
84.2228 4096 64
84.3401 4157 64.4748
84.4575 4137 64.3195
84.5747 4276 65.3911
84.692 4212 64.8999
84.8093 4063 63.7417
84.9265 4136 64.3117
85.0437 3977 63.0635
85.1609 3996 63.2139
85.2781 4013 63.3482
85.3952 4048 63.6239
85.5123 3998 63.2297
85.6294 3944 62.8013
85.7465 3911 62.538
85.8636 3681 60.6712
85.9806 3028 55.0273
86.0976 2601 51
86.2145 2590 50.892
86.3315 2826 53.1601
86.4484 3660 60.4979
86.5652 3839 61.9597
86.682 3919 62.6019
86.7988 4088 63.9375
86.9156 3760 61.3188
87.0323 3916 62.578
87.149 3925 62.6498
87.2657 3888 62.3538
87.3823 3883 62.3137
87.4988 3764 61.3514
87.6154 3433 58.5918
87.7318 3117 55.8301
87.8483 2955 54.3599
87.9647 2855 53.4322
88.081 2775 52.6783
88.1973 2780 52.7257
88.3136 2671 51.6817
88.4298 2533 50.3289
88.546 2435 49.3457
88.6621 2170 46.5833
88.7781 2190 46.7974
88.8942 0 1
89.0101 0 1
89.126 0 1
89.2419 0 1
89.3577 0 1
89.4734 0 1
89.5891 0 1
89.7047 0 1
89.8203 0 1
89.9358 0 1
92.3269 0 1
92.4424 0 1
92.558 0 1
92.6736 0 1
92.7893 0 1
92.905 0 1
93.0208 0 1
93.1366 0 1
93.2525 0 1
93.3685 0 1
93.4845 0 1
93.6005 4168 64.56
93.7167 4226 65.0077
93.8328 4206 64.8537
93.949 4237 65.0922
94.0653 4150 64.4205
94.1816 4299 65.5668
94.2979 4311 65.6582
94.4143 4245 65.1537
94.5307 4052 63.6553
94.6472 4118 64.1716
94.7637 3955 62.8888
94.8803 3682 60.6795
94.9969 3260 57.0964
95.1135 2876 53.6284
95.2302 3105 55.7225
95.3469 3409 58.3866
95.4637 3939 62.7615
95.5805 4233 65.0615
95.6973 4219 64.9538
95.8142 4208 64.8691
95.9311 4266 65.3146
96.048 4268 65.3299
96.1649 4235 65.0769
96.2819 4214 64.9153
96.3989 4305 65.6125
96.516 4289 65.4905
96.633 4384 66.2118
96.7501 4261 65.2763
96.8673 4376 66.1513
96.9844 4420 66.4831
97.1016 4433 66.5808
97.2188 4536 67.3498
97.336 4286 65.4675
97.4532 4289 65.4905
97.5704 4186 64.6993
97.6877 4217 64.9384
97.805 4172 64.591
97.9223 4267 65.3223
98.0396 4212 64.8999
98.1569 4203 64.8305
98.2743 4048 63.6239
98.3916 3700 60.8276
98.509 3292 57.376
98.6264 3001 54.7814
98.7438 3003 54.7996
98.8612 3428 58.5491
98.9786 4013 63.3482
99.096 4000 63.2456
99.2134 4079 63.867
99.3308 3969 63
99.4482 4095 63.9922
99.5656 3932 62.7057
99.6831 3799 61.636
99.8005 3863 62.153
99.9179 3717 60.9672
100.035 3698 60.8112
100.153 3584 59.8665
100.27 3487 59.0508
100.388 3536 59.4643
100.505 3413 58.4209
100.622 3469 58.8982
100.74 3229 56.8243
100.857 3160 56.2139
100.975 3061 55.3263
101.092 2963 54.4334
101.209 2793 52.8488
101.327 2724 52.192
101.444 2841 53.301
101.561 2795 52.8678
101.679 2805 52.9623
101.796 2895 53.8052
101.913 2644 51.4198
102.03 2507 50.07
102.148 2243 47.3603
102.265 2057 45.3542
102.382 2268 47.6235
102.499 2379 48.775
102.616 2647 51.449
102.733 2697 51.9326
102.851 2618 51.1664
102.968 2644 51.4198
103.085 2602 51.0098
103.202 2586 50.8527
103.319 2526 50.2593
103.436 2477 49.7695
103.552 2579 50.7839
103.669 2572 50.7149
103.786 2489 49.8899
103.903 2615 51.1371
104.02 2504 50.04
104.137 2559 50.5866
104.253 2604 51.0294
104.37 2408 49.0714
104.487 2496 49.96
104.603 2439 49.3862
104.72 2350 48.4768
104.836 2132 46.1736
104.953 1994 44.6542
105.069 1757 41.9166
105.186 1677 40.9512
105.302 1493 38.6394
105.418 1461 38.223
105.535 1334 36.524
105.651 1055 32.4808
105.767 939 30.6431
105.883 859 29.3087
105.999 788 28.0713
106.115 0 1
106.231 0 1
106.347 0 1
106.463 0 1
106.579 0 1
106.694 0 1
106.81 0 1
106.926 0 1
107.041 0 1
107.157 0 1
109.576 0 1
109.692 0 1
109.807 0 1
109.923 0 1
110.039 0 1
110.155 0 1
110.27 0 1
110.386 0 1
110.502 0 1
110.618 2492 49.9199
110.735 2669 51.6624
110.851 2568 50.6754
110.967 2319 48.156
111.083 2306 48.0208
111.199 2382 48.8057
111.316 2658 51.5558
111.432 2729 52.2398
111.549 2955 54.3599
111.665 2823 53.1319
111.782 2876 53.6284
111.898 2769 52.6213
112.015 2781 52.7352
112.132 2783 52.7541
112.248 2882 53.6843
112.365 2900 53.8516
112.482 2765 52.5833
112.599 3002 54.7905
112.716 3037 55.109
112.832 3098 55.6597
112.949 3136 56
113.066 3209 56.648
113.183 3233 56.8595
113.3 3204 56.6039
113.417 3097 55.6507
113.534 3095 55.6327
113.652 3072 55.4256
113.769 3167 56.2761
113.886 2960 54.4059
114.003 3053 55.254
114.12 3157 56.1872
114.238 2979 54.5802
114.355 2847 53.3573
114.472 2457 49.5681
114.589 2436 49.3559
114.707 2580 50.7937
114.824 2730 52.2494
114.942 2943 54.2494
115.059 2973 54.5252
115.176 2872 53.591
115.294 2986 54.6443
115.411 2935 54.1756
115.529 2979 54.5802
115.646 2891 53.768
115.764 2811 53.0189
115.881 2841 53.301
115.999 2827 53.1695
116.116 2774 52.6688
116.234 3027 55.0182
116.351 3023 54.9818
116.469 3157 56.1872
116.586 3201 56.5774
116.704 3368 58.0345
116.821 3268 57.1664
116.939 3102 55.6956
117.056 3248 56.9912
117.174 3178 56.3738
117.291 3163 56.2406
117.409 3154 56.1605
117.526 3211 56.6657
117.644 3185 56.4358
117.761 3120 55.857
117.879 3021 54.9636
117.996 2648 51.4587
118.114 2599 50.9804
118.231 2437 49.366
118.349 2581 50.8035
118.466 2803 52.9434
118.584 2937 54.1941
118.701 3009 54.8544
118.819 3059 55.3082
118.936 2821 53.1131
119.053 2991 54.69
119.171 2860 53.479
119.288 2767 52.6023
119.405 2739 52.3355
119.523 2754 52.4786
119.64 2756 52.4976
119.757 2765 52.5833
119.875 2913 53.9722
119.992 2904 53.8888
120.109 2913 53.9722
120.226 3049 55.2178
120.343 3041 55.1453
120.46 3024 54.9909
120.578 2982 54.6077
120.695 3050 55.2268
120.812 3060 55.3173
120.929 2931 54.1387
121.046 2943 54.2494
121.163 2905 53.8981
121.279 2900 53.8516
121.396 2908 53.9259
121.513 2791 52.8299
121.63 2578 50.774
121.747 2424 49.2341
121.863 2136 46.2169
121.98 2031 45.0666
122.097 1969 44.3734
122.213 2065 45.4423
122.33 2039 45.1553
122.446 2075 45.5522
122.563 1959 44.2606
122.679 1932 43.9545
122.795 1852 43.0349
122.912 1798 42.4028
123.028 1759 41.9404
123.144 1811 42.5558
123.26 1726 41.5452
123.377 0 1
123.493 0 1
123.609 0 1
123.725 0 1
123.84 0 1
123.956 0 1
124.072 0 1
124.188 0 1
124.303 0 1
124.419 0 1
126.852 0 1
126.968 0 1
127.083 0 1
127.199 0 1
127.315 0 1
127.431 0 1
127.547 0 1
127.663 0 1
127.779 0 1
127.895 0 1
128.011 0 1
128.127 0 1
128.243 0 1
128.359 3284 57.3062
128.476 3402 58.3267
128.592 3360 57.9655
128.708 3401 58.3181
128.825 3397 58.2838
128.941 3397 58.2838
129.058 3465 58.8643
129.174 3478 58.9746
129.291 3541 59.5063
129.408 3594 59.95
129.524 3666 60.5475
129.641 3862 62.145
129.758 3975 63.0476
129.875 3988 63.1506
129.992 4085 63.914
130.108 3992 63.1823
130.225 4165 64.5368
130.342 4035 63.5216
130.459 3790 61.563
130.576 3835 61.9274
130.693 3787 61.5386
130.81 3535 59.4559
130.928 3591 59.925
131.045 3598 59.9833
131.162 3823 61.8304
131.279 3768 61.384
131.396 3843 61.9919
131.513 3788 61.5467
131.631 3894 62.4019
131.748 3955 62.8888
131.865 3733 61.0983
131.983 3770 61.4003
132.1 3781 61.4898
132.217 3733 61.0983
132.335 3746 61.2046
132.452 3723 61.0164
132.57 3739 61.1474
132.687 3641 60.3407
132.804 3905 62.49
132.922 3756 61.2862
133.039 3782 61.498
133.157 3920 62.6099
133.274 4066 63.7652
133.392 4000 63.2456
133.509 4113 64.1327
133.627 4220 64.9615
133.744 4267 65.3223
133.862 4284 65.4523
133.979 4269 65.3376
134.097 4359 66.0227
134.214 4035 63.5216
134.332 4077 63.8514
134.449 3929 62.6817
134.567 4183 64.6761
134.684 4090 63.9531
134.802 4185 64.6916
134.919 4251 65.1997
135.037 4322 65.7419
135.154 4190 64.7302
135.272 4224 64.9923
135.389 4142 64.3584
135.507 4050 63.6396
135.624 4141 64.3506
135.742 4098 64.0156
135.859 3989 63.1585
135.977 3929 62.6817
136.094 3859 62.1208
136.211 3863 62.153
136.329 3954 62.8808
136.446 4045 63.6003
136.564 3933 62.7136
136.681 4027 63.4586
136.798 4114 64.1405
136.915 4150 64.4205
137.033 4123 64.2106
137.15 4126 64.2339
137.267 4108 64.0937
137.384 4212 64.8999
137.502 4174 64.6065
137.619 4161 64.5058
137.736 4001 63.2535
137.853 3831 61.8951
137.97 3937 62.7455
138.087 3782 61.498
138.204 3840 61.9677
138.321 3941 62.7774
138.438 4066 63.7652
138.555 4078 63.8592
138.672 4066 63.7652
138.788 3996 63.2139
138.905 3975 63.0476
139.022 3711 60.918
139.139 3804 61.6766
139.255 3585 59.8749
139.372 3446 58.7026
139.488 3161 56.2228
139.605 3086 55.5518
139.721 2918 54.0185
139.838 2980 54.5894
139.954 2788 52.8015
140.071 2701 51.9711
140.187 2735 52.2972
140.303 2768 52.6118
140.419 2740 52.345
140.535 2854 53.4228
140.652 2940 54.2218
140.768 0 1
140.884 0 1
141 0 1
141.115 0 1
141.231 0 1
141.347 0 1
141.463 0 1
141.578 0 1
141.694 0 1
144.104 0 1
144.219 0 1
144.335 0 1
144.45 0 1
144.566 0 1
144.682 0 1
144.798 0 1
144.914 0 1
145.03 0 1
145.146 8213 90.6256
145.262 8559 92.5149
145.378 8677 93.1504
145.494 8821 93.9202
145.61 8938 94.541
145.726 8745 93.5147
145.842 8745 93.5147
145.959 9010 94.921
146.075 8930 94.4987
146.192 8700 93.2738
146.308 8808 93.8509
146.425 8460 91.9783
146.541 7949 89.1572
146.658 6988 83.5943
146.774 6067 77.8909
146.891 5567 74.6123
147.008 6278 79.2338
147.125 7726 87.8977
147.241 8422 91.7715
147.358 8704 93.2952
147.475 8655 93.0323
147.592 8601 92.7416
147.709 8847 94.0585
147.826 8715 93.3542
147.943 8670 93.1128
148.06 9013 94.9368
148.177 8848 94.0638
148.294 8811 93.8669
148.411 9032 95.0368
148.528 8795 93.7817
148.645 9023 94.9895
148.762 8792 93.7657
148.88 8798 93.7977
148.997 8501 92.2009
149.114 9352 96.7057
149.231 8950 94.6044
149.349 9157 95.6922
149.466 8927 94.4828
149.583 8852 94.0851
149.701 9005 94.8947
149.818 9028 95.0158
149.935 9037 95.0631
150.053 8922 94.4563
150.17 8618 92.8332
150.287 7720 87.8635
150.405 6611 81.3081
150.522 6056 77.8203
150.64 6404 80.025
150.757 7580 87.0632
150.875 8294 91.0714
150.992 8623 92.8601
151.11 8659 93.0537
151.227 8999 94.8631
151.344 8462 91.9891
151.462 8581 92.6337
151.579 8846 94.0532
151.697 8774 93.6696
151.814 9049 95.1262
151.932 8748 93.5307
152.049 9092 95.352
152.167 8903 94.3557
152.284 8975 94.7365
152.402 9115 95.4725
152.519 9121 95.5039
152.636 9022 94.9842
152.754 9200 95.9166
152.871 9303 96.4521
152.989 9282 96.3431
153.106 9341 96.6488
153.223 9276 96.312
153.341 9202 95.9271
153.458 9373 96.8143
153.575 9359 96.7419
153.693 9270 96.2808
153.81 9132 95.5615
153.927 8080 89.8888
154.044 7091 84.2081
154.162 6542 80.8826
154.279 6804 82.4864
154.396 8135 90.1942
154.513 9015 94.9474
154.63 9283 96.3483
154.747 9144 95.6243
154.864 9100 95.3939
154.981 9026 95.0053
155.098 8998 94.8578
155.215 8719 93.3756
155.332 8533 92.3742
155.449 8575 92.6013
155.566 8380 91.5423
155.683 8142 90.233
155.8 8141 90.2275
155.917 7921 89
156.033 7651 87.47
156.15 0 1
156.267 0 1
156.383 0 1
156.5 0 1
156.617 0 1
156.733 0 1
156.85 0 1
156.966 0 1
157.082 0 1
157.199 0 1
157.315 0 1
157.431 0 1
157.547 0 1
157.664 0 1
157.78 0 1
157.896 0 1
158.012 0 1
158.128 0 1
158.244 0 1
158.359 0 1
158.475 0 1
158.591 0 1
158.706 0 1
