
6.15755 0 1
6.2731 0 1
6.3887 0 1
6.50437 0 1
6.62009 0 1
6.73587 0 1
6.8517 0 1
6.96759 0 1
7.08353 0 1
7.19952 0 1
7.31557 0 1
7.43166 0 1
7.54781 0 1
7.664 0 1
7.78024 0 1
7.89653 0 1
8.01286 0 1
8.12924 0 1
8.24567 0 1
8.36213 0 1
8.47864 0 1
8.59519 0 1
8.71178 0 1
8.82841 0 1
8.94508 0 1
9.06179 0 1
9.17853 0 1
9.29531 0 1
9.41212 0 1
9.52897 0 1
9.64584 0 1
9.76276 0 1
9.8797 0 1
9.99667 0 1
10.1137 0 1
10.2307 0 1
10.3478 0 1
10.4648 0 1
10.5819 0 1
10.6991 0 1
10.8162 0 1
10.9334 0 1
11.0506 0 1
11.1678 0 1
11.285 0 1
11.4023 0 1
11.5196 0 1
11.6369 0 1
11.7542 0 1
11.8715 0 1
11.9888 0 1
12.1062 0 1
12.2235 0 1
12.3409 0 1
12.4582 0 1
12.5756 0 1
12.693 0 1
12.8104 0 1
12.9278 0 1
13.0452 0 1
13.1626 0 1
13.28 0 1
13.3974 0 1
13.5149 0 1
13.6323 0 1
13.7497 0 1
13.8671 0 1
13.9845 0 1
14.1019 0 1
14.2193 0 1
14.3367 0 1
14.4541 0 1
14.5714 0 1
14.6888 0 1
14.8062 0 1
14.9235 0 1
15.0408 874 29.5635
15.1581 927 30.4467
15.2755 999 31.607
15.3927 1014 31.8434
15.51 901 30.0167
15.6273 919 30.315
15.7445 934 30.5614
15.8617 892 29.8664
15.9789 908 30.133
16.0961 915 30.249
16.2132 874 29.5635
16.3304 860 29.3258
16.4475 870 29.4958
16.5646 835 28.8964
16.6816 841 29
16.7986 883 29.7153
16.9156 793 28.1603
17.0326 820 28.6356
17.1496 802 28.3196
17.2665 767 27.6948
17.3833 765 27.6586
17.5002 784 28
17.617 762 27.6043
17.7338 856 29.2575
17.8505 744 27.2764
17.9672 775 27.8388
18.0839 801 28.3019
18.2005 842 29.0172
18.3171 772 27.7849
18.4337 728 26.9815
18.5502 767 27.6948
18.6666 770 27.7489
18.7831 824 28.7054
18.8994 788 28.0713
19.0158 779 27.9106
19.1321 666 25.807
19.2483 673 25.9422
19.3645 725 26.9258
19.4806 619 24.8797
19.5967 656 25.6125
19.7128 608 24.6577
19.8288 574 23.9583
19.9447 520 22.8035
20.0606 0 1
20.1764 0 1
20.2922 0 1
20.4079 0 1
20.5236 0 1
20.6392 0 1
20.7548 0 1
20.8702 0 1
23.3078 0 1
23.4233 0 1
23.539 0 1
23.6547 0 1
23.7704 0 1
23.8862 0 1
24.0021 0 1
24.118 0 1
24.234 0 1
24.35 0 1
24.4661 342 18.4932
24.5822 425 20.6155
24.6984 428 20.6882
24.8146 508 22.5389
24.9309 629 25.0799
25.0472 668 25.8457
25.1636 748 27.3496
25.28 791 28.1247
25.3965 852 29.189
25.513 851 29.1719
25.6296 859 29.3087
25.7462 864 29.3939
25.8628 818 28.6007
25.9795 807 28.4077
26.0962 868 29.4618
26.213 786 28.0357
26.3298 754 27.4591
26.4466 687 26.2107
26.5635 728 26.9815
26.6804 698 26.4197
26.7973 719 26.8142
26.9143 723 26.8887
27.0313 718 26.7955
27.1483 669 25.865
27.2653 660 25.6905
27.3824 723 26.8887
27.4996 751 27.4044
27.6167 731 27.037
27.7339 705 26.5518
27.8511 683 26.1343
27.9683 703 26.5141
28.0855 739 27.1846
28.2028 769 27.7308
28.3201 743 27.258
28.4374 768 27.7128
28.5547 756 27.4955
28.6721 796 28.2135
28.7894 741 27.2213
28.9068 797 28.2312
29.0242 765 27.6586
29.1416 698 26.4197
29.259 722 26.8701
29.3764 723 26.8887
29.4939 738 27.1662
29.6113 689 26.2488
29.7288 643 25.3574
29.8463 666 25.807
29.9638 651 25.5147
30.0812 668 25.8457
30.1987 711 26.6646
30.3162 723 26.8887
30.4337 714 26.7208
30.5512 719 26.8142
30.6687 721 26.8514
30.7862 696 26.3818
30.9037 710 26.6458
31.0212 765 27.6586
31.1387 730 27.0185
31.2562 762 27.6043
31.3737 718 26.7955
31.4912 680 26.0768
31.6087 748 27.3496
31.7262 738 27.1662
31.8436 744 27.2764
31.9611 759 27.55
32.0785 773 27.8029
32.1959 719 26.8142
32.3134 716 26.7582
32.4308 692 26.3059
32.5482 725 26.9258
32.6655 673 25.9422
32.7829 680 26.0768
32.9002 677 26.0192
33.0176 626 25.02
33.1349 610 24.6982
33.2522 603 24.5561
33.3694 586 24.2074
33.4867 612 24.7386
33.6039 610 24.6982
33.7211 610 24.6982
33.8383 634 25.1794
33.9554 670 25.8844
34.0725 684 26.1534
34.1896 680 26.0768
34.3067 659 25.671
34.4237 637 25.2389
34.5407 666 25.807
34.6577 723 26.8887
34.7746 692 26.3059
34.8915 657 25.632
35.0084 633 25.1595
35.1252 612 24.7386
35.242 601 24.5153
35.3587 654 25.5734
35.4755 695 26.3629
35.5921 647 25.4362
35.7088 700 26.4575
35.8254 669 25.865
35.9419 645 25.3969
36.0584 640 25.2982
36.1749 643 25.3574
36.2913 664 25.7682
36.4077 581 24.1039
36.524 614 24.779
36.6403 519 22.7816
36.7565 535 23.1301
36.8727 455 21.3307
36.9889 437 20.9045
37.1049 352 18.7617
37.221 0 1
37.3369 0 1
37.4529 0 1
37.5687 0 1
37.6845 0 1
37.8003 0 1
37.916 0 1
38.0316 0 1
38.1472 0 1
40.5851 0 1
40.7008 0 1
40.8164 0 1
40.9322 0 1
41.048 0 1
41.1639 0 1
41.2798 0 1
41.3958 0 1
41.5118 0 1
41.6279 0 1
41.744 304 17.4356
41.8602 357 18.8944
41.9765 362 19.0263
42.0928 375 19.3649
42.2091 404 20.0998
42.3255 424 20.5913
42.4419 454 21.3073
42.5584 489 22.1133
42.675 489 22.1133
42.7915 528 22.9783
42.9081 489 22.1133
43.0248 509 22.561
43.1415 491 22.1585
43.2582 517 22.7376
43.375 521 22.8254
43.4918 486 22.0454
43.6087 516 22.7156
43.7256 513 22.6495
43.8425 476 21.8174
43.9595 449 21.1896
44.0765 518 22.7596
44.1935 497 22.2935
44.3106 518 22.7596
44.4277 515 22.6936
44.5448 517 22.7376
44.6619 500 22.3607
44.7791 571 23.8956
44.8963 587 24.2281
45.0136 518 22.7596
45.1308 527 22.9565
45.2481 526 22.9347
45.3654 520 22.8035
45.4827 506 22.4944
45.6001 545 23.3452
45.7174 524 22.891
45.8348 454 21.3073
45.9522 469 21.6564
46.0697 483 21.9773
46.1871 507 22.5167
46.3046 506 22.4944
46.422 515 22.6936
46.5395 500 22.3607
46.657 503 22.4277
46.7745 498 22.3159
46.892 494 22.2261
47.0096 520 22.8035
47.1271 511 22.6053
47.2446 552 23.4947
47.3622 511 22.6053
47.4797 468 21.6333
47.5973 457 21.3776
47.7149 477 21.8403
47.8324 509 22.561
47.95 524 22.891
48.0675 501 22.383
48.1851 529 23
48.3027 543 23.3024
48.4202 538 23.1948
48.5378 541 23.2594
48.6554 529 23
48.7729 515 22.6936
48.8904 536 23.1517
49.008 502 22.4054
49.1255 492 22.1811
49.243 457 21.3776
49.3605 462 21.4942
49.478 430 20.7364
49.5955 500 22.3607
49.713 461 21.4709
49.8304 477 21.8403
49.9479 463 21.5174
50.0653 518 22.7596
50.1827 503 22.4277
50.3001 509 22.561
50.4175 463 21.5174
50.5348 500 22.3607
50.6521 522 22.8473
50.7694 497 22.2935
50.8867 520 22.8035
51.004 415 20.3715
51.1212 451 21.2368
51.2384 473 21.7486
51.3556 491 22.1585
51.4727 516 22.7156
51.5899 555 23.5584
51.707 573 23.9374
51.824 565 23.7697
51.9411 505 22.4722
52.0581 531 23.0434
52.175 550 23.4521
52.2919 559 23.6432
52.4088 612 24.7386
52.5257 563 23.7276
52.6425 566 23.7908
52.7593 531 23.0434
52.876 500 22.3607
52.9927 531 23.0434
53.1094 510 22.5832
53.226 514 22.6716
53.3426 509 22.561
53.4591 532 23.0651
53.5756 524 22.891
53.692 625 25
53.8084 764 27.6405
53.9248 902 30.0333
54.0411 964 31.0483
54.1573 963 31.0322
54.2735 0 1
54.3896 0 1
54.5057 0 1
54.6217 0 1
54.7377 0 1
54.8537 0 1
54.9695 0 1
55.0853 0 1
55.2011 0 1
55.3168 0 1
55.4324 0 1
57.824 0 1
57.9396 0 1
58.0553 0 1
58.1711 0 1
58.2869 0 1
58.4028 0 1
58.5187 0 1
58.6347 0 1
58.7508 0 1
58.8669 0 1
58.983 80697 284.072
59.0992 103654 321.953
59.2155 123091 350.843
59.3318 140525 374.867
59.4482 154680 393.294
59.5646 164294 405.332
59.681 169795 412.062
59.7975 172810 415.704
59.9141 172727 415.604
60.0306 174230 417.409
60.1473 172673 415.539
60.2639 170023 412.338
60.3807 162921 403.635
60.4974 155743 394.643
60.6142 146157 382.305
60.731 135743 368.433
60.8479 123595 351.561
60.9648 112252 335.04
61.0818 101314 318.299
61.1987 91106 301.838
61.3158 78616 280.385
61.4328 64878 254.712
61.5499 51202 226.279
61.667 40877 202.181
61.7841 35148 187.478
61.9013 35570 188.6
62.0185 40141 200.352
62.1357 45492 213.289
62.253 47125 217.083
62.3702 44696 211.414
62.4875 39788 199.469
62.6049 33057 181.816
62.7222 26568 162.997
62.8396 20720 143.944
62.9569 15737 125.447
63.0743 11780 108.536
63.1918 8921 94.451
63.3092 6664 81.6333
63.4267 5355 73.1779
63.5441 4195 64.7688
63.6616 3430 58.5662
63.7791 2769 52.6213
63.8966 2317 48.1352
64.0142 1952 44.1814
64.1317 1772 42.0951
64.2492 1494 38.6523
64.3668 1231 35.0856
64.4843 1048 32.3728
64.6019 859 29.3087
64.7195 765 27.6586
64.837 757 27.5136
64.9546 681 26.096
65.0722 685 26.1725
65.1898 692 26.3059
65.3074 626 25.02
65.4249 603 24.5561
65.5425 561 23.6854
65.6601 564 23.7487
65.7777 581 24.1039
65.8952 607 24.6374
66.0128 584 24.1661
66.1304 584 24.1661
66.2479 581 24.1039
66.3655 562 23.7065
66.483 598 24.454
66.6005 581 24.1039
66.718 569 23.8537
66.8355 569 23.8537
66.953 576 24
67.0705 513 22.6495
67.1879 533 23.0868
67.3054 559 23.6432
67.4228 543 23.3024
67.5402 580 24.0832
67.6576 636 25.219
67.7749 586 24.2074
67.8923 577 24.0208
68.0096 572 23.9165
68.1269 596 24.4131
68.2442 533 23.0868
68.3614 586 24.2074
68.4787 548 23.4094
68.5958 491 22.1585
68.713 527 22.9565
68.8302 555 23.5584
68.9473 494 22.2261
69.0643 500 22.3607
69.1814 472 21.7256
69.2984 462 21.4942
69.4154 479 21.8861
69.5323 450 21.2132
69.6492 532 23.0651
69.7661 507 22.5167
69.8829 489 22.1133
69.9997 502 22.4054
70.1165 515 22.6936
70.2332 518 22.7596
70.3499 505 22.4722
70.4665 465 21.5639
70.5831 479 21.8861
70.6996 460 21.4476
70.8161 415 20.3715
70.9326 384 19.5959
71.049 361 19
71.1653 338 18.3848
71.2817 331 18.1934
71.3979 312 17.6635
71.5141 283 16.8226
71.6303 277 16.6433
71.7464 255 15.9687
71.8624 0 1
71.9784 0 1
72.0944 0 1
72.2102 0 1
72.3261 0 1
72.4418 0 1
72.5575 0 1
72.6732 0 1
75.1054 0 1
75.2209 0 1
75.3365 0 1
75.4521 0 1
75.5678 0 1
75.6835 0 1
75.7993 0 1
75.9151 0 1
76.031 0 1
76.147 372 19.2873
76.263 366 19.1311
76.3791 383 19.5704
76.4952 444 21.0713
76.6113 483 21.9773
76.7276 513 22.6495
76.8438 495 22.2486
76.9601 511 22.6053
77.0765 488 22.0907
77.1929 475 21.7945
77.3093 494 22.2261
77.4258 472 21.7256
77.5423 448 21.166
77.6589 466 21.587
77.7755 452 21.2603
77.8921 491 22.1585
78.0088 457 21.3776
78.1256 417 20.4206
78.2423 421 20.5183
78.3591 429 20.7123
78.4759 467 21.6102
78.5928 504 22.4499
78.7097 482 21.9545
78.8266 464 21.5407
78.9436 495 22.2486
79.0606 449 21.1896
79.1776 476 21.8174
79.2946 472 21.7256
79.4117 499 22.3383
79.5288 492 22.1811
79.6459 492 22.1811
79.7631 445 21.095
79.8802 470 21.6795
79.9974 495 22.2486
80.1147 485 22.0227
80.2319 493 22.2036
80.3491 535 23.1301
80.4664 562 23.7065
80.5837 482 21.9545
80.701 478 21.8632
80.8183 531 23.0434
80.9357 506 22.4944
81.053 459 21.4243
81.1704 483 21.9773
81.2877 468 21.6333
81.4051 467 21.6102
81.5225 538 23.1948
81.6399 470 21.6795
81.7573 414 20.347
81.8747 457 21.3776
81.9922 415 20.3715
82.1096 433 20.8087
82.227 479 21.8861
82.3444 500 22.3607
82.4619 490 22.1359
82.5793 503 22.4277
82.6967 516 22.7156
82.8142 514 22.6716
82.9316 463 21.5174
83.049 489 22.1133
83.1664 465 21.5639
83.2838 483 21.9773
83.4012 464 21.5407
83.5186 488 22.0907
83.636 473 21.7486
83.7534 493 22.2036
83.8708 520 22.8035
83.9881 536 23.1517
84.1055 521 22.8254
84.2228 536 23.1517
84.3401 534 23.1084
84.4575 516 22.7156
84.5747 473 21.7486
84.692 469 21.6564
84.8093 502 22.4054
84.9265 511 22.6053
85.0437 492 22.1811
85.1609 474 21.7715
85.2781 452 21.2603
85.3952 457 21.3776
85.5123 452 21.2603
85.6294 437 20.9045
85.7465 462 21.4942
85.8636 479 21.8861
85.9806 507 22.5167
86.0976 522 22.8473
86.2145 488 22.0907
86.3315 474 21.7715
86.4484 498 22.3159
86.5652 502 22.4054
86.682 517 22.7376
86.7988 512 22.6274
86.9156 524 22.891
87.0323 493 22.2036
87.149 493 22.2036
87.2657 499 22.3383
87.3823 478 21.8632
87.4988 463 21.5174
87.6154 461 21.4709
87.7318 442 21.0238
87.8483 460 21.4476
87.9647 437 20.9045
88.081 354 18.8149
88.1973 378 19.4422
88.3136 353 18.7883
88.4298 326 18.0555
88.546 296 17.2047
88.6621 330 18.1659
88.7781 268 16.3707
88.8942 0 1
89.0101 0 1
89.126 0 1
89.2419 0 1
89.3577 0 1
89.4734 0 1
89.5891 0 1
89.7047 0 1
89.8203 0 1
89.9358 0 1
92.3269 0 1
92.4424 0 1
92.558 0 1
92.6736 0 1
92.7893 0 1
92.905 0 1
93.0208 0 1
93.1366 0 1
93.2525 0 1
93.3685 0 1
93.4845 0 1
93.6005 343 18.5203
93.7167 435 20.8567
93.8328 430 20.7364
93.949 454 21.3073
94.0653 479 21.8861
94.1816 485 22.0227
94.2979 516 22.7156
94.4143 495 22.2486
94.5307 480 21.9089
94.6472 468 21.6333
94.7637 441 21
94.8803 469 21.6564
94.9969 431 20.7605
95.1135 489 22.1133
95.2302 512 22.6274
95.3469 478 21.8632
95.4637 487 22.0681
95.5805 526 22.9347
95.6973 510 22.5832
95.8142 491 22.1585
95.9311 520 22.8035
96.048 534 23.1084
96.1649 512 22.6274
96.2819 493 22.2036
96.3989 448 21.166
96.516 478 21.8632
96.633 512 22.6274
96.7501 516 22.7156
96.8673 508 22.5389
96.9844 522 22.8473
97.1016 508 22.5389
97.2188 530 23.0217
97.336 498 22.3159
97.4532 510 22.5832
97.5704 532 23.0651
97.6877 501 22.383
97.805 519 22.7816
97.9223 493 22.2036
98.0396 503 22.4277
98.1569 503 22.4277
98.2743 503 22.4277
98.3916 466 21.587
98.509 497 22.2935
98.6264 469 21.6564
98.7438 464 21.5407
98.8612 428 20.6882
98.9786 486 22.0454
99.096 555 23.5584
99.2134 507 22.5167
99.3308 515 22.6936
99.4482 528 22.9783
99.5656 518 22.7596
99.6831 498 22.3159
99.8005 518 22.7596
99.9179 534 23.1084
100.035 511 22.6053
100.153 508 22.5389
100.27 484 22
100.388 536 23.1517
100.505 550 23.4521
100.622 513 22.6495
100.74 552 23.4947
100.857 530 23.0217
100.975 494 22.2261
101.092 509 22.561
101.209 548 23.4094
101.327 558 23.622
101.444 552 23.4947
101.561 527 22.9565
101.679 524 22.891
101.796 503 22.4277
101.913 504 22.4499
102.03 499 22.3383
102.148 500 22.3607
102.265 516 22.7156
102.382 470 21.6795
102.499 519 22.7816
102.616 540 23.2379
102.733 614 24.779
102.851 562 23.7065
102.968 570 23.8747
103.085 549 23.4307
103.202 584 24.1661
103.319 527 22.9565
103.436 523 22.8692
103.552 501 22.383
103.669 538 23.1948
103.786 573 23.9374
103.903 605 24.5967
104.02 541 23.2594
104.137 515 22.6936
104.253 558 23.622
104.37 532 23.0651
104.487 577 24.0208
104.603 532 23.0651
104.72 511 22.6053
104.836 569 23.8537
104.953 495 22.2486
105.069 524 22.891
105.186 459 21.4243
105.302 447 21.1424
105.418 442 21.0238
105.535 335 18.303
105.651 357 18.8944
105.767 342 18.4932
105.883 331 18.1934
105.999 237 15.3948
106.115 0 1
106.231 0 1
106.347 0 1
106.463 0 1
106.579 0 1
106.694 0 1
106.81 0 1
106.926 0 1
107.041 0 1
107.157 0 1
109.576 0 1
109.692 0 1
109.807 0 1
109.923 0 1
110.039 0 1
110.155 0 1
110.27 0 1
110.386 0 1
110.502 0 1
110.618 274 16.5529
110.735 307 17.5214
110.851 342 18.4932
110.967 358 18.9209
111.083 367 19.1572
111.199 440 20.9762
111.316 489 22.1133
111.432 475 21.7945
111.549 547 23.388
111.665 511 22.6053
111.782 481 21.9317
111.898 518 22.7596
112.015 480 21.9089
112.132 467 21.6102
112.248 455 21.3307
112.365 481 21.9317
112.482 515 22.6936
112.599 507 22.5167
112.716 525 22.9129
112.832 501 22.383
112.949 485 22.0227
113.066 451 21.2368
113.183 475 21.7945
113.3 509 22.561
113.417 461 21.4709
113.534 414 20.347
113.652 512 22.6274
113.769 487 22.0681
113.886 503 22.4277
114.003 455 21.3307
114.12 472 21.7256
114.238 472 21.7256
114.355 412 20.2978
114.472 401 20.025
114.589 420 20.4939
114.707 437 20.9045
114.824 491 22.1585
114.942 441 21
115.059 494 22.2261
115.176 476 21.8174
115.294 494 22.2261
115.411 476 21.8174
115.529 467 21.6102
115.646 446 21.1187
115.764 418 20.445
115.881 461 21.4709
115.999 475 21.7945
116.116 409 20.2237
116.234 458 21.4009
116.351 462 21.4942
116.469 490 22.1359
116.586 413 20.3224
116.704 443 21.0476
116.821 425 20.6155
116.939 479 21.8861
117.056 456 21.3542
117.174 486 22.0454
117.291 477 21.8403
117.409 449 21.1896
117.526 460 21.4476
117.644 445 21.095
117.761 426 20.6398
117.879 417 20.4206
117.996 392 19.799
118.114 406 20.1494
118.231 404 20.0998
118.349 478 21.8632
118.466 461 21.4709
118.584 458 21.4009
118.701 463 21.5174
118.819 482 21.9545
118.936 482 21.9545
119.053 414 20.347
119.171 454 21.3073
119.288 404 20.0998
119.405 414 20.347
119.523 396 19.8997
119.64 427 20.664
119.757 427 20.664
119.875 448 21.166
119.992 448 21.166
120.109 479 21.8861
120.226 435 20.8567
120.343 405 20.1246
120.46 399 19.975
120.578 425 20.6155
120.695 432 20.7846
120.812 475 21.7945
120.929 462 21.4942
121.046 429 20.7123
121.163 410 20.2485
121.279 459 21.4243
121.396 396 19.8997
121.513 409 20.2237
121.63 373 19.3132
121.747 340 18.4391
121.863 332 18.2209
121.98 357 18.8944
122.097 376 19.3907
122.213 377 19.4165
122.33 354 18.8149
122.446 358 18.9209
122.563 338 18.3848
122.679 300 17.3205
122.795 305 17.4642
122.912 268 16.3707
123.028 272 16.4924
123.144 234 15.2971
123.26 227 15.0665
123.377 0 1
123.493 0 1
123.609 0 1
123.725 0 1
123.84 0 1
123.956 0 1
124.072 0 1
124.188 0 1
124.303 0 1
124.419 0 1
126.852 0 1
126.968 0 1
127.083 0 1
127.199 0 1
127.315 0 1
127.431 0 1
127.547 0 1
127.663 0 1
127.779 0 1
127.895 0 1
128.011 0 1
128.127 0 1
128.243 0 1
128.359 465 21.5639
128.476 486 22.0454
128.592 476 21.8174
128.708 472 21.7256
128.825 473 21.7486
128.941 490 22.1359
129.058 494 22.2261
129.174 496 22.2711
129.291 481 21.9317
129.408 513 22.6495
129.524 508 22.5389
129.641 520 22.8035
129.758 495 22.2486
129.875 599 24.4745
129.992 587 24.2281
130.108 614 24.779
130.225 631 25.1197
130.342 609 24.6779
130.459 660 25.6905
130.576 621 24.9199
130.693 582 24.1247
130.81 588 24.2487
130.928 671 25.9037
131.045 782 27.9643
131.162 823 28.688
131.279 836 28.9137
131.396 882 29.6985
131.513 967 31.0966
131.631 973 31.1929
131.748 896 29.9333
131.865 973 31.1929
131.983 1021 31.9531
132.1 979 31.289
132.217 1143 33.8083
132.335 1106 33.2566
132.452 1149 33.8969
132.57 1317 36.2905
132.687 1413 37.5899
132.804 1606 40.0749
132.922 1745 41.7732
133.039 1901 43.6005
133.157 1947 44.1248
133.274 2161 46.4866
133.392 2239 47.3181
133.509 2397 48.9592
133.627 2481 49.8096
133.744 2423 49.224
133.862 2421 49.2037
133.979 2035 45.111
134.097 1614 40.1746
134.214 1322 36.3593
134.332 1514 38.9102
134.449 2213 47.0425
134.567 2499 49.99
134.684 2646 51.4393
134.802 2663 51.6043
134.919 2603 51.0196
135.037 2612 51.1077
135.154 2440 49.3964
135.272 2474 49.7393
135.389 2458 49.5782
135.507 2384 48.8262
135.624 2332 48.2908
135.742 2303 47.9896
135.859 2241 47.3392
135.977 2197 46.8722
136.094 2176 46.6476
136.211 2123 46.076
136.329 2112 45.9565
136.446 2048 45.2548
136.564 2003 44.7549
136.681 2036 45.1221
136.798 1849 43
136.915 1831 42.7902
137.033 1884 43.4051
137.15 1801 42.4382
137.267 1849 43
137.384 1666 40.8167
137.502 1651 40.6325
137.619 1440 37.9473
137.736 1242 35.242
137.853 1052 32.4345
137.97 1069 32.6956
138.087 1185 34.4238
138.204 1317 36.2905
138.321 1404 37.47
138.438 1419 37.6696
138.555 1418 37.6563
138.672 1360 36.8782
138.788 1391 37.2961
138.905 1284 35.8329
139.022 1275 35.7071
139.139 1188 34.4674
139.255 1180 34.3511
139.372 1115 33.3916
139.488 1084 32.9242
139.605 1015 31.8591
139.721 950 30.8221
139.838 924 30.3974
139.954 882 29.6985
140.071 838 28.9482
140.187 815 28.5482
140.303 716 26.7582
140.419 741 27.2213
140.535 691 26.2869
140.652 604 24.5764
140.768 0 1
140.884 0 1
141 0 1
141.115 0 1
141.231 0 1
141.347 0 1
141.463 0 1
141.578 0 1
141.694 0 1
144.104 0 1
144.219 0 1
144.335 0 1
144.45 0 1
144.566 0 1
144.682 0 1
144.798 0 1
144.914 0 1
145.03 0 1
145.146 1256 35.4401
145.262 1320 36.3318
145.378 1305 36.1248
145.494 1339 36.5923
145.61 1436 37.8946
145.726 1433 37.855
145.842 1411 37.5633
145.959 1464 38.2623
146.075 1457 38.1707
146.192 1470 38.3406
146.308 1436 37.8946
146.425 1351 36.756
146.541 1276 35.7211
146.658 1210 34.7851
146.774 1283 35.819
146.891 1355 36.8103
147.008 1479 38.4578
147.125 1528 39.0896
147.241 1540 39.2428
147.358 1490 38.6005
147.475 1590 39.8748
147.592 1561 39.5095
147.709 1561 39.5095
147.826 1510 38.8587
147.943 1521 39
148.06 1500 38.7298
148.177 1507 38.8201
148.294 1510 38.8587
148.411 1575 39.6863
148.528 1512 38.8844
148.645 1698 41.2068
148.762 1624 40.2989
148.88 1606 40.0749
148.997 1746 41.7852
149.114 1581 39.7618
149.231 1601 40.0125
149.349 1628 40.3485
149.466 1608 40.0999
149.583 1659 40.7308
149.701 1636 40.4475
149.818 1525 39.0512
149.935 1580 39.7492
150.053 1365 36.9459
150.17 1369 37
150.287 1471 38.3536
150.405 1349 36.7287
150.522 1496 38.6782
150.64 1455 38.1445
150.757 1471 38.3536
150.875 1534 39.1663
150.992 1610 40.1248
151.11 1621 40.2616
151.227 1570 39.6232
151.344 1497 38.6911
151.462 1484 38.5227
151.579 1430 37.8153
151.697 1602 40.025
151.814 1602 40.025
151.932 1602 40.025
152.049 1543 39.281
152.167 1623 40.2865
152.284 1699 41.2189
152.402 1694 41.1582
152.519 1654 40.6694
152.636 1633 40.4104
152.754 1761 41.9643
152.871 1695 41.1704
152.989 1692 41.1339
153.106 1657 40.7063
153.223 1675 40.9268
153.341 1621 40.2616
153.458 1712 41.3763
153.575 1579 39.7366
153.693 1551 39.3827
153.81 1547 39.3319
153.927 1529 39.1024
154.044 1541 39.2556
154.162 1492 38.6264
154.279 1421 37.6962
154.396 1589 39.8623
154.513 1502 38.7556
154.63 1621 40.2616
154.747 1497 38.6911
154.864 1576 39.6989
154.981 1471 38.3536
155.098 1524 39.0384
155.215 1469 38.3275
155.332 1590 39.8748
155.449 1592 39.8999
155.566 1620 40.2492
155.683 1739 41.7013
155.8 1742 41.7373
155.917 1710 41.3521
156.033 1693 41.1461
156.15 0 1
156.267 0 1
156.383 0 1
156.5 0 1
156.617 0 1
156.733 0 1
156.85 0 1
156.966 0 1
157.082 0 1
157.199 0 1
157.315 0 1
157.431 0 1
157.547 0 1
157.664 0 1
157.78 0 1
157.896 0 1
158.012 0 1
158.128 0 1
158.244 0 1
158.359 0 1
158.475 0 1
158.591 0 1
158.706 0 1
