
6.15755 0 1
6.2731 0 1
6.3887 0 1
6.50437 0 1
6.62009 0 1
6.73587 0 1
6.8517 0 1
6.96759 0 1
7.08353 0 1
7.19952 0 1
7.31557 0 1
7.43166 0 1
7.54781 0 1
7.664 0 1
7.78024 0 1
7.89653 0 1
8.01286 0 1
8.12924 0 1
8.24567 0 1
8.36213 0 1
8.47864 0 1
8.59519 0 1
8.71178 0 1
8.82841 0 1
8.94508 0 1
9.06179 0 1
9.17853 0 1
9.29531 0 1
9.41212 0 1
9.52897 0 1
9.64584 0 1
9.76276 0 1
9.8797 0 1
9.99667 0 1
10.1137 0 1
10.2307 0 1
10.3478 0 1
10.4648 0 1
10.5819 0 1
10.6991 0 1
10.8162 0 1
10.9334 0 1
11.0506 0 1
11.1678 0 1
11.285 0 1
11.4023 0 1
11.5196 0 1
11.6369 0 1
11.7542 0 1
11.8715 0 1
11.9888 0 1
12.1062 0 1
12.2235 0 1
12.3409 0 1
12.4582 0 1
12.5756 0 1
12.693 0 1
12.8104 0 1
12.9278 0 1
13.0452 0 1
13.1626 0 1
13.28 0 1
13.3974 0 1
13.5149 0 1
13.6323 0 1
13.7497 0 1
13.8671 0 1
13.9845 0 1
14.1019 0 1
14.2193 0 1
14.3367 0 1
14.4541 0 1
14.5714 0 1
14.6888 0 1
14.8062 0 1
14.9235 0 1
15.0408 0 0
15.1581 0 0
15.2755 0 0
15.3927 0 0
15.51 0 0
15.6273 0 0
15.7445 0 0
15.8617 0 0
15.9789 0 0
16.0961 0 0
16.2132 0 0
16.3304 0 0
16.4475 0 0
16.5646 0 0
16.6816 0 0
16.7986 0 0
16.9156 0 0
17.0326 0 0
17.1496 0 0
17.2665 0 0
17.3833 0 0
17.5002 0 0
17.617 0 0
17.7338 0 0
17.8505 0 0
17.9672 0 0
18.0839 0 0
18.2005 0 0
18.3171 0 0
18.4337 0 0
18.5502 0 0
18.6666 0 0
18.7831 0 0
18.8994 0 0
19.0158 0 0
19.1321 0 0
19.2483 0 0
19.3645 0 0
19.4806 0 0
19.5967 0 0
19.7128 0 0
19.8288 0 0
19.9447 0 0
20.0606 0 1
20.1764 0 1
20.2922 0 1
20.4079 0 1
20.5236 0 1
20.6392 0 1
20.7548 0 1
20.8702 0 1
23.3078 0 1
23.4233 0 1
23.539 0 1
23.6547 0 1
23.7704 0 1
23.8862 0 1
24.0021 0 1
24.118 0 1
24.234 0 1
24.35 0 1
24.4661 326609 571.497
24.5822 329338 573.88
24.6984 331833 576.049
24.8146 338466 581.778
24.9309 350227 591.8
25.0472 357963 598.3
25.1636 367007 605.811
25.28 370768 608.907
25.3965 374173 611.697
25.513 372271 610.14
25.6296 375852 613.068
25.7462 374355 611.846
25.8628 370230 608.465
25.9795 368518 607.057
26.0962 363315 602.756
26.213 363175 602.64
26.3298 353495 594.554
26.4466 350507 592.036
26.5635 343084 585.734
26.6804 333814 577.766
26.7973 320533 566.156
26.9143 310817 557.51
27.0313 299916 547.646
27.1483 298368 546.231
27.2653 297403 545.347
27.3824 295791 543.867
27.4996 290222 538.723
27.6167 282640 531.639
27.7339 268788 518.448
27.8511 256988 506.94
27.9683 251365 501.363
28.0855 245597 495.577
28.2028 248302 498.299
28.3201 244820 494.793
28.4374 254071 504.055
28.5547 259796 509.702
28.6721 267038 516.757
28.7894 271061 520.635
28.9068 272564 522.077
29.0242 270702 520.29
29.1416 269498 519.132
29.259 269283 518.925
29.3764 268219 517.899
29.4939 265192 514.968
29.6113 265223 514.998
29.7288 264161 513.966
29.8463 261939 511.8
29.9638 262873 512.711
30.0812 258813 508.737
30.1987 254715 504.693
30.3162 248612 498.61
30.4337 242316 492.256
30.5512 236168 485.971
30.6687 232519 482.202
30.7862 235722 485.512
30.9037 234620 484.376
31.0212 238921 488.795
31.1387 236598 486.413
31.2562 229584 479.149
31.3737 223345 472.594
31.4912 217973 466.876
31.6087 215883 464.632
31.7262 216445 465.236
31.8436 220708 469.796
31.9611 228801 478.331
32.0785 235562 485.347
32.1959 240939 490.855
32.3134 245313 495.291
32.4308 246333 496.319
32.5482 246952 496.943
32.6655 246975 496.966
32.7829 244703 494.675
32.9002 246062 496.046
33.0176 245068 495.043
33.1349 245945 495.928
33.2522 244292 494.259
33.3694 246509 496.497
33.4867 244061 494.025
33.6039 244871 494.844
33.7211 243314 493.269
33.8383 240772 490.685
33.9554 236862 486.685
34.0725 229630 479.197
34.1896 223086 472.32
34.3067 219506 468.515
34.4237 217998 466.903
34.5407 218221 467.141
34.6577 221964 471.131
34.7746 219306 468.301
34.8915 217313 466.168
35.0084 209404 457.607
35.1252 204934 452.696
35.242 202376 449.862
35.3587 203838 451.484
35.4755 206074 453.954
35.5921 214239 462.86
35.7088 221497 470.635
35.8254 226739 476.171
35.9419 232905 482.602
36.0584 233283 482.994
36.1749 233308 483.02
36.2913 233761 483.488
36.4077 233247 482.957
36.524 232172 481.842
36.6403 231829 481.486
36.7565 232301 481.976
36.8727 231678 481.329
36.9889 229889 479.467
37.1049 226256 475.664
37.221 0 1
37.3369 0 1
37.4529 0 1
37.5687 0 1
37.6845 0 1
37.8003 0 1
37.916 0 1
38.0316 0 1
38.1472 0 1
40.5851 0 1
40.7008 0 1
40.8164 0 1
40.9322 0 1
41.048 0 1
41.1639 0 1
41.2798 0 1
41.3958 0 1
41.5118 0 1
41.6279 0 1
41.744 183919 428.858
41.8602 188222 433.846
41.9765 188902 434.629
42.0928 189055 434.805
42.2091 189740 435.592
42.3255 189912 435.789
42.4419 190229 436.152
42.5584 190607 436.586
42.675 189332 435.123
42.7915 186296 431.62
42.9081 178973 423.052
43.0248 174166 417.332
43.1415 170548 412.975
43.2582 170496 412.912
43.375 172249 415.029
43.4918 175937 419.448
43.6087 171836 414.531
43.7256 166623 408.195
43.8425 159833 399.791
43.9595 154757 393.392
44.0765 154300 392.81
44.1935 155884 394.821
44.3106 160361 400.451
44.4277 164843 406.009
44.5448 167643 409.442
44.6619 168384 410.346
44.7791 167616 409.409
44.8963 165892 407.298
45.0136 164236 405.26
45.1308 162859 403.558
45.2481 160845 401.055
45.3654 159331 399.163
45.4827 157976 397.462
45.6001 157258 396.558
45.7174 154987 393.684
45.8348 154638 393.24
45.9522 153421 391.69
46.0697 151066 388.672
46.1871 149848 387.102
46.3046 147077 383.506
46.422 143927 379.377
46.5395 138633 372.335
46.657 133343 365.162
46.7745 129342 359.641
46.892 129345 359.646
47.0096 129725 360.174
47.1271 131646 362.831
47.2446 129294 359.575
47.3622 123487 351.407
47.4797 118671 344.487
47.5973 115883 340.416
47.7149 115666 340.097
47.8324 118242 343.863
47.95 122072 349.388
48.0675 123957 352.075
48.1851 123915 352.016
48.3027 124156 352.358
48.4202 123816 351.875
48.5378 123844 351.915
48.6554 123123 350.889
48.7729 122637 350.196
48.8904 123161 350.943
49.008 124523 352.878
49.1255 125013 353.572
49.243 126260 355.331
49.3605 126054 355.041
49.478 127959 357.714
49.5955 129059 359.248
49.713 130877 361.769
49.8304 132016 363.34
49.9479 131923 363.212
50.0653 129649 360.068
50.1827 126585 355.788
50.3001 123202 351.001
50.4175 123610 351.582
50.5348 123992 352.125
50.6521 133547 365.441
50.7694 136995 370.128
50.8867 136344 369.248
51.004 136364 369.275
51.1212 139002 372.83
51.2384 145574 381.542
51.3556 154114 392.574
51.4727 160991 401.237
51.5899 166091 407.543
51.707 169238 411.385
51.824 171813 414.503
51.9411 174180 417.349
52.0581 174668 417.933
52.175 176642 420.288
52.2919 178269 422.219
52.4088 180426 424.766
52.5257 183077 427.875
52.6425 183675 428.573
52.7593 184353 429.363
52.876 186241 431.556
52.9927 188559 434.234
53.1094 189456 435.265
53.226 191810 437.961
53.3426 192629 438.895
53.4591 195203 441.818
53.5756 194254 440.743
53.692 192313 438.535
53.8084 186251 431.568
53.9248 178658 422.68
54.0411 175495 418.921
54.1573 176281 419.858
54.2735 0 1
54.3896 0 1
54.5057 0 1
54.6217 0 1
54.7377 0 1
54.8537 0 1
54.9695 0 1
55.0853 0 1
55.2011 0 1
55.3168 0 1
55.4324 0 1
57.824 0 1
57.9396 0 1
58.0553 0 1
58.1711 0 1
58.2869 0 1
58.4028 0 1
58.5187 0 1
58.6347 0 1
58.7508 0 1
58.8669 0 1
58.983 211920 460.348
59.0992 208264 456.36
59.2155 205197 452.987
59.3318 205494 453.314
59.4482 207462 455.48
59.5646 209120 457.296
59.681 212718 461.214
59.7975 217607 466.484
59.9141 222414 471.608
60.0306 226822 476.258
60.1473 229893 479.472
60.2639 230244 479.837
60.3807 228965 478.503
60.4974 228087 477.585
60.6142 226866 476.305
60.731 226087 475.486
60.8479 226627 476.054
60.9648 224358 473.664
61.0818 224161 473.456
61.1987 222601 471.806
61.3158 221619 470.764
61.4328 221190 470.308
61.5499 220333 469.396
61.667 220815 469.91
61.7841 221207 470.326
61.9013 220839 469.935
62.0185 220142 469.193
62.1357 216777 465.593
62.253 214825 463.492
62.3702 209032 457.2
62.4875 201401 448.777
62.6049 194393 440.9
62.7222 195632 442.303
62.8396 196218 442.965
62.9569 198265 445.27
63.0743 197555 444.472
63.1918 199100 446.206
63.3092 203264 450.848
63.4267 209048 457.218
63.5441 212226 460.68
63.6616 213338 461.885
63.7791 211724 460.135
63.8966 212271 460.729
64.0142 211446 459.833
64.1317 210694 459.014
64.2492 208667 456.801
64.3668 207087 455.068
64.4843 206334 454.24
64.6019 207535 455.56
64.7195 205480 453.299
64.837 205589 453.419
64.9546 204610 452.338
65.0722 204612 452.341
65.1898 202179 449.643
65.3074 205822 453.676
65.4249 202196 449.662
65.5425 203345 450.938
65.6601 202580 450.089
65.7777 202233 449.703
65.8952 200263 447.508
66.0128 194220 440.704
66.1304 184679 429.743
66.2479 176725 420.387
66.3655 175420 418.832
66.483 179631 423.829
66.6005 184492 429.525
66.718 186722 432.113
66.8355 191381 437.471
66.953 198253 445.256
67.0705 201528 448.919
67.1879 203037 450.596
67.3054 202484 449.982
67.4228 202073 449.525
67.5402 200388 447.647
67.6576 200921 448.242
67.7749 198495 445.528
67.8923 203063 450.625
68.0096 200095 447.32
68.1269 201014 448.346
68.2442 201451 448.833
68.3614 201055 448.392
68.4787 201018 448.35
68.5958 202245 449.717
68.713 201968 449.409
68.8302 201805 449.227
68.9473 203518 451.13
69.0643 203343 450.936
69.1814 204112 451.788
69.2984 204569 452.293
69.4154 205741 453.587
69.5323 204656 452.389
69.6492 203270 450.855
69.7661 196872 443.703
69.8829 185698 430.927
69.9997 178899 422.965
70.1165 182155 426.796
70.2332 188545 434.218
70.3499 190149 436.061
70.4665 196448 443.225
70.5831 202661 450.179
70.6996 207032 455.008
70.8161 206087 453.968
70.9326 206113 453.997
71.049 205231 453.024
71.1653 202421 449.912
71.2817 200031 447.248
71.3979 196463 443.241
71.5141 194455 440.971
71.6303 190268 436.197
71.7464 176746 420.412
71.8624 0 1
71.9784 0 1
72.0944 0 1
72.2102 0 1
72.3261 0 1
72.4418 0 1
72.5575 0 1
72.6732 0 1
75.1054 0 1
75.2209 0 1
75.3365 0 1
75.4521 0 1
75.5678 0 1
75.6835 0 1
75.7993 0 1
75.9151 0 1
76.031 0 1
76.147 177083 420.812
76.263 190773 436.776
76.3791 194768 441.325
76.4952 192831 439.125
76.6113 193678 440.089
76.7276 194745 441.299
76.8438 191397 437.489
76.9601 191712 437.849
77.0765 191927 438.095
77.1929 191979 438.154
77.3093 192278 438.495
77.4258 191391 437.483
77.5423 191045 437.087
77.6589 190115 436.022
77.7755 188122 433.73
77.8921 188139 433.75
78.0088 188135 433.745
78.1256 186101 431.394
78.2423 185386 430.565
78.3591 185558 430.764
78.4759 185059 430.185
78.5928 184956 430.065
78.7097 183274 428.105
78.8266 185546 430.751
78.9436 153009 391.164
79.0606 133481 365.351
79.1776 125072 353.655
79.2946 146357 382.566
79.4117 168759 410.803
79.5288 177404 421.194
79.6459 177719 421.567
79.7631 177052 420.775
79.8802 174387 417.597
79.9974 173584 416.634
80.1147 171058 413.592
80.2319 169295 411.455
80.3491 167309 409.034
80.4664 167393 409.137
80.5837 164384 405.443
80.701 164125 405.123
80.8183 163399 404.226
80.9357 162275 402.834
81.053 163494 404.344
81.1704 160378 400.472
81.2877 159591 399.488
81.4051 158015 397.511
81.5225 157584 396.969
81.6399 152078 389.972
81.7573 153206 391.415
81.8747 150148 387.489
81.9922 149255 386.335
82.1096 148951 385.942
82.227 147413 383.944
82.3444 146438 382.672
82.4619 145489 381.43
82.5793 134415 366.627
82.6967 117538 342.838
82.8142 98575 313.967
82.9316 113302 336.604
83.049 131560 362.712
83.1664 134909 367.3
83.2838 134350 366.538
83.4012 132120 363.483
83.5186 128954 359.102
83.636 126581 355.782
83.7534 125501 354.261
83.8708 122440 349.914
83.9881 120959 347.792
84.1055 120446 347.053
84.2228 116850 341.833
84.3401 116080 340.705
84.4575 114771 338.779
84.5747 114705 338.681
84.692 113989 337.623
84.8093 112948 336.077
84.9265 111035 333.219
85.0437 109183 330.429
85.1609 107078 327.228
85.2781 104205 322.808
85.3952 103537 321.772
85.5123 101945 319.288
85.6294 100430 316.907
85.7465 99495 315.428
85.8636 98196 313.362
85.9806 97050 311.528
86.0976 94353 307.169
86.2145 86568 294.224
86.3315 66605 258.079
86.4484 67803 260.39
86.5652 81156 284.879
86.682 86868 294.734
86.7988 85689 292.727
86.9156 83552 289.054
87.0323 79486 281.933
87.149 77290 278.011
87.2657 73968 271.971
87.3823 71495 267.385
87.4988 68801 262.299
87.6154 66051 257.004
87.7318 64095 253.17
87.8483 62036 249.07
87.9647 60207 245.371
88.081 59322 243.561
88.1973 59440 243.803
88.3136 58783 242.452
88.4298 57009 238.766
88.546 54987 234.493
88.6621 54264 232.946
88.7781 53100 230.434
88.8942 0 1
89.0101 0 1
89.126 0 1
89.2419 0 1
89.3577 0 1
89.4734 0 1
89.5891 0 1
89.7047 0 1
89.8203 0 1
89.9358 0 1
92.3269 0 1
92.4424 0 1
92.558 0 1
92.6736 0 1
92.7893 0 1
92.905 0 1
93.0208 0 1
93.1366 0 1
93.2525 0 1
93.3685 0 1
93.4845 0 1
93.6005 105088 324.173
93.7167 108931 330.047
93.8328 111025 333.204
93.949 113360 336.69
94.0653 113996 337.633
94.1816 114949 339.041
94.2979 116473 341.281
94.4143 117597 342.924
94.5307 119404 345.549
94.6472 119935 346.316
94.7637 121154 348.072
94.8803 125149 353.764
94.9969 125837 354.735
95.1135 127555 357.148
95.2302 125926 354.861
95.3469 119786 346.101
95.4637 106042 325.641
95.5805 98201 313.37
95.6973 116078 340.702
95.8142 136331 369.23
95.9311 141888 376.68
96.048 144121 379.633
96.1649 145188 381.035
96.2819 144802 380.529
96.3989 145452 381.382
96.516 145745 381.766
96.633 146261 382.441
96.7501 146261 382.441
96.8673 145846 381.898
96.9844 145692 381.696
97.1016 146995 383.399
97.2188 146788 383.129
97.336 148616 385.507
97.4532 148594 385.479
97.5704 148738 385.666
97.6877 147992 384.697
97.805 146557 382.828
97.9223 145366 381.269
98.0396 144620 380.289
98.1569 144703 380.398
98.2743 143823 379.24
98.3916 143547 378.876
98.509 143264 378.502
98.6264 142496 377.486
98.7438 141621 376.326
98.8612 139831 373.94
98.9786 132496 364
99.096 117339 342.548
99.2134 106530 326.389
99.3308 119166 345.204
99.4482 138196 371.747
99.5656 146587 382.867
99.6831 146914 383.294
99.8005 146974 383.372
99.9179 145607 381.585
100.035 145658 381.652
100.153 145231 381.092
100.27 145441 381.367
100.388 145496 381.439
100.505 145966 382.055
100.622 145819 381.863
100.74 146489 382.739
100.857 147300 383.797
100.975 148500 385.357
101.092 149242 386.319
101.209 149350 386.458
101.327 149611 386.796
101.444 148605 385.493
101.561 148990 385.992
101.679 149317 386.416
101.796 148888 385.86
101.913 149745 386.969
102.03 149509 386.664
102.148 148379 385.2
102.265 154512 393.08
102.382 138745 372.485
102.499 136024 368.814
102.616 120000 346.41
102.733 114818 338.848
102.851 121480 348.54
102.968 134551 366.812
103.085 141623 376.328
103.202 142989 378.139
103.319 140744 375.159
103.436 138388 372.005
103.552 137278 370.51
103.669 135805 368.517
103.786 133780 365.759
103.903 132504 364.011
104.02 130783 361.639
104.137 129215 359.465
104.253 130819 361.689
104.37 124255 352.498
104.487 127594 357.203
104.603 126306 355.396
104.72 124290 352.548
104.836 122691 350.273
104.953 120700 347.419
105.069 119546 345.754
105.186 119099 345.107
105.302 117415 342.659
105.418 116551 341.396
105.535 115292 339.547
105.651 113637 337.101
105.767 112463 335.355
105.883 111538 333.973
105.999 105520 324.838
106.115 0 1
106.231 0 1
106.347 0 1
106.463 0 1
106.579 0 1
106.694 0 1
106.81 0 1
106.926 0 1
107.041 0 1
107.157 0 1
109.576 0 1
109.692 0 1
109.807 0 1
109.923 0 1
110.039 0 1
110.155 0 1
110.27 0 1
110.386 0 1
110.502 0 1
110.618 68832 262.359
110.735 69152 262.968
110.851 68916 262.519
110.967 68885 262.46
111.083 69755 264.112
111.199 68400 261.534
111.316 65071 255.09
111.432 63422 251.837
111.549 63185 251.366
111.665 65203 255.349
111.782 65503 255.936
111.898 65201 255.345
112.015 63797 252.581
112.132 63059 251.116
112.248 62614 250.228
112.365 61906 248.809
112.482 61067 247.117
112.599 59179 243.267
112.716 59924 244.794
112.832 59657 244.248
112.949 58863 242.617
113.066 59387 243.694
113.183 59589 244.109
113.3 58518 241.905
113.417 58018 240.869
113.534 58191 241.228
113.652 58919 242.732
113.769 59181 243.271
113.886 59083 243.07
114.003 59535 243.998
114.12 58155 241.153
114.238 54478 233.405
114.355 47935 218.941
114.472 45966 214.397
114.589 51707 227.392
114.707 59567 244.064
114.824 62364 249.728
114.942 64042 253.065
115.059 63339 251.672
115.176 62454 249.908
115.294 63321 251.637
115.411 64634 254.232
115.529 64806 254.57
115.646 65224 255.39
115.764 65983 256.872
115.881 65621 256.166
115.999 66077 257.054
116.116 66130 257.158
116.234 66570 258.012
116.351 66288 257.465
116.469 67325 259.471
116.586 68086 260.933
116.704 68661 262.032
116.821 69985 264.547
116.939 70367 265.268
117.056 70957 266.378
117.174 71457 267.314
117.291 73022 270.226
117.409 73830 271.717
117.526 74239 272.468
117.644 74634 273.192
117.761 71955 268.244
117.879 64776 254.511
117.996 53737 231.812
118.114 50642 225.038
118.231 60556 246.081
118.349 72060 268.44
118.466 80573 283.854
118.584 83479 288.927
118.701 84005 289.836
118.819 82003 286.362
118.936 81724 285.874
119.053 84092 289.986
119.171 85049 291.632
119.288 85151 291.806
119.405 85591 292.559
119.523 85387 292.211
119.64 87021 294.993
119.757 85973 293.212
119.875 86836 294.679
119.992 86181 293.566
120.109 86708 294.462
120.226 86981 294.925
120.343 87424 295.675
120.46 88725 297.867
120.578 89118 298.526
120.695 89591 299.318
120.812 91175 301.952
120.929 91554 302.579
121.046 93389 305.596
121.163 93489 305.76
121.279 93276 305.411
121.396 89633 299.388
121.513 81894 286.171
121.63 72184 268.671
121.747 62860 250.719
121.863 61257 247.502
121.98 72095 268.505
122.097 86625 294.321
122.213 96961 311.386
122.33 100779 317.457
122.446 101662 318.845
122.563 100934 317.701
122.679 99536 315.493
122.795 100610 317.191
122.912 102790 320.609
123.028 102974 320.896
123.144 103079 321.059
123.26 103215 321.271
123.377 0 1
123.493 0 1
123.609 0 1
123.725 0 1
123.84 0 1
123.956 0 1
124.072 0 1
124.188 0 1
124.303 0 1
124.419 0 1
126.852 0 1
126.968 0 1
127.083 0 1
127.199 0 1
127.315 0 1
127.431 0 1
127.547 0 1
127.663 0 1
127.779 0 1
127.895 0 1
128.011 0 1
128.127 0 1
128.243 0 1
128.359 132246 363.656
128.476 132890 364.541
128.592 132577 364.111
128.708 133811 365.802
128.825 134278 366.44
128.941 135564 368.19
129.058 133881 365.898
129.174 136200 369.053
129.291 136074 368.882
129.408 136733 369.774
129.524 136463 369.409
129.641 137573 370.908
129.758 138005 371.49
129.875 139745 373.825
129.992 139650 373.698
130.108 137327 370.577
130.225 132879 364.526
130.342 124891 353.399
130.459 110429 332.309
130.576 105086 324.17
130.693 97587 312.389
130.81 97359 312.024
130.928 104114 322.667
131.045 117712 343.092
131.162 136136 368.966
131.279 145364 381.266
131.396 147673 384.282
131.513 147181 383.642
131.631 148507 385.366
131.748 149180 386.238
131.865 148387 385.21
131.983 148594 385.479
132.1 149527 386.687
132.217 149246 386.324
132.335 149803 387.044
132.452 148715 385.636
132.57 149019 386.03
132.687 144578 380.234
132.804 154180 392.658
132.922 149913 387.186
133.039 150447 387.875
133.157 150782 388.307
133.274 151723 389.516
133.392 152797 390.893
133.509 151219 388.869
133.627 150696 388.196
133.744 146564 382.837
133.862 138142 371.675
133.979 128442 358.388
134.097 118885 344.797
134.214 115590 339.985
134.332 111075 333.279
134.449 116913 341.925
134.567 124246 352.485
134.684 136523 369.49
134.802 149350 386.458
134.919 158073 397.584
135.037 160645 400.805
135.154 161020 401.273
135.272 161740 402.169
135.389 160995 401.242
135.507 162471 403.077
135.624 162466 403.071
135.742 162038 402.539
135.859 163067 403.816
135.977 162311 402.878
136.094 163654 404.542
136.211 161947 402.426
136.329 162969 403.694
136.446 163495 404.345
136.564 163526 404.383
136.681 166138 407.6
136.798 163600 404.475
136.915 166113 407.57
137.033 165867 407.268
137.15 165149 406.385
137.267 161370 401.709
137.384 155467 394.293
137.502 147056 383.479
137.619 136234 369.099
137.736 129249 359.512
137.853 123263 351.088
137.97 123349 351.211
138.087 133022 364.722
138.204 137498 370.807
138.321 146440 382.675
138.438 158689 398.358
138.555 167440 409.194
138.672 173100 416.053
138.788 174020 417.157
138.905 175064 418.407
139.022 175341 418.737
139.139 175429 418.842
139.255 175720 419.19
139.372 176302 419.883
139.488 175973 419.491
139.605 174881 418.188
139.721 175085 418.432
139.838 174620 417.876
139.954 175400 418.808
140.071 172269 415.053
140.187 174759 418.042
140.303 173095 416.047
140.419 173842 416.944
140.535 172168 414.931
140.652 171597 414.243
140.768 0 1
140.884 0 1
141 0 1
141.115 0 1
141.231 0 1
141.347 0 1
141.463 0 1
141.578 0 1
141.694 0 1
144.104 0 1
144.219 0 1
144.335 0 1
144.45 0 1
144.566 0 1
144.682 0 1
144.798 0 1
144.914 0 1
145.03 0 1
145.146 163704 404.604
145.262 165554 406.883
145.378 165915 407.327
145.494 165724 407.092
145.61 165926 407.34
145.726 164121 405.119
145.842 160716 400.894
145.959 154286 392.793
146.075 147739 384.368
146.192 140202 374.436
146.308 133917 365.947
146.425 129757 360.218
146.541 130397 361.105
146.658 132086 363.436
146.774 137562 370.894
146.891 143301 378.551
147.008 150948 388.52
147.125 156770 395.942
147.241 160649 400.81
147.358 165335 406.614
147.475 167503 409.271
147.592 167639 409.437
147.709 167720 409.536
147.826 166610 408.179
147.943 168067 409.96
148.06 164156 405.162
148.177 165810 407.198
148.294 164966 406.16
148.411 164023 404.998
148.528 164671 405.797
148.645 162944 403.663
148.762 163906 404.853
148.88 162768 403.445
148.997 156372 395.439
149.114 168227 410.155
149.231 162773 403.451
149.349 160881 401.1
149.466 156533 395.643
149.583 150243 387.612
149.701 143960 379.421
149.818 137407 370.685
149.935 132559 364.087
150.053 130883 361.778
150.17 130788 361.646
150.287 134417 366.629
150.405 137865 371.302
150.522 144505 380.138
150.64 151534 389.274
150.757 155543 394.389
150.875 157341 396.662
150.992 159847 399.809
151.11 160994 401.241
151.227 166940 408.583
151.344 164637 405.755
151.462 164722 405.86
151.579 166593 408.158
151.697 165612 406.955
151.814 166634 408.208
151.932 165020 406.227
152.049 165987 407.415
152.167 166008 407.441
152.284 167138 408.825
152.402 166057 407.501
152.519 166203 407.68
152.636 166436 407.966
152.754 166858 408.483
152.871 165217 406.469
152.989 161768 402.204
153.106 158253 397.81
153.223 151759 389.563
153.341 145108 380.93
153.458 139384 373.342
153.575 135546 368.166
153.693 134863 367.237
153.81 137205 370.412
153.927 139565 373.584
154.044 145437 381.362
154.162 152425 390.416
154.279 159108 398.883
154.396 164698 405.83
154.513 167599 409.389
154.63 168064 409.956
154.747 169548 411.762
154.864 172100 414.849
154.981 173376 416.384
155.098 173590 416.641
155.215 172534 415.372
155.332 172045 414.783
155.449 171505 414.132
155.566 172683 415.551
155.683 171953 414.672
155.8 172865 415.77
155.917 172589 415.438
156.033 172674 415.541
156.15 0 1
156.267 0 1
156.383 0 1
156.5 0 1
156.617 0 1
156.733 0 1
156.85 0 1
156.966 0 1
157.082 0 1
157.199 0 1
157.315 0 1
157.431 0 1
157.547 0 1
157.664 0 1
157.78 0 1
157.896 0 1
158.012 0 1
158.128 0 1
158.244 0 1
158.359 0 1
158.475 0 1
158.591 0 1
158.706 0 1
