
6.15755 0 1
6.2731 0 1
6.3887 0 1
6.50437 0 1
6.62009 0 1
6.73587 0 1
6.8517 0 1
6.96759 0 1
7.08353 0 1
7.19952 0 1
7.31557 0 1
7.43166 0 1
7.54781 0 1
7.664 0 1
7.78024 0 1
7.89653 0 1
8.01286 0 1
8.12924 0 1
8.24567 0 1
8.36213 0 1
8.47864 0 1
8.59519 0 1
8.71178 0 1
8.82841 0 1
8.94508 0 1
9.06179 0 1
9.17853 0 1
9.29531 0 1
9.41212 0 1
9.52897 0 1
9.64584 0 1
9.76276 0 1
9.8797 0 1
9.99667 0 1
10.1137 0 1
10.2307 0 1
10.3478 0 1
10.4648 0 1
10.5819 0 1
10.6991 0 1
10.8162 0 1
10.9334 0 1
11.0506 0 1
11.1678 0 1
11.285 0 1
11.4023 0 1
11.5196 0 1
11.6369 0 1
11.7542 0 1
11.8715 0 1
11.9888 0 1
12.1062 0 1
12.2235 0 1
12.3409 0 1
12.4582 0 1
12.5756 0 1
12.693 0 1
12.8104 0 1
12.9278 0 1
13.0452 0 1
13.1626 0 1
13.28 0 1
13.3974 0 1
13.5149 0 1
13.6323 0 1
13.7497 0 1
13.8671 0 1
13.9845 0 1
14.1019 0 1
14.2193 0 1
14.3367 0 1
14.4541 0 1
14.5714 0 1
14.6888 0 1
14.8062 0 1
14.9235 0 1
15.0408 562 23.7065
15.1581 558 23.622
15.2755 550 23.4521
15.3927 582 24.1247
15.51 524 22.891
15.6273 525 22.9129
15.7445 555 23.5584
15.8617 553 23.516
15.9789 604 24.5764
16.0961 573 23.9374
16.2132 619 24.8797
16.3304 608 24.6577
16.4475 581 24.1039
16.5646 587 24.2281
16.6816 629 25.0799
16.7986 599 24.4745
16.9156 652 25.5343
17.0326 667 25.8263
17.1496 658 25.6515
17.2665 676 26
17.3833 673 25.9422
17.5002 712 26.6833
17.617 683 26.1343
17.7338 663 25.7488
17.8505 678 26.0384
17.9672 676 26
18.0839 645 25.3969
18.2005 648 25.4558
18.3171 693 26.3249
18.4337 691 26.2869
18.5502 692 26.3059
18.6666 705 26.5518
18.7831 727 26.9629
18.8994 717 26.7769
19.0158 742 27.2397
19.1321 733 27.074
19.2483 689 26.2488
19.3645 676 26
19.4806 644 25.3772
19.5967 616 24.8193
19.7128 662 25.7294
19.8288 644 25.3772
19.9447 539 23.2164
20.0606 0 1
20.1764 0 1
20.2922 0 1
20.4079 0 1
20.5236 0 1
20.6392 0 1
20.7548 0 1
20.8702 0 1
23.3078 0 1
23.4233 0 1
23.539 0 1
23.6547 0 1
23.7704 0 1
23.8862 0 1
24.0021 0 1
24.118 0 1
24.234 0 1
24.35 0 1
24.4661 653 25.5539
24.5822 710 26.6458
24.6984 623 24.96
24.8146 647 25.4362
24.9309 652 25.5343
25.0472 645 25.3969
25.1636 603 24.5561
25.28 704 26.533
25.3965 631 25.1197
25.513 671 25.9037
25.6296 715 26.7395
25.7462 664 25.7682
25.8628 748 27.3496
25.9795 702 26.4953
26.0962 790 28.1069
26.213 756 27.4955
26.3298 723 26.8887
26.4466 814 28.5307
26.5635 831 28.8271
26.6804 734 27.0924
26.7973 712 26.6833
26.9143 724 26.9072
27.0313 695 26.3629
27.1483 680 26.0768
27.2653 747 27.3313
27.3824 811 28.4781
27.4996 793 28.1603
27.6167 744 27.2764
27.7339 743 27.258
27.8511 695 26.3629
27.9683 726 26.9444
28.0855 673 25.9422
28.2028 721 26.8514
28.3201 708 26.6083
28.4374 603 24.5561
28.5547 715 26.7395
28.6721 624 24.98
28.7894 578 24.0416
28.9068 672 25.923
29.0242 659 25.671
29.1416 730 27.0185
29.259 708 26.6083
29.3764 691 26.2869
29.4939 728 26.9815
29.6113 781 27.9464
29.7288 755 27.4773
29.8463 706 26.5707
29.9638 756 27.4955
30.0812 716 26.7582
30.1987 698 26.4197
30.3162 688 26.2298
30.4337 644 25.3772
30.5512 624 24.98
30.6687 620 24.8998
30.7862 722 26.8701
30.9037 744 27.2764
31.0212 735 27.1109
31.1387 725 26.9258
31.2562 776 27.8568
31.3737 713 26.7021
31.4912 684 26.1534
31.6087 693 26.3249
31.7262 716 26.7582
31.8436 642 25.3377
31.9611 643 25.3574
32.0785 656 25.6125
32.1959 596 24.4131
32.3134 605 24.5967
32.4308 646 25.4165
32.5482 623 24.96
32.6655 706 26.5707
32.7829 721 26.8514
32.9002 672 25.923
33.0176 721 26.8514
33.1349 749 27.3679
33.2522 749 27.3679
33.3694 745 27.2947
33.4867 793 28.1603
33.6039 719 26.8142
33.7211 741 27.2213
33.8383 712 26.6833
33.9554 694 26.3439
34.0725 662 25.7294
34.1896 665 25.7876
34.3067 650 25.4951
34.4237 704 26.533
34.5407 710 26.6458
34.6577 697 26.4008
34.7746 687 26.2107
34.8915 706 26.5707
35.0084 776 27.8568
35.1252 700 26.4575
35.242 704 26.533
35.3587 674 25.9615
35.4755 680 26.0768
35.5921 625 25
35.7088 623 24.96
35.8254 626 25.02
35.9419 600 24.4949
36.0584 640 25.2982
36.1749 649 25.4755
36.2913 639 25.2784
36.4077 647 25.4362
36.524 658 25.6515
36.6403 667 25.8263
36.7565 705 26.5518
36.8727 758 27.5318
36.9889 735 27.1109
37.1049 733 27.074
37.221 0 1
37.3369 0 1
37.4529 0 1
37.5687 0 1
37.6845 0 1
37.8003 0 1
37.916 0 1
38.0316 0 1
38.1472 0 1
40.5851 0 1
40.7008 0 1
40.8164 0 1
40.9322 0 1
41.048 0 1
41.1639 0 1
41.2798 0 1
41.3958 0 1
41.5118 0 1
41.6279 0 1
41.744 524 22.891
41.8602 578 24.0416
41.9765 634 25.1794
42.0928 610 24.6982
42.2091 645 25.3969
42.3255 595 24.3926
42.4419 608 24.6577
42.5584 561 23.6854
42.675 598 24.454
42.7915 543 23.3024
42.9081 516 22.7156
43.0248 494 22.2261
43.1415 510 22.5832
43.2582 538 23.1948
43.375 578 24.0416
43.4918 575 23.9792
43.6087 615 24.7992
43.7256 549 23.4307
43.8425 570 23.8747
43.9595 544 23.3238
44.0765 533 23.0868
44.1935 608 24.6577
44.3106 510 22.5832
44.4277 511 22.6053
44.5448 496 22.2711
44.6619 450 21.2132
44.7791 456 21.3542
44.8963 448 21.166
45.0136 462 21.4942
45.1308 450 21.2132
45.2481 448 21.166
45.3654 492 22.1811
45.4827 483 21.9773
45.6001 486 22.0454
45.7174 503 22.4277
45.8348 501 22.383
45.9522 521 22.8254
46.0697 509 22.561
46.1871 450 21.2132
46.3046 439 20.9523
46.422 450 21.2132
46.5395 428 20.6882
46.657 415 20.3715
46.7745 449 21.1896
46.892 425 20.6155
47.0096 469 21.6564
47.1271 492 22.1811
47.2446 462 21.4942
47.3622 418 20.445
47.4797 406 20.1494
47.5973 419 20.4695
47.7149 389 19.7231
47.8324 384 19.5959
47.95 400 20
48.0675 403 20.0749
48.1851 353 18.7883
48.3027 327 18.0831
48.4202 329 18.1384
48.5378 340 18.4391
48.6554 328 18.1108
48.7729 375 19.3649
48.8904 363 19.0526
49.008 414 20.347
49.1255 404 20.0998
49.243 425 20.6155
49.3605 397 19.9249
49.478 401 20.025
49.5955 376 19.3907
49.713 381 19.5192
49.8304 378 19.4422
49.9479 351 18.735
50.0653 328 18.1108
50.1827 390 19.7484
50.3001 417 20.4206
50.4175 404 20.0998
50.5348 419 20.4695
50.6521 419 20.4695
50.7694 410 20.2485
50.8867 449 21.1896
51.004 473 21.7486
51.1212 474 21.7715
51.2384 391 19.7737
51.3556 434 20.8327
51.4727 483 21.9773
51.5899 417 20.4206
51.707 438 20.9284
51.824 452 21.2603
51.9411 427 20.664
52.0581 501 22.383
52.175 487 22.0681
52.2919 513 22.6495
52.4088 550 23.4521
52.5257 542 23.2809
52.6425 566 23.7908
52.7593 568 23.8328
52.876 631 25.1197
52.9927 615 24.7992
53.1094 634 25.1794
53.226 628 25.0599
53.3426 595 24.3926
53.4591 544 23.3238
53.5756 508 22.5389
53.692 549 23.4307
53.8084 617 24.8395
53.9248 642 25.3377
54.0411 657 25.632
54.1573 648 25.4558
54.2735 0 1
54.3896 0 1
54.5057 0 1
54.6217 0 1
54.7377 0 1
54.8537 0 1
54.9695 0 1
55.0853 0 1
55.2011 0 1
55.3168 0 1
55.4324 0 1
57.824 0 1
57.9396 0 1
58.0553 0 1
58.1711 0 1
58.2869 0 1
58.4028 0 1
58.5187 0 1
58.6347 0 1
58.7508 0 1
58.8669 0 1
58.983 699 26.4386
59.0992 772 27.7849
59.2155 786 28.0357
59.3318 813 28.5132
59.4482 812 28.4956
59.5646 821 28.6531
59.681 826 28.7402
59.7975 847 29.1033
59.9141 827 28.7576
60.0306 786 28.0357
60.1473 794 28.178
60.2639 800 28.2843
60.3807 767 27.6948
60.4974 745 27.2947
60.6142 720 26.8328
60.731 715 26.7395
60.8479 721 26.8514
60.9648 790 28.1069
61.0818 840 28.9828
61.1987 831 28.8271
61.3158 772 27.7849
61.4328 827 28.7576
61.5499 880 29.6648
61.667 789 28.0891
61.7841 769 27.7308
61.9013 768 27.7128
62.0185 757 27.5136
62.1357 707 26.5895
62.253 717 26.7769
62.3702 716 26.7582
62.4875 737 27.1477
62.6049 839 28.9655
62.7222 840 28.9828
62.8396 834 28.8791
62.9569 811 28.4781
63.0743 855 29.2404
63.1918 774 27.8209
63.3092 802 28.3196
63.4267 769 27.7308
63.5441 744 27.2764
63.6616 700 26.4575
63.7791 699 26.4386
63.8966 640 25.2982
64.0142 665 25.7876
64.1317 617 24.8395
64.2492 628 25.0599
64.3668 622 24.9399
64.4843 652 25.5343
64.6019 662 25.7294
64.7195 695 26.3629
64.837 699 26.4386
64.9546 676 26
65.0722 651 25.5147
65.1898 722 26.8701
65.3074 687 26.2107
65.4249 635 25.1992
65.5425 644 25.3772
65.6601 633 25.1595
65.7777 551 23.4734
65.8952 607 24.6374
66.0128 612 24.7386
66.1304 682 26.1151
66.2479 645 25.3969
66.3655 696 26.3818
66.483 667 25.8263
66.6005 674 25.9615
66.718 699 26.4386
66.8355 659 25.671
66.953 689 26.2488
67.0705 623 24.96
67.1879 655 25.593
67.3054 626 25.02
67.4228 643 25.3574
67.5402 618 24.8596
67.6576 578 24.0416
67.7749 563 23.7276
67.8923 620 24.8998
68.0096 639 25.2784
68.1269 656 25.6125
68.2442 717 26.7769
68.3614 729 27
68.4787 767 27.6948
68.5958 800 28.2843
68.713 823 28.688
68.8302 858 29.2916
68.9473 842 29.0172
69.0643 848 29.1204
69.1814 899 29.9833
69.2984 896 29.9333
69.4154 868 29.4618
69.5323 963 31.0322
69.6492 1022 31.9687
69.7661 1116 33.4066
69.8829 1117 33.4215
69.9997 1168 34.176
70.1165 1310 36.1939
70.2332 1269 35.623
70.3499 1384 37.2022
70.4665 1331 36.4829
70.5831 1351 36.756
70.6996 1376 37.0945
70.8161 1385 37.2156
70.9326 1351 36.756
71.049 1316 36.2767
71.1653 1266 35.5809
71.2817 1229 35.0571
71.3979 1206 34.7275
71.5141 1238 35.1852
71.6303 1236 35.1568
71.7464 1027 32.0468
71.8624 0 1
71.9784 0 1
72.0944 0 1
72.2102 0 1
72.3261 0 1
72.4418 0 1
72.5575 0 1
72.6732 0 1
75.1054 0 1
75.2209 0 1
75.3365 0 1
75.4521 0 1
75.5678 0 1
75.6835 0 1
75.7993 0 1
75.9151 0 1
76.031 0 1
76.147 1123 33.5112
76.263 1127 33.5708
76.3791 1152 33.9411
76.4952 1078 32.8329
76.6113 1010 31.7805
76.7276 864 29.3939
76.8438 883 29.7153
76.9601 905 30.0832
77.0765 962 31.0161
77.1929 1000 31.6228
77.3093 1010 31.7805
77.4258 983 31.3528
77.5423 1032 32.1248
77.6589 933 30.545
77.7755 973 31.1929
77.8921 871 29.5127
78.0088 851 29.1719
78.1256 842 29.0172
78.2423 725 26.9258
78.3591 672 25.923
78.4759 689 26.2488
78.5928 676 26
78.7097 755 27.4773
78.8266 740 27.2029
78.9436 844 29.0517
79.0606 872 29.5296
79.1776 815 28.5482
79.2946 869 29.4788
79.4117 782 27.9643
79.5288 837 28.931
79.6459 826 28.7402
79.7631 743 27.258
79.8802 782 27.9643
79.9974 746 27.313
80.1147 716 26.7582
80.2319 652 25.5343
80.3491 604 24.5764
80.4664 548 23.4094
80.5837 647 25.4362
80.701 649 25.4755
80.8183 707 26.5895
80.9357 741 27.2213
81.053 768 27.7128
81.1704 726 26.9444
81.2877 746 27.313
81.4051 772 27.7849
81.5225 741 27.2213
81.6399 719 26.8142
81.7573 720 26.8328
81.8747 648 25.4558
81.9922 611 24.7184
82.1096 615 24.7992
82.227 626 25.02
82.3444 687 26.2107
82.4619 742 27.2397
82.5793 835 28.8964
82.6967 833 28.8617
82.8142 841 29
82.9316 820 28.6356
83.049 911 30.1828
83.1664 880 29.6648
83.2838 811 28.4781
83.4012 837 28.931
83.5186 790 28.1069
83.636 747 27.3313
83.7534 809 28.4429
83.8708 681 26.096
83.9881 652 25.5343
84.1055 673 25.9422
84.2228 689 26.2488
84.3401 781 27.9464
84.4575 828 28.775
84.5747 888 29.7993
84.692 962 31.0161
84.8093 972 31.1769
84.9265 914 30.2324
85.0437 966 31.0805
85.1609 967 31.0966
85.2781 899 29.9833
85.3952 887 29.7825
85.5123 840 28.9828
85.6294 800 28.2843
85.7465 870 29.4958
85.8636 890 29.8329
85.9806 986 31.4006
86.0976 1065 32.6343
86.2145 1074 32.7719
86.3315 1162 34.0881
86.4484 1114 33.3766
86.5652 1200 34.641
86.682 1221 34.9428
86.7988 1186 34.4384
86.9156 1148 33.8821
87.0323 1145 33.8378
87.149 1136 33.7046
87.2657 1084 32.9242
87.3823 1038 32.218
87.4988 997 31.5753
87.6154 938 30.6268
87.7318 956 30.9192
87.8483 1043 32.2955
87.9647 1114 33.3766
88.081 1199 34.6266
88.1973 1169 34.1906
88.3136 1135 33.6898
88.4298 1137 33.7194
88.546 1153 33.9559
88.6621 1098 33.1361
88.7781 1008 31.749
88.8942 0 1
89.0101 0 1
89.126 0 1
89.2419 0 1
89.3577 0 1
89.4734 0 1
89.5891 0 1
89.7047 0 1
89.8203 0 1
89.9358 0 1
92.3269 0 1
92.4424 0 1
92.558 0 1
92.6736 0 1
92.7893 0 1
92.905 0 1
93.0208 0 1
93.1366 0 1
93.2525 0 1
93.3685 0 1
93.4845 0 1
93.6005 833 28.8617
93.7167 839 28.9655
93.8328 873 29.5466
93.949 890 29.8329
94.0653 852 29.189
94.1816 818 28.6007
94.2979 813 28.5132
94.4143 760 27.5681
94.5307 698 26.4197
94.6472 690 26.2679
94.7637 721 26.8514
94.8803 727 26.9629
94.9969 793 28.1603
95.1135 831 28.8271
95.2302 821 28.6531
95.3469 871 29.5127
95.4637 887 29.7825
95.5805 914 30.2324
95.6973 942 30.692
95.8142 936 30.5941
95.9311 898 29.9666
96.048 922 30.3645
96.1649 858 29.2916
96.2819 886 29.7658
96.3989 865 29.4109
96.516 826 28.7402
96.633 785 28.0179
96.7501 749 27.3679
96.8673 777 27.8747
96.9844 776 27.8568
97.1016 815 28.5482
97.2188 911 30.1828
97.336 937 30.6105
97.4532 961 31
97.5704 921 30.348
97.6877 970 31.1448
97.805 883 29.7153
97.9223 866 29.4279
98.0396 788 28.0713
98.1569 739 27.1846
98.2743 699 26.4386
98.3916 717 26.7769
98.509 833 28.8617
98.6264 795 28.1957
98.7438 864 29.3939
98.8612 908 30.133
98.9786 940 30.6594
99.096 1000 31.6228
99.2134 1036 32.187
99.3308 969 31.1288
99.4482 1011 31.7962
99.5656 966 31.0805
99.6831 948 30.7896
99.8005 907 30.1164
99.9179 931 30.5123
100.035 856 29.2575
100.153 858 29.2916
100.27 700 26.4575
100.388 749 27.3679
100.505 781 27.9464
100.622 842 29.0172
100.74 973 31.1929
100.857 893 29.8831
100.975 968 31.1127
101.092 936 30.5941
101.209 935 30.5778
101.327 943 30.7083
101.444 824 28.7054
101.561 865 29.4109
101.679 823 28.688
101.796 744 27.2764
101.913 740 27.2029
102.03 797 28.2312
102.148 804 28.3549
102.265 863 29.3769
102.382 928 30.4631
102.499 895 29.9166
102.616 961 31
102.733 968 31.1127
102.851 943 30.7083
102.968 994 31.5278
103.085 969 31.1288
103.202 932 30.5287
103.319 936 30.5941
103.436 886 29.7658
103.552 845 29.0689
103.669 798 28.2489
103.786 781 27.9464
103.903 760 27.5681
104.02 761 27.5862
104.137 861 29.3428
104.253 845 29.0689
104.37 885 29.7489
104.487 900 30
104.603 892 29.8664
104.72 902 30.0333
104.836 945 30.7409
104.953 878 29.6311
105.069 800 28.2843
105.186 741 27.2213
105.302 753 27.4408
105.418 722 26.8701
105.535 764 27.6405
105.651 827 28.7576
105.767 833 28.8617
105.883 963 31.0322
105.999 937 30.6105
106.115 0 1
106.231 0 1
106.347 0 1
106.463 0 1
106.579 0 1
106.694 0 1
106.81 0 1
106.926 0 1
107.041 0 1
107.157 0 1
109.576 0 1
109.692 0 1
109.807 0 1
109.923 0 1
110.039 0 1
110.155 0 1
110.27 0 1
110.386 0 1
110.502 0 1
110.618 737 27.1477
110.735 867 29.4449
110.851 894 29.8998
110.967 879 29.6479
111.083 934 30.5614
111.199 928 30.4631
111.316 962 31.0161
111.432 1048 32.3728
111.549 935 30.5778
111.665 905 30.0832
111.782 954 30.8869
111.898 950 30.8221
112.015 897 29.95
112.132 794 28.178
112.248 765 27.6586
112.365 765 27.6586
112.482 763 27.6225
112.599 841 29
112.716 864 29.3939
112.832 861 29.3428
112.949 903 30.05
113.066 915 30.249
113.183 895 29.9166
113.3 879 29.6479
113.417 818 28.6007
113.534 767 27.6948
113.652 771 27.7669
113.769 766 27.6767
113.886 696 26.3818
114.003 691 26.2869
114.12 768 27.7128
114.238 801 28.3019
114.355 830 28.8097
114.472 866 29.4279
114.589 862 29.3598
114.707 937 30.6105
114.824 930 30.4959
114.942 958 30.9516
115.059 975 31.225
115.176 987 31.4166
115.294 945 30.7409
115.411 846 29.0861
115.529 966 31.0805
115.646 858 29.2916
115.764 807 28.4077
115.881 780 27.9285
115.999 780 27.9285
116.116 830 28.8097
116.234 866 29.4279
116.351 855 29.2404
116.469 969 31.1288
116.586 895 29.9166
116.704 879 29.6479
116.821 890 29.8329
116.939 917 30.282
117.056 860 29.3258
117.174 817 28.5832
117.291 802 28.3196
117.409 758 27.5318
117.526 748 27.3496
117.644 783 27.9821
117.761 844 29.0517
117.879 939 30.6431
117.996 895 29.9166
118.114 941 30.6757
118.231 931 30.5123
118.349 946 30.7571
118.466 987 31.4166
118.584 984 31.3688
118.701 984 31.3688
118.819 946 30.7571
118.936 933 30.545
119.053 926 30.4302
119.171 869 29.4788
119.288 853 29.2062
119.405 774 27.8209
119.523 779 27.9106
119.64 784 28
119.757 801 28.3019
119.875 882 29.6985
119.992 912 30.1993
120.109 957 30.9354
120.226 911 30.1828
120.343 886 29.7658
120.46 923 30.3809
120.578 916 30.2655
120.695 879 29.6479
120.812 842 29.0172
120.929 797 28.2312
121.046 844 29.0517
121.163 777 27.8747
121.279 762 27.6043
121.396 812 28.4956
121.513 872 29.5296
121.63 868 29.4618
121.747 877 29.6142
121.863 936 30.5941
121.98 926 30.4302
122.097 988 31.4325
122.213 915 30.249
122.33 1013 31.8277
122.446 1056 32.4962
122.563 977 31.257
122.679 1016 31.8748
122.795 945 30.7409
122.912 870 29.4958
123.028 896 29.9333
123.144 806 28.3901
123.26 811 28.4781
123.377 0 1
123.493 0 1
123.609 0 1
123.725 0 1
123.84 0 1
123.956 0 1
124.072 0 1
124.188 0 1
124.303 0 1
124.419 0 1
126.852 0 1
126.968 0 1
127.083 0 1
127.199 0 1
127.315 0 1
127.431 0 1
127.547 0 1
127.663 0 1
127.779 0 1
127.895 0 1
128.011 0 1
128.127 0 1
128.243 0 1
128.359 1023 31.9844
128.476 1017 31.8904
128.592 1071 32.7261
128.708 1146 33.8526
128.825 1190 34.4964
128.941 1251 35.3695
129.058 1285 35.8469
129.174 1291 35.9305
129.291 1209 34.7707
129.408 1257 35.4542
129.524 1256 35.4401
129.641 1177 34.3074
129.758 1093 33.0606
129.875 1066 32.6497
129.992 990 31.4643
130.108 1027 32.0468
130.225 1016 31.8748
130.342 1130 33.6155
130.459 1106 33.2566
130.576 1163 34.1028
130.693 1209 34.7707
130.81 1266 35.5809
130.928 1250 35.3553
131.045 1245 35.2846
131.162 1270 35.6371
131.279 1274 35.6931
131.396 1258 35.4683
131.513 1194 34.5543
131.631 1181 34.3657
131.748 1214 34.8425
131.865 1095 33.0908
131.983 1081 32.8786
132.1 1090 33.0151
132.217 1128 33.5857
132.335 1168 34.176
132.452 1168 34.176
132.57 1236 35.1568
132.687 1248 35.327
132.804 1250 35.3553
132.922 1172 34.2345
133.039 1249 35.3412
133.157 1135 33.6898
133.274 1146 33.8526
133.392 1060 32.5576
133.509 1033 32.1403
133.627 1027 32.0468
133.744 1001 31.6386
133.862 1112 33.3467
133.979 1117 33.4215
134.097 1215 34.8569
134.214 1205 34.7131
134.332 1198 34.6121
134.449 1214 34.8425
134.567 1267 35.5949
134.684 1320 36.3318
134.802 1214 34.8425
134.919 1318 36.3043
135.037 1278 35.7491
135.154 1238 35.1852
135.272 1204 34.6987
135.389 1172 34.2345
135.507 1137 33.7194
135.624 1153 33.9559
135.742 1165 34.1321
135.859 1201 34.6554
135.977 1253 35.3977
136.094 1249 35.3412
136.211 1362 36.9053
136.329 1346 36.6879
136.446 1245 35.2846
136.564 1331 36.4829
136.681 1260 35.4965
136.798 1152 33.9411
136.915 1175 34.2783
137.033 1082 32.8938
137.15 1045 32.3265
137.267 1050 32.4037
137.384 1041 32.2645
137.502 1108 33.2866
137.619 1117 33.4215
137.736 1092 33.0454
137.853 1147 33.8674
137.97 1205 34.7131
138.087 1205 34.7131
138.204 1206 34.7275
138.321 1168 34.176
138.438 1204 34.6987
138.555 1279 35.7631
138.672 1246 35.2987
138.788 1183 34.3948
138.905 1120 33.4664
139.022 1120 33.4664
139.139 1112 33.3467
139.255 1004 31.686
139.372 1082 32.8938
139.488 1113 33.3617
139.605 1138 33.7343
139.721 1213 34.8281
139.838 1146 33.8526
139.954 1161 34.0735
140.071 1198 34.6121
140.187 1191 34.5109
140.303 1133 33.6601
140.419 1087 32.9697
140.535 1057 32.5115
140.652 981 31.3209
140.768 0 1
140.884 0 1
141 0 1
141.115 0 1
141.231 0 1
141.347 0 1
141.463 0 1
141.578 0 1
141.694 0 1
144.104 0 1
144.219 0 1
144.335 0 1
144.45 0 1
144.566 0 1
144.682 0 1
144.798 0 1
144.914 0 1
145.03 0 1
145.146 988 31.4325
145.262 1087 32.9697
145.378 1065 32.6343
145.494 987 31.4166
145.61 999 31.607
145.726 1008 31.749
145.842 990 31.4643
145.959 987 31.4166
146.075 901 30.0167
146.192 953 30.8707
146.308 982 31.3369
146.425 960 30.9839
146.541 1024 32
146.658 1029 32.078
146.774 1103 33.2114
146.891 1078 32.8329
147.008 1145 33.8378
147.125 1119 33.4515
147.241 1181 34.3657
147.358 1169 34.1906
147.475 1132 33.6452
147.592 1124 33.5261
147.709 1079 32.8481
147.826 1155 33.9853
147.943 1110 33.3167
148.06 1101 33.1813
148.177 1061 32.573
148.294 1096 33.1059
148.411 1174 34.2637
148.528 1158 34.0294
148.645 1173 34.2491
148.762 1178 34.322
148.88 1172 34.2345
148.997 1111 33.3317
149.114 1198 34.6121
149.231 1101 33.1813
149.349 1135 33.6898
149.466 1085 32.9393
149.583 1009 31.7648
149.701 1036 32.187
149.818 1031 32.1092
149.935 1033 32.1403
150.053 1081 32.8786
150.17 1052 32.4345
150.287 1129 33.6006
150.405 1053 32.45
150.522 1163 34.1028
150.64 1143 33.8083
150.757 1197 34.5977
150.875 1187 34.4529
150.992 1226 35.0143
151.11 1171 34.2199
151.227 1174 34.2637
151.344 1191 34.5109
151.462 1123 33.5112
151.579 1220 34.9285
151.697 1070 32.7109
151.814 1017 31.8904
151.932 1108 33.2866
152.049 1163 34.1028
152.167 1228 35.0428
152.284 1222 34.9571
152.402 1264 35.5528
152.519 1245 35.2846
152.636 1213 34.8281
152.754 1214 34.8425
152.871 1176 34.2929
152.989 1077 32.8177
153.106 1095 33.0908
153.223 1077 32.8177
153.341 1046 32.3419
153.458 1006 31.7175
153.575 996 31.5595
153.693 1019 31.9218
153.81 1071 32.7261
153.927 1083 32.909
154.044 1135 33.6898
154.162 1128 33.5857
154.279 1145 33.8378
154.396 1200 34.641
154.513 1174 34.2637
154.63 1256 35.4401
154.747 1259 35.4824
154.864 1188 34.4674
154.981 1293 35.9583
155.098 1143 33.8083
155.215 1108 33.2866
155.332 1127 33.5708
155.449 1143 33.8083
155.566 1154 33.9706
155.683 1220 34.9285
155.8 1243 35.2562
155.917 1219 34.9142
156.033 1228 35.0428
156.15 0 1
156.267 0 1
156.383 0 1
156.5 0 1
156.617 0 1
156.733 0 1
156.85 0 1
156.966 0 1
157.082 0 1
157.199 0 1
157.315 0 1
157.431 0 1
157.547 0 1
157.664 0 1
157.78 0 1
157.896 0 1
158.012 0 1
158.128 0 1
158.244 0 1
158.359 0 1
158.475 0 1
158.591 0 1
158.706 0 1
