
6.15755 0 1
6.2731 0 1
6.3887 0 1
6.50437 0 1
6.62009 0 1
6.73587 0 1
6.8517 0 1
6.96759 0 1
7.08353 0 1
7.19952 0 1
7.31557 0 1
7.43166 0 1
7.54781 0 1
7.664 0 1
7.78024 0 1
7.89653 0 1
8.01286 0 1
8.12924 0 1
8.24567 0 1
8.36213 0 1
8.47864 0 1
8.59519 0 1
8.71178 0 1
8.82841 0 1
8.94508 0 1
9.06179 0 1
9.17853 0 1
9.29531 0 1
9.41212 0 1
9.52897 0 1
9.64584 0 1
9.76276 0 1
9.8797 0 1
9.99667 0 1
10.1137 0 1
10.2307 0 1
10.3478 0 1
10.4648 0 1
10.5819 0 1
10.6991 0 1
10.8162 0 1
10.9334 0 1
11.0506 0 1
11.1678 0 1
11.285 0 1
11.4023 0 1
11.5196 0 1
11.6369 0 1
11.7542 0 1
11.8715 0 1
11.9888 0 1
12.1062 0 1
12.2235 0 1
12.3409 0 1
12.4582 0 1
12.5756 0 1
12.693 0 1
12.8104 0 1
12.9278 0 1
13.0452 0 1
13.1626 0 1
13.28 0 1
13.3974 0 1
13.5149 0 1
13.6323 0 1
13.7497 0 1
13.8671 0 1
13.9845 0 1
14.1019 0 1
14.2193 0 1
14.3367 0 1
14.4541 0 1
14.5714 0 1
14.6888 0 1
14.8062 0 1
14.9235 0 1
15.0408 0 0
15.1581 0 0
15.2755 0 0
15.3927 0 0
15.51 0 0
15.6273 0 0
15.7445 0 0
15.8617 0 0
15.9789 0 0
16.0961 0 0
16.2132 0 0
16.3304 0 0
16.4475 0 0
16.5646 0 0
16.6816 0 0
16.7986 0 0
16.9156 0 0
17.0326 0 0
17.1496 0 0
17.2665 0 0
17.3833 0 0
17.5002 0 0
17.617 0 0
17.7338 0 0
17.8505 0 0
17.9672 0 0
18.0839 0 0
18.2005 0 0
18.3171 0 0
18.4337 0 0
18.5502 0 0
18.6666 0 0
18.7831 0 0
18.8994 0 0
19.0158 0 0
19.1321 0 0
19.2483 0 0
19.3645 0 0
19.4806 0 0
19.5967 0 0
19.7128 0 0
19.8288 0 0
19.9447 0 0
20.0606 0 1
20.1764 0 1
20.2922 0 1
20.4079 0 1
20.5236 0 1
20.6392 0 1
20.7548 0 1
20.8702 0 1
23.3078 0 1
23.4233 0 1
23.539 0 1
23.6547 0 1
23.7704 0 1
23.8862 0 1
24.0021 0 1
24.118 0 1
24.234 0 1
24.35 0 1
24.4661 1177 34.3074
24.5822 1161 34.0735
24.6984 1201 34.6554
24.8146 1320 36.3318
24.9309 1286 35.8608
25.0472 1249 35.3412
25.1636 1272 35.6651
25.28 1319 36.318
25.3965 1356 36.8239
25.513 1373 37.054
25.6296 1340 36.606
25.7462 1395 37.3497
25.8628 1333 36.5103
25.9795 1451 38.092
26.0962 1357 36.8375
26.213 1396 37.3631
26.3298 1370 37.0135
26.4466 1341 36.6197
26.5635 1340 36.606
26.6804 1327 36.428
26.7973 1225 35
26.9143 1253 35.3977
27.0313 1178 34.322
27.1483 1168 34.176
27.2653 1173 34.2491
27.3824 1222 34.9571
27.4996 1203 34.6843
27.6167 1224 34.9857
27.7339 1184 34.4093
27.8511 1141 33.7787
27.9683 1168 34.176
28.0855 1155 33.9853
28.2028 1189 34.4819
28.3201 1211 34.7994
28.4374 1166 34.1467
28.5547 1239 35.1994
28.6721 1250 35.3553
28.7894 1252 35.3836
28.9068 1301 36.0694
29.0242 1278 35.7491
29.1416 1289 35.9026
29.259 1290 35.9166
29.3764 1277 35.7351
29.4939 1302 36.0832
29.6113 1290 35.9166
29.7288 1248 35.327
29.8463 1276 35.7211
29.9638 1304 36.1109
30.0812 1289 35.9026
30.1987 1240 35.2136
30.3162 1207 34.7419
30.4337 1112 33.3467
30.5512 1088 32.9848
30.6687 1112 33.3467
30.7862 1106 33.2566
30.9037 1122 33.4963
31.0212 1164 34.1174
31.1387 1174 34.2637
31.2562 1121 33.4813
31.3737 1177 34.3074
31.4912 1125 33.541
31.6087 1153 33.9559
31.7262 1116 33.4066
31.8436 1096 33.1059
31.9611 1181 34.3657
32.0785 1211 34.7994
32.1959 1233 35.1141
32.3134 1252 35.3836
32.4308 1236 35.1568
32.5482 1268 35.609
32.6655 1197 34.5977
32.7829 1244 35.2704
32.9002 1182 34.3802
33.0176 1197 34.5977
33.1349 1240 35.2136
33.2522 1261 35.5106
33.3694 1241 35.2278
33.4867 1215 34.8569
33.6039 1260 35.4965
33.7211 1268 35.609
33.8383 1221 34.9428
33.9554 1270 35.6371
34.0725 1155 33.9853
34.1896 1146 33.8526
34.3067 997 31.5753
34.4237 1076 32.8024
34.5407 1093 33.0606
34.6577 1143 33.8083
34.7746 1152 33.9411
34.8915 1147 33.8674
35.0084 1098 33.1361
35.1252 1088 32.9848
35.242 1131 33.6303
35.3587 1075 32.7872
35.4755 1067 32.665
35.5921 1206 34.7275
35.7088 1172 34.2345
35.8254 1218 34.8999
35.9419 1240 35.2136
36.0584 1198 34.6121
36.1749 1294 35.9722
36.2913 1238 35.1852
36.4077 1237 35.171
36.524 1189 34.4819
36.6403 1217 34.8855
36.7565 1163 34.1028
36.8727 1215 34.8569
36.9889 1165 34.1321
37.1049 1246 35.2987
37.221 0 1
37.3369 0 1
37.4529 0 1
37.5687 0 1
37.6845 0 1
37.8003 0 1
37.916 0 1
38.0316 0 1
38.1472 0 1
40.5851 0 1
40.7008 0 1
40.8164 0 1
40.9322 0 1
41.048 0 1
41.1639 0 1
41.2798 0 1
41.3958 0 1
41.5118 0 1
41.6279 0 1
41.744 1048 32.3728
41.8602 973 31.1929
41.9765 987 31.4166
42.0928 1017 31.8904
42.2091 1030 32.0936
42.3255 1041 32.2645
42.4419 989 31.4484
42.5584 1029 32.078
42.675 1010 31.7805
42.7915 1020 31.9374
42.9081 925 30.4138
43.0248 943 30.7083
43.1415 843 29.0345
43.2582 853 29.2062
43.375 937 30.6105
43.4918 972 31.1769
43.6087 907 30.1164
43.7256 865 29.4109
43.8425 881 29.6816
43.9595 848 29.1204
44.0765 828 28.775
44.1935 836 28.9137
44.3106 857 29.2746
44.4277 857 29.2746
44.5448 870 29.4958
44.6619 897 29.95
44.7791 869 29.4788
44.8963 859 29.3087
45.0136 937 30.6105
45.1308 878 29.6311
45.2481 836 28.9137
45.3654 890 29.8329
45.4827 884 29.7321
45.6001 944 30.7246
45.7174 818 28.6007
45.8348 805 28.3725
45.9522 847 29.1033
46.0697 786 28.0357
46.1871 896 29.9333
46.3046 842 29.0172
46.422 864 29.3939
46.5395 758 27.5318
46.657 698 26.4197
46.7745 644 25.3772
46.892 706 26.5707
47.0096 743 27.258
47.1271 690 26.2679
47.2446 701 26.4764
47.3622 666 25.807
47.4797 685 26.1725
47.5973 649 25.4755
47.7149 676 26
47.8324 699 26.4386
47.95 670 25.8844
48.0675 633 25.1595
48.1851 694 26.3439
48.3027 688 26.2298
48.4202 691 26.2869
48.5378 727 26.9629
48.6554 672 25.923
48.7729 701 26.4764
48.8904 697 26.4008
49.008 684 26.1534
49.1255 693 26.3249
49.243 709 26.6271
49.3605 720 26.8328
49.478 683 26.1343
49.5955 668 25.8457
49.713 726 26.9444
49.8304 700 26.4575
49.9479 702 26.4953
50.0653 688 26.2298
50.1827 673 25.9422
50.3001 606 24.6171
50.4175 572 23.9165
50.5348 665 25.7876
50.6521 671 25.9037
50.7694 692 26.3059
50.8867 738 27.1662
51.004 737 27.1477
51.1212 723 26.8887
51.2384 761 27.5862
51.3556 826 28.7402
51.4727 860 29.3258
51.5899 840 28.9828
51.707 879 29.6479
51.824 859 29.3087
51.9411 898 29.9666
52.0581 872 29.5296
52.175 896 29.9333
52.2919 896 29.9333
52.4088 900 30
52.5257 918 30.2985
52.6425 902 30.0333
52.7593 865 29.4109
52.876 962 31.0161
52.9927 952 30.8545
53.1094 964 31.0483
53.226 923 30.3809
53.3426 928 30.4631
53.4591 912 30.1993
53.5756 995 31.5436
53.692 977 31.257
53.8084 877 29.6142
53.9248 828 28.775
54.0411 801 28.3019
54.1573 831 28.8271
54.2735 0 1
54.3896 0 1
54.5057 0 1
54.6217 0 1
54.7377 0 1
54.8537 0 1
54.9695 0 1
55.0853 0 1
55.2011 0 1
55.3168 0 1
55.4324 0 1
57.824 0 1
57.9396 0 1
58.0553 0 1
58.1711 0 1
58.2869 0 1
58.4028 0 1
58.5187 0 1
58.6347 0 1
58.7508 0 1
58.8669 0 1
58.983 974 31.209
59.0992 947 30.7734
59.2155 872 29.5296
59.3318 928 30.4631
59.4482 994 31.5278
59.5646 972 31.1769
59.681 1019 31.9218
59.7975 992 31.496
59.9141 1027 32.0468
60.0306 1032 32.1248
60.1473 1005 31.7017
60.2639 1081 32.8786
60.3807 1057 32.5115
60.4974 1095 33.0908
60.6142 1061 32.573
60.731 985 31.3847
60.8479 1043 32.2955
60.9648 1011 31.7962
61.0818 981 31.3209
61.1987 1011 31.7962
61.3158 991 31.4802
61.4328 1012 31.8119
61.5499 982 31.3369
61.667 985 31.3847
61.7841 919 30.315
61.9013 1001 31.6386
62.0185 994 31.5278
62.1357 1005 31.7017
62.253 961 31
62.3702 933 30.545
62.4875 893 29.8831
62.6049 849 29.1376
62.7222 852 29.189
62.8396 818 28.6007
62.9569 831 28.8271
63.0743 888 29.7993
63.1918 935 30.5778
63.3092 898 29.9666
63.4267 917 30.282
63.5441 859 29.3087
63.6616 866 29.4279
63.7791 891 29.8496
63.8966 880 29.6648
64.0142 920 30.3315
64.1317 829 28.7924
64.2492 845 29.0689
64.3668 856 29.2575
64.4843 884 29.7321
64.6019 860 29.3258
64.7195 915 30.249
64.837 887 29.7825
64.9546 798 28.2489
65.0722 799 28.2666
65.1898 836 28.9137
65.3074 822 28.6705
65.4249 788 28.0713
65.5425 871 29.5127
65.6601 846 29.0861
65.7777 878 29.6311
65.8952 865 29.4109
66.0128 858 29.2916
66.1304 781 27.9464
66.2479 711 26.6646
66.3655 682 26.1151
66.483 700 26.4575
66.6005 736 27.1293
66.718 760 27.5681
66.8355 753 27.4408
66.953 748 27.3496
67.0705 785 28.0179
67.1879 783 27.9821
67.3054 799 28.2666
67.4228 768 27.7128
67.5402 794 28.178
67.6576 807 28.4077
67.7749 740 27.2029
67.8923 765 27.6586
68.0096 752 27.4226
68.1269 759 27.55
68.2442 759 27.55
68.3614 758 27.5318
68.4787 754 27.4591
68.5958 780 27.9285
68.713 833 28.8617
68.8302 769 27.7308
68.9473 753 27.4408
69.0643 786 28.0357
69.1814 751 27.4044
69.2984 719 26.8142
69.4154 726 26.9444
69.5323 792 28.1425
69.6492 722 26.8701
69.7661 760 27.5681
69.8829 757 27.5136
69.9997 672 25.923
70.1165 634 25.1794
70.2332 709 26.6271
70.3499 687 26.2107
70.4665 679 26.0576
70.5831 679 26.0576
70.6996 722 26.8701
70.8161 761 27.5862
70.9326 716 26.7582
71.049 707 26.5895
71.1653 728 26.9815
71.2817 681 26.096
71.3979 676 26
71.5141 624 24.98
71.6303 631 25.1197
71.7464 600 24.4949
71.8624 0 1
71.9784 0 1
72.0944 0 1
72.2102 0 1
72.3261 0 1
72.4418 0 1
72.5575 0 1
72.6732 0 1
75.1054 0 1
75.2209 0 1
75.3365 0 1
75.4521 0 1
75.5678 0 1
75.6835 0 1
75.7993 0 1
75.9151 0 1
76.031 0 1
76.147 500 22.3607
76.263 544 23.3238
76.3791 594 24.3721
76.4952 537 23.1733
76.6113 595 24.3926
76.7276 572 23.9165
76.8438 580 24.0832
76.9601 537 23.1733
77.0765 549 23.4307
77.1929 534 23.1084
77.3093 585 24.1868
77.4258 524 22.891
77.5423 517 22.7376
77.6589 503 22.4277
77.7755 472 21.7256
77.8921 493 22.2036
78.0088 498 22.3159
78.1256 503 22.4277
78.2423 513 22.6495
78.3591 463 21.5174
78.4759 492 22.1811
78.5928 455 21.3307
78.7097 469 21.6564
78.8266 456 21.3542
78.9436 394 19.8494
79.0606 406 20.1494
79.1776 328 18.1108
79.2946 324 18
79.4117 397 19.9249
79.5288 387 19.6723
79.6459 404 20.0998
79.7631 410 20.2485
79.8802 398 19.9499
79.9974 405 20.1246
80.1147 367 19.1572
80.2319 351 18.735
80.3491 328 18.1108
80.4664 334 18.2757
80.5837 331 18.1934
80.701 326 18.0555
80.8183 359 18.9473
80.9357 319 17.8606
81.053 288 16.9706
81.1704 304 17.4356
81.2877 324 18
81.4051 280 16.7332
81.5225 278 16.6733
81.6399 299 17.2916
81.7573 245 15.6525
81.8747 236 15.3623
81.9922 255 15.9687
82.1096 249 15.7797
82.227 261 16.1555
82.3444 267 16.3401
82.4619 231 15.1987
82.5793 233 15.2643
82.6967 194 13.9284
82.8142 184 13.5647
82.9316 170 13.0384
83.049 173 13.1529
83.1664 179 13.3791
83.2838 175 13.2288
83.4012 167 12.9228
83.5186 167 12.9228
83.636 154 12.4097
83.7534 139 11.7898
83.8708 168 12.9615
83.9881 136 11.6619
84.1055 148 12.1655
84.2228 156 12.49
84.3401 109 10.4403
84.4575 112 10.583
84.5747 107 10.3441
84.692 115 10.7238
84.8093 138 11.7473
84.9265 115 10.7238
85.0437 110 10.4881
85.1609 107 10.3441
85.2781 102 10.0995
85.3952 111 10.5357
85.5123 108 10.3923
85.6294 96 9.79796
85.7465 100 10
85.8636 84 9.16515
85.9806 94 9.69536
86.0976 99 9.94987
86.2145 93 9.64365
86.3315 96 9.79796
86.4484 121 11
86.5652 127 11.2694
86.682 137 11.7047
86.7988 129 11.3578
86.9156 120 10.9545
87.0323 129 11.3578
87.149 142 11.9164
87.2657 130 11.4018
87.3823 147 12.1244
87.4988 162 12.7279
87.6154 149 12.2066
87.7318 157 12.53
87.8483 185 13.6015
87.9647 195 13.9642
88.081 186 13.6382
88.1973 208 14.4222
88.3136 222 14.8997
88.4298 201 14.1774
88.546 225 15
88.6621 205 14.3178
88.7781 260 16.1245
88.8942 0 1
89.0101 0 1
89.126 0 1
89.2419 0 1
89.3577 0 1
89.4734 0 1
89.5891 0 1
89.7047 0 1
89.8203 0 1
89.9358 0 1
92.3269 0 1
92.4424 0 1
92.558 0 1
92.6736 0 1
92.7893 0 1
92.905 0 1
93.0208 0 1
93.1366 0 1
93.2525 0 1
93.3685 0 1
93.4845 0 1
93.6005 355 18.8414
93.7167 400 20
93.8328 406 20.1494
93.949 363 19.0526
94.0653 372 19.2873
94.1816 356 18.868
94.2979 364 19.0788
94.4143 342 18.4932
94.5307 317 17.8045
94.6472 342 18.4932
94.7637 321 17.9165
94.8803 292 17.088
94.9969 311 17.6352
95.1135 311 17.6352
95.2302 331 18.1934
95.3469 275 16.5831
95.4637 199 14.1067
95.5805 245 15.6525
95.6973 294 17.1464
95.8142 334 18.2757
95.9311 360 18.9737
96.048 352 18.7617
96.1649 350 18.7083
96.2819 379 19.4679
96.3989 403 20.0749
96.516 374 19.3391
96.633 375 19.3649
96.7501 432 20.7846
96.8673 386 19.6469
96.9844 387 19.6723
97.1016 442 21.0238
97.2188 438 20.9284
97.336 473 21.7486
97.4532 461 21.4709
97.5704 477 21.8403
97.6877 493 22.2036
97.805 499 22.3383
97.9223 529 23
98.0396 524 22.891
98.1569 505 22.4722
98.2743 493 22.2036
98.3916 523 22.8692
98.509 532 23.0651
98.6264 557 23.6008
98.7438 534 23.1084
98.8612 603 24.5561
98.9786 452 21.2603
99.096 398 19.9499
99.2134 399 19.975
99.3308 566 23.7908
99.4482 610 24.6982
99.5656 692 26.3059
99.6831 660 25.6905
99.8005 701 26.4764
99.9179 659 25.671
100.035 657 25.632
100.153 632 25.1396
100.27 696 26.3818
100.388 685 26.1725
100.505 682 26.1151
100.622 654 25.5734
100.74 736 27.1293
100.857 714 26.7208
100.975 707 26.5895
101.092 730 27.0185
101.209 763 27.6225
101.327 757 27.5136
101.444 720 26.8328
101.561 739 27.1846
101.679 760 27.5681
101.796 757 27.5136
101.913 764 27.6405
102.03 790 28.1069
102.148 805 28.3725
102.265 737 27.1477
102.382 725 26.9258
102.499 723 26.8887
102.616 596 24.4131
102.733 510 22.5832
102.851 613 24.7588
102.968 763 27.6225
103.085 800 28.2843
103.202 789 28.0891
103.319 790 28.1069
103.436 846 29.0861
103.552 806 28.3901
103.669 835 28.8964
103.786 745 27.2947
103.903 816 28.5657
104.02 793 28.1603
104.137 807 28.4077
104.253 846 29.0861
104.37 822 28.6705
104.487 764 27.6405
104.603 792 28.1425
104.72 831 28.8271
104.836 848 29.1204
104.953 862 29.3598
105.069 880 29.6648
105.186 789 28.0891
105.302 792 28.1425
105.418 852 29.189
105.535 852 29.189
105.651 849 29.1376
105.767 831 28.8271
105.883 816 28.5657
105.999 722 26.8701
106.115 0 1
106.231 0 1
106.347 0 1
106.463 0 1
106.579 0 1
106.694 0 1
106.81 0 1
106.926 0 1
107.041 0 1
107.157 0 1
109.576 0 1
109.692 0 1
109.807 0 1
109.923 0 1
110.039 0 1
110.155 0 1
110.27 0 1
110.386 0 1
110.502 0 1
110.618 590 24.2899
110.735 643 25.3574
110.851 695 26.3629
110.967 677 26.0192
111.083 633 25.1595
111.199 546 23.3666
111.316 529 23
111.432 552 23.4947
111.549 568 23.8328
111.665 635 25.1992
111.782 605 24.5967
111.898 611 24.7184
112.015 563 23.7276
112.132 619 24.8797
112.248 564 23.7487
112.365 581 24.1039
112.482 537 23.1733
112.599 574 23.9583
112.716 564 23.7487
112.832 601 24.5153
112.949 573 23.9374
113.066 531 23.0434
113.183 585 24.1868
113.3 530 23.0217
113.417 526 22.9347
113.534 519 22.7816
113.652 520 22.8035
113.769 529 23
113.886 471 21.7025
114.003 505 22.4722
114.12 476 21.8174
114.238 452 21.2603
114.355 422 20.5426
114.472 427 20.664
114.589 458 21.4009
114.707 446 21.1187
114.824 445 21.095
114.942 407 20.1742
115.059 420 20.4939
115.176 454 21.3073
115.294 490 22.1359
115.411 490 22.1359
115.529 487 22.0681
115.646 493 22.2036
115.764 493 22.2036
115.881 467 21.6102
115.999 462 21.4942
116.116 478 21.8632
116.234 496 22.2711
116.351 460 21.4476
116.469 447 21.1424
116.586 473 21.7486
116.704 443 21.0476
116.821 460 21.4476
116.939 476 21.8174
117.056 491 22.1585
117.174 460 21.4476
117.291 450 21.2132
117.409 481 21.9317
117.526 493 22.2036
117.644 459 21.4243
117.761 464 21.5407
117.879 427 20.664
117.996 374 19.3391
118.114 379 19.4679
118.231 401 20.025
118.349 431 20.7605
118.466 420 20.4939
118.584 451 21.2368
118.701 428 20.6882
118.819 463 21.5174
118.936 494 22.2261
119.053 488 22.0907
119.171 497 22.2935
119.288 516 22.7156
119.405 463 21.5174
119.523 498 22.3159
119.64 481 21.9317
119.757 459 21.4243
119.875 507 22.5167
119.992 452 21.2603
120.109 494 22.2261
120.226 478 21.8632
120.343 451 21.2368
120.46 475 21.7945
120.578 521 22.8254
120.695 520 22.8035
120.812 512 22.6274
120.929 497 22.2935
121.046 480 21.9089
121.163 535 23.1301
121.279 510 22.5832
121.396 471 21.7025
121.513 448 21.166
121.63 400 20
121.747 385 19.6214
121.863 357 18.8944
121.98 426 20.6398
122.097 452 21.2603
122.213 489 22.1133
122.33 480 21.9089
122.446 497 22.2935
122.563 502 22.4054
122.679 535 23.1301
122.795 532 23.0651
122.912 553 23.516
123.028 518 22.7596
123.144 561 23.6854
123.26 523 22.8692
123.377 0 1
123.493 0 1
123.609 0 1
123.725 0 1
123.84 0 1
123.956 0 1
124.072 0 1
124.188 0 1
124.303 0 1
124.419 0 1
126.852 0 1
126.968 0 1
127.083 0 1
127.199 0 1
127.315 0 1
127.431 0 1
127.547 0 1
127.663 0 1
127.779 0 1
127.895 0 1
128.011 0 1
128.127 0 1
128.243 0 1
128.359 623 24.96
128.476 671 25.9037
128.592 668 25.8457
128.708 676 26
128.825 675 25.9808
128.941 664 25.7682
129.058 655 25.593
129.174 687 26.2107
129.291 698 26.4197
129.408 706 26.5707
129.524 709 26.6271
129.641 685 26.1725
129.758 660 25.6905
129.875 687 26.2107
129.992 644 25.3772
130.108 710 26.6458
130.225 626 25.02
130.342 669 25.865
130.459 552 23.4947
130.576 528 22.9783
130.693 512 22.6274
130.81 464 21.5407
130.928 508 22.5389
131.045 569 23.8537
131.162 664 25.7682
131.279 698 26.4197
131.396 693 26.3249
131.513 753 27.4408
131.631 706 26.5707
131.748 735 27.1109
131.865 750 27.3861
131.983 683 26.1343
132.1 651 25.5147
132.217 716 26.7582
132.335 725 26.9258
132.452 669 25.865
132.57 730 27.0185
132.687 720 26.8328
132.804 758 27.5318
132.922 721 26.8514
133.039 764 27.6405
133.157 731 27.037
133.274 760 27.5681
133.392 792 28.1425
133.509 721 26.8514
133.627 729 27
133.744 738 27.1662
133.862 686 26.1916
133.979 615 24.7992
134.097 581 24.1039
134.214 572 23.9165
134.332 531 23.0434
134.449 533 23.0868
134.567 594 24.3721
134.684 715 26.7395
134.802 763 27.6225
134.919 779 27.9106
135.037 801 28.3019
135.154 742 27.2397
135.272 767 27.6948
135.389 807 28.4077
135.507 789 28.0891
135.624 833 28.8617
135.742 801 28.3019
135.859 830 28.8097
135.977 855 29.2404
136.094 737 27.1477
136.211 764 27.6405
136.329 771 27.7669
136.446 900 30
136.564 764 27.6405
136.681 824 28.7054
136.798 788 28.0713
136.915 789 28.0891
137.033 848 29.1204
137.15 798 28.2489
137.267 787 28.0535
137.384 773 27.8029
137.502 743 27.258
137.619 667 25.8263
137.736 674 25.9615
137.853 632 25.1396
137.97 627 25.04
138.087 640 25.2982
138.204 658 25.6515
138.321 718 26.7955
138.438 760 27.5681
138.555 866 29.4279
138.672 822 28.6705
138.788 762 27.6043
138.905 892 29.8664
139.022 855 29.2404
139.139 886 29.7658
139.255 886 29.7658
139.372 896 29.9333
139.488 886 29.7658
139.605 925 30.4138
139.721 890 29.8329
139.838 929 30.4795
139.954 931 30.5123
140.071 899 29.9833
140.187 902 30.0333
140.303 866 29.4279
140.419 826 28.7402
140.535 911 30.1828
140.652 846 29.0861
140.768 0 1
140.884 0 1
141 0 1
141.115 0 1
141.231 0 1
141.347 0 1
141.463 0 1
141.578 0 1
141.694 0 1
144.104 0 1
144.219 0 1
144.335 0 1
144.45 0 1
144.566 0 1
144.682 0 1
144.798 0 1
144.914 0 1
145.03 0 1
145.146 782 27.9643
145.262 895 29.9166
145.378 836 28.9137
145.494 901 30.0167
145.61 849 29.1376
145.726 821 28.6531
145.842 892 29.8664
145.959 772 27.7849
146.075 784 28
146.192 780 27.9285
146.308 771 27.7669
146.425 736 27.1293
146.541 712 26.6833
146.658 702 26.4953
146.774 666 25.807
146.891 671 25.9037
147.008 748 27.3496
147.125 788 28.0713
147.241 849 29.1376
147.358 864 29.3939
147.475 884 29.7321
147.592 839 28.9655
147.709 885 29.7489
147.826 839 28.9655
147.943 849 29.1376
148.06 828 28.775
148.177 847 29.1033
148.294 836 28.9137
148.411 866 29.4279
148.528 883 29.7153
148.645 820 28.6356
148.762 865 29.4109
148.88 876 29.5973
148.997 836 28.9137
149.114 886 29.7658
149.231 819 28.6182
149.349 829 28.7924
149.466 787 28.0535
149.583 759 27.55
149.701 736 27.1293
149.818 775 27.8388
149.935 773 27.8029
150.053 697 26.4008
150.17 671 25.9037
150.287 660 25.6905
150.405 663 25.7488
150.522 770 27.7489
150.64 713 26.7021
150.757 740 27.2029
150.875 802 28.3196
150.992 802 28.3196
151.11 855 29.2404
151.227 853 29.2062
151.344 885 29.7489
151.462 852 29.189
151.579 875 29.5804
151.697 843 29.0345
151.814 911 30.1828
151.932 886 29.7658
152.049 886 29.7658
152.167 848 29.1204
152.284 878 29.6311
152.402 905 30.0832
152.519 890 29.8329
152.636 882 29.6985
152.754 891 29.8496
152.871 810 28.4605
152.989 877 29.6142
153.106 846 29.0861
153.223 823 28.688
153.341 800 28.2843
153.458 795 28.1957
153.575 712 26.6833
153.693 681 26.096
153.81 695 26.3629
153.927 771 27.7669
154.044 760 27.5681
154.162 786 28.0357
154.279 854 29.2233
154.396 842 29.0172
154.513 855 29.2404
154.63 866 29.4279
154.747 900 30
154.864 955 30.9031
154.981 941 30.6757
155.098 968 31.1127
155.215 934 30.5614
155.332 916 30.2655
155.449 932 30.5287
155.566 937 30.6105
155.683 929 30.4795
155.8 922 30.3645
155.917 942 30.692
156.033 899 29.9833
156.15 0 1
156.267 0 1
156.383 0 1
156.5 0 1
156.617 0 1
156.733 0 1
156.85 0 1
156.966 0 1
157.082 0 1
157.199 0 1
157.315 0 1
157.431 0 1
157.547 0 1
157.664 0 1
157.78 0 1
157.896 0 1
158.012 0 1
158.128 0 1
158.244 0 1
158.359 0 1
158.475 0 1
158.591 0 1
158.706 0 1
