
6.15755 0 1
6.2731 0 1
6.3887 0 1
6.50437 0 1
6.62009 0 1
6.73587 0 1
6.8517 0 1
6.96759 0 1
7.08353 0 1
7.19952 0 1
7.31557 0 1
7.43166 0 1
7.54781 0 1
7.664 0 1
7.78024 0 1
7.89653 0 1
8.01286 0 1
8.12924 0 1
8.24567 0 1
8.36213 0 1
8.47864 0 1
8.59519 0 1
8.71178 0 1
8.82841 0 1
8.94508 0 1
9.06179 0 1
9.17853 0 1
9.29531 0 1
9.41212 0 1
9.52897 0 1
9.64584 0 1
9.76276 0 1
9.8797 0 1
9.99667 0 1
10.1137 0 1
10.2307 0 1
10.3478 0 1
10.4648 0 1
10.5819 0 1
10.6991 0 1
10.8162 0 1
10.9334 0 1
11.0506 0 1
11.1678 0 1
11.285 0 1
11.4023 0 1
11.5196 0 1
11.6369 0 1
11.7542 0 1
11.8715 0 1
11.9888 0 1
12.1062 0 1
12.2235 0 1
12.3409 0 1
12.4582 0 1
12.5756 0 1
12.693 0 1
12.8104 0 1
12.9278 0 1
13.0452 0 1
13.1626 0 1
13.28 0 1
13.3974 0 1
13.5149 0 1
13.6323 0 1
13.7497 0 1
13.8671 0 1
13.9845 0 1
14.1019 0 1
14.2193 0 1
14.3367 0 1
14.4541 0 1
14.5714 0 1
14.6888 0 1
14.8062 0 1
14.9235 0 1
15.0408 0 0
15.1581 0 0
15.2755 0 0
15.3927 0 0
15.51 0 0
15.6273 0 0
15.7445 0 0
15.8617 0 0
15.9789 0 0
16.0961 0 0
16.2132 0 0
16.3304 0 0
16.4475 0 0
16.5646 0 0
16.6816 0 0
16.7986 0 0
16.9156 0 0
17.0326 0 0
17.1496 0 0
17.2665 0 0
17.3833 0 0
17.5002 0 0
17.617 0 0
17.7338 0 0
17.8505 0 0
17.9672 0 0
18.0839 0 0
18.2005 0 0
18.3171 0 0
18.4337 0 0
18.5502 0 0
18.6666 0 0
18.7831 0 0
18.8994 0 0
19.0158 0 0
19.1321 0 0
19.2483 0 0
19.3645 0 0
19.4806 0 0
19.5967 0 0
19.7128 0 0
19.8288 0 0
19.9447 0 0
20.0606 0 1
20.1764 0 1
20.2922 0 1
20.4079 0 1
20.5236 0 1
20.6392 0 1
20.7548 0 1
20.8702 0 1
23.3078 0 1
23.4233 0 1
23.539 0 1
23.6547 0 1
23.7704 0 1
23.8862 0 1
24.0021 0 1
24.118 0 1
24.234 0 1
24.35 0 1
24.4661 9229 96.0677
24.5822 9110 95.4463
24.6984 9236 96.1041
24.8146 8809 93.8563
24.9309 8735 93.4612
25.0472 8505 92.2226
25.1636 8462 91.9891
25.28 8726 93.4131
25.3965 9030 95.0263
25.513 9108 95.4358
25.6296 9269 96.2756
25.7462 9477 97.3499
25.8628 9442 97.17
25.9795 9597 97.9643
26.0962 9380 96.8504
26.213 9269 96.2756
26.3298 9027 95.0105
26.4466 8637 92.9355
26.5635 8511 92.2551
26.6804 8382 91.5533
26.7973 8658 93.0484
26.9143 8915 94.4193
27.0313 8850 94.0744
27.1483 9508 97.509
27.2653 9406 96.9845
27.3824 9608 98.0204
27.4996 9622 98.0918
27.6167 9602 97.9898
27.7339 9163 95.7236
27.8511 9214 95.9896
27.9683 9054 95.1525
28.0855 8830 93.9681
28.2028 8771 93.6536
28.3201 8563 92.5365
28.4374 8288 91.0385
28.5547 7899 88.8763
28.6721 7894 88.8482
28.7894 7811 88.3799
28.9068 8077 89.8721
29.0242 8068 89.822
29.1416 8016 89.5321
29.259 8145 90.2497
29.3764 8301 91.1098
29.4939 8051 89.7274
29.6113 8227 90.7028
29.7288 8190 90.4986
29.8463 7951 89.1684
29.9638 7817 88.4138
30.0812 7803 88.3346
30.1987 7721 87.8692
30.3162 7864 88.6792
30.4337 8196 90.5318
30.5512 8425 91.7878
30.6687 8583 92.6445
30.7862 8840 94.0213
30.9037 8735 93.4612
31.0212 9139 95.5981
31.1387 8908 94.3822
31.2562 8735 93.4612
31.3737 8717 93.3649
31.4912 8643 92.9677
31.6087 8567 92.5581
31.7262 8263 90.901
31.8436 8146 90.2552
31.9611 7755 88.0625
32.0785 7750 88.0341
32.1959 7501 86.6083
32.3134 7586 87.0976
32.4308 7675 87.6071
32.5482 7674 87.6014
32.6655 7821 88.4364
32.7829 7657 87.5043
32.9002 7818 88.4195
33.0176 7798 88.3063
33.1349 7867 88.6961
33.2522 7805 88.3459
33.3694 7822 88.4421
33.4867 7586 87.0976
33.6039 7595 87.1493
33.7211 7311 85.5044
33.8383 7448 86.3018
33.9554 7698 87.7382
34.0725 7989 89.3812
34.1896 8114 90.0777
34.3067 8351 91.3838
34.4237 8446 91.9021
34.5407 8521 92.3093
34.6577 8770 93.6483
34.7746 8608 92.7793
34.8915 8741 93.4933
35.0084 8209 90.6035
35.1252 8266 90.9175
35.242 8249 90.824
35.3587 8278 90.9835
35.4755 8080 89.8888
35.5921 7783 88.2213
35.7088 7525 86.7468
35.8254 7199 84.8469
35.9419 7229 85.0235
36.0584 7182 84.7467
36.1749 7113 84.3386
36.2913 7433 86.2148
36.4077 7380 85.9069
36.524 7438 86.2438
36.6403 7324 85.5804
36.7565 7556 86.9253
36.8727 7526 86.7525
36.9889 7538 86.8217
37.1049 7227 85.0118
37.221 0 1
37.3369 0 1
37.4529 0 1
37.5687 0 1
37.6845 0 1
37.8003 0 1
37.916 0 1
38.0316 0 1
38.1472 0 1
40.5851 0 1
40.7008 0 1
40.8164 0 1
40.9322 0 1
41.048 0 1
41.1639 0 1
41.2798 0 1
41.3958 0 1
41.5118 0 1
41.6279 0 1
41.744 5830 76.3544
41.8602 6147 78.4028
41.9765 6253 79.0759
42.0928 6308 79.4229
42.2091 6390 79.9375
42.3255 6124 78.256
42.4419 5938 77.0584
42.5584 5942 77.0844
42.675 5997 77.4403
42.7915 6135 78.3262
42.9081 6397 79.9812
43.0248 6698 81.8413
43.1415 6704 81.878
43.2582 6969 83.4805
43.375 7037 83.8868
43.4918 7111 84.3267
43.6087 7200 84.8528
43.7256 7012 83.7377
43.8425 6884 82.9699
43.9595 6918 83.1745
44.0765 6697 81.8352
44.1935 6567 81.037
44.3106 6508 80.6722
44.4277 6042 77.7303
44.5448 5590 74.7663
44.6619 5777 76.0066
44.7791 5334 73.0342
44.8963 5650 75.1665
45.0136 5596 74.8064
45.1308 5681 75.3724
45.2481 5535 74.3976
45.3654 5464 73.9189
45.4827 5584 74.7262
45.6001 5416 73.5935
45.7174 5456 73.8647
45.8348 5471 73.9662
45.9522 5317 72.9178
46.0697 5141 71.7008
46.1871 5031 70.9295
46.3046 4990 70.6399
46.422 5309 72.8629
46.5395 5529 74.3572
46.657 5566 74.6056
46.7745 5638 75.0866
46.892 5715 75.5976
47.0096 5923 76.961
47.1271 5841 76.4264
47.2446 5675 75.3326
47.3622 5715 75.5976
47.4797 5625 75
47.5973 5725 75.6637
47.7149 5270 72.5948
47.8324 5149 71.7565
47.95 4808 69.3397
48.0675 4496 67.0522
48.1851 4363 66.053
48.3027 4317 65.7039
48.4202 4293 65.521
48.5378 4390 66.2571
48.6554 4437 66.6108
48.7729 4457 66.7608
48.8904 4462 66.7982
49.008 4671 68.3447
49.1255 4805 69.3181
49.243 4671 68.3447
49.3605 4565 67.5648
49.478 4498 67.0671
49.5955 4297 65.5515
49.713 4461 66.7907
49.8304 4548 67.4389
49.9479 4905 70.0357
50.0653 5285 72.698
50.1827 5653 75.1864
50.3001 5663 75.2529
50.4175 5733 75.7166
50.5348 6082 77.9872
50.6521 6286 79.2843
50.7694 6416 80.0999
50.8867 6558 80.9815
51.004 6652 81.5598
51.1212 6687 81.7741
51.2384 6793 82.4197
51.3556 6514 80.7094
51.4727 6340 79.6241
51.5899 6032 77.666
51.707 5739 75.7562
51.824 5872 76.629
51.9411 5984 77.3563
52.0581 6074 77.9359
52.175 6234 78.9557
52.2919 6219 78.8606
52.4088 6289 79.3032
52.5257 6388 79.925
52.6425 6530 80.8084
52.7593 6649 81.5414
52.876 6370 79.8123
52.9927 6388 79.925
53.1094 6258 79.1075
53.226 6043 77.7367
53.3426 6245 79.0253
53.4591 6642 81.4985
53.5756 7017 83.7675
53.692 7514 86.6833
53.8084 7837 88.5268
53.9248 7941 89.1123
54.0411 8276 90.9725
54.1573 8490 92.1412
54.2735 0 1
54.3896 0 1
54.5057 0 1
54.6217 0 1
54.7377 0 1
54.8537 0 1
54.9695 0 1
55.0853 0 1
55.2011 0 1
55.3168 0 1
55.4324 0 1
57.824 0 1
57.9396 0 1
58.0553 0 1
58.1711 0 1
58.2869 0 1
58.4028 0 1
58.5187 0 1
58.6347 0 1
58.7508 0 1
58.8669 0 1
58.983 8991 94.8209
59.0992 9580 97.8775
59.2155 9673 98.3514
59.3318 10034 100.17
59.4482 10228 101.134
59.5646 10340 101.686
59.681 10229 101.139
59.7975 10134 100.668
59.9141 9655 98.2599
60.0306 9170 95.7601
60.1473 8626 92.8763
60.2639 8112 90.0666
60.3807 7791 88.2666
60.4974 7611 87.241
60.6142 7436 86.2322
60.731 7691 87.6983
60.8479 7721 87.8692
60.9648 7727 87.9034
61.0818 7811 88.3799
61.1987 8058 89.7664
61.3158 8209 90.6035
61.4328 7788 88.2496
61.5499 7607 87.2181
61.667 7430 86.1974
61.7841 7196 84.8292
61.9013 7360 85.7904
62.0185 7518 86.7064
62.1357 7956 89.1964
62.253 8243 90.791
62.3702 8601 92.7416
62.4875 8778 93.691
62.6049 9114 95.4673
62.7222 9365 96.7729
62.8396 9445 97.1854
62.9569 9796 98.9747
63.0743 9721 98.5951
63.1918 9667 98.3209
63.3092 9333 96.6075
63.4267 8924 94.4669
63.5441 8530 92.358
63.6616 7959 89.2132
63.7791 7386 85.9418
63.8966 7219 84.9647
64.0142 6830 82.6438
64.1317 6886 82.9819
64.2492 6822 82.5954
64.3668 7042 83.9166
64.4843 7175 84.7054
64.6019 7384 85.9302
64.7195 7307 85.481
64.837 7626 87.327
64.9546 7406 86.0581
65.0722 7033 83.863
65.1898 6718 81.9634
65.3074 6644 81.5107
65.4249 6629 81.4187
65.5425 6579 81.111
65.6601 7106 84.2971
65.7777 7507 86.6429
65.8952 7945 89.1347
66.0128 8287 91.033
66.1304 8565 92.5473
66.2479 8986 94.7945
66.3655 9314 96.5091
66.483 9338 96.6333
66.6005 9503 97.4833
66.718 9385 96.8762
66.8355 9217 96.0052
66.953 8950 94.6044
67.0705 8664 93.0806
67.1879 8040 89.666
67.3054 7566 86.9828
67.4228 6888 82.994
67.5402 6450 80.3119
67.6576 6499 80.6164
67.7749 6419 80.1187
67.8923 6808 82.5106
68.0096 6896 83.0422
68.1269 7126 84.4156
68.2442 7462 86.3829
68.3614 7878 88.7581
68.4787 7731 87.9261
68.5958 7646 87.4414
68.713 7324 85.5804
68.8302 6998 83.654
68.9473 6837 82.6862
69.0643 6664 81.6333
69.1814 6801 82.4682
69.2984 7183 84.7526
69.4154 7642 87.4185
69.5323 8154 90.2995
69.6492 8514 92.2713
69.7661 9076 95.268
69.8829 9457 97.2471
69.9997 9746 98.7218
70.1165 10013 100.065
70.2332 9890 99.4485
70.3499 9851 99.2522
70.4665 9630 98.1326
70.5831 9547 97.7088
70.6996 8866 94.1594
70.8161 8292 91.0604
70.9326 7843 88.5607
71.049 7255 85.1763
71.1653 6802 82.4742
71.2817 6507 80.666
71.3979 6640 81.4862
71.5141 6736 82.0731
71.6303 6751 82.1645
71.7464 6388 79.925
71.8624 0 1
71.9784 0 1
72.0944 0 1
72.2102 0 1
72.3261 0 1
72.4418 0 1
72.5575 0 1
72.6732 0 1
75.1054 0 1
75.2209 0 1
75.3365 0 1
75.4521 0 1
75.5678 0 1
75.6835 0 1
75.7993 0 1
75.9151 0 1
76.031 0 1
76.147 7890 88.8257
76.263 7981 89.3364
76.3791 7565 86.977
76.4952 7142 84.5104
76.6113 6895 83.0361
76.7276 7152 84.5695
76.8438 7030 83.8451
76.9601 7566 86.9828
77.0765 7794 88.2836
77.1929 7980 89.3308
77.3093 8438 91.8586
77.4258 8644 92.9731
77.5423 8551 92.4716
77.6589 8366 91.4658
77.7755 7616 87.2697
77.8921 7395 85.9942
78.0088 6945 83.3367
78.1256 6834 82.668
78.2423 6959 83.4206
78.3591 7328 85.6037
78.4759 8029 89.6047
78.5928 8343 91.34
78.7097 8902 94.3504
78.8266 9690 98.4378
78.9436 9464 97.2831
79.0606 10023 100.115
79.1776 10164 100.817
79.2946 10115 100.573
79.4117 9919 99.5942
79.5288 10076 100.379
79.6459 9801 99
79.7631 9125 95.5249
79.8802 8227 90.7028
79.9974 7869 88.7074
80.1147 7271 85.2702
80.2319 6895 83.0361
80.3491 6613 81.3204
80.4664 6827 82.6257
80.5837 7222 84.9824
80.701 7307 85.481
80.8183 7431 86.2032
80.9357 7633 87.367
81.053 8244 90.7965
81.1704 8047 89.7051
81.2877 7648 87.4528
81.4051 7123 84.3979
81.5225 7040 83.9047
81.6399 6570 81.0555
81.7573 6420 80.1249
81.8747 6381 79.8812
81.9922 6746 82.134
82.1096 7363 85.8079
82.227 7671 87.5842
82.3444 8211 90.6146
82.4619 9006 94.8999
82.5793 8768 93.6376
82.6967 9424 97.0773
82.8142 9175 95.7862
82.9316 9393 96.9175
83.049 9273 96.2964
83.1664 8924 94.4669
83.2838 8588 92.6715
83.4012 8011 89.5042
83.5186 7441 86.2612
83.636 6932 83.2586
83.7534 6549 80.9259
83.8708 6057 77.8267
83.9881 6071 77.9166
84.1055 6121 78.2368
84.2228 6332 79.5739
84.3401 6714 81.939
84.4575 6957 83.4086
84.5747 7587 87.1034
84.692 7764 88.1136
84.8093 7707 87.7895
84.9265 7264 85.2291
85.0437 6822 82.5954
85.1609 6400 80
85.2781 6197 78.721
85.3952 6182 78.6257
85.5123 6285 79.278
85.6294 6948 83.3547
85.7465 7495 86.5737
85.8636 8015 89.5265
85.9806 8346 91.3564
86.0976 9007 94.9052
86.2145 9550 97.7241
86.3315 9728 98.6306
86.4484 10239 101.188
86.5652 10210 101.045
86.682 10025 100.125
86.7988 9585 97.903
86.9156 9236 96.1041
87.0323 8546 92.4446
87.149 8129 90.161
87.2657 7588 87.1091
87.3823 7084 84.1665
87.4988 6854 82.7889
87.6154 7085 84.1724
87.7318 7404 86.0465
87.8483 7682 87.647
87.9647 8185 90.471
88.081 8529 92.3526
88.1973 9041 95.0842
88.3136 9147 95.6399
88.4298 8728 93.4238
88.546 8027 89.5935
88.6621 7466 86.406
88.7781 6918 83.1745
88.8942 0 1
89.0101 0 1
89.126 0 1
89.2419 0 1
89.3577 0 1
89.4734 0 1
89.5891 0 1
89.7047 0 1
89.8203 0 1
89.9358 0 1
92.3269 0 1
92.4424 0 1
92.558 0 1
92.6736 0 1
92.7893 0 1
92.905 0 1
93.0208 0 1
93.1366 0 1
93.2525 0 1
93.3685 0 1
93.4845 0 1
93.6005 13170 114.761
93.7167 14153 118.966
93.8328 14378 119.908
93.949 14820 121.737
94.0653 14581 120.752
94.1816 14356 119.817
94.2979 14725 121.347
94.4143 14742 121.417
94.5307 15284 123.628
94.6472 16393 128.035
94.7637 17867 133.667
94.8803 20415 142.881
94.9969 21622 147.044
95.1135 23489 153.261
95.2302 24648 156.997
95.3469 26039 161.366
95.4637 27316 165.276
95.5805 28601 169.118
95.6973 29539 171.869
95.8142 30294 174.052
95.9311 30794 175.482
96.048 30401 174.359
96.1649 29699 172.334
96.2819 28961 170.179
96.3989 28239 168.045
96.516 26836 163.817
96.633 25579 159.934
96.7501 25556 159.862
96.8673 26733 163.502
96.9844 29204 170.892
97.1016 31536 177.584
97.2188 33121 181.992
97.336 34099 184.659
97.4532 34947 186.941
97.5704 33937 184.22
97.6877 32121 179.223
97.805 30230 173.868
97.9223 27857 166.904
98.0396 26256 162.037
98.1569 25717 160.365
98.2743 25489 159.653
98.3916 27004 164.329
98.509 28882 169.947
98.6264 31029 176.151
98.7438 31989 178.855
98.8612 33361 182.65
98.9786 34736 186.376
99.096 34811 186.577
99.2134 35441 188.258
99.3308 35632 188.764
99.4482 35500 188.414
99.5656 35015 187.123
99.6831 34475 185.674
99.8005 33262 182.379
99.9179 32065 179.067
100.035 30166 173.684
100.153 28039 167.448
100.27 26673 163.319
100.388 27167 164.824
100.505 29122 170.652
100.622 31388 177.167
100.74 32612 180.588
100.857 33559 183.191
100.975 33495 183.016
101.092 33413 182.792
101.209 33013 181.695
101.327 30950 175.926
101.444 28001 167.335
101.561 26120 161.617
101.679 24503 156.534
101.796 23497 153.287
101.913 24223 155.637
102.03 25956 161.109
102.148 27425 165.605
102.265 30060 173.378
102.382 28302 168.232
102.499 30311 174.101
102.616 29984 173.159
102.733 30348 174.207
102.851 29655 172.206
102.968 29159 170.76
103.085 27941 167.156
103.202 26760 163.585
103.319 24970 158.019
103.436 23217 152.371
103.552 21664 147.187
103.669 19211 138.604
103.786 17459 132.133
103.903 16989 130.342
104.02 17096 130.752
104.137 17289 131.488
104.253 17453 132.11
104.37 16510 128.491
104.487 16295 127.652
104.603 15964 126.349
104.72 14923 122.16
104.836 13143 114.643
104.953 11571 107.569
105.069 10696 103.421
105.186 10279 101.385
105.302 9716 98.5698
105.418 9926 99.6293
105.535 10438 102.167
105.651 11206 105.858
105.767 11776 108.517
105.883 12144 110.2
105.999 12282 110.824
106.115 0 1
106.231 0 1
106.347 0 1
106.463 0 1
106.579 0 1
106.694 0 1
106.81 0 1
106.926 0 1
107.041 0 1
107.157 0 1
109.576 0 1
109.692 0 1
109.807 0 1
109.923 0 1
110.039 0 1
110.155 0 1
110.27 0 1
110.386 0 1
110.502 0 1
110.618 8609 92.7847
110.735 9506 97.4987
110.851 10379 101.877
110.967 10925 104.523
111.083 11238 106.009
111.199 11438 106.949
111.316 11490 107.191
111.432 11560 107.517
111.549 11464 107.07
111.665 11127 105.485
111.782 10436 102.157
111.898 9737 98.6762
112.015 9299 96.4313
112.132 8769 93.6429
112.248 8005 89.4707
112.365 7950 89.1628
112.482 7968 89.2637
112.599 7922 89.0056
112.716 8184 90.4655
112.832 8440 91.8695
112.949 8598 92.7254
113.066 8464 92
113.183 8519 92.2984
113.3 8180 90.4434
113.417 7663 87.5386
113.534 7294 85.4049
113.652 7094 84.2259
113.769 7063 84.0417
113.886 7140 84.4985
114.003 7392 85.9767
114.12 7987 89.37
114.238 8653 93.0215
114.355 9360 96.7471
114.472 9803 99.0101
114.589 10016 100.08
114.707 10131 100.653
114.824 10304 101.509
114.942 10328 101.627
115.059 10372 101.843
115.176 10292 101.449
115.294 9917 99.5841
115.411 9288 96.3743
115.529 8884 94.255
115.646 8592 92.693
115.764 8182 90.4544
115.881 7842 88.5551
115.999 8017 89.5377
116.116 7759 88.0852
116.234 8151 90.2829
116.351 8290 91.0494
116.469 8407 91.6897
116.586 8395 91.6242
116.704 8644 92.9731
116.821 8305 91.1318
116.939 7976 89.3085
117.056 7673 87.5957
117.174 7467 86.4118
117.291 7418 86.1278
117.409 7497 86.5852
117.526 7524 86.741
117.644 8280 90.9945
117.761 9035 95.0526
117.879 9544 97.6934
117.996 9968 99.8399
118.114 10464 102.294
118.231 10912 104.461
118.349 10800 103.923
118.466 11038 105.062
118.584 11200 105.83
118.701 11153 105.608
118.819 10950 104.642
118.936 10344 101.705
119.053 10118 100.588
119.171 9447 97.1957
119.288 9144 95.6243
119.405 8733 93.4505
119.523 8270 90.9395
119.64 8318 91.2031
119.757 8339 91.3181
119.875 8477 92.0706
119.992 8610 92.7901
120.109 8752 93.5521
120.226 8541 92.4175
120.343 8569 92.5689
120.46 8425 91.7878
120.578 8368 91.4768
120.695 7763 88.1079
120.812 7679 87.6299
120.929 7687 87.6755
121.046 7788 88.2496
121.163 8030 89.6103
121.279 8355 91.4057
121.396 8902 94.3504
121.513 9552 97.7343
121.63 10101 100.504
121.747 10385 101.907
121.863 10599 102.951
121.98 11121 105.456
122.097 10662 103.257
122.213 10886 104.336
122.33 10893 104.37
122.446 10520 102.567
122.563 10463 102.289
122.679 10247 101.227
122.795 9998 99.99
122.912 9464 97.2831
123.028 9068 95.226
123.144 8870 94.1807
123.26 8367 91.4713
123.377 0 1
123.493 0 1
123.609 0 1
123.725 0 1
123.84 0 1
123.956 0 1
124.072 0 1
124.188 0 1
124.303 0 1
124.419 0 1
126.852 0 1
126.968 0 1
127.083 0 1
127.199 0 1
127.315 0 1
127.431 0 1
127.547 0 1
127.663 0 1
127.779 0 1
127.895 0 1
128.011 0 1
128.127 0 1
128.243 0 1
128.359 10242 101.203
128.476 9504 97.4885
128.592 9310 96.4883
128.708 9363 96.7626
128.825 9881 99.4032
128.941 10079 100.394
129.058 10053 100.265
129.174 10054 100.27
129.291 9872 99.3579
129.408 9738 98.6813
129.524 9717 98.5748
129.641 9336 96.623
129.758 9017 94.9579
129.875 8988 94.8051
129.992 8892 94.2974
130.108 9082 95.2995
130.225 9484 97.3858
130.342 10029 100.145
130.459 10268 101.331
130.576 11021 104.981
130.693 11238 106.009
130.81 11448 106.995
130.928 11604 107.722
131.045 11400 106.771
131.162 11482 107.154
131.279 11652 107.944
131.396 11460 107.051
131.513 11071 105.219
131.631 10762 103.74
131.748 10632 103.112
131.865 10063 100.315
131.983 9592 97.9388
132.1 9351 96.7006
132.217 9145 95.6295
132.335 9473 97.3293
132.452 9707 98.5241
132.57 9835 99.1716
132.687 9310 96.4883
132.804 9824 99.1161
132.922 9601 97.9847
133.039 9576 97.857
133.157 9117 95.483
133.274 8862 94.1382
133.392 8922 94.4563
133.509 8794 93.7763
133.627 8873 94.1966
133.744 9111 95.4516
133.862 9644 98.2039
133.979 10123 100.613
134.097 10563 102.776
134.214 10872 104.269
134.332 10829 104.062
134.449 11031 105.029
134.567 11221 105.929
134.684 11202 105.84
134.802 11179 105.731
134.919 11258 106.104
135.037 11225 105.948
135.154 11153 105.608
135.272 10714 103.508
135.389 10235 101.168
135.507 9872 99.3579
135.624 9568 97.8162
135.742 9384 96.871
135.859 9674 98.3565
135.977 9944 99.7196
136.094 9956 99.7798
136.211 10043 100.215
136.329 9890 99.4485
136.446 10057 100.285
136.564 9921 99.6042
136.681 9926 99.6293
136.798 9395 96.9278
136.915 9347 96.6799
137.033 9076 95.268
137.15 9010 94.921
137.267 9108 95.4358
137.384 9499 97.4628
137.502 9801 99
137.619 10185 100.921
137.736 10608 102.995
137.853 10593 102.922
137.97 10645 103.175
138.087 11312 106.358
138.204 11263 106.127
138.321 11345 106.513
138.438 11536 107.406
138.555 11436 106.939
138.672 11539 107.42
138.788 11237 106.005
138.905 11136 105.527
139.022 10587 102.893
139.139 10661 103.252
139.255 10096 100.479
139.372 10005 100.025
139.488 9934 99.6695
139.605 10015 100.075
139.721 10435 102.152
139.838 10529 102.611
139.954 10268 101.331
140.071 10068 100.339
140.187 10198 100.985
140.303 9960 99.7998
140.419 9647 98.2191
140.535 9279 96.3276
140.652 8901 94.3451
140.768 0 1
140.884 0 1
141 0 1
141.115 0 1
141.231 0 1
141.347 0 1
141.463 0 1
141.578 0 1
141.694 0 1
144.104 0 1
144.219 0 1
144.335 0 1
144.45 0 1
144.566 0 1
144.682 0 1
144.798 0 1
144.914 0 1
145.03 0 1
145.146 9395 96.9278
145.262 9556 97.7548
145.378 9367 96.7833
145.494 9031 95.0316
145.61 9058 95.1735
145.726 8860 94.1276
145.842 8998 94.8578
145.959 8865 94.1541
146.075 8872 94.1913
146.192 9396 96.933
146.308 9887 99.4334
146.425 10019 100.095
146.541 10043 100.215
146.658 10260 101.292
146.774 10416 102.059
146.891 10645 103.175
147.008 10762 103.74
147.125 10547 102.699
147.241 10715 103.513
147.358 10317 101.573
147.475 10448 102.215
147.592 9995 99.975
147.709 9942 99.7096
147.826 9442 97.17
147.943 9301 96.4417
148.06 9247 96.1613
148.177 9423 97.0721
148.294 9781 98.8989
148.411 9736 98.6712
148.528 9880 99.3982
148.645 9532 97.632
148.762 9473 97.3293
148.88 9423 97.0721
148.997 8918 94.4352
149.114 9540 97.6729
149.231 8903 94.3557
149.349 8977 94.747
149.466 8588 92.6715
149.583 8527 92.3418
149.701 8696 93.2523
149.818 9233 96.0885
149.935 9284 96.3535
150.053 9653 98.2497
150.17 9610 98.0306
150.287 9983 99.915
150.405 10118 100.588
150.522 10272 101.351
150.64 10180 100.896
150.757 10257 101.277
150.875 10454 102.245
150.992 10439 102.171
151.11 10081 100.404
151.227 9958 99.7898
151.344 9863 99.3126
151.462 9462 97.2728
151.579 9154 95.6765
151.697 9245 96.1509
151.814 9594 97.949
151.932 9651 98.2395
152.049 9852 99.2572
152.167 9890 99.4485
152.284 9773 98.8585
152.402 9788 98.9343
152.519 9763 98.8079
152.636 9586 97.9081
152.754 9462 97.2728
152.871 9389 96.8969
152.989 9040 95.0789
153.106 9214 95.9896
153.223 9058 95.1735
153.341 9608 98.0204
153.458 9643 98.1988
153.575 9797 98.9798
153.693 10078 100.389
153.81 10626 103.082
153.927 10635 103.126
154.044 10867 104.245
154.162 11081 105.266
154.279 11248 106.057
154.396 11357 106.569
154.513 11309 106.344
154.63 11677 108.06
154.747 11373 106.644
154.864 11050 105.119
154.981 10822 104.029
155.098 10503 102.484
155.215 10200 100.995
155.332 10146 100.727
155.449 10299 101.484
155.566 10641 103.155
155.683 10417 102.064
155.8 10568 102.801
155.917 10268 101.331
156.033 10297 101.474
156.15 0 1
156.267 0 1
156.383 0 1
156.5 0 1
156.617 0 1
156.733 0 1
156.85 0 1
156.966 0 1
157.082 0 1
157.199 0 1
157.315 0 1
157.431 0 1
157.547 0 1
157.664 0 1
157.78 0 1
157.896 0 1
158.012 0 1
158.128 0 1
158.244 0 1
158.359 0 1
158.475 0 1
158.591 0 1
158.706 0 1
