
6.15755 0 1
6.2731 0 1
6.3887 0 1
6.50437 0 1
6.62009 0 1
6.73587 0 1
6.8517 0 1
6.96759 0 1
7.08353 0 1
7.19952 0 1
7.31557 0 1
7.43166 0 1
7.54781 0 1
7.664 0 1
7.78024 0 1
7.89653 0 1
8.01286 0 1
8.12924 0 1
8.24567 0 1
8.36213 0 1
8.47864 0 1
8.59519 0 1
8.71178 0 1
8.82841 0 1
8.94508 0 1
9.06179 0 1
9.17853 0 1
9.29531 0 1
9.41212 0 1
9.52897 0 1
9.64584 0 1
9.76276 0 1
9.8797 0 1
9.99667 0 1
10.1137 0 1
10.2307 0 1
10.3478 0 1
10.4648 0 1
10.5819 0 1
10.6991 0 1
10.8162 0 1
10.9334 0 1
11.0506 0 1
11.1678 0 1
11.285 0 1
11.4023 0 1
11.5196 0 1
11.6369 0 1
11.7542 0 1
11.8715 0 1
11.9888 0 1
12.1062 0 1
12.2235 0 1
12.3409 0 1
12.4582 0 1
12.5756 0 1
12.693 0 1
12.8104 0 1
12.9278 0 1
13.0452 0 1
13.1626 0 1
13.28 0 1
13.3974 0 1
13.5149 0 1
13.6323 0 1
13.7497 0 1
13.8671 0 1
13.9845 0 1
14.1019 0 1
14.2193 0 1
14.3367 0 1
14.4541 0 1
14.5714 0 1
14.6888 0 1
14.8062 0 1
14.9235 0 1
15.0408 5901 76.818
15.1581 6283 79.2654
15.2755 6591 81.185
15.3927 6480 80.4984
15.51 6294 79.3347
15.6273 6214 78.8289
15.7445 6222 78.8797
15.8617 6286 79.2843
15.9789 6378 79.8624
16.0961 6362 79.7621
16.2132 6461 80.3803
16.3304 6425 80.1561
16.4475 6461 80.3803
16.5646 6593 81.1973
16.6816 6662 81.6211
16.7986 6414 80.0875
16.9156 6751 82.1645
17.0326 6833 82.662
17.1496 6864 82.8493
17.2665 7071 84.0892
17.3833 6991 83.6122
17.5002 7103 84.2793
17.617 6902 83.0783
17.7338 6915 83.1565
17.8505 6941 83.3127
17.9672 6947 83.3487
18.0839 6744 82.1219
18.2005 6715 81.9451
18.3171 6844 82.7285
18.4337 7119 84.3742
18.5502 7223 84.9882
18.6666 7435 86.2264
18.7831 7486 86.5217
18.8994 7173 84.6936
19.0158 7253 85.1645
19.1321 6828 82.6317
19.2483 6527 80.7899
19.3645 6372 79.8248
19.4806 6283 79.2654
19.5967 6065 77.8781
19.7128 5637 75.08
19.8288 5233 72.3395
19.9447 4417 66.4605
20.0606 0 1
20.1764 0 1
20.2922 0 1
20.4079 0 1
20.5236 0 1
20.6392 0 1
20.7548 0 1
20.8702 0 1
23.3078 0 1
23.4233 0 1
23.539 0 1
23.6547 0 1
23.7704 0 1
23.8862 0 1
24.0021 0 1
24.118 0 1
24.234 0 1
24.35 0 1
24.4661 3495 59.1185
24.5822 3877 62.2656
24.6984 4436 66.6033
24.8146 5046 71.0352
24.9309 5393 73.437
25.0472 5779 76.0197
25.1636 6125 78.2624
25.28 6327 79.5424
25.3965 6607 81.2835
25.513 6945 83.3367
25.6296 7147 84.5399
25.7462 7136 84.4748
25.8628 7677 87.6185
25.9795 7490 86.5448
26.0962 7752 88.0454
26.213 8042 89.6772
26.3298 7885 88.7975
26.4466 7851 88.6059
26.5635 7757 88.0738
26.6804 7773 88.1646
26.7973 7833 88.5042
26.9143 7687 87.6755
27.0313 8027 89.5935
27.1483 8072 89.8443
27.2653 8272 90.9505
27.3824 8376 91.5205
27.4996 8446 91.9021
27.6167 8234 90.7414
27.7339 8044 89.6883
27.8511 7901 88.8876
27.9683 7936 89.0842
28.0855 7876 88.7468
28.2028 7930 89.0505
28.3201 7904 88.9044
28.4374 8002 89.4539
28.5547 7607 87.2181
28.6721 7441 86.2612
28.7894 7387 85.9477
28.9068 7080 84.1427
29.0242 7203 84.8705
29.1416 7332 85.6271
29.259 7180 84.7349
29.3764 7440 86.2554
29.4939 7565 86.977
29.6113 7656 87.4986
29.7288 7695 87.7211
29.8463 7730 87.9204
29.9638 7725 87.892
30.0812 7528 86.764
30.1987 7764 88.1136
30.3162 7626 87.327
30.4337 7835 88.5155
30.5512 7886 88.8032
30.6687 8059 89.7719
30.7862 8170 90.3881
30.9037 8388 91.586
31.0212 8485 92.1141
31.1387 8243 90.791
31.2562 8301 91.1098
31.3737 7915 88.9663
31.4912 7988 89.3756
31.6087 8039 89.6605
31.7262 8077 89.8721
31.8436 8060 89.7775
31.9611 7784 88.227
32.0785 7776 88.1816
32.1959 7348 85.7205
32.3134 7434 86.2206
32.4308 7098 84.2496
32.5482 7118 84.3682
32.6655 7166 84.6522
32.7829 7154 84.5813
32.9002 7320 85.557
33.0176 7423 86.1568
33.1349 7519 86.7122
33.2522 7748 88.0227
33.3694 7773 88.1646
33.4867 7734 87.9432
33.6039 7718 87.8521
33.7211 7557 86.931
33.8383 7816 88.4081
33.9554 7746 88.0114
34.0725 7816 88.4081
34.1896 7957 89.202
34.3067 8210 90.6091
34.4237 8197 90.5373
34.5407 8210 90.6091
34.6577 8462 91.9891
34.7746 8246 90.8075
34.8915 8334 91.2907
35.0084 8170 90.3881
35.1252 8022 89.5656
35.242 7980 89.3308
35.3587 8018 89.5433
35.4755 8125 90.1388
35.5921 8060 89.7775
35.7088 7911 88.9438
35.8254 7586 87.0976
35.9419 7229 85.0235
36.0584 6666 81.6456
36.1749 6485 80.5295
36.2913 6281 79.2528
36.4077 6171 78.5557
36.524 6096 78.0769
36.6403 5850 76.4853
36.7565 5702 75.5116
36.8727 5780 76.0263
36.9889 5645 75.1332
37.1049 5195 72.0763
37.221 0 1
37.3369 0 1
37.4529 0 1
37.5687 0 1
37.6845 0 1
37.8003 0 1
37.916 0 1
38.0316 0 1
38.1472 0 1
40.5851 0 1
40.7008 0 1
40.8164 0 1
40.9322 0 1
41.048 0 1
41.1639 0 1
41.2798 0 1
41.3958 0 1
41.5118 0 1
41.6279 0 1
41.744 3445 58.6941
41.8602 3893 62.3939
41.9765 4369 66.0984
42.0928 4880 69.857
42.2091 5267 72.5741
42.3255 5661 75.2396
42.4419 6055 77.8139
42.5584 6492 80.5729
42.675 6461 80.3803
42.7915 6716 81.9512
42.9081 6766 82.2557
43.0248 7186 84.7703
43.1415 7391 85.9709
43.2582 7511 86.666
43.375 7924 89.0169
43.4918 7930 89.0505
43.6087 8122 90.1221
43.7256 8009 89.493
43.8425 8154 90.2995
43.9595 7868 88.7017
44.0765 7798 88.3063
44.1935 7653 87.4814
44.3106 7922 89.0056
44.4277 7913 88.955
44.5448 7716 87.8408
44.6619 7447 86.296
44.7791 6982 83.5584
44.8963 6660 81.6088
45.0136 6195 78.7083
45.1308 6166 78.5239
45.2481 6174 78.5748
45.3654 6317 79.4796
45.4827 6438 80.2371
45.6001 6719 81.9695
45.7174 7230 85.0294
45.8348 7410 86.0814
45.9522 7395 85.9942
46.0697 7873 88.7299
46.1871 7675 87.6071
46.3046 7758 88.0795
46.422 7698 87.7382
46.5395 7835 88.5155
46.657 7978 89.3197
46.7745 8298 91.0934
46.892 8526 92.3363
47.0096 8626 92.8763
47.1271 8708 93.3167
47.2446 8707 93.3113
47.3622 8591 92.6876
47.4797 8458 91.9674
47.5973 8359 91.4276
47.7149 8393 91.6133
47.8324 8420 91.7606
47.95 8430 91.815
48.0675 8249 90.824
48.1851 7997 89.4259
48.3027 7524 86.741
48.4202 7021 83.7914
48.5378 6550 80.9321
48.6554 6246 79.0316
48.7729 6101 78.1089
48.8904 5985 77.3628
49.008 6532 80.8208
49.1255 6694 81.8169
49.243 7134 84.463
49.3605 7546 86.8677
49.478 8004 89.4651
49.5955 8214 90.6311
49.713 8038 89.6549
49.8304 7882 88.7806
49.9479 7942 89.1179
50.0653 8217 90.6477
50.1827 8233 90.7359
50.3001 8320 91.214
50.4175 8534 92.3797
50.5348 8923 94.4616
50.6521 9046 95.1105
50.7694 9168 95.7497
50.8867 9112 95.4568
51.004 8715 93.3542
51.1212 8621 92.8493
51.2384 8511 92.2551
51.3556 8588 92.6715
51.4727 8808 93.8509
51.5899 8812 93.8723
51.707 8384 91.5642
51.824 7838 88.5325
51.9411 7169 84.6699
52.0581 6542 80.8826
52.175 6274 79.2086
52.2919 6255 79.0886
52.4088 6363 79.7684
52.5257 6487 80.5419
52.6425 6860 82.8251
52.7593 7112 84.3327
52.876 7420 86.1394
52.9927 7639 87.4014
53.1094 7775 88.176
53.226 7652 87.4757
53.3426 7517 86.7006
53.4591 7554 86.9138
53.5756 7048 83.9524
53.692 6948 83.3547
53.8084 6653 81.5659
53.9248 6468 80.4239
54.0411 6356 79.7245
54.1573 5978 77.3175
54.2735 0 1
54.3896 0 1
54.5057 0 1
54.6217 0 1
54.7377 0 1
54.8537 0 1
54.9695 0 1
55.0853 0 1
55.2011 0 1
55.3168 0 1
55.4324 0 1
57.824 0 1
57.9396 0 1
58.0553 0 1
58.1711 0 1
58.2869 0 1
58.4028 0 1
58.5187 0 1
58.6347 0 1
58.7508 0 1
58.8669 0 1
58.983 6954 83.3906
59.0992 7800 88.3176
59.2155 8299 91.0988
59.3318 9001 94.8736
59.4482 9570 97.8264
59.5646 10019 100.095
59.681 10206 101.025
59.7975 10475 102.347
59.9141 10433 102.142
60.0306 10904 104.422
60.1473 10898 104.393
60.2639 11036 105.052
60.3807 10937 104.58
60.4974 10366 101.814
60.6142 9753 98.7573
60.731 8950 94.6044
60.8479 8140 90.2219
60.9648 7631 87.3556
61.0818 7544 86.8562
61.1987 7762 88.1022
61.3158 8295 91.0769
61.4328 9165 95.734
61.5499 10186 100.926
61.667 10557 102.747
61.7841 11357 106.569
61.9013 11776 108.517
62.0185 11617 107.782
62.1357 11575 107.587
62.253 11524 107.35
62.3702 11643 107.903
62.4875 11828 108.757
62.6049 12195 110.431
62.7222 12264 110.743
62.8396 12468 111.66
62.9569 12573 112.129
63.0743 12585 112.183
63.1918 12714 112.756
63.3092 12203 110.467
63.4267 12115 110.068
63.5441 12297 110.892
63.6616 12199 110.449
63.7791 12075 109.886
63.8966 11852 108.867
64.0142 11166 105.669
64.1317 10417 102.064
64.2492 9130 95.551
64.3668 8374 91.5096
64.4843 7782 88.2156
64.6019 7470 86.4292
64.7195 7512 86.6718
64.837 7921 89
64.9546 9083 95.3048
65.0722 10072 100.359
65.1898 10929 104.542
65.3074 11781 108.54
65.4249 12001 109.549
65.5425 11980 109.453
65.6601 12111 110.05
65.7777 12088 109.945
65.8952 11886 109.023
66.0128 12010 109.59
66.1304 12307 110.937
66.2479 12475 111.692
66.3655 12775 113.027
66.483 12868 113.437
66.6005 13024 114.123
66.718 13108 114.49
66.8355 12832 113.278
66.953 12642 112.437
67.0705 12639 112.423
67.1879 12598 112.241
67.3054 12851 113.362
67.4228 12633 112.397
67.5402 11818 108.711
67.6576 11480 107.145
67.7749 10238 101.183
67.8923 9400 96.9536
68.0096 8157 90.3161
68.1269 7561 86.954
68.2442 7383 85.9244
68.3614 7530 86.7756
68.4787 7940 89.1067
68.5958 8725 93.4077
68.713 10340 101.686
68.8302 11243 106.033
68.9473 12079 109.905
69.0643 12586 112.187
69.1814 12713 112.752
69.2984 12634 112.401
69.4154 12026 109.663
69.5323 11703 108.18
69.6492 11782 108.545
69.7661 11927 109.211
69.8829 11531 107.382
69.9997 11962 109.371
70.1165 11800 108.628
70.2332 11769 108.485
70.3499 11393 106.738
70.4665 10813 103.986
70.5831 10429 102.122
70.6996 9871 99.3529
70.8161 9419 97.0515
70.9326 9219 96.0156
71.049 8637 92.9355
71.1653 8153 90.294
71.2817 7592 87.1321
71.3979 6710 81.9146
71.5141 5527 74.3438
71.6303 4358 66.0151
71.7464 3178 56.3738
71.8624 0 1
71.9784 0 1
72.0944 0 1
72.2102 0 1
72.3261 0 1
72.4418 0 1
72.5575 0 1
72.6732 0 1
75.1054 0 1
75.2209 0 1
75.3365 0 1
75.4521 0 1
75.5678 0 1
75.6835 0 1
75.7993 0 1
75.9151 0 1
76.031 0 1
76.147 9140 95.6033
76.263 9691 98.4429
76.3791 10310 101.538
76.4952 9856 99.2774
76.6113 9585 97.903
76.7276 9054 95.1525
76.8438 8221 90.6697
76.9601 7569 87
77.0765 6875 82.9156
77.1929 6850 82.7647
77.3093 6748 82.1462
77.4258 7054 83.9881
77.5423 8112 90.0666
77.6589 9436 97.1391
77.7755 11154 105.612
77.8921 12335 111.063
78.0088 12950 113.798
78.1256 13388 115.707
78.2423 13519 116.271
78.3591 13166 114.743
78.4759 12673 112.574
78.5928 12875 113.468
78.7097 13085 114.39
78.8266 13119 114.538
78.9436 14005 118.343
79.0606 13787 117.418
79.1776 13952 118.119
79.2946 14130 118.87
79.4117 14277 119.486
79.5288 14013 118.377
79.6459 14237 119.319
79.7631 14084 118.676
79.8802 13735 117.196
79.9974 14248 119.365
80.1147 13997 118.309
80.2319 13681 116.966
80.3491 12517 111.879
80.4664 11257 106.099
80.5837 9878 99.3881
80.701 8417 91.7442
80.8183 7878 88.7581
80.9357 7425 86.1684
81.053 7617 87.2754
81.1704 8206 90.587
81.2877 9843 99.2119
81.4051 11383 106.691
81.5225 13185 114.826
81.6399 14181 119.084
81.7573 15218 123.361
81.8747 15125 122.984
81.9922 14844 121.836
82.1096 14847 121.848
82.227 14766 121.515
82.3444 14641 121
82.4619 15055 122.699
82.5793 15374 123.992
82.6967 15878 126.008
82.8142 16029 126.606
82.9316 16104 126.902
83.049 16206 127.303
83.1664 16038 126.641
83.2838 15528 124.611
83.4012 15685 125.24
83.5186 15371 123.98
83.636 15607 124.928
83.7534 15664 125.156
83.8708 14727 121.355
83.9881 13716 117.115
84.1055 12273 110.784
84.2228 11207 105.863
84.3401 9575 97.8519
84.4575 8388 91.586
84.5747 7939 89.1011
84.692 7983 89.3476
84.8093 9051 95.1367
84.9265 10615 103.029
85.0437 12600 112.25
85.1609 14436 120.15
85.2781 15802 125.706
85.3952 16634 128.973
85.5123 17094 130.744
85.6294 16626 128.942
85.7465 16260 127.515
85.8636 16053 126.7
85.9806 16083 126.819
86.0976 16694 129.205
86.2145 16914 130.054
86.3315 17729 133.15
86.4484 17160 130.996
86.5652 17461 132.14
86.682 17131 130.885
86.7988 16894 129.977
86.9156 16075 126.787
87.0323 15691 125.264
87.149 15510 124.539
87.2657 15291 123.657
87.3823 15100 122.882
87.4988 14614 120.888
87.6154 12808 113.172
87.7318 11444 106.977
87.8483 9825 99.1211
87.9647 8167 90.3715
88.081 7049 83.9583
88.1973 6231 78.9367
88.3136 6325 79.5299
88.4298 6715 81.9451
88.546 7609 87.2296
88.6621 8695 93.247
88.7781 9717 98.5748
88.8942 0 1
89.0101 0 1
89.126 0 1
89.2419 0 1
89.3577 0 1
89.4734 0 1
89.5891 0 1
89.7047 0 1
89.8203 0 1
89.9358 0 1
92.3269 0 1
92.4424 0 1
92.558 0 1
92.6736 0 1
92.7893 0 1
92.905 0 1
93.0208 0 1
93.1366 0 1
93.2525 0 1
93.3685 0 1
93.4845 0 1
93.6005 7380 85.9069
93.7167 8022 89.5656
93.8328 9116 95.4777
93.949 10942 104.604
94.0653 13426 115.871
94.1816 15177 123.195
94.2979 16748 129.414
94.4143 17767 133.293
94.5307 18845 137.277
94.6472 19022 137.92
94.7637 19381 139.216
94.8803 19240 138.708
94.9969 19219 138.633
95.1135 19126 138.297
95.2302 19843 140.865
95.3469 20257 142.327
95.4637 20379 142.755
95.5805 20488 143.136
95.6973 20681 143.809
95.8142 20251 142.306
95.9311 20042 141.57
96.048 20036 141.549
96.1649 19768 140.599
96.2819 19699 140.353
96.3989 19658 140.207
96.516 18673 136.649
96.633 18048 134.343
96.7501 15864 125.952
96.8673 14243 119.344
96.9844 12517 111.879
97.1016 11422 106.874
97.2188 10474 102.343
97.336 10185 100.921
97.4532 10600 102.956
97.5704 12026 109.663
97.6877 14277 119.486
97.805 16735 129.364
97.9223 18359 135.495
98.0396 19972 141.322
98.1569 20543 143.328
98.2743 20958 144.769
98.3916 20479 143.105
98.509 20276 142.394
98.6264 19996 141.407
98.7438 20102 141.782
98.8612 20966 144.796
98.9786 21351 146.12
99.096 21334 146.062
99.2134 21972 148.23
99.3308 21679 147.238
99.4482 21468 146.52
99.5656 21189 145.564
99.6831 21022 144.99
99.8005 20949 144.738
99.9179 20552 143.36
100.035 20298 142.471
100.153 19878 140.989
100.27 18227 135.007
100.388 16453 128.269
100.505 14349 119.787
100.622 12840 113.314
100.74 11313 106.363
100.857 10620 103.053
100.975 10922 104.508
101.092 11903 109.101
101.209 13657 116.863
101.327 16258 127.507
101.444 19027 137.938
101.561 20533 143.293
101.679 21210 145.637
101.796 21547 146.789
101.913 21654 147.153
102.03 20877 144.489
102.148 20703 143.885
102.265 20748 144.042
102.382 20818 144.284
102.499 21669 147.204
102.616 21934 148.101
102.733 22067 148.55
102.851 21962 148.196
102.968 22057 148.516
103.085 22220 149.064
103.202 21569 146.864
103.319 21535 146.748
103.436 21206 145.623
103.552 21039 145.048
103.669 20944 144.72
103.786 19549 139.818
103.903 18007 134.19
104.02 15788 125.65
104.137 14126 118.853
104.253 12621 112.343
104.37 11411 106.822
104.487 10989 104.828
104.603 11452 107.014
104.72 12082 109.918
104.836 13380 115.672
104.953 15127 122.992
105.069 16356 127.891
105.186 16861 129.85
105.302 16930 130.115
105.418 16544 128.623
105.535 15558 124.732
105.651 14688 121.194
105.767 13711 117.094
105.883 12578 112.152
105.999 11710 108.213
106.115 0 1
106.231 0 1
106.347 0 1
106.463 0 1
106.579 0 1
106.694 0 1
106.81 0 1
106.926 0 1
107.041 0 1
107.157 0 1
109.576 0 1
109.692 0 1
109.807 0 1
109.923 0 1
110.039 0 1
110.155 0 1
110.27 0 1
110.386 0 1
110.502 0 1
110.618 12375 111.243
110.735 13396 115.741
110.851 14215 119.227
110.967 14791 121.618
111.083 16096 126.87
111.199 17091 130.733
111.316 18045 134.332
111.432 18775 137.022
111.549 19277 138.842
111.665 19565 139.875
111.782 19428 139.384
111.898 19399 139.28
112.015 19219 138.633
112.132 19053 138.033
112.248 19127 138.3
112.365 19128 138.304
112.482 18504 136.029
112.599 16450 128.258
112.716 14033 118.461
112.832 12767 112.991
112.949 11545 107.448
113.066 10610 103.005
113.183 10293 101.454
113.3 10563 102.776
113.417 11538 107.415
113.534 13645 116.812
113.652 15970 126.372
113.769 17617 132.729
113.886 18962 137.703
114.003 19512 139.685
114.12 19609 140.032
114.238 19286 138.874
114.355 18621 136.459
114.472 18495 135.996
114.589 18707 136.774
114.707 18997 137.83
114.824 19515 139.696
114.942 19677 140.275
115.059 19729 140.46
115.176 19511 139.682
115.294 19473 139.546
115.411 19266 138.802
115.529 18793 137.088
115.646 18334 135.403
115.764 18260 135.13
115.881 18124 134.625
115.999 18123 134.622
116.116 17149 130.954
116.234 15431 124.222
116.351 13450 115.974
116.469 12023 109.649
116.586 10983 104.8
116.704 10255 101.267
116.821 10208 101.035
116.939 10519 102.562
117.056 11494 107.21
117.174 13685 116.983
117.291 15835 125.837
117.409 17211 131.191
117.526 17894 133.768
117.644 18249 135.089
117.761 18261 135.133
117.879 17705 133.06
117.996 17187 131.099
118.114 17342 131.689
118.231 17369 131.792
118.349 18209 134.941
118.466 18039 134.309
118.584 18285 135.222
118.701 18033 134.287
118.819 18253 135.104
118.936 17924 133.881
119.053 17602 132.673
119.171 16981 130.311
119.288 16757 129.449
119.405 16710 129.267
119.523 16737 129.372
119.64 16294 127.648
119.757 15934 126.23
119.875 14893 122.037
119.992 13135 114.608
120.109 11943 109.284
120.226 10836 104.096
120.343 10220 101.094
120.46 10012 100.06
120.578 9947 99.7346
120.695 10495 102.445
120.812 11846 108.839
120.929 13353 115.555
121.046 14158 118.987
121.163 14659 121.074
121.279 15092 122.85
121.396 15190 123.248
121.513 14872 121.951
121.63 14114 118.802
121.747 13638 116.782
121.863 13486 116.129
121.98 13712 117.098
122.097 13812 117.524
122.213 13456 116
122.33 13372 115.637
122.446 12794 113.111
122.563 12311 110.955
122.679 11458 107.042
122.795 10861 104.216
122.912 10318 101.578
123.028 9552 97.7343
123.144 8935 94.5251
123.26 8357 91.4166
123.377 0 1
123.493 0 1
123.609 0 1
123.725 0 1
123.84 0 1
123.956 0 1
124.072 0 1
124.188 0 1
124.303 0 1
124.419 0 1
126.852 0 1
126.968 0 1
127.083 0 1
127.199 0 1
127.315 0 1
127.431 0 1
127.547 0 1
127.663 0 1
127.779 0 1
127.895 0 1
128.011 0 1
128.127 0 1
128.243 0 1
128.359 15845 125.877
128.476 16193 127.252
128.592 16426 128.164
128.708 16740 129.383
128.825 16647 129.023
128.941 16015 126.55
129.058 14741 121.413
129.174 13692 117.013
129.291 12523 111.906
129.408 12115 110.068
129.524 11592 107.666
129.641 11608 107.74
129.758 11924 109.197
129.875 12751 112.92
129.992 14112 118.794
130.108 15534 124.635
130.225 16273 127.566
130.342 16987 130.334
130.459 17029 130.495
130.576 17568 132.544
130.693 16859 129.842
130.81 17033 130.511
130.928 17354 131.735
131.045 17598 132.657
131.162 17792 133.387
131.279 18502 136.022
131.396 18318 135.344
131.513 18208 134.937
131.631 18105 134.555
131.748 17977 134.078
131.865 17538 132.431
131.983 17146 130.943
132.1 17050 130.576
132.217 17105 130.786
132.335 17083 130.702
132.452 16779 129.534
132.57 16037 126.637
132.687 14578 120.739
132.804 13884 117.83
132.922 12935 113.732
133.039 12447 111.566
133.157 12213 110.512
133.274 12003 109.558
133.392 12314 110.968
133.509 13624 116.722
133.627 14627 120.942
133.744 15658 125.132
133.862 16344 127.844
133.979 17111 130.809
134.097 17103 130.778
134.214 16760 129.46
134.332 16440 128.219
134.449 16685 129.17
134.567 16937 130.142
134.684 17556 132.499
134.802 17798 133.409
134.919 18016 134.224
135.037 17958 134.007
135.154 17621 132.744
135.272 17343 131.693
135.389 16940 130.154
135.507 16801 129.619
135.624 16563 128.697
135.742 16655 129.054
135.859 16712 129.275
135.977 16416 128.125
136.094 16351 127.871
136.211 15313 123.746
136.329 14216 119.231
136.446 13752 117.269
136.564 13115 114.521
136.681 12684 112.623
136.798 12665 112.539
136.915 12182 110.372
137.033 12337 111.072
137.15 12977 113.917
137.267 14000 118.322
137.384 14985 122.413
137.502 15557 124.728
137.619 15940 126.254
137.736 16118 126.957
137.853 15477 124.407
137.97 15686 125.244
138.087 15625 125
138.204 16075 126.787
138.321 16360 127.906
138.438 16305 127.691
138.555 15864 125.952
138.672 15464 124.354
138.788 15310 123.734
138.905 14629 120.95
139.022 14134 118.887
139.139 13566 116.473
139.255 12879 113.486
139.372 12485 111.736
139.488 12131 110.141
139.605 11536 107.406
139.721 11035 105.048
139.838 10172 100.856
139.954 9333 96.6075
140.071 8292 91.0604
140.187 7500 86.6025
140.303 6683 81.7496
140.419 6368 79.7997
140.535 5796 76.1315
140.652 5297 72.7805
140.768 0 1
140.884 0 1
141 0 1
141.115 0 1
141.231 0 1
141.347 0 1
141.463 0 1
141.578 0 1
141.694 0 1
144.104 0 1
144.219 0 1
144.335 0 1
144.45 0 1
144.566 0 1
144.682 0 1
144.798 0 1
144.914 0 1
145.03 0 1
145.146 9972 99.8599
145.262 10136 100.678
145.378 10244 101.213
145.494 9832 99.1564
145.61 9975 99.8749
145.726 9727 98.6256
145.842 9834 99.1665
145.959 10218 101.084
146.075 10329 101.632
146.192 10812 103.981
146.308 11226 105.953
146.425 11510 107.285
146.541 11475 107.121
146.658 11412 106.827
146.774 11051 105.124
146.891 11301 106.306
147.008 11973 109.421
147.125 11835 108.789
147.241 12133 110.15
147.358 12330 111.041
147.475 12323 111.009
147.592 12347 111.117
147.709 12130 110.136
147.826 11903 109.101
147.943 11919 109.174
148.06 11724 108.277
148.177 11488 107.182
148.294 11550 107.471
148.411 11575 107.587
148.528 11846 108.839
148.645 11670 108.028
148.762 11552 107.48
148.88 11281 106.212
148.997 11212 105.887
149.114 10413 102.044
149.231 10330 101.637
149.349 10519 102.562
149.466 9829 99.1413
149.583 9952 99.7597
149.701 10034 100.17
149.818 10319 101.582
149.935 10546 102.694
150.053 10900 104.403
150.17 11047 105.105
150.287 11220 105.925
150.405 11044 105.09
150.522 10917 104.484
150.64 11245 106.042
150.757 11645 107.912
150.875 11881 109
150.992 12276 110.797
151.11 11961 109.366
151.227 11836 108.793
151.344 11778 108.526
151.462 11838 108.803
151.579 11168 105.679
151.697 11183 105.75
151.814 11110 105.404
151.932 11048 105.109
152.049 11253 106.08
152.167 11317 106.381
152.284 11295 106.278
152.402 11117 105.437
152.519 10839 104.111
152.636 10422 102.088
152.754 10249 101.237
152.871 10064 100.319
152.989 9863 99.3126
153.106 9669 98.3311
153.223 9673 98.3514
153.341 9649 98.2293
153.458 10003 100.015
153.575 10024 100.12
153.693 10316 101.568
153.81 10383 101.897
153.927 10275 101.366
154.044 10153 100.762
154.162 10219 101.089
154.279 10452 102.235
154.396 10738 103.624
154.513 11071 105.219
154.63 11024 104.995
154.747 11138 105.537
154.864 11218 105.915
154.981 10594 102.927
155.098 10567 102.796
155.215 10524 102.587
155.332 10375 101.858
155.449 10226 101.124
155.566 10262 101.302
155.683 10029 100.145
155.8 9891 99.4535
155.917 9665 98.3107
156.033 9547 97.7088
156.15 0 1
156.267 0 1
156.383 0 1
156.5 0 1
156.617 0 1
156.733 0 1
156.85 0 1
156.966 0 1
157.082 0 1
157.199 0 1
157.315 0 1
157.431 0 1
157.547 0 1
157.664 0 1
157.78 0 1
157.896 0 1
158.012 0 1
158.128 0 1
158.244 0 1
158.359 0 1
158.475 0 1
158.591 0 1
158.706 0 1
