
6.15755 0 1
6.2731 0 1
6.3887 0 1
6.50437 0 1
6.62009 0 1
6.73587 0 1
6.8517 0 1
6.96759 0 1
7.08353 0 1
7.19952 0 1
7.31557 0 1
7.43166 0 1
7.54781 0 1
7.664 0 1
7.78024 0 1
7.89653 0 1
8.01286 0 1
8.12924 0 1
8.24567 0 1
8.36213 0 1
8.47864 0 1
8.59519 0 1
8.71178 0 1
8.82841 0 1
8.94508 0 1
9.06179 0 1
9.17853 0 1
9.29531 0 1
9.41212 0 1
9.52897 0 1
9.64584 0 1
9.76276 0 1
9.8797 0 1
9.99667 0 1
10.1137 0 1
10.2307 0 1
10.3478 0 1
10.4648 0 1
10.5819 0 1
10.6991 0 1
10.8162 0 1
10.9334 0 1
11.0506 0 1
11.1678 0 1
11.285 0 1
11.4023 0 1
11.5196 0 1
11.6369 0 1
11.7542 0 1
11.8715 0 1
11.9888 0 1
12.1062 0 1
12.2235 0 1
12.3409 0 1
12.4582 0 1
12.5756 0 1
12.693 0 1
12.8104 0 1
12.9278 0 1
13.0452 0 1
13.1626 0 1
13.28 0 1
13.3974 0 1
13.5149 0 1
13.6323 0 1
13.7497 0 1
13.8671 0 1
13.9845 0 1
14.1019 0 1
14.2193 0 1
14.3367 0 1
14.4541 0 1
14.5714 0 1
14.6888 0 1
14.8062 0 1
14.9235 0 1
15.0408 1305 36.1248
15.1581 1513 38.8973
15.2755 1529 39.1024
15.3927 1603 40.0375
15.51 1518 38.9615
15.6273 1591 39.8873
15.7445 1516 38.9358
15.8617 1496 38.6782
15.9789 1520 38.9872
16.0961 1477 38.4318
16.2132 1521 39
16.3304 1601 40.0125
16.4475 1518 38.9615
16.5646 1569 39.6106
16.6816 1727 41.5572
16.7986 1759 41.9404
16.9156 1833 42.8135
17.0326 1816 42.6146
17.1496 1740 41.7133
17.2665 1759 41.9404
17.3833 1780 42.19
17.5002 1732 41.6173
17.617 1652 40.6448
17.7338 1613 40.1622
17.8505 1518 38.9615
17.9672 1501 38.7427
18.0839 1672 40.8901
18.2005 1589 39.8623
18.3171 1542 39.2683
18.4337 1649 40.6079
18.5502 1676 40.939
18.6666 1730 41.5933
18.7831 1722 41.497
18.8994 1773 42.107
19.0158 1717 41.4367
19.1321 1711 41.3642
19.2483 1632 40.398
19.3645 1489 38.5876
19.4806 1445 38.0132
19.5967 1348 36.7151
19.7128 1323 36.3731
19.8288 1185 34.4238
19.9447 1133 33.6601
20.0606 0 1
20.1764 0 1
20.2922 0 1
20.4079 0 1
20.5236 0 1
20.6392 0 1
20.7548 0 1
20.8702 0 1
23.3078 0 1
23.4233 0 1
23.539 0 1
23.6547 0 1
23.7704 0 1
23.8862 0 1
24.0021 0 1
24.118 0 1
24.234 0 1
24.35 0 1
24.4661 729 27
24.5822 890 29.8329
24.6984 952 30.8545
24.8146 1080 32.8634
24.9309 1181 34.3657
25.0472 1274 35.6931
25.1636 1485 38.5357
25.28 1526 39.064
25.3965 1667 40.8289
25.513 1830 42.7785
25.6296 1817 42.6263
25.7462 1937 44.0114
25.8628 1828 42.7551
25.9795 1854 43.0581
26.0962 1887 43.4396
26.213 1770 42.0714
26.3298 1668 40.8412
26.4466 1662 40.7676
26.5635 1651 40.6325
26.6804 1554 39.4208
26.7973 1740 41.7133
26.9143 1692 41.1339
27.0313 1690 41.1096
27.1483 1839 42.8836
27.2653 1809 42.5323
27.3824 1863 43.1625
27.4996 1814 42.5911
27.6167 1737 41.6773
27.7339 1762 41.9762
27.8511 1714 41.4005
27.9683 1675 40.9268
28.0855 1627 40.3361
28.2028 1586 39.8246
28.3201 1511 38.8716
28.4374 1494 38.6523
28.5547 1527 39.0768
28.6721 1640 40.4969
28.7894 1690 41.1096
28.9068 1697 41.1947
29.0242 1821 42.6732
29.1416 1902 43.6119
29.259 1902 43.6119
29.3764 1859 43.1161
29.4939 1839 42.8836
29.6113 1869 43.2319
29.7288 1727 41.5572
29.8463 1692 41.1339
29.9638 1562 39.5221
30.0812 1511 38.8716
30.1987 1580 39.7492
30.3162 1646 40.5709
30.4337 1592 39.8999
30.5512 1631 40.3856
30.6687 1707 41.3159
30.7862 1651 40.6325
30.9037 1740 41.7133
31.0212 1739 41.7013
31.1387 1742 41.7373
31.2562 1715 41.4126
31.3737 1712 41.3763
31.4912 1630 40.3733
31.6087 1631 40.3856
31.7262 1566 39.5727
31.8436 1552 39.3954
31.9611 1461 38.223
32.0785 1524 39.0384
32.1959 1572 39.6485
32.3134 1613 40.1622
32.4308 1679 40.9756
32.5482 1744 41.7612
32.6655 1708 41.328
32.7829 1801 42.4382
32.9002 1773 42.107
33.0176 1740 41.7133
33.1349 1820 42.6615
33.2522 1832 42.8019
33.3694 1645 40.5586
33.4867 1546 39.3192
33.6039 1501 38.7427
33.7211 1423 37.7227
33.8383 1402 37.4433
33.9554 1396 37.3631
34.0725 1565 39.5601
34.1896 1534 39.1663
34.3067 1589 39.8623
34.4237 1674 40.9145
34.5407 1715 41.4126
34.6577 1697 41.1947
34.7746 1609 40.1123
34.8915 1647 40.5832
35.0084 1682 41.0122
35.1252 1563 39.5348
35.242 1559 39.4842
35.3587 1463 38.2492
35.4755 1432 37.8418
35.5921 1465 38.2753
35.7088 1415 37.6165
35.8254 1417 37.6431
35.9419 1388 37.2559
36.0584 1492 38.6264
36.1749 1552 39.3954
36.2913 1608 40.0999
36.4077 1564 39.5474
36.524 1522 39.0128
36.6403 1521 39
36.7565 1418 37.6563
36.8727 1412 37.5766
36.9889 1276 35.7211
37.1049 1152 33.9411
37.221 0 1
37.3369 0 1
37.4529 0 1
37.5687 0 1
37.6845 0 1
37.8003 0 1
37.916 0 1
38.0316 0 1
38.1472 0 1
40.5851 0 1
40.7008 0 1
40.8164 0 1
40.9322 0 1
41.048 0 1
41.1639 0 1
41.2798 0 1
41.3958 0 1
41.5118 0 1
41.6279 0 1
41.744 800 28.2843
41.8602 943 30.7083
41.9765 947 30.7734
42.0928 1008 31.749
42.2091 969 31.1288
42.3255 992 31.496
42.4419 941 30.6757
42.5584 980 31.305
42.675 1110 33.3167
42.7915 1202 34.6699
42.9081 1280 35.7771
43.0248 1316 36.2767
43.1415 1254 35.4119
43.2582 1300 36.0555
43.375 1377 37.108
43.4918 1388 37.2559
43.6087 1354 36.7967
43.7256 1340 36.606
43.8425 1360 36.8782
43.9595 1341 36.6197
44.0765 1248 35.327
44.1935 1276 35.7211
44.3106 1179 34.3366
44.4277 1154 33.9706
44.5448 1159 34.0441
44.6619 1200 34.641
44.7791 1161 34.0735
44.8963 1364 36.9324
45.0136 1337 36.565
45.1308 1410 37.55
45.2481 1389 37.2693
45.3654 1466 38.2884
45.4827 1429 37.8021
45.6001 1386 37.229
45.7174 1445 38.0132
45.8348 1231 35.0856
45.9522 1273 35.6791
46.0697 1162 34.0881
46.1871 1102 33.1964
46.3046 1159 34.0441
46.422 1265 35.5668
46.5395 1275 35.7071
46.657 1322 36.3593
46.7745 1325 36.4005
46.892 1332 36.4966
47.0096 1396 37.3631
47.1271 1383 37.1887
47.2446 1471 38.3536
47.3622 1391 37.2961
47.4797 1362 36.9053
47.5973 1360 36.8782
47.7149 1293 35.9583
47.8324 1201 34.6554
47.95 1226 35.0143
48.0675 1200 34.641
48.1851 1178 34.322
48.3027 1294 35.9722
48.4202 1366 36.9594
48.5378 1316 36.2767
48.6554 1423 37.7227
48.7729 1449 38.0657
48.8904 1391 37.2961
49.008 1458 38.1838
49.1255 1397 37.3765
49.243 1350 36.7423
49.3605 1241 35.2278
49.478 1212 34.8138
49.5955 1141 33.7787
49.713 1074 32.7719
49.8304 1135 33.6898
49.9479 1243 35.2562
50.0653 1266 35.5809
50.1827 1375 37.081
50.3001 1335 36.5377
50.4175 1370 37.0135
50.5348 1456 38.1576
50.6521 1420 37.6829
50.7694 1444 38
50.8867 1480 38.4708
51.004 1446 38.0263
51.1212 1403 37.4566
51.2384 1362 36.9053
51.3556 1362 36.9053
51.4727 1308 36.1663
51.5899 1239 35.1994
51.707 1233 35.1141
51.824 1371 37.027
51.9411 1468 38.3145
52.0581 1572 39.6485
52.175 1710 41.3521
52.2919 1710 41.3521
52.4088 1721 41.4849
52.5257 1823 42.6966
52.6425 1813 42.5793
52.7593 1941 44.0568
52.876 1772 42.0951
52.9927 1694 41.1582
53.1094 1598 39.975
53.226 1508 38.833
53.3426 1494 38.6523
53.4591 1456 38.1576
53.5756 1506 38.8072
53.692 1481 38.4838
53.8084 1444 38
53.9248 1458 38.1838
54.0411 1355 36.8103
54.1573 1313 36.2353
54.2735 0 1
54.3896 0 1
54.5057 0 1
54.6217 0 1
54.7377 0 1
54.8537 0 1
54.9695 0 1
55.0853 0 1
55.2011 0 1
55.3168 0 1
55.4324 0 1
57.824 0 1
57.9396 0 1
58.0553 0 1
58.1711 0 1
58.2869 0 1
58.4028 0 1
58.5187 0 1
58.6347 0 1
58.7508 0 1
58.8669 0 1
58.983 1062 32.5883
59.0992 1267 35.5949
59.2155 1334 36.524
59.3318 1406 37.4967
59.4482 1523 39.0256
59.5646 1587 39.8372
59.681 1620 40.2492
59.7975 1615 40.1871
59.9141 1627 40.3361
60.0306 1586 39.8246
60.1473 1550 39.37
60.2639 1448 38.0526
60.3807 1508 38.833
60.4974 1479 38.4578
60.6142 1610 40.1248
60.731 1663 40.7799
60.8479 1692 41.1339
60.9648 1829 42.7668
61.0818 1855 43.0697
61.1987 1805 42.4853
61.3158 1784 42.2374
61.4328 1661 40.7554
61.5499 1629 40.3609
61.667 1484 38.5227
61.7841 1431 37.8286
61.9013 1353 36.7831
62.0185 1313 36.2353
62.1357 1490 38.6005
62.253 1532 39.1408
62.3702 1611 40.1373
62.4875 1656 40.694
62.6049 1701 41.2432
62.7222 1739 41.7013
62.8396 1780 42.19
62.9569 1754 41.8808
63.0743 1756 41.9047
63.1918 1735 41.6533
63.3092 1696 41.1825
63.4267 1683 41.0244
63.5441 1623 40.2865
63.6616 1544 39.2938
63.7791 1500 38.7298
63.8966 1384 37.2022
64.0142 1404 37.47
64.1317 1485 38.5357
64.2492 1595 39.9375
64.3668 1661 40.7554
64.4843 1827 42.7434
64.6019 1697 41.1947
64.7195 1746 41.7852
64.837 1723 41.509
64.9546 1697 41.1947
65.0722 1674 40.9145
65.1898 1527 39.0768
65.3074 1360 36.8782
65.4249 1369 37
65.5425 1283 35.819
65.6601 1360 36.8782
65.7777 1426 37.7624
65.8952 1485 38.5357
66.0128 1529 39.1024
66.1304 1570 39.6232
66.2479 1679 40.9756
66.3655 1695 41.1704
66.483 1817 42.6263
66.6005 1699 41.2189
66.718 1716 41.4246
66.8355 1701 41.2432
66.953 1648 40.5956
67.0705 1687 41.0731
67.1879 1555 39.4335
67.3054 1514 38.9102
67.4228 1372 37.0405
67.5402 1321 36.3456
67.6576 1370 37.0135
67.7749 1419 37.6696
67.8923 1523 39.0256
68.0096 1653 40.6571
68.1269 1711 41.3642
68.2442 1641 40.5093
68.3614 1684 41.0366
68.4787 1693 41.1461
68.5958 1671 40.8779
68.713 1554 39.4208
68.8302 1466 38.2884
68.9473 1312 36.2215
69.0643 1348 36.7151
69.1814 1158 34.0294
69.2984 1239 35.1994
69.4154 1402 37.4433
69.5323 1448 38.0526
69.6492 1475 38.4057
69.7661 1571 39.6358
69.8829 1536 39.1918
69.9997 1593 39.9124
70.1165 1568 39.598
70.2332 1528 39.0896
70.3499 1451 38.092
70.4665 1397 37.3765
70.5831 1317 36.2905
70.6996 1172 34.2345
70.8161 1150 33.9116
70.9326 1026 32.0312
71.049 924 30.3974
71.1653 807 28.4077
71.2817 674 25.9615
71.3979 631 25.1197
71.5141 668 25.8457
71.6303 613 24.7588
71.7464 538 23.1948
71.8624 0 1
71.9784 0 1
72.0944 0 1
72.2102 0 1
72.3261 0 1
72.4418 0 1
72.5575 0 1
72.6732 0 1
75.1054 0 1
75.2209 0 1
75.3365 0 1
75.4521 0 1
75.5678 0 1
75.6835 0 1
75.7993 0 1
75.9151 0 1
76.031 0 1
76.147 988 31.4325
76.263 1064 32.619
76.3791 1129 33.6006
76.4952 1064 32.619
76.6113 1124 33.5261
76.7276 1152 33.9411
76.8438 1314 36.2491
76.9601 1331 36.4829
77.0765 1376 37.0945
77.1929 1451 38.092
77.3093 1511 38.8716
77.4258 1449 38.0657
77.5423 1556 39.4462
77.6589 1315 36.2629
77.7755 1289 35.9026
77.8921 1151 33.9264
78.0088 1034 32.1559
78.1256 1010 31.7805
78.2423 1017 31.8904
78.3591 1101 33.1813
78.4759 1158 34.0294
78.5928 1225 35
78.7097 1356 36.8239
78.8266 1429 37.8021
78.9436 1358 36.8511
79.0606 1456 38.1576
79.1776 1512 38.8844
79.2946 1469 38.3275
79.4117 1455 38.1445
79.5288 1410 37.55
79.6459 1457 38.1707
79.7631 1385 37.2156
79.8802 1321 36.3456
79.9974 1318 36.3043
80.1147 1191 34.5109
80.2319 1197 34.5977
80.3491 1273 35.6791
80.4664 1279 35.7631
80.5837 1350 36.7423
80.701 1422 37.7094
80.8183 1511 38.8716
80.9357 1494 38.6523
81.053 1461 38.223
81.1704 1509 38.8458
81.2877 1554 39.4208
81.4051 1465 38.2753
81.5225 1331 36.4829
81.6399 1225 35
81.7573 1122 33.4963
81.8747 1044 32.311
81.9922 1100 33.1662
82.1096 1204 34.6987
82.227 1299 36.0416
82.3444 1310 36.1939
82.4619 1440 37.9473
82.5793 1476 38.4187
82.6967 1473 38.3797
82.8142 1504 38.7814
82.9316 1501 38.7427
83.049 1590 39.8748
83.1664 1556 39.4462
83.2838 1516 38.9358
83.4012 1435 37.8814
83.5186 1380 37.1484
83.636 1355 36.8103
83.7534 1236 35.1568
83.8708 1244 35.2704
83.9881 1194 34.5543
84.1055 1302 36.0832
84.2228 1325 36.4005
84.3401 1444 38
84.4575 1503 38.7685
84.5747 1552 39.3954
84.692 1472 38.3667
84.8093 1525 39.0512
84.9265 1484 38.5227
85.0437 1436 37.8946
85.1609 1282 35.805
85.2781 1092 33.0454
85.3952 1066 32.6497
85.5123 1030 32.0936
85.6294 1080 32.8634
85.7465 1216 34.8712
85.8636 1344 36.6606
85.9806 1313 36.2353
86.0976 1487 38.5616
86.2145 1409 37.5366
86.3315 1432 37.8418
86.4484 1585 39.8121
86.5652 1512 38.8844
86.682 1464 38.2623
86.7988 1511 38.8716
86.9156 1519 38.9744
87.0323 1517 38.9487
87.149 1455 38.1445
87.2657 1398 37.3898
87.3823 1114 33.3766
87.4988 1118 33.4365
87.6154 1032 32.1248
87.7318 1105 33.2415
87.8483 1138 33.7343
87.9647 1181 34.3657
88.081 1243 35.2562
88.1973 1193 34.5398
88.3136 1160 34.0588
88.4298 1110 33.3167
88.546 950 30.8221
88.6621 883 29.7153
88.7781 664 25.7682
88.8942 0 1
89.0101 0 1
89.126 0 1
89.2419 0 1
89.3577 0 1
89.4734 0 1
89.5891 0 1
89.7047 0 1
89.8203 0 1
89.9358 0 1
92.3269 0 1
92.4424 0 1
92.558 0 1
92.6736 0 1
92.7893 0 1
92.905 0 1
93.0208 0 1
93.1366 0 1
93.2525 0 1
93.3685 0 1
93.4845 0 1
93.6005 1231 35.0856
93.7167 1200 34.641
93.8328 1195 34.5688
93.949 1329 36.4555
94.0653 1302 36.0832
94.1816 1330 36.4692
94.2979 1220 34.9285
94.4143 1170 34.2053
94.5307 1147 33.8674
94.6472 1075 32.7872
94.7637 1116 33.4066
94.8803 1224 34.9857
94.9969 1353 36.7831
95.1135 1420 37.6829
95.2302 1484 38.5227
95.3469 1506 38.8072
95.4637 1588 39.8497
95.5805 1596 39.95
95.6973 1582 39.7744
95.8142 1589 39.8623
95.9311 1523 39.0256
96.048 1563 39.5348
96.1649 1500 38.7298
96.2819 1522 39.0128
96.3989 1419 37.6696
96.516 1419 37.6696
96.633 1257 35.4542
96.7501 1247 35.3129
96.8673 1285 35.8469
96.9844 1364 36.9324
97.1016 1505 38.7943
97.2188 1495 38.6652
97.336 1608 40.0999
97.4532 1589 39.8623
97.5704 1611 40.1373
97.6877 1554 39.4208
97.805 1523 39.0256
97.9223 1395 37.3497
98.0396 1276 35.7211
98.1569 1173 34.2491
98.2743 1078 32.8329
98.3916 1121 33.4813
98.509 1199 34.6266
98.6264 1397 37.3765
98.7438 1436 37.8946
98.8612 1427 37.7757
98.9786 1515 38.923
99.096 1525 39.0512
99.2134 1705 41.2916
99.3308 1639 40.4846
99.4482 1730 41.5933
99.5656 1593 39.9124
99.6831 1699 41.2189
99.8005 1617 40.2119
99.9179 1575 39.6863
100.035 1562 39.5221
100.153 1442 37.9737
100.27 1322 36.3593
100.388 1349 36.7287
100.505 1438 37.921
100.622 1560 39.4968
100.74 1599 39.9875
100.857 1709 41.3401
100.975 1656 40.694
101.092 1658 40.7185
101.209 1694 41.1582
101.327 1691 41.1218
101.444 1513 38.8973
101.561 1363 36.9188
101.679 1274 35.6931
101.796 1188 34.4674
101.913 1133 33.6601
102.03 1270 35.6371
102.148 1388 37.2559
102.265 1393 37.3229
102.382 1580 39.7492
102.499 1626 40.3237
102.616 1624 40.2989
102.733 1692 41.1339
102.851 1764 42
102.968 1754 41.8808
103.085 1744 41.7612
103.202 1718 41.4488
103.319 1747 41.7971
103.436 1746 41.7852
103.552 1571 39.6358
103.669 1608 40.0999
103.786 1475 38.4057
103.903 1418 37.6563
104.02 1553 39.4081
104.137 1564 39.5474
104.253 1696 41.1825
104.37 1753 41.8688
104.487 1763 41.9881
104.603 1774 42.1189
104.72 1695 41.1704
104.836 1676 40.939
104.953 1587 39.8372
105.069 1307 36.1525
105.186 1230 35.0714
105.302 1134 33.6749
105.418 1094 33.0757
105.535 1104 33.2265
105.651 1117 33.4215
105.767 1154 33.9706
105.883 1077 32.8177
105.999 1041 32.2645
106.115 0 1
106.231 0 1
106.347 0 1
106.463 0 1
106.579 0 1
106.694 0 1
106.81 0 1
106.926 0 1
107.041 0 1
107.157 0 1
109.576 0 1
109.692 0 1
109.807 0 1
109.923 0 1
110.039 0 1
110.155 0 1
110.27 0 1
110.386 0 1
110.502 0 1
110.618 734 27.0924
110.735 960 30.9839
110.851 1116 33.4066
110.967 1219 34.9142
111.083 1383 37.1887
111.199 1419 37.6696
111.316 1439 37.9342
111.432 1456 38.1576
111.549 1594 39.9249
111.665 1574 39.6737
111.782 1582 39.7744
111.898 1558 39.4715
112.015 1586 39.8246
112.132 1509 38.8458
112.248 1392 37.3095
112.365 1323 36.3731
112.482 1363 36.9188
112.599 1467 38.3014
112.716 1485 38.5357
112.832 1656 40.694
112.949 1592 39.8999
113.066 1581 39.7618
113.183 1611 40.1373
113.3 1658 40.7185
113.417 1615 40.1871
113.534 1509 38.8458
113.652 1331 36.4829
113.769 1283 35.819
113.886 1114 33.3766
114.003 1028 32.0624
114.12 1205 34.7131
114.238 1341 36.6197
114.355 1409 37.5366
114.472 1462 38.2361
114.589 1607 40.0874
114.707 1545 39.3065
114.824 1677 40.9512
114.942 1698 41.2068
115.059 1613 40.1622
115.176 1736 41.6653
115.294 1642 40.5216
115.411 1601 40.0125
115.529 1650 40.6202
115.646 1563 39.5348
115.764 1480 38.4708
115.881 1378 37.1214
115.999 1376 37.0945
116.116 1483 38.5097
116.234 1495 38.6652
116.351 1560 39.4968
116.469 1618 40.2244
116.586 1652 40.6448
116.704 1682 41.0122
116.821 1617 40.2119
116.939 1697 41.1947
117.056 1638 40.4722
117.174 1436 37.8946
117.291 1347 36.7015
117.409 1174 34.2637
117.526 1138 33.7343
117.644 1157 34.0147
117.761 1275 35.7071
117.879 1366 36.9594
117.996 1366 36.9594
118.114 1489 38.5876
118.231 1467 38.3014
118.349 1552 39.3954
118.466 1585 39.8121
118.584 1568 39.598
118.701 1643 40.5339
118.819 1618 40.2244
118.936 1579 39.7366
119.053 1536 39.1918
119.171 1454 38.1314
119.288 1497 38.6911
119.405 1353 36.7831
119.523 1317 36.2905
119.64 1311 36.2077
119.757 1334 36.524
119.875 1346 36.6879
119.992 1446 38.0263
120.109 1486 38.5487
120.226 1530 39.1152
120.343 1543 39.281
120.46 1527 39.0768
120.578 1515 38.923
120.695 1479 38.4578
120.812 1411 37.5633
120.929 1319 36.318
121.046 1151 33.9264
121.163 1092 33.0454
121.279 1016 31.8748
121.396 1114 33.3766
121.513 1082 32.8938
121.63 1205 34.7131
121.747 1250 35.3553
121.863 1272 35.6651
121.98 1217 34.8855
122.097 1240 35.2136
122.213 1293 35.9583
122.33 1175 34.2783
122.446 1189 34.4819
122.563 1087 32.9697
122.679 1120 33.4664
122.795 953 30.8707
122.912 884 29.7321
123.028 784 28
123.144 694 26.3439
123.26 657 25.632
123.377 0 1
123.493 0 1
123.609 0 1
123.725 0 1
123.84 0 1
123.956 0 1
124.072 0 1
124.188 0 1
124.303 0 1
124.419 0 1
126.852 0 1
126.968 0 1
127.083 0 1
127.199 0 1
127.315 0 1
127.431 0 1
127.547 0 1
127.663 0 1
127.779 0 1
127.895 0 1
128.011 0 1
128.127 0 1
128.243 0 1
128.359 1376 37.0945
128.476 1371 37.027
128.592 1457 38.1707
128.708 1485 38.5357
128.825 1443 37.9868
128.941 1529 39.1024
129.058 1670 40.8656
129.174 1696 41.1825
129.291 1717 41.4367
129.408 1679 40.9756
129.524 1730 41.5933
129.641 1593 39.9124
129.758 1611 40.1373
129.875 1543 39.281
129.992 1445 38.0132
130.108 1300 36.0555
130.225 1202 34.6699
130.342 1207 34.7419
130.459 1272 35.6651
130.576 1446 38.0263
130.693 1499 38.7169
130.81 1509 38.8458
130.928 1568 39.598
131.045 1548 39.3446
131.162 1617 40.2119
131.279 1576 39.6989
131.396 1679 40.9756
131.513 1647 40.5832
131.631 1622 40.2741
131.748 1614 40.1746
131.865 1554 39.4208
131.983 1510 38.8587
132.1 1534 39.1663
132.217 1444 38
132.335 1484 38.5227
132.452 1484 38.5227
132.57 1658 40.7185
132.687 1727 41.5572
132.804 1672 40.8901
132.922 1701 41.2432
133.039 1613 40.1622
133.157 1723 41.509
133.274 1693 41.1461
133.392 1650 40.6202
133.509 1475 38.4057
133.627 1383 37.1887
133.744 1324 36.3868
133.862 1288 35.8887
133.979 1309 36.1801
134.097 1384 37.2022
134.214 1468 38.3145
134.332 1544 39.2938
134.449 1642 40.5216
134.567 1570 39.6232
134.684 1646 40.5709
134.802 1659 40.7308
134.919 1648 40.5956
135.037 1708 41.328
135.154 1628 40.3485
135.272 1669 40.8534
135.389 1640 40.4969
135.507 1601 40.0125
135.624 1492 38.6264
135.742 1485 38.5357
135.859 1523 39.0256
135.977 1580 39.7492
136.094 1554 39.4208
136.211 1638 40.4722
136.329 1667 40.8289
136.446 1671 40.8779
136.564 1696 41.1825
136.681 1750 41.833
136.798 1688 41.0853
136.915 1667 40.8289
137.033 1648 40.5956
137.15 1496 38.6782
137.267 1417 37.6431
137.384 1317 36.2905
137.502 1194 34.5543
137.619 1272 35.6651
137.736 1435 37.8814
137.853 1370 37.0135
137.97 1547 39.3319
138.087 1624 40.2989
138.204 1650 40.6202
138.321 1638 40.4722
138.438 1611 40.1373
138.555 1630 40.3733
138.672 1722 41.497
138.788 1626 40.3237
138.905 1499 38.7169
139.022 1427 37.7757
139.139 1344 36.6606
139.255 1305 36.1248
139.372 1249 35.3412
139.488 1166 34.1467
139.605 1116 33.4066
139.721 1122 33.4963
139.838 1139 33.7491
139.954 1151 33.9264
140.071 1073 32.7567
140.187 970 31.1448
140.303 876 29.5973
140.419 847 29.1033
140.535 853 29.2062
140.652 749 27.3679
140.768 0 1
140.884 0 1
141 0 1
141.115 0 1
141.231 0 1
141.347 0 1
141.463 0 1
141.578 0 1
141.694 0 1
144.104 0 1
144.219 0 1
144.335 0 1
144.45 0 1
144.566 0 1
144.682 0 1
144.798 0 1
144.914 0 1
145.03 0 1
145.146 1265 35.5668
145.262 1326 36.4143
145.378 1296 36
145.494 1307 36.1525
145.61 1315 36.2629
145.726 1336 36.5513
145.842 1194 34.5543
145.959 1166 34.1467
146.075 1064 32.619
146.192 994 31.5278
146.308 1045 32.3265
146.425 1076 32.8024
146.541 1141 33.7787
146.658 1190 34.4964
146.774 1199 34.6266
146.891 1166 34.1467
147.008 1275 35.7071
147.125 1271 35.6511
147.241 1327 36.428
147.358 1258 35.4683
147.475 1324 36.3868
147.592 1288 35.8887
147.709 1265 35.5668
147.826 1272 35.6651
147.943 1131 33.6303
148.06 1214 34.8425
148.177 1130 33.6155
148.294 1162 34.0881
148.411 1222 34.9571
148.528 1258 35.4683
148.645 1246 35.2987
148.762 1286 35.8608
148.88 1373 37.054
148.997 1318 36.3043
149.114 1371 37.027
149.231 1325 36.4005
149.349 1346 36.6879
149.466 1208 34.7563
149.583 1149 33.8969
149.701 1089 33
149.818 1060 32.5576
149.935 1044 32.311
150.053 1043 32.2955
150.17 1088 32.9848
150.287 1101 33.1813
150.405 1176 34.2929
150.522 1278 35.7491
150.64 1277 35.7351
150.757 1216 34.8712
150.875 1261 35.5106
150.992 1319 36.318
151.11 1285 35.8469
151.227 1280 35.7771
151.344 1218 34.8999
151.462 1145 33.8378
151.579 1233 35.1141
151.697 1154 33.9706
151.814 1108 33.2866
151.932 1084 32.9242
152.049 1190 34.4964
152.167 1236 35.1568
152.284 1189 34.4819
152.402 1245 35.2846
152.519 1272 35.6651
152.636 1215 34.8569
152.754 1317 36.2905
152.871 1246 35.2987
152.989 1285 35.8469
153.106 1170 34.2053
153.223 1066 32.6497
153.341 1044 32.311
153.458 973 31.1929
153.575 965 31.0644
153.693 1032 32.1248
153.81 1058 32.5269
153.927 1042 32.28
154.044 1078 32.8329
154.162 1104 33.2265
154.279 1160 34.0588
154.396 1184 34.4093
154.513 1187 34.4529
154.63 1136 33.7046
154.747 1182 34.3802
154.864 1157 34.0147
154.981 1154 33.9706
155.098 1102 33.1964
155.215 1134 33.6749
155.332 1112 33.3467
155.449 1066 32.6497
155.566 1034 32.1559
155.683 1158 34.0294
155.8 1103 33.2114
155.917 1131 33.6303
156.033 1048 32.3728
156.15 0 1
156.267 0 1
156.383 0 1
156.5 0 1
156.617 0 1
156.733 0 1
156.85 0 1
156.966 0 1
157.082 0 1
157.199 0 1
157.315 0 1
157.431 0 1
157.547 0 1
157.664 0 1
157.78 0 1
157.896 0 1
158.012 0 1
158.128 0 1
158.244 0 1
158.359 0 1
158.475 0 1
158.591 0 1
158.706 0 1
