
6.15755 0 1
6.2731 0 1
6.3887 0 1
6.50437 0 1
6.62009 0 1
6.73587 0 1
6.8517 0 1
6.96759 0 1
7.08353 0 1
7.19952 0 1
7.31557 0 1
7.43166 0 1
7.54781 0 1
7.664 0 1
7.78024 0 1
7.89653 0 1
8.01286 0 1
8.12924 0 1
8.24567 0 1
8.36213 0 1
8.47864 0 1
8.59519 0 1
8.71178 0 1
8.82841 0 1
8.94508 0 1
9.06179 0 1
9.17853 0 1
9.29531 0 1
9.41212 0 1
9.52897 0 1
9.64584 0 1
9.76276 0 1
9.8797 0 1
9.99667 0 1
10.1137 0 1
10.2307 0 1
10.3478 0 1
10.4648 0 1
10.5819 0 1
10.6991 0 1
10.8162 0 1
10.9334 0 1
11.0506 0 1
11.1678 0 1
11.285 0 1
11.4023 0 1
11.5196 0 1
11.6369 0 1
11.7542 0 1
11.8715 0 1
11.9888 0 1
12.1062 0 1
12.2235 0 1
12.3409 0 1
12.4582 0 1
12.5756 0 1
12.693 0 1
12.8104 0 1
12.9278 0 1
13.0452 0 1
13.1626 0 1
13.28 0 1
13.3974 0 1
13.5149 0 1
13.6323 0 1
13.7497 0 1
13.8671 0 1
13.9845 0 1
14.1019 0 1
14.2193 0 1
14.3367 0 1
14.4541 0 1
14.5714 0 1
14.6888 0 1
14.8062 0 1
14.9235 0 1
15.0408 23057 151.845
15.1581 23610 153.655
15.2755 24103 155.251
15.3927 24159 155.432
15.51 23876 154.519
15.6273 23685 153.899
15.7445 23524 153.375
15.8617 23014 151.704
15.9789 22500 150
16.0961 22168 148.889
16.2132 21984 148.27
16.3304 22157 148.852
16.4475 22018 148.385
16.5646 22227 149.087
16.6816 22282 149.272
16.7986 22085 148.61
16.9156 22138 148.788
17.0326 22229 149.094
17.1496 22087 148.617
17.2665 22512 150.04
17.3833 22983 151.601
17.5002 23001 151.661
17.617 23296 152.63
17.7338 24086 155.197
17.8505 24483 156.47
17.9672 25584 159.95
18.0839 26758 163.579
18.2005 28210 167.958
18.3171 28538 168.932
18.4337 28848 169.847
18.5502 28716 169.458
18.6666 28882 169.947
18.7831 28958 170.171
18.8994 27686 166.391
19.0158 27184 164.876
19.1321 25950 161.09
19.2483 25185 158.698
19.3645 24658 157.029
19.4806 24348 156.038
19.5967 23256 152.499
19.7128 23045 151.806
19.8288 22105 148.678
19.9447 19953 141.255
20.0606 0 1
20.1764 0 1
20.2922 0 1
20.4079 0 1
20.5236 0 1
20.6392 0 1
20.7548 0 1
20.8702 0 1
23.3078 0 1
23.4233 0 1
23.539 0 1
23.6547 0 1
23.7704 0 1
23.8862 0 1
24.0021 0 1
24.118 0 1
24.234 0 1
24.35 0 1
24.4661 22748 150.824
24.5822 23041 151.793
24.6984 23043 151.799
24.8146 23043 151.799
24.9309 22717 150.722
25.0472 22363 149.543
25.1636 22477 149.923
25.28 22435 149.783
25.3965 22528 150.093
25.513 23107 152.01
25.6296 23704 153.961
25.7462 24511 156.56
25.8628 24617 156.898
25.9795 24589 156.809
26.0962 24653 157.013
26.213 24663 157.045
26.3298 25089 158.395
26.4466 25467 159.584
26.5635 25899 160.932
26.6804 26973 164.235
26.7973 26920 164.073
26.9143 27032 164.414
27.0313 27277 165.158
27.1483 26839 163.826
27.2653 27002 164.323
27.3824 26939 164.131
27.4996 26092 161.53
27.6167 25121 158.496
27.7339 24172 155.473
27.8511 23460 153.167
27.9683 22902 151.334
28.0855 22601 150.336
28.2028 22757 150.854
28.3201 21930 148.088
28.4374 22206 149.017
28.5547 22158 148.856
28.6721 21868 147.878
28.7894 22200 148.997
28.9068 21875 147.902
29.0242 21976 148.243
29.1416 21766 147.533
29.259 22088 148.62
29.3764 21864 147.865
29.4939 22196 148.983
29.6113 22196 148.983
29.7288 22747 150.821
29.8463 23187 152.273
29.9638 23976 154.842
30.0812 24652 157.01
30.1987 25400 159.374
30.3162 25503 159.697
30.4337 25372 159.286
30.5512 25759 160.496
30.6687 25446 159.518
30.7862 25583 159.947
30.9037 24895 157.781
31.0212 24564 156.729
31.1387 23707 153.971
31.2562 23057 151.845
31.3737 22565 150.217
31.4912 21504 146.642
31.6087 21316 146
31.7262 20843 144.371
31.8436 21000 144.914
31.9611 20754 144.062
32.0785 21107 145.282
32.1959 21460 146.492
32.3134 21444 146.438
32.4308 21712 147.35
32.5482 21984 148.27
32.6655 21844 147.797
32.7829 21410 146.322
32.9002 21159 145.461
33.0176 21207 145.626
33.1349 21145 145.413
33.2522 21601 146.973
33.3694 21636 147.092
33.4867 22443 149.81
33.6039 22864 151.208
33.7211 23574 153.538
33.8383 23881 154.535
33.9554 24344 156.026
34.0725 24178 155.493
34.1896 24279 155.817
34.3067 23915 154.645
34.4237 23507 153.32
34.5407 23260 152.512
34.6577 22795 150.98
34.7746 22031 148.428
34.8915 21746 147.465
35.0084 21005 144.931
35.1252 20789 144.184
35.242 20207 142.151
35.3587 19638 140.136
35.4755 20001 141.425
35.5921 20016 141.478
35.7088 20649 143.698
35.8254 20966 144.796
35.9419 21292 145.918
36.0584 21552 146.806
36.1749 21583 146.912
36.2913 21118 145.32
36.4077 21039 145.048
36.524 20492 143.15
36.6403 19952 141.252
36.7565 20019 141.489
36.8727 19739 140.496
36.9889 20125 141.863
37.1049 20213 142.172
37.221 0 1
37.3369 0 1
37.4529 0 1
37.5687 0 1
37.6845 0 1
37.8003 0 1
37.916 0 1
38.0316 0 1
38.1472 0 1
40.5851 0 1
40.7008 0 1
40.8164 0 1
40.9322 0 1
41.048 0 1
41.1639 0 1
41.2798 0 1
41.3958 0 1
41.5118 0 1
41.6279 0 1
41.744 16088 126.838
41.8602 17222 131.233
41.9765 17240 131.301
42.0928 17445 132.08
42.2091 17326 131.628
42.3255 17839 133.563
42.4419 18100 134.536
42.5584 18194 134.885
42.675 19040 137.986
42.7915 19390 139.248
42.9081 19432 139.399
43.0248 19433 139.402
43.1415 19639 140.139
43.2582 19781 140.645
43.375 19765 140.588
43.4918 19474 139.549
43.6087 19803 140.723
43.7256 19475 139.553
43.8425 19175 138.474
43.9595 18627 136.481
44.0765 18414 135.698
44.1935 18299 135.274
44.3106 18114 134.588
44.4277 18056 134.373
44.5448 17743 133.203
44.6619 17299 131.526
44.7791 17281 131.457
44.8963 17035 130.518
45.0136 16821 129.696
45.1308 16343 127.84
45.2481 16106 126.909
45.3654 16048 126.681
45.4827 15422 124.185
45.6001 14759 121.487
45.7174 14796 121.639
45.8348 14360 119.833
45.9522 14055 118.554
46.0697 13913 117.953
46.1871 13988 118.271
46.3046 13672 116.927
46.422 13866 117.754
46.5395 13687 116.991
46.657 13798 117.465
46.7745 13628 116.739
46.892 13830 117.601
47.0096 13863 117.741
47.1271 13694 117.021
47.2446 13346 115.525
47.3622 13040 114.193
47.4797 13066 114.307
47.5973 12945 113.776
47.7149 12961 113.846
47.8324 13036 114.175
47.95 12532 111.946
48.0675 12567 112.103
48.1851 12236 110.616
48.3027 12036 109.709
48.4202 11345 106.513
48.5378 11567 107.55
48.6554 11170 105.688
48.7729 11263 106.127
48.8904 11093 105.323
49.008 10969 104.733
49.1255 10953 104.657
49.243 10717 103.523
49.3605 10674 103.315
49.478 10646 103.179
49.5955 11029 105.019
49.713 10870 104.259
49.8304 11221 105.929
49.9479 11288 106.245
50.0653 11826 108.747
50.1827 12104 110.018
50.3001 12268 110.761
50.4175 12742 112.88
50.5348 12628 112.374
50.6521 12978 113.921
50.7694 13072 114.333
50.8867 13543 116.374
51.004 14035 118.469
51.1212 14401 120.004
51.2384 14886 122.008
51.3556 15234 123.426
51.4727 15487 124.447
51.5899 15462 124.346
51.707 15217 123.357
51.824 15098 122.874
51.9411 15027 122.585
52.0581 14849 121.856
52.175 14756 121.474
52.2919 14761 121.495
52.4088 14580 120.748
52.5257 14289 119.537
52.6425 14060 118.575
52.7593 13995 118.3
52.876 14189 119.118
52.9927 14431 120.129
53.1094 14740 121.408
53.226 15126 122.988
53.3426 15607 124.928
53.4591 16007 126.519
53.5756 16379 127.98
53.692 16874 129.9
53.8084 17258 131.37
53.9248 17544 132.454
54.0411 18062 134.395
54.1573 18035 134.294
54.2735 0 1
54.3896 0 1
54.5057 0 1
54.6217 0 1
54.7377 0 1
54.8537 0 1
54.9695 0 1
55.0853 0 1
55.2011 0 1
55.3168 0 1
55.4324 0 1
57.824 0 1
57.9396 0 1
58.0553 0 1
58.1711 0 1
58.2869 0 1
58.4028 0 1
58.5187 0 1
58.6347 0 1
58.7508 0 1
58.8669 0 1
58.983 19544 139.8
59.0992 20917 144.627
59.2155 21530 146.731
59.3318 21836 147.77
59.4482 22547 150.157
59.5646 23619 153.685
59.681 23825 154.353
59.7975 24530 156.621
59.9141 24624 156.92
60.0306 24333 155.99
60.1473 23523 153.372
60.2639 22868 151.222
60.3807 21893 147.963
60.4974 20847 144.385
60.6142 20486 143.129
60.731 19310 138.96
60.8479 18289 135.237
60.9648 17597 132.654
61.0818 17007 130.411
61.1987 16606 128.864
61.3158 17242 131.309
61.4328 17489 132.246
61.5499 18053 134.361
61.667 18086 134.484
61.7841 18132 134.655
61.9013 18037 134.302
62.0185 18578 136.301
62.1357 19031 137.953
62.253 19076 138.116
62.3702 19642 140.15
62.4875 19564 139.871
62.6049 19925 141.156
62.7222 20181 142.06
62.8396 21067 145.145
62.9569 21931 148.091
63.0743 22649 150.496
63.1918 23316 152.696
63.3092 23209 152.345
63.4267 23086 151.941
63.5441 22944 151.473
63.6616 22605 150.35
63.7791 21459 146.489
63.8966 20450 143.003
64.0142 19717 140.417
64.1317 18622 136.462
64.2492 17453 132.11
64.3668 16460 128.297
64.4843 15868 125.968
64.6019 15600 124.9
64.7195 15360 123.935
64.837 15727 125.407
64.9546 16109 126.921
65.0722 16653 129.047
65.1898 16601 128.845
65.3074 16886 129.946
65.4249 17061 130.618
65.5425 17289 131.488
65.6601 17574 132.567
65.7777 18187 134.859
65.8952 18201 134.911
66.0128 18434 135.772
66.1304 18693 136.722
66.2479 19291 138.892
66.3655 20139 141.912
66.483 21192 145.575
66.6005 21957 148.179
66.718 22380 149.599
66.8355 22538 150.127
66.953 22477 149.923
67.0705 22358 149.526
67.1879 22090 148.627
67.3054 21316 146
67.4228 20575 143.44
67.5402 18861 137.335
67.6576 17217 131.214
67.7749 16173 127.173
67.8923 15812 125.746
68.0096 15471 124.382
68.1269 15284 123.628
68.2442 15071 122.764
68.3614 15187 123.236
68.4787 15283 123.624
68.5958 16246 127.46
68.713 16660 129.074
68.8302 17158 130.989
68.9473 17167 131.023
69.0643 17004 130.399
69.1814 17451 132.102
69.2984 17720 133.116
69.4154 18468 135.897
69.5323 19022 137.92
69.6492 19444 139.442
69.7661 19816 140.769
69.8829 20857 144.42
69.9997 22043 148.469
70.1165 22771 150.901
70.2332 23397 152.961
70.3499 23442 153.108
70.4665 24022 154.99
70.5831 23893 154.574
70.6996 23311 152.679
70.8161 22997 151.648
70.9326 22157 148.852
71.049 19852 140.897
71.1653 18309 135.311
71.2817 17119 130.84
71.3979 16306 127.695
71.5141 15666 125.164
71.6303 15175 123.187
71.7464 14432 120.133
71.8624 0 1
71.9784 0 1
72.0944 0 1
72.2102 0 1
72.3261 0 1
72.4418 0 1
72.5575 0 1
72.6732 0 1
75.1054 0 1
75.2209 0 1
75.3365 0 1
75.4521 0 1
75.5678 0 1
75.6835 0 1
75.7993 0 1
75.9151 0 1
76.031 0 1
76.147 20173 142.032
76.263 20576 143.443
76.3791 19012 137.884
76.4952 17921 133.869
76.6113 17469 132.17
76.7276 16636 128.981
76.8438 16538 128.6
76.9601 16369 127.941
77.0765 16217 127.346
77.1929 15800 125.698
77.3093 15871 125.98
77.4258 16008 126.523
77.5423 17038 130.53
77.6589 17852 133.611
77.7755 17602 132.673
77.8921 17150 130.958
78.0088 16921 130.081
78.1256 17404 131.924
78.2423 18032 134.283
78.3591 18299 135.274
78.4759 19030 137.949
78.5928 19598 139.993
78.7097 20892 144.541
78.8266 21002 144.921
78.9436 23011 151.694
79.0606 23058 151.849
79.1776 23153 152.161
79.2946 23650 153.786
79.4117 24150 155.403
79.5288 23788 154.234
79.6459 23375 152.889
79.7631 21938 148.115
79.8802 20794 144.201
79.9974 19331 139.036
80.1147 18010 134.201
80.2319 17521 132.367
80.3491 17070 130.652
80.4664 16540 128.608
80.5837 16411 128.105
80.701 16355 127.887
80.8183 16038 126.641
80.9357 15793 125.67
81.053 16128 126.996
81.1704 17435 132.042
81.2877 17610 132.703
81.4051 17508 132.318
81.5225 17083 130.702
81.6399 16931 130.119
81.7573 17458 132.129
81.8747 17672 132.936
81.9922 18541 136.165
82.1096 19339 139.065
82.227 20448 142.997
82.3444 21408 146.315
82.4619 22724 150.745
82.5793 23822 154.344
82.6967 23468 153.193
82.8142 23788 154.234
82.9316 24032 155.023
83.049 24344 156.026
83.1664 23840 154.402
83.2838 22792 150.97
83.4012 21818 147.709
83.5186 19914 141.117
83.636 18909 137.51
83.7534 17917 133.854
83.8708 17714 133.094
83.9881 17260 131.377
84.1055 16974 130.284
84.2228 17221 131.229
84.3401 16735 129.364
84.4575 17001 130.388
84.5747 16956 130.215
84.692 17990 134.127
84.8093 18673 136.649
84.9265 18839 137.255
85.0437 18625 136.473
85.1609 17962 134.022
85.2781 17954 133.993
85.3952 18231 135.022
85.5123 18844 137.273
85.6294 19903 141.078
85.7465 21436 146.41
85.8636 22423 149.743
85.9806 23602 153.629
86.0976 24301 155.888
86.2145 24746 157.309
86.3315 25251 158.906
86.4484 25791 160.596
86.5652 26091 161.527
86.682 26313 162.213
86.7988 25582 159.944
86.9156 24643 156.981
87.0323 22814 151.043
87.149 21024 144.997
87.2657 20429 142.93
87.3823 19588 139.957
87.4988 19106 138.224
87.6154 18689 136.708
87.7318 18741 136.898
87.8483 18124 134.625
87.9647 18178 134.826
88.081 18348 135.455
88.1973 18826 137.208
88.3136 19740 140.499
88.4298 19938 141.202
88.546 19445 139.445
88.6621 18619 136.451
88.7781 18083 134.473
88.8942 0 1
89.0101 0 1
89.126 0 1
89.2419 0 1
89.3577 0 1
89.4734 0 1
89.5891 0 1
89.7047 0 1
89.8203 0 1
89.9358 0 1
92.3269 0 1
92.4424 0 1
92.558 0 1
92.6736 0 1
92.7893 0 1
92.905 0 1
93.0208 0 1
93.1366 0 1
93.2525 0 1
93.3685 0 1
93.4845 0 1
93.6005 18398 135.639
93.7167 18724 136.836
93.8328 17970 134.052
93.949 17824 133.507
94.0653 17813 133.465
94.1816 17872 133.686
94.2979 18518 136.081
94.4143 19433 139.402
94.5307 20106 141.796
94.6472 21376 146.205
94.7637 22337 149.456
94.8803 23355 152.823
94.9969 24128 155.332
95.1135 24592 156.818
95.2302 24612 156.882
95.3469 24501 156.528
95.4637 24621 156.911
95.5805 24569 156.745
95.6973 24486 156.48
95.8142 24041 155.052
95.9311 23146 152.138
96.048 21902 147.993
96.1649 20597 143.517
96.2819 20158 141.979
96.3989 19381 139.216
96.516 18943 137.634
96.633 18369 135.532
96.7501 18177 134.822
96.8673 18138 134.677
96.9844 17808 133.447
97.1016 17808 133.447
97.2188 18343 135.436
97.336 18829 137.219
97.4532 18989 137.801
97.5704 18240 135.056
97.6877 17861 133.645
97.805 17576 132.575
97.9223 17520 132.363
98.0396 17875 133.697
98.1569 18335 135.407
98.2743 19337 139.058
98.3916 20167 142.011
98.509 21517 146.687
98.6264 22251 149.168
98.7438 23232 152.42
98.8612 23480 153.232
98.9786 23691 153.919
99.096 23459 153.163
99.2134 23945 154.742
99.3308 24449 156.362
99.4482 23681 153.886
99.5656 23054 151.835
99.6831 21689 147.272
99.8005 20509 143.21
99.9179 19468 139.528
100.035 18532 136.132
100.153 18350 135.462
100.27 17738 133.184
100.388 17577 132.578
100.505 17398 131.901
100.622 17199 131.145
100.74 17145 130.939
100.857 17561 132.518
100.975 18070 134.425
101.092 17950 133.978
101.209 17516 132.348
101.327 16988 130.338
101.444 17210 131.187
101.561 17465 132.155
101.679 18014 134.216
101.796 19034 137.964
101.913 19818 140.776
102.03 21361 146.154
102.148 22915 151.377
102.265 22311 149.369
102.382 26198 161.858
102.499 24565 156.732
102.616 24676 157.086
102.733 25252 158.909
102.851 25547 159.834
102.968 25687 160.272
103.085 24811 157.515
103.202 23505 153.313
103.319 22429 149.763
103.436 21447 146.448
103.552 20612 143.569
103.669 19799 140.709
103.786 19795 140.695
103.903 19342 139.076
104.02 19068 138.087
104.137 18736 136.88
104.253 19007 137.866
104.37 19219 138.633
104.487 19709 140.389
104.603 19228 138.665
104.72 18836 137.244
104.836 18544 136.176
104.953 18631 136.495
105.069 19011 137.88
105.186 19991 141.39
105.302 20737 144.003
105.418 22199 148.993
105.535 23712 153.987
105.651 25192 158.72
105.767 25193 158.723
105.883 24777 157.407
105.999 24771 157.388
106.115 0 1
106.231 0 1
106.347 0 1
106.463 0 1
106.579 0 1
106.694 0 1
106.81 0 1
106.926 0 1
107.041 0 1
107.157 0 1
109.576 0 1
109.692 0 1
109.807 0 1
109.923 0 1
110.039 0 1
110.155 0 1
110.27 0 1
110.386 0 1
110.502 0 1
110.618 19954 141.259
110.735 21662 147.18
110.851 22247 149.154
110.967 21771 147.55
111.083 21625 147.054
111.199 22101 148.664
111.316 22789 150.96
111.432 22913 151.37
111.549 22861 151.199
111.665 22212 149.037
111.782 21153 145.441
111.898 20182 142.063
112.015 19261 138.784
112.132 18855 137.314
112.248 18268 135.159
112.365 17423 131.996
112.482 17307 131.556
112.599 16313 127.722
112.716 16023 126.582
112.832 15768 125.571
112.949 15510 124.539
113.066 15181 123.211
113.183 14781 121.577
113.3 14547 120.611
113.417 14552 120.632
113.534 14680 121.161
113.652 15276 123.596
113.769 16246 127.46
113.886 16338 127.82
114.003 16993 130.357
114.12 17906 133.813
114.238 18253 135.104
114.355 18082 134.469
114.472 18433 135.768
114.589 17240 131.301
114.707 17498 132.28
114.824 18560 136.235
114.942 18971 137.735
115.059 18571 136.275
115.176 17751 133.233
115.294 17079 130.687
115.411 16766 129.484
115.529 15919 126.171
115.646 15447 124.286
115.764 14869 121.939
115.881 14281 119.503
115.999 13663 116.889
116.116 13507 116.22
116.234 12977 113.917
116.351 12209 110.494
116.469 12034 109.7
116.586 12010 109.59
116.704 11900 109.087
116.821 11598 107.694
116.939 11688 108.111
117.056 12151 110.232
117.174 12481 111.718
117.291 12862 113.411
117.409 13199 114.887
117.526 13758 117.295
117.644 13802 117.482
117.761 14264 119.432
117.879 15040 122.638
117.996 14758 121.483
118.114 14416 120.067
118.231 14544 120.599
118.349 14600 120.83
118.466 15604 124.916
118.584 15967 126.361
118.701 15873 125.988
118.819 15946 126.277
118.936 15565 124.76
119.053 15440 124.258
119.171 14888 122.016
119.288 14773 121.544
119.405 14510 120.457
119.523 14089 118.697
119.64 13908 117.932
119.757 13392 115.724
119.875 12942 113.763
119.992 12544 112
120.109 12431 111.494
120.226 12632 112.392
120.343 12341 111.09
120.46 12506 111.83
120.578 12746 112.898
120.695 13681 116.966
120.812 14178 119.071
120.929 14585 120.768
121.046 15025 122.577
121.163 14986 122.417
121.279 15758 125.531
121.396 15854 125.913
121.513 16334 127.805
121.63 16508 128.483
121.747 15656 125.124
121.863 15060 122.719
121.98 15666 125.164
122.097 16926 130.1
122.213 18072 134.432
122.33 18430 135.757
122.446 18527 136.114
122.563 18376 135.558
122.679 18299 135.274
122.795 17945 133.959
122.912 17607 132.691
123.028 17570 132.552
123.144 16858 129.838
123.26 16568 128.717
123.377 0 1
123.493 0 1
123.609 0 1
123.725 0 1
123.84 0 1
123.956 0 1
124.072 0 1
124.188 0 1
124.303 0 1
124.419 0 1
126.852 0 1
126.968 0 1
127.083 0 1
127.199 0 1
127.315 0 1
127.431 0 1
127.547 0 1
127.663 0 1
127.779 0 1
127.895 0 1
128.011 0 1
128.127 0 1
128.243 0 1
128.359 20548 143.346
128.476 20223 142.208
128.592 19770 140.606
128.708 19021 137.917
128.825 18968 137.724
128.941 18542 136.169
129.058 17653 132.865
129.174 17401 131.913
129.291 17083 130.702
129.408 17281 131.457
129.524 16999 130.38
129.641 17218 131.217
129.758 17300 131.529
129.875 17484 132.227
129.992 17851 133.608
130.108 17733 133.165
130.225 17935 133.922
130.342 18141 134.689
130.459 18371 135.54
130.576 17468 132.167
130.693 16044 126.665
130.81 14265 119.436
130.928 14489 120.37
131.045 16842 129.777
131.162 18108 134.566
131.279 18582 136.316
131.396 18327 135.377
131.513 18545 136.18
131.631 18373 135.547
131.748 18184 134.848
131.865 17702 133.049
131.983 17479 132.208
132.1 17199 131.145
132.217 17103 130.778
132.335 16805 129.634
132.452 16396 128.047
132.57 15789 125.654
132.687 15062 122.727
132.804 15840 125.857
132.922 15380 124.016
133.039 14727 121.355
133.157 14969 122.348
133.274 15074 122.776
133.392 14984 122.409
133.509 14740 121.408
133.627 14925 122.168
133.744 14789 121.61
133.862 15118 122.955
133.979 14746 121.433
134.097 14456 120.233
134.214 13290 115.282
134.332 11251 106.071
134.449 11526 107.359
134.567 13195 114.869
134.684 14366 119.858
134.802 14752 121.458
134.919 14833 121.791
135.037 14918 122.139
135.154 14536 120.565
135.272 14456 120.233
135.389 14536 120.565
135.507 14218 119.239
135.624 14113 118.798
135.742 13886 117.839
135.859 13501 116.194
135.977 13353 115.555
136.094 12814 113.199
136.211 12642 112.437
136.329 12537 111.969
136.446 12318 110.986
136.564 12469 111.665
136.681 11924 109.197
136.798 12042 109.736
136.915 12002 109.554
137.033 11866 108.931
137.15 12071 109.868
137.267 12037 109.713
137.384 12185 110.386
137.502 12220 110.544
137.619 12237 110.621
137.736 11399 106.766
137.853 9932 99.6594
137.97 9427 97.0927
138.087 10317 101.573
138.204 11852 108.867
138.321 12834 113.287
138.438 13273 115.209
138.555 13400 115.758
138.672 13417 115.832
138.788 13601 116.623
138.905 14011 118.368
139.022 14052 118.541
139.139 14243 119.344
139.255 13761 117.307
139.372 14074 118.634
139.488 14099 118.739
139.605 14024 118.423
139.721 14079 118.655
139.838 14216 119.231
139.954 13931 118.03
140.071 13605 116.64
140.187 14104 118.76
140.303 13595 116.598
140.419 13446 115.957
140.535 13581 116.538
140.652 13147 114.66
140.768 0 1
140.884 0 1
141 0 1
141.115 0 1
141.231 0 1
141.347 0 1
141.463 0 1
141.578 0 1
141.694 0 1
144.104 0 1
144.219 0 1
144.335 0 1
144.45 0 1
144.566 0 1
144.682 0 1
144.798 0 1
144.914 0 1
145.03 0 1
145.146 11521 107.336
145.262 11604 107.722
145.378 11360 106.583
145.494 11354 106.555
145.61 11011 104.933
145.726 10825 104.043
145.842 10857 104.197
145.959 10980 104.785
146.075 10849 104.159
146.192 10910 104.451
146.308 10469 102.318
146.425 10227 101.129
146.541 9705 98.514
146.658 9317 96.5246
146.774 9293 96.4002
146.891 9504 97.4885
147.008 9796 98.9747
147.125 10039 100.195
147.241 10213 101.059
147.358 10107 100.534
147.475 9774 98.8635
147.592 9583 97.8928
147.709 9735 98.6661
147.826 9369 96.7936
147.943 9333 96.6075
148.06 9385 96.8762
148.177 9254 96.1977
148.294 8980 94.7629
148.411 9050 95.1315
148.528 9068 95.226
148.645 8635 92.9247
148.762 8383 91.5587
148.88 8117 90.0944
148.997 8373 91.5041
149.114 7509 86.6545
149.231 7734 87.9432
149.349 7651 87.47
149.466 7957 89.202
149.583 7970 89.2749
149.701 7969 89.2693
149.818 7754 88.0568
149.935 7718 87.8521
150.053 7757 88.0738
150.17 7601 87.1837
150.287 7520 86.7179
150.405 7600 87.178
150.522 7895 88.8538
150.64 7931 89.0562
150.757 8149 90.2718
150.875 8294 91.0714
150.992 8149 90.2718
151.11 8468 92.0217
151.227 8389 91.5915
151.344 8356 91.4112
151.462 8186 90.4765
151.579 8155 90.305
151.697 8156 90.3106
151.814 8260 90.8845
151.932 8429 91.8096
152.049 8336 91.3017
152.167 8213 90.6256
152.284 8173 90.4046
152.402 7976 89.3085
152.519 7962 89.23
152.636 7855 88.6284
152.754 8060 89.7775
152.871 8020 89.5545
152.989 8112 90.0666
153.106 8131 90.1721
153.223 8260 90.8845
153.341 8193 90.5152
153.458 8208 90.598
153.575 8298 91.0934
153.693 8380 91.5423
153.81 8553 92.4824
153.927 9186 95.8436
154.044 9371 96.8039
154.162 9710 98.5393
154.279 9807 99.0303
154.396 10219 101.089
154.513 10365 101.809
154.63 10472 102.333
154.747 10552 102.723
154.864 10622 103.063
154.981 10569 102.806
155.098 10623 103.068
155.215 10411 102.034
155.332 10495 102.445
155.449 10553 102.728
155.566 10302 101.499
155.683 10190 100.946
155.8 10097 100.484
155.917 9842 99.2069
156.033 9819 99.0909
156.15 0 1
156.267 0 1
156.383 0 1
156.5 0 1
156.617 0 1
156.733 0 1
156.85 0 1
156.966 0 1
157.082 0 1
157.199 0 1
157.315 0 1
157.431 0 1
157.547 0 1
157.664 0 1
157.78 0 1
157.896 0 1
158.012 0 1
158.128 0 1
158.244 0 1
158.359 0 1
158.475 0 1
158.591 0 1
158.706 0 1
