
6.15755 0 1
6.2731 0 1
6.3887 0 1
6.50437 0 1
6.62009 0 1
6.73587 0 1
6.8517 0 1
6.96759 0 1
7.08353 0 1
7.19952 0 1
7.31557 0 1
7.43166 0 1
7.54781 0 1
7.664 0 1
7.78024 0 1
7.89653 0 1
8.01286 0 1
8.12924 0 1
8.24567 0 1
8.36213 0 1
8.47864 0 1
8.59519 0 1
8.71178 0 1
8.82841 0 1
8.94508 0 1
9.06179 0 1
9.17853 0 1
9.29531 0 1
9.41212 0 1
9.52897 0 1
9.64584 0 1
9.76276 0 1
9.8797 0 1
9.99667 0 1
10.1137 0 1
10.2307 0 1
10.3478 0 1
10.4648 0 1
10.5819 0 1
10.6991 0 1
10.8162 0 1
10.9334 0 1
11.0506 0 1
11.1678 0 1
11.285 0 1
11.4023 0 1
11.5196 0 1
11.6369 0 1
11.7542 0 1
11.8715 0 1
11.9888 0 1
12.1062 0 1
12.2235 0 1
12.3409 0 1
12.4582 0 1
12.5756 0 1
12.693 0 1
12.8104 0 1
12.9278 0 1
13.0452 0 1
13.1626 0 1
13.28 0 1
13.3974 0 1
13.5149 0 1
13.6323 0 1
13.7497 0 1
13.8671 0 1
13.9845 0 1
14.1019 0 1
14.2193 0 1
14.3367 0 1
14.4541 0 1
14.5714 0 1
14.6888 0 1
14.8062 0 1
14.9235 0 1
15.0408 1602 40.025
15.1581 1686 41.0609
15.2755 1836 42.8486
15.3927 1849 43
15.51 1882 43.382
15.6273 1887 43.4396
15.7445 1923 43.852
15.8617 1770 42.0714
15.9789 1658 40.7185
16.0961 1735 41.6533
16.2132 1774 42.1189
16.3304 1808 42.5206
16.4475 1847 42.9767
16.5646 1982 44.5197
16.6816 1910 43.7035
16.7986 1989 44.5982
16.9156 1918 43.795
17.0326 1932 43.9545
17.1496 1974 44.4297
17.2665 1914 43.7493
17.3833 2008 44.8107
17.5002 2037 45.1331
17.617 1929 43.9204
17.7338 1951 44.1701
17.8505 1896 43.5431
17.9672 1933 43.9659
18.0839 1861 43.1393
18.2005 1927 43.8976
18.3171 1901 43.6005
18.4337 1944 44.0908
18.5502 2065 45.4423
18.6666 2165 46.5296
18.7831 2074 45.5412
18.8994 2072 45.5192
19.0158 2041 45.1774
19.1321 1972 44.4072
19.2483 1817 42.6263
19.3645 1815 42.6028
19.4806 1651 40.6325
19.5967 1606 40.0749
19.7128 1746 41.7852
19.8288 1775 42.1307
19.9447 1699 41.2189
20.0606 0 1
20.1764 0 1
20.2922 0 1
20.4079 0 1
20.5236 0 1
20.6392 0 1
20.7548 0 1
20.8702 0 1
23.3078 0 1
23.4233 0 1
23.539 0 1
23.6547 0 1
23.7704 0 1
23.8862 0 1
24.0021 0 1
24.118 0 1
24.234 0 1
24.35 0 1
24.4661 1811 42.5558
24.5822 1618 40.2244
24.6984 1608 40.0999
24.8146 1691 41.1218
24.9309 1830 42.7785
25.0472 1936 44
25.1636 2080 45.607
25.28 2060 45.3872
25.3965 2074 45.5412
25.513 2134 46.1952
25.6296 2228 47.2017
25.7462 2112 45.9565
25.8628 2156 46.4327
25.9795 2115 45.9891
26.0962 2199 46.8935
26.213 2156 46.4327
26.3298 2034 45.0999
26.4466 1953 44.1928
26.5635 1953 44.1928
26.6804 1975 44.441
26.7973 1999 44.7102
26.9143 2019 44.9333
27.0313 2001 44.7325
27.1483 2027 45.0222
27.2653 2097 45.793
27.3824 2027 45.0222
27.4996 2206 46.9681
27.6167 2130 46.1519
27.7339 1960 44.2719
27.8511 2029 45.0444
27.9683 1889 43.4626
28.0855 1777 42.1545
28.2028 1710 41.3521
28.3201 1666 40.8167
28.4374 1692 41.1339
28.5547 1810 42.5441
28.6721 1983 44.5309
28.7894 2074 45.5412
28.9068 2046 45.2327
29.0242 2012 44.8553
29.1416 2088 45.6946
29.259 2001 44.7325
29.3764 1964 44.317
29.4939 1971 44.3959
29.6113 1964 44.317
29.7288 1943 44.0795
29.8463 1897 43.5546
29.9638 1811 42.5558
30.0812 1804 42.4735
30.1987 1830 42.7785
30.3162 1752 41.8569
30.4337 1803 42.4617
30.5512 1842 42.9185
30.6687 1846 42.9651
30.7862 1950 44.1588
30.9037 1896 43.5431
31.0212 1935 43.9886
31.1387 1960 44.2719
31.2562 1947 44.1248
31.3737 1869 43.2319
31.4912 1789 42.2966
31.6087 1801 42.4382
31.7262 1655 40.6817
31.8436 1561 39.5095
31.9611 1657 40.7063
32.0785 1722 41.497
32.1959 1896 43.5431
32.3134 1923 43.852
32.4308 1928 43.909
32.5482 1992 44.6318
32.6655 1921 43.8292
32.7829 1965 44.3283
32.9002 1905 43.6463
33.0176 2015 44.8888
33.1349 1889 43.4626
33.2522 1970 44.3847
33.3694 1878 43.3359
33.4867 1917 43.7836
33.6039 1675 40.9268
33.7211 1785 42.2493
33.8383 1761 41.9643
33.9554 1801 42.4382
34.0725 1779 42.1782
34.1896 1743 41.7493
34.3067 1771 42.0833
34.4237 1815 42.6028
34.5407 1832 42.8019
34.6577 1871 43.2551
34.7746 1795 42.3674
34.8915 1867 43.2088
35.0084 1891 43.4856
35.1252 1807 42.5088
35.242 1783 42.2256
35.3587 1606 40.0749
35.4755 1445 38.0132
35.5921 1538 39.2173
35.7088 1536 39.1918
35.8254 1695 41.1704
35.9419 1800 42.4264
36.0584 1890 43.4741
36.1749 1950 44.1588
36.2913 1866 43.1972
36.4077 1751 41.845
36.524 1932 43.9545
36.6403 1888 43.4511
36.7565 1850 43.0116
36.8727 1879 43.3474
36.9889 1861 43.1393
37.1049 1755 41.8927
37.221 0 1
37.3369 0 1
37.4529 0 1
37.5687 0 1
37.6845 0 1
37.8003 0 1
37.916 0 1
38.0316 0 1
38.1472 0 1
40.5851 0 1
40.7008 0 1
40.8164 0 1
40.9322 0 1
41.048 0 1
41.1639 0 1
41.2798 0 1
41.3958 0 1
41.5118 0 1
41.6279 0 1
41.744 1390 37.2827
41.8602 1486 38.5487
41.9765 1581 39.7618
42.0928 1530 39.1152
42.2091 1455 38.1445
42.3255 1386 37.229
42.4419 1373 37.054
42.5584 1298 36.0278
42.675 1355 36.8103
42.7915 1371 37.027
42.9081 1290 35.9166
43.0248 1361 36.8917
43.1415 1309 36.1801
43.2582 1403 37.4566
43.375 1487 38.5616
43.4918 1344 36.6606
43.6087 1345 36.6742
43.7256 1307 36.1525
43.8425 1378 37.1214
43.9595 1284 35.8329
44.0765 1238 35.1852
44.1935 1201 34.6554
44.3106 1031 32.1092
44.4277 989 31.4484
44.5448 966 31.0805
44.6619 1077 32.8177
44.7791 1137 33.7194
44.8963 1108 33.2866
45.0136 1154 33.9706
45.1308 1171 34.2199
45.2481 1135 33.6898
45.3654 1058 32.5269
45.4827 1083 32.909
45.6001 1148 33.8821
45.7174 1029 32.078
45.8348 1078 32.8329
45.9522 994 31.5278
46.0697 1019 31.9218
46.1871 998 31.5911
46.3046 907 30.1164
46.422 883 29.7153
46.5395 924 30.3974
46.657 1009 31.7648
46.7745 1023 31.9844
46.892 1008 31.749
47.0096 928 30.4631
47.1271 932 30.5287
47.2446 928 30.4631
47.3622 946 30.7571
47.4797 903 30.05
47.5973 924 30.3974
47.7149 875 29.5804
47.8324 751 27.4044
47.95 711 26.6646
48.0675 701 26.4764
48.1851 760 27.5681
48.3027 826 28.7402
48.4202 796 28.2135
48.5378 887 29.7825
48.6554 847 29.1033
48.7729 899 29.9833
48.8904 918 30.2985
49.008 847 29.1033
49.1255 911 30.1828
49.243 848 29.1204
49.3605 887 29.7825
49.478 836 28.9137
49.5955 842 29.0172
49.713 819 28.6182
49.8304 863 29.3769
49.9479 907 30.1164
50.0653 919 30.315
50.1827 980 31.305
50.3001 950 30.8221
50.4175 981 31.3209
50.5348 1028 32.0624
50.6521 1043 32.2955
50.7694 1158 34.0294
50.8867 1139 33.7491
51.004 1070 32.7109
51.1212 1141 33.7787
51.2384 1148 33.8821
51.3556 1100 33.1662
51.4727 1056 32.4962
51.5899 1116 33.4066
51.707 1187 34.4529
51.824 1291 35.9305
51.9411 1452 38.1051
52.0581 1530 39.1152
52.175 1491 38.6135
52.2919 1555 39.4335
52.4088 1546 39.3192
52.5257 1618 40.2244
52.6425 1658 40.7185
52.7593 1713 41.3884
52.876 1704 41.2795
52.9927 1615 40.1871
53.1094 1595 39.9375
53.226 1530 39.1152
53.3426 1630 40.3733
53.4591 1618 40.2244
53.5756 1715 41.4126
53.692 1779 42.1782
53.8084 1921 43.8292
53.9248 1846 42.9651
54.0411 1956 44.2267
54.1573 1947 44.1248
54.2735 0 1
54.3896 0 1
54.5057 0 1
54.6217 0 1
54.7377 0 1
54.8537 0 1
54.9695 0 1
55.0853 0 1
55.2011 0 1
55.3168 0 1
55.4324 0 1
57.824 0 1
57.9396 0 1
58.0553 0 1
58.1711 0 1
58.2869 0 1
58.4028 0 1
58.5187 0 1
58.6347 0 1
58.7508 0 1
58.8669 0 1
58.983 1904 43.6348
59.0992 2010 44.833
59.2155 2141 46.2709
59.3318 2109 45.9239
59.4482 2188 46.7761
59.5646 1977 44.4635
59.681 2118 46.0217
59.7975 2169 46.5725
59.9141 2012 44.8553
60.0306 1955 44.2154
60.1473 1857 43.0929
60.2639 1813 42.5793
60.3807 1815 42.6028
60.4974 1841 42.9069
60.6142 1981 44.5084
60.731 2152 46.3897
60.8479 2123 46.076
60.9648 2129 46.1411
61.0818 2142 46.2817
61.1987 2065 45.4423
61.3158 2098 45.8039
61.4328 2108 45.913
61.5499 2025 45
61.667 1936 44
61.7841 1843 42.9302
61.9013 1810 42.5441
62.0185 1823 42.6966
62.1357 1800 42.4264
62.253 1885 43.4166
62.3702 1948 44.1362
62.4875 1984 44.5421
62.6049 2018 44.9222
62.7222 2030 45.0555
62.8396 1928 43.909
62.9569 2010 44.833
63.0743 2004 44.7661
63.1918 2037 45.1331
63.3092 1915 43.7607
63.4267 1934 43.9773
63.5441 1783 42.2256
63.6616 1753 41.8688
63.7791 1649 40.6079
63.8966 1547 39.3319
64.0142 1600 40
64.1317 1787 42.2729
64.2492 1877 43.3244
64.3668 1794 42.3556
64.4843 1918 43.795
64.6019 1939 44.0341
64.7195 1893 43.5086
64.837 1892 43.4971
64.9546 1811 42.5558
65.0722 1805 42.4853
65.1898 1832 42.8019
65.3074 1695 41.1704
65.4249 1714 41.4005
65.5425 1590 39.8748
65.6601 1599 39.9875
65.7777 1649 40.6079
65.8952 1686 41.0609
66.0128 1831 42.7902
66.1304 1837 42.8602
66.2479 1848 42.9884
66.3655 1833 42.8135
66.483 1857 43.0929
66.6005 2048 45.2548
66.718 2039 45.1553
66.8355 2052 45.299
66.953 1963 44.3058
67.0705 1960 44.2719
67.1879 1911 43.715
67.3054 1828 42.7551
67.4228 1774 42.1189
67.5402 1787 42.2729
67.6576 1828 42.7551
67.7749 2018 44.9222
67.8923 2123 46.076
68.0096 2323 48.1975
68.1269 2383 48.816
68.2442 2446 49.4571
68.3614 2409 49.0816
68.4787 2407 49.0612
68.5958 2425 49.2443
68.713 2443 49.4267
68.8302 2341 48.3839
68.9473 2318 48.1456
69.0643 2278 47.7284
69.1814 2161 46.4866
69.2984 2222 47.1381
69.4154 2282 47.7703
69.5323 2382 48.8057
69.6492 2446 49.4571
69.7661 2560 50.5964
69.8829 2683 51.7977
69.9997 2510 50.0999
70.1165 2621 51.1957
70.2332 2665 51.6236
70.3499 2647 51.449
70.4665 2778 52.7067
70.5831 2727 52.2207
70.6996 2571 50.705
70.8161 2597 50.9608
70.9326 2462 49.6185
71.049 2321 48.1768
71.1653 2151 46.3789
71.2817 2194 46.8402
71.3979 2109 45.9239
71.5141 2098 45.8039
71.6303 2432 49.3153
71.7464 2253 47.4658
71.8624 0 1
71.9784 0 1
72.0944 0 1
72.2102 0 1
72.3261 0 1
72.4418 0 1
72.5575 0 1
72.6732 0 1
75.1054 0 1
75.2209 0 1
75.3365 0 1
75.4521 0 1
75.5678 0 1
75.6835 0 1
75.7993 0 1
75.9151 0 1
76.031 0 1
76.147 1697 41.1947
76.263 1655 40.6817
76.3791 1658 40.7185
76.4952 1544 39.2938
76.6113 1662 40.7676
76.7276 1761 41.9643
76.8438 1817 42.6263
76.9601 1931 43.9431
77.0765 1943 44.0795
77.1929 1884 43.4051
77.3093 1900 43.589
77.4258 1904 43.6348
77.5423 1849 43
77.6589 1739 41.7013
77.7755 1712 41.3763
77.8921 1611 40.1373
78.0088 1507 38.8201
78.1256 1458 38.1838
78.2423 1527 39.0768
78.3591 1559 39.4842
78.4759 1736 41.6653
78.5928 1707 41.3159
78.7097 1728 41.5692
78.8266 1651 40.6325
78.9436 1829 42.7668
79.0606 1758 41.9285
79.1776 1734 41.6413
79.2946 1725 41.5331
79.4117 1779 42.1782
79.5288 1767 42.0357
79.6459 1794 42.3556
79.7631 1697 41.1947
79.8802 1658 40.7185
79.9974 1518 38.9615
80.1147 1466 38.2884
80.2319 1526 39.064
80.3491 1529 39.1024
80.4664 1755 41.8927
80.5837 1783 42.2256
80.701 1860 43.1277
80.8183 1745 41.7732
80.9357 1819 42.6497
81.053 1850 43.0116
81.1704 1763 41.9881
81.2877 1714 41.4005
81.4051 1721 41.4849
81.5225 1624 40.2989
81.6399 1561 39.5095
81.7573 1540 39.2428
81.8747 1457 38.1707
81.9922 1478 38.4448
82.1096 1540 39.2428
82.227 1757 41.9166
82.3444 1702 41.2553
82.4619 1672 40.8901
82.5793 1772 42.0951
82.6967 1702 41.2553
82.8142 1792 42.332
82.9316 1718 41.4488
83.049 1781 42.2019
83.1664 1780 42.19
83.2838 1713 41.3884
83.4012 1708 41.328
83.5186 1668 40.8412
83.636 1569 39.6106
83.7534 1424 37.7359
83.8708 1429 37.8021
83.9881 1596 39.95
84.1055 1765 42.0119
84.2228 1893 43.5086
84.3401 1932 43.9545
84.4575 1989 44.5982
84.5747 1910 43.7035
84.692 1804 42.4735
84.8093 1849 43
84.9265 1916 43.7721
85.0437 1777 42.1545
85.1609 1651 40.6325
85.2781 1579 39.7366
85.3952 1559 39.4842
85.5123 1564 39.5474
85.6294 1690 41.1096
85.7465 1771 42.0833
85.8636 1881 43.3705
85.9806 1905 43.6463
86.0976 1884 43.4051
86.2145 1935 43.9886
86.3315 1953 44.1928
86.4484 2009 44.8219
86.5652 2014 44.8776
86.682 2075 45.5522
86.7988 2151 46.3789
86.9156 2083 45.6399
87.0323 2066 45.4533
87.149 1986 44.5646
87.2657 1962 44.2945
87.3823 1917 43.7836
87.4988 1965 44.3283
87.6154 2113 45.9674
87.7318 2351 48.4871
87.8483 2416 49.1528
87.9647 2520 50.1996
88.081 2491 49.9099
88.1973 2651 51.4879
88.3136 2723 52.1824
88.4298 2653 51.5073
88.546 2586 50.8527
88.6621 2389 48.8774
88.7781 2330 48.2701
88.8942 0 1
89.0101 0 1
89.126 0 1
89.2419 0 1
89.3577 0 1
89.4734 0 1
89.5891 0 1
89.7047 0 1
89.8203 0 1
89.9358 0 1
92.3269 0 1
92.4424 0 1
92.558 0 1
92.6736 0 1
92.7893 0 1
92.905 0 1
93.0208 0 1
93.1366 0 1
93.2525 0 1
93.3685 0 1
93.4845 0 1
93.6005 3076 55.4617
93.7167 3190 56.4801
93.8328 3094 55.6237
93.949 2888 53.7401
94.0653 2826 53.1601
94.1816 2728 52.2303
94.2979 2606 51.049
94.4143 2670 51.672
94.5307 2731 52.259
94.6472 2893 53.7866
94.7637 2999 54.7631
94.8803 3127 55.9196
94.9969 3136 56
95.1135 3193 56.5066
95.2302 3320 57.6194
95.3469 3383 58.1636
95.4637 3259 57.0877
95.5805 3331 57.7148
95.6973 3330 57.7062
95.8142 3339 57.7841
95.9311 3331 57.7148
96.048 3243 56.9473
96.1649 3115 55.8122
96.2819 2956 54.3691
96.3989 2783 52.7541
96.516 2834 53.2353
96.633 2874 53.6097
96.7501 3060 55.3173
96.8673 3314 57.5674
96.9844 3403 58.3352
97.1016 3314 57.5674
97.2188 3372 58.0689
97.336 3305 57.4891
97.4532 3300 57.4456
97.5704 3088 55.5698
97.6877 2889 53.7494
97.805 2614 51.1273
97.9223 2503 50.03
98.0396 2387 48.8569
98.1569 2466 49.6588
98.2743 2396 48.949
98.3916 2617 51.1566
98.509 2647 51.449
98.6264 2698 51.9423
98.7438 2765 52.5833
98.8612 2645 51.4296
98.9786 2760 52.5357
99.096 2637 51.3517
99.2134 2676 51.7301
99.3308 2585 50.8429
99.4482 2603 51.0196
99.5656 2563 50.6261
99.6831 2447 49.4672
99.8005 2387 48.8569
99.9179 2191 46.8081
100.035 2129 46.1411
100.153 1961 44.2832
100.27 2155 46.422
100.388 2247 47.4025
100.505 2375 48.734
100.622 2436 49.3559
100.74 2470 49.6991
100.857 2451 49.5076
100.975 2396 48.949
101.092 2357 48.5489
101.209 2499 49.99
101.327 2140 46.2601
101.444 2098 45.8039
101.561 1946 44.1135
101.679 1851 43.0232
101.796 1851 43.0232
101.913 1893 43.5086
102.03 2100 45.8258
102.148 2197 46.8722
102.265 2087 45.6837
102.382 2437 49.366
102.499 2245 47.3814
102.616 2232 47.244
102.733 2211 47.0213
102.851 2205 46.9574
102.968 2449 49.4874
103.085 2234 47.2652
103.202 2321 48.1768
103.319 2160 46.4758
103.436 2001 44.7325
103.552 1905 43.6463
103.669 1766 42.0238
103.786 1850 43.0116
103.903 1991 44.6206
104.02 2130 46.1519
104.137 2102 45.8476
104.253 2093 45.7493
104.37 2102 45.8476
104.487 2129 46.1411
104.603 2014 44.8776
104.72 2115 45.9891
104.836 1912 43.7264
104.953 1840 42.8952
105.069 1703 41.2674
105.186 1543 39.281
105.302 1576 39.6989
105.418 1647 40.5832
105.535 1807 42.5088
105.651 1891 43.4856
105.767 1898 43.566
105.883 1880 43.359
105.999 1894 43.5201
106.115 0 1
106.231 0 1
106.347 0 1
106.463 0 1
106.579 0 1
106.694 0 1
106.81 0 1
106.926 0 1
107.041 0 1
107.157 0 1
109.576 0 1
109.692 0 1
109.807 0 1
109.923 0 1
110.039 0 1
110.155 0 1
110.27 0 1
110.386 0 1
110.502 0 1
110.618 1473 38.3797
110.735 1647 40.5832
110.851 1701 41.2432
110.967 1700 41.2311
111.083 1665 40.8044
111.199 1728 41.5692
111.316 1784 42.2374
111.432 1733 41.6293
111.549 1744 41.7612
111.665 1753 41.8688
111.782 1800 42.4264
111.898 1692 41.1339
112.015 1611 40.1373
112.132 1477 38.4318
112.248 1358 36.8511
112.365 1473 38.3797
112.482 1556 39.4462
112.599 1671 40.8779
112.716 1746 41.7852
112.832 1805 42.4853
112.949 1726 41.5452
113.066 1802 42.45
113.183 1742 41.7373
113.3 1610 40.1248
113.417 1647 40.5832
113.534 1535 39.1791
113.652 1477 38.4318
113.769 1315 36.2629
113.886 1301 36.0694
114.003 1296 36
114.12 1414 37.6032
114.238 1456 38.1576
114.355 1607 40.0874
114.472 1556 39.4462
114.589 1508 38.833
114.707 1571 39.6358
114.824 1612 40.1497
114.942 1562 39.5221
115.059 1579 39.7366
115.176 1635 40.4351
115.294 1528 39.0896
115.411 1446 38.0263
115.529 1525 39.0512
115.646 1430 37.8153
115.764 1169 34.1906
115.881 1225 35
115.999 1296 36
116.116 1334 36.524
116.234 1438 37.921
116.351 1454 38.1314
116.469 1457 38.1707
116.586 1419 37.6696
116.704 1455 38.1445
116.821 1574 39.6737
116.939 1453 38.1182
117.056 1376 37.0945
117.174 1274 35.6931
117.291 1251 35.3695
117.409 1103 33.2114
117.526 1118 33.4365
117.644 1090 33.0151
117.761 1280 35.7771
117.879 1372 37.0405
117.996 1419 37.6696
118.114 1442 37.9737
118.231 1513 38.8973
118.349 1389 37.2693
118.466 1403 37.4566
118.584 1501 38.7427
118.701 1500 38.7298
118.819 1479 38.4578
118.936 1446 38.0263
119.053 1398 37.3898
119.171 1411 37.5633
119.288 1403 37.4566
119.405 1308 36.1663
119.523 1259 35.4824
119.64 1339 36.5923
119.757 1400 37.4166
119.875 1516 38.9358
119.992 1649 40.6079
120.109 1548 39.3446
120.226 1666 40.8167
120.343 1656 40.694
120.46 1596 39.95
120.578 1744 41.7612
120.695 1621 40.2616
120.812 1525 39.0512
120.929 1428 37.7889
121.046 1401 37.4299
121.163 1360 36.8782
121.279 1271 35.6511
121.396 1432 37.8418
121.513 1554 39.4208
121.63 1669 40.8534
121.747 1798 42.4028
121.863 1828 42.7551
121.98 1829 42.7668
122.097 1884 43.4051
122.213 1819 42.6497
122.33 1824 42.7083
122.446 1947 44.1248
122.563 1833 42.8135
122.679 1847 42.9767
122.795 1770 42.0714
122.912 1716 41.4246
123.028 1695 41.1704
123.144 1551 39.3827
123.26 1487 38.5616
123.377 0 1
123.493 0 1
123.609 0 1
123.725 0 1
123.84 0 1
123.956 0 1
124.072 0 1
124.188 0 1
124.303 0 1
124.419 0 1
126.852 0 1
126.968 0 1
127.083 0 1
127.199 0 1
127.315 0 1
127.431 0 1
127.547 0 1
127.663 0 1
127.779 0 1
127.895 0 1
128.011 0 1
128.127 0 1
128.243 0 1
128.359 1940 44.0454
128.476 1900 43.589
128.592 1729 41.5812
128.708 1692 41.1339
128.825 1755 41.8927
128.941 1841 42.9069
129.058 1995 44.6654
129.174 2035 45.111
129.291 2079 45.5961
129.408 2076 45.5631
129.524 2099 45.8148
129.641 2038 45.1442
129.758 2048 45.2548
129.875 1856 43.0813
129.992 1749 41.821
130.108 1518 38.9615
130.225 1547 39.3319
130.342 1496 38.6782
130.459 1576 39.6989
130.576 1662 40.7676
130.693 1723 41.509
130.81 1897 43.5546
130.928 1834 42.8252
131.045 1881 43.3705
131.162 1964 44.317
131.279 1980 44.4972
131.396 1891 43.4856
131.513 1887 43.4396
131.631 1804 42.4735
131.748 1858 43.1045
131.865 1774 42.1189
131.983 1668 40.8412
132.1 1611 40.1373
132.217 1529 39.1024
132.335 1562 39.5221
132.452 1545 39.3065
132.57 1779 42.1782
132.687 1758 41.9285
132.804 1842 42.9185
132.922 1745 41.7732
133.039 1726 41.5452
133.157 1734 41.6413
133.274 1701 41.2432
133.392 1615 40.1871
133.509 1538 39.2173
133.627 1419 37.6696
133.744 1325 36.4005
133.862 1214 34.8425
133.979 1217 34.8855
134.097 1272 35.6651
134.214 1385 37.2156
134.332 1412 37.5766
134.449 1514 38.9102
134.567 1482 38.4968
134.684 1515 38.923
134.802 1533 39.1535
134.919 1518 38.9615
135.037 1497 38.6911
135.154 1434 37.8682
135.272 1460 38.2099
135.389 1423 37.7227
135.507 1346 36.6879
135.624 1287 35.8748
135.742 1224 34.9857
135.859 1111 33.3317
135.977 1146 33.8526
136.094 1266 35.5809
136.211 1280 35.7771
136.329 1331 36.4829
136.446 1306 36.1386
136.564 1335 36.5377
136.681 1294 35.9722
136.798 1383 37.1887
136.915 1290 35.9166
137.033 1292 35.9444
137.15 1134 33.6749
137.267 1049 32.3883
137.384 1018 31.9061
137.502 980 31.305
137.619 970 31.1448
137.736 1183 34.3948
137.853 1058 32.5269
137.97 1185 34.4238
138.087 1268 35.609
138.204 1308 36.1663
138.321 1375 37.081
138.438 1366 36.9594
138.555 1379 37.1349
138.672 1398 37.3898
138.788 1430 37.8153
138.905 1385 37.2156
139.022 1352 36.7696
139.139 1276 35.7211
139.255 1301 36.0694
139.372 1214 34.8425
139.488 1261 35.5106
139.605 1265 35.5668
139.721 1293 35.9583
139.838 1421 37.6962
139.954 1491 38.6135
140.071 1440 37.9473
140.187 1597 39.9625
140.303 1530 39.1152
140.419 1485 38.5357
140.535 1492 38.6264
140.652 1509 38.8458
140.768 0 1
140.884 0 1
141 0 1
141.115 0 1
141.231 0 1
141.347 0 1
141.463 0 1
141.578 0 1
141.694 0 1
144.104 0 1
144.219 0 1
144.335 0 1
144.45 0 1
144.566 0 1
144.682 0 1
144.798 0 1
144.914 0 1
145.03 0 1
145.146 1286 35.8608
145.262 1421 37.6962
145.378 1369 37
145.494 1334 36.524
145.61 1350 36.7423
145.726 1290 35.9166
145.842 1250 35.3553
145.959 1231 35.0856
146.075 1046 32.3419
146.192 1001 31.6386
146.308 973 31.1929
146.425 970 31.1448
146.541 1017 31.8904
146.658 1068 32.6803
146.774 1100 33.1662
146.891 1056 32.4962
147.008 1117 33.4215
147.125 1172 34.2345
147.241 1177 34.3074
147.358 1138 33.7343
147.475 1181 34.3657
147.592 1103 33.2114
147.709 1097 33.121
147.826 1075 32.7872
147.943 1031 32.1092
148.06 955 30.9031
148.177 952 30.8545
148.294 984 31.3688
148.411 921 30.348
148.528 970 31.1448
148.645 1013 31.8277
148.762 1034 32.1559
148.88 1034 32.1559
148.997 1116 33.4066
149.114 953 30.8707
149.231 972 31.1769
149.349 1049 32.3883
149.466 951 30.8383
149.583 894 29.8998
149.701 862 29.3598
149.818 810 28.4605
149.935 849 29.1376
150.053 768 27.7128
150.17 782 27.9643
150.287 877 29.6142
150.405 857 29.2746
150.522 908 30.133
150.64 988 31.4325
150.757 984 31.3688
150.875 971 31.1609
150.992 980 31.305
151.11 1027 32.0468
151.227 997 31.5753
151.344 981 31.3209
151.462 984 31.3688
151.579 964 31.0483
151.697 935 30.5778
151.814 876 29.5973
151.932 884 29.7321
152.049 906 30.0998
152.167 967 31.0966
152.284 1014 31.8434
152.402 1048 32.3728
152.519 1037 32.2025
152.636 1060 32.5576
152.754 1066 32.6497
152.871 998 31.5911
152.989 1055 32.4808
153.106 989 31.4484
153.223 983 31.3528
153.341 887 29.7825
153.458 904 30.0666
153.575 877 29.6142
153.693 897 29.95
153.81 940 30.6594
153.927 1006 31.7175
154.044 1089 33
154.162 1054 32.4654
154.279 1101 33.1813
154.396 1183 34.3948
154.513 1220 34.9285
154.63 1217 34.8855
154.747 1212 34.8138
154.864 1283 35.819
154.981 1226 35.0143
155.098 1236 35.1568
155.215 1194 34.5543
155.332 1170 34.2053
155.449 1162 34.0881
155.566 1145 33.8378
155.683 1176 34.2929
155.8 1315 36.2629
155.917 1343 36.647
156.033 1333 36.5103
156.15 0 1
156.267 0 1
156.383 0 1
156.5 0 1
156.617 0 1
156.733 0 1
156.85 0 1
156.966 0 1
157.082 0 1
157.199 0 1
157.315 0 1
157.431 0 1
157.547 0 1
157.664 0 1
157.78 0 1
157.896 0 1
158.012 0 1
158.128 0 1
158.244 0 1
158.359 0 1
158.475 0 1
158.591 0 1
158.706 0 1
