
6.15755 0 1
6.2731 0 1
6.3887 0 1
6.50437 0 1
6.62009 0 1
6.73587 0 1
6.8517 0 1
6.96759 0 1
7.08353 0 1
7.19952 0 1
7.31557 0 1
7.43166 0 1
7.54781 0 1
7.664 0 1
7.78024 0 1
7.89653 0 1
8.01286 0 1
8.12924 0 1
8.24567 0 1
8.36213 0 1
8.47864 0 1
8.59519 0 1
8.71178 0 1
8.82841 0 1
8.94508 0 1
9.06179 0 1
9.17853 0 1
9.29531 0 1
9.41212 0 1
9.52897 0 1
9.64584 0 1
9.76276 0 1
9.8797 0 1
9.99667 0 1
10.1137 0 1
10.2307 0 1
10.3478 0 1
10.4648 0 1
10.5819 0 1
10.6991 0 1
10.8162 0 1
10.9334 0 1
11.0506 0 1
11.1678 0 1
11.285 0 1
11.4023 0 1
11.5196 0 1
11.6369 0 1
11.7542 0 1
11.8715 0 1
11.9888 0 1
12.1062 0 1
12.2235 0 1
12.3409 0 1
12.4582 0 1
12.5756 0 1
12.693 0 1
12.8104 0 1
12.9278 0 1
13.0452 0 1
13.1626 0 1
13.28 0 1
13.3974 0 1
13.5149 0 1
13.6323 0 1
13.7497 0 1
13.8671 0 1
13.9845 0 1
14.1019 0 1
14.2193 0 1
14.3367 0 1
14.4541 0 1
14.5714 0 1
14.6888 0 1
14.8062 0 1
14.9235 0 1
15.0408 0 0
15.1581 0 0
15.2755 0 0
15.3927 0 0
15.51 0 0
15.6273 0 0
15.7445 0 0
15.8617 0 0
15.9789 0 0
16.0961 0 0
16.2132 0 0
16.3304 0 0
16.4475 0 0
16.5646 0 0
16.6816 0 0
16.7986 0 0
16.9156 0 0
17.0326 0 0
17.1496 0 0
17.2665 0 0
17.3833 0 0
17.5002 0 0
17.617 0 0
17.7338 0 0
17.8505 0 0
17.9672 0 0
18.0839 0 0
18.2005 0 0
18.3171 0 0
18.4337 0 0
18.5502 0 0
18.6666 0 0
18.7831 0 0
18.8994 0 0
19.0158 0 0
19.1321 0 0
19.2483 0 0
19.3645 0 0
19.4806 0 0
19.5967 0 0
19.7128 0 0
19.8288 0 0
19.9447 0 0
20.0606 0 1
20.1764 0 1
20.2922 0 1
20.4079 0 1
20.5236 0 1
20.6392 0 1
20.7548 0 1
20.8702 0 1
23.3078 0 1
23.4233 0 1
23.539 0 1
23.6547 0 1
23.7704 0 1
23.8862 0 1
24.0021 0 1
24.118 0 1
24.234 0 1
24.35 0 1
24.4661 1292 35.9444
24.5822 1241 35.2278
24.6984 1267 35.5949
24.8146 1325 36.4005
24.9309 1269 35.623
25.0472 1314 36.2491
25.1636 1318 36.3043
25.28 1381 37.1618
25.3965 1391 37.2961
25.513 1343 36.647
25.6296 1388 37.2559
25.7462 1444 38
25.8628 1445 38.0132
25.9795 1394 37.3363
26.0962 1405 37.4833
26.213 1407 37.51
26.3298 1426 37.7624
26.4466 1418 37.6563
26.5635 1378 37.1214
26.6804 1333 36.5103
26.7973 1298 36.0278
26.9143 1190 34.4964
27.0313 1208 34.7563
27.1483 1264 35.5528
27.2653 1169 34.1906
27.3824 1342 36.6333
27.4996 1257 35.4542
27.6167 1171 34.2199
27.7339 1252 35.3836
27.8511 1167 34.1614
27.9683 1149 33.8969
28.0855 1227 35.0286
28.2028 1262 35.5246
28.3201 1164 34.1174
28.4374 1276 35.7211
28.5547 1254 35.4119
28.6721 1211 34.7994
28.7894 1301 36.0694
28.9068 1294 35.9722
29.0242 1335 36.5377
29.1416 1352 36.7696
29.259 1330 36.4692
29.3764 1263 35.5387
29.4939 1348 36.7151
29.6113 1351 36.756
29.7288 1295 35.9861
29.8463 1304 36.1109
29.9638 1321 36.3456
30.0812 1328 36.4417
30.1987 1299 36.0416
30.3162 1236 35.1568
30.4337 1187 34.4529
30.5512 1130 33.6155
30.6687 1096 33.1059
30.7862 1179 34.3366
30.9037 1106 33.2566
31.0212 1188 34.4674
31.1387 1226 35.0143
31.2562 1216 34.8712
31.3737 1167 34.1614
31.4912 1123 33.5112
31.6087 1136 33.7046
31.7262 1152 33.9411
31.8436 1144 33.8231
31.9611 1220 34.9285
32.0785 1232 35.0999
32.1959 1291 35.9305
32.3134 1350 36.7423
32.4308 1279 35.7631
32.5482 1261 35.5106
32.6655 1260 35.4965
32.7829 1303 36.0971
32.9002 1350 36.7423
33.0176 1312 36.2215
33.1349 1273 35.6791
33.2522 1302 36.0832
33.3694 1236 35.1568
33.4867 1272 35.6651
33.6039 1367 36.973
33.7211 1203 34.6843
33.8383 1281 35.7911
33.9554 1261 35.5106
34.0725 1159 34.0441
34.1896 1117 33.4215
34.3067 1110 33.3167
34.4237 1088 32.9848
34.5407 1151 33.9264
34.6577 1157 34.0147
34.7746 1170 34.2053
34.8915 1146 33.8526
35.0084 1116 33.4066
35.1252 1126 33.5559
35.242 1064 32.619
35.3587 1131 33.6303
35.4755 1135 33.6898
35.5921 1186 34.4384
35.7088 1157 34.0147
35.8254 1245 35.2846
35.9419 1247 35.3129
36.0584 1287 35.8748
36.1749 1290 35.9166
36.2913 1215 34.8569
36.4077 1231 35.0856
36.524 1255 35.426
36.6403 1251 35.3695
36.7565 1250 35.3553
36.8727 1200 34.641
36.9889 1245 35.2846
37.1049 1252 35.3836
37.221 0 1
37.3369 0 1
37.4529 0 1
37.5687 0 1
37.6845 0 1
37.8003 0 1
37.916 0 1
38.0316 0 1
38.1472 0 1
40.5851 0 1
40.7008 0 1
40.8164 0 1
40.9322 0 1
41.048 0 1
41.1639 0 1
41.2798 0 1
41.3958 0 1
41.5118 0 1
41.6279 0 1
41.744 993 31.5119
41.8602 1017 31.8904
41.9765 984 31.3688
42.0928 1023 31.9844
42.2091 1051 32.4191
42.3255 1104 33.2265
42.4419 1036 32.187
42.5584 1039 32.2335
42.675 1046 32.3419
42.7915 1022 31.9687
42.9081 936 30.5941
43.0248 886 29.7658
43.1415 876 29.5973
43.2582 837 28.931
43.375 875 29.5804
43.4918 889 29.8161
43.6087 925 30.4138
43.7256 892 29.8664
43.8425 876 29.5973
43.9595 895 29.9166
44.0765 861 29.3428
44.1935 815 28.5482
44.3106 917 30.282
44.4277 929 30.4795
44.5448 945 30.7409
44.6619 933 30.545
44.7791 938 30.6268
44.8963 959 30.9677
45.0136 944 30.7246
45.1308 966 31.0805
45.2481 916 30.2655
45.3654 922 30.3645
45.4827 871 29.5127
45.6001 861 29.3428
45.7174 860 29.3258
45.8348 907 30.1164
45.9522 871 29.5127
46.0697 877 29.6142
46.1871 856 29.2575
46.3046 857 29.2746
46.422 877 29.6142
46.5395 778 27.8927
46.657 733 27.074
46.7745 688 26.2298
46.892 697 26.4008
47.0096 716 26.7582
47.1271 765 27.6586
47.2446 753 27.4408
47.3622 722 26.8701
47.4797 645 25.3969
47.5973 678 26.0384
47.7149 662 25.7294
47.8324 729 27
47.95 724 26.9072
48.0675 679 26.0576
48.1851 731 27.037
48.3027 707 26.5895
48.4202 752 27.4226
48.5378 687 26.2107
48.6554 663 25.7488
48.7729 663 25.7488
48.8904 677 26.0192
49.008 730 27.0185
49.1255 773 27.8029
49.243 692 26.3059
49.3605 733 27.074
49.478 685 26.1725
49.5955 704 26.533
49.713 764 27.6405
49.8304 702 26.4953
49.9479 732 27.0555
50.0653 760 27.5681
50.1827 718 26.7955
50.3001 645 25.3969
50.4175 629 25.0799
50.5348 619 24.8797
50.6521 703 26.5141
50.7694 772 27.7849
50.8867 724 26.9072
51.004 732 27.0555
51.1212 733 27.074
51.2384 787 28.0535
51.3556 821 28.6531
51.4727 829 28.7924
51.5899 872 29.5296
51.707 844 29.0517
51.824 944 30.7246
51.9411 926 30.4302
52.0581 902 30.0333
52.175 952 30.8545
52.2919 922 30.3645
52.4088 929 30.4795
52.5257 997 31.5753
52.6425 912 30.1993
52.7593 893 29.8831
52.876 931 30.5123
52.9927 984 31.3688
53.1094 948 30.7896
53.226 957 30.9354
53.3426 931 30.5123
53.4591 887 29.7825
53.5756 1007 31.7333
53.692 1012 31.8119
53.8084 982 31.3369
53.9248 906 30.0998
54.0411 798 28.2489
54.1573 797 28.2312
54.2735 0 1
54.3896 0 1
54.5057 0 1
54.6217 0 1
54.7377 0 1
54.8537 0 1
54.9695 0 1
55.0853 0 1
55.2011 0 1
55.3168 0 1
55.4324 0 1
57.824 0 1
57.9396 0 1
58.0553 0 1
58.1711 0 1
58.2869 0 1
58.4028 0 1
58.5187 0 1
58.6347 0 1
58.7508 0 1
58.8669 0 1
58.983 1016 31.8748
59.0992 975 31.225
59.2155 921 30.348
59.3318 971 31.1609
59.4482 974 31.209
59.5646 1000 31.6228
59.681 943 30.7083
59.7975 946 30.7571
59.9141 1034 32.1559
60.0306 1062 32.5883
60.1473 1094 33.0757
60.2639 1083 32.909
60.3807 1071 32.7261
60.4974 1077 32.8177
60.6142 1007 31.7333
60.731 1032 32.1248
60.8479 1057 32.5115
60.9648 992 31.496
61.0818 1067 32.665
61.1987 1037 32.2025
61.3158 991 31.4802
61.4328 1088 32.9848
61.5499 1042 32.28
61.667 974 31.209
61.7841 941 30.6757
61.9013 1027 32.0468
62.0185 1051 32.4191
62.1357 937 30.6105
62.253 974 31.209
62.3702 971 31.1609
62.4875 875 29.5804
62.6049 939 30.6431
62.7222 874 29.5635
62.8396 877 29.6142
62.9569 888 29.7993
63.0743 868 29.4618
63.1918 858 29.2916
63.3092 889 29.8161
63.4267 982 31.3369
63.5441 959 30.9677
63.6616 933 30.545
63.7791 875 29.5804
63.8966 895 29.9166
64.0142 912 30.1993
64.1317 909 30.1496
64.2492 881 29.6816
64.3668 889 29.8161
64.4843 907 30.1164
64.6019 846 29.0861
64.7195 906 30.0998
64.837 828 28.775
64.9546 914 30.2324
65.0722 868 29.4618
65.1898 864 29.3939
65.3074 862 29.3598
65.4249 861 29.3428
65.5425 860 29.3258
65.6601 861 29.3428
65.7777 877 29.6142
65.8952 830 28.8097
66.0128 864 29.3939
66.1304 834 28.8791
66.2479 679 26.0576
66.3655 696 26.3818
66.483 721 26.8514
66.6005 727 26.9629
66.718 754 27.4591
66.8355 774 27.8209
66.953 807 28.4077
67.0705 811 28.4781
67.1879 825 28.7228
67.3054 821 28.6531
67.4228 844 29.0517
67.5402 800 28.2843
67.6576 766 27.6767
67.7749 802 28.3196
67.8923 797 28.2312
68.0096 731 27.037
68.1269 766 27.6767
68.2442 742 27.2397
68.3614 794 28.178
68.4787 797 28.2312
68.5958 756 27.4955
68.713 807 28.4077
68.8302 795 28.1957
68.9473 755 27.4773
69.0643 764 27.6405
69.1814 768 27.7128
69.2984 756 27.4955
69.4154 758 27.5318
69.5323 791 28.1247
69.6492 799 28.2666
69.7661 788 28.0713
69.8829 685 26.1725
69.9997 711 26.6646
70.1165 668 25.8457
70.2332 652 25.5343
70.3499 648 25.4558
70.4665 657 25.632
70.5831 737 27.1477
70.6996 667 25.8263
70.8161 702 26.4953
70.9326 737 27.1477
71.049 690 26.2679
71.1653 747 27.3313
71.2817 705 26.5518
71.3979 715 26.7395
71.5141 669 25.865
71.6303 639 25.2784
71.7464 613 24.7588
71.8624 0 1
71.9784 0 1
72.0944 0 1
72.2102 0 1
72.3261 0 1
72.4418 0 1
72.5575 0 1
72.6732 0 1
75.1054 0 1
75.2209 0 1
75.3365 0 1
75.4521 0 1
75.5678 0 1
75.6835 0 1
75.7993 0 1
75.9151 0 1
76.031 0 1
76.147 536 23.1517
76.263 581 24.1039
76.3791 600 24.4949
76.4952 567 23.8118
76.6113 589 24.2693
76.7276 609 24.6779
76.8438 555 23.5584
76.9601 541 23.2594
77.0765 538 23.1948
77.1929 522 22.8473
77.3093 501 22.383
77.4258 546 23.3666
77.5423 517 22.7376
77.6589 533 23.0868
77.7755 470 21.6795
77.8921 493 22.2036
78.0088 509 22.561
78.1256 471 21.7025
78.2423 505 22.4722
78.3591 507 22.5167
78.4759 512 22.6274
78.5928 452 21.2603
78.7097 425 20.6155
78.8266 461 21.4709
78.9436 390 19.7484
79.0606 415 20.3715
79.1776 347 18.6279
79.2946 381 19.5192
79.4117 357 18.8944
79.5288 462 21.4942
79.6459 408 20.199
79.7631 427 20.664
79.8802 402 20.0499
79.9974 373 19.3132
80.1147 397 19.9249
80.2319 384 19.5959
80.3491 382 19.5448
80.4664 362 19.0263
80.5837 387 19.6723
80.701 311 17.6352
80.8183 331 18.1934
80.9357 310 17.6068
81.053 334 18.2757
81.1704 295 17.1756
81.2877 296 17.2047
81.4051 325 18.0278
81.5225 323 17.9722
81.6399 276 16.6132
81.7573 283 16.8226
81.8747 231 15.1987
81.9922 287 16.9411
82.1096 302 17.3781
82.227 241 15.5242
82.3444 239 15.4596
82.4619 229 15.1327
82.5793 210 14.4914
82.6967 237 15.3948
82.8142 196 14
82.9316 177 13.3041
83.049 187 13.6748
83.1664 210 14.4914
83.2838 193 13.8924
83.4012 176 13.2665
83.5186 170 13.0384
83.636 157 12.53
83.7534 156 12.49
83.8708 143 11.9583
83.9881 120 10.9545
84.1055 146 12.083
84.2228 128 11.3137
84.3401 131 11.4455
84.4575 121 11
84.5747 119 10.9087
84.692 128 11.3137
84.8093 129 11.3578
84.9265 122 11.0454
85.0437 119 10.9087
85.1609 88 9.38083
85.2781 109 10.4403
85.3952 112 10.583
85.5123 104 10.198
85.6294 102 10.0995
85.7465 90 9.48683
85.8636 102 10.0995
85.9806 110 10.4881
86.0976 84 9.16515
86.2145 107 10.3441
86.3315 87 9.32738
86.4484 114 10.6771
86.5652 113 10.6301
86.682 137 11.7047
86.7988 143 11.9583
86.9156 145 12.0416
87.0323 141 11.8743
87.149 144 12
87.2657 150 12.2474
87.3823 152 12.3288
87.4988 168 12.9615
87.6154 173 13.1529
87.7318 203 14.2478
87.8483 189 13.7477
87.9647 204 14.2829
88.081 205 14.3178
88.1973 195 13.9642
88.3136 225 15
88.4298 238 15.4272
88.546 236 15.3623
88.6621 243 15.5885
88.7781 241 15.5242
88.8942 0 1
89.0101 0 1
89.126 0 1
89.2419 0 1
89.3577 0 1
89.4734 0 1
89.5891 0 1
89.7047 0 1
89.8203 0 1
89.9358 0 1
92.3269 0 1
92.4424 0 1
92.558 0 1
92.6736 0 1
92.7893 0 1
92.905 0 1
93.0208 0 1
93.1366 0 1
93.2525 0 1
93.3685 0 1
93.4845 0 1
93.6005 393 19.8242
93.7167 387 19.6723
93.8328 387 19.6723
93.949 363 19.0526
94.0653 358 18.9209
94.1816 367 19.1572
94.2979 325 18.0278
94.4143 350 18.7083
94.5307 366 19.1311
94.6472 322 17.9444
94.7637 322 17.9444
94.8803 335 18.303
94.9969 332 18.2209
95.1135 367 19.1572
95.2302 321 17.9165
95.3469 280 16.7332
95.4637 235 15.3297
95.5805 224 14.9666
95.6973 300 17.3205
95.8142 341 18.4662
95.9311 313 17.6918
96.048 366 19.1311
96.1649 350 18.7083
96.2819 410 20.2485
96.3989 392 19.799
96.516 406 20.1494
96.633 403 20.0749
96.7501 410 20.2485
96.8673 408 20.199
96.9844 449 21.1896
97.1016 467 21.6102
97.2188 417 20.4206
97.336 475 21.7945
97.4532 505 22.4722
97.5704 483 21.9773
97.6877 512 22.6274
97.805 501 22.383
97.9223 534 23.1084
98.0396 522 22.8473
98.1569 550 23.4521
98.2743 529 23
98.3916 541 23.2594
98.509 574 23.9583
98.6264 541 23.2594
98.7438 543 23.3024
98.8612 554 23.5372
98.9786 489 22.1133
99.096 386 19.6469
99.2134 396 19.8997
99.3308 538 23.1948
99.4482 658 25.6515
99.5656 693 26.3249
99.6831 657 25.632
99.8005 625 25
99.9179 670 25.8844
100.035 682 26.1151
100.153 683 26.1343
100.27 696 26.3818
100.388 766 27.6767
100.505 669 25.865
100.622 715 26.7395
100.74 725 26.9258
100.857 729 27
100.975 774 27.8209
101.092 731 27.037
101.209 723 26.8887
101.327 770 27.7489
101.444 736 27.1293
101.561 822 28.6705
101.679 769 27.7308
101.796 742 27.2397
101.913 784 28
102.03 803 28.3373
102.148 812 28.4956
102.265 868 29.4618
102.382 684 26.1534
102.499 677 26.0192
102.616 603 24.5561
102.733 531 23.0434
102.851 627 25.04
102.968 789 28.0891
103.085 820 28.6356
103.202 844 29.0517
103.319 837 28.931
103.436 836 28.9137
103.552 820 28.6356
103.669 803 28.3373
103.786 816 28.5657
103.903 838 28.9482
104.02 809 28.4429
104.137 814 28.5307
104.253 838 28.9482
104.37 855 29.2404
104.487 846 29.0861
104.603 855 29.2404
104.72 926 30.4302
104.836 912 30.1993
104.953 873 29.5466
105.069 904 30.0666
105.186 894 29.8998
105.302 872 29.5296
105.418 857 29.2746
105.535 902 30.0333
105.651 875 29.5804
105.767 828 28.775
105.883 786 28.0357
105.999 642 25.3377
106.115 0 1
106.231 0 1
106.347 0 1
106.463 0 1
106.579 0 1
106.694 0 1
106.81 0 1
106.926 0 1
107.041 0 1
107.157 0 1
109.576 0 1
109.692 0 1
109.807 0 1
109.923 0 1
110.039 0 1
110.155 0 1
110.27 0 1
110.386 0 1
110.502 0 1
110.618 679 26.0576
110.735 699 26.4386
110.851 729 27
110.967 682 26.1151
111.083 599 24.4745
111.199 536 23.1517
111.316 534 23.1084
111.432 600 24.4949
111.549 651 25.5147
111.665 662 25.7294
111.782 707 26.5895
111.898 642 25.3377
112.015 610 24.6982
112.132 582 24.1247
112.248 640 25.2982
112.365 610 24.6982
112.482 541 23.2594
112.599 579 24.0624
112.716 586 24.2074
112.832 552 23.4947
112.949 601 24.5153
113.066 612 24.7386
113.183 549 23.4307
113.3 538 23.1948
113.417 525 22.9129
113.534 513 22.6495
113.652 547 23.388
113.769 480 21.9089
113.886 521 22.8254
114.003 533 23.0868
114.12 495 22.2486
114.238 485 22.0227
114.355 468 21.6333
114.472 469 21.6564
114.589 458 21.4009
114.707 478 21.8632
114.824 394 19.8494
114.942 456 21.3542
115.059 470 21.6795
115.176 525 22.9129
115.294 476 21.8174
115.411 502 22.4054
115.529 500 22.3607
115.646 487 22.0681
115.764 516 22.7156
115.881 467 21.6102
115.999 475 21.7945
116.116 479 21.8861
116.234 450 21.2132
116.351 470 21.6795
116.469 461 21.4709
116.586 489 22.1133
116.704 442 21.0238
116.821 486 22.0454
116.939 493 22.2036
117.056 479 21.8861
117.174 499 22.3383
117.291 467 21.6102
117.409 472 21.7256
117.526 432 20.7846
117.644 438 20.9284
117.761 461 21.4709
117.879 439 20.9523
117.996 399 19.975
118.114 362 19.0263
118.231 414 20.347
118.349 468 21.6333
118.466 474 21.7715
118.584 473 21.7486
118.701 489 22.1133
118.819 504 22.4499
118.936 481 21.9317
119.053 478 21.8632
119.171 493 22.2036
119.288 475 21.7945
119.405 472 21.7256
119.523 519 22.7816
119.64 485 22.0227
119.757 472 21.7256
119.875 503 22.4277
119.992 488 22.0907
120.109 509 22.561
120.226 498 22.3159
120.343 504 22.4499
120.46 520 22.8035
120.578 494 22.2261
120.695 482 21.9545
120.812 512 22.6274
120.929 473 21.7486
121.046 505 22.4722
121.163 581 24.1039
121.279 528 22.9783
121.396 510 22.5832
121.513 473 21.7486
121.63 433 20.8087
121.747 380 19.4936
121.863 339 18.412
121.98 442 21.0238
122.097 492 22.1811
122.213 551 23.4734
122.33 513 22.6495
122.446 506 22.4944
122.563 521 22.8254
122.679 492 22.1811
122.795 565 23.7697
122.912 511 22.6053
123.028 513 22.6495
123.144 556 23.5797
123.26 558 23.622
123.377 0 1
123.493 0 1
123.609 0 1
123.725 0 1
123.84 0 1
123.956 0 1
124.072 0 1
124.188 0 1
124.303 0 1
124.419 0 1
126.852 0 1
126.968 0 1
127.083 0 1
127.199 0 1
127.315 0 1
127.431 0 1
127.547 0 1
127.663 0 1
127.779 0 1
127.895 0 1
128.011 0 1
128.127 0 1
128.243 0 1
128.359 643 25.3574
128.476 716 26.7582
128.592 700 26.4575
128.708 672 25.923
128.825 685 26.1725
128.941 652 25.5343
129.058 682 26.1151
129.174 681 26.096
129.291 736 27.1293
129.408 645 25.3969
129.524 714 26.7208
129.641 712 26.6833
129.758 679 26.0576
129.875 697 26.4008
129.992 759 27.55
130.108 692 26.3059
130.225 671 25.9037
130.342 625 25
130.459 588 24.2487
130.576 527 22.9565
130.693 454 21.3073
130.81 485 22.0227
130.928 499 22.3383
131.045 609 24.6779
131.162 688 26.2298
131.279 720 26.8328
131.396 742 27.2397
131.513 710 26.6458
131.631 737 27.1477
131.748 704 26.533
131.865 696 26.3818
131.983 762 27.6043
132.1 766 27.6767
132.217 728 26.9815
132.335 737 27.1477
132.452 735 27.1109
132.57 776 27.8568
132.687 742 27.2397
132.804 769 27.7308
132.922 757 27.5136
133.039 766 27.6767
133.157 772 27.7849
133.274 720 26.8328
133.392 818 28.6007
133.509 730 27.0185
133.627 747 27.3313
133.744 720 26.8328
133.862 747 27.3313
133.979 678 26.0384
134.097 669 25.865
134.214 604 24.5764
134.332 570 23.8747
134.449 568 23.8328
134.567 580 24.0832
134.684 642 25.3377
134.802 672 25.923
134.919 824 28.7054
135.037 819 28.6182
135.154 794 28.178
135.272 834 28.8791
135.389 848 29.1204
135.507 812 28.4956
135.624 824 28.7054
135.742 847 29.1033
135.859 856 29.2575
135.977 849 29.1376
136.094 848 29.1204
136.211 801 28.3019
136.329 808 28.4253
136.446 860 29.3258
136.564 871 29.5127
136.681 796 28.2135
136.798 829 28.7924
136.915 905 30.0832
137.033 822 28.6705
137.15 854 29.2233
137.267 808 28.4253
137.384 743 27.258
137.502 807 28.4077
137.619 690 26.2679
137.736 653 25.5539
137.853 682 26.1151
137.97 619 24.8797
138.087 652 25.5343
138.204 663 25.7488
138.321 690 26.2679
138.438 834 28.8791
138.555 877 29.6142
138.672 927 30.4467
138.788 876 29.5973
138.905 890 29.8329
139.022 880 29.6648
139.139 850 29.1548
139.255 921 30.348
139.372 929 30.4795
139.488 913 30.2159
139.605 961 31
139.721 945 30.7409
139.838 868 29.4618
139.954 897 29.95
140.071 873 29.5466
140.187 902 30.0333
140.303 842 29.0172
140.419 934 30.5614
140.535 924 30.3974
140.652 922 30.3645
140.768 0 1
140.884 0 1
141 0 1
141.115 0 1
141.231 0 1
141.347 0 1
141.463 0 1
141.578 0 1
141.694 0 1
144.104 0 1
144.219 0 1
144.335 0 1
144.45 0 1
144.566 0 1
144.682 0 1
144.798 0 1
144.914 0 1
145.03 0 1
145.146 878 29.6311
145.262 894 29.8998
145.378 868 29.4618
145.494 888 29.7993
145.61 903 30.05
145.726 896 29.9333
145.842 941 30.6757
145.959 790 28.1069
146.075 847 29.1033
146.192 760 27.5681
146.308 745 27.2947
146.425 725 26.9258
146.541 689 26.2488
146.658 674 25.9615
146.774 672 25.923
146.891 760 27.5681
147.008 766 27.6767
147.125 754 27.4591
147.241 872 29.5296
147.358 884 29.7321
147.475 875 29.5804
147.592 907 30.1164
147.709 854 29.2233
147.826 863 29.3769
147.943 868 29.4618
148.06 865 29.4109
148.177 876 29.5973
148.294 867 29.4449
148.411 837 28.931
148.528 907 30.1164
148.645 879 29.6479
148.762 923 30.3809
148.88 839 28.9655
148.997 822 28.6705
149.114 941 30.6757
149.231 826 28.7402
149.349 845 29.0689
149.466 811 28.4781
149.583 798 28.2489
149.701 775 27.8388
149.818 741 27.2213
149.935 750 27.3861
150.053 708 26.6083
150.17 707 26.5895
150.287 731 27.037
150.405 724 26.9072
150.522 758 27.5318
150.64 745 27.2947
150.757 852 29.189
150.875 818 28.6007
150.992 854 29.2233
151.11 924 30.3974
151.227 924 30.3974
151.344 919 30.315
151.462 903 30.05
151.579 939 30.6431
151.697 838 28.9482
151.814 865 29.4109
151.932 932 30.5287
152.049 922 30.3645
152.167 944 30.7246
152.284 876 29.5973
152.402 920 30.3315
152.519 906 30.0998
152.636 882 29.6985
152.754 858 29.2916
152.871 909 30.1496
152.989 888 29.7993
153.106 858 29.2916
153.223 823 28.688
153.341 804 28.3549
153.458 809 28.4429
153.575 768 27.7128
153.693 745 27.2947
153.81 793 28.1603
153.927 765 27.6586
154.044 787 28.0535
154.162 820 28.6356
154.279 863 29.3769
154.396 882 29.6985
154.513 867 29.4449
154.63 943 30.7083
154.747 942 30.692
154.864 972 31.1769
154.981 917 30.282
155.098 920 30.3315
155.215 920 30.3315
155.332 958 30.9516
155.449 944 30.7246
155.566 990 31.4643
155.683 917 30.282
155.8 954 30.8869
155.917 941 30.6757
156.033 997 31.5753
156.15 0 1
156.267 0 1
156.383 0 1
156.5 0 1
156.617 0 1
156.733 0 1
156.85 0 1
156.966 0 1
157.082 0 1
157.199 0 1
157.315 0 1
157.431 0 1
157.547 0 1
157.664 0 1
157.78 0 1
157.896 0 1
158.012 0 1
158.128 0 1
158.244 0 1
158.359 0 1
158.475 0 1
158.591 0 1
158.706 0 1
