
6.15755 0 1
6.2731 0 1
6.3887 0 1
6.50437 0 1
6.62009 0 1
6.73587 0 1
6.8517 0 1
6.96759 0 1
7.08353 0 1
7.19952 0 1
7.31557 0 1
7.43166 0 1
7.54781 0 1
7.664 0 1
7.78024 0 1
7.89653 0 1
8.01286 0 1
8.12924 0 1
8.24567 0 1
8.36213 0 1
8.47864 0 1
8.59519 0 1
8.71178 0 1
8.82841 0 1
8.94508 0 1
9.06179 0 1
9.17853 0 1
9.29531 0 1
9.41212 0 1
9.52897 0 1
9.64584 0 1
9.76276 0 1
9.8797 0 1
9.99667 0 1
10.1137 0 1
10.2307 0 1
10.3478 0 1
10.4648 0 1
10.5819 0 1
10.6991 0 1
10.8162 0 1
10.9334 0 1
11.0506 0 1
11.1678 0 1
11.285 0 1
11.4023 0 1
11.5196 0 1
11.6369 0 1
11.7542 0 1
11.8715 0 1
11.9888 0 1
12.1062 0 1
12.2235 0 1
12.3409 0 1
12.4582 0 1
12.5756 0 1
12.693 0 1
12.8104 0 1
12.9278 0 1
13.0452 0 1
13.1626 0 1
13.28 0 1
13.3974 0 1
13.5149 0 1
13.6323 0 1
13.7497 0 1
13.8671 0 1
13.9845 0 1
14.1019 0 1
14.2193 0 1
14.3367 0 1
14.4541 0 1
14.5714 0 1
14.6888 0 1
14.8062 0 1
14.9235 0 1
15.0408 0 0
15.1581 0 0
15.2755 0 0
15.3927 0 0
15.51 0 0
15.6273 0 0
15.7445 0 0
15.8617 0 0
15.9789 0 0
16.0961 0 0
16.2132 0 0
16.3304 0 0
16.4475 0 0
16.5646 0 0
16.6816 0 0
16.7986 0 0
16.9156 0 0
17.0326 0 0
17.1496 0 0
17.2665 0 0
17.3833 0 0
17.5002 0 0
17.617 0 0
17.7338 0 0
17.8505 0 0
17.9672 0 0
18.0839 0 0
18.2005 0 0
18.3171 0 0
18.4337 0 0
18.5502 0 0
18.6666 0 0
18.7831 0 0
18.8994 0 0
19.0158 0 0
19.1321 0 0
19.2483 0 0
19.3645 0 0
19.4806 0 0
19.5967 0 0
19.7128 0 0
19.8288 0 0
19.9447 0 0
20.0606 0 1
20.1764 0 1
20.2922 0 1
20.4079 0 1
20.5236 0 1
20.6392 0 1
20.7548 0 1
20.8702 0 1
23.3078 0 1
23.4233 0 1
23.539 0 1
23.6547 0 1
23.7704 0 1
23.8862 0 1
24.0021 0 1
24.118 0 1
24.234 0 1
24.35 0 1
24.4661 1286 35.8608
24.5822 1321 36.3456
24.6984 1352 36.7696
24.8146 1327 36.428
24.9309 1317 36.2905
25.0472 1314 36.2491
25.1636 1351 36.756
25.28 1362 36.9053
25.3965 1355 36.8103
25.513 1334 36.524
25.6296 1329 36.4555
25.7462 1417 37.6431
25.8628 1412 37.5766
25.9795 1415 37.6165
26.0962 1317 36.2905
26.213 1359 36.8646
26.3298 1306 36.1386
26.4466 1301 36.0694
26.5635 1285 35.8469
26.6804 1250 35.3553
26.7973 1240 35.2136
26.9143 1280 35.7771
27.0313 1391 37.2961
27.1483 1420 37.6829
27.2653 1345 36.6742
27.3824 1384 37.2022
27.4996 1376 37.0945
27.6167 1380 37.1484
27.7339 1425 37.7492
27.8511 1342 36.6333
27.9683 1365 36.9459
28.0855 1381 37.1618
28.2028 1401 37.4299
28.3201 1358 36.8511
28.4374 1301 36.0694
28.5547 1273 35.6791
28.6721 1233 35.1141
28.7894 1206 34.7275
28.9068 1176 34.2929
29.0242 1208 34.7563
29.1416 1293 35.9583
29.259 1222 34.9571
29.3764 1259 35.4824
29.4939 1216 34.8712
29.6113 1229 35.0571
29.7288 1206 34.7275
29.8463 1277 35.7351
29.9638 1237 35.171
30.0812 1196 34.5832
30.1987 1174 34.2637
30.3162 1209 34.7707
30.4337 1235 35.1426
30.5512 1334 36.524
30.6687 1314 36.2491
30.7862 1436 37.8946
30.9037 1393 37.3229
31.0212 1372 37.0405
31.1387 1308 36.1663
31.2562 1328 36.4417
31.3737 1284 35.8329
31.4912 1319 36.318
31.6087 1289 35.9026
31.7262 1275 35.7071
31.8436 1249 35.3412
31.9611 1223 34.9714
32.0785 1217 34.8855
32.1959 1208 34.7563
32.3134 1197 34.5977
32.4308 1116 33.4066
32.5482 1074 32.7719
32.6655 1142 33.7935
32.7829 1218 34.8999
32.9002 1194 34.5543
33.0176 1141 33.7787
33.1349 1130 33.6155
33.2522 1266 35.5809
33.3694 1217 34.8855
33.4867 1286 35.8608
33.6039 1231 35.0856
33.7211 1190 34.4964
33.8383 1139 33.7491
33.9554 1171 34.2199
34.0725 1204 34.6987
34.1896 1232 35.0999
34.3067 1282 35.805
34.4237 1346 36.6879
34.5407 1351 36.756
34.6577 1311 36.2077
34.7746 1334 36.524
34.8915 1360 36.8782
35.0084 1306 36.1386
35.1252 1328 36.4417
35.242 1272 35.6651
35.3587 1312 36.2215
35.4755 1235 35.1426
35.5921 1245 35.2846
35.7088 1197 34.5977
35.8254 1121 33.4813
35.9419 1105 33.2415
36.0584 1061 32.573
36.1749 1115 33.3916
36.2913 1085 32.9393
36.4077 1063 32.6037
36.524 1114 33.3766
36.6403 1136 33.7046
36.7565 1149 33.8969
36.8727 1163 34.1028
36.9889 1221 34.9428
37.1049 1149 33.8969
37.221 0 1
37.3369 0 1
37.4529 0 1
37.5687 0 1
37.6845 0 1
37.8003 0 1
37.916 0 1
38.0316 0 1
38.1472 0 1
40.5851 0 1
40.7008 0 1
40.8164 0 1
40.9322 0 1
41.048 0 1
41.1639 0 1
41.2798 0 1
41.3958 0 1
41.5118 0 1
41.6279 0 1
41.744 781 27.9464
41.8602 885 29.7489
41.9765 937 30.6105
42.0928 880 29.6648
42.2091 945 30.7409
42.3255 949 30.8058
42.4419 932 30.5287
42.5584 853 29.2062
42.675 781 27.9464
42.7915 869 29.4788
42.9081 911 30.1828
43.0248 964 31.0483
43.1415 1027 32.0468
43.2582 961 31
43.375 939 30.6431
43.4918 955 30.9031
43.6087 995 31.5436
43.7256 923 30.3809
43.8425 956 30.9192
43.9595 867 29.4449
44.0765 901 30.0167
44.1935 890 29.8329
44.3106 893 29.8831
44.4277 817 28.5832
44.5448 736 27.1293
44.6619 732 27.0555
44.7791 698 26.4197
44.8963 662 25.7294
45.0136 659 25.671
45.1308 692 26.3059
45.2481 636 25.219
45.3654 655 25.593
45.4827 690 26.2679
45.6001 673 25.9422
45.7174 685 26.1725
45.8348 697 26.4008
45.9522 703 26.5141
46.0697 648 25.4558
46.1871 618 24.8596
46.3046 606 24.6171
46.422 641 25.318
46.5395 632 25.1396
46.657 753 27.4408
46.7745 725 26.9258
46.892 691 26.2869
47.0096 696 26.3818
47.1271 714 26.7208
47.2446 701 26.4764
47.3622 653 25.5539
47.4797 669 25.865
47.5973 638 25.2587
47.7149 647 25.4362
47.8324 610 24.6982
47.95 556 23.5797
48.0675 515 22.6936
48.1851 533 23.0868
48.3027 464 21.5407
48.4202 474 21.7715
48.5378 446 21.1187
48.6554 462 21.4942
48.7729 467 21.6102
48.8904 470 21.6795
49.008 519 22.7816
49.1255 533 23.0868
49.243 528 22.9783
49.3605 554 23.5372
49.478 488 22.0907
49.5955 462 21.4942
49.713 435 20.8567
49.8304 498 22.3159
49.9479 513 22.6495
50.0653 515 22.6936
50.1827 550 23.4521
50.3001 612 24.7386
50.4175 648 25.4558
50.5348 670 25.8844
50.6521 641 25.318
50.7694 679 26.0576
50.8867 674 25.9615
51.004 721 26.8514
51.1212 708 26.6083
51.2384 722 26.8701
51.3556 710 26.6458
51.4727 689 26.2488
51.5899 663 25.7488
51.707 632 25.1396
51.824 626 25.02
51.9411 735 27.1109
52.0581 633 25.1595
52.175 675 25.9808
52.2919 669 25.865
52.4088 737 27.1477
52.5257 749 27.3679
52.6425 749 27.3679
52.7593 841 29
52.876 826 28.7402
52.9927 839 28.9655
53.1094 809 28.4429
53.226 828 28.775
53.3426 841 29
53.4591 920 30.3315
53.5756 951 30.8383
53.692 970 31.1448
53.8084 1017 31.8904
53.9248 1015 31.8591
54.0411 1032 32.1248
54.1573 1071 32.7261
54.2735 0 1
54.3896 0 1
54.5057 0 1
54.6217 0 1
54.7377 0 1
54.8537 0 1
54.9695 0 1
55.0853 0 1
55.2011 0 1
55.3168 0 1
55.4324 0 1
57.824 0 1
57.9396 0 1
58.0553 0 1
58.1711 0 1
58.2869 0 1
58.4028 0 1
58.5187 0 1
58.6347 0 1
58.7508 0 1
58.8669 0 1
58.983 1131 33.6303
59.0992 1128 33.5857
59.2155 1259 35.4824
59.3318 1289 35.9026
59.4482 1269 35.623
59.5646 1218 34.8999
59.681 1297 36.0139
59.7975 1245 35.2846
59.9141 1144 33.8231
60.0306 1136 33.7046
60.1473 1082 32.8938
60.2639 1026 32.0312
60.3807 910 30.1662
60.4974 892 29.8664
60.6142 868 29.4618
60.731 846 29.0861
60.8479 889 29.8161
60.9648 931 30.5123
61.0818 909 30.1496
61.1987 1017 31.8904
61.3158 957 30.9354
61.4328 1004 31.686
61.5499 1006 31.7175
61.667 971 31.1609
61.7841 949 30.8058
61.9013 953 30.8707
62.0185 968 31.1127
62.1357 982 31.3369
62.253 998 31.5911
62.3702 1107 33.2716
62.4875 1106 33.2566
62.6049 1177 34.3074
62.7222 1180 34.3511
62.8396 1211 34.7994
62.9569 1222 34.9571
63.0743 1198 34.6121
63.1918 1209 34.7707
63.3092 1166 34.1467
63.4267 1168 34.176
63.5441 1093 33.0606
63.6616 1094 33.0757
63.7791 975 31.225
63.8966 919 30.315
64.0142 878 29.6311
64.1317 811 28.4781
64.2492 840 28.9828
64.3668 915 30.249
64.4843 903 30.05
64.6019 942 30.692
64.7195 1005 31.7017
64.837 1036 32.187
64.9546 1071 32.7261
65.0722 1051 32.4191
65.1898 1083 32.909
65.3074 970 31.1448
65.4249 940 30.6594
65.5425 996 31.5595
65.6601 996 31.5595
65.7777 1026 32.0312
65.8952 1098 33.1361
66.0128 1172 34.2345
66.1304 1154 33.9706
66.2479 1192 34.5254
66.3655 1188 34.4674
66.483 1296 36
66.6005 1235 35.1426
66.718 1265 35.5668
66.8355 1253 35.3977
66.953 1167 34.1614
67.0705 1150 33.9116
67.1879 1132 33.6452
67.3054 1035 32.1714
67.4228 944 30.7246
67.5402 859 29.3087
67.6576 866 29.4279
67.7749 777 27.8747
67.8923 828 28.775
68.0096 836 28.9137
68.1269 901 30.0167
68.2442 927 30.4467
68.3614 999 31.607
68.4787 997 31.5753
68.5958 1030 32.0936
68.713 1039 32.2335
68.8302 1010 31.7805
68.9473 938 30.6268
69.0643 945 30.7409
69.1814 923 30.3809
69.2984 941 30.6757
69.4154 1046 32.3419
69.5323 1058 32.5269
69.6492 1060 32.5576
69.7661 1135 33.6898
69.8829 1259 35.4824
69.9997 1194 34.5543
70.1165 1261 35.5106
70.2332 1229 35.0571
70.3499 1205 34.7131
70.4665 1179 34.3366
70.5831 1217 34.8855
70.6996 1085 32.9393
70.8161 965 31.0644
70.9326 1009 31.7648
71.049 884 29.7321
71.1653 806 28.3901
71.2817 756 27.4955
71.3979 792 28.1425
71.5141 709 26.6271
71.6303 727 26.9629
71.7464 729 27
71.8624 0 1
71.9784 0 1
72.0944 0 1
72.2102 0 1
72.3261 0 1
72.4418 0 1
72.5575 0 1
72.6732 0 1
75.1054 0 1
75.2209 0 1
75.3365 0 1
75.4521 0 1
75.5678 0 1
75.6835 0 1
75.7993 0 1
75.9151 0 1
76.031 0 1
76.147 927 30.4467
76.263 906 30.0998
76.3791 950 30.8221
76.4952 857 29.2746
76.6113 745 27.2947
76.7276 804 28.3549
76.8438 835 28.8964
76.9601 857 29.2746
77.0765 822 28.6705
77.1929 904 30.0666
77.3093 1037 32.2025
77.4258 1071 32.7261
77.5423 1045 32.3265
77.6589 1079 32.8481
77.7755 1010 31.7805
77.8921 1058 32.5269
78.0088 964 31.0483
78.1256 968 31.1127
78.2423 982 31.3369
78.3591 966 31.0805
78.4759 995 31.5436
78.5928 1059 32.5423
78.7097 1148 33.8821
78.8266 1124 33.5261
78.9436 1137 33.7194
79.0606 1161 34.0735
79.1776 1154 33.9706
79.2946 1175 34.2783
79.4117 1225 35
79.5288 1180 34.3511
79.6459 1240 35.2136
79.7631 1130 33.6155
79.8802 1026 32.0312
79.9974 870 29.4958
80.1147 759 27.55
80.2319 681 26.096
80.3491 721 26.8514
80.4664 699 26.4386
80.5837 691 26.2869
80.701 752 27.4226
80.8183 784 28
80.9357 836 28.9137
81.053 905 30.0832
81.1704 956 30.9192
81.2877 896 29.9333
81.4051 906 30.0998
81.5225 877 29.6142
81.6399 831 28.8271
81.7573 861 29.3428
81.8747 833 28.8617
81.9922 823 28.688
82.1096 854 29.2233
82.227 863 29.3769
82.3444 942 30.692
82.4619 1012 31.8119
82.5793 1022 31.9687
82.6967 1006 31.7175
82.8142 955 30.9031
82.9316 998 31.5911
83.049 1029 32.078
83.1664 975 31.225
83.2838 911 30.1828
83.4012 801 28.3019
83.5186 769 27.7308
83.636 793 28.1603
83.7534 632 25.1396
83.8708 562 23.7065
83.9881 620 24.8998
84.1055 568 23.8328
84.2228 596 24.4131
84.3401 640 25.2982
84.4575 717 26.7769
84.5747 799 28.2666
84.692 839 28.9655
84.8093 868 29.4618
84.9265 811 28.4781
85.0437 823 28.688
85.1609 775 27.8388
85.2781 796 28.2135
85.3952 765 27.6586
85.5123 769 27.7308
85.6294 780 27.9285
85.7465 854 29.2233
85.8636 872 29.5296
85.9806 965 31.0644
86.0976 1027 32.0468
86.2145 1074 32.7719
86.3315 1119 33.4515
86.4484 1061 32.573
86.5652 1116 33.4066
86.682 1112 33.3467
86.7988 1110 33.3167
86.9156 968 31.1127
87.0323 912 30.1993
87.149 899 29.9833
87.2657 811 28.4781
87.3823 718 26.7955
87.4988 680 26.0768
87.6154 670 25.8844
87.7318 695 26.3629
87.8483 777 27.8747
87.9647 905 30.0832
88.081 951 30.8383
88.1973 1010 31.7805
88.3136 1010 31.7805
88.4298 1097 33.121
88.546 1025 32.0156
88.6621 980 31.305
88.7781 934 30.5614
88.8942 0 1
89.0101 0 1
89.126 0 1
89.2419 0 1
89.3577 0 1
89.4734 0 1
89.5891 0 1
89.7047 0 1
89.8203 0 1
89.9358 0 1
92.3269 0 1
92.4424 0 1
92.558 0 1
92.6736 0 1
92.7893 0 1
92.905 0 1
93.0208 0 1
93.1366 0 1
93.2525 0 1
93.3685 0 1
93.4845 0 1
93.6005 922 30.3645
93.7167 1025 32.0156
93.8328 1031 32.1092
93.949 1093 33.0606
94.0653 997 31.5753
94.1816 960 30.9839
94.2979 957 30.9354
94.4143 985 31.3847
94.5307 955 30.9031
94.6472 907 30.1164
94.7637 971 31.1609
94.8803 1021 31.9531
94.9969 1143 33.8083
95.1135 1162 34.0881
95.2302 1207 34.7419
95.3469 1333 36.5103
95.4637 1260 35.4965
95.5805 1270 35.6371
95.6973 1283 35.819
95.8142 1310 36.1939
95.9311 1184 34.4093
96.048 1125 33.541
96.1649 1070 32.7109
96.2819 976 31.241
96.3989 935 30.5778
96.516 861 29.3428
96.633 742 27.2397
96.7501 689 26.2488
96.8673 774 27.8209
96.9844 811 28.4781
97.1016 926 30.4302
97.2188 988 31.4325
97.336 1003 31.6702
97.4532 1027 32.0468
97.5704 994 31.5278
97.6877 1036 32.187
97.805 1009 31.7648
97.9223 987 31.4166
98.0396 968 31.1127
98.1569 1033 32.1403
98.2743 951 30.8383
98.3916 943 30.7083
98.509 963 31.0322
98.6264 1086 32.9545
98.7438 1057 32.5115
98.8612 1233 35.1141
98.9786 1261 35.5106
99.096 1288 35.8887
99.2134 1316 36.2767
99.3308 1249 35.3412
99.4482 1249 35.3412
99.5656 1232 35.0999
99.6831 1134 33.6749
99.8005 1099 33.1512
99.9179 1088 32.9848
100.035 969 31.1288
100.153 831 28.8271
100.27 699 26.4386
100.388 810 28.4605
100.505 884 29.7321
100.622 905 30.0832
100.74 997 31.5753
100.857 1049 32.3883
100.975 1115 33.3916
101.092 1065 32.6343
101.209 1077 32.8177
101.327 1005 31.7017
101.444 967 31.0966
101.561 1027 32.0468
101.679 947 30.7734
101.796 1004 31.686
101.913 1046 32.3419
102.03 1107 33.2716
102.148 1130 33.6155
102.265 1113 33.3617
102.382 1282 35.805
102.499 1326 36.4143
102.616 1374 37.0675
102.733 1354 36.7967
102.851 1430 37.8153
102.968 1375 37.081
103.085 1296 36
103.202 1238 35.1852
103.319 1177 34.3074
103.436 1064 32.619
103.552 990 31.4643
103.669 908 30.133
103.786 857 29.2746
103.903 809 28.4429
104.02 855 29.2404
104.137 981 31.3209
104.253 1001 31.6386
104.37 1090 33.0151
104.487 1149 33.8969
104.603 1100 33.1662
104.72 1165 34.1321
104.836 1134 33.6749
104.953 1103 33.2114
105.069 1073 32.7567
105.186 1137 33.7194
105.302 1121 33.4813
105.418 1033 32.1403
105.535 1195 34.5688
105.651 1268 35.609
105.767 1367 36.973
105.883 1452 38.1051
105.999 1433 37.855
106.115 0 1
106.231 0 1
106.347 0 1
106.463 0 1
106.579 0 1
106.694 0 1
106.81 0 1
106.926 0 1
107.041 0 1
107.157 0 1
109.576 0 1
109.692 0 1
109.807 0 1
109.923 0 1
110.039 0 1
110.155 0 1
110.27 0 1
110.386 0 1
110.502 0 1
110.618 1184 34.4093
110.735 1174 34.2637
110.851 1293 35.9583
110.967 1375 37.081
111.083 1299 36.0416
111.199 1404 37.47
111.316 1381 37.1618
111.432 1445 38.0132
111.549 1407 37.51
111.665 1393 37.3229
111.782 1228 35.0428
111.898 1246 35.2987
112.015 1081 32.8786
112.132 1030 32.0936
112.248 944 30.7246
112.365 872 29.5296
112.482 792 28.1425
112.599 875 29.5804
112.716 988 31.4325
112.832 1024 32
112.949 1065 32.6343
113.066 1080 32.8634
113.183 1060 32.5576
113.3 1024 32
113.417 994 31.5278
113.534 1040 32.249
113.652 966 31.0805
113.769 1046 32.3419
113.886 1035 32.1714
114.003 1129 33.6006
114.12 1154 33.9706
114.238 1174 34.2637
114.355 1256 35.4401
114.472 1235 35.1426
114.589 1307 36.1525
114.707 1279 35.7631
114.824 1422 37.7094
114.942 1420 37.6829
115.059 1319 36.318
115.176 1343 36.647
115.294 1323 36.3731
115.411 1204 34.6987
115.529 1211 34.7994
115.646 1027 32.0468
115.764 974 31.209
115.881 927 30.4467
115.999 854 29.2233
116.116 949 30.8058
116.234 990 31.4643
116.351 1065 32.6343
116.469 1089 33
116.586 1154 33.9706
116.704 1196 34.5832
116.821 1098 33.1361
116.939 1095 33.0908
117.056 1070 32.7109
117.174 1125 33.541
117.291 1121 33.4813
117.409 1149 33.8969
117.526 1155 33.9853
117.644 1196 34.5832
117.761 1304 36.1109
117.879 1330 36.4692
117.996 1287 35.8748
118.114 1411 37.5633
118.231 1334 36.524
118.349 1391 37.2961
118.466 1436 37.8946
118.584 1437 37.9078
118.701 1450 38.0789
118.819 1351 36.756
118.936 1336 36.5513
119.053 1275 35.7071
119.171 1237 35.171
119.288 1200 34.641
119.405 1091 33.0303
119.523 1014 31.8434
119.64 974 31.209
119.757 958 30.9516
119.875 1005 31.7017
119.992 1028 32.0624
120.109 1084 32.9242
120.226 1097 33.121
120.343 1159 34.0441
120.46 1040 32.249
120.578 1075 32.7872
120.695 1073 32.7567
120.812 1077 32.8177
120.929 1084 32.9242
121.046 1151 33.9264
121.163 1200 34.641
121.279 1257 35.4542
121.396 1259 35.4824
121.513 1291 35.9305
121.63 1370 37.0135
121.747 1363 36.9188
121.863 1371 37.027
121.98 1404 37.47
122.097 1419 37.6696
122.213 1411 37.5633
122.33 1431 37.8286
122.446 1377 37.108
122.563 1339 36.5923
122.679 1251 35.3695
122.795 1228 35.0428
122.912 1200 34.641
123.028 1133 33.6601
123.144 1021 31.9531
123.26 967 31.0966
123.377 0 1
123.493 0 1
123.609 0 1
123.725 0 1
123.84 0 1
123.956 0 1
124.072 0 1
124.188 0 1
124.303 0 1
124.419 0 1
126.852 0 1
126.968 0 1
127.083 0 1
127.199 0 1
127.315 0 1
127.431 0 1
127.547 0 1
127.663 0 1
127.779 0 1
127.895 0 1
128.011 0 1
128.127 0 1
128.243 0 1
128.359 1141 33.7787
128.476 1123 33.5112
128.592 1086 32.9545
128.708 1085 32.9393
128.825 1133 33.6601
128.941 1233 35.1141
129.058 1224 34.9857
129.174 1159 34.0441
129.291 1182 34.3802
129.408 1203 34.6843
129.524 1210 34.7851
129.641 1199 34.6266
129.758 1149 33.8969
129.875 1200 34.641
129.992 1248 35.327
130.108 1276 35.7211
130.225 1348 36.7151
130.342 1332 36.4966
130.459 1399 37.4032
130.576 1457 38.1707
130.693 1464 38.2623
130.81 1449 38.0657
130.928 1481 38.4838
131.045 1486 38.5487
131.162 1410 37.55
131.279 1476 38.4187
131.396 1395 37.3497
131.513 1376 37.0945
131.631 1383 37.1887
131.748 1239 35.1994
131.865 1228 35.0428
131.983 1170 34.2053
132.1 1149 33.8969
132.217 1090 33.0151
132.335 1154 33.9706
132.452 1171 34.2199
132.57 1221 34.9428
132.687 1192 34.5254
132.804 1172 34.2345
132.922 1179 34.3366
133.039 1211 34.7994
133.157 1186 34.4384
133.274 1160 34.0588
133.392 1233 35.1141
133.509 1207 34.7419
133.627 1286 35.8608
133.744 1280 35.7771
133.862 1297 36.0139
133.979 1398 37.3898
134.097 1365 36.9459
134.214 1369 37
134.332 1388 37.2559
134.449 1401 37.4299
134.567 1454 38.1314
134.684 1443 37.9868
134.802 1483 38.5097
134.919 1385 37.2156
135.037 1375 37.081
135.154 1333 36.5103
135.272 1305 36.1248
135.389 1216 34.8712
135.507 1187 34.4529
135.624 1143 33.8083
135.742 1047 32.3574
135.859 1178 34.322
135.977 1255 35.426
136.094 1252 35.3836
136.211 1166 34.1467
136.329 1272 35.6651
136.446 1184 34.4093
136.564 1235 35.1426
136.681 1199 34.6266
136.798 1203 34.6843
136.915 1172 34.2345
137.033 1165 34.1321
137.15 1230 35.0714
137.267 1306 36.1386
137.384 1292 35.9444
137.502 1382 37.1753
137.619 1322 36.3593
137.736 1329 36.4555
137.853 1347 36.7015
137.97 1418 37.6563
138.087 1425 37.7492
138.204 1352 36.7696
138.321 1438 37.921
138.438 1427 37.7757
138.555 1453 38.1182
138.672 1461 38.223
138.788 1393 37.3229
138.905 1269 35.623
139.022 1218 34.8999
139.139 1192 34.5254
139.255 1133 33.6601
139.372 1148 33.8821
139.488 1178 34.322
139.605 1208 34.7563
139.721 1205 34.7131
139.838 1257 35.4542
139.954 1237 35.171
140.071 1175 34.2783
140.187 1252 35.3836
140.303 1190 34.4964
140.419 1182 34.3802
140.535 1182 34.3802
140.652 1154 33.9706
140.768 0 1
140.884 0 1
141 0 1
141.115 0 1
141.231 0 1
141.347 0 1
141.463 0 1
141.578 0 1
141.694 0 1
144.104 0 1
144.219 0 1
144.335 0 1
144.45 0 1
144.566 0 1
144.682 0 1
144.798 0 1
144.914 0 1
145.03 0 1
145.146 879 29.6479
145.262 954 30.8869
145.378 1000 31.6228
145.494 970 31.1448
145.61 990 31.4643
145.726 951 30.8383
145.842 979 31.289
145.959 1024 32
146.075 1021 31.9531
146.192 1052 32.4345
146.308 980 31.305
146.425 1050 32.4037
146.541 1026 32.0312
146.658 1024 32
146.774 1021 31.9531
146.891 1051 32.4191
147.008 1105 33.2415
147.125 1050 32.4037
147.241 1095 33.0908
147.358 1104 33.2265
147.475 1099 33.1512
147.592 1057 32.5115
147.709 1070 32.7109
147.826 1070 32.7109
147.943 1016 31.8748
148.06 965 31.0644
148.177 905 30.0832
148.294 939 30.6431
148.411 961 31
148.528 1007 31.7333
148.645 1056 32.4962
148.762 1030 32.0936
148.88 1014 31.8434
148.997 952 30.8545
149.114 999 31.607
149.231 957 30.9354
149.349 1001 31.6386
149.466 1031 32.1092
149.583 1029 32.078
149.701 1033 32.1403
149.818 1020 31.9374
149.935 1002 31.6544
150.053 1046 32.3419
150.17 1058 32.5269
150.287 1045 32.3265
150.405 1092 33.0454
150.522 1036 32.187
150.64 1117 33.4215
150.757 1122 33.4963
150.875 1023 31.9844
150.992 1176 34.2929
151.11 1259 35.4824
151.227 1172 34.2345
151.344 1122 33.4963
151.462 1081 32.8786
151.579 1129 33.6006
151.697 1086 32.9545
151.814 948 30.7896
151.932 982 31.3369
152.049 984 31.3688
152.167 1013 31.8277
152.284 1073 32.7567
152.402 1092 33.0454
152.519 1053 32.45
152.636 1070 32.7109
152.754 1090 33.0151
152.871 988 31.4325
152.989 1052 32.4345
153.106 1059 32.5423
153.223 1097 33.121
153.341 1099 33.1512
153.458 1031 32.1092
153.575 1108 33.2866
153.693 1095 33.0908
153.81 1136 33.7046
153.927 1161 34.0735
154.044 1095 33.0908
154.162 1179 34.3366
154.279 1178 34.322
154.396 1191 34.5109
154.513 1182 34.3802
154.63 1240 35.2136
154.747 1275 35.7071
154.864 1285 35.8469
154.981 1275 35.7071
155.098 1259 35.4824
155.215 1317 36.2905
155.332 1092 33.0454
155.449 1057 32.5115
155.566 1125 33.541
155.683 1164 34.1174
155.8 1230 35.0714
155.917 1206 34.7275
156.033 1198 34.6121
156.15 0 1
156.267 0 1
156.383 0 1
156.5 0 1
156.617 0 1
156.733 0 1
156.85 0 1
156.966 0 1
157.082 0 1
157.199 0 1
157.315 0 1
157.431 0 1
157.547 0 1
157.664 0 1
157.78 0 1
157.896 0 1
158.012 0 1
158.128 0 1
158.244 0 1
158.359 0 1
158.475 0 1
158.591 0 1
158.706 0 1
