
6.15755 0 1
6.2731 0 1
6.3887 0 1
6.50437 0 1
6.62009 0 1
6.73587 0 1
6.8517 0 1
6.96759 0 1
7.08353 0 1
7.19952 0 1
7.31557 0 1
7.43166 0 1
7.54781 0 1
7.664 0 1
7.78024 0 1
7.89653 0 1
8.01286 0 1
8.12924 0 1
8.24567 0 1
8.36213 0 1
8.47864 0 1
8.59519 0 1
8.71178 0 1
8.82841 0 1
8.94508 0 1
9.06179 0 1
9.17853 0 1
9.29531 0 1
9.41212 0 1
9.52897 0 1
9.64584 0 1
9.76276 0 1
9.8797 0 1
9.99667 0 1
10.1137 0 1
10.2307 0 1
10.3478 0 1
10.4648 0 1
10.5819 0 1
10.6991 0 1
10.8162 0 1
10.9334 0 1
11.0506 0 1
11.1678 0 1
11.285 0 1
11.4023 0 1
11.5196 0 1
11.6369 0 1
11.7542 0 1
11.8715 0 1
11.9888 0 1
12.1062 0 1
12.2235 0 1
12.3409 0 1
12.4582 0 1
12.5756 0 1
12.693 0 1
12.8104 0 1
12.9278 0 1
13.0452 0 1
13.1626 0 1
13.28 0 1
13.3974 0 1
13.5149 0 1
13.6323 0 1
13.7497 0 1
13.8671 0 1
13.9845 0 1
14.1019 0 1
14.2193 0 1
14.3367 0 1
14.4541 0 1
14.5714 0 1
14.6888 0 1
14.8062 0 1
14.9235 0 1
15.0408 1057 32.5115
15.1581 1099 33.1512
15.2755 1189 34.4819
15.3927 1174 34.2637
15.51 1212 34.8138
15.6273 1169 34.1906
15.7445 1085 32.9393
15.8617 1209 34.7707
15.9789 1161 34.0735
16.0961 1186 34.4384
16.2132 1150 33.9116
16.3304 1260 35.4965
16.4475 1195 34.5688
16.5646 1225 35
16.6816 1378 37.1214
16.7986 1423 37.7227
16.9156 1464 38.2623
17.0326 1437 37.9078
17.1496 1378 37.1214
17.2665 1329 36.4555
17.3833 1406 37.4967
17.5002 1410 37.55
17.617 1320 36.3318
17.7338 1255 35.426
17.8505 1216 34.8712
17.9672 1220 34.9285
18.0839 1191 34.5109
18.2005 1287 35.8748
18.3171 1240 35.2136
18.4337 1319 36.318
18.5502 1409 37.5366
18.6666 1443 37.9868
18.7831 1447 38.0395
18.8994 1439 37.9342
19.0158 1381 37.1618
19.1321 1340 36.606
19.2483 1281 35.7911
19.3645 1188 34.4674
19.4806 1126 33.5559
19.5967 1054 32.4654
19.7128 996 31.5595
19.8288 869 29.4788
19.9447 845 29.0689
20.0606 0 1
20.1764 0 1
20.2922 0 1
20.4079 0 1
20.5236 0 1
20.6392 0 1
20.7548 0 1
20.8702 0 1
23.3078 0 1
23.4233 0 1
23.539 0 1
23.6547 0 1
23.7704 0 1
23.8862 0 1
24.0021 0 1
24.118 0 1
24.234 0 1
24.35 0 1
24.4661 580 24.0832
24.5822 730 27.0185
24.6984 821 28.6531
24.8146 868 29.4618
24.9309 870 29.4958
25.0472 1000 31.6228
25.1636 1048 32.3728
25.28 1170 34.2053
25.3965 1305 36.1248
25.513 1323 36.3731
25.6296 1483 38.5097
25.7462 1406 37.4967
25.8628 1514 38.9102
25.9795 1493 38.6394
26.0962 1465 38.2753
26.213 1486 38.5487
26.3298 1294 35.9722
26.4466 1322 36.3593
26.5635 1260 35.4965
26.6804 1307 36.1525
26.7973 1348 36.7151
26.9143 1282 35.805
27.0313 1354 36.7967
27.1483 1304 36.1109
27.2653 1444 38
27.3824 1428 37.7889
27.4996 1433 37.855
27.6167 1430 37.8153
27.7339 1415 37.6165
27.8511 1350 36.7423
27.9683 1331 36.4829
28.0855 1275 35.7071
28.2028 1174 34.2637
28.3201 1248 35.327
28.4374 1247 35.3129
28.5547 1216 34.8712
28.6721 1188 34.4674
28.7894 1236 35.1568
28.9068 1332 36.4966
29.0242 1398 37.3898
29.1416 1420 37.6829
29.259 1419 37.6696
29.3764 1409 37.5366
29.4939 1375 37.081
29.6113 1439 37.9342
29.7288 1409 37.5366
29.8463 1305 36.1248
29.9638 1242 35.242
30.0812 1121 33.4813
30.1987 1238 35.1852
30.3162 1281 35.7911
30.4337 1366 36.9594
30.5512 1299 36.0416
30.6687 1347 36.7015
30.7862 1347 36.7015
30.9037 1351 36.756
31.0212 1402 37.4433
31.1387 1413 37.5899
31.2562 1419 37.6696
31.3737 1363 36.9188
31.4912 1262 35.5246
31.6087 1240 35.2136
31.7262 1247 35.3129
31.8436 1239 35.1994
31.9611 1178 34.322
32.0785 1168 34.176
32.1959 1176 34.2929
32.3134 1237 35.171
32.4308 1310 36.1939
32.5482 1369 37
32.6655 1380 37.1484
32.7829 1350 36.7423
32.9002 1392 37.3095
33.0176 1439 37.9342
33.1349 1338 36.5787
33.2522 1386 37.229
33.3694 1323 36.3731
33.4867 1326 36.4143
33.6039 1206 34.7275
33.7211 1183 34.3948
33.8383 1126 33.5559
33.9554 1186 34.4384
34.0725 1252 35.3836
34.1896 1205 34.7131
34.3067 1255 35.426
34.4237 1228 35.0428
34.5407 1335 36.5377
34.6577 1324 36.3868
34.7746 1367 36.973
34.8915 1317 36.2905
35.0084 1335 36.5377
35.1252 1299 36.0416
35.242 1202 34.6699
35.3587 1262 35.5246
35.4755 1167 34.1614
35.5921 1095 33.0908
35.7088 1024 32
35.8254 1109 33.3017
35.9419 1142 33.7935
36.0584 1180 34.3511
36.1749 1220 34.9285
36.2913 1210 34.7851
36.4077 1275 35.7071
36.524 1142 33.7935
36.6403 1179 34.3366
36.7565 1139 33.7491
36.8727 1095 33.0908
36.9889 1010 31.7805
37.1049 930 30.4959
37.221 0 1
37.3369 0 1
37.4529 0 1
37.5687 0 1
37.6845 0 1
37.8003 0 1
37.916 0 1
38.0316 0 1
38.1472 0 1
40.5851 0 1
40.7008 0 1
40.8164 0 1
40.9322 0 1
41.048 0 1
41.1639 0 1
41.2798 0 1
41.3958 0 1
41.5118 0 1
41.6279 0 1
41.744 637 25.2389
41.8602 725 26.9258
41.9765 728 26.9815
42.0928 761 27.5862
42.2091 831 28.8271
42.3255 770 27.7489
42.4419 706 26.5707
42.5584 750 27.3861
42.675 899 29.9833
42.7915 877 29.6142
42.9081 941 30.6757
43.0248 992 31.496
43.1415 1044 32.311
43.2582 1114 33.3766
43.375 1105 33.2415
43.4918 1035 32.1714
43.6087 1086 32.9545
43.7256 1099 33.1512
43.8425 1093 33.0606
43.9595 1084 32.9242
44.0765 1024 32
44.1935 984 31.3688
44.3106 944 30.7246
44.4277 901 30.0167
44.5448 891 29.8496
44.6619 841 29
44.7791 938 30.6268
44.8963 956 30.9192
45.0136 1066 32.6497
45.1308 1093 33.0606
45.2481 1132 33.6452
45.3654 1133 33.6601
45.4827 1128 33.5857
45.6001 1142 33.7935
45.7174 1092 33.0454
45.8348 1013 31.8277
45.9522 965 31.0644
46.0697 892 29.8664
46.1871 959 30.9677
46.3046 904 30.0666
46.422 943 30.7083
46.5395 1046 32.3419
46.657 1044 32.311
46.7745 1070 32.7109
46.892 1104 33.2265
47.0096 1126 33.5559
47.1271 1145 33.8378
47.2446 1179 34.3366
47.3622 1151 33.9264
47.4797 1110 33.3167
47.5973 1059 32.5423
47.7149 1017 31.8904
47.8324 981 31.3209
47.95 928 30.4631
48.0675 962 31.0161
48.1851 911 30.1828
48.3027 942 30.692
48.4202 979 31.289
48.5378 1072 32.7414
48.6554 1115 33.3916
48.7729 1216 34.8712
48.8904 1219 34.9142
49.008 1163 34.1028
49.1255 1180 34.3511
49.243 1113 33.3617
49.3605 1027 32.0468
49.478 979 31.289
49.5955 920 30.3315
49.713 855 29.2404
49.8304 866 29.4279
49.9479 1014 31.8434
50.0653 1030 32.0936
50.1827 1067 32.665
50.3001 1073 32.7567
50.4175 1090 33.0151
50.5348 1152 33.9411
50.6521 1156 34
50.7694 1146 33.8526
50.8867 1153 33.9559
51.004 1206 34.7275
51.1212 1144 33.8231
51.2384 1176 34.2929
51.3556 1091 33.0303
51.4727 1084 32.9242
51.5899 1029 32.078
51.707 1036 32.187
51.824 1143 33.8083
51.9411 1222 34.9571
52.0581 1367 36.973
52.175 1425 37.7492
52.2919 1482 38.4968
52.4088 1523 39.0256
52.5257 1572 39.6485
52.6425 1506 38.8072
52.7593 1632 40.398
52.876 1582 39.7744
52.9927 1437 37.9078
53.1094 1466 38.2884
53.226 1383 37.1887
53.3426 1330 36.4692
53.4591 1300 36.0555
53.5756 1282 35.805
53.692 1327 36.428
53.8084 1352 36.7696
53.9248 1295 35.9861
54.0411 1335 36.5377
54.1573 1246 35.2987
54.2735 0 1
54.3896 0 1
54.5057 0 1
54.6217 0 1
54.7377 0 1
54.8537 0 1
54.9695 0 1
55.0853 0 1
55.2011 0 1
55.3168 0 1
55.4324 0 1
57.824 0 1
57.9396 0 1
58.0553 0 1
58.1711 0 1
58.2869 0 1
58.4028 0 1
58.5187 0 1
58.6347 0 1
58.7508 0 1
58.8669 0 1
58.983 838 28.9482
59.0992 1019 31.9218
59.2155 1088 32.9848
59.3318 1153 33.9559
59.4482 1178 34.322
59.5646 1309 36.1801
59.681 1266 35.5809
59.7975 1304 36.1109
59.9141 1254 35.4119
60.0306 1253 35.3977
60.1473 1260 35.4965
60.2639 1199 34.6266
60.3807 1201 34.6554
60.4974 1178 34.322
60.6142 1236 35.1568
60.731 1317 36.2905
60.8479 1349 36.7287
60.9648 1426 37.7624
61.0818 1385 37.2156
61.1987 1397 37.3765
61.3158 1401 37.4299
61.4328 1393 37.3229
61.5499 1278 35.7491
61.667 1196 34.5832
61.7841 1175 34.2783
61.9013 1050 32.4037
62.0185 1088 32.9848
62.1357 1090 33.0151
62.253 1275 35.7071
62.3702 1283 35.819
62.4875 1317 36.2905
62.6049 1448 38.0526
62.7222 1429 37.8021
62.8396 1455 38.1445
62.9569 1390 37.2827
63.0743 1402 37.4433
63.1918 1369 37
63.3092 1387 37.2424
63.4267 1363 36.9188
63.5441 1347 36.7015
63.6616 1192 34.5254
63.7791 1113 33.3617
63.8966 1143 33.8083
64.0142 1107 33.2716
64.1317 1185 34.4238
64.2492 1275 35.7071
64.3668 1320 36.3318
64.4843 1336 36.5513
64.6019 1461 38.223
64.7195 1471 38.3536
64.837 1350 36.7423
64.9546 1425 37.7492
65.0722 1287 35.8748
65.1898 1244 35.2704
65.3074 1118 33.4365
65.4249 1071 32.7261
65.5425 1035 32.1714
65.6601 983 31.3528
65.7777 1124 33.5261
65.8952 1187 34.4529
66.0128 1234 35.1283
66.1304 1301 36.0694
66.2479 1294 35.9722
66.3655 1358 36.8511
66.483 1336 36.5513
66.6005 1409 37.5366
66.718 1355 36.8103
66.8355 1367 36.973
66.953 1321 36.3456
67.0705 1350 36.7423
67.1879 1320 36.3318
67.3054 1247 35.3129
67.4228 1104 33.2265
67.5402 1081 32.8786
67.6576 1117 33.4215
67.7749 1103 33.2114
67.8923 1187 34.4529
68.0096 1227 35.0286
68.1269 1331 36.4829
68.2442 1317 36.2905
68.3614 1328 36.4417
68.4787 1295 35.9861
68.5958 1370 37.0135
68.713 1328 36.4417
68.8302 1243 35.2562
68.9473 1158 34.0294
69.0643 1049 32.3883
69.1814 1018 31.9061
69.2984 1039 32.2335
69.4154 1045 32.3265
69.5323 1182 34.3802
69.6492 1227 35.0286
69.7661 1202 34.6699
69.8829 1336 36.5513
69.9997 1278 35.7491
70.1165 1245 35.2846
70.2332 1261 35.5106
70.3499 1215 34.8569
70.4665 1141 33.7787
70.5831 1045 32.3265
70.6996 944 30.7246
70.8161 977 31.257
70.9326 876 29.5973
71.049 765 27.6586
71.1653 583 24.1454
71.2817 525 22.9129
71.3979 506 22.4944
71.5141 506 22.4944
71.6303 448 21.166
71.7464 407 20.1742
71.8624 0 1
71.9784 0 1
72.0944 0 1
72.2102 0 1
72.3261 0 1
72.4418 0 1
72.5575 0 1
72.6732 0 1
75.1054 0 1
75.2209 0 1
75.3365 0 1
75.4521 0 1
75.5678 0 1
75.6835 0 1
75.7993 0 1
75.9151 0 1
76.031 0 1
76.147 816 28.5657
76.263 783 27.9821
76.3791 882 29.6985
76.4952 847 29.1033
76.6113 873 29.5466
76.7276 951 30.8383
76.8438 1028 32.0624
76.9601 1077 32.8177
77.0765 1121 33.4813
77.1929 1139 33.7491
77.3093 1146 33.8526
77.4258 1258 35.4683
77.5423 1226 35.0143
77.6589 1158 34.0294
77.7755 1017 31.8904
77.8921 866 29.4279
78.0088 879 29.6479
78.1256 819 28.6182
78.2423 787 28.0535
78.3591 857 29.2746
78.4759 980 31.305
78.5928 1073 32.7567
78.7097 1128 33.5857
78.8266 1146 33.8526
78.9436 1165 34.1321
79.0606 1187 34.4529
79.1776 1134 33.6749
79.2946 1184 34.4093
79.4117 1209 34.7707
79.5288 1195 34.5688
79.6459 1207 34.7419
79.7631 1172 34.2345
79.8802 1137 33.7194
79.9974 1030 32.0936
80.1147 998 31.5911
80.2319 937 30.6105
80.3491 929 30.4795
80.4664 991 31.4802
80.5837 998 31.5911
80.701 1150 33.9116
80.8183 1197 34.5977
80.9357 1172 34.2345
81.053 1221 34.9428
81.1704 1268 35.609
81.2877 1220 34.9285
81.4051 1177 34.3074
81.5225 1070 32.7109
81.6399 1014 31.8434
81.7573 928 30.4631
81.8747 885 29.7489
81.9922 865 29.4109
82.1096 929 30.4795
82.227 1047 32.3574
82.3444 1158 34.0294
82.4619 1179 34.3366
82.5793 1204 34.6987
82.6967 1240 35.2136
82.8142 1209 34.7707
82.9316 1229 35.0571
83.049 1193 34.5398
83.1664 1230 35.0714
83.2838 1164 34.1174
83.4012 1156 34
83.5186 1109 33.3017
83.636 1195 34.5688
83.7534 1034 32.1559
83.8708 941 30.6757
83.9881 906 30.0998
84.1055 976 31.241
84.2228 1053 32.45
84.3401 1182 34.3802
84.4575 1187 34.4529
84.5747 1311 36.2077
84.692 1266 35.5809
84.8093 1272 35.6651
84.9265 1276 35.7211
85.0437 1217 34.8855
85.1609 1038 32.218
85.2781 1001 31.6386
85.3952 979 31.289
85.5123 831 28.8271
85.6294 893 29.8831
85.7465 987 31.4166
85.8636 1088 32.9848
85.9806 1107 33.2716
86.0976 1205 34.7131
86.2145 1189 34.4819
86.3315 1265 35.5668
86.4484 1252 35.3836
86.5652 1244 35.2704
86.682 1264 35.5528
86.7988 1259 35.4824
86.9156 1205 34.7131
87.0323 1184 34.4093
87.149 1157 34.0147
87.2657 1110 33.3167
87.3823 995 31.5436
87.4988 808 28.4253
87.6154 855 29.2404
87.7318 848 29.1204
87.8483 867 29.4449
87.9647 973 31.1929
88.081 993 31.5119
88.1973 978 31.273
88.3136 921 30.348
88.4298 902 30.0333
88.546 823 28.688
88.6621 725 26.9258
88.7781 577 24.0208
88.8942 0 1
89.0101 0 1
89.126 0 1
89.2419 0 1
89.3577 0 1
89.4734 0 1
89.5891 0 1
89.7047 0 1
89.8203 0 1
89.9358 0 1
92.3269 0 1
92.4424 0 1
92.558 0 1
92.6736 0 1
92.7893 0 1
92.905 0 1
93.0208 0 1
93.1366 0 1
93.2525 0 1
93.3685 0 1
93.4845 0 1
93.6005 920 30.3315
93.7167 1007 31.7333
93.8328 1008 31.749
93.949 1114 33.3766
94.0653 1036 32.187
94.1816 1047 32.3574
94.2979 1058 32.5269
94.4143 993 31.5119
94.5307 962 31.0161
94.6472 870 29.4958
94.7637 881 29.6816
94.8803 1013 31.8277
94.9969 1086 32.9545
95.1135 1106 33.2566
95.2302 1174 34.2637
95.3469 1200 34.641
95.4637 1241 35.2278
95.5805 1243 35.2562
95.6973 1295 35.9861
95.8142 1300 36.0555
95.9311 1290 35.9166
96.048 1251 35.3695
96.1649 1210 34.7851
96.2819 1212 34.8138
96.3989 1161 34.0735
96.516 1087 32.9697
96.633 1070 32.7109
96.7501 1013 31.8277
96.8673 991 31.4802
96.9844 1084 32.9242
97.1016 1133 33.6601
97.2188 1236 35.1568
97.336 1319 36.318
97.4532 1291 35.9305
97.5704 1329 36.4555
97.6877 1254 35.4119
97.805 1284 35.8329
97.9223 1187 34.4529
98.0396 1061 32.573
98.1569 1012 31.8119
98.2743 959 30.9677
98.3916 903 30.05
98.509 979 31.289
98.6264 1116 33.4066
98.7438 1154 33.9706
98.8612 1226 35.0143
98.9786 1288 35.8887
99.096 1288 35.8887
99.2134 1318 36.3043
99.3308 1310 36.1939
99.4482 1326 36.4143
99.5656 1323 36.3731
99.6831 1310 36.1939
99.8005 1317 36.2905
99.9179 1295 35.9861
100.035 1185 34.4238
100.153 1203 34.6843
100.27 1118 33.4365
100.388 1098 33.1361
100.505 1131 33.6303
100.622 1196 34.5832
100.74 1250 35.3553
100.857 1309 36.1801
100.975 1392 37.3095
101.092 1332 36.4966
101.209 1388 37.2559
101.327 1347 36.7015
101.444 1309 36.1801
101.561 1183 34.3948
101.679 1195 34.5688
101.796 1009 31.7648
101.913 1016 31.8748
102.03 972 31.1769
102.148 1091 33.0303
102.265 1183 34.3948
102.382 1251 35.3695
102.499 1278 35.7491
102.616 1418 37.6563
102.733 1371 37.027
102.851 1455 38.1445
102.968 1409 37.5366
103.085 1350 36.7423
103.202 1388 37.2559
103.319 1360 36.8782
103.436 1309 36.1801
103.552 1343 36.647
103.669 1254 35.4119
103.786 1219 34.9142
103.903 1179 34.3366
104.02 1169 34.1906
104.137 1240 35.2136
104.253 1313 36.2353
104.37 1404 37.47
104.487 1446 38.0263
104.603 1461 38.223
104.72 1428 37.7889
104.836 1384 37.2022
104.953 1270 35.6371
105.069 1136 33.7046
105.186 1049 32.3883
105.302 897 29.95
105.418 896 29.9333
105.535 904 30.0666
105.651 995 31.5436
105.767 900 30
105.883 900 30
105.999 895 29.9166
106.115 0 1
106.231 0 1
106.347 0 1
106.463 0 1
106.579 0 1
106.694 0 1
106.81 0 1
106.926 0 1
107.041 0 1
107.157 0 1
109.576 0 1
109.692 0 1
109.807 0 1
109.923 0 1
110.039 0 1
110.155 0 1
110.27 0 1
110.386 0 1
110.502 0 1
110.618 592 24.3311
110.735 779 27.9106
110.851 930 30.4959
110.967 995 31.5436
111.083 1049 32.3883
111.199 1177 34.3074
111.316 1184 34.4093
111.432 1308 36.1663
111.549 1259 35.4824
111.665 1264 35.5528
111.782 1241 35.2278
111.898 1314 36.2491
112.015 1273 35.6791
112.132 1282 35.805
112.248 1155 33.9853
112.365 1102 33.1964
112.482 997 31.5753
112.599 1174 34.2637
112.716 1216 34.8712
112.832 1355 36.8103
112.949 1354 36.7967
113.066 1287 35.8748
113.183 1333 36.5103
113.3 1416 37.6298
113.417 1383 37.1887
113.534 1301 36.0694
113.652 1159 34.0441
113.769 1133 33.6601
113.886 999 31.607
114.003 966 31.0805
114.12 1004 31.686
114.238 1157 34.0147
114.355 1194 34.5543
114.472 1250 35.3553
114.589 1294 35.9722
114.707 1355 36.8103
114.824 1338 36.5787
114.942 1361 36.8917
115.059 1328 36.4417
115.176 1420 37.6829
115.294 1365 36.9459
115.411 1392 37.3095
115.529 1316 36.2767
115.646 1293 35.9583
115.764 1270 35.6371
115.881 1151 33.9264
115.999 1119 33.4515
116.116 1161 34.0735
116.234 1138 33.7343
116.351 1277 35.7351
116.469 1266 35.5809
116.586 1270 35.6371
116.704 1353 36.7831
116.821 1308 36.1663
116.939 1427 37.7757
117.056 1337 36.565
117.174 1217 34.8855
117.291 1200 34.641
117.409 1073 32.7567
117.526 958 30.9516
117.644 991 31.4802
117.761 1112 33.3467
117.879 1137 33.7194
117.996 1199 34.6266
118.114 1260 35.4965
118.231 1320 36.3318
118.349 1367 36.973
118.466 1313 36.2353
118.584 1319 36.318
118.701 1327 36.428
118.819 1332 36.4966
118.936 1306 36.1386
119.053 1263 35.5387
119.171 1258 35.4683
119.288 1163 34.1028
119.405 1188 34.4674
119.523 1140 33.7639
119.64 1006 31.7175
119.757 1078 32.8329
119.875 1149 33.8969
119.992 1138 33.7343
120.109 1206 34.7275
120.226 1218 34.8999
120.343 1281 35.7911
120.46 1256 35.4401
120.578 1191 34.5109
120.695 1363 36.9188
120.812 1189 34.4819
120.929 1072 32.7414
121.046 995 31.5436
121.163 947 30.7734
121.279 925 30.4138
121.396 882 29.6985
121.513 957 30.9354
121.63 984 31.3688
121.747 1001 31.6386
121.863 1047 32.3574
121.98 1041 32.2645
122.097 1063 32.6037
122.213 974 31.209
122.33 1056 32.4962
122.446 938 30.6268
122.563 893 29.8831
122.679 821 28.6531
122.795 800 28.2843
122.912 741 27.2213
123.028 624 24.98
123.144 577 24.0208
123.26 476 21.8174
123.377 0 1
123.493 0 1
123.609 0 1
123.725 0 1
123.84 0 1
123.956 0 1
124.072 0 1
124.188 0 1
124.303 0 1
124.419 0 1
126.852 0 1
126.968 0 1
127.083 0 1
127.199 0 1
127.315 0 1
127.431 0 1
127.547 0 1
127.663 0 1
127.779 0 1
127.895 0 1
128.011 0 1
128.127 0 1
128.243 0 1
128.359 1125 33.541
128.476 1126 33.5559
128.592 1132 33.6452
128.708 1122 33.4963
128.825 1167 34.1614
128.941 1219 34.9142
129.058 1224 34.9857
129.174 1296 36
129.291 1347 36.7015
129.408 1319 36.318
129.524 1395 37.3497
129.641 1316 36.2767
129.758 1312 36.2215
129.875 1247 35.3129
129.992 1189 34.4819
130.108 1063 32.6037
130.225 971 31.1609
130.342 929 30.4795
130.459 1085 32.9393
130.576 1137 33.7194
130.693 1197 34.5977
130.81 1259 35.4824
130.928 1283 35.819
131.045 1242 35.242
131.162 1327 36.428
131.279 1351 36.756
131.396 1436 37.8946
131.513 1354 36.7967
131.631 1310 36.1939
131.748 1328 36.4417
131.865 1297 36.0139
131.983 1187 34.4529
132.1 1221 34.9428
132.217 1158 34.0294
132.335 1117 33.4215
132.452 1215 34.8569
132.57 1284 35.8329
132.687 1297 36.0139
132.804 1312 36.2215
132.922 1382 37.1753
133.039 1355 36.8103
133.157 1379 37.1349
133.274 1436 37.8946
133.392 1350 36.7423
133.509 1206 34.7275
133.627 1126 33.5559
133.744 1089 33
133.862 983 31.3528
133.979 964 31.0483
134.097 1081 32.8786
134.214 1136 33.7046
134.332 1297 36.0139
134.449 1266 35.5809
134.567 1395 37.3497
134.684 1324 36.3868
134.802 1420 37.6829
134.919 1383 37.1887
135.037 1422 37.7094
135.154 1418 37.6563
135.272 1297 36.0139
135.389 1249 35.3412
135.507 1316 36.2767
135.624 1215 34.8569
135.742 1222 34.9571
135.859 1163 34.1028
135.977 1170 34.2053
136.094 1226 35.0143
136.211 1296 36
136.329 1365 36.9459
136.446 1374 37.0675
136.564 1475 38.4057
136.681 1377 37.108
136.798 1343 36.647
136.915 1353 36.7831
137.033 1344 36.6606
137.15 1232 35.0999
137.267 1123 33.5112
137.384 1076 32.8024
137.502 1015 31.8591
137.619 1047 32.3574
137.736 1112 33.3467
137.853 1154 33.9706
137.97 1201 34.6554
138.087 1238 35.1852
138.204 1258 35.4683
138.321 1308 36.1663
138.438 1358 36.8511
138.555 1312 36.2215
138.672 1332 36.4966
138.788 1241 35.2278
138.905 1236 35.1568
139.022 1199 34.6266
139.139 1094 33.0757
139.255 1027 32.0468
139.372 966 31.0805
139.488 932 30.5287
139.605 926 30.4302
139.721 922 30.3645
139.838 945 30.7409
139.954 937 30.6105
140.071 870 29.4958
140.187 773 27.8029
140.303 791 28.1247
140.419 707 26.5895
140.535 695 26.3629
140.652 668 25.8457
140.768 0 1
140.884 0 1
141 0 1
141.115 0 1
141.231 0 1
141.347 0 1
141.463 0 1
141.578 0 1
141.694 0 1
144.104 0 1
144.219 0 1
144.335 0 1
144.45 0 1
144.566 0 1
144.682 0 1
144.798 0 1
144.914 0 1
145.03 0 1
145.146 973 31.1929
145.262 1069 32.6956
145.378 1030 32.0936
145.494 1096 33.1059
145.61 1108 33.2866
145.726 1081 32.8786
145.842 1058 32.5269
145.959 974 31.209
146.075 898 29.9666
146.192 825 28.7228
146.308 846 29.0861
146.425 824 28.7054
146.541 878 29.6311
146.658 913 30.2159
146.774 1037 32.2025
146.891 1005 31.7017
147.008 999 31.607
147.125 1023 31.9844
147.241 1056 32.4962
147.358 1095 33.0908
147.475 1068 32.6803
147.592 1072 32.7414
147.709 1052 32.4345
147.826 1024 32
147.943 1000 31.6228
148.06 975 31.225
148.177 922 30.3645
148.294 905 30.0832
148.411 976 31.241
148.528 979 31.289
148.645 984 31.3688
148.762 1072 32.7414
148.88 1066 32.6497
148.997 1105 33.2415
149.114 1093 33.0606
149.231 1120 33.4664
149.349 1105 33.2415
149.466 1031 32.1092
149.583 1010 31.7805
149.701 902 30.0333
149.818 882 29.6985
149.935 859 29.3087
150.053 815 28.5482
150.17 882 29.6985
150.287 901 30.0167
150.405 930 30.4959
150.522 957 30.9354
150.64 940 30.6594
150.757 925 30.4138
150.875 1004 31.686
150.992 1040 32.249
151.11 984 31.3688
151.227 1029 32.078
151.344 969 31.1288
151.462 932 30.5287
151.579 957 30.9354
151.697 907 30.1164
151.814 905 30.0832
151.932 886 29.7658
152.049 921 30.348
152.167 885 29.7489
152.284 934 30.5614
152.402 994 31.5278
152.519 1051 32.4191
152.636 1020 31.9374
152.754 1021 31.9531
152.871 1001 31.6386
152.989 1075 32.7872
153.106 956 30.9192
153.223 865 29.4109
153.341 838 28.9482
153.458 794 28.178
153.575 782 27.9643
153.693 840 28.9828
153.81 862 29.3598
153.927 812 28.4956
154.044 904 30.0666
154.162 908 30.133
154.279 910 30.1662
154.396 925 30.4138
154.513 931 30.5123
154.63 957 30.9354
154.747 945 30.7409
154.864 966 31.0805
154.981 903 30.05
155.098 836 28.9137
155.215 869 29.4788
155.332 842 29.0172
155.449 860 29.3258
155.566 817 28.5832
155.683 811 28.4781
155.8 846 29.0861
155.917 893 29.8831
156.033 842 29.0172
156.15 0 1
156.267 0 1
156.383 0 1
156.5 0 1
156.617 0 1
156.733 0 1
156.85 0 1
156.966 0 1
157.082 0 1
157.199 0 1
157.315 0 1
157.431 0 1
157.547 0 1
157.664 0 1
157.78 0 1
157.896 0 1
158.012 0 1
158.128 0 1
158.244 0 1
158.359 0 1
158.475 0 1
158.591 0 1
158.706 0 1
