
6.15755 0 1
6.2731 0 1
6.3887 0 1
6.50437 0 1
6.62009 0 1
6.73587 0 1
6.8517 0 1
6.96759 0 1
7.08353 0 1
7.19952 0 1
7.31557 0 1
7.43166 0 1
7.54781 0 1
7.664 0 1
7.78024 0 1
7.89653 0 1
8.01286 0 1
8.12924 0 1
8.24567 0 1
8.36213 0 1
8.47864 0 1
8.59519 0 1
8.71178 0 1
8.82841 0 1
8.94508 0 1
9.06179 0 1
9.17853 0 1
9.29531 0 1
9.41212 0 1
9.52897 0 1
9.64584 0 1
9.76276 0 1
9.8797 0 1
9.99667 0 1
10.1137 0 1
10.2307 0 1
10.3478 0 1
10.4648 0 1
10.5819 0 1
10.6991 0 1
10.8162 0 1
10.9334 0 1
11.0506 0 1
11.1678 0 1
11.285 0 1
11.4023 0 1
11.5196 0 1
11.6369 0 1
11.7542 0 1
11.8715 0 1
11.9888 0 1
12.1062 0 1
12.2235 0 1
12.3409 0 1
12.4582 0 1
12.5756 0 1
12.693 0 1
12.8104 0 1
12.9278 0 1
13.0452 0 1
13.1626 0 1
13.28 0 1
13.3974 0 1
13.5149 0 1
13.6323 0 1
13.7497 0 1
13.8671 0 1
13.9845 0 1
14.1019 0 1
14.2193 0 1
14.3367 0 1
14.4541 0 1
14.5714 0 1
14.6888 0 1
14.8062 0 1
14.9235 0 1
15.0408 6077 77.9551
15.1581 6345 79.6555
15.2755 6618 81.3511
15.3927 6439 80.2434
15.51 6372 79.8248
15.6273 6464 80.399
15.7445 6141 78.3645
15.8617 6230 78.9303
15.9789 6208 78.7909
16.0961 6407 80.0437
16.2132 6723 81.9939
16.3304 6677 81.7129
16.4475 6906 83.1023
16.5646 7052 83.9762
16.6816 7120 84.3801
16.7986 7305 85.4693
16.9156 7274 85.2877
17.0326 7248 85.1352
17.1496 7387 85.9477
17.2665 7489 86.539
17.3833 7600 87.178
17.5002 7478 86.4754
17.617 7366 85.8254
17.7338 7434 86.2206
17.8505 7440 86.2554
17.9672 7387 85.9477
18.0839 7359 85.7846
18.2005 7201 84.8587
18.3171 7633 87.367
18.4337 7751 88.0398
18.5502 7803 88.3346
18.6666 7781 88.21
18.7831 8071 89.8387
18.8994 7999 89.4371
19.0158 7966 89.2525
19.1321 7473 86.4465
19.2483 7394 85.9884
19.3645 7105 84.2912
19.4806 7017 83.7675
19.5967 6748 82.1462
19.7128 6532 80.8208
19.8288 6145 78.3901
19.9447 5482 74.0405
20.0606 0 1
20.1764 0 1
20.2922 0 1
20.4079 0 1
20.5236 0 1
20.6392 0 1
20.7548 0 1
20.8702 0 1
23.3078 0 1
23.4233 0 1
23.539 0 1
23.6547 0 1
23.7704 0 1
23.8862 0 1
24.0021 0 1
24.118 0 1
24.234 0 1
24.35 0 1
24.4661 4307 65.6277
24.5822 5000 70.7107
24.6984 5881 76.6877
24.8146 6680 81.7313
24.9309 7128 84.4275
25.0472 7692 87.704
25.1636 8191 90.5041
25.28 8837 94.0053
25.3965 9017 94.9579
25.513 9486 97.3961
25.6296 9991 99.955
25.7462 10302 101.499
25.8628 10397 101.966
25.9795 10456 102.255
26.0962 10559 102.757
26.213 10399 101.975
26.3298 10432 102.137
26.4466 10541 102.669
26.5635 10628 103.092
26.6804 10295 101.464
26.7973 10382 101.892
26.9143 10600 102.956
27.0313 10854 104.183
27.1483 11134 105.518
27.2653 11554 107.49
27.3824 11726 108.287
27.4996 11876 108.977
27.6167 11749 108.393
27.7339 11583 107.624
27.8511 11211 105.882
27.9683 10986 104.814
28.0855 10902 104.413
28.2028 10763 103.745
28.3201 10788 103.865
28.4374 10761 103.735
28.5547 10833 104.082
28.6721 10860 104.211
28.7894 10793 103.889
28.9068 10643 103.165
29.0242 10996 104.862
29.1416 10983 104.8
29.259 10788 103.865
29.3764 11037 105.057
29.4939 10939 104.59
29.6113 11144 105.565
29.7288 10998 104.871
29.8463 10877 104.293
29.9638 11329 106.438
30.0812 11194 105.802
30.1987 11337 106.475
30.3162 11264 106.132
30.4337 11567 107.55
30.5512 11900 109.087
30.6687 12273 110.784
30.7862 12563 112.085
30.9037 12849 113.353
31.0212 12927 113.697
31.1387 12860 113.402
31.2562 12687 112.637
31.3737 12310 110.95
31.4912 12378 111.256
31.6087 12110 110.045
31.7262 11974 109.426
31.8436 11980 109.453
31.9611 12062 109.827
32.0785 11988 109.49
32.1959 11736 108.333
32.3134 11794 108.6
32.4308 11716 108.24
32.5482 11972 109.417
32.6655 12170 110.318
32.7829 11985 109.476
32.9002 12232 110.598
33.0176 12074 109.882
33.1349 12031 109.686
33.2522 12289 110.856
33.3694 12367 111.207
33.4867 12574 112.134
33.6039 12620 112.339
33.7211 12840 113.314
33.8383 12710 112.739
33.9554 12890 113.534
34.0725 13147 114.66
34.1896 13387 115.702
34.3067 14057 118.562
34.4237 14403 120.012
34.5407 14801 121.659
34.6577 14676 121.145
34.7746 14579 120.744
34.8915 14562 120.673
35.0084 14437 120.154
35.1252 14129 118.865
35.242 14113 118.798
35.3587 14100 118.743
35.4755 14306 119.608
35.5921 14266 119.44
35.7088 13832 117.61
35.8254 13551 116.409
35.9419 13195 114.869
36.0584 12581 112.165
36.1749 12494 111.777
36.2913 12073 109.877
36.4077 12121 110.095
36.524 11838 108.803
36.6403 11411 106.822
36.7565 11444 106.977
36.8727 11212 105.887
36.9889 10897 104.389
37.1049 10298 101.479
37.221 0 1
37.3369 0 1
37.4529 0 1
37.5687 0 1
37.6845 0 1
37.8003 0 1
37.916 0 1
38.0316 0 1
38.1472 0 1
40.5851 0 1
40.7008 0 1
40.8164 0 1
40.9322 0 1
41.048 0 1
41.1639 0 1
41.2798 0 1
41.3958 0 1
41.5118 0 1
41.6279 0 1
41.744 8208 90.598
41.8602 8967 94.6942
41.9765 10186 100.926
42.0928 10824 104.038
42.2091 12201 110.458
42.3255 13408 115.793
42.4419 14609 120.868
42.5584 15611 124.944
42.675 15953 126.305
42.7915 16321 127.754
42.9081 17712 133.086
43.0248 18760 136.967
43.1415 19477 139.56
43.2582 20636 143.652
43.375 21271 145.846
43.4918 21643 147.116
43.6087 21542 146.772
43.7256 21762 147.519
43.8425 21507 146.653
43.9595 20939 144.703
44.0765 20989 144.876
44.1935 21195 145.585
44.3106 21475 146.544
44.4277 21317 146.003
44.5448 20817 144.281
44.6619 19850 140.89
44.7791 19274 138.831
44.8963 18290 135.241
45.0136 17705 133.06
45.1308 17245 131.32
45.2481 17560 132.514
45.3654 17892 133.761
45.4827 17856 133.626
45.6001 18817 137.175
45.7174 20118 141.838
45.8348 21039 145.048
45.9522 22313 149.375
46.0697 22816 151.05
46.1871 22593 150.31
46.3046 22777 150.921
46.422 22747 150.821
46.5395 23437 153.091
46.657 24668 157.06
46.7745 25313 159.101
46.892 25847 160.77
47.0096 26005 161.261
47.1271 26389 162.447
47.2446 26291 162.145
47.3622 26042 161.375
47.4797 25475 159.609
47.5973 25085 158.382
47.7149 24598 156.837
47.8324 25206 158.764
47.95 25469 159.59
48.0675 24191 155.535
48.1851 23829 154.366
48.3027 21741 147.448
48.4202 20196 142.113
48.5378 18816 137.171
48.6554 17887 133.742
48.7729 17943 133.951
48.8904 17563 132.525
49.008 18170 134.796
49.1255 19191 138.532
49.243 20600 143.527
49.3605 22109 148.691
49.478 23360 152.84
49.5955 23768 154.169
49.713 23657 153.808
49.8304 23311 152.679
49.9479 23522 153.369
50.0653 23821 154.341
50.1827 24493 156.502
50.3001 24939 157.921
50.4175 25511 159.722
50.5348 25734 160.418
50.6521 25617 160.053
50.7694 25753 160.477
50.8867 25372 159.286
51.004 24977 158.041
51.1212 23933 154.703
51.2384 24080 155.177
51.3556 24187 155.522
51.4727 24230 155.66
51.5899 23570 153.525
51.707 22365 149.549
51.824 20738 144.007
51.9411 18972 137.739
52.0581 17161 131
52.175 16169 127.157
52.2919 15809 125.734
52.4088 15533 124.631
52.5257 15815 125.758
52.6425 16729 129.341
52.7593 17541 132.442
52.876 18600 136.382
52.9927 19291 138.892
53.1094 19150 138.384
53.226 18827 137.212
53.3426 18632 136.499
53.4591 17463 132.148
53.5756 17000 130.384
53.692 16534 128.585
53.8084 16033 126.621
53.9248 15544 124.676
54.0411 14954 122.287
54.1573 14156 118.979
54.2735 0 1
54.3896 0 1
54.5057 0 1
54.6217 0 1
54.7377 0 1
54.8537 0 1
54.9695 0 1
55.0853 0 1
55.2011 0 1
55.3168 0 1
55.4324 0 1
57.824 0 1
57.9396 0 1
58.0553 0 1
58.1711 0 1
58.2869 0 1
58.4028 0 1
58.5187 0 1
58.6347 0 1
58.7508 0 1
58.8669 0 1
58.983 13059 114.276
59.0992 14676 121.145
59.2155 15731 125.423
59.3318 16798 129.607
59.4482 17806 133.439
59.5646 18381 135.577
59.681 18798 137.106
59.7975 18863 137.343
59.9141 19732 140.471
60.0306 19827 140.808
60.1473 20072 141.676
60.2639 20094 141.753
60.3807 19007 137.866
60.4974 17699 133.038
60.6142 16035 126.629
60.731 14449 120.204
60.8479 13129 114.582
60.9648 12345 111.108
61.0818 12163 110.286
61.1987 12638 112.419
61.3158 13782 117.397
61.4328 15455 124.318
61.5499 17405 131.928
61.667 18523 136.099
61.7841 19445 139.445
61.9013 19224 138.651
62.0185 19126 138.297
62.1357 18677 136.664
62.253 18693 136.722
62.3702 19288 138.881
62.4875 19452 139.47
62.6049 19729 140.46
62.7222 19904 141.082
62.8396 20240 142.267
62.9569 20066 141.655
63.0743 19694 140.335
63.1918 19259 138.777
63.3092 19071 138.098
63.4267 18825 137.204
63.5441 19004 137.855
63.6616 18974 137.746
63.7791 18228 135.011
63.8966 17431 132.027
64.0142 15756 125.523
64.1317 14299 119.578
64.2492 12436 111.517
64.3668 11159 105.636
64.4843 10364 101.804
64.6019 9884 99.4183
64.7195 10314 101.558
64.837 11183 105.75
64.9546 12870 113.446
65.0722 14966 122.336
65.1898 16008 126.523
65.3074 17232 131.271
65.4249 16884 129.938
65.5425 16803 129.626
65.6601 16591 128.806
65.7777 16621 128.922
65.8952 16440 128.219
66.0128 17004 130.399
66.1304 17346 131.704
66.2479 17369 131.792
66.3655 17473 132.185
66.483 17592 132.635
66.6005 17482 132.22
66.718 17324 131.621
66.8355 16682 129.159
66.953 16662 129.081
67.0705 16809 129.65
67.1879 16554 128.662
67.3054 16689 129.186
67.4228 15981 126.416
67.5402 15209 123.325
67.6576 13957 118.14
67.7749 12295 110.883
67.8923 10447 102.211
68.0096 9247 96.1613
68.1269 8520 92.3038
68.2442 8496 92.1737
68.3614 8753 93.5575
68.4787 9836 99.1766
68.5958 11365 106.607
68.713 13435 115.909
68.8302 14707 121.272
68.9473 15458 124.33
69.0643 15356 123.919
69.1814 15057 122.707
69.2984 14492 120.383
69.4154 13813 117.529
69.5323 13788 117.422
69.6492 13848 117.678
69.7661 13604 116.636
69.8829 13896 117.881
69.9997 13781 117.393
70.1165 13558 116.439
70.2332 13067 114.311
70.3499 12718 112.774
70.4665 12070 109.864
70.5831 11434 106.93
70.6996 10867 104.245
70.8161 10678 103.334
70.9326 10362 101.794
71.049 9505 97.4936
71.1653 8645 92.9785
71.2817 7931 89.0562
71.3979 6917 83.1685
71.5141 5663 75.2529
71.6303 4382 66.1967
71.7464 2910 53.9444
71.8624 0 1
71.9784 0 1
72.0944 0 1
72.2102 0 1
72.3261 0 1
72.4418 0 1
72.5575 0 1
72.6732 0 1
75.1054 0 1
75.2209 0 1
75.3365 0 1
75.4521 0 1
75.5678 0 1
75.6835 0 1
75.7993 0 1
75.9151 0 1
76.031 0 1
76.147 9284 96.3535
76.263 10031 100.155
76.3791 9906 99.5289
76.4952 9437 97.1442
76.6113 8984 94.784
76.7276 8453 91.9402
76.8438 7609 87.2296
76.9601 7118 84.3682
77.0765 6549 80.9259
77.1929 6319 79.4921
77.3093 6610 81.3019
77.4258 7173 84.6936
77.5423 8673 93.1289
77.6589 10653 103.213
77.7755 12222 110.553
77.8921 12991 113.978
78.0088 13324 115.43
78.1256 12763 112.973
78.2423 12419 111.441
78.3591 12340 111.086
78.4759 12207 110.485
78.5928 12595 112.227
78.7097 12891 113.539
78.8266 12711 112.743
78.9436 13392 115.724
79.0606 13285 115.261
79.1776 13466 116.043
79.2946 13459 116.013
79.4117 13278 115.23
79.5288 13041 114.197
79.6459 13284 115.256
79.7631 13209 114.93
79.8802 13344 115.516
79.9974 13420 115.845
80.1147 13083 114.381
80.2319 11739 108.347
80.3491 10796 103.904
80.4664 9744 98.7117
80.5837 8184 90.4655
80.701 7059 84.0179
80.8183 6531 80.8146
80.9357 6623 81.3818
81.053 6794 82.4257
81.1704 8010 89.4986
81.2877 9899 99.4937
81.4051 11715 108.236
81.5225 13132 114.595
81.6399 13379 115.668
81.7573 13391 115.719
81.8747 12626 112.365
81.9922 12453 111.593
82.1096 12256 110.707
82.227 12411 111.405
82.3444 12624 112.357
82.4619 12978 113.921
82.5793 13195 114.869
82.6967 13629 116.743
82.8142 13501 116.194
82.9316 13441 115.935
83.049 13440 115.931
83.1664 13162 114.726
83.2838 12912 113.631
83.4012 13089 114.407
83.5186 13397 115.745
83.636 13150 114.673
83.7534 12306 110.932
83.8708 11101 105.361
83.9881 10414 102.049
84.1055 9781 98.8989
84.2228 8900 94.3398
84.3401 7661 87.5271
84.4575 6872 82.8975
84.5747 6904 83.0903
84.692 7468 86.4176
84.8093 9010 94.921
84.9265 10869 104.254
85.0437 12590 112.205
85.1609 13763 117.316
85.2781 14369 119.871
85.3952 13928 118.017
85.5123 13530 116.319
85.6294 13515 116.254
85.7465 13554 116.422
85.8636 13688 116.996
85.9806 14604 120.847
86.0976 14759 121.487
86.2145 14916 122.131
86.3315 15357 123.923
86.4484 14785 121.594
86.5652 14646 121.021
86.682 14143 118.924
86.7988 13640 116.79
86.9156 13001 114.022
87.0323 13268 115.187
87.149 13339 115.495
87.2657 12788 113.084
87.3823 11736 108.333
87.4988 10567 102.796
87.6154 9869 99.3428
87.7318 8819 93.9095
87.8483 7759 88.0852
87.9647 6699 81.8474
88.081 5972 77.2787
88.1973 5733 75.7166
88.3136 5774 75.9868
88.4298 6570 81.0555
88.546 8215 90.6366
88.6621 9349 96.6902
88.7781 9952 99.7597
88.8942 0 1
89.0101 0 1
89.126 0 1
89.2419 0 1
89.3577 0 1
89.4734 0 1
89.5891 0 1
89.7047 0 1
89.8203 0 1
89.9358 0 1
92.3269 0 1
92.4424 0 1
92.558 0 1
92.6736 0 1
92.7893 0 1
92.905 0 1
93.0208 0 1
93.1366 0 1
93.2525 0 1
93.3685 0 1
93.4845 0 1
93.6005 8269 90.934
93.7167 9184 95.8332
93.8328 11018 104.967
93.949 13388 115.707
94.0653 15178 123.199
94.1816 16772 129.507
94.2979 17910 133.828
94.4143 18918 137.543
94.5307 19610 140.036
94.6472 20266 142.359
94.7637 21448 146.451
94.8803 22174 148.909
94.9969 22363 149.543
95.1135 22283 149.275
95.2302 23070 151.888
95.3469 22867 151.218
95.4637 23509 153.326
95.5805 23246 152.466
95.6973 22712 150.705
95.8142 22387 149.623
95.9311 21403 146.298
96.048 21280 145.877
96.1649 20679 143.802
96.2819 20574 143.436
96.3989 19381 139.216
96.516 17967 134.041
96.633 16820 129.692
96.7501 15553 124.712
96.8673 14491 120.379
96.9844 13281 115.243
97.1016 12363 111.189
97.2188 11973 109.421
97.336 12114 110.064
97.4532 13765 117.324
97.5704 15961 126.337
97.6877 18292 135.248
97.805 20987 144.869
97.9223 22890 151.294
98.0396 24511 156.56
98.1569 25066 158.322
98.2743 26054 161.413
98.3916 27016 164.365
98.509 28759 169.585
98.6264 29010 170.323
98.7438 28451 168.674
98.8612 28260 168.107
98.9786 28167 167.83
99.096 28223 167.997
99.2134 27719 166.49
99.3308 26406 162.499
99.4482 25544 159.825
99.5656 24868 157.696
99.6831 24113 155.284
99.8005 23882 154.538
99.9179 22940 151.46
100.035 21558 146.826
100.153 20031 141.531
100.27 17898 133.783
100.388 16153 127.094
100.505 14030 118.448
100.622 13083 114.381
100.74 12504 111.821
100.857 12393 111.324
100.975 13532 116.327
101.092 15551 124.704
101.209 18152 134.729
101.327 21228 145.698
101.444 23665 153.834
101.561 25377 159.302
101.679 25996 161.233
101.796 26715 163.447
101.913 27009 164.344
102.03 27275 165.151
102.148 27910 167.063
102.265 28274 168.149
102.382 27083 164.569
102.499 27047 164.46
102.616 26103 161.564
102.733 26145 161.694
102.851 25672 160.225
102.968 24594 156.825
103.085 23926 154.68
103.202 23300 152.643
103.319 23393 152.948
103.436 23099 151.984
103.552 22311 149.369
103.669 20814 144.271
103.786 18927 137.575
103.903 16705 129.248
104.02 14910 122.107
104.137 13498 116.181
104.253 12066 109.845
104.37 11375 106.654
104.487 11977 109.439
104.603 12973 113.899
104.72 14618 120.905
104.836 16632 128.965
104.953 17677 132.955
105.069 17924 133.881
105.186 17606 132.688
105.302 16856 129.831
105.418 15828 125.809
105.535 14999 122.47
105.651 14048 118.524
105.767 12864 113.42
105.883 12290 110.86
105.999 11355 106.56
106.115 0 1
106.231 0 1
106.347 0 1
106.463 0 1
106.579 0 1
106.694 0 1
106.81 0 1
106.926 0 1
107.041 0 1
107.157 0 1
109.576 0 1
109.692 0 1
109.807 0 1
109.923 0 1
110.039 0 1
110.155 0 1
110.27 0 1
110.386 0 1
110.502 0 1
110.618 12247 110.666
110.735 14012 118.372
110.851 15880 126.016
110.967 16975 130.288
111.083 18097 134.525
111.199 19366 139.162
111.316 20237 142.257
111.432 20835 144.343
111.549 21439 146.421
111.665 21715 147.36
111.782 21513 146.673
111.898 21819 147.713
112.015 22550 150.167
112.132 23079 151.918
112.248 22134 148.775
112.365 20318 142.541
112.482 18124 134.625
112.599 15757 125.527
112.716 14110 118.786
112.832 12260 110.725
112.949 11568 107.555
113.066 11440 106.958
113.183 11960 109.362
113.3 13738 117.209
113.417 16392 128.031
113.534 19328 139.025
113.652 21089 145.221
113.769 22259 149.195
113.886 21478 146.554
114.003 20871 144.468
114.12 20328 142.576
114.238 20622 143.604
114.355 21121 145.331
114.472 21531 146.734
114.589 21911 148.024
114.707 22040 148.459
114.824 22226 149.084
114.942 22546 150.153
115.059 22842 151.136
115.176 22732 150.771
115.294 21928 148.081
115.411 21475 146.544
115.529 21959 148.186
115.646 22022 148.398
115.764 21844 147.797
115.881 20618 143.59
115.999 18729 136.854
116.116 16906 130.023
116.234 15041 122.642
116.351 13354 115.56
116.469 12022 109.645
116.586 11542 107.434
116.704 11707 108.199
116.821 12735 112.849
116.939 14602 120.839
117.056 16865 129.865
117.174 18904 137.492
117.291 20596 143.513
117.409 20419 142.895
117.526 20207 142.151
117.644 19782 140.648
117.761 19529 139.746
117.879 19673 140.26
117.996 20212 142.169
118.114 20736 144
118.231 20821 144.295
118.349 21362 146.157
118.466 21105 145.276
118.584 21255 145.791
118.701 21370 146.185
118.819 20740 144.014
118.936 20571 143.426
119.053 20214 142.176
119.171 20625 143.614
119.288 20530 143.283
119.405 20482 143.115
119.523 19575 139.911
119.64 17743 133.203
119.757 16210 127.318
119.875 14659 121.074
119.992 12906 113.605
120.109 11929 109.22
120.226 11508 107.275
120.343 11489 107.187
120.46 11716 108.24
120.578 13024 114.123
120.695 14896 122.049
120.812 16494 128.429
120.929 17196 131.134
121.046 17750 133.229
121.163 17381 131.837
121.279 16807 129.642
121.396 16359 127.902
121.513 16077 126.795
121.63 16289 127.628
121.747 15975 126.392
121.863 16156 127.106
121.98 16426 128.164
122.097 16080 126.807
122.213 15685 125.24
122.33 15082 122.809
122.446 14564 120.681
122.563 13810 117.516
122.679 13136 114.612
122.795 12500 111.803
122.912 12139 110.177
123.028 11398 106.761
123.144 10581 102.864
123.26 9398 96.9433
123.377 0 1
123.493 0 1
123.609 0 1
123.725 0 1
123.84 0 1
123.956 0 1
124.072 0 1
124.188 0 1
124.303 0 1
124.419 0 1
126.852 0 1
126.968 0 1
127.083 0 1
127.199 0 1
127.315 0 1
127.431 0 1
127.547 0 1
127.663 0 1
127.779 0 1
127.895 0 1
128.011 0 1
128.127 0 1
128.243 0 1
128.359 18827 137.212
128.476 19109 138.235
128.592 19734 140.478
128.708 18811 137.153
128.825 18006 134.186
128.941 16406 128.086
129.058 15617 124.968
129.174 14668 121.112
129.291 14324 119.683
129.408 14383 119.929
129.524 14190 119.122
129.641 15056 122.703
129.758 16174 127.177
129.875 17805 133.435
129.992 18696 136.733
130.108 19221 138.64
130.225 19365 139.158
130.342 19310 138.96
130.459 19257 138.77
130.576 20048 141.591
130.693 20323 142.559
130.81 20934 144.686
130.928 20929 144.669
131.045 21462 146.499
131.162 21401 146.291
131.279 21815 147.699
131.396 21493 146.605
131.513 21300 145.945
131.631 20817 144.281
131.748 20924 144.651
131.865 21412 146.328
131.983 21247 145.764
132.1 20566 143.409
132.217 19972 141.322
132.335 18812 137.157
132.452 17465 132.155
132.57 16534 128.585
132.687 15439 124.254
132.804 15212 123.337
132.922 14877 121.971
133.039 14932 122.197
133.157 15078 122.793
133.274 15599 124.896
133.392 16716 129.29
133.509 17461 132.14
133.627 18349 135.458
133.744 18577 136.297
133.862 19104 138.217
133.979 18965 137.713
134.097 18997 137.83
134.214 19556 139.843
134.332 20145 141.933
134.449 20681 143.809
134.567 20756 144.069
134.684 20850 144.395
134.802 21018 144.976
134.919 21317 146.003
135.037 21156 145.451
135.154 20642 143.673
135.272 20389 142.79
135.389 20326 142.569
135.507 20614 143.576
135.624 20573 143.433
135.742 20008 141.45
135.859 19557 139.846
135.977 18655 136.583
136.094 17660 132.891
136.211 16644 129.012
136.329 16194 127.256
136.446 15777 125.607
136.564 16037 126.637
136.681 16088 126.838
136.798 15797 125.686
136.915 15866 125.96
137.033 16409 128.098
137.15 17431 132.027
137.267 17832 133.537
137.384 17956 134
137.502 17927 133.892
137.619 17902 133.798
137.736 18519 136.085
137.853 18367 135.525
137.97 19587 139.954
138.087 19374 139.191
138.204 19733 140.474
138.321 19692 140.328
138.438 19379 139.208
138.555 19254 138.759
138.672 18776 137.026
138.788 18131 134.651
138.905 17026 130.484
139.022 16649 129.031
139.139 16208 127.311
139.255 15821 125.782
139.372 15298 123.685
139.488 14296 119.566
139.605 13046 114.219
139.721 12134 110.154
139.838 11224 105.943
139.954 10281 101.395
140.071 9636 98.1631
140.187 9095 95.3677
140.303 8499 92.19
140.419 7698 87.7382
140.535 7291 85.3874
140.652 6734 82.061
140.768 0 1
140.884 0 1
141 0 1
141.115 0 1
141.231 0 1
141.347 0 1
141.463 0 1
141.578 0 1
141.694 0 1
144.104 0 1
144.219 0 1
144.335 0 1
144.45 0 1
144.566 0 1
144.682 0 1
144.798 0 1
144.914 0 1
145.03 0 1
145.146 12077 109.895
145.262 12834 113.287
145.378 12857 113.389
145.494 12987 113.961
145.61 12971 113.89
145.726 12952 113.807
145.842 13154 114.691
145.959 13453 115.987
146.075 13352 115.551
146.192 13472 116.069
146.308 13565 116.469
146.425 13467 116.047
146.541 13736 117.201
146.658 13933 118.038
146.774 14284 119.516
146.891 14955 122.291
147.008 15418 124.169
147.125 15333 123.826
147.241 15703 125.312
147.358 15616 124.964
147.475 15535 124.639
147.592 15466 124.362
147.709 14778 121.565
147.826 14968 122.344
147.943 15211 123.333
148.06 15144 123.061
148.177 14963 122.323
148.294 14704 121.26
148.411 14630 120.955
148.528 14318 119.658
148.645 14593 120.801
148.762 14527 120.528
148.88 14480 120.333
148.997 14472 120.3
149.114 13874 117.788
149.231 13929 118.021
149.349 13873 117.784
149.466 13659 116.872
149.583 13809 117.512
149.701 13464 116.034
149.818 13678 116.953
149.935 13646 116.816
150.053 13419 115.84
150.17 13581 116.538
150.287 13778 117.38
150.405 14371 119.879
150.522 14777 121.561
150.64 15256 123.515
150.757 15288 123.645
150.875 15687 125.248
150.992 15866 125.96
151.11 15840 125.857
151.227 15533 124.631
151.344 15546 124.684
151.462 14994 122.45
151.579 14620 120.913
151.697 14938 122.221
151.814 14583 120.76
151.932 14485 120.354
152.049 14458 120.241
152.167 14437 120.154
152.284 14309 119.62
152.402 14055 118.554
152.519 14401 120.004
152.636 14207 119.193
152.754 14343 119.762
152.871 13957 118.14
152.989 13782 117.397
153.106 13524 116.293
153.223 13515 116.254
153.341 13564 116.465
153.458 13243 115.078
153.575 13015 114.083
153.693 12990 113.974
153.81 13160 114.717
153.927 13385 115.694
154.044 13691 117.009
154.162 13965 118.174
154.279 14255 119.394
154.396 14579 120.744
154.513 14999 122.47
154.63 14869 121.939
154.747 14978 122.385
154.864 14460 120.25
154.981 14281 119.503
155.098 14033 118.461
155.215 13951 118.114
155.332 13864 117.745
155.449 13789 117.427
155.566 13555 116.426
155.683 13367 115.616
155.8 13023 114.118
155.917 12972 113.895
156.033 12859 113.398
156.15 0 1
156.267 0 1
156.383 0 1
156.5 0 1
156.617 0 1
156.733 0 1
156.85 0 1
156.966 0 1
157.082 0 1
157.199 0 1
157.315 0 1
157.431 0 1
157.547 0 1
157.664 0 1
157.78 0 1
157.896 0 1
158.012 0 1
158.128 0 1
158.244 0 1
158.359 0 1
158.475 0 1
158.591 0 1
158.706 0 1
