
6.15755 0 1
6.2731 0 1
6.3887 0 1
6.50437 0 1
6.62009 0 1
6.73587 0 1
6.8517 0 1
6.96759 0 1
7.08353 0 1
7.19952 0 1
7.31557 0 1
7.43166 0 1
7.54781 0 1
7.664 0 1
7.78024 0 1
7.89653 0 1
8.01286 0 1
8.12924 0 1
8.24567 0 1
8.36213 0 1
8.47864 0 1
8.59519 0 1
8.71178 0 1
8.82841 0 1
8.94508 0 1
9.06179 0 1
9.17853 0 1
9.29531 0 1
9.41212 0 1
9.52897 0 1
9.64584 0 1
9.76276 0 1
9.8797 0 1
9.99667 0 1
10.1137 0 1
10.2307 0 1
10.3478 0 1
10.4648 0 1
10.5819 0 1
10.6991 0 1
10.8162 0 1
10.9334 0 1
11.0506 0 1
11.1678 0 1
11.285 0 1
11.4023 0 1
11.5196 0 1
11.6369 0 1
11.7542 0 1
11.8715 0 1
11.9888 0 1
12.1062 0 1
12.2235 0 1
12.3409 0 1
12.4582 0 1
12.5756 0 1
12.693 0 1
12.8104 0 1
12.9278 0 1
13.0452 0 1
13.1626 0 1
13.28 0 1
13.3974 0 1
13.5149 0 1
13.6323 0 1
13.7497 0 1
13.8671 0 1
13.9845 0 1
14.1019 0 1
14.2193 0 1
14.3367 0 1
14.4541 0 1
14.5714 0 1
14.6888 0 1
14.8062 0 1
14.9235 0 1
15.0408 0 0
15.1581 0 0
15.2755 0 0
15.3927 0 0
15.51 0 0
15.6273 0 0
15.7445 0 0
15.8617 0 0
15.9789 0 0
16.0961 0 0
16.2132 0 0
16.3304 0 0
16.4475 0 0
16.5646 0 0
16.6816 0 0
16.7986 0 0
16.9156 0 0
17.0326 0 0
17.1496 0 0
17.2665 0 0
17.3833 0 0
17.5002 0 0
17.617 0 0
17.7338 0 0
17.8505 0 0
17.9672 0 0
18.0839 0 0
18.2005 0 0
18.3171 0 0
18.4337 0 0
18.5502 0 0
18.6666 0 0
18.7831 0 0
18.8994 0 0
19.0158 0 0
19.1321 0 0
19.2483 0 0
19.3645 0 0
19.4806 0 0
19.5967 0 0
19.7128 0 0
19.8288 0 0
19.9447 0 0
20.0606 0 1
20.1764 0 1
20.2922 0 1
20.4079 0 1
20.5236 0 1
20.6392 0 1
20.7548 0 1
20.8702 0 1
23.3078 0 1
23.4233 0 1
23.539 0 1
23.6547 0 1
23.7704 0 1
23.8862 0 1
24.0021 0 1
24.118 0 1
24.234 0 1
24.35 0 1
24.4661 5755 75.8617
24.5822 5900 76.8115
24.6984 5846 76.4591
24.8146 6086 78.0128
24.9309 6048 77.7689
25.0472 6046 77.756
25.1636 6202 78.7528
25.28 6267 79.1644
25.3965 6276 79.2212
25.513 6411 80.0687
25.6296 6217 78.848
25.7462 6117 78.2113
25.8628 6084 78
25.9795 6057 77.8267
26.0962 5890 76.7463
26.213 5786 76.0658
26.3298 5704 75.5248
26.4466 5758 75.8815
26.5635 5650 75.1665
26.6804 5537 74.411
26.7973 5608 74.8866
26.9143 5437 73.736
27.0313 5213 72.2011
27.1483 5048 71.0493
27.2653 4784 69.1665
27.3824 4959 70.4202
27.4996 5009 70.7743
27.6167 5309 72.8629
27.7339 5546 74.4715
27.8511 5684 75.3923
27.9683 5840 76.4199
28.0855 6113 78.1857
28.2028 5846 76.4591
28.3201 5902 76.8245
28.4374 5999 77.4532
28.5547 6059 77.8396
28.6721 5986 77.3692
28.7894 5786 76.0658
28.9068 5909 76.87
29.0242 5640 75.0999
29.1416 5534 74.3909
29.259 5401 73.4915
29.3764 5449 73.8173
29.4939 5339 73.0685
29.6113 5443 73.7767
29.7288 5575 74.6659
29.8463 5401 73.4915
29.9638 5431 73.6953
30.0812 5532 74.3774
30.1987 5549 74.4916
30.3162 5541 74.4379
30.4337 5395 73.4507
30.5512 5394 73.4439
30.6687 5084 71.3022
30.7862 5009 70.7743
30.9037 5109 71.4773
31.0212 5450 73.8241
31.1387 5790 76.092
31.2562 5954 77.1622
31.3737 6075 77.9423
31.4912 6184 78.6384
31.6087 6301 79.3788
31.7262 6180 78.613
31.8436 5963 77.2205
31.9611 5822 76.302
32.0785 5948 77.1233
32.1959 5799 76.1512
32.3134 5525 74.3303
32.4308 5433 73.7089
32.5482 5371 73.2871
32.6655 5345 73.1095
32.7829 5267 72.5741
32.9002 5007 70.7602
33.0176 5269 72.5879
33.1349 5263 72.5465
33.2522 5348 73.13
33.3694 5226 72.2911
33.4867 5343 73.0958
33.6039 5421 73.6274
33.7211 5369 73.2735
33.8383 5557 74.5453
33.9554 5671 75.306
34.0725 5570 74.6324
34.1896 5581 74.7061
34.3067 5277 72.643
34.4237 5091 71.3512
34.5407 4974 70.5266
34.6577 5159 71.8262
34.7746 5081 71.2811
34.8915 5496 74.135
35.0084 5453 73.8444
35.1252 5526 74.3371
35.242 5520 74.2967
35.3587 5475 73.9932
35.4755 5524 74.3236
35.5921 5377 73.328
35.7088 5379 73.3417
35.8254 5349 73.1369
35.9419 5376 73.3212
36.0584 5276 72.6361
36.1749 5162 71.8471
36.2913 5163 71.854
36.4077 5127 71.6031
36.524 5148 71.7496
36.6403 5189 72.0347
36.7565 5046 71.0352
36.8727 5149 71.7565
36.9889 5119 71.5472
37.1049 5055 71.0985
37.221 0 1
37.3369 0 1
37.4529 0 1
37.5687 0 1
37.6845 0 1
37.8003 0 1
37.916 0 1
38.0316 0 1
38.1472 0 1
40.5851 0 1
40.7008 0 1
40.8164 0 1
40.9322 0 1
41.048 0 1
41.1639 0 1
41.2798 0 1
41.3958 0 1
41.5118 0 1
41.6279 0 1
41.744 4450 66.7083
41.8602 4558 67.513
41.9765 4514 67.1863
42.0928 4629 68.0368
42.2091 4689 68.4763
42.3255 4608 67.8823
42.4419 4745 68.884
42.5584 4627 68.0221
42.675 4554 67.4833
42.7915 4564 67.5574
42.9081 4408 66.3928
43.0248 4121 64.195
43.1415 3997 63.2218
43.2582 3702 60.8441
43.375 3702 60.8441
43.4918 3885 62.3298
43.6087 4100 64.0312
43.7256 4173 64.5988
43.8425 4101 64.0391
43.9595 4056 63.6867
44.0765 4374 66.1362
44.1935 4318 65.7115
44.3106 4283 65.4446
44.4277 4195 64.7688
44.5448 4269 65.3376
44.6619 4250 65.192
44.7791 4174 64.6065
44.8963 4201 64.8151
45.0136 4153 64.4438
45.1308 4224 64.9923
45.2481 4138 64.3273
45.3654 4138 64.3273
45.4827 4133 64.2884
45.6001 4076 63.8436
45.7174 3882 62.3057
45.8348 3806 61.6928
45.9522 3818 61.79
46.0697 3750 61.2372
46.1871 3761 61.327
46.3046 3682 60.6795
46.422 3525 59.3717
46.5395 3494 59.1101
46.657 3178 56.3738
46.7745 3037 55.109
46.892 2886 53.7215
47.0096 2769 52.6213
47.1271 3039 55.1271
47.2446 3115 55.8122
47.3622 3012 54.8817
47.4797 3067 55.3805
47.5973 3100 55.6776
47.7149 3222 56.7627
47.8324 2998 54.754
47.95 3057 55.2901
48.0675 2963 54.4334
48.1851 3041 55.1453
48.3027 2967 54.4702
48.4202 3035 55.0908
48.5378 3160 56.2139
48.6554 3234 56.8683
48.7729 3162 56.2317
48.8904 3151 56.1338
49.008 3132 55.9643
49.1255 3204 56.6039
49.243 3225 56.7891
49.3605 3193 56.5066
49.478 3250 57.0088
49.5955 3156 56.1783
49.713 3265 57.1402
49.8304 3418 58.4637
49.9479 3333 57.7321
50.0653 3282 57.2887
50.1827 3137 56.0089
50.3001 2863 53.507
50.4175 2704 52
50.5348 2705 52.0096
50.6521 3094 55.6237
50.7694 3285 57.3149
50.8867 3579 59.8247
51.004 3628 60.2329
51.1212 3882 62.3057
51.2384 3929 62.6817
51.3556 4006 63.293
51.4727 3935 62.7296
51.5899 3976 63.0555
51.707 4167 64.5523
51.824 4228 65.0231
51.9411 4169 64.5678
52.0581 4115 64.1483
52.175 4182 64.6684
52.2919 4266 65.3146
52.4088 4361 66.0379
52.5257 4448 66.6933
52.6425 4419 66.4756
52.7593 4351 65.9621
52.876 4540 67.3795
52.9927 4558 67.513
53.1094 4481 66.9403
53.226 4535 67.3424
53.3426 4437 66.6108
53.4591 4411 66.4154
53.5756 4465 66.8207
53.692 4407 66.3852
53.8084 4298 65.5591
53.9248 3929 62.6817
54.0411 3548 59.5651
54.1573 3650 60.4152
54.2735 0 1
54.3896 0 1
54.5057 0 1
54.6217 0 1
54.7377 0 1
54.8537 0 1
54.9695 0 1
55.0853 0 1
55.2011 0 1
55.3168 0 1
55.4324 0 1
57.824 0 1
57.9396 0 1
58.0553 0 1
58.1711 0 1
58.2869 0 1
58.4028 0 1
58.5187 0 1
58.6347 0 1
58.7508 0 1
58.8669 0 1
58.983 4905 70.0357
59.0992 4717 68.6804
59.2155 4498 67.0671
59.3318 4469 66.8506
59.4482 4567 67.5796
59.5646 4913 70.0928
59.681 5233 72.3395
59.7975 5269 72.5879
59.9141 5545 74.4648
60.0306 5294 72.7599
60.1473 5418 73.6071
60.2639 5374 73.3076
60.3807 5390 73.4166
60.4974 5347 73.1232
60.6142 5492 74.108
60.731 5455 73.858
60.8479 5448 73.8106
60.9648 5434 73.7157
61.0818 5408 73.5391
61.1987 5521 74.3034
61.3158 5400 73.4847
61.4328 5275 72.6292
61.5499 5385 73.3826
61.667 5543 74.4513
61.7841 5523 74.3169
61.9013 5308 72.856
62.0185 5376 73.3212
62.1357 5216 72.2219
62.253 5207 72.1595
62.3702 4986 70.6116
62.4875 4876 69.8284
62.6049 4490 67.0075
62.7222 4412 66.4229
62.8396 4517 67.2086
62.9569 4812 69.3686
63.0743 4881 69.8642
63.1918 5123 71.5751
63.3092 5016 70.8237
63.4267 5110 71.4843
63.5441 5320 72.9383
63.6616 5129 71.617
63.7791 5210 72.1803
63.8966 5285 72.698
64.0142 5277 72.643
64.1317 5257 72.5052
64.2492 5206 72.1526
64.3668 5101 71.4213
64.4843 5394 73.4439
64.6019 5265 72.5603
64.7195 5181 71.9792
64.837 5212 72.1942
64.9546 5175 71.9375
65.0722 5331 73.0137
65.1898 5055 71.0985
65.3074 5254 72.4845
65.4249 4960 70.4273
65.5425 5074 71.232
65.6601 5187 72.0208
65.7777 5102 71.4283
65.8952 4883 69.8785
66.0128 4771 69.0724
66.1304 4465 66.8207
66.2479 4044 63.5925
66.3655 4144 64.3739
66.483 4302 65.5896
66.6005 4562 67.5426
66.718 4663 68.2862
66.8355 4864 69.7424
66.953 4928 70.1997
67.0705 5020 70.852
67.1879 5048 71.0493
67.3054 4992 70.6541
67.4228 4951 70.3633
67.5402 5111 71.4913
67.6576 5213 72.2011
67.7749 5061 71.1407
67.8923 5190 72.0417
68.0096 5198 72.0972
68.1269 5112 71.4983
68.2442 5120 71.5542
68.3614 5188 72.0278
68.4787 5170 71.9027
68.5958 5219 72.2426
68.713 5204 72.1388
68.8302 5032 70.9366
68.9473 5083 71.2952
69.0643 5167 71.8818
69.1814 5208 72.1665
69.2984 5071 71.211
69.4154 5141 71.7008
69.5323 5197 72.0902
69.6492 5078 71.2601
69.7661 4572 67.6166
69.8829 4440 66.6333
69.9997 4123 64.2106
70.1165 4440 66.6333
70.2332 4583 67.6979
70.3499 4755 68.9565
70.4665 4835 69.5342
70.5831 4896 69.9714
70.6996 4919 70.1356
70.8161 5114 71.5122
70.9326 5143 71.7147
71.049 5169 71.8958
71.1653 5142 71.7077
71.2817 4961 70.4344
71.3979 4878 69.8427
71.5141 4956 70.3989
71.6303 4927 70.1926
71.7464 4521 67.2384
71.8624 0 1
71.9784 0 1
72.0944 0 1
72.2102 0 1
72.3261 0 1
72.4418 0 1
72.5575 0 1
72.6732 0 1
75.1054 0 1
75.2209 0 1
75.3365 0 1
75.4521 0 1
75.5678 0 1
75.6835 0 1
75.7993 0 1
75.9151 0 1
76.031 0 1
76.147 4375 66.1438
76.263 4800 69.282
76.3791 4938 70.2709
76.4952 5096 71.3863
76.6113 5022 70.8661
76.7276 5076 71.2461
76.8438 5070 71.2039
76.9601 5149 71.7565
77.0765 5107 71.4633
77.1929 5352 73.1574
77.3093 5245 72.4224
77.4258 5165 71.8679
77.5423 5186 72.0139
77.6589 5077 71.2531
77.7755 5099 71.4073
77.8921 5080 71.2741
78.0088 5086 71.3162
78.1256 5044 71.0211
78.2423 5113 71.5052
78.3591 4982 70.5833
78.4759 5081 71.2811
78.5928 4893 69.95
78.7097 4820 69.4262
78.8266 4787 69.1881
78.9436 3884 62.3217
79.0606 3815 61.7657
79.1776 3761 61.327
79.2946 4344 65.909
79.4117 4678 68.3959
79.5288 4603 67.8454
79.6459 4851 69.6491
79.7631 4948 70.342
79.8802 5038 70.9789
79.9974 5006 70.7531
80.1147 5081 71.2811
80.2319 5204 72.1388
80.3491 4974 70.5266
80.4664 5109 71.4773
80.5837 5105 71.4493
80.701 5122 71.5681
80.8183 5144 71.7217
80.9357 5105 71.4493
81.053 5184 72
81.1704 5120 71.5542
81.2877 5251 72.4638
81.4051 4964 70.4557
81.5225 5103 71.4353
81.6399 4896 69.9714
81.7573 4952 70.3704
81.8747 5018 70.8378
81.9922 4949 70.3491
82.1096 4932 70.2282
82.227 4842 69.5845
82.3444 4816 69.3974
82.4619 4674 68.3667
82.5793 4323 65.7495
82.6967 4058 63.7024
82.8142 3890 62.3699
82.9316 4209 64.8768
83.049 4387 66.2344
83.1664 4484 66.9627
83.2838 4690 68.4836
83.4012 4748 68.9057
83.5186 4871 69.7925
83.636 4856 69.685
83.7534 4915 70.1071
83.8708 4883 69.8785
83.9881 4800 69.282
84.1055 4842 69.5845
84.2228 4849 69.6348
84.3401 4986 70.6116
84.4575 5040 70.993
84.5747 5040 70.993
84.692 4929 70.2068
84.8093 5001 70.7177
84.9265 4893 69.95
85.0437 4821 69.4334
85.1609 4835 69.5342
85.2781 4797 69.2604
85.3952 4980 70.5691
85.5123 4986 70.6116
85.6294 4969 70.4911
85.7465 4973 70.5195
85.8636 4897 69.9786
85.9806 4795 69.2459
86.0976 4599 67.8159
86.2145 4146 64.3894
86.3315 3896 62.4179
86.4484 4172 64.591
86.5652 4540 67.3795
86.682 4770 69.0652
86.7988 4696 68.5274
86.9156 4910 70.0714
87.0323 5028 70.9084
87.149 5116 71.5262
87.2657 5061 71.1407
87.3823 5223 72.2703
87.4988 5257 72.5052
87.6154 5236 72.3602
87.7318 5112 71.4983
87.8483 5333 73.0274
87.9647 5324 72.9657
88.081 5373 73.3008
88.1973 5335 73.0411
88.3136 5340 73.0753
88.4298 5280 72.6636
88.546 5327 72.9863
88.6621 5294 72.7599
88.7781 5148 71.7496
88.8942 0 1
89.0101 0 1
89.126 0 1
89.2419 0 1
89.3577 0 1
89.4734 0 1
89.5891 0 1
89.7047 0 1
89.8203 0 1
89.9358 0 1
92.3269 0 1
92.4424 0 1
92.558 0 1
92.6736 0 1
92.7893 0 1
92.905 0 1
93.0208 0 1
93.1366 0 1
93.2525 0 1
93.3685 0 1
93.4845 0 1
93.6005 5186 72.0139
93.7167 5099 71.4073
93.8328 5283 72.6842
93.949 5270 72.5948
94.0653 5356 73.1847
94.1816 5389 73.4098
94.2979 5025 70.8872
94.4143 5187 72.0208
94.5307 5140 71.6938
94.6472 4985 70.6045
94.7637 4904 70.0286
94.8803 5265 72.5603
94.9969 5047 71.0422
95.1135 4985 70.6045
95.2302 4827 69.4766
95.3469 4924 70.1712
95.4637 4493 67.0298
95.5805 4302 65.5896
95.6973 4363 66.053
95.8142 4852 69.6563
95.9311 4810 69.3542
96.048 4933 70.2353
96.1649 4991 70.647
96.2819 5268 72.581
96.3989 5448 73.8106
96.516 5525 74.3303
96.633 5540 74.4312
96.7501 5576 74.6726
96.8673 5590 74.7663
96.9844 5673 75.3193
97.1016 5638 75.0866
97.2188 5677 75.3459
97.336 5686 75.4056
97.4532 5719 75.6241
97.5704 5638 75.0866
97.6877 5723 75.6505
97.805 5657 75.213
97.9223 5738 75.7496
98.0396 5581 74.7061
98.1569 5624 74.9933
98.2743 5630 75.0333
98.3916 5389 73.4098
98.509 5461 73.8986
98.6264 5413 73.5731
98.7438 5358 73.1984
98.8612 5241 72.3948
98.9786 5107 71.4633
99.096 4817 69.4046
99.2134 4737 68.8259
99.3308 4588 67.7348
99.4482 5040 70.993
99.5656 5379 73.3417
99.6831 5273 72.6154
99.8005 5440 73.7564
99.9179 5511 74.2361
100.035 5561 74.5721
100.153 5472 73.973
100.27 5462 73.9053
100.388 5720 75.6307
100.505 5692 75.4453
100.622 5786 76.0658
100.74 5746 75.8024
100.857 5887 76.7268
100.975 5742 75.776
101.092 5865 76.5833
101.209 5809 76.2168
101.327 5709 75.5579
101.444 5900 76.8115
101.561 5947 77.1168
101.679 5894 76.7724
101.796 5761 75.9013
101.913 5908 76.8635
102.03 5773 75.9803
102.148 5691 75.4387
102.265 5890 76.7463
102.382 5397 73.4643
102.499 5339 73.0685
102.616 5267 72.5741
102.733 4998 70.6965
102.851 4989 70.6329
102.968 5134 71.6519
103.085 5309 72.8629
103.202 5444 73.7835
103.319 5548 74.4849
103.436 5609 74.8933
103.552 5771 75.9671
103.669 5701 75.505
103.786 5910 76.8765
103.903 5976 77.3046
104.02 6143 78.3773
104.137 6030 77.6531
104.253 6140 78.3582
104.37 5961 77.2075
104.487 6150 78.4219
104.603 6177 78.5939
104.72 6186 78.6511
104.836 6249 79.0506
104.953 6133 78.3135
105.069 6088 78.0256
105.186 6148 78.4092
105.302 6069 77.9038
105.418 6249 79.0506
105.535 6049 77.7753
105.651 5962 77.214
105.767 5794 76.1183
105.883 5742 75.776
105.999 5541 74.4379
106.115 0 1
106.231 0 1
106.347 0 1
106.463 0 1
106.579 0 1
106.694 0 1
106.81 0 1
106.926 0 1
107.041 0 1
107.157 0 1
109.576 0 1
109.692 0 1
109.807 0 1
109.923 0 1
110.039 0 1
110.155 0 1
110.27 0 1
110.386 0 1
110.502 0 1
110.618 5644 75.1266
110.735 5749 75.8222
110.851 5637 75.08
110.967 5800 76.1577
111.083 5412 73.5663
111.199 5067 71.1829
111.316 4981 70.5762
111.432 4888 69.9142
111.549 5342 73.089
111.665 5295 72.7668
111.782 5344 73.1027
111.898 5458 73.8783
112.015 5525 74.3303
112.132 5625 75
112.248 5616 74.94
112.365 5728 75.6836
112.482 5868 76.6029
112.599 5781 76.0329
112.716 5719 75.6241
112.832 5901 76.818
112.949 5801 76.1643
113.066 5808 76.2102
113.183 5631 75.04
113.3 5648 75.1532
113.417 5638 75.0866
113.534 5640 75.0999
113.652 5577 74.6793
113.769 5404 73.5119
113.886 5332 73.0205
114.003 5486 74.0675
114.12 5332 73.0205
114.238 5218 72.2357
114.355 5225 72.2842
114.472 5060 71.1337
114.589 5006 70.7531
114.707 4752 68.9348
114.824 4392 66.2722
114.942 4602 67.838
115.059 4694 68.5128
115.176 4808 69.3397
115.294 4922 70.157
115.411 5058 71.1196
115.529 4974 70.5266
115.646 5316 72.9109
115.764 5245 72.4224
115.881 5185 72.0069
115.999 5231 72.3257
116.116 5273 72.6154
116.234 5389 73.4098
116.351 5346 73.1163
116.469 5365 73.2462
116.586 5532 74.3774
116.704 5502 74.1755
116.821 5481 74.0338
116.939 5407 73.5323
117.056 5411 73.5595
117.174 5465 73.9256
117.291 5441 73.7631
117.409 5360 73.212
117.526 5217 72.2288
117.644 5281 72.6705
117.761 5377 73.328
117.879 5360 73.212
117.996 5343 73.0958
118.114 5203 72.1318
118.231 5187 72.0208
118.349 4667 68.3154
118.466 4750 68.9202
118.584 4668 68.3228
118.701 4785 69.1737
118.819 4863 69.7352
118.936 4834 69.527
119.053 4933 70.2353
119.171 4984 70.5975
119.288 5257 72.5052
119.405 5329 73
119.523 5213 72.2011
119.64 5460 73.8918
119.757 5311 72.8766
119.875 5263 72.5465
119.992 5410 73.5527
120.109 5378 73.3348
120.226 5401 73.4915
120.343 5404 73.5119
120.46 5349 73.1369
120.578 5465 73.9256
120.695 5472 73.973
120.812 5492 74.108
120.929 5426 73.6614
121.046 5329 73
121.163 5262 72.5396
121.279 5369 73.2735
121.396 5323 72.9589
121.513 5363 73.2325
121.63 5348 73.13
121.747 5222 72.2634
121.863 5037 70.9718
121.98 4961 70.4344
122.097 4624 68
122.213 4485 66.9701
122.33 4506 67.1267
122.446 4586 67.72
122.563 4706 68.6003
122.679 4747 68.8985
122.795 4817 69.4046
122.912 4943 70.3065
123.028 5020 70.852
123.144 5010 70.7814
123.26 5060 71.1337
123.377 0 1
123.493 0 1
123.609 0 1
123.725 0 1
123.84 0 1
123.956 0 1
124.072 0 1
124.188 0 1
124.303 0 1
124.419 0 1
126.852 0 1
126.968 0 1
127.083 0 1
127.199 0 1
127.315 0 1
127.431 0 1
127.547 0 1
127.663 0 1
127.779 0 1
127.895 0 1
128.011 0 1
128.127 0 1
128.243 0 1
128.359 5742 75.776
128.476 5612 74.9133
128.592 5676 75.3392
128.708 5861 76.5572
128.825 5887 76.7268
128.941 5896 76.7854
129.058 6001 77.4661
129.174 5943 77.0909
129.291 6057 77.8267
129.408 6163 78.5048
129.524 6268 79.1707
129.641 6033 77.6724
129.758 5817 76.2693
129.875 6025 77.6209
129.992 6033 77.6724
130.108 5901 76.818
130.225 5957 77.1816
130.342 5894 76.7724
130.459 5776 76
130.576 5986 77.3692
130.693 5841 76.4264
130.81 5633 75.0533
130.928 5558 74.552
131.045 5027 70.9013
131.162 4949 70.3491
131.279 5068 71.1899
131.396 5263 72.5465
131.513 5339 73.0685
131.631 5471 73.9662
131.748 5588 74.7529
131.865 5714 75.591
131.983 5781 76.0329
132.1 5829 76.3479
132.217 5872 76.629
132.335 5815 76.2561
132.452 6048 77.7689
132.57 5905 76.844
132.687 5767 75.9408
132.804 6364 79.7747
132.922 6054 77.8075
133.039 5990 77.3951
133.157 5871 76.6225
133.274 5885 76.7138
133.392 5931 77.013
133.509 5911 76.883
133.627 5948 77.1233
133.744 5965 77.2334
133.862 5822 76.302
133.979 5923 76.961
134.097 6029 77.6466
134.214 6030 77.6531
134.332 5837 76.4003
134.449 5631 75.04
134.567 5538 74.4177
134.684 5119 71.5472
134.802 5147 71.7426
134.919 5262 72.5396
135.037 5348 73.13
135.154 5406 73.5255
135.272 5644 75.1266
135.389 5814 76.2496
135.507 6023 77.608
135.624 6013 77.5435
135.742 6132 78.3071
135.859 6079 77.9679
135.977 6147 78.4028
136.094 6235 78.962
136.211 5962 77.214
136.329 6154 78.4474
136.446 6169 78.543
136.564 6291 79.3158
136.681 6111 78.1729
136.798 6105 78.1345
136.915 5976 77.3046
137.033 6027 77.6338
137.15 5963 77.2205
137.267 6064 77.8717
137.384 5990 77.3951
137.502 5890 76.7463
137.619 6013 77.5435
137.736 5953 77.1557
137.853 5882 76.6942
137.97 5724 75.6571
138.087 6010 77.5242
138.204 5590 74.7663
138.321 5307 72.8492
138.438 5248 72.4431
138.555 5414 73.5799
138.672 5590 74.7663
138.788 5615 74.9333
138.905 5712 75.5778
139.022 5850 76.4853
139.139 5915 76.909
139.255 5875 76.6485
139.372 6029 77.6466
139.488 6136 78.3326
139.605 5909 76.87
139.721 5867 76.5963
139.838 5952 77.1492
139.954 5956 77.1751
140.071 5864 76.5768
140.187 5996 77.4338
140.303 5934 77.0325
140.419 6034 77.6788
140.535 6113 78.1857
140.652 6021 77.5951
140.768 0 1
140.884 0 1
141 0 1
141.115 0 1
141.231 0 1
141.347 0 1
141.463 0 1
141.578 0 1
141.694 0 1
144.104 0 1
144.219 0 1
144.335 0 1
144.45 0 1
144.566 0 1
144.682 0 1
144.798 0 1
144.914 0 1
145.03 0 1
145.146 5026 70.8943
145.262 5011 70.7884
145.378 5148 71.7496
145.494 5168 71.8888
145.61 5013 70.8025
145.726 5109 71.4773
145.842 5260 72.5259
145.959 5148 71.7496
146.075 5404 73.5119
146.192 5532 74.3774
146.308 5562 74.5788
146.425 5664 75.2596
146.541 5882 76.6942
146.658 5832 76.3675
146.774 5563 74.5855
146.891 5352 73.1574
147.008 5166 71.8749
147.125 5169 71.8958
147.241 5066 71.1758
147.358 5073 71.225
147.475 4975 70.5337
147.592 5077 71.2531
147.709 5187 72.0208
147.826 5213 72.2011
147.943 5132 71.638
148.06 4900 70
148.177 4971 70.5053
148.294 4724 68.7314
148.411 4809 69.347
148.528 4773 69.0869
148.645 4934 70.2424
148.762 4725 68.7386
148.88 4795 69.2459
148.997 4781 69.1448
149.114 4984 70.5975
149.231 4915 70.1071
149.349 5032 70.9366
149.466 4990 70.6399
149.583 5044 71.0211
149.701 5149 71.7565
149.818 5088 71.3302
149.935 5127 71.6031
150.053 5086 71.3162
150.17 5016 70.8237
150.287 5093 71.3653
150.405 5124 71.5821
150.522 4842 69.5845
150.64 4569 67.5944
150.757 4534 67.335
150.875 4447 66.6858
150.992 4352 65.9697
151.11 4468 66.8431
151.227 4524 67.2607
151.344 4628 68.0294
151.462 4649 68.1836
151.579 4848 69.6276
151.697 4711 68.6367
151.814 4915 70.1071
151.932 4785 69.1737
152.049 4901 70.0071
152.167 4902 70.0143
152.284 4790 69.2098
152.402 4952 70.3704
152.519 5057 71.1126
152.636 4909 70.0643
152.754 4978 70.5549
152.871 5086 71.3162
152.989 5042 71.007
153.106 5180 71.9722
153.223 5112 71.4983
153.341 5236 72.3602
153.458 5229 72.3118
153.575 5070 71.2039
153.693 5098 71.4003
153.81 4975 70.5337
153.927 4977 70.5479
154.044 4882 69.8713
154.162 4729 68.7677
154.279 4651 68.1982
154.396 4536 67.3498
154.513 4512 67.1714
154.63 4712 68.644
154.747 4570 67.6018
154.864 4837 69.5485
154.981 4899 69.9929
155.098 5104 71.4423
155.215 5047 71.0422
155.332 5059 71.1266
155.449 5097 71.3933
155.566 4932 70.2282
155.683 4952 70.3704
155.8 5094 71.3723
155.917 5181 71.9792
156.033 5086 71.3162
156.15 0 1
156.267 0 1
156.383 0 1
156.5 0 1
156.617 0 1
156.733 0 1
156.85 0 1
156.966 0 1
157.082 0 1
157.199 0 1
157.315 0 1
157.431 0 1
157.547 0 1
157.664 0 1
157.78 0 1
157.896 0 1
158.012 0 1
158.128 0 1
158.244 0 1
158.359 0 1
158.475 0 1
158.591 0 1
158.706 0 1
