
6.15755 0 1
6.2731 0 1
6.3887 0 1
6.50437 0 1
6.62009 0 1
6.73587 0 1
6.8517 0 1
6.96759 0 1
7.08353 0 1
7.19952 0 1
7.31557 0 1
7.43166 0 1
7.54781 0 1
7.664 0 1
7.78024 0 1
7.89653 0 1
8.01286 0 1
8.12924 0 1
8.24567 0 1
8.36213 0 1
8.47864 0 1
8.59519 0 1
8.71178 0 1
8.82841 0 1
8.94508 0 1
9.06179 0 1
9.17853 0 1
9.29531 0 1
9.41212 0 1
9.52897 0 1
9.64584 0 1
9.76276 0 1
9.8797 0 1
9.99667 0 1
10.1137 0 1
10.2307 0 1
10.3478 0 1
10.4648 0 1
10.5819 0 1
10.6991 0 1
10.8162 0 1
10.9334 0 1
11.0506 0 1
11.1678 0 1
11.285 0 1
11.4023 0 1
11.5196 0 1
11.6369 0 1
11.7542 0 1
11.8715 0 1
11.9888 0 1
12.1062 0 1
12.2235 0 1
12.3409 0 1
12.4582 0 1
12.5756 0 1
12.693 0 1
12.8104 0 1
12.9278 0 1
13.0452 0 1
13.1626 0 1
13.28 0 1
13.3974 0 1
13.5149 0 1
13.6323 0 1
13.7497 0 1
13.8671 0 1
13.9845 0 1
14.1019 0 1
14.2193 0 1
14.3367 0 1
14.4541 0 1
14.5714 0 1
14.6888 0 1
14.8062 0 1
14.9235 0 1
15.0408 8921 94.451
15.1581 9223 96.0365
15.2755 9452 97.2214
15.3927 9609 98.0255
15.51 9496 97.4474
15.6273 9593 97.9439
15.7445 9359 96.7419
15.8617 9523 97.5859
15.9789 9461 97.2677
16.0961 9556 97.7548
16.2132 9744 98.7117
16.3304 10115 100.573
16.4475 10252 101.252
16.5646 10877 104.293
16.6816 10941 104.599
16.7986 11530 107.378
16.9156 11723 108.273
17.0326 11969 109.403
17.1496 12394 111.328
17.2665 12423 111.459
17.3833 12771 113.009
17.5002 12689 112.645
17.617 12784 113.066
17.7338 13150 114.673
17.8505 12909 113.618
17.9672 12769 113
18.0839 12022 109.645
18.2005 11570 107.564
18.3171 11539 107.42
18.4337 12186 110.39
18.5502 12606 112.276
18.6666 12989 113.969
18.7831 13154 114.691
18.8994 13146 114.656
19.0158 12685 112.628
19.1321 12647 112.459
19.2483 12464 111.642
19.3645 12304 110.923
19.4806 11947 109.302
19.5967 11780 108.536
19.7128 11600 107.703
19.8288 11256 106.094
19.9447 10416 102.059
20.0606 0 1
20.1764 0 1
20.2922 0 1
20.4079 0 1
20.5236 0 1
20.6392 0 1
20.7548 0 1
20.8702 0 1
23.3078 0 1
23.4233 0 1
23.539 0 1
23.6547 0 1
23.7704 0 1
23.8862 0 1
24.0021 0 1
24.118 0 1
24.234 0 1
24.35 0 1
24.4661 11720 108.259
24.5822 11696 108.148
24.6984 11904 109.105
24.8146 11657 107.968
24.9309 11528 107.369
25.0472 11533 107.392
25.1636 11493 107.205
25.28 11997 109.531
25.3965 12020 109.636
25.513 12512 111.857
25.6296 12973 113.899
25.7462 13260 115.152
25.8628 13559 116.443
25.9795 13805 117.495
26.0962 14006 118.347
26.213 13718 117.124
26.3298 13722 117.141
26.4466 13684 116.979
26.5635 13575 116.512
26.6804 13035 114.171
26.7973 12335 111.063
26.9143 12097 109.986
27.0313 12389 111.306
27.1483 13080 114.368
27.2653 13453 115.987
27.3824 13503 116.202
27.4996 13417 115.832
27.6167 13044 114.21
27.7339 12912 113.631
27.8511 12660 112.517
27.9683 12469 111.665
28.0855 12281 110.82
28.2028 12072 109.873
28.3201 11974 109.426
28.4374 11746 108.379
28.5547 11625 107.819
28.6721 11545 107.448
28.7894 11648 107.926
28.9068 11869 108.945
29.0242 11805 108.651
29.1416 12389 111.306
29.259 12789 113.088
29.3764 12937 113.741
29.4939 13093 114.425
29.6113 13197 114.878
29.7288 13261 115.156
29.8463 13517 116.263
29.9638 13256 115.135
30.0812 13158 114.708
30.1987 12517 111.879
30.3162 11935 109.247
30.4337 11112 105.413
30.5512 11387 106.71
30.6687 12203 110.467
30.7862 12794 113.111
30.9037 12731 112.832
31.0212 13020 114.105
31.1387 12777 113.035
31.2562 12651 112.477
31.3737 12447 111.566
31.4912 12402 111.364
31.6087 11960 109.362
31.7262 11874 108.968
31.8436 11625 107.819
31.9611 11575 107.587
32.0785 11174 105.707
32.1959 11278 106.198
32.3134 11049 105.114
32.4308 11103 105.371
32.5482 11556 107.499
32.6655 12038 109.718
32.7829 12037 109.713
32.9002 12618 112.33
33.0176 12727 112.814
33.1349 12985 113.952
33.2522 12996 114
33.3694 12944 113.772
33.4867 13153 114.687
33.6039 12984 113.947
33.7211 12872 113.455
33.8383 12277 110.802
33.9554 11748 108.388
34.0725 11057 105.152
34.1896 11020 104.976
34.3067 11193 105.797
34.4237 11581 107.615
34.5407 12088 109.945
34.6577 12247 110.666
34.7746 12449 111.575
34.8915 12281 110.82
35.0084 12033 109.695
35.1252 11984 109.471
35.242 11756 108.425
35.3587 11299 106.297
35.4755 11453 107.019
35.5921 11408 106.808
35.7088 11203 105.844
35.8254 11104 105.376
35.9419 10869 104.254
36.0584 10632 103.112
36.1749 10841 104.12
36.2913 10836 104.096
36.4077 11488 107.182
36.524 11366 106.611
36.6403 11644 107.907
36.7565 12170 110.318
36.8727 12327 111.027
36.9889 12423 111.459
37.1049 12142 110.191
37.221 0 1
37.3369 0 1
37.4529 0 1
37.5687 0 1
37.6845 0 1
37.8003 0 1
37.916 0 1
38.0316 0 1
38.1472 0 1
40.5851 0 1
40.7008 0 1
40.8164 0 1
40.9322 0 1
41.048 0 1
41.1639 0 1
41.2798 0 1
41.3958 0 1
41.5118 0 1
41.6279 0 1
41.744 8684 93.188
41.8602 9452 97.2214
41.9765 9838 99.1867
42.0928 10518 102.557
42.2091 10494 102.44
42.3255 10128 100.638
42.4419 10417 102.064
42.5584 10383 101.897
42.675 10079 100.394
42.7915 9293 96.4002
42.9081 8794 93.7763
43.0248 8416 91.7388
43.1415 8697 93.2577
43.2582 9151 95.6609
43.375 9504 97.4885
43.4918 9439 97.1545
43.6087 9698 98.4784
43.7256 9350 96.6954
43.8425 9271 96.286
43.9595 9061 95.1893
44.0765 9107 95.4306
44.1935 8723 93.397
44.3106 8660 93.0591
44.4277 8475 92.0598
44.5448 8100 90
44.6619 7760 88.0909
44.7791 7516 86.6949
44.8963 7374 85.872
45.0136 7227 85.0118
45.1308 7285 85.3522
45.2481 7438 86.2438
45.3654 7599 87.1722
45.4827 7587 87.1034
45.6001 7842 88.5551
45.7174 8112 90.0666
45.8348 8124 90.1332
45.9522 8162 90.3438
46.0697 7903 88.8988
46.1871 7636 87.3842
46.3046 7254 85.1704
46.422 7122 84.3919
46.5395 6322 79.511
46.657 6341 79.6304
46.7745 6511 80.6908
46.892 6908 83.1144
47.0096 7037 83.8868
47.1271 7188 84.7821
47.2446 7144 84.5222
47.3622 7197 84.8351
47.4797 7004 83.6899
47.5973 6826 82.6196
47.7149 6800 82.4621
47.8324 6614 81.3265
47.95 6466 80.4114
48.0675 6315 79.467
48.1851 6250 79.0569
48.3027 5851 76.4918
48.4202 5863 76.5702
48.5378 5829 76.3479
48.6554 5728 75.6836
48.7729 6018 77.5758
48.8904 6071 77.9166
49.008 6368 79.7997
49.1255 6553 80.9506
49.243 6773 82.2982
49.3605 6712 81.9268
49.478 7015 83.7556
49.5955 6897 83.0482
49.713 6912 83.1384
49.8304 6611 81.3081
49.9479 6048 77.7689
50.0653 5755 75.8617
50.1827 5702 75.5116
50.3001 6139 78.3518
50.4175 6493 80.5792
50.5348 6769 82.2739
50.6521 7077 84.1249
50.7694 7339 85.668
50.8867 7435 86.2264
51.004 7581 87.0689
51.1212 7578 87.0517
51.2384 7525 86.7468
51.3556 7724 87.8863
51.4727 7693 87.7097
51.5899 7568 86.9943
51.707 7698 87.7382
51.824 7433 86.2148
51.9411 7591 87.1263
52.0581 7300 85.44
52.175 7610 87.2353
52.2919 7954 89.1852
52.4088 8273 90.956
52.5257 8794 93.7763
52.6425 8977 94.747
52.7593 9304 96.4572
52.876 9446 97.1905
52.9927 9427 97.0927
53.1094 9730 98.6408
53.226 9800 98.9949
53.3426 9577 97.8621
53.4591 9277 96.3172
53.5756 8632 92.9086
53.692 8144 90.2441
53.8084 8026 89.5879
53.9248 8496 92.1737
54.0411 9100 95.3939
54.1573 9362 96.7574
54.2735 0 1
54.3896 0 1
54.5057 0 1
54.6217 0 1
54.7377 0 1
54.8537 0 1
54.9695 0 1
55.0853 0 1
55.2011 0 1
55.3168 0 1
55.4324 0 1
57.824 0 1
57.9396 0 1
58.0553 0 1
58.1711 0 1
58.2869 0 1
58.4028 0 1
58.5187 0 1
58.6347 0 1
58.7508 0 1
58.8669 0 1
58.983 9568 97.8162
59.0992 10306 101.518
59.2155 11112 105.413
59.3318 11404 106.79
59.4482 12013 109.604
59.5646 12190 110.408
59.681 12377 111.252
59.7975 12188 110.399
59.9141 12223 110.558
60.0306 11998 109.535
60.1473 11739 108.347
60.2639 11574 107.583
60.3807 11307 106.334
60.4974 11105 105.38
60.6142 10654 103.218
60.731 10297 101.474
60.8479 10020 100.1
60.9648 10177 100.881
61.0818 10720 103.537
61.1987 10941 104.599
61.3158 11385 106.701
61.4328 11647 107.921
61.5499 11859 108.899
61.667 11796 108.609
61.7841 11705 108.19
61.9013 11856 108.885
62.0185 11095 105.333
62.1357 10353 101.75
62.253 9640 98.1835
62.3702 9422 97.067
62.4875 9641 98.1886
62.6049 10240 101.193
62.7222 10602 102.966
62.8396 11177 105.721
62.9569 11404 106.79
63.0743 11371 106.635
63.1918 11694 108.139
63.3092 11661 107.986
63.4267 11605 107.727
63.5441 11479 107.14
63.6616 11158 105.631
63.7791 10838 104.106
63.8966 10727 103.571
64.0142 10074 100.369
64.1317 9923 99.6143
64.2492 9486 97.3961
64.3668 9445 97.1854
64.4843 9504 97.4885
64.6019 9643 98.1988
64.7195 10145 100.722
64.837 10700 103.441
64.9546 11010 104.929
65.0722 11225 105.948
65.1898 11209 105.873
65.3074 11604 107.722
65.4249 11086 105.29
65.5425 10756 103.711
65.6601 10412 102.039
65.7777 9287 96.3691
65.8952 8959 94.652
66.0128 8784 93.723
66.1304 9204 95.9375
66.2479 9766 98.8231
66.3655 10334 101.656
66.483 10642 103.16
66.6005 10952 104.652
66.718 11380 106.677
66.8355 11653 107.949
66.953 11491 107.196
67.0705 11095 105.333
67.1879 11086 105.29
67.3054 10724 103.557
67.4228 10812 103.981
67.5402 10402 101.99
67.6576 10112 100.558
67.7749 9672 98.3463
67.8923 9360 96.7471
68.0096 9088 95.331
68.1269 9261 96.2341
68.2442 9451 97.2163
68.3614 9918 99.5892
68.4787 10370 101.833
68.5958 10991 104.838
68.713 11419 106.86
68.8302 11450 107.005
68.9473 11391 106.729
69.0643 11536 107.406
69.1814 11243 106.033
69.2984 10791 103.88
69.4154 10130 100.648
69.5323 9387 96.8865
69.6492 9073 95.2523
69.7661 9710 98.5393
69.8829 10009 100.045
69.9997 10677 103.33
70.1165 11228 105.962
70.2332 11444 106.977
70.3499 11797 108.614
70.4665 12114 110.064
70.5831 12200 110.454
70.6996 11961 109.366
70.8161 11896 109.069
70.9326 11929 109.22
71.049 11516 107.313
71.1653 11334 106.461
71.2817 10855 104.187
71.3979 10491 102.426
71.5141 9667 98.3209
71.6303 9065 95.2103
71.7464 8412 91.717
71.8624 0 1
71.9784 0 1
72.0944 0 1
72.2102 0 1
72.3261 0 1
72.4418 0 1
72.5575 0 1
72.6732 0 1
75.1054 0 1
75.2209 0 1
75.3365 0 1
75.4521 0 1
75.5678 0 1
75.6835 0 1
75.7993 0 1
75.9151 0 1
76.031 0 1
76.147 10726 103.566
76.263 11305 106.325
76.3791 11200 105.83
76.4952 10720 103.537
76.6113 10504 102.489
76.7276 9847 99.2321
76.8438 9641 98.1886
76.9601 9742 98.7016
77.0765 10084 100.419
77.1929 10335 101.661
77.3093 11167 105.674
77.4258 11865 108.927
77.5423 12103 110.014
77.6589 11872 108.959
77.7755 12113 110.059
77.8921 11817 108.706
78.0088 11576 107.592
78.1256 10678 103.334
78.2423 9937 99.6845
78.3591 9213 95.9844
78.4759 8762 93.6056
78.5928 9240 96.1249
78.7097 9780 98.8939
78.8266 10389 101.926
78.9436 11294 106.273
79.0606 11515 107.308
79.1776 11890 109.041
79.2946 11692 108.13
79.4117 12063 109.832
79.5288 11974 109.426
79.6459 12057 109.804
79.7631 11718 108.25
79.8802 11602 107.713
79.9974 11210 105.877
80.1147 10790 103.875
80.2319 10405 102.005
80.3491 9776 98.8737
80.4664 9164 95.7288
80.5837 9222 96.0312
80.701 9600 97.9796
80.8183 10251 101.247
80.9357 11010 104.929
81.053 11421 106.869
81.1704 11812 108.683
81.2877 11828 108.757
81.4051 11765 108.467
81.5225 11854 108.876
81.6399 11245 106.042
81.7573 11019 104.971
81.8747 9868 99.3378
81.9922 9500 97.4679
82.1096 8939 94.5463
82.227 9103 95.4096
82.3444 9667 98.3209
82.4619 10591 102.913
82.5793 11165 105.665
82.6967 11220 105.925
82.8142 11566 107.545
82.9316 11824 108.738
83.049 12096 109.982
83.1664 11968 109.398
83.2838 12075 109.886
83.4012 11771 108.494
83.5186 11453 107.019
83.636 11558 107.508
83.7534 10937 104.58
83.8708 10398 101.971
83.9881 9939 99.6945
84.1055 9179 95.8071
84.2228 9496 97.4474
84.3401 9781 98.8989
84.4575 10320 101.587
84.5747 11238 106.009
84.692 11795 108.605
84.8093 12233 110.603
84.9265 12269 110.766
85.0437 12327 111.027
85.1609 12039 109.722
85.2781 11783 108.55
85.3952 10379 101.877
85.5123 9773 98.8585
85.6294 9338 96.6333
85.7465 9194 95.8853
85.8636 9669 98.3311
85.9806 10717 103.523
86.0976 11321 106.4
86.2145 11742 108.361
86.3315 12263 110.738
86.4484 12663 112.53
86.5652 12695 112.672
86.682 12654 112.49
86.7988 12877 113.477
86.9156 12754 112.934
87.0323 12467 111.656
87.149 12416 111.427
87.2657 12226 110.571
87.3823 11792 108.591
87.4988 11080 105.262
87.6154 10379 101.877
87.7318 10092 100.459
87.8483 10322 101.597
87.9647 10936 104.575
88.081 11854 108.876
88.1973 12409 111.396
88.3136 12812 113.19
88.4298 13052 114.245
88.546 12867 113.433
88.6621 12973 113.899
88.7781 12425 111.467
88.8942 0 1
89.0101 0 1
89.126 0 1
89.2419 0 1
89.3577 0 1
89.4734 0 1
89.5891 0 1
89.7047 0 1
89.8203 0 1
89.9358 0 1
92.3269 0 1
92.4424 0 1
92.558 0 1
92.6736 0 1
92.7893 0 1
92.905 0 1
93.0208 0 1
93.1366 0 1
93.2525 0 1
93.3685 0 1
93.4845 0 1
93.6005 12430 111.49
93.7167 12682 112.614
93.8328 12315 110.973
93.949 12359 111.171
94.0653 11738 108.342
94.1816 11052 105.128
94.2979 10537 102.65
94.4143 10107 100.534
94.5307 9887 99.4334
94.6472 9945 99.7246
94.7637 10778 103.817
94.8803 11242 106.028
94.9969 11714 108.231
95.1135 12192 110.417
95.2302 12654 112.49
95.3469 12552 112.036
95.4637 12983 113.943
95.5805 12975 113.908
95.6973 12848 113.349
95.8142 13139 114.625
95.9311 12851 113.362
96.048 12843 113.327
96.1649 12087 109.941
96.2819 12264 110.743
96.3989 11359 106.579
96.516 10866 104.24
96.633 10203 101.01
96.7501 10162 100.807
96.8673 10905 104.427
96.9844 11229 105.967
97.1016 12039 109.722
97.2188 12709 112.734
97.336 13025 114.127
97.4532 13028 114.14
97.5704 12911 113.627
97.6877 12325 111.018
97.805 11703 108.18
97.9223 11120 105.451
98.0396 10270 101.341
98.1569 9863 99.3126
98.2743 9852 99.2572
98.3916 10166 100.827
98.509 10910 104.451
98.6264 11325 106.419
98.7438 11805 108.651
98.8612 12316 110.977
98.9786 12467 111.656
99.096 12502 111.812
99.2134 12844 113.331
99.3308 12761 112.965
99.4482 12753 112.929
99.5656 12470 111.669
99.6831 12367 111.207
99.8005 11991 109.503
99.9179 11766 108.471
100.035 11198 105.821
100.153 10211 101.049
100.27 9873 99.363
100.388 10039 100.195
100.505 10608 102.995
100.622 11443 106.972
100.74 12343 111.099
100.857 12426 111.472
100.975 12668 112.552
101.092 12812 113.19
101.209 12669 112.557
101.327 12076 109.891
101.444 11443 106.972
101.561 10809 103.966
101.679 10212 101.054
101.796 10046 100.23
101.913 9863 99.3126
102.03 10435 102.152
102.148 11232 105.981
102.265 10949 104.637
102.382 13272 115.204
102.499 12744 112.889
102.616 12909 113.618
102.733 13193 114.861
102.851 13151 114.678
102.968 13444 115.948
103.085 13436 115.914
103.202 13244 115.083
103.319 13069 114.32
103.436 12509 111.844
103.552 12108 110.036
103.669 11350 106.536
103.786 10742 103.644
103.903 11039 105.067
104.02 11469 107.093
104.137 12436 111.517
104.253 13499 116.185
104.37 13669 116.914
104.487 13682 116.97
104.603 13711 117.094
104.72 13489 116.142
104.836 12912 113.631
104.953 12111 110.05
105.069 11436 106.939
105.186 10907 104.437
105.302 10640 103.15
105.418 11003 104.895
105.535 11801 108.632
105.651 12330 111.041
105.767 12655 112.494
105.883 13240 115.065
105.999 13604 116.636
106.115 0 1
106.231 0 1
106.347 0 1
106.463 0 1
106.579 0 1
106.694 0 1
106.81 0 1
106.926 0 1
107.041 0 1
107.157 0 1
109.576 0 1
109.692 0 1
109.807 0 1
109.923 0 1
110.039 0 1
110.155 0 1
110.27 0 1
110.386 0 1
110.502 0 1
110.618 10345 101.71
110.735 11109 105.399
110.851 11439 106.953
110.967 11784 108.554
111.083 11860 108.904
111.199 12229 110.585
111.316 12165 110.295
111.432 12286 110.842
111.549 12134 110.154
111.665 11995 109.522
111.782 11687 108.106
111.898 11166 105.669
112.015 10531 102.621
112.132 9703 98.5038
112.248 8968 94.6995
112.365 9465 97.2882
112.482 10149 100.742
112.599 10454 102.245
112.716 11003 104.895
112.832 11298 106.292
112.949 11198 105.821
113.066 10907 104.437
113.183 10841 104.12
113.3 10211 101.049
113.417 9632 98.1428
113.534 8953 94.6203
113.652 8464 92
113.769 8159 90.3272
113.886 8084 89.9111
114.003 8494 92.1629
114.12 8924 94.4669
114.238 9380 96.8504
114.355 9533 97.6371
114.472 9787 98.9293
114.589 9734 98.661
114.707 9905 99.5239
114.824 9907 99.5339
114.942 9820 99.0959
115.059 9610 98.0306
115.176 9601 97.9847
115.294 9334 96.6126
115.411 8896 94.3186
115.529 8416 91.7388
115.646 7891 88.8313
115.764 7118 84.3682
115.881 7154 84.5813
115.999 7394 85.9884
116.116 8080 89.8888
116.234 8442 91.8804
116.351 8413 91.7224
116.469 8365 91.4604
116.586 8431 91.8205
116.704 8244 90.7965
116.821 7983 89.3476
116.939 7613 87.2525
117.056 7292 85.3932
117.174 6952 83.3787
117.291 6510 80.6846
117.409 6183 78.6321
117.526 6480 80.4984
117.644 6976 83.5225
117.761 7111 84.3267
117.879 7418 86.1278
117.996 7662 87.5329
118.114 7749 88.0284
118.231 7967 89.2581
118.349 8002 89.4539
118.466 8105 90.0278
118.584 8027 89.5935
118.701 8150 90.2774
118.819 8003 89.4595
118.936 7975 89.3029
119.053 7723 87.8806
119.171 7485 86.5159
119.288 6962 83.4386
119.405 6656 81.5843
119.523 6867 82.8674
119.64 7240 85.0882
119.757 7714 87.8294
119.875 8149 90.2718
119.992 8215 90.6366
120.109 8410 91.7061
120.226 8461 91.9837
120.343 8397 91.6351
120.46 8508 92.2388
120.578 8124 90.1332
120.695 7614 87.2582
120.812 7313 85.5161
120.929 7114 84.3445
121.046 7054 83.9881
121.163 6983 83.5643
121.279 7398 86.0116
121.396 7778 88.193
121.513 8474 92.0543
121.63 8631 92.9032
121.747 8839 94.016
121.863 8771 93.6536
121.98 9275 96.3068
122.097 9256 96.2081
122.213 9561 97.7804
122.33 9595 97.9541
122.446 9549 97.719
122.563 9441 97.1648
122.679 9266 96.2601
122.795 9175 95.7862
122.912 8858 94.1169
123.028 8403 91.6679
123.144 8136 90.1998
123.26 8184 90.4655
123.377 0 1
123.493 0 1
123.609 0 1
123.725 0 1
123.84 0 1
123.956 0 1
124.072 0 1
124.188 0 1
124.303 0 1
124.419 0 1
126.852 0 1
126.968 0 1
127.083 0 1
127.199 0 1
127.315 0 1
127.431 0 1
127.547 0 1
127.663 0 1
127.779 0 1
127.895 0 1
128.011 0 1
128.127 0 1
128.243 0 1
128.359 9843 99.2119
128.476 9417 97.0412
128.592 9759 98.7877
128.708 10275 101.366
128.825 11106 105.385
128.941 11449 107
129.058 11395 106.747
129.174 11571 107.569
129.291 11281 106.212
129.408 11333 106.457
129.524 10661 103.252
129.641 10074 100.369
129.758 9717 98.5748
129.875 9504 97.4885
129.992 9088 95.331
130.108 8755 93.5682
130.225 9207 95.9531
130.342 9240 96.1249
130.459 9848 99.2371
130.576 9837 99.1817
130.693 9999 99.995
130.81 10200 100.995
130.928 10192 100.955
131.045 10260 101.292
131.162 10333 101.651
131.279 10359 101.779
131.396 10006 100.03
131.513 10356 101.764
131.631 9919 99.5942
131.748 9471 97.3191
131.865 8865 94.1541
131.983 8347 91.3619
132.1 8772 93.659
132.217 9074 95.2575
132.335 9721 98.5951
132.452 9605 98.0051
132.57 9806 99.0252
132.687 9630 98.1326
132.804 9766 98.8231
132.922 9605 98.0051
133.039 9049 95.1262
133.157 8942 94.5621
133.274 8359 91.4276
133.392 7793 88.278
133.509 7621 87.2983
133.627 7334 85.6388
133.744 7497 86.5852
133.862 7788 88.2496
133.979 7867 88.6961
134.097 8036 89.6437
134.214 8231 90.7249
134.332 8160 90.3327
134.449 8311 91.1647
134.567 8223 90.6808
134.684 8321 91.2195
134.802 8257 90.868
134.919 8185 90.471
135.037 8043 89.6828
135.154 7718 87.8521
135.272 7430 86.1974
135.389 7158 84.605
135.507 6669 81.6639
135.624 6604 81.265
135.742 6932 83.2586
135.859 7151 84.5636
135.977 7317 85.5395
136.094 7622 87.3041
136.211 7408 86.0697
136.329 7483 86.5043
136.446 7388 85.9535
136.564 6903 83.0843
136.681 6526 80.7837
136.798 6468 80.4239
136.915 6250 79.0569
137.033 5989 77.3886
137.15 5750 75.8288
137.267 5844 76.4461
137.384 5896 76.7854
137.502 6128 78.2815
137.619 6203 78.7591
137.736 6385 79.9062
137.853 6357 79.7308
137.97 6477 80.4798
138.087 7060 84.0238
138.204 6956 83.4026
138.321 6999 83.66
138.438 7163 84.6345
138.555 7507 86.6429
138.672 7394 85.9884
138.788 7343 85.6913
138.905 7020 83.7854
139.022 6778 82.3286
139.139 6679 81.7251
139.255 6870 82.8855
139.372 7245 85.1176
139.488 7945 89.1347
139.605 8070 89.8332
139.721 8312 91.1702
139.838 8318 91.2031
139.954 8437 91.8531
140.071 8206 90.587
140.187 8318 91.2031
140.303 8004 89.4651
140.419 7687 87.6755
140.535 7502 86.6141
140.652 7307 85.481
140.768 0 1
140.884 0 1
141 0 1
141.115 0 1
141.231 0 1
141.347 0 1
141.463 0 1
141.578 0 1
141.694 0 1
144.104 0 1
144.219 0 1
144.335 0 1
144.45 0 1
144.566 0 1
144.682 0 1
144.798 0 1
144.914 0 1
145.03 0 1
145.146 7096 84.2378
145.262 7067 84.0655
145.378 6822 82.5954
145.494 6702 81.8657
145.61 6356 79.7245
145.726 6042 77.7303
145.842 5937 77.0519
145.959 5745 75.7958
146.075 5790 76.092
146.192 5998 77.4468
146.308 5911 76.883
146.425 5916 76.9155
146.541 5958 77.1881
146.658 5956 77.1751
146.774 6002 77.4726
146.891 6120 78.2304
147.008 6174 78.5748
147.125 6093 78.0577
147.241 6029 77.6466
147.358 6015 77.5564
147.475 5912 76.8895
147.592 5663 75.2529
147.709 5443 73.7767
147.826 5094 71.3723
147.943 5206 72.1526
148.06 5308 72.856
148.177 5587 74.7462
148.294 5705 75.5315
148.411 5839 76.4133
148.528 5659 75.2263
148.645 5531 74.3707
148.762 5516 74.2698
148.88 5336 73.0479
148.997 5407 73.5323
149.114 4790 69.2098
149.231 4846 69.6132
149.349 4586 67.72
149.466 4601 67.8307
149.583 4460 66.7832
149.701 4572 67.6166
149.818 4608 67.8823
149.935 4735 68.8113
150.053 4761 69
150.17 4846 69.6132
150.287 4868 69.7711
150.405 4959 70.4202
150.522 4890 69.9285
150.64 4938 70.2709
150.757 5188 72.0278
150.875 5138 71.6798
150.992 5183 71.9931
151.11 5214 72.208
151.227 5005 70.746
151.344 4746 68.8912
151.462 4697 68.5347
151.579 4886 69.8999
151.697 5185 72.0069
151.814 5475 73.9932
151.932 5501 74.1687
152.049 5630 75.0333
152.167 5763 75.9144
152.284 5632 75.0467
152.402 5586 74.7395
152.519 5444 73.7835
152.636 5410 73.5527
152.754 5163 71.854
152.871 5157 71.8123
152.989 5037 70.9718
153.106 4909 70.0643
153.223 4836 69.5414
153.341 4985 70.6045
153.458 5112 71.4983
153.575 5210 72.1803
153.693 5450 73.8241
153.81 5421 73.6274
153.927 5522 74.3102
154.044 5669 75.2928
154.162 5704 75.5248
154.279 6017 77.5693
154.396 6096 78.0769
154.513 6202 78.7528
154.63 6217 78.848
154.747 6207 78.7845
154.864 6157 78.4666
154.981 5826 76.3282
155.098 5904 76.8375
155.215 6068 77.8974
155.332 6294 79.3347
155.449 6684 81.7557
155.566 6778 82.3286
155.683 6844 82.7285
155.8 6933 83.2646
155.917 6779 82.3347
156.033 6726 82.0122
156.15 0 1
156.267 0 1
156.383 0 1
156.5 0 1
156.617 0 1
156.733 0 1
156.85 0 1
156.966 0 1
157.082 0 1
157.199 0 1
157.315 0 1
157.431 0 1
157.547 0 1
157.664 0 1
157.78 0 1
157.896 0 1
158.012 0 1
158.128 0 1
158.244 0 1
158.359 0 1
158.475 0 1
158.591 0 1
158.706 0 1
