
6.15755 0 1
6.2731 0 1
6.3887 0 1
6.50437 0 1
6.62009 0 1
6.73587 0 1
6.8517 0 1
6.96759 0 1
7.08353 0 1
7.19952 0 1
7.31557 0 1
7.43166 0 1
7.54781 0 1
7.664 0 1
7.78024 0 1
7.89653 0 1
8.01286 0 1
8.12924 0 1
8.24567 0 1
8.36213 0 1
8.47864 0 1
8.59519 0 1
8.71178 0 1
8.82841 0 1
8.94508 0 1
9.06179 0 1
9.17853 0 1
9.29531 0 1
9.41212 0 1
9.52897 0 1
9.64584 0 1
9.76276 0 1
9.8797 0 1
9.99667 0 1
10.1137 0 1
10.2307 0 1
10.3478 0 1
10.4648 0 1
10.5819 0 1
10.6991 0 1
10.8162 0 1
10.9334 0 1
11.0506 0 1
11.1678 0 1
11.285 0 1
11.4023 0 1
11.5196 0 1
11.6369 0 1
11.7542 0 1
11.8715 0 1
11.9888 0 1
12.1062 0 1
12.2235 0 1
12.3409 0 1
12.4582 0 1
12.5756 0 1
12.693 0 1
12.8104 0 1
12.9278 0 1
13.0452 0 1
13.1626 0 1
13.28 0 1
13.3974 0 1
13.5149 0 1
13.6323 0 1
13.7497 0 1
13.8671 0 1
13.9845 0 1
14.1019 0 1
14.2193 0 1
14.3367 0 1
14.4541 0 1
14.5714 0 1
14.6888 0 1
14.8062 0 1
14.9235 0 1
15.0408 0 0
15.1581 0 0
15.2755 0 0
15.3927 0 0
15.51 0 0
15.6273 0 0
15.7445 0 0
15.8617 0 0
15.9789 0 0
16.0961 0 0
16.2132 0 0
16.3304 0 0
16.4475 0 0
16.5646 0 0
16.6816 0 0
16.7986 0 0
16.9156 0 0
17.0326 0 0
17.1496 0 0
17.2665 0 0
17.3833 0 0
17.5002 0 0
17.617 0 0
17.7338 0 0
17.8505 0 0
17.9672 0 0
18.0839 0 0
18.2005 0 0
18.3171 0 0
18.4337 0 0
18.5502 0 0
18.6666 0 0
18.7831 0 0
18.8994 0 0
19.0158 0 0
19.1321 0 0
19.2483 0 0
19.3645 0 0
19.4806 0 0
19.5967 0 0
19.7128 0 0
19.8288 0 0
19.9447 0 0
20.0606 0 1
20.1764 0 1
20.2922 0 1
20.4079 0 1
20.5236 0 1
20.6392 0 1
20.7548 0 1
20.8702 0 1
23.3078 0 1
23.4233 0 1
23.539 0 1
23.6547 0 1
23.7704 0 1
23.8862 0 1
24.0021 0 1
24.118 0 1
24.234 0 1
24.35 0 1
24.4661 10298 101.479
24.5822 10551 102.718
24.6984 10484 102.391
24.8146 10285 101.415
24.9309 10288 101.43
25.0472 10136 100.678
25.1636 10270 101.341
25.28 10079 100.394
25.3965 10364 101.804
25.513 10274 101.361
25.6296 10786 103.856
25.7462 10989 104.828
25.8628 11200 105.83
25.9795 11292 106.264
26.0962 11295 106.278
26.213 11722 108.268
26.3298 11385 106.701
26.4466 11495 107.215
26.5635 11289 106.25
26.6804 10883 104.322
26.7973 10616 103.034
26.9143 10795 103.899
27.0313 10947 104.628
27.1483 11381 106.682
27.2653 11615 107.773
27.3824 11594 107.675
27.4996 11778 108.526
27.6167 11602 107.713
27.7339 11692 108.13
27.8511 11531 107.382
27.9683 11194 105.802
28.0855 10851 104.168
28.2028 10716 103.518
28.3201 10768 103.769
28.4374 10425 102.103
28.5547 10033 100.165
28.6721 9972 99.8599
28.7894 9647 98.2191
28.9068 9694 98.4581
29.0242 9852 99.2572
29.1416 9935 99.6745
29.259 10107 100.534
29.3764 10231 101.148
29.4939 10429 102.122
29.6113 10518 102.557
29.7288 10739 103.629
29.8463 10708 103.479
29.9638 10920 104.499
30.0812 10659 103.242
30.1987 10418 102.069
30.3162 10149 100.742
30.4337 10101 100.504
30.5512 10502 102.479
30.6687 10764 103.75
30.7862 11006 104.909
30.9037 11402 106.78
31.0212 11524 107.35
31.1387 11819 108.715
31.2562 11567 107.55
31.3737 11240 106.019
31.4912 11135 105.523
31.6087 11063 105.181
31.7262 10905 104.427
31.8436 10557 102.747
31.9611 10392 101.941
32.0785 10108 100.539
32.1959 9867 99.3328
32.3134 9787 98.9293
32.4308 9726 98.6205
32.5482 9621 98.0867
32.6655 9798 98.9848
32.7829 9813 99.0606
32.9002 10138 100.688
33.0176 10261 101.297
33.1349 10423 102.093
33.2522 10289 101.435
33.3694 10766 103.759
33.4867 10702 103.45
33.6039 10969 104.733
33.7211 10746 103.663
33.8383 10495 102.445
33.9554 10307 101.523
34.0725 10171 100.851
34.1896 10301 101.494
34.3067 10727 103.571
34.4237 11156 105.622
34.5407 11180 105.736
34.6577 11540 107.424
34.7746 11458 107.042
34.8915 11266 106.141
35.0084 11408 106.808
35.1252 11132 105.508
35.242 10999 104.876
35.3587 10784 103.846
35.4755 10768 103.769
35.5921 10472 102.333
35.7088 10281 101.395
35.8254 10104 100.519
35.9419 9599 97.9745
36.0584 9673 98.3514
36.1749 9436 97.1391
36.2913 9271 96.286
36.4077 9398 96.9433
36.524 9841 99.2018
36.6403 9753 98.7573
36.7565 10149 100.742
36.8727 10283 101.405
36.9889 10446 102.206
37.1049 10390 101.931
37.221 0 1
37.3369 0 1
37.4529 0 1
37.5687 0 1
37.6845 0 1
37.8003 0 1
37.916 0 1
38.0316 0 1
38.1472 0 1
40.5851 0 1
40.7008 0 1
40.8164 0 1
40.9322 0 1
41.048 0 1
41.1639 0 1
41.2798 0 1
41.3958 0 1
41.5118 0 1
41.6279 0 1
41.744 7733 87.9375
41.8602 8271 90.945
41.9765 8720 93.3809
42.0928 8753 93.5575
42.2091 9008 94.9105
42.3255 9365 96.7729
42.4419 9416 97.0361
42.5584 9152 95.6661
42.675 8942 94.5621
42.7915 8532 92.3688
42.9081 8712 93.3381
43.0248 9210 95.9687
43.1415 9196 95.8958
43.2582 9569 97.8213
43.375 9672 98.3463
43.4918 9738 98.6813
43.6087 9689 98.4327
43.7256 9816 99.0757
43.8425 9768 98.8332
43.9595 9313 96.5039
44.0765 9257 96.2133
44.1935 9162 95.7183
44.3106 8937 94.5357
44.4277 8603 92.7524
44.5448 8249 90.824
44.6619 7930 89.0505
44.7791 7448 86.3018
44.8963 7403 86.0407
45.0136 7344 85.6971
45.1308 7136 84.4748
45.2481 7264 85.2291
45.3654 7182 84.7467
45.4827 7654 87.4871
45.6001 7431 86.2032
45.7174 7665 87.55
45.8348 7694 87.7154
45.9522 7854 88.6228
46.0697 7892 88.8369
46.1871 7604 87.2009
46.3046 7222 84.9824
46.422 7144 84.5222
46.5395 7317 85.5395
46.657 7415 86.1104
46.7745 7515 86.6891
46.892 7854 88.6228
47.0096 7984 89.3532
47.1271 7831 88.4929
47.2446 7818 88.4195
47.3622 7615 87.264
47.4797 7579 87.0575
47.5973 7418 86.1278
47.7149 7221 84.9765
47.8324 7028 83.8332
47.95 6690 81.7924
48.0675 6657 81.5904
48.1851 6191 78.6829
48.3027 5993 77.4145
48.4202 5591 74.773
48.5378 5416 73.5935
48.6554 5501 74.1687
48.7729 5394 73.4439
48.8904 5691 75.4387
49.008 5888 76.7333
49.1255 6251 79.0633
49.243 6241 79
49.3605 6232 78.943
49.478 6327 79.5424
49.5955 6244 79.019
49.713 6144 78.3837
49.8304 6060 77.846
49.9479 6027 77.6338
50.0653 6187 78.6575
50.1827 6518 80.7341
50.3001 7100 84.2615
50.4175 7240 85.0882
50.5348 7714 87.8294
50.6521 7856 88.6341
50.7694 8037 89.6493
50.8867 8013 89.5154
51.004 8218 90.6532
51.1212 8177 90.4268
51.2384 8229 90.7138
51.3556 8241 90.78
51.4727 8041 89.6716
51.5899 7867 88.6961
51.707 7794 88.2836
51.824 7350 85.7321
51.9411 7286 85.3581
52.0581 7156 84.5931
52.175 7350 85.7321
52.2919 7519 86.7122
52.4088 7965 89.2468
52.5257 8430 91.815
52.6425 8637 92.9355
52.7593 8589 92.6769
52.876 8979 94.7576
52.9927 9239 96.1197
53.1094 9400 96.9536
53.226 9417 97.0412
53.3426 9323 96.5557
53.4591 8894 94.308
53.5756 8888 94.2762
53.692 9551 97.7292
53.8084 10193 100.96
53.9248 10470 102.323
54.0411 11000 104.881
54.1573 11569 107.559
54.2735 0 1
54.3896 0 1
54.5057 0 1
54.6217 0 1
54.7377 0 1
54.8537 0 1
54.9695 0 1
55.0853 0 1
55.2011 0 1
55.3168 0 1
55.4324 0 1
57.824 0 1
57.9396 0 1
58.0553 0 1
58.1711 0 1
58.2869 0 1
58.4028 0 1
58.5187 0 1
58.6347 0 1
58.7508 0 1
58.8669 0 1
58.983 12438 111.526
59.0992 13201 114.896
59.2155 14086 118.684
59.3318 14655 121.058
59.4482 14681 121.165
59.5646 14899 122.061
59.681 14691 121.206
59.7975 14815 121.717
59.9141 14370 119.875
60.0306 13459 116.013
60.1473 13163 114.73
60.2639 12674 112.579
60.3807 12105 110.023
60.4974 11185 105.759
60.6142 10829 104.062
60.731 10438 102.167
60.8479 10384 101.902
60.9648 10658 103.238
61.0818 11049 105.114
61.1987 11212 105.887
61.3158 11596 107.685
61.4328 11795 108.605
61.5499 11607 107.736
61.667 11663 107.995
61.7841 11394 106.743
61.9013 11172 105.698
62.0185 10691 103.397
62.1357 10602 102.966
62.253 10948 104.633
62.3702 11362 106.593
62.4875 11881 109
62.6049 12520 111.893
62.7222 12617 112.325
62.8396 12925 113.688
62.9569 12985 113.952
63.0743 12963 113.855
63.1918 12942 113.763
63.3092 12564 112.089
63.4267 12264 110.743
63.5441 12096 109.982
63.6616 11293 106.269
63.7791 10678 103.334
63.8966 10068 100.339
64.0142 9763 98.8079
64.1317 8955 94.6309
64.2492 8673 93.1289
64.3668 8563 92.5365
64.4843 8870 94.1807
64.6019 9344 96.6644
64.7195 9702 98.4987
64.837 10121 100.603
64.9546 10247 101.227
65.0722 10483 102.387
65.1898 10378 101.872
65.3074 10487 102.406
65.4249 10089 100.444
65.5425 9731 98.6458
65.6601 9604 98
65.7777 9729 98.6357
65.8952 10246 101.223
66.0128 10886 104.336
66.1304 11652 107.944
66.2479 12107 110.032
66.3655 12677 112.592
66.483 12714 112.756
66.6005 12875 113.468
66.718 12916 113.649
66.8355 12910 113.622
66.953 12437 111.521
67.0705 12164 110.291
67.1879 11548 107.462
67.3054 10896 104.384
67.4228 10539 102.66
67.5402 10031 100.155
67.6576 9296 96.4158
67.7749 8915 94.4193
67.8923 8749 93.5361
68.0096 8905 94.3663
68.1269 9425 97.0824
68.2442 10362 101.794
68.3614 10785 103.851
68.4787 11123 105.466
68.5958 11213 105.891
68.713 11429 106.907
68.8302 11496 107.219
68.9473 11316 106.377
69.0643 11186 105.764
69.1814 10658 103.238
69.2984 10521 102.572
69.4154 10709 103.484
69.5323 11190 105.783
69.6492 12282 110.824
69.7661 12974 113.903
69.8829 13852 117.695
69.9997 14233 119.302
70.1165 14368 119.867
70.2332 14579 120.744
70.3499 14476 120.316
70.4665 14099 118.739
70.5831 13997 118.309
70.6996 13386 115.698
70.8161 12685 112.628
70.9326 12316 110.977
71.049 11519 107.327
71.1653 10880 104.307
71.2817 10294 101.459
71.3979 9527 97.6064
71.5141 9161 95.7131
71.6303 8934 94.5198
71.7464 8484 92.1086
71.8624 0 1
71.9784 0 1
72.0944 0 1
72.2102 0 1
72.3261 0 1
72.4418 0 1
72.5575 0 1
72.6732 0 1
75.1054 0 1
75.2209 0 1
75.3365 0 1
75.4521 0 1
75.5678 0 1
75.6835 0 1
75.7993 0 1
75.9151 0 1
76.031 0 1
76.147 11110 105.404
76.263 11666 108.009
76.3791 11475 107.121
76.4952 11086 105.29
76.6113 10478 102.362
76.7276 9909 99.544
76.8438 9631 98.1377
76.9601 9241 96.1301
77.0765 9493 97.432
77.1929 9945 99.7246
77.3093 11107 105.39
77.4258 11985 109.476
77.5423 12216 110.526
77.6589 11946 109.298
77.7755 11851 108.862
77.8921 11804 108.646
78.0088 11544 107.443
78.1256 10953 104.657
78.2423 10467 102.308
78.3591 10200 100.995
78.4759 10176 100.876
78.5928 11022 104.986
78.7097 12011 109.595
78.8266 12668 112.552
78.9436 13725 117.154
79.0606 13740 117.218
79.1776 13784 117.405
79.2946 13818 117.55
79.4117 13974 118.212
79.5288 13971 118.199
79.6459 13485 116.125
79.7631 12717 112.77
79.8802 12043 109.741
79.9974 11406 106.799
80.1147 11025 105
80.2319 10316 101.568
80.3491 9455 97.2368
80.4664 8910 94.3928
80.5837 8834 93.9894
80.701 8885 94.2603
80.8183 9586 97.9081
80.9357 10197 100.98
81.053 10856 104.192
81.1704 10956 104.671
81.2877 10748 103.673
81.4051 10603 102.971
81.5225 10641 103.155
81.6399 10473 102.338
81.7573 10260 101.292
81.8747 9578 97.8673
81.9922 9290 96.3846
82.1096 9381 96.8556
82.227 9772 98.8534
82.3444 10741 103.639
82.4619 11558 107.508
82.5793 12018 109.627
82.6967 12079 109.905
82.8142 12313 110.964
82.9316 12352 111.14
83.049 12091 109.959
83.1664 11931 109.229
83.2838 11642 107.898
83.4012 10758 103.721
83.5186 10360 101.784
83.636 9867 99.3328
83.7534 9551 97.7292
83.8708 8825 93.9415
83.9881 8179 90.4378
84.1055 7665 87.55
84.2228 7796 88.295
84.3401 8000 89.4427
84.4575 8414 91.7279
84.5747 9246 96.1561
84.692 10004 100.02
84.8093 10322 101.597
84.9265 9941 99.7046
85.0437 9997 99.985
85.1609 9820 99.0959
85.2781 9659 98.2802
85.3952 9150 95.6556
85.5123 8881 94.2391
85.6294 8641 92.957
85.7465 9322 96.5505
85.8636 10220 101.094
85.9806 11086 105.29
86.0976 11780 108.536
86.2145 12542 111.991
86.3315 12844 113.331
86.4484 13618 116.696
86.5652 13263 115.165
86.682 13410 115.802
86.7988 13215 114.957
86.9156 12486 111.741
87.0323 12266 110.752
87.149 11600 107.703
87.2657 11395 106.747
87.3823 10961 104.695
87.4988 10129 100.643
87.6154 9555 97.7497
87.7318 9336 96.623
87.8483 9582 97.8877
87.9647 10117 100.583
88.081 11124 105.47
88.1973 12100 110
88.3136 12730 112.827
88.4298 12380 111.265
88.546 12348 111.122
88.6621 12229 110.585
88.7781 11870 108.95
88.8942 0 1
89.0101 0 1
89.126 0 1
89.2419 0 1
89.3577 0 1
89.4734 0 1
89.5891 0 1
89.7047 0 1
89.8203 0 1
89.9358 0 1
92.3269 0 1
92.4424 0 1
92.558 0 1
92.6736 0 1
92.7893 0 1
92.905 0 1
93.0208 0 1
93.1366 0 1
93.2525 0 1
93.3685 0 1
93.4845 0 1
93.6005 11519 107.327
93.7167 12052 109.782
93.8328 12224 110.562
93.949 12181 110.368
94.0653 11901 109.092
94.1816 11695 108.143
94.2979 11592 107.666
94.4143 10991 104.838
94.5307 10856 104.192
94.6472 10674 103.315
94.7637 10796 103.904
94.8803 11496 107.219
94.9969 12347 111.117
95.1135 13116 114.525
95.2302 14042 118.499
95.3469 14496 120.399
95.4637 14840 121.82
95.5805 14954 122.287
95.6973 15024 122.572
95.8142 15024 122.572
95.9311 14649 121.033
96.048 14187 119.109
96.1649 13635 116.769
96.2819 12916 113.649
96.3989 12525 111.915
96.516 11807 108.66
96.633 11150 105.594
96.7501 10477 102.357
96.8673 9839 99.1917
96.9844 10020 100.1
97.1016 10408 102.02
97.2188 11037 105.057
97.336 11825 108.743
97.4532 12522 111.902
97.5704 12524 111.911
97.6877 12514 111.866
97.805 12020 109.636
97.9223 11590 107.657
98.0396 11060 105.167
98.1569 10683 103.359
98.2743 10306 101.518
98.3916 10574 102.83
98.509 11284 106.226
98.6264 12006 109.572
98.7438 13125 114.564
98.8612 13454 115.991
98.9786 14208 119.197
99.096 14844 121.836
99.2134 15048 122.67
99.3308 15016 122.54
99.4482 14880 121.984
99.5656 14451 120.212
99.6831 14115 118.807
99.8005 13379 115.668
99.9179 13026 114.132
100.035 12320 110.995
100.153 11936 109.252
100.27 10980 104.785
100.388 10344 101.705
100.505 10233 101.158
100.622 10448 102.215
100.74 11182 105.745
100.857 12030 109.681
100.975 13026 114.132
101.092 12928 113.701
101.209 12736 112.854
101.327 12289 110.856
101.444 12195 110.431
101.561 12070 109.864
101.679 11519 107.327
101.796 11276 106.189
101.913 11259 106.108
102.03 11485 107.168
102.148 12467 111.656
102.265 14518 120.491
102.382 13606 116.645
102.499 15465 124.358
102.616 15721 125.383
102.733 16106 126.909
102.851 16421 128.144
102.968 16231 127.401
103.085 15926 126.198
103.202 15342 123.863
103.319 14700 121.244
103.436 14194 119.139
103.552 13669 116.914
103.669 13162 114.726
103.786 12205 110.476
103.903 11353 106.55
104.02 11571 107.569
104.137 11695 108.143
104.253 12627 112.37
104.37 12998 114.009
104.487 14330 119.708
104.603 14419 120.079
104.72 14045 118.512
104.836 13724 117.149
104.953 13549 116.4
105.069 13071 114.328
105.186 12951 113.802
105.302 12646 112.454
105.418 12661 112.521
105.535 13345 115.521
105.651 14408 120.033
105.767 15475 124.399
105.883 16925 130.096
105.999 17307 131.556
106.115 0 1
106.231 0 1
106.347 0 1
106.463 0 1
106.579 0 1
106.694 0 1
106.81 0 1
106.926 0 1
107.041 0 1
107.157 0 1
109.576 0 1
109.692 0 1
109.807 0 1
109.923 0 1
110.039 0 1
110.155 0 1
110.27 0 1
110.386 0 1
110.502 0 1
110.618 12604 112.268
110.735 14069 118.613
110.851 15528 124.611
110.967 16434 128.195
111.083 16920 130.077
111.199 16988 130.338
111.316 17359 131.754
111.432 17492 132.257
111.549 17386 131.856
111.665 16951 130.196
111.782 16240 127.436
111.898 15597 124.888
112.015 15198 123.28
112.132 14429 120.121
112.248 13500 116.19
112.365 12718 112.774
112.482 12406 111.382
112.599 12020 109.636
112.716 12486 111.741
112.832 13109 114.495
112.949 13659 116.872
113.066 14349 119.787
113.183 13779 117.384
113.3 13604 116.636
113.417 13468 116.052
113.534 13065 114.302
113.652 12694 112.668
113.769 12240 110.635
113.886 12281 110.82
114.003 12035 109.704
114.12 12931 113.715
114.238 14112 118.794
114.355 15129 123
114.472 16859 129.842
114.589 15431 124.222
114.707 16623 128.93
114.824 16765 129.48
114.942 17070 130.652
115.059 17115 130.824
115.176 17139 130.916
115.294 16288 127.624
115.411 16016 126.554
115.529 15467 124.366
115.646 14871 121.947
115.764 14149 118.95
115.881 13291 115.287
115.999 12859 113.398
116.116 12455 111.602
116.234 12807 113.168
116.351 13099 114.451
116.469 13839 117.639
116.586 14432 120.133
116.704 14122 118.836
116.821 14277 119.486
116.939 13810 117.516
117.056 13705 117.068
117.174 13763 117.316
117.291 13084 114.385
117.409 12909 113.618
117.526 12935 113.732
117.644 13311 115.373
117.761 14426 120.108
117.879 15557 124.728
117.996 16176 127.185
118.114 16857 129.835
118.231 17359 131.754
118.349 17542 132.446
118.466 17462 132.144
118.584 17722 133.124
118.701 17777 133.33
118.819 17237 131.29
118.936 16666 129.097
119.053 16129 127
119.171 15747 125.487
119.288 15403 124.109
119.405 14426 120.108
119.523 13689 117
119.64 13100 114.455
119.757 12970 113.886
119.875 13064 114.298
119.992 13292 115.291
120.109 14199 119.16
120.226 14390 119.958
120.343 14239 119.327
120.46 14189 119.118
120.578 14221 119.252
120.695 13969 118.191
120.812 13723 117.145
120.929 13656 116.859
121.046 13368 115.62
121.163 13313 115.382
121.279 13695 117.026
121.396 14139 118.908
121.513 15299 123.689
121.63 15919 126.171
121.747 17005 130.403
121.863 17243 131.313
121.98 17494 132.265
122.097 17640 132.816
122.213 17301 131.533
122.33 17470 132.174
122.446 17349 131.716
122.563 17219 131.221
122.679 16423 128.152
122.795 16065 126.748
122.912 15436 124.242
123.028 15092 122.85
123.144 14288 119.532
123.26 13628 116.739
123.377 0 1
123.493 0 1
123.609 0 1
123.725 0 1
123.84 0 1
123.956 0 1
124.072 0 1
124.188 0 1
124.303 0 1
124.419 0 1
126.852 0 1
126.968 0 1
127.083 0 1
127.199 0 1
127.315 0 1
127.431 0 1
127.547 0 1
127.663 0 1
127.779 0 1
127.895 0 1
128.011 0 1
128.127 0 1
128.243 0 1
128.359 16172 127.169
128.476 15678 125.212
128.592 14821 121.742
128.708 14907 122.094
128.825 15037 122.625
128.941 15612 124.948
129.058 16254 127.491
129.174 16505 128.472
129.291 16263 127.526
129.408 16180 127.201
129.524 15941 126.258
129.641 15707 125.328
129.758 15545 124.68
129.875 15291 123.657
129.992 14967 122.34
130.108 15002 122.483
130.225 15183 123.219
130.342 15929 126.21
130.459 16522 128.538
130.576 18092 134.507
130.693 18010 134.201
130.81 18456 135.853
130.928 18800 137.113
131.045 19239 138.705
131.162 18772 137.011
131.279 19021 137.917
131.396 19072 138.101
131.513 18694 136.726
131.631 18689 136.708
131.748 18176 134.818
131.865 17874 133.694
131.983 16873 129.896
132.1 16295 127.652
132.217 16066 126.752
132.335 16443 128.23
132.452 16962 130.238
132.57 17785 133.36
132.687 17545 132.458
132.804 18649 136.561
132.922 18294 135.255
133.039 18086 134.484
133.157 17918 133.858
133.274 17527 132.39
133.392 17027 130.488
133.509 16731 129.348
133.627 16421 128.144
133.744 16754 129.437
133.862 17344 131.697
133.979 18604 136.396
134.097 19187 138.517
134.214 19905 141.085
134.332 20023 141.503
134.449 20117 141.834
134.567 20704 143.889
134.684 20608 143.555
134.802 20821 144.295
134.919 20885 144.516
135.037 20848 144.388
135.154 20349 142.65
135.272 19818 140.776
135.389 19468 139.528
135.507 18839 137.255
135.624 17756 133.252
135.742 17206 131.172
135.859 17582 132.597
135.977 17988 134.119
136.094 18562 136.242
136.211 18973 137.743
136.329 18972 137.739
136.446 19043 137.996
136.564 18912 137.521
136.681 18765 136.985
136.798 18612 136.426
136.915 18094 134.514
137.033 17688 132.996
137.15 17149 130.954
137.267 17017 130.449
137.384 17025 130.48
137.502 17503 132.299
137.619 18297 135.266
137.736 19174 138.47
137.853 19381 139.216
137.97 20312 142.52
138.087 19757 140.56
138.204 20360 142.688
138.321 20692 143.847
138.438 21069 145.152
138.555 21224 145.685
138.672 20977 144.834
138.788 20844 144.375
138.905 20252 142.31
139.022 20035 141.545
139.139 19290 138.888
139.255 18205 134.926
139.372 18046 134.335
139.488 18012 134.209
139.605 19049 138.018
139.721 19114 138.253
139.838 19717 140.417
139.954 19861 140.929
140.071 19539 139.782
140.187 19561 139.861
140.303 19379 139.208
140.419 18765 136.985
140.535 18072 134.432
140.652 17550 132.476
140.768 0 1
140.884 0 1
141 0 1
141.115 0 1
141.231 0 1
141.347 0 1
141.463 0 1
141.578 0 1
141.694 0 1
144.104 0 1
144.219 0 1
144.335 0 1
144.45 0 1
144.566 0 1
144.682 0 1
144.798 0 1
144.914 0 1
145.03 0 1
145.146 38739 196.822
145.262 41698 204.201
145.378 42532 206.233
145.494 42683 206.599
145.61 42232 205.504
145.726 42300 205.67
145.842 42359 205.813
145.959 42594 206.383
146.075 44461 210.858
146.192 47443 217.814
146.308 51091 226.033
146.425 53187 230.623
146.541 55373 235.315
146.658 57486 239.762
146.774 59461 243.846
146.891 60864 246.706
147.008 62313 249.626
147.125 64831 254.619
147.241 65026 255.002
147.358 64869 254.694
147.475 64917 254.788
147.592 63339 251.672
147.709 61102 247.188
147.826 59706 244.348
147.943 57743 240.298
148.06 56956 238.655
148.177 59861 244.665
148.294 63146 251.289
148.411 66357 257.599
148.528 67089 259.015
148.645 66838 258.53
148.762 67048 258.936
148.88 66740 258.341
148.997 64262 253.5
149.114 65143 255.231
149.231 61459 247.909
149.349 59139 243.185
149.466 55906 236.444
149.583 54850 234.201
149.701 54386 233.208
149.818 56418 237.525
149.935 58214 241.276
150.053 59762 244.463
150.17 60431 245.827
150.287 61685 248.365
150.405 62736 250.472
150.522 63830 252.646
150.64 64360 253.693
150.757 65356 255.648
150.875 66240 257.371
150.992 64543 254.053
151.11 63802 252.591
151.227 62390 249.78
151.344 59938 244.822
151.462 56449 237.59
151.579 55808 236.237
151.697 56441 237.573
151.814 58345 241.547
151.932 61443 247.877
152.049 64520 254.008
152.167 64687 254.336
152.284 65882 256.675
152.402 64901 254.757
152.519 65051 255.051
152.636 62870 250.739
152.754 60573 246.116
152.871 58386 241.632
152.989 56767 238.258
153.106 54632 233.735
153.223 53294 230.855
153.341 54091 232.575
153.458 55640 235.881
153.575 57081 238.916
153.693 58598 242.07
153.81 59796 244.532
153.927 60652 246.276
154.044 62251 249.502
154.162 62306 249.612
154.279 63983 252.949
154.396 65533 255.994
154.513 65507 255.943
154.63 64848 254.653
154.747 64641 254.246
154.864 62751 250.501
154.981 60781 246.538
155.098 58699 242.279
155.215 56746 238.214
155.332 57749 240.31
155.449 59983 244.914
155.566 63066 251.129
155.683 64586 254.138
155.8 64885 254.725
155.917 64535 254.037
156.033 64617 254.199
156.15 0 1
156.267 0 1
156.383 0 1
156.5 0 1
156.617 0 1
156.733 0 1
156.85 0 1
156.966 0 1
157.082 0 1
157.199 0 1
157.315 0 1
157.431 0 1
157.547 0 1
157.664 0 1
157.78 0 1
157.896 0 1
158.012 0 1
158.128 0 1
158.244 0 1
158.359 0 1
158.475 0 1
158.591 0 1
158.706 0 1
