
6.15755 0 1
6.2731 0 1
6.3887 0 1
6.50437 0 1
6.62009 0 1
6.73587 0 1
6.8517 0 1
6.96759 0 1
7.08353 0 1
7.19952 0 1
7.31557 0 1
7.43166 0 1
7.54781 0 1
7.664 0 1
7.78024 0 1
7.89653 0 1
8.01286 0 1
8.12924 0 1
8.24567 0 1
8.36213 0 1
8.47864 0 1
8.59519 0 1
8.71178 0 1
8.82841 0 1
8.94508 0 1
9.06179 0 1
9.17853 0 1
9.29531 0 1
9.41212 0 1
9.52897 0 1
9.64584 0 1
9.76276 0 1
9.8797 0 1
9.99667 0 1
10.1137 0 1
10.2307 0 1
10.3478 0 1
10.4648 0 1
10.5819 0 1
10.6991 0 1
10.8162 0 1
10.9334 0 1
11.0506 0 1
11.1678 0 1
11.285 0 1
11.4023 0 1
11.5196 0 1
11.6369 0 1
11.7542 0 1
11.8715 0 1
11.9888 0 1
12.1062 0 1
12.2235 0 1
12.3409 0 1
12.4582 0 1
12.5756 0 1
12.693 0 1
12.8104 0 1
12.9278 0 1
13.0452 0 1
13.1626 0 1
13.28 0 1
13.3974 0 1
13.5149 0 1
13.6323 0 1
13.7497 0 1
13.8671 0 1
13.9845 0 1
14.1019 0 1
14.2193 0 1
14.3367 0 1
14.4541 0 1
14.5714 0 1
14.6888 0 1
14.8062 0 1
14.9235 0 1
15.0408 968 31.1127
15.1581 1072 32.7414
15.2755 1033 32.1403
15.3927 1088 32.9848
15.51 1101 33.1813
15.6273 1062 32.5883
15.7445 943 30.7083
15.8617 960 30.9839
15.9789 983 31.3528
16.0961 949 30.8058
16.2132 933 30.545
16.3304 986 31.4006
16.4475 938 30.6268
16.5646 906 30.0998
16.6816 908 30.133
16.7986 900 30
16.9156 881 29.6816
17.0326 875 29.5804
17.1496 888 29.7993
17.2665 911 30.1828
17.3833 870 29.4958
17.5002 859 29.3087
17.617 847 29.1033
17.7338 865 29.4109
17.8505 840 28.9828
17.9672 879 29.6479
18.0839 857 29.2746
18.2005 814 28.5307
18.3171 865 29.4109
18.4337 848 29.1204
18.5502 938 30.6268
18.6666 901 30.0167
18.7831 902 30.0333
18.8994 918 30.2985
19.0158 849 29.1376
19.1321 877 29.6142
19.2483 825 28.7228
19.3645 726 26.9444
19.4806 698 26.4197
19.5967 692 26.3059
19.7128 660 25.6905
19.8288 632 25.1396
19.9447 564 23.7487
20.0606 0 1
20.1764 0 1
20.2922 0 1
20.4079 0 1
20.5236 0 1
20.6392 0 1
20.7548 0 1
20.8702 0 1
23.3078 0 1
23.4233 0 1
23.539 0 1
23.6547 0 1
23.7704 0 1
23.8862 0 1
24.0021 0 1
24.118 0 1
24.234 0 1
24.35 0 1
24.4661 314 17.72
24.5822 403 20.0749
24.6984 466 21.587
24.8146 622 24.9399
24.9309 677 26.0192
25.0472 764 27.6405
25.1636 837 28.931
25.28 875 29.5804
25.3965 911 30.1828
25.513 951 30.8383
25.6296 970 31.1448
25.7462 973 31.1929
25.8628 961 31
25.9795 979 31.289
26.0962 908 30.133
26.213 984 31.3688
26.3298 908 30.133
26.4466 837 28.931
26.5635 756 27.4955
26.6804 813 28.5132
26.7973 749 27.3679
26.9143 743 27.258
27.0313 751 27.4044
27.1483 775 27.8388
27.2653 801 28.3019
27.3824 846 29.0861
27.4996 778 27.8927
27.6167 813 28.5132
27.7339 842 29.0172
27.8511 847 29.1033
27.9683 833 28.8617
28.0855 818 28.6007
28.2028 836 28.9137
28.3201 802 28.3196
28.4374 839 28.9655
28.5547 856 29.2575
28.6721 921 30.348
28.7894 869 29.4788
28.9068 879 29.6479
29.0242 877 29.6142
29.1416 872 29.5296
29.259 849 29.1376
29.3764 835 28.8964
29.4939 852 29.189
29.6113 814 28.5307
29.7288 810 28.4605
29.8463 721 26.8514
29.9638 699 26.4386
30.0812 723 26.8887
30.1987 694 26.3439
30.3162 681 26.096
30.4337 728 26.9815
30.5512 756 27.4955
30.6687 770 27.7489
30.7862 754 27.4591
30.9037 868 29.4618
31.0212 825 28.7228
31.1387 899 29.9833
31.2562 900 30
31.3737 842 29.0172
31.4912 902 30.0333
31.6087 841 29
31.7262 821 28.6531
31.8436 799 28.2666
31.9611 827 28.7576
32.0785 842 29.0172
32.1959 855 29.2404
32.3134 821 28.6531
32.4308 790 28.1069
32.5482 763 27.6225
32.6655 767 27.6948
32.7829 741 27.2213
32.9002 727 26.9629
33.0176 717 26.7769
33.1349 739 27.1846
33.2522 784 28
33.3694 701 26.4764
33.4867 691 26.2869
33.6039 665 25.7876
33.7211 658 25.6515
33.8383 644 25.3772
33.9554 701 26.4764
34.0725 676 26
34.1896 699 26.4386
34.3067 796 28.2135
34.4237 777 27.8747
34.5407 740 27.2029
34.6577 743 27.258
34.7746 820 28.6356
34.8915 810 28.4605
35.0084 768 27.7128
35.1252 751 27.4044
35.242 750 27.3861
35.3587 755 27.4773
35.4755 723 26.8887
35.5921 778 27.8927
35.7088 713 26.7021
35.8254 724 26.9072
35.9419 767 27.6948
36.0584 718 26.7955
36.1749 705 26.5518
36.2913 648 25.4558
36.4077 646 25.4165
36.524 641 25.318
36.6403 568 23.8328
36.7565 592 24.3311
36.8727 514 22.6716
36.9889 479 21.8861
37.1049 428 20.6882
37.221 0 1
37.3369 0 1
37.4529 0 1
37.5687 0 1
37.6845 0 1
37.8003 0 1
37.916 0 1
38.0316 0 1
38.1472 0 1
40.5851 0 1
40.7008 0 1
40.8164 0 1
40.9322 0 1
41.048 0 1
41.1639 0 1
41.2798 0 1
41.3958 0 1
41.5118 0 1
41.6279 0 1
41.744 356 18.868
41.8602 362 19.0263
41.9765 495 22.2486
42.0928 461 21.4709
42.2091 481 21.9317
42.3255 515 22.6936
42.4419 513 22.6495
42.5584 536 23.1517
42.675 528 22.9783
42.7915 529 23
42.9081 520 22.8035
43.0248 559 23.6432
43.1415 572 23.9165
43.2582 536 23.1517
43.375 522 22.8473
43.4918 608 24.6577
43.6087 556 23.5797
43.7256 590 24.2899
43.8425 559 23.6432
43.9595 595 24.3926
44.0765 571 23.8956
44.1935 541 23.2594
44.3106 567 23.8118
44.4277 595 24.3926
44.5448 597 24.4336
44.6619 604 24.5764
44.7791 573 23.9374
44.8963 582 24.1247
45.0136 578 24.0416
45.1308 580 24.0832
45.2481 602 24.5357
45.3654 606 24.6171
45.4827 593 24.3516
45.6001 586 24.2074
45.7174 595 24.3926
45.8348 589 24.2693
45.9522 522 22.8473
46.0697 492 22.1811
46.1871 546 23.3666
46.3046 516 22.7156
46.422 546 23.3666
46.5395 524 22.891
46.657 575 23.9792
46.7745 521 22.8254
46.892 518 22.7596
47.0096 586 24.2074
47.1271 559 23.6432
47.2446 609 24.6779
47.3622 608 24.6577
47.4797 563 23.7276
47.5973 593 24.3516
47.7149 567 23.8118
47.8324 553 23.516
47.95 539 23.2164
48.0675 535 23.1301
48.1851 572 23.9165
48.3027 534 23.1084
48.4202 560 23.6643
48.5378 593 24.3516
48.6554 564 23.7487
48.7729 540 23.2379
48.8904 525 22.9129
49.008 582 24.1247
49.1255 523 22.8692
49.243 509 22.561
49.3605 468 21.6333
49.478 475 21.7945
49.5955 477 21.8403
49.713 487 22.0681
49.8304 533 23.0868
49.9479 505 22.4722
50.0653 480 21.9089
50.1827 487 22.0681
50.3001 461 21.4709
50.4175 511 22.6053
50.5348 504 22.4499
50.6521 526 22.9347
50.7694 596 24.4131
50.8867 546 23.3666
51.004 540 23.2379
51.1212 552 23.4947
51.2384 553 23.516
51.3556 551 23.4734
51.4727 509 22.561
51.5899 529 23
51.707 548 23.4094
51.824 550 23.4521
51.9411 558 23.622
52.0581 555 23.5584
52.175 521 22.8254
52.2919 522 22.8473
52.4088 507 22.5167
52.5257 530 23.0217
52.6425 594 24.3721
52.7593 521 22.8254
52.876 480 21.9089
52.9927 506 22.4944
53.1094 507 22.5167
53.226 461 21.4709
53.3426 508 22.5389
53.4591 478 21.8632
53.5756 484 22
53.692 451 21.2368
53.8084 408 20.199
53.9248 356 18.868
54.0411 340 18.4391
54.1573 328 18.1108
54.2735 0 1
54.3896 0 1
54.5057 0 1
54.6217 0 1
54.7377 0 1
54.8537 0 1
54.9695 0 1
55.0853 0 1
55.2011 0 1
55.3168 0 1
55.4324 0 1
57.824 0 1
57.9396 0 1
58.0553 0 1
58.1711 0 1
58.2869 0 1
58.4028 0 1
58.5187 0 1
58.6347 0 1
58.7508 0 1
58.8669 0 1
58.983 441 21
59.0992 527 22.9565
59.2155 560 23.6643
59.3318 589 24.2693
59.4482 659 25.671
59.5646 766 27.6767
59.681 750 27.3861
59.7975 767 27.6948
59.9141 793 28.1603
60.0306 767 27.6948
60.1473 826 28.7402
60.2639 830 28.8097
60.3807 857 29.2746
60.4974 859 29.3087
60.6142 830 28.8097
60.731 838 28.9482
60.8479 849 29.1376
60.9648 792 28.1425
61.0818 788 28.0713
61.1987 762 27.6043
61.3158 724 26.9072
61.4328 706 26.5707
61.5499 702 26.4953
61.667 675 25.9808
61.7841 655 25.593
61.9013 656 25.6125
62.0185 678 26.0384
62.1357 699 26.4386
62.253 707 26.5895
62.3702 669 25.865
62.4875 667 25.8263
62.6049 677 26.0192
62.7222 635 25.1992
62.8396 657 25.632
62.9569 687 26.2107
63.0743 694 26.3439
63.1918 680 26.0768
63.3092 668 25.8457
63.4267 678 26.0384
63.5441 660 25.6905
63.6616 674 25.9615
63.7791 634 25.1794
63.8966 621 24.9199
64.0142 624 24.98
64.1317 643 25.3574
64.2492 630 25.0998
64.3668 679 26.0576
64.4843 633 25.1595
64.6019 659 25.671
64.7195 648 25.4558
64.837 639 25.2784
64.9546 614 24.779
65.0722 592 24.3311
65.1898 583 24.1454
65.3074 535 23.1301
65.4249 561 23.6854
65.5425 579 24.0624
65.6601 567 23.8118
65.7777 615 24.7992
65.8952 634 25.1794
66.0128 615 24.7992
66.1304 561 23.6854
66.2479 616 24.8193
66.3655 540 23.2379
66.483 649 25.4755
66.6005 649 25.4755
66.718 629 25.0799
66.8355 567 23.8118
66.953 632 25.1396
67.0705 706 26.5707
67.1879 661 25.7099
67.3054 640 25.2982
67.4228 627 25.04
67.5402 673 25.9422
67.6576 579 24.0624
67.7749 614 24.779
67.8923 651 25.5147
68.0096 595 24.3926
68.1269 650 25.4951
68.2442 632 25.1396
68.3614 577 24.0208
68.4787 552 23.4947
68.5958 574 23.9583
68.713 565 23.7697
68.8302 542 23.2809
68.9473 551 23.4734
69.0643 548 23.4094
69.1814 591 24.3105
69.2984 579 24.0624
69.4154 616 24.8193
69.5323 643 25.3574
69.6492 578 24.0416
69.7661 584 24.1661
69.8829 585 24.1868
69.9997 549 23.4307
70.1165 558 23.622
70.2332 612 24.7386
70.3499 542 23.2809
70.4665 498 22.3159
70.5831 519 22.7816
70.6996 495 22.2486
70.8161 420 20.4939
70.9326 418 20.445
71.049 379 19.4679
71.1653 394 19.8494
71.2817 339 18.412
71.3979 338 18.3848
71.5141 303 17.4069
71.6303 295 17.1756
71.7464 223 14.9332
71.8624 0 1
71.9784 0 1
72.0944 0 1
72.2102 0 1
72.3261 0 1
72.4418 0 1
72.5575 0 1
72.6732 0 1
75.1054 0 1
75.2209 0 1
75.3365 0 1
75.4521 0 1
75.5678 0 1
75.6835 0 1
75.7993 0 1
75.9151 0 1
76.031 0 1
76.147 398 19.9499
76.263 427 20.664
76.3791 504 22.4499
76.4952 500 22.3607
76.6113 554 23.5372
76.7276 511 22.6053
76.8438 525 22.9129
76.9601 542 23.2809
77.0765 485 22.0227
77.1929 529 23
77.3093 496 22.2711
77.4258 494 22.2261
77.5423 481 21.9317
77.6589 488 22.0907
77.7755 429 20.7123
77.8921 468 21.6333
78.0088 431 20.7605
78.1256 470 21.6795
78.2423 494 22.2261
78.3591 470 21.6795
78.4759 522 22.8473
78.5928 497 22.2935
78.7097 527 22.9565
78.8266 448 21.166
78.9436 489 22.1133
79.0606 485 22.0227
79.1776 515 22.6936
79.2946 532 23.0651
79.4117 525 22.9129
79.5288 525 22.9129
79.6459 531 23.0434
79.7631 477 21.8403
79.8802 507 22.5167
79.9974 566 23.7908
80.1147 554 23.5372
80.2319 554 23.5372
80.3491 538 23.1948
80.4664 571 23.8956
80.5837 537 23.1733
80.701 506 22.4944
80.8183 519 22.7816
80.9357 522 22.8473
81.053 567 23.8118
81.1704 568 23.8328
81.2877 490 22.1359
81.4051 499 22.3383
81.5225 456 21.3542
81.6399 433 20.8087
81.7573 513 22.6495
81.8747 442 21.0238
81.9922 502 22.4054
82.1096 538 23.1948
82.227 538 23.1948
82.3444 529 23
82.4619 539 23.2164
82.5793 550 23.4521
82.6967 532 23.0651
82.8142 533 23.0868
82.9316 549 23.4307
83.049 570 23.8747
83.1664 583 24.1454
83.2838 492 22.1811
83.4012 501 22.383
83.5186 567 23.8118
83.636 555 23.5584
83.7534 536 23.1517
83.8708 598 24.454
83.9881 610 24.6982
84.1055 553 23.516
84.2228 561 23.6854
84.3401 551 23.4734
84.4575 577 24.0208
84.5747 565 23.7697
84.692 591 24.3105
84.8093 517 22.7376
84.9265 507 22.5167
85.0437 462 21.4942
85.1609 441 21
85.2781 488 22.0907
85.3952 505 22.4722
85.5123 497 22.2935
85.6294 560 23.6643
85.7465 564 23.7487
85.8636 554 23.5372
85.9806 529 23
86.0976 599 24.4745
86.2145 557 23.6008
86.3315 573 23.9374
86.4484 549 23.4307
86.5652 532 23.0651
86.682 520 22.8035
86.7988 538 23.1948
86.9156 520 22.8035
87.0323 512 22.6274
87.149 543 23.3024
87.2657 565 23.7697
87.3823 539 23.2164
87.4988 550 23.4521
87.6154 545 23.3452
87.7318 525 22.9129
87.8483 497 22.2935
87.9647 465 21.5639
88.081 426 20.6398
88.1973 388 19.6977
88.3136 335 18.303
88.4298 312 17.6635
88.546 273 16.5227
88.6621 252 15.8745
88.7781 240 15.4919
88.8942 0 1
89.0101 0 1
89.126 0 1
89.2419 0 1
89.3577 0 1
89.4734 0 1
89.5891 0 1
89.7047 0 1
89.8203 0 1
89.9358 0 1
92.3269 0 1
92.4424 0 1
92.558 0 1
92.6736 0 1
92.7893 0 1
92.905 0 1
93.0208 0 1
93.1366 0 1
93.2525 0 1
93.3685 0 1
93.4845 0 1
93.6005 439 20.9523
93.7167 482 21.9545
93.8328 510 22.5832
93.949 523 22.8692
94.0653 520 22.8035
94.1816 485 22.0227
94.2979 498 22.3159
94.4143 447 21.1424
94.5307 490 22.1359
94.6472 487 22.0681
94.7637 506 22.4944
94.8803 557 23.6008
94.9969 551 23.4734
95.1135 577 24.0208
95.2302 592 24.3311
95.3469 625 25
95.4637 569 23.8537
95.5805 609 24.6779
95.6973 581 24.1039
95.8142 545 23.3452
95.9311 579 24.0624
96.048 601 24.5153
96.1649 535 23.1301
96.2819 595 24.3926
96.3989 573 23.9374
96.516 594 24.3721
96.633 599 24.4745
96.7501 588 24.2487
96.8673 620 24.8998
96.9844 572 23.9165
97.1016 619 24.8797
97.2188 580 24.0832
97.336 583 24.1454
97.4532 588 24.2487
97.5704 552 23.4947
97.6877 477 21.8403
97.805 521 22.8254
97.9223 513 22.6495
98.0396 529 23
98.1569 547 23.388
98.2743 531 23.0434
98.3916 527 22.9565
98.509 614 24.779
98.6264 570 23.8747
98.7438 618 24.8596
98.8612 587 24.2281
98.9786 586 24.2074
99.096 624 24.98
99.2134 629 25.0799
99.3308 617 24.8395
99.4482 628 25.0599
99.5656 652 25.5343
99.6831 641 25.318
99.8005 620 24.8998
99.9179 616 24.8193
100.035 583 24.1454
100.153 661 25.7099
100.27 625 25
100.388 654 25.5734
100.505 633 25.1595
100.622 619 24.8797
100.74 620 24.8998
100.857 594 24.3721
100.975 573 23.9374
101.092 593 24.3516
101.209 585 24.1868
101.327 529 23
101.444 578 24.0416
101.561 510 22.5832
101.679 525 22.9129
101.796 551 23.4734
101.913 580 24.0832
102.03 600 24.4949
102.148 636 25.219
102.265 622 24.9399
102.382 647 25.4362
102.499 654 25.5734
102.616 677 26.0192
102.733 666 25.807
102.851 679 26.0576
102.968 701 26.4764
103.085 675 25.9808
103.202 703 26.5141
103.319 633 25.1595
103.436 672 25.923
103.552 643 25.3574
103.669 729 27
103.786 723 26.8887
103.903 718 26.7955
104.02 685 26.1725
104.137 708 26.6083
104.253 670 25.8844
104.37 609 24.6779
104.487 613 24.7588
104.603 571 23.8956
104.72 598 24.454
104.836 547 23.388
104.953 550 23.4521
105.069 535 23.1301
105.186 520 22.8035
105.302 487 22.0681
105.418 461 21.4709
105.535 449 21.1896
105.651 414 20.347
105.767 391 19.7737
105.883 383 19.5704
105.999 368 19.1833
106.115 0 1
106.231 0 1
106.347 0 1
106.463 0 1
106.579 0 1
106.694 0 1
106.81 0 1
106.926 0 1
107.041 0 1
107.157 0 1
109.576 0 1
109.692 0 1
109.807 0 1
109.923 0 1
110.039 0 1
110.155 0 1
110.27 0 1
110.386 0 1
110.502 0 1
110.618 310 17.6068
110.735 426 20.6398
110.851 481 21.9317
110.967 503 22.4277
111.083 498 22.3159
111.199 573 23.9374
111.316 561 23.6854
111.432 673 25.9422
111.549 613 24.7588
111.665 622 24.9399
111.782 611 24.7184
111.898 604 24.5764
112.015 610 24.6982
112.132 570 23.8747
112.248 612 24.7386
112.365 659 25.671
112.482 623 24.96
112.599 614 24.779
112.716 664 25.7682
112.832 554 23.5372
112.949 563 23.7276
113.066 551 23.4734
113.183 546 23.3666
113.3 554 23.5372
113.417 619 24.8797
113.534 593 24.3516
113.652 580 24.0832
113.769 553 23.516
113.886 549 23.4307
114.003 506 22.4944
114.12 506 22.4944
114.238 547 23.388
114.355 575 23.9792
114.472 516 22.7156
114.589 558 23.622
114.707 541 23.2594
114.824 540 23.2379
114.942 592 24.3311
115.059 569 23.8537
115.176 548 23.4094
115.294 600 24.4949
115.411 581 24.1039
115.529 571 23.8956
115.646 534 23.1084
115.764 519 22.7816
115.881 552 23.4947
115.999 588 24.2487
116.116 556 23.5797
116.234 578 24.0416
116.351 558 23.622
116.469 537 23.1733
116.586 539 23.2164
116.704 521 22.8254
116.821 563 23.7276
116.939 573 23.9374
117.056 496 22.2711
117.174 512 22.6274
117.291 507 22.5167
117.409 485 22.0227
117.526 448 21.166
117.644 444 21.0713
117.761 453 21.2838
117.879 486 22.0454
117.996 517 22.7376
118.114 508 22.5389
118.231 525 22.9129
118.349 512 22.6274
118.466 537 23.1733
118.584 561 23.6854
118.701 545 23.3452
118.819 526 22.9347
118.936 552 23.4947
119.053 536 23.1517
119.171 538 23.1948
119.288 542 23.2809
119.405 518 22.7596
119.523 516 22.7156
119.64 546 23.3666
119.757 571 23.8956
119.875 542 23.2809
119.992 561 23.6854
120.109 521 22.8254
120.226 513 22.6495
120.343 487 22.0681
120.46 517 22.7376
120.578 530 23.0217
120.695 503 22.4277
120.812 529 23
120.929 516 22.7156
121.046 474 21.7715
121.163 419 20.4695
121.279 430 20.7364
121.396 412 20.2978
121.513 437 20.9045
121.63 453 21.2838
121.747 440 20.9762
121.863 443 21.0476
121.98 416 20.3961
122.097 465 21.5639
122.213 389 19.7231
122.33 421 20.5183
122.446 405 20.1246
122.563 408 20.199
122.679 335 18.303
122.795 340 18.4391
122.912 266 16.3095
123.028 300 17.3205
123.144 271 16.4621
123.26 267 16.3401
123.377 0 1
123.493 0 1
123.609 0 1
123.725 0 1
123.84 0 1
123.956 0 1
124.072 0 1
124.188 0 1
124.303 0 1
124.419 0 1
126.852 0 1
126.968 0 1
127.083 0 1
127.199 0 1
127.315 0 1
127.431 0 1
127.547 0 1
127.663 0 1
127.779 0 1
127.895 0 1
128.011 0 1
128.127 0 1
128.243 0 1
128.359 564 23.7487
128.476 563 23.7276
128.592 537 23.1733
128.708 581 24.1039
128.825 561 23.6854
128.941 569 23.8537
129.058 562 23.7065
129.174 615 24.7992
129.291 574 23.9583
129.408 541 23.2594
129.524 589 24.2693
129.641 640 25.2982
129.758 605 24.5967
129.875 600 24.4949
129.992 582 24.1247
130.108 630 25.0998
130.225 580 24.0832
130.342 663 25.7488
130.459 594 24.3721
130.576 686 26.1916
130.693 711 26.6646
130.81 787 28.0535
130.928 823 28.688
131.045 873 29.5466
131.162 934 30.5614
131.279 933 30.545
131.396 881 29.6816
131.513 880 29.6648
131.631 957 30.9354
131.748 1251 35.3695
131.865 1509 38.8458
131.983 1720 41.4729
132.1 1834 42.8252
132.217 1940 44.0454
132.335 2178 46.669
132.452 2308 48.0416
132.57 2499 49.99
132.687 2650 51.4782
132.804 2781 52.7352
132.922 2705 52.0096
133.039 2926 54.0925
133.157 2922 54.0555
133.274 3084 55.5338
133.392 3081 55.5068
133.509 3059 55.3082
133.627 3034 55.0818
133.744 3085 55.5428
133.862 3067 55.3805
133.979 3043 55.1634
134.097 3051 55.2359
134.214 3160 56.2139
134.332 3184 56.4269
134.449 3308 57.5152
134.567 3341 57.8014
134.684 3225 56.7891
134.802 3054 55.263
134.919 2994 54.7175
135.037 2827 53.1695
135.154 2724 52.192
135.272 2672 51.6914
135.389 2405 49.0408
135.507 1826 42.7317
135.624 1270 35.6371
135.742 1115 33.3916
135.859 1205 34.7131
135.977 1711 41.3642
136.094 1965 44.3283
136.211 1887 43.4396
136.329 1951 44.1701
136.446 1802 42.45
136.564 1635 40.4351
136.681 1601 40.0125
136.798 1433 37.855
136.915 1327 36.428
137.033 1302 36.0832
137.15 1262 35.5246
137.267 1184 34.4093
137.384 1213 34.8281
137.502 1108 33.2866
137.619 1136 33.7046
137.736 1084 32.9242
137.853 1027 32.0468
137.97 1058 32.5269
138.087 980 31.305
138.204 1088 32.9848
138.321 1140 33.7639
138.438 1176 34.2929
138.555 1261 35.5106
138.672 1261 35.5106
138.788 1277 35.7351
138.905 1233 35.1141
139.022 1148 33.8821
139.139 1107 33.2716
139.255 1032 32.1248
139.372 1024 32
139.488 1025 32.0156
139.605 994 31.5278
139.721 1053 32.45
139.838 998 31.5911
139.954 887 29.7825
140.071 892 29.8664
140.187 820 28.6356
140.303 843 29.0345
140.419 803 28.3373
140.535 773 27.8029
140.652 827 28.7576
140.768 0 1
140.884 0 1
141 0 1
141.115 0 1
141.231 0 1
141.347 0 1
141.463 0 1
141.578 0 1
141.694 0 1
144.104 0 1
144.219 0 1
144.335 0 1
144.45 0 1
144.566 0 1
144.682 0 1
144.798 0 1
144.914 0 1
145.03 0 1
145.146 2410 49.0918
145.262 3607 60.0583
145.378 5625 75
145.494 9364 96.7678
145.61 15613 124.952
145.726 24460 156.397
145.842 36661 191.471
145.959 51282 226.455
146.075 67279 259.382
146.192 82901 287.925
146.308 98676 314.127
146.425 111641 334.127
146.541 121815 349.02
146.658 130178 360.802
146.774 134941 367.343
146.891 136822 369.895
147.008 137531 370.852
147.125 131228 362.254
147.241 126507 355.678
147.358 118239 343.859
147.475 107743 328.242
147.592 95520 309.063
147.709 82891 287.908
147.826 70797 266.077
147.943 60476 245.919
148.06 51610 227.178
148.177 45605 213.553
148.294 40220 200.549
148.411 36117 190.045
148.528 33170 182.126
148.645 30252 173.931
148.762 28274 168.149
148.88 26305 162.188
148.997 25343 159.195
149.114 22808 151.023
149.231 21609 147
149.349 20354 142.667
149.466 18452 135.838
149.583 17066 130.637
149.701 16194 127.256
149.818 15163 123.138
149.935 13823 117.571
150.053 12681 112.61
150.17 10908 104.441
150.287 9122 95.5092
150.405 6801 82.4682
150.522 5081 71.2811
150.64 5577 74.6793
150.757 6816 82.5591
150.875 6906 83.1023
150.992 6712 81.9268
151.11 6466 80.4114
151.227 5956 77.1751
151.344 5568 74.619
151.462 5204 72.1388
151.579 4938 70.2709
151.697 4627 68.0221
151.814 4418 66.468
151.932 4129 64.2573
152.049 3981 63.0952
152.167 3818 61.79
152.284 3586 59.8832
152.402 3287 57.3324
152.519 3167 56.2761
152.636 2950 54.3139
152.754 2826 53.1601
152.871 2678 51.7494
152.989 2528 50.2792
153.106 2438 49.3761
153.223 2443 49.4267
153.341 2366 48.6415
153.458 2348 48.4562
153.575 2224 47.1593
153.693 2049 45.2659
153.81 1966 44.3396
153.927 1992 44.6318
154.044 1802 42.45
154.162 1625 40.3113
154.279 1563 39.5348
154.396 1720 41.4729
154.513 1899 43.5775
154.63 2027 45.0222
154.747 1988 44.587
154.864 2005 44.7772
154.981 2053 45.31
155.098 1976 44.4522
155.215 1882 43.382
155.332 1909 43.6921
155.449 1906 43.6578
155.566 1910 43.7035
155.683 2016 44.8999
155.8 1988 44.587
155.917 2085 45.6618
156.033 1991 44.6206
156.15 0 1
156.267 0 1
156.383 0 1
156.5 0 1
156.617 0 1
156.733 0 1
156.85 0 1
156.966 0 1
157.082 0 1
157.199 0 1
157.315 0 1
157.431 0 1
157.547 0 1
157.664 0 1
157.78 0 1
157.896 0 1
158.012 0 1
158.128 0 1
158.244 0 1
158.359 0 1
158.475 0 1
158.591 0 1
158.706 0 1
