
6.15755 0 1
6.2731 0 1
6.3887 0 1
6.50437 0 1
6.62009 0 1
6.73587 0 1
6.8517 0 1
6.96759 0 1
7.08353 0 1
7.19952 0 1
7.31557 0 1
7.43166 0 1
7.54781 0 1
7.664 0 1
7.78024 0 1
7.89653 0 1
8.01286 0 1
8.12924 0 1
8.24567 0 1
8.36213 0 1
8.47864 0 1
8.59519 0 1
8.71178 0 1
8.82841 0 1
8.94508 0 1
9.06179 0 1
9.17853 0 1
9.29531 0 1
9.41212 0 1
9.52897 0 1
9.64584 0 1
9.76276 0 1
9.8797 0 1
9.99667 0 1
10.1137 0 1
10.2307 0 1
10.3478 0 1
10.4648 0 1
10.5819 0 1
10.6991 0 1
10.8162 0 1
10.9334 0 1
11.0506 0 1
11.1678 0 1
11.285 0 1
11.4023 0 1
11.5196 0 1
11.6369 0 1
11.7542 0 1
11.8715 0 1
11.9888 0 1
12.1062 0 1
12.2235 0 1
12.3409 0 1
12.4582 0 1
12.5756 0 1
12.693 0 1
12.8104 0 1
12.9278 0 1
13.0452 0 1
13.1626 0 1
13.28 0 1
13.3974 0 1
13.5149 0 1
13.6323 0 1
13.7497 0 1
13.8671 0 1
13.9845 0 1
14.1019 0 1
14.2193 0 1
14.3367 0 1
14.4541 0 1
14.5714 0 1
14.6888 0 1
14.8062 0 1
14.9235 0 1
15.0408 7036 83.8809
15.1581 7334 85.6388
15.2755 7562 86.9598
15.3927 7623 87.3098
15.51 7557 86.931
15.6273 7604 87.2009
15.7445 7326 85.5921
15.8617 7136 84.4748
15.9789 6835 82.6741
16.0961 6807 82.5045
16.2132 6781 82.3468
16.3304 7024 83.8093
16.4475 6945 83.3367
16.5646 6922 83.1986
16.6816 6890 83.006
16.7986 6708 81.9024
16.9156 6620 81.3634
17.0326 6432 80.1998
17.1496 6265 79.1518
17.2665 6314 79.4607
17.3833 6026 77.6273
17.5002 5957 77.1816
17.617 6098 78.0897
17.7338 6139 78.3518
17.8505 6493 80.5792
17.9672 6590 81.1788
18.0839 6754 82.1827
18.2005 6979 83.5404
18.3171 7311 85.5044
18.4337 7472 86.4407
18.5502 7622 87.3041
18.6666 7617 87.2754
18.7831 7564 86.9713
18.8994 7292 85.3932
19.0158 7171 84.6818
19.1321 7078 84.1309
19.2483 6683 81.7496
19.3645 6373 79.8311
19.4806 6240 78.9937
19.5967 6011 77.5306
19.7128 6129 78.2879
19.8288 6074 77.9359
19.9447 5558 74.552
20.0606 0 1
20.1764 0 1
20.2922 0 1
20.4079 0 1
20.5236 0 1
20.6392 0 1
20.7548 0 1
20.8702 0 1
23.3078 0 1
23.4233 0 1
23.539 0 1
23.6547 0 1
23.7704 0 1
23.8862 0 1
24.0021 0 1
24.118 0 1
24.234 0 1
24.35 0 1
24.4661 5934 77.0325
24.5822 5915 76.909
24.6984 5747 75.809
24.8146 5852 76.4984
24.9309 5998 77.4468
25.0472 6375 79.8436
25.1636 6618 81.3511
25.28 6449 80.3057
25.3965 6618 81.3511
25.513 6750 82.1584
25.6296 6609 81.2958
25.7462 6709 81.9085
25.8628 6554 80.9568
25.9795 6232 78.943
26.0962 6056 77.8203
26.213 5848 76.4722
26.3298 6012 77.5371
26.4466 6039 77.711
26.5635 6130 78.2943
26.6804 6251 79.0633
26.7973 6238 78.981
26.9143 6592 81.1911
27.0313 6428 80.1748
27.1483 6764 82.2435
27.2653 6789 82.3954
27.3824 6898 83.0542
27.4996 6835 82.6741
27.6167 6736 82.0731
27.7339 6634 81.4494
27.8511 6431 80.1935
27.9683 6319 79.4921
28.0855 6087 78.0192
28.2028 6024 77.6144
28.3201 5825 76.3217
28.4374 5943 77.0909
28.5547 6077 77.9551
28.6721 6219 78.8606
28.7894 6351 79.6932
28.9068 6288 79.2969
29.0242 6242 79.0063
29.1416 5939 77.0649
29.259 6163 78.5048
29.3764 5893 76.7659
29.4939 5777 76.0066
29.6113 5655 75.1997
29.7288 5467 73.9392
29.8463 5450 73.8241
29.9638 5690 75.4321
30.0812 5741 75.7694
30.1987 5961 77.2075
30.3162 6139 78.3518
30.4337 6183 78.6321
30.5512 6288 79.2969
30.6687 6237 78.9747
30.7862 6465 80.4052
30.9037 6524 80.7713
31.0212 6721 81.9817
31.1387 6686 81.768
31.2562 6399 79.9937
31.3737 6344 79.6492
31.4912 6072 77.923
31.6087 6120 78.2304
31.7262 5741 75.7694
31.8436 5658 75.2197
31.9611 5772 75.9737
32.0785 5884 76.7072
32.1959 6048 77.7689
32.3134 6232 78.943
32.4308 6114 78.1921
32.5482 5999 77.4532
32.6655 5933 77.026
32.7829 5967 77.2464
32.9002 5874 76.642
33.0176 5682 75.379
33.1349 5604 74.8599
33.2522 5548 74.4849
33.3694 5356 73.1847
33.4867 5428 73.675
33.6039 5503 74.1822
33.7211 5550 74.4983
33.8383 5642 75.1132
33.9554 5808 76.2102
34.0725 5952 77.1492
34.1896 6014 77.55
34.3067 6246 79.0316
34.4237 6287 79.2906
34.5407 6286 79.2843
34.6577 6501 80.6288
34.7746 6209 78.7972
34.8915 6333 79.5801
35.0084 6296 79.3473
35.1252 6069 77.9038
35.242 6067 77.8909
35.3587 5838 76.4068
35.4755 5655 75.1997
35.5921 5649 75.1598
35.7088 5680 75.3658
35.8254 5662 75.2463
35.9419 5802 76.1709
36.0584 6007 77.5048
36.1749 5866 76.5898
36.2913 5825 76.3217
36.4077 5857 76.531
36.524 5672 75.3127
36.6403 5469 73.9527
36.7565 5447 73.8038
36.8727 5458 73.8783
36.9889 5295 72.7668
37.1049 5086 71.3162
37.221 0 1
37.3369 0 1
37.4529 0 1
37.5687 0 1
37.6845 0 1
37.8003 0 1
37.916 0 1
38.0316 0 1
38.1472 0 1
40.5851 0 1
40.7008 0 1
40.8164 0 1
40.9322 0 1
41.048 0 1
41.1639 0 1
41.2798 0 1
41.3958 0 1
41.5118 0 1
41.6279 0 1
41.744 4456 66.7533
41.8602 4722 68.7168
41.9765 4806 69.3253
42.0928 4589 67.7422
42.2091 4366 66.0757
42.3255 4491 67.0149
42.4419 4392 66.2722
42.5584 4519 67.2235
42.675 4670 68.3374
42.7915 4623 67.9926
42.9081 4668 68.3228
43.0248 4810 69.3542
43.1415 4947 70.3349
43.2582 4792 69.2243
43.375 4876 69.8284
43.4918 5010 70.7814
43.6087 5046 71.0352
43.7256 4923 70.1641
43.8425 4889 69.9214
43.9595 4812 69.3686
44.0765 4721 68.7095
44.1935 4433 66.5808
44.3106 4336 65.8483
44.4277 4083 63.8984
44.5448 4021 63.4114
44.6619 4064 63.7495
44.7791 4102 64.0469
44.8963 4053 63.6632
45.0136 3991 63.1744
45.1308 3860 62.1289
45.2481 3918 62.5939
45.3654 3891 62.3779
45.4827 3820 61.8061
45.6001 3622 60.1831
45.7174 3662 60.5145
45.8348 3486 59.0424
45.9522 3474 58.9406
46.0697 3462 58.8388
46.1871 3532 59.4306
46.3046 3525 59.3717
46.422 3615 60.1249
46.5395 3597 59.975
46.657 3746 61.2046
46.7745 3847 62.0242
46.892 3761 61.327
47.0096 3699 60.8194
47.1271 3875 62.2495
47.2446 3767 61.3759
47.3622 3794 61.5955
47.4797 3624 60.1997
47.5973 3569 59.7411
47.7149 3525 59.3717
47.8324 3431 58.5747
47.95 3282 57.2887
48.0675 3123 55.8838
48.1851 3132 55.9643
48.3027 3171 56.3116
48.4202 3235 56.8771
48.5378 3297 57.4195
48.6554 3358 57.9483
48.7729 3319 57.6108
48.8904 3272 57.2014
49.008 3307 57.5065
49.1255 3177 56.3649
49.243 3047 55.1996
49.3605 3122 55.8749
49.478 3191 56.4889
49.5955 3173 56.3294
49.713 3175 56.3471
49.8304 3323 57.6455
49.9479 3387 58.1979
50.0653 3458 58.8048
50.1827 3657 60.4731
50.3001 3776 61.4492
50.4175 3820 61.8061
50.5348 3814 61.7576
50.6521 3995 63.206
50.7694 4103 64.0547
50.8867 4096 64
51.004 4103 64.0547
51.1212 4186 64.6993
51.2384 4203 64.8305
51.3556 4129 64.2573
51.4727 4084 63.9062
51.5899 4071 63.8044
51.707 4013 63.3482
51.824 4070 63.7966
51.9411 4391 66.2646
52.0581 4579 67.6683
52.175 4528 67.2904
52.2919 4644 68.1469
52.4088 4852 69.6563
52.5257 4754 68.9493
52.6425 4817 69.4046
52.7593 4690 68.4836
52.876 4572 67.6166
52.9927 4556 67.4981
53.1094 4634 68.0735
53.226 4588 67.7348
53.3426 4674 68.3667
53.4591 4823 69.4478
53.5756 5128 71.6101
53.692 5299 72.7942
53.8084 5333 73.0274
53.9248 5469 73.9527
54.0411 5647 75.1465
54.1573 5798 76.1446
54.2735 0 1
54.3896 0 1
54.5057 0 1
54.6217 0 1
54.7377 0 1
54.8537 0 1
54.9695 0 1
55.0853 0 1
55.2011 0 1
55.3168 0 1
55.4324 0 1
57.824 0 1
57.9396 0 1
58.0553 0 1
58.1711 0 1
58.2869 0 1
58.4028 0 1
58.5187 0 1
58.6347 0 1
58.7508 0 1
58.8669 0 1
58.983 6432 80.1998
59.0992 6722 81.9878
59.2155 6935 83.2766
59.3318 7080 84.1427
59.4482 7076 84.119
59.5646 7091 84.2081
59.681 7136 84.4748
59.7975 7070 84.0833
59.9141 6897 83.0482
60.0306 6992 83.6182
60.1473 6898 83.0542
60.2639 6601 81.2465
60.3807 6372 79.8248
60.4974 6354 79.712
60.6142 6158 78.4729
60.731 6438 80.2371
60.8479 6598 81.2281
60.9648 6702 81.8657
61.0818 6711 81.9207
61.1987 6580 81.1172
61.3158 6426 80.1623
61.4328 6342 79.6367
61.5499 6329 79.555
61.667 6181 78.6193
61.7841 6110 78.1665
61.9013 5928 76.9935
62.0185 5905 76.844
62.1357 6155 78.4538
62.253 6204 78.7655
62.3702 6389 79.9312
62.4875 6412 80.075
62.6049 6369 79.806
62.7222 6491 80.5667
62.8396 6439 80.2434
62.9569 6372 79.8248
63.0743 6500 80.6226
63.1918 6565 81.0247
63.3092 6453 80.3306
63.4267 6383 79.8937
63.5441 6299 79.3662
63.6616 6190 78.6766
63.7791 5951 77.1427
63.8966 5772 75.9737
64.0142 5601 74.8398
64.1317 5597 74.8131
64.2492 5819 76.2824
64.3668 6102 78.1153
64.4843 6105 78.1345
64.6019 6108 78.1537
64.7195 6038 77.7046
64.837 5948 77.1233
64.9546 5938 77.0584
65.0722 5918 76.9285
65.1898 5725 75.6637
65.3074 5707 75.5447
65.4249 5407 73.5323
65.5425 5469 73.9527
65.6601 5534 74.3909
65.7777 5598 74.8198
65.8952 5792 76.1052
66.0128 5973 77.2852
66.1304 6031 77.6595
66.2479 6119 78.224
66.3655 6035 77.6853
66.483 6269 79.177
66.6005 6226 78.905
66.718 6538 80.8579
66.8355 6484 80.5233
66.953 6354 79.712
67.0705 6342 79.6367
67.1879 6291 79.3158
67.3054 6257 79.1012
67.4228 6033 77.6724
67.5402 5764 75.921
67.6576 5715 75.5976
67.7749 5689 75.4255
67.8923 5835 76.3872
68.0096 6075 77.9423
68.1269 6290 79.3095
68.2442 6307 79.4166
68.3614 6294 79.3347
68.4787 6204 78.7655
68.5958 6222 78.8797
68.713 6384 79.8999
68.8302 6195 78.7083
68.9473 6025 77.6209
69.0643 6010 77.5242
69.1814 5844 76.4461
69.2984 5953 77.1557
69.4154 6119 78.224
69.5323 6221 78.8733
69.6492 6353 79.7057
69.7661 6624 81.388
69.8829 6613 81.3204
69.9997 6762 82.2314
70.1165 6829 82.6378
70.2332 6972 83.4985
70.3499 6899 83.0602
70.4665 7036 83.8809
70.5831 6866 82.8613
70.6996 6960 83.4266
70.8161 6900 83.0662
70.9326 6785 82.3711
71.049 6568 81.0432
71.1653 6571 81.0617
71.2817 6267 79.1644
71.3979 5861 76.5572
71.5141 5853 76.5049
71.6303 6006 77.4984
71.7464 5915 76.909
71.8624 0 1
71.9784 0 1
72.0944 0 1
72.2102 0 1
72.3261 0 1
72.4418 0 1
72.5575 0 1
72.6732 0 1
75.1054 0 1
75.2209 0 1
75.3365 0 1
75.4521 0 1
75.5678 0 1
75.6835 0 1
75.7993 0 1
75.9151 0 1
76.031 0 1
76.147 6589 81.1727
76.263 7029 83.8391
76.3791 7133 84.4571
76.4952 6622 81.3757
76.6113 6524 80.7713
76.7276 6409 80.0562
76.8438 6677 81.7129
76.9601 7132 84.4512
77.0765 7190 84.7939
77.1929 7205 84.8823
77.3093 7167 84.6581
77.4258 7049 83.9583
77.5423 7081 84.1487
77.6589 7030 83.8451
77.7755 6864 82.8493
77.8921 6683 81.7496
78.0088 6445 80.2808
78.1256 6528 80.796
78.2423 6363 79.7684
78.3591 6314 79.4607
78.4759 6531 80.8146
78.5928 6822 82.5954
78.7097 6874 82.9096
78.8266 6923 83.2046
78.9436 7254 85.1704
79.0606 7264 85.2291
79.1776 7250 85.1469
79.2946 7381 85.9127
79.4117 7281 85.3288
79.5288 7279 85.3171
79.6459 7293 85.3991
79.7631 7081 84.1487
79.8802 7231 85.0353
79.9974 6941 83.3127
80.1147 6855 82.7949
80.2319 6344 79.6492
80.3491 6280 79.2465
80.4664 6542 80.8826
80.5837 6628 81.4125
80.701 6831 82.6499
80.8183 7051 83.9702
80.9357 6666 81.6456
81.053 6669 81.6639
81.1704 6743 82.1158
81.2877 6886 82.9819
81.4051 6868 82.8734
81.5225 6610 81.3019
81.6399 6413 80.0812
81.7573 6211 78.8099
81.8747 5945 77.1038
81.9922 5875 76.6485
82.1096 6128 78.2815
82.227 6448 80.2994
82.3444 6320 79.4984
82.4619 6761 82.2253
82.5793 6897 83.0482
82.6967 6821 82.5893
82.8142 6924 83.2106
82.9316 7040 83.9047
83.049 6984 83.5703
83.1664 7073 84.1011
83.2838 7103 84.2793
83.4012 7043 83.9226
83.5186 7077 84.1249
83.636 6854 82.7889
83.7534 6661 81.6149
83.8708 6369 79.806
83.9881 6301 79.3788
84.1055 6130 78.2943
84.2228 6615 81.3327
84.3401 6726 82.0122
84.4575 6971 83.4925
84.5747 6841 82.7103
84.692 6726 82.0122
84.8093 6971 83.4925
84.9265 7107 84.303
85.0437 6834 82.668
85.1609 6481 80.5047
85.2781 6409 80.0562
85.3952 6345 79.6555
85.5123 6425 80.1561
85.6294 6295 79.341
85.7465 6407 80.0437
85.8636 6934 83.2706
85.9806 6800 82.4621
86.0976 7104 84.2852
86.2145 7102 84.2734
86.3315 7169 84.6699
86.4484 7499 86.5968
86.5652 7595 87.1493
86.682 7634 87.3728
86.7988 7420 86.1394
86.9156 7415 86.1104
87.0323 7461 86.3771
87.149 7196 84.8292
87.2657 7356 85.7671
87.3823 7064 84.0476
87.4988 6728 82.0244
87.6154 6617 81.3449
87.7318 6854 82.7889
87.8483 7025 83.8153
87.9647 7396 86
88.081 7288 85.3698
88.1973 7085 84.1724
88.3136 7269 85.2584
88.4298 7310 85.4985
88.546 7372 85.8604
88.6621 7007 83.7078
88.7781 6911 83.1324
88.8942 0 1
89.0101 0 1
89.126 0 1
89.2419 0 1
89.3577 0 1
89.4734 0 1
89.5891 0 1
89.7047 0 1
89.8203 0 1
89.9358 0 1
92.3269 0 1
92.4424 0 1
92.558 0 1
92.6736 0 1
92.7893 0 1
92.905 0 1
93.0208 0 1
93.1366 0 1
93.2525 0 1
93.3685 0 1
93.4845 0 1
93.6005 6723 81.9939
93.7167 6987 83.5883
93.8328 6904 83.0903
93.949 7049 83.9583
94.0653 6684 81.7557
94.1816 6491 80.5667
94.2979 6366 79.7872
94.4143 6231 78.9367
94.5307 6156 78.4602
94.6472 6279 79.2401
94.7637 6622 81.3757
94.8803 6605 81.2712
94.9969 6758 82.2071
95.1135 6977 83.5284
95.2302 7136 84.4748
95.3469 7125 84.4097
95.4637 7372 85.8604
95.5805 7200 84.8528
95.6973 7307 85.481
95.8142 7336 85.6505
95.9311 7496 86.5794
96.048 7508 86.6487
96.1649 7201 84.8587
96.2819 7169 84.6699
96.3989 6863 82.8432
96.516 6359 79.7433
96.633 6333 79.5801
96.7501 6399 79.9937
96.8673 6429 80.181
96.9844 6549 80.9259
97.1016 6685 81.7618
97.2188 6804 82.4864
97.336 6888 82.994
97.4532 6987 83.5883
97.5704 7071 84.0892
97.6877 6994 83.6301
97.805 6717 81.9573
97.9223 6424 80.1499
98.0396 6286 79.2843
98.1569 6165 78.5175
98.2743 6125 78.2624
98.3916 6258 79.1075
98.509 6530 80.8084
98.6264 6665 81.6395
98.7438 6774 82.3043
98.8612 6897 83.0482
98.9786 7063 84.0417
99.096 7071 84.0892
99.2134 7100 84.2615
99.3308 7123 84.3979
99.4482 7123 84.3979
99.5656 6919 83.1805
99.6831 6995 83.6361
99.8005 6640 81.4862
99.9179 6831 82.6499
100.035 6428 80.1748
100.153 6382 79.8874
100.27 6027 77.6338
100.388 6098 78.0897
100.505 6367 79.7935
100.622 6742 82.1097
100.74 6863 82.8432
100.857 6714 81.939
100.975 6723 81.9939
101.092 6876 82.9216
101.209 7204 84.8764
101.327 7120 84.3801
101.444 6773 82.2982
101.561 6692 81.8046
101.679 6446 80.287
101.796 6343 79.643
101.913 6187 78.6575
102.03 6432 80.1998
102.148 6487 80.5419
102.265 6255 79.0886
102.382 7499 86.5968
102.499 7144 84.5222
102.616 7252 85.1587
102.733 7381 85.9127
102.851 7371 85.8545
102.968 7403 86.0407
103.085 7366 85.8254
103.202 7592 87.1321
103.319 7283 85.3405
103.436 7305 85.4693
103.552 7158 84.605
103.669 7082 84.1546
103.786 6786 82.3772
103.903 6543 80.8888
104.02 6735 82.067
104.137 6971 83.4925
104.253 7029 83.8391
104.37 7514 86.6833
104.487 7144 84.5222
104.603 7553 86.908
104.72 7571 87.0115
104.836 7362 85.8021
104.953 7135 84.4689
105.069 6947 83.3487
105.186 6751 82.1645
105.302 6432 80.1998
105.418 6570 81.0555
105.535 7014 83.7496
105.651 6891 83.012
105.767 7258 85.1939
105.883 7327 85.5979
105.999 7494 86.5679
106.115 0 1
106.231 0 1
106.347 0 1
106.463 0 1
106.579 0 1
106.694 0 1
106.81 0 1
106.926 0 1
107.041 0 1
107.157 0 1
109.576 0 1
109.692 0 1
109.807 0 1
109.923 0 1
110.039 0 1
110.155 0 1
110.27 0 1
110.386 0 1
110.502 0 1
110.618 5995 77.4274
110.735 6421 80.1311
110.851 6414 80.0875
110.967 6649 81.5414
111.083 6720 81.9756
111.199 6843 82.7224
111.316 6850 82.7647
111.432 6912 83.1384
111.549 6935 83.2766
111.665 6936 83.2827
111.782 6771 82.2861
111.898 6802 82.4742
112.015 6463 80.3928
112.132 6347 79.6681
112.248 5934 77.0325
112.365 5751 75.8353
112.482 5866 76.5898
112.599 5808 76.2102
112.716 6145 78.3901
112.832 6050 77.7817
112.949 5998 77.4468
113.066 6141 78.3645
113.183 6226 78.905
113.3 6361 79.7559
113.417 6342 79.6367
113.534 6180 78.613
113.652 5805 76.1906
113.769 5492 74.108
113.886 5313 72.8903
114.003 5078 71.2601
114.12 5333 73.0274
114.238 5563 74.5855
114.355 5644 75.1266
114.472 5909 76.87
114.589 5728 75.6836
114.707 5786 76.0658
114.824 5988 77.3822
114.942 5763 75.9144
115.059 5750 75.8288
115.176 5706 75.5381
115.294 5620 74.9667
115.411 5515 74.263
115.529 5373 73.3008
115.646 5273 72.6154
115.764 5033 70.9436
115.881 4828 69.4838
115.999 4714 68.6586
116.116 4646 68.1616
116.234 4827 69.4766
116.351 4755 68.9565
116.469 4790 69.2098
116.586 4810 69.3542
116.704 5006 70.7531
116.821 4957 70.406
116.939 5079 71.2671
117.056 5019 70.8449
117.174 4873 69.8069
117.291 4723 68.7241
117.409 4414 66.4379
117.526 4355 65.9924
117.644 4398 66.3174
117.761 4530 67.3053
117.879 4883 69.8785
117.996 4721 68.7095
118.114 4979 70.562
118.231 5130 71.624
118.349 4982 70.5833
118.466 5191 72.0486
118.584 5112 71.4983
118.701 5042 71.007
118.819 5069 71.1969
118.936 5077 71.2531
119.053 5026 70.8943
119.171 5034 70.9507
119.288 4809 69.347
119.405 4672 68.352
119.523 4692 68.4982
119.64 4612 67.9117
119.757 4604 67.8528
119.875 4668 68.3228
119.992 4652 68.2056
120.109 4912 70.0857
120.226 4880 69.857
120.343 5107 71.4633
120.46 5386 73.3894
120.578 5421 73.6274
120.695 5453 73.8444
120.812 5424 73.6478
120.929 5162 71.8471
121.046 5058 71.1196
121.163 4873 69.8069
121.279 4760 68.9928
121.396 4975 70.5337
121.513 5277 72.643
121.63 5566 74.6056
121.747 5641 75.1066
121.863 5822 76.302
121.98 5776 76
122.097 6060 77.846
122.213 5850 76.4853
122.33 5996 77.4338
122.446 6089 78.032
122.563 6076 77.9487
122.679 5983 77.3499
122.795 5969 77.2593
122.912 5819 76.2824
123.028 5788 76.0789
123.144 5684 75.3923
123.26 5409 73.5459
123.377 0 1
123.493 0 1
123.609 0 1
123.725 0 1
123.84 0 1
123.956 0 1
124.072 0 1
124.188 0 1
124.303 0 1
124.419 0 1
126.852 0 1
126.968 0 1
127.083 0 1
127.199 0 1
127.315 0 1
127.431 0 1
127.547 0 1
127.663 0 1
127.779 0 1
127.895 0 1
128.011 0 1
128.127 0 1
128.243 0 1
128.359 6861 82.8312
128.476 6705 81.8841
128.592 6364 79.7747
128.708 6178 78.6003
128.825 6137 78.339
128.941 6282 79.2591
129.058 6621 81.3695
129.174 6754 82.1827
129.291 6679 81.7251
129.408 7105 84.2912
129.524 6898 83.0542
129.641 7063 84.0417
129.758 6911 83.1324
129.875 6769 82.2739
129.992 6520 80.7465
130.108 6369 79.806
130.225 6125 78.2624
130.342 5930 77.0065
130.459 6223 78.886
130.576 6365 79.781
130.693 6524 80.7713
130.81 6807 82.5045
130.928 6794 82.4257
131.045 6842 82.7164
131.162 6955 83.3966
131.279 6909 83.1204
131.396 7083 84.1606
131.513 7055 83.994
131.631 6787 82.3833
131.748 6757 82.201
131.865 6656 81.5843
131.983 6374 79.8373
132.1 6237 78.9747
132.217 6189 78.6702
132.335 6006 77.4984
132.452 6042 77.7303
132.57 6209 78.7972
132.687 6158 78.4729
132.804 6610 81.3019
132.922 6619 81.3572
133.039 6645 81.5169
133.157 6707 81.8963
133.274 6800 82.4621
133.392 6648 81.5353
133.509 6333 79.5801
133.627 6192 78.6893
133.744 5941 77.0779
133.862 5905 76.844
133.979 5836 76.3937
134.097 5983 77.3499
134.214 6218 78.8543
134.332 6300 79.3725
134.449 6578 81.1049
134.567 6546 80.9074
134.684 6715 81.9451
134.802 6783 82.359
134.919 6648 81.5353
135.037 6452 80.3243
135.154 6476 80.4736
135.272 6167 78.5302
135.389 5990 77.3951
135.507 5965 77.2334
135.624 5690 75.4321
135.742 5356 73.1847
135.859 5409 73.5459
135.977 5338 73.0616
136.094 5342 73.089
136.211 5332 73.0205
136.329 5293 72.753
136.446 5473 73.9797
136.564 5599 74.8265
136.681 5603 74.8532
136.798 5737 75.743
136.915 5643 75.1199
137.033 5465 73.9256
137.15 5429 73.6817
137.267 5207 72.1595
137.384 4901 70.0071
137.502 4924 70.1712
137.619 4835 69.5342
137.736 5232 72.3326
137.853 5360 73.212
137.97 5567 74.6123
138.087 5748 75.8156
138.204 5777 76.0066
138.321 5921 76.948
138.438 6101 78.1089
138.555 6098 78.0897
138.672 6222 78.8797
138.788 6222 78.8797
138.905 6154 78.4474
139.022 6116 78.2049
139.139 6053 77.801
139.255 6058 77.8332
139.372 5799 76.1512
139.488 5729 75.6902
139.605 5773 75.9803
139.721 5790 76.092
139.838 5982 77.3434
139.954 6232 78.943
140.071 6376 79.8499
140.187 6535 80.8393
140.303 6662 81.6211
140.419 6548 80.9197
140.535 6738 82.0853
140.652 6729 82.0305
140.768 0 1
140.884 0 1
141 0 1
141.115 0 1
141.231 0 1
141.347 0 1
141.463 0 1
141.578 0 1
141.694 0 1
144.104 0 1
144.219 0 1
144.335 0 1
144.45 0 1
144.566 0 1
144.682 0 1
144.798 0 1
144.914 0 1
145.03 0 1
145.146 9255 96.2029
145.262 9996 99.98
145.378 10458 102.264
145.494 11176 105.717
145.61 11717 108.245
145.726 12183 110.377
145.842 12397 111.342
145.959 12446 111.562
146.075 12074 109.882
146.192 11934 109.243
146.308 11891 109.046
146.425 12454 111.597
146.541 13584 116.55
146.658 14812 121.705
146.774 15938 126.246
146.891 16991 130.35
147.008 17582 132.597
147.125 18851 137.299
147.241 19443 139.438
147.358 20022 141.499
147.475 20123 141.856
147.592 20462 143.045
147.709 20278 142.401
147.826 19854 140.904
147.943 20253 142.313
148.06 19366 139.162
148.177 19176 138.477
148.294 18764 136.982
148.411 18890 137.441
148.528 19332 139.04
148.645 20352 142.66
148.762 20326 142.569
148.88 20771 144.121
148.997 22386 149.62
149.114 20362 142.695
149.231 21041 145.055
149.349 21018 144.976
149.466 21184 145.547
149.583 19774 140.62
149.701 18419 135.717
149.818 17700 133.041
149.935 17160 130.996
150.053 17053 130.587
150.17 18193 134.881
150.287 18523 136.099
150.405 19238 138.701
150.522 19605 140.018
150.64 20295 142.461
150.757 20215 142.179
150.875 20949 144.738
150.992 21041 145.055
151.11 20820 144.291
151.227 20479 143.105
151.344 20257 142.327
151.462 20222 142.204
151.579 19675 140.268
151.697 19490 139.607
151.814 18907 137.503
151.932 18828 137.215
152.049 19102 138.21
152.167 19365 139.158
152.284 20410 142.864
152.402 21311 145.983
152.519 21712 147.35
152.636 22366 149.553
152.754 22592 150.306
152.871 23015 151.707
152.989 22722 150.738
153.106 22229 149.094
153.223 21080 145.19
153.341 20224 142.211
153.458 19324 139.011
153.575 18796 137.099
153.693 19174 138.47
153.81 20277 142.397
153.927 21199 145.599
154.044 21888 147.946
154.162 22626 150.419
154.279 23425 153.052
154.396 24258 155.75
154.513 24416 156.256
154.63 24826 157.563
154.747 24748 157.315
154.864 24523 156.598
154.981 24481 156.464
155.098 24157 155.425
155.215 24017 154.974
155.332 23287 152.601
155.449 23303 152.653
155.566 22668 150.559
155.683 23463 153.176
155.8 23720 154.013
155.917 24802 157.487
156.033 25836 160.736
156.15 0 1
156.267 0 1
156.383 0 1
156.5 0 1
156.617 0 1
156.733 0 1
156.85 0 1
156.966 0 1
157.082 0 1
157.199 0 1
157.315 0 1
157.431 0 1
157.547 0 1
157.664 0 1
157.78 0 1
157.896 0 1
158.012 0 1
158.128 0 1
158.244 0 1
158.359 0 1
158.475 0 1
158.591 0 1
158.706 0 1
