
6.15755 0 1
6.2731 0 1
6.3887 0 1
6.50437 0 1
6.62009 0 1
6.73587 0 1
6.8517 0 1
6.96759 0 1
7.08353 0 1
7.19952 0 1
7.31557 0 1
7.43166 0 1
7.54781 0 1
7.664 0 1
7.78024 0 1
7.89653 0 1
8.01286 0 1
8.12924 0 1
8.24567 0 1
8.36213 0 1
8.47864 0 1
8.59519 0 1
8.71178 0 1
8.82841 0 1
8.94508 0 1
9.06179 0 1
9.17853 0 1
9.29531 0 1
9.41212 0 1
9.52897 0 1
9.64584 0 1
9.76276 0 1
9.8797 0 1
9.99667 0 1
10.1137 0 1
10.2307 0 1
10.3478 0 1
10.4648 0 1
10.5819 0 1
10.6991 0 1
10.8162 0 1
10.9334 0 1
11.0506 0 1
11.1678 0 1
11.285 0 1
11.4023 0 1
11.5196 0 1
11.6369 0 1
11.7542 0 1
11.8715 0 1
11.9888 0 1
12.1062 0 1
12.2235 0 1
12.3409 0 1
12.4582 0 1
12.5756 0 1
12.693 0 1
12.8104 0 1
12.9278 0 1
13.0452 0 1
13.1626 0 1
13.28 0 1
13.3974 0 1
13.5149 0 1
13.6323 0 1
13.7497 0 1
13.8671 0 1
13.9845 0 1
14.1019 0 1
14.2193 0 1
14.3367 0 1
14.4541 0 1
14.5714 0 1
14.6888 0 1
14.8062 0 1
14.9235 0 1
15.0408 1093 33.0606
15.1581 1112 33.3467
15.2755 1111 33.3317
15.3927 1144 33.8231
15.51 1069 32.6956
15.6273 1018 31.9061
15.7445 1003 31.6702
15.8617 991 31.4802
15.9789 1065 32.6343
16.0961 1012 31.8119
16.2132 981 31.3209
16.3304 951 30.8383
16.4475 964 31.0483
16.5646 1041 32.2645
16.6816 964 31.0483
16.7986 965 31.0644
16.9156 920 30.3315
17.0326 971 31.1609
17.1496 984 31.3688
17.2665 946 30.7571
17.3833 1005 31.7017
17.5002 922 30.3645
17.617 908 30.133
17.7338 972 31.1769
17.8505 932 30.5287
17.9672 929 30.4795
18.0839 858 29.2916
18.2005 898 29.9666
18.3171 936 30.5941
18.4337 932 30.5287
18.5502 947 30.7734
18.6666 959 30.9677
18.7831 951 30.8383
18.8994 991 31.4802
19.0158 914 30.2324
19.1321 834 28.8791
19.2483 774 27.8209
19.3645 792 28.1425
19.4806 783 27.9821
19.5967 753 27.4408
19.7128 749 27.3679
19.8288 714 26.7208
19.9447 693 26.3249
20.0606 0 1
20.1764 0 1
20.2922 0 1
20.4079 0 1
20.5236 0 1
20.6392 0 1
20.7548 0 1
20.8702 0 1
23.3078 0 1
23.4233 0 1
23.539 0 1
23.6547 0 1
23.7704 0 1
23.8862 0 1
24.0021 0 1
24.118 0 1
24.234 0 1
24.35 0 1
24.4661 351 18.735
24.5822 415 20.3715
24.6984 508 22.5389
24.8146 570 23.8747
24.9309 651 25.5147
25.0472 781 27.9464
25.1636 811 28.4781
25.28 894 29.8998
25.3965 970 31.1448
25.513 938 30.6268
25.6296 990 31.4643
25.7462 1080 32.8634
25.8628 1062 32.5883
25.9795 1082 32.8938
26.0962 954 30.8869
26.213 997 31.5753
26.3298 974 31.209
26.4466 930 30.4959
26.5635 873 29.5466
26.6804 835 28.8964
26.7973 813 28.5132
26.9143 826 28.7402
27.0313 852 29.189
27.1483 929 30.4795
27.2653 913 30.2159
27.3824 959 30.9677
27.4996 895 29.9166
27.6167 863 29.3769
27.7339 849 29.1376
27.8511 819 28.6182
27.9683 856 29.2575
28.0855 822 28.6705
28.2028 827 28.7576
28.3201 839 28.9655
28.4374 913 30.2159
28.5547 878 29.6311
28.6721 857 29.2746
28.7894 921 30.348
28.9068 899 29.9833
29.0242 876 29.5973
29.1416 940 30.6594
29.259 882 29.6985
29.3764 931 30.5123
29.4939 847 29.1033
29.6113 872 29.5296
29.7288 848 29.1204
29.8463 862 29.3598
29.9638 795 28.1957
30.0812 814 28.5307
30.1987 797 28.2312
30.3162 754 27.4591
30.4337 834 28.8791
30.5512 843 29.0345
30.6687 897 29.95
30.7862 814 28.5307
30.9037 902 30.0333
31.0212 902 30.0333
31.1387 848 29.1204
31.2562 863 29.3769
31.3737 858 29.2916
31.4912 792 28.1425
31.6087 793 28.1603
31.7262 800 28.2843
31.8436 820 28.6356
31.9611 830 28.8097
32.0785 909 30.1496
32.1959 879 29.6479
32.3134 844 29.0517
32.4308 858 29.2916
32.5482 826 28.7402
32.6655 833 28.8617
32.7829 827 28.7576
32.9002 728 26.9815
33.0176 753 27.4408
33.1349 760 27.5681
33.2522 799 28.2666
33.3694 807 28.4077
33.4867 747 27.3313
33.6039 732 27.0555
33.7211 772 27.7849
33.8383 743 27.258
33.9554 797 28.2312
34.0725 817 28.5832
34.1896 832 28.8444
34.3067 835 28.8964
34.4237 836 28.9137
34.5407 815 28.5482
34.6577 853 29.2062
34.7746 805 28.3725
34.8915 780 27.9285
35.0084 707 26.5895
35.1252 693 26.3249
35.242 730 27.0185
35.3587 745 27.2947
35.4755 709 26.6271
35.5921 719 26.8142
35.7088 798 28.2489
35.8254 807 28.4077
35.9419 779 27.9106
36.0584 788 28.0713
36.1749 753 27.4408
36.2913 696 26.3818
36.4077 738 27.1662
36.524 673 25.9422
36.6403 698 26.4197
36.7565 643 25.3574
36.8727 662 25.7294
36.9889 558 23.622
37.1049 533 23.0868
37.221 0 1
37.3369 0 1
37.4529 0 1
37.5687 0 1
37.6845 0 1
37.8003 0 1
37.916 0 1
38.0316 0 1
38.1472 0 1
40.5851 0 1
40.7008 0 1
40.8164 0 1
40.9322 0 1
41.048 0 1
41.1639 0 1
41.2798 0 1
41.3958 0 1
41.5118 0 1
41.6279 0 1
41.744 318 17.8326
41.8602 369 19.2094
41.9765 370 19.2354
42.0928 477 21.8403
42.2091 491 22.1585
42.3255 553 23.516
42.4419 570 23.8747
42.5584 582 24.1247
42.675 615 24.7992
42.7915 577 24.0208
42.9081 610 24.6982
43.0248 557 23.6008
43.1415 633 25.1595
43.2582 594 24.3721
43.375 713 26.7021
43.4918 622 24.9399
43.6087 603 24.5561
43.7256 614 24.779
43.8425 594 24.3721
43.9595 584 24.1661
44.0765 534 23.1084
44.1935 521 22.8254
44.3106 521 22.8254
44.4277 535 23.1301
44.5448 561 23.6854
44.6619 575 23.9792
44.7791 609 24.6779
44.8963 595 24.3926
45.0136 588 24.2487
45.1308 646 25.4165
45.2481 609 24.6779
45.3654 640 25.2982
45.4827 613 24.7588
45.6001 665 25.7876
45.7174 635 25.1992
45.8348 682 26.1151
45.9522 635 25.1992
46.0697 577 24.0208
46.1871 628 25.0599
46.3046 603 24.5561
46.422 606 24.6171
46.5395 615 24.7992
46.657 605 24.5967
46.7745 578 24.0416
46.892 620 24.8998
47.0096 576 24
47.1271 599 24.4745
47.2446 621 24.9199
47.3622 587 24.2281
47.4797 610 24.6982
47.5973 540 23.2379
47.7149 515 22.6936
47.8324 544 23.3238
47.95 525 22.9129
48.0675 546 23.3666
48.1851 609 24.6779
48.3027 523 22.8692
48.4202 590 24.2899
48.5378 617 24.8395
48.6554 564 23.7487
48.7729 572 23.9165
48.8904 563 23.7276
49.008 621 24.9199
49.1255 625 25
49.243 606 24.6171
49.3605 596 24.4131
49.478 603 24.5561
49.5955 553 23.516
49.713 557 23.6008
49.8304 530 23.0217
49.9479 549 23.4307
50.0653 542 23.2809
50.1827 519 22.7816
50.3001 597 24.4336
50.4175 564 23.7487
50.5348 521 22.8254
50.6521 587 24.2281
50.7694 548 23.4094
50.8867 541 23.2594
51.004 612 24.7386
51.1212 542 23.2809
51.2384 571 23.8956
51.3556 507 22.5167
51.4727 486 22.0454
51.5899 534 23.1084
51.707 597 24.4336
51.824 517 22.7376
51.9411 568 23.8328
52.0581 535 23.1301
52.175 631 25.1197
52.2919 537 23.1733
52.4088 552 23.4947
52.5257 581 24.1039
52.6425 591 24.3105
52.7593 566 23.7908
52.876 609 24.6779
52.9927 588 24.2487
53.1094 539 23.2164
53.226 578 24.0416
53.3426 542 23.2809
53.4591 532 23.0651
53.5756 495 22.2486
53.692 521 22.8254
53.8084 478 21.8632
53.9248 463 21.5174
54.0411 397 19.9249
54.1573 377 19.4165
54.2735 0 1
54.3896 0 1
54.5057 0 1
54.6217 0 1
54.7377 0 1
54.8537 0 1
54.9695 0 1
55.0853 0 1
55.2011 0 1
55.3168 0 1
55.4324 0 1
57.824 0 1
57.9396 0 1
58.0553 0 1
58.1711 0 1
58.2869 0 1
58.4028 0 1
58.5187 0 1
58.6347 0 1
58.7508 0 1
58.8669 0 1
58.983 440 20.9762
59.0992 506 22.4944
59.2155 558 23.622
59.3318 616 24.8193
59.4482 684 26.1534
59.5646 768 27.7128
59.681 825 28.7228
59.7975 754 27.4591
59.9141 803 28.3373
60.0306 851 29.1719
60.1473 808 28.4253
60.2639 850 29.1548
60.3807 841 29
60.4974 843 29.0345
60.6142 769 27.7308
60.731 810 28.4605
60.8479 828 28.775
60.9648 794 28.178
61.0818 828 28.775
61.1987 816 28.5657
61.3158 795 28.1957
61.4328 789 28.0891
61.5499 802 28.3196
61.667 771 27.7669
61.7841 792 28.1425
61.9013 796 28.2135
62.0185 732 27.0555
62.1357 712 26.6833
62.253 714 26.7208
62.3702 726 26.9444
62.4875 681 26.096
62.6049 662 25.7294
62.7222 659 25.671
62.8396 663 25.7488
62.9569 662 25.7294
63.0743 680 26.0768
63.1918 666 25.807
63.3092 671 25.9037
63.4267 664 25.7682
63.5441 700 26.4575
63.6616 634 25.1794
63.7791 616 24.8193
63.8966 584 24.1661
64.0142 625 25
64.1317 573 23.9374
64.2492 581 24.1039
64.3668 643 25.3574
64.4843 679 26.0576
64.6019 688 26.2298
64.7195 623 24.96
64.837 654 25.5734
64.9546 650 25.4951
65.0722 628 25.0599
65.1898 641 25.318
65.3074 622 24.9399
65.4249 630 25.0998
65.5425 602 24.5357
65.6601 574 23.9583
65.7777 631 25.1197
65.8952 622 24.9399
66.0128 619 24.8797
66.1304 635 25.1992
66.2479 616 24.8193
66.3655 605 24.5967
66.483 612 24.7386
66.6005 605 24.5967
66.718 647 25.4362
66.8355 599 24.4745
66.953 648 25.4558
67.0705 622 24.9399
67.1879 643 25.3574
67.3054 585 24.1868
67.4228 554 23.5372
67.5402 542 23.2809
67.6576 566 23.7908
67.7749 593 24.3516
67.8923 597 24.4336
68.0096 626 25.02
68.1269 605 24.5967
68.2442 589 24.2693
68.3614 613 24.7588
68.4787 597 24.4336
68.5958 664 25.7682
68.713 612 24.7386
68.8302 630 25.0998
68.9473 626 25.02
69.0643 618 24.8596
69.1814 560 23.6643
69.2984 626 25.02
69.4154 594 24.3721
69.5323 647 25.4362
69.6492 555 23.5584
69.7661 547 23.388
69.8829 622 24.9399
69.9997 601 24.5153
70.1165 612 24.7386
70.2332 617 24.8395
70.3499 566 23.7908
70.4665 535 23.1301
70.5831 451 21.2368
70.6996 440 20.9762
70.8161 463 21.5174
70.9326 425 20.6155
71.049 377 19.4165
71.1653 350 18.7083
71.2817 300 17.3205
71.3979 283 16.8226
71.5141 276 16.6132
71.6303 240 15.4919
71.7464 187 13.6748
71.8624 0 1
71.9784 0 1
72.0944 0 1
72.2102 0 1
72.3261 0 1
72.4418 0 1
72.5575 0 1
72.6732 0 1
75.1054 0 1
75.2209 0 1
75.3365 0 1
75.4521 0 1
75.5678 0 1
75.6835 0 1
75.7993 0 1
75.9151 0 1
76.031 0 1
76.147 342 18.4932
76.263 418 20.445
76.3791 456 21.3542
76.4952 412 20.2978
76.6113 447 21.1424
76.7276 452 21.2603
76.8438 444 21.0713
76.9601 465 21.5639
77.0765 469 21.6564
77.1929 505 22.4722
77.3093 485 22.0227
77.4258 546 23.3666
77.5423 505 22.4722
77.6589 516 22.7156
77.7755 537 23.1733
77.8921 533 23.0868
78.0088 516 22.7156
78.1256 551 23.4734
78.2423 483 21.9773
78.3591 509 22.561
78.4759 526 22.9347
78.5928 488 22.0907
78.7097 482 21.9545
78.8266 452 21.2603
78.9436 501 22.383
79.0606 500 22.3607
79.1776 475 21.7945
79.2946 551 23.4734
79.4117 544 23.3238
79.5288 517 22.7376
79.6459 534 23.1084
79.7631 537 23.1733
79.8802 526 22.9347
79.9974 497 22.2935
80.1147 498 22.3159
80.2319 492 22.1811
80.3491 466 21.587
80.4664 457 21.3776
80.5837 459 21.4243
80.701 496 22.2711
80.8183 551 23.4734
80.9357 536 23.1517
81.053 511 22.6053
81.1704 555 23.5584
81.2877 530 23.0217
81.4051 561 23.6854
81.5225 565 23.7697
81.6399 551 23.4734
81.7573 564 23.7487
81.8747 526 22.9347
81.9922 513 22.6495
82.1096 552 23.4947
82.227 490 22.1359
82.3444 515 22.6936
82.4619 476 21.8174
82.5793 516 22.7156
82.6967 520 22.8035
82.8142 549 23.4307
82.9316 475 21.7945
83.049 500 22.3607
83.1664 569 23.8537
83.2838 534 23.1084
83.4012 526 22.9347
83.5186 609 24.6779
83.636 534 23.1084
83.7534 544 23.3238
83.8708 531 23.0434
83.9881 485 22.0227
84.1055 464 21.5407
84.2228 477 21.8403
84.3401 491 22.1585
84.4575 472 21.7256
84.5747 542 23.2809
84.692 522 22.8473
84.8093 563 23.7276
84.9265 531 23.0434
85.0437 525 22.9129
85.1609 578 24.0416
85.2781 545 23.3452
85.3952 559 23.6432
85.5123 567 23.8118
85.6294 532 23.0651
85.7465 537 23.1733
85.8636 477 21.8403
85.9806 483 21.9773
86.0976 477 21.8403
86.2145 535 23.1301
86.3315 564 23.7487
86.4484 552 23.4947
86.5652 580 24.0832
86.682 589 24.2693
86.7988 528 22.9783
86.9156 512 22.6274
87.0323 549 23.4307
87.149 527 22.9565
87.2657 575 23.9792
87.3823 514 22.6716
87.4988 499 22.3383
87.6154 450 21.2132
87.7318 439 20.9523
87.8483 414 20.347
87.9647 412 20.2978
88.081 382 19.5448
88.1973 393 19.8242
88.3136 377 19.4165
88.4298 354 18.8149
88.546 345 18.5742
88.6621 336 18.3303
88.7781 308 17.5499
88.8942 0 1
89.0101 0 1
89.126 0 1
89.2419 0 1
89.3577 0 1
89.4734 0 1
89.5891 0 1
89.7047 0 1
89.8203 0 1
89.9358 0 1
92.3269 0 1
92.4424 0 1
92.558 0 1
92.6736 0 1
92.7893 0 1
92.905 0 1
93.0208 0 1
93.1366 0 1
93.2525 0 1
93.3685 0 1
93.4845 0 1
93.6005 433 20.8087
93.7167 471 21.7025
93.8328 521 22.8254
93.949 515 22.6936
94.0653 551 23.4734
94.1816 532 23.0651
94.2979 571 23.8956
94.4143 606 24.6171
94.5307 611 24.7184
94.6472 597 24.4336
94.7637 573 23.9374
94.8803 581 24.1039
94.9969 556 23.5797
95.1135 515 22.6936
95.2302 534 23.1084
95.3469 597 24.4336
95.4637 550 23.4521
95.5805 606 24.6171
95.6973 573 23.9374
95.8142 578 24.0416
95.9311 591 24.3105
96.048 583 24.1454
96.1649 524 22.891
96.2819 582 24.1247
96.3989 557 23.6008
96.516 528 22.9783
96.633 507 22.5167
96.7501 485 22.0227
96.8673 510 22.5832
96.9844 509 22.561
97.1016 499 22.3383
97.2188 503 22.4277
97.336 559 23.6432
97.4532 514 22.6716
97.5704 537 23.1733
97.6877 553 23.516
97.805 597 24.4336
97.9223 618 24.8596
98.0396 593 24.3516
98.1569 610 24.6982
98.2743 622 24.9399
98.3916 549 23.4307
98.509 559 23.6432
98.6264 548 23.4094
98.7438 533 23.0868
98.8612 543 23.3024
98.9786 568 23.8328
99.096 586 24.2074
99.2134 584 24.1661
99.3308 642 25.3377
99.4482 647 25.4362
99.5656 695 26.3629
99.6831 702 26.4953
99.8005 741 27.2213
99.9179 718 26.7955
100.035 747 27.3313
100.153 646 25.4165
100.27 612 24.7386
100.388 616 24.8193
100.505 604 24.5764
100.622 673 25.9422
100.74 706 26.5707
100.857 832 28.8444
100.975 880 29.6648
101.092 866 29.4279
101.209 831 28.8271
101.327 915 30.249
101.444 862 29.3598
101.561 901 30.0167
101.679 887 29.7825
101.796 873 29.5466
101.913 849 29.1376
102.03 787 28.0535
102.148 723 26.8887
102.265 694 26.3439
102.382 651 25.5147
102.499 733 27.074
102.616 753 27.4408
102.733 712 26.6833
102.851 828 28.775
102.968 751 27.4044
103.085 786 28.0357
103.202 792 28.1425
103.319 736 27.1293
103.436 728 26.9815
103.552 671 25.9037
103.669 635 25.1992
103.786 666 25.807
103.903 616 24.8193
104.02 686 26.1916
104.137 658 25.6515
104.253 684 26.1534
104.37 666 25.807
104.487 686 26.1916
104.603 666 25.807
104.72 673 25.9422
104.836 660 25.6905
104.953 619 24.8797
105.069 677 26.0192
105.186 664 25.7682
105.302 598 24.454
105.418 567 23.8118
105.535 530 23.0217
105.651 497 22.2935
105.767 449 21.1896
105.883 406 20.1494
105.999 355 18.8414
106.115 0 1
106.231 0 1
106.347 0 1
106.463 0 1
106.579 0 1
106.694 0 1
106.81 0 1
106.926 0 1
107.041 0 1
107.157 0 1
109.576 0 1
109.692 0 1
109.807 0 1
109.923 0 1
110.039 0 1
110.155 0 1
110.27 0 1
110.386 0 1
110.502 0 1
110.618 342 18.4932
110.735 378 19.4422
110.851 370 19.2354
110.967 403 20.0749
111.083 448 21.166
111.199 528 22.9783
111.316 584 24.1661
111.432 641 25.318
111.549 568 23.8328
111.665 638 25.2587
111.782 629 25.0799
111.898 615 24.7992
112.015 605 24.5967
112.132 648 25.4558
112.248 588 24.2487
112.365 561 23.6854
112.482 559 23.6432
112.599 518 22.7596
112.716 546 23.3666
112.832 596 24.4131
112.949 577 24.0208
113.066 639 25.2784
113.183 584 24.1661
113.3 540 23.2379
113.417 583 24.1454
113.534 573 23.9374
113.652 558 23.622
113.769 588 24.2487
113.886 580 24.0832
114.003 634 25.1794
114.12 594 24.3721
114.238 535 23.1301
114.355 494 22.2261
114.472 462 21.4942
114.589 471 21.7025
114.707 567 23.8118
114.824 525 22.9129
114.942 538 23.1948
115.059 585 24.1868
115.176 554 23.5372
115.294 526 22.9347
115.411 583 24.1454
115.529 524 22.891
115.646 529 23
115.764 480 21.9089
115.881 442 21.0238
115.999 480 21.9089
116.116 452 21.2603
116.234 486 22.0454
116.351 489 22.1133
116.469 502 22.4054
116.586 468 21.6333
116.704 481 21.9317
116.821 486 22.0454
116.939 503 22.4277
117.056 516 22.7156
117.174 492 22.1811
117.291 504 22.4499
117.409 571 23.8956
117.526 501 22.383
117.644 477 21.8403
117.761 521 22.8254
117.879 513 22.6495
117.996 468 21.6333
118.114 494 22.2261
118.231 459 21.4243
118.349 500 22.3607
118.466 517 22.7376
118.584 520 22.8035
118.701 528 22.9783
118.819 517 22.7376
118.936 502 22.4054
119.053 503 22.4277
119.171 482 21.9545
119.288 507 22.5167
119.405 471 21.7025
119.523 410 20.2485
119.64 395 19.8746
119.757 469 21.6564
119.875 462 21.4942
119.992 459 21.4243
120.109 481 21.9317
120.226 459 21.4243
120.343 482 21.9545
120.46 461 21.4709
120.578 484 22
120.695 455 21.3307
120.812 457 21.3776
120.929 480 21.9089
121.046 510 22.5832
121.163 506 22.4944
121.279 489 22.1133
121.396 483 21.9773
121.513 440 20.9762
121.63 420 20.4939
121.747 397 19.9249
121.863 431 20.7605
121.98 415 20.3715
122.097 410 20.2485
122.213 399 19.975
122.33 423 20.567
122.446 426 20.6398
122.563 380 19.4936
122.679 375 19.3649
122.795 346 18.6011
122.912 293 17.1172
123.028 312 17.6635
123.144 250 15.8114
123.26 201 14.1774
123.377 0 1
123.493 0 1
123.609 0 1
123.725 0 1
123.84 0 1
123.956 0 1
124.072 0 1
124.188 0 1
124.303 0 1
124.419 0 1
126.852 0 1
126.968 0 1
127.083 0 1
127.199 0 1
127.315 0 1
127.431 0 1
127.547 0 1
127.663 0 1
127.779 0 1
127.895 0 1
128.011 0 1
128.127 0 1
128.243 0 1
128.359 479 21.8861
128.476 495 22.2486
128.592 451 21.2368
128.708 457 21.3776
128.825 506 22.4944
128.941 507 22.5167
129.058 563 23.7276
129.174 551 23.4734
129.291 535 23.1301
129.408 516 22.7156
129.524 546 23.3666
129.641 584 24.1661
129.758 547 23.388
129.875 559 23.6432
129.992 556 23.5797
130.108 584 24.1661
130.225 580 24.0832
130.342 557 23.6008
130.459 577 24.0208
130.576 544 23.3238
130.693 530 23.0217
130.81 588 24.2487
130.928 572 23.9165
131.045 636 25.219
131.162 660 25.6905
131.279 684 26.1534
131.396 706 26.5707
131.513 764 27.6405
131.631 763 27.6225
131.748 772 27.7849
131.865 756 27.4955
131.983 761 27.5862
132.1 816 28.5657
132.217 722 26.8701
132.335 803 28.3373
132.452 838 28.9482
132.57 892 29.8664
132.687 925 30.4138
132.804 1088 32.9848
132.922 1078 32.8329
133.039 1073 32.7567
133.157 1095 33.0908
133.274 1115 33.3916
133.392 1142 33.7935
133.509 1091 33.0303
133.627 1133 33.6601
133.744 1194 34.5543
133.862 1161 34.0735
133.979 1118 33.4365
134.097 1033 32.1403
134.214 1019 31.9218
134.332 1043 32.2955
134.449 1059 32.5423
134.567 1162 34.0881
134.684 1170 34.2053
134.802 1243 35.2562
134.919 1269 35.623
135.037 1318 36.3043
135.154 1296 36
135.272 1409 37.5366
135.389 1396 37.3631
135.507 1323 36.3731
135.624 1254 35.4119
135.742 1217 34.8855
135.859 1348 36.7151
135.977 1359 36.8646
136.094 1343 36.647
136.211 1365 36.9459
136.329 1369 37
136.446 1392 37.3095
136.564 1394 37.3363
136.681 1365 36.9459
136.798 1382 37.1753
136.915 1387 37.2424
137.033 1354 36.7967
137.15 1345 36.6742
137.267 1417 37.6431
137.384 1327 36.428
137.502 1282 35.805
137.619 1166 34.1467
137.736 1051 32.4191
137.853 954 30.8869
137.97 987 31.4166
138.087 1134 33.6749
138.204 1106 33.2566
138.321 1169 34.1906
138.438 1239 35.1994
138.555 1279 35.7631
138.672 1269 35.623
138.788 1244 35.2704
138.905 1279 35.7631
139.022 1173 34.2491
139.139 1165 34.1321
139.255 1017 31.8904
139.372 999 31.607
139.488 872 29.5296
139.605 867 29.4449
139.721 865 29.4109
139.838 873 29.5466
139.954 785 28.0179
140.071 797 28.2312
140.187 755 27.4773
140.303 707 26.5895
140.419 709 26.6271
140.535 676 26
140.652 642 25.3377
140.768 0 1
140.884 0 1
141 0 1
141.115 0 1
141.231 0 1
141.347 0 1
141.463 0 1
141.578 0 1
141.694 0 1
144.104 0 1
144.219 0 1
144.335 0 1
144.45 0 1
144.566 0 1
144.682 0 1
144.798 0 1
144.914 0 1
145.03 0 1
145.146 1240 35.2136
145.262 1371 37.027
145.378 1513 38.8973
145.494 1480 38.4708
145.61 1640 40.4969
145.726 1797 42.391
145.842 1939 44.0341
145.959 2041 45.1774
146.075 2170 46.5833
146.192 2331 48.2804
146.308 2369 48.6724
146.425 2495 49.95
146.541 2572 50.7149
146.658 2669 51.6624
146.774 2870 53.5724
146.891 2986 54.6443
147.008 3148 56.107
147.125 3261 57.1052
147.241 3370 58.0517
147.358 3457 58.7963
147.475 3464 58.8558
147.592 3560 59.6657
147.709 3485 59.0339
147.826 3342 57.81
147.943 2793 52.8488
148.06 2221 47.1275
148.177 2064 45.4313
148.294 2450 49.4975
148.411 3144 56.0714
148.528 3591 59.925
148.645 4146 64.3894
148.762 4595 67.7864
148.88 5124 71.5821
148.997 5722 75.6439
149.114 6223 78.886
149.231 6618 81.3511
149.349 7220 84.9706
149.466 7698 87.7382
149.583 8573 92.5905
149.701 9170 95.7601
149.818 9806 99.0252
149.935 10315 101.563
150.053 10918 104.489
150.17 11631 107.847
150.287 12310 110.95
150.405 12945 113.776
150.522 13617 116.692
150.64 13795 117.452
150.757 13851 117.69
150.875 14343 119.762
150.992 15339 123.851
151.11 15543 124.672
151.227 15970 126.372
151.344 16089 126.842
151.462 15522 124.587
151.579 13541 116.366
151.697 9708 98.5292
151.814 7514 86.6833
151.932 8331 91.2743
152.049 11426 106.892
152.167 14765 121.511
152.284 16096 126.87
152.402 16693 129.201
152.519 16630 128.957
152.636 16563 128.697
152.754 16091 126.85
152.871 16154 127.098
152.989 15870 125.976
153.106 16323 127.761
153.223 16515 128.511
153.341 17015 130.442
153.458 17717 133.105
153.575 17683 132.977
153.693 18024 134.253
153.81 18291 135.244
153.927 18655 136.583
154.044 19428 139.384
154.162 19949 141.241
154.279 21541 146.769
154.396 24487 156.483
154.513 26591 163.067
154.63 27576 166.06
154.747 27850 166.883
154.864 27390 165.499
154.981 26140 161.679
155.098 25886 160.891
155.215 28893 169.979
155.332 32894 181.367
155.449 36539 191.152
155.566 39258 198.136
155.683 40331 200.826
155.8 41373 203.404
155.917 42048 205.056
156.033 43398 208.322
156.15 0 1
156.267 0 1
156.383 0 1
156.5 0 1
156.617 0 1
156.733 0 1
156.85 0 1
156.966 0 1
157.082 0 1
157.199 0 1
157.315 0 1
157.431 0 1
157.547 0 1
157.664 0 1
157.78 0 1
157.896 0 1
158.012 0 1
158.128 0 1
158.244 0 1
158.359 0 1
158.475 0 1
158.591 0 1
158.706 0 1
