
6.15755 0 1
6.2731 0 1
6.3887 0 1
6.50437 0 1
6.62009 0 1
6.73587 0 1
6.8517 0 1
6.96759 0 1
7.08353 0 1
7.19952 0 1
7.31557 0 1
7.43166 0 1
7.54781 0 1
7.664 0 1
7.78024 0 1
7.89653 0 1
8.01286 0 1
8.12924 0 1
8.24567 0 1
8.36213 0 1
8.47864 0 1
8.59519 0 1
8.71178 0 1
8.82841 0 1
8.94508 0 1
9.06179 0 1
9.17853 0 1
9.29531 0 1
9.41212 0 1
9.52897 0 1
9.64584 0 1
9.76276 0 1
9.8797 0 1
9.99667 0 1
10.1137 0 1
10.2307 0 1
10.3478 0 1
10.4648 0 1
10.5819 0 1
10.6991 0 1
10.8162 0 1
10.9334 0 1
11.0506 0 1
11.1678 0 1
11.285 0 1
11.4023 0 1
11.5196 0 1
11.6369 0 1
11.7542 0 1
11.8715 0 1
11.9888 0 1
12.1062 0 1
12.2235 0 1
12.3409 0 1
12.4582 0 1
12.5756 0 1
12.693 0 1
12.8104 0 1
12.9278 0 1
13.0452 0 1
13.1626 0 1
13.28 0 1
13.3974 0 1
13.5149 0 1
13.6323 0 1
13.7497 0 1
13.8671 0 1
13.9845 0 1
14.1019 0 1
14.2193 0 1
14.3367 0 1
14.4541 0 1
14.5714 0 1
14.6888 0 1
14.8062 0 1
14.9235 0 1
15.0408 924 30.3974
15.1581 962 31.0161
15.2755 1048 32.3728
15.3927 972 31.1769
15.51 929 30.4795
15.6273 868 29.4618
15.7445 928 30.4631
15.8617 933 30.545
15.9789 924 30.3974
16.0961 878 29.6311
16.2132 894 29.8998
16.3304 888 29.7993
16.4475 836 28.9137
16.5646 843 29.0345
16.6816 831 28.8271
16.7986 839 28.9655
16.9156 876 29.5973
17.0326 844 29.0517
17.1496 847 29.1033
17.2665 844 29.0517
17.3833 774 27.8209
17.5002 805 28.3725
17.617 797 28.2312
17.7338 832 28.8444
17.8505 862 29.3598
17.9672 874 29.5635
18.0839 861 29.3428
18.2005 867 29.4449
18.3171 842 29.0172
18.4337 806 28.3901
18.5502 774 27.8209
18.6666 777 27.8747
18.7831 828 28.775
18.8994 815 28.5482
19.0158 729 27
19.1321 727 26.9629
19.2483 685 26.1725
19.3645 735 27.1109
19.4806 738 27.1662
19.5967 691 26.2869
19.7128 619 24.8797
19.8288 548 23.4094
19.9447 503 22.4277
20.0606 0 1
20.1764 0 1
20.2922 0 1
20.4079 0 1
20.5236 0 1
20.6392 0 1
20.7548 0 1
20.8702 0 1
23.3078 0 1
23.4233 0 1
23.539 0 1
23.6547 0 1
23.7704 0 1
23.8862 0 1
24.0021 0 1
24.118 0 1
24.234 0 1
24.35 0 1
24.4661 355 18.8414
24.5822 405 20.1246
24.6984 457 21.3776
24.8146 508 22.5389
24.9309 515 22.6936
25.0472 667 25.8263
25.1636 657 25.632
25.28 696 26.3818
25.3965 852 29.189
25.513 896 29.9333
25.6296 842 29.0172
25.7462 904 30.0666
25.8628 883 29.7153
25.9795 884 29.7321
26.0962 833 28.8617
26.213 875 29.5804
26.3298 852 29.189
26.4466 794 28.178
26.5635 747 27.3313
26.6804 792 28.1425
26.7973 788 28.0713
26.9143 728 26.9815
27.0313 705 26.5518
27.1483 703 26.5141
27.2653 693 26.3249
27.3824 777 27.8747
27.4996 796 28.2135
27.6167 783 27.9821
27.7339 740 27.2029
27.8511 711 26.6646
27.9683 757 27.5136
28.0855 799 28.2666
28.2028 809 28.4429
28.3201 781 27.9464
28.4374 737 27.1477
28.5547 692 26.3059
28.6721 729 27
28.7894 761 27.5862
28.9068 762 27.6043
29.0242 817 28.5832
29.1416 787 28.0535
29.259 735 27.1109
29.3764 750 27.3861
29.4939 743 27.258
29.6113 736 27.1293
29.7288 772 27.7849
29.8463 710 26.6458
29.9638 774 27.8209
30.0812 727 26.9629
30.1987 710 26.6458
30.3162 698 26.4197
30.4337 776 27.8568
30.5512 692 26.3059
30.6687 707 26.5895
30.7862 712 26.6833
30.9037 770 27.7489
31.0212 793 28.1603
31.1387 756 27.4955
31.2562 749 27.3679
31.3737 735 27.1109
31.4912 724 26.9072
31.6087 737 27.1477
31.7262 794 28.178
31.8436 713 26.7021
31.9611 687 26.2107
32.0785 741 27.2213
32.1959 711 26.6646
32.3134 686 26.1916
32.4308 654 25.5734
32.5482 713 26.7021
32.6655 628 25.0599
32.7829 675 25.9808
32.9002 636 25.219
33.0176 712 26.6833
33.1349 672 25.923
33.2522 689 26.2488
33.3694 637 25.2389
33.4867 685 26.1725
33.6039 702 26.4953
33.7211 715 26.7395
33.8383 717 26.7769
33.9554 670 25.8844
34.0725 680 26.0768
34.1896 663 25.7488
34.3067 651 25.5147
34.4237 621 24.9199
34.5407 706 26.5707
34.6577 714 26.7208
34.7746 685 26.1725
34.8915 680 26.0768
35.0084 655 25.593
35.1252 635 25.1992
35.242 740 27.2029
35.3587 695 26.3629
35.4755 696 26.3818
35.5921 698 26.4197
35.7088 653 25.5539
35.8254 625 25
35.9419 599 24.4745
36.0584 678 26.0384
36.1749 677 26.0192
36.2913 636 25.219
36.4077 643 25.3574
36.524 619 24.8797
36.6403 612 24.7386
36.7565 561 23.6854
36.8727 547 23.388
36.9889 504 22.4499
37.1049 431 20.7605
37.221 0 1
37.3369 0 1
37.4529 0 1
37.5687 0 1
37.6845 0 1
37.8003 0 1
37.916 0 1
38.0316 0 1
38.1472 0 1
40.5851 0 1
40.7008 0 1
40.8164 0 1
40.9322 0 1
41.048 0 1
41.1639 0 1
41.2798 0 1
41.3958 0 1
41.5118 0 1
41.6279 0 1
41.744 262 16.1864
41.8602 344 18.5472
41.9765 364 19.0788
42.0928 411 20.2731
42.2091 451 21.2368
42.3255 493 22.2036
42.4419 489 22.1133
42.5584 533 23.0868
42.675 521 22.8254
42.7915 519 22.7816
42.9081 505 22.4722
43.0248 498 22.3159
43.1415 506 22.4944
43.2582 535 23.1301
43.375 514 22.6716
43.4918 533 23.0868
43.6087 530 23.0217
43.7256 528 22.9783
43.8425 531 23.0434
43.9595 550 23.4521
44.0765 541 23.2594
44.1935 553 23.516
44.3106 525 22.9129
44.4277 517 22.7376
44.5448 485 22.0227
44.6619 487 22.0681
44.7791 470 21.6795
44.8963 488 22.0907
45.0136 522 22.8473
45.1308 528 22.9783
45.2481 515 22.6936
45.3654 534 23.1084
45.4827 541 23.2594
45.6001 569 23.8537
45.7174 587 24.2281
45.8348 547 23.388
45.9522 573 23.9374
46.0697 614 24.779
46.1871 584 24.1661
46.3046 538 23.1948
46.422 500 22.3607
46.5395 491 22.1585
46.657 473 21.7486
46.7745 483 21.9773
46.892 507 22.5167
47.0096 502 22.4054
47.1271 513 22.6495
47.2446 537 23.1733
47.3622 535 23.1301
47.4797 544 23.3238
47.5973 521 22.8254
47.7149 448 21.166
47.8324 507 22.5167
47.95 507 22.5167
48.0675 454 21.3073
48.1851 462 21.4942
48.3027 440 20.9762
48.4202 486 22.0454
48.5378 454 21.3073
48.6554 485 22.0227
48.7729 523 22.8692
48.8904 506 22.4944
49.008 493 22.2036
49.1255 564 23.7487
49.243 526 22.9347
49.3605 508 22.5389
49.478 529 23
49.5955 498 22.3159
49.713 483 21.9773
49.8304 494 22.2261
49.9479 462 21.4942
50.0653 416 20.3961
50.1827 421 20.5183
50.3001 425 20.6155
50.4175 494 22.2261
50.5348 452 21.2603
50.6521 482 21.9545
50.7694 552 23.4947
50.8867 510 22.5832
51.004 453 21.2838
51.1212 489 22.1133
51.2384 490 22.1359
51.3556 503 22.4277
51.4727 452 21.2603
51.5899 397 19.9249
51.707 448 21.166
51.824 411 20.2731
51.9411 506 22.4944
52.0581 449 21.1896
52.175 507 22.5167
52.2919 497 22.2935
52.4088 464 21.5407
52.5257 497 22.2935
52.6425 513 22.6495
52.7593 514 22.6716
52.876 515 22.6936
52.9927 510 22.5832
53.1094 480 21.9089
53.226 480 21.9089
53.3426 467 21.6102
53.4591 488 22.0907
53.5756 454 21.3073
53.692 418 20.445
53.8084 357 18.8944
53.9248 351 18.735
54.0411 341 18.4662
54.1573 308 17.5499
54.2735 0 1
54.3896 0 1
54.5057 0 1
54.6217 0 1
54.7377 0 1
54.8537 0 1
54.9695 0 1
55.0853 0 1
55.2011 0 1
55.3168 0 1
55.4324 0 1
57.824 0 1
57.9396 0 1
58.0553 0 1
58.1711 0 1
58.2869 0 1
58.4028 0 1
58.5187 0 1
58.6347 0 1
58.7508 0 1
58.8669 0 1
58.983 498 22.3159
59.0992 683 26.1343
59.2155 747 27.3313
59.3318 910 30.1662
59.4482 947 30.7734
59.5646 1061 32.573
59.681 1158 34.0294
59.7975 1256 35.4401
59.9141 1285 35.8469
60.0306 1335 36.5377
60.1473 1297 36.0139
60.2639 1268 35.609
60.3807 1242 35.242
60.4974 1089 33
60.6142 1257 35.4542
60.731 1626 40.3237
60.8479 2029 45.0444
60.9648 2645 51.4296
61.0818 3264 57.1314
61.1987 3797 61.6198
61.3158 4499 67.0746
61.4328 4901 70.0071
61.5499 5326 72.9794
61.667 5785 76.0592
61.7841 5741 75.7694
61.9013 6034 77.6788
62.0185 5680 75.3658
62.1357 5036 70.9648
62.253 4346 65.9242
62.3702 3452 58.7537
62.4875 2837 53.2635
62.6049 2550 50.4975
62.7222 2289 47.8435
62.8396 2015 44.8888
62.9569 1877 43.3244
63.0743 1687 41.0731
63.1918 1546 39.3192
63.3092 1378 37.1214
63.4267 1241 35.2278
63.5441 1141 33.7787
63.6616 1016 31.8748
63.7791 950 30.8221
63.8966 858 29.2916
64.0142 772 27.7849
64.1317 726 26.9444
64.2492 673 25.9422
64.3668 695 26.3629
64.4843 648 25.4558
64.6019 645 25.3969
64.7195 642 25.3377
64.837 642 25.3377
64.9546 696 26.3818
65.0722 622 24.9399
65.1898 625 25
65.3074 677 26.0192
65.4249 646 25.4165
65.5425 646 25.4165
65.6601 549 23.4307
65.7777 596 24.4131
65.8952 575 23.9792
66.0128 596 24.4131
66.1304 558 23.622
66.2479 562 23.7065
66.3655 587 24.2281
66.483 573 23.9374
66.6005 587 24.2281
66.718 675 25.9808
66.8355 639 25.2784
66.953 598 24.454
67.0705 621 24.9199
67.1879 618 24.8596
67.3054 568 23.8328
67.4228 541 23.2594
67.5402 519 22.7816
67.6576 531 23.0434
67.7749 551 23.4734
67.8923 610 24.6982
68.0096 533 23.0868
68.1269 594 24.3721
68.2442 632 25.1396
68.3614 565 23.7697
68.4787 646 25.4165
68.5958 579 24.0624
68.713 625 25
68.8302 616 24.8193
68.9473 683 26.1343
69.0643 599 24.4745
69.1814 611 24.7184
69.2984 601 24.5153
69.4154 534 23.1084
69.5323 550 23.4521
69.6492 503 22.4277
69.7661 533 23.0868
69.8829 594 24.3721
69.9997 546 23.3666
70.1165 605 24.5967
70.2332 569 23.8537
70.3499 566 23.7908
70.4665 517 22.7376
70.5831 513 22.6495
70.6996 467 21.6102
70.8161 457 21.3776
70.9326 387 19.6723
71.049 343 18.5203
71.1653 304 17.4356
71.2817 285 16.8819
71.3979 293 17.1172
71.5141 289 17
71.6303 243 15.5885
71.7464 202 14.2127
71.8624 0 1
71.9784 0 1
72.0944 0 1
72.2102 0 1
72.3261 0 1
72.4418 0 1
72.5575 0 1
72.6732 0 1
75.1054 0 1
75.2209 0 1
75.3365 0 1
75.4521 0 1
75.5678 0 1
75.6835 0 1
75.7993 0 1
75.9151 0 1
76.031 0 1
76.147 378 19.4422
76.263 407 20.1742
76.3791 416 20.3961
76.4952 402 20.0499
76.6113 400 20
76.7276 393 19.8242
76.8438 467 21.6102
76.9601 476 21.8174
77.0765 478 21.8632
77.1929 510 22.5832
77.3093 522 22.8473
77.4258 508 22.5389
77.5423 512 22.6274
77.6589 472 21.7256
77.7755 506 22.4944
77.8921 511 22.6053
78.0088 500 22.3607
78.1256 548 23.4094
78.2423 482 21.9545
78.3591 450 21.2132
78.4759 421 20.5183
78.5928 431 20.7605
78.7097 425 20.6155
78.8266 418 20.445
78.9436 429 20.7123
79.0606 487 22.0681
79.1776 459 21.4243
79.2946 493 22.2036
79.4117 475 21.7945
79.5288 490 22.1359
79.6459 532 23.0651
79.7631 510 22.5832
79.8802 514 22.6716
79.9974 481 21.9317
80.1147 421 20.5183
80.2319 500 22.3607
80.3491 459 21.4243
80.4664 460 21.4476
80.5837 537 23.1733
80.701 511 22.6053
80.8183 519 22.7816
80.9357 508 22.5389
81.053 488 22.0907
81.1704 521 22.8254
81.2877 508 22.5389
81.4051 518 22.7596
81.5225 538 23.1948
81.6399 543 23.3024
81.7573 575 23.9792
81.8747 480 21.9089
81.9922 495 22.2486
82.1096 461 21.4709
82.227 404 20.0998
82.3444 437 20.9045
82.4619 481 21.9317
82.5793 519 22.7816
82.6967 493 22.2036
82.8142 544 23.3238
82.9316 534 23.1084
83.049 487 22.0681
83.1664 529 23
83.2838 558 23.622
83.4012 531 23.0434
83.5186 486 22.0454
83.636 516 22.7156
83.7534 466 21.587
83.8708 476 21.8174
83.9881 490 22.1359
84.1055 534 23.1084
84.2228 458 21.4009
84.3401 502 22.4054
84.4575 530 23.0217
84.5747 469 21.6564
84.692 470 21.6795
84.8093 526 22.9347
84.9265 486 22.0454
85.0437 549 23.4307
85.1609 522 22.8473
85.2781 519 22.7816
85.3952 507 22.5167
85.5123 493 22.2036
85.6294 464 21.5407
85.7465 453 21.2838
85.8636 459 21.4243
85.9806 434 20.8327
86.0976 528 22.9783
86.2145 508 22.5389
86.3315 562 23.7065
86.4484 495 22.2486
86.5652 507 22.5167
86.682 494 22.2261
86.7988 503 22.4277
86.9156 530 23.0217
87.0323 495 22.2486
87.149 516 22.7156
87.2657 495 22.2486
87.3823 483 21.9773
87.4988 463 21.5174
87.6154 460 21.4476
87.7318 461 21.4709
87.8483 426 20.6398
87.9647 418 20.445
88.081 384 19.5959
88.1973 410 20.2485
88.3136 351 18.735
88.4298 340 18.4391
88.546 315 17.7482
88.6621 305 17.4642
88.7781 252 15.8745
88.8942 0 1
89.0101 0 1
89.126 0 1
89.2419 0 1
89.3577 0 1
89.4734 0 1
89.5891 0 1
89.7047 0 1
89.8203 0 1
89.9358 0 1
92.3269 0 1
92.4424 0 1
92.558 0 1
92.6736 0 1
92.7893 0 1
92.905 0 1
93.0208 0 1
93.1366 0 1
93.2525 0 1
93.3685 0 1
93.4845 0 1
93.6005 380 19.4936
93.7167 440 20.9762
93.8328 417 20.4206
93.949 500 22.3607
94.0653 469 21.6564
94.1816 535 23.1301
94.2979 482 21.9545
94.4143 524 22.891
94.5307 511 22.6053
94.6472 491 22.1585
94.7637 514 22.6716
94.8803 485 22.0227
94.9969 457 21.3776
95.1135 500 22.3607
95.2302 496 22.2711
95.3469 503 22.4277
95.4637 545 23.3452
95.5805 568 23.8328
95.6973 500 22.3607
95.8142 481 21.9317
95.9311 469 21.6564
96.048 521 22.8254
96.1649 496 22.2711
96.2819 517 22.7376
96.3989 458 21.4009
96.516 478 21.8632
96.633 508 22.5389
96.7501 478 21.8632
96.8673 483 21.9773
96.9844 524 22.891
97.1016 544 23.3238
97.2188 555 23.5584
97.336 491 22.1585
97.4532 515 22.6936
97.5704 525 22.9129
97.6877 530 23.0217
97.805 566 23.7908
97.9223 536 23.1517
98.0396 535 23.1301
98.1569 509 22.561
98.2743 560 23.6643
98.3916 495 22.2486
98.509 470 21.6795
98.6264 465 21.5639
98.7438 551 23.4734
98.8612 488 22.0907
98.9786 580 24.0832
99.096 585 24.1868
99.2134 578 24.0416
99.3308 576 24
99.4482 542 23.2809
99.5656 575 23.9792
99.6831 596 24.4131
99.8005 509 22.561
99.9179 538 23.1948
100.035 497 22.2935
100.153 527 22.9565
100.27 510 22.5832
100.388 509 22.561
100.505 543 23.3024
100.622 561 23.6854
100.74 537 23.1733
100.857 493 22.2036
100.975 529 23
101.092 571 23.8956
101.209 542 23.2809
101.327 605 24.5967
101.444 550 23.4521
101.561 557 23.6008
101.679 527 22.9565
101.796 512 22.6274
101.913 532 23.0651
102.03 515 22.6936
102.148 538 23.1948
102.265 561 23.6854
102.382 519 22.7816
102.499 555 23.5584
102.616 577 24.0208
102.733 586 24.2074
102.851 579 24.0624
102.968 597 24.4336
103.085 580 24.0832
103.202 603 24.5561
103.319 531 23.0434
103.436 554 23.5372
103.552 546 23.3666
103.669 579 24.0624
103.786 540 23.2379
103.903 553 23.516
104.02 552 23.4947
104.137 570 23.8747
104.253 556 23.5797
104.37 570 23.8747
104.487 541 23.2594
104.603 573 23.9374
104.72 561 23.6854
104.836 521 22.8254
104.953 578 24.0416
105.069 494 22.2261
105.186 537 23.1733
105.302 496 22.2711
105.418 459 21.4243
105.535 404 20.0998
105.651 402 20.0499
105.767 348 18.6548
105.883 302 17.3781
105.999 333 18.2483
106.115 0 1
106.231 0 1
106.347 0 1
106.463 0 1
106.579 0 1
106.694 0 1
106.81 0 1
106.926 0 1
107.041 0 1
107.157 0 1
109.576 0 1
109.692 0 1
109.807 0 1
109.923 0 1
110.039 0 1
110.155 0 1
110.27 0 1
110.386 0 1
110.502 0 1
110.618 288 16.9706
110.735 310 17.6068
110.851 339 18.412
110.967 379 19.4679
111.083 470 21.6795
111.199 507 22.5167
111.316 501 22.383
111.432 507 22.5167
111.549 546 23.3666
111.665 522 22.8473
111.782 538 23.1948
111.898 515 22.6936
112.015 527 22.9565
112.132 516 22.7156
112.248 514 22.6716
112.365 514 22.6716
112.482 523 22.8692
112.599 454 21.3073
112.716 514 22.6716
112.832 507 22.5167
112.949 513 22.6495
113.066 486 22.0454
113.183 545 23.3452
113.3 524 22.891
113.417 483 21.9773
113.534 469 21.6564
113.652 494 22.2261
113.769 504 22.4499
113.886 460 21.4476
114.003 450 21.2132
114.12 465 21.5639
114.238 465 21.5639
114.355 479 21.8861
114.472 438 20.9284
114.589 468 21.6333
114.707 442 21.0238
114.824 530 23.0217
114.942 489 22.1133
115.059 480 21.9089
115.176 460 21.4476
115.294 430 20.7364
115.411 435 20.8567
115.529 472 21.7256
115.646 432 20.7846
115.764 500 22.3607
115.881 455 21.3307
115.999 473 21.7486
116.116 461 21.4709
116.234 474 21.7715
116.351 429 20.7123
116.469 454 21.3073
116.586 413 20.3224
116.704 449 21.1896
116.821 457 21.3776
116.939 431 20.7605
117.056 450 21.2132
117.174 421 20.5183
117.291 409 20.2237
117.409 461 21.4709
117.526 428 20.6882
117.644 442 21.0238
117.761 409 20.2237
117.879 439 20.9523
117.996 405 20.1246
118.114 440 20.9762
118.231 426 20.6398
118.349 400 20
118.466 502 22.4054
118.584 459 21.4243
118.701 451 21.2368
118.819 452 21.2603
118.936 446 21.1187
119.053 410 20.2485
119.171 402 20.0499
119.288 413 20.3224
119.405 429 20.7123
119.523 476 21.8174
119.64 405 20.1246
119.757 422 20.5426
119.875 451 21.2368
119.992 438 20.9284
120.109 395 19.8746
120.226 441 21
120.343 408 20.199
120.46 435 20.8567
120.578 443 21.0476
120.695 450 21.2132
120.812 419 20.4695
120.929 412 20.2978
121.046 461 21.4709
121.163 366 19.1311
121.279 403 20.0749
121.396 355 18.8414
121.513 365 19.105
121.63 402 20.0499
121.747 351 18.735
121.863 345 18.5742
121.98 412 20.2978
122.097 397 19.9249
122.213 388 19.6977
122.33 350 18.7083
122.446 354 18.8149
122.563 264 16.2481
122.679 301 17.3494
122.795 244 15.6205
122.912 225 15
123.028 243 15.5885
123.144 240 15.4919
123.26 222 14.8997
123.377 0 1
123.493 0 1
123.609 0 1
123.725 0 1
123.84 0 1
123.956 0 1
124.072 0 1
124.188 0 1
124.303 0 1
124.419 0 1
126.852 0 1
126.968 0 1
127.083 0 1
127.199 0 1
127.315 0 1
127.431 0 1
127.547 0 1
127.663 0 1
127.779 0 1
127.895 0 1
128.011 0 1
128.127 0 1
128.243 0 1
128.359 407 20.1742
128.476 442 21.0238
128.592 494 22.2261
128.708 501 22.383
128.825 488 22.0907
128.941 526 22.9347
129.058 482 21.9545
129.174 508 22.5389
129.291 507 22.5167
129.408 622 24.9399
129.524 640 25.2982
129.641 801 28.3019
129.758 944 30.7246
129.875 1192 34.5254
129.992 1537 39.2046
130.108 1977 44.4635
130.225 2340 48.3735
130.342 3037 55.109
130.459 3587 59.8916
130.576 4226 65.0077
130.693 5214 72.208
130.81 6048 77.7689
130.928 7358 85.7788
131.045 8859 94.1223
131.162 10430 102.127
131.279 12185 110.386
131.396 13840 117.644
131.513 15340 123.855
131.631 18008 134.194
131.748 20930 144.672
131.865 24951 157.959
131.983 29395 171.45
132.1 33672 183.499
132.217 37813 194.456
132.335 42254 205.558
132.452 45809 214.03
132.57 49355 222.16
132.687 51355 226.616
132.804 53987 232.351
132.922 54115 232.626
133.039 54505 233.463
133.157 54146 232.693
133.274 53889 232.14
133.392 51910 227.838
133.509 49665 222.856
133.627 47780 218.586
133.744 45184 212.565
133.862 44398 210.708
133.979 44167 210.159
134.097 44811 211.686
134.214 44567 211.109
134.332 43591 208.785
134.449 42091 205.161
134.567 39234 198.076
134.684 36509 191.073
134.802 35642 188.791
134.919 35741 189.053
135.037 35442 188.26
135.154 34671 186.202
135.272 33265 182.387
135.389 31896 178.595
135.507 30943 175.906
135.624 30559 174.811
135.742 29452 171.616
135.859 28188 167.893
135.977 26987 164.277
136.094 25961 161.124
136.211 24843 157.617
136.329 23479 153.229
136.446 21593 146.946
136.564 19935 141.191
136.681 18902 137.485
136.798 17184 131.088
136.915 16028 126.602
137.033 15129 123
137.15 14164 119.013
137.267 12971 113.89
137.384 11598 107.694
137.502 9974 99.8699
137.619 8898 94.3292
137.736 8170 90.3881
137.853 7257 85.188
137.97 7247 85.1293
138.087 6989 83.6002
138.204 6324 79.5236
138.321 5787 76.0723
138.438 5521 74.3034
138.555 5622 74.98
138.672 5567 74.6123
138.788 5375 73.3144
138.905 5094 71.3723
139.022 4538 67.3647
139.139 4262 65.284
139.255 4049 63.6318
139.372 3794 61.5955
139.488 3375 58.0948
139.605 3038 55.1181
139.721 2750 52.4404
139.838 2567 50.6656
139.954 2516 50.1597
140.071 2215 47.0638
140.187 2088 45.6946
140.303 1963 44.3058
140.419 1829 42.7668
140.535 1727 41.5572
140.652 1655 40.6817
140.768 0 1
140.884 0 1
141 0 1
141.115 0 1
141.231 0 1
141.347 0 1
141.463 0 1
141.578 0 1
141.694 0 1
144.104 0 1
144.219 0 1
144.335 0 1
144.45 0 1
144.566 0 1
144.682 0 1
144.798 0 1
144.914 0 1
145.03 0 1
145.146 1258 35.4683
145.262 1439 37.9342
145.378 1486 38.5487
145.494 1361 36.8917
145.61 1473 38.3797
145.726 1505 38.7943
145.842 1468 38.3145
145.959 1490 38.6005
146.075 1457 38.1707
146.192 1395 37.3497
146.308 1535 39.1791
146.425 1459 38.1969
146.541 1365 36.9459
146.658 1440 37.9473
146.774 1440 37.9473
146.891 1474 38.3927
147.008 1544 39.2938
147.125 1605 40.0625
147.241 1591 39.8873
147.358 1711 41.3642
147.475 1660 40.7431
147.592 1558 39.4715
147.709 1569 39.6106
147.826 1431 37.8286
147.943 1454 38.1314
148.06 1502 38.7556
148.177 1492 38.6264
148.294 1586 39.8246
148.411 1679 40.9756
148.528 1709 41.3401
148.645 1746 41.7852
148.762 1822 42.6849
148.88 1659 40.7308
148.997 1814 42.5911
149.114 1722 41.497
149.231 1799 42.4146
149.349 1800 42.4264
149.466 1752 41.8569
149.583 1789 42.2966
149.701 1702 41.2553
149.818 1797 42.391
149.935 1761 41.9643
150.053 1658 40.7185
150.17 1658 40.7185
150.287 1582 39.7744
150.405 1586 39.8246
150.522 1518 38.9615
150.64 1592 39.8999
150.757 1613 40.1622
150.875 1566 39.5727
150.992 1700 41.2311
151.11 1631 40.3856
151.227 1587 39.8372
151.344 1444 38
151.462 1440 37.9473
151.579 1241 35.2278
151.697 1356 36.8239
151.814 1499 38.7169
151.932 1523 39.0256
152.049 1568 39.598
152.167 1549 39.3573
152.284 1646 40.5709
152.402 1582 39.7744
152.519 1565 39.5601
152.636 1612 40.1497
152.754 1576 39.6989
152.871 1595 39.9375
152.989 1545 39.3065
153.106 1592 39.8999
153.223 1549 39.3573
153.341 1528 39.0896
153.458 1487 38.5616
153.575 1366 36.9594
153.693 1426 37.7624
153.81 1325 36.4005
153.927 1262 35.5246
154.044 1358 36.8511
154.162 1266 35.5809
154.279 1400 37.4166
154.396 1371 37.027
154.513 1460 38.2099
154.63 1456 38.1576
154.747 1392 37.3095
154.864 1334 36.524
154.981 1368 36.9865
155.098 1285 35.8469
155.215 1266 35.5809
155.332 1290 35.9166
155.449 1288 35.8887
155.566 1411 37.5633
155.683 1396 37.3631
155.8 1360 36.8782
155.917 1413 37.5899
156.033 1334 36.524
156.15 0 1
156.267 0 1
156.383 0 1
156.5 0 1
156.617 0 1
156.733 0 1
156.85 0 1
156.966 0 1
157.082 0 1
157.199 0 1
157.315 0 1
157.431 0 1
157.547 0 1
157.664 0 1
157.78 0 1
157.896 0 1
158.012 0 1
158.128 0 1
158.244 0 1
158.359 0 1
158.475 0 1
158.591 0 1
158.706 0 1
