
6.15755 0 1
6.2731 0 1
6.3887 0 1
6.50437 0 1
6.62009 0 1
6.73587 0 1
6.8517 0 1
6.96759 0 1
7.08353 0 1
7.19952 0 1
7.31557 0 1
7.43166 0 1
7.54781 0 1
7.664 0 1
7.78024 0 1
7.89653 0 1
8.01286 0 1
8.12924 0 1
8.24567 0 1
8.36213 0 1
8.47864 0 1
8.59519 0 1
8.71178 0 1
8.82841 0 1
8.94508 0 1
9.06179 0 1
9.17853 0 1
9.29531 0 1
9.41212 0 1
9.52897 0 1
9.64584 0 1
9.76276 0 1
9.8797 0 1
9.99667 0 1
10.1137 0 1
10.2307 0 1
10.3478 0 1
10.4648 0 1
10.5819 0 1
10.6991 0 1
10.8162 0 1
10.9334 0 1
11.0506 0 1
11.1678 0 1
11.285 0 1
11.4023 0 1
11.5196 0 1
11.6369 0 1
11.7542 0 1
11.8715 0 1
11.9888 0 1
12.1062 0 1
12.2235 0 1
12.3409 0 1
12.4582 0 1
12.5756 0 1
12.693 0 1
12.8104 0 1
12.9278 0 1
13.0452 0 1
13.1626 0 1
13.28 0 1
13.3974 0 1
13.5149 0 1
13.6323 0 1
13.7497 0 1
13.8671 0 1
13.9845 0 1
14.1019 0 1
14.2193 0 1
14.3367 0 1
14.4541 0 1
14.5714 0 1
14.6888 0 1
14.8062 0 1
14.9235 0 1
15.0408 2759 52.5262
15.1581 2944 54.2586
15.2755 3087 55.5608
15.3927 3091 55.5968
15.51 3060 55.3173
15.6273 3077 55.4707
15.7445 2951 54.3231
15.8617 3068 55.3895
15.9789 2939 54.2125
16.0961 2841 53.301
16.2132 2788 52.8015
16.3304 2692 51.8845
16.4475 2756 52.4976
16.5646 2689 51.8556
16.6816 2760 52.5357
16.7986 2734 52.2877
16.9156 2748 52.4214
17.0326 2625 51.2348
17.1496 2693 51.8941
17.2665 2661 51.5849
17.3833 2646 51.4393
17.5002 2835 53.2447
17.617 2845 53.3385
17.7338 2798 52.8961
17.8505 2789 52.811
17.9672 2833 53.2259
18.0839 2588 50.8724
18.2005 2663 51.6043
18.3171 2462 49.6185
18.4337 2508 50.0799
18.5502 2555 50.547
18.6666 2708 52.0384
18.7831 2714 52.0961
18.8994 2681 51.7784
19.0158 2634 51.3225
19.1321 2514 50.1398
19.2483 2331 48.2804
19.3645 2386 48.8467
19.4806 2162 46.4973
19.5967 2018 44.9222
19.7128 1823 42.6966
19.8288 1688 41.0853
19.9447 1516 38.9358
20.0606 0 1
20.1764 0 1
20.2922 0 1
20.4079 0 1
20.5236 0 1
20.6392 0 1
20.7548 0 1
20.8702 0 1
23.3078 0 1
23.4233 0 1
23.539 0 1
23.6547 0 1
23.7704 0 1
23.8862 0 1
24.0021 0 1
24.118 0 1
24.234 0 1
24.35 0 1
24.4661 1153 33.9559
24.5822 1281 35.7911
24.6984 1394 37.3363
24.8146 1648 40.5956
24.9309 1927 43.8976
25.0472 2118 46.0217
25.1636 2368 48.6621
25.28 2543 50.4282
25.3965 2605 51.0392
25.513 2757 52.5071
25.6296 2646 51.4393
25.7462 2673 51.7011
25.8628 2883 53.6936
25.9795 2851 53.3948
26.0962 2849 53.376
26.213 2734 52.2877
26.3298 2724 52.192
26.4466 2590 50.892
26.5635 2530 50.2991
26.6804 2366 48.6415
26.7973 2274 47.6865
26.9143 2122 46.0652
27.0313 2093 45.7493
27.1483 2219 47.1063
27.2653 2320 48.1664
27.3824 2362 48.6004
27.4996 2477 49.7695
27.6167 2511 50.1099
27.7339 2486 49.8598
27.8511 2451 49.5076
27.9683 2398 48.9694
28.0855 2551 50.5074
28.2028 2524 50.2394
28.3201 2218 47.0956
28.4374 2248 47.4131
28.5547 2315 48.1144
28.6721 2274 47.6865
28.7894 2503 50.03
28.9068 2385 48.8365
29.0242 2504 50.04
29.1416 2465 49.6488
29.259 2438 49.3761
29.3764 2362 48.6004
29.4939 2351 48.4871
29.6113 2318 48.1456
29.7288 2278 47.7284
29.8463 2325 48.2183
29.9638 2342 48.3942
30.0812 2243 47.3603
30.1987 2181 46.7012
30.3162 2044 45.2106
30.4337 2038 45.1442
30.5512 2095 45.7712
30.6687 2269 47.634
30.7862 2301 47.9687
30.9037 2368 48.6621
31.0212 2481 49.8096
31.1387 2568 50.6754
31.2562 2476 49.7594
31.3737 2442 49.4166
31.4912 2486 49.8598
31.6087 2418 49.1732
31.7262 2337 48.3425
31.8436 2272 47.6655
31.9611 2194 46.8402
32.0785 2180 46.6905
32.1959 2270 47.6445
32.3134 2255 47.4868
32.4308 2260 47.5395
32.5482 2212 47.0319
32.6655 2175 46.6369
32.7829 2098 45.8039
32.9002 2035 45.111
33.0176 2098 45.8039
33.1349 2061 45.3982
33.2522 2169 46.5725
33.3694 2143 46.2925
33.4867 2206 46.9681
33.6039 2055 45.3321
33.7211 2053 45.31
33.8383 1942 44.0681
33.9554 1888 43.4511
34.0725 1929 43.9204
34.1896 1967 44.3509
34.3067 2159 46.465
34.4237 2136 46.2169
34.5407 2228 47.2017
34.6577 2175 46.6369
34.7746 2216 47.0744
34.8915 2251 47.4447
35.0084 2242 47.3498
35.1252 2213 47.0425
35.242 2089 45.7056
35.3587 2035 45.111
35.4755 1976 44.4522
35.5921 1980 44.4972
35.7088 1863 43.1625
35.8254 1915 43.7607
35.9419 1979 44.486
36.0584 2054 45.3211
36.1749 1992 44.6318
36.2913 1998 44.699
36.4077 1875 43.3013
36.524 1810 42.5441
36.6403 1722 41.497
36.7565 1676 40.939
36.8727 1638 40.4722
36.9889 1549 39.3573
37.1049 1399 37.4032
37.221 0 1
37.3369 0 1
37.4529 0 1
37.5687 0 1
37.6845 0 1
37.8003 0 1
37.916 0 1
38.0316 0 1
38.1472 0 1
40.5851 0 1
40.7008 0 1
40.8164 0 1
40.9322 0 1
41.048 0 1
41.1639 0 1
41.2798 0 1
41.3958 0 1
41.5118 0 1
41.6279 0 1
41.744 941 30.6757
41.8602 1126 33.5559
41.9765 1250 35.3553
42.0928 1405 37.4833
42.2091 1430 37.8153
42.3255 1597 39.9625
42.4419 1483 38.5097
42.5584 1572 39.6485
42.675 1545 39.3065
42.7915 1505 38.7943
42.9081 1528 39.0896
43.0248 1471 38.3536
43.1415 1574 39.6737
43.2582 1673 40.9023
43.375 1677 40.9512
43.4918 1751 41.845
43.6087 1608 40.0999
43.7256 1665 40.8044
43.8425 1582 39.7744
43.9595 1583 39.7869
44.0765 1569 39.6106
44.1935 1441 37.9605
44.3106 1535 39.1791
44.4277 1458 38.1838
44.5448 1587 39.8372
44.6619 1562 39.5221
44.7791 1587 39.8372
44.8963 1668 40.8412
45.0136 1705 41.2916
45.1308 1737 41.6773
45.2481 1677 40.9512
45.3654 1665 40.8044
45.4827 1678 40.9634
45.6001 1689 41.0974
45.7174 1789 42.2966
45.8348 1744 41.7612
45.9522 1735 41.6533
46.0697 1607 40.0874
46.1871 1601 40.0125
46.3046 1478 38.4448
46.422 1505 38.7943
46.5395 1456 38.1576
46.657 1542 39.2683
46.7745 1574 39.6737
46.892 1602 40.025
47.0096 1619 40.2368
47.1271 1649 40.6079
47.2446 1618 40.2244
47.3622 1623 40.2865
47.4797 1670 40.8656
47.5973 1620 40.2492
47.7149 1578 39.724
47.8324 1467 38.3014
47.95 1488 38.5746
48.0675 1526 39.064
48.1851 1587 39.8372
48.3027 1622 40.2741
48.4202 1703 41.2674
48.5378 1659 40.7308
48.6554 1616 40.1995
48.7729 1590 39.8748
48.8904 1750 41.833
49.008 1708 41.328
49.1255 1667 40.8289
49.243 1692 41.1339
49.3605 1741 41.7253
49.478 1626 40.3237
49.5955 1523 39.0256
49.713 1439 37.9342
49.8304 1379 37.1349
49.9479 1347 36.7015
50.0653 1391 37.2961
50.1827 1428 37.7889
50.3001 1510 38.8587
50.4175 1588 39.8497
50.5348 1567 39.5854
50.6521 1548 39.3446
50.7694 1673 40.9023
50.8867 1587 39.8372
51.004 1547 39.3319
51.1212 1448 38.0526
51.2384 1478 38.4448
51.3556 1456 38.1576
51.4727 1445 38.0132
51.5899 1554 39.4208
51.707 1585 39.8121
51.824 1557 39.4588
51.9411 1607 40.0874
52.0581 1564 39.5474
52.175 1563 39.5348
52.2919 1570 39.6232
52.4088 1576 39.6989
52.5257 1616 40.1995
52.6425 1598 39.975
52.7593 1624 40.2989
52.876 1579 39.7366
52.9927 1640 40.4969
53.1094 1610 40.1248
53.226 1450 38.0789
53.3426 1423 37.7227
53.4591 1361 36.8917
53.5756 1180 34.3511
53.692 1281 35.7911
53.8084 1312 36.2215
53.9248 1303 36.0971
54.0411 1252 35.3836
54.1573 1106 33.2566
54.2735 0 1
54.3896 0 1
54.5057 0 1
54.6217 0 1
54.7377 0 1
54.8537 0 1
54.9695 0 1
55.0853 0 1
55.2011 0 1
55.3168 0 1
55.4324 0 1
57.824 0 1
57.9396 0 1
58.0553 0 1
58.1711 0 1
58.2869 0 1
58.4028 0 1
58.5187 0 1
58.6347 0 1
58.7508 0 1
58.8669 0 1
58.983 1589 39.8623
59.0992 1952 44.1814
59.2155 2332 48.2908
59.3318 2698 51.9423
59.4482 2879 53.6563
59.5646 2962 54.4243
59.681 2965 54.4518
59.7975 3032 55.0636
59.9141 3133 55.9732
60.0306 3218 56.7274
60.1473 3323 57.6455
60.2639 3242 56.9386
60.3807 3373 58.0775
60.4974 3417 58.4551
60.6142 3396 58.2752
60.731 3363 57.9914
60.8479 3368 58.0345
60.9648 3227 56.8067
61.0818 3299 57.4369
61.1987 3193 56.5066
61.3158 3172 56.3205
61.4328 3085 55.5428
61.5499 2942 54.2402
61.667 2884 53.7029
61.7841 2786 52.7826
61.9013 2577 50.7642
62.0185 2472 49.7192
62.1357 2286 47.8121
62.253 2236 47.2864
62.3702 2288 47.833
62.4875 2360 48.5798
62.6049 2475 49.7494
62.7222 2475 49.7494
62.8396 2469 49.689
62.9569 2415 49.1426
63.0743 2237 47.2969
63.1918 2210 47.0106
63.3092 2112 45.9565
63.4267 2006 44.7884
63.5441 1976 44.4522
63.6616 1992 44.6318
63.7791 2054 45.3211
63.8966 2104 45.8694
64.0142 2007 44.7996
64.1317 1996 44.6766
64.2492 1924 43.8634
64.3668 1975 44.441
64.4843 1929 43.9204
64.6019 1793 42.3438
64.7195 1927 43.8976
64.837 1859 43.1161
64.9546 1851 43.0232
65.0722 1842 42.9185
65.1898 1827 42.7434
65.3074 1797 42.391
65.4249 1749 41.821
65.5425 1758 41.9285
65.6601 1689 41.0974
65.7777 1697 41.1947
65.8952 1727 41.5572
66.0128 1764 42
66.1304 1758 41.9285
66.2479 1863 43.1625
66.3655 1826 42.7317
66.483 1966 44.3396
66.6005 1961 44.2832
66.718 1838 42.8719
66.8355 1764 42
66.953 1758 41.9285
67.0705 1701 41.2432
67.1879 1746 41.7852
67.3054 1899 43.5775
67.4228 1869 43.2319
67.5402 1892 43.4971
67.6576 1893 43.5086
67.7749 1985 44.5533
67.8923 1921 43.8292
68.0096 1815 42.6028
68.1269 1866 43.1972
68.2442 1857 43.0929
68.3614 1860 43.1277
68.4787 1899 43.5775
68.5958 1920 43.8178
68.713 1918 43.795
68.8302 1834 42.8252
68.9473 1841 42.9069
69.0643 1827 42.7434
69.1814 1783 42.2256
69.2984 1811 42.5558
69.4154 1763 41.9881
69.5323 1823 42.6966
69.6492 1815 42.6028
69.7661 1843 42.9302
69.8829 1920 43.8178
69.9997 1898 43.566
70.1165 1805 42.4853
70.2332 1827 42.7434
70.3499 1744 41.7612
70.4665 1562 39.5221
70.5831 1498 38.704
70.6996 1380 37.1484
70.8161 1310 36.1939
70.9326 1268 35.609
71.049 1249 35.3412
71.1653 1153 33.9559
71.2817 1045 32.3265
71.3979 972 31.1769
71.5141 932 30.5287
71.6303 819 28.6182
71.7464 671 25.9037
71.8624 0 1
71.9784 0 1
72.0944 0 1
72.2102 0 1
72.3261 0 1
72.4418 0 1
72.5575 0 1
72.6732 0 1
75.1054 0 1
75.2209 0 1
75.3365 0 1
75.4521 0 1
75.5678 0 1
75.6835 0 1
75.7993 0 1
75.9151 0 1
76.031 0 1
76.147 1079 32.8481
76.263 1232 35.0999
76.3791 1385 37.2156
76.4952 1482 38.4968
76.6113 1617 40.2119
76.7276 1571 39.6358
76.8438 1594 39.9249
76.9601 1651 40.6325
77.0765 1581 39.7618
77.1929 1609 40.1123
77.3093 1590 39.8748
77.4258 1629 40.3609
77.5423 1597 39.9625
77.6589 1592 39.8999
77.7755 1605 40.0625
77.8921 1549 39.3573
78.0088 1594 39.9249
78.1256 1564 39.5474
78.2423 1475 38.4057
78.3591 1473 38.3797
78.4759 1449 38.0657
78.5928 1484 38.5227
78.7097 1477 38.4318
78.8266 1513 38.8973
78.9436 1715 41.4126
79.0606 1696 41.1825
79.1776 1726 41.5452
79.2946 1678 40.9634
79.4117 1699 41.2189
79.5288 1606 40.0749
79.6459 1505 38.7943
79.7631 1529 39.1024
79.8802 1551 39.3827
79.9974 1775 42.1307
80.1147 1627 40.3361
80.2319 1734 41.6413
80.3491 1711 41.3642
80.4664 1805 42.4853
80.5837 1742 41.7373
80.701 1706 41.3038
80.8183 1691 41.1218
80.9357 1590 39.8748
81.053 1614 40.1746
81.1704 1679 40.9756
81.2877 1653 40.6571
81.4051 1681 41
81.5225 1687 41.0731
81.6399 1596 39.95
81.7573 1703 41.2674
81.8747 1599 39.9875
81.9922 1488 38.5746
82.1096 1603 40.0375
82.227 1587 39.8372
82.3444 1582 39.7744
82.4619 1583 39.7869
82.5793 1627 40.3361
82.6967 1679 40.9756
82.8142 1737 41.6773
82.9316 1708 41.328
83.049 1843 42.9302
83.1664 1650 40.6202
83.2838 1680 40.9878
83.4012 1676 40.939
83.5186 1593 39.9124
83.636 1676 40.939
83.7534 1757 41.9166
83.8708 1821 42.6732
83.9881 1777 42.1545
84.1055 1862 43.1509
84.2228 1816 42.6146
84.3401 1715 41.4126
84.4575 1725 41.5331
84.5747 1667 40.8289
84.692 1737 41.6773
84.8093 1769 42.0595
84.9265 1721 41.4849
85.0437 1728 41.5692
85.1609 1767 42.0357
85.2781 1691 41.1218
85.3952 1686 41.0609
85.5123 1637 40.4599
85.6294 1628 40.3485
85.7465 1581 39.7618
85.8636 1667 40.8289
85.9806 1631 40.3856
86.0976 1656 40.694
86.2145 1671 40.8779
86.3315 1775 42.1307
86.4484 1714 41.4005
86.5652 1807 42.5088
86.682 1847 42.9767
86.7988 1782 42.2137
86.9156 1699 41.2189
87.0323 1564 39.5474
87.149 1710 41.3521
87.2657 1819 42.6497
87.3823 1785 42.2493
87.4988 1810 42.5441
87.6154 1727 41.5572
87.7318 1659 40.7308
87.8483 1628 40.3485
87.9647 1446 38.0263
88.081 1402 37.4433
88.1973 1235 35.1426
88.3136 1148 33.8821
88.4298 1081 32.8786
88.546 1065 32.6343
88.6621 1017 31.8904
88.7781 971 31.1609
88.8942 0 1
89.0101 0 1
89.126 0 1
89.2419 0 1
89.3577 0 1
89.4734 0 1
89.5891 0 1
89.7047 0 1
89.8203 0 1
89.9358 0 1
92.3269 0 1
92.4424 0 1
92.558 0 1
92.6736 0 1
92.7893 0 1
92.905 0 1
93.0208 0 1
93.1366 0 1
93.2525 0 1
93.3685 0 1
93.4845 0 1
93.6005 1462 38.2361
93.7167 1498 38.704
93.8328 1613 40.1622
93.949 1677 40.9512
94.0653 1685 41.0488
94.1816 1923 43.852
94.2979 1706 41.3038
94.4143 1707 41.3159
94.5307 1732 41.6173
94.6472 1760 41.9524
94.7637 1686 41.0609
94.8803 1581 39.7618
94.9969 1661 40.7554
95.1135 1671 40.8779
95.2302 1684 41.0366
95.3469 1760 41.9524
95.4637 1820 42.6615
95.5805 1831 42.7902
95.6973 1793 42.3438
95.8142 1875 43.3013
95.9311 1744 41.7612
96.048 1795 42.3674
96.1649 1763 41.9881
96.2819 1778 42.1663
96.3989 1836 42.8486
96.516 1801 42.4382
96.633 1848 42.9884
96.7501 1996 44.6766
96.8673 1900 43.589
96.9844 1875 43.3013
97.1016 1872 43.2666
97.2188 1866 43.1972
97.336 1786 42.2611
97.4532 1750 41.833
97.5704 1786 42.2611
97.6877 1806 42.4971
97.805 1802 42.45
97.9223 1861 43.1393
98.0396 1830 42.7785
98.1569 1763 41.9881
98.2743 1827 42.7434
98.3916 1706 41.3038
98.509 1796 42.3792
98.6264 1709 41.3401
98.7438 1693 41.1461
98.8612 1753 41.8688
98.9786 1770 42.0714
99.096 1959 44.2606
99.2134 1883 43.3935
99.3308 1983 44.5309
99.4482 1971 44.3959
99.5656 1996 44.6766
99.6831 1843 42.9302
99.8005 1871 43.2551
99.9179 1928 43.909
100.035 1899 43.5775
100.153 2074 45.5412
100.27 1949 44.1475
100.388 1979 44.486
100.505 1947 44.1248
100.622 1949 44.1475
100.74 1918 43.795
100.857 1857 43.0929
100.975 1836 42.8486
101.092 1848 42.9884
101.209 1946 44.1135
101.327 1960 44.2719
101.444 1989 44.5982
101.561 1954 44.2041
101.679 1849 43
101.796 1981 44.5084
101.913 1916 43.7721
102.03 1872 43.2666
102.148 1812 42.5676
102.265 1857 43.0929
102.382 1875 43.3013
102.499 1924 43.8634
102.616 1959 44.2606
102.733 2115 45.9891
102.851 2028 45.0333
102.968 2083 45.6399
103.085 2097 45.793
103.202 2121 46.0543
103.319 2049 45.2659
103.436 2092 45.7384
103.552 2057 45.3542
103.669 2084 45.6508
103.786 2068 45.4753
103.903 2120 46.0435
104.02 2046 45.2327
104.137 2013 44.8665
104.253 2091 45.7275
104.37 2024 44.9889
104.487 1959 44.2606
104.603 2054 45.3211
104.72 1945 44.1022
104.836 1949 44.1475
104.953 1930 43.9318
105.069 1822 42.6849
105.186 1757 41.9166
105.302 1674 40.9145
105.418 1537 39.2046
105.535 1406 37.4967
105.651 1264 35.5528
105.767 1175 34.2783
105.883 1099 33.1512
105.999 1057 32.5115
106.115 0 1
106.231 0 1
106.347 0 1
106.463 0 1
106.579 0 1
106.694 0 1
106.81 0 1
106.926 0 1
107.041 0 1
107.157 0 1
109.576 0 1
109.692 0 1
109.807 0 1
109.923 0 1
110.039 0 1
110.155 0 1
110.27 0 1
110.386 0 1
110.502 0 1
110.618 997 31.5753
110.735 1150 33.9116
110.851 1270 35.6371
110.967 1379 37.1349
111.083 1472 38.3667
111.199 1686 41.0609
111.316 1728 41.5692
111.432 1806 42.4971
111.549 1804 42.4735
111.665 1889 43.4626
111.782 1950 44.1588
111.898 1920 43.8178
112.015 1931 43.9431
112.132 1812 42.5676
112.248 1800 42.4264
112.365 1762 41.9762
112.482 1817 42.6263
112.599 1936 44
112.716 1867 43.2088
112.832 1787 42.2729
112.949 1794 42.3556
113.066 1748 41.8091
113.183 1788 42.2847
113.3 1724 41.5211
113.417 1796 42.3792
113.534 1758 41.9285
113.652 1845 42.9535
113.769 1772 42.0951
113.886 1822 42.6849
114.003 1766 42.0238
114.12 1681 41
114.238 1678 40.9634
114.355 1632 40.398
114.472 1620 40.2492
114.589 1619 40.2368
114.707 1698 41.2068
114.824 1738 41.6893
114.942 1819 42.6497
115.059 1817 42.6263
115.176 1780 42.19
115.294 1800 42.4264
115.411 1846 42.9651
115.529 1783 42.2256
115.646 1688 41.0853
115.764 1624 40.2989
115.881 1656 40.694
115.999 1671 40.8779
116.116 1739 41.7013
116.234 1726 41.5452
116.351 1629 40.3609
116.469 1665 40.8044
116.586 1667 40.8289
116.704 1638 40.4722
116.821 1583 39.7869
116.939 1651 40.6325
117.056 1683 41.0244
117.174 1571 39.6358
117.291 1702 41.2553
117.409 1680 40.9878
117.526 1555 39.4335
117.644 1545 39.3065
117.761 1575 39.6863
117.879 1471 38.3536
117.996 1448 38.0526
118.114 1499 38.7169
118.231 1518 38.9615
118.349 1519 38.9744
118.466 1571 39.6358
118.584 1677 40.9512
118.701 1698 41.2068
118.819 1684 41.0366
118.936 1707 41.3159
119.053 1761 41.9643
119.171 1573 39.6611
119.288 1559 39.4842
119.405 1532 39.1408
119.523 1516 38.9358
119.64 1523 39.0256
119.757 1640 40.4969
119.875 1627 40.3361
119.992 1569 39.6106
120.109 1601 40.0125
120.226 1552 39.3954
120.343 1569 39.6106
120.46 1482 38.4968
120.578 1518 38.9615
120.695 1602 40.025
120.812 1451 38.092
120.929 1596 39.95
121.046 1502 38.7556
121.163 1544 39.2938
121.279 1415 37.6165
121.396 1473 38.3797
121.513 1363 36.9188
121.63 1357 36.8375
121.747 1349 36.7287
121.863 1302 36.0832
121.98 1320 36.3318
122.097 1247 35.3129
122.213 1263 35.5387
122.33 1171 34.2199
122.446 1187 34.4529
122.563 1098 33.1361
122.679 1184 34.4093
122.795 1088 32.9848
122.912 1013 31.8277
123.028 899 29.9833
123.144 879 29.6479
123.26 842 29.0172
123.377 0 1
123.493 0 1
123.609 0 1
123.725 0 1
123.84 0 1
123.956 0 1
124.072 0 1
124.188 0 1
124.303 0 1
124.419 0 1
126.852 0 1
126.968 0 1
127.083 0 1
127.199 0 1
127.315 0 1
127.431 0 1
127.547 0 1
127.663 0 1
127.779 0 1
127.895 0 1
128.011 0 1
128.127 0 1
128.243 0 1
128.359 1565 39.5601
128.476 1570 39.6232
128.592 1607 40.0874
128.708 1748 41.8091
128.825 1726 41.5452
128.941 1764 42
129.058 1764 42
129.174 1793 42.3438
129.291 1848 42.9884
129.408 1979 44.486
129.524 2063 45.4203
129.641 2341 48.3839
129.758 2542 50.4183
129.875 3052 55.2449
129.992 3726 61.041
130.108 4346 65.9242
130.225 4971 70.5053
130.342 5249 72.45
130.459 5569 74.6257
130.576 6295 79.341
130.693 8836 94
130.81 12097 109.986
130.928 16472 128.343
131.045 21040 145.052
131.162 26544 162.923
131.279 32599 180.552
131.396 39466 198.661
131.513 47629 218.241
131.631 57031 238.812
131.748 67579 259.96
131.865 81209 284.972
131.983 95963 309.779
132.1 112046 334.733
132.217 129855 360.354
132.335 147288 383.781
132.452 159620 399.525
132.57 171512 414.14
132.687 177394 421.182
132.804 187193 432.658
132.922 186703 432.091
133.039 188120 433.728
133.157 188714 434.412
133.274 187223 432.693
133.392 182667 427.396
133.509 173656 416.721
133.627 157339 396.66
133.744 138192 371.742
133.862 122652 350.217
133.979 115058 339.202
134.097 120945 347.771
134.214 134069 366.154
134.332 148098 384.835
134.449 153565 391.874
134.567 152407 390.393
134.684 146379 382.595
134.802 141965 376.782
134.919 142463 377.443
135.037 142215 377.114
135.154 139467 373.453
135.272 134324 366.502
135.389 127209 356.664
135.507 121829 349.04
135.624 115926 340.479
135.742 110584 332.542
135.859 105287 324.48
135.977 98903 314.488
136.094 92025 303.356
136.211 85763 292.853
136.329 80137 283.085
136.446 75938 275.569
136.564 70108 264.779
136.681 65293 255.525
136.798 58970 242.837
136.915 52549 229.236
137.033 44203 210.245
137.15 35714 188.981
137.267 27768 166.637
137.384 21592 146.942
137.502 18480 135.941
137.619 19622 140.079
137.736 23430 153.069
137.853 27123 164.691
137.97 29961 173.092
138.087 29932 173.009
138.204 30041 173.323
138.321 29180 170.822
138.438 27991 167.305
138.555 27580 166.072
138.672 26088 161.518
138.788 23708 153.974
138.905 20630 143.631
139.022 18644 136.543
139.139 17132 130.889
139.255 16571 128.728
139.372 15455 124.318
139.488 13926 118.008
139.605 13145 114.652
139.721 12433 111.503
139.838 11491 107.196
139.954 10836 104.096
140.071 9831 99.1514
140.187 9383 96.8659
140.303 8419 91.7551
140.419 8017 89.5377
140.535 7487 86.5275
140.652 6738 82.0853
140.768 0 1
140.884 0 1
141 0 1
141.115 0 1
141.231 0 1
141.347 0 1
141.463 0 1
141.578 0 1
141.694 0 1
144.104 0 1
144.219 0 1
144.335 0 1
144.45 0 1
144.566 0 1
144.682 0 1
144.798 0 1
144.914 0 1
145.03 0 1
145.146 11222 105.934
145.262 12715 112.761
145.378 14136 118.895
145.494 15306 123.717
145.61 16202 127.287
145.726 17445 132.08
145.842 18317 135.34
145.959 19036 137.971
146.075 19419 139.352
146.192 20572 143.429
146.308 20830 144.326
146.425 21327 146.038
146.541 21768 147.54
146.658 19760 140.57
146.774 14785 121.594
146.891 9953 99.7647
147.008 11171 105.693
147.125 17265 131.396
147.241 20774 144.132
147.358 22233 149.107
147.475 22038 148.452
147.592 21881 147.922
147.709 21417 146.345
147.826 20959 144.772
147.943 20354 142.667
148.06 19490 139.607
148.177 18625 136.473
148.294 18170 134.796
148.411 17985 134.108
148.528 16955 130.211
148.645 16472 128.343
148.762 15797 125.686
148.88 14845 121.84
148.997 14117 118.815
149.114 12950 113.798
149.231 12526 111.92
149.349 12050 109.772
149.466 11243 106.033
149.583 10793 103.889
149.701 10451 102.23
149.818 10110 100.548
149.935 9968 99.8399
150.053 9567 97.811
150.17 9213 95.9844
150.287 8828 93.9574
150.405 7063 84.0417
150.522 5525 74.3303
150.64 5432 73.7021
150.757 7055 83.994
150.875 7936 89.0842
150.992 8313 91.1757
151.11 7927 89.0337
151.227 7814 88.3968
151.344 7927 89.0337
151.462 7809 88.3685
151.579 7866 88.6905
151.697 7867 88.6961
151.814 7781 88.21
151.932 7725 87.892
152.049 7546 86.8677
152.167 7715 87.8351
152.284 7837 88.5268
152.402 7922 89.0056
152.519 7698 87.7382
152.636 7665 87.55
152.754 7677 87.6185
152.871 7653 87.4814
152.989 7513 86.6776
153.106 7605 87.2067
153.223 7333 85.6329
153.341 7403 86.0407
153.458 7394 85.9884
153.575 7220 84.9706
153.693 7428 86.1858
153.81 7195 84.8233
153.927 6683 81.7496
154.044 5738 75.7496
154.162 4793 69.2315
154.279 5093 71.3653
154.396 6072 77.923
154.513 6633 81.4432
154.63 6636 81.4616
154.747 6522 80.7589
154.864 6460 80.3741
154.981 6291 79.3158
155.098 6307 79.4166
155.215 6282 79.2591
155.332 6175 78.5812
155.449 6172 78.5621
155.566 6241 79
155.683 6277 79.2275
155.8 6162 78.4984
155.917 6163 78.5048
156.033 6041 77.7239
156.15 0 1
156.267 0 1
156.383 0 1
156.5 0 1
156.617 0 1
156.733 0 1
156.85 0 1
156.966 0 1
157.082 0 1
157.199 0 1
157.315 0 1
157.431 0 1
157.547 0 1
157.664 0 1
157.78 0 1
157.896 0 1
158.012 0 1
158.128 0 1
158.244 0 1
158.359 0 1
158.475 0 1
158.591 0 1
158.706 0 1
