
6.15755 0 1
6.2731 0 1
6.3887 0 1
6.50437 0 1
6.62009 0 1
6.73587 0 1
6.8517 0 1
6.96759 0 1
7.08353 0 1
7.19952 0 1
7.31557 0 1
7.43166 0 1
7.54781 0 1
7.664 0 1
7.78024 0 1
7.89653 0 1
8.01286 0 1
8.12924 0 1
8.24567 0 1
8.36213 0 1
8.47864 0 1
8.59519 0 1
8.71178 0 1
8.82841 0 1
8.94508 0 1
9.06179 0 1
9.17853 0 1
9.29531 0 1
9.41212 0 1
9.52897 0 1
9.64584 0 1
9.76276 0 1
9.8797 0 1
9.99667 0 1
10.1137 0 1
10.2307 0 1
10.3478 0 1
10.4648 0 1
10.5819 0 1
10.6991 0 1
10.8162 0 1
10.9334 0 1
11.0506 0 1
11.1678 0 1
11.285 0 1
11.4023 0 1
11.5196 0 1
11.6369 0 1
11.7542 0 1
11.8715 0 1
11.9888 0 1
12.1062 0 1
12.2235 0 1
12.3409 0 1
12.4582 0 1
12.5756 0 1
12.693 0 1
12.8104 0 1
12.9278 0 1
13.0452 0 1
13.1626 0 1
13.28 0 1
13.3974 0 1
13.5149 0 1
13.6323 0 1
13.7497 0 1
13.8671 0 1
13.9845 0 1
14.1019 0 1
14.2193 0 1
14.3367 0 1
14.4541 0 1
14.5714 0 1
14.6888 0 1
14.8062 0 1
14.9235 0 1
15.0408 11594 107.675
15.1581 12324 111.014
15.2755 13038 114.184
15.3927 12927 113.697
15.51 12902 113.587
15.6273 12852 113.367
15.7445 12720 112.783
15.8617 12561 112.076
15.9789 12850 113.358
16.0961 12699 112.69
16.2132 12480 111.714
16.3304 12467 111.656
16.4475 12589 112.201
16.5646 12724 112.801
16.6816 12799 113.133
16.7986 12887 113.521
16.9156 13018 114.096
17.0326 12962 113.851
17.1496 13408 115.793
17.2665 13461 116.022
17.3833 13288 115.274
17.5002 13476 116.086
17.617 13552 116.413
17.7338 13425 115.866
17.8505 13164 114.734
17.9672 13121 114.547
18.0839 12907 113.609
18.2005 13260 115.152
18.3171 13446 115.957
18.4337 13923 117.996
18.5502 14083 118.672
18.6666 14401 120.004
18.7831 14360 119.833
18.8994 14061 118.579
19.0158 13576 116.516
19.1321 13102 114.464
19.2483 12955 113.82
19.3645 12394 111.328
19.4806 12098 109.991
19.5967 11732 108.314
19.7128 11242 106.028
19.8288 10193 100.96
19.9447 8881 94.2391
20.0606 0 1
20.1764 0 1
20.2922 0 1
20.4079 0 1
20.5236 0 1
20.6392 0 1
20.7548 0 1
20.8702 0 1
23.3078 0 1
23.4233 0 1
23.539 0 1
23.6547 0 1
23.7704 0 1
23.8862 0 1
24.0021 0 1
24.118 0 1
24.234 0 1
24.35 0 1
24.4661 7189 84.788
24.5822 8351 91.3838
24.6984 9270 96.2808
24.8146 10401 101.985
24.9309 11096 105.338
25.0472 11800 108.628
25.1636 12393 111.324
25.28 12826 113.252
25.3965 13221 114.983
25.513 13772 117.354
25.6296 14203 119.176
25.7462 14555 120.644
25.8628 14626 120.938
25.9795 14938 122.221
26.0962 15080 122.801
26.213 15288 123.645
26.3298 15170 123.167
26.4466 15233 123.422
26.5635 14955 122.291
26.6804 14948 122.262
26.7973 15078 122.793
26.9143 15019 122.552
27.0313 15274 123.588
27.1483 15778 125.611
27.2653 16037 126.637
27.3824 16262 127.523
27.4996 16379 127.98
27.6167 16015 126.55
27.7339 15771 125.583
27.8511 15501 124.503
27.9683 15114 122.939
28.0855 15146 123.069
28.2028 15289 123.649
28.3201 15160 123.126
28.4374 15066 122.744
28.5547 14653 121.05
28.6721 14430 120.125
28.7894 14010 118.364
28.9068 13859 117.724
29.0242 13665 116.897
29.1416 13726 117.158
29.259 13986 118.262
29.3764 13981 118.241
29.4939 14575 120.727
29.6113 14635 120.975
29.7288 14930 122.188
29.8463 14957 122.299
29.9638 14946 122.254
30.0812 14867 121.93
30.1987 14690 121.202
30.3162 15302 123.701
30.4337 15285 123.633
30.5512 15834 125.833
30.6687 16026 126.594
30.7862 16287 127.621
30.9037 16527 128.557
31.0212 16432 128.187
31.1387 16339 127.824
31.2562 15947 126.281
31.3737 15738 125.451
31.4912 15670 125.18
31.6087 15486 124.443
31.7262 15708 125.332
31.8436 15545 124.68
31.9611 15264 123.548
32.0785 15163 123.138
32.1959 14405 120.021
32.3134 14262 119.424
32.4308 13684 116.979
32.5482 13993 118.292
32.6655 13698 117.038
32.7829 14195 119.143
32.9002 14453 120.221
33.0176 14648 121.029
33.1349 14849 121.856
33.2522 15239 123.446
33.3694 15190 123.248
33.4867 15069 122.756
33.6039 15128 122.996
33.7211 15276 123.596
33.8383 15033 122.609
33.9554 15346 123.879
34.0725 15489 124.455
34.1896 15737 125.447
34.3067 16069 126.764
34.4237 16281 127.597
34.5407 16397 128.051
34.6577 16583 128.775
34.7746 16717 129.294
34.8915 16338 127.82
35.0084 16234 127.413
35.1252 15854 125.913
35.242 15786 125.642
35.3587 15997 126.479
35.4755 16120 126.965
35.5921 15891 126.06
35.7088 15660 125.14
35.8254 14943 122.242
35.9419 14215 119.227
36.0584 13624 116.722
36.1749 12916 113.649
36.2913 12589 112.201
36.4077 12122 110.1
36.524 12135 110.159
36.6403 11692 108.13
36.7565 11787 108.568
36.8727 11814 108.692
36.9889 11453 107.019
37.1049 10720 103.537
37.221 0 1
37.3369 0 1
37.4529 0 1
37.5687 0 1
37.6845 0 1
37.8003 0 1
37.916 0 1
38.0316 0 1
38.1472 0 1
40.5851 0 1
40.7008 0 1
40.8164 0 1
40.9322 0 1
41.048 0 1
41.1639 0 1
41.2798 0 1
41.3958 0 1
41.5118 0 1
41.6279 0 1
41.744 7005 83.6959
41.8602 8039 89.6605
41.9765 8914 94.414
42.0928 10000 100
42.2091 10919 104.494
42.3255 11652 107.944
42.4419 12509 111.844
42.5584 13161 114.721
42.675 13445 115.953
42.7915 13746 117.243
42.9081 14252 119.382
43.0248 14833 121.791
43.1415 15591 124.864
43.2582 16001 126.495
43.375 16578 128.756
43.4918 16959 130.227
43.6087 16713 129.279
43.7256 16611 128.884
43.8425 16635 128.977
43.9595 16455 128.277
44.0765 16076 126.791
44.1935 16278 127.585
44.3106 16385 128.004
44.4277 16393 128.035
44.5448 16259 127.511
44.6619 15409 124.133
44.7791 14799 121.651
44.8963 13857 117.716
45.0136 12886 113.517
45.1308 12851 113.362
45.2481 12860 113.402
45.3654 12787 113.08
45.4827 13113 114.512
45.6001 13669 116.914
45.7174 14738 121.4
45.8348 15142 123.053
45.9522 16023 126.582
46.0697 16199 127.275
46.1871 16344 127.844
46.3046 16629 128.953
46.422 16394 128.039
46.5395 16713 129.279
46.657 16969 130.265
46.7745 17527 132.39
46.892 17871 133.682
47.0096 18578 136.301
47.1271 18490 135.978
47.2446 18405 135.665
47.3622 18375 135.554
47.4797 18120 134.611
47.5973 17532 132.408
47.7149 17536 132.424
47.8324 17773 133.315
47.95 17965 134.034
48.0675 17499 132.284
48.1851 16960 130.231
48.3027 16291 127.636
48.4202 15069 122.756
48.5378 13696 117.03
48.6554 13172 114.769
48.7729 13100 114.455
48.8904 13050 114.237
49.008 13231 115.026
49.1255 14087 118.689
49.243 15173 123.179
49.3605 16406 128.086
49.478 17213 131.198
49.5955 17245 131.32
49.713 17661 132.895
49.8304 17356 131.742
49.9479 17529 132.397
50.0653 17218 131.217
50.1827 17737 133.18
50.3001 18146 134.707
50.4175 18994 137.819
50.5348 19203 138.575
50.6521 19408 139.313
50.7694 19538 139.778
50.8867 19212 138.607
51.004 19006 137.862
51.1212 18338 135.418
51.2384 18207 134.933
51.3556 18612 136.426
51.4727 19179 138.488
51.5899 18692 136.719
51.707 18142 134.692
51.824 17122 130.851
51.9411 15443 124.27
52.0581 14046 118.516
52.175 13667 116.906
52.2919 13446 115.957
52.4088 13333 115.469
52.5257 13870 117.771
52.6425 14451 120.212
52.7593 15487 124.447
52.876 16460 128.297
52.9927 16808 129.646
53.1094 16627 128.946
53.226 17150 130.958
53.3426 16758 129.453
53.4591 16373 127.957
53.5756 15698 125.292
53.692 15447 124.286
53.8084 14987 122.421
53.9248 14540 120.582
54.0411 14231 119.294
54.1573 13647 116.82
54.2735 0 1
54.3896 0 1
54.5057 0 1
54.6217 0 1
54.7377 0 1
54.8537 0 1
54.9695 0 1
55.0853 0 1
55.2011 0 1
55.3168 0 1
55.4324 0 1
57.824 0 1
57.9396 0 1
58.0553 0 1
58.1711 0 1
58.2869 0 1
58.4028 0 1
58.5187 0 1
58.6347 0 1
58.7508 0 1
58.8669 0 1
58.983 15144 123.061
59.0992 17312 131.575
59.2155 19000 137.84
59.3318 20540 143.318
59.4482 21499 146.625
59.5646 22431 149.77
59.681 23277 152.568
59.7975 23690 153.916
59.9141 24115 155.29
60.0306 24859 157.667
60.1473 25131 158.528
60.2639 25399 159.371
60.3807 24754 157.334
60.4974 24356 156.064
60.6142 22906 151.347
60.731 21046 145.072
60.8479 18682 136.682
60.9648 17653 132.865
61.0818 16965 130.25
61.1987 17105 130.786
61.3158 17889 133.75
61.4328 20096 141.76
61.5499 22651 150.502
61.667 24413 156.247
61.7841 26087 161.515
61.9013 26532 162.886
62.0185 26883 163.96
62.1357 27032 164.414
62.253 27121 164.685
62.3702 27329 165.315
62.4875 27741 166.556
62.6049 28247 168.068
62.7222 28475 168.745
62.8396 29139 170.701
62.9569 29853 172.78
63.0743 29290 171.143
63.1918 29272 171.091
63.3092 28647 169.254
63.4267 27972 167.248
63.5441 27936 167.141
63.6616 28592 169.092
63.7791 28311 168.259
63.8966 27592 166.108
64.0142 26202 161.87
64.1317 24196 155.551
64.2492 21702 147.316
64.3668 19211 138.604
64.4843 17908 133.821
64.6019 16963 130.242
64.7195 17220 131.225
64.837 18025 134.257
64.9546 20169 142.018
65.0722 23028 151.75
65.1898 25496 159.675
65.3074 27531 165.925
65.4249 28214 167.97
65.5425 28710 169.44
65.6601 28708 169.434
65.7777 28921 170.062
65.8952 28545 168.953
66.0128 29010 170.323
66.1304 29560 171.93
66.2479 30452 174.505
66.3655 30524 174.711
66.483 31309 176.943
66.6005 31051 176.213
66.718 31368 177.11
66.8355 30857 175.662
66.953 30382 174.304
67.0705 30567 174.834
67.1879 30027 173.283
67.3054 30910 175.812
67.4228 30613 174.966
67.5402 29492 171.732
67.6576 27704 166.445
67.7749 25281 159
67.8923 22199 148.993
68.0096 19622 140.079
68.1269 18073 134.436
68.2442 17007 130.411
68.3614 17416 131.97
68.4787 18498 136.007
68.5958 20889 144.53
68.713 23651 153.789
68.8302 27172 164.839
68.9473 29337 171.28
69.0643 30996 176.057
69.1814 31673 177.969
69.2984 31319 176.972
69.4154 30317 174.118
69.5323 29836 172.731
69.6492 29544 171.884
69.7661 29600 172.047
69.8829 30027 173.283
69.9997 30048 173.344
70.1165 29897 172.907
70.2332 29566 171.948
70.3499 28697 169.402
70.4665 27692 166.409
70.5831 26874 163.933
70.6996 25205 158.761
70.8161 24248 155.718
70.9326 23348 152.801
71.049 22646 150.486
71.1653 21346 146.103
71.2817 19659 140.211
71.3979 17483 132.223
71.5141 14819 121.733
71.6303 11372 106.64
71.7464 7972 89.2861
71.8624 0 1
71.9784 0 1
72.0944 0 1
72.2102 0 1
72.3261 0 1
72.4418 0 1
72.5575 0 1
72.6732 0 1
75.1054 0 1
75.2209 0 1
75.3365 0 1
75.4521 0 1
75.5678 0 1
75.6835 0 1
75.7993 0 1
75.9151 0 1
76.031 0 1
76.147 23219 152.378
76.263 25283 159.006
76.3791 26269 162.077
76.4952 26070 161.462
76.6113 25226 158.827
76.7276 23830 154.37
76.8438 21826 147.736
76.9601 19570 139.893
77.0765 17528 132.393
77.1929 16914 130.054
77.3093 16543 128.62
77.4258 17448 132.091
77.5423 19515 139.696
77.6589 22985 151.608
77.7755 27907 167.054
77.8921 31424 177.268
78.0088 33799 183.845
78.1256 34908 186.837
78.2423 35632 188.764
78.3591 35016 187.126
78.4759 34448 185.602
78.5928 34433 185.561
78.7097 34447 185.599
78.8266 34764 186.451
78.9436 37275 193.067
79.0606 37404 193.401
79.1776 37589 193.879
79.2946 38088 195.161
79.4117 38499 196.212
79.5288 38016 194.977
79.6459 38455 196.099
79.7631 37642 194.015
79.8802 37940 194.782
79.9974 38025 195
80.1147 38765 196.888
80.2319 37291 193.109
80.3491 35069 187.267
80.4664 30630 175.014
80.5837 26723 163.472
80.701 22378 149.593
80.8183 20162 141.993
80.9357 19425 139.374
81.053 19442 139.435
81.1704 21324 146.027
81.2877 25007 158.136
81.4051 30454 174.511
81.5225 36174 190.195
81.6399 39205 198.003
81.7573 41977 204.883
81.8747 41929 204.766
81.9922 42206 205.441
82.1096 41623 204.017
82.227 41163 202.887
82.3444 40563 201.403
82.4619 41780 204.402
82.5793 43153 207.733
82.6967 44046 209.871
82.8142 44842 211.759
82.9316 45341 212.934
83.049 45311 212.864
83.1664 45187 212.572
83.2838 44840 211.755
83.4012 44837 211.747
83.5186 43755 209.177
83.636 44180 210.19
83.7534 44135 210.083
83.8708 42240 205.524
83.9881 38681 196.675
84.1055 35077 187.289
84.2228 31001 176.071
84.3401 26516 162.837
84.4575 22955 151.509
84.5747 21419 146.352
84.692 21527 146.721
84.8093 23837 154.392
84.9265 29143 170.713
85.0437 35287 187.848
85.1609 40842 202.094
85.2781 45213 212.633
85.3952 48301 219.775
85.5123 49210 221.833
85.6294 48852 221.025
85.7465 47756 218.531
85.8636 47329 217.552
85.9806 47646 218.28
86.0976 48935 221.213
86.2145 49939 223.47
86.3315 52049 228.142
86.4484 50517 224.76
86.5652 51576 227.104
86.682 50624 224.998
86.7988 49775 223.103
86.9156 48003 219.096
87.0323 46225 215
87.149 45312 212.866
87.2657 45253 212.728
87.3823 44750 211.542
87.4988 42793 206.865
87.6154 38346 195.821
87.7318 33931 184.204
87.8483 28626 169.192
87.9647 23100 151.987
88.081 19253 138.755
88.1973 18341 135.429
88.3136 18278 135.196
88.4298 19871 140.965
88.546 23073 151.898
88.6621 27044 164.451
88.7781 30445 174.485
88.8942 0 1
89.0101 0 1
89.126 0 1
89.2419 0 1
89.3577 0 1
89.4734 0 1
89.5891 0 1
89.7047 0 1
89.8203 0 1
89.9358 0 1
92.3269 0 1
92.4424 0 1
92.558 0 1
92.6736 0 1
92.7893 0 1
92.905 0 1
93.0208 0 1
93.1366 0 1
93.2525 0 1
93.3685 0 1
93.4845 0 1
93.6005 20888 144.527
93.7167 22324 149.412
93.8328 25954 161.102
93.949 31312 176.952
94.0653 38437 196.054
94.1816 45036 212.217
94.2979 50417 224.537
94.4143 54375 233.184
94.5307 56689 238.095
94.6472 58874 242.64
94.7637 59825 244.591
94.8803 58900 242.693
94.9969 58780 242.446
95.1135 59308 243.532
95.2302 60777 246.53
95.3469 61412 247.814
95.4637 62579 250.158
95.5805 62925 250.849
95.6973 63280 251.555
95.8142 62311 249.622
95.9311 61917 248.831
96.048 61517 248.026
96.1649 60886 246.751
96.2819 60461 245.888
96.3989 59038 242.977
96.516 58263 241.377
96.633 55120 234.776
96.7501 49290 222.014
96.8673 44030 209.833
96.9844 38694 196.708
97.1016 34074 184.591
97.2188 30319 174.124
97.336 28726 169.487
97.4532 30031 173.295
97.5704 33883 184.073
97.6877 40884 202.198
97.805 48157 219.447
97.9223 54457 233.36
98.0396 60064 245.08
98.1569 62844 250.687
98.2743 64296 253.567
98.3916 63465 251.923
98.509 63152 251.301
98.6264 61281 247.55
98.7438 62237 249.473
98.8612 63923 252.83
98.9786 65350 255.636
99.096 66394 257.67
99.2134 67019 258.88
99.3308 66907 258.664
99.4482 66961 258.768
99.5656 66276 257.441
99.6831 64665 254.293
99.8005 64829 254.615
99.9179 63994 252.97
100.035 63626 252.242
100.153 61718 248.431
100.27 57584 239.967
100.388 50925 225.666
100.505 44462 210.86
100.622 38665 196.634
100.74 34433 185.561
100.857 31296 176.907
100.975 31310 176.946
101.092 34200 184.932
101.209 40066 200.165
101.327 48542 220.322
101.444 56333 237.346
101.561 62062 249.122
101.679 66483 257.843
101.796 67663 260.121
101.913 67249 259.324
102.03 65841 256.595
102.148 64288 253.551
102.265 65164 255.272
102.382 64387 253.746
102.499 66734 258.329
102.616 67835 260.452
102.733 68519 261.761
102.851 68080 260.921
102.968 68342 261.423
103.085 68008 260.783
103.202 67165 259.162
103.319 66496 257.868
103.436 64827 254.611
103.552 64511 253.99
103.669 63581 252.153
103.786 61695 248.385
103.903 55932 236.499
104.02 48818 220.948
104.137 42759 206.782
104.253 37763 194.327
104.37 33519 183.082
104.487 32830 181.191
104.603 33597 183.295
104.72 36209 190.287
104.836 41229 203.049
104.953 46275 215.116
105.069 50045 223.707
105.186 52777 229.732
105.302 53137 230.515
105.418 53013 230.246
105.535 50734 225.242
105.651 47778 218.582
105.767 44247 210.35
105.883 40978 202.43
105.999 37883 194.636
106.115 0 1
106.231 0 1
106.347 0 1
106.463 0 1
106.579 0 1
106.694 0 1
106.81 0 1
106.926 0 1
107.041 0 1
107.157 0 1
109.576 0 1
109.692 0 1
109.807 0 1
109.923 0 1
110.039 0 1
110.155 0 1
110.27 0 1
110.386 0 1
110.502 0 1
110.618 37259 193.026
110.735 41372 203.401
110.851 42836 206.969
110.967 44127 210.064
111.083 47961 219
111.199 51739 227.462
111.316 54597 233.66
111.432 56396 237.478
111.549 57676 240.158
111.665 58875 242.642
111.782 59816 244.573
111.898 59379 243.678
112.015 58697 242.275
112.132 57742 240.296
112.248 58033 240.9
112.365 57653 240.11
112.482 55719 236.049
112.599 50059 223.739
112.716 43565 208.722
112.832 38404 195.969
112.949 33623 183.366
113.066 30624 174.997
113.183 30159 173.663
113.3 30560 174.814
113.417 33178 182.148
113.534 39233 198.073
113.652 46815 216.368
113.769 52284 228.657
113.886 56114 236.884
114.003 57203 239.171
114.12 58577 242.027
114.238 57069 238.891
114.355 55353 235.272
114.472 54407 233.253
114.589 54510 233.474
114.707 55444 235.465
114.824 57027 238.803
114.942 57665 240.135
115.059 57775 240.364
115.176 57719 240.248
115.294 56983 238.711
115.411 56266 237.205
115.529 55257 235.068
115.646 53960 232.293
115.764 53047 230.319
115.881 52702 229.569
115.999 52076 228.202
116.116 49388 222.234
116.234 44121 210.05
116.351 38747 196.843
116.469 34717 186.325
116.586 31056 176.227
116.704 29285 171.129
116.821 28658 169.287
116.939 29505 171.77
117.056 33179 182.151
117.174 38862 197.134
117.291 44332 210.552
117.409 48439 220.089
117.526 50715 225.2
117.644 52484 229.094
117.761 52439 228.996
117.879 50961 225.745
117.996 49292 222.018
118.114 49027 221.42
118.231 49534 222.562
118.349 51198 226.27
118.466 51117 226.091
118.584 51956 227.939
118.701 51354 226.614
118.819 51094 226.04
118.936 50501 224.724
119.053 49382 222.221
119.171 48605 220.465
119.288 47654 218.298
119.405 46951 216.682
119.523 46275 215.116
119.64 45822 214.061
119.757 44467 210.872
119.875 40977 202.428
119.992 36327 190.596
120.109 32059 179.05
120.226 29308 171.196
120.343 27531 165.925
120.46 27155 164.788
120.578 27223 164.994
120.695 27991 167.305
120.812 32400 180
120.929 36600 191.311
121.046 39536 198.837
121.163 41195 202.966
121.279 42139 205.278
121.396 42053 205.068
121.513 41238 203.071
121.63 40139 200.347
121.747 38497 196.207
121.863 38150 195.32
121.98 38691 196.7
122.097 38583 196.426
122.213 38521 196.268
122.33 37158 192.764
122.446 36267 190.439
122.563 34599 186.008
122.679 32980 181.604
122.795 31134 176.448
122.912 29018 170.347
123.028 27325 165.303
123.144 25267 158.956
123.26 24017 154.974
123.377 0 1
123.493 0 1
123.609 0 1
123.725 0 1
123.84 0 1
123.956 0 1
124.072 0 1
124.188 0 1
124.303 0 1
124.419 0 1
126.852 0 1
126.968 0 1
127.083 0 1
127.199 0 1
127.315 0 1
127.431 0 1
127.547 0 1
127.663 0 1
127.779 0 1
127.895 0 1
128.011 0 1
128.127 0 1
128.243 0 1
128.359 42453 206.041
128.476 43179 207.796
128.592 43515 208.602
128.708 44539 211.043
128.825 44931 211.969
128.941 42537 206.245
129.058 39847 199.617
129.174 36732 191.656
129.291 33781 183.796
129.408 31942 178.723
129.524 31210 176.664
129.641 30334 174.167
129.758 30734 175.311
129.875 33127 182.008
129.992 36936 192.187
130.108 40278 200.694
130.225 43599 208.804
130.342 45619 213.586
130.459 45516 213.345
130.576 46860 216.472
130.693 44660 211.329
130.81 44771 211.592
130.928 45823 214.063
131.045 46476 215.583
131.162 47276 217.43
131.279 48243 219.643
131.396 47867 218.785
131.513 47955 218.986
131.631 47445 217.819
131.748 45996 214.467
131.865 45742 213.874
131.983 44831 211.733
132.1 44219 210.283
132.217 44234 210.319
132.335 43820 209.332
132.452 43159 207.747
132.57 40949 202.359
132.687 37577 193.848
132.804 35648 188.807
132.922 33290 182.455
133.039 31721 178.104
133.157 31258 176.799
133.274 30924 175.852
133.392 32209 179.469
133.509 34738 186.381
133.627 37851 194.553
133.744 40450 201.122
133.862 42914 207.157
133.979 43916 209.561
134.097 44243 210.34
134.214 43592 208.787
134.332 42714 206.674
134.449 43230 207.918
134.567 44062 209.91
134.684 45395 213.061
134.802 45917 214.283
134.919 45990 214.453
135.037 45804 214.019
135.154 45517 213.347
135.272 44630 211.258
135.389 44125 210.06
135.507 43187 207.815
135.624 42383 205.871
135.742 42416 205.951
135.859 42564 206.31
135.977 42480 206.107
136.094 41097 202.724
136.211 39309 198.265
136.329 37075 192.549
136.446 34987 187.048
136.564 33554 183.178
136.681 32151 179.307
136.798 31194 176.618
136.915 31274 176.845
137.033 31786 178.286
137.15 34033 184.48
137.267 36314 190.562
137.384 38168 195.366
137.502 39818 199.544
137.619 40358 200.893
137.736 41510 203.74
137.853 39819 199.547
137.97 40124 200.31
138.087 39916 199.79
138.204 41508 203.735
138.321 41596 203.951
138.438 41283 203.182
138.555 41326 203.288
138.672 40743 201.849
138.788 39815 199.537
138.905 38265 195.614
139.022 37375 193.326
139.139 35622 188.738
139.255 33761 183.742
139.372 32633 180.646
139.488 31386 177.161
139.605 30125 173.566
139.721 29066 170.488
139.838 27049 164.466
139.954 24457 156.387
140.071 22045 148.476
140.187 20248 142.295
140.303 18017 134.227
140.419 16487 128.402
140.535 15413 124.149
140.652 14347 119.779
140.768 0 1
140.884 0 1
141 0 1
141.115 0 1
141.231 0 1
141.347 0 1
141.463 0 1
141.578 0 1
141.694 0 1
144.104 0 1
144.219 0 1
144.335 0 1
144.45 0 1
144.566 0 1
144.682 0 1
144.798 0 1
144.914 0 1
145.03 0 1
145.146 24683 157.108
145.262 24896 157.785
145.378 24750 157.321
145.494 24445 156.349
145.61 24131 155.342
145.726 23773 154.185
145.842 23803 154.282
145.959 24415 156.253
146.075 25099 158.427
146.192 26344 162.308
146.308 27429 165.617
146.425 27531 165.925
146.541 28183 167.878
146.658 27646 166.271
146.774 27159 164.8
146.891 26893 163.991
147.008 28521 168.882
147.125 28808 169.729
147.241 29396 171.453
147.358 30127 173.571
147.475 29843 172.751
147.592 29569 171.956
147.709 29186 170.839
147.826 29215 170.924
147.943 28379 168.461
148.06 27791 166.706
148.177 27411 165.563
148.294 27611 166.166
148.411 27952 167.189
148.528 27893 167.012
148.645 27559 166.009
148.762 27393 165.508
148.88 26465 162.681
148.997 26106 161.574
149.114 24740 157.29
149.231 24770 157.385
149.349 24287 155.843
149.466 23602 153.629
149.583 23874 154.512
149.701 23911 154.632
149.818 24201 155.567
149.935 25139 158.553
150.053 25808 160.649
150.17 26607 163.117
150.287 26624 163.169
150.405 26272 162.086
150.522 25798 160.618
150.64 26532 162.886
150.757 27505 165.846
150.875 27871 166.946
150.992 28602 169.121
151.11 28503 168.828
151.227 27862 166.919
151.344 28122 167.696
151.462 27508 165.855
151.579 26561 162.975
151.697 26504 162.8
151.814 26453 162.644
151.932 25900 160.935
152.049 26010 161.276
152.167 26605 163.11
152.284 26117 161.608
152.402 25689 160.278
152.519 25158 158.613
152.636 24642 156.978
152.754 24102 155.248
152.871 23913 154.638
152.989 23294 152.624
153.106 22886 151.281
153.223 22589 150.296
153.341 23073 151.898
153.458 23402 152.977
153.575 23405 152.987
153.693 23896 154.583
153.81 24349 156.042
153.927 24296 155.872
154.044 23941 154.729
154.162 23534 153.408
154.279 24272 155.795
154.396 25129 158.521
154.513 25667 160.209
154.63 25997 161.236
154.747 26154 161.722
154.864 25740 160.437
154.981 25212 158.783
155.098 24524 156.601
155.215 24153 155.412
155.332 23714 153.994
155.449 23503 153.307
155.566 23344 152.787
155.683 23388 152.931
155.8 22958 151.519
155.917 22536 150.12
156.033 22294 149.312
156.15 0 1
156.267 0 1
156.383 0 1
156.5 0 1
156.617 0 1
156.733 0 1
156.85 0 1
156.966 0 1
157.082 0 1
157.199 0 1
157.315 0 1
157.431 0 1
157.547 0 1
157.664 0 1
157.78 0 1
157.896 0 1
158.012 0 1
158.128 0 1
158.244 0 1
158.359 0 1
158.475 0 1
158.591 0 1
158.706 0 1
