
6.15755 0 1
6.2731 0 1
6.3887 0 1
6.50437 0 1
6.62009 0 1
6.73587 0 1
6.8517 0 1
6.96759 0 1
7.08353 0 1
7.19952 0 1
7.31557 0 1
7.43166 0 1
7.54781 0 1
7.664 0 1
7.78024 0 1
7.89653 0 1
8.01286 0 1
8.12924 0 1
8.24567 0 1
8.36213 0 1
8.47864 0 1
8.59519 0 1
8.71178 0 1
8.82841 0 1
8.94508 0 1
9.06179 0 1
9.17853 0 1
9.29531 0 1
9.41212 0 1
9.52897 0 1
9.64584 0 1
9.76276 0 1
9.8797 0 1
9.99667 0 1
10.1137 0 1
10.2307 0 1
10.3478 0 1
10.4648 0 1
10.5819 0 1
10.6991 0 1
10.8162 0 1
10.9334 0 1
11.0506 0 1
11.1678 0 1
11.285 0 1
11.4023 0 1
11.5196 0 1
11.6369 0 1
11.7542 0 1
11.8715 0 1
11.9888 0 1
12.1062 0 1
12.2235 0 1
12.3409 0 1
12.4582 0 1
12.5756 0 1
12.693 0 1
12.8104 0 1
12.9278 0 1
13.0452 0 1
13.1626 0 1
13.28 0 1
13.3974 0 1
13.5149 0 1
13.6323 0 1
13.7497 0 1
13.8671 0 1
13.9845 0 1
14.1019 0 1
14.2193 0 1
14.3367 0 1
14.4541 0 1
14.5714 0 1
14.6888 0 1
14.8062 0 1
14.9235 0 1
15.0408 11078 105.252
15.1581 11572 107.573
15.2755 11897 109.073
15.3927 11837 108.798
15.51 11950 109.316
15.6273 12066 109.845
15.7445 12028 109.672
15.8617 12039 109.722
15.9789 11960 109.362
16.0961 12134 110.154
16.2132 12307 110.937
16.3304 12633 112.397
16.4475 13100 114.455
16.5646 13673 116.932
16.6816 14074 118.634
16.7986 14270 119.457
16.9156 14780 121.573
17.0326 15104 122.898
17.1496 15523 124.591
17.2665 15689 125.256
17.3833 16183 127.212
17.5002 16266 127.538
17.617 16556 128.67
17.7338 16331 127.793
17.8505 16549 128.643
17.9672 16506 128.476
18.0839 15839 125.853
18.2005 15301 123.697
18.3171 15055 122.699
18.4337 15420 124.177
18.5502 16331 127.793
18.6666 16837 129.757
18.7831 16908 130.031
18.8994 16982 130.315
19.0158 16610 128.88
19.1321 16209 127.315
19.2483 16160 127.122
19.3645 15469 124.374
19.4806 15328 123.806
19.5967 15249 123.487
19.7128 14889 122.02
19.8288 14932 122.197
19.9447 13382 115.681
20.0606 0 1
20.1764 0 1
20.2922 0 1
20.4079 0 1
20.5236 0 1
20.6392 0 1
20.7548 0 1
20.8702 0 1
23.3078 0 1
23.4233 0 1
23.539 0 1
23.6547 0 1
23.7704 0 1
23.8862 0 1
24.0021 0 1
24.118 0 1
24.234 0 1
24.35 0 1
24.4661 15000 122.474
24.5822 15258 123.523
24.6984 15082 122.809
24.8146 15047 122.666
24.9309 14916 122.131
25.0472 14930 122.188
25.1636 14910 122.107
25.28 15267 123.56
25.3965 15506 124.523
25.513 16070 126.768
25.6296 16783 129.549
25.7462 17214 131.202
25.8628 17395 131.89
25.9795 17842 133.574
26.0962 17750 133.229
26.213 17679 132.962
26.3298 18109 134.57
26.4466 17909 133.825
26.5635 17750 133.229
26.6804 17302 131.537
26.7973 16067 126.756
26.9143 15655 125.12
27.0313 16267 127.542
27.1483 16896 129.985
27.2653 17383 131.845
27.3824 17441 132.064
27.4996 17360 131.757
27.6167 17010 130.422
27.7339 16663 129.085
27.8511 16296 127.656
27.9683 16055 126.708
28.0855 15852 125.905
28.2028 15680 125.22
28.3201 15414 124.153
28.4374 15245 123.471
28.5547 14902 122.074
28.6721 14974 122.368
28.7894 15011 122.519
28.9068 15171 123.171
29.0242 15476 124.403
29.1416 15717 125.367
29.259 16010 126.531
29.3764 16560 128.686
29.4939 16820 129.692
29.6113 17170 131.034
29.7288 17336 131.666
29.8463 17346 131.704
29.9638 17095 130.748
30.0812 17092 130.736
30.1987 16361 127.91
30.3162 15769 125.575
30.4337 14846 121.844
30.5512 15108 122.915
30.6687 15698 125.292
30.7862 16521 128.534
30.9037 16670 129.112
31.0212 16741 129.387
31.1387 16776 129.522
31.2562 16431 128.183
31.3737 16135 127.024
31.4912 15610 124.94
31.6087 15464 124.354
31.7262 15439 124.254
31.8436 15218 123.361
31.9611 15078 122.793
32.0785 14734 121.384
32.1959 14399 119.996
32.3134 14700 121.244
32.4308 14528 120.532
32.5482 14826 121.762
32.6655 15043 122.65
32.7829 15536 124.643
32.9002 15804 125.714
33.0176 16275 127.574
33.1349 16479 128.371
33.2522 16740 129.383
33.3694 16715 129.287
33.4867 16787 129.565
33.6039 16824 129.707
33.7211 16684 129.167
33.8383 16273 127.566
33.9554 15228 123.402
34.0725 14504 120.433
34.1896 14050 118.533
34.3067 14665 121.099
34.4237 14959 122.307
34.5407 15485 124.439
34.6577 16030 126.61
34.7746 15893 126.067
34.8915 15680 125.22
35.0084 15512 124.547
35.1252 15174 123.183
35.242 15163 123.138
35.3587 15061 122.723
35.4755 14691 121.206
35.5921 14885 122.004
35.7088 14338 119.741
35.8254 14056 118.558
35.9419 14074 118.634
36.0584 14030 118.448
36.1749 13809 117.512
36.2913 14222 119.256
36.4077 14293 119.553
36.524 14618 120.905
36.6403 14901 122.07
36.7565 15457 124.326
36.8727 15454 124.314
36.9889 15805 125.718
37.1049 15929 126.21
37.221 0 1
37.3369 0 1
37.4529 0 1
37.5687 0 1
37.6845 0 1
37.8003 0 1
37.916 0 1
38.0316 0 1
38.1472 0 1
40.5851 0 1
40.7008 0 1
40.8164 0 1
40.9322 0 1
41.048 0 1
41.1639 0 1
41.2798 0 1
41.3958 0 1
41.5118 0 1
41.6279 0 1
41.744 11283 106.221
41.8602 12334 111.059
41.9765 13016 114.088
42.0928 13307 115.356
42.2091 13567 116.477
42.3255 13280 115.239
42.4419 13380 115.672
42.5584 13386 115.698
42.675 12942 113.763
42.7915 12317 110.982
42.9081 11364 106.602
43.0248 10985 104.809
43.1415 11248 106.057
43.2582 11566 107.545
43.375 12232 110.598
43.4918 12475 111.692
43.6087 12520 111.893
43.7256 12442 111.544
43.8425 12115 110.068
43.9595 12018 109.627
44.0765 12041 109.731
44.1935 11788 108.573
44.3106 11236 106
44.4277 10815 103.995
44.5448 10658 103.238
44.6619 10415 102.054
44.7791 10232 101.153
44.8963 9698 98.4784
45.0136 9565 97.8008
45.1308 9547 97.7088
45.2481 9988 99.94
45.3654 9715 98.5647
45.4827 10033 100.165
45.6001 10224 101.114
45.7174 10318 101.578
45.8348 10747 103.668
45.9522 10441 102.181
46.0697 10288 101.43
46.1871 10182 100.906
46.3046 9810 99.0454
46.422 9168 95.7497
46.5395 8404 91.6733
46.657 8103 90.0167
46.7745 8560 92.5203
46.892 8976 94.7418
47.0096 9181 95.8175
47.1271 9424 97.0773
47.2446 9424 97.0773
47.3622 9417 97.0412
47.4797 9300 96.4365
47.5973 9002 94.8789
47.7149 8735 93.4612
47.8324 8715 93.3542
47.95 8675 93.1397
48.0675 8291 91.0549
48.1851 8142 90.233
48.3027 7981 89.3364
48.4202 7797 88.3006
48.5378 7729 87.9147
48.6554 7518 86.7064
48.7729 7818 88.4195
48.8904 8073 89.8499
49.008 8181 90.4489
49.1255 8670 93.1128
49.243 8897 94.3239
49.3605 9111 95.4516
49.478 9083 95.3048
49.5955 9350 96.6954
49.713 8906 94.3716
49.8304 8607 92.7739
49.9479 8372 91.4986
50.0653 7834 88.5099
50.1827 7523 86.7352
50.3001 8074 89.8554
50.4175 8585 92.6553
50.5348 8995 94.842
50.6521 9527 97.6064
50.7694 9664 98.3056
50.8867 9904 99.5188
51.004 9850 99.2472
51.1212 10068 100.339
51.2384 10101 100.504
51.3556 10189 100.941
51.4727 10272 101.351
51.5899 10107 100.534
51.707 10288 101.43
51.824 10053 100.265
51.9411 9923 99.6143
52.0581 9788 98.9343
52.175 10076 100.379
52.2919 10241 101.198
52.4088 10640 103.15
52.5257 11413 106.832
52.6425 11682 108.083
52.7593 11951 109.321
52.876 12254 110.698
52.9927 12359 111.171
53.1094 12758 112.951
53.226 12547 112.013
53.3426 12668 112.552
53.4591 12413 111.414
53.5756 11631 107.847
53.692 10648 103.189
53.8084 10498 102.46
53.9248 11059 105.162
54.0411 11459 107.047
54.1573 12395 111.333
54.2735 0 1
54.3896 0 1
54.5057 0 1
54.6217 0 1
54.7377 0 1
54.8537 0 1
54.9695 0 1
55.0853 0 1
55.2011 0 1
55.3168 0 1
55.4324 0 1
57.824 0 1
57.9396 0 1
58.0553 0 1
58.1711 0 1
58.2869 0 1
58.4028 0 1
58.5187 0 1
58.6347 0 1
58.7508 0 1
58.8669 0 1
58.983 12367 111.207
59.0992 13219 114.974
59.2155 14057 118.562
59.3318 14988 122.425
59.4482 15518 124.571
59.5646 15677 125.208
59.681 15935 126.234
59.7975 16068 126.76
59.9141 15731 125.423
60.0306 15591 124.864
60.1473 15728 125.411
60.2639 15269 123.568
60.3807 14881 121.988
60.4974 14311 119.629
60.6142 13915 117.962
60.731 13410 115.802
60.8479 13275 115.217
60.9648 13252 115.117
61.0818 13690 117.004
61.1987 14106 118.769
61.3158 14613 120.884
61.4328 14905 122.086
61.5499 15427 124.205
61.667 15203 123.3
61.7841 15324 123.79
61.9013 15181 123.211
62.0185 14617 120.901
62.1357 13888 117.847
62.253 12821 113.23
62.3702 12612 112.303
62.4875 12873 113.459
62.6049 13196 114.874
62.7222 14069 118.613
62.8396 14759 121.487
62.9569 14960 122.311
63.0743 15433 124.23
63.1918 15348 123.887
63.3092 15404 124.113
63.4267 15337 123.843
63.5441 14949 122.266
63.6616 14807 121.684
63.7791 14519 120.495
63.8966 14145 118.933
64.0142 13652 116.842
64.1317 13096 114.438
64.2492 12350 111.131
64.3668 12170 110.318
64.4843 12355 111.153
64.6019 13010 114.061
64.7195 13270 115.195
64.837 13848 117.678
64.9546 14304 119.599
65.0722 14744 121.425
65.1898 14632 120.963
65.3074 15159 123.122
65.4249 14676 121.145
65.5425 14602 120.839
65.6601 13706 117.073
65.7777 12787 113.08
65.8952 11932 109.234
66.0128 11648 107.926
66.1304 12225 110.567
66.2479 13094 114.429
66.3655 13551 116.409
66.483 14153 118.966
66.6005 14627 120.942
66.718 14961 122.315
66.8355 15028 122.589
66.953 15160 123.126
67.0705 14707 121.272
67.1879 14704 121.26
67.3054 14273 119.47
67.4228 14252 119.382
67.5402 13812 117.524
67.6576 13232 115.03
67.7749 12582 112.17
67.8923 12184 110.381
68.0096 12146 110.209
68.1269 12075 109.886
68.2442 12554 112.045
68.3614 13288 115.274
68.4787 13652 116.842
68.5958 14534 120.557
68.713 14800 121.655
68.8302 15115 122.943
68.9473 15204 123.305
69.0643 15184 123.223
69.1814 14827 121.766
69.2984 14388 119.95
69.4154 13477 116.09
69.5323 12516 111.875
69.6492 12101 110.005
69.7661 12645 112.45
69.8829 13262 115.161
69.9997 14284 119.516
70.1165 14890 122.025
70.2332 15472 124.386
70.3499 15503 124.511
70.4665 16111 126.929
70.5831 15856 125.921
70.6996 16041 126.653
70.8161 15909 126.131
70.9326 15604 124.916
71.049 15473 124.391
71.1653 14941 122.233
71.2817 14354 119.808
71.3979 13762 117.312
71.5141 12948 113.789
71.6303 11966 109.389
71.7464 11206 105.858
71.8624 0 1
71.9784 0 1
72.0944 0 1
72.2102 0 1
72.3261 0 1
72.4418 0 1
72.5575 0 1
72.6732 0 1
75.1054 0 1
75.2209 0 1
75.3365 0 1
75.4521 0 1
75.5678 0 1
75.6835 0 1
75.7993 0 1
75.9151 0 1
76.031 0 1
76.147 14473 120.304
76.263 14898 122.057
76.3791 14975 122.372
76.4952 14219 119.243
76.6113 14068 118.609
76.7276 12939 113.75
76.8438 12478 111.705
76.9601 12591 112.21
77.0765 13235 115.043
77.1929 13665 116.897
77.3093 14918 122.139
77.4258 15678 125.212
77.5423 16063 126.74
77.6589 15995 126.471
77.7755 16069 126.764
77.8921 15784 125.634
78.0088 15534 124.635
78.1256 14570 120.706
78.2423 13363 115.598
78.3591 12233 110.603
78.4759 11765 108.467
78.5928 12143 110.195
78.7097 13115 114.521
78.8266 13840 117.644
78.9436 15331 123.818
79.0606 15191 123.252
79.1776 15753 125.511
79.2946 15890 126.056
79.4117 16006 126.515
79.5288 16137 127.031
79.6459 15917 126.163
79.7631 15600 124.9
79.8802 15392 124.064
79.9974 15292 123.661
80.1147 14852 121.869
80.2319 13976 118.22
80.3491 13018 114.096
80.4664 12482 111.723
80.5837 12425 111.467
80.701 12862 113.411
80.8183 13494 116.164
80.9357 14523 120.511
81.053 15274 123.588
81.1704 15703 125.312
81.2877 15859 125.933
81.4051 15762 125.547
81.5225 15878 126.008
81.6399 15447 124.286
81.7573 15109 122.919
81.8747 13464 116.034
81.9922 12482 111.723
82.1096 12063 109.832
82.227 12123 110.104
82.3444 12990 113.974
82.4619 14223 119.26
82.5793 15046 122.662
82.6967 14956 122.295
82.8142 15574 124.796
82.9316 15722 125.387
83.049 16087 126.835
83.1664 16082 126.815
83.2838 16239 127.432
83.4012 16100 126.886
83.5186 15247 123.479
83.636 15298 123.685
83.7534 14913 122.119
83.8708 14450 120.208
83.9881 13360 115.585
84.1055 12581 112.165
84.2228 12709 112.734
84.3401 12894 113.552
84.4575 13602 116.628
84.5747 14808 121.688
84.692 15517 124.567
84.8093 16502 128.46
84.9265 16589 128.798
85.0437 16701 129.232
85.1609 16005 126.511
85.2781 15474 124.395
85.3952 14404 120.017
85.5123 13132 114.595
85.6294 12531 111.942
85.7465 12353 111.144
85.8636 13126 114.569
85.9806 14112 118.794
86.0976 15066 122.744
86.2145 15816 125.762
86.3315 16326 127.773
86.4484 16647 129.023
86.5652 16926 130.1
86.682 17014 130.438
86.7988 17466 132.159
86.9156 17034 130.514
87.0323 16816 129.677
87.149 16491 128.417
87.2657 16410 128.102
87.3823 15887 126.044
87.4988 14784 121.589
87.6154 13857 117.716
87.7318 13647 116.82
87.8483 13640 116.79
87.9647 14550 120.623
88.081 15435 124.238
88.1973 16517 128.518
88.3136 16865 129.865
88.4298 17186 131.095
88.546 17096 130.752
88.6621 17092 130.736
88.7781 16512 128.499
88.8942 0 1
89.0101 0 1
89.126 0 1
89.2419 0 1
89.3577 0 1
89.4734 0 1
89.5891 0 1
89.7047 0 1
89.8203 0 1
89.9358 0 1
92.3269 0 1
92.4424 0 1
92.558 0 1
92.6736 0 1
92.7893 0 1
92.905 0 1
93.0208 0 1
93.1366 0 1
93.2525 0 1
93.3685 0 1
93.4845 0 1
93.6005 16410 128.102
93.7167 16567 128.713
93.8328 16508 128.483
93.949 15904 126.111
94.0653 15370 123.976
94.1816 14670 121.12
94.2979 13839 117.639
94.4143 13303 115.339
94.5307 13191 114.852
94.6472 13373 115.642
94.7637 14109 118.781
94.8803 15120 122.963
94.9969 15689 125.256
95.1135 16483 128.386
95.2302 16393 128.035
95.3469 16699 129.225
95.4637 17128 130.874
95.5805 17221 131.229
95.6973 17421 131.989
95.8142 17112 130.813
95.9311 17282 131.461
96.048 16923 130.088
96.1649 16536 128.592
96.2819 16223 127.37
96.3989 15623 124.992
96.516 14309 119.62
96.633 13579 116.529
96.7501 13535 116.34
96.8673 14195 119.143
96.9844 14936 122.213
97.1016 16032 126.618
97.2188 16726 129.329
97.336 17391 131.875
97.4532 17137 130.908
97.5704 16749 129.418
97.6877 16326 127.773
97.805 15711 125.344
97.9223 14674 121.136
98.0396 13654 116.85
98.1569 13186 114.83
98.2743 13095 114.433
98.3916 13429 115.884
98.509 14519 120.495
98.6264 15359 123.931
98.7438 15810 125.738
98.8612 16413 128.113
98.9786 16793 129.588
99.096 16886 129.946
99.2134 17112 130.813
99.3308 16975 130.288
99.4482 17090 130.729
99.5656 16877 129.912
99.6831 16360 127.906
99.8005 16017 126.558
99.9179 15742 125.467
100.035 15135 123.024
100.153 14025 118.427
100.27 13071 114.328
100.388 13554 116.422
100.505 14070 118.617
100.622 15221 123.373
100.74 16082 126.815
100.857 16608 128.872
100.975 16811 129.657
101.092 16872 129.892
101.209 16793 129.588
101.327 16313 127.722
101.444 15404 124.113
101.561 14182 119.088
101.679 13836 117.627
101.796 13248 115.1
101.913 13240 115.065
102.03 14265 119.436
102.148 15119 122.959
102.265 14619 120.909
102.382 17752 133.237
102.499 16947 130.181
102.616 17387 131.86
102.733 17752 133.237
102.851 17603 132.676
102.968 18031 134.28
103.085 17975 134.071
103.202 17552 132.484
103.319 17467 132.163
103.436 16660 129.074
103.552 16370 127.945
103.669 14935 122.209
103.786 14334 119.725
103.903 14483 120.345
104.02 15114 122.939
104.137 16522 128.538
104.253 17438 132.053
104.37 17870 133.679
104.487 18533 136.136
104.603 18232 135.026
104.72 17646 132.838
104.836 17250 131.339
104.953 16060 126.728
105.069 15250 123.491
105.186 14325 119.687
105.302 14322 119.675
105.418 14431 120.129
105.535 15555 124.72
105.651 16221 127.362
105.767 17161 131
105.883 17542 132.446
105.999 17945 133.959
106.115 0 1
106.231 0 1
106.347 0 1
106.463 0 1
106.579 0 1
106.694 0 1
106.81 0 1
106.926 0 1
107.041 0 1
107.157 0 1
109.576 0 1
109.692 0 1
109.807 0 1
109.923 0 1
110.039 0 1
110.155 0 1
110.27 0 1
110.386 0 1
110.502 0 1
110.618 13988 118.271
110.735 14978 122.385
110.851 15237 123.438
110.967 15433 124.23
111.083 15982 126.42
111.199 16243 127.448
111.316 16091 126.85
111.432 16225 127.377
111.549 15889 126.052
111.665 15659 125.136
111.782 15421 124.181
111.898 15021 122.56
112.015 14037 118.478
112.132 12923 113.679
112.248 12329 111.036
112.365 12340 111.086
112.482 13451 115.978
112.599 13738 117.209
112.716 14853 121.873
112.832 14917 122.135
112.949 14820 121.737
113.066 14664 121.095
113.183 14575 120.727
113.3 13937 118.055
113.417 12936 113.737
113.534 12113 110.059
113.652 11535 107.401
113.769 11031 105.029
113.886 11104 105.376
114.003 11179 105.731
114.12 11953 109.33
114.238 12483 111.727
114.355 12827 113.256
114.472 13131 114.591
114.589 12889 113.53
114.707 13287 115.269
114.824 13222 114.987
114.942 13075 114.346
115.059 13096 114.438
115.176 12895 113.556
115.294 12303 110.919
115.411 11826 108.747
115.529 11349 106.532
115.646 10798 103.913
115.764 9767 98.8281
115.881 9806 99.0252
115.999 10184 100.916
116.116 10682 103.354
116.234 11411 106.822
116.351 11422 106.874
116.469 11549 107.466
116.586 11442 106.967
116.704 11146 105.575
116.821 10806 103.952
116.939 10255 101.267
117.056 9596 97.9592
117.174 9102 95.4044
117.291 8858 94.1169
117.409 8590 92.6823
117.526 8864 94.1488
117.644 9339 96.6385
117.761 9927 99.6343
117.879 10104 100.519
117.996 10307 101.523
118.114 10696 103.421
118.231 10729 103.581
118.349 10600 102.956
118.466 10846 104.144
118.584 11091 105.314
118.701 11101 105.361
118.819 10793 103.889
118.936 10793 103.889
119.053 10461 102.279
119.171 10042 100.21
119.288 9546 97.7036
119.405 9012 94.9316
119.523 9138 95.5929
119.64 9708 98.5292
119.757 10194 100.965
119.875 10966 104.719
119.992 11144 105.565
120.109 11373 106.644
120.226 11382 106.686
120.343 11236 106
120.46 11249 106.061
120.578 10694 103.412
120.695 10282 101.4
120.812 9795 98.9697
120.929 9488 97.4064
121.046 9750 98.7421
121.163 9374 96.8194
121.279 9925 99.6243
121.396 10583 102.874
121.513 11038 105.062
121.63 11533 107.392
121.747 11921 109.183
121.863 11820 108.72
121.98 12355 111.153
122.097 12312 110.959
122.213 12667 112.548
122.33 12613 112.308
122.446 12594 112.223
122.563 12827 113.256
122.679 12480 111.714
122.795 12369 111.216
122.912 11906 109.115
123.028 11155 105.617
123.144 10720 103.537
123.26 10773 103.793
123.377 0 1
123.493 0 1
123.609 0 1
123.725 0 1
123.84 0 1
123.956 0 1
124.072 0 1
124.188 0 1
124.303 0 1
124.419 0 1
126.852 0 1
126.968 0 1
127.083 0 1
127.199 0 1
127.315 0 1
127.431 0 1
127.547 0 1
127.663 0 1
127.779 0 1
127.895 0 1
128.011 0 1
128.127 0 1
128.243 0 1
128.359 13029 114.145
128.476 12522 111.902
128.592 13004 114.035
128.708 13647 116.82
128.825 14898 122.057
128.941 15320 123.774
129.058 15220 123.369
129.174 15201 123.292
129.291 15193 123.26
129.408 14847 121.848
129.524 13970 118.195
129.641 13484 116.121
129.758 12901 113.583
129.875 12204 110.472
129.992 12109 110.041
130.108 11987 109.485
130.225 12433 111.503
130.342 12642 112.437
130.459 12951 113.802
130.576 13212 114.943
130.693 13376 115.655
130.81 13467 116.047
130.928 13468 116.052
131.045 13648 116.825
131.162 13870 117.771
131.279 13805 117.495
131.396 13808 117.507
131.513 13703 117.06
131.631 13184 114.822
131.748 12600 112.25
131.865 12036 109.709
131.983 11360 106.583
132.1 11575 107.587
132.217 12298 110.896
132.335 13091 114.416
132.452 13180 114.804
132.57 13402 115.767
132.687 12692 112.659
132.804 13624 116.722
132.922 12875 113.468
133.039 12058 109.809
133.157 11662 107.991
133.274 11257 106.099
133.392 10654 103.218
133.509 10300 101.489
133.627 10225 101.119
133.744 10184 100.916
133.862 10645 103.175
133.979 10643 103.165
134.097 10876 104.288
134.214 11187 105.769
134.332 10823 104.034
134.449 11000 104.881
134.567 11150 105.594
134.684 11218 105.915
134.802 11266 106.141
134.919 11051 105.124
135.037 11077 105.247
135.154 10565 102.786
135.272 10061 100.305
135.389 9815 99.0707
135.507 9257 96.2133
135.624 9175 95.7862
135.742 9478 97.355
135.859 9804 99.0152
135.977 9946 99.7296
136.094 10285 101.415
136.211 9825 99.1211
136.329 9930 99.6494
136.446 9746 98.7218
136.564 9506 97.4987
136.681 8995 94.842
136.798 8784 93.723
136.915 8242 90.7855
137.033 8132 90.1776
137.15 7917 88.9775
137.267 7959 89.2132
137.384 8084 89.9111
137.502 8349 91.3729
137.619 8500 92.1954
137.736 8851 94.0798
137.853 8614 92.8116
137.97 8746 93.5201
138.087 9440 97.1597
138.204 9517 97.5551
138.321 9631 98.1377
138.438 9704 98.5089
138.555 9904 99.5188
138.672 9775 98.8686
138.788 9805 99.0202
138.905 9654 98.2548
139.022 9248 96.1665
139.139 8952 94.615
139.255 9317 96.5246
139.372 9795 98.9697
139.488 10399 101.975
139.605 10787 103.86
139.721 11092 105.319
139.838 11113 105.418
139.954 11250 106.066
140.071 10774 103.798
140.187 11126 105.48
140.303 10535 102.64
140.419 10339 101.681
140.535 10054 100.27
140.652 9698 98.4784
140.768 0 1
140.884 0 1
141 0 1
141.115 0 1
141.231 0 1
141.347 0 1
141.463 0 1
141.578 0 1
141.694 0 1
144.104 0 1
144.219 0 1
144.335 0 1
144.45 0 1
144.566 0 1
144.682 0 1
144.798 0 1
144.914 0 1
145.03 0 1
145.146 9517 97.5551
145.262 9494 97.4372
145.378 9100 95.3939
145.494 8852 94.0851
145.61 8562 92.5311
145.726 8297 91.0879
145.842 7956 89.1964
145.959 7744 88
146.075 7951 89.1684
146.192 8034 89.6326
146.308 8017 89.5377
146.425 8083 89.9055
146.541 8194 90.5207
146.658 8157 90.3161
146.774 8154 90.2995
146.891 8204 90.5759
147.008 8218 90.6532
147.125 8248 90.8185
147.241 8417 91.7442
147.358 8229 90.7138
147.475 7951 89.1684
147.592 7672 87.59
147.709 7318 85.5453
147.826 7083 84.1606
147.943 7237 85.0706
148.06 7275 85.2936
148.177 7804 88.3403
148.294 7823 88.4477
148.411 7729 87.9147
148.528 7785 88.2326
148.645 7568 86.9943
148.762 7553 86.908
148.88 7361 85.7963
148.997 7321 85.5628
149.114 6411 80.0687
149.231 6598 81.2281
149.349 6298 79.3599
149.466 6289 79.3032
149.583 6178 78.6003
149.701 6129 78.2879
149.818 6116 78.2049
149.935 6518 80.7341
150.053 6677 81.7129
150.17 6728 82.0244
150.287 6894 83.0301
150.405 6916 83.1625
150.522 6981 83.5524
150.64 7078 84.1309
150.757 7277 85.3053
150.875 6992 83.6182
150.992 7070 84.0833
151.11 7062 84.0357
151.227 6911 83.1324
151.344 6588 81.1665
151.462 6714 81.939
151.579 6737 82.0792
151.697 7133 84.4571
151.814 7491 86.5506
151.932 7566 86.9828
152.049 7694 87.7154
152.167 7663 87.5386
152.284 7642 87.4185
152.402 7679 87.6299
152.519 7549 86.885
152.636 7384 85.9302
152.754 7158 84.605
152.871 7117 84.3623
152.989 6853 82.7828
153.106 6841 82.7103
153.223 6829 82.6378
153.341 7023 83.8033
153.458 7027 83.8272
153.575 7286 85.3581
153.693 7455 86.3423
153.81 7561 86.954
153.927 7526 86.7525
154.044 7742 87.9886
154.162 8027 89.5935
154.279 8038 89.6549
154.396 8162 90.3438
154.513 8354 91.4002
154.63 8559 92.5149
154.747 8535 92.3851
154.864 8385 91.5696
154.981 8139 90.2164
155.098 8022 89.5656
155.215 8396 91.6297
155.332 8725 93.4077
155.449 9085 95.3153
155.566 9122 95.5092
155.683 9268 96.2705
155.8 9387 96.8865
155.917 9389 96.8969
156.033 9118 95.4882
156.15 0 1
156.267 0 1
156.383 0 1
156.5 0 1
156.617 0 1
156.733 0 1
156.85 0 1
156.966 0 1
157.082 0 1
157.199 0 1
157.315 0 1
157.431 0 1
157.547 0 1
157.664 0 1
157.78 0 1
157.896 0 1
158.012 0 1
158.128 0 1
158.244 0 1
158.359 0 1
158.475 0 1
158.591 0 1
158.706 0 1
