
6.15755 0 1
6.2731 0 1
6.3887 0 1
6.50437 0 1
6.62009 0 1
6.73587 0 1
6.8517 0 1
6.96759 0 1
7.08353 0 1
7.19952 0 1
7.31557 0 1
7.43166 0 1
7.54781 0 1
7.664 0 1
7.78024 0 1
7.89653 0 1
8.01286 0 1
8.12924 0 1
8.24567 0 1
8.36213 0 1
8.47864 0 1
8.59519 0 1
8.71178 0 1
8.82841 0 1
8.94508 0 1
9.06179 0 1
9.17853 0 1
9.29531 0 1
9.41212 0 1
9.52897 0 1
9.64584 0 1
9.76276 0 1
9.8797 0 1
9.99667 0 1
10.1137 0 1
10.2307 0 1
10.3478 0 1
10.4648 0 1
10.5819 0 1
10.6991 0 1
10.8162 0 1
10.9334 0 1
11.0506 0 1
11.1678 0 1
11.285 0 1
11.4023 0 1
11.5196 0 1
11.6369 0 1
11.7542 0 1
11.8715 0 1
11.9888 0 1
12.1062 0 1
12.2235 0 1
12.3409 0 1
12.4582 0 1
12.5756 0 1
12.693 0 1
12.8104 0 1
12.9278 0 1
13.0452 0 1
13.1626 0 1
13.28 0 1
13.3974 0 1
13.5149 0 1
13.6323 0 1
13.7497 0 1
13.8671 0 1
13.9845 0 1
14.1019 0 1
14.2193 0 1
14.3367 0 1
14.4541 0 1
14.5714 0 1
14.6888 0 1
14.8062 0 1
14.9235 0 1
15.0408 89 9.43398
15.1581 128 11.3137
15.2755 105 10.247
15.3927 115 10.7238
15.51 116 10.7703
15.6273 124 11.1355
15.7445 118 10.8628
15.8617 107 10.3441
15.9789 112 10.583
16.0961 117 10.8167
16.2132 109 10.4403
16.3304 88 9.38083
16.4475 106 10.2956
16.5646 105 10.247
16.6816 102 10.0995
16.7986 109 10.4403
16.9156 85 9.21954
17.0326 99 9.94987
17.1496 90 9.48683
17.2665 99 9.94987
17.3833 96 9.79796
17.5002 94 9.69536
17.617 88 9.38083
17.7338 81 9
17.8505 95 9.74679
17.9672 82 9.05539
18.0839 78 8.83176
18.2005 95 9.74679
18.3171 86 9.27362
18.4337 99 9.94987
18.5502 85 9.21954
18.6666 94 9.69536
18.7831 94 9.69536
18.8994 114 10.6771
19.0158 78 8.83176
19.1321 102 10.0995
19.2483 87 9.32738
19.3645 77 8.77496
19.4806 76 8.7178
19.5967 83 9.11043
19.7128 66 8.12404
19.8288 67 8.18535
19.9447 81 9
20.0606 0 1
20.1764 0 1
20.2922 0 1
20.4079 0 1
20.5236 0 1
20.6392 0 1
20.7548 0 1
20.8702 0 1
23.3078 0 1
23.4233 0 1
23.539 0 1
23.6547 0 1
23.7704 0 1
23.8862 0 1
24.0021 0 1
24.118 0 1
24.234 0 1
24.35 0 1
24.4661 57 7.54983
24.5822 40 6.32456
24.6984 55 7.4162
24.8146 64 8
24.9309 84 9.16515
25.0472 84 9.16515
25.1636 104 10.198
25.28 110 10.4881
25.3965 99 9.94987
25.513 112 10.583
25.6296 108 10.3923
25.7462 99 9.94987
25.8628 98 9.89949
25.9795 93 9.64365
26.0962 107 10.3441
26.213 94 9.69536
26.3298 77 8.77496
26.4466 97 9.84886
26.5635 85 9.21954
26.6804 83 9.11043
26.7973 118 10.8628
26.9143 91 9.53939
27.0313 96 9.79796
27.1483 80 8.94427
27.2653 84 9.16515
27.3824 114 10.6771
27.4996 91 9.53939
27.6167 94 9.69536
27.7339 91 9.53939
27.8511 74 8.60233
27.9683 70 8.3666
28.0855 66 8.12404
28.2028 107 10.3441
28.3201 96 9.79796
28.4374 93 9.64365
28.5547 92 9.59166
28.6721 84 9.16515
28.7894 95 9.74679
28.9068 105 10.247
29.0242 94 9.69536
29.1416 97 9.84886
29.259 88 9.38083
29.3764 84 9.16515
29.4939 81 9
29.6113 105 10.247
29.7288 75 8.66025
29.8463 74 8.60233
29.9638 80 8.94427
30.0812 89 9.43398
30.1987 79 8.88819
30.3162 72 8.48528
30.4337 91 9.53939
30.5512 82 9.05539
30.6687 84 9.16515
30.7862 92 9.59166
30.9037 83 9.11043
31.0212 111 10.5357
31.1387 95 9.74679
31.2562 77 8.77496
31.3737 92 9.59166
31.4912 87 9.32738
31.6087 92 9.59166
31.7262 88 9.38083
31.8436 79 8.88819
31.9611 88 9.38083
32.0785 77 8.77496
32.1959 89 9.43398
32.3134 85 9.21954
32.4308 84 9.16515
32.5482 93 9.64365
32.6655 87 9.32738
32.7829 89 9.43398
32.9002 72 8.48528
33.0176 81 9
33.1349 78 8.83176
33.2522 61 7.81025
33.3694 75 8.66025
33.4867 66 8.12404
33.6039 68 8.24621
33.7211 81 9
33.8383 89 9.43398
33.9554 74 8.60233
34.0725 76 8.7178
34.1896 74 8.60233
34.3067 93 9.64365
34.4237 73 8.544
34.5407 69 8.30662
34.6577 83 9.11043
34.7746 89 9.43398
34.8915 72 8.48528
35.0084 73 8.544
35.1252 63 7.93725
35.242 71 8.42615
35.3587 79 8.88819
35.4755 88 9.38083
35.5921 70 8.3666
35.7088 88 9.38083
35.8254 78 8.83176
35.9419 81 9
36.0584 82 9.05539
36.1749 76 8.7178
36.2913 81 9
36.4077 61 7.81025
36.524 68 8.24621
36.6403 54 7.34847
36.7565 46 6.78233
36.8727 47 6.85565
36.9889 53 7.28011
37.1049 39 6.245
37.221 0 1
37.3369 0 1
37.4529 0 1
37.5687 0 1
37.6845 0 1
37.8003 0 1
37.916 0 1
38.0316 0 1
38.1472 0 1
40.5851 0 1
40.7008 0 1
40.8164 0 1
40.9322 0 1
41.048 0 1
41.1639 0 1
41.2798 0 1
41.3958 0 1
41.5118 0 1
41.6279 0 1
41.744 32 5.65685
41.8602 22 4.69042
41.9765 44 6.63325
42.0928 51 7.14143
42.2091 51 7.14143
42.3255 52 7.2111
42.4419 50 7.07107
42.5584 49 7
42.675 66 8.12404
42.7915 59 7.68115
42.9081 53 7.28011
43.0248 67 8.18535
43.1415 50 7.07107
43.2582 63 7.93725
43.375 51 7.14143
43.4918 61 7.81025
43.6087 47 6.85565
43.7256 53 7.28011
43.8425 58 7.61577
43.9595 45 6.7082
44.0765 61 7.81025
44.1935 70 8.3666
44.3106 61 7.81025
44.4277 65 8.06226
44.5448 67 8.18535
44.6619 62 7.87401
44.7791 70 8.3666
44.8963 67 8.18535
45.0136 75 8.66025
45.1308 62 7.87401
45.2481 68 8.24621
45.3654 66 8.12404
45.4827 75 8.66025
45.6001 62 7.87401
45.7174 78 8.83176
45.8348 44 6.63325
45.9522 86 9.27362
46.0697 66 8.12404
46.1871 73 8.544
46.3046 70 8.3666
46.422 55 7.4162
46.5395 60 7.74597
46.657 71 8.42615
46.7745 74 8.60233
46.892 62 7.87401
47.0096 56 7.48331
47.1271 74 8.60233
47.2446 68 8.24621
47.3622 58 7.61577
47.4797 67 8.18535
47.5973 60 7.74597
47.7149 63 7.93725
47.8324 69 8.30662
47.95 66 8.12404
48.0675 74 8.60233
48.1851 66 8.12404
48.3027 66 8.12404
48.4202 70 8.3666
48.5378 58 7.61577
48.6554 60 7.74597
48.7729 63 7.93725
48.8904 57 7.54983
49.008 66 8.12404
49.1255 69 8.30662
49.243 56 7.48331
49.3605 60 7.74597
49.478 61 7.81025
49.5955 45 6.7082
49.713 57 7.54983
49.8304 62 7.87401
49.9479 66 8.12404
50.0653 64 8
50.1827 49 7
50.3001 62 7.87401
50.4175 62 7.87401
50.5348 52 7.2111
50.6521 68 8.24621
50.7694 68 8.24621
50.8867 62 7.87401
51.004 54 7.34847
51.1212 58 7.61577
51.2384 73 8.544
51.3556 61 7.81025
51.4727 68 8.24621
51.5899 70 8.3666
51.707 59 7.68115
51.824 78 8.83176
51.9411 63 7.93725
52.0581 56 7.48331
52.175 61 7.81025
52.2919 66 8.12404
52.4088 60 7.74597
52.5257 62 7.87401
52.6425 81 9
52.7593 61 7.81025
52.876 75 8.66025
52.9927 66 8.12404
53.1094 61 7.81025
53.226 59 7.68115
53.3426 54 7.34847
53.4591 65 8.06226
53.5756 56 7.48331
53.692 57 7.54983
53.8084 51 7.14143
53.9248 49 7
54.0411 52 7.2111
54.1573 42 6.48074
54.2735 0 1
54.3896 0 1
54.5057 0 1
54.6217 0 1
54.7377 0 1
54.8537 0 1
54.9695 0 1
55.0853 0 1
55.2011 0 1
55.3168 0 1
55.4324 0 1
57.824 0 1
57.9396 0 1
58.0553 0 1
58.1711 0 1
58.2869 0 1
58.4028 0 1
58.5187 0 1
58.6347 0 1
58.7508 0 1
58.8669 0 1
58.983 192 13.8564
59.0992 229 15.1327
59.2155 357 18.8944
59.3318 523 22.8692
59.4482 687 26.2107
59.5646 945 30.7409
59.681 1205 34.7131
59.7975 1523 39.0256
59.9141 1836 42.8486
60.0306 2031 45.0666
60.1473 2135 46.2061
60.2639 2357 48.5489
60.3807 2668 51.6527
60.4974 3110 55.7674
60.6142 3436 58.6174
60.731 4038 63.5453
60.8479 4549 67.4463
60.9648 5302 72.8148
61.0818 5960 77.201
61.1987 6529 80.8022
61.3158 6367 79.7935
61.4328 5586 74.7395
61.5499 4638 68.1029
61.667 4672 68.352
61.7841 5708 75.5513
61.9013 7750 88.0341
62.0185 10688 103.383
62.1357 13784 117.405
62.253 15788 125.65
62.3702 17684 132.981
62.4875 19326 139.018
62.6049 21194 145.582
62.7222 22317 149.389
62.8396 22837 151.119
62.9569 22393 149.643
63.0743 21135 145.379
63.1918 19459 139.496
63.3092 17749 133.225
63.4267 16136 127.028
63.5441 14571 120.71
63.6616 12843 113.327
63.7791 10939 104.59
63.8966 9155 95.6818
64.0142 7363 85.8079
64.1317 5756 75.8683
64.2492 4293 65.521
64.3668 2990 54.6809
64.4843 2174 46.6262
64.6019 1524 39.0384
64.7195 1284 35.8329
64.837 998 31.5911
64.9546 672 25.923
65.0722 337 18.3576
65.1898 193 13.8924
65.3074 120 10.9545
65.4249 77 8.77496
65.5425 89 9.43398
65.6601 79 8.88819
65.7777 62 7.87401
65.8952 85 9.21954
66.0128 85 9.21954
66.1304 62 7.87401
66.2479 70 8.3666
66.3655 56 7.48331
66.483 77 8.77496
66.6005 72 8.48528
66.718 88 9.38083
66.8355 72 8.48528
66.953 60 7.74597
67.0705 65 8.06226
67.1879 66 8.12404
67.3054 75 8.66025
67.4228 59 7.68115
67.5402 66 8.12404
67.6576 71 8.42615
67.7749 80 8.94427
67.8923 61 7.81025
68.0096 79 8.88819
68.1269 92 9.59166
68.2442 82 9.05539
68.3614 68 8.24621
68.4787 71 8.42615
68.5958 74 8.60233
68.713 49 7
68.8302 61 7.81025
68.9473 73 8.544
69.0643 45 6.7082
69.1814 52 7.2111
69.2984 67 8.18535
69.4154 74 8.60233
69.5323 88 9.38083
69.6492 73 8.544
69.7661 79 8.88819
69.8829 68 8.24621
69.9997 62 7.87401
70.1165 59 7.68115
70.2332 63 7.93725
70.3499 56 7.48331
70.4665 59 7.68115
70.5831 71 8.42615
70.6996 54 7.34847
70.8161 61 7.81025
70.9326 46 6.78233
71.049 52 7.2111
71.1653 40 6.32456
71.2817 44 6.63325
71.3979 36 6
71.5141 35 5.91608
71.6303 34 5.83095
71.7464 38 6.16441
71.8624 0 1
71.9784 0 1
72.0944 0 1
72.2102 0 1
72.3261 0 1
72.4418 0 1
72.5575 0 1
72.6732 0 1
75.1054 0 1
75.2209 0 1
75.3365 0 1
75.4521 0 1
75.5678 0 1
75.6835 0 1
75.7993 0 1
75.9151 0 1
76.031 0 1
76.147 41 6.40312
76.263 53 7.28011
76.3791 59 7.68115
76.4952 59 7.68115
76.6113 65 8.06226
76.7276 66 8.12404
76.8438 66 8.12404
76.9601 67 8.18535
77.0765 74 8.60233
77.1929 62 7.87401
77.3093 61 7.81025
77.4258 55 7.4162
77.5423 72 8.48528
77.6589 58 7.61577
77.7755 74 8.60233
77.8921 66 8.12404
78.0088 55 7.4162
78.1256 43 6.55744
78.2423 57 7.54983
78.3591 57 7.54983
78.4759 57 7.54983
78.5928 81 9
78.7097 51 7.14143
78.8266 68 8.24621
78.9436 74 8.60233
79.0606 57 7.54983
79.1776 59 7.68115
79.2946 75 8.66025
79.4117 65 8.06226
79.5288 75 8.66025
79.6459 70 8.3666
79.7631 64 8
79.8802 45 6.7082
79.9974 59 7.68115
80.1147 64 8
80.2319 67 8.18535
80.3491 68 8.24621
80.4664 66 8.12404
80.5837 60 7.74597
80.701 81 9
80.8183 60 7.74597
80.9357 77 8.77496
81.053 71 8.42615
81.1704 77 8.77496
81.2877 82 9.05539
81.4051 77 8.77496
81.5225 77 8.77496
81.6399 81 9
81.7573 71 8.42615
81.8747 61 7.81025
81.9922 48 6.9282
82.1096 62 7.87401
82.227 58 7.61577
82.3444 65 8.06226
82.4619 77 8.77496
82.5793 56 7.48331
82.6967 72 8.48528
82.8142 77 8.77496
82.9316 95 9.74679
83.049 57 7.54983
83.1664 56 7.48331
83.2838 75 8.66025
83.4012 63 7.93725
83.5186 74 8.60233
83.636 62 7.87401
83.7534 83 9.11043
83.8708 53 7.28011
83.9881 75 8.66025
84.1055 75 8.66025
84.2228 66 8.12404
84.3401 65 8.06226
84.4575 78 8.83176
84.5747 74 8.60233
84.692 77 8.77496
84.8093 72 8.48528
84.9265 61 7.81025
85.0437 67 8.18535
85.1609 58 7.61577
85.2781 62 7.87401
85.3952 58 7.61577
85.5123 55 7.4162
85.6294 63 7.93725
85.7465 68 8.24621
85.8636 62 7.87401
85.9806 53 7.28011
86.0976 58 7.61577
86.2145 69 8.30662
86.3315 70 8.3666
86.4484 80 8.94427
86.5652 69 8.30662
86.682 84 9.16515
86.7988 70 8.3666
86.9156 64 8
87.0323 60 7.74597
87.149 64 8
87.2657 77 8.77496
87.3823 75 8.66025
87.4988 79 8.88819
87.6154 69 8.30662
87.7318 67 8.18535
87.8483 56 7.48331
87.9647 58 7.61577
88.081 46 6.78233
88.1973 49 7
88.3136 50 7.07107
88.4298 48 6.9282
88.546 41 6.40312
88.6621 37 6.08276
88.7781 34 5.83095
88.8942 0 1
89.0101 0 1
89.126 0 1
89.2419 0 1
89.3577 0 1
89.4734 0 1
89.5891 0 1
89.7047 0 1
89.8203 0 1
89.9358 0 1
92.3269 0 1
92.4424 0 1
92.558 0 1
92.6736 0 1
92.7893 0 1
92.905 0 1
93.0208 0 1
93.1366 0 1
93.2525 0 1
93.3685 0 1
93.4845 0 1
93.6005 49 7
93.7167 52 7.2111
93.8328 58 7.61577
93.949 76 8.7178
94.0653 56 7.48331
94.1816 72 8.48528
94.2979 74 8.60233
94.4143 77 8.77496
94.5307 73 8.544
94.6472 44 6.63325
94.7637 65 8.06226
94.8803 56 7.48331
94.9969 83 9.11043
95.1135 66 8.12404
95.2302 77 8.77496
95.3469 65 8.06226
95.4637 66 8.12404
95.5805 74 8.60233
95.6973 79 8.88819
95.8142 74 8.60233
95.9311 65 8.06226
96.048 104 10.198
96.1649 66 8.12404
96.2819 75 8.66025
96.3989 52 7.2111
96.516 62 7.87401
96.633 63 7.93725
96.7501 67 8.18535
96.8673 64 8
96.9844 79 8.88819
97.1016 71 8.42615
97.2188 83 9.11043
97.336 61 7.81025
97.4532 83 9.11043
97.5704 71 8.42615
97.6877 72 8.48528
97.805 63 7.93725
97.9223 70 8.3666
98.0396 62 7.87401
98.1569 73 8.544
98.2743 78 8.83176
98.3916 65 8.06226
98.509 64 8
98.6264 54 7.34847
98.7438 78 8.83176
98.8612 60 7.74597
98.9786 66 8.12404
99.096 72 8.48528
99.2134 61 7.81025
99.3308 69 8.30662
99.4482 67 8.18535
99.5656 60 7.74597
99.6831 60 7.74597
99.8005 64 8
99.9179 73 8.544
100.035 67 8.18535
100.153 72 8.48528
100.27 77 8.77496
100.388 79 8.88819
100.505 67 8.18535
100.622 80 8.94427
100.74 73 8.544
100.857 62 7.87401
100.975 60 7.74597
101.092 67 8.18535
101.209 74 8.60233
101.327 77 8.77496
101.444 73 8.544
101.561 81 9
101.679 82 9.05539
101.796 65 8.06226
101.913 65 8.06226
102.03 70 8.3666
102.148 79 8.88819
102.265 53 7.28011
102.382 63 7.93725
102.499 67 8.18535
102.616 84 9.16515
102.733 84 9.16515
102.851 75 8.66025
102.968 82 9.05539
103.085 67 8.18535
103.202 89 9.43398
103.319 86 9.27362
103.436 103 10.1489
103.552 72 8.48528
103.669 78 8.83176
103.786 93 9.64365
103.903 93 9.64365
104.02 98 9.89949
104.137 76 8.7178
104.253 75 8.66025
104.37 81 9
104.487 80 8.94427
104.603 85 9.21954
104.72 91 9.53939
104.836 89 9.43398
104.953 89 9.43398
105.069 76 8.7178
105.186 63 7.93725
105.302 55 7.4162
105.418 66 8.12404
105.535 40 6.32456
105.651 50 7.07107
105.767 36 6
105.883 32 5.65685
105.999 42 6.48074
106.115 0 1
106.231 0 1
106.347 0 1
106.463 0 1
106.579 0 1
106.694 0 1
106.81 0 1
106.926 0 1
107.041 0 1
107.157 0 1
109.576 0 1
109.692 0 1
109.807 0 1
109.923 0 1
110.039 0 1
110.155 0 1
110.27 0 1
110.386 0 1
110.502 0 1
110.618 26 5.09902
110.735 36 6
110.851 48 6.9282
110.967 63 7.93725
111.083 48 6.9282
111.199 70 8.3666
111.316 81 9
111.432 60 7.74597
111.549 91 9.53939
111.665 82 9.05539
111.782 68 8.24621
111.898 82 9.05539
112.015 78 8.83176
112.132 77 8.77496
112.248 73 8.544
112.365 70 8.3666
112.482 84 9.16515
112.599 60 7.74597
112.716 68 8.24621
112.832 77 8.77496
112.949 82 9.05539
113.066 55 7.4162
113.183 69 8.30662
113.3 78 8.83176
113.417 79 8.88819
113.534 65 8.06226
113.652 74 8.60233
113.769 75 8.66025
113.886 69 8.30662
114.003 63 7.93725
114.12 72 8.48528
114.238 84 9.16515
114.355 60 7.74597
114.472 58 7.61577
114.589 53 7.28011
114.707 70 8.3666
114.824 71 8.42615
114.942 66 8.12404
115.059 82 9.05539
115.176 74 8.60233
115.294 76 8.7178
115.411 88 9.38083
115.529 71 8.42615
115.646 59 7.68115
115.764 65 8.06226
115.881 65 8.06226
115.999 58 7.61577
116.116 60 7.74597
116.234 62 7.87401
116.351 79 8.88819
116.469 71 8.42615
116.586 65 8.06226
116.704 74 8.60233
116.821 82 9.05539
116.939 74 8.60233
117.056 62 7.87401
117.174 65 8.06226
117.291 83 9.11043
117.409 68 8.24621
117.526 67 8.18535
117.644 65 8.06226
117.761 65 8.06226
117.879 59 7.68115
117.996 45 6.7082
118.114 66 8.12404
118.231 67 8.18535
118.349 69 8.30662
118.466 58 7.61577
118.584 65 8.06226
118.701 83 9.11043
118.819 64 8
118.936 78 8.83176
119.053 61 7.81025
119.171 67 8.18535
119.288 55 7.4162
119.405 55 7.4162
119.523 54 7.34847
119.64 71 8.42615
119.757 62 7.87401
119.875 62 7.87401
119.992 80 8.94427
120.109 65 8.06226
120.226 62 7.87401
120.343 72 8.48528
120.46 58 7.61577
120.578 78 8.83176
120.695 58 7.61577
120.812 69 8.30662
120.929 61 7.81025
121.046 71 8.42615
121.163 68 8.24621
121.279 67 8.18535
121.396 62 7.87401
121.513 56 7.48331
121.63 59 7.68115
121.747 67 8.18535
121.863 51 7.14143
121.98 48 6.9282
122.097 53 7.28011
122.213 61 7.81025
122.33 41 6.40312
122.446 58 7.61577
122.563 48 6.9282
122.679 43 6.55744
122.795 42 6.48074
122.912 35 5.91608
123.028 31 5.56776
123.144 30 5.47723
123.26 33 5.74456
123.377 0 1
123.493 0 1
123.609 0 1
123.725 0 1
123.84 0 1
123.956 0 1
124.072 0 1
124.188 0 1
124.303 0 1
124.419 0 1
126.852 0 1
126.968 0 1
127.083 0 1
127.199 0 1
127.315 0 1
127.431 0 1
127.547 0 1
127.663 0 1
127.779 0 1
127.895 0 1
128.011 0 1
128.127 0 1
128.243 0 1
128.359 50 7.07107
128.476 69 8.30662
128.592 70 8.3666
128.708 65 8.06226
128.825 88 9.38083
128.941 75 8.66025
129.058 64 8
129.174 74 8.60233
129.291 77 8.77496
129.408 69 8.30662
129.524 59 7.68115
129.641 67 8.18535
129.758 63 7.93725
129.875 76 8.7178
129.992 90 9.48683
130.108 75 8.66025
130.225 73 8.544
130.342 74 8.60233
130.459 62 7.87401
130.576 73 8.544
130.693 75 8.66025
130.81 53 7.28011
130.928 60 7.74597
131.045 70 8.3666
131.162 68 8.24621
131.279 71 8.42615
131.396 77 8.77496
131.513 64 8
131.631 86 9.27362
131.748 78 8.83176
131.865 66 8.12404
131.983 75 8.66025
132.1 84 9.16515
132.217 71 8.42615
132.335 69 8.30662
132.452 77 8.77496
132.57 77 8.77496
132.687 71 8.42615
132.804 83 9.11043
132.922 99 9.94987
133.039 97 9.84886
133.157 78 8.83176
133.274 83 9.11043
133.392 69 8.30662
133.509 89 9.43398
133.627 70 8.3666
133.744 84 9.16515
133.862 88 9.38083
133.979 67 8.18535
134.097 67 8.18535
134.214 70 8.3666
134.332 53 7.28011
134.449 61 7.81025
134.567 72 8.48528
134.684 77 8.77496
134.802 73 8.544
134.919 74 8.60233
135.037 70 8.3666
135.154 88 9.38083
135.272 83 9.11043
135.389 79 8.88819
135.507 77 8.77496
135.624 75 8.66025
135.742 86 9.27362
135.859 79 8.88819
135.977 84 9.16515
136.094 74 8.60233
136.211 85 9.21954
136.329 85 9.21954
136.446 79 8.88819
136.564 85 9.21954
136.681 70 8.3666
136.798 84 9.16515
136.915 90 9.48683
137.033 70 8.3666
137.15 74 8.60233
137.267 67 8.18535
137.384 70 8.3666
137.502 86 9.27362
137.619 78 8.83176
137.736 63 7.93725
137.853 75 8.66025
137.97 84 9.16515
138.087 73 8.544
138.204 74 8.60233
138.321 57 7.54983
138.438 82 9.05539
138.555 83 9.11043
138.672 75 8.66025
138.788 78 8.83176
138.905 82 9.05539
139.022 76 8.7178
139.139 81 9
139.255 80 8.94427
139.372 66 8.12404
139.488 65 8.06226
139.605 69 8.30662
139.721 51 7.14143
139.838 67 8.18535
139.954 60 7.74597
140.071 51 7.14143
140.187 50 7.07107
140.303 53 7.28011
140.419 33 5.74456
140.535 32 5.65685
140.652 41 6.40312
140.768 0 1
140.884 0 1
141 0 1
141.115 0 1
141.231 0 1
141.347 0 1
141.463 0 1
141.578 0 1
141.694 0 1
144.104 0 1
144.219 0 1
144.335 0 1
144.45 0 1
144.566 0 1
144.682 0 1
144.798 0 1
144.914 0 1
145.03 0 1
145.146 76 8.7178
145.262 70 8.3666
145.378 75 8.66025
145.494 88 9.38083
145.61 90 9.48683
145.726 113 10.6301
145.842 106 10.2956
145.959 103 10.1489
146.075 104 10.198
146.192 107 10.3441
146.308 100 10
146.425 109 10.4403
146.541 120 10.9545
146.658 113 10.6301
146.774 112 10.583
146.891 102 10.0995
147.008 129 11.3578
147.125 144 12
147.241 153 12.3693
147.358 146 12.083
147.475 154 12.4097
147.592 155 12.4499
147.709 152 12.3288
147.826 128 11.3137
147.943 152 12.3288
148.06 136 11.6619
148.177 161 12.6886
148.294 181 13.4536
148.411 161 12.6886
148.528 155 12.4499
148.645 150 12.2474
148.762 163 12.7671
148.88 142 11.9164
148.997 173 13.1529
149.114 167 12.9228
149.231 175 13.2288
149.349 158 12.5698
149.466 134 11.5758
149.583 186 13.6382
149.701 170 13.0384
149.818 142 11.9164
149.935 153 12.3693
150.053 146 12.083
150.17 136 11.6619
150.287 145 12.0416
150.405 142 11.9164
150.522 140 11.8322
150.64 152 12.3288
150.757 142 11.9164
150.875 138 11.7473
150.992 138 11.7473
151.11 139 11.7898
151.227 138 11.7473
151.344 146 12.083
151.462 135 11.619
151.579 114 10.6771
151.697 116 10.7703
151.814 133 11.5326
151.932 136 11.6619
152.049 132 11.4891
152.167 142 11.9164
152.284 138 11.7473
152.402 131 11.4455
152.519 125 11.1803
152.636 133 11.5326
152.754 149 12.2066
152.871 156 12.49
152.989 146 12.083
153.106 145 12.0416
153.223 131 11.4455
153.341 129 11.3578
153.458 116 10.7703
153.575 132 11.4891
153.693 110 10.4881
153.81 123 11.0905
153.927 111 10.5357
154.044 130 11.4018
154.162 140 11.8322
154.279 126 11.225
154.396 118 10.8628
154.513 113 10.6301
154.63 144 12
154.747 133 11.5326
154.864 125 11.1803
154.981 126 11.225
155.098 105 10.247
155.215 106 10.2956
155.332 119 10.9087
155.449 113 10.6301
155.566 127 11.2694
155.683 107 10.3441
155.8 118 10.8628
155.917 142 11.9164
156.033 148 12.1655
156.15 0 1
156.267 0 1
156.383 0 1
156.5 0 1
156.617 0 1
156.733 0 1
156.85 0 1
156.966 0 1
157.082 0 1
157.199 0 1
157.315 0 1
157.431 0 1
157.547 0 1
157.664 0 1
157.78 0 1
157.896 0 1
158.012 0 1
158.128 0 1
158.244 0 1
158.359 0 1
158.475 0 1
158.591 0 1
158.706 0 1
