
6.15755 0 1
6.2731 0 1
6.3887 0 1
6.50437 0 1
6.62009 0 1
6.73587 0 1
6.8517 0 1
6.96759 0 1
7.08353 0 1
7.19952 0 1
7.31557 0 1
7.43166 0 1
7.54781 0 1
7.664 0 1
7.78024 0 1
7.89653 0 1
8.01286 0 1
8.12924 0 1
8.24567 0 1
8.36213 0 1
8.47864 0 1
8.59519 0 1
8.71178 0 1
8.82841 0 1
8.94508 0 1
9.06179 0 1
9.17853 0 1
9.29531 0 1
9.41212 0 1
9.52897 0 1
9.64584 0 1
9.76276 0 1
9.8797 0 1
9.99667 0 1
10.1137 0 1
10.2307 0 1
10.3478 0 1
10.4648 0 1
10.5819 0 1
10.6991 0 1
10.8162 0 1
10.9334 0 1
11.0506 0 1
11.1678 0 1
11.285 0 1
11.4023 0 1
11.5196 0 1
11.6369 0 1
11.7542 0 1
11.8715 0 1
11.9888 0 1
12.1062 0 1
12.2235 0 1
12.3409 0 1
12.4582 0 1
12.5756 0 1
12.693 0 1
12.8104 0 1
12.9278 0 1
13.0452 0 1
13.1626 0 1
13.28 0 1
13.3974 0 1
13.5149 0 1
13.6323 0 1
13.7497 0 1
13.8671 0 1
13.9845 0 1
14.1019 0 1
14.2193 0 1
14.3367 0 1
14.4541 0 1
14.5714 0 1
14.6888 0 1
14.8062 0 1
14.9235 0 1
15.0408 4405 66.3702
15.1581 4688 68.469
15.2755 5012 70.7955
15.3927 5234 72.3464
15.51 5179 71.9653
15.6273 5166 71.8749
15.7445 4827 69.4766
15.8617 4529 67.2978
15.9789 4374 66.1362
16.0961 4484 66.9627
16.2132 5029 70.9154
16.3304 5649 75.1598
16.4475 6291 79.3158
16.5646 6765 82.2496
16.6816 7351 85.738
16.7986 7387 85.9477
16.9156 7451 86.3192
17.0326 7548 86.8792
17.1496 7413 86.0988
17.2665 7476 86.4639
17.3833 7383 85.9244
17.5002 7350 85.7321
17.617 7415 86.1104
17.7338 7341 85.6796
17.8505 7254 85.1704
17.9672 7320 85.557
18.0839 7266 85.2408
18.2005 7383 85.9244
18.3171 7663 87.5386
18.4337 7711 87.8123
18.5502 7797 88.3006
18.6666 7875 88.7412
18.7831 7727 87.9034
18.8994 7749 88.0284
19.0158 7660 87.5214
19.1321 7168 84.664
19.2483 6553 80.9506
19.3645 5806 76.1971
19.4806 5226 72.2911
19.5967 4838 69.5557
19.7128 4939 70.278
19.8288 5389 73.4098
19.9447 5346 73.1163
20.0606 0 1
20.1764 0 1
20.2922 0 1
20.4079 0 1
20.5236 0 1
20.6392 0 1
20.7548 0 1
20.8702 0 1
23.3078 0 1
23.4233 0 1
23.539 0 1
23.6547 0 1
23.7704 0 1
23.8862 0 1
24.0021 0 1
24.118 0 1
24.234 0 1
24.35 0 1
24.4661 6365 79.781
24.5822 6287 79.2906
24.6984 5657 75.213
24.8146 4998 70.6965
24.9309 4904 70.0286
25.0472 5231 72.3257
25.1636 6210 78.8036
25.28 6881 82.9518
25.3965 7756 88.0682
25.513 8041 89.6716
25.6296 8700 93.2738
25.7462 8614 92.8116
25.8628 8702 93.2845
25.9795 8670 93.1128
26.0962 8744 93.5094
26.213 8613 92.8062
26.3298 8613 92.8062
26.4466 8544 92.4338
26.5635 8308 91.1482
26.6804 8492 92.152
26.7973 8333 91.2853
26.9143 8600 92.7362
27.0313 8408 91.6951
27.1483 8604 92.7577
27.2653 8715 93.3542
27.3824 8701 93.2792
27.4996 8603 92.7524
27.6167 8683 93.1826
27.7339 8599 92.7308
27.8511 8113 90.0722
27.9683 7680 87.6356
28.0855 7204 84.8764
28.2028 6303 79.3914
28.3201 5177 71.9514
28.4374 4435 66.5958
28.5547 4409 66.4003
28.6721 5086 71.3162
28.7894 5851 76.4918
28.9068 6800 82.4621
29.0242 7644 87.43
29.1416 8218 90.6532
29.259 8382 91.5533
29.3764 8398 91.6406
29.4939 8604 92.7577
29.6113 8667 93.0967
29.7288 8400 91.6515
29.8463 8457 91.9619
29.9638 8230 90.7193
30.0812 8030 89.6103
30.1987 7997 89.4259
30.3162 8446 91.9021
30.4337 8412 91.717
30.5512 8413 91.7224
30.6687 8416 91.7388
30.7862 8461 91.9837
30.9037 8474 92.0543
31.0212 8496 92.1737
31.1387 8341 91.3291
31.2562 8226 90.6973
31.3737 8286 91.0275
31.4912 7861 88.6623
31.6087 7223 84.9882
31.7262 6468 80.4239
31.8436 5528 74.3505
31.9611 4565 67.5648
32.0785 4428 66.5432
32.1959 4696 68.5274
32.3134 5741 75.7694
32.4308 6551 80.9382
32.5482 7451 86.3192
32.6655 8075 89.861
32.7829 8281 91
32.9002 8287 91.033
33.0176 8210 90.6091
33.1349 8188 90.4876
33.2522 8392 91.6079
33.3694 8040 89.666
33.4867 8139 90.2164
33.6039 8096 89.9778
33.7211 8062 89.7886
33.8383 7937 89.0898
33.9554 8095 89.9722
34.0725 7780 88.2043
34.1896 8059 89.7719
34.3067 8066 89.8109
34.4237 7906 88.9157
34.5407 7988 89.3756
34.6577 8043 89.6828
34.7746 7978 89.3197
34.8915 7928 89.0393
35.0084 8097 89.9833
35.1252 7858 88.6454
35.242 7540 86.8332
35.3587 7020 83.7854
35.4755 5912 76.8895
35.5921 4964 70.4557
35.7088 4156 64.467
35.8254 3929 62.6817
35.9419 4373 66.1287
36.0584 5153 71.7844
36.1749 5994 77.4209
36.2913 7055 83.994
36.4077 7543 86.8504
36.524 7604 87.2009
36.6403 7725 87.892
36.7565 7736 87.9545
36.8727 7891 88.8313
36.9889 7903 88.8988
37.1049 7585 87.0919
37.221 0 1
37.3369 0 1
37.4529 0 1
37.5687 0 1
37.6845 0 1
37.8003 0 1
37.916 0 1
38.0316 0 1
38.1472 0 1
40.5851 0 1
40.7008 0 1
40.8164 0 1
40.9322 0 1
41.048 0 1
41.1639 0 1
41.2798 0 1
41.3958 0 1
41.5118 0 1
41.6279 0 1
41.744 5494 74.1215
41.8602 6044 77.7432
41.9765 6312 79.4481
42.0928 6616 81.3388
42.2091 6430 80.1873
42.3255 6173 78.5684
42.4419 6084 78
42.5584 6073 77.9295
42.675 6135 78.3262
42.7915 6141 78.3645
42.9081 5912 76.8895
43.0248 6036 77.6917
43.1415 5914 76.9025
43.2582 5916 76.9155
43.375 6054 77.8075
43.4918 5992 77.408
43.6087 5866 76.5898
43.7256 5901 76.818
43.8425 5882 76.6942
43.9595 5645 75.1332
44.0765 5506 74.2024
44.1935 5141 71.7008
44.3106 4253 65.215
44.4277 3406 58.3609
44.5448 2572 50.7149
44.6619 2434 49.3356
44.7791 2960 54.4059
44.8963 3545 59.5399
45.0136 4084 63.9062
45.1308 4773 69.0869
45.2481 4830 69.4982
45.3654 4611 67.9043
45.4827 4719 68.695
45.6001 4737 68.8259
45.7174 4620 67.9706
45.8348 4469 66.8506
45.9522 4352 65.9697
46.0697 4238 65.0999
46.1871 4150 64.4205
46.3046 4335 65.8407
46.422 4124 64.2184
46.5395 4112 64.1249
46.657 4051 63.6475
46.7745 3954 62.8808
46.892 4009 63.3167
47.0096 4140 64.3428
47.1271 4135 64.304
47.2446 4009 63.3167
47.3622 3978 63.0714
47.4797 3856 62.0967
47.5973 3854 62.0806
47.7149 3674 60.6135
47.8324 3388 58.2065
47.95 2786 52.7826
48.0675 2138 46.2385
48.1851 1807 42.5088
48.3027 1849 43
48.4202 2281 47.7598
48.5378 2840 53.2917
48.6554 3172 56.3205
48.7729 3348 57.8619
48.8904 3524 59.3633
49.008 3476 58.9576
49.1255 3363 57.9914
49.243 3465 58.8643
49.3605 3320 57.6194
49.478 3338 57.7754
49.5955 3393 58.2495
49.713 3278 57.2538
49.8304 3291 57.3672
49.9479 3449 58.7282
50.0653 3455 58.7792
50.1827 3484 59.0254
50.3001 3636 60.2993
50.4175 3729 61.0655
50.5348 3749 61.2291
50.6521 3850 62.0484
50.7694 3899 62.442
50.8867 4083 63.8984
51.004 4048 63.6239
51.1212 4171 64.5833
51.2384 4184 64.6838
51.3556 3945 62.8092
51.4727 3254 57.0438
51.5899 2369 48.6724
51.707 2301 47.9687
51.824 2505 50.05
51.9411 3184 56.4269
52.0581 4128 64.2495
52.175 4782 69.152
52.2919 4983 70.5904
52.4088 4985 70.6045
52.5257 5132 71.638
52.6425 5297 72.7805
52.7593 5358 73.1984
52.876 5342 73.089
52.9927 5273 72.6154
53.1094 5374 73.3076
53.226 5305 72.8354
53.3426 5375 73.3144
53.4591 5411 73.5595
53.5756 5421 73.6274
53.692 5689 75.4255
53.8084 5567 74.6123
53.9248 5706 75.5381
54.0411 6076 77.9487
54.1573 6002 77.4726
54.2735 0 1
54.3896 0 1
54.5057 0 1
54.6217 0 1
54.7377 0 1
54.8537 0 1
54.9695 0 1
55.0853 0 1
55.2011 0 1
55.3168 0 1
55.4324 0 1
57.824 0 1
57.9396 0 1
58.0553 0 1
58.1711 0 1
58.2869 0 1
58.4028 0 1
58.5187 0 1
58.6347 0 1
58.7508 0 1
58.8669 0 1
58.983 6380 79.8749
59.0992 6682 81.7435
59.2155 6730 82.0366
59.3318 6991 83.6122
59.4482 6916 83.1625
59.5646 6825 82.6136
59.681 6851 82.7708
59.7975 6724 82
59.9141 6335 79.5927
60.0306 5925 76.974
60.1473 4918 70.1285
60.2639 4095 63.9922
60.3807 3566 59.716
60.4974 3707 60.8851
60.6142 4382 66.1967
60.731 5245 72.4224
60.8479 5797 76.138
60.9648 6076 77.9487
61.0818 6153 78.4411
61.1987 6132 78.3071
61.3158 6008 77.5113
61.4328 5932 77.0195
61.5499 5884 76.7072
61.667 5777 76.0066
61.7841 5494 74.1215
61.9013 5590 74.7663
62.0185 5494 74.1215
62.1357 5545 74.4648
62.253 5696 75.4718
62.3702 5746 75.8024
62.4875 6010 77.5242
62.6049 5963 77.2205
62.7222 5958 77.1881
62.8396 5918 76.9285
62.9569 5796 76.1315
63.0743 6023 77.608
63.1918 6091 78.0449
63.3092 5859 76.5441
63.4267 5634 75.06
63.5441 5171 71.9097
63.6616 4344 65.909
63.7791 3557 59.6406
63.8966 3021 54.9636
64.0142 3279 57.2626
64.1317 3826 61.8547
64.2492 4618 67.9559
64.3668 5057 71.1126
64.4843 5368 73.2666
64.6019 5527 74.3438
64.7195 5571 74.6391
64.837 5440 73.7564
64.9546 5438 73.7428
65.0722 5338 73.0616
65.1898 5151 71.7705
65.3074 5001 70.7177
65.4249 4781 69.1448
65.5425 4900 70
65.6601 4969 70.4911
65.7777 5106 71.4563
65.8952 5106 71.4563
66.0128 5345 73.1095
66.1304 5348 73.13
66.2479 5448 73.8106
66.3655 5377 73.328
66.483 5579 74.6927
66.6005 5624 74.9933
66.718 5557 74.5453
66.8355 5395 73.4507
66.953 5474 73.9865
67.0705 5380 73.3485
67.1879 4701 68.5638
67.3054 3999 63.2376
67.4228 3155 56.1694
67.5402 2803 52.9434
67.6576 3069 55.3986
67.7749 3687 60.7207
67.8923 4425 66.5207
68.0096 4874 69.814
68.1269 5174 71.9305
68.2442 5397 73.4643
68.3614 5484 74.054
68.4787 5410 73.5527
68.5958 5348 73.13
68.713 5284 72.6911
68.8302 5046 71.0352
68.9473 5034 70.9507
69.0643 5012 70.7955
69.1814 4953 70.3776
69.2984 5117 71.5332
69.4154 5350 73.1437
69.5323 5495 74.1283
69.6492 5610 74.8999
69.7661 5614 74.9266
69.8829 5758 75.8815
69.9997 5849 76.4788
70.1165 6053 77.801
70.2332 5815 76.2561
70.3499 5960 77.201
70.4665 6013 77.5435
70.5831 6093 78.0577
70.6996 5919 76.935
70.8161 5574 74.6592
70.9326 4864 69.7424
71.049 3919 62.6019
71.1653 3006 54.827
71.2817 2789 52.811
71.3979 3115 55.8122
71.5141 4066 63.7652
71.6303 4575 67.6387
71.7464 4635 68.0808
71.8624 0 1
71.9784 0 1
72.0944 0 1
72.2102 0 1
72.3261 0 1
72.4418 0 1
72.5575 0 1
72.6732 0 1
75.1054 0 1
75.2209 0 1
75.3365 0 1
75.4521 0 1
75.5678 0 1
75.6835 0 1
75.7993 0 1
75.9151 0 1
76.031 0 1
76.147 5247 72.4362
76.263 4951 70.3633
76.3791 3752 61.2536
76.4952 2853 53.4135
76.6113 2683 51.7977
76.7276 3545 59.5399
76.8438 4678 68.3959
76.9601 5572 74.6458
77.0765 5755 75.8617
77.1929 5900 76.8115
77.3093 5925 76.974
77.4258 6143 78.3773
77.5423 5796 76.1315
77.6589 5586 74.7395
77.7755 5397 73.4643
77.8921 5262 72.5396
78.0088 5053 71.0845
78.1256 5072 71.218
78.2423 5044 71.0211
78.3591 5089 71.3372
78.4759 5490 74.0945
78.5928 5727 75.6769
78.7097 5814 76.2496
78.8266 5770 75.9605
78.9436 6096 78.0769
79.0606 6056 77.8203
79.1776 5918 76.9285
79.2946 5944 77.0973
79.4117 6014 77.55
79.5288 5990 77.3951
79.6459 5995 77.4274
79.7631 5643 75.1199
79.8802 5207 72.1595
79.9974 3947 62.8252
80.1147 2897 53.8238
80.2319 2665 51.6236
80.3491 3334 57.7408
80.4664 4591 67.7569
80.5837 5213 72.2011
80.701 5493 74.1148
80.8183 5542 74.4446
80.9357 5557 74.5453
81.053 5502 74.1755
81.1704 5470 73.9594
81.2877 5460 73.8918
81.4051 5249 72.45
81.5225 4920 70.1427
81.6399 4811 69.3614
81.7573 4769 69.0579
81.8747 4587 67.7274
81.9922 4796 69.2532
82.1096 5082 71.2881
82.227 5216 72.2219
82.3444 5341 73.0821
82.4619 5478 74.0135
82.5793 5516 74.2698
82.6967 5415 73.5867
82.8142 5451 73.8309
82.9316 5623 74.9867
83.049 5503 74.1822
83.1664 5468 73.9459
83.2838 5265 72.5603
83.4012 5128 71.6101
83.5186 4628 68.0294
83.636 3768 61.384
83.7534 2615 51.1371
83.8708 2514 50.1398
83.9881 2894 53.7959
84.1055 3807 61.7009
84.2228 4668 68.3228
84.3401 4946 70.3278
84.4575 5100 71.4143
84.5747 5356 73.1847
84.692 5309 72.8629
84.8093 5191 72.0486
84.9265 4904 70.0286
85.0437 4804 69.3109
85.1609 4772 69.0797
85.2781 4698 68.542
85.3952 4689 68.4763
85.5123 4761 69
85.6294 4968 70.484
85.7465 5360 73.212
85.8636 5442 73.7699
85.9806 5690 75.4321
86.0976 5611 74.9066
86.2145 5830 76.3544
86.3315 6215 78.8353
86.4484 5968 77.2528
86.5652 6269 79.177
86.682 6290 79.3095
86.7988 6110 78.1665
86.9156 6044 77.7432
87.0323 5708 75.5513
87.149 5055 71.0985
87.2657 3896 62.4179
87.3823 3194 56.5155
87.4988 3565 59.7076
87.6154 4734 68.8041
87.7318 5655 75.1997
87.8483 6119 78.224
87.9647 6382 79.8874
88.081 6507 80.666
88.1973 6369 79.806
88.3136 6418 80.1124
88.4298 6398 79.9875
88.546 6016 77.5629
88.6621 5761 75.9013
88.7781 5706 75.5381
88.8942 0 1
89.0101 0 1
89.126 0 1
89.2419 0 1
89.3577 0 1
89.4734 0 1
89.5891 0 1
89.7047 0 1
89.8203 0 1
89.9358 0 1
92.3269 0 1
92.4424 0 1
92.558 0 1
92.6736 0 1
92.7893 0 1
92.905 0 1
93.0208 0 1
93.1366 0 1
93.2525 0 1
93.3685 0 1
93.4845 0 1
93.6005 6735 82.067
93.7167 6628 81.4125
93.8328 6498 80.6102
93.949 6290 79.3095
94.0653 6170 78.5493
94.1816 6144 78.3837
94.2979 5763 75.9144
94.4143 6025 77.6209
94.5307 5948 77.1233
94.6472 6369 79.806
94.7637 6422 80.1374
94.8803 6504 80.6474
94.9969 6801 82.4682
95.1135 6935 83.2766
95.2302 7060 84.0238
95.3469 7071 84.0892
95.4637 7118 84.3682
95.5805 7181 84.7408
95.6973 7284 85.3464
95.8142 7204 84.8764
95.9311 7043 83.9226
96.048 6814 82.547
96.1649 6310 79.4355
96.2819 5457 73.8715
96.3989 4484 66.9627
96.516 4154 64.4515
96.633 4180 64.6529
96.7501 4802 69.2965
96.8673 5898 76.7984
96.9844 6596 81.2158
97.1016 6875 82.9156
97.2188 6917 83.1685
97.336 7171 84.6818
97.4532 6859 82.8191
97.5704 6699 81.8474
97.6877 6523 80.7651
97.805 6313 79.4544
97.9223 6225 78.8987
98.0396 6042 77.7303
98.1569 6097 78.0833
98.2743 6252 79.0696
98.3916 6539 80.8641
98.509 6833 82.662
98.6264 6843 82.7224
98.7438 7193 84.8116
98.8612 7227 85.0118
98.9786 7219 84.9647
99.096 7315 85.5278
99.2134 7250 85.1469
99.3308 7271 85.2702
99.4482 7385 85.936
99.5656 7229 85.0235
99.6831 6748 82.1462
99.8005 6265 79.1518
99.9179 5557 74.5453
100.035 4749 68.913
100.153 4667 68.3154
100.27 5255 72.4914
100.388 6183 78.6321
100.505 6739 82.0914
100.622 7105 84.2912
100.74 7161 84.6227
100.857 7306 85.4751
100.975 7231 85.0353
101.092 7157 84.5991
101.209 6832 82.6559
101.327 6579 81.111
101.444 6441 80.2558
101.561 6251 79.0633
101.679 6264 79.1454
101.796 6430 80.1873
101.913 6591 81.185
102.03 7100 84.2615
102.148 7090 84.2021
102.265 7246 85.1234
102.382 7695 87.7211
102.499 7647 87.4471
102.616 7678 87.6242
102.733 7606 87.2124
102.851 7743 87.9943
102.968 7750 88.0341
103.085 7443 86.2728
103.202 7174 84.6995
103.319 6822 82.5954
103.436 5921 76.948
103.552 5178 71.9583
103.669 5129 71.617
103.786 5656 75.2064
103.903 6590 81.1788
104.02 7266 85.2408
104.137 7586 87.0976
104.253 7694 87.7154
104.37 7823 88.4477
104.487 7588 87.1091
104.603 7668 87.5671
104.72 7389 85.9593
104.836 7163 84.6345
104.953 6987 83.5883
105.069 7006 83.7019
105.186 7153 84.5754
105.302 7252 85.1587
105.418 7536 86.8101
105.535 7760 88.0909
105.651 8147 90.2607
105.767 8183 90.4599
105.883 8572 92.5851
105.999 8385 91.5696
106.115 0 1
106.231 0 1
106.347 0 1
106.463 0 1
106.579 0 1
106.694 0 1
106.81 0 1
106.926 0 1
107.041 0 1
107.157 0 1
109.576 0 1
109.692 0 1
109.807 0 1
109.923 0 1
110.039 0 1
110.155 0 1
110.27 0 1
110.386 0 1
110.502 0 1
110.618 7767 88.1306
110.735 8017 89.5377
110.851 8307 91.1427
110.967 8271 90.945
111.083 8480 92.0869
111.199 8461 91.9837
111.316 8431 91.8205
111.432 8296 91.0824
111.549 8068 89.822
111.665 7880 88.7694
111.782 7355 85.7613
111.898 6664 81.6333
112.015 5805 76.1906
112.132 5588 74.7529
112.248 5970 77.2658
112.365 6823 82.6015
112.482 7368 85.8371
112.599 7990 89.3868
112.716 8001 89.4483
112.832 7978 89.3197
112.949 7853 88.6172
113.066 7829 88.4816
113.183 7705 87.7781
113.3 7409 86.0755
113.417 6972 83.4985
113.534 7025 83.8153
113.652 6833 82.662
113.769 6842 82.7164
113.886 6957 83.4086
114.003 7155 84.5872
114.12 7741 87.983
114.238 7831 88.4929
114.355 7835 88.5155
114.472 8075 89.861
114.589 8161 90.3383
114.707 8064 89.7998
114.824 7915 88.9663
114.942 8045 89.6939
115.059 8080 89.8888
115.176 7901 88.8876
115.294 7533 86.7929
115.411 6940 83.3067
115.529 6190 78.6766
115.646 6051 77.7882
115.764 6189 78.6702
115.881 6964 83.4506
115.999 7398 86.0116
116.116 7799 88.3119
116.234 7973 89.2917
116.351 7945 89.1347
116.469 8055 89.7497
116.586 7913 88.955
116.704 7928 89.0393
116.821 7551 86.8965
116.939 7269 85.2584
117.056 7004 83.6899
117.174 6939 83.3007
117.291 6894 83.0301
117.409 6979 83.5404
117.526 7424 86.1626
117.644 7654 87.4871
117.761 8024 89.5768
117.879 8339 91.3181
117.996 7837 88.5268
118.114 8009 89.493
118.231 8202 90.5649
118.349 8043 89.6828
118.466 8102 90.0111
118.584 8222 90.6752
118.701 7981 89.3364
118.819 7661 87.5271
118.936 7245 85.1176
119.053 6776 82.3165
119.171 6135 78.3262
119.288 6194 78.702
119.405 6374 79.8373
119.523 6921 83.1925
119.64 7440 86.2554
119.757 7624 87.3155
119.875 7807 88.3572
119.992 8000 89.4427
120.109 7866 88.6905
120.226 7831 88.4929
120.343 7768 88.1363
120.46 7458 86.3597
120.578 7199 84.8469
120.695 7002 83.678
120.812 6923 83.2046
120.929 6935 83.2766
121.046 7036 83.8809
121.163 7042 83.9166
121.279 7529 86.7698
121.396 7788 88.2496
121.513 7747 88.017
121.63 8032 89.6214
121.747 7903 88.8988
121.863 8199 90.5483
121.98 7855 88.6284
122.097 7978 89.3197
122.213 7862 88.6679
122.33 7858 88.6454
122.446 7688 87.6812
122.563 7330 85.6154
122.679 6943 83.3247
122.795 6371 79.8185
122.912 6273 79.2023
123.028 6331 79.5676
123.144 6558 80.9815
123.26 6887 82.988
123.377 0 1
123.493 0 1
123.609 0 1
123.725 0 1
123.84 0 1
123.956 0 1
124.072 0 1
124.188 0 1
124.303 0 1
124.419 0 1
126.852 0 1
126.968 0 1
127.083 0 1
127.199 0 1
127.315 0 1
127.431 0 1
127.547 0 1
127.663 0 1
127.779 0 1
127.895 0 1
128.011 0 1
128.127 0 1
128.243 0 1
128.359 7502 86.6141
128.476 7834 88.5099
128.592 8274 90.9615
128.708 8539 92.4067
128.825 8600 92.7362
128.941 8587 92.6661
129.058 8678 93.1558
129.174 8496 92.1737
129.291 8560 92.5203
129.408 8060 89.7775
129.524 7921 89
129.641 7637 87.3899
129.758 7416 86.1162
129.875 7597 87.1608
129.992 7490 86.5448
130.108 7863 88.6736
130.225 8216 90.6422
130.342 8364 91.4549
130.459 8389 91.5915
130.576 8609 92.7847
130.693 8563 92.5365
130.81 8517 92.2876
130.928 8477 92.0706
131.045 8335 91.2962
131.162 8537 92.3959
131.279 8340 91.3236
131.396 7983 89.3476
131.513 7901 88.8876
131.631 7483 86.5043
131.748 7626 87.327
131.865 7630 87.3499
131.983 7978 89.3197
132.1 8390 91.5969
132.217 8568 92.5635
132.335 8477 92.0706
132.452 8529 92.3526
132.57 8535 92.3851
132.687 8494 92.1629
132.804 8622 92.8547
132.922 8276 90.9725
133.039 7921 89
133.157 7897 88.8651
133.274 7545 86.862
133.392 7304 85.4634
133.509 7663 87.5386
133.627 7671 87.5842
133.744 8133 90.1831
133.862 8330 91.2688
133.979 8229 90.7138
134.097 8376 91.5205
134.214 8439 91.864
134.332 8452 91.9348
134.449 8354 91.4002
134.567 8140 90.2219
134.684 8281 91
134.802 8144 90.2441
134.919 8072 89.8443
135.037 7880 88.7694
135.154 7492 86.5563
135.272 7527 86.7583
135.389 7624 87.3155
135.507 8034 89.6326
135.624 8005 89.4707
135.742 8502 92.2063
135.859 8419 91.7551
135.977 8479 92.0815
136.094 8387 91.5806
136.211 8453 91.9402
136.329 8451 91.9293
136.446 8374 91.5096
136.564 8122 90.1221
136.681 8004 89.4651
136.798 7803 88.3346
136.915 7355 85.7613
137.033 7283 85.3405
137.15 7314 85.5219
137.267 7570 87.0057
137.384 7878 88.7581
137.502 8008 89.4874
137.619 8125 90.1388
137.736 8329 91.2634
137.853 8186 90.4765
137.97 8207 90.5925
138.087 7985 89.3588
138.204 8003 89.4595
138.321 7824 88.4534
138.438 8032 89.6214
138.555 8056 89.7552
138.672 8126 90.1443
138.788 7900 88.8819
138.905 7783 88.2213
139.022 7957 89.202
139.139 8209 90.6035
139.255 8250 90.8295
139.372 8248 90.8185
139.488 8541 92.4175
139.605 8508 92.2388
139.721 8488 92.1303
139.838 8475 92.0598
139.954 8400 91.6515
140.071 8316 91.1921
140.187 8324 91.236
140.303 8192 90.5097
140.419 7872 88.7243
140.535 7475 86.4581
140.652 7320 85.557
140.768 0 1
140.884 0 1
141 0 1
141.115 0 1
141.231 0 1
141.347 0 1
141.463 0 1
141.578 0 1
141.694 0 1
144.104 0 1
144.219 0 1
144.335 0 1
144.45 0 1
144.566 0 1
144.682 0 1
144.798 0 1
144.914 0 1
145.03 0 1
145.146 5755 75.8617
145.262 6241 79
145.378 6036 77.6917
145.494 6017 77.5693
145.61 5856 76.5245
145.726 5741 75.7694
145.842 5684 75.3923
145.959 5729 75.6902
146.075 5783 76.046
146.192 5895 76.7789
146.308 6110 78.1665
146.425 6099 78.0961
146.541 6306 79.4103
146.658 6178 78.6003
146.774 6055 77.8139
146.891 6019 77.5822
147.008 5985 77.3628
147.125 5840 76.4199
147.241 6092 78.0513
147.358 6185 78.6448
147.475 6295 79.341
147.592 6216 78.8416
147.709 6103 78.1217
147.826 6442 80.2621
147.943 6334 79.5864
148.06 6566 81.0309
148.177 6534 80.8332
148.294 6391 79.9437
148.411 6671 81.6762
148.528 6668 81.6578
148.645 6630 81.4248
148.762 6700 81.8535
148.88 6516 80.7217
148.997 6486 80.5357
149.114 6654 81.5721
149.231 6536 80.8455
149.349 6203 78.7591
149.466 6307 79.4166
149.583 6186 78.6511
149.701 6107 78.1473
149.818 6088 78.0256
149.935 5936 77.0454
150.053 6038 77.7046
150.17 6160 78.4857
150.287 6201 78.7464
150.405 6412 80.075
150.522 6280 79.2465
150.64 6238 78.981
150.757 6302 79.3851
150.875 6119 78.224
150.992 6361 79.7559
151.11 6440 80.2496
151.227 6491 80.5667
151.344 6649 81.5414
151.462 6677 81.7129
151.579 6720 81.9756
151.697 6921 83.1925
151.814 6897 83.0482
151.932 6931 83.2526
152.049 7041 83.9107
152.167 6910 83.1264
152.284 7155 84.5872
152.402 7232 85.0412
152.519 7205 84.8823
152.636 7169 84.6699
152.754 7092 84.214
152.871 6885 82.9759
152.989 6829 82.6378
153.106 6768 82.2679
153.223 6579 81.111
153.341 6637 81.4678
153.458 6540 80.8703
153.575 6494 80.5854
153.693 6602 81.2527
153.81 6715 81.9451
153.927 6734 82.061
154.044 6719 81.9695
154.162 6502 80.635
154.279 6601 81.2465
154.396 6494 80.5854
154.513 6788 82.3893
154.63 6953 83.3847
154.747 7214 84.9353
154.864 7401 86.0291
154.981 7523 86.7352
155.098 7591 87.1263
155.215 7558 86.9368
155.332 7651 87.47
155.449 7614 87.2582
155.566 7597 87.1608
155.683 7739 87.9716
155.8 7890 88.8257
155.917 7633 87.367
156.033 7725 87.892
156.15 0 1
156.267 0 1
156.383 0 1
156.5 0 1
156.617 0 1
156.733 0 1
156.85 0 1
156.966 0 1
157.082 0 1
157.199 0 1
157.315 0 1
157.431 0 1
157.547 0 1
157.664 0 1
157.78 0 1
157.896 0 1
158.012 0 1
158.128 0 1
158.244 0 1
158.359 0 1
158.475 0 1
158.591 0 1
158.706 0 1
