
6.15755 0 1
6.2731 0 1
6.3887 0 1
6.50437 0 1
6.62009 0 1
6.73587 0 1
6.8517 0 1
6.96759 0 1
7.08353 0 1
7.19952 0 1
7.31557 0 1
7.43166 0 1
7.54781 0 1
7.664 0 1
7.78024 0 1
7.89653 0 1
8.01286 0 1
8.12924 0 1
8.24567 0 1
8.36213 0 1
8.47864 0 1
8.59519 0 1
8.71178 0 1
8.82841 0 1
8.94508 0 1
9.06179 0 1
9.17853 0 1
9.29531 0 1
9.41212 0 1
9.52897 0 1
9.64584 0 1
9.76276 0 1
9.8797 0 1
9.99667 0 1
10.1137 0 1
10.2307 0 1
10.3478 0 1
10.4648 0 1
10.5819 0 1
10.6991 0 1
10.8162 0 1
10.9334 0 1
11.0506 0 1
11.1678 0 1
11.285 0 1
11.4023 0 1
11.5196 0 1
11.6369 0 1
11.7542 0 1
11.8715 0 1
11.9888 0 1
12.1062 0 1
12.2235 0 1
12.3409 0 1
12.4582 0 1
12.5756 0 1
12.693 0 1
12.8104 0 1
12.9278 0 1
13.0452 0 1
13.1626 0 1
13.28 0 1
13.3974 0 1
13.5149 0 1
13.6323 0 1
13.7497 0 1
13.8671 0 1
13.9845 0 1
14.1019 0 1
14.2193 0 1
14.3367 0 1
14.4541 0 1
14.5714 0 1
14.6888 0 1
14.8062 0 1
14.9235 0 1
15.0408 1591 39.8873
15.1581 1713 41.3884
15.2755 1641 40.5093
15.3927 1643 40.5339
15.51 1657 40.7063
15.6273 1583 39.7869
15.7445 1586 39.8246
15.8617 1654 40.6694
15.9789 1531 39.128
16.0961 1515 38.923
16.2132 1608 40.0999
16.3304 1577 39.7115
16.4475 1663 40.7799
16.5646 1578 39.724
16.6816 1585 39.8121
16.7986 1612 40.1497
16.9156 1665 40.8044
17.0326 1563 39.5348
17.1496 1570 39.6232
17.2665 1607 40.0874
17.3833 1621 40.2616
17.5002 1521 39
17.617 1459 38.1969
17.7338 1384 37.2022
17.8505 1453 38.1182
17.9672 1493 38.6394
18.0839 1624 40.2989
18.2005 1641 40.5093
18.3171 1745 41.7732
18.4337 1770 42.0714
18.5502 1794 42.3556
18.6666 1777 42.1545
18.7831 1787 42.2729
18.8994 1783 42.2256
19.0158 1649 40.6079
19.1321 1609 40.1123
19.2483 1644 40.5463
19.3645 1613 40.1622
19.4806 1632 40.398
19.5967 1539 39.2301
19.7128 1428 37.7889
19.8288 1006 31.7175
19.9447 531 23.0434
20.0606 0 1
20.1764 0 1
20.2922 0 1
20.4079 0 1
20.5236 0 1
20.6392 0 1
20.7548 0 1
20.8702 0 1
23.3078 0 1
23.4233 0 1
23.539 0 1
23.6547 0 1
23.7704 0 1
23.8862 0 1
24.0021 0 1
24.118 0 1
24.234 0 1
24.35 0 1
24.4661 1620 40.2492
24.5822 1503 38.7685
24.6984 1639 40.4846
24.8146 1563 39.5348
24.9309 1716 41.4246
25.0472 1693 41.1461
25.1636 1492 38.6264
25.28 1639 40.4846
25.3965 1618 40.2244
25.513 1624 40.2989
25.6296 1695 41.1704
25.7462 1760 41.9524
25.8628 1732 41.6173
25.9795 1685 41.0488
26.0962 1697 41.1947
26.213 1678 40.9634
26.3298 1728 41.5692
26.4466 1651 40.6325
26.5635 1555 39.4335
26.6804 1435 37.8814
26.7973 1455 38.1445
26.9143 1439 37.9342
27.0313 1525 39.0512
27.1483 1577 39.7115
27.2653 1609 40.1123
27.3824 1685 41.0488
27.4996 1777 42.1545
27.6167 1677 40.9512
27.7339 1662 40.7676
27.8511 1654 40.6694
27.9683 1648 40.5956
28.0855 1616 40.1995
28.2028 1651 40.6325
28.3201 1535 39.1791
28.4374 1522 39.0128
28.5547 1558 39.4715
28.6721 1594 39.9249
28.7894 1582 39.7744
28.9068 1619 40.2368
29.0242 1569 39.6106
29.1416 1552 39.3954
29.259 1558 39.4715
29.3764 1574 39.6737
29.4939 1522 39.0128
29.6113 1553 39.4081
29.7288 1666 40.8167
29.8463 1627 40.3361
29.9638 1476 38.4187
30.0812 1375 37.081
30.1987 1368 36.9865
30.3162 1311 36.2077
30.4337 1335 36.5377
30.5512 1478 38.4448
30.6687 1534 39.1663
30.7862 1603 40.0375
30.9037 1644 40.5463
31.0212 1642 40.5216
31.1387 1657 40.7063
31.2562 1557 39.4588
31.3737 1611 40.1373
31.4912 1489 38.5876
31.6087 1589 39.8623
31.7262 1589 39.8623
31.8436 1601 40.0125
31.9611 1606 40.0749
32.0785 1564 39.5474
32.1959 1432 37.8418
32.3134 1551 39.3827
32.4308 1530 39.1152
32.5482 1595 39.9375
32.6655 1585 39.8121
32.7829 1560 39.4968
32.9002 1571 39.6358
33.0176 1570 39.6232
33.1349 1558 39.4715
33.2522 1571 39.6358
33.3694 1603 40.0375
33.4867 1564 39.5474
33.6039 1558 39.4715
33.7211 1380 37.1484
33.8383 1317 36.2905
33.9554 1202 34.6699
34.0725 1296 36
34.1896 1365 36.9459
34.3067 1452 38.1051
34.4237 1500 38.7298
34.5407 1567 39.5854
34.6577 1603 40.0375
34.7746 1594 39.9249
34.8915 1548 39.3446
35.0084 1529 39.1024
35.1252 1480 38.4708
35.242 1532 39.1408
35.3587 1520 38.9872
35.4755 1566 39.5727
35.5921 1502 38.7556
35.7088 1470 38.3406
35.8254 1486 38.5487
35.9419 1468 38.3145
36.0584 1525 39.0512
36.1749 1502 38.7556
36.2913 1455 38.1445
36.4077 1474 38.3927
36.524 1483 38.5097
36.6403 1533 39.1535
36.7565 1604 40.05
36.8727 1586 39.8246
36.9889 1541 39.2556
37.1049 1505 38.7943
37.221 0 1
37.3369 0 1
37.4529 0 1
37.5687 0 1
37.6845 0 1
37.8003 0 1
37.916 0 1
38.0316 0 1
38.1472 0 1
40.5851 0 1
40.7008 0 1
40.8164 0 1
40.9322 0 1
41.048 0 1
41.1639 0 1
41.2798 0 1
41.3958 0 1
41.5118 0 1
41.6279 0 1
41.744 1185 34.4238
41.8602 1151 33.9264
41.9765 1246 35.2987
42.0928 1136 33.7046
42.2091 1233 35.1141
42.3255 1259 35.4824
42.4419 1268 35.609
42.5584 1071 32.7261
42.675 965 31.0644
42.7915 957 30.9354
42.9081 956 30.9192
43.0248 1040 32.249
43.1415 1102 33.1964
43.2582 1071 32.7261
43.375 1210 34.7851
43.4918 1176 34.2929
43.6087 1154 33.9706
43.7256 1146 33.8526
43.8425 1184 34.4093
43.9595 1078 32.8329
44.0765 1101 33.1813
44.1935 1076 32.8024
44.3106 1079 32.8481
44.4277 1124 33.5261
44.5448 1004 31.686
44.6619 998 31.5911
44.7791 922 30.3645
44.8963 988 31.4325
45.0136 940 30.6594
45.1308 943 30.7083
45.2481 891 29.8496
45.3654 950 30.8221
45.4827 927 30.4467
45.6001 928 30.4631
45.7174 852 29.189
45.8348 896 29.9333
45.9522 837 28.931
46.0697 764 27.6405
46.1871 717 26.7769
46.3046 657 25.632
46.422 660 25.6905
46.5395 730 27.0185
46.657 758 27.5318
46.7745 817 28.5832
46.892 795 28.1957
47.0096 787 28.0535
47.1271 808 28.4253
47.2446 805 28.3725
47.3622 855 29.2404
47.4797 845 29.0689
47.5973 803 28.3373
47.7149 799 28.2666
47.8324 757 27.5136
47.95 717 26.7769
48.0675 750 27.3861
48.1851 697 26.4008
48.3027 651 25.5147
48.4202 661 25.7099
48.5378 635 25.1992
48.6554 614 24.779
48.7729 628 25.0599
48.8904 618 24.8596
49.008 665 25.7876
49.1255 695 26.3629
49.243 698 26.4197
49.3605 671 25.9037
49.478 644 25.3772
49.5955 573 23.9374
49.713 528 22.9783
49.8304 517 22.7376
49.9479 577 24.0208
50.0653 609 24.6779
50.1827 654 25.5734
50.3001 792 28.1425
50.4175 727 26.9629
50.5348 767 27.6948
50.6521 804 28.3549
50.7694 825 28.7228
50.8867 874 29.5635
51.004 851 29.1719
51.1212 863 29.3769
51.2384 890 29.8329
51.3556 928 30.4631
51.4727 891 29.8496
51.5899 976 31.241
51.707 880 29.6648
51.824 900 30
51.9411 954 30.8869
52.0581 960 30.9839
52.175 983 31.3528
52.2919 995 31.5436
52.4088 1044 32.311
52.5257 1090 33.0151
52.6425 1042 32.28
52.7593 1152 33.9411
52.876 1154 33.9706
52.9927 1113 33.3617
53.1094 1070 32.7109
53.226 969 31.1288
53.3426 945 30.7409
53.4591 856 29.2575
53.5756 954 30.8869
53.692 1098 33.1361
53.8084 1191 34.5109
53.9248 1249 35.3412
54.0411 1275 35.7071
54.1573 1278 35.7491
54.2735 0 1
54.3896 0 1
54.5057 0 1
54.6217 0 1
54.7377 0 1
54.8537 0 1
54.9695 0 1
55.0853 0 1
55.2011 0 1
55.3168 0 1
55.4324 0 1
57.824 0 1
57.9396 0 1
58.0553 0 1
58.1711 0 1
58.2869 0 1
58.4028 0 1
58.5187 0 1
58.6347 0 1
58.7508 0 1
58.8669 0 1
58.983 1305 36.1248
59.0992 1456 38.1576
59.2155 1468 38.3145
59.3318 1514 38.9102
59.4482 1526 39.064
59.5646 1583 39.7869
59.681 1615 40.1871
59.7975 1412 37.5766
59.9141 1515 38.923
60.0306 1457 38.1707
60.1473 1381 37.1618
60.2639 1410 37.55
60.3807 1357 36.8375
60.4974 1363 36.9188
60.6142 1319 36.318
60.731 1358 36.8511
60.8479 1368 36.9865
60.9648 1341 36.6197
61.0818 1301 36.0694
61.1987 1302 36.0832
61.3158 1337 36.565
61.4328 1287 35.8748
61.5499 1271 35.6511
61.667 1202 34.6699
61.7841 1185 34.4238
61.9013 1032 32.1248
62.0185 1028 32.0624
62.1357 1110 33.3167
62.253 1198 34.6121
62.3702 1258 35.4683
62.4875 1403 37.4566
62.6049 1457 38.1707
62.7222 1452 38.1051
62.8396 1499 38.7169
62.9569 1569 39.6106
63.0743 1495 38.6652
63.1918 1543 39.281
63.3092 1472 38.3667
63.4267 1501 38.7427
63.5441 1488 38.5746
63.6616 1431 37.8286
63.7791 1374 37.0675
63.8966 1472 38.3667
64.0142 1417 37.6431
64.1317 1430 37.8153
64.2492 1346 36.6879
64.3668 1391 37.2961
64.4843 1390 37.2827
64.6019 1361 36.8917
64.7195 1405 37.4833
64.837 1463 38.2492
64.9546 1395 37.3497
65.0722 1393 37.3229
65.1898 1393 37.3229
65.3074 1260 35.4965
65.4249 1074 32.7719
65.5425 1032 32.1248
65.6601 1075 32.7872
65.7777 1200 34.641
65.8952 1236 35.1568
66.0128 1395 37.3497
66.1304 1422 37.7094
66.2479 1506 38.8072
66.3655 1559 39.4842
66.483 1511 38.8716
66.6005 1482 38.4968
66.718 1558 39.4715
66.8355 1545 39.3065
66.953 1474 38.3927
67.0705 1418 37.6563
67.1879 1402 37.4433
67.3054 1384 37.2022
67.4228 1357 36.8375
67.5402 1297 36.0139
67.6576 1261 35.5106
67.7749 1238 35.1852
67.8923 1324 36.3868
68.0096 1254 35.4119
68.1269 1276 35.7211
68.2442 1294 35.9722
68.3614 1287 35.8748
68.4787 1342 36.6333
68.5958 1298 36.0278
68.713 1287 35.8748
68.8302 1188 34.4674
68.9473 1111 33.3317
69.0643 1004 31.686
69.1814 949 30.8058
69.2984 981 31.3209
69.4154 1084 32.9242
69.5323 1112 33.3467
69.6492 1260 35.4965
69.7661 1386 37.229
69.8829 1374 37.0675
69.9997 1429 37.8021
70.1165 1459 38.1969
70.2332 1475 38.4057
70.3499 1479 38.4578
70.4665 1477 38.4318
70.5831 1498 38.704
70.6996 1390 37.2827
70.8161 1382 37.1753
70.9326 1321 36.3456
71.049 1324 36.3868
71.1653 1206 34.7275
71.2817 1245 35.2846
71.3979 1190 34.4964
71.5141 1210 34.7851
71.6303 1215 34.8569
71.7464 1097 33.121
71.8624 0 1
71.9784 0 1
72.0944 0 1
72.2102 0 1
72.3261 0 1
72.4418 0 1
72.5575 0 1
72.6732 0 1
75.1054 0 1
75.2209 0 1
75.3365 0 1
75.4521 0 1
75.5678 0 1
75.6835 0 1
75.7993 0 1
75.9151 0 1
76.031 0 1
76.147 1306 36.1386
76.263 1337 36.565
76.3791 1364 36.9324
76.4952 1301 36.0694
76.6113 1297 36.0139
76.7276 1264 35.5528
76.8438 1278 35.7491
76.9601 1348 36.7151
77.0765 1311 36.2077
77.1929 1337 36.565
77.3093 1375 37.081
77.4258 1425 37.7492
77.5423 1377 37.108
77.6589 1348 36.7151
77.7755 1386 37.229
77.8921 1236 35.1568
78.0088 1094 33.0757
78.1256 981 31.3209
78.2423 866 29.4279
78.3591 954 30.8869
78.4759 1028 32.0624
78.5928 1117 33.4215
78.7097 1275 35.7071
78.8266 1307 36.1525
78.9436 1384 37.2022
79.0606 1451 38.092
79.1776 1467 38.3014
79.2946 1435 37.8814
79.4117 1401 37.4299
79.5288 1378 37.1214
79.6459 1343 36.647
79.7631 1327 36.428
79.8802 1205 34.7131
79.9974 1215 34.8569
80.1147 1203 34.6843
80.2319 1128 33.5857
80.3491 1151 33.9264
80.4664 1156 34
80.5837 1130 33.6155
80.701 1150 33.9116
80.8183 1152 33.9411
80.9357 1174 34.2637
81.053 1189 34.4819
81.1704 1186 34.4384
81.2877 1167 34.1614
81.4051 1179 34.3366
81.5225 1049 32.3883
81.6399 954 30.8869
81.7573 867 29.4449
81.8747 772 27.7849
81.9922 825 28.7228
82.1096 903 30.05
82.227 1047 32.3574
82.3444 1094 33.0757
82.4619 1183 34.3948
82.5793 1213 34.8281
82.6967 1213 34.8281
82.8142 1190 34.4964
82.9316 1271 35.6511
83.049 1218 34.8999
83.1664 1277 35.7351
83.2838 1156 34
83.4012 1078 32.8329
83.5186 1094 33.0757
83.636 975 31.225
83.7534 1005 31.7017
83.8708 958 30.9516
83.9881 942 30.692
84.1055 953 30.8707
84.2228 1000 31.6228
84.3401 992 31.496
84.4575 1038 32.218
84.5747 1076 32.8024
84.692 1125 33.541
84.8093 1171 34.2199
84.9265 1087 32.9697
85.0437 948 30.7896
85.1609 887 29.7825
85.2781 837 28.931
85.3952 763 27.6225
85.5123 743 27.258
85.6294 838 28.9482
85.7465 922 30.3645
85.8636 1067 32.665
85.9806 1132 33.6452
86.0976 1132 33.6452
86.2145 1233 35.1141
86.3315 1355 36.8103
86.4484 1328 36.4417
86.5652 1340 36.606
86.682 1395 37.3497
86.7988 1339 36.5923
86.9156 1351 36.756
87.0323 1266 35.5809
87.149 1239 35.1994
87.2657 1278 35.7491
87.3823 1216 34.8712
87.4988 1232 35.0999
87.6154 1162 34.0881
87.7318 1190 34.4964
87.8483 1293 35.9583
87.9647 1345 36.6742
88.081 1241 35.2278
88.1973 1376 37.0945
88.3136 1421 37.6962
88.4298 1365 36.9459
88.546 1242 35.242
88.6621 1131 33.6303
88.7781 1129 33.6006
88.8942 0 1
89.0101 0 1
89.126 0 1
89.2419 0 1
89.3577 0 1
89.4734 0 1
89.5891 0 1
89.7047 0 1
89.8203 0 1
89.9358 0 1
92.3269 0 1
92.4424 0 1
92.558 0 1
92.6736 0 1
92.7893 0 1
92.905 0 1
93.0208 0 1
93.1366 0 1
93.2525 0 1
93.3685 0 1
93.4845 0 1
93.6005 1334 36.524
93.7167 1313 36.2353
93.8328 1306 36.1386
93.949 1310 36.1939
94.0653 1161 34.0735
94.1816 1186 34.4384
94.2979 1041 32.2645
94.4143 1016 31.8748
94.5307 940 30.6594
94.6472 1022 31.9687
94.7637 1049 32.3883
94.8803 1131 33.6303
94.9969 1267 35.5949
95.1135 1337 36.565
95.2302 1322 36.3593
95.3469 1406 37.4967
95.4637 1461 38.223
95.5805 1517 38.9487
95.6973 1571 39.6358
95.8142 1570 39.6232
95.9311 1454 38.1314
96.048 1426 37.7624
96.1649 1394 37.3363
96.2819 1389 37.2693
96.3989 1338 36.5787
96.516 1282 35.805
96.633 1309 36.1801
96.7501 1224 34.9857
96.8673 1302 36.0832
96.9844 1345 36.6742
97.1016 1294 35.9722
97.2188 1333 36.5103
97.336 1401 37.4299
97.4532 1433 37.855
97.5704 1383 37.1887
97.6877 1400 37.4166
97.805 1184 34.4093
97.9223 1115 33.3916
98.0396 1005 31.7017
98.1569 1005 31.7017
98.2743 908 30.133
98.3916 1037 32.2025
98.509 1111 33.3317
98.6264 1259 35.4824
98.7438 1246 35.2987
98.8612 1404 37.47
98.9786 1523 39.0256
99.096 1515 38.923
99.2134 1550 39.37
99.3308 1559 39.4842
99.4482 1505 38.7943
99.5656 1525 39.0512
99.6831 1456 38.1576
99.8005 1439 37.9342
99.9179 1405 37.4833
100.035 1425 37.7492
100.153 1319 36.318
100.27 1239 35.1994
100.388 1230 35.0714
100.505 1273 35.6791
100.622 1363 36.9188
100.74 1433 37.855
100.857 1419 37.6696
100.975 1421 37.6962
101.092 1424 37.7359
101.209 1400 37.4166
101.327 1239 35.1994
101.444 1172 34.2345
101.561 1125 33.541
101.679 985 31.3847
101.796 1001 31.6386
101.913 975 31.225
102.03 1154 33.9706
102.148 1313 36.2353
102.265 1343 36.647
102.382 1429 37.8021
102.499 1460 38.2099
102.616 1488 38.5746
102.733 1612 40.1497
102.851 1583 39.7869
102.968 1661 40.7554
103.085 1581 39.7618
103.202 1543 39.281
103.319 1509 38.8458
103.436 1440 37.9473
103.552 1457 38.1707
103.669 1396 37.3631
103.786 1380 37.1484
103.903 1407 37.51
104.02 1379 37.1349
104.137 1431 37.8286
104.253 1469 38.3275
104.37 1510 38.8587
104.487 1529 39.1024
104.603 1467 38.3014
104.72 1496 38.6782
104.836 1380 37.1484
104.953 1246 35.2987
105.069 1201 34.6554
105.186 1114 33.3766
105.302 1124 33.5261
105.418 1170 34.2053
105.535 1267 35.5949
105.651 1473 38.3797
105.767 1620 40.2492
105.883 1644 40.5463
105.999 1736 41.6653
106.115 0 1
106.231 0 1
106.347 0 1
106.463 0 1
106.579 0 1
106.694 0 1
106.81 0 1
106.926 0 1
107.041 0 1
107.157 0 1
109.576 0 1
109.692 0 1
109.807 0 1
109.923 0 1
110.039 0 1
110.155 0 1
110.27 0 1
110.386 0 1
110.502 0 1
110.618 1283 35.819
110.735 1469 38.3275
110.851 1503 38.7685
110.967 1620 40.2492
111.083 1643 40.5339
111.199 1675 40.9268
111.316 1655 40.6817
111.432 1615 40.1871
111.549 1704 41.2795
111.665 1605 40.0625
111.782 1601 40.0125
111.898 1505 38.7943
112.015 1444 38
112.132 1444 38
112.248 1388 37.2559
112.365 1375 37.081
112.482 1333 36.5103
112.599 1414 37.6032
112.716 1355 36.8103
112.832 1465 38.2753
112.949 1344 36.6606
113.066 1523 39.0256
113.183 1379 37.1349
113.3 1388 37.2559
113.417 1264 35.5528
113.534 1207 34.7419
113.652 1085 32.9393
113.769 1087 32.9697
113.886 1051 32.4191
114.003 1141 33.7787
114.12 1181 34.3657
114.238 1467 38.3014
114.355 1474 38.3927
114.472 1478 38.4448
114.589 1576 39.6989
114.707 1576 39.6989
114.824 1522 39.0128
114.942 1604 40.05
115.059 1647 40.5832
115.176 1683 41.0244
115.294 1515 38.923
115.411 1550 39.37
115.529 1496 38.6782
115.646 1416 37.6298
115.764 1388 37.2559
115.881 1319 36.318
115.999 1342 36.6333
116.116 1392 37.3095
116.234 1417 37.6431
116.351 1442 37.9737
116.469 1501 38.7427
116.586 1437 37.9078
116.704 1454 38.1314
116.821 1458 38.1838
116.939 1378 37.1214
117.056 1217 34.8855
117.174 1251 35.3695
117.291 1119 33.4515
117.409 1077 32.8177
117.526 1145 33.8378
117.644 1246 35.2987
117.761 1390 37.2827
117.879 1530 39.1152
117.996 1546 39.3192
118.114 1533 39.1535
118.231 1659 40.7308
118.349 1608 40.0999
118.466 1688 41.0853
118.584 1672 40.8901
118.701 1671 40.8779
118.819 1623 40.2865
118.936 1589 39.8623
119.053 1599 39.9875
119.171 1568 39.598
119.288 1489 38.5876
119.405 1419 37.6696
119.523 1373 37.054
119.64 1368 36.9865
119.757 1434 37.8682
119.875 1431 37.8286
119.992 1444 38
120.109 1480 38.4708
120.226 1476 38.4187
120.343 1457 38.1707
120.46 1424 37.7359
120.578 1308 36.1663
120.695 1290 35.9166
120.812 1180 34.3511
120.929 1247 35.3129
121.046 1134 33.6749
121.163 1178 34.322
121.279 1178 34.322
121.396 1363 36.9188
121.513 1469 38.3275
121.63 1488 38.5746
121.747 1494 38.6523
121.863 1597 39.9625
121.98 1629 40.3609
122.097 1652 40.6448
122.213 1718 41.4488
122.33 1608 40.0999
122.446 1528 39.0896
122.563 1568 39.598
122.679 1534 39.1663
122.795 1562 39.5221
122.912 1536 39.1918
123.028 1449 38.0657
123.144 1333 36.5103
123.26 1346 36.6879
123.377 0 1
123.493 0 1
123.609 0 1
123.725 0 1
123.84 0 1
123.956 0 1
124.072 0 1
124.188 0 1
124.303 0 1
124.419 0 1
126.852 0 1
126.968 0 1
127.083 0 1
127.199 0 1
127.315 0 1
127.431 0 1
127.547 0 1
127.663 0 1
127.779 0 1
127.895 0 1
128.011 0 1
128.127 0 1
128.243 0 1
128.359 1448 38.0526
128.476 1525 39.0512
128.592 1453 38.1182
128.708 1528 39.0896
128.825 1615 40.1871
128.941 1572 39.6485
129.058 1652 40.6448
129.174 1581 39.7618
129.291 1611 40.1373
129.408 1606 40.0749
129.524 1483 38.5097
129.641 1390 37.2827
129.758 1345 36.6742
129.875 1332 36.4966
129.992 1353 36.7831
130.108 1292 35.9444
130.225 1308 36.1663
130.342 1457 38.1707
130.459 1548 39.3446
130.576 1709 41.3401
130.693 1695 41.1704
130.81 1673 40.9023
130.928 1678 40.9634
131.045 1681 41
131.162 1831 42.7902
131.279 1877 43.3244
131.396 1788 42.2847
131.513 1715 41.4126
131.631 1735 41.6533
131.748 1649 40.6079
131.865 1588 39.8497
131.983 1542 39.2683
132.1 1444 38
132.217 1550 39.37
132.335 1572 39.6485
132.452 1691 41.1218
132.57 1665 40.8044
132.687 1644 40.5463
132.804 1745 41.7732
132.922 1613 40.1622
133.039 1672 40.8901
133.157 1456 38.1576
133.274 1426 37.7624
133.392 1385 37.2156
133.509 1278 35.7491
133.627 1288 35.8887
133.744 1360 36.8782
133.862 1467 38.3014
133.979 1589 39.8623
134.097 1592 39.8999
134.214 1616 40.1995
134.332 1793 42.3438
134.449 1696 41.1825
134.567 1693 41.1461
134.684 1698 41.2068
134.802 1752 41.8569
134.919 1790 42.3084
135.037 1787 42.2729
135.154 1790 42.3084
135.272 1688 41.0853
135.389 1706 41.3038
135.507 1666 40.8167
135.624 1511 38.8716
135.742 1500 38.7298
135.859 1573 39.6611
135.977 1519 38.9744
136.094 1687 41.0731
136.211 1654 40.6694
136.329 1626 40.3237
136.446 1652 40.6448
136.564 1605 40.0625
136.681 1563 39.5348
136.798 1420 37.6829
136.915 1488 38.5746
137.033 1376 37.0945
137.15 1210 34.7851
137.267 1364 36.9324
137.384 1422 37.7094
137.502 1520 38.9872
137.619 1485 38.5357
137.736 1578 39.724
137.853 1676 40.939
137.97 1658 40.7185
138.087 1594 39.9249
138.204 1798 42.4028
138.321 1726 41.5452
138.438 1741 41.7253
138.555 1792 42.332
138.672 1755 41.8927
138.788 1760 41.9524
138.905 1663 40.7799
139.022 1733 41.6293
139.139 1546 39.3192
139.255 1568 39.598
139.372 1543 39.281
139.488 1644 40.5463
139.605 1602 40.025
139.721 1623 40.2865
139.838 1726 41.5452
139.954 1629 40.3609
140.071 1609 40.1123
140.187 1612 40.1497
140.303 1511 38.8716
140.419 1488 38.5746
140.535 1447 38.0395
140.652 1369 37
140.768 0 1
140.884 0 1
141 0 1
141.115 0 1
141.231 0 1
141.347 0 1
141.463 0 1
141.578 0 1
141.694 0 1
144.104 0 1
144.219 0 1
144.335 0 1
144.45 0 1
144.566 0 1
144.682 0 1
144.798 0 1
144.914 0 1
145.03 0 1
145.146 1176 34.2929
145.262 1261 35.5106
145.378 1192 34.5254
145.494 1199 34.6266
145.61 1131 33.6303
145.726 1149 33.8969
145.842 1072 32.7414
145.959 1094 33.0757
146.075 1077 32.8177
146.192 1127 33.5708
146.308 1155 33.9853
146.425 1190 34.4964
146.541 1211 34.7994
146.658 1326 36.4143
146.774 1271 35.6511
146.891 1281 35.7911
147.008 1307 36.1525
147.125 1342 36.6333
147.241 1391 37.2961
147.358 1365 36.9459
147.475 1347 36.7015
147.592 1306 36.1386
147.709 1339 36.5923
147.826 1290 35.9166
147.943 1224 34.9857
148.06 1238 35.1852
148.177 1246 35.2987
148.294 1197 34.5977
148.411 1308 36.1663
148.528 1304 36.1109
148.645 1335 36.5377
148.762 1381 37.1618
148.88 1304 36.1109
148.997 1287 35.8748
149.114 1333 36.5103
149.231 1207 34.7419
149.349 1216 34.8712
149.466 1250 35.3553
149.583 1147 33.8674
149.701 1148 33.8821
149.818 1135 33.6898
149.935 1094 33.0757
150.053 1200 34.641
150.17 1239 35.1994
150.287 1250 35.3553
150.405 1203 34.6843
150.522 1284 35.8329
150.64 1321 36.3456
150.757 1325 36.4005
150.875 1394 37.3363
150.992 1355 36.8103
151.11 1434 37.8682
151.227 1475 38.4057
151.344 1440 37.9473
151.462 1369 37
151.579 1366 36.9594
151.697 1264 35.5528
151.814 1226 35.0143
151.932 1237 35.171
152.049 1305 36.1248
152.167 1318 36.3043
152.284 1353 36.7831
152.402 1358 36.8511
152.519 1395 37.3497
152.636 1335 36.5377
152.754 1330 36.4692
152.871 1347 36.7015
152.989 1274 35.6931
153.106 1212 34.8138
153.223 1195 34.5688
153.341 1304 36.1109
153.458 1240 35.2136
153.575 1170 34.2053
153.693 1211 34.7994
153.81 1261 35.5106
153.927 1282 35.805
154.044 1339 36.5923
154.162 1361 36.8917
154.279 1437 37.9078
154.396 1418 37.6563
154.513 1465 38.2753
154.63 1527 39.0768
154.747 1526 39.064
154.864 1513 38.8973
154.981 1536 39.1918
155.098 1464 38.2623
155.215 1455 38.1445
155.332 1399 37.4032
155.449 1348 36.7151
155.566 1360 36.8782
155.683 1485 38.5357
155.8 1437 37.9078
155.917 1409 37.5366
156.033 1422 37.7094
156.15 0 1
156.267 0 1
156.383 0 1
156.5 0 1
156.617 0 1
156.733 0 1
156.85 0 1
156.966 0 1
157.082 0 1
157.199 0 1
157.315 0 1
157.431 0 1
157.547 0 1
157.664 0 1
157.78 0 1
157.896 0 1
158.012 0 1
158.128 0 1
158.244 0 1
158.359 0 1
158.475 0 1
158.591 0 1
158.706 0 1
