
6.15755 0 1
6.2731 0 1
6.3887 0 1
6.50437 0 1
6.62009 0 1
6.73587 0 1
6.8517 0 1
6.96759 0 1
7.08353 0 1
7.19952 0 1
7.31557 0 1
7.43166 0 1
7.54781 0 1
7.664 0 1
7.78024 0 1
7.89653 0 1
8.01286 0 1
8.12924 0 1
8.24567 0 1
8.36213 0 1
8.47864 0 1
8.59519 0 1
8.71178 0 1
8.82841 0 1
8.94508 0 1
9.06179 0 1
9.17853 0 1
9.29531 0 1
9.41212 0 1
9.52897 0 1
9.64584 0 1
9.76276 0 1
9.8797 0 1
9.99667 0 1
10.1137 0 1
10.2307 0 1
10.3478 0 1
10.4648 0 1
10.5819 0 1
10.6991 0 1
10.8162 0 1
10.9334 0 1
11.0506 0 1
11.1678 0 1
11.285 0 1
11.4023 0 1
11.5196 0 1
11.6369 0 1
11.7542 0 1
11.8715 0 1
11.9888 0 1
12.1062 0 1
12.2235 0 1
12.3409 0 1
12.4582 0 1
12.5756 0 1
12.693 0 1
12.8104 0 1
12.9278 0 1
13.0452 0 1
13.1626 0 1
13.28 0 1
13.3974 0 1
13.5149 0 1
13.6323 0 1
13.7497 0 1
13.8671 0 1
13.9845 0 1
14.1019 0 1
14.2193 0 1
14.3367 0 1
14.4541 0 1
14.5714 0 1
14.6888 0 1
14.8062 0 1
14.9235 0 1
15.0408 0 0
15.1581 0 0
15.2755 0 0
15.3927 0 0
15.51 0 0
15.6273 0 0
15.7445 0 0
15.8617 0 0
15.9789 0 0
16.0961 0 0
16.2132 0 0
16.3304 0 0
16.4475 0 0
16.5646 0 0
16.6816 0 0
16.7986 0 0
16.9156 0 0
17.0326 0 0
17.1496 0 0
17.2665 0 0
17.3833 0 0
17.5002 0 0
17.617 0 0
17.7338 0 0
17.8505 0 0
17.9672 0 0
18.0839 0 0
18.2005 0 0
18.3171 0 0
18.4337 0 0
18.5502 0 0
18.6666 0 0
18.7831 0 0
18.8994 0 0
19.0158 0 0
19.1321 0 0
19.2483 0 0
19.3645 0 0
19.4806 0 0
19.5967 0 0
19.7128 0 0
19.8288 0 0
19.9447 0 0
20.0606 0 1
20.1764 0 1
20.2922 0 1
20.4079 0 1
20.5236 0 1
20.6392 0 1
20.7548 0 1
20.8702 0 1
23.3078 0 1
23.4233 0 1
23.539 0 1
23.6547 0 1
23.7704 0 1
23.8862 0 1
24.0021 0 1
24.118 0 1
24.234 0 1
24.35 0 1
24.4661 1262 35.5246
24.5822 1246 35.2987
24.6984 1255 35.426
24.8146 1232 35.0999
24.9309 1235 35.1426
25.0472 1271 35.6511
25.1636 1343 36.647
25.28 1365 36.9459
25.3965 1367 36.973
25.513 1344 36.6606
25.6296 1388 37.2559
25.7462 1391 37.2961
25.8628 1384 37.2022
25.9795 1408 37.5233
26.0962 1379 37.1349
26.213 1411 37.5633
26.3298 1318 36.3043
26.4466 1381 37.1618
26.5635 1288 35.8887
26.6804 1364 36.9324
26.7973 1250 35.3553
26.9143 1213 34.8281
27.0313 1214 34.8425
27.1483 1218 34.8999
27.2653 1193 34.5398
27.3824 1243 35.2562
27.4996 1305 36.1248
27.6167 1220 34.9285
27.7339 1275 35.7071
27.8511 1214 34.8425
27.9683 1153 33.9559
28.0855 1193 34.5398
28.2028 1118 33.4365
28.3201 1154 33.9706
28.4374 1230 35.0714
28.5547 1223 34.9714
28.6721 1235 35.1426
28.7894 1341 36.6197
28.9068 1285 35.8469
29.0242 1320 36.3318
29.1416 1298 36.0278
29.259 1301 36.0694
29.3764 1314 36.2491
29.4939 1307 36.1525
29.6113 1347 36.7015
29.7288 1267 35.5949
29.8463 1290 35.9166
29.9638 1268 35.609
30.0812 1296 36
30.1987 1229 35.0571
30.3162 1191 34.5109
30.4337 1175 34.2783
30.5512 1080 32.8634
30.6687 1098 33.1361
30.7862 1125 33.541
30.9037 1204 34.6987
31.0212 1126 33.5559
31.1387 1217 34.8855
31.2562 1154 33.9706
31.3737 1103 33.2114
31.4912 1197 34.5977
31.6087 1113 33.3617
31.7262 1118 33.4365
31.8436 1138 33.7343
31.9611 1147 33.8674
32.0785 1235 35.1426
32.1959 1270 35.6371
32.3134 1216 34.8712
32.4308 1242 35.242
32.5482 1267 35.5949
32.6655 1219 34.9142
32.7829 1259 35.4824
32.9002 1247 35.3129
33.0176 1291 35.9305
33.1349 1316 36.2767
33.2522 1226 35.0143
33.3694 1305 36.1248
33.4867 1261 35.5106
33.6039 1273 35.6791
33.7211 1263 35.5387
33.8383 1206 34.7275
33.9554 1241 35.2278
34.0725 1102 33.1964
34.1896 1112 33.3467
34.3067 998 31.5911
34.4237 1083 32.909
34.5407 1102 33.1964
34.6577 1073 32.7567
34.7746 1136 33.7046
34.8915 1096 33.1059
35.0084 1052 32.4345
35.1252 1040 32.249
35.242 1045 32.3265
35.3587 1105 33.2415
35.4755 1168 34.176
35.5921 1193 34.5398
35.7088 1141 33.7787
35.8254 1199 34.6266
35.9419 1134 33.6749
36.0584 1218 34.8999
36.1749 1224 34.9857
36.2913 1219 34.9142
36.4077 1174 34.2637
36.524 1156 34
36.6403 1202 34.6699
36.7565 1197 34.5977
36.8727 1277 35.7351
36.9889 1260 35.4965
37.1049 1157 34.0147
37.221 0 1
37.3369 0 1
37.4529 0 1
37.5687 0 1
37.6845 0 1
37.8003 0 1
37.916 0 1
38.0316 0 1
38.1472 0 1
40.5851 0 1
40.7008 0 1
40.8164 0 1
40.9322 0 1
41.048 0 1
41.1639 0 1
41.2798 0 1
41.3958 0 1
41.5118 0 1
41.6279 0 1
41.744 978 31.273
41.8602 959 30.9677
41.9765 1005 31.7017
42.0928 1032 32.1248
42.2091 976 31.241
42.3255 1023 31.9844
42.4419 994 31.5278
42.5584 1022 31.9687
42.675 1034 32.1559
42.7915 1089 33
42.9081 986 31.4006
43.0248 878 29.6311
43.1415 862 29.3598
43.2582 936 30.5941
43.375 868 29.4618
43.4918 947 30.7734
43.6087 948 30.7896
43.7256 947 30.7734
43.8425 954 30.8869
43.9595 886 29.7658
44.0765 885 29.7489
44.1935 881 29.6816
44.3106 853 29.2062
44.4277 945 30.7409
44.5448 910 30.1662
44.6619 892 29.8664
44.7791 953 30.8707
44.8963 912 30.1993
45.0136 914 30.2324
45.1308 926 30.4302
45.2481 888 29.7993
45.3654 910 30.1662
45.4827 879 29.6479
45.6001 889 29.8161
45.7174 889 29.8161
45.8348 900 30
45.9522 873 29.5466
46.0697 804 28.3549
46.1871 818 28.6007
46.3046 857 29.2746
46.422 810 28.4605
46.5395 739 27.1846
46.657 738 27.1662
46.7745 643 25.3574
46.892 671 25.9037
47.0096 721 26.8514
47.1271 696 26.3818
47.2446 715 26.7395
47.3622 721 26.8514
47.4797 690 26.2679
47.5973 611 24.7184
47.7149 666 25.807
47.8324 679 26.0576
47.95 655 25.593
48.0675 679 26.0576
48.1851 701 26.4764
48.3027 705 26.5518
48.4202 732 27.0555
48.5378 728 26.9815
48.6554 688 26.2298
48.7729 734 27.0924
48.8904 711 26.6646
49.008 700 26.4575
49.1255 693 26.3249
49.243 716 26.7582
49.3605 694 26.3439
49.478 760 27.5681
49.5955 711 26.6646
49.713 722 26.8701
49.8304 709 26.6271
49.9479 750 27.3861
50.0653 698 26.4197
50.1827 664 25.7682
50.3001 534 23.1084
50.4175 589 24.2693
50.5348 689 26.2488
50.6521 672 25.923
50.7694 719 26.8142
50.8867 741 27.2213
51.004 713 26.7021
51.1212 704 26.533
51.2384 718 26.7955
51.3556 782 27.9643
51.4727 792 28.1425
51.5899 774 27.8209
51.707 797 28.2312
51.824 890 29.8329
51.9411 825 28.7228
52.0581 884 29.7321
52.175 845 29.0689
52.2919 897 29.95
52.4088 897 29.95
52.5257 930 30.4959
52.6425 940 30.6594
52.7593 857 29.2746
52.876 923 30.3809
52.9927 966 31.0805
53.1094 967 31.0966
53.226 871 29.5127
53.3426 889 29.8161
53.4591 951 30.8383
53.5756 928 30.4631
53.692 876 29.5973
53.8084 903 30.05
53.9248 812 28.4956
54.0411 831 28.8271
54.1573 792 28.1425
54.2735 0 1
54.3896 0 1
54.5057 0 1
54.6217 0 1
54.7377 0 1
54.8537 0 1
54.9695 0 1
55.0853 0 1
55.2011 0 1
55.3168 0 1
55.4324 0 1
57.824 0 1
57.9396 0 1
58.0553 0 1
58.1711 0 1
58.2869 0 1
58.4028 0 1
58.5187 0 1
58.6347 0 1
58.7508 0 1
58.8669 0 1
58.983 998 31.5911
59.0992 980 31.305
59.2155 907 30.1164
59.3318 905 30.0832
59.4482 950 30.8221
59.5646 928 30.4631
59.681 933 30.545
59.7975 985 31.3847
59.9141 985 31.3847
60.0306 996 31.5595
60.1473 990 31.4643
60.2639 1029 32.078
60.3807 1043 32.2955
60.4974 1055 32.4808
60.6142 979 31.289
60.731 982 31.3369
60.8479 1063 32.6037
60.9648 965 31.0644
61.0818 1027 32.0468
61.1987 938 30.6268
61.3158 967 31.0966
61.4328 964 31.0483
61.5499 982 31.3369
61.667 939 30.6431
61.7841 944 30.7246
61.9013 895 29.9166
62.0185 941 30.6757
62.1357 983 31.3528
62.253 908 30.133
62.3702 912 30.1993
62.4875 891 29.8496
62.6049 829 28.7924
62.7222 763 27.6225
62.8396 823 28.688
62.9569 805 28.3725
63.0743 812 28.4956
63.1918 840 28.9828
63.3092 862 29.3598
63.4267 875 29.5804
63.5441 838 28.9482
63.6616 859 29.3087
63.7791 821 28.6531
63.8966 887 29.7825
64.0142 881 29.6816
64.1317 867 29.4449
64.2492 891 29.8496
64.3668 797 28.2312
64.4843 872 29.5296
64.6019 872 29.5296
64.7195 895 29.9166
64.837 846 29.0861
64.9546 837 28.931
65.0722 832 28.8444
65.1898 871 29.5127
65.3074 821 28.6531
65.4249 797 28.2312
65.5425 783 27.9821
65.6601 811 28.4781
65.7777 806 28.3901
65.8952 806 28.3901
66.0128 802 28.3196
66.1304 766 27.6767
66.2479 737 27.1477
66.3655 662 25.7294
66.483 769 27.7308
66.6005 695 26.3629
66.718 700 26.4575
66.8355 795 28.1957
66.953 745 27.2947
67.0705 791 28.1247
67.1879 794 28.178
67.3054 819 28.6182
67.4228 787 28.0535
67.5402 751 27.4044
67.6576 783 27.9821
67.7749 786 28.0357
67.8923 774 27.8209
68.0096 759 27.55
68.1269 796 28.2135
68.2442 780 27.9285
68.3614 734 27.0924
68.4787 765 27.6586
68.5958 786 28.0357
68.713 764 27.6405
68.8302 790 28.1069
68.9473 764 27.6405
69.0643 769 27.7308
69.1814 763 27.6225
69.2984 727 26.9629
69.4154 817 28.5832
69.5323 738 27.1662
69.6492 746 27.313
69.7661 737 27.1477
69.8829 739 27.1846
69.9997 620 24.8998
70.1165 599 24.4745
70.2332 674 25.9615
70.3499 680 26.0768
70.4665 682 26.1151
70.5831 725 26.9258
70.6996 729 27
70.8161 737 27.1477
70.9326 700 26.4575
71.049 717 26.7769
71.1653 665 25.7876
71.2817 670 25.8844
71.3979 666 25.807
71.5141 644 25.3772
71.6303 677 26.0192
71.7464 605 24.5967
71.8624 0 1
71.9784 0 1
72.0944 0 1
72.2102 0 1
72.3261 0 1
72.4418 0 1
72.5575 0 1
72.6732 0 1
75.1054 0 1
75.2209 0 1
75.3365 0 1
75.4521 0 1
75.5678 0 1
75.6835 0 1
75.7993 0 1
75.9151 0 1
76.031 0 1
76.147 510 22.5832
76.263 539 23.2164
76.3791 563 23.7276
76.4952 543 23.3024
76.6113 563 23.7276
76.7276 533 23.0868
76.8438 548 23.4094
76.9601 561 23.6854
77.0765 532 23.0651
77.1929 508 22.5389
77.3093 511 22.6053
77.4258 539 23.2164
77.5423 525 22.9129
77.6589 498 22.3159
77.7755 542 23.2809
77.8921 468 21.6333
78.0088 440 20.9762
78.1256 457 21.3776
78.2423 494 22.2261
78.3591 486 22.0454
78.4759 442 21.0238
78.5928 433 20.8087
78.7097 442 21.0238
78.8266 500 22.3607
78.9436 420 20.4939
79.0606 382 19.5448
79.1776 272 16.4924
79.2946 338 18.3848
79.4117 356 18.868
79.5288 384 19.5959
79.6459 396 19.8997
79.7631 386 19.6469
79.8802 393 19.8242
79.9974 358 18.9209
80.1147 380 19.4936
80.2319 384 19.5959
80.3491 341 18.4662
80.4664 365 19.105
80.5837 341 18.4662
80.701 314 17.72
80.8183 320 17.8885
80.9357 316 17.7764
81.053 317 17.8045
81.1704 296 17.2047
81.2877 264 16.2481
81.4051 305 17.4642
81.5225 231 15.1987
81.6399 261 16.1555
81.7573 263 16.2173
81.8747 256 16
81.9922 230 15.1658
82.1096 236 15.3623
82.227 217 14.7309
82.3444 219 14.7986
82.4619 242 15.5563
82.5793 208 14.4222
82.6967 203 14.2478
82.8142 163 12.7671
82.9316 131 11.4455
83.049 189 13.7477
83.1664 175 13.2288
83.2838 168 12.9615
83.4012 157 12.53
83.5186 158 12.5698
83.636 131 11.4455
83.7534 120 10.9545
83.8708 129 11.3578
83.9881 146 12.083
84.1055 122 11.0454
84.2228 95 9.74679
84.3401 122 11.0454
84.4575 123 11.0905
84.5747 121 11
84.692 93 9.64365
84.8093 106 10.2956
84.9265 107 10.3441
85.0437 92 9.59166
85.1609 89 9.43398
85.2781 104 10.198
85.3952 103 10.1489
85.5123 82 9.05539
85.6294 101 10.0499
85.7465 107 10.3441
85.8636 91 9.53939
85.9806 82 9.05539
86.0976 78 8.83176
86.2145 72 8.48528
86.3315 83 9.11043
86.4484 117 10.8167
86.5652 129 11.3578
86.682 127 11.2694
86.7988 116 10.7703
86.9156 150 12.2474
87.0323 137 11.7047
87.149 147 12.1244
87.2657 132 11.4891
87.3823 165 12.8452
87.4988 148 12.1655
87.6154 157 12.53
87.7318 158 12.5698
87.8483 190 13.784
87.9647 191 13.8203
88.081 206 14.3527
88.1973 200 14.1421
88.3136 212 14.5602
88.4298 203 14.2478
88.546 228 15.0997
88.6621 256 16
88.7781 244 15.6205
88.8942 0 1
89.0101 0 1
89.126 0 1
89.2419 0 1
89.3577 0 1
89.4734 0 1
89.5891 0 1
89.7047 0 1
89.8203 0 1
89.9358 0 1
92.3269 0 1
92.4424 0 1
92.558 0 1
92.6736 0 1
92.7893 0 1
92.905 0 1
93.0208 0 1
93.1366 0 1
93.2525 0 1
93.3685 0 1
93.4845 0 1
93.6005 361 19
93.7167 364 19.0788
93.8328 386 19.6469
93.949 401 20.025
94.0653 356 18.868
94.1816 362 19.0263
94.2979 342 18.4932
94.4143 345 18.5742
94.5307 313 17.6918
94.6472 301 17.3494
94.7637 299 17.2916
94.8803 310 17.6068
94.9969 292 17.088
95.1135 306 17.4929
95.2302 297 17.2337
95.3469 286 16.9115
95.4637 214 14.6287
95.5805 205 14.3178
95.6973 302 17.3781
95.8142 368 19.1833
95.9311 317 17.8045
96.048 363 19.0526
96.1649 327 18.0831
96.2819 352 18.7617
96.3989 363 19.0526
96.516 383 19.5704
96.633 387 19.6723
96.7501 414 20.347
96.8673 379 19.4679
96.9844 406 20.1494
97.1016 420 20.4939
97.2188 446 21.1187
97.336 466 21.587
97.4532 491 22.1585
97.5704 456 21.3542
97.6877 490 22.1359
97.805 495 22.2486
97.9223 526 22.9347
98.0396 513 22.6495
98.1569 510 22.5832
98.2743 541 23.2594
98.3916 482 21.9545
98.509 558 23.622
98.6264 547 23.388
98.7438 567 23.8118
98.8612 560 23.6643
98.9786 513 22.6495
99.096 372 19.2873
99.2134 370 19.2354
99.3308 537 23.1733
99.4482 637 25.2389
99.5656 634 25.1794
99.6831 645 25.3969
99.8005 592 24.3311
99.9179 708 26.6083
100.035 688 26.2298
100.153 682 26.1151
100.27 737 27.1477
100.388 710 26.6458
100.505 663 25.7488
100.622 704 26.533
100.74 735 27.1109
100.857 750 27.3861
100.975 739 27.1846
101.092 730 27.0185
101.209 780 27.9285
101.327 766 27.6767
101.444 772 27.7849
101.561 757 27.5136
101.679 769 27.7308
101.796 758 27.5318
101.913 712 26.6833
102.03 799 28.2666
102.148 732 27.0555
102.265 853 29.2062
102.382 733 27.074
102.499 743 27.258
102.616 606 24.6171
102.733 549 23.4307
102.851 626 25.02
102.968 804 28.3549
103.085 822 28.6705
103.202 827 28.7576
103.319 803 28.3373
103.436 792 28.1425
103.552 781 27.9464
103.669 778 27.8927
103.786 826 28.7402
103.903 782 27.9643
104.02 780 27.9285
104.137 855 29.2404
104.253 863 29.3769
104.37 800 28.2843
104.487 887 29.7825
104.603 867 29.4449
104.72 863 29.3769
104.836 820 28.6356
104.953 812 28.4956
105.069 843 29.0345
105.186 832 28.8444
105.302 847 29.1033
105.418 849 29.1376
105.535 803 28.3373
105.651 884 29.7321
105.767 818 28.6007
105.883 764 27.6405
105.999 664 25.7682
106.115 0 1
106.231 0 1
106.347 0 1
106.463 0 1
106.579 0 1
106.694 0 1
106.81 0 1
106.926 0 1
107.041 0 1
107.157 0 1
109.576 0 1
109.692 0 1
109.807 0 1
109.923 0 1
110.039 0 1
110.155 0 1
110.27 0 1
110.386 0 1
110.502 0 1
110.618 621 24.9199
110.735 670 25.8844
110.851 632 25.1396
110.967 642 25.3377
111.083 568 23.8328
111.199 531 23.0434
111.316 481 21.9317
111.432 537 23.1733
111.549 574 23.9583
111.665 647 25.4362
111.782 641 25.318
111.898 601 24.5153
112.015 619 24.8797
112.132 541 23.2594
112.248 545 23.3452
112.365 570 23.8747
112.482 562 23.7065
112.599 534 23.1084
112.716 544 23.3238
112.832 560 23.6643
112.949 532 23.0651
113.066 536 23.1517
113.183 498 22.3159
113.3 531 23.0434
113.417 536 23.1517
113.534 468 21.6333
113.652 532 23.0651
113.769 481 21.9317
113.886 506 22.4944
114.003 511 22.6053
114.12 469 21.6564
114.238 489 22.1133
114.355 462 21.4942
114.472 446 21.1187
114.589 466 21.587
114.707 439 20.9523
114.824 400 20
114.942 382 19.5448
115.059 450 21.2132
115.176 441 21
115.294 485 22.0227
115.411 453 21.2838
115.529 457 21.3776
115.646 457 21.3776
115.764 445 21.095
115.881 494 22.2261
115.999 452 21.2603
116.116 476 21.8174
116.234 469 21.6564
116.351 447 21.1424
116.469 473 21.7486
116.586 447 21.1424
116.704 493 22.2036
116.821 432 20.7846
116.939 451 21.2368
117.056 473 21.7486
117.174 446 21.1187
117.291 451 21.2368
117.409 434 20.8327
117.526 423 20.567
117.644 476 21.8174
117.761 442 21.0238
117.879 459 21.4243
117.996 374 19.3391
118.114 344 18.5472
118.231 433 20.8087
118.349 462 21.4942
118.466 466 21.587
118.584 442 21.0238
118.701 437 20.9045
118.819 435 20.8567
118.936 441 21
119.053 503 22.4277
119.171 476 21.8174
119.288 463 21.5174
119.405 500 22.3607
119.523 455 21.3307
119.64 488 22.0907
119.757 461 21.4709
119.875 430 20.7364
119.992 450 21.2132
120.109 462 21.4942
120.226 439 20.9523
120.343 464 21.5407
120.46 504 22.4499
120.578 466 21.587
120.695 514 22.6716
120.812 479 21.8861
120.929 528 22.9783
121.046 455 21.3307
121.163 448 21.166
121.279 484 22
121.396 493 22.2036
121.513 436 20.8806
121.63 410 20.2485
121.747 314 17.72
121.863 342 18.4932
121.98 431 20.7605
122.097 492 22.1811
122.213 496 22.2711
122.33 480 21.9089
122.446 492 22.1811
122.563 495 22.2486
122.679 528 22.9783
122.795 510 22.5832
122.912 514 22.6716
123.028 536 23.1517
123.144 478 21.8632
123.26 553 23.516
123.377 0 1
123.493 0 1
123.609 0 1
123.725 0 1
123.84 0 1
123.956 0 1
124.072 0 1
124.188 0 1
124.303 0 1
124.419 0 1
126.852 0 1
126.968 0 1
127.083 0 1
127.199 0 1
127.315 0 1
127.431 0 1
127.547 0 1
127.663 0 1
127.779 0 1
127.895 0 1
128.011 0 1
128.127 0 1
128.243 0 1
128.359 652 25.5343
128.476 704 26.533
128.592 682 26.1151
128.708 656 25.6125
128.825 699 26.4386
128.941 633 25.1595
129.058 668 25.8457
129.174 623 24.96
129.291 671 25.9037
129.408 633 25.1595
129.524 607 24.6374
129.641 660 25.6905
129.758 652 25.5343
129.875 717 26.7769
129.992 661 25.7099
130.108 681 26.096
130.225 640 25.2982
130.342 636 25.219
130.459 513 22.6495
130.576 526 22.9347
130.693 462 21.4942
130.81 446 21.1187
130.928 495 22.2486
131.045 616 24.8193
131.162 677 26.0192
131.279 708 26.6083
131.396 676 26
131.513 736 27.1293
131.631 703 26.5141
131.748 713 26.7021
131.865 697 26.4008
131.983 772 27.7849
132.1 669 25.865
132.217 736 27.1293
132.335 750 27.3861
132.452 708 26.6083
132.57 718 26.7955
132.687 700 26.4575
132.804 771 27.7669
132.922 756 27.4955
133.039 743 27.258
133.157 694 26.3439
133.274 725 26.9258
133.392 701 26.4764
133.509 767 27.6948
133.627 731 27.037
133.744 719 26.8142
133.862 669 25.865
133.979 605 24.5967
134.097 605 24.5967
134.214 535 23.1301
134.332 514 22.6716
134.449 598 24.454
134.567 566 23.7908
134.684 642 25.3377
134.802 710 26.6458
134.919 740 27.2029
135.037 764 27.6405
135.154 780 27.9285
135.272 820 28.6356
135.389 783 27.9821
135.507 786 28.0357
135.624 825 28.7228
135.742 801 28.3019
135.859 812 28.4956
135.977 796 28.2135
136.094 856 29.2575
136.211 848 29.1204
136.329 797 28.2312
136.446 877 29.6142
136.564 807 28.4077
136.681 802 28.3196
136.798 793 28.1603
136.915 823 28.688
137.033 863 29.3769
137.15 860 29.3258
137.267 819 28.6182
137.384 806 28.3901
137.502 756 27.4955
137.619 731 27.037
137.736 616 24.8193
137.853 591 24.3105
137.97 606 24.6171
138.087 606 24.6171
138.204 626 25.02
138.321 675 25.9808
138.438 753 27.4408
138.555 844 29.0517
138.672 868 29.4618
138.788 837 28.931
138.905 847 29.1033
139.022 886 29.7658
139.139 875 29.5804
139.255 925 30.4138
139.372 886 29.7658
139.488 853 29.2062
139.605 838 28.9482
139.721 867 29.4449
139.838 898 29.9666
139.954 866 29.4279
140.071 869 29.4788
140.187 870 29.4958
140.303 872 29.5296
140.419 883 29.7153
140.535 843 29.0345
140.652 908 30.133
140.768 0 1
140.884 0 1
141 0 1
141.115 0 1
141.231 0 1
141.347 0 1
141.463 0 1
141.578 0 1
141.694 0 1
144.104 0 1
144.219 0 1
144.335 0 1
144.45 0 1
144.566 0 1
144.682 0 1
144.798 0 1
144.914 0 1
145.03 0 1
145.146 819 28.6182
145.262 889 29.8161
145.378 918 30.2985
145.494 810 28.4605
145.61 874 29.5635
145.726 864 29.3939
145.842 826 28.7402
145.959 851 29.1719
146.075 778 27.8927
146.192 745 27.2947
146.308 675 25.9808
146.425 677 26.0192
146.541 670 25.8844
146.658 672 25.923
146.774 666 25.807
146.891 666 25.807
147.008 756 27.4955
147.125 768 27.7128
147.241 839 28.9655
147.358 827 28.7576
147.475 808 28.4253
147.592 875 29.5804
147.709 857 29.2746
147.826 788 28.0713
147.943 894 29.8998
148.06 833 28.8617
148.177 897 29.95
148.294 845 29.0689
148.411 843 29.0345
148.528 855 29.2404
148.645 867 29.4449
148.762 856 29.2575
148.88 838 28.9482
148.997 778 27.8927
149.114 864 29.3939
149.231 848 29.1204
149.349 767 27.6948
149.466 758 27.5318
149.583 799 28.2666
149.701 763 27.6225
149.818 713 26.7021
149.935 705 26.5518
150.053 655 25.593
150.17 646 25.4165
150.287 691 26.2869
150.405 681 26.096
150.522 687 26.2107
150.64 709 26.6271
150.757 837 28.931
150.875 778 27.8927
150.992 885 29.7489
151.11 858 29.2916
151.227 848 29.1204
151.344 827 28.7576
151.462 870 29.4958
151.579 874 29.5635
151.697 871 29.5127
151.814 856 29.2575
151.932 847 29.1033
152.049 847 29.1033
152.167 877 29.6142
152.284 876 29.5973
152.402 878 29.6311
152.519 898 29.9666
152.636 865 29.4109
152.754 877 29.6142
152.871 854 29.2233
152.989 809 28.4429
153.106 843 29.0345
153.223 797 28.2312
153.341 740 27.2029
153.458 753 27.4408
153.575 706 26.5707
153.693 747 27.3313
153.81 714 26.7208
153.927 757 27.5136
154.044 742 27.2397
154.162 768 27.7128
154.279 819 28.6182
154.396 829 28.7924
154.513 885 29.7489
154.63 884 29.7321
154.747 863 29.3769
154.864 894 29.8998
154.981 907 30.1164
155.098 890 29.8329
155.215 890 29.8329
155.332 926 30.4302
155.449 890 29.8329
155.566 932 30.5287
155.683 886 29.7658
155.8 907 30.1164
155.917 913 30.2159
156.033 922 30.3645
156.15 0 1
156.267 0 1
156.383 0 1
156.5 0 1
156.617 0 1
156.733 0 1
156.85 0 1
156.966 0 1
157.082 0 1
157.199 0 1
157.315 0 1
157.431 0 1
157.547 0 1
157.664 0 1
157.78 0 1
157.896 0 1
158.012 0 1
158.128 0 1
158.244 0 1
158.359 0 1
158.475 0 1
158.591 0 1
158.706 0 1
