
6.15755 0 1
6.2731 0 1
6.3887 0 1
6.50437 0 1
6.62009 0 1
6.73587 0 1
6.8517 0 1
6.96759 0 1
7.08353 0 1
7.19952 0 1
7.31557 0 1
7.43166 0 1
7.54781 0 1
7.664 0 1
7.78024 0 1
7.89653 0 1
8.01286 0 1
8.12924 0 1
8.24567 0 1
8.36213 0 1
8.47864 0 1
8.59519 0 1
8.71178 0 1
8.82841 0 1
8.94508 0 1
9.06179 0 1
9.17853 0 1
9.29531 0 1
9.41212 0 1
9.52897 0 1
9.64584 0 1
9.76276 0 1
9.8797 0 1
9.99667 0 1
10.1137 0 1
10.2307 0 1
10.3478 0 1
10.4648 0 1
10.5819 0 1
10.6991 0 1
10.8162 0 1
10.9334 0 1
11.0506 0 1
11.1678 0 1
11.285 0 1
11.4023 0 1
11.5196 0 1
11.6369 0 1
11.7542 0 1
11.8715 0 1
11.9888 0 1
12.1062 0 1
12.2235 0 1
12.3409 0 1
12.4582 0 1
12.5756 0 1
12.693 0 1
12.8104 0 1
12.9278 0 1
13.0452 0 1
13.1626 0 1
13.28 0 1
13.3974 0 1
13.5149 0 1
13.6323 0 1
13.7497 0 1
13.8671 0 1
13.9845 0 1
14.1019 0 1
14.2193 0 1
14.3367 0 1
14.4541 0 1
14.5714 0 1
14.6888 0 1
14.8062 0 1
14.9235 0 1
15.0408 115011 339.133
15.1581 120891 347.694
15.2755 124419 352.731
15.3927 124623 353.02
15.51 124925 353.447
15.6273 124277 352.529
15.7445 123627 351.606
15.8617 124369 352.66
15.9789 123400 351.283
16.0961 126033 355.011
16.2132 127942 357.69
16.3304 132660 364.225
16.4475 135570 368.198
16.5646 140691 375.088
16.6816 145515 381.464
16.7986 147971 384.67
16.9156 153040 391.203
17.0326 157123 396.387
17.1496 160966 401.206
17.2665 163599 404.474
17.3833 165863 407.263
17.5002 166994 408.649
17.617 169122 411.244
17.7338 169910 412.201
17.8505 170232 412.592
17.9672 168252 410.185
18.0839 158840 398.547
18.2005 153841 392.226
18.3171 155591 394.45
18.4337 161543 401.924
18.5502 168187 410.106
18.6666 172719 415.595
18.7831 174884 418.191
18.8994 173626 416.685
19.0158 171386 413.988
19.1321 167595 409.384
19.2483 164709 405.844
19.3645 161308 401.632
19.4806 159498 399.372
19.5967 156450 395.538
19.7128 154218 392.706
19.8288 149237 386.312
19.9447 138481 372.13
20.0606 0 1
20.1764 0 1
20.2922 0 1
20.4079 0 1
20.5236 0 1
20.6392 0 1
20.7548 0 1
20.8702 0 1
23.3078 0 1
23.4233 0 1
23.539 0 1
23.6547 0 1
23.7704 0 1
23.8862 0 1
24.0021 0 1
24.118 0 1
24.234 0 1
24.35 0 1
24.4661 155986 394.951
24.5822 155955 394.911
24.6984 156375 395.443
24.8146 154741 393.371
24.9309 154927 393.608
25.0472 153077 391.251
25.1636 153775 392.142
25.28 156953 396.173
25.3965 161447 401.805
25.513 167588 409.375
25.6296 173212 416.187
25.7462 177060 420.785
25.8628 180112 424.396
25.9795 183506 428.376
26.0962 184654 429.714
26.213 184038 428.997
26.3298 185356 430.53
26.4466 182823 427.578
26.5635 179001 423.085
26.6804 172607 415.46
26.7973 163815 404.741
26.9143 161516 401.891
27.0313 167989 409.865
27.1483 174318 417.514
27.2653 178661 422.683
27.3824 180063 424.338
27.4996 178909 422.976
27.6167 174811 418.104
27.7339 172521 415.356
27.8511 169424 411.611
27.9683 166373 407.888
28.0855 163263 404.058
28.2028 162022 402.52
28.3201 157458 396.81
28.4374 157138 396.406
28.5547 155105 393.834
28.6721 153851 392.238
28.7894 153946 392.36
28.9068 157019 396.256
29.0242 160201 400.251
29.1416 163805 404.728
29.259 168735 410.774
29.3764 170894 413.393
29.4939 174367 417.573
29.6113 176827 420.508
29.7288 179023 423.111
29.8463 179421 423.581
29.9638 177681 421.522
30.0812 173865 416.971
30.1987 167073 408.746
30.3162 157291 396.599
30.4337 151450 389.166
30.5512 155530 394.373
30.6687 160643 400.803
30.7862 169756 412.015
30.9037 170055 412.377
31.0212 171886 414.591
31.1387 172103 414.853
31.2562 169026 411.128
31.3737 166265 407.756
31.4912 163475 404.32
31.6087 160858 401.071
31.7262 158063 397.571
31.8436 155965 394.924
31.9611 154385 392.919
32.0785 151670 389.448
32.1959 150646 388.131
32.3134 148412 385.243
32.4308 150408 387.825
32.5482 153273 391.501
32.6655 158126 397.651
32.7829 161057 401.319
32.9002 165195 406.442
33.0176 168112 410.015
33.1349 171809 414.498
33.2522 174265 417.451
33.3694 172954 415.877
33.4867 173037 415.977
33.6039 172836 415.735
33.7211 171403 414.008
33.8383 163547 404.409
33.9554 154321 392.837
34.0725 145118 380.944
34.1896 143735 379.124
34.3067 149335 386.439
34.4237 155688 394.573
34.5407 160076 400.095
34.6577 162942 403.661
34.7746 163541 404.402
34.8915 162914 403.626
35.0084 161195 401.491
35.1252 157968 397.452
35.242 156974 396.199
35.3587 152435 390.429
35.4755 151383 389.08
35.5921 149442 386.577
35.7088 147825 384.48
35.8254 145025 380.821
35.9419 144487 380.114
36.0584 141538 376.215
36.1749 142760 377.836
36.2913 145599 381.574
36.4077 149079 386.107
36.524 151208 388.855
36.6403 155161 393.905
36.7565 160358 400.447
36.8727 162230 402.778
36.9889 163890 404.833
37.1049 162810 403.497
37.221 0 1
37.3369 0 1
37.4529 0 1
37.5687 0 1
37.6845 0 1
37.8003 0 1
37.916 0 1
38.0316 0 1
38.1472 0 1
40.5851 0 1
40.7008 0 1
40.8164 0 1
40.9322 0 1
41.048 0 1
41.1639 0 1
41.2798 0 1
41.3958 0 1
41.5118 0 1
41.6279 0 1
41.744 117638 342.984
41.8602 127923 357.663
41.9765 134619 366.905
42.0928 138389 372.007
42.2091 138850 372.626
42.3255 139400 373.363
42.4419 138459 372.101
42.5584 137200 370.405
42.675 132231 363.636
42.7915 124150 352.349
42.9081 116768 341.713
43.0248 113078 336.271
43.1415 117098 342.196
43.2582 122208 349.583
43.375 125980 354.937
43.4918 128051 357.842
43.6087 129701 360.14
43.7256 128494 358.461
43.8425 126510 355.682
43.9595 122589 350.127
44.0765 121555 348.647
44.1935 118729 344.571
44.3106 115599 339.999
44.4277 112840 335.917
44.5448 109232 330.503
44.6619 105377 324.618
44.7791 102122 319.565
44.8963 99645 315.666
45.0136 98091 313.195
45.1308 99180 314.929
45.2481 101129 318.008
45.3654 102787 320.604
45.4827 104460 323.203
45.6001 106674 326.61
45.7174 108097 328.781
45.8348 107858 328.417
45.9522 107747 328.248
46.0697 106279 326.005
46.1871 104026 322.531
46.3046 98398 313.685
46.422 91015 301.687
46.5395 86939 294.854
46.657 85756 292.841
46.7745 89503 299.171
46.892 93688 306.085
47.0096 95205 308.553
47.1271 97165 311.713
47.2446 97468 312.199
47.3622 96540 310.709
47.4797 95156 308.474
47.5973 93335 305.508
47.7149 92068 303.427
47.8324 90549 300.914
47.95 88213 297.007
48.0675 85416 292.26
48.1851 84036 289.89
48.3027 81484 285.454
48.4202 79116 281.276
48.5378 78237 279.709
48.6554 79545 282.037
48.7729 82120 286.566
48.8904 84280 290.31
49.008 86987 294.936
49.1255 89816 299.693
49.243 92531 304.189
49.3605 93741 306.172
49.478 94103 306.762
49.5955 94742 307.802
49.713 92585 304.278
49.8304 87425 295.677
49.9479 82363 286.99
50.0653 78902 280.895
50.1827 79143 281.324
50.3001 83982 289.796
50.4175 89835 299.725
50.5348 93488 305.758
50.6521 98020 313.081
50.7694 100758 317.424
50.8867 102817 320.651
51.004 103412 321.577
51.1212 104178 322.766
51.2384 105295 324.492
51.3556 104799 323.727
51.4727 105186 324.324
51.5899 105330 324.546
51.707 104001 322.492
51.824 102516 320.181
51.9411 101805 319.069
52.0581 100376 316.822
52.175 102916 320.805
52.2919 107430 327.765
52.4088 112176 334.927
52.5257 117984 343.488
52.6425 122325 349.75
52.7593 125483 354.236
52.876 126967 356.324
52.9927 128008 357.782
53.1094 130854 361.737
53.226 130680 361.497
53.3426 129008 359.177
53.4591 122638 350.197
53.5756 115066 339.214
53.692 108001 328.635
53.8084 108044 328.7
53.9248 114272 338.041
54.0411 121693 348.845
54.1573 127143 356.571
54.2735 0 1
54.3896 0 1
54.5057 0 1
54.6217 0 1
54.7377 0 1
54.8537 0 1
54.9695 0 1
55.0853 0 1
55.2011 0 1
55.3168 0 1
55.4324 0 1
57.824 0 1
57.9396 0 1
58.0553 0 1
58.1711 0 1
58.2869 0 1
58.4028 0 1
58.5187 0 1
58.6347 0 1
58.7508 0 1
58.8669 0 1
58.983 127219 356.678
59.0992 137400 370.675
59.2155 146683 382.992
59.3318 153655 391.989
59.4482 159787 399.734
59.5646 163685 404.58
59.681 164941 406.129
59.7975 163981 404.946
59.9141 163565 404.432
60.0306 161561 401.947
60.1473 159364 399.204
60.2639 154941 393.625
60.3807 151771 389.578
60.4974 146802 383.147
60.6142 141934 376.741
60.731 138889 372.678
60.8479 136463 369.409
60.9648 138801 372.56
61.0818 142498 377.489
61.1987 145975 382.067
61.3158 152483 390.491
61.4328 157127 396.392
61.5499 158894 398.615
61.667 158946 398.68
61.7841 158343 397.923
61.9013 154545 393.122
62.0185 147327 383.832
62.1357 138960 372.773
62.253 130314 360.99
62.3702 127131 356.554
62.4875 131426 362.527
62.6049 138032 371.527
62.7222 143844 379.268
62.8396 151222 388.873
62.9569 154446 392.996
63.0743 156465 395.557
63.1918 158484 398.1
63.3092 158076 397.588
63.4267 156542 395.654
63.5441 154520 393.09
63.6616 152035 389.917
63.7791 148708 385.627
63.8966 145660 381.654
64.0142 139676 373.733
64.1317 134887 367.27
64.2492 128329 358.23
64.3668 127915 357.652
64.4843 129612 360.017
64.6019 132970 364.651
64.7195 137979 371.455
64.837 144052 379.542
64.9546 149493 386.643
65.0722 151624 389.389
65.1898 151204 388.85
65.3074 154246 392.742
65.4249 149582 386.758
65.5425 146713 383.031
65.6601 137704 371.085
65.7777 127843 357.551
65.8952 120728 347.459
66.0128 120333 346.89
66.1304 125292 353.966
66.2479 134230 366.374
66.3655 140813 375.251
66.483 146689 383
66.6005 150719 388.225
66.718 154658 393.266
66.8355 155030 393.738
66.953 155213 393.971
67.0705 153426 391.696
67.1879 152108 390.01
67.3054 148933 385.918
67.4228 147309 383.809
67.5402 143247 378.48
67.6576 137646 371.007
67.7749 129724 360.172
67.8923 126938 356.284
68.0096 124411 352.719
68.1269 125744 354.604
68.2442 130273 360.934
68.3614 135824 368.543
68.4787 142678 377.727
68.5958 150661 388.151
68.713 153511 391.805
68.8302 156929 396.143
68.9473 155733 394.63
69.0643 156342 395.401
69.1814 152826 390.93
69.2984 145449 381.378
69.4154 135889 368.631
69.5323 126748 356.017
69.6492 124136 352.329
69.7661 131039 361.993
69.8829 137666 371.034
69.9997 147602 384.19
70.1165 154108 392.566
70.2332 159200 398.999
70.3499 161420 401.771
70.4665 164610 405.722
70.5831 164729 405.868
70.6996 164812 405.97
70.8161 162477 403.084
70.9326 160367 400.458
71.049 156983 396.211
71.1653 152532 390.553
71.2817 148530 385.396
71.3979 140663 375.051
71.5141 131595 362.76
71.6303 122751 350.358
71.7464 114637 338.581
71.8624 0 1
71.9784 0 1
72.0944 0 1
72.2102 0 1
72.3261 0 1
72.4418 0 1
72.5575 0 1
72.6732 0 1
75.1054 0 1
75.2209 0 1
75.3365 0 1
75.4521 0 1
75.5678 0 1
75.6835 0 1
75.7993 0 1
75.9151 0 1
76.031 0 1
76.147 148001 384.709
76.263 152498 390.51
76.3791 151832 389.656
76.4952 147168 383.625
76.6113 142103 376.966
76.7276 133401 365.241
76.8438 130013 360.573
76.9601 131377 362.46
77.0765 137034 370.181
77.1929 143934 379.386
77.3093 153464 391.745
77.4258 161881 402.344
77.5423 164959 406.151
77.6589 165291 406.56
77.7755 165245 406.503
77.8921 163599 404.474
78.0088 156322 395.376
78.1256 144596 380.258
78.2423 134602 366.881
78.3591 124325 352.598
78.4759 119735 346.027
78.5928 124614 353.007
78.7097 136264 369.14
78.8266 142527 377.527
78.9436 156584 395.707
79.0606 158819 398.521
79.1776 161075 401.342
79.2946 164406 405.47
79.4117 165627 406.973
79.5288 165365 406.651
79.6459 165300 406.571
79.7631 161635 402.039
79.8802 160219 400.274
79.9974 155209 393.966
80.1147 150047 387.359
80.2319 143010 378.167
80.3491 134305 366.476
80.4664 128912 359.043
80.5837 129225 359.479
80.701 134608 366.89
80.8183 142097 376.958
80.9357 152225 390.16
81.053 158589 398.232
81.1704 162194 402.733
81.2877 163105 403.863
81.4051 162844 403.539
81.5225 164089 405.079
81.6399 156839 396.029
81.7573 150751 388.267
81.8747 135717 368.398
81.9922 127310 356.805
82.1096 121051 347.924
82.227 125466 354.212
82.3444 134958 367.366
82.4619 146381 382.598
82.5793 155995 394.962
82.6967 155761 394.666
82.8142 161579 401.969
82.9316 165034 406.244
83.049 165801 407.187
83.1664 166387 407.906
83.2838 165922 407.335
83.4012 163941 404.896
83.5186 159410 399.262
83.636 157028 396.268
83.7534 151849 389.678
83.8708 146107 382.239
83.9881 135946 368.709
84.1055 128295 358.183
84.2228 130778 361.632
84.3401 134226 366.369
84.4575 142472 377.455
84.5747 153019 391.176
84.692 162511 403.127
84.8093 167737 409.557
84.9265 168710 410.743
85.0437 169681 411.924
85.1609 166257 407.746
85.2781 157591 396.977
85.3952 144820 380.552
85.5123 135222 367.725
85.6294 126644 355.871
85.7465 125998 354.962
85.8636 134174 366.298
85.9806 145381 381.289
86.0976 156047 395.028
86.2145 163067 403.816
86.3315 167542 409.319
86.4484 172736 415.615
86.5652 174328 417.526
86.682 176480 420.095
86.7988 177146 420.887
86.9156 175276 418.66
87.0323 174465 417.69
87.149 169861 412.142
87.2657 166355 407.866
87.3823 161289 401.608
87.4988 152671 390.731
87.6154 142621 377.652
87.7318 139462 373.446
87.8483 141739 376.482
87.9647 150047 387.359
88.081 159890 399.862
88.1973 170676 413.13
88.3136 175345 418.742
88.4298 177014 420.73
88.546 177113 420.848
88.6621 173989 417.12
88.7781 167148 408.837
88.8942 0 1
89.0101 0 1
89.126 0 1
89.2419 0 1
89.3577 0 1
89.4734 0 1
89.5891 0 1
89.7047 0 1
89.8203 0 1
89.9358 0 1
92.3269 0 1
92.4424 0 1
92.558 0 1
92.6736 0 1
92.7893 0 1
92.905 0 1
93.0208 0 1
93.1366 0 1
93.2525 0 1
93.3685 0 1
93.4845 0 1
93.6005 168147 410.057
93.7167 168903 410.978
93.8328 167575 409.359
93.949 164181 405.193
94.0653 156264 395.302
94.1816 146351 382.558
94.2979 138651 372.359
94.4143 133811 365.802
94.5307 132709 364.292
94.6472 137437 370.725
94.7637 146519 382.778
94.8803 154098 392.553
94.9969 162005 402.498
95.1135 166399 407.92
95.2302 169429 411.618
95.3469 173135 416.095
95.4637 175189 418.556
95.5805 176482 420.098
95.6973 178290 422.244
95.8142 178782 422.826
95.9311 176365 419.958
96.048 172526 415.362
96.1649 168825 410.883
96.2819 163571 404.439
96.3989 156487 395.584
96.516 147109 383.548
96.633 139851 373.967
96.7501 140632 375.009
96.8673 145930 382.008
96.9844 154695 393.313
97.1016 164939 406.127
97.2188 171821 414.513
97.336 176463 420.075
97.4532 175235 418.611
97.5704 173038 415.978
97.6877 168596 410.604
97.805 159250 399.061
97.9223 148398 385.225
98.0396 138702 372.427
98.1569 134730 367.056
98.2743 133589 365.498
98.3916 138683 372.402
98.509 148691 385.605
98.6264 155288 394.066
98.7438 162176 402.711
98.8612 167255 408.968
98.9786 170741 413.208
99.096 172042 414.779
99.2134 174199 417.372
99.3308 174166 417.332
99.4482 174083 417.233
99.5656 172426 415.242
99.6831 168883 410.954
99.8005 165242 406.5
99.9179 161265 401.578
100.035 151826 389.649
100.153 142628 377.661
100.27 136690 369.716
100.388 139301 373.23
100.505 147631 384.228
100.622 159160 398.949
100.74 167746 409.568
100.857 171882 414.587
100.975 172903 415.816
101.092 172515 415.349
101.209 172357 415.159
101.327 166387 407.906
101.444 157926 397.399
101.561 146648 382.946
101.679 139940 374.086
101.796 134448 366.672
101.913 135813 368.528
102.03 145096 380.915
102.148 156020 394.994
102.265 151503 389.234
102.382 181986 426.598
102.499 173546 416.589
102.616 178625 422.641
102.733 180583 424.951
102.851 181930 426.533
102.968 184906 430.007
103.085 182390 427.071
103.202 181869 426.461
103.319 177086 420.816
103.436 173277 416.266
103.552 165253 406.513
103.669 154741 393.371
103.786 147547 384.118
103.903 149502 386.655
104.02 158089 397.604
104.137 171444 414.058
104.253 180656 425.036
104.37 185257 430.415
104.487 187809 433.369
104.603 186893 432.311
104.72 183120 427.925
104.836 176035 419.565
104.953 164690 405.82
105.069 154018 392.451
105.186 146803 383.149
105.302 144094 379.597
105.418 148152 384.905
105.535 159320 399.149
105.651 168405 410.372
105.767 175228 418.602
105.883 180484 424.834
105.999 184134 429.108
106.115 0 1
106.231 0 1
106.347 0 1
106.463 0 1
106.579 0 1
106.694 0 1
106.81 0 1
106.926 0 1
107.041 0 1
107.157 0 1
109.576 0 1
109.692 0 1
109.807 0 1
109.923 0 1
110.039 0 1
110.155 0 1
110.27 0 1
110.386 0 1
110.502 0 1
110.618 141072 375.596
110.735 152039 389.922
110.851 156184 395.201
110.967 160446 400.557
111.083 162674 403.329
111.199 165227 406.481
111.316 166747 408.347
111.432 167385 409.127
111.549 165515 406.835
111.665 162623 403.265
111.782 158979 398.722
111.898 153502 391.793
112.015 144159 379.683
112.132 134254 366.407
112.248 126878 356.199
112.365 128166 358.003
112.482 138608 372.301
112.599 144226 379.771
112.716 152178 390.1
112.832 153446 391.722
112.949 152450 390.448
113.066 151913 389.76
113.183 147963 384.66
113.3 140564 374.919
113.417 132148 363.522
113.534 123850 351.923
113.652 117440 342.695
113.769 113116 336.327
113.886 112227 335.003
114.003 117627 342.968
114.12 124478 352.814
114.238 128500 358.469
114.355 131829 363.083
114.472 135933 368.691
114.589 133237 365.016
114.707 136115 368.938
114.824 135449 368.034
114.942 134889 367.272
115.059 134105 366.203
115.176 131391 362.479
115.294 128316 358.212
115.411 123786 351.832
115.529 117876 343.331
115.646 110105 331.821
115.764 101363 318.376
115.881 99739 315.815
115.999 103442 321.624
116.116 110572 332.524
116.234 115522 339.885
116.351 116246 340.949
116.469 115822 340.326
116.586 115284 339.535
116.704 113625 337.083
116.821 110789 332.85
116.939 104453 323.192
117.056 99093 314.79
117.174 93310 305.467
117.291 90345 300.574
117.409 87754 296.233
117.526 90351 300.584
117.644 95422 308.905
117.761 99909 316.084
117.879 104116 322.67
117.996 105342 324.564
118.114 107723 328.212
118.231 110480 332.385
118.349 109972 331.62
118.466 111177 333.432
118.584 113357 336.685
118.701 113225 336.489
118.819 111242 333.53
118.936 109397 330.752
119.053 107381 327.69
119.171 103304 321.409
119.288 98379 313.654
119.405 93027 305.003
119.523 94436 307.304
119.64 99393 315.267
119.757 105784 325.245
119.875 111465 333.864
119.992 114676 338.638
120.109 115259 339.498
120.226 116149 340.806
120.343 116314 341.048
120.46 114115 337.809
120.578 109730 331.255
120.695 104956 323.969
120.812 100632 317.225
120.929 98147 313.284
121.046 96128 310.045
121.163 96690 310.95
121.279 102348 319.919
121.396 108157 328.872
121.513 113550 336.972
121.63 117754 343.153
121.747 121268 348.236
121.863 123865 351.945
121.98 127075 356.476
122.097 128264 358.14
122.213 129407 359.732
122.33 131280 362.326
122.446 130593 361.377
122.563 130426 361.145
122.679 129460 359.806
122.795 126268 355.342
122.912 123239 351.054
123.028 116231 340.927
123.144 111214 333.488
123.26 111274 333.578
123.377 0 1
123.493 0 1
123.609 0 1
123.725 0 1
123.84 0 1
123.956 0 1
124.072 0 1
124.188 0 1
124.303 0 1
124.419 0 1
126.852 0 1
126.968 0 1
127.083 0 1
127.199 0 1
127.315 0 1
127.431 0 1
127.547 0 1
127.663 0 1
127.779 0 1
127.895 0 1
128.011 0 1
128.127 0 1
128.243 0 1
128.359 132472 363.967
128.476 130410 361.123
128.592 134501 366.744
128.708 142806 377.897
128.825 151520 389.256
128.941 154979 393.674
129.058 155892 394.832
129.174 156317 395.369
129.291 154997 393.697
129.408 152606 390.648
129.524 145570 381.536
129.641 137826 371.249
129.758 132149 363.523
129.875 126677 355.917
129.992 121781 348.971
130.108 121743 348.917
130.225 124844 353.333
130.342 129259 359.526
130.459 133451 365.309
130.576 134142 366.254
130.693 136605 369.601
130.81 139219 373.121
130.928 139509 373.509
131.045 141306 375.907
131.162 142116 376.983
131.279 142948 378.085
131.396 141358 375.976
131.513 139579 373.603
131.631 135629 368.278
131.748 130838 361.715
131.865 123709 351.723
131.983 118491 344.225
132.1 119388 345.526
132.217 126178 355.215
132.335 132982 364.667
132.452 135129 367.599
132.57 135831 368.553
132.687 131918 363.205
132.804 138313 371.905
132.922 130689 361.509
133.039 125540 354.316
133.157 119894 346.257
133.274 114222 337.967
133.392 110094 331.804
133.509 105289 324.483
133.627 103702 322.028
133.744 105017 324.063
133.862 108288 329.071
133.979 110422 332.298
134.097 112238 335.019
134.214 114431 338.277
134.332 112393 335.251
134.449 114752 338.751
134.567 113880 337.461
134.684 114442 338.293
134.802 114510 338.393
134.919 113936 337.544
135.037 111341 333.678
135.154 108032 328.682
135.272 104222 322.834
135.389 100152 316.468
135.507 94458 307.34
135.624 93267 305.396
135.742 95875 309.637
135.859 100213 316.564
135.977 102840 320.687
136.094 102966 320.883
136.211 102576 320.275
136.329 101653 318.831
136.446 100436 316.916
136.564 97261 311.867
136.681 92618 304.332
136.798 89865 299.775
136.915 86798 294.615
137.033 82803 287.755
137.15 81080 284.746
137.267 80561 283.833
137.384 82308 286.894
137.502 84963 291.484
137.619 87009 294.973
137.736 90060 300.1
137.853 89680 299.466
137.97 91718 302.85
138.087 94920 308.091
138.204 96338 310.384
138.321 98055 313.137
138.438 99270 315.071
138.555 101367 318.382
138.672 101928 319.262
138.788 100026 316.269
138.905 98838 314.385
139.022 95613 309.214
139.139 93249 305.367
139.255 94443 307.316
139.372 99522 315.471
139.488 106375 326.152
139.605 111019 333.195
139.721 112420 335.291
139.838 114284 338.059
139.954 115059 339.203
140.071 112766 335.806
140.187 114265 338.031
140.303 108976 330.115
140.419 106102 325.733
140.535 103630 321.916
140.652 99468 315.385
140.768 0 1
140.884 0 1
141 0 1
141.115 0 1
141.231 0 1
141.347 0 1
141.463 0 1
141.578 0 1
141.694 0 1
144.104 0 1
144.219 0 1
144.335 0 1
144.45 0 1
144.566 0 1
144.682 0 1
144.798 0 1
144.914 0 1
145.03 0 1
145.146 97568 312.359
145.262 97224 311.808
145.378 93777 306.23
145.494 91112 301.848
145.61 87541 295.873
145.726 84103 290.005
145.842 81974 286.311
145.959 80485 283.699
146.075 81306 285.142
146.192 82147 286.613
146.308 82293 286.868
146.425 84540 290.758
146.541 84009 289.843
146.658 83897 289.65
146.774 84645 290.938
146.891 84893 291.364
147.008 84630 290.912
147.125 85853 293.007
147.241 84572 290.813
147.358 84325 290.388
147.475 82004 286.363
147.592 79254 281.521
147.709 75813 275.342
147.826 73326 270.788
147.943 73252 270.651
148.06 75759 275.244
148.177 79042 281.144
148.294 80341 283.445
148.411 80509 283.741
148.528 79542 282.032
148.645 78512 280.2
148.762 77767 278.867
148.88 75206 274.237
148.997 75966 275.619
149.114 66616 258.101
149.231 67418 259.65
149.349 65647 256.217
149.466 65247 255.435
149.583 63221 251.438
149.701 63998 252.978
149.818 65146 255.237
149.935 66359 257.602
150.053 67572 259.946
150.17 68404 261.542
150.287 69635 263.884
150.405 70885 266.242
150.522 70879 266.231
150.64 72059 268.438
150.757 73088 270.348
150.875 73047 270.272
150.992 73063 270.302
151.11 73319 270.775
151.227 70371 265.275
151.344 68537 261.796
151.462 67062 258.963
151.579 68664 262.038
151.697 72545 269.342
151.814 75972 275.63
151.932 77529 278.44
152.049 78761 280.644
152.167 78778 280.674
152.284 79760 282.418
152.402 78603 280.362
152.519 76515 276.613
152.636 75297 274.403
152.754 73815 271.689
152.871 72456 269.177
152.989 70703 265.9
153.106 70668 265.835
153.223 69741 264.085
153.341 71642 267.66
153.458 73177 270.512
153.575 74654 273.229
153.693 75195 274.217
153.81 76430 276.46
153.927 78236 279.707
154.044 79822 282.528
154.162 81474 285.437
154.279 82967 288.04
154.396 84790 291.187
154.513 86289 293.75
154.63 88170 296.934
154.747 87615 295.998
154.864 86334 293.826
154.981 83632 289.192
155.098 83071 288.22
155.215 85095 291.71
155.332 88495 297.481
155.449 92146 303.556
155.566 93618 305.971
155.683 94775 307.855
155.8 95228 308.59
155.917 95802 309.519
156.033 94840 307.961
156.15 0 1
156.267 0 1
156.383 0 1
156.5 0 1
156.617 0 1
156.733 0 1
156.85 0 1
156.966 0 1
157.082 0 1
157.199 0 1
157.315 0 1
157.431 0 1
157.547 0 1
157.664 0 1
157.78 0 1
157.896 0 1
158.012 0 1
158.128 0 1
158.244 0 1
158.359 0 1
158.475 0 1
158.591 0 1
158.706 0 1
