
6.15755 0 1
6.2731 0 1
6.3887 0 1
6.50437 0 1
6.62009 0 1
6.73587 0 1
6.8517 0 1
6.96759 0 1
7.08353 0 1
7.19952 0 1
7.31557 0 1
7.43166 0 1
7.54781 0 1
7.664 0 1
7.78024 0 1
7.89653 0 1
8.01286 0 1
8.12924 0 1
8.24567 0 1
8.36213 0 1
8.47864 0 1
8.59519 0 1
8.71178 0 1
8.82841 0 1
8.94508 0 1
9.06179 0 1
9.17853 0 1
9.29531 0 1
9.41212 0 1
9.52897 0 1
9.64584 0 1
9.76276 0 1
9.8797 0 1
9.99667 0 1
10.1137 0 1
10.2307 0 1
10.3478 0 1
10.4648 0 1
10.5819 0 1
10.6991 0 1
10.8162 0 1
10.9334 0 1
11.0506 0 1
11.1678 0 1
11.285 0 1
11.4023 0 1
11.5196 0 1
11.6369 0 1
11.7542 0 1
11.8715 0 1
11.9888 0 1
12.1062 0 1
12.2235 0 1
12.3409 0 1
12.4582 0 1
12.5756 0 1
12.693 0 1
12.8104 0 1
12.9278 0 1
13.0452 0 1
13.1626 0 1
13.28 0 1
13.3974 0 1
13.5149 0 1
13.6323 0 1
13.7497 0 1
13.8671 0 1
13.9845 0 1
14.1019 0 1
14.2193 0 1
14.3367 0 1
14.4541 0 1
14.5714 0 1
14.6888 0 1
14.8062 0 1
14.9235 0 1
15.0408 0 0
15.1581 0 0
15.2755 0 0
15.3927 0 0
15.51 0 0
15.6273 0 0
15.7445 0 0
15.8617 0 0
15.9789 0 0
16.0961 0 0
16.2132 0 0
16.3304 0 0
16.4475 0 0
16.5646 0 0
16.6816 0 0
16.7986 0 0
16.9156 0 0
17.0326 0 0
17.1496 0 0
17.2665 0 0
17.3833 0 0
17.5002 0 0
17.617 0 0
17.7338 0 0
17.8505 0 0
17.9672 0 0
18.0839 0 0
18.2005 0 0
18.3171 0 0
18.4337 0 0
18.5502 0 0
18.6666 0 0
18.7831 0 0
18.8994 0 0
19.0158 0 0
19.1321 0 0
19.2483 0 0
19.3645 0 0
19.4806 0 0
19.5967 0 0
19.7128 0 0
19.8288 0 0
19.9447 0 0
20.0606 0 1
20.1764 0 1
20.2922 0 1
20.4079 0 1
20.5236 0 1
20.6392 0 1
20.7548 0 1
20.8702 0 1
23.3078 0 1
23.4233 0 1
23.539 0 1
23.6547 0 1
23.7704 0 1
23.8862 0 1
24.0021 0 1
24.118 0 1
24.234 0 1
24.35 0 1
24.4661 1410 37.55
24.5822 1373 37.054
24.6984 1396 37.3631
24.8146 1310 36.1939
24.9309 1324 36.3868
25.0472 1327 36.428
25.1636 1311 36.2077
25.28 1331 36.4829
25.3965 1388 37.2559
25.513 1525 39.0512
25.6296 1509 38.8458
25.7462 1588 39.8497
25.8628 1549 39.3573
25.9795 1543 39.281
26.0962 1563 39.5348
26.213 1507 38.8201
26.3298 1482 38.4968
26.4466 1453 38.1182
26.5635 1410 37.55
26.6804 1397 37.3765
26.7973 1358 36.8511
26.9143 1334 36.524
27.0313 1414 37.6032
27.1483 1494 38.6523
27.2653 1505 38.7943
27.3824 1578 39.724
27.4996 1452 38.1051
27.6167 1446 38.0263
27.7339 1505 38.7943
27.8511 1442 37.9737
27.9683 1426 37.7624
28.0855 1457 38.1707
28.2028 1411 37.5633
28.3201 1262 35.5246
28.4374 1296 36
28.5547 1236 35.1568
28.6721 1258 35.4683
28.7894 1317 36.2905
28.9068 1312 36.2215
29.0242 1449 38.0657
29.1416 1475 38.4057
29.259 1454 38.1314
29.3764 1542 39.2683
29.4939 1467 38.3014
29.6113 1434 37.8682
29.7288 1433 37.855
29.8463 1418 37.6563
29.9638 1352 36.7696
30.0812 1307 36.1525
30.1987 1295 35.9861
30.3162 1318 36.3043
30.4337 1273 35.6791
30.5512 1345 36.6742
30.6687 1443 37.9868
30.7862 1458 38.1838
30.9037 1425 37.7492
31.0212 1486 38.5487
31.1387 1502 38.7556
31.2562 1425 37.7492
31.3737 1438 37.921
31.4912 1432 37.8418
31.6087 1335 36.5377
31.7262 1365 36.9459
31.8436 1317 36.2905
31.9611 1238 35.1852
32.0785 1285 35.8469
32.1959 1123 33.5112
32.3134 1214 34.8425
32.4308 1353 36.7831
32.5482 1425 37.7492
32.6655 1391 37.2961
32.7829 1434 37.8682
32.9002 1506 38.8072
33.0176 1464 38.2623
33.1349 1421 37.6962
33.2522 1430 37.8153
33.3694 1447 38.0395
33.4867 1379 37.1349
33.6039 1374 37.0675
33.7211 1309 36.1801
33.8383 1317 36.2905
33.9554 1275 35.7071
34.0725 1344 36.6606
34.1896 1355 36.8103
34.3067 1415 37.6165
34.4237 1468 38.3145
34.5407 1430 37.8153
34.6577 1440 37.9473
34.7746 1466 38.2884
34.8915 1535 39.1791
35.0084 1419 37.6696
35.1252 1427 37.7757
35.242 1466 38.2884
35.3587 1363 36.9188
35.4755 1368 36.9865
35.5921 1266 35.5809
35.7088 1196 34.5832
35.8254 1208 34.7563
35.9419 1175 34.2783
36.0584 1258 35.4683
36.1749 1302 36.0832
36.2913 1352 36.7696
36.4077 1392 37.3095
36.524 1474 38.3927
36.6403 1415 37.6165
36.7565 1503 38.7685
36.8727 1498 38.704
36.9889 1431 37.8286
37.1049 1434 37.8682
37.221 0 1
37.3369 0 1
37.4529 0 1
37.5687 0 1
37.6845 0 1
37.8003 0 1
37.916 0 1
38.0316 0 1
38.1472 0 1
40.5851 0 1
40.7008 0 1
40.8164 0 1
40.9322 0 1
41.048 0 1
41.1639 0 1
41.2798 0 1
41.3958 0 1
41.5118 0 1
41.6279 0 1
41.744 1188 34.4674
41.8602 1177 34.3074
41.9765 1136 33.7046
42.0928 1162 34.0881
42.2091 1146 33.8526
42.3255 1256 35.4401
42.4419 1175 34.2783
42.5584 1067 32.665
42.675 1026 32.0312
42.7915 1076 32.8024
42.9081 1106 33.2566
43.0248 1175 34.2783
43.1415 1163 34.1028
43.2582 1236 35.1568
43.375 1249 35.3412
43.4918 1248 35.327
43.6087 1252 35.3836
43.7256 1173 34.2491
43.8425 1123 33.5112
43.9595 1181 34.3657
44.0765 1101 33.1813
44.1935 1077 32.8177
44.3106 1031 32.1092
44.4277 980 31.305
44.5448 840 28.9828
44.6619 920 30.3315
44.7791 845 29.0689
44.8963 917 30.282
45.0136 905 30.0832
45.1308 1039 32.2335
45.2481 1074 32.7719
45.3654 1056 32.4962
45.4827 1006 31.7175
45.6001 998 31.5911
45.7174 1056 32.4962
45.8348 1003 31.6702
45.9522 975 31.225
46.0697 911 30.1828
46.1871 871 29.5127
46.3046 843 29.0345
46.422 887 29.7825
46.5395 872 29.5296
46.657 946 30.7571
46.7745 919 30.315
46.892 972 31.1769
47.0096 911 30.1828
47.1271 940 30.6594
47.2446 989 31.4484
47.3622 879 29.6479
47.4797 927 30.4467
47.5973 910 30.1662
47.7149 798 28.2489
47.8324 797 28.2312
47.95 848 29.1204
48.0675 707 26.5895
48.1851 681 26.096
48.3027 705 26.5518
48.4202 713 26.7021
48.5378 787 28.0535
48.6554 771 27.7669
48.7729 817 28.5832
48.8904 820 28.6356
49.008 841 29
49.1255 863 29.3769
49.243 927 30.4467
49.3605 803 28.3373
49.478 845 29.0689
49.5955 778 27.8927
49.713 769 27.7308
49.8304 781 27.9464
49.9479 808 28.4253
50.0653 838 28.9482
50.1827 924 30.3974
50.3001 973 31.1929
50.4175 967 31.0966
50.5348 981 31.3209
50.6521 1055 32.4808
50.7694 1046 32.3419
50.8867 1062 32.5883
51.004 1083 32.909
51.1212 1029 32.078
51.2384 997 31.5753
51.3556 1082 32.8938
51.4727 1014 31.8434
51.5899 917 30.282
51.707 949 30.8058
51.824 921 30.348
51.9411 1008 31.749
52.0581 1061 32.573
52.175 1124 33.5261
52.2919 1238 35.1852
52.4088 1220 34.9285
52.5257 1224 34.9857
52.6425 1262 35.5246
52.7593 1188 34.4674
52.876 1396 37.3631
52.9927 1334 36.524
53.1094 1281 35.7911
53.226 1159 34.0441
53.3426 1166 34.1467
53.4591 1149 33.8969
53.5756 1217 34.8855
53.692 1359 36.8646
53.8084 1327 36.428
53.9248 1397 37.3765
54.0411 1377 37.108
54.1573 1414 37.6032
54.2735 0 1
54.3896 0 1
54.5057 0 1
54.6217 0 1
54.7377 0 1
54.8537 0 1
54.9695 0 1
55.0853 0 1
55.2011 0 1
55.3168 0 1
55.4324 0 1
57.824 0 1
57.9396 0 1
58.0553 0 1
58.1711 0 1
58.2869 0 1
58.4028 0 1
58.5187 0 1
58.6347 0 1
58.7508 0 1
58.8669 0 1
58.983 1729 41.5812
59.0992 1840 42.8952
59.2155 1895 43.5316
59.3318 1817 42.6263
59.4482 1809 42.5323
59.5646 1844 42.9418
59.681 1907 43.6692
59.7975 1793 42.3438
59.9141 1700 41.2311
60.0306 1705 41.2916
60.1473 1555 39.4335
60.2639 1432 37.8418
60.3807 1371 37.027
60.4974 1417 37.6431
60.6142 1457 38.1707
60.731 1479 38.4578
60.8479 1684 41.0366
60.9648 1695 41.1704
61.0818 1758 41.9285
61.1987 1634 40.4228
61.3158 1789 42.2966
61.4328 1742 41.7373
61.5499 1682 41.0122
61.667 1641 40.5093
61.7841 1607 40.0874
61.9013 1532 39.1408
62.0185 1589 39.8623
62.1357 1618 40.2244
62.253 1652 40.6448
62.3702 1708 41.328
62.4875 1818 42.638
62.6049 1809 42.5323
62.7222 1771 42.0833
62.8396 1821 42.6732
62.9569 1800 42.4264
63.0743 1833 42.8135
63.1918 1744 41.7612
63.3092 1811 42.5558
63.4267 1684 41.0366
63.5441 1683 41.0244
63.6616 1508 38.833
63.7791 1409 37.5366
63.8966 1296 36
64.0142 1382 37.1753
64.1317 1423 37.7227
64.2492 1500 38.7298
64.3668 1626 40.3237
64.4843 1764 42
64.6019 1665 40.8044
64.7195 1769 42.0595
64.837 1814 42.5911
64.9546 1751 41.845
65.0722 1708 41.328
65.1898 1764 42
65.3074 1696 41.1825
65.4249 1563 39.5348
65.5425 1597 39.9625
65.6601 1562 39.5221
65.7777 1663 40.7799
65.8952 1747 41.7971
66.0128 1771 42.0833
66.1304 1754 41.8808
66.2479 1789 42.2966
66.3655 1863 43.1625
66.483 1882 43.382
66.6005 1832 42.8019
66.718 1914 43.7493
66.8355 1777 42.1545
66.953 1851 43.0232
67.0705 1752 41.8569
67.1879 1649 40.6079
67.3054 1532 39.1408
67.4228 1404 37.47
67.5402 1365 36.9459
67.6576 1350 36.7423
67.7749 1452 38.1051
67.8923 1653 40.6571
68.0096 1756 41.9047
68.1269 1805 42.4853
68.2442 1843 42.9302
68.3614 1871 43.2551
68.4787 1932 43.9545
68.5958 1933 43.9659
68.713 1969 44.3734
68.8302 1922 43.8406
68.9473 1835 42.8369
69.0643 1703 41.2674
69.1814 1703 41.2674
69.2984 1785 42.2493
69.4154 1818 42.638
69.5323 1940 44.0454
69.6492 1952 44.1814
69.7661 2110 45.9347
69.8829 2072 45.5192
69.9997 2094 45.7602
70.1165 2144 46.3033
70.2332 2195 46.8508
70.3499 2140 46.2601
70.4665 2135 46.2061
70.5831 2112 45.9565
70.6996 2012 44.8553
70.8161 1937 44.0114
70.9326 1821 42.6732
71.049 1783 42.2256
71.1653 1453 38.1182
71.2817 1501 38.7427
71.3979 1493 38.6394
71.5141 1645 40.5586
71.6303 1693 41.1461
71.7464 1777 42.1545
71.8624 0 1
71.9784 0 1
72.0944 0 1
72.2102 0 1
72.3261 0 1
72.4418 0 1
72.5575 0 1
72.6732 0 1
75.1054 0 1
75.2209 0 1
75.3365 0 1
75.4521 0 1
75.5678 0 1
75.6835 0 1
75.7993 0 1
75.9151 0 1
76.031 0 1
76.147 1936 44
76.263 2089 45.7056
76.3791 1846 42.9651
76.4952 1724 41.5211
76.6113 1623 40.2865
76.7276 1717 41.4367
76.8438 1836 42.8486
76.9601 2097 45.793
77.0765 2375 48.734
77.1929 2474 49.7393
77.3093 2432 49.3153
77.4258 2428 49.2747
77.5423 2386 48.8467
77.6589 2482 49.8197
77.7755 2437 49.366
77.8921 2429 49.2849
78.0088 2367 48.6518
78.1256 2280 47.7493
78.2423 2079 45.5961
78.3591 2197 46.8722
78.4759 2199 46.8935
78.5928 2385 48.8365
78.7097 2476 49.7594
78.8266 2630 51.2835
78.9436 2419 49.1833
79.0606 2680 51.7687
79.1776 2662 51.5946
79.2946 2599 50.9804
79.4117 2600 50.9902
79.5288 2645 51.4296
79.6459 2608 51.0686
79.7631 2504 50.04
79.8802 2433 49.3254
79.9974 2154 46.4112
80.1147 1903 43.6234
80.2319 1834 42.8252
80.3491 1875 43.3013
80.4664 2113 45.9674
80.5837 2270 47.6445
80.701 2511 50.1099
80.8183 2636 51.342
80.9357 2661 51.5849
81.053 2762 52.5547
81.1704 2627 51.2543
81.2877 2661 51.5849
81.4051 2634 51.3225
81.5225 2707 52.0288
81.6399 2477 49.7695
81.7573 2435 49.3457
81.8747 2348 48.4562
81.9922 2251 47.4447
82.1096 2375 48.734
82.227 2407 49.0612
82.3444 2518 50.1797
82.4619 2804 52.9528
82.5793 2691 51.8748
82.6967 2829 53.1883
82.8142 2803 52.9434
82.9316 2818 53.0848
83.049 2789 52.811
83.1664 2688 51.8459
83.2838 2734 52.2877
83.4012 2635 51.3323
83.5186 2521 50.2096
83.636 2355 48.5283
83.7534 2076 45.5631
83.8708 1935 43.9886
83.9881 1916 43.7721
84.1055 2059 45.3762
84.2228 2260 47.5395
84.3401 2621 51.1957
84.4575 2778 52.7067
84.5747 2930 54.1295
84.692 2914 53.9815
84.8093 2971 54.5069
84.9265 2927 54.1018
85.0437 3000 54.7723
85.1609 2877 53.6377
85.2781 2749 52.4309
85.3952 2704 52
85.5123 2672 51.6914
85.6294 2707 52.0288
85.7465 2763 52.5642
85.8636 2977 54.5619
85.9806 3161 56.2228
86.0976 3065 55.3624
86.2145 3338 57.7754
86.3315 3316 57.5847
86.4484 3587 59.8916
86.5652 3564 59.6992
86.682 3540 59.4979
86.7988 3436 58.6174
86.9156 3433 58.5918
87.0323 3276 57.2364
87.149 3135 55.9911
87.2657 2808 52.9906
87.3823 2616 51.1468
87.4988 2588 50.8724
87.6154 2766 52.5928
87.7318 2933 54.1572
87.8483 3385 58.1808
87.9647 3573 59.7746
88.081 3739 61.1474
88.1973 3874 62.2415
88.3136 3985 63.1269
88.4298 4015 63.364
88.546 3964 62.9603
88.6621 4055 63.6789
88.7781 3867 62.1852
88.8942 0 1
89.0101 0 1
89.126 0 1
89.2419 0 1
89.3577 0 1
89.4734 0 1
89.5891 0 1
89.7047 0 1
89.8203 0 1
89.9358 0 1
92.3269 0 1
92.4424 0 1
92.558 0 1
92.6736 0 1
92.7893 0 1
92.905 0 1
93.0208 0 1
93.1366 0 1
93.2525 0 1
93.3685 0 1
93.4845 0 1
93.6005 4384 66.2118
93.7167 4445 66.6708
93.8328 4706 68.6003
93.949 4503 67.1044
94.0653 4381 66.1891
94.1816 4491 67.0149
94.2979 4371 66.1135
94.4143 4168 64.56
94.5307 4210 64.8845
94.6472 4068 63.7809
94.7637 4073 63.8201
94.8803 4086 63.9218
94.9969 4386 66.2269
95.1135 4459 66.7757
95.2302 4680 68.4105
95.3469 4647 68.1689
95.4637 4861 69.7209
95.5805 5042 71.007
95.6973 5085 71.3092
95.8142 5194 72.0694
95.9311 5047 71.0422
96.048 4914 70.0999
96.1649 4753 68.942
96.2819 4557 67.5056
96.3989 4222 64.9769
96.516 3844 62
96.633 3601 60.0083
96.7501 3465 58.8643
96.8673 3758 61.3025
96.9844 4143 64.3661
97.1016 4600 67.8233
97.2188 4997 70.6895
97.336 5267 72.5741
97.4532 5218 72.2357
97.5704 5342 73.089
97.6877 5378 73.3348
97.805 5369 73.2735
97.9223 5056 71.1056
98.0396 4994 70.6682
98.1569 4819 69.419
98.2743 4835 69.5342
98.3916 4700 68.5565
98.509 4734 68.8041
98.6264 5030 70.9225
98.7438 5149 71.7565
98.8612 5243 72.4086
98.9786 5342 73.089
99.096 5511 74.2361
99.2134 5688 75.4188
99.3308 5668 75.2861
99.4482 5755 75.8617
99.5656 5743 75.7826
99.6831 5420 73.6206
99.8005 5400 73.4847
99.9179 5167 71.8818
100.035 4862 69.728
100.153 4376 66.1513
100.27 4068 63.7809
100.388 4215 64.923
100.505 4588 67.7348
100.622 5113 71.5052
100.74 5750 75.8288
100.857 5890 76.7463
100.975 5859 76.5441
101.092 5729 75.6902
101.209 6013 77.5435
101.327 5992 77.408
101.444 5816 76.2627
101.561 5800 76.1577
101.679 5638 75.0866
101.796 5273 72.6154
101.913 5339 73.0685
102.03 5306 72.8423
102.148 5416 73.5935
102.265 5882 76.6942
102.382 5464 73.9189
102.499 6019 77.5822
102.616 6321 79.5047
102.733 6433 80.206
102.851 6262 79.1328
102.968 6527 80.7899
103.085 6539 80.8641
103.202 6367 79.7935
103.319 6011 77.5306
103.436 5686 75.4056
103.552 5336 73.0479
103.669 5027 70.9013
103.786 4559 67.5204
103.903 4637 68.0955
104.02 5004 70.739
104.137 5820 76.2889
104.253 6450 80.3119
104.37 6394 79.9625
104.487 6827 82.6257
104.603 6844 82.7285
104.72 6796 82.4379
104.836 6727 82.0183
104.953 6751 82.1645
105.069 6516 80.7217
105.186 6344 79.6492
105.302 6043 77.7367
105.418 5942 77.0844
105.535 5999 77.4532
105.651 6248 79.0443
105.767 6342 79.6367
105.883 6641 81.4923
105.999 6718 81.9634
106.115 0 1
106.231 0 1
106.347 0 1
106.463 0 1
106.579 0 1
106.694 0 1
106.81 0 1
106.926 0 1
107.041 0 1
107.157 0 1
109.576 0 1
109.692 0 1
109.807 0 1
109.923 0 1
110.039 0 1
110.155 0 1
110.27 0 1
110.386 0 1
110.502 0 1
110.618 5533 74.3841
110.735 5857 76.531
110.851 5964 77.2269
110.967 6220 78.867
111.083 6310 79.4355
111.199 6373 79.8311
111.316 6505 80.6536
111.432 6545 80.9012
111.549 6501 80.6288
111.665 6207 78.7845
111.782 6021 77.5951
111.898 5664 75.2596
112.015 5265 72.5603
112.132 4879 69.8498
112.248 4482 66.9477
112.365 4248 65.1767
112.482 4572 67.6166
112.599 4892 69.9428
112.716 5575 74.6659
112.832 5762 75.9078
112.949 5807 76.2037
113.066 5880 76.6812
113.183 5839 76.4133
113.3 5813 76.243
113.417 5780 76.0263
113.534 5593 74.7864
113.652 5382 73.3621
113.769 5120 71.5542
113.886 5001 70.7177
114.003 4918 70.1285
114.12 4879 69.8498
114.238 4930 70.214
114.355 5060 71.1337
114.472 5202 72.1249
114.589 5096 71.3863
114.707 5182 71.9861
114.824 5442 73.7699
114.942 5198 72.0972
115.059 5437 73.736
115.176 5352 73.1574
115.294 5382 73.3621
115.411 5006 70.7531
115.529 4848 69.6276
115.646 4542 67.3944
115.764 4056 63.6867
115.881 3744 61.1882
115.999 3868 62.1932
116.116 4321 65.7343
116.234 4646 68.1616
116.351 5131 71.631
116.469 5222 72.2634
116.586 5221 72.2565
116.704 5374 73.3076
116.821 5230 72.3187
116.939 5390 73.4166
117.056 5337 73.0548
117.174 5132 71.638
117.291 5014 70.8096
117.409 4879 69.8498
117.526 4733 68.7968
117.644 4685 68.4471
117.761 4682 68.4251
117.879 4945 70.3207
117.996 4895 69.9643
118.114 5102 71.4283
118.231 5300 72.8011
118.349 5078 71.2601
118.466 5217 72.2288
118.584 5254 72.4845
118.701 5473 73.9797
118.819 5320 72.9383
118.936 5147 71.7426
119.053 4915 70.1071
119.171 4908 70.0571
119.288 4447 66.6858
119.405 3957 62.9047
119.523 3732 61.0901
119.64 3795 61.6036
119.757 4136 64.3117
119.875 4428 66.5432
119.992 4696 68.5274
120.109 4896 69.9714
120.226 5176 71.9444
120.343 5147 71.7426
120.46 4995 70.6753
120.578 4959 70.4202
120.695 4859 69.7065
120.812 4970 70.4982
120.929 4693 68.5055
121.046 4819 69.419
121.163 4627 68.0221
121.279 4405 66.3702
121.396 4515 67.1937
121.513 4619 67.9632
121.63 4702 68.5711
121.747 4668 68.3228
121.863 4712 68.644
121.98 4791 69.217
122.097 4904 70.0286
122.213 4897 69.9786
122.33 4941 70.2922
122.446 4871 69.7925
122.563 4777 69.1158
122.679 4677 68.3886
122.795 4600 67.8233
122.912 4421 66.4906
123.028 4058 63.7024
123.144 3718 60.9754
123.26 3582 59.8498
123.377 0 1
123.493 0 1
123.609 0 1
123.725 0 1
123.84 0 1
123.956 0 1
124.072 0 1
124.188 0 1
124.303 0 1
124.419 0 1
126.852 0 1
126.968 0 1
127.083 0 1
127.199 0 1
127.315 0 1
127.431 0 1
127.547 0 1
127.663 0 1
127.779 0 1
127.895 0 1
128.011 0 1
128.127 0 1
128.243 0 1
128.359 4030 63.4823
128.476 3636 60.2993
128.592 3924 62.6418
128.708 4049 63.6318
128.825 4604 67.8528
128.941 4944 70.3136
129.058 5211 72.1873
129.174 5192 72.0555
129.291 5180 71.9722
129.408 5129 71.617
129.524 5098 71.4003
129.641 5118 71.5402
129.758 5171 71.9097
129.875 4976 70.5408
129.992 4582 67.6905
130.108 4584 67.7052
130.225 4610 67.897
130.342 4711 68.6367
130.459 4596 67.7938
130.576 4959 70.4202
130.693 4845 69.606
130.81 4766 69.0362
130.928 4978 70.5549
131.045 4831 69.5054
131.162 4784 69.1665
131.279 4910 70.0714
131.396 4817 69.4046
131.513 4765 69.029
131.631 4608 67.8823
131.748 4492 67.0224
131.865 4125 64.2262
131.983 3802 61.6604
132.1 3650 60.4152
132.217 3650 60.4152
132.335 4178 64.6375
132.452 4530 67.3053
132.57 4774 69.0941
132.687 4803 69.3037
132.804 4949 70.3491
132.922 4920 70.1427
133.039 4852 69.6563
133.157 4792 69.2243
133.274 4648 68.1762
133.392 4607 67.8749
133.509 4476 66.9029
133.627 4444 66.6633
133.744 4249 65.1844
133.862 4267 65.3223
133.979 4454 66.7383
134.097 4418 66.468
134.214 4562 67.5426
134.332 4556 67.4981
134.449 4589 67.7422
134.567 4517 67.2086
134.684 4646 68.1616
134.802 4575 67.6387
134.919 4638 68.1029
135.037 4562 67.5426
135.154 4507 67.1342
135.272 4336 65.8483
135.389 4144 64.3739
135.507 3762 61.3351
135.624 3530 59.4138
135.742 3570 59.7495
135.859 3737 61.131
135.977 4071 63.8044
136.094 4444 66.6633
136.211 4522 67.2458
136.329 4524 67.2607
136.446 4613 67.9191
136.564 4650 68.1909
136.681 4713 68.6513
136.798 4496 67.0522
136.915 4538 67.3647
137.033 4524 67.2607
137.15 4313 65.6734
137.267 4339 65.8711
137.384 4160 64.4981
137.502 4174 64.6065
137.619 4116 64.1561
137.736 4391 66.2646
137.853 4254 65.2227
137.97 4236 65.0846
138.087 4388 66.242
138.204 4267 65.3223
138.321 4340 65.8787
138.438 4331 65.8103
138.555 4447 66.6858
138.672 4366 66.0757
138.788 4380 66.1816
138.905 4344 65.909
139.022 4042 63.5767
139.139 3830 61.887
139.255 3460 58.8218
139.372 3398 58.2924
139.488 3593 59.9416
139.605 3857 62.1048
139.721 4220 64.9615
139.838 4496 67.0522
139.954 4454 66.7383
140.071 4303 65.5973
140.187 4540 67.3795
140.303 4307 65.6277
140.419 4443 66.6558
140.535 4336 65.8483
140.652 4226 65.0077
140.768 0 1
140.884 0 1
141 0 1
141.115 0 1
141.231 0 1
141.347 0 1
141.463 0 1
141.578 0 1
141.694 0 1
144.104 0 1
144.219 0 1
144.335 0 1
144.45 0 1
144.566 0 1
144.682 0 1
144.798 0 1
144.914 0 1
145.03 0 1
145.146 3651 60.4235
145.262 3830 61.887
145.378 3770 61.4003
145.494 3777 61.4573
145.61 3702 60.8441
145.726 3686 60.7124
145.842 3560 59.6657
145.959 3329 57.6975
146.075 3340 57.7927
146.192 3479 58.983
146.308 3569 59.7411
146.425 3468 58.8897
146.541 3453 58.7622
146.658 3353 57.9051
146.774 3431 58.5747
146.891 3506 59.2115
147.008 3542 59.5147
147.125 3533 59.439
147.241 3584 59.8665
147.358 3496 59.127
147.475 3509 59.2368
147.592 3281 57.28
147.709 3011 54.8726
147.826 2771 52.6403
147.943 2671 51.6817
148.06 2869 53.563
148.177 3060 55.3173
148.294 3292 57.376
148.411 3454 58.7707
148.528 3429 58.5577
148.645 3428 58.5491
148.762 3527 59.3886
148.88 3509 59.2368
148.997 3345 57.836
149.114 3437 58.6259
149.231 3288 57.3411
149.349 3373 58.0775
149.466 3117 55.8301
149.583 3193 56.5066
149.701 3127 55.9196
149.818 3147 56.0981
149.935 3124 55.8928
150.053 3167 56.2761
150.17 3161 56.2228
150.287 3235 56.8771
150.405 3123 55.8838
150.522 3209 56.648
150.64 3224 56.7803
150.757 3227 56.8067
150.875 3297 57.4195
150.992 3143 56.0625
151.11 3105 55.7225
151.227 3028 55.0273
151.344 2763 52.5642
151.462 2566 50.6557
151.579 2633 51.3128
151.697 2686 51.8266
151.814 2940 54.2218
151.932 3079 55.4887
152.049 3239 56.9122
152.167 3322 57.6368
152.284 3332 57.7235
152.402 3304 57.4804
152.519 3300 57.4456
152.636 3330 57.7062
152.754 3358 57.9483
152.871 3274 57.2189
152.989 3157 56.1872
153.106 3151 56.1338
153.223 3135 55.9911
153.341 2932 54.1479
153.458 2943 54.2494
153.575 3072 55.4256
153.693 3044 55.1725
153.81 3109 55.7584
153.927 3062 55.3353
154.044 3205 56.6127
154.162 3177 56.3649
154.279 3307 57.5065
154.396 3311 57.5413
154.513 3292 57.376
154.63 3314 57.5674
154.747 3189 56.4712
154.864 3164 56.2494
154.981 2959 54.3967
155.098 2707 52.0288
155.215 2747 52.4118
155.332 2858 53.4603
155.449 3014 54.8999
155.566 3076 55.4617
155.683 3352 57.8965
155.8 3247 56.9825
155.917 3289 57.3498
156.033 3419 58.4722
156.15 0 1
156.267 0 1
156.383 0 1
156.5 0 1
156.617 0 1
156.733 0 1
156.85 0 1
156.966 0 1
157.082 0 1
157.199 0 1
157.315 0 1
157.431 0 1
157.547 0 1
157.664 0 1
157.78 0 1
157.896 0 1
158.012 0 1
158.128 0 1
158.244 0 1
158.359 0 1
158.475 0 1
158.591 0 1
158.706 0 1
