
6.15755 0 1
6.2731 0 1
6.3887 0 1
6.50437 0 1
6.62009 0 1
6.73587 0 1
6.8517 0 1
6.96759 0 1
7.08353 0 1
7.19952 0 1
7.31557 0 1
7.43166 0 1
7.54781 0 1
7.664 0 1
7.78024 0 1
7.89653 0 1
8.01286 0 1
8.12924 0 1
8.24567 0 1
8.36213 0 1
8.47864 0 1
8.59519 0 1
8.71178 0 1
8.82841 0 1
8.94508 0 1
9.06179 0 1
9.17853 0 1
9.29531 0 1
9.41212 0 1
9.52897 0 1
9.64584 0 1
9.76276 0 1
9.8797 0 1
9.99667 0 1
10.1137 0 1
10.2307 0 1
10.3478 0 1
10.4648 0 1
10.5819 0 1
10.6991 0 1
10.8162 0 1
10.9334 0 1
11.0506 0 1
11.1678 0 1
11.285 0 1
11.4023 0 1
11.5196 0 1
11.6369 0 1
11.7542 0 1
11.8715 0 1
11.9888 0 1
12.1062 0 1
12.2235 0 1
12.3409 0 1
12.4582 0 1
12.5756 0 1
12.693 0 1
12.8104 0 1
12.9278 0 1
13.0452 0 1
13.1626 0 1
13.28 0 1
13.3974 0 1
13.5149 0 1
13.6323 0 1
13.7497 0 1
13.8671 0 1
13.9845 0 1
14.1019 0 1
14.2193 0 1
14.3367 0 1
14.4541 0 1
14.5714 0 1
14.6888 0 1
14.8062 0 1
14.9235 0 1
15.0408 0 0
15.1581 0 0
15.2755 0 0
15.3927 0 0
15.51 0 0
15.6273 0 0
15.7445 0 0
15.8617 0 0
15.9789 0 0
16.0961 0 0
16.2132 0 0
16.3304 0 0
16.4475 0 0
16.5646 0 0
16.6816 0 0
16.7986 0 0
16.9156 0 0
17.0326 0 0
17.1496 0 0
17.2665 0 0
17.3833 0 0
17.5002 0 0
17.617 0 0
17.7338 0 0
17.8505 0 0
17.9672 0 0
18.0839 0 0
18.2005 0 0
18.3171 0 0
18.4337 0 0
18.5502 0 0
18.6666 0 0
18.7831 0 0
18.8994 0 0
19.0158 0 0
19.1321 0 0
19.2483 0 0
19.3645 0 0
19.4806 0 0
19.5967 0 0
19.7128 0 0
19.8288 0 0
19.9447 0 0
20.0606 0 1
20.1764 0 1
20.2922 0 1
20.4079 0 1
20.5236 0 1
20.6392 0 1
20.7548 0 1
20.8702 0 1
23.3078 0 1
23.4233 0 1
23.539 0 1
23.6547 0 1
23.7704 0 1
23.8862 0 1
24.0021 0 1
24.118 0 1
24.234 0 1
24.35 0 1
24.4661 809 28.4429
24.5822 820 28.6356
24.6984 855 29.2404
24.8146 877 29.6142
24.9309 913 30.2159
25.0472 881 29.6816
25.1636 837 28.931
25.28 869 29.4788
25.3965 937 30.6105
25.513 983 31.3528
25.6296 989 31.4484
25.7462 1000 31.6228
25.8628 938 30.6268
25.9795 947 30.7734
26.0962 948 30.7896
26.213 933 30.545
26.3298 899 29.9833
26.4466 914 30.2324
26.5635 966 31.0805
26.6804 875 29.5804
26.7973 835 28.8964
26.9143 864 29.3939
27.0313 805 28.3725
27.1483 802 28.3196
27.2653 831 28.8271
27.3824 865 29.4109
27.4996 823 28.688
27.6167 812 28.4956
27.7339 819 28.6182
27.8511 775 27.8388
27.9683 800 28.2843
28.0855 829 28.7924
28.2028 793 28.1603
28.3201 802 28.3196
28.4374 815 28.5482
28.5547 869 29.4788
28.6721 872 29.5296
28.7894 907 30.1164
28.9068 870 29.4958
29.0242 913 30.2159
29.1416 908 30.133
29.259 819 28.6182
29.3764 898 29.9666
29.4939 849 29.1376
29.6113 874 29.5635
29.7288 875 29.5804
29.8463 923 30.3809
29.9638 884 29.7321
30.0812 881 29.6816
30.1987 880 29.6648
30.3162 809 28.4429
30.4337 776 27.8568
30.5512 712 26.6833
30.6687 715 26.7395
30.7862 802 28.3196
30.9037 800 28.2843
31.0212 790 28.1069
31.1387 801 28.3019
31.2562 762 27.6043
31.3737 769 27.7308
31.4912 750 27.3861
31.6087 745 27.2947
31.7262 792 28.1425
31.8436 770 27.7489
31.9611 791 28.1247
32.0785 800 28.2843
32.1959 787 28.0535
32.3134 822 28.6705
32.4308 854 29.2233
32.5482 861 29.3428
32.6655 850 29.1548
32.7829 858 29.2916
32.9002 875 29.5804
33.0176 875 29.5804
33.1349 886 29.7658
33.2522 843 29.0345
33.3694 838 28.9482
33.4867 865 29.4109
33.6039 876 29.5973
33.7211 862 29.3598
33.8383 820 28.6356
33.9554 795 28.1957
34.0725 773 27.8029
34.1896 766 27.6767
34.3067 716 26.7582
34.4237 691 26.2869
34.5407 790 28.1069
34.6577 780 27.9285
34.7746 757 27.5136
34.8915 813 28.5132
35.0084 764 27.6405
35.1252 713 26.7021
35.242 698 26.4197
35.3587 733 27.074
35.4755 740 27.2029
35.5921 748 27.3496
35.7088 793 28.1603
35.8254 800 28.2843
35.9419 855 29.2404
36.0584 830 28.8097
36.1749 815 28.5482
36.2913 807 28.4077
36.4077 850 29.1548
36.524 774 27.8209
36.6403 771 27.7669
36.7565 794 28.178
36.8727 785 28.0179
36.9889 807 28.4077
37.1049 842 29.0172
37.221 0 1
37.3369 0 1
37.4529 0 1
37.5687 0 1
37.6845 0 1
37.8003 0 1
37.916 0 1
38.0316 0 1
38.1472 0 1
40.5851 0 1
40.7008 0 1
40.8164 0 1
40.9322 0 1
41.048 0 1
41.1639 0 1
41.2798 0 1
41.3958 0 1
41.5118 0 1
41.6279 0 1
41.744 697 26.4008
41.8602 611 24.7184
41.9765 669 25.865
42.0928 655 25.593
42.2091 764 27.6405
42.3255 688 26.2298
42.4419 724 26.9072
42.5584 638 25.2587
42.675 668 25.8457
42.7915 675 25.9808
42.9081 694 26.3439
43.0248 630 25.0998
43.1415 609 24.6779
43.2582 582 24.1247
43.375 577 24.0208
43.4918 651 25.5147
43.6087 664 25.7682
43.7256 617 24.8395
43.8425 617 24.8395
43.9595 600 24.4949
44.0765 552 23.4947
44.1935 594 24.3721
44.3106 620 24.8998
44.4277 633 25.1595
44.5448 632 25.1396
44.6619 605 24.5967
44.7791 608 24.6577
44.8963 605 24.5967
45.0136 621 24.9199
45.1308 623 24.96
45.2481 640 25.2982
45.3654 579 24.0624
45.4827 602 24.5357
45.6001 600 24.4949
45.7174 572 23.9165
45.8348 598 24.454
45.9522 554 23.5372
46.0697 544 23.3238
46.1871 576 24
46.3046 554 23.5372
46.422 520 22.8035
46.5395 543 23.3024
46.657 504 22.4499
46.7745 431 20.7605
46.892 440 20.9762
47.0096 467 21.6102
47.1271 465 21.5639
47.2446 466 21.587
47.3622 481 21.9317
47.4797 441 21
47.5973 454 21.3073
47.7149 437 20.9045
47.8324 419 20.4695
47.95 459 21.4243
48.0675 462 21.4942
48.1851 478 21.8632
48.3027 485 22.0227
48.4202 439 20.9523
48.5378 441 21
48.6554 459 21.4243
48.7729 487 22.0681
48.8904 472 21.7256
49.008 453 21.2838
49.1255 472 21.7256
49.243 472 21.7256
49.3605 452 21.2603
49.478 432 20.7846
49.5955 460 21.4476
49.713 508 22.5389
49.8304 467 21.6102
49.9479 476 21.8174
50.0653 441 21
50.1827 458 21.4009
50.3001 454 21.3073
50.4175 376 19.3907
50.5348 433 20.8087
50.6521 478 21.8632
50.7694 449 21.1896
50.8867 474 21.7715
51.004 456 21.3542
51.1212 483 21.9773
51.2384 512 22.6274
51.3556 523 22.8692
51.4727 549 23.4307
51.5899 589 24.2693
51.707 548 23.4094
51.824 552 23.4947
51.9411 581 24.1039
52.0581 600 24.4949
52.175 613 24.7588
52.2919 590 24.2899
52.4088 596 24.4131
52.5257 680 26.0768
52.6425 613 24.7588
52.7593 628 25.0599
52.876 578 24.0416
52.9927 645 25.3969
53.1094 634 25.1794
53.226 637 25.2389
53.3426 620 24.8998
53.4591 639 25.2784
53.5756 652 25.5343
53.692 611 24.7184
53.8084 637 25.2389
53.9248 570 23.8747
54.0411 533 23.0868
54.1573 581 24.1039
54.2735 0 1
54.3896 0 1
54.5057 0 1
54.6217 0 1
54.7377 0 1
54.8537 0 1
54.9695 0 1
55.0853 0 1
55.2011 0 1
55.3168 0 1
55.4324 0 1
57.824 0 1
57.9396 0 1
58.0553 0 1
58.1711 0 1
58.2869 0 1
58.4028 0 1
58.5187 0 1
58.6347 0 1
58.7508 0 1
58.8669 0 1
58.983 636 25.219
59.0992 621 24.9199
59.2155 617 24.8395
59.3318 612 24.7386
59.4482 618 24.8596
59.5646 643 25.3574
59.681 649 25.4755
59.7975 632 25.1396
59.9141 652 25.5343
60.0306 666 25.807
60.1473 681 26.096
60.2639 710 26.6458
60.3807 677 26.0192
60.4974 680 26.0768
60.6142 672 25.923
60.731 692 26.3059
60.8479 652 25.5343
60.9648 655 25.593
61.0818 650 25.4951
61.1987 694 26.3439
61.3158 649 25.4755
61.4328 667 25.8263
61.5499 640 25.2982
61.667 681 26.096
61.7841 649 25.4755
61.9013 627 25.04
62.0185 636 25.219
62.1357 639 25.2784
62.253 639 25.2784
62.3702 594 24.3721
62.4875 627 25.04
62.6049 564 23.7487
62.7222 503 22.4277
62.8396 554 23.5372
62.9569 542 23.2809
63.0743 539 23.2164
63.1918 616 24.8193
63.3092 543 23.3024
63.4267 557 23.6008
63.5441 541 23.2594
63.6616 587 24.2281
63.7791 596 24.4131
63.8966 621 24.9199
64.0142 542 23.2809
64.1317 616 24.8193
64.2492 588 24.2487
64.3668 544 23.3238
64.4843 595 24.3926
64.6019 591 24.3105
64.7195 569 23.8537
64.837 525 22.9129
64.9546 527 22.9565
65.0722 570 23.8747
65.1898 581 24.1039
65.3074 539 23.2164
65.4249 584 24.1661
65.5425 510 22.5832
65.6601 550 23.4521
65.7777 526 22.9347
65.8952 550 23.4521
66.0128 538 23.1948
66.1304 487 22.0681
66.2479 473 21.7486
66.3655 427 20.664
66.483 455 21.3307
66.6005 494 22.2261
66.718 497 22.2935
66.8355 533 23.0868
66.953 509 22.561
67.0705 565 23.7697
67.1879 518 22.7596
67.3054 534 23.1084
67.4228 506 22.4944
67.5402 496 22.2711
67.6576 534 23.1084
67.7749 486 22.0454
67.8923 542 23.2809
68.0096 526 22.9347
68.1269 466 21.587
68.2442 531 23.0434
68.3614 523 22.8692
68.4787 522 22.8473
68.5958 539 23.2164
68.713 485 22.0227
68.8302 561 23.6854
68.9473 494 22.2261
69.0643 500 22.3607
69.1814 515 22.6936
69.2984 533 23.0868
69.4154 502 22.4054
69.5323 487 22.0681
69.6492 495 22.2486
69.7661 486 22.0454
69.8829 494 22.2261
69.9997 457 21.3776
70.1165 457 21.3776
70.2332 423 20.567
70.3499 510 22.5832
70.4665 437 20.9045
70.5831 469 21.6564
70.6996 469 21.6564
70.8161 440 20.9762
70.9326 476 21.8174
71.049 480 21.9089
71.1653 463 21.5174
71.2817 447 21.1424
71.3979 438 20.9284
71.5141 476 21.8174
71.6303 426 20.6398
71.7464 386 19.6469
71.8624 0 1
71.9784 0 1
72.0944 0 1
72.2102 0 1
72.3261 0 1
72.4418 0 1
72.5575 0 1
72.6732 0 1
75.1054 0 1
75.2209 0 1
75.3365 0 1
75.4521 0 1
75.5678 0 1
75.6835 0 1
75.7993 0 1
75.9151 0 1
76.031 0 1
76.147 368 19.1833
76.263 343 18.5203
76.3791 351 18.735
76.4952 375 19.3649
76.6113 352 18.7617
76.7276 391 19.7737
76.8438 370 19.2354
76.9601 334 18.2757
77.0765 373 19.3132
77.1929 354 18.8149
77.3093 357 18.8944
77.4258 359 18.9473
77.5423 335 18.303
77.6589 347 18.6279
77.7755 311 17.6352
77.8921 343 18.5203
78.0088 338 18.3848
78.1256 308 17.5499
78.2423 331 18.1934
78.3591 294 17.1464
78.4759 296 17.2047
78.5928 318 17.8326
78.7097 298 17.2627
78.8266 303 17.4069
78.9436 296 17.2047
79.0606 268 16.3707
79.1776 214 14.6287
79.2946 221 14.8661
79.4117 255 15.9687
79.5288 282 16.7929
79.6459 269 16.4012
79.7631 244 15.6205
79.8802 237 15.3948
79.9974 226 15.0333
80.1147 233 15.2643
80.2319 225 15
80.3491 215 14.6629
80.4664 225 15
80.5837 213 14.5945
80.701 200 14.1421
80.8183 228 15.0997
80.9357 204 14.2829
81.053 194 13.9284
81.1704 205 14.3178
81.2877 193 13.8924
81.4051 179 13.3791
81.5225 192 13.8564
81.6399 195 13.9642
81.7573 165 12.8452
81.8747 173 13.1529
81.9922 147 12.1244
82.1096 150 12.2474
82.227 142 11.9164
82.3444 151 12.2882
82.4619 121 11
82.5793 153 12.3693
82.6967 114 10.6771
82.8142 113 10.6301
82.9316 105 10.247
83.049 99 9.94987
83.1664 119 10.9087
83.2838 126 11.225
83.4012 97 9.84886
83.5186 95 9.74679
83.636 96 9.79796
83.7534 96 9.79796
83.8708 101 10.0499
83.9881 86 9.27362
84.1055 88 9.38083
84.2228 71 8.42615
84.3401 81 9
84.4575 72 8.48528
84.5747 68 8.24621
84.692 61 7.81025
84.8093 72 8.48528
84.9265 77 8.77496
85.0437 79 8.88819
85.1609 70 8.3666
85.2781 53 7.28011
85.3952 59 7.68115
85.5123 52 7.2111
85.6294 61 7.81025
85.7465 56 7.48331
85.8636 50 7.07107
85.9806 53 7.28011
86.0976 51 7.14143
86.2145 44 6.63325
86.3315 43 6.55744
86.4484 66 8.12404
86.5652 87 9.32738
86.682 67 8.18535
86.7988 87 9.32738
86.9156 91 9.53939
87.0323 75 8.66025
87.149 103 10.1489
87.2657 97 9.84886
87.3823 110 10.4881
87.4988 90 9.48683
87.6154 102 10.0995
87.7318 116 10.7703
87.8483 125 11.1803
87.9647 129 11.3578
88.081 128 11.3137
88.1973 166 12.8841
88.3136 165 12.8452
88.4298 158 12.5698
88.546 160 12.6491
88.6621 163 12.7671
88.7781 171 13.0767
88.8942 0 1
89.0101 0 1
89.126 0 1
89.2419 0 1
89.3577 0 1
89.4734 0 1
89.5891 0 1
89.7047 0 1
89.8203 0 1
89.9358 0 1
92.3269 0 1
92.4424 0 1
92.558 0 1
92.6736 0 1
92.7893 0 1
92.905 0 1
93.0208 0 1
93.1366 0 1
93.2525 0 1
93.3685 0 1
93.4845 0 1
93.6005 289 17
93.7167 245 15.6525
93.8328 338 18.3848
93.949 250 15.8114
94.0653 219 14.7986
94.1816 241 15.5242
94.2979 255 15.9687
94.4143 241 15.5242
94.5307 231 15.1987
94.6472 201 14.1774
94.7637 207 14.3875
94.8803 236 15.3623
94.9969 189 13.7477
95.1135 222 14.8997
95.2302 205 14.3178
95.3469 187 13.6748
95.4637 134 11.5758
95.5805 123 11.0905
95.6973 196 14
95.8142 206 14.3527
95.9311 208 14.4222
96.048 230 15.1658
96.1649 229 15.1327
96.2819 253 15.906
96.3989 254 15.9374
96.516 244 15.6205
96.633 271 16.4621
96.7501 268 16.3707
96.8673 314 17.72
96.9844 274 16.5529
97.1016 273 16.5227
97.2188 283 16.8226
97.336 303 17.4069
97.4532 338 18.3848
97.5704 323 17.9722
97.6877 335 18.303
97.805 318 17.8326
97.9223 335 18.303
98.0396 357 18.8944
98.1569 385 19.6214
98.2743 370 19.2354
98.3916 370 19.2354
98.509 342 18.4932
98.6264 386 19.6469
98.7438 374 19.3391
98.8612 371 19.2614
98.9786 344 18.5472
99.096 279 16.7033
99.2134 264 16.2481
99.3308 373 19.3132
99.4482 427 20.664
99.5656 460 21.4476
99.6831 446 21.1187
99.8005 409 20.2237
99.9179 433 20.8087
100.035 458 21.4009
100.153 479 21.8861
100.27 465 21.5639
100.388 490 22.1359
100.505 498 22.3159
100.622 496 22.2711
100.74 460 21.4476
100.857 479 21.8861
100.975 511 22.6053
101.092 496 22.2711
101.209 509 22.561
101.327 504 22.4499
101.444 519 22.7816
101.561 530 23.0217
101.679 530 23.0217
101.796 500 22.3607
101.913 527 22.9565
102.03 521 22.8254
102.148 508 22.5389
102.265 515 22.6936
102.382 532 23.0651
102.499 492 22.1811
102.616 417 20.4206
102.733 369 19.2094
102.851 412 20.2978
102.968 525 22.9129
103.085 557 23.6008
103.202 556 23.5797
103.319 537 23.1733
103.436 543 23.3024
103.552 576 24
103.669 570 23.8747
103.786 541 23.2594
103.903 547 23.388
104.02 530 23.0217
104.137 549 23.4307
104.253 610 24.6982
104.37 569 23.8537
104.487 537 23.1733
104.603 555 23.5584
104.72 602 24.5357
104.836 514 22.6716
104.953 574 23.9583
105.069 555 23.5584
105.186 568 23.8328
105.302 553 23.516
105.418 572 23.9165
105.535 578 24.0416
105.651 551 23.4734
105.767 572 23.9165
105.883 525 22.9129
105.999 472 21.7256
106.115 0 1
106.231 0 1
106.347 0 1
106.463 0 1
106.579 0 1
106.694 0 1
106.81 0 1
106.926 0 1
107.041 0 1
107.157 0 1
109.576 0 1
109.692 0 1
109.807 0 1
109.923 0 1
110.039 0 1
110.155 0 1
110.27 0 1
110.386 0 1
110.502 0 1
110.618 421 20.5183
110.735 442 21.0238
110.851 484 22
110.967 416 20.3961
111.083 393 19.8242
111.199 360 18.9737
111.316 327 18.0831
111.432 370 19.2354
111.549 441 21
111.665 421 20.5183
111.782 450 21.2132
111.898 407 20.1742
112.015 387 19.6723
112.132 393 19.8242
112.248 400 20
112.365 374 19.3391
112.482 400 20
112.599 378 19.4422
112.716 364 19.0788
112.832 375 19.3649
112.949 332 18.2209
113.066 348 18.6548
113.183 346 18.6011
113.3 338 18.3848
113.417 345 18.5742
113.534 294 17.1464
113.652 316 17.7764
113.769 356 18.868
113.886 392 19.799
114.003 329 18.1384
114.12 316 17.7764
114.238 313 17.6918
114.355 290 17.0294
114.472 280 16.7332
114.589 311 17.6352
114.707 307 17.5214
114.824 280 16.7332
114.942 268 16.3707
115.059 298 17.2627
115.176 315 17.7482
115.294 332 18.2209
115.411 306 17.4929
115.529 305 17.4642
115.646 295 17.1756
115.764 295 17.1756
115.881 306 17.4929
115.999 300 17.3205
116.116 343 18.5203
116.234 286 16.9115
116.351 299 17.2916
116.469 289 17
116.586 295 17.1756
116.704 277 16.6433
116.821 298 17.2627
116.939 283 16.8226
117.056 325 18.0278
117.174 274 16.5529
117.291 314 17.72
117.409 313 17.6918
117.526 265 16.2788
117.644 322 17.9444
117.761 280 16.7332
117.879 277 16.6433
117.996 270 16.4317
118.114 290 17.0294
118.231 248 15.748
118.349 289 17
118.466 276 16.6132
118.584 276 16.6132
118.701 302 17.3781
118.819 290 17.0294
118.936 314 17.72
119.053 312 17.6635
119.171 329 18.1384
119.288 307 17.5214
119.405 316 17.7764
119.523 331 18.1934
119.64 339 18.412
119.757 322 17.9444
119.875 326 18.0555
119.992 319 17.8606
120.109 301 17.3494
120.226 297 17.2337
120.343 315 17.7482
120.46 295 17.1756
120.578 316 17.7764
120.695 368 19.1833
120.812 345 18.5742
120.929 341 18.4662
121.046 331 18.1934
121.163 313 17.6918
121.279 359 18.9473
121.396 338 18.3848
121.513 314 17.72
121.63 271 16.4621
121.747 228 15.0997
121.863 240 15.4919
121.98 278 16.6733
122.097 290 17.0294
122.213 326 18.0555
122.33 317 17.8045
122.446 329 18.1384
122.563 314 17.72
122.679 343 18.5203
122.795 357 18.8944
122.912 369 19.2094
123.028 310 17.6068
123.144 319 17.8606
123.26 383 19.5704
123.377 0 1
123.493 0 1
123.609 0 1
123.725 0 1
123.84 0 1
123.956 0 1
124.072 0 1
124.188 0 1
124.303 0 1
124.419 0 1
126.852 0 1
126.968 0 1
127.083 0 1
127.199 0 1
127.315 0 1
127.431 0 1
127.547 0 1
127.663 0 1
127.779 0 1
127.895 0 1
128.011 0 1
128.127 0 1
128.243 0 1
128.359 422 20.5426
128.476 448 21.166
128.592 429 20.7123
128.708 467 21.6102
128.825 433 20.8087
128.941 433 20.8087
129.058 434 20.8327
129.174 497 22.2935
129.291 461 21.4709
129.408 444 21.0713
129.524 436 20.8806
129.641 462 21.4942
129.758 438 20.9284
129.875 464 21.5407
129.992 476 21.8174
130.108 442 21.0238
130.225 465 21.5639
130.342 399 19.975
130.459 365 19.105
130.576 350 18.7083
130.693 305 17.4642
130.81 301 17.3494
130.928 330 18.1659
131.045 388 19.6977
131.162 451 21.2368
131.279 477 21.8403
131.396 477 21.8403
131.513 473 21.7486
131.631 475 21.7945
131.748 448 21.166
131.865 480 21.9089
131.983 478 21.8632
132.1 483 21.9773
132.217 478 21.8632
132.335 508 22.5389
132.452 471 21.7025
132.57 451 21.2368
132.687 476 21.8174
132.804 520 22.8035
132.922 518 22.7596
133.039 483 21.9773
133.157 496 22.2711
133.274 560 23.6643
133.392 548 23.4094
133.509 512 22.6274
133.627 494 22.2261
133.744 469 21.6564
133.862 462 21.4942
133.979 433 20.8087
134.097 386 19.6469
134.214 403 20.0749
134.332 364 19.0788
134.449 348 18.6548
134.567 339 18.412
134.684 443 21.0476
134.802 513 22.6495
134.919 458 21.4009
135.037 531 23.0434
135.154 515 22.6936
135.272 526 22.9347
135.389 527 22.9565
135.507 546 23.3666
135.624 509 22.561
135.742 548 23.4094
135.859 514 22.6716
135.977 534 23.1084
136.094 529 23
136.211 516 22.7156
136.329 531 23.0434
136.446 543 23.3024
136.564 547 23.388
136.681 534 23.1084
136.798 542 23.2809
136.915 536 23.1517
137.033 590 24.2899
137.15 529 23
137.267 537 23.1733
137.384 513 22.6495
137.502 467 21.6102
137.619 468 21.6333
137.736 412 20.2978
137.853 405 20.1246
137.97 408 20.199
138.087 410 20.2485
138.204 454 21.3073
138.321 457 21.3776
138.438 481 21.9317
138.555 524 22.891
138.672 550 23.4521
138.788 573 23.9374
138.905 549 23.4307
139.022 614 24.779
139.139 556 23.5797
139.255 626 25.02
139.372 585 24.1868
139.488 570 23.8747
139.605 580 24.0832
139.721 595 24.3926
139.838 578 24.0416
139.954 609 24.6779
140.071 591 24.3105
140.187 549 23.4307
140.303 565 23.7697
140.419 560 23.6643
140.535 529 23
140.652 609 24.6779
140.768 0 1
140.884 0 1
141 0 1
141.115 0 1
141.231 0 1
141.347 0 1
141.463 0 1
141.578 0 1
141.694 0 1
144.104 0 1
144.219 0 1
144.335 0 1
144.45 0 1
144.566 0 1
144.682 0 1
144.798 0 1
144.914 0 1
145.03 0 1
145.146 613 24.7588
145.262 576 24
145.378 565 23.7697
145.494 562 23.7065
145.61 545 23.3452
145.726 548 23.4094
145.842 546 23.3666
145.959 533 23.0868
146.075 485 22.0227
146.192 467 21.6102
146.308 472 21.7256
146.425 447 21.1424
146.541 484 22
146.658 435 20.8567
146.774 443 21.0476
146.891 413 20.3224
147.008 476 21.8174
147.125 531 23.0434
147.241 489 22.1133
147.358 569 23.8537
147.475 562 23.7065
147.592 603 24.5561
147.709 562 23.7065
147.826 610 24.6982
147.943 514 22.6716
148.06 538 23.1948
148.177 573 23.9374
148.294 601 24.5153
148.411 549 23.4307
148.528 581 24.1039
148.645 559 23.6432
148.762 517 22.7376
148.88 553 23.516
148.997 526 22.9347
149.114 557 23.6008
149.231 536 23.1517
149.349 506 22.4944
149.466 507 22.5167
149.583 529 23
149.701 490 22.1359
149.818 479 21.8861
149.935 465 21.5639
150.053 456 21.3542
150.17 432 20.7846
150.287 453 21.2838
150.405 458 21.4009
150.522 486 22.0454
150.64 497 22.2935
150.757 540 23.2379
150.875 504 22.4499
150.992 549 23.4307
151.11 550 23.4521
151.227 562 23.7065
151.344 581 24.1039
151.462 571 23.8956
151.579 557 23.6008
151.697 585 24.1868
151.814 569 23.8537
151.932 592 24.3311
152.049 579 24.0624
152.167 571 23.8956
152.284 544 23.3238
152.402 590 24.2899
152.519 577 24.0208
152.636 584 24.1661
152.754 552 23.4947
152.871 567 23.8118
152.989 568 23.8328
153.106 548 23.4094
153.223 554 23.5372
153.341 479 21.8861
153.458 518 22.7596
153.575 482 21.9545
153.693 460 21.4476
153.81 525 22.9129
153.927 478 21.8632
154.044 466 21.587
154.162 539 23.2164
154.279 520 22.8035
154.396 560 23.6643
154.513 580 24.0832
154.63 577 24.0208
154.747 595 24.3926
154.864 609 24.6779
154.981 595 24.3926
155.098 621 24.9199
155.215 607 24.6374
155.332 546 23.3666
155.449 598 24.454
155.566 600 24.4949
155.683 601 24.5153
155.8 654 25.5734
155.917 575 23.9792
156.033 650 25.4951
156.15 0 1
156.267 0 1
156.383 0 1
156.5 0 1
156.617 0 1
156.733 0 1
156.85 0 1
156.966 0 1
157.082 0 1
157.199 0 1
157.315 0 1
157.431 0 1
157.547 0 1
157.664 0 1
157.78 0 1
157.896 0 1
158.012 0 1
158.128 0 1
158.244 0 1
158.359 0 1
158.475 0 1
158.591 0 1
158.706 0 1
