
6.15755 0 1
6.2731 0 1
6.3887 0 1
6.50437 0 1
6.62009 0 1
6.73587 0 1
6.8517 0 1
6.96759 0 1
7.08353 0 1
7.19952 0 1
7.31557 0 1
7.43166 0 1
7.54781 0 1
7.664 0 1
7.78024 0 1
7.89653 0 1
8.01286 0 1
8.12924 0 1
8.24567 0 1
8.36213 0 1
8.47864 0 1
8.59519 0 1
8.71178 0 1
8.82841 0 1
8.94508 0 1
9.06179 0 1
9.17853 0 1
9.29531 0 1
9.41212 0 1
9.52897 0 1
9.64584 0 1
9.76276 0 1
9.8797 0 1
9.99667 0 1
10.1137 0 1
10.2307 0 1
10.3478 0 1
10.4648 0 1
10.5819 0 1
10.6991 0 1
10.8162 0 1
10.9334 0 1
11.0506 0 1
11.1678 0 1
11.285 0 1
11.4023 0 1
11.5196 0 1
11.6369 0 1
11.7542 0 1
11.8715 0 1
11.9888 0 1
12.1062 0 1
12.2235 0 1
12.3409 0 1
12.4582 0 1
12.5756 0 1
12.693 0 1
12.8104 0 1
12.9278 0 1
13.0452 0 1
13.1626 0 1
13.28 0 1
13.3974 0 1
13.5149 0 1
13.6323 0 1
13.7497 0 1
13.8671 0 1
13.9845 0 1
14.1019 0 1
14.2193 0 1
14.3367 0 1
14.4541 0 1
14.5714 0 1
14.6888 0 1
14.8062 0 1
14.9235 0 1
15.0408 1980 44.4972
15.1581 2043 45.1996
15.2755 2083 45.6399
15.3927 2125 46.0977
15.51 2074 45.5412
15.6273 2099 45.8148
15.7445 2024 44.9889
15.8617 1957 44.238
15.9789 1887 43.4396
16.0961 1881 43.3705
16.2132 1922 43.8406
16.3304 1984 44.5421
16.4475 1830 42.7785
16.5646 1825 42.72
16.6816 1749 41.821
16.7986 1738 41.6893
16.9156 1735 41.6533
17.0326 1616 40.1995
17.1496 1671 40.8779
17.2665 1612 40.1497
17.3833 1608 40.0999
17.5002 1588 39.8497
17.617 1617 40.2119
17.7338 1515 38.923
17.8505 1757 41.9166
17.9672 1820 42.6615
18.0839 1843 42.9302
18.2005 1883 43.3935
18.3171 1939 44.0341
18.4337 1932 43.9545
18.5502 2022 44.9667
18.6666 2006 44.7884
18.7831 1969 44.3734
18.8994 1935 43.9886
19.0158 1850 43.0116
19.1321 1870 43.2435
19.2483 1661 40.7554
19.3645 1724 41.5211
19.4806 1518 38.9615
19.5967 1616 40.1995
19.7128 1581 39.7618
19.8288 1596 39.95
19.9447 1445 38.0132
20.0606 0 1
20.1764 0 1
20.2922 0 1
20.4079 0 1
20.5236 0 1
20.6392 0 1
20.7548 0 1
20.8702 0 1
23.3078 0 1
23.4233 0 1
23.539 0 1
23.6547 0 1
23.7704 0 1
23.8862 0 1
24.0021 0 1
24.118 0 1
24.234 0 1
24.35 0 1
24.4661 1482 38.4968
24.5822 1456 38.1576
24.6984 1436 37.8946
24.8146 1523 39.0256
24.9309 1573 39.6611
25.0472 1605 40.0625
25.1636 1582 39.7744
25.28 1628 40.3485
25.3965 1631 40.3856
25.513 1670 40.8656
25.6296 1599 39.9875
25.7462 1618 40.2244
25.8628 1617 40.2119
25.9795 1569 39.6106
26.0962 1546 39.3192
26.213 1456 38.1576
26.3298 1461 38.223
26.4466 1422 37.7094
26.5635 1521 39
26.6804 1598 39.975
26.7973 1625 40.3113
26.9143 1607 40.0874
27.0313 1597 39.9625
27.1483 1624 40.2989
27.2653 1705 41.2916
27.3824 1649 40.6079
27.4996 1640 40.4969
27.6167 1618 40.2244
27.7339 1608 40.0999
27.8511 1588 39.8497
27.9683 1575 39.6863
28.0855 1531 39.128
28.2028 1508 38.833
28.3201 1424 37.7359
28.4374 1446 38.0263
28.5547 1492 38.6264
28.6721 1559 39.4842
28.7894 1542 39.2683
28.9068 1555 39.4335
29.0242 1490 38.6005
29.1416 1441 37.9605
29.259 1519 38.9744
29.3764 1487 38.5616
29.4939 1362 36.9053
29.6113 1312 36.2215
29.7288 1312 36.2215
29.8463 1302 36.0832
29.9638 1406 37.4967
30.0812 1421 37.6962
30.1987 1431 37.8286
30.3162 1439 37.9342
30.4337 1526 39.064
30.5512 1593 39.9124
30.6687 1526 39.064
30.7862 1570 39.6232
30.9037 1570 39.6232
31.0212 1560 39.4968
31.1387 1584 39.7995
31.2562 1573 39.6611
31.3737 1534 39.1663
31.4912 1542 39.2683
31.6087 1541 39.2556
31.7262 1461 38.223
31.8436 1422 37.7094
31.9611 1417 37.6431
32.0785 1420 37.6829
32.1959 1415 37.6165
32.3134 1523 39.0256
32.4308 1503 38.7685
32.5482 1477 38.4318
32.6655 1421 37.6962
32.7829 1442 37.9737
32.9002 1413 37.5899
33.0176 1360 36.8782
33.1349 1368 36.9865
33.2522 1348 36.7151
33.3694 1275 35.7071
33.4867 1283 35.819
33.6039 1316 36.2767
33.7211 1307 36.1525
33.8383 1390 37.2827
33.9554 1407 37.51
34.0725 1485 38.5357
34.1896 1446 38.0263
34.3067 1525 39.0512
34.4237 1461 38.223
34.5407 1513 38.8973
34.6577 1516 38.9358
34.7746 1558 39.4715
34.8915 1607 40.0874
35.0084 1557 39.4588
35.1252 1463 38.2492
35.242 1478 38.4448
35.3587 1360 36.8782
35.4755 1439 37.9342
35.5921 1332 36.4966
35.7088 1354 36.7967
35.8254 1334 36.524
35.9419 1417 37.6431
36.0584 1430 37.8153
36.1749 1397 37.3765
36.2913 1462 38.2361
36.4077 1423 37.7227
36.524 1283 35.819
36.6403 1327 36.428
36.7565 1325 36.4005
36.8727 1252 35.3836
36.9889 1344 36.6606
37.1049 1272 35.6651
37.221 0 1
37.3369 0 1
37.4529 0 1
37.5687 0 1
37.6845 0 1
37.8003 0 1
37.916 0 1
38.0316 0 1
38.1472 0 1
40.5851 0 1
40.7008 0 1
40.8164 0 1
40.9322 0 1
41.048 0 1
41.1639 0 1
41.2798 0 1
41.3958 0 1
41.5118 0 1
41.6279 0 1
41.744 981 31.3209
41.8602 1048 32.3728
41.9765 1095 33.0908
42.0928 1073 32.7567
42.2091 1046 32.3419
42.3255 1009 31.7648
42.4419 1005 31.7017
42.5584 1028 32.0624
42.675 1086 32.9545
42.7915 1096 33.1059
42.9081 1092 33.0454
43.0248 1110 33.3167
43.1415 1116 33.4066
43.2582 1114 33.3766
43.375 1086 32.9545
43.4918 1114 33.3766
43.6087 1185 34.4238
43.7256 1111 33.3317
43.8425 1073 32.7567
43.9595 1039 32.2335
44.0765 988 31.4325
44.1935 1053 32.45
44.3106 998 31.5911
44.4277 902 30.0333
44.5448 917 30.282
44.6619 853 29.2062
44.7791 912 30.1993
44.8963 954 30.8869
45.0136 882 29.6985
45.1308 869 29.4788
45.2481 903 30.05
45.3654 857 29.2746
45.4827 797 28.2312
45.6001 839 28.9655
45.7174 825 28.7228
45.8348 781 27.9464
45.9522 784 28
46.0697 762 27.6043
46.1871 723 26.8887
46.3046 763 27.6225
46.422 817 28.5832
46.5395 837 28.931
46.657 836 28.9137
46.7745 848 29.1204
46.892 849 29.1376
47.0096 819 28.6182
47.1271 857 29.2746
47.2446 783 27.9821
47.3622 812 28.4956
47.4797 802 28.3196
47.5973 714 26.7208
47.7149 731 27.037
47.8324 688 26.2298
47.95 661 25.7099
48.0675 687 26.2107
48.1851 676 26
48.3027 714 26.7208
48.4202 697 26.4008
48.5378 710 26.6458
48.6554 765 27.6586
48.7729 758 27.5318
48.8904 677 26.0192
49.008 648 25.4558
49.1255 684 26.1534
49.243 732 27.0555
49.3605 672 25.923
49.478 665 25.7876
49.5955 689 26.2488
49.713 689 26.2488
49.8304 743 27.258
49.9479 788 28.0713
50.0653 750 27.3861
50.1827 723 26.8887
50.3001 762 27.6043
50.4175 819 28.6182
50.5348 842 29.0172
50.6521 857 29.2746
50.7694 894 29.8998
50.8867 887 29.7825
51.004 899 29.9833
51.1212 907 30.1164
51.2384 888 29.7993
51.3556 880 29.6648
51.4727 839 28.9655
51.5899 896 29.9333
51.707 918 30.2985
51.824 928 30.4631
51.9411 962 31.0161
52.0581 1042 32.28
52.175 973 31.1929
52.2919 1007 31.7333
52.4088 1051 32.4191
52.5257 1020 31.9374
52.6425 1133 33.6601
52.7593 1055 32.4808
52.876 1059 32.5423
52.9927 1088 32.9848
53.1094 1010 31.7805
53.226 1024 32
53.3426 1005 31.7017
53.4591 1144 33.8231
53.5756 1159 34.0441
53.692 1176 34.2929
53.8084 1197 34.5977
53.9248 1170 34.2053
54.0411 1265 35.5668
54.1573 1222 34.9571
54.2735 0 1
54.3896 0 1
54.5057 0 1
54.6217 0 1
54.7377 0 1
54.8537 0 1
54.9695 0 1
55.0853 0 1
55.2011 0 1
55.3168 0 1
55.4324 0 1
57.824 0 1
57.9396 0 1
58.0553 0 1
58.1711 0 1
58.2869 0 1
58.4028 0 1
58.5187 0 1
58.6347 0 1
58.7508 0 1
58.8669 0 1
58.983 1472 38.3667
59.0992 1488 38.5746
59.2155 1518 38.9615
59.3318 1544 39.2938
59.4482 1515 38.923
59.5646 1599 39.9875
59.681 1602 40.025
59.7975 1568 39.598
59.9141 1611 40.1373
60.0306 1570 39.6232
60.1473 1484 38.5227
60.2639 1438 37.921
60.3807 1424 37.7359
60.4974 1462 38.2361
60.6142 1398 37.3898
60.731 1534 39.1663
60.8479 1467 38.3014
60.9648 1406 37.4967
61.0818 1565 39.5601
61.1987 1607 40.0874
61.3158 1488 38.5746
61.4328 1478 38.4448
61.5499 1419 37.6696
61.667 1387 37.2424
61.7841 1354 36.7967
61.9013 1382 37.1753
62.0185 1361 36.8917
62.1357 1372 37.0405
62.253 1383 37.1887
62.3702 1447 38.0395
62.4875 1418 37.6563
62.6049 1462 38.2361
62.7222 1444 38
62.8396 1384 37.2022
62.9569 1436 37.8946
63.0743 1453 38.1182
63.1918 1482 38.4968
63.3092 1408 37.5233
63.4267 1431 37.8286
63.5441 1347 36.7015
63.6616 1348 36.7151
63.7791 1302 36.0832
63.8966 1301 36.0694
64.0142 1258 35.4683
64.1317 1297 36.0139
64.2492 1386 37.229
64.3668 1430 37.8153
64.4843 1294 35.9722
64.6019 1372 37.0405
64.7195 1375 37.081
64.837 1409 37.5366
64.9546 1359 36.8646
65.0722 1329 36.4555
65.1898 1309 36.1801
65.3074 1235 35.1426
65.4249 1209 34.7707
65.5425 1163 34.1028
65.6601 1288 35.8887
65.7777 1337 36.565
65.8952 1268 35.609
66.0128 1306 36.1386
66.1304 1302 36.0832
66.2479 1294 35.9722
66.3655 1322 36.3593
66.483 1367 36.973
66.6005 1335 36.5377
66.718 1400 37.4166
66.8355 1367 36.973
66.953 1376 37.0945
67.0705 1323 36.3731
67.1879 1363 36.9188
67.3054 1432 37.8418
67.4228 1321 36.3456
67.5402 1290 35.9166
67.6576 1245 35.2846
67.7749 1289 35.9026
67.8923 1333 36.5103
68.0096 1409 37.5366
68.1269 1349 36.7287
68.2442 1519 38.9744
68.3614 1463 38.2492
68.4787 1413 37.5899
68.5958 1389 37.2693
68.713 1441 37.9605
68.8302 1404 37.47
68.9473 1355 36.8103
69.0643 1353 36.7831
69.1814 1290 35.9166
69.2984 1344 36.6606
69.4154 1386 37.229
69.5323 1370 37.0135
69.6492 1387 37.2424
69.7661 1461 38.223
69.8829 1452 38.1051
69.9997 1446 38.0263
70.1165 1499 38.7169
70.2332 1488 38.5746
70.3499 1578 39.724
70.4665 1479 38.4578
70.5831 1522 39.0128
70.6996 1560 39.4968
70.8161 1503 38.7685
70.9326 1544 39.2938
71.049 1494 38.6523
71.1653 1404 37.47
71.2817 1392 37.3095
71.3979 1356 36.8239
71.5141 1292 35.9444
71.6303 1424 37.7359
71.7464 1375 37.081
71.8624 0 1
71.9784 0 1
72.0944 0 1
72.2102 0 1
72.3261 0 1
72.4418 0 1
72.5575 0 1
72.6732 0 1
75.1054 0 1
75.2209 0 1
75.3365 0 1
75.4521 0 1
75.5678 0 1
75.6835 0 1
75.7993 0 1
75.9151 0 1
76.031 0 1
76.147 1480 38.4708
76.263 1601 40.0125
76.3791 1614 40.1746
76.4952 1602 40.025
76.6113 1499 38.7169
76.7276 1563 39.5348
76.8438 1588 39.8497
76.9601 1616 40.1995
77.0765 1762 41.9762
77.1929 1713 41.3884
77.3093 1670 40.8656
77.4258 1703 41.2674
77.5423 1724 41.5211
77.6589 1733 41.6293
77.7755 1608 40.0999
77.8921 1617 40.2119
78.0088 1527 39.0768
78.1256 1507 38.8201
78.2423 1529 39.1024
78.3591 1404 37.47
78.4759 1434 37.8682
78.5928 1539 39.2301
78.7097 1562 39.5221
78.8266 1587 39.8372
78.9436 1609 40.1123
79.0606 1646 40.5709
79.1776 1650 40.6202
79.2946 1642 40.5216
79.4117 1612 40.1497
79.5288 1636 40.4475
79.6459 1621 40.2616
79.7631 1621 40.2616
79.8802 1598 39.975
79.9974 1567 39.5854
80.1147 1562 39.5221
80.2319 1526 39.064
80.3491 1412 37.5766
80.4664 1464 38.2623
80.5837 1573 39.6611
80.701 1626 40.3237
80.8183 1681 41
80.9357 1566 39.5727
81.053 1528 39.0896
81.1704 1542 39.2683
81.2877 1598 39.975
81.4051 1618 40.2244
81.5225 1611 40.1373
81.6399 1405 37.4833
81.7573 1393 37.3229
81.8747 1364 36.9324
81.9922 1325 36.4005
82.1096 1305 36.1248
82.227 1326 36.4143
82.3444 1338 36.5787
82.4619 1409 37.5366
82.5793 1437 37.9078
82.6967 1478 38.4448
82.8142 1528 39.0896
82.9316 1509 38.8458
83.049 1505 38.7943
83.1664 1473 38.3797
83.2838 1565 39.5601
83.4012 1501 38.7427
83.5186 1463 38.2492
83.636 1528 39.0896
83.7534 1524 39.0384
83.8708 1390 37.2827
83.9881 1397 37.3765
84.1055 1346 36.6879
84.2228 1486 38.5487
84.3401 1653 40.6571
84.4575 1645 40.5586
84.5747 1586 39.8246
84.692 1586 39.8246
84.8093 1574 39.6737
84.9265 1681 41
85.0437 1526 39.064
85.1609 1484 38.5227
85.2781 1448 38.0526
85.3952 1484 38.5227
85.5123 1421 37.6962
85.6294 1385 37.2156
85.7465 1449 38.0657
85.8636 1512 38.8844
85.9806 1498 38.704
86.0976 1507 38.8201
86.2145 1600 40
86.3315 1562 39.5221
86.4484 1546 39.3192
86.5652 1645 40.5586
86.682 1629 40.3609
86.7988 1615 40.1871
86.9156 1633 40.4104
87.0323 1687 41.0731
87.149 1675 40.9268
87.2657 1722 41.497
87.3823 1624 40.2989
87.4988 1501 38.7427
87.6154 1435 37.8814
87.7318 1585 39.8121
87.8483 1637 40.4599
87.9647 1703 41.2674
88.081 1744 41.7612
88.1973 1680 40.9878
88.3136 1638 40.4722
88.4298 1619 40.2368
88.546 1736 41.6653
88.6621 1690 41.1096
88.7781 1551 39.3827
88.8942 0 1
89.0101 0 1
89.126 0 1
89.2419 0 1
89.3577 0 1
89.4734 0 1
89.5891 0 1
89.7047 0 1
89.8203 0 1
89.9358 0 1
92.3269 0 1
92.4424 0 1
92.558 0 1
92.6736 0 1
92.7893 0 1
92.905 0 1
93.0208 0 1
93.1366 0 1
93.2525 0 1
93.3685 0 1
93.4845 0 1
93.6005 1549 39.3573
93.7167 1644 40.5463
93.8328 1607 40.0874
93.949 1536 39.1918
94.0653 1480 38.4708
94.1816 1531 39.128
94.2979 1513 38.8973
94.4143 1425 37.7492
94.5307 1349 36.7287
94.6472 1319 36.318
94.7637 1407 37.51
94.8803 1463 38.2492
94.9969 1477 38.4318
95.1135 1530 39.1152
95.2302 1449 38.0657
95.3469 1506 38.8072
95.4637 1545 39.3065
95.5805 1593 39.9124
95.6973 1572 39.6485
95.8142 1643 40.5339
95.9311 1621 40.2616
96.048 1608 40.0999
96.1649 1618 40.2244
96.2819 1612 40.1497
96.3989 1613 40.1622
96.516 1477 38.4318
96.633 1484 38.5227
96.7501 1509 38.8458
96.8673 1442 37.9737
96.9844 1521 39
97.1016 1572 39.6485
97.2188 1556 39.4462
97.336 1554 39.4208
97.4532 1591 39.8873
97.5704 1705 41.2916
97.6877 1547 39.3319
97.805 1555 39.4335
97.9223 1451 38.092
98.0396 1343 36.647
98.1569 1390 37.2827
98.2743 1266 35.5809
98.3916 1403 37.4566
98.509 1411 37.5633
98.6264 1383 37.1887
98.7438 1455 38.1445
98.8612 1375 37.081
98.9786 1523 39.0256
99.096 1502 38.7556
99.2134 1508 38.833
99.3308 1500 38.7298
99.4482 1494 38.6523
99.5656 1573 39.6611
99.6831 1528 39.0896
99.8005 1508 38.833
99.9179 1496 38.6782
100.035 1529 39.1024
100.153 1406 37.4967
100.27 1403 37.4566
100.388 1392 37.3095
100.505 1429 37.8021
100.622 1526 39.064
100.74 1555 39.4335
100.857 1552 39.3954
100.975 1546 39.3192
101.092 1560 39.4968
101.209 1542 39.2683
101.327 1552 39.3954
101.444 1523 39.0256
101.561 1498 38.704
101.679 1360 36.8782
101.796 1423 37.7227
101.913 1342 36.6333
102.03 1388 37.2559
102.148 1500 38.7298
102.265 1379 37.1349
102.382 1624 40.2989
102.499 1556 39.4462
102.616 1506 38.8072
102.733 1581 39.7618
102.851 1643 40.5339
102.968 1640 40.4969
103.085 1655 40.6817
103.202 1587 39.8372
103.319 1678 40.9634
103.436 1643 40.5339
103.552 1593 39.9124
103.669 1506 38.8072
103.786 1500 38.7298
103.903 1525 39.0512
104.02 1579 39.7366
104.137 1589 39.8623
104.253 1621 40.2616
104.37 1681 41
104.487 1724 41.5211
104.603 1661 40.7554
104.72 1755 41.8927
104.836 1688 41.0853
104.953 1621 40.2616
105.069 1559 39.4842
105.186 1531 39.128
105.302 1382 37.1753
105.418 1371 37.027
105.535 1507 38.8201
105.651 1566 39.5727
105.767 1639 40.4846
105.883 1588 39.8497
105.999 1568 39.598
106.115 0 1
106.231 0 1
106.347 0 1
106.463 0 1
106.579 0 1
106.694 0 1
106.81 0 1
106.926 0 1
107.041 0 1
107.157 0 1
109.576 0 1
109.692 0 1
109.807 0 1
109.923 0 1
110.039 0 1
110.155 0 1
110.27 0 1
110.386 0 1
110.502 0 1
110.618 1296 36
110.735 1318 36.3043
110.851 1365 36.9459
110.967 1379 37.1349
111.083 1406 37.4967
111.199 1387 37.2424
111.316 1438 37.921
111.432 1444 38
111.549 1526 39.064
111.665 1441 37.9605
111.782 1441 37.9605
111.898 1451 38.092
112.015 1414 37.6032
112.132 1363 36.9188
112.248 1363 36.9188
112.365 1320 36.3318
112.482 1341 36.6197
112.599 1342 36.6333
112.716 1361 36.8917
112.832 1315 36.2629
112.949 1345 36.6742
113.066 1356 36.8239
113.183 1338 36.5787
113.3 1338 36.5787
113.417 1421 37.6962
113.534 1333 36.5103
113.652 1237 35.171
113.769 1294 35.9722
113.886 1153 33.9559
114.003 1047 32.3574
114.12 1101 33.1813
114.238 1163 34.1028
114.355 1167 34.1614
114.472 1222 34.9571
114.589 1224 34.9857
114.707 1216 34.8712
114.824 1296 36
114.942 1256 35.4401
115.059 1198 34.6121
115.176 1128 33.5857
115.294 1187 34.4529
115.411 1170 34.2053
115.529 1180 34.3511
115.646 1106 33.2566
115.764 1129 33.6006
115.881 1030 32.0936
115.999 1051 32.4191
116.116 1005 31.7017
116.234 1008 31.749
116.351 1090 33.0151
116.469 1054 32.4654
116.586 1026 32.0312
116.704 1106 33.2566
116.821 1085 32.9393
116.939 1127 33.5708
117.056 1092 33.0454
117.174 1080 32.8634
117.291 1004 31.686
117.409 1053 32.45
117.526 953 30.8707
117.644 912 30.1993
117.761 951 30.8383
117.879 959 30.9677
117.996 979 31.289
118.114 1076 32.8024
118.231 1034 32.1559
118.349 1052 32.4345
118.466 1149 33.8969
118.584 1174 34.2637
118.701 1031 32.1092
118.819 1099 33.1512
118.936 1057 32.5115
119.053 1109 33.3017
119.171 1053 32.45
119.288 1033 32.1403
119.405 1032 32.1248
119.523 1048 32.3728
119.64 963 31.0322
119.757 956 30.9192
119.875 981 31.3209
119.992 1029 32.078
120.109 1085 32.9393
120.226 1059 32.5423
120.343 1145 33.8378
120.46 1154 33.9706
120.578 1209 34.7707
120.695 1181 34.3657
120.812 1212 34.8138
120.929 1103 33.2114
121.046 1092 33.0454
121.163 1052 32.4345
121.279 1019 31.9218
121.396 1071 32.7261
121.513 1146 33.8526
121.63 1215 34.8569
121.747 1203 34.6843
121.863 1220 34.9285
121.98 1189 34.4819
122.097 1314 36.2491
122.213 1291 35.9305
122.33 1327 36.428
122.446 1347 36.7015
122.563 1234 35.1283
122.679 1301 36.0694
122.795 1295 35.9861
122.912 1290 35.9166
123.028 1213 34.8281
123.144 1184 34.4093
123.26 1158 34.0294
123.377 0 1
123.493 0 1
123.609 0 1
123.725 0 1
123.84 0 1
123.956 0 1
124.072 0 1
124.188 0 1
124.303 0 1
124.419 0 1
126.852 0 1
126.968 0 1
127.083 0 1
127.199 0 1
127.315 0 1
127.431 0 1
127.547 0 1
127.663 0 1
127.779 0 1
127.895 0 1
128.011 0 1
128.127 0 1
128.243 0 1
128.359 1484 38.5227
128.476 1402 37.4433
128.592 1411 37.5633
128.708 1320 36.3318
128.825 1306 36.1386
128.941 1396 37.3631
129.058 1457 38.1707
129.174 1419 37.6696
129.291 1491 38.6135
129.408 1531 39.128
129.524 1542 39.2683
129.641 1467 38.3014
129.758 1591 39.8873
129.875 1540 39.2428
129.992 1399 37.4032
130.108 1446 38.0263
130.225 1338 36.5787
130.342 1304 36.1109
130.459 1262 35.5246
130.576 1341 36.6197
130.693 1332 36.4966
130.81 1507 38.8201
130.928 1393 37.3229
131.045 1428 37.7889
131.162 1432 37.8418
131.279 1435 37.8814
131.396 1484 38.5227
131.513 1445 38.0132
131.631 1388 37.2559
131.748 1401 37.4299
131.865 1418 37.6563
131.983 1342 36.6333
132.1 1365 36.9459
132.217 1342 36.6333
132.335 1295 35.9861
132.452 1314 36.2491
132.57 1342 36.6333
132.687 1255 35.426
132.804 1337 36.565
132.922 1433 37.855
133.039 1367 36.973
133.157 1425 37.7492
133.274 1465 38.2753
133.392 1417 37.6431
133.509 1373 37.054
133.627 1418 37.6563
133.744 1306 36.1386
133.862 1271 35.6511
133.979 1243 35.2562
134.097 1280 35.7771
134.214 1333 36.5103
134.332 1294 35.9722
134.449 1450 38.0789
134.567 1419 37.6696
134.684 1434 37.8682
134.802 1412 37.5766
134.919 1477 38.4318
135.037 1428 37.7889
135.154 1419 37.6696
135.272 1369 37
135.389 1346 36.6879
135.507 1301 36.0694
135.624 1293 35.9583
135.742 1216 34.8712
135.859 1173 34.2491
135.977 1150 33.9116
136.094 1133 33.6601
136.211 1207 34.7419
136.329 1166 34.1467
136.446 1276 35.7211
136.564 1274 35.6931
136.681 1195 34.5688
136.798 1278 35.7491
136.915 1252 35.3836
137.033 1302 36.0832
137.15 1261 35.5106
137.267 1065 32.6343
137.384 1120 33.4664
137.502 1049 32.3883
137.619 1028 32.0624
137.736 1140 33.7639
137.853 1176 34.2929
137.97 1278 35.7491
138.087 1330 36.4692
138.204 1344 36.6606
138.321 1326 36.4143
138.438 1352 36.7696
138.555 1396 37.3631
138.672 1491 38.6135
138.788 1401 37.4299
138.905 1336 36.5513
139.022 1361 36.8917
139.139 1359 36.8646
139.255 1352 36.7696
139.372 1299 36.0416
139.488 1289 35.9026
139.605 1267 35.5949
139.721 1324 36.3868
139.838 1303 36.0971
139.954 1382 37.1753
140.071 1448 38.0526
140.187 1464 38.2623
140.303 1501 38.7427
140.419 1502 38.7556
140.535 1476 38.4187
140.652 1488 38.5746
140.768 0 1
140.884 0 1
141 0 1
141.115 0 1
141.231 0 1
141.347 0 1
141.463 0 1
141.578 0 1
141.694 0 1
144.104 0 1
144.219 0 1
144.335 0 1
144.45 0 1
144.566 0 1
144.682 0 1
144.798 0 1
144.914 0 1
145.03 0 1
145.146 1845 42.9535
145.262 1952 44.1814
145.378 1996 44.6766
145.494 2263 47.571
145.61 2295 47.9062
145.726 2468 49.679
145.842 2528 50.2792
145.959 2592 50.9117
146.075 2617 51.1566
146.192 2496 49.96
146.308 2557 50.5668
146.425 2563 50.6261
146.541 2816 53.066
146.658 3190 56.4801
146.774 3510 59.2453
146.891 3819 61.7981
147.008 4049 63.6318
147.125 4188 64.7148
147.241 4483 66.9552
147.358 4638 68.1029
147.475 4900 70
147.592 4945 70.3207
147.709 5036 70.9648
147.826 5243 72.4086
147.943 5330 73.0068
148.06 5377 73.328
148.177 5296 72.7736
148.294 5203 72.1318
148.411 5374 73.3076
148.528 5476 74
148.645 5588 74.7529
148.762 6026 77.6273
148.88 6267 79.1644
148.997 6577 81.0987
149.114 5873 76.6355
149.231 6294 79.3347
149.349 6379 79.8686
149.466 6397 79.9812
149.583 6053 77.801
149.701 5840 76.4199
149.818 5421 73.6274
149.935 5109 71.4773
150.053 4954 70.3847
150.17 5269 72.5879
150.287 5564 74.5922
150.405 5797 76.138
150.522 5938 77.0584
150.64 6090 78.0385
150.757 6263 79.1391
150.875 6372 79.8248
150.992 6220 78.867
151.11 6333 79.5801
151.227 6162 78.4984
151.344 6080 77.9744
151.462 6072 77.923
151.579 6076 77.9487
151.697 5815 76.2561
151.814 5775 75.9934
151.932 5786 76.0658
152.049 5545 74.4648
152.167 6080 77.9744
152.284 5992 77.408
152.402 6212 78.8162
152.519 6656 81.5843
152.636 6607 81.2835
152.754 6881 82.9518
152.871 6774 82.3043
152.989 6963 83.4446
153.106 6852 82.7768
153.223 6475 80.4674
153.341 6154 78.4474
153.458 6007 77.5048
153.575 5808 76.2102
153.693 5721 75.6373
153.81 6009 77.5177
153.927 6386 79.9125
154.044 6357 79.7308
154.162 6679 81.7251
154.279 7048 83.9524
154.396 7174 84.6995
154.513 7422 86.151
154.63 7397 86.0058
154.747 7491 86.5506
154.864 7575 87.0345
154.981 7358 85.7788
155.098 7348 85.7205
155.215 7302 85.4517
155.332 7197 84.8351
155.449 6915 83.1565
155.566 7049 83.9583
155.683 7033 83.863
155.8 7192 84.8057
155.917 7586 87.0976
156.033 7681 87.6413
156.15 0 1
156.267 0 1
156.383 0 1
156.5 0 1
156.617 0 1
156.733 0 1
156.85 0 1
156.966 0 1
157.082 0 1
157.199 0 1
157.315 0 1
157.431 0 1
157.547 0 1
157.664 0 1
157.78 0 1
157.896 0 1
158.012 0 1
158.128 0 1
158.244 0 1
158.359 0 1
158.475 0 1
158.591 0 1
158.706 0 1
