
6.15755 0 1
6.2731 0 1
6.3887 0 1
6.50437 0 1
6.62009 0 1
6.73587 0 1
6.8517 0 1
6.96759 0 1
7.08353 0 1
7.19952 0 1
7.31557 0 1
7.43166 0 1
7.54781 0 1
7.664 0 1
7.78024 0 1
7.89653 0 1
8.01286 0 1
8.12924 0 1
8.24567 0 1
8.36213 0 1
8.47864 0 1
8.59519 0 1
8.71178 0 1
8.82841 0 1
8.94508 0 1
9.06179 0 1
9.17853 0 1
9.29531 0 1
9.41212 0 1
9.52897 0 1
9.64584 0 1
9.76276 0 1
9.8797 0 1
9.99667 0 1
10.1137 0 1
10.2307 0 1
10.3478 0 1
10.4648 0 1
10.5819 0 1
10.6991 0 1
10.8162 0 1
10.9334 0 1
11.0506 0 1
11.1678 0 1
11.285 0 1
11.4023 0 1
11.5196 0 1
11.6369 0 1
11.7542 0 1
11.8715 0 1
11.9888 0 1
12.1062 0 1
12.2235 0 1
12.3409 0 1
12.4582 0 1
12.5756 0 1
12.693 0 1
12.8104 0 1
12.9278 0 1
13.0452 0 1
13.1626 0 1
13.28 0 1
13.3974 0 1
13.5149 0 1
13.6323 0 1
13.7497 0 1
13.8671 0 1
13.9845 0 1
14.1019 0 1
14.2193 0 1
14.3367 0 1
14.4541 0 1
14.5714 0 1
14.6888 0 1
14.8062 0 1
14.9235 0 1
15.0408 0 0
15.1581 0 0
15.2755 0 0
15.3927 0 0
15.51 0 0
15.6273 0 0
15.7445 0 0
15.8617 0 0
15.9789 0 0
16.0961 0 0
16.2132 0 0
16.3304 0 0
16.4475 0 0
16.5646 0 0
16.6816 0 0
16.7986 0 0
16.9156 0 0
17.0326 0 0
17.1496 0 0
17.2665 0 0
17.3833 0 0
17.5002 0 0
17.617 0 0
17.7338 0 0
17.8505 0 0
17.9672 0 0
18.0839 0 0
18.2005 0 0
18.3171 0 0
18.4337 0 0
18.5502 0 0
18.6666 0 0
18.7831 0 0
18.8994 0 0
19.0158 0 0
19.1321 0 0
19.2483 0 0
19.3645 0 0
19.4806 0 0
19.5967 0 0
19.7128 0 0
19.8288 0 0
19.9447 0 0
20.0606 0 1
20.1764 0 1
20.2922 0 1
20.4079 0 1
20.5236 0 1
20.6392 0 1
20.7548 0 1
20.8702 0 1
23.3078 0 1
23.4233 0 1
23.539 0 1
23.6547 0 1
23.7704 0 1
23.8862 0 1
24.0021 0 1
24.118 0 1
24.234 0 1
24.35 0 1
24.4661 4690 68.4836
24.5822 5861 76.5572
24.6984 6579 81.111
24.8146 7373 85.8662
24.9309 8077 89.8721
25.0472 8863 94.1435
25.1636 9608 98.0204
25.28 10503 102.484
25.3965 11050 105.119
25.513 11682 108.083
25.6296 12086 109.936
25.7462 12645 112.45
25.8628 12752 112.925
25.9795 12765 112.982
26.0962 12790 113.093
26.213 12183 110.377
26.3298 11178 105.726
26.4466 10558 102.752
26.5635 10162 100.807
26.6804 10287 101.425
26.7973 10698 103.431
26.9143 11031 105.029
27.0313 11184 105.754
27.1483 11493 107.205
27.2653 11821 108.724
27.3824 11977 109.439
27.4996 12027 109.668
27.6167 11807 108.66
27.7339 11438 106.949
27.8511 11215 105.901
27.9683 10955 104.666
28.0855 10874 104.278
28.2028 10334 101.656
28.3201 10082 100.409
28.4374 10051 100.255
28.5547 10574 102.83
28.6721 11016 104.957
28.7894 11497 107.224
28.9068 11675 108.051
29.0242 11965 109.385
29.1416 12246 110.662
29.259 12141 110.186
29.3764 12093 109.968
29.4939 12292 110.869
29.6113 11814 108.692
29.7288 10999 104.876
29.8463 10587 102.893
29.9638 10125 100.623
30.0812 10077 100.384
30.1987 10039 100.195
30.3162 10393 101.946
30.4337 10850 104.163
30.5512 10703 103.455
30.6687 11003 104.895
30.7862 11396 106.752
30.9037 11447 106.991
31.0212 11683 108.088
31.1387 11456 107.033
31.2562 11253 106.08
31.3737 10890 104.355
31.4912 10809 103.966
31.6087 10534 102.635
31.7262 10287 101.425
31.8436 9732 98.6509
31.9611 9776 98.8737
32.0785 9838 99.1867
32.1959 10377 101.868
32.3134 10843 104.13
32.4308 11505 107.261
32.5482 11552 107.48
32.6655 11760 108.444
32.7829 11604 107.722
32.9002 11687 108.106
33.0176 11744 108.37
33.1349 11568 107.555
33.2522 11448 106.995
33.3694 11009 104.924
33.4867 10457 102.259
33.6039 10001 100.005
33.7211 9529 97.6166
33.8383 9561 97.7804
33.9554 10075 100.374
34.0725 10173 100.861
34.1896 10365 101.809
34.3067 10518 102.557
34.4237 10735 103.61
34.5407 11378 106.668
34.6577 11449 107
34.7746 11366 106.611
34.8915 11084 105.281
35.0084 10980 104.785
35.1252 10401 101.985
35.242 10260 101.292
35.3587 9916 99.5791
35.4755 9516 97.55
35.5921 9339 96.6385
35.7088 9324 96.5609
35.8254 9392 96.9123
35.9419 10028 100.14
36.0584 10511 102.523
36.1749 10755 103.706
36.2913 10755 103.706
36.4077 10313 101.553
36.524 10211 101.049
36.6403 10037 100.185
36.7565 9726 98.6205
36.8727 9341 96.6488
36.9889 8626 92.8763
37.1049 7678 87.6242
37.221 0 1
37.3369 0 1
37.4529 0 1
37.5687 0 1
37.6845 0 1
37.8003 0 1
37.916 0 1
38.0316 0 1
38.1472 0 1
40.5851 0 1
40.7008 0 1
40.8164 0 1
40.9322 0 1
41.048 0 1
41.1639 0 1
41.2798 0 1
41.3958 0 1
41.5118 0 1
41.6279 0 1
41.744 5224 72.2772
41.8602 6033 77.6724
41.9765 6469 80.4301
42.0928 6906 83.1023
42.2091 6806 82.4985
42.3255 6868 82.8734
42.4419 6992 83.6182
42.5584 7001 83.672
42.675 7476 86.4639
42.7915 8234 90.7414
42.9081 8538 92.4013
43.0248 8862 94.1382
43.1415 9097 95.3782
43.2582 9243 96.1405
43.375 9363 96.7626
43.4918 9515 97.5449
43.6087 9645 98.209
43.7256 9411 97.0103
43.8425 9198 95.9062
43.9595 9004 94.8894
44.0765 8693 93.2363
44.1935 8400 91.6515
44.3106 8001 89.4483
44.4277 7754 88.0568
44.5448 7655 87.4929
44.6619 7685 87.6641
44.7791 8282 91.0055
44.8963 8733 93.4505
45.0136 9422 97.067
45.1308 9638 98.1733
45.2481 9716 98.5698
45.3654 9786 98.9242
45.4827 9764 98.813
45.6001 9697 98.4733
45.7174 9366 96.7781
45.8348 8981 94.7681
45.9522 8558 92.5095
46.0697 8410 91.7061
46.1871 8121 90.1166
46.3046 8532 92.3688
46.422 8807 93.8456
46.5395 9050 95.1315
46.657 9227 96.0573
46.7745 9421 97.0618
46.892 9243 96.1405
47.0096 9498 97.4577
47.1271 9777 98.8787
47.2446 9693 98.453
47.3622 9707 98.5241
47.4797 9422 97.067
47.5973 9292 96.395
47.7149 8893 94.3027
47.8324 8383 91.5587
47.95 7950 89.1628
48.0675 7812 88.3855
48.1851 7780 88.2043
48.3027 8063 89.7942
48.4202 8687 93.2041
48.5378 9351 96.7006
48.6554 9808 99.0353
48.7729 9977 99.8849
48.8904 9872 99.3579
49.008 9825 99.1211
49.1255 9712 98.5495
49.243 9452 97.2214
49.3605 8963 94.6731
49.478 8481 92.0923
49.5955 8187 90.482
49.713 8151 90.2829
49.8304 8319 91.2086
49.9479 8669 93.1075
50.0653 8920 94.4458
50.1827 9164 95.7288
50.3001 9440 97.1597
50.4175 9468 97.3036
50.5348 9404 96.9742
50.6521 9731 98.6458
50.7694 9762 98.8028
50.8867 9756 98.7725
51.004 9351 96.7006
51.1212 9311 96.4935
51.2384 8907 94.3769
51.3556 8368 91.4768
51.4727 7754 88.0568
51.5899 7493 86.5621
51.707 7632 87.3613
51.824 7947 89.1459
51.9411 8627 92.8816
52.0581 9667 98.3209
52.175 9758 98.7826
52.2919 9920 99.5992
52.4088 10097 100.484
52.5257 10212 101.054
52.6425 10336 101.666
52.7593 9892 99.4585
52.876 9667 98.3209
52.9927 9221 96.026
53.1094 8956 94.6361
53.226 8565 92.5473
53.3426 8422 91.7715
53.4591 8530 92.358
53.5756 8299 91.0988
53.692 8401 91.657
53.8084 8259 90.879
53.9248 8204 90.5759
54.0411 7944 89.1291
54.1573 7300 85.44
54.2735 0 1
54.3896 0 1
54.5057 0 1
54.6217 0 1
54.7377 0 1
54.8537 0 1
54.9695 0 1
55.0853 0 1
55.2011 0 1
55.3168 0 1
55.4324 0 1
57.824 0 1
57.9396 0 1
58.0553 0 1
58.1711 0 1
58.2869 0 1
58.4028 0 1
58.5187 0 1
58.6347 0 1
58.7508 0 1
58.8669 0 1
58.983 5748 75.8156
59.0992 6864 82.8493
59.2155 7463 86.3887
59.3318 8422 91.7715
59.4482 9015 94.9474
59.5646 9859 99.2925
59.681 10320 101.587
59.7975 10346 101.715
59.9141 10587 102.893
60.0306 10382 101.892
60.1473 9852 99.2572
60.2639 9457 97.2471
60.3807 8899 94.3345
60.4974 9152 95.6661
60.6142 9689 98.4327
60.731 10780 103.827
60.8479 11332 106.452
60.9648 11889 109.037
61.0818 11969 109.403
61.1987 12070 109.864
61.3158 11907 109.119
61.4328 11665 108.005
61.5499 11463 107.065
61.667 10976 104.766
61.7841 10663 103.262
61.9013 10410 102.029
62.0185 10239 101.188
62.1357 10391 101.936
62.253 10865 104.235
62.3702 11255 106.09
62.4875 11603 107.717
62.6049 11821 108.724
62.7222 11732 108.314
62.8396 11897 109.073
62.9569 11999 109.54
63.0743 12111 110.05
63.1918 11965 109.385
63.3092 11829 108.761
63.4267 11372 106.64
63.5441 10901 104.408
63.6616 10077 100.384
63.7791 9035 95.0526
63.8966 8656 93.0376
64.0142 8726 93.4131
64.1317 9222 96.0312
64.2492 9969 99.8449
64.3668 10988 104.824
64.4843 11523 107.345
64.6019 11701 108.171
64.7195 11580 107.61
64.837 11541 107.429
64.9546 11661 107.986
65.0722 11249 106.061
65.1898 10896 104.384
65.3074 10362 101.794
65.4249 10110 100.548
65.5425 9929 99.6444
65.6601 9919 99.5942
65.7777 10340 101.686
65.8952 10618 103.044
66.0128 11049 105.114
66.1304 11374 106.649
66.2479 11500 107.238
66.3655 11468 107.089
66.483 11690 108.12
66.6005 11658 107.972
66.718 11675 108.051
66.8355 11407 106.804
66.953 11239 106.014
67.0705 10961 104.695
67.1879 10359 101.779
67.3054 9297 96.421
67.4228 8539 92.4067
67.5402 7744 88
67.6576 7816 88.4081
67.7749 8711 93.3327
67.8923 9529 97.6166
68.0096 10477 102.357
68.1269 11068 105.205
68.2442 11143 105.56
68.3614 11145 105.57
68.4787 11198 105.821
68.5958 10986 104.814
68.713 10880 104.307
68.8302 10376 101.863
68.9473 10035 100.175
69.0643 9784 98.9141
69.1814 9732 98.6509
69.2984 9669 98.3311
69.4154 10017 100.085
69.5323 10433 102.142
69.6492 10498 102.46
69.7661 10735 103.61
69.8829 11059 105.162
69.9997 11015 104.952
70.1165 10938 104.585
70.2332 10708 103.479
70.3499 10346 101.715
70.4665 10072 100.359
70.5831 9652 98.2446
70.6996 9108 95.4358
70.8161 8492 92.152
70.9326 7483 86.5043
71.049 6285 79.278
71.1653 4608 67.8823
71.2817 3953 62.8729
71.3979 3862 62.145
71.5141 3707 60.8851
71.6303 3695 60.7865
71.7464 3358 57.9483
71.8624 0 1
71.9784 0 1
72.0944 0 1
72.2102 0 1
72.3261 0 1
72.4418 0 1
72.5575 0 1
72.6732 0 1
75.1054 0 1
75.2209 0 1
75.3365 0 1
75.4521 0 1
75.5678 0 1
75.6835 0 1
75.7993 0 1
75.9151 0 1
76.031 0 1
76.147 5591 74.773
76.263 5789 76.0855
76.3791 5794 76.1183
76.4952 5499 74.1552
76.6113 5440 73.7564
76.7276 6153 78.4411
76.8438 6908 83.1144
76.9601 8165 90.3604
77.0765 9058 95.1735
77.1929 9583 97.8928
77.3093 9545 97.6985
77.4258 9745 98.7168
77.5423 9536 97.6524
77.6589 9687 98.4226
77.7755 9233 96.0885
77.8921 9085 95.3153
78.0088 8647 92.9892
78.1256 8346 91.3564
78.2423 8428 91.8041
78.3591 8433 91.8314
78.4759 8633 92.9139
78.5928 9058 95.1735
78.7097 9354 96.7161
78.8266 9686 98.4175
78.9436 9788 98.9343
79.0606 9838 99.1867
79.1776 9983 99.915
79.2946 10011 100.055
79.4117 9939 99.6945
79.5288 9660 98.2853
79.6459 9656 98.2649
79.7631 9479 97.3602
79.8802 8929 94.4934
79.9974 8038 89.6549
80.1147 6820 82.5833
80.2319 5947 77.1168
80.3491 6081 77.9808
80.4664 6897 83.0482
80.5837 7942 89.1179
80.701 9285 96.3587
80.8183 9571 97.8315
80.9357 9730 98.6408
81.053 9784 98.9141
81.1704 9869 99.3428
81.2877 9749 98.737
81.4051 9721 98.5951
81.5225 9510 97.5192
81.6399 9086 95.3205
81.7573 8649 93
81.8747 8513 92.2659
81.9922 8733 93.4505
82.1096 8771 93.6536
82.227 8982 94.7734
82.3444 9359 96.7419
82.4619 9670 98.3362
82.5793 9801 99
82.6967 10216 101.074
82.8142 10314 101.558
82.9316 10106 100.529
83.049 10230 101.143
83.1664 9990 99.95
83.2838 9838 99.1867
83.4012 9524 97.591
83.5186 9267 96.2653
83.636 8352 91.3893
83.7534 7271 85.2702
83.8708 6126 78.2688
83.9881 5789 76.0855
84.1055 6235 78.962
84.2228 7136 84.4748
84.3401 8447 91.9076
84.4575 9419 97.0515
84.5747 9690 98.4378
84.692 10060 100.3
84.8093 9789 98.9394
84.9265 10112 100.558
85.0437 9536 97.6524
85.1609 9022 94.9842
85.2781 9006 94.8999
85.3952 8814 93.8829
85.5123 8674 93.1343
85.6294 8657 93.043
85.7465 9089 95.3362
85.8636 9330 96.5919
85.9806 9493 97.432
86.0976 9799 98.9899
86.2145 9919 99.5942
86.3315 10086 100.429
86.4484 10229 101.139
86.5652 10206 101.025
86.682 10123 100.613
86.7988 10027 100.135
86.9156 9704 98.5089
87.0323 9474 97.3345
87.149 8791 93.7603
87.2657 8121 90.1166
87.3823 6732 82.0488
87.4988 5794 76.1183
87.6154 5561 74.5721
87.7318 6221 78.8733
87.8483 7205 84.8823
87.9647 8287 91.033
88.081 8881 94.2391
88.1973 8617 92.8278
88.3136 8540 92.4121
88.4298 7917 88.9775
88.546 7309 85.4927
88.6621 6154 78.4474
88.7781 4816 69.3974
88.8942 0 1
89.0101 0 1
89.126 0 1
89.2419 0 1
89.3577 0 1
89.4734 0 1
89.5891 0 1
89.7047 0 1
89.8203 0 1
89.9358 0 1
92.3269 0 1
92.4424 0 1
92.558 0 1
92.6736 0 1
92.7893 0 1
92.905 0 1
93.0208 0 1
93.1366 0 1
93.2525 0 1
93.3685 0 1
93.4845 0 1
93.6005 5601 74.8398
93.7167 6232 78.943
93.8328 6631 81.431
93.949 6965 83.4566
94.0653 7409 86.0755
94.1816 8050 89.7218
94.2979 8478 92.0761
94.4143 8963 94.6731
94.5307 9187 95.8488
94.6472 9144 95.6243
94.7637 8907 94.3769
94.8803 9321 96.5453
94.9969 9604 98
95.1135 9691 98.4429
95.2302 9973 99.8649
95.3469 9937 99.6845
95.4637 10240 101.193
95.5805 10284 101.41
95.6973 10367 101.818
95.8142 10328 101.627
95.9311 10077 100.384
96.048 10032 100.16
96.1649 9799 98.9899
96.2819 9362 96.7574
96.3989 8736 93.4666
96.516 8086 89.9222
96.633 6700 81.8535
96.7501 5860 76.5506
96.8673 5705 75.5315
96.9844 6463 80.3928
97.1016 7301 85.4459
97.2188 8671 93.1182
97.336 9589 97.9234
97.4532 10001 100.005
97.5704 10262 101.302
97.6877 9991 99.955
97.805 9932 99.6594
97.9223 9771 98.8484
98.0396 9574 97.8468
98.1569 9289 96.3795
98.2743 9065 95.2103
98.3916 8888 94.2762
98.509 9284 96.3535
98.6264 9616 98.0612
98.7438 9701 98.4937
98.8612 9922 99.6092
98.9786 10037 100.185
99.096 10225 101.119
99.2134 10567 102.796
99.3308 10518 102.557
99.4482 10452 102.235
99.5656 10485 102.396
99.6831 10488 102.411
99.8005 10175 100.871
99.9179 9510 97.5192
100.035 8834 93.9894
100.153 7851 88.6059
100.27 6596 81.2158
100.388 6189 78.6702
100.505 6695 81.823
100.622 7729 87.9147
100.74 9243 96.1405
100.857 10176 100.876
100.975 10334 101.656
101.092 10271 101.346
101.209 10423 102.093
101.327 10170 100.846
101.444 10149 100.742
101.561 9836 99.1766
101.679 9643 98.1988
101.796 9352 96.7057
101.913 9403 96.9691
102.03 9549 97.719
102.148 9661 98.2904
102.265 9796 98.9747
102.382 10275 101.366
102.499 10357 101.769
102.616 10828 104.058
102.733 10742 103.644
102.851 10904 104.422
102.968 10823 104.034
103.085 10779 103.822
103.202 11121 105.456
103.319 10539 102.66
103.436 9933 99.6644
103.552 9163 95.7236
103.669 8213 90.6256
103.786 6643 81.5046
103.903 6285 79.278
104.02 6684 81.7557
104.137 7915 88.9663
104.253 9260 96.2289
104.37 10143 100.712
104.487 10878 104.298
104.603 10690 103.392
104.72 10753 103.697
104.836 10342 101.696
104.953 10290 101.44
105.069 9834 99.1665
105.186 9574 97.8468
105.302 9210 95.9687
105.418 9200 95.9166
105.535 9218 96.0104
105.651 9196 95.8958
105.767 8987 94.7998
105.883 8471 92.038
105.999 7601 87.1837
106.115 0 1
106.231 0 1
106.347 0 1
106.463 0 1
106.579 0 1
106.694 0 1
106.81 0 1
106.926 0 1
107.041 0 1
107.157 0 1
109.576 0 1
109.692 0 1
109.807 0 1
109.923 0 1
110.039 0 1
110.155 0 1
110.27 0 1
110.386 0 1
110.502 0 1
110.618 3737 61.131
110.735 4564 67.5574
110.851 5332 73.0205
110.967 6005 77.4919
111.083 6747 82.1401
111.199 7681 87.6413
111.316 8276 90.9725
111.432 8630 92.8978
111.549 9189 95.8593
111.665 9524 97.591
111.782 9506 97.4987
111.898 9445 97.1854
112.015 8834 93.9894
112.132 7968 89.2637
112.248 6822 82.5954
112.365 5701 75.505
112.482 5295 72.7668
112.599 5933 77.026
112.716 6753 82.1766
112.832 7961 89.2244
112.949 9051 95.1367
113.066 9307 96.4728
113.183 9310 96.4883
113.3 9544 97.6934
113.417 9277 96.3172
113.534 9260 96.2289
113.652 8763 93.6109
113.769 8778 93.691
113.886 8509 92.2442
114.003 8559 92.5149
114.12 8741 93.4933
114.238 9172 95.7706
114.355 9079 95.2838
114.472 9724 98.6103
114.589 9388 96.8917
114.707 9634 98.1529
114.824 9522 97.5807
114.942 9892 99.4585
115.059 9737 98.6762
115.176 9794 98.9646
115.294 9730 98.6408
115.411 9527 97.6064
115.529 9204 95.9375
115.646 8320 91.214
115.764 7361 85.7963
115.881 6240 78.9937
115.999 5428 73.675
116.116 5773 75.9803
116.234 6469 80.4301
116.351 7540 86.8332
116.469 8691 93.2255
116.586 9152 95.6661
116.704 9192 95.8749
116.821 9085 95.3153
116.939 9283 96.3483
117.056 9248 96.1665
117.174 9018 94.9632
117.291 8493 92.1575
117.409 8646 92.9839
117.526 8481 92.0923
117.644 8543 92.4284
117.761 8882 94.2444
117.879 9093 95.3572
117.996 9249 96.1717
118.114 9544 97.6934
118.231 9422 97.067
118.349 9624 98.102
118.466 9722 98.6002
118.584 9773 98.8585
118.701 9623 98.0969
118.819 9607 98.0153
118.936 8938 94.541
119.053 8925 94.4722
119.171 8462 91.9891
119.288 7941 89.1123
119.405 6888 82.994
119.523 5866 76.5898
119.64 5255 72.4914
119.757 5508 74.2159
119.875 6265 79.1518
119.992 7148 84.5458
120.109 8149 90.2718
120.226 8609 92.7847
120.343 8826 93.9468
120.46 8903 94.3557
120.578 9036 95.0579
120.695 8857 94.1116
120.812 8716 93.3595
120.929 8438 91.8586
121.046 8312 91.1702
121.163 8197 90.5373
121.279 8016 89.5321
121.396 8250 90.8295
121.513 8523 92.3201
121.63 8613 92.8062
121.747 8677 93.1504
121.863 8700 93.2738
121.98 8683 93.1826
122.097 8644 92.9731
122.213 8601 92.7416
122.33 8313 91.1757
122.446 8388 91.586
122.563 7978 89.3197
122.679 7432 86.209
122.795 6833 82.662
122.912 5651 75.1731
123.028 4417 66.4605
123.144 3438 58.6345
123.26 2764 52.5738
123.377 0 1
123.493 0 1
123.609 0 1
123.725 0 1
123.84 0 1
123.956 0 1
124.072 0 1
124.188 0 1
124.303 0 1
124.419 0 1
126.852 0 1
126.968 0 1
127.083 0 1
127.199 0 1
127.315 0 1
127.431 0 1
127.547 0 1
127.663 0 1
127.779 0 1
127.895 0 1
128.011 0 1
128.127 0 1
128.243 0 1
128.359 6948 83.3547
128.476 7195 84.8233
128.592 6840 82.7043
128.708 5830 76.3544
128.825 5959 77.1946
128.941 6627 81.4064
129.058 7600 87.178
129.174 8586 92.6607
129.291 9317 96.5246
129.408 9631 98.1377
129.524 9664 98.3056
129.641 9621 98.0867
129.758 9558 97.765
129.875 9662 98.2955
129.992 9244 96.1457
130.108 9211 95.974
130.225 9029 95.0211
130.342 9021 94.9789
130.459 9020 94.9737
130.576 9011 94.9263
130.693 9501 97.4731
130.81 9719 98.585
130.928 9631 98.1377
131.045 9786 98.9242
131.162 9562 97.7855
131.279 9741 98.6965
131.396 9517 97.5551
131.513 9364 96.7678
131.631 9237 96.1093
131.748 8935 94.5251
131.865 8682 93.1773
131.983 8229 90.7138
132.1 7103 84.2793
132.217 5943 77.0909
132.335 5745 75.7958
132.452 6114 78.1921
132.57 6971 83.4925
132.687 8203 90.5704
132.804 8961 94.6626
132.922 9235 96.0989
133.039 9326 96.5712
133.157 9390 96.902
133.274 9363 96.7626
133.392 9402 96.9639
133.509 9205 95.9427
133.627 9047 95.1157
133.744 8994 94.8367
133.862 8693 93.2363
133.979 8747 93.5254
134.097 9070 95.2365
134.214 9098 95.3834
134.332 9373 96.8143
134.449 9388 96.8917
134.567 9407 96.9897
134.684 9283 96.3483
134.802 9122 95.5092
134.919 9249 96.1717
135.037 9124 95.5196
135.154 8996 94.8472
135.272 8615 92.817
135.389 8447 91.9076
135.507 8109 90.05
135.624 7087 84.1843
135.742 6226 78.905
135.859 5769 75.9539
135.977 5911 76.883
136.094 6592 81.1911
136.211 7631 87.3556
136.329 8632 92.9086
136.446 9081 95.2943
136.564 9190 95.8645
136.681 9160 95.7079
136.798 9229 96.0677
136.915 9376 96.8297
137.033 9241 96.1301
137.15 9137 95.5877
137.267 9026 95.0053
137.384 8897 94.3239
137.502 8817 93.8989
137.619 8706 93.3059
137.736 8641 92.957
137.853 8484 92.1086
137.97 8641 92.957
138.087 9145 95.6295
138.204 9149 95.6504
138.321 8822 93.9255
138.438 8952 94.615
138.555 9029 95.0211
138.672 8834 93.9894
138.788 8652 93.0161
138.905 8211 90.6146
139.022 7646 87.4414
139.139 7603 87.1952
139.255 6968 83.4745
139.372 5886 76.7203
139.488 4980 70.5691
139.605 4920 70.1427
139.721 5099 71.4073
139.838 5647 75.1465
139.954 6284 79.2717
140.071 6277 79.2275
140.187 5322 72.952
140.303 4757 68.971
140.419 4254 65.2227
140.535 3973 63.0317
140.652 3742 61.1719
140.768 0 1
140.884 0 1
141 0 1
141.115 0 1
141.231 0 1
141.347 0 1
141.463 0 1
141.578 0 1
141.694 0 1
144.104 0 1
144.219 0 1
144.335 0 1
144.45 0 1
144.566 0 1
144.682 0 1
144.798 0 1
144.914 0 1
145.03 0 1
145.146 5276 72.6361
145.262 5975 77.2981
145.378 6511 80.6908
145.494 6936 83.2827
145.61 6957 83.4086
145.726 7052 83.9762
145.842 7034 83.8689
145.959 6912 83.1384
146.075 6803 82.4803
146.192 6741 82.1036
146.308 6605 81.2712
146.425 6507 80.666
146.541 6655 81.5782
146.658 6591 81.185
146.774 6762 82.2314
146.891 6768 82.2679
147.008 6692 81.8046
147.125 6694 81.8169
147.241 6772 82.2922
147.358 6615 81.3327
147.475 6588 81.1665
147.592 6650 81.5475
147.709 6421 80.1311
147.826 6101 78.1089
147.943 5786 76.0658
148.06 5434 73.7157
148.177 4937 70.2638
148.294 4477 66.9104
148.411 4677 68.3886
148.528 5176 71.9444
148.645 5559 74.5587
148.762 6286 79.2843
148.88 7003 83.6839
148.997 6929 83.2406
149.114 6602 81.2527
149.231 6911 83.1324
149.349 6945 83.3367
149.466 6829 82.6378
149.583 6736 82.0731
149.701 6699 81.8474
149.818 6644 81.5107
149.935 6624 81.388
150.053 6604 81.265
150.17 6602 81.2527
150.287 6499 80.6164
150.405 6666 81.6456
150.522 6668 81.6578
150.64 6687 81.7741
150.757 6828 82.6317
150.875 6800 82.4621
150.992 6805 82.4924
151.11 6820 82.5833
151.227 6765 82.2496
151.344 6412 80.075
151.462 6079 77.9679
151.579 5753 75.8485
151.697 5606 74.8732
151.814 4946 70.3278
151.932 4630 68.0441
152.049 4753 68.942
152.167 5118 71.5402
152.284 5534 74.3909
152.402 6271 79.1896
152.519 6638 81.4739
152.636 6844 82.7285
152.754 6848 82.7526
152.871 6818 82.5712
152.989 6970 83.4865
153.106 6687 81.7741
153.223 6697 81.8352
153.341 6563 81.0123
153.458 6591 81.185
153.575 6410 80.0625
153.693 6669 81.6639
153.81 6573 81.074
153.927 6361 79.7559
154.044 6551 80.9382
154.162 6556 80.9691
154.279 6568 81.0432
154.396 6631 81.431
154.513 6733 82.0549
154.63 6734 82.061
154.747 6756 82.1949
154.864 6731 82.0427
154.981 6285 79.278
155.098 6128 78.2815
155.215 5814 76.2496
155.332 5471 73.9662
155.449 4873 69.8069
155.566 4762 69.0072
155.683 5054 71.0915
155.8 5167 71.8818
155.917 5797 76.138
156.033 6325 79.5299
156.15 0 1
156.267 0 1
156.383 0 1
156.5 0 1
156.617 0 1
156.733 0 1
156.85 0 1
156.966 0 1
157.082 0 1
157.199 0 1
157.315 0 1
157.431 0 1
157.547 0 1
157.664 0 1
157.78 0 1
157.896 0 1
158.012 0 1
158.128 0 1
158.244 0 1
158.359 0 1
158.475 0 1
158.591 0 1
158.706 0 1
