
6.15755 0 1
6.2731 0 1
6.3887 0 1
6.50437 0 1
6.62009 0 1
6.73587 0 1
6.8517 0 1
6.96759 0 1
7.08353 0 1
7.19952 0 1
7.31557 0 1
7.43166 0 1
7.54781 0 1
7.664 0 1
7.78024 0 1
7.89653 0 1
8.01286 0 1
8.12924 0 1
8.24567 0 1
8.36213 0 1
8.47864 0 1
8.59519 0 1
8.71178 0 1
8.82841 0 1
8.94508 0 1
9.06179 0 1
9.17853 0 1
9.29531 0 1
9.41212 0 1
9.52897 0 1
9.64584 0 1
9.76276 0 1
9.8797 0 1
9.99667 0 1
10.1137 0 1
10.2307 0 1
10.3478 0 1
10.4648 0 1
10.5819 0 1
10.6991 0 1
10.8162 0 1
10.9334 0 1
11.0506 0 1
11.1678 0 1
11.285 0 1
11.4023 0 1
11.5196 0 1
11.6369 0 1
11.7542 0 1
11.8715 0 1
11.9888 0 1
12.1062 0 1
12.2235 0 1
12.3409 0 1
12.4582 0 1
12.5756 0 1
12.693 0 1
12.8104 0 1
12.9278 0 1
13.0452 0 1
13.1626 0 1
13.28 0 1
13.3974 0 1
13.5149 0 1
13.6323 0 1
13.7497 0 1
13.8671 0 1
13.9845 0 1
14.1019 0 1
14.2193 0 1
14.3367 0 1
14.4541 0 1
14.5714 0 1
14.6888 0 1
14.8062 0 1
14.9235 0 1
15.0408 1048 32.3728
15.1581 977 31.257
15.2755 1062 32.5883
15.3927 1057 32.5115
15.51 994 31.5278
15.6273 963 31.0322
15.7445 900 30
15.8617 974 31.209
15.9789 950 30.8221
16.0961 950 30.8221
16.2132 945 30.7409
16.3304 969 31.1288
16.4475 958 30.9516
16.5646 946 30.7571
16.6816 839 28.9655
16.7986 846 29.0861
16.9156 833 28.8617
17.0326 898 29.9666
17.1496 778 27.8927
17.2665 826 28.7402
17.3833 821 28.6531
17.5002 828 28.775
17.617 887 29.7825
17.7338 874 29.5635
17.8505 876 29.5973
17.9672 828 28.775
18.0839 802 28.3196
18.2005 789 28.0891
18.3171 935 30.5778
18.4337 887 29.7825
18.5502 827 28.7576
18.6666 864 29.3939
18.7831 850 29.1548
18.8994 868 29.4618
19.0158 811 28.4781
19.1321 728 26.9815
19.2483 693 26.3249
19.3645 660 25.6905
19.4806 685 26.1725
19.5967 707 26.5895
19.7128 698 26.4197
19.8288 626 25.02
19.9447 573 23.9374
20.0606 0 1
20.1764 0 1
20.2922 0 1
20.4079 0 1
20.5236 0 1
20.6392 0 1
20.7548 0 1
20.8702 0 1
23.3078 0 1
23.4233 0 1
23.539 0 1
23.6547 0 1
23.7704 0 1
23.8862 0 1
24.0021 0 1
24.118 0 1
24.234 0 1
24.35 0 1
24.4661 355 18.8414
24.5822 390 19.7484
24.6984 509 22.561
24.8146 564 23.7487
24.9309 651 25.5147
25.0472 680 26.0768
25.1636 791 28.1247
25.28 856 29.2575
25.3965 880 29.6648
25.513 905 30.0832
25.6296 958 30.9516
25.7462 937 30.6105
25.8628 984 31.3688
25.9795 963 31.0322
26.0962 943 30.7083
26.213 870 29.4958
26.3298 821 28.6531
26.4466 769 27.7308
26.5635 809 28.4429
26.6804 800 28.2843
26.7973 780 27.9285
26.9143 748 27.3496
27.0313 692 26.3059
27.1483 760 27.5681
27.2653 771 27.7669
27.3824 819 28.6182
27.4996 830 28.8097
27.6167 791 28.1247
27.7339 825 28.7228
27.8511 751 27.4044
27.9683 767 27.6948
28.0855 802 28.3196
28.2028 811 28.4781
28.3201 913 30.2159
28.4374 940 30.6594
28.5547 887 29.7825
28.6721 889 29.8161
28.7894 946 30.7571
28.9068 881 29.6816
29.0242 872 29.5296
29.1416 907 30.1164
29.259 872 29.5296
29.3764 831 28.8271
29.4939 870 29.4958
29.6113 892 29.8664
29.7288 896 29.9333
29.8463 927 30.4467
29.9638 977 31.257
30.0812 855 29.2404
30.1987 874 29.5635
30.3162 919 30.315
30.4337 910 30.1662
30.5512 998 31.5911
30.6687 1015 31.8591
30.7862 1060 32.5576
30.9037 1132 33.6452
31.0212 1095 33.0908
31.1387 1067 32.665
31.2562 1059 32.5423
31.3737 961 31
31.4912 901 30.0167
31.6087 951 30.8383
31.7262 924 30.3974
31.8436 926 30.4302
31.9611 970 31.1448
32.0785 966 31.0805
32.1959 956 30.9192
32.3134 970 31.1448
32.4308 950 30.8221
32.5482 923 30.3809
32.6655 935 30.5778
32.7829 939 30.6431
32.9002 879 29.6479
33.0176 924 30.3974
33.1349 930 30.4959
33.2522 941 30.6757
33.3694 959 30.9677
33.4867 981 31.3209
33.6039 978 31.273
33.7211 942 30.692
33.8383 904 30.0666
33.9554 829 28.7924
34.0725 814 28.5307
34.1896 866 29.4279
34.3067 818 28.6007
34.4237 813 28.5132
34.5407 832 28.8444
34.6577 851 29.1719
34.7746 899 29.9833
34.8915 830 28.8097
35.0084 811 28.4781
35.1252 790 28.1069
35.242 735 27.1109
35.3587 731 27.037
35.4755 757 27.5136
35.5921 833 28.8617
35.7088 858 29.2916
35.8254 788 28.0713
35.9419 740 27.2029
36.0584 762 27.6043
36.1749 735 27.1109
36.2913 685 26.1725
36.4077 680 26.0768
36.524 646 25.4165
36.6403 635 25.1992
36.7565 587 24.2281
36.8727 528 22.9783
36.9889 502 22.4054
37.1049 480 21.9089
37.221 0 1
37.3369 0 1
37.4529 0 1
37.5687 0 1
37.6845 0 1
37.8003 0 1
37.916 0 1
38.0316 0 1
38.1472 0 1
40.5851 0 1
40.7008 0 1
40.8164 0 1
40.9322 0 1
41.048 0 1
41.1639 0 1
41.2798 0 1
41.3958 0 1
41.5118 0 1
41.6279 0 1
41.744 321 17.9165
41.8602 378 19.4422
41.9765 409 20.2237
42.0928 515 22.6936
42.2091 522 22.8473
42.3255 517 22.7376
42.4419 577 24.0208
42.5584 551 23.4734
42.675 580 24.0832
42.7915 582 24.1247
42.9081 582 24.1247
43.0248 544 23.3238
43.1415 579 24.0624
43.2582 575 23.9792
43.375 548 23.4094
43.4918 586 24.2074
43.6087 606 24.6171
43.7256 551 23.4734
43.8425 610 24.6982
43.9595 550 23.4521
44.0765 474 21.7715
44.1935 495 22.2486
44.3106 554 23.5372
44.4277 544 23.3238
44.5448 592 24.3311
44.6619 598 24.454
44.7791 611 24.7184
44.8963 557 23.6008
45.0136 569 23.8537
45.1308 585 24.1868
45.2481 593 24.3516
45.3654 593 24.3516
45.4827 642 25.3377
45.6001 613 24.7588
45.7174 625 25
45.8348 564 23.7487
45.9522 531 23.0434
46.0697 564 23.7487
46.1871 542 23.2809
46.3046 576 24
46.422 519 22.7816
46.5395 521 22.8254
46.657 503 22.4277
46.7745 531 23.0434
46.892 530 23.0217
47.0096 561 23.6854
47.1271 588 24.2487
47.2446 567 23.8118
47.3622 590 24.2899
47.4797 570 23.8747
47.5973 504 22.4499
47.7149 526 22.9347
47.8324 554 23.5372
47.95 502 22.4054
48.0675 595 24.3926
48.1851 590 24.2899
48.3027 591 24.3105
48.4202 585 24.1868
48.5378 608 24.6577
48.6554 593 24.3516
48.7729 582 24.1247
48.8904 620 24.8998
49.008 601 24.5153
49.1255 654 25.5734
49.243 560 23.6643
49.3605 587 24.2281
49.478 557 23.6008
49.5955 464 21.5407
49.713 530 23.0217
49.8304 530 23.0217
49.9479 491 22.1585
50.0653 511 22.6053
50.1827 476 21.8174
50.3001 489 22.1133
50.4175 506 22.4944
50.5348 535 23.1301
50.6521 572 23.9165
50.7694 582 24.1247
50.8867 549 23.4307
51.004 559 23.6432
51.1212 521 22.8254
51.2384 514 22.6716
51.3556 516 22.7156
51.4727 545 23.3452
51.5899 520 22.8035
51.707 566 23.7908
51.824 532 23.0651
51.9411 539 23.2164
52.0581 538 23.1948
52.175 525 22.9129
52.2919 528 22.9783
52.4088 498 22.3159
52.5257 581 24.1039
52.6425 536 23.1517
52.7593 570 23.8747
52.876 506 22.4944
52.9927 581 24.1039
53.1094 498 22.3159
53.226 499 22.3383
53.3426 502 22.4054
53.4591 457 21.3776
53.5756 454 21.3073
53.692 401 20.025
53.8084 469 21.6564
53.9248 394 19.8494
54.0411 384 19.5959
54.1573 331 18.1934
54.2735 0 1
54.3896 0 1
54.5057 0 1
54.6217 0 1
54.7377 0 1
54.8537 0 1
54.9695 0 1
55.0853 0 1
55.2011 0 1
55.3168 0 1
55.4324 0 1
57.824 0 1
57.9396 0 1
58.0553 0 1
58.1711 0 1
58.2869 0 1
58.4028 0 1
58.5187 0 1
58.6347 0 1
58.7508 0 1
58.8669 0 1
58.983 631 25.1197
59.0992 842 29.0172
59.2155 955 30.9031
59.3318 1113 33.3617
59.4482 1238 35.1852
59.5646 1417 37.6431
59.681 1390 37.2827
59.7975 1431 37.8286
59.9141 1370 37.0135
60.0306 1343 36.647
60.1473 1407 37.51
60.2639 1411 37.5633
60.3807 1460 38.2099
60.4974 1416 37.6298
60.6142 1397 37.3765
60.731 1352 36.7696
60.8479 1325 36.4005
60.9648 1377 37.108
61.0818 1343 36.647
61.1987 1398 37.3898
61.3158 1288 35.8887
61.4328 1268 35.609
61.5499 1183 34.3948
61.667 1186 34.4384
61.7841 1145 33.8378
61.9013 1100 33.1662
62.0185 1024 32
62.1357 964 31.0483
62.253 882 29.6985
62.3702 915 30.249
62.4875 846 29.0861
62.6049 868 29.4618
62.7222 938 30.6268
62.8396 894 29.8998
62.9569 865 29.4109
63.0743 816 28.5657
63.1918 754 27.4591
63.3092 793 28.1603
63.4267 730 27.0185
63.5441 711 26.6646
63.6616 690 26.2679
63.7791 672 25.923
63.8966 680 26.0768
64.0142 705 26.5518
64.1317 660 25.6905
64.2492 678 26.0384
64.3668 626 25.02
64.4843 728 26.9815
64.6019 653 25.5539
64.7195 618 24.8596
64.837 634 25.1794
64.9546 647 25.4362
65.0722 607 24.6374
65.1898 647 25.4362
65.3074 605 24.5967
65.4249 640 25.2982
65.5425 617 24.8395
65.6601 604 24.5764
65.7777 589 24.2693
65.8952 604 24.5764
66.0128 624 24.98
66.1304 620 24.8998
66.2479 627 25.04
66.3655 670 25.8844
66.483 632 25.1396
66.6005 672 25.923
66.718 673 25.9422
66.8355 661 25.7099
66.953 650 25.4951
67.0705 621 24.9199
67.1879 683 26.1343
67.3054 597 24.4336
67.4228 661 25.7099
67.5402 681 26.096
67.6576 634 25.1794
67.7749 676 26
67.8923 700 26.4575
68.0096 585 24.1868
68.1269 588 24.2487
68.2442 613 24.7588
68.3614 648 25.4558
68.4787 662 25.7294
68.5958 605 24.5967
68.713 681 26.096
68.8302 634 25.1794
68.9473 609 24.6779
69.0643 604 24.5764
69.1814 603 24.5561
69.2984 569 23.8537
69.4154 589 24.2693
69.5323 583 24.1454
69.6492 533 23.0868
69.7661 599 24.4745
69.8829 572 23.9165
69.9997 618 24.8596
70.1165 624 24.98
70.2332 658 25.6515
70.3499 559 23.6432
70.4665 609 24.6779
70.5831 539 23.2164
70.6996 450 21.2132
70.8161 428 20.6882
70.9326 373 19.3132
71.049 385 19.6214
71.1653 382 19.5448
71.2817 347 18.6279
71.3979 334 18.2757
71.5141 289 17
71.6303 281 16.7631
71.7464 222 14.8997
71.8624 0 1
71.9784 0 1
72.0944 0 1
72.2102 0 1
72.3261 0 1
72.4418 0 1
72.5575 0 1
72.6732 0 1
75.1054 0 1
75.2209 0 1
75.3365 0 1
75.4521 0 1
75.5678 0 1
75.6835 0 1
75.7993 0 1
75.9151 0 1
76.031 0 1
76.147 384 19.5959
76.263 455 21.3307
76.3791 495 22.2486
76.4952 507 22.5167
76.6113 481 21.9317
76.7276 595 24.3926
76.8438 595 24.3926
76.9601 578 24.0416
77.0765 550 23.4521
77.1929 509 22.561
77.3093 515 22.6936
77.4258 530 23.0217
77.5423 554 23.5372
77.6589 545 23.3452
77.7755 567 23.8118
77.8921 568 23.8328
78.0088 568 23.8328
78.1256 531 23.0434
78.2423 503 22.4277
78.3591 481 21.9317
78.4759 447 21.1424
78.5928 498 22.3159
78.7097 491 22.1585
78.8266 527 22.9565
78.9436 539 23.2164
79.0606 538 23.1948
79.1776 531 23.0434
79.2946 528 22.9783
79.4117 606 24.6171
79.5288 581 24.1039
79.6459 579 24.0624
79.7631 560 23.6643
79.8802 493 22.2036
79.9974 549 23.4307
80.1147 533 23.0868
80.2319 590 24.2899
80.3491 592 24.3311
80.4664 612 24.7386
80.5837 589 24.2693
80.701 558 23.622
80.8183 566 23.7908
80.9357 586 24.2074
81.053 541 23.2594
81.1704 525 22.9129
81.2877 554 23.5372
81.4051 582 24.1247
81.5225 564 23.7487
81.6399 553 23.516
81.7573 555 23.5584
81.8747 538 23.1948
81.9922 506 22.4944
82.1096 477 21.8403
82.227 406 20.1494
82.3444 510 22.5832
82.4619 484 22
82.5793 520 22.8035
82.6967 525 22.9129
82.8142 545 23.3452
82.9316 580 24.0832
83.049 647 25.4362
83.1664 610 24.6982
83.2838 587 24.2281
83.4012 612 24.7386
83.5186 527 22.9565
83.636 542 23.2809
83.7534 560 23.6643
83.8708 550 23.4521
83.9881 591 24.3105
84.1055 568 23.8328
84.2228 613 24.7588
84.3401 599 24.4745
84.4575 586 24.2074
84.5747 529 23
84.692 594 24.3721
84.8093 601 24.5153
84.9265 576 24
85.0437 571 23.8956
85.1609 553 23.516
85.2781 555 23.5584
85.3952 541 23.2594
85.5123 534 23.1084
85.6294 521 22.8254
85.7465 510 22.5832
85.8636 578 24.0416
85.9806 526 22.9347
86.0976 557 23.6008
86.2145 535 23.1301
86.3315 585 24.1868
86.4484 605 24.5967
86.5652 602 24.5357
86.682 644 25.3772
86.7988 626 25.02
86.9156 586 24.2074
87.0323 576 24
87.149 613 24.7588
87.2657 600 24.4949
87.3823 568 23.8328
87.4988 578 24.0416
87.6154 610 24.6982
87.7318 507 22.5167
87.8483 555 23.5584
87.9647 444 21.0713
88.081 483 21.9773
88.1973 415 20.3715
88.3136 396 19.8997
88.4298 346 18.6011
88.546 331 18.1934
88.6621 353 18.7883
88.7781 310 17.6068
88.8942 0 1
89.0101 0 1
89.126 0 1
89.2419 0 1
89.3577 0 1
89.4734 0 1
89.5891 0 1
89.7047 0 1
89.8203 0 1
89.9358 0 1
92.3269 0 1
92.4424 0 1
92.558 0 1
92.6736 0 1
92.7893 0 1
92.905 0 1
93.0208 0 1
93.1366 0 1
93.2525 0 1
93.3685 0 1
93.4845 0 1
93.6005 485 22.0227
93.7167 536 23.1517
93.8328 575 23.9792
93.949 518 22.7596
94.0653 579 24.0624
94.1816 518 22.7596
94.2979 561 23.6854
94.4143 548 23.4094
94.5307 520 22.8035
94.6472 575 23.9792
94.7637 582 24.1247
94.8803 578 24.0416
94.9969 589 24.2693
95.1135 566 23.7908
95.2302 585 24.1868
95.3469 601 24.5153
95.4637 577 24.0208
95.5805 614 24.779
95.6973 596 24.4131
95.8142 609 24.6779
95.9311 651 25.5147
96.048 603 24.5561
96.1649 602 24.5357
96.2819 608 24.6577
96.3989 587 24.2281
96.516 603 24.5561
96.633 583 24.1454
96.7501 626 25.02
96.8673 627 25.04
96.9844 606 24.6171
97.1016 624 24.98
97.2188 623 24.96
97.336 571 23.8956
97.4532 575 23.9792
97.5704 616 24.8193
97.6877 531 23.0434
97.805 531 23.0434
97.9223 582 24.1247
98.0396 562 23.7065
98.1569 535 23.1301
98.2743 545 23.3452
98.3916 565 23.7697
98.509 584 24.1661
98.6264 582 24.1247
98.7438 593 24.3516
98.8612 522 22.8473
98.9786 564 23.7487
99.096 638 25.2587
99.2134 587 24.2281
99.3308 660 25.6905
99.4482 631 25.1197
99.5656 627 25.04
99.6831 555 23.5584
99.8005 632 25.1396
99.9179 605 24.5967
100.035 634 25.1794
100.153 616 24.8193
100.27 641 25.318
100.388 606 24.6171
100.505 615 24.7992
100.622 605 24.5967
100.74 583 24.1454
100.857 576 24
100.975 563 23.7276
101.092 581 24.1039
101.209 591 24.3105
101.327 517 22.7376
101.444 554 23.5372
101.561 530 23.0217
101.679 551 23.4734
101.796 624 24.98
101.913 585 24.1868
102.03 625 25
102.148 627 25.04
102.265 614 24.779
102.382 564 23.7487
102.499 619 24.8797
102.616 633 25.1595
102.733 620 24.8998
102.851 657 25.632
102.968 652 25.5343
103.085 620 24.8998
103.202 648 25.4558
103.319 699 26.4386
103.436 601 24.5153
103.552 720 26.8328
103.669 646 25.4165
103.786 656 25.6125
103.903 662 25.7294
104.02 627 25.04
104.137 655 25.593
104.253 665 25.7876
104.37 650 25.4951
104.487 647 25.4362
104.603 628 25.0599
104.72 623 24.96
104.836 585 24.1868
104.953 549 23.4307
105.069 564 23.7487
105.186 541 23.2594
105.302 523 22.8692
105.418 486 22.0454
105.535 481 21.9317
105.651 423 20.567
105.767 394 19.8494
105.883 354 18.8149
105.999 353 18.7883
106.115 0 1
106.231 0 1
106.347 0 1
106.463 0 1
106.579 0 1
106.694 0 1
106.81 0 1
106.926 0 1
107.041 0 1
107.157 0 1
109.576 0 1
109.692 0 1
109.807 0 1
109.923 0 1
110.039 0 1
110.155 0 1
110.27 0 1
110.386 0 1
110.502 0 1
110.618 348 18.6548
110.735 392 19.799
110.851 468 21.6333
110.967 451 21.2368
111.083 469 21.6564
111.199 532 23.0651
111.316 582 24.1247
111.432 560 23.6643
111.549 577 24.0208
111.665 610 24.6982
111.782 567 23.8118
111.898 592 24.3311
112.015 593 24.3516
112.132 543 23.3024
112.248 603 24.5561
112.365 552 23.4947
112.482 598 24.454
112.599 576 24
112.716 597 24.4336
112.832 555 23.5584
112.949 509 22.561
113.066 564 23.7487
113.183 497 22.2935
113.3 484 22
113.417 497 22.2935
113.534 507 22.5167
113.652 475 21.7945
113.769 502 22.4054
113.886 493 22.2036
114.003 503 22.4277
114.12 532 23.0651
114.238 537 23.1733
114.355 554 23.5372
114.472 595 24.3926
114.589 533 23.0868
114.707 488 22.0907
114.824 506 22.4944
114.942 525 22.9129
115.059 619 24.8797
115.176 604 24.5764
115.294 519 22.7816
115.411 513 22.6495
115.529 542 23.2809
115.646 480 21.9089
115.764 494 22.2261
115.881 522 22.8473
115.999 527 22.9565
116.116 496 22.2711
116.234 495 22.2486
116.351 540 23.2379
116.469 532 23.0651
116.586 500 22.3607
116.704 510 22.5832
116.821 472 21.7256
116.939 489 22.1133
117.056 438 20.9284
117.174 434 20.8327
117.291 452 21.2603
117.409 464 21.5407
117.526 451 21.2368
117.644 476 21.8174
117.761 500 22.3607
117.879 513 22.6495
117.996 506 22.4944
118.114 472 21.7256
118.231 486 22.0454
118.349 467 21.6102
118.466 478 21.8632
118.584 468 21.6333
118.701 500 22.3607
118.819 518 22.7596
118.936 466 21.587
119.053 432 20.7846
119.171 491 22.1585
119.288 508 22.5389
119.405 488 22.0907
119.523 528 22.9783
119.64 465 21.5639
119.757 449 21.1896
119.875 492 22.1811
119.992 484 22
120.109 484 22
120.226 465 21.5639
120.343 440 20.9762
120.46 462 21.4942
120.578 468 21.6333
120.695 427 20.664
120.812 426 20.6398
120.929 372 19.2873
121.046 400 20
121.163 395 19.8746
121.279 442 21.0238
121.396 428 20.6882
121.513 408 20.199
121.63 444 21.0713
121.747 437 20.9045
121.863 406 20.1494
121.98 388 19.6977
122.097 386 19.6469
122.213 406 20.1494
122.33 427 20.664
122.446 337 18.3576
122.563 341 18.4662
122.679 287 16.9411
122.795 276 16.6132
122.912 307 17.5214
123.028 230 15.1658
123.144 274 16.5529
123.26 264 16.2481
123.377 0 1
123.493 0 1
123.609 0 1
123.725 0 1
123.84 0 1
123.956 0 1
124.072 0 1
124.188 0 1
124.303 0 1
124.419 0 1
126.852 0 1
126.968 0 1
127.083 0 1
127.199 0 1
127.315 0 1
127.431 0 1
127.547 0 1
127.663 0 1
127.779 0 1
127.895 0 1
128.011 0 1
128.127 0 1
128.243 0 1
128.359 528 22.9783
128.476 500 22.3607
128.592 541 23.2594
128.708 463 21.5174
128.825 542 23.2809
128.941 570 23.8747
129.058 563 23.7276
129.174 521 22.8254
129.291 507 22.5167
129.408 546 23.3666
129.524 529 23
129.641 543 23.3024
129.758 537 23.1733
129.875 488 22.0907
129.992 447 21.1424
130.108 505 22.4722
130.225 456 21.3542
130.342 543 23.3024
130.459 563 23.7276
130.576 568 23.8328
130.693 624 24.98
130.81 589 24.2693
130.928 622 24.9399
131.045 613 24.7588
131.162 635 25.1992
131.279 642 25.3377
131.396 728 26.9815
131.513 745 27.2947
131.631 710 26.6458
131.748 665 25.7876
131.865 756 27.4955
131.983 798 28.2489
132.1 849 29.1376
132.217 931 30.5123
132.335 928 30.4631
132.452 999 31.607
132.57 1039 32.2335
132.687 1085 32.9393
132.804 1089 33
132.922 1178 34.322
133.039 1094 33.0757
133.157 1166 34.1467
133.274 1210 34.7851
133.392 1111 33.3317
133.509 1086 32.9545
133.627 1121 33.4813
133.744 1054 32.4654
133.862 1074 32.7719
133.979 1112 33.3467
134.097 1170 34.2053
134.214 1161 34.0735
134.332 1164 34.1174
134.449 1161 34.0735
134.567 1173 34.2491
134.684 1037 32.2025
134.802 1149 33.8969
134.919 1093 33.0606
135.037 1069 32.6956
135.154 1040 32.249
135.272 996 31.5595
135.389 953 30.8707
135.507 1003 31.6702
135.624 1049 32.3883
135.742 1054 32.4654
135.859 1097 33.121
135.977 1105 33.2415
136.094 1097 33.121
136.211 1055 32.4808
136.329 1102 33.1964
136.446 1069 32.6956
136.564 1061 32.573
136.681 1076 32.8024
136.798 1040 32.249
136.915 1080 32.8634
137.033 988 31.4325
137.15 978 31.273
137.267 978 31.273
137.384 941 30.6757
137.502 954 30.8869
137.619 1033 32.1403
137.736 1073 32.7567
137.853 1022 31.9687
137.97 965 31.0644
138.087 1023 31.9844
138.204 1046 32.3419
138.321 970 31.1448
138.438 1034 32.1559
138.555 1007 31.7333
138.672 998 31.5911
138.788 1013 31.8277
138.905 834 28.8791
139.022 965 31.0644
139.139 956 30.9192
139.255 1013 31.8277
139.372 960 30.9839
139.488 887 29.7825
139.605 885 29.7489
139.721 842 29.0172
139.838 708 26.6083
139.954 721 26.8514
140.071 661 25.7099
140.187 613 24.7588
140.303 561 23.6854
140.419 601 24.5153
140.535 551 23.4734
140.652 562 23.7065
140.768 0 1
140.884 0 1
141 0 1
141.115 0 1
141.231 0 1
141.347 0 1
141.463 0 1
141.578 0 1
141.694 0 1
144.104 0 1
144.219 0 1
144.335 0 1
144.45 0 1
144.566 0 1
144.682 0 1
144.798 0 1
144.914 0 1
145.03 0 1
145.146 1045 32.3265
145.262 1092 33.0454
145.378 1097 33.121
145.494 1116 33.4066
145.61 1077 32.8177
145.726 1092 33.0454
145.842 1207 34.7419
145.959 1110 33.3167
146.075 1109 33.3017
146.192 1198 34.6121
146.308 1146 33.8526
146.425 1205 34.7131
146.541 1249 35.3412
146.658 1303 36.0971
146.774 1360 36.8782
146.891 1339 36.5923
147.008 1346 36.6879
147.125 1268 35.609
147.241 1338 36.5787
147.358 1364 36.9324
147.475 1326 36.4143
147.592 1227 35.0286
147.709 1298 36.0278
147.826 1426 37.7624
147.943 1432 37.8418
148.06 1485 38.5357
148.177 1403 37.4566
148.294 1417 37.6431
148.411 1452 38.1051
148.528 1509 38.8458
148.645 1547 39.3319
148.762 1438 37.921
148.88 1462 38.2361
148.997 1516 38.9358
149.114 1460 38.2099
149.231 1483 38.5097
149.349 1533 39.1535
149.466 1479 38.4578
149.583 1476 38.4187
149.701 1432 37.8418
149.818 1434 37.8682
149.935 1423 37.7227
150.053 1508 38.833
150.17 1434 37.8682
150.287 1491 38.6135
150.405 1519 38.9744
150.522 1444 38
150.64 1503 38.7685
150.757 1435 37.8814
150.875 1418 37.6563
150.992 1371 37.027
151.11 1306 36.1386
151.227 1293 35.9583
151.344 1288 35.8887
151.462 1277 35.7351
151.579 1327 36.428
151.697 1368 36.9865
151.814 1362 36.9053
151.932 1442 37.9737
152.049 1420 37.6829
152.167 1423 37.7227
152.284 1470 38.3406
152.402 1416 37.6298
152.519 1490 38.6005
152.636 1451 38.092
152.754 1436 37.8946
152.871 1439 37.9342
152.989 1451 38.092
153.106 1409 37.5366
153.223 1397 37.3765
153.341 1306 36.1386
153.458 1308 36.1663
153.575 1277 35.7351
153.693 1324 36.3868
153.81 1293 35.9583
153.927 1283 35.819
154.044 1327 36.428
154.162 1327 36.428
154.279 1278 35.7491
154.396 1231 35.0856
154.513 1177 34.3074
154.63 1234 35.1283
154.747 1145 33.8378
154.864 1123 33.5112
154.981 1044 32.311
155.098 1039 32.2335
155.215 1097 33.121
155.332 1159 34.0441
155.449 1135 33.6898
155.566 1253 35.3977
155.683 1145 33.8378
155.8 1202 34.6699
155.917 1159 34.0441
156.033 1123 33.5112
156.15 0 1
156.267 0 1
156.383 0 1
156.5 0 1
156.617 0 1
156.733 0 1
156.85 0 1
156.966 0 1
157.082 0 1
157.199 0 1
157.315 0 1
157.431 0 1
157.547 0 1
157.664 0 1
157.78 0 1
157.896 0 1
158.012 0 1
158.128 0 1
158.244 0 1
158.359 0 1
158.475 0 1
158.591 0 1
158.706 0 1
