
6.15755 0 1
6.2731 0 1
6.3887 0 1
6.50437 0 1
6.62009 0 1
6.73587 0 1
6.8517 0 1
6.96759 0 1
7.08353 0 1
7.19952 0 1
7.31557 0 1
7.43166 0 1
7.54781 0 1
7.664 0 1
7.78024 0 1
7.89653 0 1
8.01286 0 1
8.12924 0 1
8.24567 0 1
8.36213 0 1
8.47864 0 1
8.59519 0 1
8.71178 0 1
8.82841 0 1
8.94508 0 1
9.06179 0 1
9.17853 0 1
9.29531 0 1
9.41212 0 1
9.52897 0 1
9.64584 0 1
9.76276 0 1
9.8797 0 1
9.99667 0 1
10.1137 0 1
10.2307 0 1
10.3478 0 1
10.4648 0 1
10.5819 0 1
10.6991 0 1
10.8162 0 1
10.9334 0 1
11.0506 0 1
11.1678 0 1
11.285 0 1
11.4023 0 1
11.5196 0 1
11.6369 0 1
11.7542 0 1
11.8715 0 1
11.9888 0 1
12.1062 0 1
12.2235 0 1
12.3409 0 1
12.4582 0 1
12.5756 0 1
12.693 0 1
12.8104 0 1
12.9278 0 1
13.0452 0 1
13.1626 0 1
13.28 0 1
13.3974 0 1
13.5149 0 1
13.6323 0 1
13.7497 0 1
13.8671 0 1
13.9845 0 1
14.1019 0 1
14.2193 0 1
14.3367 0 1
14.4541 0 1
14.5714 0 1
14.6888 0 1
14.8062 0 1
14.9235 0 1
15.0408 0 0
15.1581 0 0
15.2755 0 0
15.3927 0 0
15.51 0 0
15.6273 0 0
15.7445 0 0
15.8617 0 0
15.9789 0 0
16.0961 0 0
16.2132 0 0
16.3304 0 0
16.4475 0 0
16.5646 0 0
16.6816 0 0
16.7986 0 0
16.9156 0 0
17.0326 0 0
17.1496 0 0
17.2665 0 0
17.3833 0 0
17.5002 0 0
17.617 0 0
17.7338 0 0
17.8505 0 0
17.9672 0 0
18.0839 0 0
18.2005 0 0
18.3171 0 0
18.4337 0 0
18.5502 0 0
18.6666 0 0
18.7831 0 0
18.8994 0 0
19.0158 0 0
19.1321 0 0
19.2483 0 0
19.3645 0 0
19.4806 0 0
19.5967 0 0
19.7128 0 0
19.8288 0 0
19.9447 0 0
20.0606 0 1
20.1764 0 1
20.2922 0 1
20.4079 0 1
20.5236 0 1
20.6392 0 1
20.7548 0 1
20.8702 0 1
23.3078 0 1
23.4233 0 1
23.539 0 1
23.6547 0 1
23.7704 0 1
23.8862 0 1
24.0021 0 1
24.118 0 1
24.234 0 1
24.35 0 1
24.4661 2036 45.1221
24.5822 2034 45.0999
24.6984 2022 44.9667
24.8146 1951 44.1701
24.9309 1927 43.8976
25.0472 1763 41.9881
25.1636 1818 42.638
25.28 1834 42.8252
25.3965 1985 44.5533
25.513 2011 44.8442
25.6296 2383 48.816
25.7462 2537 50.3686
25.8628 2510 50.0999
25.9795 2526 50.2593
26.0962 2532 50.319
26.213 2478 49.7795
26.3298 2410 49.0918
26.4466 2429 49.2849
26.5635 2612 51.1077
26.6804 2408 49.0714
26.7973 2550 50.4975
26.9143 2472 49.7192
27.0313 2528 50.2792
27.1483 2551 50.5074
27.2653 2465 49.6488
27.3824 2472 49.7192
27.4996 2370 48.6826
27.6167 2480 49.7996
27.7339 2352 48.4974
27.8511 2337 48.3425
27.9683 2178 46.669
28.0855 2132 46.1736
28.2028 2126 46.1086
28.3201 1884 43.4051
28.4374 1887 43.4396
28.5547 1679 40.9756
28.6721 1626 40.3237
28.7894 1708 41.328
28.9068 1849 43
29.0242 1930 43.9318
29.1416 2119 46.0326
29.259 2270 47.6445
29.3764 2238 47.3075
29.4939 2351 48.4871
29.6113 2405 49.0408
29.7288 2358 48.5592
29.8463 2456 49.558
29.9638 2389 48.8774
30.0812 2397 48.9592
30.1987 2419 49.1833
30.3162 2322 48.1871
30.4337 2369 48.6724
30.5512 2401 49
30.6687 2281 47.7598
30.7862 2371 48.6929
30.9037 2428 49.2747
31.0212 2329 48.2597
31.1387 2351 48.4871
31.2562 2312 48.0833
31.3737 2221 47.1275
31.4912 2150 46.3681
31.6087 2145 46.3141
31.7262 2014 44.8776
31.8436 1884 43.4051
31.9611 1775 42.1307
32.0785 1649 40.6079
32.1959 1584 39.7995
32.3134 1533 39.1535
32.4308 1753 41.8688
32.5482 1868 43.2204
32.6655 2005 44.7772
32.7829 2204 46.9468
32.9002 2161 46.4866
33.0176 2227 47.1911
33.1349 2296 47.9166
33.2522 2327 48.239
33.3694 2264 47.5815
33.4867 2315 48.1144
33.6039 2287 47.8226
33.7211 2342 48.3942
33.8383 2368 48.6621
33.9554 2323 48.1975
34.0725 2317 48.1352
34.1896 2394 48.9285
34.3067 2365 48.6313
34.4237 2281 47.7598
34.5407 2240 47.3286
34.6577 2347 48.4458
34.7746 2274 47.6865
34.8915 2225 47.1699
35.0084 2161 46.4866
35.1252 2045 45.2217
35.242 1977 44.4635
35.3587 1937 44.0114
35.4755 1860 43.1277
35.5921 1772 42.0951
35.7088 1662 40.7676
35.8254 1446 38.0263
35.9419 1355 36.8103
36.0584 1547 39.3319
36.1749 1515 38.923
36.2913 1820 42.6615
36.4077 1795 42.3674
36.524 1998 44.699
36.6403 2222 47.1381
36.7565 2251 47.4447
36.8727 2203 46.9361
36.9889 2246 47.392
37.1049 2223 47.1487
37.221 0 1
37.3369 0 1
37.4529 0 1
37.5687 0 1
37.6845 0 1
37.8003 0 1
37.916 0 1
38.0316 0 1
38.1472 0 1
40.5851 0 1
40.7008 0 1
40.8164 0 1
40.9322 0 1
41.048 0 1
41.1639 0 1
41.2798 0 1
41.3958 0 1
41.5118 0 1
41.6279 0 1
41.744 1578 39.724
41.8602 1713 41.3884
41.9765 1784 42.2374
42.0928 1847 42.9767
42.2091 1889 43.4626
42.3255 1799 42.4146
42.4419 1871 43.2551
42.5584 1792 42.332
42.675 1764 42
42.7915 1793 42.3438
42.9081 1860 43.1277
43.0248 1813 42.5793
43.1415 1772 42.0951
43.2582 1726 41.5452
43.375 1697 41.1947
43.4918 1646 40.5709
43.6087 1717 41.4367
43.7256 1702 41.2553
43.8425 1646 40.5709
43.9595 1562 39.5221
44.0765 1471 38.3536
44.1935 1372 37.0405
44.3106 1284 35.8329
44.4277 1161 34.0735
44.5448 1067 32.665
44.6619 1004 31.686
44.7791 920 30.3315
44.8963 915 30.249
45.0136 1015 31.8591
45.1308 1120 33.4664
45.2481 1216 34.8712
45.3654 1313 36.2353
45.4827 1332 36.4966
45.6001 1252 35.3836
45.7174 1321 36.3456
45.8348 1307 36.1525
45.9522 1309 36.1801
46.0697 1226 35.0143
46.1871 1249 35.3412
46.3046 1174 34.2637
46.422 1197 34.5977
46.5395 1168 34.176
46.657 1185 34.4238
46.7745 1193 34.5398
46.892 1164 34.1174
47.0096 1133 33.6601
47.1271 1108 33.2866
47.2446 1116 33.4066
47.3622 1113 33.3617
47.4797 1024 32
47.5973 952 30.8545
47.7149 964 31.0483
47.8324 916 30.2655
47.95 804 28.3549
48.0675 801 28.3019
48.1851 731 27.037
48.3027 647 25.4362
48.4202 655 25.593
48.5378 684 26.1534
48.6554 750 27.3861
48.7729 759 27.55
48.8904 871 29.5127
49.008 986 31.4006
49.1255 958 30.9516
49.243 1000 31.6228
49.3605 937 30.6105
49.478 939 30.6431
49.5955 937 30.6105
49.713 973 31.1929
49.8304 961 31
49.9479 945 30.7409
50.0653 989 31.4484
50.1827 1032 32.1248
50.3001 1112 33.3467
50.4175 1085 32.9393
50.5348 1095 33.0908
50.6521 1083 32.909
50.7694 1134 33.6749
50.8867 1091 33.0303
51.004 1148 33.8821
51.1212 1186 34.4384
51.2384 1083 32.909
51.3556 1029 32.078
51.4727 1032 32.1248
51.5899 966 31.0805
51.707 818 28.6007
51.824 812 28.4956
51.9411 886 29.7658
52.0581 1024 32
52.175 1115 33.3916
52.2919 1319 36.318
52.4088 1447 38.0395
52.5257 1530 39.1152
52.6425 1623 40.2865
52.7593 1628 40.3485
52.876 1592 39.8999
52.9927 1653 40.6571
53.1094 1642 40.5216
53.226 1627 40.3361
53.3426 1699 41.2189
53.4591 1744 41.7612
53.5756 1743 41.7493
53.692 1806 42.4971
53.8084 1774 42.1189
53.9248 1816 42.6146
54.0411 1821 42.6732
54.1573 1857 43.0929
54.2735 0 1
54.3896 0 1
54.5057 0 1
54.6217 0 1
54.7377 0 1
54.8537 0 1
54.9695 0 1
55.0853 0 1
55.2011 0 1
55.3168 0 1
55.4324 0 1
57.824 0 1
57.9396 0 1
58.0553 0 1
58.1711 0 1
58.2869 0 1
58.4028 0 1
58.5187 0 1
58.6347 0 1
58.7508 0 1
58.8669 0 1
58.983 2023 44.9778
59.0992 2190 46.7974
59.2155 2247 47.4025
59.3318 2263 47.571
59.4482 2190 46.7974
59.5646 2178 46.669
59.681 2230 47.2229
59.7975 2104 45.8694
59.9141 2013 44.8665
60.0306 1914 43.7493
60.1473 1667 40.8289
60.2639 1552 39.3954
60.3807 1335 36.5377
60.4974 1225 35
60.6142 1258 35.4683
60.731 1333 36.5103
60.8479 1422 37.7094
60.9648 1717 41.4367
61.0818 1759 41.9404
61.1987 1977 44.4635
61.3158 1925 43.8748
61.4328 1965 44.3283
61.5499 1999 44.7102
61.667 1934 43.9773
61.7841 1917 43.7836
61.9013 1974 44.4297
62.0185 1900 43.589
62.1357 1905 43.6463
62.253 1914 43.7493
62.3702 1970 44.3847
62.4875 1913 43.7379
62.6049 1941 44.0568
62.7222 2008 44.8107
62.8396 1926 43.8862
62.9569 1966 44.3396
63.0743 1919 43.8064
63.1918 1930 43.9318
63.3092 1797 42.391
63.4267 1761 41.9643
63.5441 1691 41.1218
63.6616 1570 39.6232
63.7791 1316 36.2767
63.8966 1185 34.4238
64.0142 1052 32.4345
64.1317 1047 32.3574
64.2492 1161 34.0735
64.3668 1374 37.0675
64.4843 1503 38.7685
64.6019 1564 39.5474
64.7195 1736 41.6653
64.837 1743 41.7493
64.9546 1721 41.4849
65.0722 1708 41.328
65.1898 1751 41.845
65.3074 1791 42.3202
65.4249 1659 40.7308
65.5425 1728 41.5692
65.6601 1749 41.821
65.7777 1697 41.1947
65.8952 1728 41.5692
66.0128 1835 42.8369
66.1304 1800 42.4264
66.2479 1818 42.638
66.3655 1777 42.1545
66.483 1934 43.9773
66.6005 1847 42.9767
66.718 1871 43.2551
66.8355 1788 42.2847
66.953 1769 42.0595
67.0705 1709 41.3401
67.1879 1524 39.0384
67.3054 1344 36.6606
67.4228 1164 34.1174
67.5402 963 31.0322
67.6576 913 30.2159
67.7749 934 30.5614
67.8923 1023 31.9844
68.0096 1220 34.9285
68.1269 1407 37.51
68.2442 1606 40.0749
68.3614 1770 42.0714
68.4787 1805 42.4853
68.5958 1745 41.7732
68.713 1780 42.19
68.8302 1797 42.391
68.9473 1797 42.391
69.0643 1827 42.7434
69.1814 1773 42.107
69.2984 1769 42.0595
69.4154 1850 43.0116
69.5323 1837 42.8602
69.6492 1860 43.1277
69.7661 1930 43.9318
69.8829 1891 43.4856
69.9997 1949 44.1475
70.1165 2013 44.8665
70.2332 2042 45.1885
70.3499 2033 45.0888
70.4665 1983 44.5309
70.5831 1972 44.4072
70.6996 1869 43.2319
70.8161 1762 41.9762
70.9326 1707 41.3159
71.049 1441 37.9605
71.1653 1251 35.3695
71.2817 994 31.5278
71.3979 960 30.9839
71.5141 930 30.4959
71.6303 1054 32.4654
71.7464 1105 33.2415
71.8624 0 1
71.9784 0 1
72.0944 0 1
72.2102 0 1
72.3261 0 1
72.4418 0 1
72.5575 0 1
72.6732 0 1
75.1054 0 1
75.2209 0 1
75.3365 0 1
75.4521 0 1
75.5678 0 1
75.6835 0 1
75.7993 0 1
75.9151 0 1
76.031 0 1
76.147 1582 39.7744
76.263 1671 40.8779
76.3791 1522 39.0128
76.4952 1340 36.606
76.6113 1028 32.0624
76.7276 918 30.2985
76.8438 992 31.496
76.9601 1155 33.9853
77.0765 1352 36.7696
77.1929 1566 39.5727
77.3093 1872 43.2666
77.4258 1911 43.715
77.5423 1918 43.795
77.6589 1907 43.6692
77.7755 1938 44.0227
77.8921 1955 44.2154
78.0088 1903 43.6234
78.1256 1812 42.5676
78.2423 1904 43.6348
78.3591 1819 42.6497
78.4759 1944 44.0908
78.5928 1945 44.1022
78.7097 1920 43.8178
78.8266 1947 44.1248
78.9436 2045 45.2217
79.0606 1954 44.2041
79.1776 1937 44.0114
79.2946 1920 43.8178
79.4117 1981 44.5084
79.5288 1989 44.5982
79.6459 1958 44.2493
79.7631 1706 41.3038
79.8802 1614 40.1746
79.9974 1501 38.7427
80.1147 1248 35.327
80.2319 1047 32.3574
80.3491 864 29.3939
80.4664 891 29.8496
80.5837 997 31.5753
80.701 1243 35.2562
80.8183 1407 37.51
80.9357 1619 40.2368
81.053 1754 41.8808
81.1704 1708 41.328
81.2877 1665 40.8044
81.4051 1796 42.3792
81.5225 1645 40.5586
81.6399 1690 41.1096
81.7573 1754 41.8808
81.8747 1641 40.5093
81.9922 1673 40.9023
82.1096 1618 40.2244
82.227 1626 40.3237
82.3444 1659 40.7308
82.4619 1741 41.7253
82.5793 1773 42.107
82.6967 1703 41.2674
82.8142 1766 42.0238
82.9316 1769 42.0595
83.049 1691 41.1218
83.1664 1664 40.7922
83.2838 1607 40.0874
83.4012 1573 39.6611
83.5186 1374 37.0675
83.636 1385 37.2156
83.7534 1194 34.5543
83.8708 935 30.5778
83.9881 767 27.6948
84.1055 705 26.5518
84.2228 825 28.7228
84.3401 936 30.5941
84.4575 1210 34.7851
84.5747 1380 37.1484
84.692 1586 39.8246
84.8093 1549 39.3573
84.9265 1593 39.9124
85.0437 1640 40.4969
85.1609 1463 38.2492
85.2781 1575 39.6863
85.3952 1502 38.7556
85.5123 1628 40.3485
85.6294 1578 39.724
85.7465 1618 40.2244
85.8636 1610 40.1248
85.9806 1706 41.3038
86.0976 1703 41.2674
86.2145 1718 41.4488
86.3315 1851 43.0232
86.4484 1719 41.4608
86.5652 1810 42.5441
86.682 1872 43.2666
86.7988 1802 42.45
86.9156 1758 41.9285
87.0323 1763 41.9881
87.149 1594 39.9249
87.2657 1451 38.092
87.3823 1307 36.1525
87.4988 1033 32.1403
87.6154 896 29.9333
87.7318 894 29.8998
87.8483 1125 33.541
87.9647 1413 37.5899
88.081 1658 40.7185
88.1973 1809 42.5323
88.3136 1926 43.8862
88.4298 1905 43.6463
88.546 1812 42.5676
88.6621 1906 43.6578
88.7781 1841 42.9069
88.8942 0 1
89.0101 0 1
89.126 0 1
89.2419 0 1
89.3577 0 1
89.4734 0 1
89.5891 0 1
89.7047 0 1
89.8203 0 1
89.9358 0 1
92.3269 0 1
92.4424 0 1
92.558 0 1
92.6736 0 1
92.7893 0 1
92.905 0 1
93.0208 0 1
93.1366 0 1
93.2525 0 1
93.3685 0 1
93.4845 0 1
93.6005 1799 42.4146
93.7167 1901 43.6005
93.8328 1869 43.2319
93.949 1911 43.715
94.0653 1862 43.1509
94.1816 1883 43.3935
94.2979 1857 43.0929
94.4143 1897 43.5546
94.5307 1869 43.2319
94.6472 1835 42.8369
94.7637 1943 44.0795
94.8803 1920 43.8178
94.9969 1949 44.1475
95.1135 1996 44.6766
95.2302 1994 44.6542
95.3469 1917 43.7836
95.4637 2125 46.0977
95.5805 2037 45.1331
95.6973 1980 44.4972
95.8142 2060 45.3872
95.9311 2123 46.076
96.048 1978 44.4747
96.1649 1913 43.7379
96.2819 1746 41.7852
96.3989 1706 41.3038
96.516 1602 40.025
96.633 1295 35.9861
96.7501 1083 32.909
96.8673 1008 31.749
96.9844 1031 32.1092
97.1016 1235 35.1426
97.2188 1444 38
97.336 1626 40.3237
97.4532 1892 43.4971
97.5704 1816 42.6146
97.6877 1813 42.5793
97.805 1828 42.7551
97.9223 1771 42.0833
98.0396 1810 42.5441
98.1569 1861 43.1393
98.2743 1853 43.0465
98.3916 1869 43.2319
98.509 1924 43.8634
98.6264 1855 43.0697
98.7438 1896 43.5431
98.8612 1851 43.0232
98.9786 1934 43.9773
99.096 1958 44.2493
99.2134 2043 45.1996
99.3308 2035 45.111
99.4482 1930 43.9318
99.5656 1985 44.5533
99.6831 1918 43.795
99.8005 1872 43.2666
99.9179 1773 42.107
100.035 1673 40.9023
100.153 1496 38.6782
100.27 1273 35.6791
100.388 1036 32.187
100.505 1093 33.0606
100.622 1219 34.9142
100.74 1455 38.1445
100.857 1688 41.0853
100.975 1853 43.0465
101.092 1857 43.0929
101.209 1882 43.382
101.327 1773 42.107
101.444 1856 43.0813
101.561 1815 42.6028
101.679 1875 43.3013
101.796 1824 42.7083
101.913 1872 43.2666
102.03 1877 43.3244
102.148 1880 43.359
102.265 1899 43.5775
102.382 2020 44.9444
102.499 1980 44.4972
102.616 2058 45.3652
102.733 2154 46.4112
102.851 2059 45.3762
102.968 2133 46.1844
103.085 2019 44.9333
103.202 2017 44.911
103.319 1980 44.4972
103.436 1923 43.852
103.552 1804 42.4735
103.669 1678 40.9634
103.786 1401 37.4299
103.903 1186 34.4384
104.02 1136 33.7046
104.137 1339 36.5923
104.253 1562 39.5221
104.37 1870 43.2435
104.487 1957 44.238
104.603 2137 46.2277
104.72 2073 45.5302
104.836 2016 44.8999
104.953 1984 44.5421
105.069 2174 46.6262
105.186 2105 45.8803
105.302 2052 45.299
105.418 2166 46.5403
105.535 2087 45.6837
105.651 2118 46.0217
105.767 2242 47.3498
105.883 2299 47.9479
105.999 2194 46.8402
106.115 0 1
106.231 0 1
106.347 0 1
106.463 0 1
106.579 0 1
106.694 0 1
106.81 0 1
106.926 0 1
107.041 0 1
107.157 0 1
109.576 0 1
109.692 0 1
109.807 0 1
109.923 0 1
110.039 0 1
110.155 0 1
110.27 0 1
110.386 0 1
110.502 0 1
110.618 2071 45.5082
110.735 2141 46.2709
110.851 2203 46.9361
110.967 2149 46.3573
111.083 2216 47.0744
111.199 2215 47.0638
111.316 2216 47.0744
111.432 2248 47.4131
111.549 2266 47.6025
111.665 2261 47.55
111.782 2272 47.6655
111.898 2103 45.8585
112.015 2014 44.8776
112.132 1881 43.3705
112.248 1712 41.3763
112.365 1374 37.0675
112.482 1222 34.9571
112.599 1312 36.2215
112.716 1437 37.9078
112.832 1654 40.6694
112.949 1968 44.3621
113.066 2020 44.9444
113.183 2117 46.0109
113.3 1988 44.587
113.417 1969 44.3734
113.534 2132 46.1736
113.652 2067 45.4643
113.769 2012 44.8553
113.886 2097 45.793
114.003 2074 45.5412
114.12 2156 46.4327
114.238 2076 45.5631
114.355 2187 46.7654
114.472 2143 46.2925
114.589 2234 47.2652
114.707 2177 46.6583
114.824 2281 47.7598
114.942 2299 47.9479
115.059 2277 47.7179
115.176 2368 48.6621
115.294 2349 48.4665
115.411 2223 47.1487
115.529 2254 47.4763
115.646 2085 45.6618
115.764 1998 44.699
115.881 1736 41.6653
115.999 1475 38.4057
116.116 1476 38.4187
116.234 1565 39.5601
116.351 1692 41.1339
116.469 2030 45.0555
116.586 2315 48.1144
116.704 2351 48.4871
116.821 2342 48.3942
116.939 2233 47.2546
117.056 2286 47.8121
117.174 2170 46.5833
117.291 2383 48.816
117.409 2394 48.9285
117.526 2303 47.9896
117.644 2324 48.2079
117.761 2415 49.1426
117.879 2370 48.6826
117.996 2254 47.4763
118.114 2381 48.7955
118.231 2441 49.4065
118.349 2335 48.3218
118.466 2469 49.689
118.584 2510 50.0999
118.701 2359 48.5695
118.819 2571 50.705
118.936 2332 48.2908
119.053 2342 48.3942
119.171 2270 47.6445
119.288 2183 46.7226
119.405 2009 44.8219
119.523 1725 41.5331
119.64 1579 39.7366
119.757 1496 38.6782
119.875 1735 41.6533
119.992 1781 42.2019
120.109 2125 46.0977
120.226 2166 46.5403
120.343 2216 47.0744
120.46 2326 48.2286
120.578 2246 47.392
120.695 2238 47.3075
120.812 2311 48.0729
120.929 2258 47.5184
121.046 2305 48.0104
121.163 2335 48.3218
121.279 2298 47.9375
121.396 2132 46.1736
121.513 2316 48.1248
121.63 2233 47.2546
121.747 2295 47.9062
121.863 2396 48.949
121.98 2384 48.8262
122.097 2408 49.0714
122.213 2386 48.8467
122.33 2358 48.5592
122.446 2423 49.224
122.563 2470 49.6991
122.679 2354 48.518
122.795 2196 46.8615
122.912 2154 46.4112
123.028 2092 45.7384
123.144 1875 43.3013
123.26 1658 40.7185
123.377 0 1
123.493 0 1
123.609 0 1
123.725 0 1
123.84 0 1
123.956 0 1
124.072 0 1
124.188 0 1
124.303 0 1
124.419 0 1
126.852 0 1
126.968 0 1
127.083 0 1
127.199 0 1
127.315 0 1
127.431 0 1
127.547 0 1
127.663 0 1
127.779 0 1
127.895 0 1
128.011 0 1
128.127 0 1
128.243 0 1
128.359 2225 47.1699
128.476 1989 44.5982
128.592 1771 42.0833
128.708 1769 42.0595
128.825 1859 43.1161
128.941 1960 44.2719
129.058 2256 47.4974
129.174 2366 48.6415
129.291 2477 49.7695
129.408 2468 49.679
129.524 2429 49.2849
129.641 2509 50.0899
129.758 2479 49.7896
129.875 2510 50.0999
129.992 2490 49.8999
130.108 2494 49.94
130.225 2444 49.4368
130.342 2386 48.8467
130.459 2386 48.8467
130.576 2541 50.4083
130.693 2473 49.7293
130.81 2583 50.8232
130.928 2567 50.6656
131.045 2538 50.3786
131.162 2598 50.9706
131.279 2659 51.5655
131.396 2663 51.6043
131.513 2550 50.4975
131.631 2482 49.8197
131.748 2358 48.5592
131.865 2363 48.6107
131.983 2133 46.1844
132.1 1877 43.3244
132.217 1760 41.9524
132.335 1942 44.0681
132.452 2089 45.7056
132.57 2308 48.0416
132.687 2490 49.8999
132.804 2563 50.6261
132.922 2474 49.7393
133.039 2460 49.5984
133.157 2503 50.03
133.274 2502 50.02
133.392 2416 49.1528
133.509 2457 49.5681
133.627 2458 49.5782
133.744 2390 48.8876
133.862 2423 49.224
133.979 2327 48.239
134.097 2434 49.3356
134.214 2464 49.6387
134.332 2487 49.8698
134.449 2453 49.5278
134.567 2473 49.7293
134.684 2510 50.0999
134.802 2546 50.4579
134.919 2579 50.7839
135.037 2452 49.5177
135.154 2365 48.6313
135.272 2337 48.3425
135.389 2241 47.3392
135.507 2147 46.3357
135.624 1931 43.9431
135.742 1819 42.6497
135.859 1804 42.4735
135.977 2034 45.0999
136.094 2213 47.0425
136.211 2424 49.2341
136.329 2423 49.224
136.446 2483 49.8297
136.564 2501 50.01
136.681 2440 49.3964
136.798 2390 48.8876
136.915 2436 49.3559
137.033 2531 50.309
137.15 2429 49.2849
137.267 2327 48.239
137.384 2287 47.8226
137.502 2273 47.676
137.619 2314 48.1041
137.736 2372 48.7032
137.853 2364 48.621
137.97 2483 49.8297
138.087 2346 48.4355
138.204 2491 49.9099
138.321 2471 49.7092
138.438 2538 50.3786
138.555 2549 50.4876
138.672 2482 49.8197
138.788 2504 50.04
138.905 2299 47.9479
139.022 2259 47.5289
139.139 2116 46
139.255 2009 44.8219
139.372 1924 43.8634
139.488 1973 44.4185
139.605 2029 45.0444
139.721 2181 46.7012
139.838 2418 49.1732
139.954 2450 49.4975
140.071 2516 50.1597
140.187 2548 50.4777
140.303 2475 49.7494
140.419 2506 50.06
140.535 2341 48.3839
140.652 2436 49.3559
140.768 0 1
140.884 0 1
141 0 1
141.115 0 1
141.231 0 1
141.347 0 1
141.463 0 1
141.578 0 1
141.694 0 1
144.104 0 1
144.219 0 1
144.335 0 1
144.45 0 1
144.566 0 1
144.682 0 1
144.798 0 1
144.914 0 1
145.03 0 1
145.146 1839 42.8836
145.262 1977 44.4635
145.378 2011 44.8442
145.494 2069 45.4863
145.61 1957 44.238
145.726 2005 44.7772
145.842 2097 45.793
145.959 1961 44.2832
146.075 1932 43.9545
146.192 1869 43.2319
146.308 1874 43.2897
146.425 1892 43.4971
146.541 1904 43.6348
146.658 1965 44.3283
146.774 1991 44.6206
146.891 1995 44.6654
147.008 2090 45.7165
147.125 2095 45.7712
147.241 2125 46.0977
147.358 2121 46.0543
147.475 2085 45.6618
147.592 2212 47.0319
147.709 2044 45.2106
147.826 2022 44.9667
147.943 1899 43.5775
148.06 1864 43.1741
148.177 1824 42.7083
148.294 1759 41.9404
148.411 1834 42.8252
148.528 1954 44.2041
148.645 2061 45.3982
148.762 2176 46.6476
148.88 2190 46.7974
148.997 2200 46.9042
149.114 2202 46.9255
149.231 2158 46.4543
149.349 2164 46.5188
149.466 2149 46.3573
149.583 2180 46.6905
149.701 2139 46.2493
149.818 2135 46.2061
149.935 2048 45.2548
150.053 2012 44.8553
150.17 2040 45.1664
150.287 1943 44.0795
150.405 1992 44.6318
150.522 2094 45.7602
150.64 2191 46.8081
150.757 2195 46.8508
150.875 2245 47.3814
150.992 2195 46.8508
151.11 2301 47.9687
151.227 2227 47.1911
151.344 2222 47.1381
151.462 2094 45.7602
151.579 2159 46.465
151.697 2028 45.0333
151.814 1820 42.6615
151.932 1846 42.9651
152.049 1857 43.0929
152.167 1956 44.2267
152.284 2076 45.5631
152.402 2203 46.9361
152.519 2172 46.6047
152.636 2247 47.4025
152.754 2345 48.4252
152.871 2389 48.8774
152.989 2358 48.5592
153.106 2294 47.8957
153.223 2244 47.3709
153.341 2190 46.7974
153.458 2004 44.7661
153.575 1999 44.7102
153.693 2052 45.299
153.81 2041 45.1774
153.927 2138 46.2385
154.044 2207 46.9787
154.162 2197 46.8722
154.279 2244 47.3709
154.396 2282 47.7703
154.513 2313 48.0937
154.63 2332 48.2908
154.747 2408 49.0714
154.864 2388 48.8672
154.981 2331 48.2804
155.098 2306 48.0208
155.215 2252 47.4552
155.332 2115 45.9891
155.449 2092 45.7384
155.566 2108 45.913
155.683 2180 46.6905
155.8 2289 47.8435
155.917 2324 48.2079
156.033 2431 49.3052
156.15 0 1
156.267 0 1
156.383 0 1
156.5 0 1
156.617 0 1
156.733 0 1
156.85 0 1
156.966 0 1
157.082 0 1
157.199 0 1
157.315 0 1
157.431 0 1
157.547 0 1
157.664 0 1
157.78 0 1
157.896 0 1
158.012 0 1
158.128 0 1
158.244 0 1
158.359 0 1
158.475 0 1
158.591 0 1
158.706 0 1
