
6.15755 0 1
6.2731 0 1
6.3887 0 1
6.50437 0 1
6.62009 0 1
6.73587 0 1
6.8517 0 1
6.96759 0 1
7.08353 0 1
7.19952 0 1
7.31557 0 1
7.43166 0 1
7.54781 0 1
7.664 0 1
7.78024 0 1
7.89653 0 1
8.01286 0 1
8.12924 0 1
8.24567 0 1
8.36213 0 1
8.47864 0 1
8.59519 0 1
8.71178 0 1
8.82841 0 1
8.94508 0 1
9.06179 0 1
9.17853 0 1
9.29531 0 1
9.41212 0 1
9.52897 0 1
9.64584 0 1
9.76276 0 1
9.8797 0 1
9.99667 0 1
10.1137 0 1
10.2307 0 1
10.3478 0 1
10.4648 0 1
10.5819 0 1
10.6991 0 1
10.8162 0 1
10.9334 0 1
11.0506 0 1
11.1678 0 1
11.285 0 1
11.4023 0 1
11.5196 0 1
11.6369 0 1
11.7542 0 1
11.8715 0 1
11.9888 0 1
12.1062 0 1
12.2235 0 1
12.3409 0 1
12.4582 0 1
12.5756 0 1
12.693 0 1
12.8104 0 1
12.9278 0 1
13.0452 0 1
13.1626 0 1
13.28 0 1
13.3974 0 1
13.5149 0 1
13.6323 0 1
13.7497 0 1
13.8671 0 1
13.9845 0 1
14.1019 0 1
14.2193 0 1
14.3367 0 1
14.4541 0 1
14.5714 0 1
14.6888 0 1
14.8062 0 1
14.9235 0 1
15.0408 45459 213.211
15.1581 47474 217.885
15.2755 48447 220.107
15.3927 48913 221.163
15.51 49159 221.718
15.6273 48515 220.261
15.7445 48947 221.24
15.8617 49369 222.191
15.9789 49428 222.324
16.0961 50522 224.771
16.2132 50778 225.34
16.3304 52608 229.364
16.4475 54350 233.131
16.5646 55628 235.856
16.6816 57856 240.533
16.7986 58877 242.646
16.9156 60704 246.382
17.0326 62017 249.032
17.1496 63873 252.731
17.2665 64468 253.905
17.3833 65213 255.368
17.5002 65218 255.378
17.617 65451 255.834
17.7338 64615 254.195
17.8505 62955 250.908
17.9672 60845 246.668
18.0839 59485 243.895
18.2005 60484 245.935
18.3171 62855 250.709
18.4337 65053 255.055
18.5502 67452 259.715
18.6666 68596 261.908
18.7831 69719 264.044
18.8994 68989 262.658
19.0158 67970 260.711
19.1321 66942 258.732
19.2483 65525 255.979
19.3645 64487 253.943
19.4806 63720 252.428
19.5967 62313 249.626
19.7128 61710 248.415
19.8288 59875 244.694
19.9447 54516 233.487
20.0606 0 1
20.1764 0 1
20.2922 0 1
20.4079 0 1
20.5236 0 1
20.6392 0 1
20.7548 0 1
20.8702 0 1
23.3078 0 1
23.4233 0 1
23.539 0 1
23.6547 0 1
23.7704 0 1
23.8862 0 1
24.0021 0 1
24.118 0 1
24.234 0 1
24.35 0 1
24.4661 64160 253.298
24.5822 64033 253.047
24.6984 64233 253.442
24.8146 63203 251.402
24.9309 62396 249.792
25.0472 62842 250.683
25.1636 63271 251.537
25.28 65208 255.359
25.3965 67326 259.473
25.513 69127 262.92
25.6296 72236 268.768
25.7462 73294 270.729
25.8628 73544 271.19
25.9795 74314 272.606
26.0962 74200 272.397
26.213 73339 270.812
26.3298 72370 269.017
26.4466 68652 262.015
26.5635 65199 255.341
26.6804 65238 255.417
26.7973 65850 256.613
26.9143 67618 260.035
27.0313 69853 264.297
27.1483 71693 267.755
27.2653 72729 269.683
27.3824 72941 270.076
27.4996 73427 270.974
27.6167 71334 267.084
27.7339 69803 264.203
27.8511 68801 262.299
27.9683 68033 260.831
28.0855 66865 258.583
28.2028 65965 256.837
28.3201 64134 253.247
28.4374 63910 252.804
28.5547 63701 252.391
28.6721 63886 252.757
28.7894 64894 254.743
28.9068 67175 259.181
29.0242 68378 261.492
29.1416 69389 263.418
29.259 71431 267.266
29.3764 72890 269.981
29.4939 72622 269.485
29.6113 72363 269.004
29.7288 71577 267.539
29.8463 69549 263.721
29.9638 65610 256.144
30.0812 62234 249.467
30.1987 61203 247.392
30.3162 62206 249.411
30.4337 64374 253.72
30.5512 66768 258.395
30.6687 67660 260.115
30.7862 70404 265.338
30.9037 69868 264.326
31.0212 70127 264.815
31.1387 70078 264.722
31.2562 69606 263.829
31.3737 68014 260.795
31.4912 66872 258.596
31.6087 65486 255.902
31.7262 64489 253.947
31.8436 63738 252.464
31.9611 63072 251.141
32.0785 61869 248.735
32.1959 62076 249.151
32.3134 62768 250.535
32.4308 65239 255.419
32.5482 66093 257.086
32.6655 68093 260.946
32.7829 69606 263.829
32.9002 70379 265.29
33.0176 71142 266.725
33.1349 71061 266.573
33.2522 71211 266.854
33.3694 69565 263.752
33.4867 67521 259.848
33.6039 64306 253.586
33.7211 60742 246.459
33.8383 58298 241.45
33.9554 58027 240.888
34.0725 61260 247.508
34.1896 63112 251.221
34.3067 64942 254.837
34.4237 65237 255.415
34.5407 66681 258.227
34.6577 67155 259.143
34.7746 67021 258.884
34.8915 65886 256.683
35.0084 65770 256.457
35.1252 64481 253.931
35.242 64192 253.361
35.3587 62149 249.297
35.4755 61894 248.785
35.5921 61005 246.992
35.7088 59610 244.152
35.8254 59537 244.002
35.9419 60075 245.102
36.0584 60785 246.546
36.1749 62272 249.544
36.2913 63311 251.617
36.4077 65245 255.431
36.524 67005 258.853
36.6403 66755 258.37
36.7565 67253 259.332
36.8727 67769 260.325
36.9889 66727 258.316
37.1049 64226 253.428
37.221 0 1
37.3369 0 1
37.4529 0 1
37.5687 0 1
37.6845 0 1
37.8003 0 1
37.916 0 1
38.0316 0 1
38.1472 0 1
40.5851 0 1
40.7008 0 1
40.8164 0 1
40.9322 0 1
41.048 0 1
41.1639 0 1
41.2798 0 1
41.3958 0 1
41.5118 0 1
41.6279 0 1
41.744 51504 226.945
41.8602 55564 235.72
41.9765 56708 238.134
42.0928 56749 238.22
42.2091 56390 237.466
42.3255 54333 233.094
42.4419 50797 225.382
42.5584 47378 217.665
42.675 45464 213.223
42.7915 45450 213.19
42.9081 47401 217.718
43.0248 49674 222.877
43.1415 50889 225.586
43.2582 51694 227.363
43.375 51941 227.906
43.4918 53012 230.243
43.6087 53121 230.48
43.7256 52423 228.961
43.8425 51842 227.688
43.9595 50688 225.14
44.0765 50125 223.886
44.1935 48590 220.431
44.3106 47532 218.018
44.4277 46290 215.151
44.5448 44437 210.801
44.6619 43117 207.646
44.7791 42718 206.683
44.8963 42892 207.104
45.0136 43841 209.382
45.1308 44616 211.225
45.2481 45981 214.432
45.3654 46287 215.144
45.4827 46157 214.842
45.6001 45344 212.941
45.7174 45249 212.718
45.8348 43517 208.607
45.9522 40891 202.215
46.0697 38067 195.108
46.1871 35622 188.738
46.3046 34483 185.696
46.422 35295 187.87
46.5395 37115 192.653
46.657 38696 196.713
46.7745 39366 198.409
46.892 40331 200.826
47.0096 40455 201.134
47.1271 40888 202.208
47.2446 41068 202.652
47.3622 40273 200.681
47.4797 40405 201.01
47.5973 39553 198.879
47.7149 38625 196.532
47.8324 38320 195.755
47.95 36840 191.937
48.0675 36093 189.982
48.1851 34869 186.732
48.3027 34258 185.089
48.4202 34481 185.691
48.5378 35096 187.339
48.6554 36786 191.797
48.7729 37839 194.522
48.8904 39082 197.692
49.008 39108 197.757
49.1255 39006 197.499
49.243 38636 196.56
49.3605 36956 192.239
49.478 34497 185.734
49.5955 32190 179.416
49.713 30474 174.568
49.8304 29740 172.453
49.9479 31261 176.808
50.0653 33428 182.833
50.1827 35893 189.454
50.3001 37086 192.577
50.4175 38315 195.742
50.5348 38722 196.779
50.6521 40759 201.889
50.7694 40991 202.462
50.8867 41790 204.426
51.004 42119 205.229
51.1212 42607 206.415
51.2384 42941 207.222
51.3556 42948 207.239
51.4727 42371 205.842
51.5899 41831 204.526
51.707 41638 204.054
51.824 41296 203.214
51.9411 42435 205.998
52.0581 44254 210.366
52.175 46250 215.058
52.2919 48324 219.827
52.4088 49869 223.314
52.5257 50311 224.301
52.6425 49918 223.423
52.7593 50463 224.64
52.876 49778 223.11
52.9927 47733 218.479
53.1094 44551 211.071
53.226 42322 205.723
53.3426 40547 201.363
53.4591 39952 199.88
53.5756 42168 205.348
53.692 45146 212.476
53.8084 47894 218.847
53.9248 50131 223.9
54.0411 50851 225.502
54.1573 51665 227.299
54.2735 0 1
54.3896 0 1
54.5057 0 1
54.6217 0 1
54.7377 0 1
54.8537 0 1
54.9695 0 1
55.0853 0 1
55.2011 0 1
55.3168 0 1
55.4324 0 1
57.824 0 1
57.9396 0 1
58.0553 0 1
58.1711 0 1
58.2869 0 1
58.4028 0 1
58.5187 0 1
58.6347 0 1
58.7508 0 1
58.8669 0 1
58.983 55238 235.028
59.0992 59821 244.583
59.2155 61870 248.737
59.3318 63482 251.956
59.4482 64772 254.503
59.5646 65382 255.699
59.681 66119 257.136
59.7975 66201 257.296
59.9141 65800 256.515
60.0306 64127 253.233
60.1473 62932 250.863
60.2639 60572 246.114
60.3807 58672 242.223
60.4974 56696 238.109
60.6142 56683 238.082
60.731 57918 240.662
60.8479 59110 243.125
60.9648 61138 247.261
61.0818 62899 250.797
61.1987 63137 251.271
61.3158 62487 249.974
61.4328 61978 248.954
61.5499 59178 243.265
61.667 55558 235.707
61.7841 52253 228.589
61.9013 49160 221.721
62.0185 47930 218.929
62.1357 48809 220.928
62.253 51779 227.55
62.3702 54938 234.389
62.4875 57599 239.998
62.6049 59008 242.916
62.7222 60321 245.603
62.8396 62339 249.678
62.9569 62977 250.952
63.0743 63388 251.77
63.1918 64001 252.984
63.3092 63560 252.111
63.4267 62497 249.994
63.5441 61323 247.635
63.6616 60249 245.457
63.7791 57559 239.915
63.8966 55585 235.765
64.0142 53247 230.753
64.1317 53331 230.935
64.2492 54479 233.407
64.3668 56635 237.981
64.4843 58912 242.718
64.6019 60169 245.294
64.7195 59726 244.389
64.837 60399 245.762
64.9546 60361 245.685
65.0722 58246 241.342
65.1898 54107 232.609
65.3074 51812 227.622
65.4249 47015 216.829
65.5425 45268 212.763
65.6601 44421 210.763
65.7777 46610 215.893
65.8952 50323 224.328
66.0128 53686 231.702
66.1304 56047 236.742
66.2479 57815 240.447
66.3655 58926 242.747
66.483 60292 245.544
66.6005 61980 248.958
66.718 62449 249.898
66.8355 62256 249.512
66.953 62461 249.922
67.0705 61251 247.489
67.1879 60239 245.436
67.3054 58659 242.196
67.4228 57039 238.828
67.5402 54288 232.998
67.6576 51777 227.546
67.7749 50605 224.956
67.8923 53686 231.702
68.0096 55496 235.576
68.1269 58754 242.392
68.2442 59739 244.416
68.3614 61094 247.172
68.4787 60423 245.811
68.5958 61259 247.506
68.713 58872 242.636
68.8302 55905 236.442
68.9473 52364 228.832
69.0643 48698 220.676
69.1814 46191 214.921
69.2984 45631 213.614
69.4154 47517 217.984
69.5323 51237 226.356
69.6492 55191 234.928
69.7661 59043 242.988
69.8829 60763 246.502
69.9997 62676 250.352
70.1165 64167 253.312
70.2332 65875 256.661
70.3499 66084 257.068
70.4665 66608 258.085
70.5831 66343 257.571
70.6996 65302 255.543
70.8161 65126 255.198
70.9326 63220 251.436
71.049 60525 246.018
71.1653 57033 238.816
71.2817 53721 231.778
71.3979 51683 227.339
71.5141 51166 226.199
71.6303 52396 228.902
71.7464 52217 228.51
71.8624 0 1
71.9784 0 1
72.0944 0 1
72.2102 0 1
72.3261 0 1
72.4418 0 1
72.5575 0 1
72.6732 0 1
75.1054 0 1
75.2209 0 1
75.3365 0 1
75.4521 0 1
75.5678 0 1
75.6835 0 1
75.7993 0 1
75.9151 0 1
76.031 0 1
76.147 56998 238.743
76.263 58430 241.723
76.3791 56652 238.017
76.4952 53155 230.554
76.6113 52952 230.113
76.7276 55710 236.03
76.8438 58963 242.823
76.9601 62502 250.004
77.0765 64291 253.557
77.1929 64475 253.919
77.3093 65159 255.263
77.4258 64405 253.781
77.5423 61336 247.661
77.6589 56715 238.149
77.7755 52853 229.898
77.8921 49079 221.538
78.0088 46451 215.525
78.1256 44594 211.173
78.2423 46007 214.492
78.3591 49922 223.432
78.4759 54121 232.639
78.5928 57274 239.32
78.7097 59989 244.927
78.8266 60823 246.623
78.9436 66036 256.975
79.0606 65475 255.881
79.1776 66027 256.957
79.2946 66376 257.635
79.4117 66714 258.291
79.5288 66353 257.591
79.6459 66181 257.257
79.7631 64025 253.032
79.8802 61520 248.032
79.9974 58659 242.196
80.1147 54273 232.966
80.2319 53140 230.521
80.3491 55362 235.291
80.4664 59293 243.502
80.5837 62305 249.61
80.701 63269 251.533
80.8183 63956 252.895
80.9357 63350 251.694
81.053 63705 252.398
81.1704 62483 249.966
81.2877 59013 242.926
81.4051 54063 232.515
81.5225 50219 224.096
81.6399 46110 214.732
81.7573 45771 213.942
81.8747 44830 211.731
81.9922 49415 222.295
82.1096 54005 232.39
82.227 57762 240.337
82.3444 60186 245.328
82.4619 62628 250.256
82.5793 65177 255.298
82.6967 64938 254.829
82.8142 65368 255.672
82.9316 66171 257.237
83.049 66591 258.052
83.1664 65916 256.741
83.2838 65165 255.274
83.4012 63614 252.218
83.5186 61398 247.786
83.636 57189 239.142
83.7534 53522 231.348
83.8708 52683 229.528
83.9881 54546 233.551
84.1055 58074 240.985
84.2228 62957 250.912
84.3401 64227 253.43
84.4575 64540 254.047
84.5747 64860 254.676
84.692 63532 252.056
84.8093 60241 245.44
84.9265 55195 234.936
85.0437 51986 228.004
85.1609 48158 219.449
85.2781 45978 214.425
85.3952 45046 212.24
85.5123 47920 218.906
85.6294 53423 231.134
85.7465 57616 240.033
85.8636 60462 245.89
85.9806 62373 249.746
86.0976 64870 254.696
86.2145 67233 259.293
86.3315 68259 261.264
86.4484 69914 264.413
86.5652 69761 264.123
86.682 69702 264.011
86.7988 69982 264.541
86.9156 68306 261.354
87.0323 66983 258.811
87.149 63076 251.149
87.2657 59723 244.383
87.3823 56563 237.83
87.4988 57872 240.566
87.6154 60799 246.575
87.7318 66074 257.049
87.8483 67453 259.717
87.9647 68138 261.033
88.081 67837 260.455
88.1973 67449 259.709
88.3136 65008 254.967
88.4298 59651 244.236
88.546 55669 235.943
88.6621 51473 226.877
88.7781 48482 220.186
88.8942 0 1
89.0101 0 1
89.126 0 1
89.2419 0 1
89.3577 0 1
89.4734 0 1
89.5891 0 1
89.7047 0 1
89.8203 0 1
89.9358 0 1
92.3269 0 1
92.4424 0 1
92.558 0 1
92.6736 0 1
92.7893 0 1
92.905 0 1
93.0208 0 1
93.1366 0 1
93.2525 0 1
93.3685 0 1
93.4845 0 1
93.6005 57942 240.711
93.7167 54460 233.367
93.8328 51141 226.144
93.949 49431 222.331
94.0653 48287 219.743
94.1816 47987 219.059
94.2979 49817 223.197
94.4143 53163 230.571
94.5307 57136 239.031
94.6472 59865 244.673
94.7637 62080 249.159
94.8803 63928 252.84
94.9969 66083 257.066
95.1135 67314 259.449
95.2302 67398 259.611
95.3469 68441 261.612
95.4637 69186 263.032
95.5805 69232 263.12
95.6973 68969 262.619
95.8142 68468 261.664
95.9311 66741 258.343
96.048 64258 253.492
96.1649 61051 247.085
96.2819 57778 240.371
96.3989 56352 237.386
96.516 59039 242.979
96.633 62484 249.968
96.7501 65842 256.597
96.8673 66915 258.679
96.9844 67096 259.029
97.1016 66216 257.325
97.2188 64180 253.338
97.336 61224 247.435
97.4532 56639 237.989
97.5704 53044 230.313
97.6877 50177 224.002
97.805 48328 219.836
97.9223 47854 218.756
98.0396 48932 221.206
98.1569 53133 230.506
98.2743 57139 239.038
98.3916 59158 243.224
98.509 61742 248.479
98.6264 63339 251.672
98.7438 65209 255.361
98.8612 66938 258.724
98.9786 67694 260.181
99.096 67848 260.476
99.2134 68074 260.91
99.3308 68379 261.494
99.4482 67567 259.937
99.5656 66232 257.356
99.6831 63346 251.686
99.8005 59954 244.855
99.9179 57493 239.777
100.035 56050 236.749
100.153 58550 241.971
100.27 63019 251.036
100.388 65081 255.11
100.505 65788 256.492
100.622 65268 255.476
100.74 64815 254.588
100.857 63008 251.014
100.975 59458 243.84
101.092 55529 235.646
101.209 52224 228.526
101.327 50060 223.741
101.444 48300 219.773
101.561 48134 219.395
101.679 50951 225.723
101.796 55020 234.563
101.913 58928 242.751
102.03 61871 248.739
102.148 65096 255.139
102.265 61497 247.986
102.382 74041 272.105
102.499 69840 264.273
102.616 70963 266.389
102.733 71493 267.382
102.851 72120 268.552
102.968 72795 269.805
103.085 71426 267.256
103.202 69529 263.684
103.319 65890 256.69
103.436 62221 249.441
103.552 61207 247.4
103.669 63867 252.719
103.786 68868 262.427
103.903 70823 266.126
104.02 71655 267.685
104.137 71653 267.681
104.253 71015 266.486
104.37 67991 260.751
104.487 64574 254.114
104.603 60385 245.734
104.72 56965 238.673
104.836 53927 232.222
104.953 52515 229.162
105.069 52590 229.325
105.186 56325 237.329
105.302 61159 247.303
105.418 65243 255.427
105.535 67608 260.015
105.651 70062 264.692
105.767 71685 267.741
105.883 73300 270.74
105.999 74187 272.373
106.115 0 1
106.231 0 1
106.347 0 1
106.463 0 1
106.579 0 1
106.694 0 1
106.81 0 1
106.926 0 1
107.041 0 1
107.157 0 1
109.576 0 1
109.692 0 1
109.807 0 1
109.923 0 1
110.039 0 1
110.155 0 1
110.27 0 1
110.386 0 1
110.502 0 1
110.618 58528 241.926
110.735 62064 249.126
110.851 63217 251.43
110.967 64298 253.571
111.083 64935 254.823
111.199 66148 257.193
111.316 66285 257.459
111.432 66250 257.391
111.549 64651 254.266
111.665 63190 251.376
111.782 60023 244.996
111.898 55902 236.436
112.015 53375 231.03
112.132 55455 235.489
112.248 59275 243.465
112.365 60507 245.982
112.482 62736 250.472
112.599 60295 245.55
112.716 60329 245.62
112.832 58178 241.201
112.949 54248 232.912
113.066 50457 224.626
113.183 47350 217.601
113.3 45251 212.723
113.417 42750 206.761
113.534 41423 203.526
113.652 41908 204.714
113.769 44728 211.49
113.886 47028 216.859
114.003 49185 221.777
114.12 50701 225.169
114.238 51705 227.387
114.355 52490 229.107
114.472 53549 231.407
114.589 52379 228.865
114.707 52962 230.135
114.824 53317 230.905
114.942 53086 230.404
115.059 51667 227.304
115.176 50846 225.491
115.294 48371 219.934
115.411 45179 212.554
115.529 42883 207.082
115.646 42465 206.07
115.764 44419 210.758
115.881 46288 215.146
115.999 46281 215.13
116.116 46123 214.763
116.234 45323 212.892
116.351 44430 210.784
116.469 41976 204.88
116.586 39597 198.99
116.704 37289 193.104
116.821 35247 187.742
116.939 33828 183.924
117.056 32895 181.37
117.174 32089 179.134
117.291 33688 183.543
117.409 35604 188.69
117.526 37161 192.772
117.644 38584 196.428
117.761 39866 199.665
117.879 41320 203.273
117.996 41623 204.017
118.114 42052 205.066
118.231 43374 208.264
118.349 42944 207.229
118.466 43407 208.343
118.584 43965 209.678
118.701 43119 207.651
118.819 42311 205.696
118.936 41462 203.622
119.053 39230 198.066
119.171 37294 193.117
119.288 38262 195.607
119.405 41141 202.832
119.523 42818 206.925
119.64 43023 207.42
119.757 43436 208.413
119.875 44198 210.233
119.992 43348 208.202
120.109 41948 204.812
120.226 39386 198.459
120.343 38338 195.801
120.46 36855 191.977
120.578 35851 189.344
120.695 35116 187.393
120.812 34277 185.14
120.929 35520 188.468
121.046 37765 194.332
121.163 39690 199.223
121.279 41508 203.735
121.396 43341 208.185
121.513 44813 211.691
121.63 46581 215.826
121.747 47379 217.667
121.863 47833 218.708
121.98 49232 221.883
122.097 49471 222.421
122.213 50110 223.853
122.33 49972 223.544
122.446 50456 224.624
122.563 49669 222.865
122.679 49208 221.829
122.795 46333 215.251
122.912 45341 212.934
123.028 45993 214.46
123.144 48410 220.023
123.26 50770 225.322
123.377 0 1
123.493 0 1
123.609 0 1
123.725 0 1
123.84 0 1
123.956 0 1
124.072 0 1
124.188 0 1
124.303 0 1
124.419 0 1
126.852 0 1
126.968 0 1
127.083 0 1
127.199 0 1
127.315 0 1
127.431 0 1
127.547 0 1
127.663 0 1
127.779 0 1
127.895 0 1
128.011 0 1
128.127 0 1
128.243 0 1
128.359 54391 233.219
128.476 58352 241.562
128.592 60471 245.909
128.708 60746 246.467
128.825 61521 248.034
128.941 61193 247.372
129.058 60490 245.947
129.174 57665 240.135
129.291 54243 232.901
129.408 52468 229.059
129.524 50333 224.35
129.641 48557 220.357
129.758 47094 217.012
129.875 45782 213.967
129.992 47074 216.965
130.108 49201 221.813
130.225 49875 223.327
130.342 51672 227.315
130.459 52415 228.943
130.576 52559 229.257
130.693 53908 232.181
130.81 54719 233.921
130.928 54662 233.799
131.045 55061 234.651
131.162 55257 235.068
131.279 55814 236.25
131.396 55349 235.264
131.513 54171 232.747
131.631 52044 228.132
131.748 49247 221.917
131.865 48675 220.624
131.983 50752 225.282
132.1 53447 231.186
132.217 53831 232.015
132.335 54029 232.441
132.452 53255 230.77
132.57 53005 230.228
132.687 49493 222.47
132.804 49851 223.273
132.922 45870 214.173
133.039 43869 209.449
133.157 42360 205.815
133.274 40920 202.287
133.392 40167 200.417
133.509 39676 199.188
133.627 41243 203.084
133.744 42123 205.239
133.862 42824 206.94
133.979 43480 208.519
134.097 43856 209.418
134.214 44269 210.402
134.332 43363 208.238
134.449 43773 209.22
134.567 44325 210.535
134.684 44161 210.145
134.802 44603 211.194
134.919 44050 209.881
135.037 43865 209.44
135.154 41863 204.604
135.272 40037 200.092
135.389 38917 197.274
135.507 38781 196.929
135.624 40681 201.695
135.742 41167 202.897
135.859 41068 202.652
135.977 40718 201.787
136.094 39956 199.89
136.211 38930 197.307
136.329 37283 193.088
136.446 36108 190.021
136.564 34641 186.121
136.681 33162 182.104
136.798 32483 180.23
136.915 31381 177.147
137.033 30650 175.071
137.15 30951 175.929
137.267 31928 178.684
137.384 32619 180.607
137.502 33227 182.283
137.619 33383 182.71
137.736 34889 186.786
137.853 34726 186.349
137.97 35799 189.206
138.087 36690 191.546
138.204 37208 192.894
138.321 38060 195.09
138.438 38540 196.316
138.555 39237 198.083
138.672 39218 198.035
138.788 38663 196.629
138.905 38047 195.056
139.022 37249 193
139.139 38148 195.315
139.255 40524 201.306
139.372 42331 205.745
139.488 43021 207.415
139.605 43841 209.382
139.721 43521 208.617
139.838 44060 209.905
139.954 42802 206.886
140.071 40340 200.848
140.187 40428 201.067
140.303 38868 197.15
140.419 38240 195.551
140.535 37745 194.281
140.652 36680 191.52
140.768 0 1
140.884 0 1
141 0 1
141.115 0 1
141.231 0 1
141.347 0 1
141.463 0 1
141.578 0 1
141.694 0 1
144.104 0 1
144.219 0 1
144.335 0 1
144.45 0 1
144.566 0 1
144.682 0 1
144.798 0 1
144.914 0 1
145.03 0 1
145.146 35763 189.111
145.262 35348 188.011
145.378 34291 185.178
145.494 32499 180.275
145.61 32047 179.017
145.726 30969 175.98
145.842 30777 175.434
145.959 31020 176.125
146.075 31715 178.087
146.192 31807 178.345
146.308 31454 177.353
146.425 31908 178.628
146.541 32203 179.452
146.658 32082 179.114
146.774 32352 179.867
146.891 32453 180.147
147.008 32046 179.014
147.125 32793 181.088
147.241 32560 180.444
147.358 32316 179.767
147.475 31445 177.327
147.592 30121 173.554
147.709 29187 170.842
147.826 29282 171.12
147.943 30283 174.02
148.06 30929 175.866
148.177 31035 176.168
148.294 31303 176.927
148.411 30780 175.442
148.528 30120 173.551
148.645 29452 171.616
148.762 28567 169.018
148.88 26913 164.052
148.997 27425 165.605
149.114 24029 155.013
149.231 24836 157.594
149.349 24124 155.319
149.466 23843 154.412
149.583 23813 154.315
149.701 24485 156.477
149.818 25150 158.588
149.935 25247 158.893
150.053 25331 159.157
150.17 25988 161.208
150.287 25956 161.109
150.405 26510 162.819
150.522 27008 164.341
150.64 27556 166
150.757 27751 166.586
150.875 28100 167.631
150.992 27779 166.67
151.11 28055 167.496
151.227 27299 165.224
151.344 26445 162.619
151.462 27043 164.448
151.579 28037 167.443
151.697 29260 171.056
151.814 29983 173.156
151.932 29976 173.136
152.049 30297 174.06
152.167 29948 173.055
152.284 29922 172.98
152.402 29008 170.317
152.519 27808 166.757
152.636 27698 166.427
152.754 27153 164.782
152.871 26555 162.957
152.989 26085 161.509
153.106 26264 162.062
153.223 27205 164.939
153.341 27511 165.864
153.458 28092 167.607
153.575 28587 169.077
153.693 28818 169.759
153.81 29360 171.348
153.927 30058 173.372
154.044 30812 175.533
154.162 31375 177.13
154.279 32298 179.716
154.396 33308 182.505
154.513 33513 183.066
154.63 34333 185.292
154.747 34171 184.854
154.864 33635 183.398
154.981 33093 181.915
155.098 33676 183.51
155.215 34905 186.829
155.332 35986 189.7
155.449 36247 190.386
155.566 36390 190.762
155.683 36573 191.241
155.8 37062 192.515
155.917 36519 191.099
156.033 36034 189.826
156.15 0 1
156.267 0 1
156.383 0 1
156.5 0 1
156.617 0 1
156.733 0 1
156.85 0 1
156.966 0 1
157.082 0 1
157.199 0 1
157.315 0 1
157.431 0 1
157.547 0 1
157.664 0 1
157.78 0 1
157.896 0 1
158.012 0 1
158.128 0 1
158.244 0 1
158.359 0 1
158.475 0 1
158.591 0 1
158.706 0 1
