
6.15755 0 1
6.2731 0 1
6.3887 0 1
6.50437 0 1
6.62009 0 1
6.73587 0 1
6.8517 0 1
6.96759 0 1
7.08353 0 1
7.19952 0 1
7.31557 0 1
7.43166 0 1
7.54781 0 1
7.664 0 1
7.78024 0 1
7.89653 0 1
8.01286 0 1
8.12924 0 1
8.24567 0 1
8.36213 0 1
8.47864 0 1
8.59519 0 1
8.71178 0 1
8.82841 0 1
8.94508 0 1
9.06179 0 1
9.17853 0 1
9.29531 0 1
9.41212 0 1
9.52897 0 1
9.64584 0 1
9.76276 0 1
9.8797 0 1
9.99667 0 1
10.1137 0 1
10.2307 0 1
10.3478 0 1
10.4648 0 1
10.5819 0 1
10.6991 0 1
10.8162 0 1
10.9334 0 1
11.0506 0 1
11.1678 0 1
11.285 0 1
11.4023 0 1
11.5196 0 1
11.6369 0 1
11.7542 0 1
11.8715 0 1
11.9888 0 1
12.1062 0 1
12.2235 0 1
12.3409 0 1
12.4582 0 1
12.5756 0 1
12.693 0 1
12.8104 0 1
12.9278 0 1
13.0452 0 1
13.1626 0 1
13.28 0 1
13.3974 0 1
13.5149 0 1
13.6323 0 1
13.7497 0 1
13.8671 0 1
13.9845 0 1
14.1019 0 1
14.2193 0 1
14.3367 0 1
14.4541 0 1
14.5714 0 1
14.6888 0 1
14.8062 0 1
14.9235 0 1
15.0408 0 0
15.1581 0 0
15.2755 0 0
15.3927 0 0
15.51 0 0
15.6273 0 0
15.7445 0 0
15.8617 0 0
15.9789 0 0
16.0961 0 0
16.2132 0 0
16.3304 0 0
16.4475 0 0
16.5646 0 0
16.6816 0 0
16.7986 0 0
16.9156 0 0
17.0326 0 0
17.1496 0 0
17.2665 0 0
17.3833 0 0
17.5002 0 0
17.617 0 0
17.7338 0 0
17.8505 0 0
17.9672 0 0
18.0839 0 0
18.2005 0 0
18.3171 0 0
18.4337 0 0
18.5502 0 0
18.6666 0 0
18.7831 0 0
18.8994 0 0
19.0158 0 0
19.1321 0 0
19.2483 0 0
19.3645 0 0
19.4806 0 0
19.5967 0 0
19.7128 0 0
19.8288 0 0
19.9447 0 0
20.0606 0 1
20.1764 0 1
20.2922 0 1
20.4079 0 1
20.5236 0 1
20.6392 0 1
20.7548 0 1
20.8702 0 1
23.3078 0 1
23.4233 0 1
23.539 0 1
23.6547 0 1
23.7704 0 1
23.8862 0 1
24.0021 0 1
24.118 0 1
24.234 0 1
24.35 0 1
24.4661 1255 35.426
24.5822 1300 36.0555
24.6984 1253 35.3977
24.8146 1296 36
24.9309 1282 35.805
25.0472 1233 35.1141
25.1636 1254 35.4119
25.28 1196 34.5832
25.3965 1274 35.6931
25.513 1323 36.3731
25.6296 1336 36.5513
25.7462 1398 37.3898
25.8628 1457 38.1707
25.9795 1467 38.3014
26.0962 1478 38.4448
26.213 1408 37.5233
26.3298 1419 37.6696
26.4466 1501 38.7427
26.5635 1362 36.9053
26.6804 1365 36.9459
26.7973 1315 36.2629
26.9143 1327 36.428
27.0313 1412 37.5766
27.1483 1363 36.9188
27.2653 1482 38.4968
27.3824 1412 37.5766
27.4996 1492 38.6264
27.6167 1433 37.855
27.7339 1478 38.4448
27.8511 1378 37.1214
27.9683 1380 37.1484
28.0855 1350 36.7423
28.2028 1326 36.4143
28.3201 1236 35.1568
28.4374 1249 35.3412
28.5547 1160 34.0588
28.6721 1170 34.2053
28.7894 1158 34.0294
28.9068 1207 34.7419
29.0242 1160 34.0588
29.1416 1235 35.1426
29.259 1215 34.8569
29.3764 1320 36.3318
29.4939 1391 37.2961
29.6113 1342 36.6333
29.7288 1382 37.1753
29.8463 1399 37.4032
29.9638 1313 36.2353
30.0812 1259 35.4824
30.1987 1242 35.242
30.3162 1243 35.2562
30.4337 1287 35.8748
30.5512 1257 35.4542
30.6687 1330 36.4692
30.7862 1379 37.1349
30.9037 1368 36.9865
31.0212 1398 37.3898
31.1387 1365 36.9459
31.2562 1377 37.108
31.3737 1364 36.9324
31.4912 1420 37.6829
31.6087 1348 36.7151
31.7262 1355 36.8103
31.8436 1280 35.7771
31.9611 1274 35.6931
32.0785 1168 34.176
32.1959 1099 33.1512
32.3134 1142 33.7935
32.4308 1170 34.2053
32.5482 1128 33.5857
32.6655 1117 33.4215
32.7829 1215 34.8569
32.9002 1255 35.426
33.0176 1301 36.0694
33.1349 1312 36.2215
33.2522 1331 36.4829
33.3694 1322 36.3593
33.4867 1298 36.0278
33.6039 1321 36.3456
33.7211 1143 33.8083
33.8383 1176 34.2929
33.9554 1173 34.2491
34.0725 1210 34.7851
34.1896 1349 36.7287
34.3067 1332 36.4966
34.4237 1271 35.6511
34.5407 1294 35.9722
34.6577 1366 36.9594
34.7746 1343 36.647
34.8915 1278 35.7491
35.0084 1398 37.3898
35.1252 1349 36.7287
35.242 1301 36.0694
35.3587 1223 34.9714
35.4755 1240 35.2136
35.5921 1214 34.8425
35.7088 1152 33.9411
35.8254 1120 33.4664
35.9419 1054 32.4654
36.0584 1076 32.8024
36.1749 1064 32.619
36.2913 1144 33.8231
36.4077 1204 34.6987
36.524 1203 34.6843
36.6403 1188 34.4674
36.7565 1292 35.9444
36.8727 1268 35.609
36.9889 1325 36.4005
37.1049 1285 35.8469
37.221 0 1
37.3369 0 1
37.4529 0 1
37.5687 0 1
37.6845 0 1
37.8003 0 1
37.916 0 1
38.0316 0 1
38.1472 0 1
40.5851 0 1
40.7008 0 1
40.8164 0 1
40.9322 0 1
41.048 0 1
41.1639 0 1
41.2798 0 1
41.3958 0 1
41.5118 0 1
41.6279 0 1
41.744 944 30.7246
41.8602 895 29.9166
41.9765 984 31.3688
42.0928 1096 33.1059
42.2091 1017 31.8904
42.3255 1081 32.8786
42.4419 984 31.3688
42.5584 973 31.1929
42.675 860 29.3258
42.7915 948 30.7896
42.9081 954 30.8869
43.0248 1004 31.686
43.1415 992 31.496
43.2582 989 31.4484
43.375 1087 32.9697
43.4918 1033 32.1403
43.6087 1005 31.7017
43.7256 1019 31.9218
43.8425 973 31.1929
43.9595 964 31.0483
44.0765 983 31.3528
44.1935 976 31.241
44.3106 915 30.249
44.4277 883 29.7153
44.5448 795 28.1957
44.6619 776 27.8568
44.7791 724 26.9072
44.8963 714 26.7208
45.0136 741 27.2213
45.1308 701 26.4764
45.2481 761 27.5862
45.3654 782 27.9643
45.4827 777 27.8747
45.6001 732 27.0555
45.7174 771 27.7669
45.8348 799 28.2666
45.9522 795 28.1957
46.0697 679 26.0576
46.1871 666 25.807
46.3046 625 25
46.422 686 26.1916
46.5395 689 26.2488
46.657 661 25.7099
46.7745 759 27.55
46.892 741 27.2213
47.0096 741 27.2213
47.1271 782 27.9643
47.2446 713 26.7021
47.3622 726 26.9444
47.4797 732 27.0555
47.5973 719 26.8142
47.7149 704 26.533
47.8324 662 25.7294
47.95 604 24.5764
48.0675 560 23.6643
48.1851 587 24.2281
48.3027 507 22.5167
48.4202 492 22.1811
48.5378 550 23.4521
48.6554 543 23.3024
48.7729 541 23.2594
48.8904 594 24.3721
49.008 642 25.3377
49.1255 558 23.622
49.243 630 25.0998
49.3605 589 24.2693
49.478 577 24.0208
49.5955 532 23.0651
49.713 554 23.5372
49.8304 509 22.561
49.9479 509 22.561
50.0653 559 23.6432
50.1827 643 25.3574
50.3001 670 25.8844
50.4175 649 25.4755
50.5348 665 25.7876
50.6521 739 27.1846
50.7694 705 26.5518
50.8867 762 27.6043
51.004 737 27.1477
51.1212 744 27.2764
51.2384 794 28.178
51.3556 846 29.0861
51.4727 760 27.5681
51.5899 745 27.2947
51.707 716 26.7582
51.824 697 26.4008
51.9411 747 27.3313
52.0581 724 26.9072
52.175 713 26.7021
52.2919 809 28.4429
52.4088 867 29.4449
52.5257 877 29.6142
52.6425 904 30.0666
52.7593 940 30.6594
52.876 953 30.8707
52.9927 959 30.9677
53.1094 965 31.0644
53.226 926 30.4302
53.3426 871 29.5127
53.4591 809 28.4429
53.5756 881 29.6816
53.692 918 30.2985
53.8084 1018 31.9061
53.9248 1064 32.619
54.0411 1145 33.8378
54.1573 1155 33.9853
54.2735 0 1
54.3896 0 1
54.5057 0 1
54.6217 0 1
54.7377 0 1
54.8537 0 1
54.9695 0 1
55.0853 0 1
55.2011 0 1
55.3168 0 1
55.4324 0 1
57.824 0 1
57.9396 0 1
58.0553 0 1
58.1711 0 1
58.2869 0 1
58.4028 0 1
58.5187 0 1
58.6347 0 1
58.7508 0 1
58.8669 0 1
58.983 1215 34.8569
59.0992 1245 35.2846
59.2155 1307 36.1525
59.3318 1330 36.4692
59.4482 1336 36.5513
59.5646 1344 36.6606
59.681 1343 36.647
59.7975 1306 36.1386
59.9141 1251 35.3695
60.0306 1203 34.6843
60.1473 1171 34.2199
60.2639 1056 32.4962
60.3807 1002 31.6544
60.4974 1027 32.0468
60.6142 953 30.8707
60.731 1032 32.1248
60.8479 1005 31.7017
60.9648 1102 33.1964
61.0818 1089 33
61.1987 1096 33.1059
61.3158 1180 34.3511
61.4328 1184 34.4093
61.5499 1116 33.4066
61.667 1030 32.0936
61.7841 988 31.4325
61.9013 998 31.5911
62.0185 988 31.4325
62.1357 1012 31.8119
62.253 1117 33.4215
62.3702 1197 34.5977
62.4875 1183 34.3948
62.6049 1227 35.0286
62.7222 1265 35.5668
62.8396 1288 35.8887
62.9569 1390 37.2827
63.0743 1319 36.318
63.1918 1337 36.565
63.3092 1352 36.7696
63.4267 1342 36.6333
63.5441 1320 36.3318
63.6616 1232 35.0999
63.7791 1115 33.3916
63.8966 1039 32.2335
64.0142 1017 31.8904
64.1317 1010 31.7805
64.2492 1035 32.1714
64.3668 1074 32.7719
64.4843 1115 33.3916
64.6019 1229 35.0571
64.7195 1197 34.5977
64.837 1187 34.4529
64.9546 1207 34.7419
65.0722 1231 35.0856
65.1898 1171 34.2199
65.3074 1080 32.8634
65.4249 1003 31.6702
65.5425 978 31.273
65.6601 993 31.5119
65.7777 1016 31.8748
65.8952 1072 32.7414
66.0128 1187 34.4529
66.1304 1240 35.2136
66.2479 1242 35.242
66.3655 1277 35.7351
66.483 1270 35.6371
66.6005 1363 36.9188
66.718 1301 36.0694
66.8355 1263 35.5387
66.953 1222 34.9571
67.0705 1279 35.7631
67.1879 1229 35.0571
67.3054 1088 32.9848
67.4228 1006 31.7175
67.5402 943 30.7083
67.6576 962 31.0161
67.7749 907 30.1164
67.8923 923 30.3809
68.0096 1008 31.749
68.1269 1076 32.8024
68.2442 1045 32.3265
68.3614 1105 33.2415
68.4787 1056 32.4962
68.5958 1103 33.2114
68.713 1087 32.9697
68.8302 1014 31.8434
68.9473 892 29.8664
69.0643 908 30.133
69.1814 883 29.7153
69.2984 913 30.2159
69.4154 963 31.0322
69.5323 1044 32.311
69.6492 1111 33.3317
69.7661 1225 35
69.8829 1251 35.3695
69.9997 1243 35.2562
70.1165 1248 35.327
70.2332 1258 35.4683
70.3499 1210 34.7851
70.4665 1271 35.6511
70.5831 1178 34.322
70.6996 1154 33.9706
70.8161 1148 33.8821
70.9326 1063 32.6037
71.049 983 31.3528
71.1653 945 30.7409
71.2817 945 30.7409
71.3979 837 28.931
71.5141 907 30.1164
71.6303 869 29.4788
71.7464 881 29.6816
71.8624 0 1
71.9784 0 1
72.0944 0 1
72.2102 0 1
72.3261 0 1
72.4418 0 1
72.5575 0 1
72.6732 0 1
75.1054 0 1
75.2209 0 1
75.3365 0 1
75.4521 0 1
75.5678 0 1
75.6835 0 1
75.7993 0 1
75.9151 0 1
76.031 0 1
76.147 1032 32.1248
76.263 1159 34.0441
76.3791 1085 32.9393
76.4952 1026 32.0312
76.6113 924 30.3974
76.7276 888 29.7993
76.8438 950 30.8221
76.9601 942 30.692
77.0765 1052 32.4345
77.1929 1042 32.28
77.3093 1169 34.1906
77.4258 1098 33.1361
77.5423 1161 34.0735
77.6589 1142 33.7935
77.7755 1013 31.8277
77.8921 997 31.5753
78.0088 943 30.7083
78.1256 873 29.5466
78.2423 821 28.6531
78.3591 899 29.9833
78.4759 935 30.5778
78.5928 1022 31.9687
78.7097 1115 33.3916
78.8266 1144 33.8231
78.9436 1332 36.4966
79.0606 1222 34.9571
79.1776 1178 34.322
79.2946 1241 35.2278
79.4117 1263 35.5387
79.5288 1230 35.0714
79.6459 1216 34.8712
79.7631 1112 33.3467
79.8802 1089 33
79.9974 1007 31.7333
80.1147 934 30.5614
80.2319 850 29.1548
80.3491 849 29.1376
80.4664 873 29.5466
80.5837 878 29.6311
80.701 950 30.8221
80.8183 1020 31.9374
80.9357 992 31.496
81.053 1075 32.7872
81.1704 1078 32.8329
81.2877 1017 31.8904
81.4051 968 31.1127
81.5225 871 29.5127
81.6399 816 28.5657
81.7573 713 26.7021
81.8747 708 26.6083
81.9922 780 27.9285
82.1096 873 29.5466
82.227 922 30.3645
82.3444 994 31.5278
82.4619 1034 32.1559
82.5793 1053 32.45
82.6967 1081 32.8786
82.8142 1078 32.8329
82.9316 1069 32.6956
83.049 1107 33.2716
83.1664 1074 32.7719
83.2838 1066 32.6497
83.4012 966 31.0805
83.5186 890 29.8329
83.636 809 28.4429
83.7534 873 29.5466
83.8708 744 27.2764
83.9881 725 26.9258
84.1055 760 27.5681
84.2228 756 27.4955
84.3401 808 28.4253
84.4575 895 29.9166
84.5747 977 31.257
84.692 975 31.225
84.8093 928 30.4631
84.9265 888 29.7993
85.0437 785 28.0179
85.1609 711 26.6646
85.2781 669 25.865
85.3952 713 26.7021
85.5123 680 26.0768
85.6294 761 27.5862
85.7465 860 29.3258
85.8636 1025 32.0156
85.9806 984 31.3688
86.0976 1081 32.8786
86.2145 1142 33.7935
86.3315 1200 34.641
86.4484 1075 32.7872
86.5652 1176 34.2929
86.682 1197 34.5977
86.7988 1148 33.8821
86.9156 1099 33.1512
87.0323 1082 32.8938
87.149 1082 32.8938
87.2657 1008 31.749
87.3823 897 29.95
87.4988 899 29.9833
87.6154 918 30.2985
87.7318 969 31.1288
87.8483 955 30.9031
87.9647 1086 32.9545
88.081 1156 34
88.1973 1148 33.8821
88.3136 1109 33.3017
88.4298 1178 34.322
88.546 1045 32.3265
88.6621 970 31.1448
88.7781 888 29.7993
88.8942 0 1
89.0101 0 1
89.126 0 1
89.2419 0 1
89.3577 0 1
89.4734 0 1
89.5891 0 1
89.7047 0 1
89.8203 0 1
89.9358 0 1
92.3269 0 1
92.4424 0 1
92.558 0 1
92.6736 0 1
92.7893 0 1
92.905 0 1
93.0208 0 1
93.1366 0 1
93.2525 0 1
93.3685 0 1
93.4845 0 1
93.6005 1129 33.6006
93.7167 1222 34.9571
93.8328 1154 33.9706
93.949 1105 33.2415
94.0653 1018 31.9061
94.1816 951 30.8383
94.2979 889 29.8161
94.4143 846 29.0861
94.5307 835 28.8964
94.6472 843 29.0345
94.7637 961 31
94.8803 1079 32.8481
94.9969 1127 33.5708
95.1135 1250 35.3553
95.2302 1338 36.5787
95.3469 1289 35.9026
95.4637 1351 36.756
95.5805 1307 36.1525
95.6973 1338 36.5787
95.8142 1313 36.2353
95.9311 1286 35.8608
96.048 1282 35.805
96.1649 1226 35.0143
96.2819 1195 34.5688
96.3989 1128 33.5857
96.516 1058 32.5269
96.633 967 31.0966
96.7501 1004 31.686
96.8673 986 31.4006
96.9844 1079 32.8481
97.1016 1066 32.6497
97.2188 1138 33.7343
97.336 1198 34.6121
97.4532 1173 34.2491
97.5704 1145 33.8378
97.6877 1099 33.1512
97.805 968 31.1127
97.9223 899 29.9833
98.0396 881 29.6816
98.1569 868 29.4618
98.2743 844 29.0517
98.3916 938 30.6268
98.509 1035 32.1714
98.6264 1097 33.121
98.7438 1130 33.6155
98.8612 1247 35.3129
98.9786 1354 36.7967
99.096 1277 35.7351
99.2134 1331 36.4829
99.3308 1351 36.756
99.4482 1293 35.9583
99.5656 1249 35.3412
99.6831 1271 35.6511
99.8005 1301 36.0694
99.9179 1153 33.9559
100.035 1158 34.0294
100.153 1044 32.311
100.27 1028 32.0624
100.388 974 31.209
100.505 1040 32.249
100.622 1139 33.7491
100.74 1157 34.0147
100.857 1164 34.1174
100.975 1254 35.4119
101.092 1193 34.5398
101.209 1137 33.7194
101.327 1034 32.1559
101.444 1038 32.218
101.561 919 30.315
101.679 878 29.6311
101.796 833 28.8617
101.913 923 30.3809
102.03 1096 33.1059
102.148 1104 33.2265
102.265 1263 35.5387
102.382 1321 36.3456
102.499 1365 36.9459
102.616 1387 37.2424
102.733 1419 37.6696
102.851 1406 37.4967
102.968 1402 37.4433
103.085 1381 37.1618
103.202 1371 37.027
103.319 1261 35.5106
103.436 1263 35.5387
103.552 1207 34.7419
103.669 1166 34.1467
103.786 1108 33.2866
103.903 1048 32.3728
104.02 1138 33.7343
104.137 1203 34.6843
104.253 1244 35.2704
104.37 1288 35.8887
104.487 1361 36.8917
104.603 1247 35.3129
104.72 1200 34.641
104.836 1098 33.1361
104.953 1051 32.4191
105.069 927 30.4467
105.186 923 30.3809
105.302 968 31.1127
105.418 1019 31.9218
105.535 1130 33.6155
105.651 1286 35.8608
105.767 1416 37.6298
105.883 1404 37.47
105.999 1491 38.6135
106.115 0 1
106.231 0 1
106.347 0 1
106.463 0 1
106.579 0 1
106.694 0 1
106.81 0 1
106.926 0 1
107.041 0 1
107.157 0 1
109.576 0 1
109.692 0 1
109.807 0 1
109.923 0 1
110.039 0 1
110.155 0 1
110.27 0 1
110.386 0 1
110.502 0 1
110.618 1139 33.7491
110.735 1247 35.3129
110.851 1414 37.6032
110.967 1375 37.081
111.083 1396 37.3631
111.199 1473 38.3797
111.316 1508 38.833
111.432 1465 38.2753
111.549 1492 38.6264
111.665 1462 38.2361
111.782 1428 37.7889
111.898 1306 36.1386
112.015 1281 35.7911
112.132 1253 35.3977
112.248 1123 33.5112
112.365 1205 34.7131
112.482 1139 33.7491
112.599 1260 35.4965
112.716 1194 34.5543
112.832 1131 33.6303
112.949 1256 35.4401
113.066 1238 35.1852
113.183 1230 35.0714
113.3 1157 34.0147
113.417 1044 32.311
113.534 1011 31.7962
113.652 879 29.6479
113.769 903 30.05
113.886 839 28.9655
114.003 967 31.0966
114.12 1070 32.7109
114.238 1281 35.7911
114.355 1223 34.9714
114.472 1314 36.2491
114.589 1407 37.51
114.707 1371 37.027
114.824 1441 37.9605
114.942 1384 37.2022
115.059 1412 37.5766
115.176 1370 37.0135
115.294 1341 36.6197
115.411 1298 36.0278
115.529 1353 36.7831
115.646 1206 34.7275
115.764 1236 35.1568
115.881 1103 33.2114
115.999 1124 33.5261
116.116 1198 34.6121
116.234 1278 35.7491
116.351 1237 35.171
116.469 1267 35.5949
116.586 1246 35.2987
116.704 1282 35.805
116.821 1258 35.4683
116.939 1158 34.0294
117.056 1017 31.8904
117.174 1014 31.8434
117.291 929 30.4795
117.409 984 31.3688
117.526 1005 31.7017
117.644 1112 33.3467
117.761 1263 35.5387
117.879 1378 37.1214
117.996 1349 36.7287
118.114 1426 37.7624
118.231 1396 37.3631
118.349 1409 37.5366
118.466 1378 37.1214
118.584 1472 38.3667
118.701 1432 37.8418
118.819 1431 37.8286
118.936 1358 36.8511
119.053 1294 35.9722
119.171 1311 36.2077
119.288 1260 35.4965
119.405 1218 34.8999
119.523 1204 34.6987
119.64 1218 34.8999
119.757 1240 35.2136
119.875 1247 35.3129
119.992 1266 35.5809
120.109 1365 36.9459
120.226 1246 35.2987
120.343 1227 35.0286
120.46 1167 34.1614
120.578 1151 33.9264
120.695 1022 31.9687
120.812 1019 31.9218
120.929 1017 31.8904
121.046 994 31.5278
121.163 1007 31.7333
121.279 1100 33.1662
121.396 1158 34.0294
121.513 1302 36.0832
121.63 1369 37
121.747 1354 36.7967
121.863 1515 38.923
121.98 1420 37.6829
122.097 1467 38.3014
122.213 1426 37.7624
122.33 1433 37.855
122.446 1367 36.973
122.563 1382 37.1753
122.679 1341 36.6197
122.795 1279 35.7631
122.912 1257 35.4542
123.028 1191 34.5109
123.144 1222 34.9571
123.26 1175 34.2783
123.377 0 1
123.493 0 1
123.609 0 1
123.725 0 1
123.84 0 1
123.956 0 1
124.072 0 1
124.188 0 1
124.303 0 1
124.419 0 1
126.852 0 1
126.968 0 1
127.083 0 1
127.199 0 1
127.315 0 1
127.431 0 1
127.547 0 1
127.663 0 1
127.779 0 1
127.895 0 1
128.011 0 1
128.127 0 1
128.243 0 1
128.359 1365 36.9459
128.476 1354 36.7967
128.592 1327 36.428
128.708 1363 36.9188
128.825 1383 37.1887
128.941 1359 36.8646
129.058 1406 37.4967
129.174 1421 37.6962
129.291 1307 36.1525
129.408 1310 36.1939
129.524 1292 35.9444
129.641 1159 34.0441
129.758 1140 33.7639
129.875 1099 33.1512
129.992 1099 33.1512
130.108 1151 33.9264
130.225 1131 33.6303
130.342 1331 36.4829
130.459 1366 36.9594
130.576 1435 37.8814
130.693 1497 38.6911
130.81 1478 38.4448
130.928 1507 38.8201
131.045 1519 38.9744
131.162 1536 39.1918
131.279 1599 39.9875
131.396 1508 38.833
131.513 1514 38.9102
131.631 1513 38.8973
131.748 1530 39.1152
131.865 1338 36.5787
131.983 1321 36.3456
132.1 1341 36.6197
132.217 1361 36.8917
132.335 1393 37.3229
132.452 1427 37.7757
132.57 1426 37.7624
132.687 1403 37.4566
132.804 1416 37.6298
132.922 1315 36.2629
133.039 1300 36.0555
133.157 1314 36.2491
133.274 1222 34.9571
133.392 1184 34.4093
133.509 1161 34.0735
133.627 1094 33.0757
133.744 1162 34.0881
133.862 1272 35.6651
133.979 1322 36.3593
134.097 1362 36.9053
134.214 1409 37.5366
134.332 1457 38.1707
134.449 1535 39.1791
134.567 1522 39.0128
134.684 1523 39.0256
134.802 1582 39.7744
134.919 1593 39.9124
135.037 1557 39.4588
135.154 1457 38.1707
135.272 1472 38.3667
135.389 1390 37.2827
135.507 1402 37.4433
135.624 1375 37.081
135.742 1450 38.0789
135.859 1466 38.2884
135.977 1412 37.5766
136.094 1443 37.9868
136.211 1386 37.229
136.329 1426 37.7624
136.446 1391 37.2961
136.564 1376 37.0945
136.681 1300 36.0555
136.798 1204 34.6987
136.915 1168 34.176
137.033 1156 34
137.15 1132 33.6452
137.267 1137 33.7194
137.384 1206 34.7275
137.502 1243 35.2562
137.619 1337 36.565
137.736 1426 37.7624
137.853 1329 36.4555
137.97 1486 38.5487
138.087 1517 38.9487
138.204 1484 38.5227
138.321 1521 39
138.438 1554 39.4208
138.555 1566 39.5727
138.672 1532 39.1408
138.788 1468 38.3145
138.905 1464 38.2623
139.022 1427 37.7757
139.139 1384 37.2022
139.255 1364 36.9324
139.372 1391 37.2961
139.488 1453 38.1182
139.605 1455 38.1445
139.721 1519 38.9744
139.838 1456 38.1576
139.954 1446 38.0263
140.071 1451 38.092
140.187 1356 36.8239
140.303 1303 36.0971
140.419 1277 35.7351
140.535 1202 34.6699
140.652 1124 33.5261
140.768 0 1
140.884 0 1
141 0 1
141.115 0 1
141.231 0 1
141.347 0 1
141.463 0 1
141.578 0 1
141.694 0 1
144.104 0 1
144.219 0 1
144.335 0 1
144.45 0 1
144.566 0 1
144.682 0 1
144.798 0 1
144.914 0 1
145.03 0 1
145.146 973 31.1929
145.262 1041 32.2645
145.378 1040 32.249
145.494 1013 31.8277
145.61 937 30.6105
145.726 917 30.282
145.842 911 30.1828
145.959 904 30.0666
146.075 893 29.8831
146.192 887 29.7825
146.308 1038 32.218
146.425 1036 32.187
146.541 1042 32.28
146.658 1115 33.3916
146.774 1138 33.7343
146.891 1125 33.541
147.008 1202 34.6699
147.125 1134 33.6749
147.241 1212 34.8138
147.358 1248 35.327
147.475 1185 34.4238
147.592 1252 35.3836
147.709 1182 34.3802
147.826 1104 33.2265
147.943 1218 34.8999
148.06 1223 34.9714
148.177 1098 33.1361
148.294 1164 34.1174
148.411 1123 33.5112
148.528 1199 34.6266
148.645 1186 34.4384
148.762 1300 36.0555
148.88 1175 34.2783
148.997 1178 34.322
149.114 1153 33.9559
149.231 1091 33.0303
149.349 1085 32.9393
149.466 1066 32.6497
149.583 990 31.4643
149.701 973 31.1929
149.818 927 30.4467
149.935 908 30.133
150.053 945 30.7409
150.17 1021 31.9531
150.287 1079 32.8481
150.405 1083 32.909
150.522 1120 33.4664
150.64 1151 33.9264
150.757 1196 34.5832
150.875 1202 34.6699
150.992 1202 34.6699
151.11 1205 34.7131
151.227 1228 35.0428
151.344 1287 35.8748
151.462 1228 35.0428
151.579 1235 35.1426
151.697 1162 34.0881
151.814 1195 34.5688
151.932 1144 33.8231
152.049 1198 34.6121
152.167 1153 33.9559
152.284 1176 34.2929
152.402 1244 35.2704
152.519 1190 34.4964
152.636 1270 35.6371
152.754 1202 34.6699
152.871 1159 34.0441
152.989 1141 33.7787
153.106 1053 32.45
153.223 1063 32.6037
153.341 1003 31.6702
153.458 1026 32.0312
153.575 994 31.5278
153.693 1076 32.8024
153.81 1085 32.9393
153.927 1135 33.6898
154.044 1192 34.5254
154.162 1261 35.5106
154.279 1216 34.8712
154.396 1301 36.0694
154.513 1377 37.108
154.63 1356 36.8239
154.747 1344 36.6606
154.864 1296 36
154.981 1310 36.1939
155.098 1345 36.6742
155.215 1283 35.819
155.332 1354 36.7967
155.449 1263 35.5387
155.566 1299 36.0416
155.683 1296 36
155.8 1326 36.4143
155.917 1290 35.9166
156.033 1350 36.7423
156.15 0 1
156.267 0 1
156.383 0 1
156.5 0 1
156.617 0 1
156.733 0 1
156.85 0 1
156.966 0 1
157.082 0 1
157.199 0 1
157.315 0 1
157.431 0 1
157.547 0 1
157.664 0 1
157.78 0 1
157.896 0 1
158.012 0 1
158.128 0 1
158.244 0 1
158.359 0 1
158.475 0 1
158.591 0 1
158.706 0 1
