
6.15755 0 1
6.2731 0 1
6.3887 0 1
6.50437 0 1
6.62009 0 1
6.73587 0 1
6.8517 0 1
6.96759 0 1
7.08353 0 1
7.19952 0 1
7.31557 0 1
7.43166 0 1
7.54781 0 1
7.664 0 1
7.78024 0 1
7.89653 0 1
8.01286 0 1
8.12924 0 1
8.24567 0 1
8.36213 0 1
8.47864 0 1
8.59519 0 1
8.71178 0 1
8.82841 0 1
8.94508 0 1
9.06179 0 1
9.17853 0 1
9.29531 0 1
9.41212 0 1
9.52897 0 1
9.64584 0 1
9.76276 0 1
9.8797 0 1
9.99667 0 1
10.1137 0 1
10.2307 0 1
10.3478 0 1
10.4648 0 1
10.5819 0 1
10.6991 0 1
10.8162 0 1
10.9334 0 1
11.0506 0 1
11.1678 0 1
11.285 0 1
11.4023 0 1
11.5196 0 1
11.6369 0 1
11.7542 0 1
11.8715 0 1
11.9888 0 1
12.1062 0 1
12.2235 0 1
12.3409 0 1
12.4582 0 1
12.5756 0 1
12.693 0 1
12.8104 0 1
12.9278 0 1
13.0452 0 1
13.1626 0 1
13.28 0 1
13.3974 0 1
13.5149 0 1
13.6323 0 1
13.7497 0 1
13.8671 0 1
13.9845 0 1
14.1019 0 1
14.2193 0 1
14.3367 0 1
14.4541 0 1
14.5714 0 1
14.6888 0 1
14.8062 0 1
14.9235 0 1
15.0408 0 0
15.1581 0 0
15.2755 0 0
15.3927 0 0
15.51 0 0
15.6273 0 0
15.7445 0 0
15.8617 0 0
15.9789 0 0
16.0961 0 0
16.2132 0 0
16.3304 0 0
16.4475 0 0
16.5646 0 0
16.6816 0 0
16.7986 0 0
16.9156 0 0
17.0326 0 0
17.1496 0 0
17.2665 0 0
17.3833 0 0
17.5002 0 0
17.617 0 0
17.7338 0 0
17.8505 0 0
17.9672 0 0
18.0839 0 0
18.2005 0 0
18.3171 0 0
18.4337 0 0
18.5502 0 0
18.6666 0 0
18.7831 0 0
18.8994 0 0
19.0158 0 0
19.1321 0 0
19.2483 0 0
19.3645 0 0
19.4806 0 0
19.5967 0 0
19.7128 0 0
19.8288 0 0
19.9447 0 0
20.0606 0 1
20.1764 0 1
20.2922 0 1
20.4079 0 1
20.5236 0 1
20.6392 0 1
20.7548 0 1
20.8702 0 1
23.3078 0 1
23.4233 0 1
23.539 0 1
23.6547 0 1
23.7704 0 1
23.8862 0 1
24.0021 0 1
24.118 0 1
24.234 0 1
24.35 0 1
24.4661 1453 38.1182
24.5822 1437 37.9078
24.6984 1434 37.8682
24.8146 1503 38.7685
24.9309 1403 37.4566
25.0472 1436 37.8946
25.1636 1432 37.8418
25.28 1443 37.9868
25.3965 1477 38.4318
25.513 1449 38.0657
25.6296 1469 38.3275
25.7462 1515 38.923
25.8628 1520 38.9872
25.9795 1521 39
26.0962 1381 37.1618
26.213 1537 39.2046
26.3298 1480 38.4708
26.4466 1447 38.0395
26.5635 1410 37.55
26.6804 1336 36.5513
26.7973 1339 36.5923
26.9143 1248 35.327
27.0313 1339 36.5923
27.1483 1407 37.51
27.2653 1462 38.2361
27.3824 1487 38.5616
27.4996 1499 38.7169
27.6167 1472 38.3667
27.7339 1509 38.8458
27.8511 1395 37.3497
27.9683 1556 39.4462
28.0855 1407 37.51
28.2028 1478 38.4448
28.3201 1455 38.1445
28.4374 1447 38.0395
28.5547 1367 36.973
28.6721 1404 37.47
28.7894 1411 37.5633
28.9068 1410 37.55
29.0242 1379 37.1349
29.1416 1307 36.1525
29.259 1423 37.7227
29.3764 1388 37.2559
29.4939 1344 36.6606
29.6113 1395 37.3497
29.7288 1389 37.2693
29.8463 1407 37.51
29.9638 1357 36.8375
30.0812 1249 35.3412
30.1987 1205 34.7131
30.3162 1147 33.8674
30.4337 1236 35.1568
30.5512 1273 35.6791
30.6687 1248 35.327
30.7862 1359 36.8646
30.9037 1354 36.7967
31.0212 1450 38.0789
31.1387 1447 38.0395
31.2562 1508 38.833
31.3737 1421 37.6962
31.4912 1473 38.3797
31.6087 1366 36.9594
31.7262 1357 36.8375
31.8436 1367 36.973
31.9611 1389 37.2693
32.0785 1391 37.2961
32.1959 1371 37.027
32.3134 1358 36.8511
32.4308 1299 36.0416
32.5482 1293 35.9583
32.6655 1366 36.9594
32.7829 1339 36.5923
32.9002 1322 36.3593
33.0176 1360 36.8782
33.1349 1439 37.9342
33.2522 1334 36.524
33.3694 1299 36.0416
33.4867 1343 36.647
33.6039 1259 35.4824
33.7211 1307 36.1525
33.8383 1219 34.9142
33.9554 1174 34.2637
34.0725 1112 33.3467
34.1896 1186 34.4384
34.3067 1252 35.3836
34.4237 1307 36.1525
34.5407 1343 36.647
34.6577 1391 37.2961
34.7746 1348 36.7151
34.8915 1380 37.1484
35.0084 1386 37.229
35.1252 1399 37.4032
35.242 1372 37.0405
35.3587 1357 36.8375
35.4755 1371 37.027
35.5921 1341 36.6197
35.7088 1363 36.9188
35.8254 1257 35.4542
35.9419 1247 35.3129
36.0584 1265 35.5668
36.1749 1210 34.7851
36.2913 1261 35.5106
36.4077 1263 35.5387
36.524 1248 35.327
36.6403 1315 36.2629
36.7565 1227 35.0286
36.8727 1343 36.647
36.9889 1308 36.1663
37.1049 1269 35.623
37.221 0 1
37.3369 0 1
37.4529 0 1
37.5687 0 1
37.6845 0 1
37.8003 0 1
37.916 0 1
38.0316 0 1
38.1472 0 1
40.5851 0 1
40.7008 0 1
40.8164 0 1
40.9322 0 1
41.048 0 1
41.1639 0 1
41.2798 0 1
41.3958 0 1
41.5118 0 1
41.6279 0 1
41.744 958 30.9516
41.8602 1001 31.6386
41.9765 978 31.273
42.0928 1027 32.0468
42.2091 1075 32.7872
42.3255 1040 32.249
42.4419 1035 32.1714
42.5584 894 29.8998
42.675 874 29.5635
42.7915 833 28.8617
42.9081 857 29.2746
43.0248 870 29.4958
43.1415 929 30.4795
43.2582 993 31.5119
43.375 1023 31.9844
43.4918 1004 31.686
43.6087 993 31.5119
43.7256 964 31.0483
43.8425 958 30.9516
43.9595 896 29.9333
44.0765 922 30.3645
44.1935 994 31.5278
44.3106 886 29.7658
44.4277 867 29.4449
44.5448 837 28.931
44.6619 757 27.5136
44.7791 762 27.6043
44.8963 740 27.2029
45.0136 738 27.1662
45.1308 735 27.1109
45.2481 740 27.2029
45.3654 702 26.4953
45.4827 769 27.7308
45.6001 738 27.1662
45.7174 769 27.7308
45.8348 774 27.8209
45.9522 741 27.2213
46.0697 716 26.7582
46.1871 652 25.5343
46.3046 590 24.2899
46.422 608 24.6577
46.5395 642 25.3377
46.657 664 25.7682
46.7745 717 26.7769
46.892 707 26.5895
47.0096 700 26.4575
47.1271 677 26.0192
47.2446 689 26.2488
47.3622 721 26.8514
47.4797 668 25.8457
47.5973 709 26.6271
47.7149 673 25.9422
47.8324 636 25.219
47.95 618 24.8596
48.0675 633 25.1595
48.1851 615 24.7992
48.3027 547 23.388
48.4202 540 23.2379
48.5378 568 23.8328
48.6554 587 24.2281
48.7729 584 24.1661
48.8904 543 23.3024
49.008 582 24.1247
49.1255 617 24.8395
49.243 577 24.0208
49.3605 552 23.4947
49.478 604 24.5764
49.5955 543 23.3024
49.713 465 21.5639
49.8304 479 21.8861
49.9479 462 21.4942
50.0653 500 22.3607
50.1827 564 23.7487
50.3001 614 24.779
50.4175 662 25.7294
50.5348 679 26.0576
50.6521 679 26.0576
50.7694 698 26.4197
50.8867 738 27.1662
51.004 741 27.2213
51.1212 707 26.5895
51.2384 738 27.1662
51.3556 774 27.8209
51.4727 764 27.6405
51.5899 696 26.3818
51.707 729 27
51.824 762 27.6043
51.9411 771 27.7669
52.0581 728 26.9815
52.175 799 28.2666
52.2919 799 28.2666
52.4088 860 29.3258
52.5257 848 29.1204
52.6425 885 29.7489
52.7593 974 31.209
52.876 920 30.3315
52.9927 959 30.9677
53.1094 864 29.3939
53.226 733 27.074
53.3426 693 26.3249
53.4591 732 27.0555
53.5756 797 28.2312
53.692 921 30.348
53.8084 961 31
53.9248 1078 32.8329
54.0411 1112 33.3467
54.1573 1121 33.4813
54.2735 0 1
54.3896 0 1
54.5057 0 1
54.6217 0 1
54.7377 0 1
54.8537 0 1
54.9695 0 1
55.0853 0 1
55.2011 0 1
55.3168 0 1
55.4324 0 1
57.824 0 1
57.9396 0 1
58.0553 0 1
58.1711 0 1
58.2869 0 1
58.4028 0 1
58.5187 0 1
58.6347 0 1
58.7508 0 1
58.8669 0 1
58.983 1111 33.3317
59.0992 1290 35.9166
59.2155 1214 34.8425
59.3318 1318 36.3043
59.4482 1372 37.0405
59.5646 1327 36.428
59.681 1319 36.318
59.7975 1344 36.6606
59.9141 1292 35.9444
60.0306 1291 35.9305
60.1473 1223 34.9714
60.2639 1115 33.3916
60.3807 1142 33.7935
60.4974 1085 32.9393
60.6142 1099 33.1512
60.731 1124 33.5261
60.8479 996 31.5595
60.9648 1084 32.9242
61.0818 1007 31.7333
61.1987 1111 33.3317
61.3158 1148 33.8821
61.4328 1039 32.2335
61.5499 1091 33.0303
61.667 965 31.0644
61.7841 881 29.6816
61.9013 836 28.9137
62.0185 793 28.1603
62.1357 871 29.5127
62.253 967 31.0966
62.3702 1074 32.7719
62.4875 1188 34.4674
62.6049 1218 34.8999
62.7222 1280 35.7771
62.8396 1297 36.0139
62.9569 1228 35.0428
63.0743 1276 35.7211
63.1918 1305 36.1248
63.3092 1283 35.819
63.4267 1283 35.819
63.5441 1237 35.171
63.6616 1127 33.5708
63.7791 1181 34.3657
63.8966 1136 33.7046
64.0142 1095 33.0908
64.1317 1150 33.9116
64.2492 1100 33.1662
64.3668 1134 33.6749
64.4843 1173 34.2491
64.6019 1139 33.7491
64.7195 1157 34.0147
64.837 1157 34.0147
64.9546 1235 35.1426
65.0722 1089 33
65.1898 1093 33.0606
65.3074 955 30.9031
65.4249 868 29.4618
65.5425 798 28.2489
65.6601 848 29.1204
65.7777 938 30.6268
65.8952 1049 32.3883
66.0128 1186 34.4384
66.1304 1239 35.1994
66.2479 1328 36.4417
66.3655 1268 35.609
66.483 1259 35.4824
66.6005 1331 36.4829
66.718 1268 35.609
66.8355 1296 36
66.953 1239 35.1994
67.0705 1303 36.0971
67.1879 1239 35.1994
67.3054 1161 34.0735
67.4228 1141 33.7787
67.5402 1087 32.9697
67.6576 1076 32.8024
67.7749 1012 31.8119
67.8923 1112 33.3467
68.0096 1012 31.8119
68.1269 1073 32.7567
68.2442 1157 34.0147
68.3614 1084 32.9242
68.4787 1147 33.8674
68.5958 1127 33.5708
68.713 1074 32.7719
68.8302 1026 32.0312
68.9473 900 30
69.0643 751 27.4044
69.1814 735 27.1109
69.2984 717 26.7769
69.4154 904 30.0666
69.5323 1024 32
69.6492 1163 34.1028
69.7661 1178 34.322
69.8829 1265 35.5668
69.9997 1260 35.4965
70.1165 1280 35.7771
70.2332 1294 35.9722
70.3499 1271 35.6511
70.4665 1328 36.4417
70.5831 1196 34.5832
70.6996 1209 34.7707
70.8161 1179 34.3366
70.9326 1084 32.9242
71.049 1064 32.619
71.1653 1027 32.0468
71.2817 989 31.4484
71.3979 961 31
71.5141 991 31.4802
71.6303 1005 31.7017
71.7464 975 31.225
71.8624 0 1
71.9784 0 1
72.0944 0 1
72.2102 0 1
72.3261 0 1
72.4418 0 1
72.5575 0 1
72.6732 0 1
75.1054 0 1
75.2209 0 1
75.3365 0 1
75.4521 0 1
75.5678 0 1
75.6835 0 1
75.7993 0 1
75.9151 0 1
76.031 0 1
76.147 1115 33.3916
76.263 1096 33.1059
76.3791 1071 32.7261
76.4952 1048 32.3728
76.6113 970 31.1448
76.7276 965 31.0644
76.8438 992 31.496
76.9601 1016 31.8748
77.0765 1080 32.8634
77.1929 1048 32.3728
77.3093 1128 33.5857
77.4258 1101 33.1813
77.5423 1099 33.1512
77.6589 1045 32.3265
77.7755 1007 31.7333
77.8921 890 29.8329
78.0088 777 27.8747
78.1256 705 26.5518
78.2423 634 25.1794
78.3591 728 26.9815
78.4759 886 29.7658
78.5928 1079 32.8481
78.7097 1136 33.7046
78.8266 1089 33
78.9436 1199 34.6266
79.0606 1159 34.0441
79.1776 1205 34.7131
79.2946 1223 34.9714
79.4117 1210 34.7851
79.5288 1236 35.1568
79.6459 1181 34.3657
79.7631 1117 33.4215
79.8802 1051 32.4191
79.9974 1029 32.078
80.1147 979 31.289
80.2319 908 30.133
80.3491 856 29.2575
80.4664 916 30.2655
80.5837 998 31.5911
80.701 910 30.1662
80.8183 938 30.6268
80.9357 909 30.1496
81.053 1003 31.6702
81.1704 993 31.5119
81.2877 917 30.282
81.4051 897 29.95
81.5225 798 28.2489
81.6399 733 27.074
81.7573 635 25.1992
81.8747 631 25.1197
81.9922 618 24.8596
82.1096 773 27.8029
82.227 875 29.5804
82.3444 915 30.249
82.4619 1000 31.6228
82.5793 1020 31.9374
82.6967 1066 32.6497
82.8142 1080 32.8634
82.9316 1017 31.8904
83.049 1067 32.665
83.1664 954 30.8869
83.2838 983 31.3528
83.4012 893 29.8831
83.5186 894 29.8998
83.636 845 29.0689
83.7534 726 26.9444
83.8708 770 27.7489
83.9881 744 27.2764
84.1055 800 28.2843
84.2228 808 28.4253
84.3401 803 28.3373
84.4575 875 29.5804
84.5747 908 30.133
84.692 947 30.7734
84.8093 825 28.7228
84.9265 880 29.6648
85.0437 735 27.1109
85.1609 718 26.7955
85.2781 625 25
85.3952 594 24.3721
85.5123 638 25.2587
85.6294 724 26.9072
85.7465 872 29.5296
85.8636 963 31.0322
85.9806 1017 31.8904
86.0976 1162 34.0881
86.2145 1056 32.4962
86.3315 1218 34.8999
86.4484 1155 33.9853
86.5652 1195 34.5688
86.682 1172 34.2345
86.7988 1128 33.5857
86.9156 1080 32.8634
87.0323 1015 31.8591
87.149 968 31.1127
87.2657 966 31.0805
87.3823 938 30.6268
87.4988 887 29.7825
87.6154 916 30.2655
87.7318 975 31.225
87.8483 983 31.3528
87.9647 1039 32.2335
88.081 1110 33.3167
88.1973 1138 33.7343
88.3136 1115 33.3916
88.4298 1071 32.7261
88.546 1069 32.6956
88.6621 859 29.3087
88.7781 781 27.9464
88.8942 0 1
89.0101 0 1
89.126 0 1
89.2419 0 1
89.3577 0 1
89.4734 0 1
89.5891 0 1
89.7047 0 1
89.8203 0 1
89.9358 0 1
92.3269 0 1
92.4424 0 1
92.558 0 1
92.6736 0 1
92.7893 0 1
92.905 0 1
93.0208 0 1
93.1366 0 1
93.2525 0 1
93.3685 0 1
93.4845 0 1
93.6005 1037 32.2025
93.7167 1085 32.9393
93.8328 1099 33.1512
93.949 1003 31.6702
94.0653 990 31.4643
94.1816 926 30.4302
94.2979 809 28.4429
94.4143 755 27.4773
94.5307 829 28.7924
94.6472 804 28.3549
94.7637 884 29.7321
94.8803 1010 31.7805
94.9969 1066 32.6497
95.1135 1148 33.8821
95.2302 1208 34.7563
95.3469 1220 34.9285
95.4637 1280 35.7771
95.5805 1260 35.4965
95.6973 1345 36.6742
95.8142 1258 35.4683
95.9311 1283 35.819
96.048 1211 34.7994
96.1649 1173 34.2491
96.2819 1060 32.5576
96.3989 1094 33.0757
96.516 1017 31.8904
96.633 964 31.0483
96.7501 980 31.305
96.8673 1048 32.3728
96.9844 1055 32.4808
97.1016 1071 32.7261
97.2188 1095 33.0908
97.336 1160 34.0588
97.4532 1159 34.0441
97.5704 1178 34.322
97.6877 1073 32.7567
97.805 948 30.7896
97.9223 845 29.0689
98.0396 805 28.3725
98.1569 770 27.7489
98.2743 727 26.9629
98.3916 873 29.5466
98.509 1028 32.0624
98.6264 1120 33.4664
98.7438 1210 34.7851
98.8612 1196 34.5832
98.9786 1302 36.0832
99.096 1246 35.2987
99.2134 1293 35.9583
99.3308 1337 36.565
99.4482 1297 36.0139
99.5656 1231 35.0856
99.6831 1295 35.9861
99.8005 1226 35.0143
99.9179 1111 33.3317
100.035 1117 33.4215
100.153 1078 32.8329
100.27 1043 32.2955
100.388 993 31.5119
100.505 1061 32.573
100.622 1115 33.3916
100.74 1084 32.9242
100.857 1196 34.5832
100.975 1123 33.5112
101.092 1178 34.322
101.209 1117 33.4215
101.327 1039 32.2335
101.444 894 29.8998
101.561 834 28.8791
101.679 777 27.8747
101.796 839 28.9655
101.913 856 29.2575
102.03 1000 31.6228
102.148 1107 33.2716
102.265 1151 33.9264
102.382 1301 36.0694
102.499 1369 37
102.616 1361 36.8917
102.733 1413 37.5899
102.851 1389 37.2693
102.968 1413 37.5899
103.085 1386 37.229
103.202 1394 37.3363
103.319 1262 35.5246
103.436 1260 35.4965
103.552 1183 34.3948
103.669 1087 32.9697
103.786 1070 32.7109
103.903 1058 32.5269
104.02 1134 33.6749
104.137 1204 34.6987
104.253 1207 34.7419
104.37 1277 35.7351
104.487 1255 35.426
104.603 1258 35.4683
104.72 1277 35.7351
104.836 1041 32.2645
104.953 1010 31.7805
105.069 913 30.2159
105.186 929 30.4795
105.302 929 30.4795
105.418 975 31.225
105.535 1181 34.3657
105.651 1279 35.7631
105.767 1325 36.4005
105.883 1504 38.7814
105.999 1493 38.6394
106.115 0 1
106.231 0 1
106.347 0 1
106.463 0 1
106.579 0 1
106.694 0 1
106.81 0 1
106.926 0 1
107.041 0 1
107.157 0 1
109.576 0 1
109.692 0 1
109.807 0 1
109.923 0 1
110.039 0 1
110.155 0 1
110.27 0 1
110.386 0 1
110.502 0 1
110.618 1125 33.541
110.735 1262 35.5246
110.851 1333 36.5103
110.967 1350 36.7423
111.083 1489 38.5876
111.199 1472 38.3667
111.316 1510 38.8587
111.432 1476 38.4187
111.549 1508 38.833
111.665 1495 38.6652
111.782 1326 36.4143
111.898 1335 36.5377
112.015 1250 35.3553
112.132 1188 34.4674
112.248 1084 32.9242
112.365 1100 33.1662
112.482 1099 33.1512
112.599 1242 35.242
112.716 1201 34.6554
112.832 1186 34.4384
112.949 1258 35.4683
113.066 1240 35.2136
113.183 1162 34.0881
113.3 1125 33.541
113.417 1068 32.6803
113.534 937 30.6105
113.652 912 30.1993
113.769 865 29.4109
113.886 885 29.7489
114.003 877 29.6142
114.12 1060 32.5576
114.238 1250 35.3553
114.355 1272 35.6651
114.472 1320 36.3318
114.589 1327 36.428
114.707 1354 36.7967
114.824 1435 37.8814
114.942 1446 38.0263
115.059 1427 37.7757
115.176 1361 36.8917
115.294 1312 36.2215
115.411 1220 34.9285
115.529 1257 35.4542
115.646 1286 35.8608
115.764 1122 33.4963
115.881 1116 33.4066
115.999 1117 33.4215
116.116 1202 34.6699
116.234 1189 34.4819
116.351 1216 34.8712
116.469 1273 35.6791
116.586 1249 35.3412
116.704 1262 35.5246
116.821 1235 35.1426
116.939 1228 35.0428
117.056 1126 33.5559
117.174 999 31.607
117.291 995 31.5436
117.409 942 30.692
117.526 1017 31.8904
117.644 1082 32.8938
117.761 1223 34.9714
117.879 1249 35.3412
117.996 1421 37.6962
118.114 1460 38.2099
118.231 1439 37.9342
118.349 1426 37.7624
118.466 1493 38.6394
118.584 1495 38.6652
118.701 1505 38.7943
118.819 1448 38.0526
118.936 1388 37.2559
119.053 1333 36.5103
119.171 1313 36.2353
119.288 1220 34.9285
119.405 1202 34.6699
119.523 1170 34.2053
119.64 1131 33.6303
119.757 1266 35.5809
119.875 1255 35.426
119.992 1230 35.0714
120.109 1291 35.9305
120.226 1293 35.9583
120.343 1219 34.9142
120.46 1209 34.7707
120.578 1123 33.5112
120.695 1185 34.4238
120.812 1039 32.2335
120.929 1050 32.4037
121.046 1005 31.7017
121.163 1022 31.9687
121.279 1029 32.078
121.396 1204 34.6987
121.513 1271 35.6511
121.63 1382 37.1753
121.747 1445 38.0132
121.863 1424 37.7359
121.98 1398 37.3898
122.097 1451 38.092
122.213 1433 37.855
122.33 1391 37.2961
122.446 1352 36.7696
122.563 1335 36.5377
122.679 1330 36.4692
122.795 1342 36.6333
122.912 1319 36.318
123.028 1269 35.623
123.144 1154 33.9706
123.26 1093 33.0606
123.377 0 1
123.493 0 1
123.609 0 1
123.725 0 1
123.84 0 1
123.956 0 1
124.072 0 1
124.188 0 1
124.303 0 1
124.419 0 1
126.852 0 1
126.968 0 1
127.083 0 1
127.199 0 1
127.315 0 1
127.431 0 1
127.547 0 1
127.663 0 1
127.779 0 1
127.895 0 1
128.011 0 1
128.127 0 1
128.243 0 1
128.359 1349 36.7287
128.476 1188 34.4674
128.592 1252 35.3836
128.708 1256 35.4401
128.825 1363 36.9188
128.941 1364 36.9324
129.058 1366 36.9594
129.174 1386 37.229
129.291 1364 36.9324
129.408 1265 35.5668
129.524 1272 35.6651
129.641 1247 35.3129
129.758 1245 35.2846
129.875 1101 33.1813
129.992 1092 33.0454
130.108 1074 32.7719
130.225 1094 33.0757
130.342 1273 35.6791
130.459 1259 35.4824
130.576 1455 38.1445
130.693 1444 38
130.81 1516 38.9358
130.928 1551 39.3827
131.045 1498 38.704
131.162 1510 38.8587
131.279 1499 38.7169
131.396 1523 39.0256
131.513 1425 37.7492
131.631 1435 37.8814
131.748 1472 38.3667
131.865 1378 37.1214
131.983 1288 35.8887
132.1 1239 35.1994
132.217 1264 35.5528
132.335 1344 36.6606
132.452 1409 37.5366
132.57 1405 37.4833
132.687 1373 37.054
132.804 1371 37.027
132.922 1325 36.4005
133.039 1362 36.9053
133.157 1346 36.6879
133.274 1327 36.428
133.392 1273 35.6791
133.509 1175 34.2783
133.627 1146 33.8526
133.744 1099 33.1512
133.862 1227 35.0286
133.979 1286 35.8608
134.097 1283 35.819
134.214 1402 37.4433
134.332 1493 38.6394
134.449 1517 38.9487
134.567 1455 38.1445
134.684 1439 37.9342
134.802 1492 38.6264
134.919 1466 38.2884
135.037 1462 38.2361
135.154 1455 38.1445
135.272 1381 37.1618
135.389 1383 37.1887
135.507 1306 36.1386
135.624 1293 35.9583
135.742 1364 36.9324
135.859 1340 36.606
135.977 1388 37.2559
136.094 1388 37.2559
136.211 1456 38.1576
136.329 1490 38.6005
136.446 1341 36.6197
136.564 1396 37.3631
136.681 1337 36.565
136.798 1389 37.2693
136.915 1335 36.5377
137.033 1299 36.0416
137.15 1194 34.5543
137.267 1172 34.2345
137.384 1139 33.7491
137.502 1225 35
137.619 1218 34.8999
137.736 1376 37.0945
137.853 1395 37.3497
137.97 1467 38.3014
138.087 1430 37.8153
138.204 1501 38.7427
138.321 1429 37.8021
138.438 1554 39.4208
138.555 1524 39.0384
138.672 1500 38.7298
138.788 1447 38.0395
138.905 1399 37.4032
139.022 1391 37.2961
139.139 1349 36.7287
139.255 1302 36.0832
139.372 1360 36.8782
139.488 1333 36.5103
139.605 1448 38.0526
139.721 1367 36.973
139.838 1443 37.9868
139.954 1421 37.6962
140.071 1446 38.0263
140.187 1419 37.6696
140.303 1324 36.3868
140.419 1285 35.8469
140.535 1277 35.7351
140.652 1215 34.8569
140.768 0 1
140.884 0 1
141 0 1
141.115 0 1
141.231 0 1
141.347 0 1
141.463 0 1
141.578 0 1
141.694 0 1
144.104 0 1
144.219 0 1
144.335 0 1
144.45 0 1
144.566 0 1
144.682 0 1
144.798 0 1
144.914 0 1
145.03 0 1
145.146 934 30.5614
145.262 983 31.3528
145.378 1004 31.686
145.494 1069 32.6956
145.61 952 30.8545
145.726 1060 32.5576
145.842 988 31.4325
145.959 937 30.6105
146.075 952 30.8545
146.192 912 30.1993
146.308 926 30.4302
146.425 930 30.4959
146.541 984 31.3688
146.658 958 30.9516
146.774 1128 33.5857
146.891 1082 32.8938
147.008 1163 34.1028
147.125 1118 33.4365
147.241 1103 33.2114
147.358 1150 33.9116
147.475 1172 34.2345
147.592 1148 33.8821
147.709 1070 32.7109
147.826 1091 33.0303
147.943 1088 32.9848
148.06 1025 32.0156
148.177 965 31.0644
148.294 1032 32.1248
148.411 1017 31.8904
148.528 1034 32.1559
148.645 1063 32.6037
148.762 1112 33.3467
148.88 1129 33.6006
148.997 1045 32.3265
149.114 1087 32.9697
149.231 1078 32.8329
149.349 1117 33.4215
149.466 1148 33.8821
149.583 1002 31.6544
149.701 1024 32
149.818 1025 32.0156
149.935 984 31.3688
150.053 955 30.9031
150.17 958 30.9516
150.287 977 31.257
150.405 1072 32.7414
150.522 1115 33.3916
150.64 1101 33.1813
150.757 1148 33.8821
150.875 1118 33.4365
150.992 1174 34.2637
151.11 1191 34.5109
151.227 1186 34.4384
151.344 1162 34.0881
151.462 1128 33.5857
151.579 1210 34.7851
151.697 1111 33.3317
151.814 1075 32.7872
151.932 1117 33.4215
152.049 1107 33.2716
152.167 1126 33.5559
152.284 1196 34.5832
152.402 1180 34.3511
152.519 1107 33.2716
152.636 1183 34.3948
152.754 1204 34.6987
152.871 1171 34.2199
152.989 1161 34.0735
153.106 1168 34.176
153.223 1153 33.9559
153.341 1091 33.0303
153.458 1115 33.3916
153.575 1068 32.6803
153.693 1069 32.6956
153.81 1124 33.5261
153.927 1069 32.6956
154.044 1131 33.6303
154.162 1183 34.3948
154.279 1232 35.0999
154.396 1301 36.0694
154.513 1318 36.3043
154.63 1337 36.565
154.747 1382 37.1753
154.864 1295 35.9861
154.981 1382 37.1753
155.098 1370 37.0135
155.215 1303 36.0971
155.332 1226 35.0143
155.449 1252 35.3836
155.566 1174 34.2637
155.683 1259 35.4824
155.8 1303 36.0971
155.917 1321 36.3456
156.033 1337 36.565
156.15 0 1
156.267 0 1
156.383 0 1
156.5 0 1
156.617 0 1
156.733 0 1
156.85 0 1
156.966 0 1
157.082 0 1
157.199 0 1
157.315 0 1
157.431 0 1
157.547 0 1
157.664 0 1
157.78 0 1
157.896 0 1
158.012 0 1
158.128 0 1
158.244 0 1
158.359 0 1
158.475 0 1
158.591 0 1
158.706 0 1
