
6.15755 0 1
6.2731 0 1
6.3887 0 1
6.50437 0 1
6.62009 0 1
6.73587 0 1
6.8517 0 1
6.96759 0 1
7.08353 0 1
7.19952 0 1
7.31557 0 1
7.43166 0 1
7.54781 0 1
7.664 0 1
7.78024 0 1
7.89653 0 1
8.01286 0 1
8.12924 0 1
8.24567 0 1
8.36213 0 1
8.47864 0 1
8.59519 0 1
8.71178 0 1
8.82841 0 1
8.94508 0 1
9.06179 0 1
9.17853 0 1
9.29531 0 1
9.41212 0 1
9.52897 0 1
9.64584 0 1
9.76276 0 1
9.8797 0 1
9.99667 0 1
10.1137 0 1
10.2307 0 1
10.3478 0 1
10.4648 0 1
10.5819 0 1
10.6991 0 1
10.8162 0 1
10.9334 0 1
11.0506 0 1
11.1678 0 1
11.285 0 1
11.4023 0 1
11.5196 0 1
11.6369 0 1
11.7542 0 1
11.8715 0 1
11.9888 0 1
12.1062 0 1
12.2235 0 1
12.3409 0 1
12.4582 0 1
12.5756 0 1
12.693 0 1
12.8104 0 1
12.9278 0 1
13.0452 0 1
13.1626 0 1
13.28 0 1
13.3974 0 1
13.5149 0 1
13.6323 0 1
13.7497 0 1
13.8671 0 1
13.9845 0 1
14.1019 0 1
14.2193 0 1
14.3367 0 1
14.4541 0 1
14.5714 0 1
14.6888 0 1
14.8062 0 1
14.9235 0 1
15.0408 0 0
15.1581 0 0
15.2755 0 0
15.3927 0 0
15.51 0 0
15.6273 0 0
15.7445 0 0
15.8617 0 0
15.9789 0 0
16.0961 0 0
16.2132 0 0
16.3304 0 0
16.4475 0 0
16.5646 0 0
16.6816 0 0
16.7986 0 0
16.9156 0 0
17.0326 0 0
17.1496 0 0
17.2665 0 0
17.3833 0 0
17.5002 0 0
17.617 0 0
17.7338 0 0
17.8505 0 0
17.9672 0 0
18.0839 0 0
18.2005 0 0
18.3171 0 0
18.4337 0 0
18.5502 0 0
18.6666 0 0
18.7831 0 0
18.8994 0 0
19.0158 0 0
19.1321 0 0
19.2483 0 0
19.3645 0 0
19.4806 0 0
19.5967 0 0
19.7128 0 0
19.8288 0 0
19.9447 0 0
20.0606 0 1
20.1764 0 1
20.2922 0 1
20.4079 0 1
20.5236 0 1
20.6392 0 1
20.7548 0 1
20.8702 0 1
23.3078 0 1
23.4233 0 1
23.539 0 1
23.6547 0 1
23.7704 0 1
23.8862 0 1
24.0021 0 1
24.118 0 1
24.234 0 1
24.35 0 1
24.4661 23452 153.14
24.5822 22877 151.251
24.6984 22715 150.715
24.8146 22595 150.316
24.9309 22913 151.37
25.0472 22500 150
25.1636 22061 148.529
25.28 22334 149.446
25.3965 22842 151.136
25.513 23081 151.924
25.6296 24369 156.106
25.7462 25267 158.956
25.8628 26046 161.388
25.9795 26397 162.472
26.0962 26483 162.736
26.213 26294 162.154
26.3298 25565 159.891
26.4466 25368 159.273
26.5635 24458 156.391
26.6804 23730 154.045
26.7973 23932 154.7
26.9143 24157 155.425
27.0313 24850 157.639
27.1483 25831 160.72
27.2653 26121 161.62
27.3824 26470 162.696
27.4996 25924 161.009
27.6167 25998 161.239
27.7339 26132 161.654
27.8511 25361 159.251
27.9683 25042 158.247
28.0855 24005 154.935
28.2028 23714 153.994
28.3201 22199 148.993
28.4374 22106 148.681
28.5547 21498 146.622
28.6721 21027 145.007
28.7894 20953 144.752
28.9068 21276 145.863
29.0242 21629 147.068
29.1416 22107 148.684
29.259 22552 150.173
29.3764 23393 152.948
29.4939 24023 154.994
29.6113 24163 155.445
29.7288 23970 154.822
29.8463 24130 155.338
29.9638 23163 152.194
30.0812 22355 149.516
30.1987 22205 149.013
30.3162 21743 147.455
30.4337 22408 149.693
30.5512 23441 153.105
30.6687 23896 154.583
30.7862 25024 158.19
30.9037 24157 155.425
31.0212 24981 158.054
31.1387 24769 157.382
31.2562 24815 157.528
31.3737 24631 156.943
31.4912 24160 155.435
31.6087 23831 154.373
31.7262 22671 150.569
31.8436 21641 147.109
31.9611 21534 146.745
32.0785 20526 143.269
32.1959 20266 142.359
32.3134 20260 142.338
32.4308 20558 143.381
32.5482 20478 143.101
32.6655 21296 145.931
32.7829 22001 148.327
32.9002 22757 150.854
33.0176 23200 152.315
33.1349 23048 151.816
33.2522 23301 152.647
33.3694 23125 152.069
33.4867 23338 152.768
33.6039 22684 150.612
33.7211 22116 148.714
33.8383 21155 145.448
33.9554 20708 143.903
34.0725 21134 145.375
34.1896 21957 148.179
34.3067 23096 151.974
34.4237 23032 151.763
34.5407 23509 153.326
34.6577 24128 155.332
34.7746 24065 155.129
34.8915 24150 155.403
35.0084 23981 154.858
35.1252 23725 154.029
35.242 23181 152.253
35.3587 22352 149.506
35.4755 21720 147.377
35.5921 21187 145.558
35.7088 20864 144.444
35.8254 19610 140.036
35.9419 19015 137.895
36.0584 19333 139.043
36.1749 19545 139.803
36.2913 19829 140.815
36.4077 20123 141.856
36.524 20774 144.132
36.6403 21491 146.598
36.7565 22137 148.785
36.8727 22243 149.141
36.9889 22306 149.352
37.1049 22212 149.037
37.221 0 1
37.3369 0 1
37.4529 0 1
37.5687 0 1
37.6845 0 1
37.8003 0 1
37.916 0 1
38.0316 0 1
38.1472 0 1
40.5851 0 1
40.7008 0 1
40.8164 0 1
40.9322 0 1
41.048 0 1
41.1639 0 1
41.2798 0 1
41.3958 0 1
41.5118 0 1
41.6279 0 1
41.744 15837 125.845
41.8602 17012 130.43
41.9765 17364 131.773
42.0928 17717 133.105
42.2091 18200 134.907
42.3255 18223 134.993
42.4419 17340 131.681
42.5584 16487 128.402
42.675 15750 125.499
42.7915 15132 123.012
42.9081 16060 126.728
43.0248 16507 128.48
43.1415 16618 128.911
43.2582 17032 130.507
43.375 17356 131.742
43.4918 17608 132.695
43.6087 17644 132.831
43.7256 17254 131.354
43.8425 16980 130.307
43.9595 16702 129.236
44.0765 16604 128.857
44.1935 16268 127.546
44.3106 15428 124.21
44.4277 14770 121.532
44.5448 13521 116.28
44.6619 12760 112.96
44.7791 12390 111.31
44.8963 12204 110.472
45.0136 12485 111.736
45.1308 12384 111.283
45.2481 12981 113.934
45.3654 13113 114.512
45.4827 13257 115.139
45.6001 13673 116.932
45.7174 13289 115.278
45.8348 13543 116.374
45.9522 13070 114.324
46.0697 12355 111.153
46.1871 11622 107.805
46.3046 11253 106.08
46.422 11178 105.726
46.5395 11587 107.643
46.657 12079 109.905
46.7745 12241 110.639
46.892 12603 112.263
47.0096 12843 113.327
47.1271 12976 113.912
47.2446 12943 113.767
47.3622 12586 112.187
47.4797 12272 110.779
47.5973 12145 110.204
47.7149 12116 110.073
47.8324 11440 106.958
47.95 10948 104.633
48.0675 10073 100.364
48.1851 9647 98.2191
48.3027 9093 95.3572
48.4202 9068 95.226
48.5378 8973 94.7259
48.6554 9167 95.7445
48.7729 9425 97.0824
48.8904 10042 100.21
49.008 10167 100.832
49.1255 10552 102.723
49.243 10456 102.255
49.3605 10475 102.347
49.478 9900 99.4987
49.5955 9437 97.1442
49.713 8931 94.504
49.8304 8731 93.4398
49.9479 8860 94.1276
50.0653 9599 97.9745
50.1827 10254 101.262
50.3001 11151 105.598
50.4175 11749 108.393
50.5348 11910 109.133
50.6521 12176 110.345
50.7694 12388 111.301
50.8867 12714 112.756
51.004 12796 113.119
51.1212 13117 114.529
51.2384 12994 113.991
51.3556 13144 114.647
51.4727 12854 113.375
51.5899 12352 111.14
51.707 11597 107.689
51.824 11569 107.559
51.9411 11887 109.028
52.0581 12353 111.144
52.175 13056 114.263
52.2919 13856 117.712
52.4088 14611 120.876
52.5257 14918 122.139
52.6425 15399 124.093
52.7593 15710 125.34
52.876 16021 126.574
52.9927 16219 127.354
53.1094 15249 123.487
53.226 14608 120.864
53.3426 14289 119.537
53.4591 14184 119.097
53.5756 14835 121.799
53.692 15794 125.674
53.8084 17070 130.652
53.9248 18437 135.783
54.0411 19017 137.902
54.1573 19304 138.939
54.2735 0 1
54.3896 0 1
54.5057 0 1
54.6217 0 1
54.7377 0 1
54.8537 0 1
54.9695 0 1
55.0853 0 1
55.2011 0 1
55.3168 0 1
55.4324 0 1
57.824 0 1
57.9396 0 1
58.0553 0 1
58.1711 0 1
58.2869 0 1
58.4028 0 1
58.5187 0 1
58.6347 0 1
58.7508 0 1
58.8669 0 1
58.983 19683 140.296
59.0992 21374 146.198
59.2155 22013 148.368
59.3318 22842 151.136
59.4482 22735 150.781
59.5646 22957 151.516
59.681 23095 151.97
59.7975 22538 150.127
59.9141 22045 148.476
60.0306 21578 146.895
60.1473 20330 142.583
60.2639 19152 138.391
60.3807 17567 132.541
60.4974 17031 130.503
60.6142 17298 131.522
60.731 17226 131.248
60.8479 17564 132.529
60.9648 18267 135.155
61.0818 18792 137.084
61.1987 19122 138.282
61.3158 19377 139.201
61.4328 19294 138.903
61.5499 18705 136.766
61.667 18018 134.231
61.7841 17397 131.898
61.9013 16524 128.546
62.0185 16477 128.363
62.1357 17100 130.767
62.253 18517 136.077
62.3702 19706 140.378
62.4875 20519 143.245
62.6049 21209 145.633
62.7222 21687 147.265
62.8396 21949 148.152
62.9569 22706 150.685
63.0743 22732 150.771
63.1918 22799 150.993
63.3092 22591 150.303
63.4267 22270 149.231
63.5441 21501 146.632
63.6616 20525 143.265
63.7791 19345 139.086
63.8966 18189 134.867
64.0142 17206 131.172
64.1317 17287 131.48
64.2492 17782 133.349
64.3668 18960 137.695
64.4843 19219 138.633
64.6019 20126 141.866
64.7195 20412 142.871
64.837 20719 143.941
64.9546 20624 143.611
65.0722 20366 142.709
65.1898 19350 139.104
65.3074 18392 135.617
65.4249 17009 130.419
65.5425 16441 128.222
65.6601 16708 129.259
65.7777 18157 134.748
65.8952 19786 140.663
66.0128 20823 144.302
66.1304 21391 146.257
66.2479 21945 148.138
66.3655 22227 149.087
66.483 22935 151.443
66.6005 22910 151.36
66.718 23150 152.151
66.8355 22585 150.283
66.953 22534 150.113
67.0705 21715 147.36
67.1879 20778 144.146
67.3054 19499 139.639
67.4228 18087 134.488
67.5402 16818 129.684
67.6576 16272 127.562
67.7749 15800 125.698
67.8923 16695 129.209
68.0096 17301 131.533
68.1269 17983 134.101
68.2442 18491 135.982
68.3614 19061 138.062
68.4787 19288 138.881
68.5958 18866 137.354
68.713 18734 136.872
68.8302 17577 132.578
68.9473 16188 127.232
69.0643 15149 123.081
69.1814 14344 119.766
69.2984 15263 123.544
69.4154 16646 129.019
69.5323 18069 134.421
69.6492 19355 139.122
69.7661 20198 142.12
69.8829 20730 143.979
69.9997 21212 145.643
70.1165 21464 146.506
70.2332 21834 147.763
70.3499 21817 147.706
70.4665 21764 147.526
70.5831 21446 146.445
70.6996 20466 143.059
70.8161 19707 140.382
70.9326 18998 137.833
71.049 17671 132.932
71.1653 16400 128.062
71.2817 15324 123.79
71.3979 14942 122.237
71.5141 15138 123.037
71.6303 15029 122.593
71.7464 14919 122.143
71.8624 0 1
71.9784 0 1
72.0944 0 1
72.2102 0 1
72.3261 0 1
72.4418 0 1
72.5575 0 1
72.6732 0 1
75.1054 0 1
75.2209 0 1
75.3365 0 1
75.4521 0 1
75.5678 0 1
75.6835 0 1
75.7993 0 1
75.9151 0 1
76.031 0 1
76.147 17954 133.993
76.263 19103 138.214
76.3791 18460 135.868
76.4952 16992 130.353
76.6113 15774 125.595
76.7276 15592 124.868
76.8438 15657 125.128
76.9601 16533 128.581
77.0765 17574 132.567
77.1929 18068 134.417
77.3093 18849 137.292
77.4258 19157 138.409
77.5423 19242 138.716
77.6589 18533 136.136
77.7755 17344 131.697
77.8921 15505 124.519
78.0088 14513 120.47
78.1256 13851 117.69
78.2423 13732 117.184
78.3591 14415 120.062
78.4759 16264 127.53
78.5928 17526 132.386
78.7097 18605 136.4
78.8266 18975 137.75
78.9436 20680 143.805
79.0606 20347 142.643
79.1776 20228 142.225
79.2946 20958 144.769
79.4117 20724 143.958
79.5288 20407 142.853
79.6459 20379 142.755
79.7631 19181 138.495
79.8802 18099 134.533
79.9974 17126 130.866
80.1147 15910 126.135
80.2319 14513 120.47
80.3491 14083 118.672
80.4664 14368 119.867
80.5837 14848 121.852
80.701 15566 124.764
80.8183 16231 127.401
80.9357 16661 129.077
81.053 17143 130.931
81.1704 17032 130.507
81.2877 16616 128.903
81.4051 16358 127.898
81.5225 14342 119.758
81.6399 13249 115.104
81.7573 12620 112.339
81.8747 11938 109.261
81.9922 12508 111.839
82.1096 14551 120.628
82.227 15644 125.076
82.3444 16185 127.22
82.4619 17327 131.632
82.5793 17968 134.045
82.6967 17880 133.716
82.8142 17948 133.97
82.9316 18038 134.306
83.049 17806 133.439
83.1664 17562 132.522
83.2838 16659 129.07
83.4012 16200 127.279
83.5186 15361 123.94
83.636 14588 120.781
83.7534 13606 116.645
83.8708 12542 111.991
83.9881 12291 110.865
84.1055 12503 111.817
84.2228 13006 114.044
84.3401 13912 117.949
84.4575 14875 121.963
84.5747 15316 123.758
84.692 15898 126.087
84.8093 15522 124.587
84.9265 14774 121.548
85.0437 13404 115.776
85.1609 12315 110.973
85.2781 11444 106.977
85.3952 11283 106.221
85.5123 11692 108.13
85.6294 12887 113.521
85.7465 14720 121.326
85.8636 16271 127.558
85.9806 17088 130.721
86.0976 17929 133.899
86.2145 18557 136.224
86.3315 19817 140.773
86.4484 19119 138.271
86.5652 19940 141.209
86.682 20037 141.552
86.7988 19330 139.032
86.9156 18821 137.19
87.0323 18415 135.702
87.149 17460 132.136
87.2657 16921 130.081
87.3823 15652 125.108
87.4988 15035 122.617
87.6154 15404 124.113
87.7318 15848 125.889
87.8483 16912 130.046
87.9647 17877 133.705
88.081 18451 135.834
88.1973 19409 139.316
88.3136 19357 139.129
88.4298 18672 136.646
88.546 17391 131.875
88.6621 16021 126.574
88.7781 14930 122.188
88.8942 0 1
89.0101 0 1
89.126 0 1
89.2419 0 1
89.3577 0 1
89.4734 0 1
89.5891 0 1
89.7047 0 1
89.8203 0 1
89.9358 0 1
92.3269 0 1
92.4424 0 1
92.558 0 1
92.6736 0 1
92.7893 0 1
92.905 0 1
93.0208 0 1
93.1366 0 1
93.2525 0 1
93.3685 0 1
93.4845 0 1
93.6005 18563 136.246
93.7167 18881 137.408
93.8328 19119 138.271
93.949 18206 134.93
94.0653 17112 130.813
94.1816 15812 125.746
94.2979 14555 120.644
94.4143 14211 119.21
94.5307 14000 118.322
94.6472 14700 121.244
94.7637 15968 126.365
94.8803 17758 133.259
94.9969 18899 137.474
95.1135 20118 141.838
95.2302 21388 146.246
95.3469 21429 146.386
95.4637 21819 147.713
95.5805 22055 148.509
95.6973 22201 149
95.8142 22276 149.251
95.9311 21694 147.289
96.048 20818 144.284
96.1649 20206 142.148
96.2819 19346 139.09
96.3989 18498 136.007
96.516 17929 133.899
96.633 17386 131.856
96.7501 16690 129.19
96.8673 16925 130.096
96.9844 17658 132.883
97.1016 18580 136.308
97.2188 19148 138.376
97.336 19985 141.368
97.4532 20030 141.527
97.5704 19481 139.574
97.6877 18329 135.385
97.805 16489 128.41
97.9223 14913 122.119
98.0396 14586 120.773
98.1569 13915 117.962
98.2743 14430 120.125
98.3916 15673 125.192
98.509 17322 131.613
98.6264 18708 136.777
98.7438 20134 141.894
98.8612 21118 145.32
98.9786 22177 148.919
99.096 22303 149.342
99.2134 22228 149.091
99.3308 22597 150.323
99.4482 22486 149.953
99.5656 22025 148.408
99.6831 21238 145.733
99.8005 20596 143.513
99.9179 19931 141.177
100.035 19221 138.64
100.153 18261 135.133
100.27 17277 131.442
100.388 17625 132.759
100.505 18038 134.306
100.622 19081 138.134
100.74 19638 140.136
100.857 19998 141.414
100.975 20586 143.478
101.092 20164 142
101.209 19505 139.66
101.327 18034 134.291
101.444 16392 128.031
101.561 15229 123.406
101.679 14657 121.066
101.796 14554 120.64
101.913 15675 125.2
102.03 17956 134
102.148 19574 139.907
102.265 21077 145.179
102.382 23075 151.905
102.499 22746 150.818
102.616 23553 153.47
102.733 24148 155.396
102.851 24009 154.948
102.968 24211 155.599
103.085 23816 154.324
103.202 22884 151.275
103.319 22045 148.476
103.436 21554 146.813
103.552 20802 144.229
103.669 19755 140.552
103.786 19214 138.615
103.903 19405 139.302
104.02 19730 140.464
104.137 20485 143.126
104.253 21552 146.806
104.37 22296 149.318
104.487 22335 149.449
104.603 22283 149.275
104.72 21183 145.544
104.836 19451 139.467
104.953 17984 134.104
105.069 16495 128.433
105.186 16323 127.761
105.302 16433 128.191
105.418 18039 134.309
105.535 20378 142.752
105.651 22737 150.788
105.767 24468 156.423
105.883 25191 158.717
105.999 26351 162.33
106.115 0 1
106.231 0 1
106.347 0 1
106.463 0 1
106.579 0 1
106.694 0 1
106.81 0 1
106.926 0 1
107.041 0 1
107.157 0 1
109.576 0 1
109.692 0 1
109.807 0 1
109.923 0 1
110.039 0 1
110.155 0 1
110.27 0 1
110.386 0 1
110.502 0 1
110.618 19196 138.55
110.735 21107 145.282
110.851 23252 152.486
110.967 23833 154.379
111.083 24115 155.29
111.199 24539 156.649
111.316 24792 157.455
111.432 25026 158.196
111.549 24868 157.696
111.665 24151 155.406
111.782 23477 153.222
111.898 22701 150.669
112.015 21933 148.098
112.132 20906 144.589
112.248 19762 140.577
112.365 19227 138.661
112.482 18785 137.058
112.599 20458 143.031
112.716 20586 143.478
112.832 20920 144.637
112.949 21226 145.691
113.066 21120 145.327
113.183 20562 143.395
113.3 19488 139.599
113.417 17757 133.255
113.534 16601 128.845
113.652 15768 125.571
113.769 15303 123.705
113.886 14948 122.262
114.003 16317 127.738
114.12 18540 136.162
114.238 20757 144.073
114.355 21820 147.716
114.472 22701 150.669
114.589 23717 154.003
114.707 23771 154.178
114.824 24034 155.029
114.942 24328 155.974
115.059 24300 155.885
115.176 23706 153.968
115.294 23554 153.473
115.411 22468 149.893
115.529 22112 148.701
115.646 21150 145.43
115.764 20576 143.443
115.881 20116 141.831
115.999 19716 140.414
116.116 20436 142.955
116.234 21160 145.465
116.351 21184 145.547
116.469 21523 146.707
116.586 21736 147.431
116.704 21693 147.285
116.821 20996 144.9
116.939 19668 140.243
117.056 17985 134.108
117.174 16979 130.303
117.291 16435 128.199
117.409 16557 128.674
117.526 16907 130.027
117.644 18889 137.437
117.761 21105 145.276
117.879 22971 151.562
117.996 23730 154.045
118.114 24321 155.952
118.231 24799 157.477
118.349 25332 159.16
118.466 25337 159.176
118.584 25818 160.68
118.701 25253 158.912
118.819 24879 157.731
118.936 24068 155.139
119.053 23645 153.769
119.171 22821 151.066
119.288 22142 148.802
119.405 21171 145.503
119.523 20838 144.354
119.64 20438 142.962
119.757 21199 145.599
119.875 21548 146.792
119.992 21643 147.116
120.109 21689 147.272
120.226 21902 147.993
120.343 21333 146.058
120.46 21090 145.224
120.578 19928 141.167
120.695 18434 135.772
120.812 17563 132.525
120.929 17156 130.981
121.046 16652 129.043
121.163 16857 129.835
121.279 18238 135.048
121.396 20315 142.531
121.513 22100 148.661
121.63 23435 153.085
121.747 23617 153.678
121.863 24211 155.599
121.98 24573 156.758
122.097 24976 158.038
122.213 24520 156.589
122.33 24626 156.927
122.446 24291 155.856
122.563 23640 153.753
122.679 23638 153.747
122.795 22382 149.606
122.912 22316 149.385
123.028 21289 145.908
123.144 20342 142.625
123.26 19982 141.358
123.377 0 1
123.493 0 1
123.609 0 1
123.725 0 1
123.84 0 1
123.956 0 1
124.072 0 1
124.188 0 1
124.303 0 1
124.419 0 1
126.852 0 1
126.968 0 1
127.083 0 1
127.199 0 1
127.315 0 1
127.431 0 1
127.547 0 1
127.663 0 1
127.779 0 1
127.895 0 1
128.011 0 1
128.127 0 1
128.243 0 1
128.359 23149 152.148
128.476 22512 150.04
128.592 22991 151.628
128.708 23222 152.388
128.825 23433 153.078
128.941 23619 153.685
129.058 23687 153.906
129.174 23653 153.795
129.291 23476 153.219
129.408 22599 150.33
129.524 21761 147.516
129.641 20402 142.836
129.758 19242 138.716
129.875 18893 137.452
129.992 18613 136.429
130.108 18349 135.458
130.225 19494 139.621
130.342 21717 147.367
130.459 22714 150.712
130.576 24796 157.467
130.693 24910 157.829
130.81 25297 159.05
130.928 25317 159.113
131.045 25388 159.336
131.162 25593 159.978
131.279 25986 161.202
131.396 25751 160.471
131.513 25254 158.915
131.631 24703 157.172
131.748 24005 154.935
131.865 23493 153.274
131.983 22937 151.45
132.1 23098 151.98
132.217 23863 154.477
132.335 24045 155.065
132.452 24196 155.551
132.57 24343 156.022
132.687 23780 154.208
132.804 24239 155.689
132.922 23455 153.15
133.039 22238 149.124
133.157 21028 145.01
133.274 19896 141.053
133.392 18777 137.029
133.509 18631 136.495
133.627 18211 134.948
133.744 19375 139.194
133.862 20976 144.831
133.979 22491 149.97
134.097 23548 153.454
134.214 24181 155.502
134.332 25208 158.77
134.449 24836 157.594
134.567 24969 158.016
134.684 25467 159.584
134.802 25850 160.779
134.919 25994 161.227
135.037 25179 158.679
135.154 24881 157.737
135.272 24265 155.772
135.389 23474 153.212
135.507 23357 152.83
135.624 23306 152.663
135.742 24115 155.29
135.859 24343 156.022
135.977 24443 156.343
136.094 24133 155.348
136.211 24337 156.003
136.329 24015 154.968
136.446 24010 154.952
136.564 23436 153.088
136.681 22045 148.476
136.798 21370 146.185
136.915 20248 142.295
137.033 19100 138.203
137.15 18417 135.709
137.267 18463 135.879
137.384 19309 138.957
137.502 20916 144.624
137.619 22149 148.825
137.736 23092 151.961
137.853 23331 152.745
137.97 24602 156.85
138.087 23916 154.648
138.204 24546 156.672
138.321 25098 158.423
138.438 25627 160.084
138.555 25944 161.071
138.672 25604 160.012
138.788 24875 157.718
138.905 24251 155.727
139.022 23845 154.418
139.139 23725 154.029
139.255 24072 155.152
139.372 24375 156.125
139.488 24335 155.997
139.605 24540 156.652
139.721 24927 157.883
139.838 24396 156.192
139.954 24318 155.942
140.071 23523 153.372
140.187 23972 154.829
140.303 22415 149.716
140.419 21101 145.262
140.535 19934 141.188
140.652 19044 138
140.768 0 1
140.884 0 1
141 0 1
141.115 0 1
141.231 0 1
141.347 0 1
141.463 0 1
141.578 0 1
141.694 0 1
144.104 0 1
144.219 0 1
144.335 0 1
144.45 0 1
144.566 0 1
144.682 0 1
144.798 0 1
144.914 0 1
145.03 0 1
145.146 16533 128.581
145.262 17667 132.917
145.378 17295 131.51
145.494 16969 130.265
145.61 16160 127.122
145.726 15459 124.334
145.842 14796 121.639
145.959 14728 121.359
146.075 14454 120.225
146.192 15015 122.536
146.308 15817 125.766
146.425 16582 128.771
146.541 17046 130.56
146.658 17898 133.783
146.774 17911 133.832
146.891 18504 136.029
147.008 19011 137.88
147.125 19150 138.384
147.241 19637 140.132
147.358 19817 140.773
147.475 20072 141.676
147.592 19801 140.716
147.709 19304 138.939
147.826 19173 138.467
147.943 18684 136.689
148.06 18828 137.215
148.177 18864 137.346
148.294 18902 137.485
148.411 19258 138.773
148.528 19301 138.928
148.645 19061 138.062
148.762 19191 138.532
148.88 18984 137.782
148.997 18494 135.993
149.114 18947 137.648
149.231 18232 135.026
149.349 17317 131.594
149.466 16964 130.246
149.583 16175 127.181
149.701 15440 124.258
149.818 15171 123.171
149.935 15079 122.797
150.053 15845 125.877
150.17 16633 128.969
150.287 17282 131.461
150.405 17951 133.981
150.522 18114 134.588
150.64 18986 137.79
150.757 19533 139.761
150.875 19690 140.321
150.992 20209 142.158
151.11 20245 142.285
151.227 20175 142.039
151.344 19980 141.351
151.462 19847 140.879
151.579 19970 141.315
151.697 19709 140.389
151.814 19246 138.73
151.932 19515 139.696
152.049 19738 140.492
152.167 19935 141.191
152.284 19926 141.159
152.402 19859 140.922
152.519 19777 140.631
152.636 19905 141.085
152.754 19602 140.007
152.871 18767 136.993
152.989 18206 134.93
153.106 17203 131.16
153.223 17056 130.599
153.341 16428 128.172
153.458 16052 126.696
153.575 16301 127.675
153.693 17126 130.866
153.81 18207 134.933
153.927 18640 136.528
154.044 19356 139.126
154.162 19955 141.262
154.279 21005 144.931
154.396 21494 146.608
154.513 22036 148.445
154.63 22524 150.08
154.747 22672 150.572
154.864 22885 151.278
154.981 22769 150.894
155.098 22579 150.263
155.215 22554 150.18
155.332 22225 149.081
155.449 22269 149.228
155.566 21687 147.265
155.683 22348 149.492
155.8 22456 149.853
155.917 22420 149.733
156.033 22013 148.368
156.15 0 1
156.267 0 1
156.383 0 1
156.5 0 1
156.617 0 1
156.733 0 1
156.85 0 1
156.966 0 1
157.082 0 1
157.199 0 1
157.315 0 1
157.431 0 1
157.547 0 1
157.664 0 1
157.78 0 1
157.896 0 1
158.012 0 1
158.128 0 1
158.244 0 1
158.359 0 1
158.475 0 1
158.591 0 1
158.706 0 1
