
6.15755 0 1
6.2731 0 1
6.3887 0 1
6.50437 0 1
6.62009 0 1
6.73587 0 1
6.8517 0 1
6.96759 0 1
7.08353 0 1
7.19952 0 1
7.31557 0 1
7.43166 0 1
7.54781 0 1
7.664 0 1
7.78024 0 1
7.89653 0 1
8.01286 0 1
8.12924 0 1
8.24567 0 1
8.36213 0 1
8.47864 0 1
8.59519 0 1
8.71178 0 1
8.82841 0 1
8.94508 0 1
9.06179 0 1
9.17853 0 1
9.29531 0 1
9.41212 0 1
9.52897 0 1
9.64584 0 1
9.76276 0 1
9.8797 0 1
9.99667 0 1
10.1137 0 1
10.2307 0 1
10.3478 0 1
10.4648 0 1
10.5819 0 1
10.6991 0 1
10.8162 0 1
10.9334 0 1
11.0506 0 1
11.1678 0 1
11.285 0 1
11.4023 0 1
11.5196 0 1
11.6369 0 1
11.7542 0 1
11.8715 0 1
11.9888 0 1
12.1062 0 1
12.2235 0 1
12.3409 0 1
12.4582 0 1
12.5756 0 1
12.693 0 1
12.8104 0 1
12.9278 0 1
13.0452 0 1
13.1626 0 1
13.28 0 1
13.3974 0 1
13.5149 0 1
13.6323 0 1
13.7497 0 1
13.8671 0 1
13.9845 0 1
14.1019 0 1
14.2193 0 1
14.3367 0 1
14.4541 0 1
14.5714 0 1
14.6888 0 1
14.8062 0 1
14.9235 0 1
15.0408 0 0
15.1581 0 0
15.2755 0 0
15.3927 0 0
15.51 0 0
15.6273 0 0
15.7445 0 0
15.8617 0 0
15.9789 0 0
16.0961 0 0
16.2132 0 0
16.3304 0 0
16.4475 0 0
16.5646 0 0
16.6816 0 0
16.7986 0 0
16.9156 0 0
17.0326 0 0
17.1496 0 0
17.2665 0 0
17.3833 0 0
17.5002 0 0
17.617 0 0
17.7338 0 0
17.8505 0 0
17.9672 0 0
18.0839 0 0
18.2005 0 0
18.3171 0 0
18.4337 0 0
18.5502 0 0
18.6666 0 0
18.7831 0 0
18.8994 0 0
19.0158 0 0
19.1321 0 0
19.2483 0 0
19.3645 0 0
19.4806 0 0
19.5967 0 0
19.7128 0 0
19.8288 0 0
19.9447 0 0
20.0606 0 1
20.1764 0 1
20.2922 0 1
20.4079 0 1
20.5236 0 1
20.6392 0 1
20.7548 0 1
20.8702 0 1
23.3078 0 1
23.4233 0 1
23.539 0 1
23.6547 0 1
23.7704 0 1
23.8862 0 1
24.0021 0 1
24.118 0 1
24.234 0 1
24.35 0 1
24.4661 1346 36.6879
24.5822 1407 37.51
24.6984 1360 36.8782
24.8146 1475 38.4057
24.9309 1313 36.2353
25.0472 1368 36.9865
25.1636 1400 37.4166
25.28 1307 36.1525
25.3965 1315 36.2629
25.513 1318 36.3043
25.6296 1447 38.0395
25.7462 1399 37.4032
25.8628 1420 37.6829
25.9795 1426 37.7624
26.0962 1413 37.5899
26.213 1477 38.4318
26.3298 1509 38.8458
26.4466 1412 37.5766
26.5635 1344 36.6606
26.6804 1275 35.7071
26.7973 1193 34.5398
26.9143 1234 35.1283
27.0313 1313 36.2353
27.1483 1316 36.2767
27.2653 1360 36.8782
27.3824 1468 38.3145
27.4996 1470 38.3406
27.6167 1489 38.5876
27.7339 1359 36.8646
27.8511 1381 37.1618
27.9683 1296 36
28.0855 1363 36.9188
28.2028 1395 37.3497
28.3201 1260 35.4965
28.4374 1272 35.6651
28.5547 1271 35.6511
28.6721 1240 35.2136
28.7894 1198 34.6121
28.9068 1328 36.4417
29.0242 1321 36.3456
29.1416 1314 36.2491
29.259 1285 35.8469
29.3764 1305 36.1248
29.4939 1293 35.9583
29.6113 1276 35.7211
29.7288 1288 35.8887
29.8463 1310 36.1939
29.9638 1227 35.0286
30.0812 1213 34.8281
30.1987 1104 33.2265
30.3162 1116 33.4066
30.4337 1106 33.2566
30.5512 1225 35
30.6687 1157 34.0147
30.7862 1252 35.3836
30.9037 1317 36.2905
31.0212 1319 36.318
31.1387 1321 36.3456
31.2562 1402 37.4433
31.3737 1321 36.3456
31.4912 1351 36.756
31.6087 1291 35.9305
31.7262 1308 36.1663
31.8436 1284 35.8329
31.9611 1216 34.8712
32.0785 1266 35.5809
32.1959 1283 35.819
32.3134 1311 36.2077
32.4308 1227 35.0286
32.5482 1228 35.0428
32.6655 1191 34.5109
32.7829 1220 34.9285
32.9002 1220 34.9285
33.0176 1257 35.4542
33.1349 1273 35.6791
33.2522 1233 35.1141
33.3694 1246 35.2987
33.4867 1308 36.1663
33.6039 1227 35.0286
33.7211 1160 34.0588
33.8383 1079 32.8481
33.9554 1056 32.4962
34.0725 1090 33.0151
34.1896 1159 34.0441
34.3067 1163 34.1028
34.4237 1206 34.7275
34.5407 1270 35.6371
34.6577 1261 35.5106
34.7746 1350 36.7423
34.8915 1309 36.1801
35.0084 1338 36.5787
35.1252 1283 35.819
35.242 1244 35.2704
35.3587 1324 36.3868
35.4755 1285 35.8469
35.5921 1241 35.2278
35.7088 1211 34.7994
35.8254 1234 35.1283
35.9419 1162 34.0881
36.0584 1187 34.4529
36.1749 1199 34.6266
36.2913 1118 33.4365
36.4077 1187 34.4529
36.524 1117 33.4215
36.6403 1186 34.4384
36.7565 1204 34.6987
36.8727 1206 34.7275
36.9889 1240 35.2136
37.1049 1173 34.2491
37.221 0 1
37.3369 0 1
37.4529 0 1
37.5687 0 1
37.6845 0 1
37.8003 0 1
37.916 0 1
38.0316 0 1
38.1472 0 1
40.5851 0 1
40.7008 0 1
40.8164 0 1
40.9322 0 1
41.048 0 1
41.1639 0 1
41.2798 0 1
41.3958 0 1
41.5118 0 1
41.6279 0 1
41.744 869 29.4788
41.8602 911 30.1828
41.9765 957 30.9354
42.0928 943 30.7083
42.2091 1007 31.7333
42.3255 957 30.9354
42.4419 925 30.4138
42.5584 789 28.0891
42.675 753 27.4408
42.7915 753 27.4408
42.9081 805 28.3725
43.0248 817 28.5832
43.1415 868 29.4618
43.2582 934 30.5614
43.375 974 31.209
43.4918 945 30.7409
43.6087 948 30.7896
43.7256 879 29.6479
43.8425 942 30.692
43.9595 854 29.2233
44.0765 909 30.1496
44.1935 888 29.7993
44.3106 852 29.189
44.4277 873 29.5466
44.5448 685 26.1725
44.6619 793 28.1603
44.7791 760 27.5681
44.8963 702 26.4953
45.0136 716 26.7582
45.1308 710 26.6458
45.2481 670 25.8844
45.3654 707 26.5895
45.4827 722 26.8701
45.6001 701 26.4764
45.7174 712 26.6833
45.8348 685 26.1725
45.9522 674 25.9615
46.0697 600 24.4949
46.1871 556 23.5797
46.3046 482 21.9545
46.422 543 23.3024
46.5395 584 24.1661
46.657 606 24.6171
46.7745 657 25.632
46.892 638 25.2587
47.0096 647 25.4362
47.1271 654 25.5734
47.2446 648 25.4558
47.3622 626 25.02
47.4797 631 25.1197
47.5973 619 24.8797
47.7149 607 24.6374
47.8324 600 24.4949
47.95 559 23.6432
48.0675 503 22.4277
48.1851 550 23.4521
48.3027 507 22.5167
48.4202 540 23.2379
48.5378 479 21.8861
48.6554 507 22.5167
48.7729 485 22.0227
48.8904 515 22.6936
49.008 537 23.1733
49.1255 528 22.9783
49.243 526 22.9347
49.3605 569 23.8537
49.478 499 22.3383
49.5955 416 20.3961
49.713 427 20.664
49.8304 428 20.6882
49.9479 461 21.4709
50.0653 494 22.2261
50.1827 530 23.0217
50.3001 594 24.3721
50.4175 585 24.1868
50.5348 602 24.5357
50.6521 639 25.2784
50.7694 649 25.4755
50.8867 689 26.2488
51.004 702 26.4953
51.1212 660 25.6905
51.2384 725 26.9258
51.3556 711 26.6646
51.4727 703 26.5141
51.5899 709 26.6271
51.707 720 26.8328
51.824 716 26.7582
51.9411 659 25.671
52.0581 683 26.1343
52.175 727 26.9629
52.2919 700 26.4575
52.4088 806 28.3901
52.5257 832 28.8444
52.6425 770 27.7489
52.7593 885 29.7489
52.876 902 30.0333
52.9927 847 29.1033
53.1094 810 28.4605
53.226 730 27.0185
53.3426 683 26.1343
53.4591 642 25.3377
53.5756 732 27.0555
53.692 844 29.0517
53.8084 909 30.1496
53.9248 957 30.9354
54.0411 984 31.3688
54.1573 1022 31.9687
54.2735 0 1
54.3896 0 1
54.5057 0 1
54.6217 0 1
54.7377 0 1
54.8537 0 1
54.9695 0 1
55.0853 0 1
55.2011 0 1
55.3168 0 1
55.4324 0 1
57.824 0 1
57.9396 0 1
58.0553 0 1
58.1711 0 1
58.2869 0 1
58.4028 0 1
58.5187 0 1
58.6347 0 1
58.7508 0 1
58.8669 0 1
58.983 1143 33.8083
59.0992 1201 34.6554
59.2155 1135 33.6898
59.3318 1253 35.3977
59.4482 1228 35.0428
59.5646 1216 34.8712
59.681 1154 33.9706
59.7975 1197 34.5977
59.9141 1219 34.9142
60.0306 1199 34.6266
60.1473 1120 33.4664
60.2639 1098 33.1361
60.3807 1033 32.1403
60.4974 951 30.8383
60.6142 961 31
60.731 1035 32.1714
60.8479 1015 31.8591
60.9648 963 31.0322
61.0818 970 31.1448
61.1987 1010 31.7805
61.3158 998 31.5911
61.4328 1030 32.0936
61.5499 990 31.4643
61.667 901 30.0167
61.7841 839 28.9655
61.9013 768 27.7128
62.0185 754 27.4591
62.1357 786 28.0357
62.253 889 29.8161
62.3702 984 31.3688
62.4875 1068 32.6803
62.6049 1125 33.541
62.7222 1243 35.2562
62.8396 1112 33.3467
62.9569 1133 33.6601
63.0743 1180 34.3511
63.1918 1185 34.4238
63.3092 1127 33.5708
63.4267 1185 34.4238
63.5441 1126 33.5559
63.6616 1116 33.4066
63.7791 1057 32.5115
63.8966 1022 31.9687
64.0142 1108 33.2866
64.1317 969 31.1288
64.2492 956 30.9192
64.3668 975 31.225
64.4843 1065 32.6343
64.6019 1046 32.3419
64.7195 1070 32.7109
64.837 990 31.4643
64.9546 1033 32.1403
65.0722 1070 32.7109
65.1898 965 31.0644
65.3074 925 30.4138
65.4249 751 27.4044
65.5425 745 27.2947
65.6601 789 28.0891
65.7777 846 29.0861
65.8952 1002 31.6544
66.0128 1106 33.2566
66.1304 1183 34.3948
66.2479 1237 35.171
66.3655 1247 35.3129
66.483 1215 34.8569
66.6005 1204 34.6987
66.718 1240 35.2136
66.8355 1231 35.0856
66.953 1185 34.4238
67.0705 1166 34.1467
67.1879 1117 33.4215
67.3054 1062 32.5883
67.4228 1059 32.5423
67.5402 1069 32.6956
67.6576 1047 32.3574
67.7749 983 31.3528
67.8923 942 30.692
68.0096 952 30.8545
68.1269 998 31.5911
68.2442 955 30.9031
68.3614 1011 31.7962
68.4787 1000 31.6228
68.5958 961 31
68.713 1031 32.1092
68.8302 957 30.9354
68.9473 859 29.3087
69.0643 773 27.8029
69.1814 715 26.7395
69.2984 742 27.2397
69.4154 819 28.6182
69.5323 925 30.4138
69.6492 1087 32.9697
69.7661 1047 32.3574
69.8829 1129 33.6006
69.9997 1150 33.9116
70.1165 1164 34.1174
70.2332 1146 33.8526
70.3499 1193 34.5398
70.4665 1117 33.4215
70.5831 1137 33.7194
70.6996 1098 33.1361
70.8161 1068 32.6803
70.9326 989 31.4484
71.049 949 30.8058
71.1653 996 31.5595
71.2817 939 30.6431
71.3979 914 30.2324
71.5141 915 30.249
71.6303 908 30.133
71.7464 870 29.4958
71.8624 0 1
71.9784 0 1
72.0944 0 1
72.2102 0 1
72.3261 0 1
72.4418 0 1
72.5575 0 1
72.6732 0 1
75.1054 0 1
75.2209 0 1
75.3365 0 1
75.4521 0 1
75.5678 0 1
75.6835 0 1
75.7993 0 1
75.9151 0 1
76.031 0 1
76.147 942 30.692
76.263 978 31.273
76.3791 943 30.7083
76.4952 932 30.5287
76.6113 888 29.7993
76.7276 904 30.0666
76.8438 899 29.9833
76.9601 910 30.1662
77.0765 890 29.8329
77.1929 943 30.7083
77.3093 960 30.9839
77.4258 1068 32.6803
77.5423 1035 32.1714
77.6589 986 31.4006
77.7755 958 30.9516
77.8921 800 28.2843
78.0088 696 26.3818
78.1256 624 24.98
78.2423 644 25.3772
78.3591 707 26.5895
78.4759 815 28.5482
78.5928 923 30.3809
78.7097 995 31.5436
78.8266 1063 32.6037
78.9436 1173 34.2491
79.0606 1151 33.9264
79.1776 1140 33.7639
79.2946 1109 33.3017
79.4117 1085 32.9393
79.5288 1030 32.0936
79.6459 1024 32
79.7631 1022 31.9687
79.8802 979 31.289
79.9974 902 30.0333
80.1147 870 29.4958
80.2319 891 29.8496
80.3491 819 28.6182
80.4664 772 27.7849
80.5837 845 29.0689
80.701 861 29.3428
80.8183 875 29.5804
80.9357 812 28.4956
81.053 896 29.9333
81.1704 939 30.6431
81.2877 855 29.2404
81.4051 887 29.7825
81.5225 717 26.7769
81.6399 632 25.1396
81.7573 587 24.2281
81.8747 532 23.0651
81.9922 587 24.2281
82.1096 638 25.2587
82.227 800 28.2843
82.3444 827 28.7576
82.4619 953 30.8707
82.5793 1009 31.7648
82.6967 938 30.6268
82.8142 899 29.9833
82.9316 909 30.1496
83.049 981 31.3209
83.1664 874 29.5635
83.2838 864 29.3939
83.4012 836 28.9137
83.5186 766 27.6767
83.636 796 28.2135
83.7534 742 27.2397
83.8708 658 25.6515
83.9881 683 26.1343
84.1055 683 26.1343
84.2228 659 25.671
84.3401 717 26.7769
84.4575 750 27.3861
84.5747 807 28.4077
84.692 883 29.7153
84.8093 793 28.1603
84.9265 776 27.8568
85.0437 696 26.3818
85.1609 627 25.04
85.2781 567 23.8118
85.3952 550 23.4521
85.5123 577 24.0208
85.6294 646 25.4165
85.7465 718 26.7955
85.8636 896 29.9333
85.9806 926 30.4302
86.0976 997 31.5753
86.2145 989 31.4484
86.3315 1076 32.8024
86.4484 1010 31.7805
86.5652 991 31.4802
86.682 1117 33.4215
86.7988 988 31.4325
86.9156 934 30.5614
87.0323 946 30.7571
87.149 861 29.3428
87.2657 878 29.6311
87.3823 827 28.7576
87.4988 851 29.1719
87.6154 792 28.1425
87.7318 887 29.7825
87.8483 937 30.6105
87.9647 951 30.8383
88.081 959 30.9677
88.1973 1018 31.9061
88.3136 987 31.4166
88.4298 980 31.305
88.546 877 29.6142
88.6621 816 28.5657
88.7781 732 27.0555
88.8942 0 1
89.0101 0 1
89.126 0 1
89.2419 0 1
89.3577 0 1
89.4734 0 1
89.5891 0 1
89.7047 0 1
89.8203 0 1
89.9358 0 1
92.3269 0 1
92.4424 0 1
92.558 0 1
92.6736 0 1
92.7893 0 1
92.905 0 1
93.0208 0 1
93.1366 0 1
93.2525 0 1
93.3685 0 1
93.4845 0 1
93.6005 1024 32
93.7167 998 31.5911
93.8328 1006 31.7175
93.949 989 31.4484
94.0653 919 30.315
94.1816 804 28.3549
94.2979 768 27.7128
94.4143 721 26.8514
94.5307 675 25.9808
94.6472 771 27.7669
94.7637 869 29.4788
94.8803 935 30.5778
94.9969 1002 31.6544
95.1135 1091 33.0303
95.2302 1098 33.1361
95.3469 1125 33.541
95.4637 1196 34.5832
95.5805 1224 34.9857
95.6973 1182 34.3802
95.8142 1196 34.5832
95.9311 1161 34.0735
96.048 1067 32.665
96.1649 1045 32.3265
96.2819 991 31.4802
96.3989 983 31.3528
96.516 916 30.2655
96.633 901 30.0167
96.7501 875 29.5804
96.8673 871 29.5127
96.9844 953 30.8707
97.1016 1005 31.7017
97.2188 1018 31.9061
97.336 1039 32.2335
97.4532 1087 32.9697
97.5704 1016 31.8748
97.6877 938 30.6268
97.805 851 29.1719
97.9223 760 27.5681
98.0396 705 26.5518
98.1569 722 26.8701
98.2743 702 26.4953
98.3916 783 27.9821
98.509 902 30.0333
98.6264 970 31.1448
98.7438 1052 32.4345
98.8612 1107 33.2716
98.9786 1183 34.3948
99.096 1164 34.1174
99.2134 1143 33.8083
99.3308 1231 35.0856
99.4482 1162 34.0881
99.5656 1193 34.5398
99.6831 1237 35.171
99.8005 1120 33.4664
99.9179 996 31.5595
100.035 959 30.9677
100.153 982 31.3369
100.27 914 30.2324
100.388 920 30.3315
100.505 991 31.4802
100.622 956 30.9192
100.74 985 31.3847
100.857 1073 32.7567
100.975 1049 32.3883
101.092 1067 32.665
101.209 1023 31.9844
101.327 939 30.6431
101.444 856 29.2575
101.561 782 27.9643
101.679 735 27.1109
101.796 778 27.8927
101.913 787 28.0535
102.03 929 30.4795
102.148 1054 32.4654
102.265 1101 33.1813
102.382 1202 34.6699
102.499 1210 34.7851
102.616 1202 34.6699
102.733 1265 35.5668
102.851 1282 35.805
102.968 1270 35.6371
103.085 1283 35.819
103.202 1239 35.1994
103.319 1176 34.2929
103.436 1125 33.541
103.552 1118 33.4365
103.669 1000 31.6228
103.786 950 30.8221
103.903 1056 32.4962
104.02 1037 32.2025
104.137 1071 32.7261
104.253 1181 34.3657
104.37 1118 33.4365
104.487 1169 34.1906
104.603 1131 33.6303
104.72 1139 33.7491
104.836 1061 32.573
104.953 954 30.8869
105.069 852 29.189
105.186 832 28.8444
105.302 854 29.2233
105.418 924 30.3974
105.535 1034 32.1559
105.651 1187 34.4529
105.767 1284 35.8329
105.883 1382 37.1753
105.999 1420 37.6829
106.115 0 1
106.231 0 1
106.347 0 1
106.463 0 1
106.579 0 1
106.694 0 1
106.81 0 1
106.926 0 1
107.041 0 1
107.157 0 1
109.576 0 1
109.692 0 1
109.807 0 1
109.923 0 1
110.039 0 1
110.155 0 1
110.27 0 1
110.386 0 1
110.502 0 1
110.618 1060 32.5576
110.735 1152 33.9411
110.851 1216 34.8712
110.967 1360 36.8782
111.083 1304 36.1109
111.199 1256 35.4401
111.316 1344 36.6606
111.432 1277 35.7351
111.549 1301 36.0694
111.665 1219 34.9142
111.782 1214 34.8425
111.898 1193 34.5398
112.015 1133 33.6601
112.132 1062 32.5883
112.248 1036 32.187
112.365 1011 31.7962
112.482 911 30.1828
112.599 1069 32.6956
112.716 1085 32.9393
112.832 1042 32.28
112.949 1105 33.2415
113.066 1120 33.4664
113.183 1039 32.2335
113.3 1033 32.1403
113.417 934 30.5614
113.534 917 30.282
113.652 822 28.6705
113.769 817 28.5832
113.886 768 27.7128
114.003 897 29.95
114.12 988 31.4325
114.238 1052 32.4345
114.355 1199 34.6266
114.472 1169 34.1906
114.589 1261 35.5106
114.707 1291 35.9305
114.824 1231 35.0856
114.942 1289 35.9026
115.059 1233 35.1141
115.176 1287 35.8748
115.294 1168 34.176
115.411 1231 35.0856
115.529 1153 33.9559
115.646 1163 34.1028
115.764 1028 32.0624
115.881 990 31.4643
115.999 1029 32.078
116.116 1037 32.2025
116.234 1039 32.2335
116.351 1127 33.5708
116.469 1187 34.4529
116.586 1143 33.8083
116.704 1178 34.322
116.821 1115 33.3916
116.939 1068 32.6803
117.056 991 31.4802
117.174 931 30.5123
117.291 928 30.4631
117.409 856 29.2575
117.526 901 30.0167
117.644 1003 31.6702
117.761 1150 33.9116
117.879 1233 35.1141
117.996 1249 35.3412
118.114 1306 36.1386
118.231 1277 35.7351
118.349 1399 37.4032
118.466 1382 37.1753
118.584 1372 37.0405
118.701 1382 37.1753
118.819 1281 35.7911
118.936 1364 36.9324
119.053 1211 34.7994
119.171 1219 34.9142
119.288 1213 34.8281
119.405 1039 32.2335
119.523 1134 33.6749
119.64 1068 32.6803
119.757 1093 33.0606
119.875 1163 34.1028
119.992 1188 34.4674
120.109 1211 34.7994
120.226 1165 34.1321
120.343 1190 34.4964
120.46 1024 32
120.578 1057 32.5115
120.695 1047 32.3574
120.812 978 31.273
120.929 887 29.7825
121.046 924 30.3974
121.163 890 29.8329
121.279 941 30.6757
121.396 1052 32.4345
121.513 1125 33.541
121.63 1243 35.2562
121.747 1211 34.7994
121.863 1298 36.0278
121.98 1246 35.2987
122.097 1355 36.8103
122.213 1360 36.8782
122.33 1286 35.8608
122.446 1261 35.5106
122.563 1231 35.0856
122.679 1235 35.1426
122.795 1183 34.3948
122.912 1211 34.7994
123.028 1137 33.7194
123.144 1083 32.909
123.26 973 31.1929
123.377 0 1
123.493 0 1
123.609 0 1
123.725 0 1
123.84 0 1
123.956 0 1
124.072 0 1
124.188 0 1
124.303 0 1
124.419 0 1
126.852 0 1
126.968 0 1
127.083 0 1
127.199 0 1
127.315 0 1
127.431 0 1
127.547 0 1
127.663 0 1
127.779 0 1
127.895 0 1
128.011 0 1
128.127 0 1
128.243 0 1
128.359 1161 34.0735
128.476 1179 34.3366
128.592 1126 33.5559
128.708 1199 34.6266
128.825 1242 35.242
128.941 1247 35.3129
129.058 1280 35.7771
129.174 1226 35.0143
129.291 1227 35.0286
129.408 1190 34.4964
129.524 1210 34.7851
129.641 1120 33.4664
129.758 1101 33.1813
129.875 1073 32.7567
129.992 1047 32.3574
130.108 999 31.607
130.225 1021 31.9531
130.342 1149 33.8969
130.459 1147 33.8674
130.576 1294 35.9722
130.693 1324 36.3868
130.81 1317 36.2905
130.928 1371 37.027
131.045 1371 37.027
131.162 1359 36.8646
131.279 1337 36.565
131.396 1335 36.5377
131.513 1307 36.1525
131.631 1250 35.3553
131.748 1208 34.7563
131.865 1339 36.5923
131.983 1219 34.9142
132.1 1228 35.0428
132.217 1142 33.7935
132.335 1205 34.7131
132.452 1209 34.7707
132.57 1321 36.3456
132.687 1189 34.4819
132.804 1225 35
132.922 1228 35.0428
133.039 1264 35.5528
133.157 1140 33.7639
133.274 1122 33.4963
133.392 1064 32.619
133.509 1038 32.218
133.627 1011 31.7962
133.744 976 31.241
133.862 1072 32.7414
133.979 1131 33.6303
134.097 1238 35.1852
134.214 1200 34.641
134.332 1316 36.2767
134.449 1347 36.7015
134.567 1296 36
134.684 1318 36.3043
134.802 1387 37.2424
134.919 1363 36.9188
135.037 1344 36.6606
135.154 1270 35.6371
135.272 1293 35.9583
135.389 1340 36.606
135.507 1228 35.0428
135.624 1150 33.9116
135.742 1189 34.4819
135.859 1121 33.4813
135.977 1279 35.7631
136.094 1229 35.0571
136.211 1262 35.5246
136.329 1293 35.9583
136.446 1291 35.9305
136.564 1283 35.819
136.681 1185 34.4238
136.798 1231 35.0856
136.915 1163 34.1028
137.033 1129 33.6006
137.15 1108 33.2866
137.267 1055 32.4808
137.384 1007 31.7333
137.502 1091 33.0303
137.619 1118 33.4365
137.736 1204 34.6987
137.853 1293 35.9583
137.97 1300 36.0555
138.087 1313 36.2353
138.204 1342 36.6333
138.321 1367 36.973
138.438 1361 36.8917
138.555 1356 36.8239
138.672 1417 37.6431
138.788 1322 36.3593
138.905 1225 35
139.022 1278 35.7491
139.139 1256 35.4401
139.255 1235 35.1426
139.372 1192 34.5254
139.488 1157 34.0147
139.605 1293 35.9583
139.721 1292 35.9444
139.838 1341 36.6197
139.954 1250 35.3553
140.071 1216 34.8712
140.187 1248 35.327
140.303 1278 35.7491
140.419 1191 34.5109
140.535 1139 33.7491
140.652 1129 33.6006
140.768 0 1
140.884 0 1
141 0 1
141.115 0 1
141.231 0 1
141.347 0 1
141.463 0 1
141.578 0 1
141.694 0 1
144.104 0 1
144.219 0 1
144.335 0 1
144.45 0 1
144.566 0 1
144.682 0 1
144.798 0 1
144.914 0 1
145.03 0 1
145.146 882 29.6985
145.262 934 30.5614
145.378 936 30.5941
145.494 946 30.7571
145.61 961 31
145.726 947 30.7734
145.842 883 29.7153
145.959 877 29.6142
146.075 794 28.178
146.192 828 28.775
146.308 822 28.6705
146.425 822 28.6705
146.541 912 30.1993
146.658 937 30.6105
146.774 946 30.7571
146.891 1024 32
147.008 1009 31.7648
147.125 999 31.607
147.241 991 31.4802
147.358 1013 31.8277
147.475 1019 31.9218
147.592 1014 31.8434
147.709 1034 32.1559
147.826 988 31.4325
147.943 1020 31.9374
148.06 969 31.1288
148.177 909 30.1496
148.294 914 30.2324
148.411 990 31.4643
148.528 983 31.3528
148.645 1031 32.1092
148.762 1034 32.1559
148.88 933 30.545
148.997 946 30.7571
149.114 1032 32.1248
149.231 956 30.9192
149.349 959 30.9677
149.466 1034 32.1559
149.583 1013 31.8277
149.701 927 30.4467
149.818 942 30.692
149.935 881 29.6816
150.053 825 28.7228
150.17 944 30.7246
150.287 927 30.4467
150.405 908 30.133
150.522 984 31.3688
150.64 982 31.3369
150.757 1017 31.8904
150.875 1059 32.5423
150.992 1133 33.6601
151.11 1021 31.9531
151.227 1108 33.2866
151.344 1061 32.573
151.462 1103 33.2114
151.579 1020 31.9374
151.697 998 31.5911
151.814 942 30.692
151.932 964 31.0483
152.049 987 31.4166
152.167 1069 32.6956
152.284 1003 31.6702
152.402 1084 32.9242
152.519 1068 32.6803
152.636 1043 32.2955
152.754 1056 32.4962
152.871 1044 32.311
152.989 1051 32.4191
153.106 1070 32.7109
153.223 1050 32.4037
153.341 1032 32.1248
153.458 980 31.305
153.575 964 31.0483
153.693 967 31.0966
153.81 923 30.3809
153.927 926 30.4302
154.044 1017 31.8904
154.162 1078 32.8329
154.279 1098 33.1361
154.396 1208 34.7563
154.513 1197 34.5977
154.63 1148 33.8821
154.747 1218 34.8999
154.864 1250 35.3553
154.981 1291 35.9305
155.098 1247 35.3129
155.215 1176 34.2929
155.332 1063 32.6037
155.449 1132 33.6452
155.566 1155 33.9853
155.683 1141 33.7787
155.8 1211 34.7994
155.917 1170 34.2053
156.033 1194 34.5543
156.15 0 1
156.267 0 1
156.383 0 1
156.5 0 1
156.617 0 1
156.733 0 1
156.85 0 1
156.966 0 1
157.082 0 1
157.199 0 1
157.315 0 1
157.431 0 1
157.547 0 1
157.664 0 1
157.78 0 1
157.896 0 1
158.012 0 1
158.128 0 1
158.244 0 1
158.359 0 1
158.475 0 1
158.591 0 1
158.706 0 1
