
6.15755 0 1
6.2731 0 1
6.3887 0 1
6.50437 0 1
6.62009 0 1
6.73587 0 1
6.8517 0 1
6.96759 0 1
7.08353 0 1
7.19952 0 1
7.31557 0 1
7.43166 0 1
7.54781 0 1
7.664 0 1
7.78024 0 1
7.89653 0 1
8.01286 0 1
8.12924 0 1
8.24567 0 1
8.36213 0 1
8.47864 0 1
8.59519 0 1
8.71178 0 1
8.82841 0 1
8.94508 0 1
9.06179 0 1
9.17853 0 1
9.29531 0 1
9.41212 0 1
9.52897 0 1
9.64584 0 1
9.76276 0 1
9.8797 0 1
9.99667 0 1
10.1137 0 1
10.2307 0 1
10.3478 0 1
10.4648 0 1
10.5819 0 1
10.6991 0 1
10.8162 0 1
10.9334 0 1
11.0506 0 1
11.1678 0 1
11.285 0 1
11.4023 0 1
11.5196 0 1
11.6369 0 1
11.7542 0 1
11.8715 0 1
11.9888 0 1
12.1062 0 1
12.2235 0 1
12.3409 0 1
12.4582 0 1
12.5756 0 1
12.693 0 1
12.8104 0 1
12.9278 0 1
13.0452 0 1
13.1626 0 1
13.28 0 1
13.3974 0 1
13.5149 0 1
13.6323 0 1
13.7497 0 1
13.8671 0 1
13.9845 0 1
14.1019 0 1
14.2193 0 1
14.3367 0 1
14.4541 0 1
14.5714 0 1
14.6888 0 1
14.8062 0 1
14.9235 0 1
15.0408 0 0
15.1581 0 0
15.2755 0 0
15.3927 0 0
15.51 0 0
15.6273 0 0
15.7445 0 0
15.8617 0 0
15.9789 0 0
16.0961 0 0
16.2132 0 0
16.3304 0 0
16.4475 0 0
16.5646 0 0
16.6816 0 0
16.7986 0 0
16.9156 0 0
17.0326 0 0
17.1496 0 0
17.2665 0 0
17.3833 0 0
17.5002 0 0
17.617 0 0
17.7338 0 0
17.8505 0 0
17.9672 0 0
18.0839 0 0
18.2005 0 0
18.3171 0 0
18.4337 0 0
18.5502 0 0
18.6666 0 0
18.7831 0 0
18.8994 0 0
19.0158 0 0
19.1321 0 0
19.2483 0 0
19.3645 0 0
19.4806 0 0
19.5967 0 0
19.7128 0 0
19.8288 0 0
19.9447 0 0
20.0606 0 1
20.1764 0 1
20.2922 0 1
20.4079 0 1
20.5236 0 1
20.6392 0 1
20.7548 0 1
20.8702 0 1
23.3078 0 1
23.4233 0 1
23.539 0 1
23.6547 0 1
23.7704 0 1
23.8862 0 1
24.0021 0 1
24.118 0 1
24.234 0 1
24.35 0 1
24.4661 1244 35.2704
24.5822 1343 36.647
24.6984 1496 38.6782
24.8146 1699 41.2189
24.9309 1954 44.2041
25.0472 2180 46.6905
25.1636 2399 48.9796
25.28 2632 51.303
25.3965 2526 50.2593
25.513 2572 50.7149
25.6296 2509 50.0899
25.7462 2698 51.9423
25.8628 2633 51.3128
25.9795 2574 50.7346
26.0962 2591 50.9019
26.213 2754 52.4786
26.3298 2624 51.225
26.4466 2680 51.7687
26.5635 2742 52.3641
26.6804 2638 51.3615
26.7973 2672 51.6914
26.9143 2544 50.4381
27.0313 2540 50.3984
27.1483 2537 50.3686
27.2653 2466 49.6588
27.3824 2390 48.8876
27.4996 2210 47.0106
27.6167 2177 46.6583
27.7339 2141 46.2709
27.8511 2255 47.4868
27.9683 2395 48.9387
28.0855 2484 49.8397
28.2028 2423 49.224
28.3201 2526 50.2593
28.4374 2448 49.4773
28.5547 2427 49.2646
28.6721 2526 50.2593
28.7894 2434 49.3356
28.9068 2413 49.1223
29.0242 2491 49.9099
29.1416 2579 50.7839
29.259 2482 49.8197
29.3764 2520 50.1996
29.4939 2477 49.7695
29.6113 2286 47.8121
29.7288 2281 47.7598
29.8463 2311 48.0729
29.9638 2336 48.3322
30.0812 2316 48.1248
30.1987 2329 48.2597
30.3162 2461 49.6085
30.4337 2410 49.0918
30.5512 2417 49.163
30.6687 2349 48.4665
30.7862 2508 50.0799
30.9037 2299 47.9479
31.0212 2300 47.9583
31.1387 2189 46.7868
31.2562 2248 47.4131
31.3737 2410 49.0918
31.4912 2411 49.1019
31.6087 2566 50.6557
31.7262 2446 49.4571
31.8436 2455 49.548
31.9611 2430 49.295
32.0785 2349 48.4665
32.1959 2444 49.4368
32.3134 2427 49.2646
32.4308 2355 48.5283
32.5482 2307 48.0312
32.6655 2350 48.4768
32.7829 2291 47.8644
32.9002 2231 47.2335
33.0176 2182 46.7119
33.1349 2078 45.5851
33.2522 2129 46.1411
33.3694 2111 45.9456
33.4867 2075 45.5522
33.6039 2098 45.8039
33.7211 2271 47.655
33.8383 2195 46.8508
33.9554 2249 47.4236
34.0725 2316 48.1248
34.1896 2350 48.4768
34.3067 2319 48.156
34.4237 2282 47.7703
34.5407 2270 47.6445
34.6577 2131 46.1628
34.7746 2110 45.9347
34.8915 2264 47.5815
35.0084 2402 49.0102
35.1252 2453 49.5278
35.242 2475 49.7494
35.3587 2435 49.3457
35.4755 2458 49.5782
35.5921 2372 48.7032
35.7088 2320 48.1664
35.8254 2186 46.7547
35.9419 2080 45.607
36.0584 2139 46.2493
36.1749 1985 44.5533
36.2913 1968 44.3621
36.4077 1897 43.5546
36.524 1852 43.0349
36.6403 1628 40.3485
36.7565 1512 38.8844
36.8727 1454 38.1314
36.9889 1378 37.1214
37.1049 1372 37.0405
37.221 0 1
37.3369 0 1
37.4529 0 1
37.5687 0 1
37.6845 0 1
37.8003 0 1
37.916 0 1
38.0316 0 1
38.1472 0 1
40.5851 0 1
40.7008 0 1
40.8164 0 1
40.9322 0 1
41.048 0 1
41.1639 0 1
41.2798 0 1
41.3958 0 1
41.5118 0 1
41.6279 0 1
41.744 2006 44.7884
41.8602 2569 50.6853
41.9765 3157 56.1872
42.0928 3333 57.7321
42.2091 3507 59.2199
42.3255 3420 58.4808
42.4419 3474 58.9406
42.5584 3524 59.3633
42.675 3595 59.9583
42.7915 3600 60
42.9081 3645 60.3738
43.0248 3804 61.6766
43.1415 3705 60.8687
43.2582 3536 59.4643
43.375 3394 58.258
43.4918 3434 58.6003
43.6087 3434 58.6003
43.7256 3449 58.7282
43.8425 3598 59.9833
43.9595 3613 60.1082
44.0765 3603 60.025
44.1935 3666 60.5475
44.3106 3394 58.258
44.4277 3417 58.4551
44.5448 3155 56.1694
44.6619 2955 54.3599
44.7791 2768 52.6118
44.8963 2810 53.0094
45.0136 2695 51.9134
45.1308 2477 49.7695
45.2481 2347 48.4458
45.3654 2228 47.2017
45.4827 2115 45.9891
45.6001 2016 44.8999
45.7174 1900 43.589
45.8348 2017 44.911
45.9522 1910 43.7035
46.0697 1906 43.6578
46.1871 2042 45.1885
46.3046 2009 44.8219
46.422 2020 44.9444
46.5395 2044 45.2106
46.657 2003 44.7549
46.7745 2005 44.7772
46.892 1895 43.5316
47.0096 1848 42.9884
47.1271 1892 43.4971
47.2446 1963 44.3058
47.3622 1961 44.2832
47.4797 2026 45.0111
47.5973 1957 44.238
47.7149 2068 45.4753
47.8324 1970 44.3847
47.95 1956 44.2267
48.0675 1881 43.3705
48.1851 1989 44.5982
48.3027 1892 43.4971
48.4202 1894 43.5201
48.5378 1833 42.8135
48.6554 1757 41.9166
48.7729 1734 41.6413
48.8904 1668 40.8412
49.008 1741 41.7253
49.1255 1686 41.0609
49.243 1716 41.4246
49.3605 1739 41.7013
49.478 1756 41.9047
49.5955 1817 42.6263
49.713 1851 43.0232
49.8304 1895 43.5316
49.9479 1881 43.3705
50.0653 1912 43.7264
50.1827 1889 43.4626
50.3001 1750 41.833
50.4175 1602 40.025
50.5348 1540 39.2428
50.6521 1524 39.0384
50.7694 1837 42.8602
50.8867 1938 44.0227
51.004 1923 43.852
51.1212 1896 43.5431
51.2384 2019 44.9333
51.3556 1982 44.5197
51.4727 1916 43.7721
51.5899 1955 44.2154
51.707 1886 43.4281
51.824 1842 42.9185
51.9411 1757 41.9166
52.0581 1705 41.2916
52.175 1783 42.2256
52.2919 1793 42.3438
52.4088 1716 41.4246
52.5257 1719 41.4608
52.6425 1692 41.1339
52.7593 1655 40.6817
52.876 1673 40.9023
52.9927 1646 40.5709
53.1094 1672 40.8901
53.226 1762 41.9762
53.3426 1709 41.3401
53.4591 1692 41.1339
53.5756 1517 38.9487
53.692 1367 36.973
53.8084 1256 35.4401
53.9248 1155 33.9853
54.0411 1015 31.8591
54.1573 879 29.6479
54.2735 0 1
54.3896 0 1
54.5057 0 1
54.6217 0 1
54.7377 0 1
54.8537 0 1
54.9695 0 1
55.0853 0 1
55.2011 0 1
55.3168 0 1
55.4324 0 1
57.824 0 1
57.9396 0 1
58.0553 0 1
58.1711 0 1
58.2869 0 1
58.4028 0 1
58.5187 0 1
58.6347 0 1
58.7508 0 1
58.8669 0 1
58.983 1501 38.7427
59.0992 1589 39.8623
59.2155 1537 39.2046
59.3318 1707 41.3159
59.4482 1893 43.5086
59.5646 2031 45.0666
59.681 2173 46.6154
59.7975 2269 47.634
59.9141 2265 47.592
60.0306 2254 47.4763
60.1473 2217 47.085
60.2639 2253 47.4658
60.3807 2204 46.9468
60.4974 2251 47.4447
60.6142 2248 47.4131
60.731 2200 46.9042
60.8479 2201 46.9148
60.9648 2312 48.0833
61.0818 2217 47.085
61.1987 2166 46.5403
61.3158 2110 45.9347
61.4328 2047 45.2438
61.5499 2126 46.1086
61.667 2140 46.2601
61.7841 2096 45.7821
61.9013 2159 46.465
62.0185 2202 46.9255
62.1357 2226 47.1805
62.253 2207 46.9787
62.3702 2238 47.3075
62.4875 2071 45.5082
62.6049 1926 43.8862
62.7222 1963 44.3058
62.8396 1993 44.643
62.9569 2239 47.3181
63.0743 2337 48.3425
63.1918 2381 48.7955
63.3092 2335 48.3218
63.4267 2319 48.156
63.5441 2375 48.734
63.6616 2245 47.3814
63.7791 2226 47.1805
63.8966 2279 47.7389
64.0142 2274 47.6865
64.1317 2288 47.833
64.2492 2254 47.4763
64.3668 2275 47.697
64.4843 2269 47.634
64.6019 2165 46.5296
64.7195 2135 46.2061
64.837 2209 47
64.9546 2134 46.1952
65.0722 2081 45.618
65.1898 2035 45.111
65.3074 2113 45.9674
65.4249 2107 45.9021
65.5425 2138 46.2385
65.6601 2224 47.1593
65.7777 2207 46.9787
65.8952 2181 46.7012
66.0128 2114 45.9783
66.1304 1867 43.2088
66.2479 1804 42.4735
66.3655 1832 42.8019
66.483 2028 45.0333
66.6005 2234 47.2652
66.718 2257 47.5079
66.8355 2199 46.8935
66.953 2225 47.1699
67.0705 2281 47.7598
67.1879 2210 47.0106
67.3054 2220 47.1169
67.4228 2247 47.4025
67.5402 2194 46.8402
67.6576 2239 47.3181
67.7749 2168 46.5618
67.8923 2278 47.7284
68.0096 2237 47.2969
68.1269 2147 46.3357
68.2442 2187 46.7654
68.3614 2119 46.0326
68.4787 2125 46.0977
68.5958 2066 45.4533
68.713 2104 45.8694
68.8302 2015 44.8888
68.9473 2049 45.2659
69.0643 2065 45.4423
69.1814 2095 45.7712
69.2984 2088 45.6946
69.4154 2088 45.6946
69.5323 2029 45.0444
69.6492 1943 44.0795
69.7661 1770 42.0714
69.8829 1574 39.6737
69.9997 1826 42.7317
70.1165 1843 42.9302
70.2332 1920 43.8178
70.3499 1768 42.0476
70.4665 1685 41.0488
70.5831 1566 39.5727
70.6996 1484 38.5227
70.8161 1411 37.5633
70.9326 1420 37.6829
71.049 1379 37.1349
71.1653 1291 35.9305
71.2817 1193 34.5398
71.3979 1241 35.2278
71.5141 1076 32.8024
71.6303 1111 33.3317
71.7464 1018 31.9061
71.8624 0 1
71.9784 0 1
72.0944 0 1
72.2102 0 1
72.3261 0 1
72.4418 0 1
72.5575 0 1
72.6732 0 1
75.1054 0 1
75.2209 0 1
75.3365 0 1
75.4521 0 1
75.5678 0 1
75.6835 0 1
75.7993 0 1
75.9151 0 1
76.031 0 1
76.147 1724 41.5211
76.263 1940 44.0454
76.3791 1879 43.3474
76.4952 1951 44.1701
76.6113 1952 44.1814
76.7276 1967 44.3509
76.8438 2006 44.7884
76.9601 2025 45
77.0765 2033 45.0888
77.1929 2134 46.1952
77.3093 2093 45.7493
77.4258 2025 45
77.5423 2008 44.8107
77.6589 2051 45.288
77.7755 1993 44.643
77.8921 1914 43.7493
78.0088 1994 44.6542
78.1256 1959 44.2606
78.2423 2018 44.9222
78.3591 2125 46.0977
78.4759 2016 44.8999
78.5928 2043 45.1996
78.7097 1863 43.1625
78.8266 1584 39.7995
78.9436 1331 36.4829
79.0606 1519 38.9744
79.1776 1714 41.4005
79.2946 2020 44.9444
79.4117 2179 46.6798
79.5288 2165 46.5296
79.6459 2183 46.7226
79.7631 2176 46.6476
79.8802 2096 45.7821
79.9974 2173 46.6154
80.1147 2169 46.5725
80.2319 2130 46.1519
80.3491 2130 46.1519
80.4664 2231 47.2335
80.5837 2151 46.3789
80.701 2260 47.5395
80.8183 2340 48.3735
80.9357 2237 47.2969
81.053 2317 48.1352
81.1704 2233 47.2546
81.2877 2082 45.6289
81.4051 2161 46.4866
81.5225 2184 46.7333
81.6399 2068 45.4753
81.7573 2245 47.3814
81.8747 2229 47.2123
81.9922 2422 49.2138
82.1096 2444 49.4368
82.227 2504 50.04
82.3444 2325 48.2183
82.4619 2135 46.2061
82.5793 2013 44.8665
82.6967 2096 45.7821
82.8142 2593 50.9215
82.9316 3092 55.6058
83.049 3320 57.6194
83.1664 3511 59.2537
83.2838 3580 59.8331
83.4012 3782 61.498
83.5186 3855 62.0886
83.636 3835 61.9274
83.7534 3983 63.111
83.8708 3898 62.434
83.9881 4035 63.5216
84.1055 4075 63.8357
84.2228 4173 64.5988
84.3401 4168 64.56
84.4575 4179 64.6452
84.5747 4226 65.0077
84.692 4014 63.3561
84.8093 4100 64.0312
84.9265 4040 63.561
85.0437 3899 62.442
85.1609 4042 63.5767
85.2781 3963 62.9524
85.3952 4010 63.3246
85.5123 3867 62.1852
85.6294 4025 63.4429
85.7465 3913 62.554
85.8636 3735 61.1146
85.9806 3187 56.4535
86.0976 2543 50.4282
86.2145 2441 49.4065
86.3315 2883 53.6936
86.4484 3629 60.2412
86.5652 3861 62.1369
86.682 3988 63.1506
86.7988 3841 61.9758
86.9156 3853 62.0725
87.0323 3997 63.2218
87.149 3939 62.7615
87.2657 3900 62.45
87.3823 3914 62.562
87.4988 3639 60.3241
87.6154 3462 58.8388
87.7318 3191 56.4889
87.8483 2987 54.6535
87.9647 2986 54.6443
88.081 2772 52.6498
88.1973 2839 53.2823
88.3136 2627 51.2543
88.4298 2587 50.8626
88.546 2360 48.5798
88.6621 2292 47.8748
88.7781 2185 46.744
88.8942 0 1
89.0101 0 1
89.126 0 1
89.2419 0 1
89.3577 0 1
89.4734 0 1
89.5891 0 1
89.7047 0 1
89.8203 0 1
89.9358 0 1
92.3269 0 1
92.4424 0 1
92.558 0 1
92.6736 0 1
92.7893 0 1
92.905 0 1
93.0208 0 1
93.1366 0 1
93.2525 0 1
93.3685 0 1
93.4845 0 1
93.6005 4181 64.6607
93.7167 4270 65.3452
93.8328 4197 64.7843
93.949 4112 64.1249
94.0653 4090 63.9531
94.1816 4210 64.8845
94.2979 4155 64.4593
94.4143 4231 65.0461
94.5307 4143 64.3661
94.6472 4257 65.2457
94.7637 3967 62.9841
94.8803 3592 59.9333
94.9969 3246 56.9737
95.1135 2965 54.4518
95.2302 3057 55.2901
95.3469 3611 60.0916
95.4637 4029 63.4744
95.5805 4114 64.1405
95.6973 4186 64.6993
95.8142 4209 64.8768
95.9311 4281 65.4294
96.048 4182 64.6684
96.1649 4195 64.7688
96.2819 4096 64
96.3989 4171 64.5833
96.516 4255 65.2304
96.633 4356 66
96.7501 4320 65.7267
96.8673 4339 65.8711
96.9844 4457 66.7608
97.1016 4357 66.0076
97.2188 4408 66.3928
97.336 4294 65.5286
97.4532 4103 64.0547
97.5704 4262 65.284
97.6877 4247 65.169
97.805 4260 65.2687
97.9223 4248 65.1767
98.0396 4228 65.0231
98.1569 4285 65.4599
98.2743 4126 64.2339
98.3916 3754 61.2699
98.509 3196 56.5332
98.6264 2893 53.7866
98.7438 2889 53.7494
98.8612 3275 57.2276
98.9786 3644 60.3656
99.096 3868 62.1932
99.2134 3733 61.0983
99.3308 3638 60.3158
99.4482 3497 59.1354
99.5656 3540 59.4979
99.6831 3280 57.2713
99.8005 3192 56.4978
99.9179 3075 55.4527
100.035 3035 55.0908
100.153 3063 55.3444
100.27 3086 55.5518
100.388 3101 55.6866
100.505 3015 54.909
100.622 3015 54.909
100.74 2918 54.0185
100.857 2886 53.7215
100.975 2860 53.479
101.092 2751 52.45
101.209 2886 53.7215
101.327 2838 53.2729
101.444 2832 53.2165
101.561 2837 53.2635
101.679 2703 51.9904
101.796 2743 52.3737
101.913 2690 51.8652
102.03 2476 49.7594
102.148 2278 47.7284
102.265 2054 45.3211
102.382 2363 48.6107
102.499 2372 48.7032
102.616 2635 51.3323
102.733 2684 51.8073
102.851 2592 50.9117
102.968 2627 51.2543
103.085 2572 50.7149
103.202 2609 51.0784
103.319 2622 51.2055
103.436 2500 50
103.552 2463 49.6286
103.669 2536 50.3587
103.786 2538 50.3786
103.903 2518 50.1797
104.02 2546 50.4579
104.137 2613 51.1175
104.253 2670 51.672
104.37 2533 50.3289
104.487 2594 50.9313
104.603 2485 49.8498
104.72 2445 49.4469
104.836 2312 48.0833
104.953 2066 45.4533
105.069 1821 42.6732
105.186 1588 39.8497
105.302 1620 40.2492
105.418 1405 37.4833
105.535 1339 36.5923
105.651 1093 33.0606
105.767 966 31.0805
105.883 769 27.7308
105.999 800 28.2843
106.115 0 1
106.231 0 1
106.347 0 1
106.463 0 1
106.579 0 1
106.694 0 1
106.81 0 1
106.926 0 1
107.041 0 1
107.157 0 1
109.576 0 1
109.692 0 1
109.807 0 1
109.923 0 1
110.039 0 1
110.155 0 1
110.27 0 1
110.386 0 1
110.502 0 1
110.618 2465 49.6488
110.735 2772 52.6498
110.851 2589 50.8822
110.967 2368 48.6621
111.083 2281 47.7598
111.199 2426 49.2544
111.316 2708 52.0384
111.432 2843 53.3198
111.549 2897 53.8238
111.665 2843 53.3198
111.782 2865 53.5257
111.898 2847 53.3573
112.015 2834 53.2353
112.132 2759 52.5262
112.248 2786 52.7826
112.365 2923 54.0648
112.482 2802 52.9339
112.599 3018 54.9363
112.716 3068 55.3895
112.832 3111 55.7763
112.949 3065 55.3624
113.066 3081 55.5068
113.183 3224 56.7803
113.3 3082 55.5158
113.417 3147 56.0981
113.534 3199 56.5597
113.652 3154 56.1605
113.769 3057 55.2901
113.886 3135 55.9911
114.003 3161 56.2228
114.12 3161 56.2228
114.238 3169 56.2939
114.355 2707 52.0288
114.472 2578 50.774
114.589 2509 50.0899
114.707 2517 50.1697
114.824 2794 52.8583
114.942 2957 54.3783
115.059 3034 55.0818
115.176 2979 54.5802
115.294 2937 54.1941
115.411 2965 54.4518
115.529 3010 54.8635
115.646 2931 54.1387
115.764 2877 53.6377
115.881 2840 53.2917
115.999 2796 52.8772
116.116 2914 53.9815
116.234 3011 54.8726
116.351 3129 55.9375
116.469 3155 56.1694
116.586 3151 56.1338
116.704 3283 57.2975
116.821 3249 57
116.939 3325 57.6628
117.056 3139 56.0268
117.174 3235 56.8771
117.291 3124 55.8928
117.409 3139 56.0268
117.526 3069 55.3986
117.644 3143 56.0625
117.761 3163 56.2406
117.879 2987 54.6535
117.996 2856 53.4416
118.114 2629 51.2738
118.231 2492 49.9199
118.349 2629 51.2738
118.466 2858 53.4603
118.584 2980 54.5894
118.701 2853 53.4135
118.819 3013 54.8908
118.936 2987 54.6535
119.053 2883 53.6936
119.171 2956 54.3691
119.288 2852 53.4041
119.405 2874 53.6097
119.523 2912 53.963
119.64 2883 53.6936
119.757 2827 53.1695
119.875 2888 53.7401
119.992 2919 54.0278
120.109 2940 54.2218
120.226 2906 53.9073
120.343 3104 55.7136
120.46 3047 55.1996
120.578 3103 55.7046
120.695 2938 54.2033
120.812 2894 53.7959
120.929 2928 54.111
121.046 2916 54
121.163 2916 54
121.279 2827 53.1695
121.396 2829 53.1883
121.513 2762 52.5547
121.63 2534 50.3389
121.747 2351 48.4871
121.863 2162 46.4973
121.98 1979 44.486
122.097 1980 44.4972
122.213 2093 45.7493
122.33 2155 46.422
122.446 2060 45.3872
122.563 2042 45.1885
122.679 1917 43.7836
122.795 1877 43.3244
122.912 1807 42.5088
123.028 1729 41.5812
123.144 1702 41.2553
123.26 1707 41.3159
123.377 0 1
123.493 0 1
123.609 0 1
123.725 0 1
123.84 0 1
123.956 0 1
124.072 0 1
124.188 0 1
124.303 0 1
124.419 0 1
126.852 0 1
126.968 0 1
127.083 0 1
127.199 0 1
127.315 0 1
127.431 0 1
127.547 0 1
127.663 0 1
127.779 0 1
127.895 0 1
128.011 0 1
128.127 0 1
128.243 0 1
128.359 3365 58.0086
128.476 3501 59.1692
128.592 3265 57.1402
128.708 3428 58.5491
128.825 3353 57.9051
128.941 3338 57.7754
129.058 3506 59.2115
129.174 3531 59.4222
129.291 3540 59.4979
129.408 3490 59.0762
129.524 3666 60.5475
129.641 3824 61.8385
129.758 3885 62.3298
129.875 4066 63.7652
129.992 3969 63
130.108 4124 64.2184
130.225 4108 64.0937
130.342 4019 63.3956
130.459 3927 62.6658
130.576 3850 62.0484
130.693 3557 59.6406
130.81 3619 60.1581
130.928 3591 59.925
131.045 3728 61.0574
131.162 3889 62.3618
131.279 3953 62.8729
131.396 3888 62.3538
131.513 3922 62.6259
131.631 3878 62.2736
131.748 3974 63.0397
131.865 3859 62.1208
131.983 3831 61.8951
132.1 3670 60.5805
132.217 3743 61.1801
132.335 3749 61.2291
132.452 3690 60.7454
132.57 3711 60.918
132.687 3648 60.3987
132.804 3996 63.2139
132.922 3787 61.5386
133.039 3847 62.0242
133.157 3863 62.153
133.274 4082 63.8905
133.392 4102 64.0469
133.509 4179 64.6452
133.627 4165 64.5368
133.744 4437 66.6108
133.862 4260 65.2687
133.979 4276 65.3911
134.097 4181 64.6607
134.214 4129 64.2573
134.332 3973 63.0317
134.449 3920 62.6099
134.567 4095 63.9922
134.684 4049 63.6318
134.802 4193 64.7534
134.919 4370 66.106
135.037 4291 65.5057
135.154 4176 64.622
135.272 4201 64.8151
135.389 4062 63.7338
135.507 4140 64.3428
135.624 4096 64
135.742 3920 62.6099
135.859 3986 63.1348
135.977 3901 62.458
136.094 3863 62.153
136.211 3862 62.145
136.329 3978 63.0714
136.446 3923 62.6339
136.564 4002 63.2614
136.681 4052 63.6553
136.798 3932 62.7057
136.915 4149 64.4127
137.033 4111 64.1171
137.15 4029 63.4744
137.267 4211 64.8922
137.384 4130 64.2651
137.502 4133 64.2884
137.619 3948 62.8331
137.736 4056 63.6867
137.853 3889 62.3618
137.97 3905 62.49
138.087 3653 60.4401
138.204 3876 62.2575
138.321 3861 62.1369
138.438 3988 63.1506
138.555 3991 63.1744
138.672 4093 63.9766
138.788 4035 63.5216
138.905 3862 62.145
139.022 3836 61.9355
139.139 3600 60
139.255 3524 59.3633
139.372 3159 56.205
139.488 3206 56.6216
139.605 3033 55.0727
139.721 2987 54.6535
139.838 2808 52.9906
139.954 2790 52.8205
140.071 2716 52.1153
140.187 2810 53.0094
140.303 2743 52.3737
140.419 2854 53.4228
140.535 2848 53.3667
140.652 2888 53.7401
140.768 0 1
140.884 0 1
141 0 1
141.115 0 1
141.231 0 1
141.347 0 1
141.463 0 1
141.578 0 1
141.694 0 1
144.104 0 1
144.219 0 1
144.335 0 1
144.45 0 1
144.566 0 1
144.682 0 1
144.798 0 1
144.914 0 1
145.03 0 1
145.146 8243 90.791
145.262 8332 91.2798
145.378 8605 92.7631
145.494 8588 92.6715
145.61 8586 92.6607
145.726 8622 92.8547
145.842 8887 94.2709
145.959 8639 92.9462
146.075 8809 93.8563
146.192 8912 94.4034
146.308 8676 93.145
146.425 8377 91.526
146.541 7807 88.3572
146.658 6751 82.1645
146.774 5924 76.9675
146.891 5602 74.8465
147.008 6454 80.3368
147.125 7624 87.3155
147.241 8359 91.4276
147.358 8505 92.2226
147.475 8538 92.4013
147.592 8595 92.7092
147.709 8765 93.6216
147.826 8677 93.1504
147.943 8692 93.2309
148.06 8909 94.3875
148.177 8742 93.4987
148.294 8756 93.5735
148.411 8873 94.1966
148.528 8745 93.5147
148.645 8680 93.1665
148.762 8737 93.4719
148.88 8705 93.3006
148.997 8552 92.477
149.114 9164 95.7288
149.231 8879 94.2284
149.349 9063 95.1998
149.466 8838 94.0106
149.583 9088 95.331
149.701 8839 94.016
149.818 8928 94.4881
149.935 8853 94.0904
150.053 8879 94.2284
150.17 8483 92.1032
150.287 7624 87.3155
150.405 6460 80.3741
150.522 6044 77.7432
150.64 6312 79.4481
150.757 7407 86.0639
150.875 8485 92.1141
150.992 8548 92.4554
151.11 8598 92.7254
151.227 8664 93.0806
151.344 8556 92.4986
151.462 8452 91.9348
151.579 8727 93.4184
151.697 8611 92.7955
151.814 8633 92.9139
151.932 8839 94.016
152.049 8649 93
152.167 8688 93.2094
152.284 8909 94.3875
152.402 8816 93.8936
152.519 8893 94.3027
152.636 8852 94.0851
152.754 8945 94.578
152.871 8978 94.7523
152.989 8990 94.8156
153.106 9147 95.6399
153.223 9201 95.9218
153.341 9196 95.8958
153.458 9245 96.1509
153.575 9417 97.0412
153.693 9148 95.6452
153.81 8977 94.747
153.927 7781 88.21
154.044 6794 82.4257
154.162 6348 79.6743
154.279 6662 81.6211
154.396 7864 88.6792
154.513 8694 93.2416
154.63 9006 94.8999
154.747 8936 94.5304
154.864 8881 94.2391
154.981 8943 94.5674
155.098 8714 93.3488
155.215 8764 93.6162
155.332 8494 92.1629
155.449 8310 91.1592
155.566 8326 91.2469
155.683 8029 89.6047
155.8 7872 88.7243
155.917 7872 88.7243
156.033 7489 86.539
156.15 0 1
156.267 0 1
156.383 0 1
156.5 0 1
156.617 0 1
156.733 0 1
156.85 0 1
156.966 0 1
157.082 0 1
157.199 0 1
157.315 0 1
157.431 0 1
157.547 0 1
157.664 0 1
157.78 0 1
157.896 0 1
158.012 0 1
158.128 0 1
158.244 0 1
158.359 0 1
158.475 0 1
158.591 0 1
158.706 0 1
