
6.15755 0 1
6.2731 0 1
6.3887 0 1
6.50437 0 1
6.62009 0 1
6.73587 0 1
6.8517 0 1
6.96759 0 1
7.08353 0 1
7.19952 0 1
7.31557 0 1
7.43166 0 1
7.54781 0 1
7.664 0 1
7.78024 0 1
7.89653 0 1
8.01286 0 1
8.12924 0 1
8.24567 0 1
8.36213 0 1
8.47864 0 1
8.59519 0 1
8.71178 0 1
8.82841 0 1
8.94508 0 1
9.06179 0 1
9.17853 0 1
9.29531 0 1
9.41212 0 1
9.52897 0 1
9.64584 0 1
9.76276 0 1
9.8797 0 1
9.99667 0 1
10.1137 0 1
10.2307 0 1
10.3478 0 1
10.4648 0 1
10.5819 0 1
10.6991 0 1
10.8162 0 1
10.9334 0 1
11.0506 0 1
11.1678 0 1
11.285 0 1
11.4023 0 1
11.5196 0 1
11.6369 0 1
11.7542 0 1
11.8715 0 1
11.9888 0 1
12.1062 0 1
12.2235 0 1
12.3409 0 1
12.4582 0 1
12.5756 0 1
12.693 0 1
12.8104 0 1
12.9278 0 1
13.0452 0 1
13.1626 0 1
13.28 0 1
13.3974 0 1
13.5149 0 1
13.6323 0 1
13.7497 0 1
13.8671 0 1
13.9845 0 1
14.1019 0 1
14.2193 0 1
14.3367 0 1
14.4541 0 1
14.5714 0 1
14.6888 0 1
14.8062 0 1
14.9235 0 1
15.0408 1197 34.5977
15.1581 1319 36.318
15.2755 1435 37.8814
15.3927 1444 38
15.51 1449 38.0657
15.6273 1413 37.5899
15.7445 1481 38.4838
15.8617 1446 38.0263
15.9789 1370 37.0135
16.0961 1408 37.5233
16.2132 1456 38.1576
16.3304 1406 37.4967
16.4475 1534 39.1663
16.5646 1493 38.6394
16.6816 1636 40.4475
16.7986 1662 40.7676
16.9156 1664 40.7922
17.0326 1554 39.4208
17.1496 1689 41.0974
17.2665 1606 40.0749
17.3833 1602 40.025
17.5002 1605 40.0625
17.617 1646 40.5709
17.7338 1502 38.7556
17.8505 1489 38.5876
17.9672 1519 38.9744
18.0839 1470 38.3406
18.2005 1520 38.9872
18.3171 1515 38.923
18.4337 1523 39.0256
18.5502 1550 39.37
18.6666 1677 40.9512
18.7831 1604 40.05
18.8994 1656 40.694
19.0158 1641 40.5093
19.1321 1593 39.9124
19.2483 1527 39.0768
19.3645 1427 37.7757
19.4806 1373 37.054
19.5967 1277 35.7351
19.7128 1195 34.5688
19.8288 1075 32.7872
19.9447 961 31
20.0606 0 1
20.1764 0 1
20.2922 0 1
20.4079 0 1
20.5236 0 1
20.6392 0 1
20.7548 0 1
20.8702 0 1
23.3078 0 1
23.4233 0 1
23.539 0 1
23.6547 0 1
23.7704 0 1
23.8862 0 1
24.0021 0 1
24.118 0 1
24.234 0 1
24.35 0 1
24.4661 678 26.0384
24.5822 844 29.0517
24.6984 854 29.2233
24.8146 965 31.0644
24.9309 1035 32.1714
25.0472 1136 33.7046
25.1636 1364 36.9324
25.28 1389 37.2693
25.3965 1576 39.6989
25.513 1620 40.2492
25.6296 1696 41.1825
25.7462 1792 42.332
25.8628 1819 42.6497
25.9795 1783 42.2256
26.0962 1747 41.7971
26.213 1715 41.4126
26.3298 1607 40.0874
26.4466 1594 39.9249
26.5635 1598 39.975
26.6804 1518 38.9615
26.7973 1651 40.6325
26.9143 1570 39.6232
27.0313 1619 40.2368
27.1483 1654 40.6694
27.2653 1762 41.9762
27.3824 1683 41.0244
27.4996 1734 41.6413
27.6167 1715 41.4126
27.7339 1681 41
27.8511 1705 41.2916
27.9683 1612 40.1497
28.0855 1490 38.6005
28.2028 1569 39.6106
28.3201 1505 38.7943
28.4374 1425 37.7492
28.5547 1480 38.4708
28.6721 1536 39.1918
28.7894 1635 40.4351
28.9068 1648 40.5956
29.0242 1730 41.5933
29.1416 1729 41.5812
29.259 1830 42.7785
29.3764 1780 42.19
29.4939 1737 41.6773
29.6113 1706 41.3038
29.7288 1617 40.2119
29.8463 1565 39.5601
29.9638 1498 38.704
30.0812 1470 38.3406
30.1987 1488 38.5746
30.3162 1496 38.6782
30.4337 1565 39.5601
30.5512 1540 39.2428
30.6687 1649 40.6079
30.7862 1686 41.0609
30.9037 1657 40.7063
31.0212 1618 40.2244
31.1387 1667 40.8289
31.2562 1646 40.5709
31.3737 1650 40.6202
31.4912 1575 39.6863
31.6087 1543 39.281
31.7262 1488 38.5746
31.8436 1532 39.1408
31.9611 1434 37.8682
32.0785 1420 37.6829
32.1959 1449 38.0657
32.3134 1444 38
32.4308 1568 39.598
32.5482 1665 40.8044
32.6655 1700 41.2311
32.7829 1723 41.509
32.9002 1711 41.3642
33.0176 1668 40.8412
33.1349 1740 41.7133
33.2522 1593 39.9124
33.3694 1614 40.1746
33.4867 1460 38.2099
33.6039 1428 37.7889
33.7211 1359 36.8646
33.8383 1380 37.1484
33.9554 1458 38.1838
34.0725 1529 39.1024
34.1896 1489 38.5876
34.3067 1500 38.7298
34.4237 1590 39.8748
34.5407 1652 40.6448
34.6577 1551 39.3827
34.7746 1633 40.4104
34.8915 1583 39.7869
35.0084 1543 39.281
35.1252 1529 39.1024
35.242 1452 38.1051
35.3587 1479 38.4578
35.4755 1462 38.2361
35.5921 1354 36.7967
35.7088 1331 36.4829
35.8254 1312 36.2215
35.9419 1345 36.6742
36.0584 1406 37.4967
36.1749 1455 38.1445
36.2913 1425 37.7492
36.4077 1431 37.8286
36.524 1416 37.6298
36.6403 1405 37.4833
36.7565 1334 36.524
36.8727 1315 36.2629
36.9889 1264 35.5528
37.1049 1064 32.619
37.221 0 1
37.3369 0 1
37.4529 0 1
37.5687 0 1
37.6845 0 1
37.8003 0 1
37.916 0 1
38.0316 0 1
38.1472 0 1
40.5851 0 1
40.7008 0 1
40.8164 0 1
40.9322 0 1
41.048 0 1
41.1639 0 1
41.2798 0 1
41.3958 0 1
41.5118 0 1
41.6279 0 1
41.744 746 27.313
41.8602 780 27.9285
41.9765 960 30.9839
42.0928 992 31.496
42.2091 944 30.7246
42.3255 876 29.5973
42.4419 911 30.1828
42.5584 933 30.545
42.675 1020 31.9374
42.7915 1061 32.573
42.9081 1184 34.4093
43.0248 1293 35.9583
43.1415 1327 36.428
43.2582 1344 36.6606
43.375 1310 36.1939
43.4918 1342 36.6333
43.6087 1335 36.5377
43.7256 1307 36.1525
43.8425 1318 36.3043
43.9595 1312 36.2215
44.0765 1255 35.426
44.1935 1257 35.4542
44.3106 1117 33.4215
44.4277 1106 33.2566
44.5448 1068 32.6803
44.6619 1102 33.1964
44.7791 1174 34.2637
44.8963 1156 34
45.0136 1318 36.3043
45.1308 1367 36.973
45.2481 1377 37.108
45.3654 1356 36.8239
45.4827 1328 36.4417
45.6001 1385 37.2156
45.7174 1316 36.2767
45.8348 1267 35.5949
45.9522 1191 34.5109
46.0697 1109 33.3017
46.1871 1054 32.4654
46.3046 1062 32.5883
46.422 1224 34.9857
46.5395 1251 35.3695
46.657 1295 35.9861
46.7745 1353 36.7831
46.892 1335 36.5377
47.0096 1356 36.8239
47.1271 1432 37.8418
47.2446 1340 36.606
47.3622 1313 36.2353
47.4797 1321 36.3456
47.5973 1296 36
47.7149 1254 35.4119
47.8324 1269 35.623
47.95 1224 34.9857
48.0675 1139 33.7491
48.1851 1074 32.7719
48.3027 1159 34.0441
48.4202 1257 35.4542
48.5378 1292 35.9444
48.6554 1397 37.3765
48.7729 1441 37.9605
48.8904 1399 37.4032
49.008 1334 36.524
49.1255 1324 36.3868
49.243 1329 36.4555
49.3605 1238 35.1852
49.478 1179 34.3366
49.5955 1130 33.6155
49.713 1094 33.0757
49.8304 1052 32.4345
49.9479 1165 34.1321
50.0653 1248 35.327
50.1827 1246 35.2987
50.3001 1353 36.7831
50.4175 1390 37.2827
50.5348 1475 38.4057
50.6521 1471 38.3536
50.7694 1490 38.6005
50.8867 1457 38.1707
51.004 1423 37.7227
51.1212 1448 38.0526
51.2384 1449 38.0657
51.3556 1410 37.55
51.4727 1350 36.7423
51.5899 1215 34.8569
51.707 1324 36.3868
51.824 1273 35.6791
51.9411 1440 37.9473
52.0581 1549 39.3573
52.175 1672 40.8901
52.2919 1779 42.1782
52.4088 1805 42.4853
52.5257 1892 43.4971
52.6425 1907 43.6692
52.7593 1863 43.1625
52.876 1880 43.359
52.9927 1786 42.2611
53.1094 1722 41.497
53.226 1622 40.2741
53.3426 1599 39.9875
53.4591 1493 38.6394
53.5756 1631 40.3856
53.692 1581 39.7618
53.8084 1570 39.6232
53.9248 1496 38.6782
54.0411 1498 38.704
54.1573 1375 37.081
54.2735 0 1
54.3896 0 1
54.5057 0 1
54.6217 0 1
54.7377 0 1
54.8537 0 1
54.9695 0 1
55.0853 0 1
55.2011 0 1
55.3168 0 1
55.4324 0 1
57.824 0 1
57.9396 0 1
58.0553 0 1
58.1711 0 1
58.2869 0 1
58.4028 0 1
58.5187 0 1
58.6347 0 1
58.7508 0 1
58.8669 0 1
58.983 1034 32.1559
59.0992 1222 34.9571
59.2155 1313 36.2353
59.3318 1467 38.3014
59.4482 1484 38.5227
59.5646 1496 38.6782
59.681 1538 39.2173
59.7975 1612 40.1497
59.9141 1540 39.2428
60.0306 1536 39.1918
60.1473 1496 38.6782
60.2639 1490 38.6005
60.3807 1443 37.9868
60.4974 1405 37.4833
60.6142 1473 38.3797
60.731 1556 39.4462
60.8479 1684 41.0366
60.9648 1643 40.5339
61.0818 1795 42.3674
61.1987 1681 41
61.3158 1682 41.0122
61.4328 1633 40.4104
61.5499 1624 40.2989
61.667 1538 39.2173
61.7841 1387 37.2424
61.9013 1302 36.0832
62.0185 1305 36.1248
62.1357 1396 37.3631
62.253 1533 39.1535
62.3702 1546 39.3192
62.4875 1644 40.5463
62.6049 1619 40.2368
62.7222 1693 41.1461
62.8396 1698 41.2068
62.9569 1721 41.4849
63.0743 1667 40.8289
63.1918 1656 40.694
63.3092 1686 41.0609
63.4267 1628 40.3485
63.5441 1579 39.7366
63.6616 1617 40.2119
63.7791 1411 37.5633
63.8966 1316 36.2767
64.0142 1346 36.6879
64.1317 1435 37.8814
64.2492 1509 38.8458
64.3668 1574 39.6737
64.4843 1700 41.2311
64.6019 1701 41.2432
64.7195 1699 41.2189
64.837 1692 41.1339
64.9546 1697 41.1947
65.0722 1619 40.2368
65.1898 1560 39.4968
65.3074 1468 38.3145
65.4249 1303 36.0971
65.5425 1317 36.2905
65.6601 1337 36.565
65.7777 1368 36.9865
65.8952 1397 37.3765
66.0128 1539 39.2301
66.1304 1576 39.6989
66.2479 1711 41.3642
66.3655 1648 40.5956
66.483 1685 41.0488
66.6005 1615 40.1871
66.718 1668 40.8412
66.8355 1689 41.0974
66.953 1629 40.3609
67.0705 1543 39.281
67.1879 1464 38.2623
67.3054 1485 38.5357
67.4228 1427 37.7757
67.5402 1386 37.229
67.6576 1308 36.1663
67.7749 1393 37.3229
67.8923 1491 38.6135
68.0096 1520 38.9872
68.1269 1596 39.95
68.2442 1663 40.7799
68.3614 1638 40.4722
68.4787 1630 40.3733
68.5958 1652 40.6448
68.713 1560 39.4968
68.8302 1463 38.2492
68.9473 1315 36.2629
69.0643 1317 36.2905
69.1814 1271 35.6511
69.2984 1255 35.426
69.4154 1279 35.7631
69.5323 1417 37.6431
69.6492 1475 38.4057
69.7661 1536 39.1918
69.8829 1582 39.7744
69.9997 1515 38.923
70.1165 1531 39.128
70.2332 1455 38.1445
70.3499 1462 38.2361
70.4665 1380 37.1484
70.5831 1262 35.5246
70.6996 1163 34.1028
70.8161 1142 33.7935
70.9326 950 30.8221
71.049 921 30.348
71.1653 749 27.3679
71.2817 646 25.4165
71.3979 605 24.5967
71.5141 600 24.4949
71.6303 575 23.9792
71.7464 558 23.622
71.8624 0 1
71.9784 0 1
72.0944 0 1
72.2102 0 1
72.3261 0 1
72.4418 0 1
72.5575 0 1
72.6732 0 1
75.1054 0 1
75.2209 0 1
75.3365 0 1
75.4521 0 1
75.5678 0 1
75.6835 0 1
75.7993 0 1
75.9151 0 1
76.031 0 1
76.147 970 31.1448
76.263 987 31.4166
76.3791 1045 32.3265
76.4952 1043 32.2955
76.6113 1059 32.5423
76.7276 1101 33.1813
76.8438 1170 34.2053
76.9601 1303 36.0971
77.0765 1354 36.7967
77.1929 1333 36.5103
77.3093 1398 37.3898
77.4258 1483 38.5097
77.5423 1454 38.1314
77.6589 1372 37.0405
77.7755 1290 35.9166
77.8921 1214 34.8425
78.0088 1113 33.3617
78.1256 1046 32.3419
78.2423 1006 31.7175
78.3591 1099 33.1512
78.4759 1172 34.2345
78.5928 1276 35.7211
78.7097 1371 37.027
78.8266 1328 36.4417
78.9436 1396 37.3631
79.0606 1357 36.8375
79.1776 1390 37.2827
79.2946 1569 39.6106
79.4117 1492 38.6264
79.5288 1483 38.5097
79.6459 1359 36.8646
79.7631 1291 35.9305
79.8802 1328 36.4417
79.9974 1363 36.9188
80.1147 1191 34.5109
80.2319 1180 34.3511
80.3491 1240 35.2136
80.4664 1284 35.8329
80.5837 1263 35.5387
80.701 1413 37.5899
80.8183 1570 39.6232
80.9357 1388 37.2559
81.053 1505 38.7943
81.1704 1554 39.4208
81.2877 1456 38.1576
81.4051 1481 38.4838
81.5225 1336 36.5513
81.6399 1252 35.3836
81.7573 1122 33.4963
81.8747 1066 32.6497
81.9922 997 31.5753
82.1096 1099 33.1512
82.227 1232 35.0999
82.3444 1308 36.1663
82.4619 1436 37.8946
82.5793 1441 37.9605
82.6967 1500 38.7298
82.8142 1515 38.923
82.9316 1484 38.5227
83.049 1497 38.6911
83.1664 1459 38.1969
83.2838 1485 38.5357
83.4012 1490 38.6005
83.5186 1390 37.2827
83.636 1299 36.0416
83.7534 1239 35.1994
83.8708 1103 33.2114
83.9881 1137 33.7194
84.1055 1219 34.9142
84.2228 1292 35.9444
84.3401 1362 36.9053
84.4575 1485 38.5357
84.5747 1520 38.9872
84.692 1442 37.9737
84.8093 1528 39.0896
84.9265 1553 39.4081
85.0437 1518 38.9615
85.1609 1301 36.0694
85.2781 1195 34.5688
85.3952 1143 33.8083
85.5123 1108 33.2866
85.6294 1047 32.3574
85.7465 1209 34.7707
85.8636 1362 36.9053
85.9806 1404 37.47
86.0976 1454 38.1314
86.2145 1404 37.47
86.3315 1471 38.3536
86.4484 1550 39.37
86.5652 1601 40.0125
86.682 1513 38.8973
86.7988 1585 39.8121
86.9156 1545 39.3065
87.0323 1498 38.704
87.149 1402 37.4433
87.2657 1299 36.0416
87.3823 1141 33.7787
87.4988 1035 32.1714
87.6154 1038 32.218
87.7318 1057 32.5115
87.8483 1080 32.8634
87.9647 1111 33.3317
88.081 1220 34.9285
88.1973 1169 34.1906
88.3136 1128 33.5857
88.4298 1087 32.9697
88.546 953 30.8707
88.6621 883 29.7153
88.7781 699 26.4386
88.8942 0 1
89.0101 0 1
89.126 0 1
89.2419 0 1
89.3577 0 1
89.4734 0 1
89.5891 0 1
89.7047 0 1
89.8203 0 1
89.9358 0 1
92.3269 0 1
92.4424 0 1
92.558 0 1
92.6736 0 1
92.7893 0 1
92.905 0 1
93.0208 0 1
93.1366 0 1
93.2525 0 1
93.3685 0 1
93.4845 0 1
93.6005 1081 32.8786
93.7167 1164 34.1174
93.8328 1241 35.2278
93.949 1314 36.2491
94.0653 1341 36.6197
94.1816 1292 35.9444
94.2979 1251 35.3695
94.4143 1215 34.8569
94.5307 1153 33.9559
94.6472 1131 33.6303
94.7637 1147 33.8674
94.8803 1265 35.5668
94.9969 1311 36.2077
95.1135 1435 37.8814
95.2302 1376 37.0945
95.3469 1450 38.0789
95.4637 1521 39
95.5805 1547 39.3319
95.6973 1512 38.8844
95.8142 1559 39.4842
95.9311 1607 40.0874
96.048 1553 39.4081
96.1649 1506 38.8072
96.2819 1472 38.3667
96.3989 1440 37.9473
96.516 1398 37.3898
96.633 1231 35.0856
96.7501 1224 34.9857
96.8673 1161 34.0735
96.9844 1238 35.1852
97.1016 1398 37.3898
97.2188 1506 38.8072
97.336 1606 40.0749
97.4532 1514 38.9102
97.5704 1577 39.7115
97.6877 1634 40.4228
97.805 1543 39.281
97.9223 1446 38.0263
98.0396 1275 35.7071
98.1569 1234 35.1283
98.2743 1173 34.2491
98.3916 1126 33.5559
98.509 1204 34.6987
98.6264 1352 36.7696
98.7438 1407 37.51
98.8612 1498 38.704
98.9786 1467 38.3014
99.096 1520 38.9872
99.2134 1619 40.2368
99.3308 1561 39.5095
99.4482 1670 40.8656
99.5656 1587 39.8372
99.6831 1693 41.1461
99.8005 1615 40.1871
99.9179 1577 39.7115
100.035 1552 39.3954
100.153 1440 37.9473
100.27 1343 36.647
100.388 1303 36.0971
100.505 1332 36.4966
100.622 1444 38
100.74 1527 39.0768
100.857 1606 40.0749
100.975 1581 39.7618
101.092 1693 41.1461
101.209 1690 41.1096
101.327 1673 40.9023
101.444 1555 39.4335
101.561 1471 38.3536
101.679 1380 37.1484
101.796 1230 35.0714
101.913 1127 33.5708
102.03 1203 34.6843
102.148 1310 36.1939
102.265 1449 38.0657
102.382 1604 40.05
102.499 1642 40.5216
102.616 1629 40.3609
102.733 1733 41.6293
102.851 1770 42.0714
102.968 1686 41.0609
103.085 1686 41.0609
103.202 1712 41.3763
103.319 1728 41.5692
103.436 1616 40.1995
103.552 1655 40.6817
103.669 1631 40.3856
103.786 1427 37.7757
103.903 1367 36.973
104.02 1430 37.8153
104.137 1452 38.1051
104.253 1567 39.5854
104.37 1645 40.5586
104.487 1753 41.8688
104.603 1705 41.2916
104.72 1740 41.7133
104.836 1674 40.9145
104.953 1527 39.0768
105.069 1479 38.4578
105.186 1237 35.171
105.302 1157 34.0147
105.418 1111 33.3317
105.535 1057 32.5115
105.651 1147 33.8674
105.767 1136 33.7046
105.883 1068 32.6803
105.999 1084 32.9242
106.115 0 1
106.231 0 1
106.347 0 1
106.463 0 1
106.579 0 1
106.694 0 1
106.81 0 1
106.926 0 1
107.041 0 1
107.157 0 1
109.576 0 1
109.692 0 1
109.807 0 1
109.923 0 1
110.039 0 1
110.155 0 1
110.27 0 1
110.386 0 1
110.502 0 1
110.618 695 26.3629
110.735 890 29.8329
110.851 1059 32.5423
110.967 1271 35.6511
111.083 1355 36.8103
111.199 1395 37.3497
111.316 1494 38.6523
111.432 1555 39.4335
111.549 1558 39.4715
111.665 1660 40.7431
111.782 1635 40.4351
111.898 1579 39.7366
112.015 1566 39.5727
112.132 1555 39.4335
112.248 1431 37.8286
112.365 1306 36.1386
112.482 1324 36.3868
112.599 1437 37.9078
112.716 1435 37.8814
112.832 1587 39.8372
112.949 1647 40.5832
113.066 1675 40.9268
113.183 1674 40.9145
113.3 1679 40.9756
113.417 1637 40.4599
113.534 1526 39.064
113.652 1404 37.47
113.769 1342 36.6333
113.886 1209 34.7707
114.003 1206 34.7275
114.12 1245 35.2846
114.238 1394 37.3363
114.355 1436 37.8946
114.472 1470 38.3406
114.589 1649 40.6079
114.707 1644 40.5463
114.824 1641 40.5093
114.942 1625 40.3113
115.059 1685 41.0488
115.176 1691 41.1218
115.294 1674 40.9145
115.411 1812 42.5676
115.529 1521 39
115.646 1564 39.5474
115.764 1515 38.923
115.881 1365 36.9459
115.999 1375 37.081
116.116 1306 36.1386
116.234 1496 38.6782
116.351 1575 39.6863
116.469 1661 40.7554
116.586 1608 40.0999
116.704 1645 40.5586
116.821 1687 41.0731
116.939 1692 41.1339
117.056 1630 40.3733
117.174 1504 38.7814
117.291 1414 37.6032
117.409 1318 36.3043
117.526 1223 34.9714
117.644 1232 35.0999
117.761 1331 36.4829
117.879 1371 37.027
117.996 1446 38.0263
118.114 1519 38.9744
118.231 1610 40.1248
118.349 1611 40.1373
118.466 1626 40.3237
118.584 1605 40.0625
118.701 1598 39.975
118.819 1603 40.0375
118.936 1567 39.5854
119.053 1538 39.2173
119.171 1558 39.4715
119.288 1462 38.2361
119.405 1398 37.3898
119.523 1377 37.108
119.64 1289 35.9026
119.757 1322 36.3593
119.875 1362 36.9053
119.992 1408 37.5233
120.109 1574 39.6737
120.226 1542 39.2683
120.343 1544 39.2938
120.46 1542 39.2683
120.578 1558 39.4715
120.695 1507 38.8201
120.812 1423 37.7227
120.929 1343 36.647
121.046 1164 34.1174
121.163 1171 34.2199
121.279 1038 32.218
121.396 1049 32.3883
121.513 1128 33.5857
121.63 1218 34.8999
121.747 1262 35.5246
121.863 1272 35.6651
121.98 1234 35.1283
122.097 1303 36.0971
122.213 1174 34.2637
122.33 1242 35.242
122.446 1207 34.7419
122.563 1167 34.1614
122.679 1057 32.5115
122.795 1010 31.7805
122.912 848 29.1204
123.028 728 26.9815
123.144 668 25.8457
123.26 612 24.7386
123.377 0 1
123.493 0 1
123.609 0 1
123.725 0 1
123.84 0 1
123.956 0 1
124.072 0 1
124.188 0 1
124.303 0 1
124.419 0 1
126.852 0 1
126.968 0 1
127.083 0 1
127.199 0 1
127.315 0 1
127.431 0 1
127.547 0 1
127.663 0 1
127.779 0 1
127.895 0 1
128.011 0 1
128.127 0 1
128.243 0 1
128.359 1377 37.108
128.476 1496 38.6782
128.592 1431 37.8286
128.708 1345 36.6742
128.825 1359 36.8646
128.941 1434 37.8682
129.058 1642 40.5216
129.174 1616 40.1995
129.291 1648 40.5956
129.408 1637 40.4599
129.524 1690 41.1096
129.641 1736 41.6653
129.758 1654 40.6694
129.875 1536 39.1918
129.992 1476 38.4187
130.108 1346 36.6879
130.225 1237 35.171
130.342 1250 35.3553
130.459 1329 36.4555
130.576 1401 37.4299
130.693 1508 38.833
130.81 1509 38.8458
130.928 1539 39.2301
131.045 1564 39.5474
131.162 1726 41.5452
131.279 1650 40.6202
131.396 1615 40.1871
131.513 1644 40.5463
131.631 1607 40.0874
131.748 1591 39.8873
131.865 1588 39.8497
131.983 1579 39.7366
132.1 1440 37.9473
132.217 1450 38.0789
132.335 1407 37.51
132.452 1508 38.833
132.57 1535 39.1791
132.687 1606 40.0749
132.804 1721 41.4849
132.922 1712 41.3763
133.039 1720 41.4729
133.157 1738 41.6893
133.274 1686 41.0609
133.392 1619 40.2368
133.509 1469 38.3275
133.627 1424 37.7359
133.744 1314 36.2491
133.862 1302 36.0832
133.979 1267 35.5949
134.097 1402 37.4433
134.214 1485 38.5357
134.332 1522 39.0128
134.449 1590 39.8748
134.567 1635 40.4351
134.684 1604 40.05
134.802 1765 42.0119
134.919 1660 40.7431
135.037 1647 40.5832
135.154 1650 40.6202
135.272 1645 40.5586
135.389 1648 40.5956
135.507 1580 39.7492
135.624 1564 39.5474
135.742 1485 38.5357
135.859 1400 37.4166
135.977 1455 38.1445
136.094 1596 39.95
136.211 1618 40.2244
136.329 1685 41.0488
136.446 1704 41.2795
136.564 1710 41.3521
136.681 1720 41.4729
136.798 1678 40.9634
136.915 1732 41.6173
137.033 1593 39.9124
137.15 1526 39.064
137.267 1414 37.6032
137.384 1348 36.7151
137.502 1241 35.2278
137.619 1279 35.7631
137.736 1423 37.7227
137.853 1425 37.7492
137.97 1473 38.3797
138.087 1539 39.2301
138.204 1596 39.95
138.321 1658 40.7185
138.438 1691 41.1218
138.555 1678 40.9634
138.672 1604 40.05
138.788 1559 39.4842
138.905 1530 39.1152
139.022 1491 38.6135
139.139 1356 36.8239
139.255 1349 36.7287
139.372 1191 34.5109
139.488 1123 33.5112
139.605 1164 34.1174
139.721 1091 33.0303
139.838 1097 33.121
139.954 1126 33.5559
140.071 1028 32.0624
140.187 1017 31.8904
140.303 916 30.2655
140.419 837 28.931
140.535 811 28.4781
140.652 716 26.7582
140.768 0 1
140.884 0 1
141 0 1
141.115 0 1
141.231 0 1
141.347 0 1
141.463 0 1
141.578 0 1
141.694 0 1
144.104 0 1
144.219 0 1
144.335 0 1
144.45 0 1
144.566 0 1
144.682 0 1
144.798 0 1
144.914 0 1
145.03 0 1
145.146 1141 33.7787
145.262 1273 35.6791
145.378 1316 36.2767
145.494 1323 36.3731
145.61 1323 36.3731
145.726 1290 35.9166
145.842 1258 35.4683
145.959 1189 34.4819
146.075 1054 32.4654
146.192 1074 32.7719
146.308 1115 33.3916
146.425 1082 32.8938
146.541 1078 32.8329
146.658 1193 34.5398
146.774 1203 34.6843
146.891 1207 34.7419
147.008 1255 35.426
147.125 1219 34.9142
147.241 1360 36.8782
147.358 1302 36.0832
147.475 1321 36.3456
147.592 1352 36.7696
147.709 1236 35.1568
147.826 1230 35.0714
147.943 1255 35.426
148.06 1143 33.8083
148.177 1164 34.1174
148.294 1129 33.6006
148.411 1183 34.3948
148.528 1184 34.4093
148.645 1223 34.9714
148.762 1258 35.4683
148.88 1342 36.6333
148.997 1367 36.973
149.114 1238 35.1852
149.231 1322 36.3593
149.349 1331 36.4829
149.466 1248 35.327
149.583 1282 35.805
149.701 1119 33.4515
149.818 1099 33.1512
149.935 1034 32.1559
150.053 1035 32.1714
150.17 1111 33.3317
150.287 1181 34.3657
150.405 1158 34.0294
150.522 1174 34.2637
150.64 1305 36.1248
150.757 1177 34.3074
150.875 1301 36.0694
150.992 1309 36.1801
151.11 1291 35.9305
151.227 1199 34.6266
151.344 1207 34.7419
151.462 1104 33.2265
151.579 1191 34.5109
151.697 1172 34.2345
151.814 1108 33.2866
151.932 1044 32.311
152.049 1138 33.7343
152.167 1093 33.0606
152.284 1205 34.7131
152.402 1214 34.8425
152.519 1236 35.1568
152.636 1228 35.0428
152.754 1284 35.8329
152.871 1246 35.2987
152.989 1219 34.9142
153.106 1192 34.5254
153.223 1143 33.8083
153.341 1068 32.6803
153.458 1004 31.686
153.575 999 31.607
153.693 1039 32.2335
153.81 1010 31.7805
153.927 1107 33.2716
154.044 1106 33.2566
154.162 1168 34.176
154.279 1140 33.7639
154.396 1154 33.9706
154.513 1205 34.7131
154.63 1207 34.7419
154.747 1223 34.9714
154.864 1154 33.9706
154.981 1161 34.0735
155.098 1117 33.4215
155.215 1099 33.1512
155.332 1004 31.686
155.449 1032 32.1248
155.566 1041 32.2645
155.683 1049 32.3883
155.8 1056 32.4962
155.917 1113 33.3617
156.033 1090 33.0151
156.15 0 1
156.267 0 1
156.383 0 1
156.5 0 1
156.617 0 1
156.733 0 1
156.85 0 1
156.966 0 1
157.082 0 1
157.199 0 1
157.315 0 1
157.431 0 1
157.547 0 1
157.664 0 1
157.78 0 1
157.896 0 1
158.012 0 1
158.128 0 1
158.244 0 1
158.359 0 1
158.475 0 1
158.591 0 1
158.706 0 1
