
6.15755 0 1
6.2731 0 1
6.3887 0 1
6.50437 0 1
6.62009 0 1
6.73587 0 1
6.8517 0 1
6.96759 0 1
7.08353 0 1
7.19952 0 1
7.31557 0 1
7.43166 0 1
7.54781 0 1
7.664 0 1
7.78024 0 1
7.89653 0 1
8.01286 0 1
8.12924 0 1
8.24567 0 1
8.36213 0 1
8.47864 0 1
8.59519 0 1
8.71178 0 1
8.82841 0 1
8.94508 0 1
9.06179 0 1
9.17853 0 1
9.29531 0 1
9.41212 0 1
9.52897 0 1
9.64584 0 1
9.76276 0 1
9.8797 0 1
9.99667 0 1
10.1137 0 1
10.2307 0 1
10.3478 0 1
10.4648 0 1
10.5819 0 1
10.6991 0 1
10.8162 0 1
10.9334 0 1
11.0506 0 1
11.1678 0 1
11.285 0 1
11.4023 0 1
11.5196 0 1
11.6369 0 1
11.7542 0 1
11.8715 0 1
11.9888 0 1
12.1062 0 1
12.2235 0 1
12.3409 0 1
12.4582 0 1
12.5756 0 1
12.693 0 1
12.8104 0 1
12.9278 0 1
13.0452 0 1
13.1626 0 1
13.28 0 1
13.3974 0 1
13.5149 0 1
13.6323 0 1
13.7497 0 1
13.8671 0 1
13.9845 0 1
14.1019 0 1
14.2193 0 1
14.3367 0 1
14.4541 0 1
14.5714 0 1
14.6888 0 1
14.8062 0 1
14.9235 0 1
15.0408 0 0
15.1581 0 0
15.2755 0 0
15.3927 0 0
15.51 0 0
15.6273 0 0
15.7445 0 0
15.8617 0 0
15.9789 0 0
16.0961 0 0
16.2132 0 0
16.3304 0 0
16.4475 0 0
16.5646 0 0
16.6816 0 0
16.7986 0 0
16.9156 0 0
17.0326 0 0
17.1496 0 0
17.2665 0 0
17.3833 0 0
17.5002 0 0
17.617 0 0
17.7338 0 0
17.8505 0 0
17.9672 0 0
18.0839 0 0
18.2005 0 0
18.3171 0 0
18.4337 0 0
18.5502 0 0
18.6666 0 0
18.7831 0 0
18.8994 0 0
19.0158 0 0
19.1321 0 0
19.2483 0 0
19.3645 0 0
19.4806 0 0
19.5967 0 0
19.7128 0 0
19.8288 0 0
19.9447 0 0
20.0606 0 1
20.1764 0 1
20.2922 0 1
20.4079 0 1
20.5236 0 1
20.6392 0 1
20.7548 0 1
20.8702 0 1
23.3078 0 1
23.4233 0 1
23.539 0 1
23.6547 0 1
23.7704 0 1
23.8862 0 1
24.0021 0 1
24.118 0 1
24.234 0 1
24.35 0 1
24.4661 50029 223.672
24.5822 55929 236.493
24.6984 62029 249.056
24.8146 68276 261.297
24.9309 73133 270.431
25.0472 78096 279.457
25.1636 81702 285.836
25.28 85748 292.828
25.3965 89486 299.142
25.513 92663 304.406
25.6296 96138 310.061
25.7462 97707 312.581
25.8628 98912 314.503
25.9795 100023 316.264
26.0962 101673 318.862
26.213 101256 318.207
26.3298 101198 318.116
26.4466 99430 315.325
26.5635 100137 316.444
26.6804 100710 317.348
26.7973 100624 317.213
26.9143 101180 318.088
27.0313 100085 316.362
27.1483 102919 320.81
27.2653 103816 322.205
27.3824 104515 323.288
27.4996 104836 323.784
27.6167 102888 320.762
27.7339 100843 317.558
27.8511 98550 313.927
27.9683 96757 311.058
28.0855 94835 307.953
28.2028 92480 304.105
28.3201 92099 303.478
28.4374 90647 301.076
28.5547 89649 299.414
28.6721 88271 297.104
28.7894 87994 296.638
28.9068 86448 294.02
29.0242 85879 293.051
29.1416 85876 293.046
29.259 85443 292.306
29.3764 86709 294.464
29.4939 86518 294.139
29.6113 86739 294.515
29.7288 86891 294.773
29.8463 87934 296.537
29.9638 88055 296.741
30.0812 88822 298.03
30.1987 89440 299.065
30.3162 89985 299.975
30.4337 90463 300.771
30.5512 90621 301.033
30.6687 91202 301.997
30.7862 93592 305.928
30.9037 93809 306.283
31.0212 95146 308.457
31.1387 94810 307.912
31.2562 92440 304.039
31.3737 90860 301.43
31.4912 89539 299.231
31.6087 87546 295.882
31.7262 86179 293.563
31.8436 85284 292.034
31.9611 83413 288.813
32.0785 83102 288.274
32.1959 82009 286.372
32.3134 81026 284.651
32.4308 80542 283.799
32.5482 79557 282.059
32.6655 79219 281.459
32.7829 79589 282.115
32.9002 79650 282.223
33.0176 80769 284.199
33.1349 79882 282.634
33.2522 80234 283.256
33.3694 80999 284.603
33.4867 81302 285.135
33.6039 82008 286.37
33.7211 82457 287.153
33.8383 83362 288.725
33.9554 84132 290.055
34.0725 84402 290.52
34.1896 84649 290.945
34.3067 85793 292.904
34.4237 86785 294.593
34.5407 88152 296.904
34.6577 89038 298.392
34.7746 89330 298.881
34.8915 87777 296.272
35.0084 86449 294.022
35.1252 84557 290.787
35.242 83387 288.768
35.3587 82595 287.393
35.4755 81159 284.884
35.5921 79634 282.195
35.7088 79041 281.142
35.8254 77075 277.624
35.9419 75452 274.685
36.0584 73933 271.906
36.1749 71502 267.399
36.2913 69443 263.52
36.4077 67388 259.592
36.524 65935 256.778
36.6403 64377 253.726
36.7565 63606 252.202
36.8727 61259 247.506
36.9889 59362 243.643
37.1049 57383 239.547
37.221 0 1
37.3369 0 1
37.4529 0 1
37.5687 0 1
37.6845 0 1
37.8003 0 1
37.916 0 1
38.0316 0 1
38.1472 0 1
40.5851 0 1
40.7008 0 1
40.8164 0 1
40.9322 0 1
41.048 0 1
41.1639 0 1
41.2798 0 1
41.3958 0 1
41.5118 0 1
41.6279 0 1
41.744 31856 178.482
41.8602 35103 187.358
41.9765 38431 196.038
42.0928 41578 203.907
42.2091 44811 211.686
42.3255 48228 219.609
42.4419 50803 225.395
42.5584 54020 232.422
42.675 56715 238.149
42.7915 59337 243.592
42.9081 60737 246.449
43.0248 62726 250.452
43.1415 65648 256.219
43.2582 66820 258.496
43.375 68669 262.048
43.4918 70086 264.738
43.6087 70647 265.795
43.7256 68974 262.629
43.8425 68075 260.912
43.9595 67847 260.475
44.0765 66293 257.474
44.1935 65270 255.48
44.3106 64677 254.317
44.4277 63517 252.026
44.5448 62278 249.556
44.6619 61215 247.417
44.7791 60606 246.183
44.8963 59343 243.604
45.0136 58394 241.649
45.1308 56889 238.514
45.2481 55646 235.894
45.3654 55542 235.674
45.4827 55602 235.801
45.6001 55531 235.65
45.7174 56586 237.878
45.8348 57347 239.472
45.9522 59640 244.213
46.0697 62037 249.072
46.1871 63636 252.262
46.3046 64918 254.79
46.422 66047 256.996
46.5395 66796 258.449
46.657 67622 260.042
46.7745 68913 262.513
46.892 70017 264.607
47.0096 71231 266.891
47.1271 71565 267.516
47.2446 72348 268.976
47.3622 71641 267.658
47.4797 70516 265.548
47.5973 69631 263.877
47.7149 68008 260.783
47.8324 67258 259.341
47.95 65991 256.887
48.0675 66091 257.082
48.1851 65190 255.323
48.3027 63407 251.807
48.4202 62332 249.664
48.5378 60571 246.112
48.6554 58623 242.122
48.7729 56920 238.579
48.8904 56027 236.7
49.008 56368 237.419
49.1255 55957 236.552
49.243 56365 237.413
49.3605 58686 242.252
49.478 60744 246.463
49.5955 62670 250.34
49.713 64854 254.664
49.8304 66526 257.926
49.9479 67426 259.665
50.0653 68265 261.276
50.1827 69148 262.96
50.3001 70220 264.991
50.4175 71447 267.296
50.5348 73136 270.437
50.6521 73725 271.523
50.7694 73655 271.395
50.8867 72274 268.838
51.004 71025 266.505
51.1212 69823 264.24
51.2384 68834 262.362
51.3556 67710 260.211
51.4727 67139 259.112
51.5899 66211 257.315
51.707 65082 255.112
51.824 64732 254.425
51.9411 63599 252.188
52.0581 61782 248.56
52.175 59471 243.867
52.2919 57794 240.404
52.4088 56429 237.548
52.5257 57084 238.923
52.6425 57454 239.696
52.7593 56474 237.643
52.876 57443 239.673
52.9927 58450 241.764
53.1094 59512 243.951
53.226 60873 246.725
53.3426 60916 246.812
53.4591 61142 247.269
53.5756 60030 245.01
53.692 59167 243.243
53.8084 57307 239.389
53.9248 55555 235.701
54.0411 54357 233.146
54.1573 52029 228.099
54.2735 0 1
54.3896 0 1
54.5057 0 1
54.6217 0 1
54.7377 0 1
54.8537 0 1
54.9695 0 1
55.0853 0 1
55.2011 0 1
55.3168 0 1
55.4324 0 1
57.824 0 1
57.9396 0 1
58.0553 0 1
58.1711 0 1
58.2869 0 1
58.4028 0 1
58.5187 0 1
58.6347 0 1
58.7508 0 1
58.8669 0 1
58.983 44391 210.692
59.0992 51304 226.504
59.2155 57198 239.161
59.3318 62205 249.409
59.4482 66767 258.393
59.5646 70327 265.192
59.681 72255 268.803
59.7975 73843 271.741
59.9141 75762 275.249
60.0306 76962 277.42
60.1473 77234 277.91
60.2639 77645 278.649
60.3807 77521 278.426
60.4974 77021 277.527
60.6142 75972 275.63
60.731 74277 272.538
60.8479 71762 267.884
60.9648 67940 260.653
61.0818 65758 256.433
61.1987 64331 253.636
61.3158 63431 251.855
61.4328 64275 253.525
61.5499 65953 256.813
61.667 68114 260.987
61.7841 71094 266.635
61.9013 74544 273.027
62.0185 76976 277.445
62.1357 79024 281.112
62.253 81042 284.679
62.3702 82571 287.352
62.4875 83609 289.152
62.6049 84584 290.833
62.7222 85931 293.14
62.8396 86908 294.802
62.9569 87136 295.188
63.0743 87242 295.368
63.1918 85785 292.891
63.3092 84896 291.369
63.4267 84088 289.979
63.5441 82413 287.077
63.6616 81558 285.584
63.7791 79838 282.556
63.8966 78449 280.087
64.0142 76779 277.09
64.1317 75384 274.561
64.2492 73435 270.989
64.3668 70940 266.346
64.4843 67340 259.5
64.6019 64577 254.12
64.7195 62929 250.857
64.837 61704 248.403
64.9546 61779 248.554
65.0722 62897 250.793
65.1898 65214 255.37
65.3074 67220 259.268
65.4249 70895 266.261
65.5425 73588 271.271
65.6601 76047 275.766
65.7777 78248 279.728
65.8952 79539 282.027
66.0128 80984 284.577
66.1304 82066 286.472
66.2479 83380 288.756
66.3655 83794 289.472
66.483 84574 290.816
66.6005 85037 291.611
66.718 84028 289.876
66.8355 83655 289.232
66.953 82067 286.473
67.0705 81086 284.756
67.1879 79326 281.649
67.3054 78199 279.641
67.4228 76891 277.292
67.5402 75952 275.594
67.6576 75201 274.228
67.7749 72764 269.748
67.8923 70671 265.84
68.0096 67698 260.188
68.1269 64566 254.098
68.2442 61444 247.879
68.3614 59372 243.664
68.4787 59029 242.959
68.5958 58374 241.607
68.713 59459 243.842
68.8302 61369 247.728
68.9473 64684 254.33
69.0643 67385 259.586
69.1814 70541 265.596
69.2984 73989 272.009
69.4154 76240 276.116
69.5323 77340 278.101
69.6492 77114 277.694
69.7661 77614 278.593
69.8829 76941 277.382
69.9997 76529 276.639
70.1165 76544 276.666
70.2332 75617 274.985
70.3499 73628 271.345
70.4665 70670 265.838
70.5831 68508 261.74
70.6996 65380 255.695
70.8161 62349 249.698
70.9326 59113 243.132
71.049 56237 237.143
71.1653 52050 228.145
71.2817 48569 220.384
71.3979 44585 211.152
71.5141 40214 200.534
71.6303 35164 187.521
71.7464 28694 169.393
71.8624 0 1
71.9784 0 1
72.0944 0 1
72.2102 0 1
72.3261 0 1
72.4418 0 1
72.5575 0 1
72.6732 0 1
75.1054 0 1
75.2209 0 1
75.3365 0 1
75.4521 0 1
75.5678 0 1
75.6835 0 1
75.7993 0 1
75.9151 0 1
76.031 0 1
76.147 48842 221.002
76.263 52527 229.188
76.3791 55807 236.235
76.4952 57379 239.539
76.6113 57977 240.784
76.7276 59122 243.15
76.8438 58375 241.609
76.9601 57278 239.328
77.0765 55181 234.906
77.1929 53135 230.51
77.3093 50800 225.389
77.4258 49868 223.311
77.5423 49912 223.41
77.6589 50570 224.878
77.7755 51560 227.068
77.8921 54275 232.97
78.0088 57210 239.186
78.1256 60171 245.298
78.2423 63544 252.079
78.3591 65805 256.525
78.4759 67285 259.394
78.5928 68407 261.547
78.7097 69129 262.924
78.8266 71379 267.168
78.9436 70475 265.471
79.0606 71588 267.559
79.1776 71741 267.845
79.2946 72128 268.567
79.4117 72136 268.581
79.5288 71121 266.685
79.6459 70405 265.339
79.7631 69633 263.881
79.8802 69011 262.699
79.9974 68419 261.57
80.1147 67104 259.044
80.2319 66067 257.035
80.3491 65043 255.035
80.4664 64048 253.077
80.5837 61697 248.389
80.701 58931 242.757
80.8183 55998 236.639
80.9357 52343 228.786
81.053 51150 226.164
81.1704 49731 223.004
81.2877 50128 223.893
81.4051 50842 225.482
81.5225 52560 229.26
81.6399 55516 235.618
81.7573 58587 242.048
81.8747 63074 251.145
81.9922 64635 254.234
82.1096 67382 259.58
82.227 67901 260.578
82.3444 68354 261.446
82.4619 70461 265.445
82.5793 70473 265.468
82.6967 71621 267.621
82.8142 72410 269.091
82.9316 72129 268.568
83.049 72248 268.79
83.1664 70966 266.394
83.2838 71462 267.324
83.4012 69586 263.792
83.5186 69065 262.802
83.636 68344 261.427
83.7534 67557 259.917
83.8708 66374 257.632
83.9881 65332 255.601
84.1055 63530 252.052
84.2228 61890 248.777
84.3401 58155 241.153
84.4575 54880 234.265
84.5747 51510 226.958
84.692 49276 221.982
84.8093 47720 218.449
84.9265 48136 219.399
85.0437 49612 222.738
85.1609 52166 228.399
85.2781 55865 236.358
85.3952 59111 243.128
85.5123 62147 249.293
85.6294 65503 255.936
85.7465 67598 259.996
85.8636 69110 262.888
85.9806 70085 264.736
86.0976 71053 266.558
86.2145 71770 267.899
86.3315 71669 267.711
86.4484 73852 271.757
86.5652 73675 271.431
86.682 73429 270.978
86.7988 72453 269.171
86.9156 71339 267.094
87.0323 69440 263.515
87.149 67393 259.602
87.2657 65986 256.877
87.3823 63499 251.99
87.4988 61615 248.224
87.6154 58911 242.716
87.7318 56714 238.147
87.8483 53048 230.322
87.9647 48709 220.701
88.081 44715 211.459
88.1973 40401 201
88.3136 37336 193.225
88.4298 35759 189.101
88.546 34545 185.863
88.6621 33460 182.921
88.7781 33281 182.431
88.8942 0 1
89.0101 0 1
89.126 0 1
89.2419 0 1
89.3577 0 1
89.4734 0 1
89.5891 0 1
89.7047 0 1
89.8203 0 1
89.9358 0 1
92.3269 0 1
92.4424 0 1
92.558 0 1
92.6736 0 1
92.7893 0 1
92.905 0 1
93.0208 0 1
93.1366 0 1
93.2525 0 1
93.3685 0 1
93.4845 0 1
93.6005 41235 203.064
93.7167 41631 204.037
93.8328 42015 204.976
93.949 42675 206.579
94.0653 44152 210.124
94.1816 45939 214.334
94.2979 49413 222.29
94.4143 53951 232.274
94.5307 57790 240.396
94.6472 61841 248.679
94.7637 64745 254.45
94.8803 68080 260.921
94.9969 69502 263.632
95.1135 71275 266.974
95.2302 73178 270.514
95.3469 73279 270.701
95.4637 74429 272.817
95.5805 74569 273.073
95.6973 75206 274.237
95.8142 74920 273.715
95.9311 73048 270.274
96.048 72658 269.551
96.1649 72656 269.548
96.2819 71859 268.065
96.3989 71311 267.041
96.516 70756 266
96.633 69342 263.329
96.7501 68399 261.532
96.8673 67674 260.142
96.9844 66376 257.635
97.1016 62963 250.924
97.2188 59802 244.544
97.336 55474 235.529
97.4532 52391 228.891
97.5704 50230 224.121
97.6877 49689 222.91
97.805 50091 223.81
97.9223 51530 227.002
98.0396 54679 233.835
98.1569 58620 242.116
98.2743 62196 249.391
98.3916 65459 255.85
98.509 69070 262.812
98.6264 70067 264.702
98.7438 71658 267.69
98.8612 72863 269.931
98.9786 73971 271.976
99.096 74611 273.15
99.2134 75847 275.403
99.3308 76350 276.315
99.4482 76529 276.639
99.5656 76540 276.659
99.6831 76268 276.167
99.8005 74652 273.225
99.9179 74280 272.544
100.035 73568 271.234
100.153 72579 269.405
100.27 71928 268.194
100.388 70677 265.851
100.505 69663 263.937
100.622 67577 259.956
100.74 63701 252.391
100.857 60402 245.768
100.975 56696 238.109
101.092 53721 231.778
101.209 53305 230.879
101.327 52890 229.978
101.444 54593 233.651
101.561 56813 238.355
101.679 61598 248.189
101.796 64837 254.631
101.913 68043 260.851
102.03 70577 265.663
102.148 72368 269.013
102.265 72352 268.983
102.382 77086 277.644
102.499 76011 275.701
102.616 76853 277.224
102.733 78118 279.496
102.851 78454 280.096
102.968 78500 280.179
103.085 78523 280.22
103.202 78065 279.401
103.319 76589 276.747
103.436 76114 275.888
103.552 74968 273.803
103.669 74076 272.169
103.786 73179 270.516
103.903 72833 269.876
104.02 71548 267.485
104.137 69300 263.249
104.253 66462 257.802
104.37 61750 248.495
104.487 58844 242.578
104.603 55289 235.136
104.72 54499 233.45
104.836 54396 233.23
104.953 54726 233.936
105.069 55826 236.275
105.186 57377 239.535
105.302 59273 243.46
105.418 60549 246.067
105.535 60475 245.917
105.651 59527 243.982
105.767 57781 240.377
105.883 55141 234.821
105.999 52374 228.854
106.115 0 1
106.231 0 1
106.347 0 1
106.463 0 1
106.579 0 1
106.694 0 1
106.81 0 1
106.926 0 1
107.041 0 1
107.157 0 1
109.576 0 1
109.692 0 1
109.807 0 1
109.923 0 1
110.039 0 1
110.155 0 1
110.27 0 1
110.386 0 1
110.502 0 1
110.618 33081 181.882
110.735 39465 198.658
110.851 44467 210.872
110.967 48438 220.086
111.083 52854 229.9
111.199 57160 239.082
111.316 60569 246.108
111.432 63314 251.623
111.549 64876 254.708
111.665 66238 257.367
111.782 66856 258.565
111.898 66234 257.36
112.015 65794 256.503
112.132 65113 255.172
112.248 64781 254.521
112.365 64126 253.231
112.482 63559 252.109
112.599 61754 248.504
112.716 60021 244.992
112.832 57371 239.522
112.949 54122 232.641
113.066 51185 226.241
113.183 49291 222.016
113.3 48657 220.583
113.417 48437 220.084
113.534 48656 220.581
113.652 50702 225.171
113.769 53215 230.684
113.886 55491 235.565
114.003 59119 243.144
114.12 60394 245.752
114.238 62756 250.511
114.355 63690 252.369
114.472 66704 258.271
114.589 63112 251.221
114.707 65951 256.809
114.824 66964 258.774
114.942 67791 260.367
115.059 68065 260.893
115.176 67658 260.112
115.294 67114 259.064
115.411 66262 257.414
115.529 64807 254.572
115.646 64283 253.541
115.764 63033 251.064
115.881 62578 250.156
115.999 60633 246.238
116.116 60129 245.212
116.234 58825 242.539
116.351 56278 237.23
116.469 53774 231.892
116.586 51330 226.561
116.704 49437 222.344
116.821 48191 219.524
116.939 47375 217.658
117.056 47861 218.772
117.174 48868 221.061
117.291 51192 226.256
117.409 53258 230.777
117.526 55799 236.218
117.644 57521 239.835
117.761 59633 244.199
117.879 60439 245.843
117.996 60810 246.597
118.114 62060 249.118
118.231 62820 250.639
118.349 64132 253.243
118.466 64558 254.083
118.584 65195 255.333
118.701 65092 255.131
118.819 64286 253.547
118.936 62981 250.96
119.053 61771 248.538
119.171 60785 246.546
119.288 59963 244.873
119.405 59133 243.173
119.523 58291 241.435
119.64 56910 238.558
119.757 56184 237.032
119.875 54533 233.523
119.992 52462 229.046
120.109 50911 225.635
120.226 48762 220.821
120.343 47332 217.559
120.46 46783 216.294
120.578 46309 215.195
120.695 46402 215.411
120.812 46712 216.13
120.929 48552 220.345
121.046 49969 223.537
121.163 50577 224.893
121.279 51760 227.508
121.396 53038 230.3
121.513 53529 231.363
121.63 53814 231.978
121.747 53264 230.79
121.863 53151 230.545
121.98 53998 232.375
122.097 53527 231.359
122.213 52717 229.602
122.33 51913 227.844
122.446 50591 224.924
122.563 48535 220.307
122.679 45899 214.241
122.795 43637 208.895
122.912 40880 202.188
123.028 38228 195.52
123.144 35406 188.165
123.26 32704 180.842
123.377 0 1
123.493 0 1
123.609 0 1
123.725 0 1
123.84 0 1
123.956 0 1
124.072 0 1
124.188 0 1
124.303 0 1
124.419 0 1
126.852 0 1
126.968 0 1
127.083 0 1
127.199 0 1
127.315 0 1
127.431 0 1
127.547 0 1
127.663 0 1
127.779 0 1
127.895 0 1
128.011 0 1
128.127 0 1
128.243 0 1
128.359 56473 237.64
128.476 58142 241.127
128.592 58607 242.089
128.708 59273 243.46
128.825 59423 243.768
128.941 59468 243.861
129.058 58562 241.996
129.174 57372 239.525
129.291 56197 237.059
129.408 54977 234.472
129.524 54260 232.938
129.641 53548 231.404
129.758 52968 230.148
129.875 53611 231.54
129.992 54308 233.041
130.108 55846 236.318
130.225 56940 238.621
130.342 59467 243.859
130.459 61101 247.186
130.576 61072 247.127
130.693 62216 249.431
130.81 63004 251.006
130.928 64036 253.053
131.045 65372 255.679
131.162 65770 256.457
131.279 67857 260.494
131.396 67992 260.753
131.513 67564 259.931
131.631 66507 257.89
131.748 65760 256.437
131.865 64070 253.121
131.983 63109 251.215
132.1 61586 248.165
132.217 61251 247.489
132.335 60926 246.832
132.452 59983 244.914
132.57 59534 243.996
132.687 58351 241.56
132.804 55836 236.296
132.922 55484 235.55
133.039 54882 234.269
133.157 54236 232.886
133.274 53957 232.286
133.392 53775 231.894
133.509 54787 234.066
133.627 55912 236.457
133.744 56585 237.876
133.862 58263 241.377
133.979 59637 244.207
134.097 60738 246.451
134.214 61415 247.82
134.332 61958 248.914
134.449 63459 251.911
134.567 64613 254.191
134.684 65457 255.846
134.802 66397 257.676
134.919 66462 257.802
135.037 66688 258.24
135.154 65457 255.846
135.272 64460 253.89
135.389 63089 251.175
135.507 62456 249.912
135.624 61791 248.578
135.742 60692 246.357
135.859 59879 244.702
135.977 59655 244.244
136.094 58836 242.561
136.211 57537 239.869
136.329 57173 239.109
136.446 55998 236.639
136.564 54801 234.096
136.681 54265 232.948
136.798 54246 232.908
136.915 54276 232.972
137.033 53741 231.821
137.15 54559 233.579
137.267 55166 234.874
137.384 56047 236.742
137.502 57046 238.843
137.619 58009 240.851
137.736 58331 241.518
137.853 57815 240.447
137.97 58300 241.454
138.087 62681 250.362
138.204 61642 248.278
138.321 62423 249.846
138.438 63152 251.301
138.555 63176 251.348
138.672 62785 250.569
138.788 60456 245.878
138.905 58828 242.545
139.022 56851 238.434
139.139 54360 233.152
139.255 52790 229.761
139.372 50373 224.439
139.488 47459 217.851
139.605 45441 213.169
139.721 43746 209.155
139.838 41007 202.502
139.954 39084 197.697
140.071 36123 190.061
140.187 32516 180.322
140.303 30481 174.588
140.419 28282 168.173
140.535 26675 163.325
140.652 25094 158.411
140.768 0 1
140.884 0 1
141 0 1
141.115 0 1
141.231 0 1
141.347 0 1
141.463 0 1
141.578 0 1
141.694 0 1
144.104 0 1
144.219 0 1
144.335 0 1
144.45 0 1
144.566 0 1
144.682 0 1
144.798 0 1
144.914 0 1
145.03 0 1
145.146 38312 195.735
145.262 39574 198.932
145.378 40647 201.611
145.494 41211 203.005
145.61 41409 203.492
145.726 41481 203.669
145.842 41472 203.647
145.959 42177 205.37
146.075 41839 204.546
146.192 42398 205.908
146.308 42862 207.031
146.425 42904 207.133
146.541 43500 208.567
146.658 43439 208.42
146.774 44576 211.13
146.891 44528 211.017
147.008 45507 213.324
147.125 45729 213.843
147.241 46398 215.402
147.358 47369 217.644
147.475 47466 217.867
147.592 46556 215.768
147.709 45732 213.85
147.826 44798 211.655
147.943 43700 209.045
148.06 43544 208.672
148.177 42172 205.358
148.294 42412 205.942
148.411 42702 206.645
148.528 42811 206.908
148.645 42418 205.956
148.762 42177 205.37
148.88 42081 205.137
148.997 42560 206.301
149.114 40716 201.782
149.231 41207 202.995
149.349 41001 202.487
149.466 40761 201.894
149.583 40577 201.437
149.701 41005 202.497
149.818 41159 202.877
149.935 41677 204.149
150.053 41340 203.322
150.17 42310 205.694
150.287 42643 206.502
150.405 42884 207.085
150.522 43621 208.856
150.64 44680 211.376
150.757 44910 211.92
150.875 45480 213.26
150.992 46348 215.286
151.11 45604 213.551
151.227 45003 212.139
151.344 44423 210.768
151.462 43625 208.866
151.579 42856 207.017
151.697 42435 205.998
151.814 42118 205.227
151.932 40891 202.215
152.049 41249 203.098
152.167 41330 203.298
152.284 40963 202.393
152.402 40653 201.626
152.519 40726 201.807
152.636 40193 200.482
152.754 40120 200.3
152.871 39778 199.444
152.989 39592 198.977
153.106 39469 198.668
153.223 39786 199.464
153.341 39563 198.904
153.458 39873 199.682
153.575 39677 199.191
153.693 40260 200.649
153.81 40227 200.567
153.927 40715 201.78
154.044 41500 203.715
154.162 41393 203.453
154.279 42429 205.983
154.396 43170 207.774
154.513 43298 208.082
154.63 43567 208.727
154.747 44095 209.988
154.864 42664 206.553
154.981 41811 204.477
155.098 40570 201.42
155.215 40590 201.47
155.332 39543 198.854
155.449 39153 197.871
155.566 38275 195.64
155.683 38060 195.09
155.8 37598 193.902
155.917 37156 192.759
156.033 35572 188.605
156.15 0 1
156.267 0 1
156.383 0 1
156.5 0 1
156.617 0 1
156.733 0 1
156.85 0 1
156.966 0 1
157.082 0 1
157.199 0 1
157.315 0 1
157.431 0 1
157.547 0 1
157.664 0 1
157.78 0 1
157.896 0 1
158.012 0 1
158.128 0 1
158.244 0 1
158.359 0 1
158.475 0 1
158.591 0 1
158.706 0 1
