
6.15755 0 1
6.2731 0 1
6.3887 0 1
6.50437 0 1
6.62009 0 1
6.73587 0 1
6.8517 0 1
6.96759 0 1
7.08353 0 1
7.19952 0 1
7.31557 0 1
7.43166 0 1
7.54781 0 1
7.664 0 1
7.78024 0 1
7.89653 0 1
8.01286 0 1
8.12924 0 1
8.24567 0 1
8.36213 0 1
8.47864 0 1
8.59519 0 1
8.71178 0 1
8.82841 0 1
8.94508 0 1
9.06179 0 1
9.17853 0 1
9.29531 0 1
9.41212 0 1
9.52897 0 1
9.64584 0 1
9.76276 0 1
9.8797 0 1
9.99667 0 1
10.1137 0 1
10.2307 0 1
10.3478 0 1
10.4648 0 1
10.5819 0 1
10.6991 0 1
10.8162 0 1
10.9334 0 1
11.0506 0 1
11.1678 0 1
11.285 0 1
11.4023 0 1
11.5196 0 1
11.6369 0 1
11.7542 0 1
11.8715 0 1
11.9888 0 1
12.1062 0 1
12.2235 0 1
12.3409 0 1
12.4582 0 1
12.5756 0 1
12.693 0 1
12.8104 0 1
12.9278 0 1
13.0452 0 1
13.1626 0 1
13.28 0 1
13.3974 0 1
13.5149 0 1
13.6323 0 1
13.7497 0 1
13.8671 0 1
13.9845 0 1
14.1019 0 1
14.2193 0 1
14.3367 0 1
14.4541 0 1
14.5714 0 1
14.6888 0 1
14.8062 0 1
14.9235 0 1
15.0408 0 0
15.1581 0 0
15.2755 0 0
15.3927 0 0
15.51 0 0
15.6273 0 0
15.7445 0 0
15.8617 0 0
15.9789 0 0
16.0961 0 0
16.2132 0 0
16.3304 0 0
16.4475 0 0
16.5646 0 0
16.6816 0 0
16.7986 0 0
16.9156 0 0
17.0326 0 0
17.1496 0 0
17.2665 0 0
17.3833 0 0
17.5002 0 0
17.617 0 0
17.7338 0 0
17.8505 0 0
17.9672 0 0
18.0839 0 0
18.2005 0 0
18.3171 0 0
18.4337 0 0
18.5502 0 0
18.6666 0 0
18.7831 0 0
18.8994 0 0
19.0158 0 0
19.1321 0 0
19.2483 0 0
19.3645 0 0
19.4806 0 0
19.5967 0 0
19.7128 0 0
19.8288 0 0
19.9447 0 0
20.0606 0 1
20.1764 0 1
20.2922 0 1
20.4079 0 1
20.5236 0 1
20.6392 0 1
20.7548 0 1
20.8702 0 1
23.3078 0 1
23.4233 0 1
23.539 0 1
23.6547 0 1
23.7704 0 1
23.8862 0 1
24.0021 0 1
24.118 0 1
24.234 0 1
24.35 0 1
24.4661 1822 42.6849
24.5822 1824 42.7083
24.6984 1824 42.7083
24.8146 1808 42.5206
24.9309 1841 42.9069
25.0472 1810 42.5441
25.1636 1880 43.359
25.28 1827 42.7434
25.3965 1897 43.5546
25.513 1880 43.359
25.6296 1887 43.4396
25.7462 1892 43.4971
25.8628 1853 43.0465
25.9795 1917 43.7836
26.0962 1810 42.5441
26.213 1860 43.1277
26.3298 1928 43.909
26.4466 1817 42.6263
26.5635 1725 41.5331
26.6804 1572 39.6485
26.7973 1551 39.3827
26.9143 1549 39.3573
27.0313 1640 40.4969
27.1483 1712 41.3763
27.2653 1779 42.1782
27.3824 1866 43.1972
27.4996 1867 43.2088
27.6167 1809 42.5323
27.7339 1793 42.3438
27.8511 1812 42.5676
27.9683 1820 42.6615
28.0855 1788 42.2847
28.2028 1799 42.4146
28.3201 1701 41.2432
28.4374 1795 42.3674
28.5547 1791 42.3202
28.6721 1778 42.1663
28.7894 1788 42.2847
28.9068 1789 42.2966
29.0242 1730 41.5933
29.1416 1803 42.4617
29.259 1753 41.8688
29.3764 1827 42.7434
29.4939 1808 42.5206
29.6113 1766 42.0238
29.7288 1795 42.3674
29.8463 1748 41.8091
29.9638 1674 40.9145
30.0812 1593 39.9124
30.1987 1485 38.5357
30.3162 1504 38.7814
30.4337 1454 38.1314
30.5512 1662 40.7676
30.6687 1605 40.0625
30.7862 1795 42.3674
30.9037 1814 42.5911
31.0212 1826 42.7317
31.1387 1869 43.2319
31.2562 1820 42.6615
31.3737 1743 41.7493
31.4912 1863 43.1625
31.6087 1814 42.5911
31.7262 1809 42.5323
31.8436 1795 42.3674
31.9611 1860 43.1277
32.0785 1861 43.1393
32.1959 1833 42.8135
32.3134 1787 42.2729
32.4308 1949 44.1475
32.5482 1817 42.6263
32.6655 1885 43.4166
32.7829 1800 42.4264
32.9002 1815 42.6028
33.0176 1892 43.4971
33.1349 1836 42.8486
33.2522 1823 42.6966
33.3694 1836 42.8486
33.4867 1820 42.6615
33.6039 1892 43.4971
33.7211 1660 40.7431
33.8383 1525 39.0512
33.9554 1437 37.9078
34.0725 1483 38.5097
34.1896 1545 39.3065
34.3067 1617 40.2119
34.4237 1684 41.0366
34.5407 1809 42.5323
34.6577 1863 43.1625
34.7746 1879 43.3474
34.8915 1936 44
35.0084 1831 42.7902
35.1252 1840 42.8952
35.242 1771 42.0833
35.3587 1845 42.9535
35.4755 1763 41.9881
35.5921 1836 42.8486
35.7088 1811 42.5558
35.8254 1857 43.0929
35.9419 1747 41.7971
36.0584 1905 43.6463
36.1749 1777 42.1545
36.2913 1930 43.9318
36.4077 1801 42.4382
36.524 1915 43.7607
36.6403 1856 43.0813
36.7565 1843 42.9302
36.8727 1911 43.715
36.9889 1840 42.8952
37.1049 1857 43.0929
37.221 0 1
37.3369 0 1
37.4529 0 1
37.5687 0 1
37.6845 0 1
37.8003 0 1
37.916 0 1
38.0316 0 1
38.1472 0 1
40.5851 0 1
40.7008 0 1
40.8164 0 1
40.9322 0 1
41.048 0 1
41.1639 0 1
41.2798 0 1
41.3958 0 1
41.5118 0 1
41.6279 0 1
41.744 1517 38.9487
41.8602 1544 39.2938
41.9765 1628 40.3485
42.0928 1556 39.4462
42.2091 1711 41.3642
42.3255 1607 40.0874
42.4419 1592 39.8999
42.5584 1437 37.9078
42.675 1285 35.8469
42.7915 1287 35.8748
42.9081 1316 36.2767
43.0248 1454 38.1314
43.1415 1487 38.5616
43.2582 1577 39.7115
43.375 1554 39.4208
43.4918 1624 40.2989
43.6087 1720 41.4729
43.7256 1664 40.7922
43.8425 1642 40.5216
43.9595 1567 39.5854
44.0765 1486 38.5487
44.1935 1497 38.6911
44.3106 1475 38.4057
44.4277 1459 38.1969
44.5448 1449 38.0657
44.6619 1456 38.1576
44.7791 1406 37.4967
44.8963 1457 38.1707
45.0136 1419 37.6696
45.1308 1429 37.8021
45.2481 1450 38.0789
45.3654 1412 37.5766
45.4827 1383 37.1887
45.6001 1481 38.4838
45.7174 1542 39.2683
45.8348 1455 38.1445
45.9522 1430 37.8153
46.0697 1280 35.7771
46.1871 1155 33.9853
46.3046 1104 33.2265
46.422 1070 32.7109
46.5395 1179 34.3366
46.657 1298 36.0278
46.7745 1285 35.8469
46.892 1326 36.4143
47.0096 1395 37.3497
47.1271 1464 38.2623
47.2446 1317 36.2905
47.3622 1375 37.081
47.4797 1308 36.1663
47.5973 1297 36.0139
47.7149 1246 35.2987
47.8324 1182 34.3802
47.95 1275 35.7071
48.0675 1209 34.7707
48.1851 1144 33.8231
48.3027 1152 33.9411
48.4202 1176 34.2929
48.5378 1191 34.5109
48.6554 1209 34.7707
48.7729 1226 35.0143
48.8904 1278 35.7491
49.008 1304 36.1109
49.1255 1286 35.8608
49.243 1253 35.3977
49.3605 1265 35.5668
49.478 1254 35.4119
49.5955 1139 33.7491
49.713 1070 32.7109
49.8304 983 31.3528
49.9479 1031 32.1092
50.0653 1130 33.6155
50.1827 1369 37
50.3001 1451 38.092
50.4175 1484 38.5227
50.5348 1517 38.9487
50.6521 1636 40.4475
50.7694 1774 42.1189
50.8867 1674 40.9145
51.004 1758 41.9285
51.1212 1728 41.5692
51.2384 1727 41.5572
51.3556 1676 40.939
51.4727 1642 40.5216
51.5899 1668 40.8412
51.707 1713 41.3884
51.824 1805 42.4853
51.9411 1815 42.6028
52.0581 1881 43.3705
52.175 1930 43.9318
52.2919 1928 43.909
52.4088 1968 44.3621
52.5257 2008 44.8107
52.6425 2009 44.8219
52.7593 2023 44.9778
52.876 2097 45.793
52.9927 2132 46.1736
53.1094 2002 44.7437
53.226 1980 44.4972
53.3426 1791 42.3202
53.4591 1635 40.4351
53.5756 1706 41.3038
53.692 1817 42.6263
53.8084 2053 45.31
53.9248 2240 47.3286
54.0411 2371 48.6929
54.1573 2344 48.4149
54.2735 0 1
54.3896 0 1
54.5057 0 1
54.6217 0 1
54.7377 0 1
54.8537 0 1
54.9695 0 1
55.0853 0 1
55.2011 0 1
55.3168 0 1
55.4324 0 1
57.824 0 1
57.9396 0 1
58.0553 0 1
58.1711 0 1
58.2869 0 1
58.4028 0 1
58.5187 0 1
58.6347 0 1
58.7508 0 1
58.8669 0 1
58.983 2877 53.6377
59.0992 3135 55.9911
59.2155 3226 56.7979
59.3318 3254 57.0438
59.4482 3260 57.0964
59.5646 3341 57.8014
59.681 3369 58.0431
59.7975 3245 56.9649
59.9141 3183 56.4181
60.0306 3125 55.9017
60.1473 3064 55.3534
60.2639 3061 55.3263
60.3807 2955 54.3599
60.4974 3185 56.4358
60.6142 3257 57.0701
60.731 3328 57.6888
60.8479 3258 57.0789
60.9648 3394 58.258
61.0818 3340 57.7927
61.1987 3398 58.2924
61.3158 3487 59.0508
61.4328 3376 58.1034
61.5499 3358 57.9483
61.667 3238 56.9034
61.7841 2939 54.2125
61.9013 2735 52.2972
62.0185 2664 51.614
62.1357 2672 51.6914
62.253 2814 53.0471
62.3702 3075 55.4527
62.4875 3390 58.2237
62.6049 3469 58.8982
62.7222 3532 59.4306
62.8396 3561 59.6741
62.9569 3757 61.2944
63.0743 3637 60.3075
63.1918 3565 59.7076
63.3092 3564 59.6992
63.4267 3357 57.9396
63.5441 3398 58.2924
63.6616 3340 57.7927
63.7791 3224 56.7803
63.8966 3287 57.3324
64.0142 3244 56.9561
64.1317 3406 58.3609
64.2492 3459 58.8133
64.3668 3638 60.3158
64.4843 3557 59.6406
64.6019 3620 60.1664
64.7195 3696 60.7947
64.837 3789 61.5549
64.9546 3702 60.8441
65.0722 3547 59.5567
65.1898 3483 59.0169
65.3074 3367 58.0259
65.4249 3147 56.0981
65.5425 2886 53.7215
65.6601 2814 53.0471
65.7777 2906 53.9073
65.8952 3125 55.9017
66.0128 3518 59.3127
66.1304 3676 60.63
66.2479 3955 62.8888
66.3655 3921 62.6179
66.483 3997 63.2218
66.6005 4093 63.9766
66.718 4052 63.6553
66.8355 4015 63.364
66.953 3932 62.7057
67.0705 3888 62.3538
67.1879 3739 61.1474
67.3054 3547 59.5567
67.4228 3490 59.0762
67.5402 3540 59.4979
67.6576 3616 60.1332
67.7749 3675 60.6218
67.8923 3865 62.1691
68.0096 4023 63.4271
68.1269 4072 63.8122
68.2442 4111 64.1171
68.3614 4312 65.6658
68.4787 4228 65.0231
68.5958 4381 66.1891
68.713 4171 64.5833
68.8302 4178 64.6375
68.9473 3817 61.7819
69.0643 3667 60.5558
69.1814 3300 57.4456
69.2984 3175 56.3471
69.4154 3355 57.9224
69.5323 3803 61.6685
69.6492 4006 63.293
69.7661 4417 66.4605
69.8829 4556 67.4981
69.9997 4624 68
70.1165 4658 68.2495
70.2332 4768 69.0507
70.3499 4702 68.5711
70.4665 4703 68.5784
70.5831 4732 68.7895
70.6996 4513 67.1789
70.8161 4266 65.3146
70.9326 4166 64.5446
71.049 4026 63.4508
71.1653 3866 62.1772
71.2817 3925 62.6498
71.3979 4037 63.5374
71.5141 4237 65.0922
71.6303 4112 64.1249
71.7464 4015 63.364
71.8624 0 1
71.9784 0 1
72.0944 0 1
72.2102 0 1
72.3261 0 1
72.4418 0 1
72.5575 0 1
72.6732 0 1
75.1054 0 1
75.2209 0 1
75.3365 0 1
75.4521 0 1
75.5678 0 1
75.6835 0 1
75.7993 0 1
75.9151 0 1
76.031 0 1
76.147 4162 64.5136
76.263 4287 65.4752
76.3791 4328 65.7875
76.4952 4106 64.0781
76.6113 4185 64.6916
76.7276 4305 65.6125
76.8438 4543 67.4018
76.9601 4679 68.4032
77.0765 4965 70.4628
77.1929 4932 70.2282
77.3093 5118 71.5402
77.4258 5118 71.5402
77.5423 5143 71.7147
77.6589 5030 70.9225
77.7755 4903 70.0214
77.8921 4815 69.3902
78.0088 4392 66.2722
78.1256 4018 63.3877
78.2423 3628 60.2329
78.3591 3575 59.7913
78.4759 3613 60.1082
78.5928 4087 63.9296
78.7097 4435 66.5958
78.8266 5014 70.8096
78.9436 4859 69.7065
79.0606 5067 71.1829
79.1776 4955 70.3918
79.2946 5115 71.5192
79.4117 5090 71.3442
79.5288 5107 71.4633
79.6459 4977 70.5479
79.7631 4775 69.1014
79.8802 4491 67.0149
79.9974 4473 66.8805
80.1147 4300 65.5744
80.2319 4113 64.1327
80.3491 4041 63.5689
80.4664 4426 66.5282
80.5837 4554 67.4833
80.701 4925 70.1783
80.8183 4892 69.9428
80.9357 4928 70.1997
81.053 4837 69.5485
81.1704 4951 70.3633
81.2877 4746 68.8912
81.4051 4890 69.9285
81.5225 4865 69.7496
81.6399 4349 65.9469
81.7573 4046 63.6082
81.8747 3760 61.3188
81.9922 3465 58.8643
82.1096 3523 59.3549
82.227 3831 61.8951
82.3444 4203 64.8305
82.4619 4506 67.1267
82.5793 4535 67.3424
82.6967 5070 71.2039
82.8142 4877 69.8355
82.9316 4765 69.029
83.049 4820 69.4262
83.1664 4703 68.5784
83.2838 4681 68.4178
83.4012 4564 67.5574
83.5186 4240 65.1153
83.636 4167 64.5523
83.7534 3813 61.7495
83.8708 3815 61.7657
83.9881 3770 61.4003
84.1055 3930 62.6897
84.2228 4024 63.435
84.3401 4389 66.2495
84.4575 4614 67.9264
84.5747 4672 68.352
84.692 4749 68.913
84.8093 4871 69.7925
84.9265 4622 67.9853
85.0437 4711 68.6367
85.1609 4508 67.1416
85.2781 4112 64.1249
85.3952 3897 62.426
85.5123 3688 60.7289
85.6294 3479 58.983
85.7465 3880 62.2896
85.8636 4142 64.3584
85.9806 4451 66.7158
86.0976 4752 68.9348
86.2145 5036 70.9648
86.3315 4854 69.6707
86.4484 5365 73.2462
86.5652 5090 71.3442
86.682 5158 71.8192
86.7988 5267 72.5741
86.9156 5228 72.3049
87.0323 4878 69.8427
87.149 4785 69.1737
87.2657 4740 68.8477
87.3823 4407 66.3852
87.4988 4360 66.0303
87.6154 4323 65.7495
87.7318 4699 68.5493
87.8483 5088 71.3302
87.9647 5250 72.4569
88.081 5474 73.9865
88.1973 5641 75.1066
88.3136 5569 74.6257
88.4298 5530 74.364
88.546 5420 73.6206
88.6621 5395 73.4507
88.7781 5068 71.1899
88.8942 0 1
89.0101 0 1
89.126 0 1
89.2419 0 1
89.3577 0 1
89.4734 0 1
89.5891 0 1
89.7047 0 1
89.8203 0 1
89.9358 0 1
92.3269 0 1
92.4424 0 1
92.558 0 1
92.6736 0 1
92.7893 0 1
92.905 0 1
93.0208 0 1
93.1366 0 1
93.2525 0 1
93.3685 0 1
93.4845 0 1
93.6005 5376 73.3212
93.7167 5507 74.2092
93.8328 5574 74.6592
93.949 5324 72.9657
94.0653 5312 72.8835
94.1816 5080 71.2741
94.2979 5020 70.852
94.4143 4719 68.695
94.5307 4361 66.0379
94.6472 4316 65.6963
94.7637 4271 65.3529
94.8803 4498 67.0671
94.9969 4793 69.2315
95.1135 4999 70.7036
95.2302 5204 72.1388
95.3469 5251 72.4638
95.4637 5450 73.8241
95.5805 5762 75.9078
95.6973 5712 75.5778
95.8142 5903 76.831
95.9311 5612 74.9133
96.048 5538 74.4177
96.1649 5610 74.8999
96.2819 5281 72.6705
96.3989 5028 70.9084
96.516 4728 68.7605
96.633 4573 67.624
96.7501 4442 66.6483
96.8673 4663 68.2862
96.9844 4844 69.5989
97.1016 5178 71.9583
97.2188 5601 74.8398
97.336 5720 75.6307
97.4532 5818 76.2758
97.5704 5717 75.6108
97.6877 5889 76.7398
97.805 5657 75.213
97.9223 5470 73.9594
98.0396 5282 72.6774
98.1569 4986 70.6116
98.2743 4464 66.8132
98.3916 4414 66.4379
98.509 4615 67.9338
98.6264 4715 68.6659
98.7438 5080 71.2741
98.8612 5306 72.8423
98.9786 5617 74.9466
99.096 5833 76.3741
99.2134 5988 77.3822
99.3308 5965 77.2334
99.4482 5996 77.4338
99.5656 5987 77.3757
99.6831 5817 76.2693
99.8005 5823 76.3086
99.9179 5617 74.9466
100.035 5379 73.3417
100.153 4914 70.0999
100.27 4708 68.6149
100.388 4711 68.6367
100.505 5066 71.1758
100.622 5414 73.5799
100.74 5739 75.7562
100.857 5934 77.0325
100.975 6078 77.9615
101.092 6100 78.1025
101.209 6062 77.8588
101.327 5985 77.3628
101.444 5957 77.1816
101.561 5843 76.4395
101.679 5417 73.6003
101.796 4962 70.4415
101.913 4747 68.8985
102.03 4782 69.152
102.148 4960 70.4273
102.265 5708 75.5513
102.382 5396 73.4575
102.499 5871 76.6225
102.616 5965 77.2334
102.733 6227 78.9113
102.851 6296 79.3473
102.968 6366 79.7872
103.085 6473 80.455
103.202 6303 79.3914
103.319 6099 78.0961
103.436 6030 77.6531
103.552 5850 76.4853
103.669 5286 72.7049
103.786 4870 69.7854
103.903 5084 71.3022
104.02 5338 73.0616
104.137 5790 76.092
104.253 6352 79.6994
104.37 6347 79.6681
104.487 6554 80.9568
104.603 6716 81.9512
104.72 6422 80.1374
104.836 6733 82.0549
104.953 6473 80.455
105.069 6232 78.943
105.186 5744 75.7892
105.302 5427 73.6682
105.418 5155 71.7983
105.535 5277 72.643
105.651 5682 75.379
105.767 5865 76.5833
105.883 6281 79.2528
105.999 6236 78.9683
106.115 0 1
106.231 0 1
106.347 0 1
106.463 0 1
106.579 0 1
106.694 0 1
106.81 0 1
106.926 0 1
107.041 0 1
107.157 0 1
109.576 0 1
109.692 0 1
109.807 0 1
109.923 0 1
110.039 0 1
110.155 0 1
110.27 0 1
110.386 0 1
110.502 0 1
110.618 5205 72.1457
110.735 5472 73.973
110.851 5660 75.233
110.967 6002 77.4726
111.083 6057 77.8267
111.199 6090 78.0385
111.316 6259 79.1138
111.432 6455 80.343
111.549 6296 79.3473
111.665 6305 79.404
111.782 6054 77.8075
111.898 5840 76.4199
112.015 5639 75.0933
112.132 5079 71.2671
112.248 4732 68.7895
112.365 4593 67.7717
112.482 4882 69.8713
112.599 5174 71.9305
112.716 5808 76.2102
112.832 5804 76.184
112.949 5818 76.2758
113.066 5984 77.3563
113.183 5769 75.9539
113.3 5753 75.8485
113.417 5694 75.4586
113.534 5573 74.6525
113.652 5484 74.054
113.769 5009 70.7743
113.886 4956 70.3989
114.003 4570 67.6018
114.12 4674 68.3667
114.238 4824 69.455
114.355 5213 72.2011
114.472 5228 72.3049
114.589 5201 72.118
114.707 5282 72.6774
114.824 5579 74.6927
114.942 5563 74.5855
115.059 5720 75.6307
115.176 5564 74.5922
115.294 5529 74.3572
115.411 5556 74.5386
115.529 5284 72.6911
115.646 4819 69.419
115.764 4608 67.8823
115.881 4276 65.3911
115.999 4328 65.7875
116.116 4662 68.2788
116.234 5136 71.6659
116.351 5437 73.736
116.469 5572 74.6458
116.586 5544 74.458
116.704 5568 74.619
116.821 5636 75.0733
116.939 5746 75.8024
117.056 5669 75.2928
117.174 5466 73.9324
117.291 5348 73.13
117.409 5040 70.993
117.526 4858 69.6994
117.644 4724 68.7314
117.761 4861 69.7209
117.879 4936 70.2567
117.996 5042 71.007
118.114 5269 72.5879
118.231 5474 73.9865
118.349 5592 74.7797
118.466 5644 75.1266
118.584 5732 75.71
118.701 5996 77.4338
118.819 5706 75.5381
118.936 5669 75.2928
119.053 5583 74.7195
119.171 5224 72.2772
119.288 4925 70.1783
119.405 4534 67.335
119.523 4157 64.4748
119.64 4327 65.7799
119.757 4663 68.2862
119.875 5031 70.9295
119.992 5403 73.5051
120.109 5502 74.1755
120.226 5655 75.1997
120.343 5623 74.9867
120.46 5632 75.0467
120.578 5494 74.1215
120.695 5597 74.8131
120.812 5455 73.858
120.929 5454 73.8512
121.046 5119 71.5472
121.163 5016 70.8237
121.279 4772 69.0797
121.396 4565 67.5648
121.513 4819 69.419
121.63 4984 70.5975
121.747 5150 71.7635
121.863 5251 72.4638
121.98 5333 73.0274
122.097 5364 73.2393
122.213 5503 74.1822
122.33 5661 75.2396
122.446 5632 75.0467
122.563 5692 75.4453
122.679 5636 75.0733
122.795 5538 74.4177
122.912 5248 72.4431
123.028 4783 69.1592
123.144 4388 66.242
123.26 4154 64.4515
123.377 0 1
123.493 0 1
123.609 0 1
123.725 0 1
123.84 0 1
123.956 0 1
124.072 0 1
124.188 0 1
124.303 0 1
124.419 0 1
126.852 0 1
126.968 0 1
127.083 0 1
127.199 0 1
127.315 0 1
127.431 0 1
127.547 0 1
127.663 0 1
127.779 0 1
127.895 0 1
128.011 0 1
128.127 0 1
128.243 0 1
128.359 4812 69.3686
128.476 4501 67.0895
128.592 4671 68.3447
128.708 5113 71.5052
128.825 5596 74.8064
128.941 6266 79.1581
129.058 6107 78.1473
129.174 6225 78.8987
129.291 6163 78.5048
129.408 6229 78.924
129.524 6071 77.9166
129.641 6193 78.6956
129.758 5972 77.2787
129.875 5939 77.0649
129.992 5699 75.4917
130.108 5615 74.9333
130.225 5491 74.1013
130.342 5281 72.6705
130.459 5146 71.7356
130.576 5598 74.8198
130.693 5721 75.6373
130.81 5893 76.7659
130.928 5863 76.5702
131.045 5854 76.5114
131.162 6054 77.8075
131.279 6080 77.9744
131.396 6049 77.7753
131.513 5939 77.0649
131.631 5987 77.3757
131.748 5711 75.5712
131.865 5107 71.4633
131.983 4499 67.0746
132.1 4468 66.8431
132.217 4801 69.2892
132.335 5363 73.2325
132.452 5650 75.1665
132.57 6039 77.711
132.687 5877 76.6616
132.804 6117 78.2113
132.922 6012 77.5371
133.039 6050 77.7817
133.157 5947 77.1168
133.274 5942 77.0844
133.392 5685 75.3989
133.509 5770 75.9605
133.627 5585 74.7329
133.744 5447 73.8038
133.862 5305 72.8354
133.979 5253 72.4776
134.097 5279 72.6567
134.214 5644 75.1266
134.332 5548 74.4849
134.449 5786 76.0658
134.567 5764 75.921
134.684 5851 76.4918
134.802 5883 76.7007
134.919 5968 77.2528
135.037 6010 77.5242
135.154 5809 76.2168
135.272 5716 75.6042
135.389 5312 72.8835
135.507 4669 68.3301
135.624 4409 66.4003
135.742 4566 67.5722
135.859 4912 70.0857
135.977 5120 71.5542
136.094 5775 75.9934
136.211 5858 76.5376
136.329 5962 77.214
136.446 6117 78.2113
136.564 5864 76.5768
136.681 5965 77.2334
136.798 5805 76.1906
136.915 5922 76.9545
137.033 5849 76.4788
137.15 5743 75.7826
137.267 5578 74.686
137.384 5500 74.162
137.502 5250 72.4569
137.619 5142 71.7077
137.736 5397 73.4643
137.853 5121 71.5612
137.97 5362 73.2257
138.087 5695 75.4652
138.204 5720 75.6307
138.321 5714 75.591
138.438 5677 75.3459
138.555 5904 76.8375
138.672 5971 77.2722
138.788 5829 76.3479
138.905 5573 74.6525
139.022 5259 72.519
139.139 4866 69.7567
139.255 4379 66.174
139.372 4643 68.1396
139.488 4941 70.2922
139.605 5354 73.171
139.721 5718 75.6175
139.838 5894 76.7724
139.954 5955 77.1686
140.071 5828 76.3413
140.187 5978 77.3175
140.303 5819 76.2824
140.419 5802 76.1709
140.535 5811 76.2299
140.652 5710 75.5645
140.768 0 1
140.884 0 1
141 0 1
141.115 0 1
141.231 0 1
141.347 0 1
141.463 0 1
141.578 0 1
141.694 0 1
144.104 0 1
144.219 0 1
144.335 0 1
144.45 0 1
144.566 0 1
144.682 0 1
144.798 0 1
144.914 0 1
145.03 0 1
145.146 5037 70.9718
145.262 4998 70.6965
145.378 5082 71.2881
145.494 5041 71
145.61 5051 71.0704
145.726 4924 70.1712
145.842 4984 70.5975
145.959 4893 69.95
146.075 4749 68.913
146.192 4773 69.0869
146.308 4479 66.9253
146.425 4521 67.2384
146.541 4681 68.4178
146.658 4624 68
146.774 4834 69.527
146.891 4905 70.0357
147.008 4877 69.8355
147.125 4867 69.7639
147.241 4920 70.1427
147.358 4758 68.9783
147.475 4655 68.2276
147.592 4400 66.3325
147.709 4105 64.0703
147.826 3743 61.1801
147.943 3703 60.8523
148.06 3917 62.5859
148.177 4270 65.3452
148.294 4598 67.8086
148.411 4656 68.2349
148.528 4847 69.6204
148.645 4646 68.1616
148.762 4804 69.3109
148.88 4729 68.7677
148.997 4545 67.4166
149.114 4893 69.95
149.231 4693 68.5055
149.349 4780 69.1375
149.466 4487 66.9851
149.583 4486 66.9776
149.701 4476 66.9029
149.818 4412 66.4229
149.935 4326 65.7723
150.053 4287 65.4752
150.17 4433 66.5808
150.287 4211 64.8922
150.405 4411 66.4154
150.522 4585 67.7126
150.64 4487 66.9851
150.757 4643 68.1396
150.875 4621 67.9779
150.992 4588 67.7348
151.11 4418 66.468
151.227 4098 64.0156
151.344 3879 62.2816
151.462 3619 60.1581
151.579 3661 60.5062
151.697 3798 61.6279
151.814 3996 63.2139
151.932 4445 66.6708
152.049 4670 68.3374
152.167 4674 68.3667
152.284 4804 69.3109
152.402 4604 67.8528
152.519 4537 67.3573
152.636 4647 68.1689
152.754 4711 68.6367
152.871 4693 68.5055
152.989 4644 68.1469
153.106 4511 67.164
153.223 4566 67.5722
153.341 4430 66.5582
153.458 4452 66.7233
153.575 4303 65.5973
153.693 4350 65.9545
153.81 4219 64.9538
153.927 4360 66.0303
154.044 4411 66.4154
154.162 4432 66.5733
154.279 4615 67.9338
154.396 4503 67.1044
154.513 4715 68.6659
154.63 4565 67.5648
154.747 4457 66.7608
154.864 4215 64.923
154.981 3992 63.1823
155.098 3794 61.5955
155.215 3757 61.2944
155.332 3872 62.2254
155.449 4377 66.1589
155.566 4539 67.3721
155.683 4663 68.2862
155.8 4694 68.5128
155.917 4682 68.4251
156.033 4711 68.6367
156.15 0 1
156.267 0 1
156.383 0 1
156.5 0 1
156.617 0 1
156.733 0 1
156.85 0 1
156.966 0 1
157.082 0 1
157.199 0 1
157.315 0 1
157.431 0 1
157.547 0 1
157.664 0 1
157.78 0 1
157.896 0 1
158.012 0 1
158.128 0 1
158.244 0 1
158.359 0 1
158.475 0 1
158.591 0 1
158.706 0 1
