
6.15755 0 1
6.2731 0 1
6.3887 0 1
6.50437 0 1
6.62009 0 1
6.73587 0 1
6.8517 0 1
6.96759 0 1
7.08353 0 1
7.19952 0 1
7.31557 0 1
7.43166 0 1
7.54781 0 1
7.664 0 1
7.78024 0 1
7.89653 0 1
8.01286 0 1
8.12924 0 1
8.24567 0 1
8.36213 0 1
8.47864 0 1
8.59519 0 1
8.71178 0 1
8.82841 0 1
8.94508 0 1
9.06179 0 1
9.17853 0 1
9.29531 0 1
9.41212 0 1
9.52897 0 1
9.64584 0 1
9.76276 0 1
9.8797 0 1
9.99667 0 1
10.1137 0 1
10.2307 0 1
10.3478 0 1
10.4648 0 1
10.5819 0 1
10.6991 0 1
10.8162 0 1
10.9334 0 1
11.0506 0 1
11.1678 0 1
11.285 0 1
11.4023 0 1
11.5196 0 1
11.6369 0 1
11.7542 0 1
11.8715 0 1
11.9888 0 1
12.1062 0 1
12.2235 0 1
12.3409 0 1
12.4582 0 1
12.5756 0 1
12.693 0 1
12.8104 0 1
12.9278 0 1
13.0452 0 1
13.1626 0 1
13.28 0 1
13.3974 0 1
13.5149 0 1
13.6323 0 1
13.7497 0 1
13.8671 0 1
13.9845 0 1
14.1019 0 1
14.2193 0 1
14.3367 0 1
14.4541 0 1
14.5714 0 1
14.6888 0 1
14.8062 0 1
14.9235 0 1
15.0408 969 31.1288
15.1581 1006 31.7175
15.2755 990 31.4643
15.3927 1073 32.7567
15.51 1075 32.7872
15.6273 980 31.305
15.7445 1033 32.1403
15.8617 1045 32.3265
15.9789 961 31
16.0961 881 29.6816
16.2132 930 30.4959
16.3304 895 29.9166
16.4475 938 30.6268
16.5646 893 29.8831
16.6816 911 30.1828
16.7986 934 30.5614
16.9156 920 30.3315
17.0326 835 28.8964
17.1496 872 29.5296
17.2665 874 29.5635
17.3833 835 28.8964
17.5002 833 28.8617
17.617 914 30.2324
17.7338 905 30.0832
17.8505 943 30.7083
17.9672 867 29.4449
18.0839 896 29.9333
18.2005 920 30.3315
18.3171 893 29.8831
18.4337 949 30.8058
18.5502 865 29.4109
18.6666 912 30.1993
18.7831 900 30
18.8994 833 28.8617
19.0158 820 28.6356
19.1321 808 28.4253
19.2483 732 27.0555
19.3645 774 27.8209
19.4806 767 27.6948
19.5967 727 26.9629
19.7128 705 26.5518
19.8288 651 25.5147
19.9447 597 24.4336
20.0606 0 1
20.1764 0 1
20.2922 0 1
20.4079 0 1
20.5236 0 1
20.6392 0 1
20.7548 0 1
20.8702 0 1
23.3078 0 1
23.4233 0 1
23.539 0 1
23.6547 0 1
23.7704 0 1
23.8862 0 1
24.0021 0 1
24.118 0 1
24.234 0 1
24.35 0 1
24.4661 387 19.6723
24.5822 411 20.2731
24.6984 515 22.6936
24.8146 578 24.0416
24.9309 600 24.4949
25.0472 688 26.2298
25.1636 711 26.6646
25.28 861 29.3428
25.3965 846 29.0861
25.513 911 30.1828
25.6296 939 30.6431
25.7462 977 31.257
25.8628 971 31.1609
25.9795 926 30.4302
26.0962 888 29.7993
26.213 898 29.9666
26.3298 874 29.5635
26.4466 875 29.5804
26.5635 796 28.2135
26.6804 827 28.7576
26.7973 794 28.178
26.9143 788 28.0713
27.0313 776 27.8568
27.1483 787 28.0535
27.2653 829 28.7924
27.3824 827 28.7576
27.4996 804 28.3549
27.6167 795 28.1957
27.7339 823 28.688
27.8511 823 28.688
27.9683 756 27.4955
28.0855 790 28.1069
28.2028 778 27.8927
28.3201 825 28.7228
28.4374 841 29
28.5547 841 29
28.6721 823 28.688
28.7894 821 28.6531
28.9068 805 28.3725
29.0242 837 28.931
29.1416 848 29.1204
29.259 803 28.3373
29.3764 810 28.4605
29.4939 857 29.2746
29.6113 788 28.0713
29.7288 819 28.6182
29.8463 786 28.0357
29.9638 789 28.0891
30.0812 759 27.55
30.1987 794 28.178
30.3162 772 27.7849
30.4337 759 27.55
30.5512 780 27.9285
30.6687 772 27.7849
30.7862 814 28.5307
30.9037 857 29.2746
31.0212 791 28.1247
31.1387 859 29.3087
31.2562 776 27.8568
31.3737 826 28.7402
31.4912 745 27.2947
31.6087 817 28.5832
31.7262 854 29.2233
31.8436 793 28.1603
31.9611 751 27.4044
32.0785 754 27.4591
32.1959 773 27.8029
32.3134 739 27.1846
32.4308 697 26.4008
32.5482 747 27.3313
32.6655 760 27.5681
32.7829 706 26.5707
32.9002 733 27.074
33.0176 708 26.6083
33.1349 697 26.4008
33.2522 703 26.5141
33.3694 712 26.6833
33.4867 727 26.9629
33.6039 698 26.4197
33.7211 778 27.8927
33.8383 729 27
33.9554 736 27.1293
34.0725 685 26.1725
34.1896 685 26.1725
34.3067 715 26.7395
34.4237 695 26.3629
34.5407 742 27.2397
34.6577 807 28.4077
34.7746 777 27.8747
34.8915 688 26.2298
35.0084 640 25.2982
35.1252 733 27.074
35.242 660 25.6905
35.3587 736 27.1293
35.4755 724 26.9072
35.5921 712 26.6833
35.7088 637 25.2389
35.8254 669 25.865
35.9419 663 25.7488
36.0584 676 26
36.1749 687 26.2107
36.2913 648 25.4558
36.4077 662 25.7294
36.524 663 25.7488
36.6403 620 24.8998
36.7565 592 24.3311
36.8727 577 24.0208
36.9889 475 21.7945
37.1049 434 20.8327
37.221 0 1
37.3369 0 1
37.4529 0 1
37.5687 0 1
37.6845 0 1
37.8003 0 1
37.916 0 1
38.0316 0 1
38.1472 0 1
40.5851 0 1
40.7008 0 1
40.8164 0 1
40.9322 0 1
41.048 0 1
41.1639 0 1
41.2798 0 1
41.3958 0 1
41.5118 0 1
41.6279 0 1
41.744 304 17.4356
41.8602 324 18
41.9765 376 19.3907
42.0928 441 21
42.2091 467 21.6102
42.3255 583 24.1454
42.4419 601 24.5153
42.5584 577 24.0208
42.675 590 24.2899
42.7915 561 23.6854
42.9081 556 23.5797
43.0248 567 23.8118
43.1415 557 23.6008
43.2582 513 22.6495
43.375 575 23.9792
43.4918 575 23.9792
43.6087 555 23.5584
43.7256 566 23.7908
43.8425 555 23.5584
43.9595 532 23.0651
44.0765 568 23.8328
44.1935 557 23.6008
44.3106 534 23.1084
44.4277 515 22.6936
44.5448 549 23.4307
44.6619 492 22.1811
44.7791 489 22.1133
44.8963 522 22.8473
45.0136 562 23.7065
45.1308 590 24.2899
45.2481 594 24.3721
45.3654 580 24.0832
45.4827 620 24.8998
45.6001 613 24.7588
45.7174 603 24.5561
45.8348 613 24.7588
45.9522 646 25.4165
46.0697 581 24.1039
46.1871 575 23.9792
46.3046 530 23.0217
46.422 550 23.4521
46.5395 542 23.2809
46.657 512 22.6274
46.7745 514 22.6716
46.892 514 22.6716
47.0096 579 24.0624
47.1271 569 23.8537
47.2446 558 23.622
47.3622 575 23.9792
47.4797 547 23.388
47.5973 538 23.1948
47.7149 557 23.6008
47.8324 561 23.6854
47.95 511 22.6053
48.0675 450 21.2132
48.1851 480 21.9089
48.3027 487 22.0681
48.4202 534 23.1084
48.5378 512 22.6274
48.6554 537 23.1733
48.7729 568 23.8328
48.8904 533 23.0868
49.008 554 23.5372
49.1255 620 24.8998
49.243 622 24.9399
49.3605 581 24.1039
49.478 572 23.9165
49.5955 643 25.3574
49.713 571 23.8956
49.8304 551 23.4734
49.9479 543 23.3024
50.0653 500 22.3607
50.1827 461 21.4709
50.3001 443 21.0476
50.4175 515 22.6936
50.5348 507 22.5167
50.6521 505 22.4722
50.7694 507 22.5167
50.8867 525 22.9129
51.004 477 21.8403
51.1212 526 22.9347
51.2384 560 23.6643
51.3556 489 22.1133
51.4727 541 23.2594
51.5899 468 21.6333
51.707 482 21.9545
51.824 523 22.8692
51.9411 499 22.3383
52.0581 491 22.1585
52.175 528 22.9783
52.2919 521 22.8254
52.4088 533 23.0868
52.5257 521 22.8254
52.6425 542 23.2809
52.7593 572 23.9165
52.876 551 23.4734
52.9927 545 23.3452
53.1094 555 23.5584
53.226 531 23.0434
53.3426 556 23.5797
53.4591 531 23.0434
53.5756 541 23.2594
53.692 466 21.587
53.8084 391 19.7737
53.9248 395 19.8746
54.0411 389 19.7231
54.1573 345 18.5742
54.2735 0 1
54.3896 0 1
54.5057 0 1
54.6217 0 1
54.7377 0 1
54.8537 0 1
54.9695 0 1
55.0853 0 1
55.2011 0 1
55.3168 0 1
55.4324 0 1
57.824 0 1
57.9396 0 1
58.0553 0 1
58.1711 0 1
58.2869 0 1
58.4028 0 1
58.5187 0 1
58.6347 0 1
58.7508 0 1
58.8669 0 1
58.983 392 19.799
59.0992 448 21.166
59.2155 555 23.5584
59.3318 620 24.8998
59.4482 633 25.1595
59.5646 654 25.5734
59.681 722 26.8701
59.7975 752 27.4226
59.9141 825 28.7228
60.0306 773 27.8029
60.1473 795 28.1957
60.2639 831 28.8271
60.3807 798 28.2489
60.4974 733 27.074
60.6142 782 27.9643
60.731 765 27.6586
60.8479 794 28.178
60.9648 799 28.2666
61.0818 816 28.5657
61.1987 760 27.5681
61.3158 777 27.8747
61.4328 781 27.9464
61.5499 828 28.775
61.667 836 28.9137
61.7841 805 28.3725
61.9013 842 29.0172
62.0185 816 28.5657
62.1357 788 28.0713
62.253 706 26.5707
62.3702 700 26.4575
62.4875 674 25.9615
62.6049 685 26.1725
62.7222 761 27.5862
62.8396 784 28
62.9569 717 26.7769
63.0743 769 27.7308
63.1918 799 28.2666
63.3092 751 27.4044
63.4267 726 26.9444
63.5441 683 26.1343
63.6616 636 25.219
63.7791 637 25.2389
63.8966 611 24.7184
64.0142 666 25.807
64.1317 609 24.6779
64.2492 655 25.593
64.3668 656 25.6125
64.4843 631 25.1197
64.6019 615 24.7992
64.7195 668 25.8457
64.837 676 26
64.9546 695 26.3629
65.0722 649 25.4755
65.1898 667 25.8263
65.3074 671 25.9037
65.4249 641 25.318
65.5425 668 25.8457
65.6601 722 26.8701
65.7777 619 24.8797
65.8952 597 24.4336
66.0128 597 24.4336
66.1304 576 24
66.2479 620 24.8998
66.3655 604 24.5764
66.483 624 24.98
66.6005 681 26.096
66.718 600 24.4949
66.8355 651 25.5147
66.953 646 25.4165
67.0705 654 25.5734
67.1879 662 25.7294
67.3054 647 25.4362
67.4228 578 24.0416
67.5402 591 24.3105
67.6576 601 24.5153
67.7749 596 24.4131
67.8923 612 24.7386
68.0096 631 25.1197
68.1269 611 24.7184
68.2442 619 24.8797
68.3614 663 25.7488
68.4787 651 25.5147
68.5958 656 25.6125
68.713 627 25.04
68.8302 721 26.8514
68.9473 697 26.4008
69.0643 630 25.0998
69.1814 660 25.6905
69.2984 648 25.4558
69.4154 645 25.3969
69.5323 637 25.2389
69.6492 583 24.1454
69.7661 584 24.1661
69.8829 639 25.2784
69.9997 607 24.6374
70.1165 634 25.1794
70.2332 622 24.9399
70.3499 625 25
70.4665 564 23.7487
70.5831 546 23.3666
70.6996 516 22.7156
70.8161 486 22.0454
70.9326 457 21.3776
71.049 411 20.2731
71.1653 371 19.2614
71.2817 313 17.6918
71.3979 288 16.9706
71.5141 327 18.0831
71.6303 267 16.3401
71.7464 222 14.8997
71.8624 0 1
71.9784 0 1
72.0944 0 1
72.2102 0 1
72.3261 0 1
72.4418 0 1
72.5575 0 1
72.6732 0 1
75.1054 0 1
75.2209 0 1
75.3365 0 1
75.4521 0 1
75.5678 0 1
75.6835 0 1
75.7993 0 1
75.9151 0 1
76.031 0 1
76.147 386 19.6469
76.263 474 21.7715
76.3791 499 22.3383
76.4952 454 21.3073
76.6113 437 20.9045
76.7276 445 21.095
76.8438 480 21.9089
76.9601 504 22.4499
77.0765 488 22.0907
77.1929 550 23.4521
77.3093 565 23.7697
77.4258 553 23.516
77.5423 610 24.6982
77.6589 553 23.516
77.7755 556 23.5797
77.8921 598 24.454
78.0088 625 25
78.1256 569 23.8537
78.2423 584 24.1661
78.3591 537 23.1733
78.4759 525 22.9129
78.5928 511 22.6053
78.7097 474 21.7715
78.8266 520 22.8035
78.9436 534 23.1084
79.0606 528 22.9783
79.1776 523 22.8692
79.2946 586 24.2074
79.4117 585 24.1868
79.5288 582 24.1247
79.6459 579 24.0624
79.7631 597 24.4336
79.8802 573 23.9374
79.9974 571 23.8956
80.1147 567 23.8118
80.2319 504 22.4499
80.3491 528 22.9783
80.4664 509 22.561
80.5837 550 23.4521
80.701 541 23.2594
80.8183 534 23.1084
80.9357 538 23.1948
81.053 554 23.5372
81.1704 587 24.2281
81.2877 574 23.9583
81.4051 582 24.1247
81.5225 591 24.3105
81.6399 638 25.2587
81.7573 590 24.2899
81.8747 594 24.3721
81.9922 604 24.5764
82.1096 556 23.5797
82.227 498 22.3159
82.3444 458 21.4009
82.4619 537 23.1733
82.5793 545 23.3452
82.6967 578 24.0416
82.8142 592 24.3311
82.9316 571 23.8956
83.049 596 24.4131
83.1664 611 24.7184
83.2838 584 24.1661
83.4012 590 24.2899
83.5186 600 24.4949
83.636 596 24.4131
83.7534 516 22.7156
83.8708 492 22.1811
83.9881 529 23
84.1055 533 23.0868
84.2228 574 23.9583
84.3401 538 23.1948
84.4575 584 24.1661
84.5747 559 23.6432
84.692 552 23.4947
84.8093 578 24.0416
84.9265 595 24.3926
85.0437 620 24.8998
85.1609 615 24.7992
85.2781 627 25.04
85.3952 644 25.3772
85.5123 574 23.9583
85.6294 604 24.5764
85.7465 516 22.7156
85.8636 494 22.2261
85.9806 497 22.2935
86.0976 538 23.1948
86.2145 541 23.2594
86.3315 590 24.2899
86.4484 584 24.1661
86.5652 614 24.779
86.682 640 25.2982
86.7988 612 24.7386
86.9156 655 25.593
87.0323 552 23.4947
87.149 597 24.4336
87.2657 586 24.2074
87.3823 516 22.7156
87.4988 552 23.4947
87.6154 516 22.7156
87.7318 499 22.3383
87.8483 530 23.0217
87.9647 443 21.0476
88.081 458 21.4009
88.1973 423 20.567
88.3136 420 20.4939
88.4298 419 20.4695
88.546 398 19.9499
88.6621 382 19.5448
88.7781 322 17.9444
88.8942 0 1
89.0101 0 1
89.126 0 1
89.2419 0 1
89.3577 0 1
89.4734 0 1
89.5891 0 1
89.7047 0 1
89.8203 0 1
89.9358 0 1
92.3269 0 1
92.4424 0 1
92.558 0 1
92.6736 0 1
92.7893 0 1
92.905 0 1
93.0208 0 1
93.1366 0 1
93.2525 0 1
93.3685 0 1
93.4845 0 1
93.6005 481 21.9317
93.7167 484 22
93.8328 481 21.9317
93.949 516 22.7156
94.0653 500 22.3607
94.1816 607 24.6374
94.2979 651 25.5147
94.4143 616 24.8193
94.5307 625 25
94.6472 625 25
94.7637 615 24.7992
94.8803 585 24.1868
94.9969 587 24.2281
95.1135 564 23.7487
95.2302 551 23.4734
95.3469 521 22.8254
95.4637 575 23.9792
95.5805 615 24.7992
95.6973 628 25.0599
95.8142 624 24.98
95.9311 614 24.779
96.048 598 24.454
96.1649 599 24.4745
96.2819 624 24.98
96.3989 545 23.3452
96.516 545 23.3452
96.633 553 23.516
96.7501 564 23.7487
96.8673 580 24.0832
96.9844 613 24.7588
97.1016 607 24.6374
97.2188 585 24.1868
97.336 619 24.8797
97.4532 583 24.1454
97.5704 627 25.04
97.6877 631 25.1197
97.805 662 25.7294
97.9223 664 25.7682
98.0396 691 26.2869
98.1569 699 26.4386
98.2743 664 25.7682
98.3916 596 24.4131
98.509 630 25.0998
98.6264 628 25.0599
98.7438 668 25.8457
98.8612 630 25.0998
98.9786 703 26.5141
99.096 692 26.3059
99.2134 745 27.2947
99.3308 716 26.7582
99.4482 740 27.2029
99.5656 830 28.8097
99.6831 788 28.0713
99.8005 750 27.3861
99.9179 691 26.2869
100.035 687 26.2107
100.153 657 25.632
100.27 701 26.4764
100.388 749 27.3679
100.505 681 26.096
100.622 719 26.8142
100.74 771 27.7669
100.857 702 26.4953
100.975 707 26.5895
101.092 700 26.4575
101.209 669 25.865
101.327 712 26.6833
101.444 706 26.5707
101.561 691 26.2869
101.679 669 25.865
101.796 669 25.865
101.913 669 25.865
102.03 662 25.7294
102.148 648 25.4558
102.265 634 25.1794
102.382 669 25.865
102.499 663 25.7488
102.616 691 26.2869
102.733 726 26.9444
102.851 802 28.3196
102.968 753 27.4408
103.085 762 27.6043
103.202 760 27.5681
103.319 730 27.0185
103.436 698 26.4197
103.552 664 25.7682
103.669 703 26.5141
103.786 685 26.1725
103.903 730 27.0185
104.02 671 25.9037
104.137 694 26.3439
104.253 697 26.4008
104.37 684 26.1534
104.487 711 26.6646
104.603 672 25.923
104.72 726 26.9444
104.836 791 28.1247
104.953 728 26.9815
105.069 687 26.2107
105.186 594 24.3721
105.302 609 24.6779
105.418 576 24
105.535 522 22.8473
105.651 456 21.3542
105.767 473 21.7486
105.883 404 20.0998
105.999 379 19.4679
106.115 0 1
106.231 0 1
106.347 0 1
106.463 0 1
106.579 0 1
106.694 0 1
106.81 0 1
106.926 0 1
107.041 0 1
107.157 0 1
109.576 0 1
109.692 0 1
109.807 0 1
109.923 0 1
110.039 0 1
110.155 0 1
110.27 0 1
110.386 0 1
110.502 0 1
110.618 313 17.6918
110.735 371 19.2614
110.851 420 20.4939
110.967 466 21.587
111.083 533 23.0868
111.199 585 24.1868
111.316 650 25.4951
111.432 625 25
111.549 632 25.1396
111.665 700 26.4575
111.782 655 25.593
111.898 688 26.2298
112.015 593 24.3516
112.132 579 24.0624
112.248 612 24.7386
112.365 612 24.7386
112.482 600 24.4949
112.599 624 24.98
112.716 624 24.98
112.832 678 26.0384
112.949 596 24.4131
113.066 594 24.3721
113.183 643 25.3574
113.3 546 23.3666
113.417 645 25.3969
113.534 593 24.3516
113.652 597 24.4336
113.769 655 25.593
113.886 650 25.4951
114.003 580 24.0832
114.12 568 23.8328
114.238 545 23.3452
114.355 545 23.3452
114.472 539 23.2164
114.589 556 23.5797
114.707 618 24.8596
114.824 573 23.9374
114.942 569 23.8537
115.059 615 24.7992
115.176 555 23.5584
115.294 579 24.0624
115.411 576 24
115.529 575 23.9792
115.646 557 23.6008
115.764 536 23.1517
115.881 498 22.3159
115.999 577 24.0208
116.116 589 24.2693
116.234 583 24.1454
116.351 594 24.3721
116.469 536 23.1517
116.586 508 22.5389
116.704 576 24
116.821 560 23.6643
116.939 545 23.3452
117.056 573 23.9374
117.174 533 23.0868
117.291 566 23.7908
117.409 562 23.7065
117.526 556 23.5797
117.644 490 22.1359
117.761 514 22.6716
117.879 481 21.9317
117.996 478 21.8632
118.114 518 22.7596
118.231 539 23.2164
118.349 537 23.1733
118.466 568 23.8328
118.584 578 24.0416
118.701 555 23.5584
118.819 498 22.3159
118.936 563 23.7276
119.053 555 23.5584
119.171 464 21.5407
119.288 477 21.8403
119.405 527 22.9565
119.523 505 22.4722
119.64 491 22.1585
119.757 541 23.2594
119.875 532 23.0651
119.992 507 22.5167
120.109 542 23.2809
120.226 539 23.2164
120.343 514 22.6716
120.46 503 22.4277
120.578 528 22.9783
120.695 498 22.3159
120.812 501 22.383
120.929 507 22.5167
121.046 517 22.7376
121.163 450 21.2132
121.279 483 21.9773
121.396 444 21.0713
121.513 457 21.3776
121.63 472 21.7256
121.747 423 20.567
121.863 458 21.4009
121.98 494 22.2261
122.097 456 21.3542
122.213 464 21.5407
122.33 468 21.6333
122.446 430 20.7364
122.563 391 19.7737
122.679 372 19.2873
122.795 316 17.7764
122.912 275 16.5831
123.028 279 16.7033
123.144 313 17.6918
123.26 259 16.0935
123.377 0 1
123.493 0 1
123.609 0 1
123.725 0 1
123.84 0 1
123.956 0 1
124.072 0 1
124.188 0 1
124.303 0 1
124.419 0 1
126.852 0 1
126.968 0 1
127.083 0 1
127.199 0 1
127.315 0 1
127.431 0 1
127.547 0 1
127.663 0 1
127.779 0 1
127.895 0 1
128.011 0 1
128.127 0 1
128.243 0 1
128.359 537 23.1733
128.476 542 23.2809
128.592 576 24
128.708 575 23.9792
128.825 631 25.1197
128.941 640 25.2982
129.058 575 23.9792
129.174 630 25.0998
129.291 590 24.2899
129.408 571 23.8956
129.524 600 24.4949
129.641 541 23.2594
129.758 582 24.1247
129.875 597 24.4336
129.992 587 24.2281
130.108 565 23.7697
130.225 611 24.7184
130.342 613 24.7588
130.459 553 23.516
130.576 554 23.5372
130.693 606 24.6171
130.81 579 24.0624
130.928 631 25.1197
131.045 663 25.7488
131.162 765 27.6586
131.279 745 27.2947
131.396 788 28.0713
131.513 800 28.2843
131.631 816 28.5657
131.748 708 26.6083
131.865 850 29.1548
131.983 885 29.7489
132.1 980 31.305
132.217 984 31.3688
132.335 1021 31.9531
132.452 1100 33.1662
132.57 1135 33.6898
132.687 1190 34.4964
132.804 1289 35.9026
132.922 1237 35.171
133.039 1209 34.7707
133.157 1311 36.2077
133.274 1286 35.8608
133.392 1379 37.1349
133.509 1423 37.7227
133.627 1383 37.1887
133.744 1273 35.6791
133.862 1287 35.8748
133.979 1233 35.1141
134.097 1221 34.9428
134.214 1416 37.6298
134.332 1498 38.704
134.449 1568 39.598
134.567 1662 40.7676
134.684 1668 40.8412
134.802 1676 40.939
134.919 1678 40.9634
135.037 1725 41.5331
135.154 1648 40.5956
135.272 1478 38.4448
135.389 1435 37.8814
135.507 1532 39.1408
135.624 1639 40.4846
135.742 1633 40.4104
135.859 1671 40.8779
135.977 1725 41.5331
136.094 1726 41.5452
136.211 1701 41.2432
136.329 1705 41.2916
136.446 1606 40.0749
136.564 1662 40.7676
136.681 1559 39.4842
136.798 1577 39.7115
136.915 1614 40.1746
137.033 1619 40.2368
137.15 1526 39.064
137.267 1285 35.8469
137.384 1292 35.9444
137.502 1158 34.0294
137.619 1035 32.1714
137.736 1153 33.9559
137.853 1125 33.541
137.97 1196 34.5832
138.087 1184 34.4093
138.204 1277 35.7351
138.321 1264 35.5528
138.438 1306 36.1386
138.555 1272 35.6651
138.672 1368 36.9865
138.788 1256 35.4401
138.905 1082 32.8938
139.022 1015 31.8591
139.139 1067 32.665
139.255 1030 32.0936
139.372 1085 32.9393
139.488 1045 32.3265
139.605 1018 31.9061
139.721 951 30.8383
139.838 856 29.2575
139.954 792 28.1425
140.071 762 27.6043
140.187 718 26.7955
140.303 660 25.6905
140.419 671 25.9037
140.535 681 26.096
140.652 664 25.7682
140.768 0 1
140.884 0 1
141 0 1
141.115 0 1
141.231 0 1
141.347 0 1
141.463 0 1
141.578 0 1
141.694 0 1
144.104 0 1
144.219 0 1
144.335 0 1
144.45 0 1
144.566 0 1
144.682 0 1
144.798 0 1
144.914 0 1
145.03 0 1
145.146 1353 36.7831
145.262 1462 38.2361
145.378 1453 38.1182
145.494 1474 38.3927
145.61 1480 38.4708
145.726 1525 39.0512
145.842 1663 40.7799
145.959 1571 39.6358
146.075 1622 40.2741
146.192 1616 40.1995
146.308 1642 40.5216
146.425 1548 39.3446
146.541 1581 39.7618
146.658 1579 39.7366
146.774 1628 40.3485
146.891 1638 40.4722
147.008 1754 41.8808
147.125 1747 41.7971
147.241 1722 41.497
147.358 1888 43.4511
147.475 1812 42.5676
147.592 1678 40.9634
147.709 1701 41.2432
147.826 1513 38.8973
147.943 1618 40.2244
148.06 1587 39.8372
148.177 1847 42.9767
148.294 1894 43.5201
148.411 1951 44.1701
148.528 2055 45.3321
148.645 2060 45.3872
148.762 2040 45.1664
148.88 2179 46.6798
148.997 2300 47.9583
149.114 2297 47.927
149.231 2518 50.1797
149.349 2708 52.0384
149.466 2877 53.6377
149.583 3138 56.0179
149.701 3222 56.7627
149.818 3268 57.1664
149.935 3517 59.3043
150.053 3664 60.531
150.17 3927 62.6658
150.287 4263 65.2917
150.405 4373 66.1287
150.522 4599 67.8159
150.64 4774 69.0941
150.757 5127 71.6031
150.875 5295 72.7668
150.992 5437 73.736
151.11 5487 74.0743
151.227 4580 67.6757
151.344 3633 60.2744
151.462 4057 63.6946
151.579 5281 72.6705
151.697 6103 78.1217
151.814 6634 81.4494
151.932 6852 82.7768
152.049 6856 82.801
152.167 7127 84.4216
152.284 7357 85.773
152.402 7376 85.8836
152.519 7164 84.6404
152.636 7331 85.6213
152.754 7366 85.8254
152.871 7545 86.862
152.989 7583 87.0804
153.106 7705 87.7781
153.223 7642 87.4185
153.341 7368 85.8371
153.458 7510 86.6603
153.575 7252 85.1587
153.693 7062 84.0357
153.81 7332 85.6271
153.927 7115 84.3505
154.044 7118 84.3682
154.162 7321 85.5628
154.279 7216 84.947
154.396 7607 87.2181
154.513 7314 85.5219
154.63 6988 83.5943
154.747 6683 81.7496
154.864 7019 83.7795
154.981 7825 88.459
155.098 8121 90.1166
155.215 8460 91.9783
155.332 8925 94.4722
155.449 9106 95.4254
155.566 9482 97.3756
155.683 9589 97.9234
155.8 9803 99.0101
155.917 10035 100.175
156.033 10382 101.892
156.15 0 1
156.267 0 1
156.383 0 1
156.5 0 1
156.617 0 1
156.733 0 1
156.85 0 1
156.966 0 1
157.082 0 1
157.199 0 1
157.315 0 1
157.431 0 1
157.547 0 1
157.664 0 1
157.78 0 1
157.896 0 1
158.012 0 1
158.128 0 1
158.244 0 1
158.359 0 1
158.475 0 1
158.591 0 1
158.706 0 1
