
6.15755 0 1
6.2731 0 1
6.3887 0 1
6.50437 0 1
6.62009 0 1
6.73587 0 1
6.8517 0 1
6.96759 0 1
7.08353 0 1
7.19952 0 1
7.31557 0 1
7.43166 0 1
7.54781 0 1
7.664 0 1
7.78024 0 1
7.89653 0 1
8.01286 0 1
8.12924 0 1
8.24567 0 1
8.36213 0 1
8.47864 0 1
8.59519 0 1
8.71178 0 1
8.82841 0 1
8.94508 0 1
9.06179 0 1
9.17853 0 1
9.29531 0 1
9.41212 0 1
9.52897 0 1
9.64584 0 1
9.76276 0 1
9.8797 0 1
9.99667 0 1
10.1137 0 1
10.2307 0 1
10.3478 0 1
10.4648 0 1
10.5819 0 1
10.6991 0 1
10.8162 0 1
10.9334 0 1
11.0506 0 1
11.1678 0 1
11.285 0 1
11.4023 0 1
11.5196 0 1
11.6369 0 1
11.7542 0 1
11.8715 0 1
11.9888 0 1
12.1062 0 1
12.2235 0 1
12.3409 0 1
12.4582 0 1
12.5756 0 1
12.693 0 1
12.8104 0 1
12.9278 0 1
13.0452 0 1
13.1626 0 1
13.28 0 1
13.3974 0 1
13.5149 0 1
13.6323 0 1
13.7497 0 1
13.8671 0 1
13.9845 0 1
14.1019 0 1
14.2193 0 1
14.3367 0 1
14.4541 0 1
14.5714 0 1
14.6888 0 1
14.8062 0 1
14.9235 0 1
15.0408 37664 194.072
15.1581 39503 198.754
15.2755 40837 202.082
15.3927 41106 202.746
15.51 40727 201.809
15.6273 40537 201.338
15.7445 40528 201.316
15.8617 40157 200.392
15.9789 40019 200.047
16.0961 39884 199.71
16.2132 40045 200.112
16.3304 41009 202.507
16.4475 42082 205.139
16.5646 43884 209.485
16.6816 44641 211.284
16.7986 46201 214.944
16.9156 47613 218.204
17.0326 49078 221.536
17.1496 49479 222.439
17.2665 49679 222.888
17.3833 49790 223.137
17.5002 50066 223.754
17.617 49360 222.171
17.7338 47704 218.412
17.8505 45879 214.194
17.9672 43677 208.99
18.0839 42950 207.244
18.2005 43743 209.148
18.3171 44883 211.856
18.4337 46797 216.326
18.5502 47675 218.346
18.6666 48575 220.397
18.7831 49536 222.567
18.8994 49109 221.606
19.0158 48123 219.37
19.1321 47886 218.829
19.2483 46303 215.181
19.3645 44288 210.447
19.4806 41895 204.683
19.5967 38968 197.403
19.7128 36174 190.195
19.8288 32881 181.331
19.9447 28848 169.847
20.0606 0 1
20.1764 0 1
20.2922 0 1
20.4079 0 1
20.5236 0 1
20.6392 0 1
20.7548 0 1
20.8702 0 1
23.3078 0 1
23.4233 0 1
23.539 0 1
23.6547 0 1
23.7704 0 1
23.8862 0 1
24.0021 0 1
24.118 0 1
24.234 0 1
24.35 0 1
24.4661 17521 132.367
24.5822 22088 148.62
24.6984 26343 162.305
24.8146 29650 172.192
24.9309 32164 179.343
25.0472 34470 185.661
25.1636 37139 192.715
25.28 40115 200.287
25.3965 42975 207.304
25.513 46348 215.286
25.6296 49094 221.572
25.7462 51443 226.81
25.8628 52815 229.815
25.9795 53912 232.19
26.0962 54320 233.067
26.213 54646 233.765
26.3298 52999 230.215
26.4466 49824 223.213
26.5635 46563 215.785
26.6804 44839 211.752
26.7973 45219 212.648
26.9143 47336 217.568
27.0313 48095 219.306
27.1483 49773 223.099
27.2653 50812 225.415
27.3824 51077 226.002
27.4996 50934 225.686
27.6167 50405 224.511
27.7339 49211 221.836
27.8511 48405 220.011
27.9683 47382 217.674
28.0855 46856 216.462
28.2028 45854 214.135
28.3201 44459 210.853
28.4374 43389 208.3
28.5547 42799 206.879
28.6721 42703 206.647
28.7894 44569 211.114
28.9068 45874 214.182
29.0242 46911 216.589
29.1416 49786 223.128
29.259 51177 226.223
29.3764 51847 227.699
29.4939 51774 227.539
29.6113 52170 228.408
29.7288 50807 225.404
29.8463 49038 221.445
29.9638 45591 213.52
30.0812 43174 207.784
30.1987 41709 204.228
30.3162 42073 205.117
30.4337 44302 210.48
30.5512 46014 214.509
30.6687 47015 216.829
30.7862 47947 218.968
30.9037 49088 221.558
31.0212 49641 222.803
31.1387 49184 221.775
31.2562 47894 218.847
31.3737 47020 216.841
31.4912 46377 215.353
31.6087 44675 211.365
31.7262 44261 210.383
31.8436 43055 207.497
31.9611 41476 203.657
32.0785 40385 200.96
32.1959 40928 202.307
32.3134 42053 205.068
32.4308 43491 208.545
32.5482 45442 213.171
32.6655 46848 216.444
32.7829 48681 220.638
32.9002 49082 221.545
33.0176 49465 222.407
33.1349 48855 221.032
33.2522 49439 222.349
33.3694 48226 219.604
33.4867 46749 216.215
33.6039 43723 209.1
33.7211 40754 201.876
33.8383 39037 197.578
33.9554 38821 197.03
34.0725 41204 202.988
34.1896 42938 207.215
34.3067 44308 210.495
34.4237 45266 212.758
34.5407 46281 215.13
34.6577 46756 216.231
34.7746 46828 216.398
34.8915 45664 213.691
35.0084 45187 212.572
35.1252 44146 210.109
35.242 43228 207.913
35.3587 42674 206.577
35.4755 41822 204.504
35.5921 40586 201.46
35.7088 39033 197.568
35.8254 38656 196.611
35.9419 38399 195.957
36.0584 39561 198.899
36.1749 40345 200.861
36.2913 39738 199.344
36.4077 40128 200.32
36.524 40677 201.685
36.6403 39496 198.736
36.7565 38501 196.217
36.8727 36748 191.698
36.9889 35000 187.083
37.1049 32280 179.666
37.221 0 1
37.3369 0 1
37.4529 0 1
37.5687 0 1
37.6845 0 1
37.8003 0 1
37.916 0 1
38.0316 0 1
38.1472 0 1
40.5851 0 1
40.7008 0 1
40.8164 0 1
40.9322 0 1
41.048 0 1
41.1639 0 1
41.2798 0 1
41.3958 0 1
41.5118 0 1
41.6279 0 1
41.744 21745 147.462
41.8602 24759 157.35
41.9765 27412 165.566
42.0928 29143 170.713
42.2091 30767 175.405
42.3255 30445 174.485
42.4419 28824 169.776
42.5584 27961 167.215
42.675 28290 168.196
42.7915 29937 173.023
42.9081 33600 183.303
43.0248 35695 188.931
43.1415 36858 191.984
43.2582 38223 195.507
43.375 39174 197.924
43.4918 39437 198.588
43.6087 39245 198.104
43.7256 38699 196.721
43.8425 38379 195.906
43.9595 37544 193.763
44.0765 37313 193.166
44.1935 36526 191.118
44.3106 35374 188.08
44.4277 34099 184.659
44.5448 32921 181.441
44.6619 31654 177.916
44.7791 32339 179.83
44.8963 33753 183.72
45.0136 35436 188.245
45.1308 37397 193.383
45.2481 39416 198.535
45.3654 40007 200.017
45.4827 40046 200.115
45.6001 40571 201.422
45.7174 40388 200.968
45.8348 39536 198.837
45.9522 37350 193.261
46.0697 34314 185.24
46.1871 32339 179.83
46.3046 31628 177.843
46.422 33566 183.21
46.5395 35484 188.372
46.657 37537 193.745
46.7745 39009 197.507
46.892 39799 199.497
47.0096 39985 199.962
47.1271 40883 202.195
47.2446 40649 201.616
47.3622 40049 200.122
47.4797 39096 197.727
47.5973 38576 196.408
47.7149 37878 194.623
47.8324 37038 192.453
47.95 36513 191.084
48.0675 34520 185.796
48.1851 33307 182.502
48.3027 33380 182.702
48.4202 34303 185.211
48.5378 35688 188.913
48.6554 37752 194.299
48.7729 39684 199.208
48.8904 40780 201.941
49.008 40961 202.388
49.1255 41219 203.025
49.243 40741 201.844
49.3605 39094 197.722
49.478 36429 190.864
49.5955 33918 184.168
49.713 31490 177.454
49.8304 30487 174.605
49.9479 32021 178.944
50.0653 34632 186.097
50.1827 37122 192.671
50.3001 38658 196.616
50.4175 39457 198.638
50.5348 40340 200.848
50.6521 40715 201.78
50.7694 40740 201.842
50.8867 40216 200.539
51.004 39910 199.775
51.1212 39112 197.768
51.2384 38781 196.929
51.3556 37822 194.479
51.4727 36658 191.463
51.5899 34606 186.027
51.707 33515 183.071
51.824 33770 183.766
51.9411 35143 187.465
52.0581 36934 192.182
52.175 39450 198.62
52.2919 41128 202.8
52.4088 42237 205.516
52.5257 43045 207.473
52.6425 43289 208.06
52.7593 42830 206.954
52.876 42429 205.983
52.9927 41041 202.586
53.1094 37895 194.666
53.226 35059 187.24
53.3426 32650 180.693
53.4591 30708 175.237
53.5756 30569 174.84
53.692 30903 175.792
53.8084 31034 176.165
53.9248 30618 174.98
54.0411 29235 170.982
54.1573 28073 167.55
54.2735 0 1
54.3896 0 1
54.5057 0 1
54.6217 0 1
54.7377 0 1
54.8537 0 1
54.9695 0 1
55.0853 0 1
55.2011 0 1
55.3168 0 1
55.4324 0 1
57.824 0 1
57.9396 0 1
58.0553 0 1
58.1711 0 1
58.2869 0 1
58.4028 0 1
58.5187 0 1
58.6347 0 1
58.7508 0 1
58.8669 0 1
58.983 25730 160.406
59.0992 30884 175.738
59.2155 34459 185.631
59.3318 37186 192.837
59.4482 39767 199.417
59.5646 41985 204.902
59.681 42871 207.053
59.7975 44124 210.057
59.9141 44766 211.58
60.0306 44508 210.969
60.1473 44211 210.264
60.2639 43197 207.839
60.3807 42270 205.597
60.4974 41917 204.736
60.6142 42091 205.161
60.731 43477 208.511
60.8479 46490 215.615
60.9648 48582 220.413
61.0818 49956 223.508
61.1987 50308 224.294
61.3158 50911 225.635
61.4328 49802 223.164
61.5499 48300 219.773
61.667 45385 213.038
61.7841 42391 205.891
61.9013 39769 199.422
62.0185 38612 196.499
62.1357 39761 199.402
62.253 42289 205.643
62.3702 44605 211.199
62.4875 46727 216.164
62.6049 48075 219.26
62.7222 49534 222.562
62.8396 50107 223.846
62.9569 49927 223.444
63.0743 50034 223.683
63.1918 49344 222.135
63.3092 48554 220.35
63.4267 47674 218.344
63.5441 46558 215.773
63.6616 44914 211.929
63.7791 42607 206.415
63.8966 40809 202.012
64.0142 40084 200.21
64.1317 41091 202.709
64.2492 42765 206.797
64.3668 45469 213.235
64.4843 47394 217.702
64.6019 49469 222.416
64.7195 49630 222.778
64.837 49310 222.059
64.9546 49214 221.842
65.0722 48481 220.184
65.1898 45861 214.152
65.3074 42584 206.359
65.4249 39525 198.809
65.5425 37580 193.856
65.6601 37339 193.233
65.7777 39243 198.098
65.8952 41842 204.553
66.0128 44292 210.457
66.1304 46227 215.005
66.2479 47975 219.032
66.3655 48267 219.698
66.483 48909 221.154
66.6005 49417 222.299
66.718 48897 221.127
66.8355 48346 219.877
66.953 47434 217.793
67.0705 46678 216.051
67.1879 44975 212.073
67.3054 42780 206.833
67.4228 40887 202.205
67.5402 39039 197.583
67.6576 38411 195.987
67.7749 39402 198.499
67.8923 40999 202.482
68.0096 43699 209.043
68.1269 46004 214.485
68.2442 47386 217.683
68.3614 48107 219.333
68.4787 47873 218.799
68.5958 47560 218.083
68.713 46402 215.411
68.8302 44187 210.207
68.9473 41024 202.544
69.0643 37850 194.551
69.1814 35998 189.731
69.2984 35662 188.844
69.4154 37535 193.74
69.5323 40215 200.537
69.6492 42725 206.7
69.7661 44161 210.145
69.8829 45199 212.601
69.9997 44976 212.075
70.1165 44010 209.786
70.2332 42179 205.375
70.3499 40927 202.304
70.4665 38654 196.606
70.5831 37248 192.997
70.6996 34490 185.715
70.8161 32722 180.892
70.9326 29789 172.595
71.049 26456 162.653
71.1653 22439 149.797
71.2817 19339 139.065
71.3979 17353 131.731
71.5141 16362 127.914
71.6303 15564 124.756
71.7464 13980 118.237
71.8624 0 1
71.9784 0 1
72.0944 0 1
72.2102 0 1
72.3261 0 1
72.4418 0 1
72.5575 0 1
72.6732 0 1
75.1054 0 1
75.2209 0 1
75.3365 0 1
75.4521 0 1
75.5678 0 1
75.6835 0 1
75.7993 0 1
75.9151 0 1
76.031 0 1
76.147 27460 165.711
76.263 29549 171.898
76.3791 29951 173.064
76.4952 30015 173.248
76.6113 30848 175.636
76.7276 32187 179.407
76.8438 34318 185.251
76.9601 37079 192.559
77.0765 40252 200.629
77.1929 41823 204.507
77.3093 42152 205.31
77.4258 42279 205.619
77.5423 41762 204.358
77.6589 41017 202.527
77.7755 38227 195.517
77.8921 34641 186.121
78.0088 32048 179.02
78.1256 29748 172.476
78.2423 29439 171.578
78.3591 30669 175.126
78.4759 34320 185.257
78.5928 36734 191.661
78.7097 38253 195.584
78.8266 39003 197.492
78.9436 41491 203.693
79.0606 41386 203.435
79.1776 41826 204.514
79.2946 41926 204.758
79.4117 42438 206.005
79.5288 41839 204.546
79.6459 41307 203.241
79.7631 40380 200.948
79.8802 39062 197.641
79.9974 37137 192.71
80.1147 34864 186.719
80.2319 33139 182.041
80.3491 33440 182.866
80.4664 35383 188.104
80.5837 37705 194.178
80.701 40536 201.336
80.8183 42416 205.951
80.9357 43106 207.62
81.053 43166 207.764
81.1704 43278 208.034
81.2877 43272 208.019
81.4051 41787 204.419
81.5225 38983 197.441
81.6399 34844 186.665
81.7573 32921 181.441
81.8747 30292 174.046
81.9922 30874 175.71
82.1096 33680 183.521
82.227 36576 191.249
82.3444 39097 197.73
82.4619 41022 202.539
82.5793 41789 204.424
82.6967 42689 206.613
82.8142 43237 207.935
82.9316 44002 209.767
83.049 43688 209.017
83.1664 42853 207.01
83.2838 42534 206.238
83.4012 41685 204.169
83.5186 40158 200.395
83.636 38558 196.362
83.7534 36200 190.263
83.8708 33880 184.065
83.9881 33487 182.995
84.1055 34556 185.892
84.2228 37295 193.119
84.3401 40158 200.395
84.4575 42940 207.22
84.5747 43852 209.409
84.692 43824 209.342
84.8093 44206 210.252
84.9265 43112 207.634
85.0437 40764 201.901
85.1609 37093 192.595
85.2781 33769 183.763
85.3952 31751 178.188
85.5123 30655 175.086
85.6294 33046 181.786
85.7465 35493 188.396
85.8636 38522 196.27
85.9806 40125 200.312
86.0976 41687 204.174
86.2145 42556 206.291
86.3315 44260 210.381
86.4484 43175 207.786
86.5652 44261 210.383
86.682 44697 211.417
86.7988 43627 208.871
86.9156 42930 207.196
87.0323 42347 205.784
87.149 40437 201.09
87.2657 37364 193.298
87.3823 33249 182.343
87.4988 29857 172.792
87.6154 28740 169.529
87.7318 29946 173.049
87.8483 31530 177.567
87.9647 33161 182.102
88.081 33888 184.087
88.1973 33627 183.377
88.3136 32068 179.075
88.4298 30190 173.753
88.546 27415 165.575
88.6621 23007 151.681
88.7781 17946 133.963
88.8942 0 1
89.0101 0 1
89.126 0 1
89.2419 0 1
89.3577 0 1
89.4734 0 1
89.5891 0 1
89.7047 0 1
89.8203 0 1
89.9358 0 1
92.3269 0 1
92.4424 0 1
92.558 0 1
92.6736 0 1
92.7893 0 1
92.905 0 1
93.0208 0 1
93.1366 0 1
93.2525 0 1
93.3685 0 1
93.4845 0 1
93.6005 34093 184.643
93.7167 35375 188.082
93.8328 36742 191.682
93.949 37286 193.096
94.0653 37472 193.577
94.1816 36038 189.837
94.2979 34585 185.97
94.4143 33341 182.595
94.5307 32823 181.171
94.6472 33805 183.861
94.7637 36187 190.229
94.8803 38669 196.644
94.9969 40327 200.816
95.1135 42059 205.083
95.2302 43516 208.605
95.3469 44253 210.364
95.4637 45282 212.796
95.5805 45158 212.504
95.6973 44901 211.899
95.8142 44200 210.238
95.9311 43870 209.452
96.048 42891 207.101
96.1649 41625 204.022
96.2819 40318 200.793
96.3989 38326 195.77
96.516 36478 190.992
96.633 35584 188.637
96.7501 36196 190.252
96.8673 38107 195.21
96.9844 40742 201.846
97.1016 42935 207.208
97.2188 44771 211.592
97.336 45070 212.297
97.4532 44728 211.49
97.5704 43530 208.638
97.6877 41562 203.868
97.805 38430 196.036
97.9223 35440 188.255
98.0396 33414 182.795
98.1569 32406 180.017
98.2743 33788 183.815
98.3916 35894 189.457
98.509 39121 197.79
98.6264 40870 202.163
98.7438 42622 206.451
98.8612 43608 208.825
98.9786 45077 212.313
99.096 45835 214.091
99.2134 45596 213.532
99.3308 45871 214.175
99.4482 45417 213.113
99.5656 45090 212.344
99.6831 43633 208.885
99.8005 43090 207.581
99.9179 41030 202.559
100.035 39200 197.99
100.153 37592 193.887
100.27 38423 196.018
100.388 40152 200.38
100.505 42202 205.431
100.622 44948 212.009
100.74 45829 214.077
100.857 45936 214.327
100.975 45967 214.399
101.092 45840 214.103
101.209 43538 208.658
101.327 40928 202.307
101.444 37921 194.733
101.561 35547 188.539
101.679 33734 183.668
101.796 33834 183.94
101.913 36019 189.787
102.03 38599 196.466
102.148 41253 203.108
102.265 44237 210.326
102.382 43597 208.799
102.499 45699 213.773
102.616 45989 214.45
102.733 46219 214.986
102.851 46545 215.743
102.968 46820 216.379
103.085 46084 214.672
103.202 45074 212.306
103.319 44420 210.761
103.436 42228 205.495
103.552 40588 201.465
103.669 38389 195.931
103.786 38142 195.3
103.903 40034 200.085
104.02 42064 205.095
104.137 44874 211.835
104.253 46591 215.849
104.37 46749 216.215
104.487 47237 217.341
104.603 45957 214.376
104.72 43047 207.478
104.836 40064 200.16
104.953 36321 190.581
105.069 33083 181.887
105.186 30763 175.394
105.302 29658 172.215
105.418 29391 171.438
105.535 29418 171.517
105.651 29375 171.391
105.767 28997 170.285
105.883 27408 165.554
105.999 24580 156.78
106.115 0 1
106.231 0 1
106.347 0 1
106.463 0 1
106.579 0 1
106.694 0 1
106.81 0 1
106.926 0 1
107.041 0 1
107.157 0 1
109.576 0 1
109.692 0 1
109.807 0 1
109.923 0 1
110.039 0 1
110.155 0 1
110.27 0 1
110.386 0 1
110.502 0 1
110.618 20794 144.201
110.735 26535 162.896
110.851 30198 173.776
110.967 33546 183.156
111.083 36342 190.636
111.199 38922 197.287
111.316 41216 203.017
111.432 42415 205.949
111.549 43476 208.509
111.665 44511 210.976
111.782 43863 209.435
111.898 42985 207.328
112.015 41498 203.711
112.132 39355 198.381
112.248 35962 189.636
112.365 35469 188.332
112.482 37364 193.298
112.599 39175 197.927
112.716 42578 206.344
112.832 43511 208.593
112.949 44353 210.602
113.066 44137 210.088
113.183 44096 209.99
113.3 43328 208.154
113.417 41231 203.054
113.534 36831 191.914
113.652 34568 185.925
113.769 32727 180.906
113.886 31455 177.356
114.003 32063 179.061
114.12 34716 186.322
114.238 37609 193.93
114.355 39489 198.718
114.472 40806 202.005
114.589 41529 203.787
114.707 42470 206.083
114.824 43334 208.168
114.942 43558 208.706
115.059 43893 209.507
115.176 43414 208.36
115.294 43104 207.615
115.411 41788 204.421
115.529 40960 202.386
115.646 39133 197.821
115.764 36897 192.086
115.881 34777 186.486
115.999 35301 187.886
116.116 37281 193.083
116.234 40747 201.859
116.351 42268 205.592
116.469 42911 207.15
116.586 43058 207.504
116.704 43234 207.928
116.821 42601 206.4
116.939 41138 202.825
117.056 38251 195.579
117.174 35186 187.579
117.291 33079 181.876
117.409 31099 176.349
117.526 30941 175.901
117.644 32531 180.364
117.761 35790 189.182
117.879 37432 193.474
117.996 39002 197.489
118.114 39979 199.947
118.231 40317 200.791
118.349 41447 203.585
118.466 41788 204.421
118.584 41899 204.692
118.701 41684 204.167
118.819 41290 203.199
118.936 40425 201.06
119.053 39858 199.645
119.171 38718 196.769
119.288 37002 192.359
119.405 34461 185.637
119.523 33443 182.874
119.64 34124 184.727
119.757 35965 189.644
119.875 38460 196.112
119.992 40292 200.729
120.109 40465 201.159
120.226 40481 201.199
120.343 40744 201.851
120.46 40289 200.721
120.578 39452 198.625
120.695 36945 192.211
120.812 34333 185.292
120.929 31948 178.74
121.046 30679 175.154
121.163 29409 171.491
121.279 29723 172.404
121.396 31508 177.505
121.513 32556 180.433
121.63 32939 181.491
121.747 33040 181.769
121.863 33341 182.595
121.98 33148 182.066
122.097 32989 181.629
122.213 32337 179.825
122.33 31640 177.876
122.446 30388 174.322
122.563 28685 169.366
122.679 26651 163.251
122.795 24459 156.394
122.912 21515 146.68
123.028 18702 136.755
123.144 16514 128.507
123.26 15473 124.391
123.377 0 1
123.493 0 1
123.609 0 1
123.725 0 1
123.84 0 1
123.956 0 1
124.072 0 1
124.188 0 1
124.303 0 1
124.419 0 1
126.852 0 1
126.968 0 1
127.083 0 1
127.199 0 1
127.315 0 1
127.431 0 1
127.547 0 1
127.663 0 1
127.779 0 1
127.895 0 1
128.011 0 1
128.127 0 1
128.243 0 1
128.359 38291 195.681
128.476 37798 194.417
128.592 37421 193.445
128.708 39077 197.679
128.825 41284 203.185
128.941 44128 210.067
129.058 44798 211.655
129.174 45547 213.417
129.291 45558 213.443
129.408 45957 214.376
129.524 45065 212.285
129.641 42642 206.499
129.758 39673 199.181
129.875 37202 192.878
129.992 35484 188.372
130.108 34244 185.051
130.225 33916 184.163
130.342 36143 190.113
130.459 37423 193.45
130.576 40441 201.099
130.693 41419 203.517
130.81 42467 206.075
130.928 42593 206.381
131.045 43485 208.531
131.162 43942 209.623
131.279 45000 212.132
131.396 44693 211.407
131.513 44571 211.118
131.631 43124 207.663
131.748 42230 205.499
131.865 41395 203.458
131.983 39550 198.872
132.1 38043 195.046
132.217 38619 196.517
132.335 40487 201.214
132.452 42766 206.799
132.57 44796 211.651
132.687 44905 211.908
132.804 46133 214.786
132.922 45422 213.124
133.039 45230 212.673
133.157 43659 208.947
133.274 40812 202.02
133.392 38627 196.538
133.509 36632 191.395
133.627 35049 187.214
133.744 33917 184.166
133.862 35891 189.449
133.979 37775 194.358
134.097 39728 199.319
134.214 40520 201.296
134.332 41761 204.355
134.449 42716 206.678
134.567 43159 207.747
134.684 43863 209.435
134.802 44564 211.102
134.919 44835 211.743
135.037 44315 210.511
135.154 43902 209.528
135.272 42718 206.683
135.389 41458 203.612
135.507 40041 200.102
135.624 38404 195.969
135.742 37980 194.885
135.859 39358 198.389
135.977 42040 205.037
136.094 43973 209.697
136.211 44448 210.827
136.329 44752 211.547
136.446 44945 212.002
136.564 44792 211.641
136.681 44776 211.603
136.798 42462 206.063
136.915 40390 200.973
137.033 37787 194.389
137.15 36623 191.371
137.267 35078 187.291
137.384 34122 184.721
137.502 34833 186.636
137.619 36613 191.345
137.736 38769 196.898
137.853 38940 197.332
137.97 40245 200.612
138.087 40500 201.246
138.204 41624 204.02
138.321 42954 207.253
138.438 42663 206.55
138.555 43331 208.161
138.672 42221 205.477
138.788 40174 200.435
138.905 38023 194.995
139.022 36508 191.071
139.139 33882 184.071
139.255 31567 177.671
139.372 29162 170.769
139.488 29381 171.409
139.605 29373 171.386
139.721 29987 173.168
139.838 29967 173.11
139.954 28035 167.437
140.071 25752 160.474
140.187 23769 154.172
140.303 21920 148.054
140.419 20479 143.105
140.535 18603 136.393
140.652 16252 127.483
140.768 0 1
140.884 0 1
141 0 1
141.115 0 1
141.231 0 1
141.347 0 1
141.463 0 1
141.578 0 1
141.694 0 1
144.104 0 1
144.219 0 1
144.335 0 1
144.45 0 1
144.566 0 1
144.682 0 1
144.798 0 1
144.914 0 1
145.03 0 1
145.146 31455 177.356
145.262 32957 181.541
145.378 33356 182.636
145.494 32656 180.71
145.61 31042 176.187
145.726 29835 172.728
145.842 28728 169.493
145.959 27544 165.964
146.075 26382 162.425
146.192 26922 164.079
146.308 27263 165.115
146.425 28616 169.163
146.541 29206 170.898
146.658 29984 173.159
146.774 30755 175.371
146.891 31383 177.152
147.008 32448 180.133
147.125 31771 178.244
147.241 32511 180.308
147.358 32928 181.461
147.475 32599 180.552
147.592 31981 178.832
147.709 32063 179.061
147.826 30864 175.682
147.943 29629 172.131
148.06 28351 168.378
148.177 28181 167.872
148.294 29850 172.772
148.411 31138 176.46
148.528 32585 180.513
148.645 33156 182.088
148.762 33357 182.639
148.88 33105 181.948
148.997 33954 184.266
149.114 32561 180.447
149.231 31818 178.376
149.349 30491 174.617
149.466 28972 170.212
149.583 28357 168.395
149.701 27021 164.381
149.818 25967 161.143
149.935 26545 162.926
150.053 27595 166.117
150.17 28331 168.318
150.287 29001 170.297
150.405 29492 171.732
150.522 30522 174.705
150.64 30843 175.622
150.757 31279 176.859
150.875 31816 178.37
150.992 32059 179.05
151.11 31713 178.081
151.227 31204 176.647
151.344 31046 176.199
151.462 29834 172.725
151.579 28971 170.209
151.697 27590 166.102
151.814 27630 166.223
151.932 28768 169.611
152.049 29765 172.525
152.167 31303 176.927
152.284 32216 179.488
152.402 32078 179.103
152.519 31989 178.855
152.636 31623 177.829
152.754 31405 177.215
152.871 30408 174.379
152.989 28644 169.245
153.106 27607 166.154
153.223 26234 161.969
153.341 25623 160.072
153.458 24757 157.344
153.575 25534 159.794
153.693 26426 162.561
153.81 26728 163.487
153.927 27738 166.547
154.044 27743 166.562
154.162 28207 167.949
154.279 28704 169.423
154.396 29256 171.044
154.513 29553 171.91
154.63 30060 173.378
154.747 29906 172.934
154.864 29325 171.245
154.981 28188 167.893
155.098 27217 164.976
155.215 26671 163.313
155.332 26058 161.425
155.449 26131 161.651
155.566 27222 164.991
155.683 27977 167.263
155.8 28407 168.544
155.917 27746 166.571
156.033 27238 165.039
156.15 0 1
156.267 0 1
156.383 0 1
156.5 0 1
156.617 0 1
156.733 0 1
156.85 0 1
156.966 0 1
157.082 0 1
157.199 0 1
157.315 0 1
157.431 0 1
157.547 0 1
157.664 0 1
157.78 0 1
157.896 0 1
158.012 0 1
158.128 0 1
158.244 0 1
158.359 0 1
158.475 0 1
158.591 0 1
158.706 0 1
