
6.15755 0 1
6.2731 0 1
6.3887 0 1
6.50437 0 1
6.62009 0 1
6.73587 0 1
6.8517 0 1
6.96759 0 1
7.08353 0 1
7.19952 0 1
7.31557 0 1
7.43166 0 1
7.54781 0 1
7.664 0 1
7.78024 0 1
7.89653 0 1
8.01286 0 1
8.12924 0 1
8.24567 0 1
8.36213 0 1
8.47864 0 1
8.59519 0 1
8.71178 0 1
8.82841 0 1
8.94508 0 1
9.06179 0 1
9.17853 0 1
9.29531 0 1
9.41212 0 1
9.52897 0 1
9.64584 0 1
9.76276 0 1
9.8797 0 1
9.99667 0 1
10.1137 0 1
10.2307 0 1
10.3478 0 1
10.4648 0 1
10.5819 0 1
10.6991 0 1
10.8162 0 1
10.9334 0 1
11.0506 0 1
11.1678 0 1
11.285 0 1
11.4023 0 1
11.5196 0 1
11.6369 0 1
11.7542 0 1
11.8715 0 1
11.9888 0 1
12.1062 0 1
12.2235 0 1
12.3409 0 1
12.4582 0 1
12.5756 0 1
12.693 0 1
12.8104 0 1
12.9278 0 1
13.0452 0 1
13.1626 0 1
13.28 0 1
13.3974 0 1
13.5149 0 1
13.6323 0 1
13.7497 0 1
13.8671 0 1
13.9845 0 1
14.1019 0 1
14.2193 0 1
14.3367 0 1
14.4541 0 1
14.5714 0 1
14.6888 0 1
14.8062 0 1
14.9235 0 1
15.0408 4506 67.1267
15.1581 4665 68.3008
15.2755 4717 68.6804
15.3927 4784 69.1665
15.51 4918 70.1285
15.6273 4822 69.4406
15.7445 4846 69.6132
15.8617 4941 70.2922
15.9789 4908 70.0571
16.0961 4934 70.2424
16.2132 5099 71.4073
16.3304 5084 71.3022
16.4475 5218 72.2357
16.5646 5482 74.0405
16.6816 5480 74.027
16.7986 5663 75.2529
16.9156 6092 78.0513
17.0326 6068 77.8974
17.1496 6227 78.9113
17.2665 6152 78.4347
17.3833 6251 79.0633
17.5002 6210 78.8036
17.617 6499 80.6164
17.7338 6251 79.0633
17.8505 6022 77.6015
17.9672 5885 76.7138
18.0839 5744 75.7892
18.2005 5929 77
18.3171 6237 78.9747
18.4337 6335 79.5927
18.5502 6579 81.111
18.6666 6790 82.4015
18.7831 6845 82.7345
18.8994 6670 81.6701
19.0158 6576 81.0925
19.1321 6478 80.486
19.2483 6381 79.8812
19.3645 6410 80.0625
19.4806 6165 78.5175
19.5967 6103 78.1217
19.7128 6067 77.8909
19.8288 5631 75.04
19.9447 5396 73.4575
20.0606 0 1
20.1764 0 1
20.2922 0 1
20.4079 0 1
20.5236 0 1
20.6392 0 1
20.7548 0 1
20.8702 0 1
23.3078 0 1
23.4233 0 1
23.539 0 1
23.6547 0 1
23.7704 0 1
23.8862 0 1
24.0021 0 1
24.118 0 1
24.234 0 1
24.35 0 1
24.4661 6300 79.3725
24.5822 6420 80.1249
24.6984 6295 79.341
24.8146 6145 78.3901
24.9309 6032 77.666
25.0472 6082 77.9872
25.1636 6178 78.6003
25.28 6546 80.9074
25.3965 6506 80.6598
25.513 6700 81.8535
25.6296 7191 84.7998
25.7462 7080 84.1427
25.8628 7326 85.5921
25.9795 7232 85.0412
26.0962 7164 84.6404
26.213 7191 84.7998
26.3298 7083 84.1606
26.4466 6719 81.9695
26.5635 6387 79.9187
26.6804 6491 80.5667
26.7973 6477 80.4798
26.9143 6598 81.2281
27.0313 6841 82.7103
27.1483 6989 83.6002
27.2653 7035 83.8749
27.3824 7163 84.6345
27.4996 7167 84.6581
27.6167 7044 83.9285
27.7339 6803 82.4803
27.8511 6844 82.7285
27.9683 6617 81.3449
28.0855 6434 80.2122
28.2028 6462 80.3866
28.3201 6388 79.925
28.4374 6331 79.5676
28.5547 6238 78.981
28.6721 6330 79.5613
28.7894 6280 79.2465
28.9068 6529 80.8022
29.0242 6601 81.2465
29.1416 6918 83.1745
29.259 6997 83.6481
29.3764 7091 84.2081
29.4939 7051 83.9702
29.6113 7145 84.5281
29.7288 6893 83.0241
29.8463 6674 81.6946
29.9638 6311 79.4418
30.0812 6190 78.6766
30.1987 5897 76.7919
30.3162 6131 78.3007
30.4337 6264 79.1454
30.5512 6546 80.9074
30.6687 6619 81.3572
30.7862 6851 82.7708
30.9037 6903 83.0843
31.0212 7002 83.678
31.1387 6818 82.5712
31.2562 6736 82.0731
31.3737 6655 81.5782
31.4912 6612 81.3142
31.6087 6446 80.287
31.7262 6294 79.3347
31.8436 6163 78.5048
31.9611 6119 78.224
32.0785 6125 78.2624
32.1959 5921 76.948
32.3134 6325 79.5299
32.4308 6413 80.0812
32.5482 6390 79.9375
32.6655 6578 81.1049
32.7829 6857 82.807
32.9002 6877 82.9277
33.0176 6824 82.6075
33.1349 7007 83.7078
33.2522 7027 83.8272
33.3694 6894 83.0301
33.4867 6716 81.9512
33.6039 6178 78.6003
33.7211 5824 76.3151
33.8383 5529 74.3572
33.9554 5580 74.6994
34.0725 5852 76.4984
34.1896 6172 78.5621
34.3067 6314 79.4607
34.4237 6496 80.5978
34.5407 6508 80.6722
34.6577 6477 80.4798
34.7746 6527 80.7899
34.8915 6567 81.037
35.0084 6290 79.3095
35.1252 6286 79.2843
35.242 6314 79.4607
35.3587 6329 79.555
35.4755 6071 77.9166
35.5921 5916 76.9155
35.7088 5952 77.1492
35.8254 5764 75.921
35.9419 5958 77.1881
36.0584 5982 77.3434
36.1749 6133 78.3135
36.2913 6330 79.5613
36.4077 6494 80.5854
36.524 6363 79.7684
36.6403 6597 81.2219
36.7565 6421 80.1311
36.8727 6616 81.3388
36.9889 6506 80.6598
37.1049 6215 78.8353
37.221 0 1
37.3369 0 1
37.4529 0 1
37.5687 0 1
37.6845 0 1
37.8003 0 1
37.916 0 1
38.0316 0 1
38.1472 0 1
40.5851 0 1
40.7008 0 1
40.8164 0 1
40.9322 0 1
41.048 0 1
41.1639 0 1
41.2798 0 1
41.3958 0 1
41.5118 0 1
41.6279 0 1
41.744 5046 71.0352
41.8602 5423 73.641
41.9765 5366 73.253
42.0928 5544 74.458
42.2091 5548 74.4849
42.3255 5317 72.9178
42.4419 4931 70.2211
42.5584 4576 67.6461
42.675 4299 65.5668
42.7915 4322 65.7419
42.9081 4584 67.7052
43.0248 4816 69.3974
43.1415 4908 70.0571
43.2582 5037 70.9718
43.375 5115 71.5192
43.4918 5159 71.8262
43.6087 5272 72.6085
43.7256 5180 71.9722
43.8425 5030 70.9225
43.9595 5005 70.746
44.0765 4950 70.3562
44.1935 4747 68.8985
44.3106 4550 67.4537
44.4277 4633 68.0661
44.5448 4385 66.2193
44.6619 4241 65.123
44.7791 4227 65.0154
44.8963 4259 65.261
45.0136 4240 65.1153
45.1308 4347 65.9318
45.2481 4429 66.5507
45.3654 4521 67.2384
45.4827 4624 68
45.6001 4333 65.8255
45.7174 4452 66.7233
45.8348 4206 64.8537
45.9522 3916 62.578
46.0697 3757 61.2944
46.1871 3405 58.3524
46.3046 3217 56.7186
46.422 3347 57.8533
46.5395 3646 60.3821
46.657 3783 61.5061
46.7745 3869 62.2013
46.892 3862 62.145
47.0096 3877 62.2656
47.1271 4030 63.4823
47.2446 3975 63.0476
47.3622 3999 63.2376
47.4797 3796 61.6117
47.5973 3829 61.8789
47.7149 3724 61.0246
47.8324 3693 60.7701
47.95 3666 60.5475
48.0675 3502 59.1777
48.1851 3368 58.0345
48.3027 3387 58.1979
48.4202 3399 58.3009
48.5378 3401 58.3181
48.6554 3598 59.9833
48.7729 3685 60.7042
48.8904 3596 59.9667
49.008 3787 61.5386
49.1255 3714 60.9426
49.243 3664 60.531
49.3605 3552 59.5987
49.478 3356 57.931
49.5955 2979 54.5802
49.713 3012 54.8817
49.8304 2964 54.4426
49.9479 3016 54.9181
50.0653 3184 56.4269
50.1827 3527 59.3886
50.3001 3720 60.9918
50.4175 3761 61.327
50.5348 3828 61.8708
50.6521 4036 63.5295
50.7694 3942 62.7853
50.8867 4068 63.7809
51.004 4076 63.8436
51.1212 4059 63.7103
51.2384 4254 65.2227
51.3556 4156 64.467
51.4727 4196 64.7765
51.5899 4069 63.7887
51.707 3968 62.9921
51.824 3968 62.9921
51.9411 4145 64.3817
52.0581 4253 65.215
52.175 4449 66.7008
52.2919 4606 67.8675
52.4088 4900 70
52.5257 4933 70.2353
52.6425 4960 70.4273
52.7593 4917 70.1213
52.876 4812 69.3686
52.9927 4636 68.0882
53.1094 4221 64.9692
53.226 4136 64.3117
53.3426 3937 62.7455
53.4591 3964 62.9603
53.5756 4054 63.671
53.692 4374 66.1362
53.8084 4792 69.2243
53.9248 4876 69.8284
54.0411 5095 71.3793
54.1573 5054 71.0915
54.2735 0 1
54.3896 0 1
54.5057 0 1
54.6217 0 1
54.7377 0 1
54.8537 0 1
54.9695 0 1
55.0853 0 1
55.2011 0 1
55.3168 0 1
55.4324 0 1
57.824 0 1
57.9396 0 1
58.0553 0 1
58.1711 0 1
58.2869 0 1
58.4028 0 1
58.5187 0 1
58.6347 0 1
58.7508 0 1
58.8669 0 1
58.983 5405 73.5187
59.0992 5969 77.2593
59.2155 6024 77.6144
59.3318 6235 78.962
59.4482 6481 80.5047
59.5646 6466 80.4114
59.681 6476 80.4736
59.7975 6304 79.3977
59.9141 6443 80.2683
60.0306 6378 79.8624
60.1473 6091 78.0449
60.2639 5709 75.5579
60.3807 5732 75.71
60.4974 5511 74.2361
60.6142 5670 75.2994
60.731 5651 75.1731
60.8479 5866 76.5898
60.9648 6132 78.3071
61.0818 6106 78.1409
61.1987 6199 78.7337
61.3158 6120 78.2304
61.4328 6054 77.8075
61.5499 5806 76.1971
61.667 5391 73.4234
61.7841 5099 71.4073
61.9013 4825 69.4622
62.0185 4606 67.8675
62.1357 4771 69.0724
62.253 5155 71.7983
62.3702 5333 73.0274
62.4875 5534 74.3909
62.6049 5751 75.8353
62.7222 6039 77.711
62.8396 6148 78.4092
62.9569 6229 78.924
63.0743 6190 78.6766
63.1918 6364 79.7747
63.3092 6229 78.924
63.4267 6068 77.8974
63.5441 5990 77.3951
63.6616 5841 76.4264
63.7791 5667 75.2795
63.8966 5324 72.9657
64.0142 5234 72.3464
64.1317 5264 72.5534
64.2492 5451 73.8309
64.3668 5500 74.162
64.4843 5857 76.531
64.6019 5905 76.844
64.7195 5897 76.7919
64.837 5953 77.1557
64.9546 5901 76.818
65.0722 5726 75.6703
65.1898 5229 72.3118
65.3074 5072 71.218
65.4249 4588 67.7348
65.5425 4286 65.4675
65.6601 4458 66.7683
65.7777 4618 67.9559
65.8952 5033 70.9436
66.0128 5200 72.111
66.1304 5396 73.4575
66.2479 5695 75.4652
66.3655 5829 76.3479
66.483 6045 77.7496
66.6005 5846 76.4591
66.718 6124 78.256
66.8355 6182 78.6257
66.953 6255 79.0886
67.0705 6016 77.5629
67.1879 5848 76.4722
67.3054 5594 74.793
67.4228 5448 73.8106
67.5402 5212 72.1942
67.6576 5045 71.0282
67.7749 5083 71.2952
67.8923 5270 72.5948
68.0096 5525 74.3303
68.1269 5854 76.5114
68.2442 5774 75.9868
68.3614 5887 76.7268
68.4787 5889 76.7398
68.5958 5950 77.1362
68.713 5905 76.844
68.8302 5641 75.1066
68.9473 5046 71.0352
69.0643 4652 68.2056
69.1814 4513 67.1789
69.2984 4524 67.2607
69.4154 4615 67.9338
69.5323 5108 71.4703
69.6492 5416 73.5935
69.7661 5716 75.6042
69.8829 6141 78.3645
69.9997 6188 78.6638
70.1165 6367 79.7935
70.2332 6538 80.8579
70.3499 6487 80.5419
70.4665 6606 81.2773
70.5831 6456 80.3492
70.6996 6471 80.4425
70.8161 6336 79.599
70.9326 6272 79.196
71.049 6049 77.7753
71.1653 5615 74.9333
71.2817 5386 73.3894
71.3979 5084 71.3022
71.5141 5125 71.5891
71.6303 5227 72.298
71.7464 5206 72.1526
71.8624 0 1
71.9784 0 1
72.0944 0 1
72.2102 0 1
72.3261 0 1
72.4418 0 1
72.5575 0 1
72.6732 0 1
75.1054 0 1
75.2209 0 1
75.3365 0 1
75.4521 0 1
75.5678 0 1
75.6835 0 1
75.7993 0 1
75.9151 0 1
76.031 0 1
76.147 5586 74.7395
76.263 5711 75.5712
76.3791 5512 74.2428
76.4952 5235 72.3533
76.6113 5215 72.215
76.7276 5441 73.7631
76.8438 5921 76.948
76.9601 6149 78.4156
77.0765 6260 79.1202
77.1929 6315 79.467
77.3093 6371 79.8185
77.4258 6365 79.781
77.5423 5958 77.1881
77.6589 5580 74.6994
77.7755 5095 71.3793
77.8921 4706 68.6003
78.0088 4521 67.2384
78.1256 4352 65.9697
78.2423 4552 67.4685
78.3591 4850 69.6419
78.4759 5272 72.6085
78.5928 5696 75.4718
78.7097 5755 75.8617
78.8266 6030 77.6531
78.9436 6470 80.4363
79.0606 6401 80.0062
79.1776 6397 79.9812
79.2946 6419 80.1187
79.4117 6583 81.1357
79.5288 6460 80.3741
79.6459 6479 80.4922
79.7631 6203 78.7591
79.8802 6130 78.2943
79.9974 5666 75.2728
80.1147 5434 73.7157
80.2319 5341 73.0821
80.3491 5424 73.6478
80.4664 5864 76.5768
80.5837 6285 79.278
80.701 6257 79.1012
80.8183 6318 79.4858
80.9357 6232 78.943
81.053 6317 79.4796
81.1704 6089 78.032
81.2877 5683 75.3857
81.4051 5351 73.1505
81.5225 4906 70.0428
81.6399 4461 66.7907
81.7573 4381 66.1891
81.8747 4378 66.1665
81.9922 4900 70
82.1096 5146 71.7356
82.227 5640 75.0999
82.3444 5833 76.3741
82.4619 6240 78.9937
82.5793 6434 80.2122
82.6967 6324 79.5236
82.8142 6390 79.9375
82.9316 6624 81.388
83.049 6455 80.343
83.1664 6571 81.0617
83.2838 6448 80.2994
83.4012 6256 79.0949
83.5186 5940 77.0714
83.636 5731 75.7034
83.7534 5318 72.9246
83.8708 5261 72.5328
83.9881 5478 74.0135
84.1055 5550 74.4983
84.2228 6200 78.7401
84.3401 6320 79.4984
84.4575 6392 79.95
84.5747 6531 80.8146
84.692 6100 78.1025
84.8093 5878 76.6681
84.9265 5542 74.4446
85.0437 4960 70.4273
85.1609 4758 68.9783
85.2781 4412 66.4229
85.3952 4474 66.888
85.5123 4688 68.469
85.6294 5213 72.2011
85.7465 5635 75.0666
85.8636 5949 77.1298
85.9806 6122 78.2432
86.0976 6506 80.6598
86.2145 6500 80.6226
86.3315 6790 82.4015
86.4484 6792 82.4136
86.5652 6742 82.1097
86.682 6858 82.813
86.7988 6894 83.0301
86.9156 6678 81.719
87.0323 6427 80.1686
87.149 6133 78.3135
87.2657 5870 76.6159
87.3823 5602 74.8465
87.4988 5665 75.2662
87.6154 6071 77.9166
87.7318 6644 81.5107
87.8483 6705 81.8841
87.9647 6789 82.3954
88.081 6703 81.8719
88.1973 6670 81.6701
88.3136 6450 80.3119
88.4298 5876 76.6551
88.546 5340 73.0753
88.6621 5026 70.8943
88.7781 4731 68.7823
88.8942 0 1
89.0101 0 1
89.126 0 1
89.2419 0 1
89.3577 0 1
89.4734 0 1
89.5891 0 1
89.7047 0 1
89.8203 0 1
89.9358 0 1
92.3269 0 1
92.4424 0 1
92.558 0 1
92.6736 0 1
92.7893 0 1
92.905 0 1
93.0208 0 1
93.1366 0 1
93.2525 0 1
93.3685 0 1
93.4845 0 1
93.6005 5728 75.6836
93.7167 5416 73.5935
93.8328 5114 71.5122
93.949 4944 70.3136
94.0653 4755 68.9565
94.1816 4694 68.5128
94.2979 4834 69.527
94.4143 5271 72.6017
94.5307 5574 74.6592
94.6472 5835 76.3872
94.7637 6096 78.0769
94.8803 6286 79.2843
94.9969 6569 81.0494
95.1135 6586 81.1542
95.2302 6576 81.0925
95.3469 6806 82.4985
95.4637 6803 82.4803
95.5805 6837 82.6862
95.6973 6869 82.8794
95.8142 6799 82.456
95.9311 6582 81.1295
96.048 6340 79.6241
96.1649 5973 77.2852
96.2819 5736 75.7364
96.3989 5581 74.7061
96.516 5891 76.7529
96.633 6237 78.9747
96.7501 6528 80.796
96.8673 6512 80.697
96.9844 6460 80.3741
97.1016 6545 80.9012
97.2188 6373 79.8311
97.336 6005 77.4919
97.4532 5464 73.9189
97.5704 5262 72.5396
97.6877 4956 70.3989
97.805 4773 69.0869
97.9223 4866 69.7567
98.0396 4798 69.2676
98.1569 5214 72.208
98.2743 5576 74.6726
98.3916 5883 76.7007
98.509 6035 77.6853
98.6264 6171 78.5557
98.7438 6524 80.7713
98.8612 6636 81.4616
98.9786 6679 81.7251
99.096 6666 81.6456
99.2134 6673 81.6884
99.3308 6737 82.0792
99.4482 6690 81.7924
99.5656 6489 80.5543
99.6831 6274 79.2086
99.8005 5995 77.4274
99.9179 5669 75.2928
100.035 5416 73.5935
100.153 5957 77.1816
100.27 6230 78.9303
100.388 6431 80.1935
100.505 6359 79.7433
100.622 6486 80.5357
100.74 6275 79.2149
100.857 6233 78.9494
100.975 5891 76.7529
101.092 5511 74.2361
101.209 5218 72.2357
101.327 4849 69.6348
101.444 4718 68.6877
101.561 4760 68.9928
101.679 5117 71.5332
101.796 5374 73.3076
101.913 5669 75.2928
102.03 5992 77.408
102.148 6346 79.6618
102.265 6242 79.0063
102.382 7118 84.3682
102.499 6919 83.1805
102.616 6972 83.4985
102.733 7170 84.6759
102.851 7147 84.5399
102.968 7175 84.7054
103.085 6926 83.2226
103.202 6923 83.2046
103.319 6546 80.9074
103.436 6104 78.1281
103.552 5944 77.0973
103.669 6294 79.3347
103.786 6832 82.6559
103.903 6775 82.3104
104.02 7207 84.8941
104.137 7042 83.9166
104.253 7098 84.2496
104.37 6857 82.807
104.487 6353 79.7057
104.603 5958 77.1881
104.72 5479 74.0203
104.836 5354 73.171
104.953 5194 72.0694
105.069 5260 72.5259
105.186 5549 74.4916
105.302 5958 77.1881
105.418 6210 78.8036
105.535 6668 81.6578
105.651 6828 82.6317
105.767 7021 83.7914
105.883 6970 83.4865
105.999 7273 85.2819
106.115 0 1
106.231 0 1
106.347 0 1
106.463 0 1
106.579 0 1
106.694 0 1
106.81 0 1
106.926 0 1
107.041 0 1
107.157 0 1
109.576 0 1
109.692 0 1
109.807 0 1
109.923 0 1
110.039 0 1
110.155 0 1
110.27 0 1
110.386 0 1
110.502 0 1
110.618 5749 75.8222
110.735 5963 77.2205
110.851 6291 79.3158
110.967 6308 79.4229
111.083 6383 79.8937
111.199 6516 80.7217
111.316 6501 80.6288
111.432 6569 81.0494
111.549 6388 79.925
111.665 6383 79.8937
111.782 5973 77.2852
111.898 5594 74.793
112.015 5306 72.8423
112.132 5561 74.5721
112.248 6058 77.8332
112.365 5920 76.9415
112.482 6068 77.8974
112.599 5904 76.8375
112.716 5948 77.1233
112.832 5735 75.7298
112.949 5480 74.027
113.066 4965 70.4628
113.183 4700 68.5565
113.3 4350 65.9545
113.417 4227 65.0154
113.534 4237 65.0922
113.652 4123 64.2106
113.769 4516 67.2012
113.886 4806 69.3253
114.003 4738 68.8331
114.12 4885 69.8928
114.238 5186 72.0139
114.355 5193 72.0625
114.472 5261 72.5328
114.589 5099 71.4073
114.707 5313 72.8903
114.824 5311 72.8766
114.942 5315 72.904
115.059 5142 71.7077
115.176 5049 71.0563
115.294 4717 68.6804
115.411 4441 66.6408
115.529 4199 64.7997
115.646 4193 64.7534
115.764 4416 66.453
115.881 4648 68.1762
115.999 4581 67.6831
116.116 4574 67.6314
116.234 4579 67.6683
116.351 4402 66.3476
116.469 4282 65.437
116.586 3937 62.7455
116.704 3706 60.8769
116.821 3485 59.0339
116.939 3300 57.4456
117.056 3164 56.2494
117.174 3022 54.9727
117.291 3347 57.8533
117.409 3576 59.7997
117.526 3614 60.1166
117.644 3836 61.9355
117.761 3977 63.0635
117.879 4105 64.0703
117.996 4242 65.1306
118.114 4260 65.2687
118.231 4178 64.6375
118.349 4300 65.5744
118.466 4194 64.7611
118.584 4361 66.0379
118.701 4218 64.9461
118.819 4126 64.2339
118.936 4101 64.0391
119.053 3994 63.1981
119.171 3816 61.7738
119.288 3820 61.8061
119.405 4100 64.0312
119.523 4291 65.5057
119.64 4358 66.0151
119.757 4416 66.453
119.875 4326 65.7723
119.992 4296 65.5439
120.109 4288 65.4828
120.226 4047 63.616
120.343 3765 61.3596
120.46 3592 59.9333
120.578 3538 59.4811
120.695 3408 58.3781
120.812 3322 57.6368
120.929 3464 58.8558
121.046 3635 60.291
121.163 3902 62.466
121.279 4094 63.9844
121.396 4299 65.5668
121.513 4585 67.7126
121.63 4540 67.3795
121.747 4622 67.9853
121.863 4678 68.3959
121.98 4894 69.9571
122.097 4914 70.0999
122.213 4889 69.9214
122.33 5022 70.8661
122.446 5001 70.7177
122.563 4977 70.5479
122.679 4843 69.5917
122.795 4506 67.1267
122.912 4529 67.2978
123.028 4503 67.1044
123.144 4736 68.8186
123.26 4967 70.4769
123.377 0 1
123.493 0 1
123.609 0 1
123.725 0 1
123.84 0 1
123.956 0 1
124.072 0 1
124.188 0 1
124.303 0 1
124.419 0 1
126.852 0 1
126.968 0 1
127.083 0 1
127.199 0 1
127.315 0 1
127.431 0 1
127.547 0 1
127.663 0 1
127.779 0 1
127.895 0 1
128.011 0 1
128.127 0 1
128.243 0 1
128.359 5486 74.0675
128.476 5685 75.3989
128.592 6084 78
128.708 6122 78.2432
128.825 6055 77.8139
128.941 5967 77.2464
129.058 5967 77.2464
129.174 5738 75.7496
129.291 5484 74.054
129.408 5188 72.0278
129.524 4937 70.2638
129.641 4759 68.9855
129.758 4704 68.5857
129.875 4611 67.9043
129.992 4661 68.2715
130.108 4834 69.527
130.225 4797 69.2604
130.342 5038 70.9789
130.459 5145 71.7287
130.576 5157 71.8123
130.693 5313 72.8903
130.81 5273 72.6154
130.928 5416 73.5935
131.045 5379 73.3417
131.162 5278 72.6498
131.279 5496 74.135
131.396 5289 72.7255
131.513 5355 73.1779
131.631 5188 72.0278
131.748 4858 69.6994
131.865 4803 69.3037
131.983 4934 70.2424
132.1 5161 71.8401
132.217 5433 73.7089
132.335 5239 72.3809
132.452 5330 73.0068
132.57 5298 72.7874
132.687 4858 69.6994
132.804 4798 69.2676
132.922 4637 68.0955
133.039 4340 65.8787
133.157 4246 65.1613
133.274 4063 63.7417
133.392 4014 63.3561
133.509 3949 62.8411
133.627 4035 63.5216
133.744 4079 63.867
133.862 4217 64.9384
133.979 4236 65.0846
134.097 4250 65.192
134.214 4505 67.1193
134.332 4254 65.2227
134.449 4382 66.1967
134.567 4291 65.5057
134.684 4497 67.0597
134.802 4400 66.3325
134.919 4379 66.174
135.037 4219 64.9538
135.154 4156 64.467
135.272 3895 62.4099
135.389 3680 60.663
135.507 3846 62.0161
135.624 3993 63.1902
135.742 4003 63.2693
135.859 4162 64.5136
135.977 4064 63.7495
136.094 4151 64.4283
136.211 3846 62.0161
136.329 3747 61.2127
136.446 3519 59.3212
136.564 3401 58.3181
136.681 3242 56.9386
136.798 3358 57.9483
136.915 3067 55.3805
137.033 3032 55.0636
137.15 3166 56.2672
137.267 3138 56.0179
137.384 3215 56.701
137.502 3266 57.1489
137.619 3279 57.2626
137.736 3446 58.7026
137.853 3276 57.2364
137.97 3438 58.6345
138.087 3702 60.8441
138.204 3693 60.7701
138.321 3775 61.441
138.438 3853 62.0725
138.555 3892 62.3859
138.672 3940 62.7694
138.788 3836 61.9355
138.905 3754 61.2699
139.022 3777 61.4573
139.139 3718 60.9754
139.255 3970 63.0079
139.372 4119 64.1794
139.488 4282 65.437
139.605 4325 65.7647
139.721 4408 66.3928
139.838 4291 65.5057
139.954 4321 65.7343
140.071 4011 63.3325
140.187 4092 63.9687
140.303 3812 61.7414
140.419 3835 61.9274
140.535 3634 60.2827
140.652 3821 61.8142
140.768 0 1
140.884 0 1
141 0 1
141.115 0 1
141.231 0 1
141.347 0 1
141.463 0 1
141.578 0 1
141.694 0 1
144.104 0 1
144.219 0 1
144.335 0 1
144.45 0 1
144.566 0 1
144.682 0 1
144.798 0 1
144.914 0 1
145.03 0 1
145.146 3580 59.8331
145.262 3481 59
145.378 3366 58.0172
145.494 3210 56.6569
145.61 3154 56.1605
145.726 3117 55.8301
145.842 3034 55.0818
145.959 3011 54.8726
146.075 3151 56.1338
146.192 3108 55.7494
146.308 3207 56.6304
146.425 3158 56.1961
146.541 3123 55.8838
146.658 3206 56.6216
146.774 3096 55.6417
146.891 3161 56.2228
147.008 3226 56.7979
147.125 3207 56.6304
147.241 3234 56.8683
147.358 3188 56.4624
147.475 3168 56.285
147.592 3079 55.4887
147.709 2927 54.1018
147.826 2914 53.9815
147.943 2988 54.6626
148.06 3096 55.6417
148.177 3051 55.2359
148.294 3107 55.7405
148.411 3095 55.6327
148.528 3033 55.0727
148.645 2895 53.8052
148.762 2795 52.8678
148.88 2666 51.6333
148.997 2703 51.9904
149.114 2397 48.9592
149.231 2523 50.2295
149.349 2398 48.9694
149.466 2373 48.7134
149.583 2332 48.2908
149.701 2385 48.8365
149.818 2513 50.1298
149.935 2522 50.2195
150.053 2564 50.636
150.17 2594 50.9313
150.287 2626 51.2445
150.405 2613 51.1175
150.522 2737 52.3163
150.64 2723 52.1824
150.757 2815 53.0566
150.875 2638 51.3615
150.992 2786 52.7826
151.11 2767 52.6023
151.227 2744 52.3832
151.344 2613 51.1175
151.462 2724 52.192
151.579 2839 53.2823
151.697 2865 53.5257
151.814 2935 54.1756
151.932 2981 54.5985
152.049 2995 54.7266
152.167 2953 54.3415
152.284 2948 54.2955
152.402 2857 53.4509
152.519 2797 52.8867
152.636 2818 53.0848
152.754 2591 50.9019
152.871 2666 51.6333
152.989 2613 51.1175
153.106 2582 50.8134
153.223 2745 52.3927
153.341 2800 52.915
153.458 2785 52.7731
153.575 2943 54.2494
153.693 2962 54.4243
153.81 2879 53.6563
153.927 2992 54.6992
154.044 2975 54.5436
154.162 3151 56.1338
154.279 3151 56.1338
154.396 3370 58.0517
154.513 3415 58.438
154.63 3294 57.3934
154.747 3330 57.7062
154.864 3378 58.1206
154.981 3295 57.4021
155.098 3228 56.8155
155.215 3502 59.1777
155.332 3510 59.2453
155.449 3599 59.9917
155.566 3513 59.2706
155.683 3644 60.3656
155.8 3567 59.7244
155.917 3546 59.5483
156.033 3564 59.6992
156.15 0 1
156.267 0 1
156.383 0 1
156.5 0 1
156.617 0 1
156.733 0 1
156.85 0 1
156.966 0 1
157.082 0 1
157.199 0 1
157.315 0 1
157.431 0 1
157.547 0 1
157.664 0 1
157.78 0 1
157.896 0 1
158.012 0 1
158.128 0 1
158.244 0 1
158.359 0 1
158.475 0 1
158.591 0 1
158.706 0 1
