
6.15755 0 1
6.2731 0 1
6.3887 0 1
6.50437 0 1
6.62009 0 1
6.73587 0 1
6.8517 0 1
6.96759 0 1
7.08353 0 1
7.19952 0 1
7.31557 0 1
7.43166 0 1
7.54781 0 1
7.664 0 1
7.78024 0 1
7.89653 0 1
8.01286 0 1
8.12924 0 1
8.24567 0 1
8.36213 0 1
8.47864 0 1
8.59519 0 1
8.71178 0 1
8.82841 0 1
8.94508 0 1
9.06179 0 1
9.17853 0 1
9.29531 0 1
9.41212 0 1
9.52897 0 1
9.64584 0 1
9.76276 0 1
9.8797 0 1
9.99667 0 1
10.1137 0 1
10.2307 0 1
10.3478 0 1
10.4648 0 1
10.5819 0 1
10.6991 0 1
10.8162 0 1
10.9334 0 1
11.0506 0 1
11.1678 0 1
11.285 0 1
11.4023 0 1
11.5196 0 1
11.6369 0 1
11.7542 0 1
11.8715 0 1
11.9888 0 1
12.1062 0 1
12.2235 0 1
12.3409 0 1
12.4582 0 1
12.5756 0 1
12.693 0 1
12.8104 0 1
12.9278 0 1
13.0452 0 1
13.1626 0 1
13.28 0 1
13.3974 0 1
13.5149 0 1
13.6323 0 1
13.7497 0 1
13.8671 0 1
13.9845 0 1
14.1019 0 1
14.2193 0 1
14.3367 0 1
14.4541 0 1
14.5714 0 1
14.6888 0 1
14.8062 0 1
14.9235 0 1
15.0408 0 0
15.1581 0 0
15.2755 0 0
15.3927 0 0
15.51 0 0
15.6273 0 0
15.7445 0 0
15.8617 0 0
15.9789 0 0
16.0961 0 0
16.2132 0 0
16.3304 0 0
16.4475 0 0
16.5646 0 0
16.6816 0 0
16.7986 0 0
16.9156 0 0
17.0326 0 0
17.1496 0 0
17.2665 0 0
17.3833 0 0
17.5002 0 0
17.617 0 0
17.7338 0 0
17.8505 0 0
17.9672 0 0
18.0839 0 0
18.2005 0 0
18.3171 0 0
18.4337 0 0
18.5502 0 0
18.6666 0 0
18.7831 0 0
18.8994 0 0
19.0158 0 0
19.1321 0 0
19.2483 0 0
19.3645 0 0
19.4806 0 0
19.5967 0 0
19.7128 0 0
19.8288 0 0
19.9447 0 0
20.0606 0 1
20.1764 0 1
20.2922 0 1
20.4079 0 1
20.5236 0 1
20.6392 0 1
20.7548 0 1
20.8702 0 1
23.3078 0 1
23.4233 0 1
23.539 0 1
23.6547 0 1
23.7704 0 1
23.8862 0 1
24.0021 0 1
24.118 0 1
24.234 0 1
24.35 0 1
24.4661 8886 94.2656
24.5822 9019 94.9684
24.6984 8896 94.3186
24.8146 8675 93.1397
24.9309 8512 92.2605
25.0472 8443 91.8858
25.1636 8314 91.1811
25.28 8473 92.0489
25.3965 8523 92.3201
25.513 8969 94.7048
25.6296 9221 96.026
25.7462 9445 97.1854
25.8628 9444 97.1802
25.9795 9563 97.7906
26.0962 9361 96.7523
26.213 9549 97.719
26.3298 9184 95.8332
26.4466 9134 95.572
26.5635 8734 93.4559
26.6804 8100 90
26.7973 7952 89.174
26.9143 8450 91.9239
27.0313 8422 91.7715
27.1483 8740 93.488
27.2653 9058 95.1735
27.3824 9063 95.1998
27.4996 8822 93.9255
27.6167 8730 93.4345
27.7339 8475 92.0598
27.8511 8454 91.9456
27.9683 8390 91.5969
28.0855 8099 89.9944
28.2028 8077 89.8721
28.3201 7698 87.7382
28.4374 7568 86.9943
28.5547 7353 85.7496
28.6721 7227 85.0118
28.7894 7254 85.1704
28.9068 7300 85.44
29.0242 7420 86.1394
29.1416 7591 87.1263
29.259 7637 87.3899
29.3764 7704 87.7724
29.4939 7898 88.8707
29.6113 8122 90.1221
29.7288 7939 89.1011
29.8463 7772 88.1589
29.9638 7467 86.4118
30.0812 7379 85.9011
30.1987 7038 83.8928
30.3162 6943 83.3247
30.4337 7170 84.6759
30.5512 7500 86.6025
30.6687 7695 87.7211
30.7862 7834 88.5099
30.9037 7899 88.8763
31.0212 7950 89.1628
31.1387 8007 89.4818
31.2562 7876 88.7468
31.3737 7772 88.1589
31.4912 7535 86.8044
31.6087 7426 86.1742
31.7262 7516 86.6949
31.8436 7185 84.7644
31.9611 7010 83.7257
32.0785 6908 83.1144
32.1959 6661 81.6149
32.3134 6582 81.1295
32.4308 6814 82.547
32.5482 6836 82.6801
32.6655 6983 83.5643
32.7829 6960 83.4266
32.9002 7147 84.5399
33.0176 7252 85.1587
33.1349 7350 85.7321
33.2522 7319 85.5512
33.3694 7461 86.3771
33.4867 7220 84.9706
33.6039 7088 84.1903
33.7211 6706 81.8902
33.8383 6746 82.134
33.9554 6645 81.5169
34.0725 6821 82.5893
34.1896 7057 84.006
34.3067 7222 84.9824
34.4237 7345 85.703
34.5407 7577 87.046
34.6577 7648 87.4528
34.7746 7618 87.2812
34.8915 7599 87.1722
35.0084 7437 86.238
35.1252 7328 85.6037
35.242 7295 85.4108
35.3587 7192 84.8057
35.4755 7070 84.0833
35.5921 6820 82.5833
35.7088 6660 81.6088
35.8254 6342 79.6367
35.9419 6134 78.3199
36.0584 6143 78.3773
36.1749 6404 80.025
36.2913 6376 79.8499
36.4077 6492 80.5729
36.524 6645 81.5169
36.6403 6898 83.0542
36.7565 6905 83.0963
36.8727 6951 83.3727
36.9889 7007 83.7078
37.1049 6759 82.2131
37.221 0 1
37.3369 0 1
37.4529 0 1
37.5687 0 1
37.6845 0 1
37.8003 0 1
37.916 0 1
38.0316 0 1
38.1472 0 1
40.5851 0 1
40.7008 0 1
40.8164 0 1
40.9322 0 1
41.048 0 1
41.1639 0 1
41.2798 0 1
41.3958 0 1
41.5118 0 1
41.6279 0 1
41.744 5141 71.7008
41.8602 5316 72.9109
41.9765 5497 74.1418
42.0928 5516 74.2698
42.2091 5603 74.8532
42.3255 5540 74.4312
42.4419 5630 75.0333
42.5584 5156 71.8053
42.675 4960 70.4273
42.7915 4741 68.8549
42.9081 5103 71.4353
43.0248 5372 73.2939
43.1415 5407 73.5323
43.2582 5347 73.1232
43.375 5546 74.4715
43.4918 5556 74.5386
43.6087 5617 74.9466
43.7256 5546 74.4715
43.8425 5509 74.2226
43.9595 5313 72.8903
44.0765 5134 71.6519
44.1935 5071 71.211
44.3106 4938 70.2709
44.4277 4717 68.6804
44.5448 4476 66.9029
44.6619 4259 65.261
44.7791 4163 64.5213
44.8963 4049 63.6318
45.0136 4109 64.1015
45.1308 4234 65.0692
45.2481 4361 66.0379
45.3654 4557 67.5056
45.4827 4444 66.6633
45.6001 4500 67.082
45.7174 4511 67.164
45.8348 4188 64.7148
45.9522 4353 65.9773
46.0697 4027 63.4586
46.1871 3772 61.4166
46.3046 3834 61.9193
46.422 3912 62.546
46.5395 4067 63.773
46.657 4092 63.9687
46.7745 4176 64.622
46.892 4208 64.8691
47.0096 4239 65.1076
47.1271 4317 65.7039
47.2446 4085 63.914
47.3622 4204 64.8383
47.4797 4046 63.6082
47.5973 3906 62.498
47.7149 3772 61.4166
47.8324 3709 60.9016
47.95 3581 59.8415
48.0675 3512 59.2621
48.1851 3275 57.2276
48.3027 3021 54.9636
48.4202 3115 55.8122
48.5378 3091 55.5968
48.6554 3336 57.7581
48.7729 3348 57.8619
48.8904 3462 58.8388
49.008 3660 60.4979
49.1255 3716 60.959
49.243 3756 61.2862
49.3605 3639 60.3241
49.478 3553 59.607
49.5955 3238 56.9034
49.713 3317 57.5934
49.8304 3159 56.205
49.9479 3356 57.931
50.0653 3651 60.4235
50.1827 3900 62.45
50.3001 3985 63.1269
50.4175 4214 64.9153
50.5348 4254 65.2227
50.6521 4462 66.7982
50.7694 4367 66.0833
50.8867 4503 67.1044
51.004 4618 67.9559
51.1212 4782 69.152
51.2384 4713 68.6513
51.3556 4588 67.7348
51.4727 4566 67.5722
51.5899 4368 66.0908
51.707 4126 64.2339
51.824 4106 64.0781
51.9411 4152 64.436
52.0581 4168 64.56
52.175 4429 66.5507
52.2919 4481 66.9403
52.4088 4720 68.7023
52.5257 4925 70.1783
52.6425 4983 70.5904
52.7593 5104 71.4423
52.876 5137 71.6729
52.9927 5054 71.0915
53.1094 4904 70.0286
53.226 4627 68.0221
53.3426 4557 67.5056
53.4591 4706 68.6003
53.5756 4726 68.7459
53.692 5285 72.698
53.8084 5385 73.3826
53.9248 5688 75.4188
54.0411 6010 77.5242
54.1573 5893 76.7659
54.2735 0 1
54.3896 0 1
54.5057 0 1
54.6217 0 1
54.7377 0 1
54.8537 0 1
54.9695 0 1
55.0853 0 1
55.2011 0 1
55.3168 0 1
55.4324 0 1
57.824 0 1
57.9396 0 1
58.0553 0 1
58.1711 0 1
58.2869 0 1
58.4028 0 1
58.5187 0 1
58.6347 0 1
58.7508 0 1
58.8669 0 1
58.983 6521 80.7527
59.0992 6793 82.4197
59.2155 7009 83.7198
59.3318 7270 85.2643
59.4482 7260 85.2056
59.5646 7216 84.947
59.681 7255 85.1763
59.7975 7248 85.1352
59.9141 7054 83.9881
60.0306 6617 81.3449
60.1473 6460 80.3741
60.2639 6000 77.4597
60.3807 5672 75.3127
60.4974 5516 74.2698
60.6142 5591 74.773
60.731 5377 73.328
60.8479 5604 74.8599
60.9648 5895 76.7789
61.0818 5948 77.1233
61.1987 6096 78.0769
61.3158 6158 78.4729
61.4328 6146 78.3964
61.5499 5990 77.3951
61.667 5652 75.1798
61.7841 5496 74.135
61.9013 5456 73.8647
62.0185 5319 72.9315
62.1357 5534 74.3909
62.253 5859 76.5441
62.3702 6177 78.5939
62.4875 6355 79.7183
62.6049 6594 81.2034
62.7222 6810 82.5227
62.8396 6689 81.7863
62.9569 6726 82.0122
63.0743 6924 83.2106
63.1918 6826 82.6196
63.3092 6604 81.265
63.4267 6601 81.2465
63.5441 6150 78.4219
63.6616 5929 77
63.7791 5444 73.7835
63.8966 5216 72.2219
64.0142 4855 69.6778
64.1317 4906 70.0428
64.2492 4898 69.9857
64.3668 5189 72.0347
64.4843 5336 73.0479
64.6019 5541 74.4379
64.7195 5550 74.4983
64.837 5520 74.2967
64.9546 5585 74.7329
65.0722 5654 75.1931
65.1898 5271 72.6017
65.3074 5188 72.0278
65.4249 4963 70.4486
65.5425 4897 69.9786
65.6601 4884 69.8856
65.7777 5276 72.6361
65.8952 5564 74.5922
66.0128 5830 76.3544
66.1304 5959 77.1946
66.2479 6432 80.1998
66.3655 6350 79.6869
66.483 6442 80.2621
66.6005 6620 81.3634
66.718 6515 80.7155
66.8355 6258 79.1075
66.953 6358 79.7371
67.0705 6092 78.0513
67.1879 5880 76.6812
67.3054 5447 73.8038
67.4228 5000 70.7107
67.5402 4723 68.7241
67.6576 4616 67.9412
67.7749 4581 67.6831
67.8923 5003 70.7319
68.0096 4848 69.6276
68.1269 5386 73.3894
68.2442 5557 74.5453
68.3614 5686 75.4056
68.4787 5658 75.2197
68.5958 5675 75.3326
68.713 5689 75.4255
68.8302 5492 74.108
68.9473 5218 72.2357
69.0643 5061 71.1407
69.1814 4946 70.3278
69.2984 5094 71.3723
69.4154 5485 74.0608
69.5323 5811 76.2299
69.6492 6216 78.8416
69.7661 6648 81.5353
69.8829 6785 82.3711
69.9997 6972 83.4985
70.1165 7237 85.0706
70.2332 7196 84.8292
70.3499 7170 84.6759
70.4665 7139 84.4926
70.5831 6852 82.7768
70.6996 6619 81.3572
70.8161 6473 80.455
70.9326 6238 78.981
71.049 5598 74.8198
71.1653 5516 74.2698
71.2817 5176 71.9444
71.3979 5023 70.8731
71.5141 5152 71.7774
71.6303 5273 72.6154
71.7464 5191 72.0486
71.8624 0 1
71.9784 0 1
72.0944 0 1
72.2102 0 1
72.3261 0 1
72.4418 0 1
72.5575 0 1
72.6732 0 1
75.1054 0 1
75.2209 0 1
75.3365 0 1
75.4521 0 1
75.5678 0 1
75.6835 0 1
75.7993 0 1
75.9151 0 1
76.031 0 1
76.147 6792 82.4136
76.263 7046 83.9405
76.3791 6961 83.4326
76.4952 6228 78.9177
76.6113 6209 78.7972
76.7276 5970 77.2658
76.8438 5849 76.4788
76.9601 5949 77.1298
77.0765 6401 80.0062
77.1929 6637 81.4678
77.3093 6764 82.2435
77.4258 6795 82.4318
77.5423 6879 82.9397
77.6589 6917 83.1685
77.7755 6747 82.1401
77.8921 6491 80.5667
78.0088 6231 78.9367
78.1256 5982 77.3434
78.2423 5896 76.7854
78.3591 6019 77.5822
78.4759 6474 80.4612
78.5928 6867 82.8674
78.7097 7291 85.3874
78.8266 7960 89.2188
78.9436 7436 86.2322
79.0606 7830 88.4873
79.1776 7938 89.0955
79.2946 7892 88.8369
79.4117 7728 87.909
79.5288 7517 86.7006
79.6459 7508 86.6487
79.7631 7110 84.3208
79.8802 6600 81.2404
79.9974 6328 79.5487
80.1147 5567 74.6123
80.2319 5239 72.3809
80.3491 5104 71.4423
80.4664 5050 71.0634
80.5837 5179 71.9653
80.701 5424 73.6478
80.8183 5679 75.3591
80.9357 5723 75.6505
81.053 5758 75.8815
81.1704 5921 76.948
81.2877 5877 76.6616
81.4051 5792 76.1052
81.5225 5459 73.885
81.6399 4957 70.406
81.7573 5037 70.9718
81.8747 4633 68.0661
81.9922 4808 69.3397
82.1096 5119 71.5472
82.227 5346 73.1163
82.3444 5949 77.1298
82.4619 6157 78.4666
82.5793 6287 79.2906
82.6967 6493 80.5792
82.8142 6329 79.555
82.9316 6412 80.075
83.049 6328 79.5487
83.1664 6299 79.3662
83.2838 5824 76.3151
83.4012 5516 74.2698
83.5186 5477 74.0068
83.636 5004 70.739
83.7534 4626 68.0147
83.8708 4388 66.242
83.9881 4219 64.9538
84.1055 4318 65.7115
84.2228 4386 66.2269
84.3401 4657 68.2422
84.4575 5171 71.9097
84.5747 5378 73.3348
84.692 5482 74.0405
84.8093 5499 74.1552
84.9265 5457 73.8715
85.0437 5211 72.1873
85.1609 4913 70.0928
85.2781 4618 67.9559
85.3952 4463 66.8057
85.5123 4520 67.2309
85.6294 4848 69.6276
85.7465 5128 71.6101
85.8636 5770 75.9605
85.9806 5957 77.1816
86.0976 6394 79.9625
86.2145 6536 80.8455
86.3315 6551 80.9382
86.4484 7021 83.7914
86.5652 6921 83.1925
86.682 6794 82.4257
86.7988 6789 82.3954
86.9156 6533 80.827
87.0323 6241 79
87.149 5997 77.4403
87.2657 5675 75.3326
87.3823 5292 72.7461
87.4988 4954 70.3847
87.6154 5152 71.7774
87.7318 5248 72.4431
87.8483 5641 75.1066
87.9647 5995 77.4274
88.081 6128 78.2815
88.1973 6455 80.343
88.3136 6702 81.8657
88.4298 6504 80.6474
88.546 6260 79.1202
88.6621 5987 77.3757
88.7781 5518 74.2832
88.8942 0 1
89.0101 0 1
89.126 0 1
89.2419 0 1
89.3577 0 1
89.4734 0 1
89.5891 0 1
89.7047 0 1
89.8203 0 1
89.9358 0 1
92.3269 0 1
92.4424 0 1
92.558 0 1
92.6736 0 1
92.7893 0 1
92.905 0 1
93.0208 0 1
93.1366 0 1
93.2525 0 1
93.3685 0 1
93.4845 0 1
93.6005 8572 92.5851
93.7167 9178 95.8019
93.8328 9640 98.1835
93.949 10078 100.389
94.0653 10261 101.297
94.1816 10208 101.035
94.2979 10340 101.686
94.4143 10567 102.796
94.5307 10854 104.183
94.6472 11609 107.745
94.7637 12543 111.996
94.8803 14238 119.323
94.9969 15718 125.371
95.1135 17120 130.843
95.2302 18573 136.283
95.3469 19624 140.086
95.4637 20972 144.817
95.5805 22202 149.003
95.6973 22967 151.549
95.8142 24012 154.958
95.9311 24369 156.106
96.048 25073 158.345
96.1649 25074 158.348
96.2819 24822 157.55
96.3989 24544 156.665
96.516 23635 153.737
96.633 22329 149.429
96.7501 22029 148.422
96.8673 23161 152.187
96.9844 25359 159.245
97.1016 27440 165.65
97.2188 29904 172.928
97.336 31568 177.674
97.4532 32113 179.201
97.5704 31967 178.793
97.6877 31672 177.966
97.805 30663 175.109
97.9223 28377 168.455
98.0396 26562 162.979
98.1569 25357 159.239
98.2743 24805 157.496
98.3916 25616 160.05
98.509 27746 166.571
98.6264 29418 171.517
98.7438 30833 175.593
98.8612 31687 178.008
98.9786 32865 181.287
99.096 33138 182.038
99.2134 33601 183.306
99.3308 33924 184.185
99.4482 34179 184.876
99.5656 34021 184.448
99.6831 33416 182.8
99.8005 32469 180.192
99.9179 31284 176.873
100.035 30356 174.23
100.153 28298 168.22
100.27 25986 161.202
100.388 25854 160.792
100.505 27000 164.317
100.622 29655 172.206
100.74 31645 177.89
100.857 32662 180.726
100.975 32856 181.262
101.092 32900 181.384
101.209 32598 180.549
101.327 31896 178.595
101.444 30192 173.758
101.561 27321 165.291
101.679 25786 160.58
101.796 24368 156.103
101.913 24378 156.135
102.03 25333 159.163
102.148 27713 166.472
102.265 30631 175.017
102.382 28987 170.256
102.499 31176 176.567
102.616 31172 176.556
102.733 31040 176.182
102.851 31385 177.158
102.968 30812 175.533
103.085 30397 174.347
103.202 29048 170.435
103.319 27842 166.859
103.436 26066 161.45
103.552 24685 157.115
103.669 22370 149.566
103.786 20379 142.755
103.903 19307 138.95
104.02 20031 141.531
104.137 20279 142.404
104.253 21135 145.379
104.37 20080 141.704
104.487 19854 140.904
104.603 18972 137.739
104.72 17910 133.828
104.836 16567 128.713
104.953 14480 120.333
105.069 12750 112.916
105.186 11852 108.867
105.302 10732 103.595
105.418 10713 103.504
105.535 11032 105.033
105.651 11472 107.107
105.767 11848 108.849
105.883 11539 107.42
105.999 11156 105.622
106.115 0 1
106.231 0 1
106.347 0 1
106.463 0 1
106.579 0 1
106.694 0 1
106.81 0 1
106.926 0 1
107.041 0 1
107.157 0 1
109.576 0 1
109.692 0 1
109.807 0 1
109.923 0 1
110.039 0 1
110.155 0 1
110.27 0 1
110.386 0 1
110.502 0 1
110.618 6290 79.3095
110.735 7134 84.463
110.851 7631 87.3556
110.967 8021 89.56
111.083 8063 89.7942
111.199 8208 90.598
111.316 8396 91.6297
111.432 8274 90.9615
111.549 8234 90.7414
111.665 7890 88.8257
111.782 7630 87.3499
111.898 7279 85.3171
112.015 7110 84.3208
112.132 6573 81.074
112.248 6038 77.7046
112.365 5762 75.9078
112.482 5781 76.0329
112.599 5891 76.7529
112.716 6386 79.9125
112.832 6440 80.2496
112.949 6563 81.0123
113.066 6380 79.8749
113.183 6284 79.2717
113.3 6205 78.7718
113.417 6033 77.6724
113.534 5608 74.8866
113.652 5599 74.8265
113.769 5390 73.4166
113.886 5398 73.4711
114.003 5712 75.5778
114.12 5941 77.0779
114.238 6618 81.3511
114.355 6911 83.1324
114.472 7362 85.8021
114.589 7560 86.9483
114.707 7640 87.4071
114.824 7861 88.6623
114.942 7834 88.5099
115.059 8117 90.0944
115.176 8033 89.627
115.294 7808 88.3629
115.411 7904 88.9044
115.529 7149 84.5518
115.646 7047 83.9464
115.764 6631 81.431
115.881 6519 80.7403
115.999 6524 80.7713
116.116 6701 81.8596
116.234 6962 83.4386
116.351 7190 84.7939
116.469 7278 85.3112
116.586 7237 85.0706
116.704 7217 84.9529
116.821 7359 85.7846
116.939 7230 85.0294
117.056 7008 83.7138
117.174 6766 82.2557
117.291 6653 81.5659
117.409 6783 82.359
117.526 6849 82.7587
117.644 7274 85.2877
117.761 8126 90.1443
117.879 8577 92.6121
117.996 8680 93.1665
118.114 9216 96
118.231 9293 96.4002
118.349 9368 96.7884
118.466 9612 98.0408
118.584 9456 97.242
118.701 9638 98.1733
118.819 9538 97.6627
118.936 9172 95.7706
119.053 8881 94.2391
119.171 8551 92.4716
119.288 8305 91.1318
119.405 7810 88.3742
119.523 7268 85.2526
119.64 7330 85.6154
119.757 7414 86.1046
119.875 7534 86.7986
119.992 7717 87.8465
120.109 7562 86.9598
120.226 7702 87.761
120.343 7616 87.2697
120.46 7521 86.7237
120.578 7355 85.7613
120.695 7044 83.9285
120.812 7173 84.6936
120.929 6909 83.1204
121.046 7103 84.2793
121.163 7156 84.5931
121.279 7396 86
121.396 7858 88.6454
121.513 8296 91.0824
121.63 8874 94.2019
121.747 8865 94.1541
121.863 9005 94.8947
121.98 9261 96.2341
122.097 9353 96.7109
122.213 9559 97.7701
122.33 9518 97.5602
122.446 9303 96.4521
122.563 9110 95.4463
122.679 8775 93.675
122.795 8842 94.0319
122.912 8536 92.3905
123.028 8113 90.0722
123.144 7733 87.9375
123.26 7275 85.2936
123.377 0 1
123.493 0 1
123.609 0 1
123.725 0 1
123.84 0 1
123.956 0 1
124.072 0 1
124.188 0 1
124.303 0 1
124.419 0 1
126.852 0 1
126.968 0 1
127.083 0 1
127.199 0 1
127.315 0 1
127.431 0 1
127.547 0 1
127.663 0 1
127.779 0 1
127.895 0 1
128.011 0 1
128.127 0 1
128.243 0 1
128.359 8843 94.0372
128.476 8337 91.3072
128.592 8284 91.0165
128.708 8335 91.2962
128.825 8584 92.6499
128.941 8735 93.4612
129.058 8736 93.4666
129.174 8729 93.4291
129.291 8590 92.6823
129.408 8302 91.1153
129.524 8154 90.2995
129.641 7990 89.3868
129.758 7870 88.713
129.875 7590 87.1206
129.992 7736 87.9545
130.108 7419 86.1336
130.225 7745 88.0057
130.342 8118 90.0999
130.459 8265 90.912
130.576 8809 93.8563
130.693 8911 94.3981
130.81 8591 92.6876
130.928 8720 93.3809
131.045 8921 94.451
131.162 8916 94.4246
131.279 8743 93.504
131.396 8463 91.9946
131.513 8012 89.5098
131.631 7794 88.2836
131.748 7836 88.5212
131.865 7271 85.2702
131.983 6875 82.9156
132.1 6696 81.8291
132.217 6704 81.878
132.335 6706 81.8902
132.452 6998 83.654
132.57 6862 82.8372
132.687 6535 80.8393
132.804 7037 83.8868
132.922 6626 81.4002
133.039 6568 81.0432
133.157 6362 79.7621
133.274 6208 78.7909
133.392 5998 77.4468
133.509 5990 77.3951
133.627 5840 76.4199
133.744 6104 78.1281
133.862 6328 79.5487
133.979 6634 81.4494
134.097 6751 82.1645
134.214 7148 84.5458
134.332 6813 82.5409
134.449 7072 84.0952
134.567 7155 84.5872
134.684 7386 85.9418
134.802 7474 86.4523
134.919 7335 85.6446
135.037 7221 84.9765
135.154 7055 83.994
135.272 6938 83.2947
135.389 6784 82.365
135.507 6330 79.5613
135.624 6096 78.0769
135.742 6042 77.7303
135.859 6404 80.025
135.977 6496 80.5978
136.094 6693 81.8108
136.211 6648 81.5353
136.329 6757 82.201
136.446 6800 82.4621
136.564 6603 81.2588
136.681 6651 81.5537
136.798 6414 80.0875
136.915 6367 79.7935
137.033 6053 77.801
137.15 6018 77.5758
137.267 5953 77.1557
137.384 6027 77.6338
137.502 6385 79.9062
137.619 6762 82.2314
137.736 6833 82.662
137.853 7002 83.678
137.97 6941 83.3127
138.087 7172 84.6877
138.204 7186 84.7703
138.321 7349 85.7263
138.438 7373 85.8662
138.555 7464 86.3944
138.672 7509 86.6545
138.788 7286 85.3581
138.905 7132 84.4512
139.022 6904 83.0903
139.139 6809 82.5167
139.255 6458 80.3617
139.372 6338 79.6116
139.488 6453 80.3306
139.605 6717 81.9573
139.721 6904 83.0903
139.838 6940 83.3067
139.954 6953 83.3847
140.071 6810 82.5227
140.187 6752 82.1706
140.303 6581 81.1234
140.419 6495 80.5916
140.535 6505 80.6536
140.652 6069 77.9038
140.768 0 1
140.884 0 1
141 0 1
141.115 0 1
141.231 0 1
141.347 0 1
141.463 0 1
141.578 0 1
141.694 0 1
144.104 0 1
144.219 0 1
144.335 0 1
144.45 0 1
144.566 0 1
144.682 0 1
144.798 0 1
144.914 0 1
145.03 0 1
145.146 6141 78.3645
145.262 6084 78
145.378 6000 77.4597
145.494 5833 76.3741
145.61 5669 75.2928
145.726 5631 75.04
145.842 5564 74.5922
145.959 5516 74.2698
146.075 5599 74.8265
146.192 5708 75.5513
146.308 5851 76.4918
146.425 6030 77.6531
146.541 6035 77.6853
146.658 6163 78.5048
146.774 6452 80.3243
146.891 6371 79.8185
147.008 6312 79.4481
147.125 6428 80.1748
147.241 6505 80.6536
147.358 6517 80.7279
147.475 6285 79.278
147.592 6207 78.7845
147.709 5972 77.2787
147.826 5649 75.1598
147.943 5482 74.0405
148.06 5511 74.2361
148.177 5832 76.3675
148.294 5974 77.2917
148.411 6021 77.5951
148.528 5981 77.3369
148.645 5783 76.046
148.762 5892 76.7594
148.88 5741 75.7694
148.997 5433 73.7089
149.114 5776 76
149.231 5400 73.4847
149.349 5419 73.6139
149.466 5235 72.3533
149.583 5028 70.9084
149.701 5148 71.7496
149.818 5391 73.4234
149.935 5499 74.1552
150.053 5723 75.6505
150.17 5716 75.6042
150.287 5848 76.4722
150.405 5884 76.7072
150.522 6152 78.4347
150.64 6083 77.9936
150.757 6200 78.7401
150.875 6098 78.0897
150.992 6276 79.2212
151.11 5905 76.844
151.227 5984 77.3563
151.344 5575 74.6659
151.462 5490 74.0945
151.579 5407 73.5323
151.697 5528 74.3505
151.814 5732 75.71
151.932 5967 77.2464
152.049 5994 77.4209
152.167 5964 77.2269
152.284 6241 79
152.402 6095 78.0705
152.519 6039 77.711
152.636 6068 77.8974
152.754 5793 76.1118
152.871 5666 75.2728
152.989 5782 76.0395
153.106 5818 76.2758
153.223 5688 75.4188
153.341 6062 77.8588
153.458 6126 78.2688
153.575 6523 80.7651
153.693 6637 81.4678
153.81 6869 82.8794
153.927 7158 84.605
154.044 7448 86.3018
154.162 7716 87.8408
154.279 7862 88.6679
154.396 8114 90.0777
154.513 8158 90.3216
154.63 8245 90.802
154.747 8091 89.95
154.864 8189 90.4931
154.981 8128 90.1554
155.098 7805 88.3459
155.215 7670 87.5785
155.332 8193 90.5152
155.449 8010 89.4986
155.566 8464 92
155.683 8419 91.7551
155.8 8550 92.4662
155.917 8431 91.8205
156.033 8273 90.956
156.15 0 1
156.267 0 1
156.383 0 1
156.5 0 1
156.617 0 1
156.733 0 1
156.85 0 1
156.966 0 1
157.082 0 1
157.199 0 1
157.315 0 1
157.431 0 1
157.547 0 1
157.664 0 1
157.78 0 1
157.896 0 1
158.012 0 1
158.128 0 1
158.244 0 1
158.359 0 1
158.475 0 1
158.591 0 1
158.706 0 1
